# Temperatura_=_26.68
# Concentracion g/m^3_=_28370.0
# C_Vs_to_Am_M_A/Vsm_=_65563218390.804596
# pendiente_HvsI_1/m_=_3716.3
# ordenada_HvsI_A/m_=_1297.0
# frecuencia_Hz_=_302441.9679198949

Tiempo_(s)	Campo_(V.s)	Magnetizacion_(V.s)	Campo_(kA/m)	Magnetizacion_(A/m)
0.000000e+00	-7.949296e-06	-6.138846e-08	-5.688051e+01	-4.019164e+03
1.000000e-08	-7.946162e-06	-6.137571e-08	-5.685809e+01	-4.017979e+03
2.000000e-08	-7.940409e-06	-6.135589e-08	-5.681692e+01	-4.016434e+03
3.000000e-08	-7.932002e-06	-6.133221e-08	-5.675677e+01	-4.014601e+03
4.000000e-08	-7.920754e-06	-6.130409e-08	-5.667628e+01	-4.012545e+03
5.000000e-08	-7.906559e-06	-6.126696e-08	-5.657472e+01	-4.010315e+03
6.000000e-08	-7.889576e-06	-6.122029e-08	-5.645319e+01	-4.007937e+03
7.000000e-08	-7.870274e-06	-6.116383e-08	-5.631508e+01	-4.005413e+03
8.000000e-08	-7.848723e-06	-6.111017e-08	-5.616087e+01	-4.002722e+03
9.000000e-08	-7.824325e-06	-6.111736e-08	-5.598630e+01	-3.999828e+03
1.000000e-07	-7.796695e-06	-6.106044e-08	-5.578859e+01	-3.996685e+03
1.100000e-07	-7.766050e-06	-6.094962e-08	-5.556932e+01	-3.993250e+03
1.200000e-07	-7.732596e-06	-6.088138e-08	-5.532994e+01	-3.989489e+03
1.300000e-07	-7.696450e-06	-6.082175e-08	-5.507130e+01	-3.985387e+03
1.400000e-07	-7.657935e-06	-6.072308e-08	-5.479571e+01	-3.980944e+03
1.500000e-07	-7.617237e-06	-6.058950e-08	-5.450450e+01	-3.976178e+03
1.600000e-07	-7.574172e-06	-6.059100e-08	-5.419635e+01	-3.971114e+03
1.700000e-07	-7.528468e-06	-6.049160e-08	-5.386932e+01	-3.965780e+03
1.800000e-07	-7.480044e-06	-6.031328e-08	-5.352282e+01	-3.960192e+03
1.900000e-07	-7.428680e-06	-6.028369e-08	-5.315529e+01	-3.954350e+03
2.000000e-07	-7.374340e-06	-6.014062e-08	-5.276647e+01	-3.948228e+03
2.100000e-07	-7.317314e-06	-6.004323e-08	-5.235842e+01	-3.941773e+03
2.200000e-07	-7.257666e-06	-5.995823e-08	-5.193161e+01	-3.934912e+03
2.300000e-07	-7.195372e-06	-5.978148e-08	-5.148588e+01	-3.927553e+03
2.400000e-07	-7.130445e-06	-5.966001e-08	-5.102129e+01	-3.919601e+03
2.500000e-07	-7.062860e-06	-5.950130e-08	-5.053770e+01	-3.910970e+03
2.600000e-07	-6.992577e-06	-5.935563e-08	-5.003479e+01	-3.901596e+03
2.700000e-07	-6.919458e-06	-5.915766e-08	-4.951160e+01	-3.891444e+03
2.800000e-07	-6.843534e-06	-5.901039e-08	-4.896833e+01	-3.880515e+03
2.900000e-07	-6.764899e-06	-5.885849e-08	-4.840566e+01	-3.868847e+03
3.000000e-07	-6.683609e-06	-5.864393e-08	-4.782400e+01	-3.856503e+03
3.100000e-07	-6.599938e-06	-5.846941e-08	-4.722530e+01	-3.843564e+03
3.200000e-07	-6.514040e-06	-5.827514e-08	-4.661066e+01	-3.830109e+03
3.300000e-07	-6.425836e-06	-5.807757e-08	-4.597952e+01	-3.816203e+03
3.400000e-07	-6.335284e-06	-5.782555e-08	-4.533159e+01	-3.801879e+03
3.500000e-07	-6.242468e-06	-5.759299e-08	-4.466745e+01	-3.787130e+03
3.600000e-07	-6.147424e-06	-5.736465e-08	-4.398737e+01	-3.771903e+03
3.700000e-07	-6.050107e-06	-5.710736e-08	-4.329103e+01	-3.756105e+03
3.800000e-07	-5.950585e-06	-5.684282e-08	-4.257891e+01	-3.739610e+03
3.900000e-07	-5.848918e-06	-5.656628e-08	-4.185144e+01	-3.722277e+03
4.000000e-07	-5.745104e-06	-5.628566e-08	-4.110861e+01	-3.703967e+03
4.100000e-07	-5.639274e-06	-5.597059e-08	-4.035135e+01	-3.684561e+03
4.200000e-07	-5.531553e-06	-5.565785e-08	-3.958056e+01	-3.663975e+03
4.300000e-07	-5.421846e-06	-5.532741e-08	-3.879556e+01	-3.642167e+03
4.400000e-07	-5.310097e-06	-5.497871e-08	-3.799595e+01	-3.619140e+03
4.500000e-07	-5.196333e-06	-5.460716e-08	-3.718192e+01	-3.594933e+03
4.600000e-07	-5.080596e-06	-5.422622e-08	-3.635377e+01	-3.569604e+03
4.700000e-07	-4.962947e-06	-5.382774e-08	-3.551195e+01	-3.543214e+03
4.800000e-07	-4.843479e-06	-5.340919e-08	-3.465710e+01	-3.515799e+03
4.900000e-07	-4.722301e-06	-5.297776e-08	-3.379003e+01	-3.487357e+03
5.000000e-07	-4.599414e-06	-5.251957e-08	-3.291072e+01	-3.457826e+03
5.100000e-07	-4.474857e-06	-5.203996e-08	-3.201946e+01	-3.427085e+03
5.200000e-07	-4.348676e-06	-5.153088e-08	-3.111658e+01	-3.394954e+03
5.300000e-07	-4.220880e-06	-5.099984e-08	-3.020215e+01	-3.361207e+03
5.400000e-07	-4.091501e-06	-5.043916e-08	-2.927639e+01	-3.325596e+03
5.500000e-07	-3.960563e-06	-4.985448e-08	-2.833948e+01	-3.287877e+03
5.600000e-07	-3.828161e-06	-4.923589e-08	-2.739208e+01	-3.247831e+03
5.700000e-07	-3.694365e-06	-4.858503e-08	-2.643472e+01	-3.205288e+03
5.800000e-07	-3.559137e-06	-4.790421e-08	-2.546710e+01	-3.160134e+03
5.900000e-07	-3.422511e-06	-4.718887e-08	-2.448948e+01	-3.112311e+03
6.000000e-07	-3.284554e-06	-4.643134e-08	-2.350235e+01	-3.061796e+03
6.100000e-07	-3.145191e-06	-4.562644e-08	-2.250515e+01	-3.008573e+03
6.200000e-07	-3.004407e-06	-4.477591e-08	-2.149778e+01	-2.952594e+03
6.300000e-07	-2.862453e-06	-4.386953e-08	-2.048204e+01	-2.893734e+03
6.400000e-07	-2.719396e-06	-4.290715e-08	-1.945841e+01	-2.831753e+03
6.500000e-07	-2.575279e-06	-4.188545e-08	-1.842719e+01	-2.766264e+03
6.600000e-07	-2.430276e-06	-4.080345e-08	-1.738964e+01	-2.696721e+03
6.700000e-07	-2.284389e-06	-3.964640e-08	-1.634575e+01	-2.622431e+03
6.800000e-07	-2.137705e-06	-3.840592e-08	-1.529617e+01	-2.542587e+03
6.900000e-07	-1.990376e-06	-3.707902e-08	-1.424196e+01	-2.456323e+03
7.000000e-07	-1.842494e-06	-3.565299e-08	-1.318381e+01	-2.362793e+03
7.100000e-07	-1.694032e-06	-3.411472e-08	-1.212150e+01	-2.261255e+03
7.200000e-07	-1.545024e-06	-3.245451e-08	-1.105529e+01	-2.151158e+03
7.300000e-07	-1.395486e-06	-3.066642e-08	-9.985285e+00	-2.032221e+03
7.400000e-07	-1.245460e-06	-2.873503e-08	-8.911786e+00	-1.904489e+03
7.500000e-07	-1.095003e-06	-2.665732e-08	-7.835204e+00	-1.768361e+03
7.600000e-07	-9.441235e-07	-2.443782e-08	-6.755596e+00	-1.624581e+03
7.700000e-07	-7.929047e-07	-2.209740e-08	-5.673563e+00	-1.474200e+03
7.800000e-07	-6.413955e-07	-1.969485e-08	-4.589451e+00	-1.318496e+03
7.900000e-07	-4.897013e-07	-1.727691e-08	-3.504016e+00	-1.158872e+03
8.000000e-07	-3.378787e-07	-1.485120e-08	-2.417662e+00	-9.967410e+02
8.100000e-07	-1.859038e-07	-1.242132e-08	-1.330219e+00	-8.334090e+02
8.200000e-07	-3.383478e-08	-9.991267e-09	-2.421019e-01	-6.699656e+02
8.300000e-07	1.182473e-07	-7.561191e-09	8.461087e-01	-5.072043e+02
8.400000e-07	2.702780e-07	-5.131630e-09	1.933951e+00	-3.455764e+02
8.500000e-07	4.222193e-07	-2.704598e-09	3.021155e+00	-1.851852e+02
8.600000e-07	5.740891e-07	-2.792020e-10	4.107846e+00	-2.582316e+01
8.700000e-07	7.258301e-07	2.148670e-09	5.193616e+00	1.329533e+02
8.800000e-07	8.773893e-07	4.576964e-09	6.278085e+00	2.917197e+02
8.900000e-07	1.028681e-06	7.001825e-09	7.360639e+00	4.510624e+02
9.000000e-07	1.179665e-06	9.424785e-09	8.440991e+00	6.114560e+02
9.100000e-07	1.330269e-06	1.184765e-08	9.518625e+00	7.731525e+02
9.200000e-07	1.480354e-06	1.427003e-08	1.059255e+01	9.360977e+02
9.300000e-07	1.629841e-06	1.669242e-08	1.166219e+01	1.099883e+03
9.400000e-07	1.778671e-06	1.911588e-08	1.272713e+01	1.263741e+03
9.500000e-07	1.926877e-06	2.153928e-08	1.378761e+01	1.426581e+03
9.600000e-07	2.074400e-06	2.396097e-08	1.484319e+01	1.587065e+03
9.700000e-07	2.221174e-06	2.638223e-08	1.589342e+01	1.743716e+03
9.800000e-07	2.367181e-06	2.875877e-08	1.693817e+01	1.895033e+03
9.900000e-07	2.512203e-06	3.100544e-08	1.797586e+01	2.039620e+03
1.000000e-06	2.656219e-06	3.308068e-08	1.900635e+01	2.176298e+03
1.010000e-06	2.799280e-06	3.498971e-08	2.003001e+01	2.304192e+03
1.020000e-06	2.941235e-06	3.674490e-08	2.104576e+01	2.422790e+03
1.030000e-06	3.082042e-06	3.835955e-08	2.205329e+01	2.531960e+03
1.040000e-06	3.221573e-06	3.984753e-08	2.305170e+01	2.631935e+03
1.050000e-06	3.359793e-06	4.122321e-08	2.404071e+01	2.723256e+03
1.060000e-06	3.496738e-06	4.249567e-08	2.502061e+01	2.806697e+03
1.070000e-06	3.632390e-06	4.367378e-08	2.599126e+01	2.883174e+03
1.080000e-06	3.766682e-06	4.476692e-08	2.695217e+01	2.953651e+03
1.090000e-06	3.899592e-06	4.578573e-08	2.790320e+01	3.019048e+03
1.100000e-06	4.031173e-06	4.673872e-08	2.884472e+01	3.080177e+03
1.110000e-06	4.161277e-06	4.762908e-08	2.977567e+01	3.137689e+03
1.120000e-06	4.289900e-06	4.846451e-08	3.069602e+01	3.192061e+03
1.130000e-06	4.416995e-06	4.924959e-08	3.160544e+01	3.243592e+03
1.140000e-06	4.542543e-06	4.998535e-08	3.250378e+01	3.292439e+03
1.150000e-06	4.666638e-06	5.067357e-08	3.339173e+01	3.338649e+03
1.160000e-06	4.789079e-06	5.131885e-08	3.426785e+01	3.382211e+03
1.170000e-06	4.909805e-06	5.192539e-08	3.513169e+01	3.423107e+03
1.180000e-06	5.028790e-06	5.249796e-08	3.598308e+01	3.461345e+03
1.190000e-06	5.145920e-06	5.303970e-08	3.682119e+01	3.496990e+03
1.200000e-06	5.261095e-06	5.355075e-08	3.764532e+01	3.530176e+03
1.210000e-06	5.374244e-06	5.403179e-08	3.845495e+01	3.561101e+03
1.220000e-06	5.485403e-06	5.448497e-08	3.925034e+01	3.590013e+03
1.230000e-06	5.594618e-06	5.491254e-08	4.003182e+01	3.617180e+03
1.240000e-06	5.701790e-06	5.531772e-08	4.079868e+01	3.642868e+03
1.250000e-06	5.806826e-06	5.570262e-08	4.155026e+01	3.667310e+03
1.260000e-06	5.909728e-06	5.606475e-08	4.228656e+01	3.690684e+03
1.270000e-06	6.010542e-06	5.640740e-08	4.300792e+01	3.713104e+03
1.280000e-06	6.109140e-06	5.673429e-08	4.371343e+01	3.734619e+03
1.290000e-06	6.205382e-06	5.704426e-08	4.440209e+01	3.755221e+03
1.300000e-06	6.299340e-06	5.733890e-08	4.507439e+01	3.774863e+03
1.310000e-06	6.391040e-06	5.761612e-08	4.573055e+01	3.793480e+03
1.320000e-06	6.480439e-06	5.787644e-08	4.637023e+01	3.811014e+03
1.330000e-06	6.567507e-06	5.812238e-08	4.699324e+01	3.827431e+03
1.340000e-06	6.652379e-06	5.835640e-08	4.760053e+01	3.842735e+03
1.350000e-06	6.734946e-06	5.858156e-08	4.819134e+01	3.856976e+03
1.360000e-06	6.814978e-06	5.879518e-08	4.876400e+01	3.870244e+03
1.370000e-06	6.892512e-06	5.899516e-08	4.931879e+01	3.882656e+03
1.380000e-06	6.967454e-06	5.918309e-08	4.985503e+01	3.894346e+03
1.390000e-06	7.039746e-06	5.936153e-08	5.037230e+01	3.905444e+03
1.400000e-06	7.109562e-06	5.953065e-08	5.087187e+01	3.916058e+03
1.410000e-06	7.176856e-06	5.969092e-08	5.135338e+01	3.926260e+03
1.420000e-06	7.241490e-06	5.984321e-08	5.181587e+01	3.936083e+03
1.430000e-06	7.303615e-06	5.998799e-08	5.226040e+01	3.945516e+03
1.440000e-06	7.363312e-06	6.012495e-08	5.268756e+01	3.954517e+03
1.450000e-06	7.420380e-06	6.025472e-08	5.309590e+01	3.963017e+03
1.460000e-06	7.474821e-06	6.037622e-08	5.348545e+01	3.970944e+03
1.470000e-06	7.526388e-06	6.048656e-08	5.385443e+01	3.978232e+03
1.480000e-06	7.574795e-06	6.058644e-08	5.420080e+01	3.984841e+03
1.490000e-06	7.620381e-06	6.067748e-08	5.452699e+01	3.990758e+03
1.500000e-06	7.663316e-06	6.076218e-08	5.483421e+01	3.996010e+03
1.510000e-06	7.703466e-06	6.084110e-08	5.512150e+01	4.000652e+03
1.520000e-06	7.740929e-06	6.091414e-08	5.538956e+01	4.004766e+03
1.530000e-06	7.775732e-06	6.098120e-08	5.563859e+01	4.008443e+03
1.540000e-06	7.807773e-06	6.104229e-08	5.586786e+01	4.011770e+03
1.550000e-06	7.837073e-06	6.109798e-08	5.607751e+01	4.014820e+03
1.560000e-06	7.863590e-06	6.114830e-08	5.626726e+01	4.017638e+03
1.570000e-06	7.887180e-06	6.119314e-08	5.643605e+01	4.020237e+03
1.580000e-06	7.907982e-06	6.123079e-08	5.658490e+01	4.022601e+03
1.590000e-06	7.926083e-06	6.125985e-08	5.671442e+01	4.024685e+03
1.600000e-06	7.941209e-06	6.128248e-08	5.682265e+01	4.026428e+03
1.610000e-06	7.953256e-06	6.130042e-08	5.690885e+01	4.027767e+03
1.620000e-06	7.962212e-06	6.131327e-08	5.697294e+01	4.028647e+03
1.630000e-06	7.968221e-06	6.132215e-08	5.701593e+01	4.029029e+03
1.640000e-06	7.971436e-06	6.132839e-08	5.703894e+01	4.028905e+03
1.650000e-06	7.971794e-06	6.133121e-08	5.704150e+01	4.028293e+03
1.660000e-06	7.969451e-06	6.131987e-08	5.702474e+01	4.027236e+03
1.670000e-06	7.964562e-06	6.130625e-08	5.698975e+01	4.025797e+03
1.680000e-06	7.956986e-06	6.129178e-08	5.693554e+01	4.024047e+03
1.690000e-06	7.946701e-06	6.127093e-08	5.686195e+01	4.022055e+03
1.700000e-06	7.933610e-06	6.124562e-08	5.676828e+01	4.019874e+03
1.710000e-06	7.917733e-06	6.122215e-08	5.665467e+01	4.017541e+03
1.720000e-06	7.899482e-06	6.120516e-08	5.652408e+01	4.015063e+03
1.730000e-06	7.878951e-06	6.115473e-08	5.637717e+01	4.012428e+03
1.740000e-06	7.855566e-06	6.104170e-08	5.620984e+01	4.009602e+03
1.750000e-06	7.828641e-06	6.102250e-08	5.601718e+01	4.006542e+03
1.760000e-06	7.798109e-06	6.100350e-08	5.579871e+01	4.003203e+03
1.770000e-06	7.764617e-06	6.092495e-08	5.555906e+01	3.999548e+03
1.780000e-06	7.728783e-06	6.086827e-08	5.530265e+01	3.995555e+03
1.790000e-06	7.690722e-06	6.088382e-08	5.503031e+01	3.991218e+03
1.800000e-06	7.650707e-06	6.073917e-08	5.474399e+01	3.986551e+03
1.810000e-06	7.608534e-06	6.065581e-08	5.444222e+01	3.981578e+03
1.820000e-06	7.563687e-06	6.072712e-08	5.412132e+01	3.976326e+03
1.830000e-06	7.516240e-06	6.057644e-08	5.378182e+01	3.970817e+03
1.840000e-06	7.465905e-06	6.061124e-08	5.342165e+01	3.965057e+03
1.850000e-06	7.412508e-06	6.050615e-08	5.303958e+01	3.959027e+03
1.860000e-06	7.356361e-06	6.036258e-08	5.263782e+01	3.952685e+03
1.870000e-06	7.297538e-06	6.033874e-08	5.221691e+01	3.945962e+03
1.880000e-06	7.236088e-06	6.014981e-08	5.177722e+01	3.938771e+03
1.890000e-06	7.171871e-06	6.009210e-08	5.131771e+01	3.931018e+03
1.900000e-06	7.104846e-06	5.992854e-08	5.083812e+01	3.922612e+03
1.910000e-06	7.035134e-06	5.981253e-08	5.033931e+01	3.913481e+03
1.920000e-06	6.962660e-06	5.968243e-08	4.982073e+01	3.903578e+03
1.930000e-06	6.887499e-06	5.946023e-08	4.928291e+01	3.892895e+03
1.940000e-06	6.809620e-06	5.936387e-08	4.872566e+01	3.881457e+03
1.950000e-06	6.729078e-06	5.915181e-08	4.814935e+01	3.869320e+03
1.960000e-06	6.646043e-06	5.897720e-08	4.755520e+01	3.856561e+03
1.970000e-06	6.560555e-06	5.877219e-08	4.694350e+01	3.843262e+03
1.980000e-06	6.472656e-06	5.859116e-08	4.631454e+01	3.829494e+03
1.990000e-06	6.382440e-06	5.840898e-08	4.566901e+01	3.815302e+03
2.000000e-06	6.290011e-06	5.815713e-08	4.500764e+01	3.800691e+03
2.010000e-06	6.195344e-06	5.794725e-08	4.433026e+01	3.785624e+03
2.020000e-06	6.098446e-06	5.768589e-08	4.363692e+01	3.770020e+03
2.030000e-06	5.999357e-06	5.743885e-08	4.292789e+01	3.753762e+03
2.040000e-06	5.898160e-06	5.715677e-08	4.220379e+01	3.736712e+03
2.050000e-06	5.794864e-06	5.689751e-08	4.146466e+01	3.718728e+03
2.060000e-06	5.689530e-06	5.660910e-08	4.071095e+01	3.699684e+03
2.070000e-06	5.582281e-06	5.629603e-08	3.994354e+01	3.679482e+03
2.080000e-06	5.473096e-06	5.597984e-08	3.916227e+01	3.658067e+03
2.090000e-06	5.361945e-06	5.564301e-08	3.836695e+01	3.635427e+03
2.100000e-06	5.248800e-06	5.530219e-08	3.755734e+01	3.611592e+03
2.110000e-06	5.133658e-06	5.493234e-08	3.673346e+01	3.586615e+03
2.120000e-06	5.016547e-06	5.455538e-08	3.589548e+01	3.560558e+03
2.130000e-06	4.897502e-06	5.414124e-08	3.504366e+01	3.533469e+03
2.140000e-06	4.776566e-06	5.371920e-08	3.417831e+01	3.505359e+03
2.150000e-06	4.653859e-06	5.327245e-08	3.330029e+01	3.476186e+03
2.160000e-06	4.529449e-06	5.281119e-08	3.241009e+01	3.445850e+03
2.170000e-06	4.403379e-06	5.232420e-08	3.150801e+01	3.414186e+03
2.180000e-06	4.275768e-06	5.181446e-08	3.059489e+01	3.380983e+03
2.190000e-06	4.146639e-06	5.127270e-08	2.967092e+01	3.345997e+03
2.200000e-06	4.015940e-06	5.070283e-08	2.873572e+01	3.308979e+03
2.210000e-06	3.883699e-06	5.010815e-08	2.778948e+01	3.269701e+03
2.220000e-06	3.749987e-06	4.947829e-08	2.683272e+01	3.227974e+03
2.230000e-06	3.614880e-06	4.881442e-08	2.586597e+01	3.183666e+03
2.240000e-06	3.478374e-06	4.810932e-08	2.488921e+01	3.136703e+03
2.250000e-06	3.340511e-06	4.736815e-08	2.390274e+01	3.087052e+03
2.260000e-06	3.201360e-06	4.658493e-08	2.290706e+01	3.034700e+03
2.270000e-06	3.061002e-06	4.576249e-08	2.190274e+01	2.979615e+03
2.280000e-06	2.919518e-06	4.489064e-08	2.089037e+01	2.921699e+03
2.290000e-06	2.776874e-06	4.396510e-08	1.986969e+01	2.860754e+03
2.300000e-06	2.633213e-06	4.297708e-08	1.884173e+01	2.796443e+03
2.310000e-06	2.488641e-06	4.192525e-08	1.780726e+01	2.728270e+03
2.320000e-06	2.343190e-06	4.080407e-08	1.676650e+01	2.655587e+03
2.330000e-06	2.196943e-06	3.960390e-08	1.572004e+01	2.577620e+03
2.340000e-06	2.049885e-06	3.831658e-08	1.466778e+01	2.493513e+03
2.350000e-06	1.902066e-06	3.693395e-08	1.361007e+01	2.402404e+03
2.360000e-06	1.753674e-06	3.544554e-08	1.254827e+01	2.303509e+03
2.370000e-06	1.604820e-06	3.384023e-08	1.148315e+01	2.196206e+03
2.380000e-06	1.455466e-06	3.210797e-08	1.041447e+01	2.080121e+03
2.390000e-06	1.305596e-06	3.023811e-08	9.342083e+00	1.955187e+03
2.400000e-06	1.155270e-06	2.822187e-08	8.266436e+00	1.821691e+03
2.410000e-06	1.004587e-06	2.605692e-08	7.188236e+00	1.680268e+03
2.420000e-06	8.536255e-07	2.375039e-08	6.108045e+00	1.531877e+03
2.430000e-06	7.023749e-07	2.133067e-08	5.025784e+00	1.377732e+03
2.440000e-06	5.509070e-07	1.885663e-08	3.941968e+00	1.219210e+03
2.450000e-06	3.993068e-07	1.637365e-08	2.857206e+00	1.057733e+03
2.460000e-06	2.475180e-07	1.389004e-08	1.771094e+00	8.946544e+02
2.470000e-06	9.558803e-08	1.140714e-08	6.839721e-01	7.311429e+02
2.480000e-06	-5.636438e-08	8.924762e-09	-4.033105e-01	5.680943e+02
2.490000e-06	-2.082753e-07	6.438356e-09	-1.490297e+00	4.060727e+02
2.500000e-06	-3.601423e-07	3.952971e-09	-2.576968e+00	2.452910e+02
2.510000e-06	-5.119506e-07	1.475303e-09	-3.663219e+00	8.563522e+01
2.520000e-06	-6.636198e-07	-9.964253e-10	-4.748475e+00	-7.327254e+01
2.530000e-06	-8.150610e-07	-3.470895e-09	-5.832100e+00	-2.319780e+02
2.540000e-06	-9.662096e-07	-5.950774e-09	-6.913631e+00	-3.910778e+02
2.550000e-06	-1.117043e-06	-8.433415e-09	-7.992908e+00	-5.510953e+02
2.560000e-06	-1.267518e-06	-1.091917e-08	-9.069621e+00	-7.123647e+02
2.570000e-06	-1.417528e-06	-1.340448e-08	-1.014300e+01	-8.749374e+02
2.580000e-06	-1.566951e-06	-1.588469e-08	-1.121218e+01	-1.038521e+03
2.590000e-06	-1.715801e-06	-1.836336e-08	-1.227727e+01	-1.202462e+03
2.600000e-06	-1.864151e-06	-2.084549e-08	-1.333878e+01	-1.365767e+03
2.610000e-06	-2.011927e-06	-2.332886e-08	-1.439617e+01	-1.527167e+03
2.620000e-06	-2.158901e-06	-2.580916e-08	-1.544784e+01	-1.685217e+03
2.630000e-06	-2.304988e-06	-2.825401e-08	-1.649314e+01	-1.838410e+03
2.640000e-06	-2.450213e-06	-3.058416e-08	-1.753229e+01	-1.985303e+03
2.650000e-06	-2.594476e-06	-3.274278e-08	-1.856455e+01	-2.124637e+03
2.660000e-06	-2.737720e-06	-3.472630e-08	-1.958953e+01	-2.255430e+03
2.670000e-06	-2.879892e-06	-3.654469e-08	-2.060683e+01	-2.377050e+03
2.680000e-06	-3.020851e-06	-3.821186e-08	-2.161545e+01	-2.489244e+03
2.690000e-06	-3.160596e-06	-3.974523e-08	-2.261538e+01	-2.592132e+03
2.700000e-06	-3.299148e-06	-4.116037e-08	-2.360677e+01	-2.686161e+03
2.710000e-06	-3.436485e-06	-4.247046e-08	-2.458948e+01	-2.772041e+03
2.720000e-06	-3.572493e-06	-4.368573e-08	-2.556267e+01	-2.850654e+03
2.730000e-06	-3.707153e-06	-4.481345e-08	-2.652622e+01	-2.922957e+03
2.740000e-06	-3.840519e-06	-4.586181e-08	-2.748051e+01	-2.989894e+03
2.750000e-06	-3.972618e-06	-4.684052e-08	-2.842573e+01	-3.052317e+03
2.760000e-06	-4.103348e-06	-4.775478e-08	-2.936116e+01	-3.110933e+03
2.770000e-06	-4.232592e-06	-4.860898e-08	-3.028595e+01	-3.166275e+03
2.780000e-06	-4.360334e-06	-4.940905e-08	-3.120000e+01	-3.218698e+03
2.790000e-06	-4.486526e-06	-5.015758e-08	-3.210296e+01	-3.268401e+03
2.800000e-06	-4.611229e-06	-5.085899e-08	-3.299526e+01	-3.315459e+03
2.810000e-06	-4.734297e-06	-5.151682e-08	-3.387586e+01	-3.359877e+03
2.820000e-06	-4.855652e-06	-5.213690e-08	-3.474421e+01	-3.401633e+03
2.830000e-06	-4.975229e-06	-5.272355e-08	-3.559983e+01	-3.440723e+03
2.840000e-06	-5.092871e-06	-5.327526e-08	-3.644161e+01	-3.477192e+03
2.850000e-06	-5.208467e-06	-5.379283e-08	-3.726874e+01	-3.511151e+03
2.860000e-06	-5.321882e-06	-5.427922e-08	-3.808028e+01	-3.542780e+03
2.870000e-06	-5.433213e-06	-5.473874e-08	-3.887690e+01	-3.572312e+03
2.880000e-06	-5.542580e-06	-5.517146e-08	-3.965946e+01	-3.600012e+03
2.890000e-06	-5.650015e-06	-5.557893e-08	-4.042820e+01	-3.626150e+03
2.900000e-06	-5.755515e-06	-5.596423e-08	-4.118310e+01	-3.650971e+03
2.910000e-06	-5.858874e-06	-5.632915e-08	-4.192268e+01	-3.674675e+03
2.920000e-06	-5.960034e-06	-5.667516e-08	-4.264652e+01	-3.697395e+03
2.930000e-06	-6.059095e-06	-5.700229e-08	-4.335534e+01	-3.719201e+03
2.940000e-06	-6.156034e-06	-5.731119e-08	-4.404898e+01	-3.740102e+03
