# Temperatura_=_45.08
# Concentracion g/m^3_=_28370.0
# C_Vs_to_Am_M_A/Vsm_=_65563218390.804596
# pendiente_HvsI_1/m_=_3716.3
# ordenada_HvsI_A/m_=_1297.0
# frecuencia_Hz_=_302441.8461643986

Tiempo_(s)	Campo_(V.s)	Magnetizacion_(V.s)	Campo_(kA/m)	Magnetizacion_(A/m)
0.000000e+00	-7.960351e-06	-6.002355e-08	-5.688318e+01	-3.930055e+03
1.000000e-08	-7.957509e-06	-6.001592e-08	-5.686287e+01	-3.928735e+03
2.000000e-08	-7.952047e-06	-5.999681e-08	-5.682384e+01	-3.927088e+03
3.000000e-08	-7.943981e-06	-5.997265e-08	-5.676620e+01	-3.925215e+03
4.000000e-08	-7.933139e-06	-5.994642e-08	-5.668872e+01	-3.923207e+03
5.000000e-08	-7.919377e-06	-5.991171e-08	-5.659038e+01	-3.921125e+03
6.000000e-08	-7.902765e-06	-5.986661e-08	-5.647168e+01	-3.918995e+03
7.000000e-08	-7.883768e-06	-5.981810e-08	-5.633593e+01	-3.916808e+03
8.000000e-08	-7.862463e-06	-5.977010e-08	-5.618369e+01	-3.914519e+03
9.000000e-08	-7.838357e-06	-5.979819e-08	-5.601143e+01	-3.912064e+03
1.000000e-07	-7.811092e-06	-5.976487e-08	-5.581660e+01	-3.909370e+03
1.100000e-07	-7.780749e-06	-5.964210e-08	-5.559978e+01	-3.906370e+03
1.200000e-07	-7.747552e-06	-5.956590e-08	-5.536256e+01	-3.903018e+03
1.300000e-07	-7.711646e-06	-5.950254e-08	-5.510598e+01	-3.899292e+03
1.400000e-07	-7.673308e-06	-5.938792e-08	-5.483202e+01	-3.895201e+03
1.500000e-07	-7.632750e-06	-5.924162e-08	-5.454220e+01	-3.890778e+03
1.600000e-07	-7.589861e-06	-5.927025e-08	-5.423573e+01	-3.886073e+03
1.700000e-07	-7.544336e-06	-5.922949e-08	-5.391041e+01	-3.881134e+03
1.800000e-07	-7.496082e-06	-5.900284e-08	-5.356559e+01	-3.875997e+03
1.900000e-07	-7.444974e-06	-5.900220e-08	-5.320039e+01	-3.870673e+03
2.000000e-07	-7.390905e-06	-5.888989e-08	-5.281402e+01	-3.865136e+03
2.100000e-07	-7.334072e-06	-5.873223e-08	-5.240790e+01	-3.859322e+03
2.200000e-07	-7.274559e-06	-5.869011e-08	-5.198264e+01	-3.853134e+03
2.300000e-07	-7.212437e-06	-5.855772e-08	-5.153872e+01	-3.846455e+03
2.400000e-07	-7.147695e-06	-5.843289e-08	-5.107609e+01	-3.839160e+03
2.500000e-07	-7.080214e-06	-5.823083e-08	-5.059388e+01	-3.831136e+03
2.600000e-07	-7.010008e-06	-5.811891e-08	-5.009220e+01	-3.822302e+03
2.700000e-07	-6.937040e-06	-5.796445e-08	-4.957079e+01	-3.812620e+03
2.800000e-07	-6.861356e-06	-5.779034e-08	-4.902996e+01	-3.802100e+03
2.900000e-07	-6.782883e-06	-5.764416e-08	-4.846921e+01	-3.790803e+03
3.000000e-07	-6.701747e-06	-5.746602e-08	-4.788943e+01	-3.778827e+03
3.100000e-07	-6.618278e-06	-5.729592e-08	-4.729298e+01	-3.766293e+03
3.200000e-07	-6.532547e-06	-5.706942e-08	-4.668035e+01	-3.753319e+03
3.300000e-07	-6.444541e-06	-5.689599e-08	-4.605148e+01	-3.740001e+03
3.400000e-07	-6.354117e-06	-5.669937e-08	-4.540533e+01	-3.726394e+03
3.500000e-07	-6.261344e-06	-5.646144e-08	-4.474239e+01	-3.712492e+03
3.600000e-07	-6.166373e-06	-5.622901e-08	-4.406375e+01	-3.698230e+03
3.700000e-07	-6.069148e-06	-5.599627e-08	-4.336900e+01	-3.683485e+03
3.800000e-07	-5.969677e-06	-5.575051e-08	-4.265819e+01	-3.668091e+03
3.900000e-07	-5.868089e-06	-5.547945e-08	-4.193226e+01	-3.651863e+03
4.000000e-07	-5.764429e-06	-5.521863e-08	-4.119153e+01	-3.634619e+03
4.100000e-07	-5.658690e-06	-5.492620e-08	-4.043594e+01	-3.616207e+03
4.200000e-07	-5.550965e-06	-5.461581e-08	-3.966615e+01	-3.596526e+03
4.300000e-07	-5.441317e-06	-5.429759e-08	-3.888263e+01	-3.575536e+03
4.400000e-07	-5.329665e-06	-5.397178e-08	-3.808479e+01	-3.553263e+03
4.500000e-07	-5.215942e-06	-5.361917e-08	-3.727214e+01	-3.529781e+03
4.600000e-07	-5.100263e-06	-5.324793e-08	-3.644552e+01	-3.505198e+03
4.700000e-07	-4.982754e-06	-5.286329e-08	-3.560583e+01	-3.479625e+03
4.800000e-07	-4.863412e-06	-5.246073e-08	-3.475303e+01	-3.453146e+03
4.900000e-07	-4.742271e-06	-5.204324e-08	-3.388738e+01	-3.425790e+03
5.000000e-07	-4.619406e-06	-5.160937e-08	-3.300941e+01	-3.397508e+03
5.100000e-07	-4.494861e-06	-5.115630e-08	-3.211943e+01	-3.368169e+03
5.200000e-07	-4.368667e-06	-5.066562e-08	-3.121767e+01	-3.337561e+03
5.300000e-07	-4.240888e-06	-5.014895e-08	-3.030459e+01	-3.305409e+03
5.400000e-07	-4.111529e-06	-4.960861e-08	-2.938022e+01	-3.271405e+03
5.500000e-07	-3.980575e-06	-4.904751e-08	-2.844444e+01	-3.235246e+03
5.600000e-07	-3.848150e-06	-4.845038e-08	-2.749816e+01	-3.196663e+03
5.700000e-07	-3.714355e-06	-4.782285e-08	-2.654208e+01	-3.155455e+03
5.800000e-07	-3.579111e-06	-4.716087e-08	-2.557566e+01	-3.111507e+03
5.900000e-07	-3.442473e-06	-4.646239e-08	-2.459927e+01	-3.064783e+03
6.000000e-07	-3.304465e-06	-4.572626e-08	-2.361309e+01	-3.015315e+03
6.100000e-07	-3.165025e-06	-4.494735e-08	-2.261667e+01	-2.963164e+03
6.200000e-07	-3.024211e-06	-4.412207e-08	-2.161044e+01	-2.908368e+03
6.300000e-07	-2.882166e-06	-4.323960e-08	-2.059542e+01	-2.850890e+03
6.400000e-07	-2.739002e-06	-4.230383e-08	-1.957239e+01	-2.790562e+03
6.500000e-07	-2.594742e-06	-4.130939e-08	-1.854154e+01	-2.727046e+03
6.600000e-07	-2.449624e-06	-4.025852e-08	-1.750455e+01	-2.659805e+03
6.700000e-07	-2.303744e-06	-3.913880e-08	-1.646212e+01	-2.588118e+03
6.800000e-07	-2.157034e-06	-3.793723e-08	-1.541376e+01	-2.511105e+03
6.900000e-07	-2.009582e-06	-3.664349e-08	-1.436009e+01	-2.427795e+03
7.000000e-07	-1.861567e-06	-3.525202e-08	-1.330241e+01	-2.337206e+03
7.100000e-07	-1.713046e-06	-3.375479e-08	-1.224111e+01	-2.238453e+03
7.200000e-07	-1.563970e-06	-3.213726e-08	-1.117584e+01	-2.130841e+03
7.300000e-07	-1.414345e-06	-3.039120e-08	-1.010664e+01	-2.013967e+03
7.400000e-07	-1.264233e-06	-2.850007e-08	-9.033974e+00	-1.887780e+03
7.500000e-07	-1.113698e-06	-2.645630e-08	-7.958276e+00	-1.752621e+03
7.600000e-07	-9.627290e-07	-2.425321e-08	-6.879481e+00	-1.609223e+03
7.700000e-07	-8.114062e-07	-2.190584e-08	-5.798157e+00	-1.458659e+03
7.800000e-07	-6.597528e-07	-1.947686e-08	-4.714470e+00	-1.302261e+03
7.900000e-07	-5.078460e-07	-1.702520e-08	-3.628972e+00	-1.141511e+03
8.000000e-07	-3.558021e-07	-1.456625e-08	-2.542495e+00	-9.779052e+02
8.100000e-07	-2.035725e-07	-1.210251e-08	-1.454691e+00	-8.128291e+02
8.200000e-07	-5.117146e-08	-9.638744e-09	-3.656617e-01	-6.474377e+02
8.300000e-07	1.012467e-07	-7.174953e-09	7.234899e-01	-4.825686e+02
8.400000e-07	2.536353e-07	-4.711068e-09	1.812430e+00	-3.186953e+02
8.500000e-07	4.059444e-07	-2.249696e-09	2.900803e+00	-1.559252e+02
8.600000e-07	5.580959e-07	2.098463e-10	3.988049e+00	5.954693e+00
8.700000e-07	7.101400e-07	2.671461e-09	5.074527e+00	1.673909e+02
8.800000e-07	8.620074e-07	5.134145e-09	6.159743e+00	3.289467e+02
8.900000e-07	1.013609e-06	7.592975e-09	7.243057e+00	4.911691e+02
9.000000e-07	1.164840e-06	1.004930e-08	8.323725e+00	6.544572e+02
9.100000e-07	1.315509e-06	1.250520e-08	9.400382e+00	8.189481e+02
9.200000e-07	1.465656e-06	1.496037e-08	1.047330e+01	9.844359e+02
9.300000e-07	1.615302e-06	1.741519e-08	1.154264e+01	1.150333e+03
9.400000e-07	1.764349e-06	1.987079e-08	1.260770e+01	1.315677e+03
9.500000e-07	1.912759e-06	2.232678e-08	1.366822e+01	1.479191e+03
9.600000e-07	2.060444e-06	2.478030e-08	1.472355e+01	1.639375e+03
9.700000e-07	2.207425e-06	2.721470e-08	1.577384e+01	1.794633e+03
9.800000e-07	2.353631e-06	2.955430e-08	1.681861e+01	1.943409e+03
9.900000e-07	2.498929e-06	3.171501e-08	1.785688e+01	2.084321e+03
1.000000e-06	2.643338e-06	3.368538e-08	1.888880e+01	2.216277e+03
1.010000e-06	2.786697e-06	3.548316e-08	1.991321e+01	2.338560e+03
1.020000e-06	2.928925e-06	3.712710e-08	2.092955e+01	2.450869e+03
1.030000e-06	3.070021e-06	3.863819e-08	2.193780e+01	2.553321e+03
1.040000e-06	3.209870e-06	4.003012e-08	2.293713e+01	2.646411e+03
1.050000e-06	3.348452e-06	4.131616e-08	2.392741e+01	2.730933e+03
1.060000e-06	3.485699e-06	4.250531e-08	2.490815e+01	2.807880e+03
1.070000e-06	3.621565e-06	4.360605e-08	2.587902e+01	2.878337e+03
1.080000e-06	3.756120e-06	4.462824e-08	2.684053e+01	2.943375e+03
1.090000e-06	3.889412e-06	4.558027e-08	2.779301e+01	3.003955e+03
1.100000e-06	4.021337e-06	4.646803e-08	2.873572e+01	3.060866e+03
1.110000e-06	4.151815e-06	4.729834e-08	2.966809e+01	3.114685e+03
1.120000e-06	4.280815e-06	4.807671e-08	3.058990e+01	3.165777e+03
1.130000e-06	4.408231e-06	4.880451e-08	3.150039e+01	3.214314e+03
1.140000e-06	4.534125e-06	4.948668e-08	3.240001e+01	3.260324e+03
1.150000e-06	4.658568e-06	5.012637e-08	3.328925e+01	3.303747e+03
1.160000e-06	4.781425e-06	5.072655e-08	3.416717e+01	3.344495e+03
1.170000e-06	4.902552e-06	5.129166e-08	3.503271e+01	3.382509e+03
1.180000e-06	5.021865e-06	5.182199e-08	3.588531e+01	3.417798e+03
1.190000e-06	5.139378e-06	5.231997e-08	3.672503e+01	3.450462e+03
1.200000e-06	5.255007e-06	5.279018e-08	3.755129e+01	3.480693e+03
1.210000e-06	5.368552e-06	5.323478e-08	3.836266e+01	3.508761e+03
1.220000e-06	5.480008e-06	5.365535e-08	3.915911e+01	3.534984e+03
1.230000e-06	5.589507e-06	5.405240e-08	3.994157e+01	3.559690e+03
1.240000e-06	5.697107e-06	5.442519e-08	4.071046e+01	3.583178e+03
1.250000e-06	5.802625e-06	5.477736e-08	4.146447e+01	3.605688e+03
1.260000e-06	5.905927e-06	5.511284e-08	4.220265e+01	3.627381e+03
1.270000e-06	6.007089e-06	5.543219e-08	4.292553e+01	3.648326e+03
1.280000e-06	6.106033e-06	5.573534e-08	4.363257e+01	3.668513e+03
1.290000e-06	6.202634e-06	5.602074e-08	4.432286e+01	3.687867e+03
1.300000e-06	6.296931e-06	5.628815e-08	4.499668e+01	3.706281e+03
1.310000e-06	6.389021e-06	5.653961e-08	4.565475e+01	3.723641e+03
1.320000e-06	6.478870e-06	5.677843e-08	4.629679e+01	3.739860e+03
1.330000e-06	6.566387e-06	5.700702e-08	4.692217e+01	3.754898e+03
1.340000e-06	6.651623e-06	5.722691e-08	4.753125e+01	3.768777e+03
1.350000e-06	6.734579e-06	5.743560e-08	4.812404e+01	3.781579e+03
1.360000e-06	6.815042e-06	5.763135e-08	4.869901e+01	3.793438e+03
1.370000e-06	6.892945e-06	5.781398e-08	4.925569e+01	3.804522e+03
1.380000e-06	6.968279e-06	5.798559e-08	4.979402e+01	3.815005e+03
1.390000e-06	7.040972e-06	5.814891e-08	5.031346e+01	3.825045e+03
1.400000e-06	7.111150e-06	5.830490e-08	5.081494e+01	3.834760e+03
1.410000e-06	7.178870e-06	5.845484e-08	5.129886e+01	3.844218e+03
1.420000e-06	7.243935e-06	5.859727e-08	5.176380e+01	3.853424e+03
1.430000e-06	7.306356e-06	5.873115e-08	5.220985e+01	3.862331e+03
1.440000e-06	7.366410e-06	5.885536e-08	5.263898e+01	3.870850e+03
1.450000e-06	7.423964e-06	5.897127e-08	5.305025e+01	3.878872e+03
1.460000e-06	7.478849e-06	5.908060e-08	5.344245e+01	3.886289e+03
1.470000e-06	7.530905e-06	5.918234e-08	5.381444e+01	3.893016e+03
1.480000e-06	7.579803e-06	5.927525e-08	5.416385e+01	3.899006e+03
1.490000e-06	7.625737e-06	5.935945e-08	5.449209e+01	3.904264e+03
1.500000e-06	7.669029e-06	5.943822e-08	5.480145e+01	3.908842e+03
1.510000e-06	7.709551e-06	5.951134e-08	5.509101e+01	3.912833e+03
1.520000e-06	7.747298e-06	5.957849e-08	5.536074e+01	3.916359e+03
1.530000e-06	7.782390e-06	5.964124e-08	5.561150e+01	3.919547e+03
1.540000e-06	7.814737e-06	5.969945e-08	5.584265e+01	3.922511e+03
1.550000e-06	7.844399e-06	5.975324e-08	5.605460e+01	3.925335e+03
1.560000e-06	7.871270e-06	5.980084e-08	5.624662e+01	3.928060e+03
1.570000e-06	7.895143e-06	5.984177e-08	5.641721e+01	3.930680e+03
1.580000e-06	7.916236e-06	5.987639e-08	5.656794e+01	3.933145e+03
1.590000e-06	7.934684e-06	5.990497e-08	5.669976e+01	3.935370e+03
1.600000e-06	7.950247e-06	5.992692e-08	5.681098e+01	3.937257e+03
1.610000e-06	7.962707e-06	5.994402e-08	5.690001e+01	3.938704e+03
1.620000e-06	7.971989e-06	5.995777e-08	5.696634e+01	3.939634e+03
1.630000e-06	7.978254e-06	5.996858e-08	5.701111e+01	3.940000e+03
1.640000e-06	7.981763e-06	5.997631e-08	5.703618e+01	3.939796e+03
1.650000e-06	7.982507e-06	5.997993e-08	5.704150e+01	3.939060e+03
1.660000e-06	7.980532e-06	5.996822e-08	5.702739e+01	3.937866e+03
1.670000e-06	7.975939e-06	5.995254e-08	5.699456e+01	3.936310e+03
1.680000e-06	7.968619e-06	5.993915e-08	5.694225e+01	3.934497e+03
1.690000e-06	7.958596e-06	5.991936e-08	5.687063e+01	3.932522e+03
1.700000e-06	7.945764e-06	5.989486e-08	5.677894e+01	3.930457e+03
1.710000e-06	7.930159e-06	5.987316e-08	5.666743e+01	3.928340e+03
1.720000e-06	7.912131e-06	5.985383e-08	5.653860e+01	3.926172e+03
1.730000e-06	7.891799e-06	5.980400e-08	5.639331e+01	3.923920e+03
1.740000e-06	7.868784e-06	5.966370e-08	5.622885e+01	3.921524e+03
1.750000e-06	7.842337e-06	5.964911e-08	5.603987e+01	3.918912e+03
1.760000e-06	7.812146e-06	5.965386e-08	5.582413e+01	3.916015e+03
1.770000e-06	7.778844e-06	5.957392e-08	5.558616e+01	3.912778e+03
1.780000e-06	7.743241e-06	5.953170e-08	5.533175e+01	3.909170e+03
1.790000e-06	7.705449e-06	5.959979e-08	5.506169e+01	3.905192e+03
1.800000e-06	7.665621e-06	5.949210e-08	5.477709e+01	3.900869e+03
1.810000e-06	7.623694e-06	5.935495e-08	5.447749e+01	3.896247e+03
1.820000e-06	7.579126e-06	5.946556e-08	5.415901e+01	3.891375e+03
1.830000e-06	7.531896e-06	5.930120e-08	5.382152e+01	3.886298e+03
1.840000e-06	7.481874e-06	5.931801e-08	5.346407e+01	3.881033e+03
1.850000e-06	7.428807e-06	5.928933e-08	5.308486e+01	3.875567e+03
1.860000e-06	7.372924e-06	5.913940e-08	5.268553e+01	3.869849e+03
1.870000e-06	7.314355e-06	5.910759e-08	5.226701e+01	3.863791e+03
1.880000e-06	7.253238e-06	5.887237e-08	5.183028e+01	3.857282e+03
1.890000e-06	7.189355e-06	5.887062e-08	5.137378e+01	3.850196e+03
1.900000e-06	7.122589e-06	5.873958e-08	5.089668e+01	3.842415e+03
1.910000e-06	7.053065e-06	5.857366e-08	5.039988e+01	3.833846e+03
1.920000e-06	6.980735e-06	5.850147e-08	4.988302e+01	3.824435e+03
1.930000e-06	6.905750e-06	5.826819e-08	4.934720e+01	3.814178e+03
1.940000e-06	6.827998e-06	5.815557e-08	4.879159e+01	3.803119e+03
1.950000e-06	6.747550e-06	5.794887e-08	4.821673e+01	3.791347e+03
1.960000e-06	6.664673e-06	5.782068e-08	4.762450e+01	3.778977e+03
1.970000e-06	6.579364e-06	5.764519e-08	4.701490e+01	3.766130e+03
1.980000e-06	6.491587e-06	5.741991e-08	4.638766e+01	3.752912e+03
1.990000e-06	6.401449e-06	5.725997e-08	4.574355e+01	3.739393e+03
2.000000e-06	6.309195e-06	5.701697e-08	4.508432e+01	3.725588e+03
2.010000e-06	6.214707e-06	5.682457e-08	4.440913e+01	3.711450e+03
2.020000e-06	6.117940e-06	5.657082e-08	4.371765e+01	3.696875e+03
2.030000e-06	6.018999e-06	5.634578e-08	4.301064e+01	3.681707e+03
2.040000e-06	5.917875e-06	5.607261e-08	4.228803e+01	3.665766e+03
2.050000e-06	5.814606e-06	5.580796e-08	4.155008e+01	3.648865e+03
2.060000e-06	5.709309e-06	5.554781e-08	4.079765e+01	3.630840e+03
2.070000e-06	5.602129e-06	5.525407e-08	4.003176e+01	3.611572e+03
2.080000e-06	5.493088e-06	5.495334e-08	3.925257e+01	3.591001e+03
2.090000e-06	5.382038e-06	5.461712e-08	3.845903e+01	3.569132e+03
2.100000e-06	5.268929e-06	5.429513e-08	3.765078e+01	3.546026e+03
2.110000e-06	5.153855e-06	5.393714e-08	3.682848e+01	3.521782e+03
2.120000e-06	5.036766e-06	5.358267e-08	3.599179e+01	3.496514e+03
2.130000e-06	4.917744e-06	5.319332e-08	3.514128e+01	3.470318e+03
2.140000e-06	4.796900e-06	5.278532e-08	3.427775e+01	3.443243e+03
2.150000e-06	4.674282e-06	5.234683e-08	3.340154e+01	3.415267e+03
2.160000e-06	4.549952e-06	5.189708e-08	3.251310e+01	3.386285e+03
2.170000e-06	4.423904e-06	5.143223e-08	3.161239e+01	3.356110e+03
2.180000e-06	4.296222e-06	5.094148e-08	3.070000e+01	3.324485e+03
2.190000e-06	4.167049e-06	5.042115e-08	2.977695e+01	3.291108e+03
2.200000e-06	4.036338e-06	4.986949e-08	2.884292e+01	3.255672e+03
2.210000e-06	3.904101e-06	4.929237e-08	2.789797e+01	3.217891e+03
2.220000e-06	3.770455e-06	4.867980e-08	2.694297e+01	3.177542e+03
2.230000e-06	3.635354e-06	4.804304e-08	2.597756e+01	3.134479e+03
2.240000e-06	3.498834e-06	4.736533e-08	2.500201e+01	3.088644e+03
2.250000e-06	3.361018e-06	4.664722e-08	2.401721e+01	3.040051e+03
2.260000e-06	3.221933e-06	4.588241e-08	2.302333e+01	2.988753e+03
2.270000e-06	3.081602e-06	4.507830e-08	2.202055e+01	2.934805e+03
2.280000e-06	2.940059e-06	4.422735e-08	2.100911e+01	2.878198e+03
2.290000e-06	2.797321e-06	4.332731e-08	1.998913e+01	2.818812e+03
2.300000e-06	2.653498e-06	4.236914e-08	1.896140e+01	2.756367e+03
2.310000e-06	2.508793e-06	4.134662e-08	1.792736e+01	2.690392e+03
2.320000e-06	2.363247e-06	4.025469e-08	1.688732e+01	2.620221e+03
2.330000e-06	2.216929e-06	3.908770e-08	1.584176e+01	2.545021e+03
2.340000e-06	2.069865e-06	3.783781e-08	1.479087e+01	2.463841e+03
2.350000e-06	1.922042e-06	3.649193e-08	1.373455e+01	2.375693e+03
2.360000e-06	1.773581e-06	3.504162e-08	1.267368e+01	2.279649e+03
2.370000e-06	1.624610e-06	3.347569e-08	1.160916e+01	2.174942e+03
2.380000e-06	1.475158e-06	3.178057e-08	1.054120e+01	2.061067e+03
2.390000e-06	1.325240e-06	2.994729e-08	9.469919e+00	1.937852e+03
2.400000e-06	1.174850e-06	2.796867e-08	8.395261e+00	1.805514e+03
2.410000e-06	1.023936e-06	2.583505e-08	7.316855e+00	1.664660e+03
2.420000e-06	8.726190e-07	2.354065e-08	6.235571e+00	1.516262e+03
2.430000e-06	7.210138e-07	2.110652e-08	5.152229e+00	1.361581e+03
2.440000e-06	5.691753e-07	1.860113e-08	4.067220e+00	1.202062e+03
2.450000e-06	4.172137e-07	1.608289e-08	2.981331e+00	1.039213e+03
2.460000e-06	2.651399e-07	1.356440e-08	1.894640e+00	8.744682e+02
2.470000e-06	1.129723e-07	1.104660e-08	8.072791e-01	7.090680e+02
2.480000e-06	-3.926566e-08	8.529770e-09	-2.805850e-01	5.439593e+02
2.490000e-06	-1.915332e-07	6.008957e-09	-1.368660e+00	3.797350e+02
2.500000e-06	-3.437459e-07	3.488046e-09	-2.456343e+00	2.166174e+02
2.510000e-06	-4.958996e-07	9.744456e-10	-3.543606e+00	5.448883e+01
2.520000e-06	-6.478830e-07	-1.532364e-09	-4.629650e+00	-1.070337e+02
2.530000e-06	-7.996242e-07	-4.040980e-09	-5.713964e+00	-2.684900e+02
2.540000e-06	-9.511559e-07	-6.555104e-09	-6.796782e+00	-4.304472e+02
2.550000e-06	-1.102367e-06	-9.071775e-09	-7.877311e+00	-5.933653e+02
2.560000e-06	-1.253148e-06	-1.159116e-08	-8.954757e+00	-7.574765e+02
2.570000e-06	-1.403436e-06	-1.411051e-08	-1.002869e+01	-9.226915e+02
2.580000e-06	-1.553169e-06	-1.662460e-08	-1.109866e+01	-1.088546e+03
2.590000e-06	-1.702352e-06	-1.913631e-08	-1.216469e+01	-1.254196e+03
2.600000e-06	-1.850962e-06	-2.165115e-08	-1.322663e+01	-1.418456e+03
2.610000e-06	-1.998834e-06	-2.416749e-08	-1.428330e+01	-1.579885e+03
2.620000e-06	-2.145873e-06	-2.667133e-08	-1.533400e+01	-1.736903e+03
2.630000e-06	-2.292150e-06	-2.909293e-08	-1.637927e+01	-1.887926e+03
2.640000e-06	-2.437639e-06	-3.134084e-08	-1.741891e+01	-2.031503e+03
2.650000e-06	-2.582209e-06	-3.339094e-08	-1.845198e+01	-2.166437e+03
2.660000e-06	-2.725821e-06	-3.525864e-08	-1.947821e+01	-2.291884e+03
2.670000e-06	-2.868360e-06	-3.696424e-08	-2.049676e+01	-2.407408e+03
2.680000e-06	-3.009709e-06	-3.852853e-08	-2.150682e+01	-2.512994e+03
2.690000e-06	-3.149765e-06	-3.996639e-08	-2.250763e+01	-2.609022e+03
2.700000e-06	-3.288515e-06	-4.129268e-08	-2.349911e+01	-2.696198e+03
2.710000e-06	-3.426042e-06	-4.251841e-08	-2.448185e+01	-2.775466e+03
2.720000e-06	-3.562253e-06	-4.365272e-08	-2.545519e+01	-2.847892e+03
2.730000e-06	-3.697167e-06	-4.470499e-08	-2.641926e+01	-2.914562e+03
2.740000e-06	-3.830809e-06	-4.568373e-08	-2.737424e+01	-2.976482e+03
2.750000e-06	-3.963053e-06	-4.659594e-08	-2.831924e+01	-3.034501e+03
2.760000e-06	-4.093892e-06	-4.744695e-08	-2.925418e+01	-3.089266e+03
2.770000e-06	-4.223380e-06	-4.824096e-08	-3.017948e+01	-3.141209e+03
2.780000e-06	-4.351449e-06	-4.898287e-08	-3.109464e+01	-3.190561e+03
2.790000e-06	-4.478040e-06	-4.967918e-08	-3.199924e+01	-3.237389e+03
2.800000e-06	-4.603064e-06	-5.033185e-08	-3.289263e+01	-3.281655e+03
2.810000e-06	-4.726443e-06	-5.094394e-08	-3.377427e+01	-3.323274e+03
2.820000e-06	-4.848186e-06	-5.152122e-08	-3.464423e+01	-3.362172e+03
2.830000e-06	-4.968147e-06	-5.206482e-08	-3.550145e+01	-3.398332e+03
2.840000e-06	-5.086174e-06	-5.257148e-08	-3.634485e+01	-3.431825e+03
2.850000e-06	-5.202138e-06	-5.304521e-08	-3.717350e+01	-3.462814e+03
2.860000e-06	-5.315964e-06	-5.349237e-08	-3.798688e+01	-3.491547e+03
2.870000e-06	-5.427658e-06	-5.391367e-08	-3.878503e+01	-3.518329e+03
2.880000e-06	-5.537330e-06	-5.431106e-08	-3.956872e+01	-3.543490e+03
2.890000e-06	-5.645165e-06	-5.468867e-08	-4.033929e+01	-3.567341e+03
2.900000e-06	-5.751145e-06	-5.504724e-08	-4.109660e+01	-3.590147e+03
2.910000e-06	-5.855013e-06	-5.538429e-08	-4.183882e+01	-3.612093e+03
2.920000e-06	-5.956543e-06	-5.570118e-08	-4.256434e+01	-3.633278e+03
2.930000e-06	-6.055867e-06	-5.600104e-08	-4.327409e+01	-3.653716e+03
2.940000e-06	-6.153161e-06	-5.628389e-08	-4.396933e+01	-3.673351e+03
