# Temperatura_=_34.51
# Concentracion g/m^3_=_28200.0
# C_Vs_to_Am_M_A/Vsm_=_65563218390.804596
# pendiente_HvsI_1/m_=_3716.3
# ordenada_HvsI_A/m_=_1297.0
# frecuencia_Hz_=_302140.82979165675

Tiempo_(s)	Campo_(V.s)	Magnetizacion_(V.s)	Campo_(kA/m)	Magnetizacion_(A/m)
0.000000e+00	-6.418420e-06	-3.469028e-08	-4.585228e+01	-2.272266e+03
1.000000e-08	-6.415616e-06	-3.468644e-08	-4.583225e+01	-2.271726e+03
2.000000e-08	-6.410640e-06	-3.467131e-08	-4.579670e+01	-2.270928e+03
3.000000e-08	-6.403724e-06	-3.465365e-08	-4.574730e+01	-2.269870e+03
4.000000e-08	-6.394770e-06	-3.463272e-08	-4.568333e+01	-2.268561e+03
5.000000e-08	-6.383497e-06	-3.460518e-08	-4.560280e+01	-2.267018e+03
6.000000e-08	-6.369877e-06	-3.457266e-08	-4.550550e+01	-2.265263e+03
7.000000e-08	-6.353894e-06	-3.452665e-08	-4.539132e+01	-2.263316e+03
8.000000e-08	-6.335741e-06	-3.449568e-08	-4.526163e+01	-2.261196e+03
9.000000e-08	-6.315518e-06	-3.456882e-08	-4.511716e+01	-2.258910e+03
1.000000e-07	-6.292915e-06	-3.453221e-08	-4.495569e+01	-2.256459e+03
1.100000e-07	-6.267725e-06	-3.440352e-08	-4.477574e+01	-2.253829e+03
1.200000e-07	-6.240106e-06	-3.435630e-08	-4.457843e+01	-2.251003e+03
1.300000e-07	-6.210480e-06	-3.428870e-08	-4.436678e+01	-2.247956e+03
1.400000e-07	-6.179249e-06	-3.409012e-08	-4.414367e+01	-2.244663e+03
1.500000e-07	-6.146314e-06	-3.417666e-08	-4.390839e+01	-2.241100e+03
1.600000e-07	-6.111317e-06	-3.422124e-08	-4.365838e+01	-2.237248e+03
1.700000e-07	-6.074429e-06	-3.396431e-08	-4.339486e+01	-2.233092e+03
1.800000e-07	-6.035538e-06	-3.404189e-08	-4.311702e+01	-2.228622e+03
1.900000e-07	-5.994203e-06	-3.392733e-08	-4.282174e+01	-2.223834e+03
2.000000e-07	-5.950642e-06	-3.376052e-08	-4.251054e+01	-2.218727e+03
2.100000e-07	-5.905042e-06	-3.380780e-08	-4.218478e+01	-2.213305e+03
2.200000e-07	-5.857230e-06	-3.366553e-08	-4.184322e+01	-2.207573e+03
2.300000e-07	-5.806944e-06	-3.358418e-08	-4.148398e+01	-2.201537e+03
2.400000e-07	-5.754003e-06	-3.349559e-08	-4.110578e+01	-2.195205e+03
2.500000e-07	-5.698828e-06	-3.335468e-08	-4.071162e+01	-2.188583e+03
2.600000e-07	-5.641566e-06	-3.328419e-08	-4.030255e+01	-2.181672e+03
2.700000e-07	-5.582158e-06	-3.314520e-08	-3.987814e+01	-2.174470e+03
2.800000e-07	-5.520762e-06	-3.303854e-08	-3.943954e+01	-2.166969e+03
2.900000e-07	-5.457331e-06	-3.290799e-08	-3.898640e+01	-2.159153e+03
3.000000e-07	-5.391831e-06	-3.279161e-08	-3.851847e+01	-2.151003e+03
3.100000e-07	-5.324270e-06	-3.267249e-08	-3.803583e+01	-2.142495e+03
3.200000e-07	-5.254671e-06	-3.252389e-08	-3.753862e+01	-2.133604e+03
3.300000e-07	-5.183229e-06	-3.240871e-08	-3.702825e+01	-2.124306e+03
3.400000e-07	-5.109969e-06	-3.221533e-08	-3.650489e+01	-2.114583e+03
3.500000e-07	-5.034651e-06	-3.207006e-08	-3.596683e+01	-2.104420e+03
3.600000e-07	-4.957284e-06	-3.192257e-08	-3.541413e+01	-2.093807e+03
3.700000e-07	-4.877918e-06	-3.174158e-08	-3.484715e+01	-2.082737e+03
3.800000e-07	-4.796607e-06	-3.158440e-08	-3.426628e+01	-2.071205e+03
3.900000e-07	-4.713620e-06	-3.139108e-08	-3.367343e+01	-2.059200e+03
4.000000e-07	-4.629213e-06	-3.119067e-08	-3.307044e+01	-2.046710e+03
4.100000e-07	-4.543412e-06	-3.098401e-08	-3.245749e+01	-2.033718e+03
4.200000e-07	-4.456214e-06	-3.079077e-08	-3.183456e+01	-2.020200e+03
4.300000e-07	-4.367545e-06	-3.058200e-08	-3.120112e+01	-2.006132e+03
4.400000e-07	-4.277227e-06	-3.034567e-08	-3.055590e+01	-1.991489e+03
4.500000e-07	-4.185289e-06	-3.011419e-08	-2.989911e+01	-1.976244e+03
4.600000e-07	-4.091849e-06	-2.986231e-08	-2.923158e+01	-1.960374e+03
4.700000e-07	-3.997068e-06	-2.961075e-08	-2.855449e+01	-1.943857e+03
4.800000e-07	-3.900967e-06	-2.935127e-08	-2.786795e+01	-1.926669e+03
4.900000e-07	-3.803304e-06	-2.908687e-08	-2.717026e+01	-1.908783e+03
5.000000e-07	-3.704065e-06	-2.880498e-08	-2.646132e+01	-1.890168e+03
5.100000e-07	-3.603514e-06	-2.850131e-08	-2.574299e+01	-1.870785e+03
5.200000e-07	-3.501760e-06	-2.818864e-08	-2.501608e+01	-1.850588e+03
5.300000e-07	-3.398788e-06	-2.786056e-08	-2.428046e+01	-1.829525e+03
5.400000e-07	-3.294597e-06	-2.752485e-08	-2.353613e+01	-1.807539e+03
5.500000e-07	-3.189119e-06	-2.717307e-08	-2.278261e+01	-1.784574e+03
5.600000e-07	-3.082313e-06	-2.680986e-08	-2.201960e+01	-1.760572e+03
5.700000e-07	-2.974275e-06	-2.642592e-08	-2.124780e+01	-1.735474e+03
5.800000e-07	-2.865160e-06	-2.602327e-08	-2.046830e+01	-1.709217e+03
5.900000e-07	-2.755079e-06	-2.560481e-08	-1.968189e+01	-1.681734e+03
6.000000e-07	-2.644132e-06	-2.516741e-08	-1.888930e+01	-1.652947e+03
6.100000e-07	-2.532223e-06	-2.470785e-08	-1.808984e+01	-1.622765e+03
6.200000e-07	-2.419235e-06	-2.422155e-08	-1.728267e+01	-1.591083e+03
6.300000e-07	-2.305251e-06	-2.370995e-08	-1.646838e+01	-1.557782e+03
6.400000e-07	-2.190179e-06	-2.316966e-08	-1.564633e+01	-1.522735e+03
6.500000e-07	-2.074123e-06	-2.260602e-08	-1.481724e+01	-1.485804e+03
6.600000e-07	-1.957349e-06	-2.201365e-08	-1.398302e+01	-1.446854e+03
6.700000e-07	-1.839929e-06	-2.138851e-08	-1.314419e+01	-1.405742e+03
6.800000e-07	-1.721883e-06	-2.072847e-08	-1.230089e+01	-1.362327e+03
6.900000e-07	-1.603268e-06	-2.002911e-08	-1.145352e+01	-1.316462e+03
7.000000e-07	-1.484169e-06	-1.928851e-08	-1.060269e+01	-1.267991e+03
7.100000e-07	-1.364607e-06	-1.850160e-08	-9.748562e+00	-1.216754e+03
7.200000e-07	-1.244633e-06	-1.767106e-08	-8.891482e+00	-1.162588e+03
7.300000e-07	-1.124205e-06	-1.679533e-08	-8.031158e+00	-1.105347e+03
7.400000e-07	-1.003348e-06	-1.587244e-08	-7.167777e+00	-1.044919e+03
7.500000e-07	-8.821487e-07	-1.490216e-08	-6.301945e+00	-9.812581e+02
7.600000e-07	-7.605950e-07	-1.388587e-08	-5.433582e+00	-9.144156e+02
7.700000e-07	-6.387407e-07	-1.282220e-08	-4.563073e+00	-8.445636e+02
7.800000e-07	-5.166604e-07	-1.171658e-08	-3.690949e+00	-7.720098e+02
7.900000e-07	-3.944150e-07	-1.057632e-08	-2.817645e+00	-6.971910e+02
8.000000e-07	-2.720058e-07	-9.406888e-09	-1.943171e+00	-6.206456e+02
8.100000e-07	-1.494532e-07	-8.219761e-09	-1.067672e+00	-5.429635e+02
8.200000e-07	-2.684241e-08	-7.026231e-09	-1.917583e-01	-4.647191e+02
8.300000e-07	9.579158e-08	-5.835634e-09	6.843214e-01	-3.863975e+02
8.400000e-07	2.184341e-07	-4.648468e-09	1.560462e+00	-3.083270e+02
8.500000e-07	3.410241e-07	-3.468860e-09	2.436228e+00	-2.306291e+02
8.600000e-07	4.635028e-07	-2.293500e-09	3.311198e+00	-1.532003e+02
8.700000e-07	5.858715e-07	-1.114199e-09	4.185383e+00	-7.572899e+01
8.800000e-07	7.080722e-07	7.460503e-11	5.058367e+00	2.249663e+00
8.900000e-07	8.300188e-07	1.279739e-09	5.929536e+00	8.126950e+01
9.000000e-07	9.516878e-07	2.507641e-09	6.798722e+00	1.618315e+02
9.100000e-07	1.072991e-06	3.766450e-09	7.665294e+00	2.443014e+02
9.200000e-07	1.193823e-06	5.056422e-09	8.528505e+00	3.288236e+02
9.300000e-07	1.314141e-06	6.372782e-09	9.388035e+00	4.152665e+02
9.400000e-07	1.433932e-06	7.710684e-09	1.024380e+01	5.032088e+02
9.500000e-07	1.553212e-06	9.062276e-09	1.109593e+01	5.919687e+02
9.600000e-07	1.671957e-06	1.041356e-08	1.194422e+01	6.806703e+02
9.700000e-07	1.790113e-06	1.174720e-08	1.278831e+01	7.683367e+02
9.800000e-07	1.907622e-06	1.305011e-08	1.362778e+01	8.539926e+02
9.900000e-07	2.024419e-06	1.431068e-08	1.446216e+01	9.367606e+02
1.000000e-06	2.140383e-06	1.551691e-08	1.529059e+01	1.015938e+03
1.010000e-06	2.255372e-06	1.665918e-08	1.611206e+01	1.091039e+03
1.020000e-06	2.369360e-06	1.773190e-08	1.692637e+01	1.161812e+03
1.030000e-06	2.482390e-06	1.873781e-08	1.773384e+01	1.228214e+03
1.040000e-06	2.594432e-06	1.967956e-08	1.853425e+01	1.290371e+03
1.050000e-06	2.705467e-06	2.055920e-08	1.932747e+01	1.348522e+03
1.060000e-06	2.815486e-06	2.138776e-08	2.011343e+01	1.402965e+03
1.070000e-06	2.924572e-06	2.216577e-08	2.089272e+01	1.454004e+03
1.080000e-06	3.032818e-06	2.289503e-08	2.166602e+01	1.501925e+03
1.090000e-06	3.140014e-06	2.357888e-08	2.243182e+01	1.546969e+03
1.100000e-06	3.245995e-06	2.422168e-08	2.318893e+01	1.589338e+03
1.110000e-06	3.350735e-06	2.482660e-08	2.393717e+01	1.629203e+03
1.120000e-06	3.454215e-06	2.539570e-08	2.467642e+01	1.666713e+03
1.130000e-06	3.556474e-06	2.593113e-08	2.540695e+01	1.702010e+03
1.140000e-06	3.657601e-06	2.643459e-08	2.612938e+01	1.735241e+03
1.150000e-06	3.757580e-06	2.690888e-08	2.684362e+01	1.766554e+03
1.160000e-06	3.856169e-06	2.735714e-08	2.754792e+01	1.796097e+03
1.170000e-06	3.953173e-06	2.778160e-08	2.824091e+01	1.824016e+03
1.180000e-06	4.048683e-06	2.818418e-08	2.892322e+01	1.850442e+03
1.190000e-06	4.142820e-06	2.856656e-08	2.959572e+01	1.875488e+03
1.200000e-06	4.235621e-06	2.892790e-08	3.025867e+01	1.899250e+03
1.210000e-06	4.326981e-06	2.927067e-08	3.091134e+01	1.921804e+03
1.220000e-06	4.416668e-06	2.959595e-08	3.155205e+01	1.943213e+03
1.230000e-06	4.504638e-06	2.990581e-08	3.218050e+01	1.963533e+03
1.240000e-06	4.591028e-06	3.019833e-08	3.279765e+01	1.982818e+03
1.250000e-06	4.675925e-06	3.047392e-08	3.340414e+01	2.001120e+03
1.260000e-06	4.759296e-06	3.073581e-08	3.399973e+01	2.018493e+03
1.270000e-06	4.840942e-06	3.098630e-08	3.458300e+01	2.034992e+03
1.280000e-06	4.920747e-06	3.122430e-08	3.515311e+01	2.050669e+03
1.290000e-06	4.998712e-06	3.145216e-08	3.571009e+01	2.065572e+03
1.300000e-06	5.074780e-06	3.166913e-08	3.625351e+01	2.079743e+03
1.310000e-06	5.148792e-06	3.187413e-08	3.678224e+01	2.093218e+03
1.320000e-06	5.220800e-06	3.206689e-08	3.729666e+01	2.106031e+03
1.330000e-06	5.290954e-06	3.224943e-08	3.779782e+01	2.118210e+03
1.340000e-06	5.359328e-06	3.242511e-08	3.828628e+01	2.129782e+03
1.350000e-06	5.425793e-06	3.259301e-08	3.876109e+01	2.140774e+03
1.360000e-06	5.490124e-06	3.275257e-08	3.922067e+01	2.151210e+03
1.370000e-06	5.552507e-06	3.290455e-08	3.966632e+01	2.161112e+03
1.380000e-06	5.613182e-06	3.304912e-08	4.009977e+01	2.170497e+03
1.390000e-06	5.671906e-06	3.318666e-08	4.051929e+01	2.179377e+03
1.400000e-06	5.728443e-06	3.331789e-08	4.092318e+01	2.187759e+03
1.410000e-06	5.782938e-06	3.344234e-08	4.131249e+01	2.195647e+03
1.420000e-06	5.835275e-06	3.355671e-08	4.168638e+01	2.203044e+03
1.430000e-06	5.885125e-06	3.366107e-08	4.204249e+01	2.209959e+03
1.440000e-06	5.932566e-06	3.375923e-08	4.238141e+01	2.216407e+03
1.450000e-06	5.977992e-06	3.384931e-08	4.270593e+01	2.222412e+03
1.460000e-06	6.021499e-06	3.393196e-08	4.301673e+01	2.228003e+03
1.470000e-06	6.062775e-06	3.401089e-08	4.331160e+01	2.233216e+03
1.480000e-06	6.101814e-06	3.408669e-08	4.359049e+01	2.238082e+03
1.490000e-06	6.138894e-06	3.415744e-08	4.385539e+01	2.242628e+03
1.500000e-06	6.173807e-06	3.422296e-08	4.410480e+01	2.246869e+03
1.510000e-06	6.206399e-06	3.428528e-08	4.433763e+01	2.250807e+03
1.520000e-06	6.236806e-06	3.434323e-08	4.455485e+01	2.254434e+03
1.530000e-06	6.265197e-06	3.439471e-08	4.475767e+01	2.257731e+03
1.540000e-06	6.291323e-06	3.443928e-08	4.494431e+01	2.260682e+03
1.550000e-06	6.314955e-06	3.447706e-08	4.511314e+01	2.263272e+03
1.560000e-06	6.336401e-06	3.450945e-08	4.526635e+01	2.265498e+03
1.570000e-06	6.355702e-06	3.453678e-08	4.540423e+01	2.267368e+03
1.580000e-06	6.372641e-06	3.456089e-08	4.552524e+01	2.268903e+03
1.590000e-06	6.387183e-06	3.458181e-08	4.562913e+01	2.270132e+03
1.600000e-06	6.399335e-06	3.459741e-08	4.571594e+01	2.271088e+03
1.610000e-06	6.408933e-06	3.460945e-08	4.578450e+01	2.271799e+03
1.620000e-06	6.416018e-06	3.461978e-08	4.583512e+01	2.272287e+03
1.630000e-06	6.420967e-06	3.462788e-08	4.587047e+01	2.272559e+03
1.640000e-06	6.423720e-06	3.463126e-08	4.589014e+01	2.272615e+03
1.650000e-06	6.424064e-06	3.463211e-08	4.589260e+01	2.272442e+03
1.660000e-06	6.422207e-06	3.461646e-08	4.587933e+01	2.272028e+03
1.670000e-06	6.418362e-06	3.460321e-08	4.585187e+01	2.271360e+03
1.680000e-06	6.412361e-06	3.459370e-08	4.580900e+01	2.270431e+03
1.690000e-06	6.404162e-06	3.457876e-08	4.575042e+01	2.269246e+03
1.700000e-06	6.393952e-06	3.456058e-08	4.567748e+01	2.267818e+03
1.710000e-06	6.381543e-06	3.454180e-08	4.558884e+01	2.266166e+03
1.720000e-06	6.366837e-06	3.454630e-08	4.548378e+01	2.264312e+03
1.730000e-06	6.350095e-06	3.450740e-08	4.536417e+01	2.262277e+03
1.740000e-06	6.331344e-06	3.434503e-08	4.523022e+01	2.260074e+03
1.750000e-06	6.309817e-06	3.433425e-08	4.507643e+01	2.257706e+03
1.760000e-06	6.285067e-06	3.436848e-08	4.489963e+01	2.255167e+03
1.770000e-06	6.257880e-06	3.428283e-08	4.470540e+01	2.252442e+03
1.780000e-06	6.228759e-06	3.438077e-08	4.449737e+01	2.249509e+03
1.790000e-06	6.197939e-06	3.435479e-08	4.427719e+01	2.246342e+03
1.800000e-06	6.165767e-06	3.408409e-08	4.404736e+01	2.242917e+03
1.810000e-06	6.131667e-06	3.423265e-08	4.380376e+01	2.239212e+03
1.820000e-06	6.095513e-06	3.412590e-08	4.354548e+01	2.235209e+03
1.830000e-06	6.057337e-06	3.394464e-08	4.327275e+01	2.230896e+03
1.840000e-06	6.016699e-06	3.410779e-08	4.298244e+01	2.226268e+03
1.850000e-06	5.973972e-06	3.381845e-08	4.267721e+01	2.221320e+03
1.860000e-06	5.929267e-06	3.377905e-08	4.235784e+01	2.216055e+03
1.870000e-06	5.882381e-06	3.375167e-08	4.202289e+01	2.210477e+03
1.880000e-06	5.833388e-06	3.353371e-08	4.167290e+01	2.204592e+03
1.890000e-06	5.781915e-06	3.362048e-08	4.130518e+01	2.198408e+03
1.900000e-06	5.727853e-06	3.339430e-08	4.091897e+01	2.191930e+03
1.910000e-06	5.671554e-06	3.331607e-08	4.051678e+01	2.185163e+03
1.920000e-06	5.613242e-06	3.330073e-08	4.010020e+01	2.178108e+03
1.930000e-06	5.553119e-06	3.306556e-08	3.967069e+01	2.170758e+03
1.940000e-06	5.490877e-06	3.305538e-08	3.922604e+01	2.163101e+03
1.950000e-06	5.426449e-06	3.284603e-08	3.876578e+01	2.155122e+03
1.960000e-06	5.359996e-06	3.277948e-08	3.829105e+01	2.146796e+03
1.970000e-06	5.291544e-06	3.263359e-08	3.780204e+01	2.138099e+03
1.980000e-06	5.221019e-06	3.243795e-08	3.729822e+01	2.129007e+03
1.990000e-06	5.148366e-06	3.239175e-08	3.677919e+01	2.119499e+03
2.000000e-06	5.073994e-06	3.216888e-08	3.624789e+01	2.109557e+03
2.010000e-06	4.997692e-06	3.207155e-08	3.570280e+01	2.099170e+03
2.020000e-06	4.919225e-06	3.185146e-08	3.514224e+01	2.088330e+03
2.030000e-06	4.838895e-06	3.167921e-08	3.456838e+01	2.077029e+03
2.040000e-06	4.756918e-06	3.154466e-08	3.398275e+01	2.065262e+03
2.050000e-06	4.673440e-06	3.132404e-08	3.338639e+01	2.053017e+03
2.060000e-06	4.588269e-06	3.116129e-08	3.277794e+01	2.040278e+03
2.070000e-06	4.501320e-06	3.092205e-08	3.215679e+01	2.027026e+03
2.080000e-06	4.412789e-06	3.074262e-08	3.152434e+01	2.013237e+03
2.090000e-06	4.322805e-06	3.050529e-08	3.088150e+01	1.998884e+03
2.100000e-06	4.231445e-06	3.028700e-08	3.022884e+01	1.983943e+03
2.110000e-06	4.138689e-06	3.006671e-08	2.956620e+01	1.968388e+03
2.120000e-06	4.044386e-06	2.980975e-08	2.889252e+01	1.952198e+03
2.130000e-06	3.948529e-06	2.955743e-08	2.820773e+01	1.935348e+03
2.140000e-06	3.851324e-06	2.926824e-08	2.751331e+01	1.917815e+03
2.150000e-06	3.752830e-06	2.900753e-08	2.680968e+01	1.899569e+03
2.160000e-06	3.653035e-06	2.871329e-08	2.609676e+01	1.880576e+03
2.170000e-06	3.551787e-06	2.842576e-08	2.537346e+01	1.860792e+03
2.180000e-06	3.449087e-06	2.810777e-08	2.463979e+01	1.840168e+03
2.190000e-06	3.345082e-06	2.778197e-08	2.389679e+01	1.818651e+03
2.200000e-06	3.239837e-06	2.743621e-08	2.314493e+01	1.796183e+03
2.210000e-06	3.133453e-06	2.707900e-08	2.238494e+01	1.772707e+03
2.220000e-06	3.026018e-06	2.671101e-08	2.161744e+01	1.748164e+03
2.230000e-06	2.917533e-06	2.631820e-08	2.084244e+01	1.722494e+03
2.240000e-06	2.807991e-06	2.591160e-08	2.005989e+01	1.695633e+03
2.250000e-06	2.697409e-06	2.547832e-08	1.926991e+01	1.667509e+03
2.260000e-06	2.585791e-06	2.503259e-08	1.847253e+01	1.638037e+03
2.270000e-06	2.473209e-06	2.455775e-08	1.766826e+01	1.607119e+03
2.280000e-06	2.359652e-06	2.406869e-08	1.685702e+01	1.574643e+03
2.290000e-06	2.245132e-06	2.354850e-08	1.603890e+01	1.540485e+03
2.300000e-06	2.129774e-06	2.300058e-08	1.521481e+01	1.504513e+03
2.310000e-06	2.013638e-06	2.242054e-08	1.438514e+01	1.466590e+03
2.320000e-06	1.896701e-06	2.181069e-08	1.354976e+01	1.426577e+03
2.330000e-06	1.778935e-06	2.116856e-08	1.270846e+01	1.384332e+03
2.340000e-06	1.660368e-06	2.048828e-08	1.186143e+01	1.339710e+03
2.350000e-06	1.541087e-06	1.977236e-08	1.100931e+01	1.292562e+03
2.360000e-06	1.421265e-06	1.901423e-08	1.015332e+01	1.242728e+03
2.370000e-06	1.300984e-06	1.821167e-08	9.294041e+00	1.190047e+03
2.380000e-06	1.180351e-06	1.736026e-08	8.432262e+00	1.134360e+03
2.390000e-06	1.059451e-06	1.646526e-08	7.568567e+00	1.075536e+03
2.400000e-06	9.382281e-07	1.551915e-08	6.702568e+00	1.013492e+03
2.410000e-06	8.166940e-07	1.452492e-08	5.834346e+00	9.482269e+02
2.420000e-06	6.948900e-07	1.348501e-08	4.964195e+00	8.798498e+02
2.430000e-06	5.728646e-07	1.239963e-08	4.092463e+00	8.086000e+02
2.440000e-06	4.506174e-07	1.127417e-08	3.219147e+00	7.348517e+02
2.450000e-06	3.282668e-07	1.011417e-08	2.345092e+00	6.590977e+02
2.460000e-06	2.058404e-07	8.933186e-09	1.470494e+00	5.819095e+02
2.470000e-06	8.330382e-08	7.740572e-09	5.951107e-01	5.038783e+02
2.480000e-06	-3.927380e-08	6.544882e-09	-2.805664e-01	4.255430e+02
2.490000e-06	-1.619050e-07	5.351244e-09	-1.156626e+00	3.473180e+02
2.500000e-06	-2.844954e-07	4.161801e-09	-2.032394e+00	2.694327e+02
2.510000e-06	-4.069679e-07	2.977801e-09	-2.907321e+00	1.918962e+02
2.520000e-06	-5.293680e-07	1.794227e-09	-3.781730e+00	1.144963e+02
2.530000e-06	-6.516249e-07	6.053737e-10	-4.655116e+00	3.683598e+01
2.540000e-06	-7.736535e-07	-5.947274e-10	-5.526871e+00	-4.159611e+01
2.550000e-06	-8.954263e-07	-1.813189e-09	-6.396798e+00	-1.213306e+02
2.560000e-06	-1.016909e-06	-3.056285e-09	-7.264655e+00	-2.028130e+02
2.570000e-06	-1.138052e-06	-4.329583e-09	-8.130080e+00	-2.863074e+02
2.580000e-06	-1.258800e-06	-5.633935e-09	-8.992686e+00	-3.718246e+02
2.590000e-06	-1.379105e-06	-6.964639e-09	-9.852128e+00	-4.590873e+02
2.600000e-06	-1.498978e-06	-8.313434e-09	-1.070848e+01	-5.475378e+02
2.610000e-06	-1.618331e-06	-9.669665e-09	-1.156112e+01	-6.363867e+02
2.620000e-06	-1.736998e-06	-1.101999e-08	-1.240887e+01	-7.246952e+02
2.630000e-06	-1.854860e-06	-1.234831e-08	-1.325085e+01	-8.114741e+02
2.640000e-06	-1.971844e-06	-1.364005e-08	-1.408658e+01	-8.957863e+02
2.650000e-06	-2.087939e-06	-1.488269e-08	-1.491594e+01	-9.768337e+02
2.660000e-06	-2.203128e-06	-1.606496e-08	-1.573883e+01	-1.054019e+03
2.670000e-06	-2.317318e-06	-1.718159e-08	-1.655459e+01	-1.126974e+03
2.680000e-06	-2.430535e-06	-1.823055e-08	-1.736340e+01	-1.195555e+03
2.690000e-06	-2.542806e-06	-1.921197e-08	-1.816544e+01	-1.259810e+03
2.700000e-06	-2.653962e-06	-2.013184e-08	-1.895953e+01	-1.319930e+03
2.710000e-06	-2.764026e-06	-2.099455e-08	-1.974581e+01	-1.376188e+03
2.720000e-06	-2.873158e-06	-2.180531e-08	-2.052543e+01	-1.428891e+03
2.730000e-06	-2.981411e-06	-2.256559e-08	-2.129877e+01	-1.478338e+03
2.740000e-06	-3.088742e-06	-2.327767e-08	-2.206553e+01	-1.524793e+03
2.750000e-06	-3.195051e-06	-2.394502e-08	-2.282499e+01	-1.568477e+03
2.760000e-06	-3.300259e-06	-2.457140e-08	-2.357658e+01	-1.609574e+03
2.770000e-06	-3.404357e-06	-2.516445e-08	-2.432024e+01	-1.648243e+03
2.780000e-06	-3.507245e-06	-2.572376e-08	-2.505526e+01	-1.684629e+03
2.790000e-06	-3.608751e-06	-2.624908e-08	-2.578040e+01	-1.718875e+03
2.800000e-06	-3.708895e-06	-2.674118e-08	-2.649582e+01	-1.751128e+03
2.810000e-06	-3.807790e-06	-2.720556e-08	-2.720231e+01	-1.781537e+03
2.820000e-06	-3.905444e-06	-2.764669e-08	-2.789994e+01	-1.810251e+03
2.830000e-06	-4.001871e-06	-2.806340e-08	-2.858879e+01	-1.837408e+03
2.840000e-06	-4.096931e-06	-2.845832e-08	-2.926789e+01	-1.863131e+03
2.850000e-06	-4.190443e-06	-2.883380e-08	-2.993593e+01	-1.887525e+03
2.860000e-06	-4.282449e-06	-2.918920e-08	-3.059320e+01	-1.910674e+03
2.870000e-06	-4.372947e-06	-2.952266e-08	-3.123971e+01	-1.932648e+03
2.880000e-06	-4.461894e-06	-2.983708e-08	-3.187513e+01	-1.953506e+03
2.890000e-06	-4.549224e-06	-3.013770e-08	-3.249901e+01	-1.973302e+03
2.900000e-06	-4.634795e-06	-3.042785e-08	-3.311032e+01	-1.992088e+03
2.910000e-06	-4.718650e-06	-3.070505e-08	-3.370936e+01	-2.009919e+03
2.920000e-06	-4.800879e-06	-3.096637e-08	-3.429680e+01	-2.026848e+03
2.930000e-06	-4.881494e-06	-3.121221e-08	-3.487270e+01	-2.042930e+03
2.940000e-06	-4.960240e-06	-3.144494e-08	-3.543525e+01	-2.058214e+03
