# Temperatura_=_76.12
# Concentracion g/m^3_=_28200.0
# C_Vs_to_Am_M_A/Vsm_=_65563218390.804596
# pendiente_HvsI_1/m_=_3716.3
# ordenada_HvsI_A/m_=_1297.0
# frecuencia_Hz_=_302141.6317391807

Tiempo_(s)	Campo_(V.s)	Magnetizacion_(V.s)	Campo_(kA/m)	Magnetizacion_(A/m)
0.000000e+00	-6.394963e-06	-3.502724e-08	-4.585170e+01	-2.293676e+03
1.000000e-08	-6.392209e-06	-3.502409e-08	-4.583196e+01	-2.293122e+03
2.000000e-08	-6.387339e-06	-3.500943e-08	-4.579704e+01	-2.292344e+03
3.000000e-08	-6.380538e-06	-3.499350e-08	-4.574827e+01	-2.291330e+03
4.000000e-08	-6.371639e-06	-3.497538e-08	-4.568447e+01	-2.290067e+03
5.000000e-08	-6.360443e-06	-3.494766e-08	-4.560419e+01	-2.288535e+03
6.000000e-08	-6.346891e-06	-3.491627e-08	-4.550702e+01	-2.286718e+03
7.000000e-08	-6.330955e-06	-3.486879e-08	-4.539277e+01	-2.284605e+03
8.000000e-08	-6.312906e-06	-3.482622e-08	-4.526335e+01	-2.282201e+03
9.000000e-08	-6.292790e-06	-3.490861e-08	-4.511912e+01	-2.279531e+03
1.000000e-07	-6.270308e-06	-3.486728e-08	-4.495793e+01	-2.276635e+03
1.100000e-07	-6.245158e-06	-3.471842e-08	-4.477760e+01	-2.273571e+03
1.200000e-07	-6.217583e-06	-3.466786e-08	-4.457989e+01	-2.270402e+03
1.300000e-07	-6.188092e-06	-3.460825e-08	-4.436845e+01	-2.267181e+03
1.400000e-07	-6.157024e-06	-3.441094e-08	-4.414569e+01	-2.263942e+03
1.500000e-07	-6.124280e-06	-3.451839e-08	-4.391091e+01	-2.260683e+03
1.600000e-07	-6.089488e-06	-3.458549e-08	-4.366146e+01	-2.257364e+03
1.700000e-07	-6.052778e-06	-3.428230e-08	-4.339825e+01	-2.253910e+03
1.800000e-07	-6.014100e-06	-3.437927e-08	-4.312093e+01	-2.250218e+03
1.900000e-07	-5.973006e-06	-3.425868e-08	-4.282628e+01	-2.246181e+03
2.000000e-07	-5.929644e-06	-3.404620e-08	-4.251538e+01	-2.241699e+03
2.100000e-07	-5.884211e-06	-3.411953e-08	-4.218963e+01	-2.236705e+03
2.200000e-07	-5.836578e-06	-3.396205e-08	-4.184810e+01	-2.231172e+03
2.300000e-07	-5.786522e-06	-3.388540e-08	-4.148920e+01	-2.225116e+03
2.400000e-07	-5.733855e-06	-3.382088e-08	-4.111157e+01	-2.218588e+03
2.500000e-07	-5.678965e-06	-3.367020e-08	-4.071801e+01	-2.211661e+03
2.600000e-07	-5.621881e-06	-3.360233e-08	-4.030873e+01	-2.204409e+03
2.700000e-07	-5.562639e-06	-3.345366e-08	-3.988396e+01	-2.196888e+03
2.800000e-07	-5.501508e-06	-3.335012e-08	-3.944565e+01	-2.189121e+03
2.900000e-07	-5.438504e-06	-3.322207e-08	-3.899392e+01	-2.181097e+03
3.000000e-07	-5.373434e-06	-3.310035e-08	-3.852737e+01	-2.172773e+03
3.100000e-07	-5.306199e-06	-3.297261e-08	-3.804529e+01	-2.164089e+03
3.200000e-07	-5.236898e-06	-3.279912e-08	-3.754841e+01	-2.154981e+03
3.300000e-07	-5.165772e-06	-3.269038e-08	-3.703844e+01	-2.145402e+03
3.400000e-07	-5.092923e-06	-3.249672e-08	-3.651611e+01	-2.135327e+03
3.500000e-07	-5.018020e-06	-3.234728e-08	-3.597906e+01	-2.124760e+03
3.600000e-07	-4.940989e-06	-3.220016e-08	-3.542675e+01	-2.113728e+03
3.700000e-07	-4.861909e-06	-3.200768e-08	-3.485975e+01	-2.102265e+03
3.800000e-07	-4.780904e-06	-3.184525e-08	-3.427894e+01	-2.090399e+03
3.900000e-07	-4.698216e-06	-3.164058e-08	-3.368607e+01	-2.078142e+03
4.000000e-07	-4.614128e-06	-3.144226e-08	-3.308316e+01	-2.065474e+03
4.100000e-07	-4.528701e-06	-3.124340e-08	-3.247065e+01	-2.052354e+03
4.200000e-07	-4.441827e-06	-3.105072e-08	-3.184777e+01	-2.038718e+03
4.300000e-07	-4.353454e-06	-3.083675e-08	-3.121414e+01	-2.024498e+03
4.400000e-07	-4.263430e-06	-3.059055e-08	-3.056867e+01	-2.009636e+03
4.500000e-07	-4.171793e-06	-3.035807e-08	-2.991164e+01	-1.994093e+03
4.600000e-07	-4.078692e-06	-3.010140e-08	-2.924411e+01	-1.977853e+03
4.700000e-07	-3.984257e-06	-2.984837e-08	-2.856701e+01	-1.960923e+03
4.800000e-07	-3.888504e-06	-2.958559e-08	-2.788046e+01	-1.943320e+03
4.900000e-07	-3.791279e-06	-2.931333e-08	-2.718336e+01	-1.925057e+03
5.000000e-07	-3.692480e-06	-2.902356e-08	-2.647497e+01	-1.906131e+03
5.100000e-07	-3.592276e-06	-2.871686e-08	-2.575651e+01	-1.886513e+03
5.200000e-07	-3.490863e-06	-2.840452e-08	-2.502939e+01	-1.866147e+03
5.300000e-07	-3.388235e-06	-2.807412e-08	-2.429355e+01	-1.844956e+03
5.400000e-07	-3.284380e-06	-2.773871e-08	-2.354891e+01	-1.822853e+03
5.500000e-07	-3.179293e-06	-2.738466e-08	-2.279544e+01	-1.799754e+03
5.600000e-07	-3.072875e-06	-2.702041e-08	-2.203242e+01	-1.775588e+03
5.700000e-07	-2.965187e-06	-2.663419e-08	-2.126031e+01	-1.750302e+03
5.800000e-07	-2.856447e-06	-2.623032e-08	-2.048064e+01	-1.723859e+03
5.900000e-07	-2.746743e-06	-2.580939e-08	-1.969407e+01	-1.696223e+03
6.000000e-07	-2.636152e-06	-2.537002e-08	-1.890114e+01	-1.667348e+03
6.100000e-07	-2.524625e-06	-2.491259e-08	-1.810149e+01	-1.637167e+03
6.200000e-07	-2.412121e-06	-2.443027e-08	-1.729484e+01	-1.605578e+03
6.300000e-07	-2.298641e-06	-2.392315e-08	-1.648119e+01	-1.572446e+03
6.400000e-07	-2.184092e-06	-2.338531e-08	-1.565988e+01	-1.537614e+03
6.500000e-07	-2.068509e-06	-2.282303e-08	-1.483115e+01	-1.500910e+03
6.600000e-07	-1.952086e-06	-2.223128e-08	-1.399640e+01	-1.462166e+03
6.700000e-07	-1.835003e-06	-2.161072e-08	-1.315692e+01	-1.421228e+03
6.800000e-07	-1.717355e-06	-2.095829e-08	-1.231339e+01	-1.377959e+03
6.900000e-07	-1.599207e-06	-2.026556e-08	-1.146627e+01	-1.332235e+03
7.000000e-07	-1.480565e-06	-1.952838e-08	-1.061561e+01	-1.283931e+03
7.100000e-07	-1.361396e-06	-1.874430e-08	-9.761170e+00	-1.232910e+03
7.200000e-07	-1.241770e-06	-1.791741e-08	-8.903458e+00	-1.179011e+03
7.300000e-07	-1.121727e-06	-1.704705e-08	-8.042751e+00	-1.122059e+03
7.400000e-07	-1.001276e-06	-1.612900e-08	-7.179121e+00	-1.061875e+03
7.500000e-07	-8.804947e-07	-1.515916e-08	-6.313122e+00	-9.983187e+02
7.600000e-07	-7.594307e-07	-1.413835e-08	-5.445096e+00	-9.313271e+02
7.700000e-07	-6.381252e-07	-1.306379e-08	-4.575339e+00	-8.609603e+02
7.800000e-07	-5.166227e-07	-1.194386e-08	-3.704170e+00	-7.874323e+02
7.900000e-07	-3.949709e-07	-1.078419e-08	-2.831930e+00	-7.111179e+02
8.000000e-07	-2.731362e-07	-9.587627e-09	-1.958378e+00	-6.325297e+02
8.100000e-07	-1.511483e-07	-8.364909e-09	-1.083729e+00	-5.522631e+02
8.200000e-07	-2.905037e-08	-7.126466e-09	-2.082903e-01	-4.709162e+02
8.300000e-07	9.310519e-08	-5.881567e-09	6.675615e-01	-3.889996e+02
8.400000e-07	2.151906e-07	-4.630520e-09	1.542910e+00	-3.068533e+02
8.500000e-07	3.371776e-07	-3.377638e-09	2.417553e+00	-2.245899e+02
8.600000e-07	4.590615e-07	-2.120535e-09	3.291458e+00	-1.420783e+02
8.700000e-07	5.807934e-07	-8.523769e-10	4.164272e+00	-5.897616e+01
8.800000e-07	7.023711e-07	4.307166e-10	5.035980e+00	2.519238e+01
8.900000e-07	8.237748e-07	1.735699e-09	5.906441e+00	1.109255e+02
9.000000e-07	9.449160e-07	3.067817e-09	6.775020e+00	1.986193e+02
9.100000e-07	1.065741e-06	4.432085e-09	7.641330e+00	2.884529e+02
9.200000e-07	1.186178e-06	5.828792e-09	8.504859e+00	3.803067e+02
9.300000e-07	1.306130e-06	7.251654e-09	9.364915e+00	4.737286e+02
9.400000e-07	1.425591e-06	8.689780e-09	1.022145e+01	5.679558e+02
9.500000e-07	1.544574e-06	1.012637e-08	1.107455e+01	6.619879e+02
9.600000e-07	1.663008e-06	1.154118e-08	1.192372e+01	7.546982e+02
9.700000e-07	1.780807e-06	1.291487e-08	1.276833e+01	8.449614e+02
9.800000e-07	1.897962e-06	1.423341e-08	1.360833e+01	9.317762e+02
9.900000e-07	2.014355e-06	1.548502e-08	1.444286e+01	1.014362e+03
1.000000e-06	2.129857e-06	1.666019e-08	1.527101e+01	1.092213e+03
1.010000e-06	2.244380e-06	1.776320e-08	1.609214e+01	1.165115e+03
1.020000e-06	2.357897e-06	1.879554e-08	1.690605e+01	1.233107e+03
1.030000e-06	2.470510e-06	1.975979e-08	1.771349e+01	1.296425e+03
1.040000e-06	2.582245e-06	2.065888e-08	1.851462e+01	1.355425e+03
1.050000e-06	2.692992e-06	2.149546e-08	1.930867e+01	1.410510e+03
1.060000e-06	2.802724e-06	2.227771e-08	2.009545e+01	1.462064e+03
1.070000e-06	2.911560e-06	2.301055e-08	2.087580e+01	1.510422e+03
1.080000e-06	3.019520e-06	2.370088e-08	2.164987e+01	1.555850e+03
1.090000e-06	3.126399e-06	2.434911e-08	2.241619e+01	1.598553e+03
1.100000e-06	3.232020e-06	2.495810e-08	2.317349e+01	1.638696e+03
1.110000e-06	3.336354e-06	2.552859e-08	2.392156e+01	1.676426e+03
1.120000e-06	3.439443e-06	2.606652e-08	2.466071e+01	1.711887e+03
1.130000e-06	3.541372e-06	2.657318e-08	2.539154e+01	1.745236e+03
1.140000e-06	3.642203e-06	2.705129e-08	2.611449e+01	1.776641e+03
1.150000e-06	3.741863e-06	2.750324e-08	2.682905e+01	1.806270e+03
1.160000e-06	3.840046e-06	2.793031e-08	2.753302e+01	1.834286e+03
1.170000e-06	3.936642e-06	2.833389e-08	2.822561e+01	1.860828e+03
1.180000e-06	4.031807e-06	2.871679e-08	2.890794e+01	1.886012e+03
1.190000e-06	4.125616e-06	2.907912e-08	2.958055e+01	1.909925e+03
1.200000e-06	4.218180e-06	2.942207e-08	3.024423e+01	1.932634e+03
1.210000e-06	4.309396e-06	2.974872e-08	3.089825e+01	1.954190e+03
1.220000e-06	4.398912e-06	3.006048e-08	3.154007e+01	1.974644e+03
1.230000e-06	4.486687e-06	3.035804e-08	3.216941e+01	1.994048e+03
1.240000e-06	4.572846e-06	3.063847e-08	3.278717e+01	2.012460e+03
1.250000e-06	4.657516e-06	3.090324e-08	3.339426e+01	2.029944e+03
1.260000e-06	4.740665e-06	3.115376e-08	3.399044e+01	2.046566e+03
1.270000e-06	4.822067e-06	3.139341e-08	3.457408e+01	2.062385e+03
1.280000e-06	4.901636e-06	3.162103e-08	3.514459e+01	2.077453e+03
1.290000e-06	4.979412e-06	3.183996e-08	3.570224e+01	2.091809e+03
1.300000e-06	5.055306e-06	3.204852e-08	3.624640e+01	2.105485e+03
1.310000e-06	5.129109e-06	3.224516e-08	3.677556e+01	2.118505e+03
1.320000e-06	5.200876e-06	3.243084e-08	3.729013e+01	2.130891e+03
1.330000e-06	5.270806e-06	3.260751e-08	3.779153e+01	2.142670e+03
1.340000e-06	5.338968e-06	3.277691e-08	3.828025e+01	2.153868e+03
1.350000e-06	5.405168e-06	3.293915e-08	3.875490e+01	2.164516e+03
1.360000e-06	5.469275e-06	3.309498e-08	3.921455e+01	2.174642e+03
1.370000e-06	5.531480e-06	3.324409e-08	3.966055e+01	2.184270e+03
1.380000e-06	5.591920e-06	3.338509e-08	4.009391e+01	2.193415e+03
1.390000e-06	5.650471e-06	3.351823e-08	4.051371e+01	2.202082e+03
1.400000e-06	5.706884e-06	3.364492e-08	4.091819e+01	2.210272e+03
1.410000e-06	5.761178e-06	3.376597e-08	4.130748e+01	2.217979e+03
1.420000e-06	5.813250e-06	3.387975e-08	4.168084e+01	2.225205e+03
1.430000e-06	5.862832e-06	3.398404e-08	4.203634e+01	2.231956e+03
1.440000e-06	5.910073e-06	3.407970e-08	4.237505e+01	2.238252e+03
1.450000e-06	5.955330e-06	3.416728e-08	4.269955e+01	2.244122e+03
1.460000e-06	5.998624e-06	3.424837e-08	4.300996e+01	2.249604e+03
1.470000e-06	6.039717e-06	3.432595e-08	4.330460e+01	2.254737e+03
1.480000e-06	6.078647e-06	3.440051e-08	4.358372e+01	2.259554e+03
1.490000e-06	6.115562e-06	3.447080e-08	4.384840e+01	2.264077e+03
1.500000e-06	6.150365e-06	3.453576e-08	4.409794e+01	2.268314e+03
1.510000e-06	6.182919e-06	3.459717e-08	4.433135e+01	2.272258e+03
1.520000e-06	6.213285e-06	3.465513e-08	4.454907e+01	2.275893e+03
1.530000e-06	6.241622e-06	3.470730e-08	4.475225e+01	2.279200e+03
1.540000e-06	6.267689e-06	3.475282e-08	4.493915e+01	2.282159e+03
1.550000e-06	6.291256e-06	3.479118e-08	4.510813e+01	2.284761e+03
1.560000e-06	6.312566e-06	3.482389e-08	4.526092e+01	2.287004e+03
1.570000e-06	6.331812e-06	3.485140e-08	4.539891e+01	2.288899e+03
1.580000e-06	6.348822e-06	3.487467e-08	4.552087e+01	2.290465e+03
1.590000e-06	6.363425e-06	3.489509e-08	4.562558e+01	2.291723e+03
1.600000e-06	6.375642e-06	3.491099e-08	4.571317e+01	2.292697e+03
1.610000e-06	6.385293e-06	3.492342e-08	4.578237e+01	2.293407e+03
1.620000e-06	6.392458e-06	3.493410e-08	4.583374e+01	2.293869e+03
1.630000e-06	6.397481e-06	3.494197e-08	4.586975e+01	2.294095e+03
1.640000e-06	6.400247e-06	3.494515e-08	4.588959e+01	2.294094e+03
1.650000e-06	6.400667e-06	3.494770e-08	4.589260e+01	2.293870e+03
1.660000e-06	6.398940e-06	3.493252e-08	4.588021e+01	2.293427e+03
1.670000e-06	6.395225e-06	3.491830e-08	4.585358e+01	2.292761e+03
1.680000e-06	6.389307e-06	3.490742e-08	4.581114e+01	2.291867e+03
1.690000e-06	6.381154e-06	3.489083e-08	4.575269e+01	2.290731e+03
1.700000e-06	6.371014e-06	3.487159e-08	4.567999e+01	2.289336e+03
1.710000e-06	6.358712e-06	3.485193e-08	4.559178e+01	2.287663e+03
1.720000e-06	6.344116e-06	3.485500e-08	4.548713e+01	2.285698e+03
1.730000e-06	6.327473e-06	3.482276e-08	4.536780e+01	2.283438e+03
1.740000e-06	6.308819e-06	3.463030e-08	4.523405e+01	2.280897e+03
1.750000e-06	6.287424e-06	3.461149e-08	4.508065e+01	2.278107e+03
1.760000e-06	6.262849e-06	3.466248e-08	4.490445e+01	2.275120e+03
1.770000e-06	6.235820e-06	3.458271e-08	4.471065e+01	2.271996e+03
1.780000e-06	6.206900e-06	3.468299e-08	4.450330e+01	2.268795e+03
1.790000e-06	6.176266e-06	3.464776e-08	4.428365e+01	2.265563e+03
1.800000e-06	6.144249e-06	3.428712e-08	4.405409e+01	2.262317e+03
1.810000e-06	6.110265e-06	3.442596e-08	4.381042e+01	2.259035e+03
1.820000e-06	6.074275e-06	3.439614e-08	4.355238e+01	2.255660e+03
1.830000e-06	6.036295e-06	3.426067e-08	4.328006e+01	2.252101e+03
1.840000e-06	5.995796e-06	3.453536e-08	4.298968e+01	2.248249e+03
1.850000e-06	5.953203e-06	3.423361e-08	4.268429e+01	2.244000e+03
1.860000e-06	5.908681e-06	3.417086e-08	4.236507e+01	2.239269e+03
1.870000e-06	5.861985e-06	3.418396e-08	4.203027e+01	2.234006e+03
1.880000e-06	5.813212e-06	3.389898e-08	4.168056e+01	2.228207e+03
1.890000e-06	5.762145e-06	3.399246e-08	4.131441e+01	2.221906e+03
1.900000e-06	5.708428e-06	3.377989e-08	4.092927e+01	2.215170e+03
1.910000e-06	5.652352e-06	3.370028e-08	4.052720e+01	2.208072e+03
1.920000e-06	5.594239e-06	3.371708e-08	4.011054e+01	2.200680e+03
1.930000e-06	5.534367e-06	3.343008e-08	3.968125e+01	2.193035e+03
1.940000e-06	5.472425e-06	3.343150e-08	3.923713e+01	2.185143e+03
1.950000e-06	5.408244e-06	3.319584e-08	3.877695e+01	2.176976e+03
1.960000e-06	5.342091e-06	3.312889e-08	3.830264e+01	2.168480e+03
1.970000e-06	5.273941e-06	3.300847e-08	3.781400e+01	2.159592e+03
1.980000e-06	5.203693e-06	3.278404e-08	3.731033e+01	2.150253e+03
1.990000e-06	5.131364e-06	3.276638e-08	3.679173e+01	2.140427e+03
2.000000e-06	5.057330e-06	3.250632e-08	3.626091e+01	2.130104e+03
2.010000e-06	4.981360e-06	3.239391e-08	3.571621e+01	2.119300e+03
2.020000e-06	4.903174e-06	3.217894e-08	3.515561e+01	2.108048e+03
2.030000e-06	4.823087e-06	3.201068e-08	3.458139e+01	2.096381e+03
2.040000e-06	4.741370e-06	3.189617e-08	3.399549e+01	2.084320e+03
2.050000e-06	4.658192e-06	3.164430e-08	3.339910e+01	2.071861e+03
2.060000e-06	4.573422e-06	3.148196e-08	3.279131e+01	2.058974e+03
2.070000e-06	4.486866e-06	3.122899e-08	3.217070e+01	2.045604e+03
2.080000e-06	4.398649e-06	3.104706e-08	3.153818e+01	2.031685e+03
2.090000e-06	4.308960e-06	3.080464e-08	3.089512e+01	2.017150e+03
2.100000e-06	4.217902e-06	3.057964e-08	3.024224e+01	2.001951e+03
2.110000e-06	4.125499e-06	3.036491e-08	2.957971e+01	1.986060e+03
2.120000e-06	4.031603e-06	3.009341e-08	2.890647e+01	1.969473e+03
2.130000e-06	3.936130e-06	2.984064e-08	2.822194e+01	1.952205e+03
2.140000e-06	3.839264e-06	2.954346e-08	2.752741e+01	1.934271e+03
2.150000e-06	3.741096e-06	2.928516e-08	2.682355e+01	1.915678e+03
2.160000e-06	3.641597e-06	2.898507e-08	2.611014e+01	1.896411e+03
2.170000e-06	3.540839e-06	2.869146e-08	2.538771e+01	1.876428e+03
2.180000e-06	3.438688e-06	2.836529e-08	2.465529e+01	1.855660e+03
2.190000e-06	3.335056e-06	2.803122e-08	2.391226e+01	1.834024e+03
2.200000e-06	3.230147e-06	2.768235e-08	2.316006e+01	1.811433e+03
2.210000e-06	3.124124e-06	2.731892e-08	2.239988e+01	1.787808e+03
2.220000e-06	3.017055e-06	2.695183e-08	2.163220e+01	1.763088e+03
2.230000e-06	2.908950e-06	2.656072e-08	2.085709e+01	1.737228e+03
2.240000e-06	2.799892e-06	2.615828e-08	2.007514e+01	1.710192e+03
2.250000e-06	2.689836e-06	2.572268e-08	1.928605e+01	1.681944e+03
2.260000e-06	2.578653e-06	2.527229e-08	1.848887e+01	1.652427e+03
2.270000e-06	2.466419e-06	2.479203e-08	1.768415e+01	1.621556e+03
2.280000e-06	2.353237e-06	2.430205e-08	1.687264e+01	1.589214e+03
2.290000e-06	2.239107e-06	2.378354e-08	1.605434e+01	1.555253e+03
2.300000e-06	2.124183e-06	2.323894e-08	1.523033e+01	1.519507e+03
2.310000e-06	2.008517e-06	2.266286e-08	1.440101e+01	1.481803e+03
2.320000e-06	1.892018e-06	2.205452e-08	1.356572e+01	1.441980e+03
2.330000e-06	1.774763e-06	2.141206e-08	1.272500e+01	1.399892e+03
2.340000e-06	1.656777e-06	2.073297e-08	1.187904e+01	1.355411e+03
2.350000e-06	1.538084e-06	2.002182e-08	1.102802e+01	1.308413e+03
2.360000e-06	1.418741e-06	1.926897e-08	1.017233e+01	1.258769e+03
2.370000e-06	1.298838e-06	1.847059e-08	9.312634e+00	1.206331e+03
2.380000e-06	1.178571e-06	1.761934e-08	8.450322e+00	1.150928e+03
2.390000e-06	1.057991e-06	1.672417e-08	7.585766e+00	1.092381e+03
2.400000e-06	9.370608e-07	1.577850e-08	6.718699e+00	1.030525e+03
2.410000e-06	8.158614e-07	1.478438e-08	5.849703e+00	9.652518e+02
2.420000e-06	6.944548e-07	1.374108e-08	4.979221e+00	8.965561e+02
2.430000e-06	5.728944e-07	1.264586e-08	4.107637e+00	8.245717e+02
2.440000e-06	4.511297e-07	1.150259e-08	3.234587e+00	7.495941e+02
2.450000e-06	3.291864e-07	1.031548e-08	2.360257e+00	6.720719e+02
2.460000e-06	2.071655e-07	9.097868e-09	1.485371e+00	5.925679e+02
2.470000e-06	8.504175e-08	7.860342e-09	6.097469e-01	5.116897e+02
2.480000e-06	-3.717555e-08	6.612915e-09	-2.665477e-01	4.300030e+02
2.490000e-06	-1.594034e-07	5.360372e-09	-1.142918e+00	3.479424e+02
2.500000e-06	-2.815839e-07	4.104068e-09	-2.018948e+00	2.657389e+02
2.510000e-06	-4.036801e-07	2.846955e-09	-2.894374e+00	1.833823e+02
2.520000e-06	-5.255938e-07	1.581024e-09	-3.768493e+00	1.006288e+02
2.530000e-06	-6.473324e-07	3.005002e-10	-4.641355e+00	1.705726e+01
2.540000e-06	-7.688977e-07	-9.986178e-10	-5.512975e+00	-6.783478e+01
2.550000e-06	-8.902580e-07	-2.322306e-09	-6.383124e+00	-1.545099e+02
2.560000e-06	-1.011393e-06	-3.673418e-09	-7.251662e+00	-2.432684e+02
2.570000e-06	-1.132218e-06	-5.058088e-09	-8.117972e+00	-3.341477e+02
2.580000e-06	-1.252686e-06	-6.472666e-09	-8.981723e+00	-4.268627e+02
2.590000e-06	-1.372708e-06	-7.907508e-09	-9.842276e+00	-5.207997e+02
2.600000e-06	-1.492091e-06	-9.350331e-09	-1.069825e+01	-6.150652e+02
2.610000e-06	-1.610800e-06	-1.078332e-08	-1.154939e+01	-7.085802e+02
2.620000e-06	-1.728840e-06	-1.218704e-08	-1.239574e+01	-8.002025e+02
2.630000e-06	-1.846183e-06	-1.354310e-08	-1.323708e+01	-8.888547e+02
2.640000e-06	-1.962708e-06	-1.484031e-08	-1.407256e+01	-9.736359e+02
2.650000e-06	-2.078348e-06	-1.606977e-08	-1.490170e+01	-1.053899e+03
2.660000e-06	-2.193163e-06	-1.722378e-08	-1.572491e+01	-1.129286e+03
2.670000e-06	-2.306986e-06	-1.830248e-08	-1.654103e+01	-1.199713e+03
2.680000e-06	-2.419764e-06	-1.930897e-08	-1.734964e+01	-1.265329e+03
2.690000e-06	-2.531510e-06	-2.024576e-08	-1.815085e+01	-1.326440e+03
2.700000e-06	-2.642210e-06	-2.112025e-08	-1.894457e+01	-1.383432e+03
2.710000e-06	-2.751970e-06	-2.193784e-08	-1.973155e+01	-1.436706e+03
2.720000e-06	-2.860856e-06	-2.270312e-08	-2.051225e+01	-1.486624e+03
2.730000e-06	-2.968813e-06	-2.342256e-08	-2.128631e+01	-1.533488e+03
2.740000e-06	-3.075774e-06	-2.409657e-08	-2.205321e+01	-1.577531e+03
2.750000e-06	-3.181709e-06	-2.472794e-08	-2.281276e+01	-1.618935e+03
2.760000e-06	-3.286651e-06	-2.532295e-08	-2.356519e+01	-1.657854e+03
2.770000e-06	-3.390435e-06	-2.588643e-08	-2.430932e+01	-1.694430e+03
2.780000e-06	-3.492862e-06	-2.641560e-08	-2.504372e+01	-1.728815e+03
2.790000e-06	-3.593957e-06	-2.690768e-08	-2.576857e+01	-1.761171e+03
2.800000e-06	-3.693741e-06	-2.737073e-08	-2.648402e+01	-1.791667e+03
2.810000e-06	-3.792263e-06	-2.781150e-08	-2.719042e+01	-1.820470e+03
2.820000e-06	-3.889611e-06	-2.822944e-08	-2.788840e+01	-1.847733e+03
2.830000e-06	-3.985704e-06	-2.862680e-08	-2.857738e+01	-1.873584e+03
2.840000e-06	-4.080310e-06	-2.900629e-08	-2.925571e+01	-1.898123e+03
2.850000e-06	-4.173442e-06	-2.936499e-08	-2.992346e+01	-1.921426e+03
2.860000e-06	-4.265146e-06	-2.970222e-08	-3.058097e+01	-1.943553e+03
2.870000e-06	-4.355326e-06	-3.002037e-08	-3.122756e+01	-1.964552e+03
2.880000e-06	-4.443958e-06	-3.032353e-08	-3.186305e+01	-1.984474e+03
2.890000e-06	-4.530976e-06	-3.061333e-08	-3.248697e+01	-2.003374e+03
2.900000e-06	-4.616263e-06	-3.088845e-08	-3.309847e+01	-2.021314e+03
2.910000e-06	-4.699882e-06	-3.114786e-08	-3.369802e+01	-2.038359e+03
2.920000e-06	-4.781879e-06	-3.139516e-08	-3.428593e+01	-2.054573e+03
2.930000e-06	-4.862202e-06	-3.163251e-08	-3.486185e+01	-2.070010e+03
2.940000e-06	-4.940601e-06	-3.186108e-08	-3.542397e+01	-2.084718e+03
