# Temperatura_=_79.56
# Concentracion g/m^3_=_28200.0
# C_Vs_to_Am_M_A/Vsm_=_65563218390.804596
# pendiente_HvsI_1/m_=_3716.3
# ordenada_HvsI_A/m_=_1297.0
# frecuencia_Hz_=_302138.9238881648

Tiempo_(s)	Campo_(V.s)	Magnetizacion_(V.s)	Campo_(kA/m)	Magnetizacion_(A/m)
0.000000e+00	-6.395306e-06	-3.527124e-08	-4.585062e+01	-2.310573e+03
1.000000e-08	-6.391998e-06	-3.526340e-08	-4.582690e+01	-2.309980e+03
2.000000e-08	-6.386567e-06	-3.524627e-08	-4.578796e+01	-2.309087e+03
3.000000e-08	-6.379223e-06	-3.522808e-08	-4.573531e+01	-2.307896e+03
4.000000e-08	-6.369807e-06	-3.520563e-08	-4.566781e+01	-2.306422e+03
5.000000e-08	-6.357941e-06	-3.517676e-08	-4.558273e+01	-2.304695e+03
6.000000e-08	-6.343664e-06	-3.514349e-08	-4.548038e+01	-2.302746e+03
7.000000e-08	-6.327145e-06	-3.509921e-08	-4.536194e+01	-2.300608e+03
8.000000e-08	-6.308562e-06	-3.508591e-08	-4.522871e+01	-2.298303e+03
9.000000e-08	-6.287828e-06	-3.514209e-08	-4.508007e+01	-2.295842e+03
1.000000e-07	-6.264712e-06	-3.507000e-08	-4.491434e+01	-2.293222e+03
1.100000e-07	-6.238940e-06	-3.494842e-08	-4.472957e+01	-2.290425e+03
1.200000e-07	-6.210762e-06	-3.490421e-08	-4.452755e+01	-2.287428e+03
1.300000e-07	-6.180748e-06	-3.479732e-08	-4.431236e+01	-2.284199e+03
1.400000e-07	-6.149239e-06	-3.465129e-08	-4.408647e+01	-2.280707e+03
1.500000e-07	-6.115956e-06	-3.478737e-08	-4.384785e+01	-2.276920e+03
1.600000e-07	-6.080590e-06	-3.473172e-08	-4.359429e+01	-2.272816e+03
1.700000e-07	-6.043375e-06	-3.452602e-08	-4.332748e+01	-2.268374e+03
1.800000e-07	-6.004171e-06	-3.460822e-08	-4.304641e+01	-2.263583e+03
1.900000e-07	-5.962546e-06	-3.441174e-08	-4.274798e+01	-2.258441e+03
2.000000e-07	-5.918669e-06	-3.429304e-08	-4.243341e+01	-2.252952e+03
2.100000e-07	-5.872707e-06	-3.431978e-08	-4.210389e+01	-2.247126e+03
2.200000e-07	-5.824366e-06	-3.417341e-08	-4.175731e+01	-2.240980e+03
2.300000e-07	-5.773574e-06	-3.409531e-08	-4.139317e+01	-2.234531e+03
2.400000e-07	-5.720314e-06	-3.398301e-08	-4.101132e+01	-2.227794e+03
2.500000e-07	-5.664887e-06	-3.385504e-08	-4.061394e+01	-2.220778e+03
2.600000e-07	-5.607368e-06	-3.375941e-08	-4.020156e+01	-2.213483e+03
2.700000e-07	-5.547679e-06	-3.362861e-08	-3.977363e+01	-2.205896e+03
2.800000e-07	-5.485980e-06	-3.353949e-08	-3.933128e+01	-2.197995e+03
2.900000e-07	-5.422373e-06	-3.339026e-08	-3.887526e+01	-2.189748e+03
3.000000e-07	-5.356671e-06	-3.326569e-08	-3.840421e+01	-2.181120e+03
3.100000e-07	-5.288819e-06	-3.311737e-08	-3.791775e+01	-2.172082e+03
3.200000e-07	-5.219012e-06	-3.294979e-08	-3.741727e+01	-2.162610e+03
3.300000e-07	-5.147443e-06	-3.282330e-08	-3.690417e+01	-2.152694e+03
3.400000e-07	-5.074031e-06	-3.264415e-08	-3.637785e+01	-2.142333e+03
3.500000e-07	-4.998487e-06	-3.250244e-08	-3.583624e+01	-2.131537e+03
3.600000e-07	-4.920825e-06	-3.233029e-08	-3.527945e+01	-2.120317e+03
3.700000e-07	-4.841120e-06	-3.214503e-08	-3.470801e+01	-2.108679e+03
3.800000e-07	-4.759589e-06	-3.196040e-08	-3.412348e+01	-2.096619e+03
3.900000e-07	-4.676489e-06	-3.175471e-08	-3.352770e+01	-2.084118e+03
4.000000e-07	-4.591966e-06	-3.156129e-08	-3.292172e+01	-2.071145e+03
4.100000e-07	-4.506045e-06	-3.135485e-08	-3.230572e+01	-2.057655e+03
4.200000e-07	-4.418790e-06	-3.115065e-08	-3.168015e+01	-2.043607e+03
4.300000e-07	-4.330031e-06	-3.092420e-08	-3.104380e+01	-2.028958e+03
4.400000e-07	-4.239585e-06	-3.068347e-08	-3.039536e+01	-2.013682e+03
4.500000e-07	-4.147600e-06	-3.044118e-08	-2.973587e+01	-1.997763e+03
4.600000e-07	-4.054173e-06	-3.018273e-08	-2.906606e+01	-1.981198e+03
4.700000e-07	-3.959364e-06	-2.992202e-08	-2.838634e+01	-1.963988e+03
4.800000e-07	-3.863169e-06	-2.965086e-08	-2.769667e+01	-1.946130e+03
4.900000e-07	-3.765461e-06	-2.937039e-08	-2.699617e+01	-1.927613e+03
5.000000e-07	-3.666246e-06	-2.907296e-08	-2.628485e+01	-1.908404e+03
5.100000e-07	-3.565671e-06	-2.876314e-08	-2.556378e+01	-1.888453e+03
5.200000e-07	-3.463889e-06	-2.844256e-08	-2.483407e+01	-1.867696e+03
5.300000e-07	-3.361028e-06	-2.810967e-08	-2.409661e+01	-1.846058e+03
5.400000e-07	-3.257013e-06	-2.776741e-08	-2.335089e+01	-1.823469e+03
5.500000e-07	-3.151666e-06	-2.740742e-08	-2.259561e+01	-1.799865e+03
5.600000e-07	-3.044951e-06	-2.703265e-08	-2.183053e+01	-1.775194e+03
5.700000e-07	-2.937022e-06	-2.663717e-08	-2.105674e+01	-1.749417e+03
5.800000e-07	-2.828017e-06	-2.622205e-08	-2.027524e+01	-1.722495e+03
5.900000e-07	-2.718050e-06	-2.579169e-08	-1.948684e+01	-1.694383e+03
6.000000e-07	-2.607184e-06	-2.534615e-08	-1.869199e+01	-1.665018e+03
6.100000e-07	-2.495362e-06	-2.488119e-08	-1.789029e+01	-1.634308e+03
6.200000e-07	-2.382619e-06	-2.438816e-08	-1.708199e+01	-1.602135e+03
6.300000e-07	-2.268842e-06	-2.386635e-08	-1.626628e+01	-1.568356e+03
6.400000e-07	-2.154026e-06	-2.331712e-08	-1.544311e+01	-1.532815e+03
6.500000e-07	-2.038291e-06	-2.274406e-08	-1.461336e+01	-1.495354e+03
6.600000e-07	-1.921739e-06	-2.214380e-08	-1.377775e+01	-1.455824e+03
6.700000e-07	-1.804534e-06	-2.151082e-08	-1.293746e+01	-1.414087e+03
6.800000e-07	-1.686761e-06	-2.084235e-08	-1.209309e+01	-1.370020e+03
6.900000e-07	-1.568444e-06	-2.013323e-08	-1.124483e+01	-1.323496e+03
7.000000e-07	-1.449600e-06	-1.938095e-08	-1.039279e+01	-1.274379e+03
7.100000e-07	-1.330248e-06	-1.858279e-08	-9.537103e+00	-1.222510e+03
7.200000e-07	-1.210426e-06	-1.774252e-08	-8.678049e+00	-1.167706e+03
7.300000e-07	-1.090242e-06	-1.685709e-08	-7.816402e+00	-1.109768e+03
7.400000e-07	-9.697220e-07	-1.591988e-08	-6.952342e+00	-1.048515e+03
7.500000e-07	-8.489112e-07	-1.492905e-08	-6.086199e+00	-9.838148e+02
7.600000e-07	-7.278397e-07	-1.388728e-08	-5.218187e+00	-9.156336e+02
7.700000e-07	-6.064734e-07	-1.279705e-08	-4.348061e+00	-8.440733e+02
7.800000e-07	-4.848829e-07	-1.166219e-08	-3.476328e+00	-7.693938e+02
7.900000e-07	-3.631518e-07	-1.048626e-08	-2.603587e+00	-6.920103e+02
8.000000e-07	-2.412912e-07	-9.273255e-09	-1.729917e+00	-6.124580e+02
8.100000e-07	-1.193616e-07	-8.034967e-09	-8.557533e-01	-5.313303e+02
8.200000e-07	2.627212e-09	-6.781676e-09	1.883558e-02	-4.491954e+02
8.300000e-07	1.247387e-07	-5.520867e-09	8.943037e-01	-3.665100e+02
8.400000e-07	2.468246e-07	-4.254295e-09	1.769589e+00	-2.835449e+02
8.500000e-07	3.688371e-07	-2.987385e-09	2.644347e+00	-2.003418e+02
8.600000e-07	4.907491e-07	-1.714674e-09	3.518385e+00	-1.167123e+02
8.700000e-07	6.124047e-07	-4.265801e-10	4.390585e+00	-3.228374e+01
8.800000e-07	7.338285e-07	8.804417e-10	5.261123e+00	5.341367e+01
8.900000e-07	8.550559e-07	2.212138e-09	6.130253e+00	1.408324e+02
9.000000e-07	9.760534e-07	3.572817e-09	6.997735e+00	2.302870e+02
9.100000e-07	1.096755e-06	4.966978e-09	7.863094e+00	3.218494e+02
9.200000e-07	1.217066e-06	6.391223e-09	8.725656e+00	4.152818e+02
9.300000e-07	1.336974e-06	7.835697e-09	9.585323e+00	5.100196e+02
9.400000e-07	1.456370e-06	9.287712e-09	1.044133e+01	6.052083e+02
9.500000e-07	1.575178e-06	1.073049e-08	1.129311e+01	6.997893e+02
9.600000e-07	1.693472e-06	1.214466e-08	1.214121e+01	7.926168e+02
9.700000e-07	1.811148e-06	1.351120e-08	1.298488e+01	8.825863e+02
9.800000e-07	1.928113e-06	1.481705e-08	1.382345e+01	9.687514e+02
9.900000e-07	2.044347e-06	1.605318e-08	1.465678e+01	1.050410e+03
1.000000e-06	2.159688e-06	1.721278e-08	1.548371e+01	1.127149e+03
1.010000e-06	2.273948e-06	1.829527e-08	1.630288e+01	1.198842e+03
1.020000e-06	2.387190e-06	1.930581e-08	1.711476e+01	1.265607e+03
1.030000e-06	2.499589e-06	2.024973e-08	1.792060e+01	1.327740e+03
1.040000e-06	2.611043e-06	2.113207e-08	1.871965e+01	1.385634e+03
1.050000e-06	2.721483e-06	2.195370e-08	1.951145e+01	1.439707e+03
1.060000e-06	2.830984e-06	2.272098e-08	2.029651e+01	1.490344e+03
1.070000e-06	2.939581e-06	2.343937e-08	2.107508e+01	1.537866e+03
1.080000e-06	3.047258e-06	2.411554e-08	2.184707e+01	1.582523e+03
1.090000e-06	3.153745e-06	2.474933e-08	2.261051e+01	1.624505e+03
1.100000e-06	3.259000e-06	2.534406e-08	2.336513e+01	1.663966e+03
1.110000e-06	3.363092e-06	2.590399e-08	2.411141e+01	1.701050e+03
1.120000e-06	3.465892e-06	2.643576e-08	2.484843e+01	1.735905e+03
1.130000e-06	3.567490e-06	2.693730e-08	2.557682e+01	1.768694e+03
1.140000e-06	3.668036e-06	2.740724e-08	2.629768e+01	1.799591e+03
1.150000e-06	3.767281e-06	2.785074e-08	2.700921e+01	1.828773e+03
1.160000e-06	3.865029e-06	2.827054e-08	2.771001e+01	1.856399e+03
1.170000e-06	3.961345e-06	2.866840e-08	2.840054e+01	1.882606e+03
1.180000e-06	4.056243e-06	2.904583e-08	2.908090e+01	1.907498e+03
1.190000e-06	4.149736e-06	2.940587e-08	2.975119e+01	1.931150e+03
1.200000e-06	4.241935e-06	2.974790e-08	3.041220e+01	1.953617e+03
1.210000e-06	4.332686e-06	3.007248e-08	3.106283e+01	1.974941e+03
1.220000e-06	4.421761e-06	3.037843e-08	3.170145e+01	1.995168e+03
1.230000e-06	4.509183e-06	3.067096e-08	3.232822e+01	2.014352e+03
1.240000e-06	4.594943e-06	3.094853e-08	3.294307e+01	2.032557e+03
1.250000e-06	4.679246e-06	3.121189e-08	3.354747e+01	2.049854e+03
1.260000e-06	4.762047e-06	3.146241e-08	3.414110e+01	2.066315e+03
1.270000e-06	4.843042e-06	3.170241e-08	3.472179e+01	2.082004e+03
1.280000e-06	4.922149e-06	3.193068e-08	3.528894e+01	2.096970e+03
1.290000e-06	4.999396e-06	3.214724e-08	3.584276e+01	2.111247e+03
1.300000e-06	5.074694e-06	3.235224e-08	3.638260e+01	2.124855e+03
1.310000e-06	5.147941e-06	3.254681e-08	3.690774e+01	2.137807e+03
1.320000e-06	5.219265e-06	3.273158e-08	3.741909e+01	2.150117e+03
1.330000e-06	5.288768e-06	3.290651e-08	3.791739e+01	2.161804e+03
1.340000e-06	5.356365e-06	3.307441e-08	3.840202e+01	2.172897e+03
1.350000e-06	5.421940e-06	3.323751e-08	3.887216e+01	2.183433e+03
1.360000e-06	5.485556e-06	3.339351e-08	3.932824e+01	2.193451e+03
1.370000e-06	5.547327e-06	3.354152e-08	3.977111e+01	2.202987e+03
1.380000e-06	5.607258e-06	3.368215e-08	4.020078e+01	2.212064e+03
1.390000e-06	5.665221e-06	3.381603e-08	4.061634e+01	2.220694e+03
1.400000e-06	5.721094e-06	3.394428e-08	4.101691e+01	2.228871e+03
1.410000e-06	5.774862e-06	3.406561e-08	4.140240e+01	2.236584e+03
1.420000e-06	5.826274e-06	3.417713e-08	4.177099e+01	2.243819e+03
1.430000e-06	5.875207e-06	3.427847e-08	4.212181e+01	2.250571e+03
1.440000e-06	5.921967e-06	3.437369e-08	4.245705e+01	2.256848e+03
1.450000e-06	5.966799e-06	3.446177e-08	4.277847e+01	2.262678e+03
1.460000e-06	6.009632e-06	3.454311e-08	4.308556e+01	2.268100e+03
1.470000e-06	6.050231e-06	3.462130e-08	4.337663e+01	2.273162e+03
1.480000e-06	6.088640e-06	3.469599e-08	4.365200e+01	2.277910e+03
1.490000e-06	6.125060e-06	3.476513e-08	4.391311e+01	2.282377e+03
1.500000e-06	6.159370e-06	3.482924e-08	4.415910e+01	2.286577e+03
1.510000e-06	6.191400e-06	3.489037e-08	4.438873e+01	2.290504e+03
1.520000e-06	6.221280e-06	3.494760e-08	4.460296e+01	2.294133e+03
1.530000e-06	6.249108e-06	3.499920e-08	4.480247e+01	2.297432e+03
1.540000e-06	6.274589e-06	3.504368e-08	4.498515e+01	2.300366e+03
1.550000e-06	6.297628e-06	3.508105e-08	4.515032e+01	2.302916e+03
1.560000e-06	6.318498e-06	3.511362e-08	4.529995e+01	2.305078e+03
1.570000e-06	6.337195e-06	3.514177e-08	4.543400e+01	2.306869e+03
1.580000e-06	6.353539e-06	3.516508e-08	4.555117e+01	2.308324e+03
1.590000e-06	6.367533e-06	3.518408e-08	4.565151e+01	2.309486e+03
1.600000e-06	6.379089e-06	3.519999e-08	4.573435e+01	2.310397e+03
1.610000e-06	6.388078e-06	3.521347e-08	4.579880e+01	2.311091e+03
1.620000e-06	6.394637e-06	3.522349e-08	4.584583e+01	2.311583e+03
1.630000e-06	6.399040e-06	3.523057e-08	4.587739e+01	2.311872e+03
1.640000e-06	6.401161e-06	3.523573e-08	4.589260e+01	2.311940e+03
1.650000e-06	6.400906e-06	3.523640e-08	4.589077e+01	2.311758e+03
1.660000e-06	6.398592e-06	3.521915e-08	4.587418e+01	2.311301e+03
1.670000e-06	6.394248e-06	3.520577e-08	4.584303e+01	2.310548e+03
1.680000e-06	6.387678e-06	3.519301e-08	4.579593e+01	2.309494e+03
1.690000e-06	6.378959e-06	3.517460e-08	4.573343e+01	2.308148e+03
1.700000e-06	6.368259e-06	3.515657e-08	4.565671e+01	2.306534e+03
1.710000e-06	6.355388e-06	3.513948e-08	4.556443e+01	2.304684e+03
1.720000e-06	6.340305e-06	3.513914e-08	4.545629e+01	2.302631e+03
1.730000e-06	6.323253e-06	3.506659e-08	4.533404e+01	2.300401e+03
1.740000e-06	6.304085e-06	3.492358e-08	4.519662e+01	2.298012e+03
1.750000e-06	6.281977e-06	3.493429e-08	4.503811e+01	2.295466e+03
1.760000e-06	6.256711e-06	3.494080e-08	4.485698e+01	2.292754e+03
1.770000e-06	6.229200e-06	3.487844e-08	4.465973e+01	2.289854e+03
1.780000e-06	6.199836e-06	3.498157e-08	4.444921e+01	2.286736e+03
1.790000e-06	6.168834e-06	3.486125e-08	4.422695e+01	2.283370e+03
1.800000e-06	6.136335e-06	3.466799e-08	4.399395e+01	2.279723e+03
1.810000e-06	6.101850e-06	3.481704e-08	4.374671e+01	2.275769e+03
1.820000e-06	6.065414e-06	3.462943e-08	4.348549e+01	2.271485e+03
1.830000e-06	6.026888e-06	3.455337e-08	4.320928e+01	2.266857e+03
1.840000e-06	5.985942e-06	3.463913e-08	4.291572e+01	2.261878e+03
1.850000e-06	5.942999e-06	3.432980e-08	4.260784e+01	2.256549e+03
1.860000e-06	5.897994e-06	3.433929e-08	4.228518e+01	2.250878e+03
1.870000e-06	5.850782e-06	3.423957e-08	4.194670e+01	2.244878e+03
1.880000e-06	5.801471e-06	3.408135e-08	4.159317e+01	2.238567e+03
1.890000e-06	5.749574e-06	3.411494e-08	4.122110e+01	2.231962e+03
1.900000e-06	5.695131e-06	3.388458e-08	4.083077e+01	2.225075e+03
1.910000e-06	5.638504e-06	3.388400e-08	4.042479e+01	2.217910e+03
1.920000e-06	5.579918e-06	3.375696e-08	4.000476e+01	2.210461e+03
1.930000e-06	5.519501e-06	3.354533e-08	3.957161e+01	2.202709e+03
1.940000e-06	5.456912e-06	3.351894e-08	3.912288e+01	2.194627e+03
1.950000e-06	5.392163e-06	3.330568e-08	3.865867e+01	2.186180e+03
1.960000e-06	5.325502e-06	3.326962e-08	3.818075e+01	2.177336e+03
1.970000e-06	5.256951e-06	3.307524e-08	3.768928e+01	2.168067e+03
1.980000e-06	5.186303e-06	3.290981e-08	3.718277e+01	2.158358e+03
1.990000e-06	5.113581e-06	3.282063e-08	3.666140e+01	2.148202e+03
2.000000e-06	5.039040e-06	3.258523e-08	3.612698e+01	2.137607e+03
2.010000e-06	4.962372e-06	3.247823e-08	3.557732e+01	2.126582e+03
2.020000e-06	4.883594e-06	3.225284e-08	3.501253e+01	2.115138e+03
2.030000e-06	4.803104e-06	3.212211e-08	3.443546e+01	2.103275e+03
2.040000e-06	4.720989e-06	3.194290e-08	3.384674e+01	2.090982e+03
2.050000e-06	4.637391e-06	3.171462e-08	3.324739e+01	2.078233e+03
2.060000e-06	4.552123e-06	3.153216e-08	3.263607e+01	2.064988e+03
2.070000e-06	4.465081e-06	3.128949e-08	3.201203e+01	2.051205e+03
2.080000e-06	4.376473e-06	3.110405e-08	3.137676e+01	2.036839e+03
2.090000e-06	4.286415e-06	3.084629e-08	3.073110e+01	2.021857e+03
2.100000e-06	4.195043e-06	3.063048e-08	3.007601e+01	2.006237e+03
2.110000e-06	4.102264e-06	3.038655e-08	2.941085e+01	1.989972e+03
2.120000e-06	4.007908e-06	3.012433e-08	2.873437e+01	1.973061e+03
2.130000e-06	3.912052e-06	2.986064e-08	2.804714e+01	1.955504e+03
2.140000e-06	3.814832e-06	2.957710e-08	2.735012e+01	1.937296e+03
2.150000e-06	3.716338e-06	2.930815e-08	2.664398e+01	1.918413e+03
2.160000e-06	3.616565e-06	2.899864e-08	2.592866e+01	1.898814e+03
2.170000e-06	3.515325e-06	2.869628e-08	2.520284e+01	1.878440e+03
2.180000e-06	3.412625e-06	2.836149e-08	2.446654e+01	1.857220e+03
2.190000e-06	3.308648e-06	2.802861e-08	2.372108e+01	1.835081e+03
2.200000e-06	3.203488e-06	2.767175e-08	2.296714e+01	1.811955e+03
2.210000e-06	3.097221e-06	2.730584e-08	2.220527e+01	1.787785e+03
2.220000e-06	2.989969e-06	2.692641e-08	2.143634e+01	1.762526e+03
2.230000e-06	2.881687e-06	2.653085e-08	2.066002e+01	1.736140e+03
2.240000e-06	2.772320e-06	2.611460e-08	1.987592e+01	1.708587e+03
2.250000e-06	2.661917e-06	2.567003e-08	1.908439e+01	1.679813e+03
2.260000e-06	2.550418e-06	2.521244e-08	1.828501e+01	1.649740e+03
2.270000e-06	2.437900e-06	2.472928e-08	1.747833e+01	1.618263e+03
2.280000e-06	2.324462e-06	2.423152e-08	1.666504e+01	1.585249e+03
2.290000e-06	2.210152e-06	2.369900e-08	1.584550e+01	1.550546e+03
2.300000e-06	2.095050e-06	2.314002e-08	1.502029e+01	1.513995e+03
2.310000e-06	1.979128e-06	2.254966e-08	1.418920e+01	1.475443e+03
2.320000e-06	1.862403e-06	2.193098e-08	1.335234e+01	1.434747e+03
2.330000e-06	1.744904e-06	2.127974e-08	1.250995e+01	1.391777e+03
2.340000e-06	1.626685e-06	2.059436e-08	1.166238e+01	1.346409e+03
2.350000e-06	1.507731e-06	1.987072e-08	1.080956e+01	1.298514e+03
2.360000e-06	1.388159e-06	1.910101e-08	9.952288e+00	1.247945e+03
2.370000e-06	1.268129e-06	1.828336e-08	9.091747e+00	1.194527e+03
2.380000e-06	1.147711e-06	1.741649e-08	8.228417e+00	1.138069e+03
2.390000e-06	1.027010e-06	1.650671e-08	7.363063e+00	1.078375e+03
2.400000e-06	9.060135e-07	1.554735e-08	6.495589e+00	1.015286e+03
2.410000e-06	7.847473e-07	1.453754e-08	5.626181e+00	9.487176e+02
2.420000e-06	6.632827e-07	1.347400e-08	4.755351e+00	8.787035e+02
2.430000e-06	5.416326e-07	1.235802e-08	3.883190e+00	8.054294e+02
2.440000e-06	4.198088e-07	1.119319e-08	3.009784e+00	7.292408e+02
2.450000e-06	2.978340e-07	9.989175e-09	2.135296e+00	6.506233e+02
2.460000e-06	1.757078e-07	8.759619e-09	1.259722e+00	5.701526e+02
2.470000e-06	5.350729e-08	7.511434e-09	3.836161e-01	4.884197e+02
2.480000e-06	-6.873504e-08	6.252577e-09	-4.927902e-01	4.059433e+02
2.490000e-06	-1.909923e-07	4.985481e-09	-1.369303e+00	3.230883e+02
2.500000e-06	-3.131323e-07	3.716700e-09	-2.244976e+00	2.400056e+02
2.510000e-06	-4.351735e-07	2.445338e-09	-3.119941e+00	1.566107e+02
2.520000e-06	-5.571429e-07	1.162848e-09	-3.994391e+00	7.260795e+01
2.530000e-06	-6.789107e-07	-1.356716e-10	-4.867394e+00	-1.244031e+01
2.540000e-06	-8.004458e-07	-1.456382e-09	-5.738730e+00	-9.900980e+01
2.550000e-06	-9.217651e-07	-2.803718e-09	-6.608519e+00	-1.874935e+02
2.560000e-06	-1.042818e-06	-4.184355e-09	-7.476399e+00	-2.780872e+02
2.570000e-06	-1.163515e-06	-5.599332e-09	-8.341723e+00	-3.707022e+02
2.580000e-06	-1.283841e-06	-7.038999e-09	-9.204392e+00	-4.649241e+02
2.590000e-06	-1.403732e-06	-8.491326e-09	-1.006394e+01	-5.600253e+02
2.600000e-06	-1.523060e-06	-9.943784e-09	-1.091945e+01	-6.550288e+02
2.610000e-06	-1.641683e-06	-1.138134e-08	-1.176991e+01	-7.488134e+02
2.620000e-06	-1.759471e-06	-1.278399e-08	-1.261438e+01	-8.402397e+02
2.630000e-06	-1.876557e-06	-1.413350e-08	-1.345382e+01	-9.282750e+02
2.640000e-06	-1.992953e-06	-1.541804e-08	-1.428831e+01	-1.012095e+03
2.650000e-06	-2.108479e-06	-1.662883e-08	-1.511657e+01	-1.091151e+03
2.660000e-06	-2.223127e-06	-1.776184e-08	-1.593853e+01	-1.165186e+03
2.670000e-06	-2.336778e-06	-1.882003e-08	-1.675334e+01	-1.234211e+03
2.680000e-06	-2.449313e-06	-1.980631e-08	-1.756015e+01	-1.298450e+03
2.690000e-06	-2.560808e-06	-2.072563e-08	-1.835951e+01	-1.358260e+03
2.700000e-06	-2.671308e-06	-2.158680e-08	-1.915173e+01	-1.414057e+03
2.710000e-06	-2.780805e-06	-2.239000e-08	-1.993675e+01	-1.466245e+03
2.720000e-06	-2.889445e-06	-2.314046e-08	-2.071564e+01	-1.515178e+03
2.730000e-06	-2.997226e-06	-2.384540e-08	-2.148837e+01	-1.561139e+03
2.740000e-06	-3.104017e-06	-2.450629e-08	-2.225400e+01	-1.604342e+03
2.750000e-06	-3.209742e-06	-2.512571e-08	-2.301198e+01	-1.644956e+03
2.760000e-06	-3.314374e-06	-2.571012e-08	-2.376213e+01	-1.683125e+03
2.770000e-06	-3.417828e-06	-2.626410e-08	-2.450384e+01	-1.718996e+03
2.780000e-06	-3.519875e-06	-2.678146e-08	-2.523546e+01	-1.752723e+03
2.790000e-06	-3.620634e-06	-2.726402e-08	-2.595784e+01	-1.784477e+03
2.800000e-06	-3.720147e-06	-2.772087e-08	-2.667129e+01	-1.814434e+03
2.810000e-06	-3.818369e-06	-2.815558e-08	-2.737548e+01	-1.842764e+03
2.820000e-06	-3.915423e-06	-2.856799e-08	-2.807130e+01	-1.869615e+03
2.830000e-06	-4.011241e-06	-2.896032e-08	-2.875826e+01	-1.895106e+03
2.840000e-06	-4.105573e-06	-2.933309e-08	-2.943457e+01	-1.919327e+03
2.850000e-06	-4.198386e-06	-2.968438e-08	-3.009998e+01	-1.942338e+03
2.860000e-06	-4.289664e-06	-3.001537e-08	-3.075440e+01	-1.964187e+03
2.870000e-06	-4.379361e-06	-3.032823e-08	-3.139747e+01	-1.984918e+03
2.880000e-06	-4.467567e-06	-3.062649e-08	-3.202985e+01	-2.004579e+03
2.890000e-06	-4.554129e-06	-3.091290e-08	-3.265045e+01	-2.023230e+03
2.900000e-06	-4.638962e-06	-3.118691e-08	-3.325866e+01	-2.040939e+03
2.910000e-06	-4.722145e-06	-3.144626e-08	-3.385503e+01	-2.057780e+03
2.920000e-06	-4.803750e-06	-3.169155e-08	-3.444009e+01	-2.073821e+03
2.930000e-06	-4.883692e-06	-3.192476e-08	-3.501323e+01	-2.089117e+03
2.940000e-06	-4.961679e-06	-3.214891e-08	-3.557235e+01	-2.103711e+03
