# Temperatura_=_49.82
# Concentracion g/m^3_=_28200.0
# C_Vs_to_Am_M_A/Vsm_=_65563218390.804596
# pendiente_HvsI_1/m_=_3716.3
# ordenada_HvsI_A/m_=_1297.0
# frecuencia_Hz_=_302139.0404484588

Tiempo_(s)	Campo_(V.s)	Magnetizacion_(V.s)	Campo_(kA/m)	Magnetizacion_(A/m)
0.000000e+00	-6.422556e-06	-3.481132e-08	-4.585734e+01	-2.278002e+03
1.000000e-08	-6.420054e-06	-3.481166e-08	-4.583947e+01	-2.277489e+03
2.000000e-08	-6.415356e-06	-3.479933e-08	-4.580593e+01	-2.276767e+03
3.000000e-08	-6.408675e-06	-3.478464e-08	-4.575823e+01	-2.275828e+03
4.000000e-08	-6.399933e-06	-3.476713e-08	-4.569581e+01	-2.274651e+03
5.000000e-08	-6.388875e-06	-3.473955e-08	-4.561686e+01	-2.273212e+03
6.000000e-08	-6.375354e-06	-3.470827e-08	-4.552031e+01	-2.271489e+03
7.000000e-08	-6.359509e-06	-3.466313e-08	-4.540718e+01	-2.269472e+03
8.000000e-08	-6.341613e-06	-3.461513e-08	-4.527940e+01	-2.267171e+03
9.000000e-08	-6.321676e-06	-3.468517e-08	-4.513705e+01	-2.264621e+03
1.000000e-07	-6.299424e-06	-3.467042e-08	-4.497817e+01	-2.261881e+03
1.100000e-07	-6.274504e-06	-3.453840e-08	-4.480024e+01	-2.259027e+03
1.200000e-07	-6.247099e-06	-3.448207e-08	-4.460456e+01	-2.256137e+03
1.300000e-07	-6.217694e-06	-3.444866e-08	-4.439461e+01	-2.253275e+03
1.400000e-07	-6.186590e-06	-3.425463e-08	-4.417253e+01	-2.250473e+03
1.500000e-07	-6.153786e-06	-3.426399e-08	-4.393831e+01	-2.247717e+03
1.600000e-07	-6.118979e-06	-3.438883e-08	-4.368979e+01	-2.244946e+03
1.700000e-07	-6.082271e-06	-3.410700e-08	-4.342768e+01	-2.242052e+03
1.800000e-07	-6.043618e-06	-3.414412e-08	-4.315170e+01	-2.238900e+03
1.900000e-07	-6.002556e-06	-3.412247e-08	-4.285852e+01	-2.235349e+03
2.000000e-07	-5.959251e-06	-3.388686e-08	-4.254932e+01	-2.231277e+03
2.100000e-07	-5.913899e-06	-3.394140e-08	-4.222551e+01	-2.226604e+03
2.200000e-07	-5.866292e-06	-3.383836e-08	-4.188559e+01	-2.221303e+03
2.300000e-07	-5.816229e-06	-3.374277e-08	-4.152814e+01	-2.215404e+03
2.400000e-07	-5.763577e-06	-3.365582e-08	-4.115220e+01	-2.208984e+03
2.500000e-07	-5.708634e-06	-3.348815e-08	-4.075990e+01	-2.202145e+03
2.600000e-07	-5.651576e-06	-3.342566e-08	-4.035251e+01	-2.194993e+03
2.700000e-07	-5.592357e-06	-3.330558e-08	-3.992968e+01	-2.187608e+03
2.800000e-07	-5.531158e-06	-3.320342e-08	-3.949272e+01	-2.180034e+03
2.900000e-07	-5.467983e-06	-3.309448e-08	-3.904165e+01	-2.172264e+03
3.000000e-07	-5.402721e-06	-3.294607e-08	-3.857567e+01	-2.164253e+03
3.100000e-07	-5.335383e-06	-3.280269e-08	-3.809487e+01	-2.155926e+03
3.200000e-07	-5.266055e-06	-3.265463e-08	-3.759986e+01	-2.147202e+03
3.300000e-07	-5.194923e-06	-3.258255e-08	-3.709198e+01	-2.138012e+03
3.400000e-07	-5.121920e-06	-3.240522e-08	-3.657074e+01	-2.128315e+03
3.500000e-07	-5.046845e-06	-3.222871e-08	-3.603470e+01	-2.118100e+03
3.600000e-07	-4.969627e-06	-3.208650e-08	-3.548336e+01	-2.107390e+03
3.700000e-07	-4.890303e-06	-3.188804e-08	-3.491698e+01	-2.096221e+03
3.800000e-07	-4.809098e-06	-3.172835e-08	-3.433718e+01	-2.084630e+03
3.900000e-07	-4.726253e-06	-3.155885e-08	-3.374566e+01	-2.072642e+03
4.000000e-07	-4.641967e-06	-3.138269e-08	-3.314385e+01	-2.060252e+03
4.100000e-07	-4.556333e-06	-3.116812e-08	-3.253242e+01	-2.047427e+03
4.200000e-07	-4.469263e-06	-3.095336e-08	-3.191074e+01	-2.034114e+03
4.300000e-07	-4.380684e-06	-3.074996e-08	-3.127828e+01	-2.020245e+03
4.400000e-07	-4.290498e-06	-3.051836e-08	-3.063435e+01	-2.005758e+03
4.500000e-07	-4.198664e-06	-3.029484e-08	-2.997865e+01	-1.990604e+03
4.600000e-07	-4.105314e-06	-3.004895e-08	-2.931213e+01	-1.974758e+03
4.700000e-07	-4.010613e-06	-2.979415e-08	-2.863596e+01	-1.958216e+03
4.800000e-07	-3.914560e-06	-2.952417e-08	-2.795013e+01	-1.940988e+03
4.900000e-07	-3.816979e-06	-2.926030e-08	-2.725340e+01	-1.923084e+03
5.000000e-07	-3.717855e-06	-2.898874e-08	-2.654565e+01	-1.904502e+03
5.100000e-07	-3.617361e-06	-2.869198e-08	-2.582812e+01	-1.885219e+03
5.200000e-07	-3.515626e-06	-2.838156e-08	-2.510172e+01	-1.865183e+03
5.300000e-07	-3.412780e-06	-2.805424e-08	-2.436740e+01	-1.844326e+03
5.400000e-07	-3.308722e-06	-2.771911e-08	-2.362442e+01	-1.822561e+03
5.500000e-07	-3.203313e-06	-2.736521e-08	-2.287180e+01	-1.799804e+03
5.600000e-07	-3.096568e-06	-2.700799e-08	-2.210963e+01	-1.775980e+03
5.700000e-07	-2.988610e-06	-2.663048e-08	-2.133881e+01	-1.751028e+03
5.800000e-07	-2.879604e-06	-2.623089e-08	-2.056050e+01	-1.724900e+03
5.900000e-07	-2.769644e-06	-2.581382e-08	-1.977538e+01	-1.697555e+03
6.000000e-07	-2.658799e-06	-2.538268e-08	-1.898395e+01	-1.668945e+03
6.100000e-07	-2.546905e-06	-2.493004e-08	-1.818502e+01	-1.639002e+03
6.200000e-07	-2.433929e-06	-2.444826e-08	-1.737836e+01	-1.607633e+03
6.300000e-07	-2.319948e-06	-2.394086e-08	-1.656453e+01	-1.574713e+03
6.400000e-07	-2.204880e-06	-2.340353e-08	-1.574294e+01	-1.540095e+03
6.500000e-07	-2.088821e-06	-2.284254e-08	-1.491427e+01	-1.503616e+03
6.600000e-07	-1.972022e-06	-2.225583e-08	-1.408033e+01	-1.465112e+03
6.700000e-07	-1.854585e-06	-2.164043e-08	-1.324182e+01	-1.424425e+03
6.800000e-07	-1.736539e-06	-2.098740e-08	-1.239897e+01	-1.381412e+03
6.900000e-07	-1.617987e-06	-2.029499e-08	-1.155250e+01	-1.335938e+03
7.000000e-07	-1.498972e-06	-1.956259e-08	-1.070273e+01	-1.287869e+03
7.100000e-07	-1.379400e-06	-1.878575e-08	-9.848976e+00	-1.237061e+03
7.200000e-07	-1.259276e-06	-1.796517e-08	-8.991284e+00	-1.183360e+03
7.300000e-07	-1.138712e-06	-1.709938e-08	-8.130453e+00	-1.126599e+03
7.400000e-07	-1.017768e-06	-1.618280e-08	-7.266912e+00	-1.066623e+03
7.500000e-07	-8.964598e-07	-1.521311e-08	-6.400763e+00	-1.003319e+03
7.600000e-07	-7.748261e-07	-1.419808e-08	-5.532293e+00	-9.366547e+02
7.700000e-07	-6.529676e-07	-1.313595e-08	-4.662218e+00	-8.667187e+02
7.800000e-07	-5.309275e-07	-1.202871e-08	-3.790846e+00	-7.937489e+02
7.900000e-07	-4.087151e-07	-1.087850e-08	-2.918244e+00	-7.181382e+02
8.000000e-07	-2.863581e-07	-9.691245e-09	-2.044610e+00	-6.404127e+02
8.100000e-07	-1.638941e-07	-8.481176e-09	-1.170211e+00	-5.611789e+02
8.200000e-07	-4.131419e-08	-7.260010e-09	-2.949852e-01	-4.810487e+02
8.300000e-07	8.133738e-08	-6.037997e-09	5.807526e-01	-4.005518e+02
8.400000e-07	2.039521e-07	-4.817904e-09	1.456227e+00	-3.200541e+02
8.500000e-07	3.265249e-07	-3.600393e-09	2.331402e+00	-2.396979e+02
8.600000e-07	4.489916e-07	-2.379728e-09	3.205820e+00	-1.593803e+02
8.700000e-07	5.712578e-07	-1.150444e-09	4.078806e+00	-7.877538e+01
8.800000e-07	6.933469e-07	9.168106e-11	4.950528e+00	2.598627e+00
8.900000e-07	8.152716e-07	1.352170e-09	5.821076e+00	8.527809e+01
9.000000e-07	9.369920e-07	2.636361e-09	6.690164e+00	1.697356e+02
9.100000e-07	1.058427e-06	3.951298e-09	7.557215e+00	2.562657e+02
9.200000e-07	1.179493e-06	5.299900e-09	8.421631e+00	3.448962e+02
9.300000e-07	1.300080e-06	6.676142e-09	9.282628e+00	4.353403e+02
9.400000e-07	1.420064e-06	8.071201e-09	1.013932e+01	5.270004e+02
9.500000e-07	1.539457e-06	9.472795e-09	1.099179e+01	6.190201e+02
9.600000e-07	1.658293e-06	1.086504e-08	1.184029e+01	7.103758e+02
9.700000e-07	1.776615e-06	1.223021e-08	1.268511e+01	7.999910e+02
9.800000e-07	1.894334e-06	1.355157e-08	1.352563e+01	8.868526e+02
9.900000e-07	2.011310e-06	1.481718e-08	1.436084e+01	9.701102e+02
1.000000e-06	2.127519e-06	1.601492e-08	1.519058e+01	1.049144e+03
1.010000e-06	2.242763e-06	1.714142e-08	1.601343e+01	1.123594e+03
1.020000e-06	2.356962e-06	1.819595e-08	1.682881e+01	1.193348e+03
1.030000e-06	2.470251e-06	1.918400e-08	1.763771e+01	1.258506e+03
1.040000e-06	2.582515e-06	2.010896e-08	1.843927e+01	1.319312e+03
1.050000e-06	2.693680e-06	2.097088e-08	1.923300e+01	1.376094e+03
1.060000e-06	2.803910e-06	2.177867e-08	2.002004e+01	1.429204e+03
1.070000e-06	2.913238e-06	2.253495e-08	2.080065e+01	1.478972e+03
1.080000e-06	3.021688e-06	2.324525e-08	2.157499e+01	1.525684e+03
1.090000e-06	3.129132e-06	2.391062e-08	2.234214e+01	1.569574e+03
1.100000e-06	3.235390e-06	2.453423e-08	2.310083e+01	1.610834e+03
1.110000e-06	3.340396e-06	2.511907e-08	2.385058e+01	1.649628e+03
1.120000e-06	3.444059e-06	2.566988e-08	2.459074e+01	1.686107e+03
1.130000e-06	3.546476e-06	2.618987e-08	2.532200e+01	1.720421e+03
1.140000e-06	3.647784e-06	2.668061e-08	2.604534e+01	1.752725e+03
1.150000e-06	3.747919e-06	2.714317e-08	2.676031e+01	1.783174e+03
1.160000e-06	3.846711e-06	2.758151e-08	2.746569e+01	1.811922e+03
1.170000e-06	3.944003e-06	2.799614e-08	2.816036e+01	1.839110e+03
1.180000e-06	4.039713e-06	2.838751e-08	2.884373e+01	1.864863e+03
1.190000e-06	4.133970e-06	2.875846e-08	2.951673e+01	1.889284e+03
1.200000e-06	4.226933e-06	2.910921e-08	3.018049e+01	1.912460e+03
1.210000e-06	4.318591e-06	2.944161e-08	3.083493e+01	1.934458e+03
1.220000e-06	4.408756e-06	2.975732e-08	3.147872e+01	1.955339e+03
1.230000e-06	4.497147e-06	3.005866e-08	3.210983e+01	1.975156e+03
1.240000e-06	4.583774e-06	3.034390e-08	3.272835e+01	1.993962e+03
1.250000e-06	4.668845e-06	3.061315e-08	3.333576e+01	2.011810e+03
1.260000e-06	4.752452e-06	3.086988e-08	3.393272e+01	2.028753e+03
1.270000e-06	4.834430e-06	3.111535e-08	3.451805e+01	2.044844e+03
1.280000e-06	4.914538e-06	3.134750e-08	3.509002e+01	2.060130e+03
1.290000e-06	4.992754e-06	3.156805e-08	3.564849e+01	2.074659e+03
1.300000e-06	5.069128e-06	3.177571e-08	3.619380e+01	2.088473e+03
1.310000e-06	5.143508e-06	3.197300e-08	3.672488e+01	2.101610e+03
1.320000e-06	5.215810e-06	3.215945e-08	3.724112e+01	2.114109e+03
1.330000e-06	5.286199e-06	3.233701e-08	3.774370e+01	2.126002e+03
1.340000e-06	5.354799e-06	3.250869e-08	3.823351e+01	2.137321e+03
1.350000e-06	5.421519e-06	3.267550e-08	3.870989e+01	2.148094e+03
1.360000e-06	5.486176e-06	3.283444e-08	3.917154e+01	2.158340e+03
1.370000e-06	5.548832e-06	3.298444e-08	3.961891e+01	2.168073e+03
1.380000e-06	5.609650e-06	3.312690e-08	4.005315e+01	2.177300e+03
1.390000e-06	5.668607e-06	3.326040e-08	4.047410e+01	2.186023e+03
1.400000e-06	5.725493e-06	3.338665e-08	4.088027e+01	2.194242e+03
1.410000e-06	5.780270e-06	3.350795e-08	4.127139e+01	2.201962e+03
1.420000e-06	5.832868e-06	3.362035e-08	4.164694e+01	2.209192e+03
1.430000e-06	5.882952e-06	3.372275e-08	4.200454e+01	2.215950e+03
1.440000e-06	5.930581e-06	3.381886e-08	4.234462e+01	2.222265e+03
1.450000e-06	5.976170e-06	3.390865e-08	4.267012e+01	2.228169e+03
1.460000e-06	6.019901e-06	3.399169e-08	4.298236e+01	2.233697e+03
1.470000e-06	6.061447e-06	3.406905e-08	4.327900e+01	2.238880e+03
1.480000e-06	6.100687e-06	3.414247e-08	4.355918e+01	2.243742e+03
1.490000e-06	6.137885e-06	3.421093e-08	4.382477e+01	2.248295e+03
1.500000e-06	6.173059e-06	3.427459e-08	4.407592e+01	2.252539e+03
1.510000e-06	6.205981e-06	3.433491e-08	4.431098e+01	2.256469e+03
1.520000e-06	6.236608e-06	3.439149e-08	4.452966e+01	2.260072e+03
1.530000e-06	6.265188e-06	3.444264e-08	4.473372e+01	2.263338e+03
1.540000e-06	6.291569e-06	3.448895e-08	4.492208e+01	2.266259e+03
1.550000e-06	6.315491e-06	3.452988e-08	4.509289e+01	2.268835e+03
1.560000e-06	6.337111e-06	3.456428e-08	4.524726e+01	2.271071e+03
1.570000e-06	6.356691e-06	3.459129e-08	4.538706e+01	2.272980e+03
1.580000e-06	6.374030e-06	3.461275e-08	4.551086e+01	2.274576e+03
1.590000e-06	6.388929e-06	3.463109e-08	4.561724e+01	2.275875e+03
1.600000e-06	6.401445e-06	3.464631e-08	4.570661e+01	2.276890e+03
1.610000e-06	6.411384e-06	3.465920e-08	4.577757e+01	2.277636e+03
1.620000e-06	6.418790e-06	3.466960e-08	4.583045e+01	2.278126e+03
1.630000e-06	6.423954e-06	3.467770e-08	4.586731e+01	2.278371e+03
1.640000e-06	6.426868e-06	3.468226e-08	4.588813e+01	2.278386e+03
1.650000e-06	6.427495e-06	3.468659e-08	4.589260e+01	2.278182e+03
1.660000e-06	6.425922e-06	3.467430e-08	4.588137e+01	2.277771e+03
1.670000e-06	6.422357e-06	3.465739e-08	4.585592e+01	2.277154e+03
1.680000e-06	6.416631e-06	3.464494e-08	4.581503e+01	2.276326e+03
1.690000e-06	6.408670e-06	3.462822e-08	4.575819e+01	2.275271e+03
1.700000e-06	6.398688e-06	3.460954e-08	4.568692e+01	2.273966e+03
1.710000e-06	6.386637e-06	3.459178e-08	4.560087e+01	2.272387e+03
1.720000e-06	6.372293e-06	3.459150e-08	4.549846e+01	2.270518e+03
1.730000e-06	6.355759e-06	3.457370e-08	4.538040e+01	2.268356e+03
1.740000e-06	6.337280e-06	3.439634e-08	4.524846e+01	2.265924e+03
1.750000e-06	6.316134e-06	3.435727e-08	4.509748e+01	2.263271e+03
1.760000e-06	6.291738e-06	3.441239e-08	4.492329e+01	2.260463e+03
1.770000e-06	6.264788e-06	3.433823e-08	4.473086e+01	2.257582e+03
1.780000e-06	6.235866e-06	3.438411e-08	4.452436e+01	2.254699e+03
1.790000e-06	6.205172e-06	3.442613e-08	4.430521e+01	2.251866e+03
1.800000e-06	6.173167e-06	3.411146e-08	4.407669e+01	2.249092e+03
1.810000e-06	6.139333e-06	3.420965e-08	4.383511e+01	2.246339e+03
1.820000e-06	6.103385e-06	3.427465e-08	4.357844e+01	2.243522e+03
1.830000e-06	6.065453e-06	3.408067e-08	4.330760e+01	2.240517e+03
1.840000e-06	6.025094e-06	3.432411e-08	4.301944e+01	2.237183e+03
1.850000e-06	5.982576e-06	3.412108e-08	4.271586e+01	2.233385e+03
1.860000e-06	5.938110e-06	3.399574e-08	4.239837e+01	2.229019e+03
1.870000e-06	5.891433e-06	3.402819e-08	4.206509e+01	2.224031e+03
1.880000e-06	5.842661e-06	3.375893e-08	4.171686e+01	2.218424e+03
1.890000e-06	5.791535e-06	3.385475e-08	4.135182e+01	2.212253e+03
1.900000e-06	5.737782e-06	3.370576e-08	4.096802e+01	2.205610e+03
1.910000e-06	5.681747e-06	3.354870e-08	4.056793e+01	2.198603e+03
1.920000e-06	5.623620e-06	3.356967e-08	4.015290e+01	2.191326e+03
1.930000e-06	5.563603e-06	3.328519e-08	3.972437e+01	2.183844e+03
1.940000e-06	5.501527e-06	3.328251e-08	3.928115e+01	2.176175e+03
1.950000e-06	5.437298e-06	3.312765e-08	3.882255e+01	2.168293e+03
1.960000e-06	5.371098e-06	3.302931e-08	3.834988e+01	2.160134e+03
1.970000e-06	5.302918e-06	3.291797e-08	3.786307e+01	2.151618e+03
1.980000e-06	5.232641e-06	3.267920e-08	3.736129e+01	2.142669e+03
1.990000e-06	5.160228e-06	3.263850e-08	3.684426e+01	2.133228e+03
2.000000e-06	5.086000e-06	3.240574e-08	3.631426e+01	2.123271e+03
2.010000e-06	5.009868e-06	3.230636e-08	3.577068e+01	2.112805e+03
2.020000e-06	4.931658e-06	3.214208e-08	3.521226e+01	2.101860e+03
2.030000e-06	4.851534e-06	3.193231e-08	3.464017e+01	2.090476e+03
2.040000e-06	4.769680e-06	3.178704e-08	3.405572e+01	2.078685e+03
2.050000e-06	4.686346e-06	3.155046e-08	3.346072e+01	2.066498e+03
2.060000e-06	4.601399e-06	3.141144e-08	3.285419e+01	2.053897e+03
2.070000e-06	4.514617e-06	3.118443e-08	3.223457e+01	2.040836e+03
2.080000e-06	4.426201e-06	3.099903e-08	3.160327e+01	2.027253e+03
2.090000e-06	4.336327e-06	3.077005e-08	3.096157e+01	2.013082e+03
2.100000e-06	4.245111e-06	3.052787e-08	3.031028e+01	1.998266e+03
2.110000e-06	4.152501e-06	3.031599e-08	2.964905e+01	1.982768e+03
2.120000e-06	4.058364e-06	3.006146e-08	2.897690e+01	1.966574e+03
2.130000e-06	3.962703e-06	2.982355e-08	2.829388e+01	1.949687e+03
2.140000e-06	3.865596e-06	2.953125e-08	2.760053e+01	1.932121e+03
2.150000e-06	3.767186e-06	2.926520e-08	2.689788e+01	1.913879e+03
2.160000e-06	3.667478e-06	2.897130e-08	2.618596e+01	1.894951e+03
2.170000e-06	3.566342e-06	2.867747e-08	2.546384e+01	1.875299e+03
2.180000e-06	3.463767e-06	2.836861e-08	2.473145e+01	1.854862e+03
2.190000e-06	3.359823e-06	2.804847e-08	2.398929e+01	1.833562e+03
2.200000e-06	3.254613e-06	2.770407e-08	2.323808e+01	1.811312e+03
2.210000e-06	3.148333e-06	2.733691e-08	2.247924e+01	1.788030e+03
2.220000e-06	3.041042e-06	2.697214e-08	2.171317e+01	1.763648e+03
2.230000e-06	2.932632e-06	2.658840e-08	2.093913e+01	1.738114e+03
2.240000e-06	2.823169e-06	2.618640e-08	2.015755e+01	1.711383e+03
2.250000e-06	2.712725e-06	2.575219e-08	1.936897e+01	1.683412e+03
2.260000e-06	2.601153e-06	2.530916e-08	1.857235e+01	1.654145e+03
2.270000e-06	2.488522e-06	2.484034e-08	1.776816e+01	1.623503e+03
2.280000e-06	2.374909e-06	2.435565e-08	1.695696e+01	1.591376e+03
2.290000e-06	2.260368e-06	2.384174e-08	1.613913e+01	1.557627e+03
2.300000e-06	2.145036e-06	2.329876e-08	1.531566e+01	1.522099e+03
2.310000e-06	2.028847e-06	2.272417e-08	1.448605e+01	1.484627e+03
2.320000e-06	1.911781e-06	2.211837e-08	1.365020e+01	1.445050e+03
2.330000e-06	1.793991e-06	2.148425e-08	1.280917e+01	1.403218e+03
2.340000e-06	1.675537e-06	2.081534e-08	1.196341e+01	1.358991e+03
2.350000e-06	1.556379e-06	2.010744e-08	1.111261e+01	1.312236e+03
2.360000e-06	1.436588e-06	1.935136e-08	1.025730e+01	1.262817e+03
2.370000e-06	1.316254e-06	1.854995e-08	9.398113e+00	1.210583e+03
2.380000e-06	1.195539e-06	1.770287e-08	8.536203e+00	1.155372e+03
2.390000e-06	1.074560e-06	1.681627e-08	7.672403e+00	1.097021e+03
2.400000e-06	9.532784e-07	1.587875e-08	6.806450e+00	1.035392e+03
2.410000e-06	8.316653e-07	1.488697e-08	5.938127e+00	9.704047e+02
2.420000e-06	7.097558e-07	1.384451e-08	5.067688e+00	9.020845e+02
2.430000e-06	5.876349e-07	1.275194e-08	4.195740e+00	8.305920e+02
2.440000e-06	4.653481e-07	1.161512e-08	3.322606e+00	7.562434e+02
2.450000e-06	3.429471e-07	1.044154e-08	2.448658e+00	6.795030e+02
2.460000e-06	2.204490e-07	9.242338e-09	1.574016e+00	6.009452e+02
2.470000e-06	9.783325e-08	8.024354e-09	6.985338e-01	5.211898e+02
2.480000e-06	-2.485395e-08	6.794120e-09	-1.774583e-01	4.408185e+02
2.490000e-06	-1.475675e-07	5.562130e-09	-1.053638e+00	3.602884e+02
2.500000e-06	-2.701915e-07	4.333313e-09	-1.929180e+00	2.798590e+02
2.510000e-06	-3.927015e-07	3.106233e-09	-2.803906e+00	1.995500e+02
2.520000e-06	-5.151736e-07	1.874876e-09	-3.678362e+00	1.191413e+02
2.530000e-06	-6.375222e-07	6.318886e-10	-4.551937e+00	3.821811e+01
2.540000e-06	-7.596630e-07	-6.257792e-10	-5.424027e+00	-4.374273e+01
2.550000e-06	-8.815384e-07	-1.901766e-09	-6.294223e+00	-1.272608e+02
2.560000e-06	-1.003101e-06	-3.204042e-09	-7.162185e+00	-2.127328e+02
2.570000e-06	-1.124352e-06	-4.538633e-09	-8.027924e+00	-3.003287e+02
2.580000e-06	-1.245236e-06	-5.902812e-09	-8.891043e+00	-3.899220e+02
2.590000e-06	-1.365765e-06	-7.292736e-09	-9.751620e+00	-4.810667e+02
2.600000e-06	-1.485826e-06	-8.699595e-09	-1.060887e+01	-5.730266e+02
2.610000e-06	-1.605206e-06	-1.010761e-08	-1.146124e+01	-6.648484e+02
2.620000e-06	-1.723814e-06	-1.149687e-08	-1.230811e+01	-7.554670e+02
2.630000e-06	-1.841695e-06	-1.284971e-08	-1.314978e+01	-8.438239e+02
2.640000e-06	-1.958908e-06	-1.415393e-08	-1.398669e+01	-9.289765e+02
2.650000e-06	-2.075280e-06	-1.539955e-08	-1.481759e+01	-1.010184e+03
2.660000e-06	-2.190680e-06	-1.657682e-08	-1.564155e+01	-1.086954e+03
2.670000e-06	-2.305107e-06	-1.767950e-08	-1.645857e+01	-1.159056e+03
2.680000e-06	-2.418572e-06	-1.871062e-08	-1.726871e+01	-1.226489e+03
2.690000e-06	-2.531030e-06	-1.967355e-08	-1.807167e+01	-1.289433e+03
2.700000e-06	-2.642397e-06	-2.057426e-08	-1.886683e+01	-1.348184e+03
2.710000e-06	-2.752648e-06	-2.141678e-08	-1.965403e+01	-1.403087e+03
2.720000e-06	-2.861974e-06	-2.220652e-08	-2.043462e+01	-1.454487e+03
2.730000e-06	-2.970453e-06	-2.295063e-08	-2.120917e+01	-1.502694e+03
2.740000e-06	-3.077968e-06	-2.364747e-08	-2.197683e+01	-1.547969e+03
2.750000e-06	-3.184499e-06	-2.429791e-08	-2.273747e+01	-1.590522e+03
2.760000e-06	-3.290007e-06	-2.490827e-08	-2.349080e+01	-1.630530e+03
2.770000e-06	-3.394369e-06	-2.548531e-08	-2.423594e+01	-1.668148e+03
2.780000e-06	-3.497439e-06	-2.603024e-08	-2.497187e+01	-1.703525e+03
2.790000e-06	-3.599152e-06	-2.654100e-08	-2.569811e+01	-1.736815e+03
2.800000e-06	-3.699488e-06	-2.701908e-08	-2.641451e+01	-1.768172e+03
2.810000e-06	-3.798548e-06	-2.747203e-08	-2.712180e+01	-1.797752e+03
2.820000e-06	-3.896394e-06	-2.790136e-08	-2.782043e+01	-1.825703e+03
2.830000e-06	-3.992950e-06	-2.830714e-08	-2.850984e+01	-1.852159e+03
2.840000e-06	-4.088186e-06	-2.869264e-08	-2.918983e+01	-1.877234e+03
2.850000e-06	-4.181978e-06	-2.905824e-08	-2.985951e+01	-1.901023e+03
2.860000e-06	-4.274166e-06	-2.940548e-08	-3.051773e+01	-1.923602e+03
2.870000e-06	-4.364837e-06	-2.973339e-08	-3.116513e+01	-1.945035e+03
2.880000e-06	-4.453985e-06	-3.004269e-08	-3.180165e+01	-1.965377e+03
2.890000e-06	-4.541493e-06	-3.033628e-08	-3.242646e+01	-1.984682e+03
2.900000e-06	-4.627296e-06	-3.061838e-08	-3.303910e+01	-2.003002e+03
2.910000e-06	-4.711386e-06	-3.088677e-08	-3.363951e+01	-2.020391e+03
2.920000e-06	-4.793877e-06	-3.114009e-08	-3.422850e+01	-2.036902e+03
2.930000e-06	-4.874755e-06	-3.138044e-08	-3.480597e+01	-2.052584e+03
2.940000e-06	-4.953802e-06	-3.160982e-08	-3.537037e+01	-2.067487e+03
