# Temperatura_=_59.78
# Concentracion g/m^3_=_28200.0
# C_Vs_to_Am_M_A/Vsm_=_65563218390.804596
# pendiente_HvsI_1/m_=_3716.3
# ordenada_HvsI_A/m_=_1297.0
# frecuencia_Hz_=_302145.9192575496

Tiempo_(s)	Campo_(V.s)	Magnetizacion_(V.s)	Campo_(kA/m)	Magnetizacion_(A/m)
0.000000e+00	-6.402441e-06	-3.484264e-08	-4.585328e+01	-2.281622e+03
1.000000e-08	-6.399324e-06	-3.483728e-08	-4.583096e+01	-2.281053e+03
2.000000e-08	-6.394127e-06	-3.482160e-08	-4.579373e+01	-2.280229e+03
3.000000e-08	-6.387009e-06	-3.480453e-08	-4.574276e+01	-2.279145e+03
4.000000e-08	-6.377806e-06	-3.478497e-08	-4.567685e+01	-2.277804e+03
5.000000e-08	-6.366270e-06	-3.475898e-08	-4.559423e+01	-2.276212e+03
6.000000e-08	-6.352438e-06	-3.472445e-08	-4.549516e+01	-2.274383e+03
7.000000e-08	-6.336289e-06	-3.467505e-08	-4.537951e+01	-2.272334e+03
8.000000e-08	-6.317910e-06	-3.465789e-08	-4.524788e+01	-2.270083e+03
9.000000e-08	-6.297415e-06	-3.473098e-08	-4.510110e+01	-2.267651e+03
1.000000e-07	-6.274563e-06	-3.466706e-08	-4.493743e+01	-2.265056e+03
1.100000e-07	-6.249089e-06	-3.453644e-08	-4.475500e+01	-2.262315e+03
1.200000e-07	-6.221177e-06	-3.450289e-08	-4.455510e+01	-2.259438e+03
1.300000e-07	-6.191300e-06	-3.440435e-08	-4.434112e+01	-2.256426e+03
1.400000e-07	-6.159901e-06	-3.422149e-08	-4.411625e+01	-2.253269e+03
1.500000e-07	-6.126808e-06	-3.438855e-08	-4.387924e+01	-2.249943e+03
1.600000e-07	-6.091665e-06	-3.435288e-08	-4.362755e+01	-2.246411e+03
1.700000e-07	-6.054694e-06	-3.410865e-08	-4.336277e+01	-2.242626e+03
1.800000e-07	-6.015677e-06	-3.422744e-08	-4.308334e+01	-2.238537e+03
1.900000e-07	-5.974221e-06	-3.402942e-08	-4.278644e+01	-2.234095e+03
2.000000e-07	-5.930543e-06	-3.390224e-08	-4.247362e+01	-2.229262e+03
2.100000e-07	-5.884784e-06	-3.396517e-08	-4.214590e+01	-2.224016e+03
2.200000e-07	-5.836734e-06	-3.381553e-08	-4.180178e+01	-2.218353e+03
2.300000e-07	-5.786202e-06	-3.373718e-08	-4.143987e+01	-2.212289e+03
2.400000e-07	-5.733131e-06	-3.362734e-08	-4.105979e+01	-2.205854e+03
2.500000e-07	-5.677900e-06	-3.349399e-08	-4.066423e+01	-2.199081e+03
2.600000e-07	-5.620567e-06	-3.341254e-08	-4.025362e+01	-2.192004e+03
2.700000e-07	-5.561017e-06	-3.328410e-08	-3.982713e+01	-2.184641e+03
2.800000e-07	-5.499512e-06	-3.319779e-08	-3.938665e+01	-2.176995e+03
2.900000e-07	-5.436112e-06	-3.304702e-08	-3.893258e+01	-2.169050e+03
3.000000e-07	-5.370629e-06	-3.292991e-08	-3.846360e+01	-2.160777e+03
3.100000e-07	-5.303097e-06	-3.279203e-08	-3.797995e+01	-2.152138e+03
3.200000e-07	-5.233585e-06	-3.263499e-08	-3.748211e+01	-2.143097e+03
3.300000e-07	-5.162247e-06	-3.252328e-08	-3.697121e+01	-2.133625e+03
3.400000e-07	-5.089081e-06	-3.233998e-08	-3.644720e+01	-2.123708e+03
3.500000e-07	-5.013820e-06	-3.219874e-08	-3.590820e+01	-2.113343e+03
3.600000e-07	-4.936431e-06	-3.202856e-08	-3.535394e+01	-2.102538e+03
3.700000e-07	-4.856934e-06	-3.185224e-08	-3.478460e+01	-2.091301e+03
3.800000e-07	-4.775539e-06	-3.168882e-08	-3.420166e+01	-2.079636e+03
3.900000e-07	-4.692559e-06	-3.149568e-08	-3.360737e+01	-2.067536e+03
4.000000e-07	-4.608173e-06	-3.130365e-08	-3.300301e+01	-2.054979e+03
4.100000e-07	-4.522350e-06	-3.109790e-08	-3.238836e+01	-2.041928e+03
4.200000e-07	-4.435146e-06	-3.090126e-08	-3.176382e+01	-2.028342e+03
4.300000e-07	-4.346556e-06	-3.068094e-08	-3.112935e+01	-2.014178e+03
4.400000e-07	-4.256362e-06	-3.044606e-08	-3.048339e+01	-1.999398e+03
4.500000e-07	-4.164510e-06	-3.021255e-08	-2.982557e+01	-1.983980e+03
4.600000e-07	-4.071129e-06	-2.995986e-08	-2.915679e+01	-1.967911e+03
4.700000e-07	-3.976416e-06	-2.970501e-08	-2.847847e+01	-1.951187e+03
4.800000e-07	-3.880363e-06	-2.944432e-08	-2.779055e+01	-1.933807e+03
4.900000e-07	-3.782783e-06	-2.917785e-08	-2.709170e+01	-1.915761e+03
5.000000e-07	-3.683655e-06	-2.889113e-08	-2.638176e+01	-1.897026e+03
5.100000e-07	-3.583148e-06	-2.858849e-08	-2.566194e+01	-1.877562e+03
5.200000e-07	-3.481397e-06	-2.827471e-08	-2.493322e+01	-1.857311e+03
5.300000e-07	-3.378524e-06	-2.794667e-08	-2.419646e+01	-1.836203e+03
5.400000e-07	-3.274520e-06	-2.761082e-08	-2.345160e+01	-1.814166e+03
5.500000e-07	-3.169233e-06	-2.725852e-08	-2.269755e+01	-1.791129e+03
5.600000e-07	-3.062600e-06	-2.689112e-08	-2.193386e+01	-1.767034e+03
5.700000e-07	-2.954679e-06	-2.650395e-08	-2.116095e+01	-1.741827e+03
5.800000e-07	-2.845685e-06	-2.610047e-08	-2.038035e+01	-1.715465e+03
5.900000e-07	-2.735748e-06	-2.568374e-08	-1.959300e+01	-1.687897e+03
6.000000e-07	-2.624887e-06	-2.524876e-08	-1.879903e+01	-1.659062e+03
6.100000e-07	-2.513097e-06	-2.479041e-08	-1.799841e+01	-1.628875e+03
6.200000e-07	-2.400301e-06	-2.430261e-08	-1.719058e+01	-1.597229e+03
6.300000e-07	-2.286534e-06	-2.378794e-08	-1.637580e+01	-1.563992e+03
6.400000e-07	-2.171840e-06	-2.324615e-08	-1.555438e+01	-1.529016e+03
6.500000e-07	-2.056113e-06	-2.268156e-08	-1.472556e+01	-1.492147e+03
6.600000e-07	-1.939475e-06	-2.209047e-08	-1.389021e+01	-1.453234e+03
6.700000e-07	-1.822184e-06	-2.146785e-08	-1.305020e+01	-1.412134e+03
6.800000e-07	-1.704318e-06	-2.080958e-08	-1.220606e+01	-1.368712e+03
6.900000e-07	-1.585921e-06	-2.010956e-08	-1.135812e+01	-1.322836e+03
7.000000e-07	-1.467052e-06	-1.936897e-08	-1.050680e+01	-1.274367e+03
7.100000e-07	-1.347728e-06	-1.858335e-08	-9.652216e+00	-1.223150e+03
7.200000e-07	-1.227925e-06	-1.775272e-08	-8.794206e+00	-1.169014e+03
7.300000e-07	-1.107632e-06	-1.687513e-08	-7.932689e+00	-1.111780e+03
7.400000e-07	-9.868733e-07	-1.594866e-08	-7.067832e+00	-1.051289e+03
7.500000e-07	-8.657280e-07	-1.497334e-08	-6.200208e+00	-9.874319e+02
7.600000e-07	-7.443397e-07	-1.395011e-08	-5.330845e+00	-9.201920e+02
7.700000e-07	-6.227792e-07	-1.287802e-08	-4.460247e+00	-8.496816e+02
7.800000e-07	-5.010577e-07	-1.176114e-08	-3.588497e+00	-7.761639e+02
7.900000e-07	-3.792420e-07	-1.060477e-08	-2.716072e+00	-7.000525e+02
8.000000e-07	-2.573227e-07	-9.411371e-09	-1.842905e+00	-6.218823e+02
8.100000e-07	-1.352641e-07	-8.193639e-09	-9.687400e-01	-5.422525e+02
8.200000e-07	-1.311410e-08	-6.964415e-09	-9.392115e-02	-4.617490e+02
8.300000e-07	1.090813e-07	-5.734239e-09	7.812233e-01	-3.808595e+02
8.400000e-07	2.312426e-07	-4.503361e-09	1.656123e+00	-2.998975e+02
8.500000e-07	3.533392e-07	-3.274160e-09	2.530560e+00	-2.189522e+02
8.600000e-07	4.753522e-07	-2.043061e-09	3.404398e+00	-1.378765e+02
8.700000e-07	5.971923e-07	-8.007705e-10	4.276998e+00	-5.631907e+01
8.800000e-07	7.188372e-07	4.571192e-10	5.148200e+00	2.620042e+01
8.900000e-07	8.403062e-07	1.737933e-09	6.018141e+00	1.101870e+02
9.000000e-07	9.615702e-07	3.045795e-09	6.886615e+00	1.960528e+02
9.100000e-07	1.082528e-06	4.384562e-09	7.752896e+00	2.840081e+02
9.200000e-07	1.203133e-06	5.754198e-09	8.616649e+00	3.739821e+02
9.300000e-07	1.323273e-06	7.149624e-09	9.477072e+00	4.655868e+02
9.400000e-07	1.442832e-06	8.562012e-09	1.033334e+01	5.581331e+02
9.500000e-07	1.561844e-06	9.975927e-09	1.118568e+01	6.506936e+02
9.600000e-07	1.680288e-06	1.136996e-08	1.203396e+01	7.422033e+02
9.700000e-07	1.798114e-06	1.272583e-08	1.287781e+01	8.315772e+02
9.800000e-07	1.915294e-06	1.403238e-08	1.371703e+01	9.178273e+02
9.900000e-07	2.031697e-06	1.527969e-08	1.455069e+01	1.000156e+03
1.000000e-06	2.147145e-06	1.645988e-08	1.537751e+01	1.078018e+03
1.010000e-06	2.261554e-06	1.756907e-08	1.619690e+01	1.151137e+03
1.020000e-06	2.375032e-06	1.860474e-08	1.700961e+01	1.219484e+03
1.030000e-06	2.487719e-06	1.956980e-08	1.781666e+01	1.283232e+03
1.040000e-06	2.599504e-06	2.047236e-08	1.861724e+01	1.342680e+03
1.050000e-06	2.710219e-06	2.131502e-08	1.941016e+01	1.398193e+03
1.060000e-06	2.819938e-06	2.210426e-08	2.019595e+01	1.450136e+03
1.070000e-06	2.928816e-06	2.284159e-08	2.097572e+01	1.498835e+03
1.080000e-06	3.036803e-06	2.353274e-08	2.174911e+01	1.544564e+03
1.090000e-06	3.143584e-06	2.418062e-08	2.251385e+01	1.587538e+03
1.100000e-06	3.249153e-06	2.478977e-08	2.326993e+01	1.627931e+03
1.110000e-06	3.353569e-06	2.536375e-08	2.401774e+01	1.665897e+03
1.120000e-06	3.456672e-06	2.590588e-08	2.475614e+01	1.701586e+03
1.130000e-06	3.558552e-06	2.641674e-08	2.548580e+01	1.735151e+03
1.140000e-06	3.659374e-06	2.689629e-08	2.620786e+01	1.766757e+03
1.150000e-06	3.758873e-06	2.735003e-08	2.692046e+01	1.796569e+03
1.160000e-06	3.856876e-06	2.777954e-08	2.762235e+01	1.824747e+03
1.170000e-06	3.953447e-06	2.818483e-08	2.831397e+01	1.851432e+03
1.180000e-06	4.048578e-06	2.856829e-08	2.899528e+01	1.876740e+03
1.190000e-06	4.142364e-06	2.893375e-08	2.966696e+01	1.900762e+03
1.200000e-06	4.234890e-06	2.927973e-08	3.032962e+01	1.923564e+03
1.210000e-06	4.325959e-06	2.960850e-08	3.098184e+01	1.945202e+03
1.220000e-06	4.415368e-06	2.992021e-08	3.162218e+01	1.965723e+03
1.230000e-06	4.503113e-06	3.021816e-08	3.225059e+01	1.985179e+03
1.240000e-06	4.589201e-06	3.049841e-08	3.286714e+01	2.003628e+03
1.250000e-06	4.673783e-06	3.076259e-08	3.347290e+01	2.021133e+03
1.260000e-06	4.756780e-06	3.101452e-08	3.406732e+01	2.037763e+03
1.270000e-06	4.837993e-06	3.125540e-08	3.464894e+01	2.053582e+03
1.280000e-06	4.917400e-06	3.148484e-08	3.521765e+01	2.068646e+03
1.290000e-06	4.995011e-06	3.170290e-08	3.577349e+01	2.083000e+03
1.300000e-06	5.070598e-06	3.190930e-08	3.631483e+01	2.096679e+03
1.310000e-06	5.144097e-06	3.210372e-08	3.684122e+01	2.109705e+03
1.320000e-06	5.215708e-06	3.228920e-08	3.735408e+01	2.122098e+03
1.330000e-06	5.285535e-06	3.246670e-08	3.785417e+01	2.133877e+03
1.340000e-06	5.353490e-06	3.263758e-08	3.834085e+01	2.145062e+03
1.350000e-06	5.419430e-06	3.280165e-08	3.881311e+01	2.155679e+03
1.360000e-06	5.483409e-06	3.295822e-08	3.927132e+01	2.165753e+03
1.370000e-06	5.545545e-06	3.310605e-08	3.971632e+01	2.175309e+03
1.380000e-06	5.605851e-06	3.324601e-08	4.014823e+01	2.184366e+03
1.390000e-06	5.664161e-06	3.337889e-08	4.056584e+01	2.192938e+03
1.400000e-06	5.720394e-06	3.350414e-08	4.096857e+01	2.201031e+03
1.410000e-06	5.774551e-06	3.362211e-08	4.135643e+01	2.208649e+03
1.420000e-06	5.826364e-06	3.373287e-08	4.172751e+01	2.215792e+03
1.430000e-06	5.875660e-06	3.383586e-08	4.208056e+01	2.222470e+03
1.440000e-06	5.922725e-06	3.393120e-08	4.241763e+01	2.228696e+03
1.450000e-06	5.967873e-06	3.401882e-08	4.274097e+01	2.234497e+03
1.460000e-06	6.010982e-06	3.409971e-08	4.304971e+01	2.239903e+03
1.470000e-06	6.051846e-06	3.417606e-08	4.334237e+01	2.244952e+03
1.480000e-06	6.090567e-06	3.424842e-08	4.361969e+01	2.249675e+03
1.490000e-06	6.127338e-06	3.431708e-08	4.388303e+01	2.254097e+03
1.500000e-06	6.161968e-06	3.438155e-08	4.413105e+01	2.258229e+03
1.510000e-06	6.194262e-06	3.444201e-08	4.436234e+01	2.262067e+03
1.520000e-06	6.224411e-06	3.449716e-08	4.457826e+01	2.265600e+03
1.530000e-06	6.252531e-06	3.454723e-08	4.477965e+01	2.268806e+03
1.540000e-06	6.278347e-06	3.459070e-08	4.496454e+01	2.271666e+03
1.550000e-06	6.301661e-06	3.462625e-08	4.513151e+01	2.274168e+03
1.560000e-06	6.322765e-06	3.465667e-08	4.528265e+01	2.276311e+03
1.570000e-06	6.341757e-06	3.468324e-08	4.541867e+01	2.278106e+03
1.580000e-06	6.358407e-06	3.470585e-08	4.553791e+01	2.279576e+03
1.590000e-06	6.372689e-06	3.472443e-08	4.564020e+01	2.280749e+03
1.600000e-06	6.384558e-06	3.474059e-08	4.572520e+01	2.281657e+03
1.610000e-06	6.393851e-06	3.475452e-08	4.579176e+01	2.282325e+03
1.620000e-06	6.400708e-06	3.476478e-08	4.584087e+01	2.282771e+03
1.630000e-06	6.405426e-06	3.477142e-08	4.587465e+01	2.283002e+03
1.640000e-06	6.407858e-06	3.477535e-08	4.589207e+01	2.283014e+03
1.650000e-06	6.407931e-06	3.477700e-08	4.589260e+01	2.282800e+03
1.660000e-06	6.405913e-06	3.476073e-08	4.587815e+01	2.282345e+03
1.670000e-06	6.401841e-06	3.474805e-08	4.584899e+01	2.281640e+03
1.680000e-06	6.395564e-06	3.473623e-08	4.580403e+01	2.280677e+03
1.690000e-06	6.387138e-06	3.471812e-08	4.574368e+01	2.279454e+03
1.700000e-06	6.376733e-06	3.469970e-08	4.566916e+01	2.277978e+03
1.710000e-06	6.364114e-06	3.468238e-08	4.557879e+01	2.276257e+03
1.720000e-06	6.349234e-06	3.469053e-08	4.547222e+01	2.274308e+03
1.730000e-06	6.332396e-06	3.462454e-08	4.535163e+01	2.272148e+03
1.740000e-06	6.313491e-06	3.446568e-08	4.521623e+01	2.269797e+03
1.750000e-06	6.291684e-06	3.447752e-08	4.506006e+01	2.267275e+03
1.760000e-06	6.266690e-06	3.449932e-08	4.488105e+01	2.264600e+03
1.770000e-06	6.239408e-06	3.441471e-08	4.468566e+01	2.261786e+03
1.780000e-06	6.210250e-06	3.454320e-08	4.447684e+01	2.258837e+03
1.790000e-06	6.179431e-06	3.444923e-08	4.425612e+01	2.255749e+03
1.800000e-06	6.147234e-06	3.421286e-08	4.402553e+01	2.252505e+03
1.810000e-06	6.113046e-06	3.437595e-08	4.378068e+01	2.249074e+03
1.820000e-06	6.076781e-06	3.419360e-08	4.352095e+01	2.245412e+03
1.830000e-06	6.038447e-06	3.416032e-08	4.324641e+01	2.241471e+03
1.840000e-06	5.997695e-06	3.432795e-08	4.295455e+01	2.237198e+03
1.850000e-06	5.954940e-06	3.397881e-08	4.264835e+01	2.232551e+03
1.860000e-06	5.910179e-06	3.398475e-08	4.232777e+01	2.227498e+03
1.870000e-06	5.863200e-06	3.390252e-08	4.199132e+01	2.222027e+03
1.880000e-06	5.814136e-06	3.374002e-08	4.163993e+01	2.216146e+03
1.890000e-06	5.762519e-06	3.382069e-08	4.127026e+01	2.209879e+03
1.900000e-06	5.708333e-06	3.356163e-08	4.088219e+01	2.203259e+03
1.910000e-06	5.651916e-06	3.355198e-08	4.047814e+01	2.196320e+03
1.920000e-06	5.593461e-06	3.345716e-08	4.005949e+01	2.189088e+03
1.930000e-06	5.533203e-06	3.323822e-08	3.962793e+01	2.181574e+03
1.940000e-06	5.470857e-06	3.323105e-08	3.918142e+01	2.173770e+03
1.950000e-06	5.406356e-06	3.300928e-08	3.871947e+01	2.165654e+03
1.960000e-06	5.339825e-06	3.298456e-08	3.824299e+01	2.157189e+03
1.970000e-06	5.271311e-06	3.279607e-08	3.775230e+01	2.148339e+03
1.980000e-06	5.200764e-06	3.261623e-08	3.724706e+01	2.139069e+03
1.990000e-06	5.128174e-06	3.255038e-08	3.672718e+01	2.129360e+03
2.000000e-06	5.053773e-06	3.232723e-08	3.619433e+01	2.119203e+03
2.010000e-06	4.977300e-06	3.223783e-08	3.564664e+01	2.108600e+03
2.020000e-06	4.898692e-06	3.199986e-08	3.508366e+01	2.097563e+03
2.030000e-06	4.818322e-06	3.185907e-08	3.450806e+01	2.086097e+03
2.040000e-06	4.736379e-06	3.169686e-08	3.392120e+01	2.074201e+03
2.050000e-06	4.652944e-06	3.147543e-08	3.332366e+01	2.061859e+03
2.060000e-06	4.567777e-06	3.130768e-08	3.271370e+01	2.049042e+03
2.070000e-06	4.480847e-06	3.107143e-08	3.209113e+01	2.035710e+03
2.080000e-06	4.392365e-06	3.089709e-08	3.145743e+01	2.021819e+03
2.090000e-06	4.302443e-06	3.064202e-08	3.081342e+01	2.007329e+03
2.100000e-06	4.211155e-06	3.042965e-08	3.015963e+01	1.992209e+03
2.110000e-06	4.118463e-06	3.019862e-08	2.949578e+01	1.976443e+03
2.120000e-06	4.024252e-06	2.994528e-08	2.882106e+01	1.960023e+03
2.130000e-06	3.928481e-06	2.968869e-08	2.813516e+01	1.942948e+03
2.140000e-06	3.831317e-06	2.940546e-08	2.743929e+01	1.925213e+03
2.150000e-06	3.732877e-06	2.914348e-08	2.673428e+01	1.906802e+03
2.160000e-06	3.633147e-06	2.884239e-08	2.602003e+01	1.887683e+03
2.170000e-06	3.531995e-06	2.855105e-08	2.529559e+01	1.867805e+03
2.180000e-06	3.429415e-06	2.822510e-08	2.456093e+01	1.847104e+03
2.190000e-06	3.325505e-06	2.789916e-08	2.381674e+01	1.825507e+03
2.200000e-06	3.220387e-06	2.754882e-08	2.306391e+01	1.802942e+03
2.210000e-06	3.114232e-06	2.719075e-08	2.230364e+01	1.779345e+03
2.220000e-06	3.006997e-06	2.682063e-08	2.153564e+01	1.754660e+03
2.230000e-06	2.898679e-06	2.643257e-08	2.075989e+01	1.728840e+03
2.240000e-06	2.789371e-06	2.602539e-08	1.997704e+01	1.701839e+03
2.250000e-06	2.678990e-06	2.559004e-08	1.918651e+01	1.673600e+03
2.260000e-06	2.567484e-06	2.514130e-08	1.838792e+01	1.644053e+03
2.270000e-06	2.454972e-06	2.466364e-08	1.758212e+01	1.613099e+03
2.280000e-06	2.341474e-06	2.417371e-08	1.676927e+01	1.580619e+03
2.290000e-06	2.227051e-06	2.365202e-08	1.594979e+01	1.546469e+03
2.300000e-06	2.111838e-06	2.310292e-08	1.512465e+01	1.510498e+03
2.310000e-06	1.995795e-06	2.252101e-08	1.429357e+01	1.472552e+03
2.320000e-06	1.878916e-06	2.191166e-08	1.345650e+01	1.432484e+03
2.330000e-06	1.761341e-06	2.126989e-08	1.261445e+01	1.390156e+03
2.340000e-06	1.643153e-06	2.059323e-08	1.176801e+01	1.345437e+03
2.350000e-06	1.524298e-06	1.987858e-08	1.091678e+01	1.298190e+03
2.360000e-06	1.404757e-06	1.911849e-08	1.006065e+01	1.248269e+03
2.370000e-06	1.284655e-06	1.831332e-08	9.200499e+00	1.195510e+03
2.380000e-06	1.164169e-06	1.745822e-08	8.337597e+00	1.139735e+03
2.390000e-06	1.043424e-06	1.655848e-08	7.472841e+00	1.080774e+03
2.400000e-06	9.223900e-07	1.560900e-08	6.606013e+00	1.018488e+03
2.410000e-06	8.010828e-07	1.461071e-08	5.737230e+00	9.528134e+02
2.420000e-06	6.795352e-07	1.356099e-08	4.866725e+00	8.837981e+02
2.430000e-06	5.577257e-07	1.246107e-08	3.994344e+00	8.116338e+02
2.440000e-06	4.357403e-07	1.131588e-08	3.120704e+00	7.366662e+02
2.450000e-06	3.136419e-07	1.013169e-08	2.246254e+00	6.593795e+02
2.460000e-06	1.914508e-07	8.920659e-09	1.371140e+00	5.803517e+02
2.470000e-06	6.922027e-08	7.694437e-09	4.957447e-01	5.001851e+02
2.480000e-06	-5.308216e-08	6.462614e-09	-3.801661e-01	4.194235e+02
2.490000e-06	-1.754137e-07	5.226775e-09	-1.256285e+00	3.384696e+02
2.500000e-06	-2.976328e-07	3.989769e-09	-2.131600e+00	2.575206e+02
2.510000e-06	-4.197554e-07	2.752879e-09	-3.006222e+00	1.765379e+02
2.520000e-06	-5.417777e-07	1.509661e-09	-3.880127e+00	9.525802e+01
2.530000e-06	-6.636175e-07	2.533340e-10	-4.752724e+00	1.324909e+01
2.540000e-06	-7.852634e-07	-1.020767e-09	-5.623934e+00	-6.999688e+01
2.550000e-06	-9.066866e-07	-2.317842e-09	-6.493548e+00	-1.549496e+02
2.560000e-06	-1.027835e-06	-3.644723e-09	-7.361194e+00	-2.419253e+02
2.570000e-06	-1.148695e-06	-5.002774e-09	-8.226772e+00	-3.309910e+02
2.580000e-06	-1.269237e-06	-6.386949e-09	-9.090076e+00	-4.219071e+02
2.590000e-06	-1.389350e-06	-7.791329e-09	-9.950310e+00	-5.141192e+02
2.600000e-06	-1.508922e-06	-9.207191e-09	-1.080666e+01	-6.068000e+02
2.610000e-06	-1.627733e-06	-1.061998e-08	-1.165757e+01	-6.989342e+02
2.620000e-06	-1.745727e-06	-1.200893e-08	-1.250262e+01	-7.894312e+02
2.630000e-06	-1.863082e-06	-1.335516e-08	-1.334310e+01	-8.772444e+02
2.640000e-06	-1.979718e-06	-1.464614e-08	-1.417843e+01	-9.614781e+02
2.650000e-06	-2.095520e-06	-1.587269e-08	-1.500779e+01	-1.041465e+03
2.660000e-06	-2.210484e-06	-1.702684e-08	-1.583114e+01	-1.116804e+03
2.670000e-06	-2.324479e-06	-1.810731e-08	-1.664755e+01	-1.187356e+03
2.680000e-06	-2.437393e-06	-1.911625e-08	-1.745622e+01	-1.253208e+03
2.690000e-06	-2.549275e-06	-2.005743e-08	-1.825751e+01	-1.314609e+03
2.700000e-06	-2.660110e-06	-2.093789e-08	-1.905129e+01	-1.371903e+03
2.710000e-06	-2.769846e-06	-2.176154e-08	-1.983721e+01	-1.425460e+03
2.720000e-06	-2.878615e-06	-2.253335e-08	-2.061619e+01	-1.475628e+03
2.730000e-06	-2.986504e-06	-2.325880e-08	-2.138888e+01	-1.522706e+03
2.740000e-06	-3.093443e-06	-2.393796e-08	-2.215475e+01	-1.566935e+03
2.750000e-06	-3.199381e-06	-2.457299e-08	-2.291347e+01	-1.608507e+03
2.760000e-06	-3.304244e-06	-2.517118e-08	-2.366448e+01	-1.647582e+03
2.770000e-06	-3.407930e-06	-2.573784e-08	-2.440706e+01	-1.684309e+03
2.780000e-06	-3.510311e-06	-2.626950e-08	-2.514030e+01	-1.718840e+03
2.790000e-06	-3.611377e-06	-2.676425e-08	-2.586412e+01	-1.751335e+03
2.800000e-06	-3.711158e-06	-2.722949e-08	-2.657873e+01	-1.781960e+03
2.810000e-06	-3.809652e-06	-2.767185e-08	-2.728413e+01	-1.810878e+03
2.820000e-06	-3.906952e-06	-2.809173e-08	-2.798098e+01	-1.838240e+03
2.830000e-06	-4.002980e-06	-2.849052e-08	-2.866871e+01	-1.864175e+03
2.840000e-06	-4.097477e-06	-2.887064e-08	-2.934549e+01	-1.888784e+03
2.850000e-06	-4.190497e-06	-2.922997e-08	-3.001168e+01	-1.912146e+03
2.860000e-06	-4.282089e-06	-2.956723e-08	-3.066765e+01	-1.934318e+03
2.870000e-06	-4.372109e-06	-2.988459e-08	-3.131236e+01	-1.955352e+03
2.880000e-06	-4.460641e-06	-3.018683e-08	-3.194641e+01	-1.975296e+03
2.890000e-06	-4.547468e-06	-3.047587e-08	-3.256825e+01	-1.994204e+03
2.900000e-06	-4.632543e-06	-3.075139e-08	-3.317755e+01	-2.012140e+03
2.910000e-06	-4.716062e-06	-3.101197e-08	-3.377570e+01	-2.029168e+03
2.920000e-06	-4.797947e-06	-3.125949e-08	-3.436214e+01	-2.045356e+03
2.930000e-06	-4.878159e-06	-3.149639e-08	-3.493661e+01	-2.060764e+03
2.940000e-06	-4.956515e-06	-3.172379e-08	-3.549778e+01	-2.075443e+03
