# Temperatura_=_58.8
# Concentracion g/m^3_=_28200.0
# C_Vs_to_Am_M_A/Vsm_=_65563218390.804596
# pendiente_HvsI_1/m_=_3716.3
# ordenada_HvsI_A/m_=_1297.0
# frecuencia_Hz_=_302146.9179894429

Tiempo_(s)	Campo_(V.s)	Magnetizacion_(V.s)	Campo_(kA/m)	Magnetizacion_(A/m)
0.000000e+00	-6.465531e-06	-3.491722e-08	-4.585199e+01	-2.286551e+03
1.000000e-08	-6.462598e-06	-3.491359e-08	-4.583119e+01	-2.285973e+03
2.000000e-08	-6.457527e-06	-3.489941e-08	-4.579522e+01	-2.285147e+03
3.000000e-08	-6.450504e-06	-3.488541e-08	-4.574542e+01	-2.284074e+03
4.000000e-08	-6.441344e-06	-3.486625e-08	-4.568046e+01	-2.282755e+03
5.000000e-08	-6.429780e-06	-3.483896e-08	-4.559845e+01	-2.281192e+03
6.000000e-08	-6.415783e-06	-3.480528e-08	-4.549919e+01	-2.279385e+03
7.000000e-08	-6.399400e-06	-3.475896e-08	-4.538300e+01	-2.277338e+03
8.000000e-08	-6.380913e-06	-3.473954e-08	-4.525190e+01	-2.275057e+03
9.000000e-08	-6.360351e-06	-3.482559e-08	-4.510608e+01	-2.272556e+03
1.000000e-07	-6.337394e-06	-3.475415e-08	-4.494327e+01	-2.269861e+03
1.100000e-07	-6.311769e-06	-3.460582e-08	-4.476155e+01	-2.267002e+03
1.200000e-07	-6.283677e-06	-3.457479e-08	-4.456232e+01	-2.264017e+03
1.300000e-07	-6.253640e-06	-3.449455e-08	-4.434931e+01	-2.260938e+03
1.400000e-07	-6.222104e-06	-3.429289e-08	-4.412566e+01	-2.257782e+03
1.500000e-07	-6.188781e-06	-3.445179e-08	-4.388934e+01	-2.254546e+03
1.600000e-07	-6.153306e-06	-3.445807e-08	-4.363777e+01	-2.251198e+03
1.700000e-07	-6.115997e-06	-3.416233e-08	-4.337318e+01	-2.247679e+03
1.800000e-07	-6.076688e-06	-3.429324e-08	-4.309441e+01	-2.243912e+03
1.900000e-07	-6.034904e-06	-3.412437e-08	-4.279809e+01	-2.239809e+03
2.000000e-07	-5.990849e-06	-3.398118e-08	-4.248566e+01	-2.235292e+03
2.100000e-07	-5.944732e-06	-3.407728e-08	-4.215861e+01	-2.230304e+03
2.200000e-07	-5.896305e-06	-3.391269e-08	-4.181518e+01	-2.224818e+03
2.300000e-07	-5.845366e-06	-3.382586e-08	-4.145393e+01	-2.218845e+03
2.400000e-07	-5.791892e-06	-3.371922e-08	-4.107471e+01	-2.212426e+03
2.500000e-07	-5.736332e-06	-3.357973e-08	-4.068068e+01	-2.205620e+03
2.600000e-07	-5.678560e-06	-3.351140e-08	-4.027098e+01	-2.198491e+03
2.700000e-07	-5.618517e-06	-3.338668e-08	-3.984517e+01	-2.191089e+03
2.800000e-07	-5.556592e-06	-3.330163e-08	-3.940601e+01	-2.183443e+03
2.900000e-07	-5.492692e-06	-3.314114e-08	-3.895285e+01	-2.175547e+03
3.000000e-07	-5.426616e-06	-3.302192e-08	-3.848425e+01	-2.167368e+03
3.100000e-07	-5.358449e-06	-3.289243e-08	-3.800083e+01	-2.158856e+03
3.200000e-07	-5.288338e-06	-3.273701e-08	-3.750362e+01	-2.149952e+03
3.300000e-07	-5.216427e-06	-3.263971e-08	-3.699364e+01	-2.140607e+03
3.400000e-07	-5.142508e-06	-3.245041e-08	-3.646943e+01	-2.130790e+03
3.500000e-07	-5.066366e-06	-3.230468e-08	-3.592944e+01	-2.120491e+03
3.600000e-07	-4.988132e-06	-3.213493e-08	-3.537463e+01	-2.109721e+03
3.700000e-07	-4.907859e-06	-3.195406e-08	-3.480535e+01	-2.098502e+03
3.800000e-07	-4.825818e-06	-3.180151e-08	-3.422354e+01	-2.086853e+03
3.900000e-07	-4.742291e-06	-3.161455e-08	-3.363118e+01	-2.074785e+03
4.000000e-07	-4.657320e-06	-3.142157e-08	-3.302859e+01	-2.062286e+03
4.100000e-07	-4.570808e-06	-3.120924e-08	-3.241507e+01	-2.049325e+03
4.200000e-07	-4.482875e-06	-3.101265e-08	-3.179147e+01	-2.035855e+03
4.300000e-07	-4.393302e-06	-3.079358e-08	-3.115624e+01	-2.021821e+03
4.400000e-07	-4.302026e-06	-3.055722e-08	-3.050893e+01	-2.007173e+03
4.500000e-07	-4.209322e-06	-3.033145e-08	-2.985150e+01	-1.991873e+03
4.600000e-07	-4.115126e-06	-3.008182e-08	-2.918348e+01	-1.975898e+03
4.700000e-07	-4.019565e-06	-2.982937e-08	-2.850579e+01	-1.959241e+03
4.800000e-07	-3.922580e-06	-2.956778e-08	-2.781800e+01	-1.941903e+03
4.900000e-07	-3.823997e-06	-2.929958e-08	-2.711886e+01	-1.923883e+03
5.000000e-07	-3.723969e-06	-2.901116e-08	-2.640949e+01	-1.905167e+03
5.100000e-07	-3.622596e-06	-2.870612e-08	-2.569058e+01	-1.885722e+03
5.200000e-07	-3.519978e-06	-2.839250e-08	-2.496284e+01	-1.865496e+03
5.300000e-07	-3.416291e-06	-2.806621e-08	-2.422752e+01	-1.844422e+03
5.400000e-07	-3.311311e-06	-2.773196e-08	-2.348302e+01	-1.822423e+03
5.500000e-07	-3.204849e-06	-2.737716e-08	-2.272802e+01	-1.799428e+03
5.600000e-07	-3.097117e-06	-2.701007e-08	-2.196401e+01	-1.775372e+03
5.700000e-07	-2.988273e-06	-2.662380e-08	-2.119211e+01	-1.750202e+03
5.800000e-07	-2.878343e-06	-2.622289e-08	-2.041252e+01	-1.723871e+03
5.900000e-07	-2.767447e-06	-2.580762e-08	-1.962607e+01	-1.696333e+03
6.000000e-07	-2.655663e-06	-2.537188e-08	-1.883332e+01	-1.667528e+03
6.100000e-07	-2.542828e-06	-2.491094e-08	-1.803312e+01	-1.637375e+03
6.200000e-07	-2.428832e-06	-2.442176e-08	-1.722469e+01	-1.605764e+03
6.300000e-07	-2.313689e-06	-2.390943e-08	-1.640812e+01	-1.572561e+03
6.400000e-07	-2.197579e-06	-2.337020e-08	-1.558470e+01	-1.537610e+03
6.500000e-07	-2.080687e-06	-2.280836e-08	-1.475573e+01	-1.500749e+03
6.600000e-07	-1.963048e-06	-2.221584e-08	-1.392146e+01	-1.461821e+03
6.700000e-07	-1.844715e-06	-2.158926e-08	-1.308227e+01	-1.420678e+03
6.800000e-07	-1.725784e-06	-2.092762e-08	-1.223885e+01	-1.377185e+03
6.900000e-07	-1.606408e-06	-2.022678e-08	-1.139226e+01	-1.331210e+03
7.000000e-07	-1.486612e-06	-1.948621e-08	-1.054270e+01	-1.282618e+03
7.100000e-07	-1.366250e-06	-1.869948e-08	-9.689118e+00	-1.231257e+03
7.200000e-07	-1.245262e-06	-1.786834e-08	-8.831098e+00	-1.176953e+03
7.300000e-07	-1.123741e-06	-1.698844e-08	-7.969303e+00	-1.119524e+03
7.400000e-07	-1.001829e-06	-1.605721e-08	-7.104731e+00	-1.058797e+03
7.500000e-07	-8.795585e-07	-1.507551e-08	-6.237617e+00	-9.946473e+02
7.600000e-07	-7.569170e-07	-1.404659e-08	-5.367873e+00	-9.270442e+02
7.700000e-07	-6.339756e-07	-1.296855e-08	-4.496002e+00	-8.560878e+02
7.800000e-07	-5.108675e-07	-1.184407e-08	-3.622950e+00	-7.820379e+02
7.900000e-07	-3.876729e-07	-1.067674e-08	-2.749283e+00	-7.053141e+02
8.000000e-07	-2.643650e-07	-9.471696e-09	-1.874813e+00	-6.264674e+02
8.100000e-07	-1.409479e-07	-8.244597e-09	-9.995688e-01	-5.461199e+02
8.200000e-07	-1.746873e-08	-7.006775e-09	-1.238840e-01	-4.648827e+02
8.300000e-07	1.060915e-07	-5.766871e-09	7.523753e-01	-3.832654e+02
8.400000e-07	2.296579e-07	-4.524570e-09	1.628678e+00	-3.015945e+02
8.500000e-07	3.531299e-07	-3.284008e-09	2.504312e+00	-2.199606e+02
8.600000e-07	4.764997e-07	-2.040111e-09	3.379221e+00	-1.382053e+02
8.700000e-07	5.997611e-07	-7.857455e-10	4.253361e+00	-5.595738e+01
8.800000e-07	7.228567e-07	4.835213e-10	5.126325e+00	2.728762e+01
8.900000e-07	8.457216e-07	1.775658e-09	5.997654e+00	1.120553e+02
9.000000e-07	9.683866e-07	3.095524e-09	6.867564e+00	1.987681e+02
9.100000e-07	1.090777e-06	4.447269e-09	7.735526e+00	2.876322e+02
9.200000e-07	1.212738e-06	5.830027e-09	8.600443e+00	3.785563e+02
9.300000e-07	1.334138e-06	7.239995e-09	9.461387e+00	4.711179e+02
9.400000e-07	1.454844e-06	8.666633e-09	1.031740e+01	5.645844e+02
9.500000e-07	1.574811e-06	1.009341e-08	1.116818e+01	6.579839e+02
9.600000e-07	1.694207e-06	1.149875e-08	1.201491e+01	7.502129e+02
9.700000e-07	1.813100e-06	1.286360e-08	1.285807e+01	8.401607e+02
9.800000e-07	1.931376e-06	1.417727e-08	1.369685e+01	9.268294e+02
9.900000e-07	2.048945e-06	1.542966e-08	1.453063e+01	1.009429e+03
1.000000e-06	2.165773e-06	1.661047e-08	1.535914e+01	1.087433e+03
1.010000e-06	2.281684e-06	1.771690e-08	1.618115e+01	1.160593e+03
1.020000e-06	2.396536e-06	1.874967e-08	1.699566e+01	1.228913e+03
1.030000e-06	2.510411e-06	1.971373e-08	1.780323e+01	1.292591e+03
1.040000e-06	2.623198e-06	2.061705e-08	1.860309e+01	1.351948e+03
1.050000e-06	2.734927e-06	2.145954e-08	1.939544e+01	1.407360e+03
1.060000e-06	2.845712e-06	2.224741e-08	2.018111e+01	1.459198e+03
1.070000e-06	2.955521e-06	2.298151e-08	2.095984e+01	1.507789e+03
1.080000e-06	3.064443e-06	2.367031e-08	2.173229e+01	1.553403e+03
1.090000e-06	3.172373e-06	2.431851e-08	2.249771e+01	1.596256e+03
1.100000e-06	3.279212e-06	2.492819e-08	2.325538e+01	1.636524e+03
1.110000e-06	3.384761e-06	2.550041e-08	2.400391e+01	1.674364e+03
1.120000e-06	3.488817e-06	2.604091e-08	2.474185e+01	1.709928e+03
1.130000e-06	3.591624e-06	2.655072e-08	2.547093e+01	1.743375e+03
1.140000e-06	3.693332e-06	2.702802e-08	2.619222e+01	1.774870e+03
1.150000e-06	3.793855e-06	2.747771e-08	2.690510e+01	1.804578e+03
1.160000e-06	3.893094e-06	2.790258e-08	2.760888e+01	1.832653e+03
1.170000e-06	3.990773e-06	2.830596e-08	2.830160e+01	1.859230e+03
1.180000e-06	4.086825e-06	2.868878e-08	2.898278e+01	1.884422e+03
1.190000e-06	4.181467e-06	2.905368e-08	2.965395e+01	1.908317e+03
1.200000e-06	4.274756e-06	2.939802e-08	3.031554e+01	1.930985e+03
1.210000e-06	4.366714e-06	2.972424e-08	3.096768e+01	1.952485e+03
1.220000e-06	4.457162e-06	3.003333e-08	3.160912e+01	1.972872e+03
1.230000e-06	4.545803e-06	3.032739e-08	3.223774e+01	1.992204e+03
1.240000e-06	4.632658e-06	3.060467e-08	3.285370e+01	2.010544e+03
1.250000e-06	4.717951e-06	3.086692e-08	3.345857e+01	2.027953e+03
1.260000e-06	4.801779e-06	3.111788e-08	3.405306e+01	2.044496e+03
1.270000e-06	4.883931e-06	3.135845e-08	3.463566e+01	2.060226e+03
1.280000e-06	4.964182e-06	3.158695e-08	3.520478e+01	2.075191e+03
1.290000e-06	5.042559e-06	3.180297e-08	3.576061e+01	2.089428e+03
1.300000e-06	5.119050e-06	3.200579e-08	3.630307e+01	2.102965e+03
1.310000e-06	5.193488e-06	3.219779e-08	3.683097e+01	2.115830e+03
1.320000e-06	5.265862e-06	3.238096e-08	3.734423e+01	2.128049e+03
1.330000e-06	5.336341e-06	3.255596e-08	3.784404e+01	2.139655e+03
1.340000e-06	5.404986e-06	3.272327e-08	3.833086e+01	2.150680e+03
1.350000e-06	5.471653e-06	3.288440e-08	3.880365e+01	2.161162e+03
1.360000e-06	5.536275e-06	3.303933e-08	3.926193e+01	2.171130e+03
1.370000e-06	5.598995e-06	3.318618e-08	3.970673e+01	2.180610e+03
1.380000e-06	5.659894e-06	3.332568e-08	4.013860e+01	2.189615e+03
1.390000e-06	5.718813e-06	3.345762e-08	4.055644e+01	2.198147e+03
1.400000e-06	5.775603e-06	3.358205e-08	4.095919e+01	2.206201e+03
1.410000e-06	5.830338e-06	3.369920e-08	4.134736e+01	2.213770e+03
1.420000e-06	5.882840e-06	3.380842e-08	4.171968e+01	2.220854e+03
1.430000e-06	5.932784e-06	3.390846e-08	4.207387e+01	2.227461e+03
1.440000e-06	5.980318e-06	3.400142e-08	4.241098e+01	2.233615e+03
1.450000e-06	6.025825e-06	3.408778e-08	4.273370e+01	2.239352e+03
1.460000e-06	6.069420e-06	3.416847e-08	4.304287e+01	2.244712e+03
1.470000e-06	6.110845e-06	3.424529e-08	4.333664e+01	2.249739e+03
1.480000e-06	6.150000e-06	3.431812e-08	4.361432e+01	2.254467e+03
1.490000e-06	6.187116e-06	3.438647e-08	4.387753e+01	2.258913e+03
1.500000e-06	6.222091e-06	3.444990e-08	4.412557e+01	2.263080e+03
1.510000e-06	6.254741e-06	3.451067e-08	4.435711e+01	2.266953e+03
1.520000e-06	6.285180e-06	3.456754e-08	4.457298e+01	2.270508e+03
1.530000e-06	6.313598e-06	3.461794e-08	4.477452e+01	2.273719e+03
1.540000e-06	6.339698e-06	3.466107e-08	4.495961e+01	2.276568e+03
1.550000e-06	6.363292e-06	3.469731e-08	4.512694e+01	2.279046e+03
1.560000e-06	6.384707e-06	3.472852e-08	4.527880e+01	2.281160e+03
1.570000e-06	6.403980e-06	3.475546e-08	4.541548e+01	2.282933e+03
1.580000e-06	6.420862e-06	3.477832e-08	4.553521e+01	2.284394e+03
1.590000e-06	6.435285e-06	3.479783e-08	4.563749e+01	2.285576e+03
1.600000e-06	6.447277e-06	3.481361e-08	4.572253e+01	2.286507e+03
1.610000e-06	6.456766e-06	3.482625e-08	4.578983e+01	2.287205e+03
1.620000e-06	6.463829e-06	3.483623e-08	4.583991e+01	2.287680e+03
1.630000e-06	6.468682e-06	3.484390e-08	4.587434e+01	2.287931e+03
1.640000e-06	6.471179e-06	3.484691e-08	4.589204e+01	2.287952e+03
1.650000e-06	6.471258e-06	3.484872e-08	4.589260e+01	2.287734e+03
1.660000e-06	6.469217e-06	3.483156e-08	4.587813e+01	2.287272e+03
1.670000e-06	6.465153e-06	3.481724e-08	4.584931e+01	2.286561e+03
1.680000e-06	6.458882e-06	3.480454e-08	4.580484e+01	2.285602e+03
1.690000e-06	6.450421e-06	3.478563e-08	4.574483e+01	2.284396e+03
1.700000e-06	6.439941e-06	3.476795e-08	4.567051e+01	2.282946e+03
1.710000e-06	6.427230e-06	3.475095e-08	4.558036e+01	2.281252e+03
1.720000e-06	6.412222e-06	3.475750e-08	4.547393e+01	2.279316e+03
1.730000e-06	6.395237e-06	3.469629e-08	4.535348e+01	2.277142e+03
1.740000e-06	6.376196e-06	3.451533e-08	4.521845e+01	2.274741e+03
1.750000e-06	6.354299e-06	3.453053e-08	4.506316e+01	2.272132e+03
1.760000e-06	6.329210e-06	3.456475e-08	4.488523e+01	2.269345e+03
1.770000e-06	6.301748e-06	3.446792e-08	4.469048e+01	2.266414e+03
1.780000e-06	6.272285e-06	3.460789e-08	4.448154e+01	2.263375e+03
1.790000e-06	6.241139e-06	3.454645e-08	4.426066e+01	2.260254e+03
1.800000e-06	6.208690e-06	3.423892e-08	4.403053e+01	2.257057e+03
1.810000e-06	6.174244e-06	3.442076e-08	4.378625e+01	2.253766e+03
1.820000e-06	6.137587e-06	3.429585e-08	4.352629e+01	2.250336e+03
1.830000e-06	6.098820e-06	3.422341e-08	4.325136e+01	2.246694e+03
1.840000e-06	6.057686e-06	3.443443e-08	4.295965e+01	2.242758e+03
1.850000e-06	6.014550e-06	3.405315e-08	4.265374e+01	2.238442e+03
1.860000e-06	5.969404e-06	3.406395e-08	4.233357e+01	2.233677e+03
1.870000e-06	5.921963e-06	3.402298e-08	4.199714e+01	2.228423e+03
1.880000e-06	5.872450e-06	3.382460e-08	4.164600e+01	2.222673e+03
1.890000e-06	5.820333e-06	3.394511e-08	4.127640e+01	2.216454e+03
1.900000e-06	5.765599e-06	3.367251e-08	4.088824e+01	2.209819e+03
1.910000e-06	5.708702e-06	3.363493e-08	4.048474e+01	2.202832e+03
1.920000e-06	5.649842e-06	3.355928e-08	4.006732e+01	2.195552e+03
1.930000e-06	5.589090e-06	3.332489e-08	3.963648e+01	2.188018e+03
1.940000e-06	5.526063e-06	3.335191e-08	3.918951e+01	2.180240e+03
1.950000e-06	5.460939e-06	3.311589e-08	3.872766e+01	2.172198e+03
1.960000e-06	5.393927e-06	3.309266e-08	3.825243e+01	2.163848e+03
1.970000e-06	5.324772e-06	3.289483e-08	3.776200e+01	2.155133e+03
1.980000e-06	5.253467e-06	3.270304e-08	3.725633e+01	2.145998e+03
1.990000e-06	5.180268e-06	3.266616e-08	3.673721e+01	2.136402e+03
2.000000e-06	5.105260e-06	3.243517e-08	3.620528e+01	2.126327e+03
2.010000e-06	5.028094e-06	3.236425e-08	3.565803e+01	2.115773e+03
2.020000e-06	4.948842e-06	3.211292e-08	3.509600e+01	2.104759e+03
2.030000e-06	4.867858e-06	3.195930e-08	3.452167e+01	2.093307e+03
2.040000e-06	4.785224e-06	3.179769e-08	3.393566e+01	2.081434e+03
2.050000e-06	4.701043e-06	3.157653e-08	3.333866e+01	2.069137e+03
2.060000e-06	4.615045e-06	3.142315e-08	3.272879e+01	2.056396e+03
2.070000e-06	4.527301e-06	3.118507e-08	3.210653e+01	2.043169e+03
2.080000e-06	4.438058e-06	3.102084e-08	3.147364e+01	2.029403e+03
2.090000e-06	4.347365e-06	3.076128e-08	3.083046e+01	2.015046e+03
2.100000e-06	4.255250e-06	3.054824e-08	3.017721e+01	2.000052e+03
2.110000e-06	4.161503e-06	3.031774e-08	2.951238e+01	1.984392e+03
2.120000e-06	4.066204e-06	3.006640e-08	2.883654e+01	1.968052e+03
2.130000e-06	3.969544e-06	2.981297e-08	2.815105e+01	1.951030e+03
2.140000e-06	3.871537e-06	2.952663e-08	2.745600e+01	1.933327e+03
2.150000e-06	3.772292e-06	2.926661e-08	2.675218e+01	1.914937e+03
2.160000e-06	3.671709e-06	2.896358e-08	2.603887e+01	1.895835e+03
2.170000e-06	3.569501e-06	2.867577e-08	2.531404e+01	1.875979e+03
2.180000e-06	3.465839e-06	2.835005e-08	2.457889e+01	1.855308e+03
2.190000e-06	3.360951e-06	2.802828e-08	2.383506e+01	1.833748e+03
2.200000e-06	3.254847e-06	2.767907e-08	2.308259e+01	1.811224e+03
2.210000e-06	3.147734e-06	2.732235e-08	2.232297e+01	1.787668e+03
2.220000e-06	3.039636e-06	2.695100e-08	2.155636e+01	1.763021e+03
2.230000e-06	2.930299e-06	2.655802e-08	2.078098e+01	1.737234e+03
2.240000e-06	2.819841e-06	2.614663e-08	1.999763e+01	1.710263e+03
2.250000e-06	2.708362e-06	2.571161e-08	1.920705e+01	1.682054e+03
2.260000e-06	2.595801e-06	2.526898e-08	1.840879e+01	1.652539e+03
2.270000e-06	2.482214e-06	2.479649e-08	1.760326e+01	1.621620e+03
2.280000e-06	2.367617e-06	2.431019e-08	1.679057e+01	1.589174e+03
2.290000e-06	2.252113e-06	2.378575e-08	1.597144e+01	1.555054e+03
2.300000e-06	2.135760e-06	2.323315e-08	1.514629e+01	1.519100e+03
2.310000e-06	2.018400e-06	2.264966e-08	1.431400e+01	1.481151e+03
2.320000e-06	1.900099e-06	2.204239e-08	1.347504e+01	1.441054e+03
2.330000e-06	1.781142e-06	2.140140e-08	1.263143e+01	1.398668e+03
2.340000e-06	1.661589e-06	2.072105e-08	1.178359e+01	1.353861e+03
2.350000e-06	1.541436e-06	2.000128e-08	1.093149e+01	1.306502e+03
2.360000e-06	1.420767e-06	1.923876e-08	1.007574e+01	1.256447e+03
2.370000e-06	1.299689e-06	1.843183e-08	9.217082e+00	1.203532e+03
2.380000e-06	1.178291e-06	1.757545e-08	8.356154e+00	1.147577e+03
2.390000e-06	1.056502e-06	1.667657e-08	7.492460e+00	1.088400e+03
2.400000e-06	9.342970e-07	1.572364e-08	6.625809e+00	1.025849e+03
2.410000e-06	8.117595e-07	1.471683e-08	5.756803e+00	9.598461e+02
2.420000e-06	6.889635e-07	1.365661e-08	4.885963e+00	8.904242e+02
2.430000e-06	5.660740e-07	1.254784e-08	4.014461e+00	8.177676e+02
2.440000e-06	4.431011e-07	1.139636e-08	3.142366e+00	7.422235e+02
2.450000e-06	3.200209e-07	1.020678e-08	2.269511e+00	6.642876e+02
2.460000e-06	1.968550e-07	8.988919e-09	1.396048e+00	5.845579e+02
2.470000e-06	7.358266e-08	7.749623e-09	5.218305e-01	5.036621e+02
2.480000e-06	-4.976484e-08	6.502117e-09	-3.529203e-01	4.221677e+02
2.490000e-06	-1.730687e-07	5.252434e-09	-1.227361e+00	3.404951e+02
2.500000e-06	-2.962948e-07	4.005024e-09	-2.101251e+00	2.588488e+02
2.510000e-06	-4.195099e-07	2.759775e-09	-2.975063e+00	1.771843e+02
2.520000e-06	-5.426336e-07	1.507245e-09	-3.848227e+00	9.522195e+01
2.530000e-06	-6.656297e-07	2.413860e-10	-4.720486e+00	1.250666e+01
2.540000e-06	-7.884823e-07	-1.043760e-09	-5.591727e+00	-7.149250e+01
2.550000e-06	-9.110939e-07	-2.354003e-09	-6.461258e+00	-1.572612e+02
2.560000e-06	-1.033376e-06	-3.694216e-09	-7.328454e+00	-2.451186e+02
2.570000e-06	-1.155280e-06	-5.065582e-09	-8.192969e+00	-3.351187e+02
2.580000e-06	-1.276851e-06	-6.464175e-09	-9.055118e+00	-4.269936e+02
2.590000e-06	-1.398047e-06	-7.884693e-09	-9.914612e+00	-5.201487e+02
2.600000e-06	-1.518728e-06	-9.315916e-09	-1.077045e+01	-6.137115e+02
2.610000e-06	-1.638764e-06	-1.074003e-08	-1.162172e+01	-7.066247e+02
2.620000e-06	-1.758133e-06	-1.213796e-08	-1.246826e+01	-7.977652e+02
2.630000e-06	-1.876918e-06	-1.349098e-08	-1.331065e+01	-8.860692e+02
2.640000e-06	-1.995051e-06	-1.478629e-08	-1.414842e+01	-9.706403e+02
2.650000e-06	-2.112198e-06	-1.601457e-08	-1.497920e+01	-1.050826e+03
2.660000e-06	-2.228234e-06	-1.716951e-08	-1.580210e+01	-1.126249e+03
2.670000e-06	-2.343334e-06	-1.825147e-08	-1.661836e+01	-1.196802e+03
2.680000e-06	-2.457512e-06	-1.926302e-08	-1.742808e+01	-1.262601e+03
2.690000e-06	-2.570680e-06	-2.020579e-08	-1.823064e+01	-1.323919e+03
2.700000e-06	-2.682704e-06	-2.108293e-08	-1.902509e+01	-1.381116e+03
2.710000e-06	-2.793473e-06	-2.190118e-08	-1.981064e+01	-1.434569e+03
2.720000e-06	-2.903185e-06	-2.266839e-08	-2.058869e+01	-1.484630e+03
2.730000e-06	-3.011985e-06	-2.339155e-08	-2.136027e+01	-1.531597e+03
2.740000e-06	-3.119853e-06	-2.407057e-08	-2.212525e+01	-1.575708e+03
2.750000e-06	-3.226801e-06	-2.470539e-08	-2.288369e+01	-1.617156e+03
2.760000e-06	-3.332726e-06	-2.530181e-08	-2.363489e+01	-1.656105e+03
2.770000e-06	-3.437520e-06	-2.586461e-08	-2.437806e+01	-1.692706e+03
2.780000e-06	-3.541084e-06	-2.639171e-08	-2.511251e+01	-1.727116e+03
2.790000e-06	-3.643266e-06	-2.688557e-08	-2.583716e+01	-1.759497e+03
2.800000e-06	-3.743965e-06	-2.735262e-08	-2.655130e+01	-1.790015e+03
2.810000e-06	-3.843391e-06	-2.779536e-08	-2.725640e+01	-1.818830e+03
2.820000e-06	-3.941643e-06	-2.821267e-08	-2.795318e+01	-1.846087e+03
2.830000e-06	-4.038556e-06	-2.860764e-08	-2.864046e+01	-1.871910e+03
2.840000e-06	-4.134128e-06	-2.898533e-08	-2.931824e+01	-1.896398e+03
2.850000e-06	-4.228246e-06	-2.934307e-08	-2.998570e+01	-1.919628e+03
2.860000e-06	-4.320709e-06	-2.967989e-08	-3.064143e+01	-1.941663e+03
2.870000e-06	-4.411612e-06	-2.999668e-08	-3.128609e+01	-1.962560e+03
2.880000e-06	-4.501026e-06	-3.029778e-08	-3.192019e+01	-1.982375e+03
2.890000e-06	-4.588849e-06	-3.058547e-08	-3.254301e+01	-2.001167e+03
2.900000e-06	-4.674928e-06	-3.085919e-08	-3.315346e+01	-2.019001e+03
2.910000e-06	-4.759256e-06	-3.111854e-08	-3.375150e+01	-2.035939e+03
2.920000e-06	-4.841963e-06	-3.136534e-08	-3.433804e+01	-2.052040e+03
2.930000e-06	-4.923008e-06	-3.160175e-08	-3.491279e+01	-2.067355e+03
2.940000e-06	-5.002293e-06	-3.182762e-08	-3.547506e+01	-2.081926e+03
