# Temperatura_=_82.16
# Concentracion g/m^3_=_28200.0
# C_Vs_to_Am_M_A/Vsm_=_65563218390.804596
# pendiente_HvsI_1/m_=_3716.3
# ordenada_HvsI_A/m_=_1297.0
# frecuencia_Hz_=_302143.67189583264

Tiempo_(s)	Campo_(V.s)	Magnetizacion_(V.s)	Campo_(kA/m)	Magnetizacion_(A/m)
0.000000e+00	-6.410571e-06	-3.528249e-08	-4.585371e+01	-2.309637e+03
1.000000e-08	-6.407851e-06	-3.528158e-08	-4.583426e+01	-2.309041e+03
2.000000e-08	-6.403010e-06	-3.526805e-08	-4.579963e+01	-2.308209e+03
3.000000e-08	-6.396166e-06	-3.525343e-08	-4.575068e+01	-2.307144e+03
4.000000e-08	-6.387250e-06	-3.523534e-08	-4.568690e+01	-2.305841e+03
5.000000e-08	-6.376028e-06	-3.520607e-08	-4.560663e+01	-2.304292e+03
6.000000e-08	-6.362474e-06	-3.517337e-08	-4.550968e+01	-2.302480e+03
7.000000e-08	-6.346600e-06	-3.512416e-08	-4.539614e+01	-2.300391e+03
8.000000e-08	-6.328539e-06	-3.508144e-08	-4.526695e+01	-2.298021e+03
9.000000e-08	-6.308373e-06	-3.516920e-08	-4.512271e+01	-2.295379e+03
1.000000e-07	-6.285817e-06	-3.512281e-08	-4.496137e+01	-2.292498e+03
1.100000e-07	-6.260650e-06	-3.497074e-08	-4.478135e+01	-2.289430e+03
1.200000e-07	-6.233051e-06	-3.492860e-08	-4.458395e+01	-2.286239e+03
1.300000e-07	-6.203504e-06	-3.487253e-08	-4.437260e+01	-2.282990e+03
1.400000e-07	-6.172338e-06	-3.465596e-08	-4.414967e+01	-2.279728e+03
1.500000e-07	-6.139436e-06	-3.477884e-08	-4.391433e+01	-2.276469e+03
1.600000e-07	-6.104497e-06	-3.484251e-08	-4.366442e+01	-2.273188e+03
1.700000e-07	-6.067727e-06	-3.450520e-08	-4.340141e+01	-2.269812e+03
1.800000e-07	-6.029008e-06	-3.461936e-08	-4.312446e+01	-2.266239e+03
1.900000e-07	-5.987802e-06	-3.449717e-08	-4.282972e+01	-2.262343e+03
2.000000e-07	-5.944342e-06	-3.429844e-08	-4.251886e+01	-2.258008e+03
2.100000e-07	-5.898799e-06	-3.440326e-08	-4.219310e+01	-2.253139e+03
2.200000e-07	-5.850991e-06	-3.425078e-08	-4.185114e+01	-2.247686e+03
2.300000e-07	-5.800776e-06	-3.415968e-08	-4.149196e+01	-2.241650e+03
2.400000e-07	-5.747951e-06	-3.406417e-08	-4.111411e+01	-2.235077e+03
2.500000e-07	-5.692836e-06	-3.390268e-08	-4.071988e+01	-2.228044e+03
2.600000e-07	-5.635616e-06	-3.383318e-08	-4.031059e+01	-2.220639e+03
2.700000e-07	-5.576266e-06	-3.369056e-08	-3.988607e+01	-2.212937e+03
2.800000e-07	-5.515020e-06	-3.360171e-08	-3.944799e+01	-2.204983e+03
2.900000e-07	-5.451841e-06	-3.346128e-08	-3.899609e+01	-2.196784e+03
3.000000e-07	-5.386592e-06	-3.332427e-08	-3.852937e+01	-2.188308e+03
3.100000e-07	-5.319246e-06	-3.319193e-08	-3.804765e+01	-2.179494e+03
3.200000e-07	-5.249824e-06	-3.302454e-08	-3.755109e+01	-2.170274e+03
3.300000e-07	-5.178538e-06	-3.291865e-08	-3.704119e+01	-2.160588e+03
3.400000e-07	-5.105450e-06	-3.272443e-08	-3.651841e+01	-2.150400e+03
3.500000e-07	-5.030304e-06	-3.257429e-08	-3.598090e+01	-2.139702e+03
3.600000e-07	-4.953009e-06	-3.241579e-08	-3.542802e+01	-2.128513e+03
3.700000e-07	-4.873645e-06	-3.222108e-08	-3.486035e+01	-2.116867e+03
3.800000e-07	-4.792405e-06	-3.206166e-08	-3.427925e+01	-2.104796e+03
3.900000e-07	-4.709539e-06	-3.185973e-08	-3.368653e+01	-2.092318e+03
4.000000e-07	-4.625239e-06	-3.165531e-08	-3.308354e+01	-2.079423e+03
4.100000e-07	-4.539579e-06	-3.144545e-08	-3.247083e+01	-2.066075e+03
4.200000e-07	-4.452499e-06	-3.124632e-08	-3.184796e+01	-2.052216e+03
4.300000e-07	-4.363911e-06	-3.102731e-08	-3.121430e+01	-2.037780e+03
4.400000e-07	-4.273709e-06	-3.077908e-08	-3.056911e+01	-2.022705e+03
4.500000e-07	-4.181900e-06	-3.054461e-08	-2.991241e+01	-2.006951e+03
4.600000e-07	-4.088582e-06	-3.028386e-08	-2.924493e+01	-1.990498e+03
4.700000e-07	-3.993872e-06	-3.002641e-08	-2.856748e+01	-1.973351e+03
4.800000e-07	-3.897811e-06	-2.976372e-08	-2.788037e+01	-1.955527e+03
4.900000e-07	-3.800337e-06	-2.949456e-08	-2.718316e+01	-1.937040e+03
5.000000e-07	-3.701339e-06	-2.920298e-08	-2.647505e+01	-1.917889e+03
5.100000e-07	-3.600897e-06	-2.888983e-08	-2.575660e+01	-1.898045e+03
5.200000e-07	-3.499194e-06	-2.857099e-08	-2.502914e+01	-1.877454e+03
5.300000e-07	-3.396305e-06	-2.823540e-08	-2.429318e+01	-1.856036e+03
5.400000e-07	-3.292205e-06	-2.789526e-08	-2.354858e+01	-1.833703e+03
5.500000e-07	-3.186876e-06	-2.753657e-08	-2.279517e+01	-1.810367e+03
5.600000e-07	-3.080242e-06	-2.716773e-08	-2.203244e+01	-1.785957e+03
5.700000e-07	-2.972302e-06	-2.677670e-08	-2.126037e+01	-1.760421e+03
5.800000e-07	-2.863293e-06	-2.636963e-08	-2.048064e+01	-1.733722e+03
5.900000e-07	-2.753355e-06	-2.594885e-08	-1.969428e+01	-1.705828e+03
6.000000e-07	-2.642507e-06	-2.551132e-08	-1.890140e+01	-1.676698e+03
6.100000e-07	-2.530658e-06	-2.505178e-08	-1.810136e+01	-1.646267e+03
6.200000e-07	-2.417759e-06	-2.456082e-08	-1.729382e+01	-1.614433e+03
6.300000e-07	-2.303934e-06	-2.404314e-08	-1.647965e+01	-1.581062e+03
6.400000e-07	-2.189110e-06	-2.349775e-08	-1.565833e+01	-1.545991e+03
6.500000e-07	-2.073222e-06	-2.293332e-08	-1.482940e+01	-1.509044e+03
6.600000e-07	-1.956549e-06	-2.234156e-08	-1.399486e+01	-1.470051e+03
6.700000e-07	-1.839235e-06	-2.171798e-08	-1.315573e+01	-1.428854e+03
6.800000e-07	-1.721297e-06	-2.105929e-08	-1.231214e+01	-1.385318e+03
6.900000e-07	-1.602859e-06	-2.035933e-08	-1.146498e+01	-1.339319e+03
7.000000e-07	-1.483926e-06	-1.961779e-08	-1.061427e+01	-1.290738e+03
7.100000e-07	-1.364482e-06	-1.883087e-08	-9.759903e+00	-1.239436e+03
7.200000e-07	-1.244523e-06	-1.799999e-08	-8.901859e+00	-1.185251e+03
7.300000e-07	-1.124105e-06	-1.712375e-08	-8.040527e+00	-1.127999e+03
7.400000e-07	-1.003316e-06	-1.619888e-08	-7.176550e+00	-1.067487e+03
7.500000e-07	-8.821887e-07	-1.522269e-08	-6.310144e+00	-1.003558e+03
7.600000e-07	-7.607976e-07	-1.419704e-08	-5.441854e+00	-9.361264e+02
7.700000e-07	-6.391919e-07	-1.311759e-08	-4.572030e+00	-8.652341e+02
7.800000e-07	-5.173522e-07	-1.198848e-08	-3.700531e+00	-7.910787e+02
7.900000e-07	-3.953493e-07	-1.081601e-08	-2.827866e+00	-7.140245e+02
8.000000e-07	-2.732209e-07	-9.605448e-09	-1.954302e+00	-6.345789e+02
8.100000e-07	-1.509115e-07	-8.366771e-09	-1.079444e+00	-5.533361e+02
8.200000e-07	-2.851516e-08	-7.108755e-09	-2.039640e-01	-4.708942e+02
8.300000e-07	9.386468e-08	-5.841685e-09	6.713979e-01	-3.877617e+02
8.400000e-07	2.161725e-07	-4.568470e-09	1.546245e+00	-3.042731e+02
8.500000e-07	3.384697e-07	-3.294170e-09	2.421015e+00	-2.205311e+02
8.600000e-07	4.607395e-07	-2.014354e-09	3.295591e+00	-1.363943e+02
8.700000e-07	5.828626e-07	-7.216628e-10	4.169116e+00	-5.151364e+01
8.800000e-07	7.048154e-07	5.886326e-10	5.041424e+00	3.458286e+01
8.900000e-07	8.265401e-07	1.923986e-09	5.912100e+00	1.223725e+02
9.000000e-07	9.479786e-07	3.290241e-09	6.780728e+00	2.122090e+02
9.100000e-07	1.069101e-06	4.690864e-09	7.647099e+00	3.042070e+02
9.200000e-07	1.189833e-06	6.122051e-09	8.510674e+00	3.981638e+02
9.300000e-07	1.310049e-06	7.575300e-09	9.370556e+00	4.935335e+02
9.400000e-07	1.429727e-06	9.037059e-09	1.022659e+01	5.894606e+02
9.500000e-07	1.548873e-06	1.049076e-08	1.107882e+01	6.848660e+02
9.600000e-07	1.667501e-06	1.191759e-08	1.192735e+01	7.785693e+02
9.700000e-07	1.785584e-06	1.329761e-08	1.277198e+01	8.694249e+02
9.800000e-07	1.902967e-06	1.461827e-08	1.361160e+01	9.564472e+02
9.900000e-07	2.019594e-06	1.586926e-08	1.444581e+01	1.038904e+03
1.000000e-06	2.135437e-06	1.703946e-08	1.527441e+01	1.116363e+03
1.010000e-06	2.250329e-06	1.813073e-08	1.609622e+01	1.188692e+03
1.020000e-06	2.364166e-06	1.914926e-08	1.691047e+01	1.256016e+03
1.030000e-06	2.477041e-06	2.010162e-08	1.771785e+01	1.318640e+03
1.040000e-06	2.588927e-06	2.099098e-08	1.851815e+01	1.376972e+03
1.050000e-06	2.699849e-06	2.181869e-08	1.931156e+01	1.431440e+03
1.060000e-06	2.809821e-06	2.258952e-08	2.009816e+01	1.482435e+03
1.070000e-06	2.918860e-06	2.331081e-08	2.087811e+01	1.530281e+03
1.080000e-06	3.027054e-06	2.399307e-08	2.165200e+01	1.575229e+03
1.090000e-06	3.134200e-06	2.463261e-08	2.241839e+01	1.617468e+03
1.100000e-06	3.240169e-06	2.523276e-08	2.317637e+01	1.657156e+03
1.110000e-06	3.344834e-06	2.579696e-08	2.392502e+01	1.694439e+03
1.120000e-06	3.448177e-06	2.633080e-08	2.466422e+01	1.729472e+03
1.130000e-06	3.550348e-06	2.683279e-08	2.539503e+01	1.762427e+03
1.140000e-06	3.651400e-06	2.730389e-08	2.611784e+01	1.793484e+03
1.150000e-06	3.751260e-06	2.775022e-08	2.683212e+01	1.822822e+03
1.160000e-06	3.849730e-06	2.817263e-08	2.753646e+01	1.850604e+03
1.170000e-06	3.946615e-06	2.857261e-08	2.822946e+01	1.876963e+03
1.180000e-06	4.041992e-06	2.895219e-08	2.891168e+01	1.901998e+03
1.190000e-06	4.136009e-06	2.931371e-08	2.958416e+01	1.925780e+03
1.200000e-06	4.228668e-06	2.965742e-08	3.024694e+01	1.948360e+03
1.210000e-06	4.319969e-06	2.998372e-08	3.090000e+01	1.969780e+03
1.220000e-06	4.409638e-06	3.029353e-08	3.154138e+01	1.990087e+03
1.230000e-06	4.497549e-06	3.058696e-08	3.217020e+01	2.009340e+03
1.240000e-06	4.583859e-06	3.086084e-08	3.278756e+01	2.027609e+03
1.250000e-06	4.668666e-06	3.112034e-08	3.339417e+01	2.044969e+03
1.260000e-06	4.751987e-06	3.136955e-08	3.399015e+01	2.061497e+03
1.270000e-06	4.833612e-06	3.161078e-08	3.457400e+01	2.077257e+03
1.280000e-06	4.913353e-06	3.184155e-08	3.514437e+01	2.092300e+03
1.290000e-06	4.991287e-06	3.206219e-08	3.570182e+01	2.106660e+03
1.300000e-06	5.067337e-06	3.226968e-08	3.624579e+01	2.120355e+03
1.310000e-06	5.141262e-06	3.246371e-08	3.677457e+01	2.133399e+03
1.320000e-06	5.213178e-06	3.264761e-08	3.728897e+01	2.145805e+03
1.330000e-06	5.283273e-06	3.282416e-08	3.779035e+01	2.157595e+03
1.340000e-06	5.351636e-06	3.299430e-08	3.827934e+01	2.168797e+03
1.350000e-06	5.418007e-06	3.315786e-08	3.875407e+01	2.179446e+03
1.360000e-06	5.482261e-06	3.331546e-08	3.921367e+01	2.189576e+03
1.370000e-06	5.544643e-06	3.346592e-08	3.965988e+01	2.199218e+03
1.380000e-06	5.605227e-06	3.360736e-08	4.009322e+01	2.208391e+03
1.390000e-06	5.663786e-06	3.373942e-08	4.051208e+01	2.217100e+03
1.400000e-06	5.720251e-06	3.386659e-08	4.091597e+01	2.225340e+03
1.410000e-06	5.774745e-06	3.398849e-08	4.130576e+01	2.233101e+03
1.420000e-06	5.827037e-06	3.410090e-08	4.167979e+01	2.240377e+03
1.430000e-06	5.876825e-06	3.420266e-08	4.203592e+01	2.247171e+03
1.440000e-06	5.924184e-06	3.429652e-08	4.237467e+01	2.253501e+03
1.450000e-06	5.969508e-06	3.438518e-08	4.269886e+01	2.259398e+03
1.460000e-06	6.012943e-06	3.446882e-08	4.300955e+01	2.264906e+03
1.470000e-06	6.054228e-06	3.454978e-08	4.330486e+01	2.270069e+03
1.480000e-06	6.093243e-06	3.462737e-08	4.358392e+01	2.274925e+03
1.490000e-06	6.130257e-06	3.469839e-08	4.384868e+01	2.279495e+03
1.500000e-06	6.165125e-06	3.476249e-08	4.409808e+01	2.283787e+03
1.510000e-06	6.197677e-06	3.482267e-08	4.433092e+01	2.287788e+03
1.520000e-06	6.228074e-06	3.487959e-08	4.454834e+01	2.291476e+03
1.530000e-06	6.256513e-06	3.493122e-08	4.475176e+01	2.294826e+03
1.540000e-06	6.282655e-06	3.497704e-08	4.493875e+01	2.297818e+03
1.550000e-06	6.306201e-06	3.501749e-08	4.510717e+01	2.300440e+03
1.560000e-06	6.327518e-06	3.505208e-08	4.525965e+01	2.302699e+03
1.570000e-06	6.346812e-06	3.508059e-08	4.539766e+01	2.304611e+03
1.580000e-06	6.363860e-06	3.510500e-08	4.551960e+01	2.306201e+03
1.590000e-06	6.378503e-06	3.512578e-08	4.562434e+01	2.307496e+03
1.600000e-06	6.390796e-06	3.514203e-08	4.571226e+01	2.308518e+03
1.610000e-06	6.400531e-06	3.515404e-08	4.578190e+01	2.309282e+03
1.620000e-06	6.407791e-06	3.516274e-08	4.583383e+01	2.309795e+03
1.630000e-06	6.412897e-06	3.516961e-08	4.587035e+01	2.310060e+03
1.640000e-06	6.415677e-06	3.517302e-08	4.589024e+01	2.310077e+03
1.650000e-06	6.416008e-06	3.517665e-08	4.589260e+01	2.309845e+03
1.660000e-06	6.414189e-06	3.516079e-08	4.587959e+01	2.309369e+03
1.670000e-06	6.410448e-06	3.514582e-08	4.585283e+01	2.308654e+03
1.680000e-06	6.404509e-06	3.513461e-08	4.581035e+01	2.307706e+03
1.690000e-06	6.396279e-06	3.511795e-08	4.575149e+01	2.306523e+03
1.700000e-06	6.386067e-06	3.509911e-08	4.567844e+01	2.305098e+03
1.710000e-06	6.373744e-06	3.507907e-08	4.559029e+01	2.303420e+03
1.720000e-06	6.359136e-06	3.508271e-08	4.548580e+01	2.301471e+03
1.730000e-06	6.342462e-06	3.504593e-08	4.536654e+01	2.299241e+03
1.740000e-06	6.323787e-06	3.484635e-08	4.523296e+01	2.296732e+03
1.750000e-06	6.302375e-06	3.483323e-08	4.507980e+01	2.293966e+03
1.760000e-06	6.277728e-06	3.488780e-08	4.490351e+01	2.290984e+03
1.770000e-06	6.250623e-06	3.479665e-08	4.470964e+01	2.287846e+03
1.780000e-06	6.221597e-06	3.491180e-08	4.450202e+01	2.284618e+03
1.790000e-06	6.190872e-06	3.488457e-08	4.428225e+01	2.281358e+03
1.800000e-06	6.158835e-06	3.452134e-08	4.405309e+01	2.278099e+03
1.810000e-06	6.124858e-06	3.468370e-08	4.381006e+01	2.274835e+03
1.820000e-06	6.088765e-06	3.461735e-08	4.355189e+01	2.271517e+03
1.830000e-06	6.050658e-06	3.449195e-08	4.327932e+01	2.268058e+03
1.840000e-06	6.010111e-06	3.480074e-08	4.298929e+01	2.264339e+03
1.850000e-06	5.967499e-06	3.446196e-08	4.268449e+01	2.260237e+03
1.860000e-06	5.922979e-06	3.439877e-08	4.236605e+01	2.255644e+03
1.870000e-06	5.876239e-06	3.440026e-08	4.203173e+01	2.250486e+03
1.880000e-06	5.827390e-06	3.413658e-08	4.168232e+01	2.244739e+03
1.890000e-06	5.776066e-06	3.426714e-08	4.131521e+01	2.238426e+03
1.900000e-06	5.722129e-06	3.404020e-08	4.092941e+01	2.231612e+03
1.910000e-06	5.665975e-06	3.396109e-08	4.052775e+01	2.224382e+03
1.920000e-06	5.607778e-06	3.395379e-08	4.011148e+01	2.216821e+03
1.930000e-06	5.547723e-06	3.366356e-08	3.968191e+01	2.208990e+03
1.940000e-06	5.485487e-06	3.367970e-08	3.923675e+01	2.200916e+03
1.950000e-06	5.421108e-06	3.344190e-08	3.877626e+01	2.192584e+03
1.960000e-06	5.354790e-06	3.338694e-08	3.830189e+01	2.183947e+03
1.970000e-06	5.286404e-06	3.324981e-08	3.781274e+01	2.174938e+03
1.980000e-06	5.215942e-06	3.302216e-08	3.730874e+01	2.165492e+03
1.990000e-06	5.143476e-06	3.299342e-08	3.679040e+01	2.155558e+03
2.000000e-06	5.069240e-06	3.273800e-08	3.625940e+01	2.145114e+03
2.010000e-06	4.993007e-06	3.263993e-08	3.571412e+01	2.134167e+03
2.020000e-06	4.914615e-06	3.241023e-08	3.515340e+01	2.122745e+03
2.030000e-06	4.834395e-06	3.223502e-08	3.457959e+01	2.110883e+03
2.040000e-06	4.752574e-06	3.210609e-08	3.399435e+01	2.098608e+03
2.050000e-06	4.669233e-06	3.185982e-08	3.339822e+01	2.085924e+03
2.060000e-06	4.584227e-06	3.169489e-08	3.279019e+01	2.072809e+03
2.070000e-06	4.497470e-06	3.144263e-08	3.216963e+01	2.059214e+03
2.080000e-06	4.409066e-06	3.126383e-08	3.153729e+01	2.045074e+03
2.090000e-06	4.319201e-06	3.101568e-08	3.089451e+01	2.030326e+03
2.100000e-06	4.227967e-06	3.079257e-08	3.024192e+01	2.014915e+03
2.110000e-06	4.135324e-06	3.057275e-08	2.957926e+01	1.998812e+03
2.120000e-06	4.041208e-06	3.029993e-08	2.890607e+01	1.982010e+03
2.130000e-06	3.945558e-06	3.003437e-08	2.822190e+01	1.964523e+03
2.140000e-06	3.848487e-06	2.972953e-08	2.752757e+01	1.946366e+03
2.150000e-06	3.750125e-06	2.946444e-08	2.682400e+01	1.927549e+03
2.160000e-06	3.650487e-06	2.916071e-08	2.611131e+01	1.908056e+03
2.170000e-06	3.549406e-06	2.886860e-08	2.538829e+01	1.887848e+03
2.180000e-06	3.446859e-06	2.854339e-08	2.465479e+01	1.866854e+03
2.190000e-06	3.342983e-06	2.821088e-08	2.391178e+01	1.844990e+03
2.200000e-06	3.237893e-06	2.785745e-08	2.316009e+01	1.822165e+03
2.210000e-06	3.131718e-06	2.749229e-08	2.240064e+01	1.798300e+03
2.220000e-06	3.024473e-06	2.712132e-08	2.163354e+01	1.773333e+03
2.230000e-06	2.916170e-06	2.672465e-08	2.085886e+01	1.747219e+03
2.240000e-06	2.806898e-06	2.631031e-08	2.007726e+01	1.719926e+03
2.250000e-06	2.696592e-06	2.586575e-08	1.928826e+01	1.691421e+03
2.260000e-06	2.585133e-06	2.541309e-08	1.849101e+01	1.661651e+03
2.270000e-06	2.472633e-06	2.493479e-08	1.768632e+01	1.630533e+03
2.280000e-06	2.359182e-06	2.444722e-08	1.687482e+01	1.597949e+03
2.290000e-06	2.244842e-06	2.392698e-08	1.605697e+01	1.563750e+03
2.300000e-06	2.129631e-06	2.337764e-08	1.523289e+01	1.527763e+03
2.310000e-06	2.013535e-06	2.279475e-08	1.440247e+01	1.489814e+03
2.320000e-06	1.896619e-06	2.218218e-08	1.356619e+01	1.449737e+03
2.330000e-06	1.778956e-06	2.153882e-08	1.272457e+01	1.407386e+03
2.340000e-06	1.660608e-06	2.085868e-08	1.187804e+01	1.362634e+03
2.350000e-06	1.541566e-06	2.014336e-08	1.102656e+01	1.315359e+03
2.360000e-06	1.421921e-06	1.938315e-08	1.017075e+01	1.265436e+03
2.370000e-06	1.301778e-06	1.857808e-08	9.311391e+00	1.212715e+03
2.380000e-06	1.181326e-06	1.772435e-08	8.449824e+00	1.157021e+03
2.390000e-06	1.060625e-06	1.682738e-08	7.586472e+00	1.098162e+03
2.400000e-06	9.395644e-07	1.587906e-08	6.720543e+00	1.035957e+03
2.410000e-06	8.181611e-07	1.487828e-08	5.852166e+00	9.702805e+02
2.420000e-06	6.964647e-07	1.382502e-08	4.981692e+00	9.011045e+02
2.430000e-06	5.745756e-07	1.271952e-08	4.109841e+00	8.285454e+02
2.440000e-06	4.525077e-07	1.156422e-08	3.236710e+00	7.528851e+02
2.450000e-06	3.302599e-07	1.036489e-08	2.362292e+00	6.745647e+02
2.460000e-06	2.078895e-07	9.135676e-09	1.486998e+00	5.941438e+02
2.470000e-06	8.546018e-08	7.885208e-09	6.112820e-01	5.122301e+02
2.480000e-06	-3.701605e-08	6.623115e-09	-2.647694e-01	4.293885e+02
2.490000e-06	-1.595187e-07	5.353385e-09	-1.141010e+00	3.460497e+02
2.500000e-06	-2.819672e-07	4.076642e-09	-2.016863e+00	2.624371e+02
2.510000e-06	-4.042925e-07	2.793452e-09	-2.891835e+00	1.785298e+02
2.520000e-06	-5.264872e-07	1.498251e-09	-3.765873e+00	9.407485e+01
2.530000e-06	-6.485572e-07	1.871436e-10	-4.639019e+00	8.648595e+00
2.540000e-06	-7.704705e-07	-1.142459e-09	-5.511043e+00	-7.823956e+01
2.550000e-06	-8.921883e-07	-2.494979e-09	-6.381670e+00	-1.670210e+02
2.560000e-06	-1.013614e-06	-3.877836e-09	-7.250207e+00	-2.579425e+02
2.570000e-06	-1.134667e-06	-5.295600e-09	-8.116077e+00	-3.509667e+02
2.580000e-06	-1.255303e-06	-6.741838e-09	-8.978966e+00	-4.457190e+02
2.590000e-06	-1.375525e-06	-8.205553e-09	-9.838896e+00	-5.414908e+02
2.600000e-06	-1.495321e-06	-9.673383e-09	-1.069577e+01	-6.373015e+02
2.610000e-06	-1.614468e-06	-1.112585e-08	-1.154801e+01	-7.320044e+02
2.620000e-06	-1.732841e-06	-1.254290e-08	-1.239472e+01	-8.244197e+02
2.630000e-06	-1.850520e-06	-1.390709e-08	-1.323645e+01	-9.134677e+02
2.640000e-06	-1.967377e-06	-1.520741e-08	-1.407231e+01	-9.982804e+02
2.650000e-06	-2.083331e-06	-1.643494e-08	-1.490171e+01	-1.078273e+03
2.660000e-06	-2.198421e-06	-1.758195e-08	-1.572493e+01	-1.153166e+03
2.670000e-06	-2.312615e-06	-1.865067e-08	-1.654173e+01	-1.222964e+03
2.680000e-06	-2.425756e-06	-1.964630e-08	-1.735101e+01	-1.287891e+03
2.690000e-06	-2.537811e-06	-2.057366e-08	-1.815253e+01	-1.348316e+03
2.700000e-06	-2.648775e-06	-2.144146e-08	-1.894623e+01	-1.404663e+03
2.710000e-06	-2.758640e-06	-2.225323e-08	-1.973208e+01	-1.457349e+03
2.720000e-06	-2.867634e-06	-2.301189e-08	-2.051169e+01	-1.506734e+03
2.730000e-06	-2.975798e-06	-2.372447e-08	-2.128537e+01	-1.553104e+03
2.740000e-06	-3.083031e-06	-2.439257e-08	-2.205239e+01	-1.596677e+03
2.750000e-06	-3.189248e-06	-2.501818e-08	-2.281214e+01	-1.637622e+03
2.760000e-06	-3.294379e-06	-2.560744e-08	-2.356412e+01	-1.676089e+03
2.770000e-06	-3.398395e-06	-2.616435e-08	-2.430813e+01	-1.712227e+03
2.780000e-06	-3.501227e-06	-2.668546e-08	-2.504367e+01	-1.746198e+03
2.790000e-06	-3.602654e-06	-2.717101e-08	-2.576917e+01	-1.778181e+03
2.800000e-06	-3.702647e-06	-2.762960e-08	-2.648440e+01	-1.808357e+03
2.810000e-06	-3.801415e-06	-2.806700e-08	-2.719087e+01	-1.836899e+03
2.820000e-06	-3.898970e-06	-2.848333e-08	-2.788866e+01	-1.863954e+03
2.830000e-06	-3.995238e-06	-2.887957e-08	-2.857725e+01	-1.889641e+03
2.840000e-06	-4.090143e-06	-2.925749e-08	-2.925609e+01	-1.914042e+03
2.850000e-06	-4.183505e-06	-2.961378e-08	-2.992389e+01	-1.937217e+03
2.860000e-06	-4.275362e-06	-2.994712e-08	-3.058093e+01	-1.959212e+03
2.870000e-06	-4.365777e-06	-3.026227e-08	-3.122765e+01	-1.980069e+03
2.880000e-06	-4.454622e-06	-3.056250e-08	-3.186315e+01	-1.999842e+03
2.890000e-06	-4.541876e-06	-3.084927e-08	-3.248726e+01	-2.018593e+03
2.900000e-06	-4.627349e-06	-3.112308e-08	-3.309863e+01	-2.036398e+03
2.910000e-06	-4.711070e-06	-3.138334e-08	-3.369747e+01	-2.053333e+03
2.920000e-06	-4.793254e-06	-3.163254e-08	-3.428532e+01	-2.069469e+03
2.930000e-06	-4.873822e-06	-3.187138e-08	-3.486161e+01	-2.084866e+03
2.940000e-06	-4.952510e-06	-3.209946e-08	-3.542446e+01	-2.099564e+03
