# Temperatura_=_90.88
# Concentracion g/m^3_=_28200.0
# C_Vs_to_Am_M_A/Vsm_=_65563218390.804596
# pendiente_HvsI_1/m_=_3716.3
# ordenada_HvsI_A/m_=_1297.0
# frecuencia_Hz_=_302142.9793231012

Tiempo_(s)	Campo_(V.s)	Magnetizacion_(V.s)	Campo_(kA/m)	Magnetizacion_(A/m)
0.000000e+00	-6.369133e-06	-3.582957e-08	-4.585689e+01	-2.346168e+03
1.000000e-08	-6.366266e-06	-3.582573e-08	-4.583625e+01	-2.345491e+03
2.000000e-08	-6.361243e-06	-3.581076e-08	-4.580009e+01	-2.344557e+03
3.000000e-08	-6.354311e-06	-3.579209e-08	-4.575018e+01	-2.343373e+03
4.000000e-08	-6.345369e-06	-3.577046e-08	-4.568579e+01	-2.341947e+03
5.000000e-08	-6.334120e-06	-3.574125e-08	-4.560481e+01	-2.340280e+03
6.000000e-08	-6.320478e-06	-3.570703e-08	-4.550658e+01	-2.338369e+03
7.000000e-08	-6.304490e-06	-3.565802e-08	-4.539147e+01	-2.336212e+03
8.000000e-08	-6.286349e-06	-3.562158e-08	-4.526086e+01	-2.333806e+03
9.000000e-08	-6.266166e-06	-3.567451e-08	-4.511554e+01	-2.331160e+03
1.000000e-07	-6.243650e-06	-3.563789e-08	-4.495343e+01	-2.328295e+03
1.100000e-07	-6.218538e-06	-3.551762e-08	-4.477263e+01	-2.325241e+03
1.200000e-07	-6.191055e-06	-3.546546e-08	-4.457476e+01	-2.322040e+03
1.300000e-07	-6.161620e-06	-3.539303e-08	-4.436283e+01	-2.318731e+03
1.400000e-07	-6.130535e-06	-3.522566e-08	-4.413902e+01	-2.315339e+03
1.500000e-07	-6.097786e-06	-3.530070e-08	-4.390323e+01	-2.311866e+03
1.600000e-07	-6.063023e-06	-3.532560e-08	-4.365294e+01	-2.308286e+03
1.700000e-07	-6.026333e-06	-3.509571e-08	-4.338878e+01	-2.304538e+03
1.800000e-07	-5.987710e-06	-3.515721e-08	-4.311070e+01	-2.300540e+03
1.900000e-07	-5.946703e-06	-3.503824e-08	-4.281546e+01	-2.296198e+03
2.000000e-07	-5.903423e-06	-3.484385e-08	-4.250384e+01	-2.291425e+03
2.100000e-07	-5.858100e-06	-3.486859e-08	-4.217753e+01	-2.286154e+03
2.200000e-07	-5.810647e-06	-3.473603e-08	-4.183587e+01	-2.280358e+03
2.300000e-07	-5.760783e-06	-3.463762e-08	-4.147686e+01	-2.274043e+03
2.400000e-07	-5.708267e-06	-3.455332e-08	-4.109875e+01	-2.267254e+03
2.500000e-07	-5.653472e-06	-3.441659e-08	-4.070423e+01	-2.260054e+03
2.600000e-07	-5.596597e-06	-3.432753e-08	-4.029474e+01	-2.252510e+03
2.700000e-07	-5.537565e-06	-3.419013e-08	-3.986972e+01	-2.244674e+03
2.800000e-07	-5.476562e-06	-3.407891e-08	-3.943050e+01	-2.236572e+03
2.900000e-07	-5.413673e-06	-3.394263e-08	-3.897771e+01	-2.228196e+03
3.000000e-07	-5.348778e-06	-3.381724e-08	-3.851048e+01	-2.219506e+03
3.100000e-07	-5.281783e-06	-3.368566e-08	-3.802812e+01	-2.210447e+03
3.200000e-07	-5.212728e-06	-3.350908e-08	-3.753094e+01	-2.200958e+03
3.300000e-07	-5.141810e-06	-3.337468e-08	-3.702034e+01	-2.190991e+03
3.400000e-07	-5.069164e-06	-3.319106e-08	-3.649729e+01	-2.180521e+03
3.500000e-07	-4.994505e-06	-3.302972e-08	-3.595976e+01	-2.169548e+03
3.600000e-07	-4.917709e-06	-3.286970e-08	-3.540684e+01	-2.158094e+03
3.700000e-07	-4.838884e-06	-3.268454e-08	-3.483931e+01	-2.146193e+03
3.800000e-07	-4.758085e-06	-3.251101e-08	-3.425756e+01	-2.133871e+03
3.900000e-07	-4.675609e-06	-3.229811e-08	-3.366375e+01	-2.121138e+03
4.000000e-07	-4.591762e-06	-3.208809e-08	-3.306007e+01	-2.107978e+03
4.100000e-07	-4.506580e-06	-3.188085e-08	-3.244676e+01	-2.094351e+03
4.200000e-07	-4.420007e-06	-3.167686e-08	-3.182345e+01	-2.080196e+03
4.300000e-07	-4.332012e-06	-3.145530e-08	-3.118990e+01	-2.065451e+03
4.400000e-07	-4.242414e-06	-3.120907e-08	-3.054481e+01	-2.050058e+03
4.500000e-07	-4.151105e-06	-3.096803e-08	-2.988739e+01	-2.033980e+03
4.600000e-07	-4.058276e-06	-3.070563e-08	-2.921904e+01	-2.017204e+03
4.700000e-07	-3.964126e-06	-3.044032e-08	-2.854117e+01	-1.999736e+03
4.800000e-07	-3.868678e-06	-3.016602e-08	-2.785396e+01	-1.981591e+03
4.900000e-07	-3.771797e-06	-2.988288e-08	-2.715643e+01	-1.962780e+03
5.000000e-07	-3.673331e-06	-2.958496e-08	-2.644749e+01	-1.943296e+03
5.100000e-07	-3.573432e-06	-2.927282e-08	-2.572822e+01	-1.923107e+03
5.200000e-07	-3.472294e-06	-2.895287e-08	-2.500005e+01	-1.902151e+03
5.300000e-07	-3.369983e-06	-2.861508e-08	-2.426342e+01	-1.880348e+03
5.400000e-07	-3.266493e-06	-2.826892e-08	-2.351830e+01	-1.857607e+03
5.500000e-07	-3.161838e-06	-2.790610e-08	-2.276480e+01	-1.833842e+03
5.600000e-07	-3.055910e-06	-2.753037e-08	-2.200214e+01	-1.808982e+03
5.700000e-07	-2.948621e-06	-2.713437e-08	-2.122967e+01	-1.782977e+03
5.800000e-07	-2.840230e-06	-2.671842e-08	-2.044927e+01	-1.755788e+03
5.900000e-07	-2.730860e-06	-2.628504e-08	-1.966182e+01	-1.727385e+03
6.000000e-07	-2.620598e-06	-2.583362e-08	-1.886795e+01	-1.697724e+03
6.100000e-07	-2.509434e-06	-2.536127e-08	-1.806758e+01	-1.666736e+03
6.200000e-07	-2.397337e-06	-2.486527e-08	-1.726050e+01	-1.634318e+03
6.300000e-07	-2.284454e-06	-2.434450e-08	-1.644776e+01	-1.600333e+03
6.400000e-07	-2.170613e-06	-2.379415e-08	-1.562812e+01	-1.564616e+03
6.500000e-07	-2.055625e-06	-2.321867e-08	-1.480022e+01	-1.526988e+03
6.600000e-07	-1.939712e-06	-2.261314e-08	-1.396566e+01	-1.487274e+03
6.700000e-07	-1.823086e-06	-2.197801e-08	-1.312597e+01	-1.445314e+03
6.800000e-07	-1.705825e-06	-2.130923e-08	-1.228171e+01	-1.400964e+03
6.900000e-07	-1.588025e-06	-2.059742e-08	-1.143356e+01	-1.354096e+03
7.000000e-07	-1.469761e-06	-1.983875e-08	-1.058208e+01	-1.304581e+03
7.100000e-07	-1.351086e-06	-1.903249e-08	-9.727636e+00	-1.252281e+03
7.200000e-07	-1.231966e-06	-1.818361e-08	-8.869986e+00	-1.197035e+03
7.300000e-07	-1.112335e-06	-1.729088e-08	-8.008664e+00	-1.138663e+03
7.400000e-07	-9.923120e-07	-1.634996e-08	-7.144512e+00	-1.076987e+03
7.500000e-07	-8.719757e-07	-1.535690e-08	-6.278107e+00	-1.011865e+03
7.600000e-07	-7.514062e-07	-1.431207e-08	-5.410022e+00	-9.432333e+02
7.700000e-07	-6.306642e-07	-1.321323e-08	-4.540696e+00	-8.711508e+02
7.800000e-07	-5.097381e-07	-1.206516e-08	-3.670045e+00	-7.958294e+02
7.900000e-07	-3.886799e-07	-1.087595e-08	-2.798443e+00	-7.176402e+02
8.000000e-07	-2.675399e-07	-9.650110e-09	-1.926251e+00	-6.370891e+02
8.100000e-07	-1.463191e-07	-8.396314e-09	-1.053478e+00	-5.547598e+02
8.200000e-07	-2.500455e-08	-7.123156e-09	-1.800293e-01	-4.712333e+02
8.300000e-07	9.634704e-08	-5.839029e-09	6.936856e-01	-3.869981e+02
8.400000e-07	2.177428e-07	-4.548087e-09	1.567719e+00	-3.023683e+02
8.500000e-07	3.391625e-07	-3.254462e-09	2.441924e+00	-2.174310e+02
8.600000e-07	4.604364e-07	-1.955133e-09	3.315080e+00	-1.320354e+02
8.700000e-07	5.815394e-07	-6.421100e-10	4.187005e+00	-4.583140e+01
8.800000e-07	7.025183e-07	6.889595e-10	5.058037e+00	4.164700e+01
8.900000e-07	8.233345e-07	2.045732e-09	5.927896e+00	1.308658e+02
9.000000e-07	9.439497e-07	3.434465e-09	6.796310e+00	2.221648e+02
9.100000e-07	1.064304e-06	4.857643e-09	7.662842e+00	3.156452e+02
9.200000e-07	1.184297e-06	6.310794e-09	8.526779e+00	4.110927e+02
9.300000e-07	1.303808e-06	7.784566e-09	9.387243e+00	5.079532e+02
9.400000e-07	1.422773e-06	9.267502e-09	1.024377e+01	6.053652e+02
9.500000e-07	1.541224e-06	1.074387e-08	1.109660e+01	7.022443e+02
9.600000e-07	1.659165e-06	1.219489e-08	1.194576e+01	7.974035e+02
9.700000e-07	1.776519e-06	1.359795e-08	1.279069e+01	8.896872e+02
9.800000e-07	1.893235e-06	1.493805e-08	1.363103e+01	9.780960e+02
9.900000e-07	2.009190e-06	1.620686e-08	1.446589e+01	1.061880e+03
1.000000e-06	2.124146e-06	1.739698e-08	1.529356e+01	1.140588e+03
1.010000e-06	2.237996e-06	1.850964e-08	1.611327e+01	1.214070e+03
1.020000e-06	2.350880e-06	1.954753e-08	1.692602e+01	1.282435e+03
1.030000e-06	2.463012e-06	2.051544e-08	1.773335e+01	1.345985e+03
1.040000e-06	2.574324e-06	2.141716e-08	1.853478e+01	1.405127e+03
1.050000e-06	2.684610e-06	2.225567e-08	1.932883e+01	1.460298e+03
1.060000e-06	2.793911e-06	2.303703e-08	2.011578e+01	1.511906e+03
1.070000e-06	2.902364e-06	2.376839e-08	2.089663e+01	1.560294e+03
1.080000e-06	3.009925e-06	2.445830e-08	2.167105e+01	1.605730e+03
1.090000e-06	3.116284e-06	2.510610e-08	2.243682e+01	1.648421e+03
1.100000e-06	3.221376e-06	2.571252e-08	2.319347e+01	1.688532e+03
1.110000e-06	3.325265e-06	2.628301e-08	2.394146e+01	1.726213e+03
1.120000e-06	3.427944e-06	2.682318e-08	2.468074e+01	1.761618e+03
1.130000e-06	3.529473e-06	2.733114e-08	2.541172e+01	1.794914e+03
1.140000e-06	3.629898e-06	2.780731e-08	2.613478e+01	1.826278e+03
1.150000e-06	3.729038e-06	2.825730e-08	2.684856e+01	1.855887e+03
1.160000e-06	3.826652e-06	2.868440e-08	2.755137e+01	1.883905e+03
1.170000e-06	3.922813e-06	2.908755e-08	2.824372e+01	1.910470e+03
1.180000e-06	4.017607e-06	2.946992e-08	2.892622e+01	1.935693e+03
1.190000e-06	4.111090e-06	2.983371e-08	2.959929e+01	1.959656e+03
1.200000e-06	4.203289e-06	3.017872e-08	3.026311e+01	1.982417e+03
1.210000e-06	4.294022e-06	3.050684e-08	3.091637e+01	2.004026e+03
1.220000e-06	4.383066e-06	3.081910e-08	3.155748e+01	2.024532e+03
1.230000e-06	4.470473e-06	3.111692e-08	3.218680e+01	2.043990e+03
1.240000e-06	4.556328e-06	3.139848e-08	3.280494e+01	2.062463e+03
1.250000e-06	4.640691e-06	3.166371e-08	3.341234e+01	2.080017e+03
1.260000e-06	4.723514e-06	3.191513e-08	3.400866e+01	2.096722e+03
1.270000e-06	4.804534e-06	3.215553e-08	3.459199e+01	2.112634e+03
1.280000e-06	4.883686e-06	3.238688e-08	3.516188e+01	2.127803e+03
1.290000e-06	4.961051e-06	3.260950e-08	3.571890e+01	2.142264e+03
1.300000e-06	5.036516e-06	3.281912e-08	3.626224e+01	2.156040e+03
1.310000e-06	5.109924e-06	3.301576e-08	3.679076e+01	2.169154e+03
1.320000e-06	5.181328e-06	3.320035e-08	3.730486e+01	2.181625e+03
1.330000e-06	5.250876e-06	3.337745e-08	3.780560e+01	2.193481e+03
1.340000e-06	5.318681e-06	3.355010e-08	3.829378e+01	2.204755e+03
1.350000e-06	5.384551e-06	3.371601e-08	3.876804e+01	2.215482e+03
1.360000e-06	5.448373e-06	3.387398e-08	3.922755e+01	2.225696e+03
1.370000e-06	5.510332e-06	3.402410e-08	3.967364e+01	2.235425e+03
1.380000e-06	5.570485e-06	3.416706e-08	4.010674e+01	2.244685e+03
1.390000e-06	5.628617e-06	3.430270e-08	4.052528e+01	2.253480e+03
1.400000e-06	5.684616e-06	3.443156e-08	4.092846e+01	2.261802e+03
1.410000e-06	5.738631e-06	3.455522e-08	4.131736e+01	2.269644e+03
1.420000e-06	5.790437e-06	3.467054e-08	4.169036e+01	2.276999e+03
1.430000e-06	5.839737e-06	3.477380e-08	4.204531e+01	2.283872e+03
1.440000e-06	5.886765e-06	3.486847e-08	4.238391e+01	2.290282e+03
1.450000e-06	5.931863e-06	3.495888e-08	4.270861e+01	2.296261e+03
1.460000e-06	5.974997e-06	3.504362e-08	4.301917e+01	2.301848e+03
1.470000e-06	6.015942e-06	3.512252e-08	4.331396e+01	2.307084e+03
1.480000e-06	6.054749e-06	3.519899e-08	4.359337e+01	2.312002e+03
1.490000e-06	6.091563e-06	3.527157e-08	4.385843e+01	2.316621e+03
1.500000e-06	6.126174e-06	3.533802e-08	4.410762e+01	2.320942e+03
1.510000e-06	6.158484e-06	3.539971e-08	4.434025e+01	2.324951e+03
1.520000e-06	6.188670e-06	3.545769e-08	4.455758e+01	2.328626e+03
1.530000e-06	6.216872e-06	3.551025e-08	4.476064e+01	2.331942e+03
1.540000e-06	6.242781e-06	3.555567e-08	4.494717e+01	2.334883e+03
1.550000e-06	6.266214e-06	3.559427e-08	4.511589e+01	2.337445e+03
1.560000e-06	6.287498e-06	3.562736e-08	4.526913e+01	2.339638e+03
1.570000e-06	6.306689e-06	3.565481e-08	4.540730e+01	2.341485e+03
1.580000e-06	6.323534e-06	3.567699e-08	4.552858e+01	2.343016e+03
1.590000e-06	6.337954e-06	3.569658e-08	4.563241e+01	2.344261e+03
1.600000e-06	6.349922e-06	3.571377e-08	4.571857e+01	2.345244e+03
1.610000e-06	6.359334e-06	3.572703e-08	4.578634e+01	2.345978e+03
1.620000e-06	6.366344e-06	3.573620e-08	4.583682e+01	2.346468e+03
1.630000e-06	6.371184e-06	3.574135e-08	4.587166e+01	2.346707e+03
1.640000e-06	6.373779e-06	3.574187e-08	4.589035e+01	2.346690e+03
1.650000e-06	6.374092e-06	3.574102e-08	4.589260e+01	2.346408e+03
1.660000e-06	6.372301e-06	3.572754e-08	4.587970e+01	2.345862e+03
1.670000e-06	6.368517e-06	3.571378e-08	4.585246e+01	2.345056e+03
1.680000e-06	6.362587e-06	3.570080e-08	4.580976e+01	2.343996e+03
1.690000e-06	6.354467e-06	3.568250e-08	4.575130e+01	2.342690e+03
1.700000e-06	6.344341e-06	3.566292e-08	4.567840e+01	2.341144e+03
1.710000e-06	6.332076e-06	3.564303e-08	4.559009e+01	2.339355e+03
1.720000e-06	6.317513e-06	3.563960e-08	4.548524e+01	2.337322e+03
1.730000e-06	6.300855e-06	3.559452e-08	4.536530e+01	2.335040e+03
1.740000e-06	6.282209e-06	3.543705e-08	4.523105e+01	2.332512e+03
1.750000e-06	6.260832e-06	3.541044e-08	4.507714e+01	2.329753e+03
1.760000e-06	6.236296e-06	3.543785e-08	4.490049e+01	2.326789e+03
1.770000e-06	6.209319e-06	3.537742e-08	4.470625e+01	2.323657e+03
1.780000e-06	6.180414e-06	3.544616e-08	4.449815e+01	2.320397e+03
1.790000e-06	6.149887e-06	3.539191e-08	4.427835e+01	2.317044e+03
1.800000e-06	6.117954e-06	3.513944e-08	4.404844e+01	2.313613e+03
1.810000e-06	6.084076e-06	3.522515e-08	4.380452e+01	2.310093e+03
1.820000e-06	6.048178e-06	3.512536e-08	4.354606e+01	2.306438e+03
1.830000e-06	6.010263e-06	3.501544e-08	4.327308e+01	2.302576e+03
1.840000e-06	5.969957e-06	3.521967e-08	4.298288e+01	2.298418e+03
1.850000e-06	5.927545e-06	3.499708e-08	4.267752e+01	2.293870e+03
1.860000e-06	5.883146e-06	3.492554e-08	4.235785e+01	2.288854e+03
1.870000e-06	5.836606e-06	3.489165e-08	4.202277e+01	2.283322e+03
1.880000e-06	5.788007e-06	3.468048e-08	4.167286e+01	2.277263e+03
1.890000e-06	5.737027e-06	3.472669e-08	4.130582e+01	2.270705e+03
1.900000e-06	5.683493e-06	3.453122e-08	4.092038e+01	2.263701e+03
1.910000e-06	5.627665e-06	3.443855e-08	4.051843e+01	2.256321e+03
1.920000e-06	5.569731e-06	3.441297e-08	4.010131e+01	2.248626e+03
1.930000e-06	5.509966e-06	3.417270e-08	3.967101e+01	2.240656e+03
1.940000e-06	5.448098e-06	3.412138e-08	3.922557e+01	2.232420e+03
1.950000e-06	5.384072e-06	3.392222e-08	3.876459e+01	2.223893e+03
1.960000e-06	5.318146e-06	3.384357e-08	3.828993e+01	2.215027e+03
1.970000e-06	5.250253e-06	3.371276e-08	3.780111e+01	2.205760e+03
1.980000e-06	5.180277e-06	3.349982e-08	3.729729e+01	2.196037e+03
1.990000e-06	5.108209e-06	3.342819e-08	3.677841e+01	2.185819e+03
2.000000e-06	5.034372e-06	3.320220e-08	3.624680e+01	2.175096e+03
2.010000e-06	4.958633e-06	3.306567e-08	3.570148e+01	2.163879e+03
2.020000e-06	4.880772e-06	3.285670e-08	3.514090e+01	2.152198e+03
2.030000e-06	4.801015e-06	3.268297e-08	3.456666e+01	2.140084e+03
2.040000e-06	4.719560e-06	3.254629e-08	3.398019e+01	2.127556e+03
2.050000e-06	4.636603e-06	3.230793e-08	3.338291e+01	2.114614e+03
2.060000e-06	4.552161e-06	3.212058e-08	3.277494e+01	2.101226e+03
2.070000e-06	4.466007e-06	3.187375e-08	3.215464e+01	2.087343e+03
2.080000e-06	4.378109e-06	3.167136e-08	3.152179e+01	2.072901e+03
2.090000e-06	4.288690e-06	3.142895e-08	3.087798e+01	2.057838e+03
2.100000e-06	4.197909e-06	3.119455e-08	3.022438e+01	2.042106e+03
2.110000e-06	4.105801e-06	3.096518e-08	2.956121e+01	2.025679e+03
2.120000e-06	4.012246e-06	3.069240e-08	2.888763e+01	2.008556e+03
2.130000e-06	3.917157e-06	3.042701e-08	2.820300e+01	1.990747e+03
2.140000e-06	3.820639e-06	3.013040e-08	2.750808e+01	1.972269e+03
2.150000e-06	3.722765e-06	2.985588e-08	2.680340e+01	1.953124e+03
2.160000e-06	3.623660e-06	2.955208e-08	2.608986e+01	1.933293e+03
2.170000e-06	3.523329e-06	2.924650e-08	2.536749e+01	1.912729e+03
2.180000e-06	3.421576e-06	2.891155e-08	2.463488e+01	1.891361e+03
2.190000e-06	3.318359e-06	2.856412e-08	2.389173e+01	1.869100e+03
2.200000e-06	3.213901e-06	2.820600e-08	2.313965e+01	1.845857e+03
2.210000e-06	3.108362e-06	2.783532e-08	2.237978e+01	1.821553e+03
2.220000e-06	3.001713e-06	2.745503e-08	2.161192e+01	1.796125e+03
2.230000e-06	2.893999e-06	2.705131e-08	2.083640e+01	1.769532e+03
2.240000e-06	2.785402e-06	2.663423e-08	2.005452e+01	1.741741e+03
2.250000e-06	2.675825e-06	2.619166e-08	1.926558e+01	1.712715e+03
2.260000e-06	2.565117e-06	2.573301e-08	1.846850e+01	1.682401e+03
2.270000e-06	2.453390e-06	2.524429e-08	1.766408e+01	1.650713e+03
2.280000e-06	2.340640e-06	2.473868e-08	1.685229e+01	1.617531e+03
2.290000e-06	2.226956e-06	2.420457e-08	1.603378e+01	1.582702e+03
2.300000e-06	2.112510e-06	2.364414e-08	1.520979e+01	1.546052e+03
2.310000e-06	1.997277e-06	2.305318e-08	1.438012e+01	1.507402e+03
2.320000e-06	1.881238e-06	2.242924e-08	1.354466e+01	1.466584e+03
2.330000e-06	1.764530e-06	2.177264e-08	1.270438e+01	1.423446e+03
2.340000e-06	1.647162e-06	2.107990e-08	1.185934e+01	1.377853e+03
2.350000e-06	1.529029e-06	2.035204e-08	1.100880e+01	1.329678e+03
2.360000e-06	1.410113e-06	1.958086e-08	1.015262e+01	1.278789e+03
2.370000e-06	1.290565e-06	1.876381e-08	9.291896e+00	1.225037e+03
2.380000e-06	1.170662e-06	1.789411e-08	8.428607e+00	1.168251e+03
2.390000e-06	1.050496e-06	1.697489e-08	7.563429e+00	1.108248e+03
2.400000e-06	9.300446e-07	1.600505e-08	6.696195e+00	1.044863e+03
2.410000e-06	8.093461e-07	1.498638e-08	5.827182e+00	9.779875e+02
2.420000e-06	6.884279e-07	1.391787e-08	4.956587e+00	9.076140e+02
2.430000e-06	5.672951e-07	1.279593e-08	4.084448e+00	8.338754e+02
2.440000e-06	4.459558e-07	1.162365e-08	3.210821e+00	7.570643e+02
2.450000e-06	3.244526e-07	1.040749e-08	2.336015e+00	6.776244e+02
2.460000e-06	2.028195e-07	9.160544e-09	1.460273e+00	5.961093e+02
2.470000e-06	8.108941e-08	7.892841e-09	5.838327e-01	5.131125e+02
2.480000e-06	-4.068221e-08	6.612877e-09	-2.929064e-01	4.291798e+02
2.490000e-06	-1.624176e-07	5.324879e-09	-1.169385e+00	3.447214e+02
2.500000e-06	-2.840973e-07	4.029251e-09	-2.045462e+00	2.599421e+02
2.510000e-06	-4.057024e-07	2.726259e-09	-2.921002e+00	1.748085e+02
2.520000e-06	-5.271742e-07	1.411898e-09	-3.795583e+00	8.906212e+01
2.530000e-06	-6.485323e-07	8.228065e-11	-4.669344e+00	2.282109e+00
2.540000e-06	-7.697495e-07	-1.266484e-09	-5.542092e+00	-8.601320e+01
2.550000e-06	-8.907439e-07	-2.640235e-09	-6.413235e+00	-1.762423e+02
2.560000e-06	-1.011414e-06	-4.046590e-09	-7.282045e+00	-2.686378e+02
2.570000e-06	-1.131754e-06	-5.488428e-09	-8.148478e+00	-3.631498e+02
2.580000e-06	-1.251762e-06	-6.958863e-09	-9.012515e+00	-4.593937e+02
2.590000e-06	-1.371287e-06	-8.447004e-09	-9.873079e+00	-5.566541e+02
2.600000e-06	-1.490220e-06	-9.939696e-09	-1.072938e+01	-6.539447e+02
2.610000e-06	-1.608415e-06	-1.141602e-08	-1.158037e+01	-7.501134e+02
2.620000e-06	-1.725853e-06	-1.285481e-08	-1.242591e+01	-8.439722e+02
2.630000e-06	-1.842607e-06	-1.423886e-08	-1.326652e+01	-9.344296e+02
2.640000e-06	-1.958586e-06	-1.555667e-08	-1.410156e+01	-1.020602e+03
2.650000e-06	-2.073745e-06	-1.680145e-08	-1.493068e+01	-1.101884e+03
2.660000e-06	-2.188048e-06	-1.796702e-08	-1.575365e+01	-1.177980e+03
2.670000e-06	-2.301345e-06	-1.905314e-08	-1.656937e+01	-1.248877e+03
2.680000e-06	-2.413540e-06	-2.006297e-08	-1.737716e+01	-1.314788e+03
2.690000e-06	-2.524759e-06	-2.100164e-08	-1.817793e+01	-1.376079e+03
2.700000e-06	-2.635024e-06	-2.187892e-08	-1.897182e+01	-1.433182e+03
2.710000e-06	-2.744269e-06	-2.269969e-08	-1.975837e+01	-1.486524e+03
2.720000e-06	-2.852670e-06	-2.346795e-08	-2.053884e+01	-1.536484e+03
2.730000e-06	-2.960278e-06	-2.418903e-08	-2.131360e+01	-1.583367e+03
2.740000e-06	-3.066922e-06	-2.486239e-08	-2.208142e+01	-1.627408e+03
2.750000e-06	-3.172457e-06	-2.549067e-08	-2.284126e+01	-1.668789e+03
2.760000e-06	-3.276911e-06	-2.608278e-08	-2.359332e+01	-1.707666e+03
2.770000e-06	-3.380216e-06	-2.664546e-08	-2.433710e+01	-1.744190e+03
2.780000e-06	-3.482134e-06	-2.717505e-08	-2.507089e+01	-1.778519e+03
2.790000e-06	-3.582755e-06	-2.766903e-08	-2.579535e+01	-1.810827e+03
2.800000e-06	-3.682160e-06	-2.813342e-08	-2.651105e+01	-1.841292e+03
2.810000e-06	-3.780304e-06	-2.857317e-08	-2.721768e+01	-1.870086e+03
2.820000e-06	-3.877267e-06	-2.899014e-08	-2.791579e+01	-1.897361e+03
2.830000e-06	-3.972950e-06	-2.938741e-08	-2.860470e+01	-1.923244e+03
2.840000e-06	-4.067106e-06	-2.976683e-08	-2.928261e+01	-1.947828e+03
2.850000e-06	-4.159746e-06	-3.012628e-08	-2.994961e+01	-1.971183e+03
2.860000e-06	-4.250970e-06	-3.046538e-08	-3.060641e+01	-1.993362e+03
2.870000e-06	-4.340699e-06	-3.078457e-08	-3.125245e+01	-2.014414e+03
2.880000e-06	-4.428937e-06	-3.108710e-08	-3.188775e+01	-2.034388e+03
2.890000e-06	-4.515541e-06	-3.137618e-08	-3.251128e+01	-2.053345e+03
2.900000e-06	-4.600412e-06	-3.165290e-08	-3.312234e+01	-2.071350e+03
2.910000e-06	-4.683647e-06	-3.191625e-08	-3.372162e+01	-2.088472e+03
2.920000e-06	-4.765259e-06	-3.216583e-08	-3.430922e+01	-2.104774e+03
2.930000e-06	-4.845225e-06	-3.240410e-08	-3.488496e+01	-2.120309e+03
2.940000e-06	-4.923279e-06	-3.263365e-08	-3.544694e+01	-2.135120e+03
