# Temperatura_=_84.12
# Concentracion g/m^3_=_28200.0
# C_Vs_to_Am_M_A/Vsm_=_65563218390.804596
# pendiente_HvsI_1/m_=_3716.3
# ordenada_HvsI_A/m_=_1297.0
# frecuencia_Hz_=_302143.55599134165

Tiempo_(s)	Campo_(V.s)	Magnetizacion_(V.s)	Campo_(kA/m)	Magnetizacion_(A/m)
0.000000e+00	-6.416655e-06	-3.535108e-08	-4.585228e+01	-2.316866e+03
1.000000e-08	-6.413621e-06	-3.534231e-08	-4.583060e+01	-2.316312e+03
2.000000e-08	-6.408526e-06	-3.532517e-08	-4.579420e+01	-2.315453e+03
3.000000e-08	-6.401499e-06	-3.530963e-08	-4.574398e+01	-2.314283e+03
4.000000e-08	-6.392359e-06	-3.529056e-08	-4.567867e+01	-2.312812e+03
5.000000e-08	-6.380811e-06	-3.526279e-08	-4.559615e+01	-2.311070e+03
6.000000e-08	-6.366875e-06	-3.522775e-08	-4.549657e+01	-2.309099e+03
7.000000e-08	-6.350621e-06	-3.518244e-08	-4.538042e+01	-2.306941e+03
8.000000e-08	-6.332230e-06	-3.516869e-08	-4.524900e+01	-2.304634e+03
9.000000e-08	-6.311765e-06	-3.523282e-08	-4.510276e+01	-2.302200e+03
1.000000e-07	-6.288997e-06	-3.516731e-08	-4.494006e+01	-2.299641e+03
1.100000e-07	-6.263612e-06	-3.504143e-08	-4.475867e+01	-2.296938e+03
1.200000e-07	-6.235730e-06	-3.499781e-08	-4.455943e+01	-2.294053e+03
1.300000e-07	-6.205873e-06	-3.488894e-08	-4.434608e+01	-2.290935e+03
1.400000e-07	-6.174463e-06	-3.470644e-08	-4.412163e+01	-2.287527e+03
1.500000e-07	-6.141354e-06	-3.486408e-08	-4.388503e+01	-2.283773e+03
1.600000e-07	-6.106193e-06	-3.482756e-08	-4.363378e+01	-2.279627e+03
1.700000e-07	-6.069174e-06	-3.459740e-08	-4.336925e+01	-2.275060e+03
1.800000e-07	-6.030182e-06	-3.469758e-08	-4.309062e+01	-2.270059e+03
1.900000e-07	-5.988793e-06	-3.449071e-08	-4.279486e+01	-2.264635e+03
2.000000e-07	-5.945073e-06	-3.436399e-08	-4.248245e+01	-2.258815e+03
2.100000e-07	-5.899189e-06	-3.440612e-08	-4.215457e+01	-2.252640e+03
2.200000e-07	-5.851049e-06	-3.426002e-08	-4.181057e+01	-2.246157e+03
2.300000e-07	-5.800465e-06	-3.418078e-08	-4.144910e+01	-2.239411e+03
2.400000e-07	-5.747336e-06	-3.406289e-08	-4.106945e+01	-2.232439e+03
2.500000e-07	-5.692025e-06	-3.392915e-08	-4.067421e+01	-2.225259e+03
2.600000e-07	-5.634590e-06	-3.383867e-08	-4.026379e+01	-2.217869e+03
2.700000e-07	-5.574939e-06	-3.370950e-08	-3.983754e+01	-2.210245e+03
2.800000e-07	-5.513354e-06	-3.361597e-08	-3.939746e+01	-2.202347e+03
2.900000e-07	-5.449854e-06	-3.346143e-08	-3.894370e+01	-2.194121e+03
3.000000e-07	-5.384294e-06	-3.334301e-08	-3.847522e+01	-2.185514e+03
3.100000e-07	-5.316618e-06	-3.319390e-08	-3.799162e+01	-2.176480e+03
3.200000e-07	-5.246940e-06	-3.303041e-08	-3.749371e+01	-2.166987e+03
3.300000e-07	-5.175473e-06	-3.290909e-08	-3.698302e+01	-2.157025e+03
3.400000e-07	-5.102158e-06	-3.272345e-08	-3.645913e+01	-2.146600e+03
3.500000e-07	-5.026732e-06	-3.257798e-08	-3.592014e+01	-2.135730e+03
3.600000e-07	-4.949066e-06	-3.240075e-08	-3.536515e+01	-2.124438e+03
3.700000e-07	-4.869365e-06	-3.221735e-08	-3.479563e+01	-2.112741e+03
3.800000e-07	-4.787894e-06	-3.203992e-08	-3.421345e+01	-2.100639e+03
3.900000e-07	-4.704829e-06	-3.183795e-08	-3.361988e+01	-2.088116e+03
4.000000e-07	-4.620286e-06	-3.163656e-08	-3.301575e+01	-2.075136e+03
4.100000e-07	-4.534294e-06	-3.142487e-08	-3.240127e+01	-2.061651e+03
4.200000e-07	-4.446920e-06	-3.122142e-08	-3.177691e+01	-2.047610e+03
4.300000e-07	-4.358009e-06	-3.099280e-08	-3.114156e+01	-2.032966e+03
4.400000e-07	-4.267479e-06	-3.075221e-08	-3.049465e+01	-2.017690e+03
4.500000e-07	-4.175409e-06	-3.051232e-08	-2.983674e+01	-2.001764e+03
4.600000e-07	-4.081889e-06	-3.025401e-08	-2.916846e+01	-1.985188e+03
4.700000e-07	-3.987083e-06	-2.999223e-08	-2.849099e+01	-1.967970e+03
4.800000e-07	-3.890793e-06	-2.972291e-08	-2.780292e+01	-1.950112e+03
4.900000e-07	-3.792930e-06	-2.944439e-08	-2.710361e+01	-1.931606e+03
5.000000e-07	-3.693624e-06	-2.914802e-08	-2.639399e+01	-1.912423e+03
5.100000e-07	-3.592947e-06	-2.883717e-08	-2.567457e+01	-1.892512e+03
5.200000e-07	-3.491041e-06	-2.851498e-08	-2.494636e+01	-1.871806e+03
5.300000e-07	-3.387963e-06	-2.818018e-08	-2.420978e+01	-1.850225e+03
5.400000e-07	-3.283580e-06	-2.783634e-08	-2.346389e+01	-1.827696e+03
5.500000e-07	-3.177887e-06	-2.747793e-08	-2.270862e+01	-1.804152e+03
5.600000e-07	-3.071011e-06	-2.710578e-08	-2.194491e+01	-1.779544e+03
5.700000e-07	-2.962932e-06	-2.671467e-08	-2.117259e+01	-1.753834e+03
5.800000e-07	-2.853743e-06	-2.630311e-08	-2.039235e+01	-1.726993e+03
5.900000e-07	-2.743614e-06	-2.587420e-08	-1.960538e+01	-1.698983e+03
6.000000e-07	-2.632578e-06	-2.542853e-08	-1.881194e+01	-1.669746e+03
6.100000e-07	-2.520485e-06	-2.496287e-08	-1.801094e+01	-1.639198e+03
6.200000e-07	-2.407338e-06	-2.447058e-08	-1.720241e+01	-1.607218e+03
6.300000e-07	-2.293258e-06	-2.395079e-08	-1.638722e+01	-1.573662e+03
6.400000e-07	-2.178189e-06	-2.340502e-08	-1.556496e+01	-1.538364e+03
6.500000e-07	-2.062112e-06	-2.283870e-08	-1.473549e+01	-1.501160e+03
6.600000e-07	-1.945250e-06	-2.224433e-08	-1.390041e+01	-1.461891e+03
6.700000e-07	-1.827799e-06	-2.161512e-08	-1.306113e+01	-1.420418e+03
6.800000e-07	-1.709752e-06	-2.094824e-08	-1.221759e+01	-1.376615e+03
6.900000e-07	-1.591172e-06	-2.023911e-08	-1.137023e+01	-1.330361e+03
7.000000e-07	-1.472156e-06	-1.948993e-08	-1.051977e+01	-1.281528e+03
7.100000e-07	-1.352703e-06	-1.869694e-08	-9.666181e+00	-1.229963e+03
7.200000e-07	-1.232728e-06	-1.786278e-08	-8.808860e+00	-1.175487e+03
7.300000e-07	-1.112205e-06	-1.698304e-08	-7.947622e+00	-1.117900e+03
7.400000e-07	-9.912579e-07	-1.605132e-08	-7.083355e+00	-1.057006e+03
7.500000e-07	-8.699677e-07	-1.506652e-08	-6.216636e+00	-9.926550e+02
7.600000e-07	-7.483711e-07	-1.403075e-08	-5.347729e+00	-9.247833e+02
7.700000e-07	-6.265155e-07	-1.294420e-08	-4.476969e+00	-8.534597e+02
7.800000e-07	-5.044814e-07	-1.180871e-08	-3.604935e+00	-7.789115e+02
7.900000e-07	-3.823152e-07	-1.062987e-08	-2.731957e+00	-7.015260e+02
8.000000e-07	-2.600053e-07	-9.413363e-09	-1.857952e+00	-6.218205e+02
8.100000e-07	-1.376180e-07	-8.170200e-09	-9.833941e-01	-5.403819e+02
8.200000e-07	-1.515165e-08	-6.910343e-09	-1.082710e-01	-4.577844e+02
8.300000e-07	1.073944e-07	-5.640894e-09	7.674214e-01	-3.745010e+02
8.400000e-07	2.298920e-07	-4.364317e-09	1.642768e+00	-2.908254e+02
8.500000e-07	3.523286e-07	-3.085298e-09	2.517678e+00	-2.068244e+02
8.600000e-07	4.746861e-07	-1.797972e-09	3.392023e+00	-1.223327e+02
8.700000e-07	5.969218e-07	-4.953401e-10	4.265498e+00	-3.699567e+01
8.800000e-07	7.190191e-07	8.250741e-10	5.137984e+00	4.964435e+01
8.900000e-07	8.409036e-07	2.170526e-09	6.008950e+00	1.380330e+02
9.000000e-07	9.624980e-07	3.547054e-09	6.877842e+00	2.284804e+02
9.100000e-07	1.083673e-06	4.957928e-09	7.743740e+00	3.210534e+02
9.200000e-07	1.204358e-06	6.397963e-09	8.606134e+00	4.155046e+02
9.300000e-07	1.324609e-06	7.857470e-09	9.465426e+00	5.112540e+02
9.400000e-07	1.444385e-06	9.322978e-09	1.032132e+01	6.074252e+02
9.500000e-07	1.563618e-06	1.077783e-08	1.117334e+01	7.029329e+02
9.600000e-07	1.682353e-06	1.220385e-08	1.202180e+01	7.966038e+02
9.700000e-07	1.800521e-06	1.358037e-08	1.286620e+01	8.873089e+02
9.800000e-07	1.917968e-06	1.489410e-08	1.370546e+01	9.740848e+02
9.900000e-07	2.034606e-06	1.613750e-08	1.453894e+01	1.056223e+03
1.000000e-06	2.150375e-06	1.730490e-08	1.536620e+01	1.133314e+03
1.010000e-06	2.265207e-06	1.839371e-08	1.618677e+01	1.205245e+03
1.020000e-06	2.379035e-06	1.940729e-08	1.700017e+01	1.272157e+03
1.030000e-06	2.491887e-06	2.035103e-08	1.780658e+01	1.334369e+03
1.040000e-06	2.603789e-06	2.123177e-08	1.860622e+01	1.392298e+03
1.050000e-06	2.714744e-06	2.205321e-08	1.939908e+01	1.446377e+03
1.060000e-06	2.824783e-06	2.282091e-08	2.018540e+01	1.497002e+03
1.070000e-06	2.933877e-06	2.353953e-08	2.096497e+01	1.544499e+03
1.080000e-06	3.041989e-06	2.421563e-08	2.173752e+01	1.589115e+03
1.090000e-06	3.149075e-06	2.484977e-08	2.250274e+01	1.631038e+03
1.100000e-06	3.254997e-06	2.544467e-08	2.325964e+01	1.670422e+03
1.110000e-06	3.359595e-06	2.600286e-08	2.400708e+01	1.707408e+03
1.120000e-06	3.462886e-06	2.652958e-08	2.474518e+01	1.742152e+03
1.130000e-06	3.564982e-06	2.702760e-08	2.547474e+01	1.774827e+03
1.140000e-06	3.665979e-06	2.749663e-08	2.619644e+01	1.805617e+03
1.150000e-06	3.765840e-06	2.794025e-08	2.691003e+01	1.834709e+03
1.160000e-06	3.864260e-06	2.835917e-08	2.761332e+01	1.862268e+03
1.170000e-06	3.961004e-06	2.875617e-08	2.830464e+01	1.888432e+03
1.180000e-06	4.056237e-06	2.913355e-08	2.898515e+01	1.913302e+03
1.190000e-06	4.150180e-06	2.949407e-08	2.965645e+01	1.936943e+03
1.200000e-06	4.242895e-06	2.983566e-08	3.031898e+01	1.959400e+03
1.210000e-06	4.334267e-06	3.015934e-08	3.097191e+01	1.980706e+03
1.220000e-06	4.423910e-06	3.046758e-08	3.161248e+01	2.000901e+03
1.230000e-06	4.511738e-06	3.076130e-08	3.224008e+01	2.020038e+03
1.240000e-06	4.597962e-06	3.103738e-08	3.285623e+01	2.038188e+03
1.250000e-06	4.682709e-06	3.129813e-08	3.346182e+01	2.055431e+03
1.260000e-06	4.765980e-06	3.154674e-08	3.405686e+01	2.071849e+03
1.270000e-06	4.847507e-06	3.178578e-08	3.463943e+01	2.087515e+03
1.280000e-06	4.927123e-06	3.201530e-08	3.520836e+01	2.102484e+03
1.290000e-06	5.004932e-06	3.223447e-08	3.576436e+01	2.116788e+03
1.300000e-06	5.080882e-06	3.244139e-08	3.630709e+01	2.130442e+03
1.310000e-06	5.154665e-06	3.263573e-08	3.683433e+01	2.143448e+03
1.320000e-06	5.226407e-06	3.281818e-08	3.734698e+01	2.155808e+03
1.330000e-06	5.296359e-06	3.299221e-08	3.784685e+01	2.167532e+03
1.340000e-06	5.364552e-06	3.316132e-08	3.833415e+01	2.178643e+03
1.350000e-06	5.430749e-06	3.332459e-08	3.880718e+01	2.189178e+03
1.360000e-06	5.494821e-06	3.348001e-08	3.926502e+01	2.199182e+03
1.370000e-06	5.557013e-06	3.362788e-08	3.970944e+01	2.208701e+03
1.380000e-06	5.617446e-06	3.376941e-08	4.014128e+01	2.217769e+03
1.390000e-06	5.675942e-06	3.390427e-08	4.055929e+01	2.226406e+03
1.400000e-06	5.732288e-06	3.403364e-08	4.096192e+01	2.234612e+03
1.410000e-06	5.786533e-06	3.415535e-08	4.134955e+01	2.242374e+03
1.420000e-06	5.838537e-06	3.426772e-08	4.172116e+01	2.249671e+03
1.430000e-06	5.888064e-06	3.437048e-08	4.207507e+01	2.256487e+03
1.440000e-06	5.935227e-06	3.446535e-08	4.241208e+01	2.262820e+03
1.450000e-06	5.980405e-06	3.455361e-08	4.273492e+01	2.268688e+03
1.460000e-06	6.023678e-06	3.463676e-08	4.304414e+01	2.274127e+03
1.470000e-06	6.064758e-06	3.471683e-08	4.333769e+01	2.279186e+03
1.480000e-06	6.103586e-06	3.479177e-08	4.361515e+01	2.283919e+03
1.490000e-06	6.140423e-06	3.486119e-08	4.387838e+01	2.288369e+03
1.500000e-06	6.175111e-06	3.492623e-08	4.412626e+01	2.292562e+03
1.510000e-06	6.207491e-06	3.498843e-08	4.435764e+01	2.296500e+03
1.520000e-06	6.237734e-06	3.504581e-08	4.457375e+01	2.300164e+03
1.530000e-06	6.265934e-06	3.509725e-08	4.477526e+01	2.303518e+03
1.540000e-06	6.291818e-06	3.514222e-08	4.496022e+01	2.306521e+03
1.550000e-06	6.315209e-06	3.518049e-08	4.512737e+01	2.309142e+03
1.560000e-06	6.336428e-06	3.521411e-08	4.527900e+01	2.311364e+03
1.570000e-06	6.355578e-06	3.524334e-08	4.541584e+01	2.313195e+03
1.580000e-06	6.372446e-06	3.526891e-08	4.553638e+01	2.314665e+03
1.590000e-06	6.386838e-06	3.529018e-08	4.563922e+01	2.315818e+03
1.600000e-06	6.398700e-06	3.530637e-08	4.572399e+01	2.316705e+03
1.610000e-06	6.408051e-06	3.531801e-08	4.579081e+01	2.317368e+03
1.620000e-06	6.414966e-06	3.532551e-08	4.584022e+01	2.317836e+03
1.630000e-06	6.419695e-06	3.533057e-08	4.587401e+01	2.318115e+03
1.640000e-06	6.422186e-06	3.533422e-08	4.589181e+01	2.318191e+03
1.650000e-06	6.422296e-06	3.533629e-08	4.589260e+01	2.318036e+03
1.660000e-06	6.420287e-06	3.532143e-08	4.587824e+01	2.317616e+03
1.670000e-06	6.416238e-06	3.531047e-08	4.584931e+01	2.316900e+03
1.680000e-06	6.410006e-06	3.529984e-08	4.580478e+01	2.315874e+03
1.690000e-06	6.401611e-06	3.528283e-08	4.574479e+01	2.314540e+03
1.700000e-06	6.391208e-06	3.526385e-08	4.567045e+01	2.312920e+03
1.710000e-06	6.378624e-06	3.524258e-08	4.558053e+01	2.311049e+03
1.720000e-06	6.363752e-06	3.524180e-08	4.547426e+01	2.308973e+03
1.730000e-06	6.346919e-06	3.517082e-08	4.535397e+01	2.306731e+03
1.740000e-06	6.328008e-06	3.502085e-08	4.521883e+01	2.304354e+03
1.750000e-06	6.306270e-06	3.503023e-08	4.506350e+01	2.301854e+03
1.760000e-06	6.281363e-06	3.504509e-08	4.488551e+01	2.299222e+03
1.770000e-06	6.253988e-06	3.496499e-08	4.468990e+01	2.296427e+03
1.780000e-06	6.224709e-06	3.509373e-08	4.448067e+01	2.293424e+03
1.790000e-06	6.193858e-06	3.500088e-08	4.426022e+01	2.290158e+03
1.800000e-06	6.161587e-06	3.476097e-08	4.402962e+01	2.286571e+03
1.810000e-06	6.127328e-06	3.493357e-08	4.378481e+01	2.282611e+03
1.820000e-06	6.090997e-06	3.477540e-08	4.352520e+01	2.278242e+03
1.830000e-06	6.052580e-06	3.468071e-08	4.325068e+01	2.273443e+03
1.840000e-06	6.011772e-06	3.475517e-08	4.295906e+01	2.268213e+03
1.850000e-06	5.968914e-06	3.440391e-08	4.265281e+01	2.262572e+03
1.860000e-06	5.924048e-06	3.440499e-08	4.233220e+01	2.256556e+03
1.870000e-06	5.876946e-06	3.430669e-08	4.199562e+01	2.250209e+03
1.880000e-06	5.827756e-06	3.414671e-08	4.164412e+01	2.243580e+03
1.890000e-06	5.776059e-06	3.420154e-08	4.127470e+01	2.236710e+03
1.900000e-06	5.721810e-06	3.394409e-08	4.088705e+01	2.229625e+03
1.910000e-06	5.665340e-06	3.392342e-08	4.048352e+01	2.222334e+03
1.920000e-06	5.606868e-06	3.381086e-08	4.006569e+01	2.214823e+03
1.930000e-06	5.546492e-06	3.360162e-08	3.963426e+01	2.207058e+03
1.940000e-06	5.483950e-06	3.357214e-08	3.918734e+01	2.198991e+03
1.950000e-06	5.419331e-06	3.335905e-08	3.872559e+01	2.190567e+03
1.960000e-06	5.352724e-06	3.333205e-08	3.824962e+01	2.181736e+03
1.970000e-06	5.284078e-06	3.312929e-08	3.775909e+01	2.172459e+03
1.980000e-06	5.213383e-06	3.295054e-08	3.725392e+01	2.162715e+03
1.990000e-06	5.140689e-06	3.286197e-08	3.673446e+01	2.152503e+03
2.000000e-06	5.066154e-06	3.264049e-08	3.620185e+01	2.141836e+03
2.010000e-06	4.989565e-06	3.253909e-08	3.565456e+01	2.130738e+03
2.020000e-06	4.910869e-06	3.230137e-08	3.509220e+01	2.119228e+03
2.030000e-06	4.830343e-06	3.216014e-08	3.451678e+01	2.107314e+03
2.040000e-06	4.748242e-06	3.198208e-08	3.393010e+01	2.094990e+03
2.050000e-06	4.664594e-06	3.175859e-08	3.333236e+01	2.082227e+03
2.060000e-06	4.579258e-06	3.157238e-08	3.272257e+01	2.068983e+03
2.070000e-06	4.492230e-06	3.133459e-08	3.210069e+01	2.055206e+03
2.080000e-06	4.403554e-06	3.115341e-08	3.146702e+01	2.040847e+03
2.090000e-06	4.313510e-06	3.089584e-08	3.082358e+01	2.025868e+03
2.100000e-06	4.222060e-06	3.067653e-08	3.017010e+01	2.010244e+03
2.110000e-06	4.129077e-06	3.043329e-08	2.950566e+01	1.993969e+03
2.120000e-06	4.034563e-06	3.017602e-08	2.883028e+01	1.977048e+03
2.130000e-06	3.938574e-06	2.991111e-08	2.814436e+01	1.959487e+03
2.140000e-06	3.841248e-06	2.962459e-08	2.744888e+01	1.941284e+03
2.150000e-06	3.742631e-06	2.935140e-08	2.674418e+01	1.922420e+03
2.160000e-06	3.642668e-06	2.904549e-08	2.602987e+01	1.902855e+03
2.170000e-06	3.541287e-06	2.874512e-08	2.530541e+01	1.882527e+03
2.180000e-06	3.438503e-06	2.841320e-08	2.457094e+01	1.861362e+03
2.190000e-06	3.334359e-06	2.808247e-08	2.382674e+01	1.839282e+03
2.200000e-06	3.229032e-06	2.772702e-08	2.307410e+01	1.816217e+03
2.210000e-06	3.122658e-06	2.736403e-08	2.231397e+01	1.792107e+03
2.220000e-06	3.015216e-06	2.698501e-08	2.154620e+01	1.766913e+03
2.230000e-06	2.906650e-06	2.658988e-08	2.077041e+01	1.740601e+03
2.240000e-06	2.797138e-06	2.617469e-08	1.998785e+01	1.713139e+03
2.250000e-06	2.686659e-06	2.573322e-08	1.919839e+01	1.684481e+03
2.260000e-06	2.574978e-06	2.527537e-08	1.840034e+01	1.654554e+03
2.270000e-06	2.462244e-06	2.479296e-08	1.759476e+01	1.623255e+03
2.280000e-06	2.348597e-06	2.429869e-08	1.678266e+01	1.590450e+03
2.290000e-06	2.234042e-06	2.377235e-08	1.596407e+01	1.555982e+03
2.300000e-06	2.118593e-06	2.321942e-08	1.513909e+01	1.519683e+03
2.310000e-06	2.002258e-06	2.263480e-08	1.430778e+01	1.481391e+03
2.320000e-06	1.885141e-06	2.202175e-08	1.347089e+01	1.440958e+03
2.330000e-06	1.767325e-06	2.137436e-08	1.262899e+01	1.398251e+03
2.340000e-06	1.648808e-06	2.069106e-08	1.178209e+01	1.353150e+03
2.350000e-06	1.529555e-06	1.997042e-08	1.092993e+01	1.305532e+03
2.360000e-06	1.409694e-06	1.920558e-08	1.007343e+01	1.255256e+03
2.370000e-06	1.289396e-06	1.839346e-08	9.213795e+00	1.202155e+03
2.380000e-06	1.168762e-06	1.753305e-08	8.351770e+00	1.146038e+03
2.390000e-06	1.047840e-06	1.662897e-08	7.487680e+00	1.086702e+03
2.400000e-06	9.265993e-07	1.567417e-08	6.621316e+00	1.023970e+03
2.410000e-06	8.050326e-07	1.466867e-08	5.752622e+00	9.577332e+02
2.420000e-06	6.831883e-07	1.360994e-08	4.881943e+00	8.879938e+02
2.430000e-06	5.611530e-07	1.249799e-08	4.009900e+00	8.149039e+02
2.440000e-06	4.389890e-07	1.133737e-08	3.136938e+00	7.387780e+02
2.450000e-06	3.166988e-07	1.013296e-08	2.263074e+00	6.600791e+02
2.460000e-06	1.942787e-07	8.898794e-09	1.388281e+00	5.793707e+02
2.470000e-06	7.173663e-08	7.644209e-09	5.126174e-01	4.972442e+02
2.480000e-06	-5.088901e-08	6.377922e-09	-3.636439e-01	4.142302e+02
2.490000e-06	-1.734643e-07	5.103812e-09	-1.239545e+00	3.307138e+02
2.500000e-06	-2.959775e-07	3.823613e-09	-2.115003e+00	2.468707e+02
2.510000e-06	-4.184372e-07	2.539341e-09	-2.990078e+00	1.626408e+02
2.520000e-06	-5.407624e-07	1.242856e-09	-3.864193e+00	7.774927e+01
2.530000e-06	-6.629502e-07	-7.060560e-11	-4.737325e+00	-8.226845e+00
2.540000e-06	-7.849636e-07	-1.406043e-09	-5.609212e+00	-9.575416e+01
2.550000e-06	-9.067232e-07	-2.769126e-09	-6.479285e+00	-1.852206e+02
2.560000e-06	-1.028133e-06	-4.164172e-09	-7.346855e+00	-2.768174e+02
2.570000e-06	-1.149164e-06	-5.592569e-09	-8.211723e+00	-3.704489e+02
2.580000e-06	-1.269888e-06	-7.046398e-09	-9.074394e+00	-4.656882e+02
2.590000e-06	-1.390174e-06	-8.515500e-09	-9.933939e+00	-5.617884e+02
2.600000e-06	-1.509907e-06	-9.985731e-09	-1.078953e+01	-6.577480e+02
2.610000e-06	-1.629090e-06	-1.143761e-08	-1.164119e+01	-7.524180e+02
2.620000e-06	-1.747599e-06	-1.285049e-08	-1.248803e+01	-8.446326e+02
2.630000e-06	-1.865353e-06	-1.420798e-08	-1.332949e+01	-9.333381e+02
2.640000e-06	-1.982303e-06	-1.550015e-08	-1.416519e+01	-1.017699e+03
2.650000e-06	-2.098330e-06	-1.671817e-08	-1.499430e+01	-1.097165e+03
2.660000e-06	-2.213470e-06	-1.785686e-08	-1.581707e+01	-1.171488e+03
2.670000e-06	-2.327750e-06	-1.891903e-08	-1.663369e+01	-1.240700e+03
2.680000e-06	-2.441031e-06	-1.990793e-08	-1.744318e+01	-1.305047e+03
2.690000e-06	-2.553127e-06	-2.082687e-08	-1.824419e+01	-1.364909e+03
2.700000e-06	-2.664091e-06	-2.168319e-08	-1.903712e+01	-1.420723e+03
2.710000e-06	-2.774057e-06	-2.248288e-08	-1.982292e+01	-1.472907e+03
2.720000e-06	-2.883041e-06	-2.323316e-08	-2.060171e+01	-1.521821e+03
2.730000e-06	-2.991165e-06	-2.393847e-08	-2.137434e+01	-1.567748e+03
2.740000e-06	-3.098434e-06	-2.460029e-08	-2.214086e+01	-1.610902e+03
2.750000e-06	-3.204691e-06	-2.522206e-08	-2.290016e+01	-1.651446e+03
2.760000e-06	-3.309829e-06	-2.580726e-08	-2.365146e+01	-1.689527e+03
2.770000e-06	-3.413782e-06	-2.635817e-08	-2.439429e+01	-1.725292e+03
2.780000e-06	-3.516498e-06	-2.687180e-08	-2.512828e+01	-1.758906e+03
2.790000e-06	-3.617841e-06	-2.735277e-08	-2.585246e+01	-1.790548e+03
2.800000e-06	-3.717807e-06	-2.780906e-08	-2.656680e+01	-1.820406e+03
2.810000e-06	-3.816550e-06	-2.824166e-08	-2.727239e+01	-1.848657e+03
2.820000e-06	-3.914072e-06	-2.865260e-08	-2.796927e+01	-1.875455e+03
2.830000e-06	-4.010326e-06	-2.904484e-08	-2.865708e+01	-1.900915e+03
2.840000e-06	-4.105164e-06	-2.941835e-08	-2.933478e+01	-1.925121e+03
2.850000e-06	-4.198430e-06	-2.977037e-08	-3.000124e+01	-1.948123e+03
2.860000e-06	-4.290225e-06	-3.010128e-08	-3.065719e+01	-1.969959e+03
2.870000e-06	-4.380566e-06	-3.041402e-08	-3.130276e+01	-1.990664e+03
2.880000e-06	-4.469293e-06	-3.071166e-08	-3.193678e+01	-2.010285e+03
2.890000e-06	-4.556348e-06	-3.099650e-08	-3.255886e+01	-2.028884e+03
2.900000e-06	-4.641655e-06	-3.126682e-08	-3.316845e+01	-2.046538e+03
2.910000e-06	-4.725324e-06	-3.152225e-08	-3.376633e+01	-2.063329e+03
2.920000e-06	-4.807466e-06	-3.176777e-08	-3.435330e+01	-2.079336e+03
2.930000e-06	-4.887988e-06	-3.200495e-08	-3.492870e+01	-2.094623e+03
2.940000e-06	-4.966595e-06	-3.223252e-08	-3.549041e+01	-2.109233e+03
