# Temperatura_=_47.54
# Concentracion g/m^3_=_28200.0
# C_Vs_to_Am_M_A/Vsm_=_65563218390.804596
# pendiente_HvsI_1/m_=_3716.3
# ordenada_HvsI_A/m_=_1297.0
# frecuencia_Hz_=_302143.30454570765

Tiempo_(s)	Campo_(V.s)	Magnetizacion_(V.s)	Campo_(kA/m)	Magnetizacion_(A/m)
0.000000e+00	-6.415729e-06	-3.473949e-08	-4.585181e+01	-2.275779e+03
1.000000e-08	-6.412578e-06	-3.473138e-08	-4.582929e+01	-2.275262e+03
2.000000e-08	-6.407348e-06	-3.471432e-08	-4.579191e+01	-2.274466e+03
3.000000e-08	-6.400205e-06	-3.469825e-08	-4.574086e+01	-2.273376e+03
4.000000e-08	-6.390949e-06	-3.467753e-08	-4.567471e+01	-2.271995e+03
5.000000e-08	-6.379271e-06	-3.464891e-08	-4.559125e+01	-2.270343e+03
6.000000e-08	-6.365133e-06	-3.461257e-08	-4.549021e+01	-2.268456e+03
7.000000e-08	-6.348742e-06	-3.456581e-08	-4.537307e+01	-2.266378e+03
8.000000e-08	-6.330375e-06	-3.455575e-08	-4.524180e+01	-2.264153e+03
9.000000e-08	-6.309897e-06	-3.462996e-08	-4.509545e+01	-2.261814e+03
1.000000e-07	-6.286951e-06	-3.456016e-08	-4.493146e+01	-2.259377e+03
1.100000e-07	-6.261382e-06	-3.443234e-08	-4.474872e+01	-2.256836e+03
1.200000e-07	-6.233459e-06	-3.439901e-08	-4.454916e+01	-2.254163e+03
1.300000e-07	-6.203584e-06	-3.428976e-08	-4.433566e+01	-2.251309e+03
1.400000e-07	-6.172136e-06	-3.409564e-08	-4.411090e+01	-2.248214e+03
1.500000e-07	-6.138909e-06	-3.427314e-08	-4.387344e+01	-2.244816e+03
1.600000e-07	-6.103609e-06	-3.423481e-08	-4.362115e+01	-2.241060e+03
1.700000e-07	-6.066441e-06	-3.399951e-08	-4.335553e+01	-2.236903e+03
1.800000e-07	-6.027257e-06	-3.412265e-08	-4.307549e+01	-2.232325e+03
1.900000e-07	-5.985686e-06	-3.390544e-08	-4.277839e+01	-2.227328e+03
2.000000e-07	-5.941869e-06	-3.377590e-08	-4.246524e+01	-2.221935e+03
2.100000e-07	-5.895945e-06	-3.381727e-08	-4.213703e+01	-2.216184e+03
2.200000e-07	-5.847763e-06	-3.368859e-08	-4.179268e+01	-2.210120e+03
2.300000e-07	-5.797125e-06	-3.364743e-08	-4.143078e+01	-2.203789e+03
2.400000e-07	-5.743961e-06	-3.352278e-08	-4.105083e+01	-2.197226e+03
2.500000e-07	-5.688599e-06	-3.338039e-08	-4.065517e+01	-2.190450e+03
2.600000e-07	-5.631069e-06	-3.330001e-08	-4.024401e+01	-2.183460e+03
2.700000e-07	-5.571409e-06	-3.315977e-08	-3.981764e+01	-2.176237e+03
2.800000e-07	-5.509816e-06	-3.307680e-08	-3.937745e+01	-2.168745e+03
2.900000e-07	-5.446206e-06	-3.295503e-08	-3.892284e+01	-2.160940e+03
3.000000e-07	-5.380521e-06	-3.284344e-08	-3.845341e+01	-2.152778e+03
3.100000e-07	-5.312801e-06	-3.267651e-08	-3.796942e+01	-2.144220e+03
3.200000e-07	-5.243119e-06	-3.252424e-08	-3.747142e+01	-2.135241e+03
3.300000e-07	-5.171587e-06	-3.242163e-08	-3.696020e+01	-2.125827e+03
3.400000e-07	-5.098091e-06	-3.223324e-08	-3.643494e+01	-2.115980e+03
3.500000e-07	-5.022527e-06	-3.210467e-08	-3.589490e+01	-2.105709e+03
3.600000e-07	-4.944856e-06	-3.194342e-08	-3.533980e+01	-2.095022e+03
3.700000e-07	-4.865072e-06	-3.175895e-08	-3.476960e+01	-2.083924e+03
3.800000e-07	-4.783493e-06	-3.158649e-08	-3.418658e+01	-2.072407e+03
3.900000e-07	-4.700385e-06	-3.140602e-08	-3.359262e+01	-2.060452e+03
4.000000e-07	-4.615836e-06	-3.121990e-08	-3.298837e+01	-2.048026e+03
4.100000e-07	-4.529890e-06	-3.100486e-08	-3.237413e+01	-2.035088e+03
4.200000e-07	-4.442522e-06	-3.080529e-08	-3.174973e+01	-2.021596e+03
4.300000e-07	-4.353635e-06	-3.059026e-08	-3.111447e+01	-2.007513e+03
4.400000e-07	-4.263070e-06	-3.035936e-08	-3.046723e+01	-1.992812e+03
4.500000e-07	-4.170905e-06	-3.012855e-08	-2.980854e+01	-1.977478e+03
4.600000e-07	-4.077327e-06	-2.988102e-08	-2.913976e+01	-1.961504e+03
4.700000e-07	-3.982372e-06	-2.962482e-08	-2.846114e+01	-1.944887e+03
4.800000e-07	-3.886021e-06	-2.935711e-08	-2.777254e+01	-1.927621e+03
4.900000e-07	-3.788214e-06	-2.909047e-08	-2.707353e+01	-1.909690e+03
5.000000e-07	-3.688887e-06	-2.881059e-08	-2.636367e+01	-1.891062e+03
5.100000e-07	-3.588172e-06	-2.850799e-08	-2.564388e+01	-1.871691e+03
5.200000e-07	-3.486272e-06	-2.819188e-08	-2.491562e+01	-1.851516e+03
5.300000e-07	-3.383195e-06	-2.786600e-08	-2.417895e+01	-1.830469e+03
5.400000e-07	-3.278837e-06	-2.753137e-08	-2.343313e+01	-1.808481e+03
5.500000e-07	-3.173201e-06	-2.718123e-08	-2.267817e+01	-1.785489e+03
5.600000e-07	-3.066277e-06	-2.681941e-08	-2.191401e+01	-1.761437e+03
5.700000e-07	-2.958117e-06	-2.643555e-08	-2.114102e+01	-1.736277e+03
5.800000e-07	-2.848931e-06	-2.602598e-08	-2.036069e+01	-1.709961e+03
5.900000e-07	-2.738803e-06	-2.560141e-08	-1.957363e+01	-1.682436e+03
6.000000e-07	-2.627731e-06	-2.516534e-08	-1.877982e+01	-1.653632e+03
6.100000e-07	-2.515635e-06	-2.471014e-08	-1.797870e+01	-1.623459e+03
6.200000e-07	-2.402478e-06	-2.422626e-08	-1.716998e+01	-1.591805e+03
6.300000e-07	-2.288314e-06	-2.371453e-08	-1.635408e+01	-1.558536e+03
6.400000e-07	-2.173192e-06	-2.317357e-08	-1.553132e+01	-1.523508e+03
6.500000e-07	-2.057131e-06	-2.260722e-08	-1.470187e+01	-1.486570e+03
6.600000e-07	-1.940297e-06	-2.201394e-08	-1.386688e+01	-1.447576e+03
6.700000e-07	-1.822858e-06	-2.138844e-08	-1.302757e+01	-1.406385e+03
6.800000e-07	-1.704800e-06	-2.072601e-08	-1.218383e+01	-1.362863e+03
6.900000e-07	-1.586197e-06	-2.002101e-08	-1.133620e+01	-1.316874e+03
7.000000e-07	-1.467149e-06	-1.927499e-08	-1.048539e+01	-1.268276e+03
7.100000e-07	-1.347601e-06	-1.848491e-08	-9.631010e+00	-1.216911e+03
7.200000e-07	-1.227493e-06	-1.765473e-08	-8.772624e+00	-1.162609e+03
7.300000e-07	-1.106866e-06	-1.677900e-08	-7.910526e+00	-1.105202e+03
7.400000e-07	-9.858624e-07	-1.585202e-08	-7.045742e+00	-1.044546e+03
7.500000e-07	-8.645637e-07	-1.487355e-08	-6.178847e+00	-9.805569e+02
7.600000e-07	-7.430210e-07	-1.384521e-08	-5.310209e+00	-9.132455e+02
7.700000e-07	-6.212330e-07	-1.277040e-08	-4.439816e+00	-8.427530e+02
7.800000e-07	-4.992074e-07	-1.165350e-08	-3.567726e+00	-7.693676e+02
7.900000e-07	-3.770532e-07	-1.049965e-08	-2.694716e+00	-6.935206e+02
8.000000e-07	-2.547422e-07	-9.311691e-09	-1.820586e+00	-6.157556e+02
8.100000e-07	-1.322994e-07	-8.102910e-09	-9.455147e-01	-5.366722e+02
8.200000e-07	-9.763773e-09	-6.886509e-09	-6.977955e-02	-4.568504e+02
8.300000e-07	1.128171e-07	-5.670984e-09	8.062790e-01	-3.767695e+02
8.400000e-07	2.353600e-07	-4.455823e-09	1.682066e+00	-2.967357e+02
8.500000e-07	3.578411e-07	-3.241986e-09	2.557412e+00	-2.168338e+02
8.600000e-07	4.801921e-07	-2.026880e-09	3.431828e+00	-1.369155e+02
8.700000e-07	6.023896e-07	-8.043177e-10	4.305146e+00	-5.662970e+01
8.800000e-07	7.244311e-07	4.323527e-10	5.177350e+00	2.450745e+01
8.900000e-07	8.462704e-07	1.691697e-09	6.048109e+00	1.070127e+02
9.000000e-07	9.678657e-07	2.976596e-09	6.917124e+00	1.913225e+02
9.100000e-07	1.089127e-06	4.291491e-09	7.783749e+00	2.776869e+02
9.200000e-07	1.209978e-06	5.637219e-09	8.647444e+00	3.660891e+02
9.300000e-07	1.330306e-06	7.009128e-09	9.507404e+00	4.562052e+02
9.400000e-07	1.450048e-06	8.397901e-09	1.036318e+01	5.474130e+02
9.500000e-07	1.569244e-06	9.792511e-09	1.121505e+01	6.388463e+02
9.600000e-07	1.687866e-06	1.117567e-08	1.206281e+01	7.294865e+02
9.700000e-07	1.805886e-06	1.252589e-08	1.290627e+01	8.182740e+02
9.800000e-07	1.923247e-06	1.383020e-08	1.374503e+01	9.042212e+02
9.900000e-07	2.039875e-06	1.507917e-08	1.457854e+01	9.865082e+02
1.000000e-06	2.155656e-06	1.626305e-08	1.540600e+01	1.064547e+03
1.010000e-06	2.270414e-06	1.737421e-08	1.622615e+01	1.138007e+03
1.020000e-06	2.384196e-06	1.841301e-08	1.703933e+01	1.206804e+03
1.030000e-06	2.497057e-06	1.938398e-08	1.784592e+01	1.271056e+03
1.040000e-06	2.608888e-06	2.029405e-08	1.864515e+01	1.331025e+03
1.050000e-06	2.719743e-06	2.114379e-08	1.943741e+01	1.387046e+03
1.060000e-06	2.829670e-06	2.194170e-08	2.022303e+01	1.439470e+03
1.070000e-06	2.938670e-06	2.268904e-08	2.100203e+01	1.488624e+03
1.080000e-06	3.046724e-06	2.338988e-08	2.177427e+01	1.534781e+03
1.090000e-06	3.153694e-06	2.404662e-08	2.253876e+01	1.578164e+03
1.100000e-06	3.259469e-06	2.466183e-08	2.329471e+01	1.618953e+03
1.110000e-06	3.363881e-06	2.523897e-08	2.404092e+01	1.657301e+03
1.120000e-06	3.466987e-06	2.578305e-08	2.477779e+01	1.693355e+03
1.130000e-06	3.569016e-06	2.629880e-08	2.550698e+01	1.727264e+03
1.140000e-06	3.669948e-06	2.678555e-08	2.622832e+01	1.759186e+03
1.150000e-06	3.769677e-06	2.724483e-08	2.694106e+01	1.789284e+03
1.160000e-06	3.868029e-06	2.767751e-08	2.764396e+01	1.817715e+03
1.170000e-06	3.964809e-06	2.808618e-08	2.833562e+01	1.844622e+03
1.180000e-06	4.060039e-06	2.847368e-08	2.901621e+01	1.870125e+03
1.190000e-06	4.153846e-06	2.884110e-08	2.968663e+01	1.894321e+03
1.200000e-06	4.246347e-06	2.918809e-08	3.034771e+01	1.917282e+03
1.210000e-06	4.337512e-06	2.952049e-08	3.099925e+01	1.939066e+03
1.220000e-06	4.427070e-06	2.983570e-08	3.163930e+01	1.959722e+03
1.230000e-06	4.514884e-06	3.013556e-08	3.226689e+01	1.979302e+03
1.240000e-06	4.601054e-06	3.041715e-08	3.288272e+01	1.997862e+03
1.250000e-06	4.685694e-06	3.068290e-08	3.348763e+01	2.015466e+03
1.260000e-06	4.768815e-06	3.093635e-08	3.408168e+01	2.032181e+03
1.270000e-06	4.850248e-06	3.117810e-08	3.466366e+01	2.048071e+03
1.280000e-06	4.929825e-06	3.140901e-08	3.523238e+01	2.063193e+03
1.290000e-06	5.007557e-06	3.162944e-08	3.578791e+01	2.077593e+03
1.300000e-06	5.083417e-06	3.183745e-08	3.633007e+01	2.091305e+03
1.310000e-06	5.157224e-06	3.203354e-08	3.685755e+01	2.104352e+03
1.320000e-06	5.229012e-06	3.221959e-08	3.737061e+01	2.116751e+03
1.330000e-06	5.298926e-06	3.239697e-08	3.787026e+01	2.128520e+03
1.340000e-06	5.367010e-06	3.256710e-08	3.835684e+01	2.139681e+03
1.350000e-06	5.433149e-06	3.272955e-08	3.882952e+01	2.150261e+03
1.360000e-06	5.497224e-06	3.288437e-08	3.928746e+01	2.160288e+03
1.370000e-06	5.559329e-06	3.303111e-08	3.973131e+01	2.169796e+03
1.380000e-06	5.619643e-06	3.317117e-08	4.016235e+01	2.178810e+03
1.390000e-06	5.677992e-06	3.330486e-08	4.057937e+01	2.187351e+03
1.400000e-06	5.734196e-06	3.343042e-08	4.098104e+01	2.195428e+03
1.410000e-06	5.788365e-06	3.354944e-08	4.136818e+01	2.203043e+03
1.420000e-06	5.840284e-06	3.366158e-08	4.173923e+01	2.210195e+03
1.430000e-06	5.889745e-06	3.376382e-08	4.209272e+01	2.216882e+03
1.440000e-06	5.936911e-06	3.385791e-08	4.242980e+01	2.223113e+03
1.450000e-06	5.982088e-06	3.394515e-08	4.275267e+01	2.228905e+03
1.460000e-06	6.025236e-06	3.402683e-08	4.306104e+01	2.234288e+03
1.470000e-06	6.066083e-06	3.410391e-08	4.335296e+01	2.239299e+03
1.480000e-06	6.104707e-06	3.417737e-08	4.362900e+01	2.243977e+03
1.490000e-06	6.141429e-06	3.424677e-08	4.389145e+01	2.248354e+03
1.500000e-06	6.176073e-06	3.431112e-08	4.413904e+01	2.252453e+03
1.510000e-06	6.208399e-06	3.437156e-08	4.437007e+01	2.256278e+03
1.520000e-06	6.238528e-06	3.442648e-08	4.458540e+01	2.259817e+03
1.530000e-06	6.266618e-06	3.447559e-08	4.478614e+01	2.263045e+03
1.540000e-06	6.292391e-06	3.451936e-08	4.497034e+01	2.265934e+03
1.550000e-06	6.315659e-06	3.455693e-08	4.513663e+01	2.268460e+03
1.560000e-06	6.336772e-06	3.458860e-08	4.528752e+01	2.270608e+03
1.570000e-06	6.355756e-06	3.461445e-08	4.542320e+01	2.272385e+03
1.580000e-06	6.372357e-06	3.463626e-08	4.554184e+01	2.273811e+03
1.590000e-06	6.386534e-06	3.465508e-08	4.564316e+01	2.274924e+03
1.600000e-06	6.398261e-06	3.466993e-08	4.572697e+01	2.275768e+03
1.610000e-06	6.407465e-06	3.468136e-08	4.579275e+01	2.276384e+03
1.620000e-06	6.414291e-06	3.469127e-08	4.584153e+01	2.276802e+03
1.630000e-06	6.419002e-06	3.469998e-08	4.587520e+01	2.277037e+03
1.640000e-06	6.421437e-06	3.470423e-08	4.589260e+01	2.277085e+03
1.650000e-06	6.421402e-06	3.470445e-08	4.589235e+01	2.276925e+03
1.660000e-06	6.419192e-06	3.468699e-08	4.587656e+01	2.276527e+03
1.670000e-06	6.415007e-06	3.467559e-08	4.584665e+01	2.275863e+03
1.680000e-06	6.408644e-06	3.466481e-08	4.580117e+01	2.274911e+03
1.690000e-06	6.400110e-06	3.464628e-08	4.574019e+01	2.273663e+03
1.700000e-06	6.389630e-06	3.462730e-08	4.566528e+01	2.272133e+03
1.710000e-06	6.376951e-06	3.461001e-08	4.557467e+01	2.270350e+03
1.720000e-06	6.361965e-06	3.461817e-08	4.546757e+01	2.268355e+03
1.730000e-06	6.345002e-06	3.454643e-08	4.534634e+01	2.266193e+03
1.740000e-06	6.325995e-06	3.439517e-08	4.521050e+01	2.263904e+03
1.750000e-06	6.304152e-06	3.441889e-08	4.505439e+01	2.261511e+03
1.760000e-06	6.279099e-06	3.443362e-08	4.487535e+01	2.259021e+03
1.770000e-06	6.251620e-06	3.434206e-08	4.467896e+01	2.256414e+03
1.780000e-06	6.222281e-06	3.449387e-08	4.446928e+01	2.253650e+03
1.790000e-06	6.191386e-06	3.439346e-08	4.424848e+01	2.250675e+03
1.800000e-06	6.159058e-06	3.415105e-08	4.401744e+01	2.247426e+03
1.810000e-06	6.124653e-06	3.435332e-08	4.377155e+01	2.243842e+03
1.820000e-06	6.088208e-06	3.416698e-08	4.351109e+01	2.239875e+03
1.830000e-06	6.049729e-06	3.410213e-08	4.323609e+01	2.235493e+03
1.840000e-06	6.008846e-06	3.421450e-08	4.294391e+01	2.230689e+03
1.850000e-06	5.965937e-06	3.386173e-08	4.263725e+01	2.225476e+03
1.860000e-06	5.921009e-06	3.389412e-08	4.231616e+01	2.219885e+03
1.870000e-06	5.873861e-06	3.375612e-08	4.197920e+01	2.213961e+03
1.880000e-06	5.824581e-06	3.358779e-08	4.162701e+01	2.207749e+03
1.890000e-06	5.772788e-06	3.366775e-08	4.125685e+01	2.201290e+03
1.900000e-06	5.718471e-06	3.339769e-08	4.086866e+01	2.194612e+03
1.910000e-06	5.661902e-06	3.342344e-08	4.046438e+01	2.187722e+03
1.920000e-06	5.603290e-06	3.331462e-08	4.004549e+01	2.180611e+03
1.930000e-06	5.542828e-06	3.308248e-08	3.961338e+01	2.173249e+03
1.940000e-06	5.480260e-06	3.306575e-08	3.916622e+01	2.165595e+03
1.950000e-06	5.415579e-06	3.286538e-08	3.870396e+01	2.157604e+03
1.960000e-06	5.348878e-06	3.285484e-08	3.822726e+01	2.149233e+03
1.970000e-06	5.280149e-06	3.264332e-08	3.773607e+01	2.140452e+03
1.980000e-06	5.209340e-06	3.248701e-08	3.723001e+01	2.131240e+03
1.990000e-06	5.136523e-06	3.240168e-08	3.670960e+01	2.121594e+03
2.000000e-06	5.061916e-06	3.216781e-08	3.617640e+01	2.111518e+03
2.010000e-06	4.985291e-06	3.209716e-08	3.562878e+01	2.101023e+03
2.020000e-06	4.906568e-06	3.187020e-08	3.506616e+01	2.090115e+03
2.030000e-06	4.826037e-06	3.173728e-08	3.449063e+01	2.078795e+03
2.040000e-06	4.743915e-06	3.155620e-08	3.390372e+01	2.067047e+03
2.050000e-06	4.660246e-06	3.134580e-08	3.330576e+01	2.054844e+03
2.060000e-06	4.574936e-06	3.117792e-08	3.269606e+01	2.042149e+03
2.070000e-06	4.487891e-06	3.094193e-08	3.207397e+01	2.028919e+03
2.080000e-06	4.399153e-06	3.077325e-08	3.143978e+01	2.015114e+03
2.090000e-06	4.309008e-06	3.051492e-08	3.079554e+01	2.000703e+03
2.100000e-06	4.217505e-06	3.030392e-08	3.014158e+01	1.985664e+03
2.110000e-06	4.124549e-06	3.007317e-08	2.947725e+01	1.969987e+03
2.120000e-06	4.030114e-06	2.983474e-08	2.880234e+01	1.953669e+03
2.130000e-06	3.934177e-06	2.958175e-08	2.811670e+01	1.936705e+03
2.140000e-06	3.836829e-06	2.929363e-08	2.742098e+01	1.919086e+03
2.150000e-06	3.738155e-06	2.902628e-08	2.671577e+01	1.900786e+03
2.160000e-06	3.638108e-06	2.872517e-08	2.600076e+01	1.881767e+03
2.170000e-06	3.536650e-06	2.843418e-08	2.527566e+01	1.861973e+03
2.180000e-06	3.433819e-06	2.811495e-08	2.454075e+01	1.841340e+03
2.190000e-06	3.329650e-06	2.779793e-08	2.379628e+01	1.819797e+03
2.200000e-06	3.224260e-06	2.744506e-08	2.304308e+01	1.797278e+03
2.210000e-06	3.117837e-06	2.708341e-08	2.228250e+01	1.773724e+03
2.220000e-06	3.010360e-06	2.671475e-08	2.151438e+01	1.749084e+03
2.230000e-06	2.901764e-06	2.633324e-08	2.073827e+01	1.723311e+03
2.240000e-06	2.792153e-06	2.592530e-08	1.995491e+01	1.696355e+03
2.250000e-06	2.681478e-06	2.548659e-08	1.916393e+01	1.668154e+03
2.260000e-06	2.569730e-06	2.503382e-08	1.836529e+01	1.638630e+03
2.270000e-06	2.457023e-06	2.455525e-08	1.755981e+01	1.607679e+03
2.280000e-06	2.343399e-06	2.406702e-08	1.674776e+01	1.575177e+03
2.290000e-06	2.228847e-06	2.354762e-08	1.592908e+01	1.540984e+03
2.300000e-06	2.113392e-06	2.300066e-08	1.510395e+01	1.504952e+03
2.310000e-06	1.997087e-06	2.241721e-08	1.427274e+01	1.466930e+03
2.320000e-06	1.879946e-06	2.180394e-08	1.343556e+01	1.426775e+03
2.330000e-06	1.762039e-06	2.115939e-08	1.259291e+01	1.384352e+03
2.340000e-06	1.643497e-06	2.048307e-08	1.174571e+01	1.339526e+03
2.350000e-06	1.524334e-06	1.976950e-08	1.089408e+01	1.292158e+03
2.360000e-06	1.404544e-06	1.900850e-08	1.003797e+01	1.242098e+03
2.370000e-06	1.284198e-06	1.819766e-08	9.177885e+00	1.189181e+03
2.380000e-06	1.163499e-06	1.733805e-08	8.315269e+00	1.133235e+03
2.390000e-06	1.042512e-06	1.643889e-08	7.450605e+00	1.074103e+03
2.400000e-06	9.212241e-07	1.548971e-08	6.583787e+00	1.011666e+03
2.410000e-06	7.996718e-07	1.449124e-08	5.715079e+00	9.458880e+02
2.420000e-06	6.778393e-07	1.344244e-08	4.844369e+00	8.768456e+02
2.430000e-06	5.557786e-07	1.234394e-08	3.972028e+00	8.047578e+02
2.440000e-06	4.335492e-07	1.120140e-08	3.098481e+00	7.299918e+02
2.450000e-06	3.111846e-07	1.002202e-08	2.223968e+00	6.530444e+02
2.460000e-06	1.887150e-07	8.820725e-09	1.348705e+00	5.744978e+02
2.470000e-06	6.613486e-08	7.604279e-09	4.726513e-01	4.949511e+02
2.480000e-06	-5.653155e-08	6.381733e-09	-4.040186e-01	4.149403e+02
2.490000e-06	-1.791292e-07	5.157846e-09	-1.280197e+00	3.348599e+02
2.500000e-06	-3.016075e-07	3.935897e-09	-2.155523e+00	2.549011e+02
2.510000e-06	-4.240480e-07	2.716131e-09	-3.030578e+00	1.750229e+02
2.520000e-06	-5.464545e-07	1.491363e-09	-3.905391e+00	9.496174e+01
2.530000e-06	-6.687293e-07	2.563319e-10	-4.779262e+00	1.428458e+01
2.540000e-06	-7.907405e-07	-9.951617e-10	-5.651249e+00	-6.752377e+01
2.550000e-06	-9.124486e-07	-2.267796e-09	-6.521070e+00	-1.509512e+02
2.560000e-06	-1.033827e-06	-3.568730e-09	-7.388538e+00	-2.363462e+02
2.570000e-06	-1.154873e-06	-4.901429e-09	-8.253625e+00	-3.238237e+02
2.580000e-06	-1.275581e-06	-6.263206e-09	-9.116295e+00	-4.132042e+02
2.590000e-06	-1.395880e-06	-7.648494e-09	-9.976051e+00	-5.040000e+02
2.600000e-06	-1.515709e-06	-9.045953e-09	-1.083244e+01	-5.954486e+02
2.610000e-06	-1.634886e-06	-1.044103e-08	-1.168417e+01	-6.865891e+02
2.620000e-06	-1.753294e-06	-1.181606e-08	-1.253041e+01	-7.763666e+02
2.630000e-06	-1.870942e-06	-1.315355e-08	-1.337121e+01	-8.637467e+02
2.640000e-06	-1.987766e-06	-1.444139e-08	-1.420613e+01	-9.478215e+02
2.650000e-06	-2.103668e-06	-1.567013e-08	-1.503446e+01	-1.027889e+03
2.660000e-06	-2.218635e-06	-1.682927e-08	-1.585610e+01	-1.103500e+03
2.670000e-06	-2.332706e-06	-1.791578e-08	-1.667134e+01	-1.174458e+03
2.680000e-06	-2.445768e-06	-1.893228e-08	-1.747937e+01	-1.240795e+03
2.690000e-06	-2.557716e-06	-1.988131e-08	-1.827944e+01	-1.302715e+03
2.700000e-06	-2.668634e-06	-2.076895e-08	-1.907214e+01	-1.360525e+03
2.710000e-06	-2.778558e-06	-2.159998e-08	-1.985774e+01	-1.414576e+03
2.720000e-06	-2.887596e-06	-2.237843e-08	-2.063701e+01	-1.465211e+03
2.730000e-06	-2.995734e-06	-2.310901e-08	-2.140985e+01	-1.512728e+03
2.740000e-06	-3.102875e-06	-2.379214e-08	-2.217557e+01	-1.557375e+03
2.750000e-06	-3.209050e-06	-2.443214e-08	-2.293438e+01	-1.599349e+03
2.760000e-06	-3.314120e-06	-2.503708e-08	-2.368529e+01	-1.638812e+03
2.770000e-06	-3.417992e-06	-2.560916e-08	-2.442764e+01	-1.675913e+03
2.780000e-06	-3.520669e-06	-2.614539e-08	-2.516145e+01	-1.710798e+03
2.790000e-06	-3.621940e-06	-2.664495e-08	-2.588521e+01	-1.743623e+03
2.800000e-06	-3.721809e-06	-2.711495e-08	-2.659895e+01	-1.774548e+03
2.810000e-06	-3.820462e-06	-2.756152e-08	-2.730400e+01	-1.803734e+03
2.820000e-06	-3.917896e-06	-2.798478e-08	-2.800034e+01	-1.831332e+03
2.830000e-06	-4.014084e-06	-2.838726e-08	-2.868778e+01	-1.857474e+03
2.840000e-06	-4.108865e-06	-2.877045e-08	-2.936516e+01	-1.882267e+03
2.850000e-06	-4.202032e-06	-2.913202e-08	-3.003100e+01	-1.905793e+03
2.860000e-06	-4.293754e-06	-2.947118e-08	-3.068652e+01	-1.928117e+03
2.870000e-06	-4.384032e-06	-2.978932e-08	-3.133171e+01	-1.949291e+03
2.880000e-06	-4.472652e-06	-3.009236e-08	-3.196506e+01	-1.969364e+03
2.890000e-06	-4.559661e-06	-3.038391e-08	-3.258690e+01	-1.988390e+03
2.900000e-06	-4.644928e-06	-3.066280e-08	-3.319628e+01	-2.006430e+03
2.910000e-06	-4.728511e-06	-3.092645e-08	-3.379363e+01	-2.023550e+03
2.920000e-06	-4.810511e-06	-3.117464e-08	-3.437967e+01	-2.039815e+03
2.930000e-06	-4.890831e-06	-3.141147e-08	-3.495370e+01	-2.055287e+03
2.940000e-06	-4.969256e-06	-3.163939e-08	-3.551418e+01	-2.070018e+03
