# Temperatura_=_63.84
# Concentracion g/m^3_=_28200.0
# C_Vs_to_Am_M_A/Vsm_=_65563218390.804596
# pendiente_HvsI_1/m_=_3716.3
# ordenada_HvsI_A/m_=_1297.0
# frecuencia_Hz_=_302271.86959339643

Tiempo_(s)	Campo_(V.s)	Magnetizacion_(V.s)	Campo_(kA/m)	Magnetizacion_(A/m)
0.000000e+00	-6.944488e-06	-2.818112e-08	-4.951329e+01	-1.844593e+03
1.000000e-08	-6.940672e-06	-2.817346e-08	-4.948608e+01	-1.844027e+03
2.000000e-08	-6.934613e-06	-2.816168e-08	-4.944288e+01	-1.843245e+03
3.000000e-08	-6.926405e-06	-2.814950e-08	-4.938436e+01	-1.842268e+03
4.000000e-08	-6.915813e-06	-2.813431e-08	-4.930884e+01	-1.841117e+03
5.000000e-08	-6.902634e-06	-2.811583e-08	-4.921488e+01	-1.839812e+03
6.000000e-08	-6.886883e-06	-2.809226e-08	-4.910257e+01	-1.838371e+03
7.000000e-08	-6.868861e-06	-2.806036e-08	-4.897407e+01	-1.836805e+03
8.000000e-08	-6.848806e-06	-2.804681e-08	-4.883109e+01	-1.835119e+03
9.000000e-08	-6.826382e-06	-2.805497e-08	-4.867121e+01	-1.833319e+03
1.000000e-07	-6.801158e-06	-2.801257e-08	-4.849137e+01	-1.831411e+03
1.100000e-07	-6.773175e-06	-2.794920e-08	-4.829185e+01	-1.829404e+03
1.200000e-07	-6.742853e-06	-2.791536e-08	-4.807565e+01	-1.827303e+03
1.300000e-07	-6.710275e-06	-2.786772e-08	-4.784338e+01	-1.825111e+03
1.400000e-07	-6.675528e-06	-2.777742e-08	-4.759564e+01	-1.822821e+03
1.500000e-07	-6.639034e-06	-2.777760e-08	-4.733544e+01	-1.820410e+03
1.600000e-07	-6.600700e-06	-2.779076e-08	-4.706212e+01	-1.817840e+03
1.700000e-07	-6.560118e-06	-2.765703e-08	-4.677278e+01	-1.815063e+03
1.800000e-07	-6.517114e-06	-2.762325e-08	-4.646617e+01	-1.812023e+03
1.900000e-07	-6.471628e-06	-2.758241e-08	-4.614186e+01	-1.808669e+03
2.000000e-07	-6.423741e-06	-2.746709e-08	-4.580043e+01	-1.804965e+03
2.100000e-07	-6.373328e-06	-2.742583e-08	-4.544099e+01	-1.800898e+03
2.200000e-07	-6.320233e-06	-2.739388e-08	-4.506243e+01	-1.796480e+03
2.300000e-07	-6.264692e-06	-2.735609e-08	-4.466643e+01	-1.791743e+03
2.400000e-07	-6.206766e-06	-2.725436e-08	-4.425343e+01	-1.786735e+03
2.500000e-07	-6.146462e-06	-2.715629e-08	-4.382347e+01	-1.781501e+03
2.600000e-07	-6.083943e-06	-2.707337e-08	-4.337772e+01	-1.776077e+03
2.700000e-07	-6.019169e-06	-2.696432e-08	-4.291588e+01	-1.770476e+03
2.800000e-07	-5.952175e-06	-2.688619e-08	-4.243823e+01	-1.764684e+03
2.900000e-07	-5.882940e-06	-2.681094e-08	-4.194459e+01	-1.758668e+03
3.000000e-07	-5.811499e-06	-2.672263e-08	-4.143522e+01	-1.752381e+03
3.100000e-07	-5.737849e-06	-2.661313e-08	-4.091011e+01	-1.745774e+03
3.200000e-07	-5.661831e-06	-2.648958e-08	-4.036811e+01	-1.738810e+03
3.300000e-07	-5.583448e-06	-2.637645e-08	-3.980925e+01	-1.731472e+03
3.400000e-07	-5.502809e-06	-2.626388e-08	-3.923430e+01	-1.723761e+03
3.500000e-07	-5.420212e-06	-2.615957e-08	-3.864540e+01	-1.715698e+03
3.600000e-07	-5.335889e-06	-2.602962e-08	-3.804419e+01	-1.707306e+03
3.700000e-07	-5.249843e-06	-2.588643e-08	-3.743069e+01	-1.698606e+03
3.800000e-07	-5.162018e-06	-2.574607e-08	-3.680451e+01	-1.689598e+03
3.900000e-07	-5.072360e-06	-2.559359e-08	-3.616526e+01	-1.680265e+03
4.000000e-07	-4.980867e-06	-2.544502e-08	-3.551293e+01	-1.670565e+03
4.100000e-07	-4.887595e-06	-2.529457e-08	-3.484791e+01	-1.660449e+03
4.200000e-07	-4.792655e-06	-2.514092e-08	-3.417100e+01	-1.649864e+03
4.300000e-07	-4.696036e-06	-2.496882e-08	-3.348212e+01	-1.638768e+03
4.400000e-07	-4.597704e-06	-2.478252e-08	-3.278103e+01	-1.627142e+03
4.500000e-07	-4.497690e-06	-2.459323e-08	-3.206794e+01	-1.614984e+03
4.600000e-07	-4.396046e-06	-2.440032e-08	-3.134323e+01	-1.602313e+03
4.700000e-07	-4.292914e-06	-2.420358e-08	-3.060791e+01	-1.589148e+03
4.800000e-07	-4.188232e-06	-2.399635e-08	-2.986154e+01	-1.575503e+03
4.900000e-07	-4.081995e-06	-2.378323e-08	-2.910409e+01	-1.561366e+03
5.000000e-07	-3.974238e-06	-2.355651e-08	-2.833579e+01	-1.546701e+03
5.100000e-07	-3.865028e-06	-2.331878e-08	-2.755714e+01	-1.531443e+03
5.200000e-07	-3.754566e-06	-2.306895e-08	-2.676956e+01	-1.515510e+03
5.300000e-07	-3.642757e-06	-2.280805e-08	-2.597238e+01	-1.498817e+03
5.400000e-07	-3.529429e-06	-2.253991e-08	-2.516437e+01	-1.481292e+03
5.500000e-07	-3.414586e-06	-2.225926e-08	-2.434555e+01	-1.462885e+03
5.600000e-07	-3.298255e-06	-2.196555e-08	-2.351612e+01	-1.443570e+03
5.700000e-07	-3.180600e-06	-2.165538e-08	-2.267726e+01	-1.423343e+03
5.800000e-07	-3.061852e-06	-2.133188e-08	-2.183060e+01	-1.402203e+03
5.900000e-07	-2.942025e-06	-2.099270e-08	-2.097625e+01	-1.380135e+03
6.000000e-07	-2.821011e-06	-2.064024e-08	-2.011344e+01	-1.357093e+03
6.100000e-07	-2.698866e-06	-2.027309e-08	-1.924256e+01	-1.332989e+03
6.200000e-07	-2.575707e-06	-1.988464e-08	-1.836445e+01	-1.307696e+03
6.300000e-07	-2.451529e-06	-1.947137e-08	-1.747908e+01	-1.281053e+03
6.400000e-07	-2.326404e-06	-1.903177e-08	-1.658696e+01	-1.252887e+03
6.500000e-07	-2.200559e-06	-1.857150e-08	-1.568970e+01	-1.223028e+03
6.600000e-07	-2.074101e-06	-1.808974e-08	-1.478806e+01	-1.191327e+03
6.700000e-07	-1.946963e-06	-1.758254e-08	-1.388159e+01	-1.157659e+03
6.800000e-07	-1.819087e-06	-1.704230e-08	-1.296985e+01	-1.121915e+03
6.900000e-07	-1.690459e-06	-1.646282e-08	-1.205275e+01	-1.083987e+03
7.000000e-07	-1.561169e-06	-1.584492e-08	-1.113093e+01	-1.043746e+03
7.100000e-07	-1.431367e-06	-1.518922e-08	-1.020546e+01	-1.001026e+03
7.200000e-07	-1.301219e-06	-1.449230e-08	-9.277517e+00	-9.556199e+02
7.300000e-07	-1.170752e-06	-1.375255e-08	-8.347308e+00	-9.073004e+02
7.400000e-07	-1.039918e-06	-1.296662e-08	-7.414477e+00	-8.558511e+02
7.500000e-07	-9.086890e-07	-1.212852e-08	-6.478834e+00	-8.011192e+02
7.600000e-07	-7.771473e-07	-1.124206e-08	-5.540958e+00	-7.430694e+02
7.700000e-07	-6.453466e-07	-1.030953e-08	-4.601236e+00	-6.818267e+02
7.800000e-07	-5.133207e-07	-9.336382e-09	-3.659909e+00	-6.176959e+02
7.900000e-07	-3.810903e-07	-8.327841e-09	-2.717124e+00	-5.511467e+02
8.000000e-07	-2.486487e-07	-7.288040e-09	-1.772832e+00	-4.827626e+02
8.100000e-07	-1.160689e-07	-6.226443e-09	-8.275560e-01	-4.131591e+02
8.200000e-07	1.658483e-08	-5.153451e-09	1.182477e-01	-3.428867e+02
8.300000e-07	1.492415e-07	-4.077045e-09	1.064072e+00	-2.723378e+02
8.400000e-07	2.818282e-07	-2.998679e-09	2.009398e+00	-2.016796e+02
8.500000e-07	4.143202e-07	-1.919962e-09	2.954049e+00	-1.308293e+02
8.600000e-07	5.466865e-07	-8.367485e-10	3.897803e+00	-5.948169e+01
8.700000e-07	6.788438e-07	2.595297e-10	4.840067e+00	1.281318e+01
8.800000e-07	8.107610e-07	1.378398e-09	5.780620e+00	8.653491e+01
8.900000e-07	9.424289e-07	2.526201e-09	6.719394e+00	1.620622e+02
9.000000e-07	1.073802e-06	3.706497e-09	7.656067e+00	2.395527e+02
9.100000e-07	1.204800e-06	4.915847e-09	8.590069e+00	3.188578e+02
9.200000e-07	1.335380e-06	6.146147e-09	9.521088e+00	3.994911e+02
9.300000e-07	1.465529e-06	7.384809e-09	1.044903e+01	4.806562e+02
9.400000e-07	1.595208e-06	8.615482e-09	1.137362e+01	5.613310e+02
9.500000e-07	1.724283e-06	9.821812e-09	1.229391e+01	6.403899e+02
9.600000e-07	1.852610e-06	1.098263e-08	1.320887e+01	7.167419e+02
9.700000e-07	1.980126e-06	1.208230e-08	1.411804e+01	7.894588e+02
9.800000e-07	2.106910e-06	1.311219e-08	1.502199e+01	8.578698e+02
9.900000e-07	2.233053e-06	1.407039e-08	1.592137e+01	9.216091e+02
1.000000e-06	2.358463e-06	1.495874e-08	1.681553e+01	9.806119e+02
1.010000e-06	2.482987e-06	1.578303e-08	1.770337e+01	1.035066e+03
1.020000e-06	2.606578e-06	1.654950e-08	1.858456e+01	1.085331e+03
1.030000e-06	2.729244e-06	1.725906e-08	1.945915e+01	1.131851e+03
1.040000e-06	2.850897e-06	1.791852e-08	2.032652e+01	1.175073e+03
1.050000e-06	2.971365e-06	1.853193e-08	2.118544e+01	1.215385e+03
1.060000e-06	3.090605e-06	1.910215e-08	2.203560e+01	1.253089e+03
1.070000e-06	3.208755e-06	1.963402e-08	2.287800e+01	1.288401e+03
1.080000e-06	3.325787e-06	2.013362e-08	2.371242e+01	1.321470e+03
1.090000e-06	3.441555e-06	2.060023e-08	2.453783e+01	1.352415e+03
1.100000e-06	3.556008e-06	2.103575e-08	2.535387e+01	1.381352e+03
1.110000e-06	3.669045e-06	2.144528e-08	2.615981e+01	1.408419e+03
1.120000e-06	3.780612e-06	2.183199e-08	2.695527e+01	1.433777e+03
1.130000e-06	3.890872e-06	2.219858e-08	2.774141e+01	1.457609e+03
1.140000e-06	3.999935e-06	2.254551e-08	2.851901e+01	1.480093e+03
1.150000e-06	4.107680e-06	2.287362e-08	2.928722e+01	1.501388e+03
1.160000e-06	4.213956e-06	2.318287e-08	3.004496e+01	1.521617e+03
1.170000e-06	4.318648e-06	2.347398e-08	3.079139e+01	1.540855e+03
1.180000e-06	4.421743e-06	2.374550e-08	3.152645e+01	1.559144e+03
1.190000e-06	4.523303e-06	2.400121e-08	3.225056e+01	1.576496e+03
1.200000e-06	4.623301e-06	2.424616e-08	3.296353e+01	1.592920e+03
1.210000e-06	4.721596e-06	2.448195e-08	3.366436e+01	1.608434e+03
1.220000e-06	4.818086e-06	2.470692e-08	3.435232e+01	1.623078e+03
1.230000e-06	4.912794e-06	2.491925e-08	3.502758e+01	1.636917e+03
1.240000e-06	5.005807e-06	2.511876e-08	3.569074e+01	1.650031e+03
1.250000e-06	5.097118e-06	2.530845e-08	3.634178e+01	1.662503e+03
1.260000e-06	5.186548e-06	2.548846e-08	3.697941e+01	1.674409e+03
1.270000e-06	5.273988e-06	2.565803e-08	3.760284e+01	1.685798e+03
1.280000e-06	5.359555e-06	2.581994e-08	3.821292e+01	1.696697e+03
1.290000e-06	5.443332e-06	2.597656e-08	3.881024e+01	1.707103e+03
1.300000e-06	5.525099e-06	2.612764e-08	3.939323e+01	1.717000e+03
1.310000e-06	5.604763e-06	2.627233e-08	3.996123e+01	1.726370e+03
1.320000e-06	5.682393e-06	2.641027e-08	4.051472e+01	1.735202e+03
1.330000e-06	5.757858e-06	2.654144e-08	4.105277e+01	1.743503e+03
1.340000e-06	5.831028e-06	2.666470e-08	4.157447e+01	1.751300e+03
1.350000e-06	5.902047e-06	2.677862e-08	4.208082e+01	1.758635e+03
1.360000e-06	5.971026e-06	2.688471e-08	4.257263e+01	1.765557e+03
1.370000e-06	6.037853e-06	2.698546e-08	4.304910e+01	1.772113e+03
1.380000e-06	6.102434e-06	2.707959e-08	4.350955e+01	1.778339e+03
1.390000e-06	6.164907e-06	2.716699e-08	4.395498e+01	1.784256e+03
1.400000e-06	6.225393e-06	2.725012e-08	4.438624e+01	1.789870e+03
1.410000e-06	6.283688e-06	2.733110e-08	4.480187e+01	1.795179e+03
1.420000e-06	6.339665e-06	2.740852e-08	4.520098e+01	1.800179e+03
1.430000e-06	6.393295e-06	2.748102e-08	4.558336e+01	1.804871e+03
1.440000e-06	6.444363e-06	2.754921e-08	4.594746e+01	1.809267e+03
1.450000e-06	6.492833e-06	2.761349e-08	4.629305e+01	1.813387e+03
1.460000e-06	6.538941e-06	2.767349e-08	4.662179e+01	1.817258e+03
1.470000e-06	6.582855e-06	2.772808e-08	4.693489e+01	1.820902e+03
1.480000e-06	6.624433e-06	2.777885e-08	4.723134e+01	1.824336e+03
1.490000e-06	6.663569e-06	2.782794e-08	4.751037e+01	1.827561e+03
1.500000e-06	6.700437e-06	2.787525e-08	4.777324e+01	1.830565e+03
1.510000e-06	6.734918e-06	2.791853e-08	4.801908e+01	1.833326e+03
1.520000e-06	6.766892e-06	2.795630e-08	4.824705e+01	1.835818e+03
1.530000e-06	6.796545e-06	2.798893e-08	4.845848e+01	1.838023e+03
1.540000e-06	6.823886e-06	2.801688e-08	4.865341e+01	1.839934e+03
1.550000e-06	6.848659e-06	2.804108e-08	4.883004e+01	1.841559e+03
1.560000e-06	6.870892e-06	2.806261e-08	4.898856e+01	1.842924e+03
1.570000e-06	6.890801e-06	2.808101e-08	4.913050e+01	1.844063e+03
1.580000e-06	6.908235e-06	2.809498e-08	4.925481e+01	1.845013e+03
1.590000e-06	6.923085e-06	2.810515e-08	4.936069e+01	1.845803e+03
1.600000e-06	6.935261e-06	2.811603e-08	4.944750e+01	1.846450e+03
1.610000e-06	6.944650e-06	2.812676e-08	4.951444e+01	1.846954e+03
1.620000e-06	6.951470e-06	2.813460e-08	4.956307e+01	1.847301e+03
1.630000e-06	6.955922e-06	2.813822e-08	4.959481e+01	1.847470e+03
1.640000e-06	6.957898e-06	2.813731e-08	4.960890e+01	1.847436e+03
1.650000e-06	6.957380e-06	2.813155e-08	4.960520e+01	1.847183e+03
1.660000e-06	6.954662e-06	2.812002e-08	4.958582e+01	1.846704e+03
1.670000e-06	6.949649e-06	2.811023e-08	4.955009e+01	1.846005e+03
1.680000e-06	6.942174e-06	2.810044e-08	4.949679e+01	1.845102e+03
1.690000e-06	6.932410e-06	2.808831e-08	4.942717e+01	1.844016e+03
1.700000e-06	6.920305e-06	2.807347e-08	4.934087e+01	1.842769e+03
1.710000e-06	6.905763e-06	2.805971e-08	4.923719e+01	1.841379e+03
1.720000e-06	6.889003e-06	2.804482e-08	4.911769e+01	1.839861e+03
1.730000e-06	6.870237e-06	2.798220e-08	4.898389e+01	1.838220e+03
1.740000e-06	6.848986e-06	2.791485e-08	4.883237e+01	1.836464e+03
1.750000e-06	6.824553e-06	2.791699e-08	4.865817e+01	1.834598e+03
1.760000e-06	6.796985e-06	2.790711e-08	4.846161e+01	1.832628e+03
1.770000e-06	6.766783e-06	2.786789e-08	4.824627e+01	1.830563e+03
1.780000e-06	6.734520e-06	2.789253e-08	4.801624e+01	1.828406e+03
1.790000e-06	6.700675e-06	2.785923e-08	4.777494e+01	1.826156e+03
1.800000e-06	6.665305e-06	2.775583e-08	4.752275e+01	1.823795e+03
1.810000e-06	6.627689e-06	2.779326e-08	4.725455e+01	1.821293e+03
1.820000e-06	6.587558e-06	2.774329e-08	4.696843e+01	1.818604e+03
1.830000e-06	6.545282e-06	2.770324e-08	4.666700e+01	1.815673e+03
1.840000e-06	6.500697e-06	2.772605e-08	4.634911e+01	1.812447e+03
1.850000e-06	6.453703e-06	2.759432e-08	4.601405e+01	1.808883e+03
1.860000e-06	6.404299e-06	2.753221e-08	4.566181e+01	1.804958e+03
1.870000e-06	6.352403e-06	2.742119e-08	4.529180e+01	1.800674e+03
1.880000e-06	6.297996e-06	2.734589e-08	4.490389e+01	1.796057e+03
1.890000e-06	6.241065e-06	2.735352e-08	4.449797e+01	1.791149e+03
1.900000e-06	6.181862e-06	2.724929e-08	4.407587e+01	1.785999e+03
1.910000e-06	6.120305e-06	2.721783e-08	4.363697e+01	1.780646e+03
1.920000e-06	6.056351e-06	2.711656e-08	4.318099e+01	1.775114e+03
1.930000e-06	5.990326e-06	2.697849e-08	4.271024e+01	1.769400e+03
1.940000e-06	5.921987e-06	2.689924e-08	4.222299e+01	1.763477e+03
1.950000e-06	5.851166e-06	2.678570e-08	4.171805e+01	1.757302e+03
1.960000e-06	5.778095e-06	2.672985e-08	4.119706e+01	1.750825e+03
1.970000e-06	5.702886e-06	2.662037e-08	4.066083e+01	1.744004e+03
1.980000e-06	5.625365e-06	2.651802e-08	4.010812e+01	1.736813e+03
1.990000e-06	5.545608e-06	2.639773e-08	3.953946e+01	1.729247e+03
2.000000e-06	5.464004e-06	2.625905e-08	3.895763e+01	1.721319e+03
2.010000e-06	5.380536e-06	2.614917e-08	3.836252e+01	1.713053e+03
2.020000e-06	5.295077e-06	2.600700e-08	3.775321e+01	1.704472e+03
2.030000e-06	5.207620e-06	2.589195e-08	3.712965e+01	1.695585e+03
2.040000e-06	5.118305e-06	2.574712e-08	3.649284e+01	1.686383e+03
2.050000e-06	5.027343e-06	2.559605e-08	3.584429e+01	1.676833e+03
2.060000e-06	4.934623e-06	2.543806e-08	3.518322e+01	1.666887e+03
2.070000e-06	4.840129e-06	2.527677e-08	3.450949e+01	1.656491e+03
2.080000e-06	4.743925e-06	2.511964e-08	3.382356e+01	1.645599e+03
2.090000e-06	4.646103e-06	2.494683e-08	3.312610e+01	1.634182e+03
2.100000e-06	4.546743e-06	2.477452e-08	3.241768e+01	1.622231e+03
2.110000e-06	4.445744e-06	2.458578e-08	3.169757e+01	1.609758e+03
2.120000e-06	4.343084e-06	2.438984e-08	3.096562e+01	1.596785e+03
2.130000e-06	4.238820e-06	2.417462e-08	3.022223e+01	1.583327e+03
2.140000e-06	4.133117e-06	2.395873e-08	2.946858e+01	1.569386e+03
2.150000e-06	4.026051e-06	2.374104e-08	2.870522e+01	1.554935e+03
2.160000e-06	3.917508e-06	2.351817e-08	2.793132e+01	1.539918e+03
2.170000e-06	3.807503e-06	2.328645e-08	2.714699e+01	1.524260e+03
2.180000e-06	3.696053e-06	2.304000e-08	2.635238e+01	1.507875e+03
2.190000e-06	3.583156e-06	2.277881e-08	2.554743e+01	1.490684e+03
2.200000e-06	3.468907e-06	2.250130e-08	2.473285e+01	1.472627e+03
2.210000e-06	3.353133e-06	2.221502e-08	2.390740e+01	1.453669e+03
2.220000e-06	3.235821e-06	2.191735e-08	2.307098e+01	1.433801e+03
2.230000e-06	3.117282e-06	2.160769e-08	2.222581e+01	1.413019e+03
2.240000e-06	2.997533e-06	2.127569e-08	2.137201e+01	1.391319e+03
2.250000e-06	2.876612e-06	2.092615e-08	2.050986e+01	1.368667e+03
2.260000e-06	2.754737e-06	2.056258e-08	1.964092e+01	1.344993e+03
2.270000e-06	2.631966e-06	2.018901e-08	1.876557e+01	1.320184e+03
2.280000e-06	2.508237e-06	1.979983e-08	1.788340e+01	1.294092e+03
2.290000e-06	2.383484e-06	1.938567e-08	1.699393e+01	1.266544e+03
2.300000e-06	2.257778e-06	1.894023e-08	1.609766e+01	1.237369e+03
2.310000e-06	2.131360e-06	1.846370e-08	1.519631e+01	1.206407e+03
2.320000e-06	2.004323e-06	1.796067e-08	1.429056e+01	1.173525e+03
2.330000e-06	1.876509e-06	1.742989e-08	1.337926e+01	1.138608e+03
2.340000e-06	1.747884e-06	1.687097e-08	1.246218e+01	1.101552e+03
2.350000e-06	1.618642e-06	1.627757e-08	1.154070e+01	1.062237e+03
2.360000e-06	1.488987e-06	1.564367e-08	1.061628e+01	1.020512e+03
2.370000e-06	1.359007e-06	1.496393e-08	9.689541e+00	9.761877e+02
2.380000e-06	1.228683e-06	1.423972e-08	8.760351e+00	9.290399e+02
2.390000e-06	1.097989e-06	1.347263e-08	7.828517e+00	8.788426e+02
2.400000e-06	9.669087e-07	1.265762e-08	6.893932e+00	8.254118e+02
2.410000e-06	8.354534e-07	1.179582e-08	5.956673e+00	7.686597e+02
2.420000e-06	7.037370e-07	1.088489e-08	5.017552e+00	7.086445e+02
2.430000e-06	5.717865e-07	9.924649e-09	4.076762e+00	6.456002e+02
2.440000e-06	4.396053e-07	8.920982e-09	3.134328e+00	5.799358e+02
2.450000e-06	3.072504e-07	7.883928e-09	2.190655e+00	5.121983e+02
2.460000e-06	1.747051e-07	6.824389e-09	1.245625e+00	4.430020e+02
2.470000e-06	4.197411e-08	5.751037e-09	2.992699e-01	3.729344e+02
2.480000e-06	-9.082987e-08	4.673239e-09	-6.476051e-01	3.024602e+02
2.490000e-06	-2.235713e-07	3.593290e-09	-1.594034e+00	2.318406e+02
2.500000e-06	-3.562492e-07	2.509114e-09	-2.540010e+00	1.610906e+02
2.510000e-06	-4.888234e-07	1.418692e-09	-3.485247e+00	8.998574e+01
2.520000e-06	-6.212151e-07	3.186739e-10	-4.429182e+00	1.812095e+01
2.530000e-06	-7.533454e-07	-7.964567e-10	-5.371254e+00	-5.498704e+01
2.540000e-06	-8.851809e-07	-1.936444e-09	-6.311223e+00	-1.297721e+02
2.550000e-06	-1.016672e-06	-3.103769e-09	-7.248736e+00	-2.064912e+02
2.560000e-06	-1.147690e-06	-4.300269e-09	-8.182881e+00	-2.851232e+02
2.570000e-06	-1.278260e-06	-5.524804e-09	-9.113828e+00	-3.653143e+02
2.580000e-06	-1.408476e-06	-6.767296e-09	-1.004225e+01	-4.463828e+02
2.590000e-06	-1.538343e-06	-8.012990e-09	-1.096819e+01	-5.273822e+02
2.600000e-06	-1.667787e-06	-9.240317e-09	-1.189110e+01	-6.072115e+02
2.610000e-06	-1.796706e-06	-1.042875e-08	-1.281028e+01	-6.847496e+02
2.620000e-06	-1.924890e-06	-1.156363e-08	-1.372422e+01	-7.589910e+02
2.630000e-06	-2.052184e-06	-1.263629e-08	-1.463181e+01	-8.291550e+02
2.640000e-06	-2.178728e-06	-1.364024e-08	-1.553405e+01	-8.947539e+02
2.650000e-06	-2.304558e-06	-1.457286e-08	-1.643120e+01	-9.556080e+02
2.660000e-06	-2.429546e-06	-1.543543e-08	-1.732234e+01	-1.011814e+03
2.670000e-06	-2.553552e-06	-1.623434e-08	-1.820649e+01	-1.063675e+03
2.680000e-06	-2.676505e-06	-1.697331e-08	-1.908313e+01	-1.111612e+03
2.690000e-06	-2.798526e-06	-1.765812e-08	-1.995312e+01	-1.156080e+03
2.700000e-06	-2.919522e-06	-1.829614e-08	-2.081581e+01	-1.197494e+03
2.710000e-06	-3.039307e-06	-1.889106e-08	-2.166986e+01	-1.236194e+03
2.720000e-06	-3.157954e-06	-1.944605e-08	-2.251580e+01	-1.272425e+03
2.730000e-06	-3.275492e-06	-1.996187e-08	-2.335383e+01	-1.306360e+03
2.740000e-06	-3.391707e-06	-2.044213e-08	-2.418243e+01	-1.338127e+03
2.750000e-06	-3.506443e-06	-2.089304e-08	-2.500048e+01	-1.367838e+03
2.760000e-06	-3.619794e-06	-2.131766e-08	-2.580866e+01	-1.395622e+03
2.770000e-06	-3.731725e-06	-2.171810e-08	-2.660671e+01	-1.421631e+03
2.780000e-06	-3.842193e-06	-2.209525e-08	-2.739433e+01	-1.446041e+03
2.790000e-06	-3.951341e-06	-2.244984e-08	-2.817254e+01	-1.469034e+03
2.800000e-06	-4.059208e-06	-2.278338e-08	-2.894162e+01	-1.490781e+03
2.810000e-06	-4.165795e-06	-2.309809e-08	-2.970157e+01	-1.511417e+03
2.820000e-06	-4.270987e-06	-2.339735e-08	-3.045158e+01	-1.531038e+03
2.830000e-06	-4.374623e-06	-2.368185e-08	-3.119049e+01	-1.549697e+03
2.840000e-06	-4.476582e-06	-2.395150e-08	-3.191744e+01	-1.567417e+03
2.850000e-06	-4.576819e-06	-2.420680e-08	-3.263212e+01	-1.584205e+03
2.860000e-06	-4.675458e-06	-2.444908e-08	-3.333540e+01	-1.600073e+03
2.870000e-06	-4.772550e-06	-2.467867e-08	-3.402766e+01	-1.615054e+03
2.880000e-06	-4.868027e-06	-2.489802e-08	-3.470839e+01	-1.629201e+03
2.890000e-06	-4.961702e-06	-2.510847e-08	-3.537628e+01	-1.642589e+03
2.900000e-06	-5.053472e-06	-2.530798e-08	-3.603059e+01	-1.655305e+03
2.910000e-06	-5.143493e-06	-2.549629e-08	-3.667243e+01	-1.667426e+03
2.920000e-06	-5.231705e-06	-2.567497e-08	-3.730137e+01	-1.679014e+03
2.930000e-06	-5.317951e-06	-2.584510e-08	-3.791629e+01	-1.690105e+03
2.940000e-06	-5.402199e-06	-2.600435e-08	-3.851697e+01	-1.700706e+03
