# Temperatura_=_51.68
# Concentracion g/m^3_=_28200.0
# C_Vs_to_Am_M_A/Vsm_=_65563218390.804596
# pendiente_HvsI_1/m_=_3716.3
# ordenada_HvsI_A/m_=_1297.0
# frecuencia_Hz_=_302269.7414101933

Tiempo_(s)	Campo_(V.s)	Magnetizacion_(V.s)	Campo_(kA/m)	Magnetizacion_(A/m)
0.000000e+00	-6.900303e-06	-2.688562e-08	-4.952017e+01	-1.759863e+03
1.000000e-08	-6.896914e-06	-2.688194e-08	-4.949585e+01	-1.759425e+03
2.000000e-08	-6.891262e-06	-2.687030e-08	-4.945529e+01	-1.758800e+03
3.000000e-08	-6.883415e-06	-2.685807e-08	-4.939898e+01	-1.757990e+03
4.000000e-08	-6.873215e-06	-2.684331e-08	-4.932578e+01	-1.757000e+03
5.000000e-08	-6.860471e-06	-2.682560e-08	-4.923432e+01	-1.755840e+03
6.000000e-08	-6.845142e-06	-2.680507e-08	-4.912431e+01	-1.754519e+03
7.000000e-08	-6.827521e-06	-2.677660e-08	-4.899785e+01	-1.753050e+03
8.000000e-08	-6.807889e-06	-2.674713e-08	-4.885696e+01	-1.751447e+03
9.000000e-08	-6.785981e-06	-2.677495e-08	-4.869974e+01	-1.749728e+03
1.000000e-07	-6.761336e-06	-2.675333e-08	-4.852288e+01	-1.747912e+03
1.100000e-07	-6.733887e-06	-2.667573e-08	-4.832588e+01	-1.746015e+03
1.200000e-07	-6.704053e-06	-2.663584e-08	-4.811178e+01	-1.744050e+03
1.300000e-07	-6.672050e-06	-2.660664e-08	-4.788211e+01	-1.742017e+03
1.400000e-07	-6.637962e-06	-2.650744e-08	-4.763747e+01	-1.739902e+03
1.500000e-07	-6.602076e-06	-2.647080e-08	-4.737994e+01	-1.737674e+03
1.600000e-07	-6.564279e-06	-2.656133e-08	-4.710869e+01	-1.735291e+03
1.700000e-07	-6.524355e-06	-2.640287e-08	-4.682217e+01	-1.732699e+03
1.800000e-07	-6.482148e-06	-2.634691e-08	-4.651927e+01	-1.729846e+03
1.900000e-07	-6.437382e-06	-2.636743e-08	-4.619801e+01	-1.726688e+03
2.000000e-07	-6.390203e-06	-2.621003e-08	-4.585943e+01	-1.723199e+03
2.100000e-07	-6.340536e-06	-2.618169e-08	-4.550299e+01	-1.719377e+03
2.200000e-07	-6.288171e-06	-2.615332e-08	-4.512719e+01	-1.715241e+03
2.300000e-07	-6.233365e-06	-2.610803e-08	-4.473388e+01	-1.710826e+03
2.400000e-07	-6.176177e-06	-2.604513e-08	-4.432347e+01	-1.706177e+03
2.500000e-07	-6.116622e-06	-2.593967e-08	-4.389607e+01	-1.701334e+03
2.600000e-07	-6.054881e-06	-2.587037e-08	-4.345298e+01	-1.696320e+03
2.700000e-07	-5.990892e-06	-2.576577e-08	-4.299376e+01	-1.691141e+03
2.800000e-07	-5.924607e-06	-2.567655e-08	-4.251807e+01	-1.685776e+03
2.900000e-07	-5.856136e-06	-2.560902e-08	-4.202668e+01	-1.680187e+03
3.000000e-07	-5.785496e-06	-2.552270e-08	-4.151974e+01	-1.674330e+03
3.100000e-07	-5.712650e-06	-2.544646e-08	-4.099696e+01	-1.668158e+03
3.200000e-07	-5.637531e-06	-2.532470e-08	-4.045786e+01	-1.661641e+03
3.300000e-07	-5.560046e-06	-2.521945e-08	-3.990179e+01	-1.654766e+03
3.400000e-07	-5.480273e-06	-2.509867e-08	-3.932929e+01	-1.647538e+03
3.500000e-07	-5.398473e-06	-2.499402e-08	-3.874226e+01	-1.639976e+03
3.600000e-07	-5.314932e-06	-2.489293e-08	-3.814272e+01	-1.632106e+03
3.700000e-07	-5.229663e-06	-2.475315e-08	-3.753079e+01	-1.623943e+03
3.800000e-07	-5.142618e-06	-2.462775e-08	-3.690611e+01	-1.615488e+03
3.900000e-07	-5.053791e-06	-2.448254e-08	-3.626864e+01	-1.606724e+03
4.000000e-07	-4.963095e-06	-2.433834e-08	-3.561776e+01	-1.597611e+03
4.100000e-07	-4.870647e-06	-2.418817e-08	-3.495430e+01	-1.588103e+03
4.200000e-07	-4.776650e-06	-2.404879e-08	-3.427973e+01	-1.578148e+03
4.300000e-07	-4.681012e-06	-2.389453e-08	-3.359338e+01	-1.567710e+03
4.400000e-07	-4.583653e-06	-2.371824e-08	-3.289468e+01	-1.556764e+03
4.500000e-07	-4.484546e-06	-2.354019e-08	-3.218344e+01	-1.545310e+03
4.600000e-07	-4.383777e-06	-2.335558e-08	-3.146027e+01	-1.533358e+03
4.700000e-07	-4.281547e-06	-2.316945e-08	-3.072661e+01	-1.520927e+03
4.800000e-07	-4.177788e-06	-2.297378e-08	-2.998198e+01	-1.508026e+03
4.900000e-07	-4.072527e-06	-2.277728e-08	-2.922658e+01	-1.494649e+03
5.000000e-07	-3.965736e-06	-2.256243e-08	-2.846019e+01	-1.480765e+03
5.100000e-07	-3.857417e-06	-2.233476e-08	-2.768284e+01	-1.466319e+03
5.200000e-07	-3.747800e-06	-2.209700e-08	-2.689617e+01	-1.451240e+03
5.300000e-07	-3.636871e-06	-2.185088e-08	-2.610009e+01	-1.435455e+03
5.400000e-07	-3.524535e-06	-2.159508e-08	-2.529390e+01	-1.418894e+03
5.500000e-07	-3.410817e-06	-2.132708e-08	-2.447780e+01	-1.401507e+03
5.600000e-07	-3.295617e-06	-2.105064e-08	-2.365107e+01	-1.383262e+03
5.700000e-07	-3.178914e-06	-2.075803e-08	-2.281355e+01	-1.364144e+03
5.800000e-07	-3.061002e-06	-2.045208e-08	-2.196734e+01	-1.344140e+03
5.900000e-07	-2.942069e-06	-2.013147e-08	-2.111382e+01	-1.323227e+03
6.000000e-07	-2.822012e-06	-1.980185e-08	-2.025223e+01	-1.301359e+03
6.100000e-07	-2.700822e-06	-1.945396e-08	-1.938251e+01	-1.278455e+03
6.200000e-07	-2.578611e-06	-1.908346e-08	-1.850546e+01	-1.254402e+03
6.300000e-07	-2.455421e-06	-1.868945e-08	-1.762138e+01	-1.229059e+03
6.400000e-07	-2.331312e-06	-1.827307e-08	-1.673071e+01	-1.202272e+03
6.500000e-07	-2.206434e-06	-1.783473e-08	-1.583452e+01	-1.173890e+03
6.600000e-07	-2.080855e-06	-1.737262e-08	-1.493330e+01	-1.143772e+03
6.700000e-07	-1.954557e-06	-1.688757e-08	-1.402692e+01	-1.111799e+03
6.800000e-07	-1.827649e-06	-1.637420e-08	-1.311616e+01	-1.077860e+03
6.900000e-07	-1.700068e-06	-1.582665e-08	-1.220057e+01	-1.041847e+03
7.000000e-07	-1.571771e-06	-1.523882e-08	-1.127985e+01	-1.003632e+03
7.100000e-07	-1.442927e-06	-1.461631e-08	-1.035520e+01	-9.630585e+02
7.200000e-07	-1.313658e-06	-1.395568e-08	-9.427495e+00	-9.199418e+02
7.300000e-07	-1.184081e-06	-1.325403e-08	-8.497585e+00	-8.740793e+02
7.400000e-07	-1.054183e-06	-1.250794e-08	-7.565366e+00	-8.252844e+02
7.500000e-07	-9.238937e-07	-1.171180e-08	-6.630343e+00	-7.734285e+02
7.600000e-07	-7.932074e-07	-1.087216e-08	-5.692470e+00	-7.184883e+02
7.700000e-07	-6.622041e-07	-9.989926e-09	-4.752322e+00	-6.605836e+02
7.800000e-07	-5.309473e-07	-9.066627e-09	-3.810355e+00	-5.999961e+02
7.900000e-07	-3.995009e-07	-8.110028e-09	-2.867027e+00	-5.371584e+02
8.000000e-07	-2.679043e-07	-7.128814e-09	-1.922621e+00	-4.726120e+02
8.100000e-07	-1.361495e-07	-6.129289e-09	-9.770797e-01	-4.069370e+02
8.200000e-07	-4.319033e-09	-5.117595e-09	-3.099563e-02	-3.406666e+02
8.300000e-07	1.275367e-07	-4.103006e-09	9.152697e-01	-2.742016e+02
8.400000e-07	2.593662e-07	-3.091113e-09	1.861347e+00	-2.077445e+02
8.500000e-07	3.911701e-07	-2.079679e-09	2.807241e+00	-1.412680e+02
8.600000e-07	5.228678e-07	-1.065645e-09	3.752372e+00	-7.452863e+01
8.700000e-07	6.543242e-07	-4.420409e-11	4.695772e+00	-7.125428e+00
8.800000e-07	7.855326e-07	9.940790e-10	5.637391e+00	6.140469e+01
8.900000e-07	9.164811e-07	2.057220e-09	6.577146e+00	1.314722e+02
9.000000e-07	1.047115e-06	3.152208e-09	7.514646e+00	2.033228e+02
9.100000e-07	1.177355e-06	4.276674e-09	8.449315e+00	2.769488e+02
9.200000e-07	1.307185e-06	5.425036e-09	9.381041e+00	3.520434e+02
9.300000e-07	1.436581e-06	6.586882e-09	1.030965e+01	4.280056e+02
9.400000e-07	1.565418e-06	7.748838e-09	1.123425e+01	5.039954e+02
9.500000e-07	1.693596e-06	8.893077e-09	1.215413e+01	5.790296e+02
9.600000e-07	1.821097e-06	1.000071e-08	1.306914e+01	6.520987e+02
9.700000e-07	1.947928e-06	1.106171e-08	1.397935e+01	7.222839e+02
9.800000e-07	2.074088e-06	1.206601e-08	1.488474e+01	7.888545e+02
9.900000e-07	2.199546e-06	1.300839e-08	1.578509e+01	8.513292e+02
1.000000e-06	2.324263e-06	1.388536e-08	1.668012e+01	9.094942e+02
1.010000e-06	2.448175e-06	1.470099e-08	1.756938e+01	9.633814e+02
1.020000e-06	2.571196e-06	1.545799e-08	1.845224e+01	1.013213e+03
1.030000e-06	2.693194e-06	1.616075e-08	1.932776e+01	1.059331e+03
1.040000e-06	2.814040e-06	1.681437e-08	2.019502e+01	1.102123e+03
1.050000e-06	2.933762e-06	1.742172e-08	2.105421e+01	1.141961e+03
1.060000e-06	3.052429e-06	1.798587e-08	2.190582e+01	1.179164e+03
1.070000e-06	3.170044e-06	1.850950e-08	2.274989e+01	1.213982e+03
1.080000e-06	3.286561e-06	1.899957e-08	2.358608e+01	1.246599e+03
1.090000e-06	3.401768e-06	1.946108e-08	2.441286e+01	1.277156e+03
1.100000e-06	3.515535e-06	1.989517e-08	2.522931e+01	1.305776e+03
1.110000e-06	3.627853e-06	2.030138e-08	2.603536e+01	1.332581e+03
1.120000e-06	3.738843e-06	2.068359e-08	2.683189e+01	1.357707e+03
1.130000e-06	3.848678e-06	2.104579e-08	2.762012e+01	1.381303e+03
1.140000e-06	3.957329e-06	2.138788e-08	2.839985e+01	1.403524e+03
1.150000e-06	4.064647e-06	2.170983e-08	2.917003e+01	1.424515e+03
1.160000e-06	4.170385e-06	2.201385e-08	2.992886e+01	1.444400e+03
1.170000e-06	4.274480e-06	2.230076e-08	3.067590e+01	1.463271e+03
1.180000e-06	4.377048e-06	2.256822e-08	3.141198e+01	1.481191e+03
1.190000e-06	4.478176e-06	2.281923e-08	3.213772e+01	1.498195e+03
1.200000e-06	4.577822e-06	2.306029e-08	3.285284e+01	1.514309e+03
1.210000e-06	4.675722e-06	2.329172e-08	3.355542e+01	1.529555e+03
1.220000e-06	4.771750e-06	2.351239e-08	3.424457e+01	1.543965e+03
1.230000e-06	4.866067e-06	2.372075e-08	3.492143e+01	1.557587e+03
1.240000e-06	4.958777e-06	2.391836e-08	3.558677e+01	1.570483e+03
1.250000e-06	5.049760e-06	2.410416e-08	3.623971e+01	1.582719e+03
1.260000e-06	5.138779e-06	2.427849e-08	3.687855e+01	1.594360e+03
1.270000e-06	5.225871e-06	2.444423e-08	3.750358e+01	1.605460e+03
1.280000e-06	5.311190e-06	2.460360e-08	3.811587e+01	1.616053e+03
1.290000e-06	5.394712e-06	2.475823e-08	3.871527e+01	1.626155e+03
1.300000e-06	5.476275e-06	2.490617e-08	3.930060e+01	1.635765e+03
1.310000e-06	5.555781e-06	2.504702e-08	3.987118e+01	1.644876e+03
1.320000e-06	5.633251e-06	2.518030e-08	4.042715e+01	1.653480e+03
1.330000e-06	5.708571e-06	2.530561e-08	4.096768e+01	1.661580e+03
1.340000e-06	5.781606e-06	2.542370e-08	4.149182e+01	1.669190e+03
1.350000e-06	5.852504e-06	2.553362e-08	4.200062e+01	1.676337e+03
1.360000e-06	5.921412e-06	2.563645e-08	4.249514e+01	1.683061e+03
1.370000e-06	5.988176e-06	2.573334e-08	4.297427e+01	1.689403e+03
1.380000e-06	6.052700e-06	2.582465e-08	4.343733e+01	1.695402e+03
1.390000e-06	6.115061e-06	2.591148e-08	4.388487e+01	1.701092e+03
1.400000e-06	6.175452e-06	2.599411e-08	4.431827e+01	1.706496e+03
1.410000e-06	6.233706e-06	2.607224e-08	4.473633e+01	1.711625e+03
1.420000e-06	6.289683e-06	2.614546e-08	4.513805e+01	1.716488e+03
1.430000e-06	6.343363e-06	2.621475e-08	4.552328e+01	1.721087e+03
1.440000e-06	6.394473e-06	2.627968e-08	4.589007e+01	1.725426e+03
1.450000e-06	6.442975e-06	2.634143e-08	4.623815e+01	1.729510e+03
1.460000e-06	6.489105e-06	2.640098e-08	4.656920e+01	1.733344e+03
1.470000e-06	6.533142e-06	2.645635e-08	4.688524e+01	1.736935e+03
1.480000e-06	6.574838e-06	2.650737e-08	4.718446e+01	1.740287e+03
1.490000e-06	6.614042e-06	2.655472e-08	4.746581e+01	1.743398e+03
1.500000e-06	6.650999e-06	2.659914e-08	4.773104e+01	1.746266e+03
1.510000e-06	6.685659e-06	2.663961e-08	4.797978e+01	1.748880e+03
1.520000e-06	6.717907e-06	2.667395e-08	4.821120e+01	1.751233e+03
1.530000e-06	6.747806e-06	2.670287e-08	4.842578e+01	1.753321e+03
1.540000e-06	6.775395e-06	2.672942e-08	4.862377e+01	1.755145e+03
1.550000e-06	6.800425e-06	2.675478e-08	4.880339e+01	1.756717e+03
1.560000e-06	6.822892e-06	2.677665e-08	4.896463e+01	1.758054e+03
1.570000e-06	6.843090e-06	2.679442e-08	4.910958e+01	1.759180e+03
1.580000e-06	6.860846e-06	2.680836e-08	4.923701e+01	1.760118e+03
1.590000e-06	6.875991e-06	2.681924e-08	4.934570e+01	1.760890e+03
1.600000e-06	6.888538e-06	2.682924e-08	4.943574e+01	1.761509e+03
1.610000e-06	6.898335e-06	2.683835e-08	4.950605e+01	1.761982e+03
1.620000e-06	6.905509e-06	2.684516e-08	4.955754e+01	1.762306e+03
1.630000e-06	6.910322e-06	2.684740e-08	4.959208e+01	1.762473e+03
1.640000e-06	6.912667e-06	2.684481e-08	4.960890e+01	1.762472e+03
1.650000e-06	6.912507e-06	2.684232e-08	4.960775e+01	1.762293e+03
1.660000e-06	6.910095e-06	2.683321e-08	4.959045e+01	1.761929e+03
1.670000e-06	6.905435e-06	2.682726e-08	4.955700e+01	1.761376e+03
1.680000e-06	6.898342e-06	2.682157e-08	4.950610e+01	1.760638e+03
1.690000e-06	6.888969e-06	2.681007e-08	4.943883e+01	1.759718e+03
1.700000e-06	6.877389e-06	2.679644e-08	4.935573e+01	1.758623e+03
1.710000e-06	6.863369e-06	2.678288e-08	4.925511e+01	1.757364e+03
1.720000e-06	6.847043e-06	2.677505e-08	4.913795e+01	1.755951e+03
1.730000e-06	6.828738e-06	2.673944e-08	4.900659e+01	1.754398e+03
1.740000e-06	6.808127e-06	2.663823e-08	4.885867e+01	1.752722e+03
1.750000e-06	6.784438e-06	2.662952e-08	4.868866e+01	1.750941e+03
1.760000e-06	6.757564e-06	2.664473e-08	4.849580e+01	1.749074e+03
1.770000e-06	6.727920e-06	2.659967e-08	4.828306e+01	1.747135e+03
1.780000e-06	6.696069e-06	2.661702e-08	4.805448e+01	1.745129e+03
1.790000e-06	6.662633e-06	2.664540e-08	4.781453e+01	1.743048e+03
1.800000e-06	6.627785e-06	2.647924e-08	4.756444e+01	1.740869e+03
1.810000e-06	6.590784e-06	2.649438e-08	4.729890e+01	1.738553e+03
1.820000e-06	6.551231e-06	2.651523e-08	4.701505e+01	1.736049e+03
1.830000e-06	6.509514e-06	2.638636e-08	4.671567e+01	1.733304e+03
1.840000e-06	6.465552e-06	2.648609e-08	4.640017e+01	1.730269e+03
1.850000e-06	6.419286e-06	2.636374e-08	4.606814e+01	1.726912e+03
1.860000e-06	6.370697e-06	2.626042e-08	4.571944e+01	1.723220e+03
1.870000e-06	6.319683e-06	2.621971e-08	4.535334e+01	1.719203e+03
1.880000e-06	6.266215e-06	2.605784e-08	4.496963e+01	1.714892e+03
1.890000e-06	6.210104e-06	2.609812e-08	4.456694e+01	1.710330e+03
1.900000e-06	6.151583e-06	2.600495e-08	4.414697e+01	1.705558e+03
1.910000e-06	6.090848e-06	2.593745e-08	4.371110e+01	1.700610e+03
1.920000e-06	6.027757e-06	2.592814e-08	4.325832e+01	1.695496e+03
1.930000e-06	5.962441e-06	2.576042e-08	4.278958e+01	1.690207e+03
1.940000e-06	5.894959e-06	2.571226e-08	4.230530e+01	1.684711e+03
1.950000e-06	5.825216e-06	2.556977e-08	4.180479e+01	1.678965e+03
1.960000e-06	5.753103e-06	2.549870e-08	4.128727e+01	1.672921e+03
1.970000e-06	5.678750e-06	2.543176e-08	4.075367e+01	1.666542e+03
1.980000e-06	5.602212e-06	2.530861e-08	4.020440e+01	1.659807e+03
1.990000e-06	5.523334e-06	2.524083e-08	3.963833e+01	1.652715e+03
2.000000e-06	5.442432e-06	2.508252e-08	3.905773e+01	1.645282e+03
2.010000e-06	5.359753e-06	2.498785e-08	3.846438e+01	1.637530e+03
2.020000e-06	5.275208e-06	2.484935e-08	3.785765e+01	1.629480e+03
2.030000e-06	5.188622e-06	2.472418e-08	3.723626e+01	1.621141e+03
2.040000e-06	5.100085e-06	2.461601e-08	3.660087e+01	1.612502e+03
2.050000e-06	5.009907e-06	2.446587e-08	3.595370e+01	1.603531e+03
2.060000e-06	4.918105e-06	2.433083e-08	3.529488e+01	1.594184e+03
2.070000e-06	4.824611e-06	2.415935e-08	3.462392e+01	1.584410e+03
2.080000e-06	4.729277e-06	2.401854e-08	3.393976e+01	1.574164e+03
2.090000e-06	4.632236e-06	2.385462e-08	3.324334e+01	1.563419e+03
2.100000e-06	4.533720e-06	2.369288e-08	3.253634e+01	1.552163e+03
2.110000e-06	4.433636e-06	2.352049e-08	3.181809e+01	1.540405e+03
2.120000e-06	4.331943e-06	2.332916e-08	3.108828e+01	1.528160e+03
2.130000e-06	4.228606e-06	2.312877e-08	3.034668e+01	1.515443e+03
2.140000e-06	4.123704e-06	2.291512e-08	2.959385e+01	1.502255e+03
2.150000e-06	4.017399e-06	2.271408e-08	2.883095e+01	1.488575e+03
2.160000e-06	3.909714e-06	2.250096e-08	2.805815e+01	1.474357e+03
2.170000e-06	3.800651e-06	2.228798e-08	2.727545e+01	1.459535e+03
2.180000e-06	3.690206e-06	2.205553e-08	2.648284e+01	1.444036e+03
2.190000e-06	3.578264e-06	2.181190e-08	2.567949e+01	1.427787e+03
2.200000e-06	3.464936e-06	2.154801e-08	2.486618e+01	1.410729e+03
2.210000e-06	3.350254e-06	2.127692e-08	2.404317e+01	1.392823e+03
2.220000e-06	3.234072e-06	2.099642e-08	2.320939e+01	1.374049e+03
2.230000e-06	3.116547e-06	2.070278e-08	2.236596e+01	1.354394e+03
2.240000e-06	2.997794e-06	2.038922e-08	2.151373e+01	1.333842e+03
2.250000e-06	2.877787e-06	2.005548e-08	2.065250e+01	1.312356e+03
2.260000e-06	2.756679e-06	1.970927e-08	1.978337e+01	1.289871e+03
2.270000e-06	2.634710e-06	1.934973e-08	1.890805e+01	1.266285e+03
2.280000e-06	2.511856e-06	1.898061e-08	1.802639e+01	1.241466e+03
2.290000e-06	2.388090e-06	1.858873e-08	1.713818e+01	1.215265e+03
2.300000e-06	2.263431e-06	1.817126e-08	1.624356e+01	1.187526e+03
2.310000e-06	2.137943e-06	1.771962e-08	1.534299e+01	1.158105e+03
2.320000e-06	2.011756e-06	1.724075e-08	1.443741e+01	1.126874e+03
2.330000e-06	1.884883e-06	1.673405e-08	1.352690e+01	1.093720e+03
2.340000e-06	1.757291e-06	1.620054e-08	1.261124e+01	1.058535e+03
2.350000e-06	1.629033e-06	1.563860e-08	1.169079e+01	1.021201e+03
2.360000e-06	1.500217e-06	1.503943e-08	1.076634e+01	9.815748e+02
2.370000e-06	1.370944e-06	1.439687e-08	9.838606e+00	9.394808e+02
2.380000e-06	1.241302e-06	1.371011e-08	8.908229e+00	8.947206e+02
2.390000e-06	1.111327e-06	1.298228e-08	7.975463e+00	8.470969e+02
2.400000e-06	9.810246e-07	1.220929e-08	7.040344e+00	7.964528e+02
2.410000e-06	8.504020e-07	1.139207e-08	6.102928e+00	7.427183e+02
2.420000e-06	7.194935e-07	1.053152e-08	5.163460e+00	6.859534e+02
2.430000e-06	5.883467e-07	9.625683e-09	4.222283e+00	6.263756e+02
2.440000e-06	4.570009e-07	8.678398e-09	3.279677e+00	5.643617e+02
2.450000e-06	3.254789e-07	7.699823e-09	2.335806e+00	5.004174e+02
2.460000e-06	1.938497e-07	6.701671e-09	1.391167e+00	4.351172e+02
2.470000e-06	6.215807e-08	5.691864e-09	4.460787e-01	3.690235e+02
2.480000e-06	-6.957428e-08	4.677055e-09	-4.993013e-01	3.025984e+02
2.490000e-06	-2.012901e-07	3.661808e-09	-1.444562e+00	2.361282e+02
2.500000e-06	-3.329483e-07	2.643789e-09	-2.389411e+00	1.696768e+02
2.510000e-06	-4.645152e-07	1.619400e-09	-3.333604e+00	1.030813e+02
2.520000e-06	-5.959792e-07	5.866396e-10	-4.277058e+00	3.599272e+01
2.530000e-06	-7.272684e-07	-4.565477e-10	-5.219258e+00	-3.204052e+01
2.540000e-06	-8.582995e-07	-1.515523e-09	-6.159605e+00	-1.014637e+02
2.550000e-06	-9.890618e-07	-2.596238e-09	-7.098023e+00	-1.725995e+02
2.560000e-06	-1.119548e-06	-3.701763e-09	-8.034461e+00	-2.455479e+02
2.570000e-06	-1.249654e-06	-4.834897e-09	-8.968166e+00	-3.201220e+02
2.580000e-06	-1.379282e-06	-5.991817e-09	-9.898446e+00	-3.958324e+02
2.590000e-06	-1.508497e-06	-7.162045e-09	-1.082576e+01	-4.719235e+02
2.600000e-06	-1.637243e-06	-8.325605e-09	-1.174971e+01	-5.474552e+02
2.610000e-06	-1.765413e-06	-9.460982e-09	-1.266952e+01	-6.214137e+02
2.620000e-06	-1.892938e-06	-1.055602e-08	-1.358471e+01	-6.928315e+02
2.630000e-06	-2.019720e-06	-1.159939e-08	-1.449457e+01	-7.608946e+02
2.640000e-06	-2.145735e-06	-1.258169e-08	-1.539891e+01	-8.250189e+02
2.650000e-06	-2.270877e-06	-1.349771e-08	-1.629700e+01	-8.848863e+02
2.660000e-06	-2.395093e-06	-1.434721e-08	-1.718844e+01	-9.404369e+02
2.670000e-06	-2.518368e-06	-1.513524e-08	-1.807312e+01	-9.918264e+02
2.680000e-06	-2.640687e-06	-1.586678e-08	-1.895095e+01	-1.039358e+03
2.690000e-06	-2.762051e-06	-1.654395e-08	-1.982192e+01	-1.083411e+03
2.700000e-06	-2.882353e-06	-1.717316e-08	-2.068527e+01	-1.124368e+03
2.710000e-06	-3.001640e-06	-1.776228e-08	-2.154134e+01	-1.162573e+03
2.720000e-06	-3.119851e-06	-1.831291e-08	-2.238968e+01	-1.198303e+03
2.730000e-06	-3.236685e-06	-1.882445e-08	-2.322814e+01	-1.231766e+03
2.740000e-06	-3.352148e-06	-1.929995e-08	-2.405676e+01	-1.263118e+03
2.750000e-06	-3.466267e-06	-1.974562e-08	-2.487574e+01	-1.292485e+03
2.760000e-06	-3.578927e-06	-2.016506e-08	-2.568425e+01	-1.319988e+03
2.770000e-06	-3.690103e-06	-2.055882e-08	-2.648211e+01	-1.345757e+03
2.780000e-06	-3.799956e-06	-2.092838e-08	-2.727046e+01	-1.369936e+03
2.790000e-06	-3.908621e-06	-2.127619e-08	-2.805030e+01	-1.392679e+03
2.800000e-06	-4.016091e-06	-2.160639e-08	-2.882156e+01	-1.414138e+03
2.810000e-06	-4.122295e-06	-2.192077e-08	-2.958374e+01	-1.434444e+03
2.820000e-06	-4.227041e-06	-2.221851e-08	-3.033545e+01	-1.453705e+03
2.830000e-06	-4.330231e-06	-2.249894e-08	-3.107600e+01	-1.471993e+03
2.840000e-06	-4.431704e-06	-2.276224e-08	-3.180422e+01	-1.489355e+03
2.850000e-06	-4.531567e-06	-2.300979e-08	-3.252088e+01	-1.505816e+03
2.860000e-06	-4.629941e-06	-2.324533e-08	-3.322687e+01	-1.521400e+03
2.870000e-06	-4.726696e-06	-2.347207e-08	-3.392123e+01	-1.536134e+03
2.880000e-06	-4.821763e-06	-2.368870e-08	-3.460348e+01	-1.550060e+03
2.890000e-06	-4.914994e-06	-2.389501e-08	-3.527256e+01	-1.563233e+03
2.900000e-06	-5.006511e-06	-2.409096e-08	-3.592933e+01	-1.575721e+03
2.910000e-06	-5.096327e-06	-2.427386e-08	-3.657390e+01	-1.587589e+03
2.920000e-06	-5.184311e-06	-2.444543e-08	-3.720532e+01	-1.598897e+03
2.930000e-06	-5.270314e-06	-2.460921e-08	-3.782252e+01	-1.609686e+03
2.940000e-06	-5.354352e-06	-2.476586e-08	-3.842562e+01	-1.619980e+03
