# Temperatura_=_28.35
# Concentracion g/m^3_=_28200.0
# C_Vs_to_Am_M_A/Vsm_=_65563218390.804596
# pendiente_HvsI_1/m_=_3716.3
# ordenada_HvsI_A/m_=_1297.0
# frecuencia_Hz_=_302275.4274532212

Tiempo_(s)	Campo_(V.s)	Magnetizacion_(V.s)	Campo_(kA/m)	Magnetizacion_(A/m)
0.000000e+00	-6.948183e-06	-2.348052e-08	-4.952649e+01	-1.536782e+03
1.000000e-08	-6.945344e-06	-2.348054e-08	-4.950625e+01	-1.536460e+03
2.000000e-08	-6.940225e-06	-2.346760e-08	-4.946976e+01	-1.535974e+03
3.000000e-08	-6.932893e-06	-2.345336e-08	-4.941750e+01	-1.535314e+03
4.000000e-08	-6.923175e-06	-2.344260e-08	-4.934824e+01	-1.534477e+03
5.000000e-08	-6.910981e-06	-2.342643e-08	-4.926131e+01	-1.533465e+03
6.000000e-08	-6.896197e-06	-2.340653e-08	-4.915594e+01	-1.532286e+03
7.000000e-08	-6.878976e-06	-2.338105e-08	-4.903318e+01	-1.530960e+03
8.000000e-08	-6.859753e-06	-2.334553e-08	-4.889616e+01	-1.529511e+03
9.000000e-08	-6.838392e-06	-2.338786e-08	-4.874390e+01	-1.527970e+03
1.000000e-07	-6.814329e-06	-2.340716e-08	-4.857238e+01	-1.526366e+03
1.100000e-07	-6.787408e-06	-2.331663e-08	-4.838049e+01	-1.524725e+03
1.200000e-07	-6.757971e-06	-2.326323e-08	-4.817066e+01	-1.523061e+03
1.300000e-07	-6.726322e-06	-2.324779e-08	-4.794507e+01	-1.521370e+03
1.400000e-07	-6.692435e-06	-2.313864e-08	-4.770353e+01	-1.519631e+03
1.500000e-07	-6.656670e-06	-2.301990e-08	-4.744860e+01	-1.517803e+03
1.600000e-07	-6.619125e-06	-2.318281e-08	-4.718097e+01	-1.515832e+03
1.700000e-07	-6.579385e-06	-2.312485e-08	-4.689771e+01	-1.513656e+03
1.800000e-07	-6.537362e-06	-2.298307e-08	-4.659817e+01	-1.511216e+03
1.900000e-07	-6.492901e-06	-2.309464e-08	-4.628125e+01	-1.508468e+03
2.000000e-07	-6.446046e-06	-2.292159e-08	-4.594727e+01	-1.505388e+03
2.100000e-07	-6.396750e-06	-2.281169e-08	-4.559588e+01	-1.501975e+03
2.200000e-07	-6.344685e-06	-2.283097e-08	-4.522477e+01	-1.498255e+03
2.300000e-07	-6.290060e-06	-2.277797e-08	-4.483540e+01	-1.494271e+03
2.400000e-07	-6.233088e-06	-2.274383e-08	-4.442931e+01	-1.490071e+03
2.500000e-07	-6.173725e-06	-2.262589e-08	-4.400617e+01	-1.485703e+03
2.600000e-07	-6.112125e-06	-2.258438e-08	-4.356708e+01	-1.481196e+03
2.700000e-07	-6.048301e-06	-2.250192e-08	-4.311215e+01	-1.476559e+03
2.800000e-07	-5.982148e-06	-2.239036e-08	-4.264061e+01	-1.471777e+03
2.900000e-07	-5.913793e-06	-2.235914e-08	-4.215338e+01	-1.466815e+03
3.000000e-07	-5.843311e-06	-2.228462e-08	-4.165099e+01	-1.461628e+03
3.100000e-07	-5.770544e-06	-2.219843e-08	-4.113231e+01	-1.456169e+03
3.200000e-07	-5.695370e-06	-2.206768e-08	-4.059647e+01	-1.450401e+03
3.300000e-07	-5.617830e-06	-2.200430e-08	-4.004376e+01	-1.444304e+03
3.400000e-07	-5.538029e-06	-2.191935e-08	-3.947495e+01	-1.437878e+03
3.500000e-07	-5.456201e-06	-2.178752e-08	-3.889168e+01	-1.431139e+03
3.600000e-07	-5.372606e-06	-2.170573e-08	-3.829581e+01	-1.424110e+03
3.700000e-07	-5.287272e-06	-2.159106e-08	-3.768756e+01	-1.416812e+03
3.800000e-07	-5.200193e-06	-2.147034e-08	-3.706685e+01	-1.409254e+03
3.900000e-07	-5.111230e-06	-2.134900e-08	-3.643273e+01	-1.401429e+03
4.000000e-07	-5.020319e-06	-2.124149e-08	-3.578472e+01	-1.393311e+03
4.100000e-07	-4.927690e-06	-2.110324e-08	-3.512446e+01	-1.384861e+03
4.200000e-07	-4.833478e-06	-2.094720e-08	-3.445292e+01	-1.376034e+03
4.300000e-07	-4.737560e-06	-2.081292e-08	-3.376922e+01	-1.366788e+03
4.400000e-07	-4.639877e-06	-2.067332e-08	-3.307294e+01	-1.357094e+03
4.500000e-07	-4.540491e-06	-2.051984e-08	-3.236452e+01	-1.346937e+03
4.600000e-07	-4.439481e-06	-2.035673e-08	-3.164452e+01	-1.336320e+03
4.700000e-07	-4.336944e-06	-2.018685e-08	-3.091364e+01	-1.325254e+03
4.800000e-07	-4.232916e-06	-2.000056e-08	-3.017213e+01	-1.313748e+03
4.900000e-07	-4.127312e-06	-1.981257e-08	-2.941939e+01	-1.301803e+03
5.000000e-07	-4.020114e-06	-1.963242e-08	-2.865528e+01	-1.289403e+03
5.100000e-07	-3.911470e-06	-1.944518e-08	-2.788087e+01	-1.276511e+03
5.200000e-07	-3.801529e-06	-1.923343e-08	-2.709722e+01	-1.263073e+03
5.300000e-07	-3.690220e-06	-1.900647e-08	-2.630381e+01	-1.249026e+03
5.400000e-07	-3.577414e-06	-1.877554e-08	-2.549972e+01	-1.234304e+03
5.500000e-07	-3.463170e-06	-1.854180e-08	-2.468540e+01	-1.218854e+03
5.600000e-07	-3.347471e-06	-1.829842e-08	-2.386070e+01	-1.202636e+03
5.700000e-07	-3.230303e-06	-1.804277e-08	-2.302553e+01	-1.185624e+03
5.800000e-07	-3.111922e-06	-1.776936e-08	-2.218171e+01	-1.167805e+03
5.900000e-07	-2.992465e-06	-1.747861e-08	-2.133022e+01	-1.149163e+03
6.000000e-07	-2.871847e-06	-1.717872e-08	-2.047046e+01	-1.129671e+03
6.100000e-07	-2.750177e-06	-1.686697e-08	-1.960320e+01	-1.109280e+03
6.200000e-07	-2.627450e-06	-1.654386e-08	-1.872841e+01	-1.087916e+03
6.300000e-07	-2.503609e-06	-1.620054e-08	-1.784567e+01	-1.065476e+03
6.400000e-07	-2.378873e-06	-1.583458e-08	-1.695655e+01	-1.041839e+03
6.500000e-07	-2.253410e-06	-1.544443e-08	-1.606225e+01	-1.016874e+03
6.600000e-07	-2.127293e-06	-1.503782e-08	-1.516330e+01	-9.904508e+02
6.700000e-07	-2.000546e-06	-1.461441e-08	-1.425984e+01	-9.624461e+02
6.800000e-07	-1.872988e-06	-1.416605e-08	-1.335062e+01	-9.327466e+02
6.900000e-07	-1.744581e-06	-1.368710e-08	-1.243533e+01	-9.012455e+02
7.000000e-07	-1.615549e-06	-1.317331e-08	-1.151560e+01	-8.678356e+02
7.100000e-07	-1.486064e-06	-1.263094e-08	-1.059263e+01	-8.324028e+02
7.200000e-07	-1.356165e-06	-1.205508e-08	-9.666710e+00	-7.948253e+02
7.300000e-07	-1.225839e-06	-1.144759e-08	-8.737752e+00	-7.549802e+02
7.400000e-07	-1.095114e-06	-1.080741e-08	-7.805948e+00	-7.127618e+02
7.500000e-07	-9.640160e-07	-1.012850e-08	-6.871484e+00	-6.681081e+02
7.600000e-07	-8.325050e-07	-9.409668e-09	-5.934076e+00	-6.210315e+02
7.700000e-07	-7.006113e-07	-8.656918e-09	-4.993942e+00	-5.716461e+02
7.800000e-07	-5.684249e-07	-7.872806e-09	-4.051720e+00	-5.201836e+02
7.900000e-07	-4.360355e-07	-7.062628e-09	-3.108051e+00	-4.669895e+02
8.000000e-07	-3.035161e-07	-6.235038e-09	-2.163456e+00	-4.124985e+02
8.100000e-07	-1.709098e-07	-5.393834e-09	-1.218242e+00	-3.571864e+02
8.200000e-07	-3.821996e-08	-4.546519e-09	-2.724310e-01	-3.015088e+02
8.300000e-07	9.454437e-08	-3.699221e-09	6.739101e-01	-2.458344e+02
8.400000e-07	2.273011e-07	-2.859851e-09	1.620197e+00	-1.903870e+02
8.500000e-07	3.600075e-07	-2.022954e-09	2.566125e+00	-1.352099e+02
8.600000e-07	4.926459e-07	-1.184220e-09	3.511569e+00	-8.016018e+01
8.700000e-07	6.251716e-07	-3.431852e-10	4.456209e+00	-2.493855e+01
8.800000e-07	7.575109e-07	5.034331e-10	5.399521e+00	3.084984e+01
8.900000e-07	8.895773e-07	1.365002e-09	6.340887e+00	8.761238e+01
9.000000e-07	1.021286e-06	2.248617e-09	7.279704e+00	1.456788e+02
9.100000e-07	1.152563e-06	3.152266e-09	8.215440e+00	2.052202e+02
9.200000e-07	1.283325e-06	4.078383e-09	9.147510e+00	2.661921e+02
9.300000e-07	1.413538e-06	5.024370e-09	1.007567e+01	3.283130e+02
9.400000e-07	1.543284e-06	5.982789e-09	1.100049e+01	3.910804e+02
9.500000e-07	1.672626e-06	6.940649e-09	1.192244e+01	4.538234e+02
9.600000e-07	1.801414e-06	7.886395e-09	1.284044e+01	5.157797e+02
9.700000e-07	1.929413e-06	8.806914e-09	1.375282e+01	5.761836e+02
9.800000e-07	2.056554e-06	9.689086e-09	1.465907e+01	6.343494e+02
9.900000e-07	2.182953e-06	1.052894e-08	1.556004e+01	6.897373e+02
1.000000e-06	2.308582e-06	1.131832e-08	1.645552e+01	7.419907e+02
1.010000e-06	2.433458e-06	1.205599e-08	1.734563e+01	7.909447e+02
1.020000e-06	2.557574e-06	1.274669e-08	1.823033e+01	8.366056e+02
1.030000e-06	2.680609e-06	1.339403e-08	1.910732e+01	8.791118e+02
1.040000e-06	2.802570e-06	1.399837e-08	1.997666e+01	9.186843e+02
1.050000e-06	2.923598e-06	1.456212e-08	2.083934e+01	9.555786e+02
1.060000e-06	3.043495e-06	1.508679e-08	2.169396e+01	9.900463e+02
1.070000e-06	3.162231e-06	1.557601e-08	2.254031e+01	1.022311e+03
1.080000e-06	3.279861e-06	1.603376e-08	2.337877e+01	1.052557e+03
1.090000e-06	3.396284e-06	1.646368e-08	2.420864e+01	1.080939e+03
1.100000e-06	3.511316e-06	1.686798e-08	2.502858e+01	1.107583e+03
1.110000e-06	3.624836e-06	1.724799e-08	2.583775e+01	1.132608e+03
1.120000e-06	3.736896e-06	1.760632e-08	2.663651e+01	1.156132e+03
1.130000e-06	3.847635e-06	1.794451e-08	2.742585e+01	1.178274e+03
1.140000e-06	3.957162e-06	1.826550e-08	2.820656e+01	1.199155e+03
1.150000e-06	4.065433e-06	1.856808e-08	2.897831e+01	1.218892e+03
1.160000e-06	4.172284e-06	1.885171e-08	2.973995e+01	1.237587e+03
1.170000e-06	4.277614e-06	1.911924e-08	3.049073e+01	1.255325e+03
1.180000e-06	4.381339e-06	1.937313e-08	3.123009e+01	1.272170e+03
1.190000e-06	4.483444e-06	1.961299e-08	3.195789e+01	1.288165e+03
1.200000e-06	4.584078e-06	1.984162e-08	3.267520e+01	1.303345e+03
1.210000e-06	4.683127e-06	2.005931e-08	3.338122e+01	1.317736e+03
1.220000e-06	4.780384e-06	2.026562e-08	3.407446e+01	1.331370e+03
1.230000e-06	4.875783e-06	2.046177e-08	3.475447e+01	1.344285e+03
1.240000e-06	4.969441e-06	2.064781e-08	3.542206e+01	1.356526e+03
1.250000e-06	5.061426e-06	2.082393e-08	3.607773e+01	1.368145e+03
1.260000e-06	5.151594e-06	2.099221e-08	3.672044e+01	1.379190e+03
1.270000e-06	5.239813e-06	2.115211e-08	3.734926e+01	1.389703e+03
1.280000e-06	5.326101e-06	2.130386e-08	3.796433e+01	1.399714e+03
1.290000e-06	5.410597e-06	2.144852e-08	3.856661e+01	1.409239e+03
1.300000e-06	5.493198e-06	2.158683e-08	3.915539e+01	1.418285e+03
1.310000e-06	5.573731e-06	2.171756e-08	3.972943e+01	1.426848e+03
1.320000e-06	5.652175e-06	2.184174e-08	4.028857e+01	1.434929e+03
1.330000e-06	5.728555e-06	2.195871e-08	4.083301e+01	1.442532e+03
1.340000e-06	5.802688e-06	2.206915e-08	4.136143e+01	1.449674e+03
1.350000e-06	5.874577e-06	2.217283e-08	4.187385e+01	1.456383e+03
1.360000e-06	5.944412e-06	2.226879e-08	4.237164e+01	1.462697e+03
1.370000e-06	6.012142e-06	2.235939e-08	4.285441e+01	1.468658e+03
1.380000e-06	6.077641e-06	2.244537e-08	4.332129e+01	1.474309e+03
1.390000e-06	6.140940e-06	2.252732e-08	4.377248e+01	1.479684e+03
1.400000e-06	6.202221e-06	2.260458e-08	4.420929e+01	1.484808e+03
1.410000e-06	6.261407e-06	2.267838e-08	4.463117e+01	1.489694e+03
1.420000e-06	6.318346e-06	2.274956e-08	4.503703e+01	1.494343e+03
1.430000e-06	6.373011e-06	2.281714e-08	4.542668e+01	1.498752e+03
1.440000e-06	6.425204e-06	2.287974e-08	4.579871e+01	1.502914e+03
1.450000e-06	6.474691e-06	2.293872e-08	4.615145e+01	1.506821e+03
1.460000e-06	6.521664e-06	2.299408e-08	4.648627e+01	1.510472e+03
1.470000e-06	6.566504e-06	2.304588e-08	4.680589e+01	1.513868e+03
1.480000e-06	6.609095e-06	2.309446e-08	4.710948e+01	1.517015e+03
1.490000e-06	6.649213e-06	2.313887e-08	4.739544e+01	1.519920e+03
1.500000e-06	6.686971e-06	2.318016e-08	4.766458e+01	1.522589e+03
1.510000e-06	6.722464e-06	2.321709e-08	4.791757e+01	1.525030e+03
1.520000e-06	6.755528e-06	2.324979e-08	4.815325e+01	1.527244e+03
1.530000e-06	6.786147e-06	2.327887e-08	4.837150e+01	1.529235e+03
1.540000e-06	6.814511e-06	2.330457e-08	4.857368e+01	1.531003e+03
1.550000e-06	6.840415e-06	2.332813e-08	4.875832e+01	1.532552e+03
1.560000e-06	6.863693e-06	2.334890e-08	4.892425e+01	1.533887e+03
1.570000e-06	6.884568e-06	2.336631e-08	4.907304e+01	1.535020e+03
1.580000e-06	6.903072e-06	2.338111e-08	4.920494e+01	1.535961e+03
1.590000e-06	6.919006e-06	2.339249e-08	4.931852e+01	1.536726e+03
1.600000e-06	6.932348e-06	2.340115e-08	4.941362e+01	1.537330e+03
1.610000e-06	6.942971e-06	2.340942e-08	4.948934e+01	1.537784e+03
1.620000e-06	6.950838e-06	2.341656e-08	4.954541e+01	1.538097e+03
1.630000e-06	6.956246e-06	2.342113e-08	4.958396e+01	1.538274e+03
1.640000e-06	6.959253e-06	2.342158e-08	4.960540e+01	1.538314e+03
1.650000e-06	6.959745e-06	2.342370e-08	4.960890e+01	1.538211e+03
1.660000e-06	6.957859e-06	2.341705e-08	4.959546e+01	1.537957e+03
1.670000e-06	6.953799e-06	2.340597e-08	4.956652e+01	1.537542e+03
1.680000e-06	6.947350e-06	2.339877e-08	4.952055e+01	1.536958e+03
1.690000e-06	6.938509e-06	2.338772e-08	4.945753e+01	1.536197e+03
1.700000e-06	6.927495e-06	2.337597e-08	4.937903e+01	1.535259e+03
1.710000e-06	6.914053e-06	2.336536e-08	4.928321e+01	1.534149e+03
1.720000e-06	6.898195e-06	2.336439e-08	4.917018e+01	1.532884e+03
1.730000e-06	6.880262e-06	2.335568e-08	4.904235e+01	1.531484e+03
1.740000e-06	6.860131e-06	2.322884e-08	4.889886e+01	1.529978e+03
1.750000e-06	6.837041e-06	2.319372e-08	4.873427e+01	1.528398e+03
1.760000e-06	6.810684e-06	2.324624e-08	4.854640e+01	1.526770e+03
1.770000e-06	6.781529e-06	2.320184e-08	4.833858e+01	1.525115e+03
1.780000e-06	6.750070e-06	2.318444e-08	4.811434e+01	1.523437e+03
1.790000e-06	6.716808e-06	2.331482e-08	4.787725e+01	1.521722e+03
1.800000e-06	6.682133e-06	2.317621e-08	4.763009e+01	1.519938e+03
1.810000e-06	6.645610e-06	2.308244e-08	4.736976e+01	1.518036e+03
1.820000e-06	6.606547e-06	2.321297e-08	4.709131e+01	1.515955e+03
1.830000e-06	6.565170e-06	2.299315e-08	4.679638e+01	1.513634e+03
1.840000e-06	6.521617e-06	2.308106e-08	4.648594e+01	1.511023e+03
1.850000e-06	6.475674e-06	2.311087e-08	4.615846e+01	1.508086e+03
1.860000e-06	6.427384e-06	2.294326e-08	4.581425e+01	1.504814e+03
1.870000e-06	6.376605e-06	2.298059e-08	4.545229e+01	1.501221e+03
1.880000e-06	6.323291e-06	2.275569e-08	4.507228e+01	1.497344e+03
1.890000e-06	6.267379e-06	2.277458e-08	4.467373e+01	1.493230e+03
1.900000e-06	6.209030e-06	2.275232e-08	4.425782e+01	1.488929e+03
1.910000e-06	6.148501e-06	2.261986e-08	4.382637e+01	1.484479e+03
1.920000e-06	6.085548e-06	2.269914e-08	4.337765e+01	1.479898e+03
1.930000e-06	6.020298e-06	2.250204e-08	4.291254e+01	1.475181e+03
1.940000e-06	5.952909e-06	2.244378e-08	4.243220e+01	1.470302e+03
1.950000e-06	5.883217e-06	2.235490e-08	4.193543e+01	1.465217e+03
1.960000e-06	5.811134e-06	2.226559e-08	4.142163e+01	1.459880e+03
1.970000e-06	5.736778e-06	2.224556e-08	4.089163e+01	1.454247e+03
1.980000e-06	5.660216e-06	2.207781e-08	4.034589e+01	1.448292e+03
1.990000e-06	5.581319e-06	2.205497e-08	3.978351e+01	1.442006e+03
2.000000e-06	5.500397e-06	2.189933e-08	3.920670e+01	1.435399e+03
2.010000e-06	5.417695e-06	2.180382e-08	3.861721e+01	1.428491e+03
2.020000e-06	5.333065e-06	2.172032e-08	3.801397e+01	1.421306e+03
2.030000e-06	5.246434e-06	2.157876e-08	3.739646e+01	1.413858e+03
2.040000e-06	5.157876e-06	2.147861e-08	3.676523e+01	1.406150e+03
2.050000e-06	5.067600e-06	2.131944e-08	3.612173e+01	1.398162e+03
2.060000e-06	4.975630e-06	2.124210e-08	3.546618e+01	1.389860e+03
2.070000e-06	4.881945e-06	2.109392e-08	3.479839e+01	1.381200e+03
2.080000e-06	4.786473e-06	2.095962e-08	3.411787e+01	1.372137e+03
2.090000e-06	4.689264e-06	2.080824e-08	3.342497e+01	1.362638e+03
2.100000e-06	4.590495e-06	2.064513e-08	3.272094e+01	1.352680e+03
2.110000e-06	4.490160e-06	2.049518e-08	3.200576e+01	1.342259e+03
2.120000e-06	4.388191e-06	2.033250e-08	3.127893e+01	1.331384e+03
2.130000e-06	4.284500e-06	2.018595e-08	3.053982e+01	1.320065e+03
2.140000e-06	4.179235e-06	1.999289e-08	2.978949e+01	1.308309e+03
2.150000e-06	4.072603e-06	1.980205e-08	2.902942e+01	1.296107e+03
2.160000e-06	3.964609e-06	1.959741e-08	2.825964e+01	1.283432e+03
2.170000e-06	3.855163e-06	1.940802e-08	2.747951e+01	1.270235e+03
2.180000e-06	3.744261e-06	1.920608e-08	2.668900e+01	1.256457e+03
2.190000e-06	3.631929e-06	1.899416e-08	2.588831e+01	1.242031e+03
2.200000e-06	3.518171e-06	1.876035e-08	2.507744e+01	1.226899e+03
2.210000e-06	3.403002e-06	1.850677e-08	2.425652e+01	1.211014e+03
2.220000e-06	3.286299e-06	1.824910e-08	2.342466e+01	1.194344e+03
2.230000e-06	3.168197e-06	1.799174e-08	2.258284e+01	1.176873e+03
2.240000e-06	3.048859e-06	1.772859e-08	2.173220e+01	1.158586e+03
2.250000e-06	2.928333e-06	1.743743e-08	2.087309e+01	1.139462e+03
2.260000e-06	2.806815e-06	1.713128e-08	2.000691e+01	1.119464e+03
2.270000e-06	2.684416e-06	1.680342e-08	1.913446e+01	1.098528e+03
2.280000e-06	2.561080e-06	1.646774e-08	1.825532e+01	1.076562e+03
2.290000e-06	2.436623e-06	1.611876e-08	1.736819e+01	1.053454e+03
2.300000e-06	2.311181e-06	1.575522e-08	1.647404e+01	1.029074e+03
2.310000e-06	2.185072e-06	1.536588e-08	1.557515e+01	1.003291e+03
2.320000e-06	2.058215e-06	1.494984e-08	1.467091e+01	9.759788e+02
2.330000e-06	1.930521e-06	1.450655e-08	1.376071e+01	9.470188e+02
2.340000e-06	1.802122e-06	1.403927e-08	1.284548e+01	9.163027e+02
2.350000e-06	1.673122e-06	1.354702e-08	1.192597e+01	8.837241e+02
2.360000e-06	1.543638e-06	1.302332e-08	1.100302e+01	8.491726e+02
2.370000e-06	1.413755e-06	1.246366e-08	1.007721e+01	8.125294e+02
2.380000e-06	1.283510e-06	1.186449e-08	9.148829e+00	7.736704e+02
2.390000e-06	1.152906e-06	1.123374e-08	8.217890e+00	7.324799e+02
2.400000e-06	1.021962e-06	1.056805e-08	7.284522e+00	6.888732e+02
2.410000e-06	8.906597e-07	9.866240e-09	6.348602e+00	6.428273e+02
2.420000e-06	7.590025e-07	9.129648e-09	5.410153e+00	5.944100e+02
2.430000e-06	6.270230e-07	8.358468e-09	4.469405e+00	5.438015e+02
2.440000e-06	4.947318e-07	7.556171e-09	3.526437e+00	4.913004e+02
2.450000e-06	3.622429e-07	6.728410e-09	2.582059e+00	4.373079e+02
2.460000e-06	2.296095e-07	5.886106e-09	1.636651e+00	3.822891e+02
2.470000e-06	9.680830e-08	5.036535e-09	6.900473e-01	3.267163e+02
2.480000e-06	-3.610102e-08	4.182931e-09	-2.573273e-01	2.710034e+02
2.490000e-06	-1.690322e-07	3.332043e-09	-1.204858e+00	2.154422e+02
2.500000e-06	-3.019058e-07	2.487329e-09	-2.151977e+00	1.601561e+02
2.510000e-06	-4.346294e-07	1.645452e-09	-3.098029e+00	1.050802e+02
2.520000e-06	-5.671753e-07	7.994489e-10	-4.042812e+00	4.997660e+01
2.530000e-06	-6.995245e-07	-5.468058e-11	-4.986195e+00	-5.517831e+00
2.540000e-06	-8.315655e-07	-9.198233e-10	-5.927380e+00	-6.181609e+01
2.550000e-06	-9.632557e-07	-1.798151e-09	-6.866065e+00	-1.192920e+02
2.560000e-06	-1.094576e-06	-2.693479e-09	-7.802112e+00	-1.781934e+02
2.570000e-06	-1.225465e-06	-3.610994e-09	-8.735089e+00	-2.385730e+02
2.580000e-06	-1.355957e-06	-4.551336e-09	-9.665228e+00	-3.002511e+02
2.590000e-06	-1.486051e-06	-5.509484e-09	-1.059254e+01	-3.628154e+02
2.600000e-06	-1.615718e-06	-6.474646e-09	-1.151680e+01	-4.256590e+02
2.610000e-06	-1.744926e-06	-7.432145e-09	-1.243779e+01	-4.880482e+02
2.620000e-06	-1.873574e-06	-8.368375e-09	-1.335480e+01	-5.492080e+02
2.630000e-06	-2.001412e-06	-9.272290e-09	-1.426602e+01	-6.084089e+02
2.640000e-06	-2.128279e-06	-1.013763e-08	-1.517032e+01	-6.650424e+02
2.650000e-06	-2.254371e-06	-1.095952e-08	-1.606911e+01	-7.186705e+02
2.660000e-06	-2.379798e-06	-1.173170e-08	-1.696314e+01	-7.690471e+02
2.670000e-06	-2.504321e-06	-1.245338e-08	-1.785074e+01	-8.161092e+02
2.680000e-06	-2.627745e-06	-1.312574e-08	-1.873051e+01	-8.599442e+02
2.690000e-06	-2.750092e-06	-1.375187e-08	-1.960260e+01	-9.007438e+02
2.700000e-06	-2.871510e-06	-1.433573e-08	-2.046806e+01	-9.387543e+02
2.710000e-06	-2.991950e-06	-1.488097e-08	-2.132655e+01	-9.742328e+02
2.720000e-06	-3.111161e-06	-1.538956e-08	-2.217629e+01	-1.007417e+03
2.730000e-06	-3.229142e-06	-1.586421e-08	-2.301725e+01	-1.038508e+03
2.740000e-06	-3.345876e-06	-1.630831e-08	-2.384933e+01	-1.067672e+03
2.750000e-06	-3.461224e-06	-1.672537e-08	-2.467153e+01	-1.095046e+03
2.760000e-06	-3.575115e-06	-1.711963e-08	-2.548334e+01	-1.120751e+03
2.770000e-06	-3.687622e-06	-1.748897e-08	-2.628529e+01	-1.144904e+03
2.780000e-06	-3.798741e-06	-1.783372e-08	-2.707734e+01	-1.167623e+03
2.790000e-06	-3.908498e-06	-1.816016e-08	-2.785968e+01	-1.189030e+03
2.800000e-06	-4.016974e-06	-1.847080e-08	-2.863290e+01	-1.209244e+03
2.810000e-06	-4.124115e-06	-1.876498e-08	-2.939660e+01	-1.228374e+03
2.820000e-06	-4.229908e-06	-1.904384e-08	-3.015069e+01	-1.246514e+03
2.830000e-06	-4.334187e-06	-1.930786e-08	-3.089399e+01	-1.263735e+03
2.840000e-06	-4.436789e-06	-1.955776e-08	-3.162533e+01	-1.280090e+03
2.850000e-06	-4.537708e-06	-1.979595e-08	-3.234468e+01	-1.295616e+03
2.860000e-06	-4.637007e-06	-2.002379e-08	-3.305248e+01	-1.310341e+03
2.870000e-06	-4.734768e-06	-2.023981e-08	-3.374932e+01	-1.324296e+03
2.880000e-06	-4.830909e-06	-2.044275e-08	-3.443461e+01	-1.337514e+03
2.890000e-06	-4.925270e-06	-2.063464e-08	-3.510721e+01	-1.350038e+03
2.900000e-06	-5.017864e-06	-2.081738e-08	-3.576722e+01	-1.361918e+03
2.910000e-06	-5.108700e-06	-2.099008e-08	-3.641470e+01	-1.373203e+03
2.920000e-06	-5.197726e-06	-2.115291e-08	-3.704927e+01	-1.383939e+03
2.930000e-06	-5.284793e-06	-2.130945e-08	-3.766989e+01	-1.394163e+03
2.940000e-06	-5.369850e-06	-2.145981e-08	-3.827617e+01	-1.403896e+03
