# Temperatura_=_78.63
# Concentracion g/m^3_=_28200.0
# C_Vs_to_Am_M_A/Vsm_=_65563218390.804596
# pendiente_HvsI_1/m_=_3716.3
# ordenada_HvsI_A/m_=_1297.0
# frecuencia_Hz_=_302271.6194057687

Tiempo_(s)	Campo_(V.s)	Magnetizacion_(V.s)	Campo_(kA/m)	Magnetizacion_(A/m)
0.000000e+00	-6.905283e-06	-2.986732e-08	-4.952138e+01	-1.955355e+03
1.000000e-08	-6.902017e-06	-2.986583e-08	-4.949797e+01	-1.954806e+03
2.000000e-08	-6.896465e-06	-2.985286e-08	-4.945815e+01	-1.954040e+03
3.000000e-08	-6.888786e-06	-2.984010e-08	-4.940307e+01	-1.953071e+03
4.000000e-08	-6.878750e-06	-2.982459e-08	-4.933110e+01	-1.951911e+03
5.000000e-08	-6.866187e-06	-2.980152e-08	-4.924101e+01	-1.950573e+03
6.000000e-08	-6.851047e-06	-2.977307e-08	-4.913243e+01	-1.949067e+03
7.000000e-08	-6.833535e-06	-2.973869e-08	-4.900685e+01	-1.947397e+03
8.000000e-08	-6.814048e-06	-2.969912e-08	-4.886709e+01	-1.945569e+03
9.000000e-08	-6.792329e-06	-2.974450e-08	-4.871133e+01	-1.943594e+03
1.000000e-07	-6.767880e-06	-2.973746e-08	-4.853600e+01	-1.941484e+03
1.100000e-07	-6.740647e-06	-2.963748e-08	-4.834069e+01	-1.939256e+03
1.200000e-07	-6.710962e-06	-2.958403e-08	-4.812781e+01	-1.936929e+03
1.300000e-07	-6.679110e-06	-2.955928e-08	-4.789938e+01	-1.934513e+03
1.400000e-07	-6.645066e-06	-2.943706e-08	-4.765523e+01	-1.932004e+03
1.500000e-07	-6.609168e-06	-2.934299e-08	-4.739779e+01	-1.929383e+03
1.600000e-07	-6.571487e-06	-2.949378e-08	-4.712756e+01	-1.926607e+03
1.700000e-07	-6.531665e-06	-2.933583e-08	-4.684198e+01	-1.923619e+03
1.800000e-07	-6.489534e-06	-2.922850e-08	-4.653983e+01	-1.920353e+03
1.900000e-07	-6.444902e-06	-2.929970e-08	-4.621975e+01	-1.916750e+03
2.000000e-07	-6.397905e-06	-2.909896e-08	-4.588272e+01	-1.912764e+03
2.100000e-07	-6.348454e-06	-2.906074e-08	-4.552808e+01	-1.908377e+03
2.200000e-07	-6.296269e-06	-2.902306e-08	-4.515383e+01	-1.903602e+03
2.300000e-07	-6.241574e-06	-2.892383e-08	-4.476159e+01	-1.898475e+03
2.400000e-07	-6.184563e-06	-2.888511e-08	-4.435273e+01	-1.893050e+03
2.500000e-07	-6.125193e-06	-2.876473e-08	-4.392695e+01	-1.887380e+03
2.600000e-07	-6.063550e-06	-2.868536e-08	-4.348488e+01	-1.881508e+03
2.700000e-07	-5.999704e-06	-2.858286e-08	-4.302701e+01	-1.875450e+03
2.800000e-07	-5.933572e-06	-2.847883e-08	-4.255274e+01	-1.869194e+03
2.900000e-07	-5.865245e-06	-2.839008e-08	-4.206273e+01	-1.862704e+03
3.000000e-07	-5.794757e-06	-2.826986e-08	-4.155722e+01	-1.855927e+03
3.100000e-07	-5.722033e-06	-2.819491e-08	-4.103568e+01	-1.848807e+03
3.200000e-07	-5.646988e-06	-2.805417e-08	-4.049750e+01	-1.841300e+03
3.300000e-07	-5.569538e-06	-2.793895e-08	-3.994206e+01	-1.833385e+03
3.400000e-07	-5.489815e-06	-2.779589e-08	-3.937033e+01	-1.825063e+03
3.500000e-07	-5.408060e-06	-2.765696e-08	-3.878402e+01	-1.816358e+03
3.600000e-07	-5.324494e-06	-2.755272e-08	-3.818473e+01	-1.807299e+03
3.700000e-07	-5.239188e-06	-2.739814e-08	-3.757295e+01	-1.797912e+03
3.800000e-07	-5.152183e-06	-2.726008e-08	-3.694899e+01	-1.788208e+03
3.900000e-07	-5.063424e-06	-2.709838e-08	-3.631246e+01	-1.778171e+03
4.000000e-07	-4.972778e-06	-2.693101e-08	-3.566238e+01	-1.767765e+03
4.100000e-07	-4.880381e-06	-2.674937e-08	-3.499976e+01	-1.756935e+03
4.200000e-07	-4.786406e-06	-2.658513e-08	-3.432582e+01	-1.745625e+03
4.300000e-07	-4.690810e-06	-2.641516e-08	-3.364024e+01	-1.733787e+03
4.400000e-07	-4.593521e-06	-2.622011e-08	-3.294254e+01	-1.721392e+03
4.500000e-07	-4.494425e-06	-2.602341e-08	-3.223187e+01	-1.708436e+03
4.600000e-07	-4.393629e-06	-2.581606e-08	-3.150900e+01	-1.694932e+03
4.700000e-07	-4.291344e-06	-2.560404e-08	-3.077547e+01	-1.680903e+03
4.800000e-07	-4.187629e-06	-2.538398e-08	-3.003167e+01	-1.666363e+03
4.900000e-07	-4.082499e-06	-2.516188e-08	-2.927773e+01	-1.651307e+03
5.000000e-07	-3.975736e-06	-2.491996e-08	-2.851208e+01	-1.635703e+03
5.100000e-07	-3.867370e-06	-2.466399e-08	-2.773493e+01	-1.619489e+03
5.200000e-07	-3.757687e-06	-2.439686e-08	-2.694834e+01	-1.602585e+03
5.300000e-07	-3.646755e-06	-2.412153e-08	-2.615278e+01	-1.584905e+03
5.400000e-07	-3.534523e-06	-2.383544e-08	-2.534791e+01	-1.566374e+03
5.500000e-07	-3.420860e-06	-2.354090e-08	-2.453277e+01	-1.546934e+03
5.600000e-07	-3.305656e-06	-2.323839e-08	-2.370658e+01	-1.526558e+03
5.700000e-07	-3.188982e-06	-2.291624e-08	-2.286985e+01	-1.505234e+03
5.800000e-07	-3.071053e-06	-2.257431e-08	-2.202412e+01	-1.482960e+03
5.900000e-07	-2.952024e-06	-2.221313e-08	-2.117050e+01	-1.459717e+03
6.000000e-07	-2.831961e-06	-2.184183e-08	-2.030947e+01	-1.435462e+03
6.100000e-07	-2.710906e-06	-2.145278e-08	-1.944132e+01	-1.410105e+03
6.200000e-07	-2.588793e-06	-2.104593e-08	-1.856559e+01	-1.383520e+03
6.300000e-07	-2.465583e-06	-2.061636e-08	-1.768198e+01	-1.355547e+03
6.400000e-07	-2.341377e-06	-2.016358e-08	-1.679123e+01	-1.326009e+03
6.500000e-07	-2.216361e-06	-1.968423e-08	-1.589468e+01	-1.294739e+03
6.600000e-07	-2.090710e-06	-1.917624e-08	-1.499357e+01	-1.261586e+03
6.700000e-07	-1.964425e-06	-1.864077e-08	-1.408792e+01	-1.226424e+03
6.800000e-07	-1.837450e-06	-1.807411e-08	-1.317731e+01	-1.189146e+03
6.900000e-07	-1.709818e-06	-1.747569e-08	-1.226200e+01	-1.149642e+03
7.000000e-07	-1.581651e-06	-1.683619e-08	-1.134284e+01	-1.107778e+03
7.100000e-07	-1.452961e-06	-1.615754e-08	-1.041994e+01	-1.063381e+03
7.200000e-07	-1.323733e-06	-1.543209e-08	-9.493180e+00	-1.016226e+03
7.300000e-07	-1.194089e-06	-1.466004e-08	-8.563433e+00	-9.660608e+02
7.400000e-07	-1.064042e-06	-1.384188e-08	-7.630800e+00	-9.126358e+02
7.500000e-07	-9.335069e-07	-1.297441e-08	-6.694665e+00	-8.557584e+02
7.600000e-07	-8.026097e-07	-1.205589e-08	-5.755933e+00	-7.953512e+02
7.700000e-07	-6.714654e-07	-1.108301e-08	-4.815428e+00	-7.315001e+02
7.800000e-07	-5.401212e-07	-1.006181e-08	-3.873491e+00	-6.644791e+02
7.900000e-07	-4.086062e-07	-9.000394e-09	-2.930328e+00	-5.947405e+02
8.000000e-07	-2.769078e-07	-7.907356e-09	-1.985850e+00	-5.228665e+02
8.100000e-07	-1.451220e-07	-6.789375e-09	-1.040745e+00	-4.494877e+02
8.200000e-07	-1.325799e-08	-5.657014e-09	-9.507999e-02	-3.751837e+02
8.300000e-07	1.186391e-07	-4.515690e-09	8.508225e-01	-3.003847e+02
8.400000e-07	2.504839e-07	-3.370109e-09	1.796351e+00	-2.252981e+02
8.500000e-07	3.822780e-07	-2.219649e-09	2.741515e+00	-1.498770e+02
8.600000e-07	5.139577e-07	-1.062937e-09	3.685858e+00	-7.384293e+01
8.700000e-07	6.454997e-07	1.070086e-10	4.629215e+00	3.238791e+00
8.800000e-07	7.768877e-07	1.300463e-09	5.571467e+00	8.184277e+01
8.900000e-07	9.080231e-07	2.522165e-09	6.511908e+00	1.623486e+02
9.000000e-07	1.038838e-06	3.776847e-09	7.450050e+00	2.449139e+02
9.100000e-07	1.169240e-06	5.061656e-09	8.385231e+00	3.293820e+02
9.200000e-07	1.299149e-06	6.370523e-09	9.316873e+00	4.152434e+02
9.300000e-07	1.428548e-06	7.687556e-09	1.024487e+01	5.016607e+02
9.400000e-07	1.557458e-06	8.999186e-09	1.116934e+01	5.875522e+02
9.500000e-07	1.685798e-06	1.028532e-08	1.208973e+01	6.717193e+02
9.600000e-07	1.813472e-06	1.152181e-08	1.300535e+01	7.529923e+02
9.700000e-07	1.940454e-06	1.269296e-08	1.391601e+01	8.303680e+02
9.800000e-07	2.066677e-06	1.378788e-08	1.482122e+01	9.031148e+02
9.900000e-07	2.192234e-06	1.480930e-08	1.572165e+01	9.708284e+02
1.000000e-06	2.317169e-06	1.575532e-08	1.661763e+01	1.033432e+03
1.010000e-06	2.441282e-06	1.663033e-08	1.750771e+01	1.091128e+03
1.020000e-06	2.564414e-06	1.743926e-08	1.839075e+01	1.144315e+03
1.030000e-06	2.686562e-06	1.818908e-08	1.926674e+01	1.193487e+03
1.040000e-06	2.807642e-06	1.888586e-08	2.013507e+01	1.239149e+03
1.050000e-06	2.927600e-06	1.953570e-08	2.099535e+01	1.281740e+03
1.060000e-06	3.046471e-06	2.014203e-08	2.184783e+01	1.321605e+03
1.070000e-06	3.164247e-06	2.070768e-08	2.269247e+01	1.358982e+03
1.080000e-06	3.280860e-06	2.123747e-08	2.352876e+01	1.394033e+03
1.090000e-06	3.396164e-06	2.173291e-08	2.435566e+01	1.426870e+03
1.100000e-06	3.510123e-06	2.219650e-08	2.517292e+01	1.457599e+03
1.110000e-06	3.622678e-06	2.263200e-08	2.598012e+01	1.486347e+03
1.120000e-06	3.733835e-06	2.304332e-08	2.677728e+01	1.513269e+03
1.130000e-06	3.843762e-06	2.343130e-08	2.756563e+01	1.538548e+03
1.140000e-06	3.952525e-06	2.379790e-08	2.834562e+01	1.562373e+03
1.150000e-06	4.060007e-06	2.414399e-08	2.911643e+01	1.584922e+03
1.160000e-06	4.166052e-06	2.447245e-08	2.987693e+01	1.606337e+03
1.170000e-06	4.270434e-06	2.478291e-08	3.062551e+01	1.626719e+03
1.180000e-06	4.373163e-06	2.507519e-08	3.136223e+01	1.646120e+03
1.190000e-06	4.474477e-06	2.534979e-08	3.208881e+01	1.664565e+03
1.200000e-06	4.574280e-06	2.560973e-08	3.280455e+01	1.682061e+03
1.210000e-06	4.672388e-06	2.585828e-08	3.350813e+01	1.698619e+03
1.220000e-06	4.768635e-06	2.609661e-08	3.419837e+01	1.714268e+03
1.230000e-06	4.863098e-06	2.632308e-08	3.487581e+01	1.729063e+03
1.240000e-06	4.955960e-06	2.653844e-08	3.554178e+01	1.743076e+03
1.250000e-06	5.047156e-06	2.674393e-08	3.619579e+01	1.756390e+03
1.260000e-06	5.136466e-06	2.693832e-08	3.683628e+01	1.769086e+03
1.270000e-06	5.223824e-06	2.712015e-08	3.746277e+01	1.781226e+03
1.280000e-06	5.309356e-06	2.729305e-08	3.807616e+01	1.792849e+03
1.290000e-06	5.393116e-06	2.745912e-08	3.867685e+01	1.803970e+03
1.300000e-06	5.474926e-06	2.761891e-08	3.926355e+01	1.814582e+03
1.310000e-06	5.554587e-06	2.777246e-08	3.983484e+01	1.824672e+03
1.320000e-06	5.632192e-06	2.791949e-08	4.039139e+01	1.834229e+03
1.330000e-06	5.707734e-06	2.805997e-08	4.093314e+01	1.843255e+03
1.340000e-06	5.780985e-06	2.819330e-08	4.145846e+01	1.851764e+03
1.350000e-06	5.852070e-06	2.831929e-08	4.196824e+01	1.859787e+03
1.360000e-06	5.921120e-06	2.843693e-08	4.246344e+01	1.867363e+03
1.370000e-06	5.988062e-06	2.854745e-08	4.294352e+01	1.874530e+03
1.380000e-06	6.052802e-06	2.865196e-08	4.340780e+01	1.881323e+03
1.390000e-06	6.115364e-06	2.874920e-08	4.385647e+01	1.887763e+03
1.400000e-06	6.175955e-06	2.883831e-08	4.429099e+01	1.893862e+03
1.410000e-06	6.234450e-06	2.892364e-08	4.471049e+01	1.899625e+03
1.420000e-06	6.290675e-06	2.900594e-08	4.511371e+01	1.905057e+03
1.430000e-06	6.344591e-06	2.908407e-08	4.550037e+01	1.910165e+03
1.440000e-06	6.395942e-06	2.915812e-08	4.586864e+01	1.914966e+03
1.450000e-06	6.444600e-06	2.922879e-08	4.621759e+01	1.919482e+03
1.460000e-06	6.490890e-06	2.929539e-08	4.654956e+01	1.923738e+03
1.470000e-06	6.535086e-06	2.935584e-08	4.686651e+01	1.927757e+03
1.480000e-06	6.576902e-06	2.941280e-08	4.716639e+01	1.931551e+03
1.490000e-06	6.616213e-06	2.946624e-08	4.744831e+01	1.935120e+03
1.500000e-06	6.653355e-06	2.951597e-08	4.771468e+01	1.938450e+03
1.510000e-06	6.688294e-06	2.956228e-08	4.796525e+01	1.941519e+03
1.520000e-06	6.720766e-06	2.960446e-08	4.819812e+01	1.944299e+03
1.530000e-06	6.750795e-06	2.964132e-08	4.841348e+01	1.946772e+03
1.540000e-06	6.778591e-06	2.967388e-08	4.861281e+01	1.948928e+03
1.550000e-06	6.803888e-06	2.970362e-08	4.879423e+01	1.950774e+03
1.560000e-06	6.826531e-06	2.972786e-08	4.895661e+01	1.952333e+03
1.570000e-06	6.846838e-06	2.974705e-08	4.910225e+01	1.953638e+03
1.580000e-06	6.864731e-06	2.976355e-08	4.923057e+01	1.954722e+03
1.590000e-06	6.880020e-06	2.977718e-08	4.934021e+01	1.955617e+03
1.600000e-06	6.892765e-06	2.978776e-08	4.943161e+01	1.956340e+03
1.610000e-06	6.902798e-06	2.979639e-08	4.950357e+01	1.956898e+03
1.620000e-06	6.910097e-06	2.980344e-08	4.955591e+01	1.957282e+03
1.630000e-06	6.914984e-06	2.980690e-08	4.959096e+01	1.957477e+03
1.640000e-06	6.917461e-06	2.980623e-08	4.960872e+01	1.957466e+03
1.650000e-06	6.917486e-06	2.980651e-08	4.960890e+01	1.957236e+03
1.660000e-06	6.915260e-06	2.979465e-08	4.959294e+01	1.956781e+03
1.670000e-06	6.910768e-06	2.978237e-08	4.956072e+01	1.956107e+03
1.680000e-06	6.903856e-06	2.977184e-08	4.951115e+01	1.955223e+03
1.690000e-06	6.894682e-06	2.975636e-08	4.944536e+01	1.954142e+03
1.700000e-06	6.883253e-06	2.974115e-08	4.936340e+01	1.952879e+03
1.710000e-06	6.869343e-06	2.972483e-08	4.926364e+01	1.951444e+03
1.720000e-06	6.853150e-06	2.971727e-08	4.914751e+01	1.949843e+03
1.730000e-06	6.834957e-06	2.968904e-08	4.901705e+01	1.948082e+03
1.740000e-06	6.814529e-06	2.955296e-08	4.887054e+01	1.946168e+03
1.750000e-06	6.791030e-06	2.953628e-08	4.870202e+01	1.944114e+03
1.760000e-06	6.764268e-06	2.957142e-08	4.851009e+01	1.941934e+03
1.770000e-06	6.734831e-06	2.951533e-08	4.829899e+01	1.939647e+03
1.780000e-06	6.703221e-06	2.952032e-08	4.807230e+01	1.937268e+03
1.790000e-06	6.669920e-06	2.959068e-08	4.783348e+01	1.934800e+03
1.800000e-06	6.635210e-06	2.938369e-08	4.758455e+01	1.932231e+03
1.810000e-06	6.598382e-06	2.938539e-08	4.732044e+01	1.929528e+03
1.820000e-06	6.558990e-06	2.946427e-08	4.703794e+01	1.926638e+03
1.830000e-06	6.517487e-06	2.924976e-08	4.674030e+01	1.923499e+03
1.840000e-06	6.473758e-06	2.939886e-08	4.642669e+01	1.920046e+03
1.850000e-06	6.427614e-06	2.928177e-08	4.609577e+01	1.916228e+03
1.860000e-06	6.379076e-06	2.912951e-08	4.574769e+01	1.912013e+03
1.870000e-06	6.328069e-06	2.916497e-08	4.538188e+01	1.907401e+03
1.880000e-06	6.274643e-06	2.893750e-08	4.499874e+01	1.902419e+03
1.890000e-06	6.218667e-06	2.898077e-08	4.459731e+01	1.897114e+03
1.900000e-06	6.160274e-06	2.888326e-08	4.417854e+01	1.891543e+03
1.910000e-06	6.099640e-06	2.874389e-08	4.374370e+01	1.885753e+03
1.920000e-06	6.036546e-06	2.876485e-08	4.329122e+01	1.879774e+03
1.930000e-06	5.971244e-06	2.857062e-08	4.282290e+01	1.873606e+03
1.940000e-06	5.903843e-06	2.853839e-08	4.233954e+01	1.867222e+03
1.950000e-06	5.834183e-06	2.837089e-08	4.183997e+01	1.860575e+03
1.960000e-06	5.762138e-06	2.827132e-08	4.132330e+01	1.853607e+03
1.970000e-06	5.687858e-06	2.820536e-08	4.079060e+01	1.846270e+03
1.980000e-06	5.611419e-06	2.803416e-08	4.024241e+01	1.838531e+03
1.990000e-06	5.532579e-06	2.798772e-08	3.967701e+01	1.830381e+03
2.000000e-06	5.451743e-06	2.780208e-08	3.909730e+01	1.821837e+03
2.010000e-06	5.369148e-06	2.769394e-08	3.850496e+01	1.812925e+03
2.020000e-06	5.284680e-06	2.753150e-08	3.789920e+01	1.803676e+03
2.030000e-06	5.198169e-06	2.736683e-08	3.727878e+01	1.794108e+03
2.040000e-06	5.109651e-06	2.725984e-08	3.664398e+01	1.784217e+03
2.050000e-06	5.019491e-06	2.708978e-08	3.599739e+01	1.773975e+03
2.060000e-06	4.927717e-06	2.694932e-08	3.533923e+01	1.763333e+03
2.070000e-06	4.834275e-06	2.674272e-08	3.466911e+01	1.752235e+03
2.080000e-06	4.739009e-06	2.657743e-08	3.398591e+01	1.740628e+03
2.090000e-06	4.642045e-06	2.638356e-08	3.329053e+01	1.728473e+03
2.100000e-06	4.543589e-06	2.619673e-08	3.258445e+01	1.715756e+03
2.110000e-06	4.443608e-06	2.601159e-08	3.186743e+01	1.702485e+03
2.120000e-06	4.342023e-06	2.580025e-08	3.113891e+01	1.688678e+03
2.130000e-06	4.238711e-06	2.558164e-08	3.039801e+01	1.674356e+03
2.140000e-06	4.133861e-06	2.533494e-08	2.964607e+01	1.659523e+03
2.150000e-06	4.027594e-06	2.510862e-08	2.888398e+01	1.644159e+03
2.160000e-06	3.919935e-06	2.486524e-08	2.811190e+01	1.628215e+03
2.170000e-06	3.810912e-06	2.462725e-08	2.733004e+01	1.611617e+03
2.180000e-06	3.700457e-06	2.436283e-08	2.653791e+01	1.594280e+03
2.190000e-06	3.588521e-06	2.408709e-08	2.573515e+01	1.576121e+03
2.200000e-06	3.475200e-06	2.379050e-08	2.492247e+01	1.557076e+03
2.210000e-06	3.360513e-06	2.348592e-08	2.409999e+01	1.537103e+03
2.220000e-06	3.244389e-06	2.317328e-08	2.326720e+01	1.516185e+03
2.230000e-06	3.126904e-06	2.284746e-08	2.242466e+01	1.494319e+03
2.240000e-06	3.008091e-06	2.250431e-08	2.157259e+01	1.471495e+03
2.250000e-06	2.888034e-06	2.213754e-08	2.071160e+01	1.447681e+03
2.260000e-06	2.766925e-06	2.175655e-08	1.984306e+01	1.422810e+03
2.270000e-06	2.644867e-06	2.135315e-08	1.896772e+01	1.396769e+03
2.280000e-06	2.521884e-06	2.093947e-08	1.808574e+01	1.369411e+03
2.290000e-06	2.398007e-06	2.050340e-08	1.719736e+01	1.340565e+03
2.300000e-06	2.273314e-06	2.004364e-08	1.630312e+01	1.310057e+03
2.310000e-06	2.147857e-06	1.954986e-08	1.540340e+01	1.277727e+03
2.320000e-06	2.021673e-06	1.902861e-08	1.449847e+01	1.243440e+03
2.330000e-06	1.894727e-06	1.847419e-08	1.358807e+01	1.207081e+03
2.340000e-06	1.767027e-06	1.788721e-08	1.267227e+01	1.168545e+03
2.350000e-06	1.638676e-06	1.726795e-08	1.175180e+01	1.127711e+03
2.360000e-06	1.509800e-06	1.661180e-08	1.082756e+01	1.084424e+03
2.370000e-06	1.380530e-06	1.591410e-08	9.900497e+00	1.038480e+03
2.380000e-06	1.250925e-06	1.516749e-08	8.971033e+00	9.896371e+02
2.390000e-06	1.120989e-06	1.437209e-08	8.039196e+00	9.376370e+02
2.400000e-06	9.906994e-07	1.352302e-08	7.104822e+00	8.822564e+02
2.410000e-06	8.600035e-07	1.262440e-08	6.167534e+00	8.233616e+02
2.420000e-06	7.289561e-07	1.167859e-08	5.227724e+00	7.609638e+02
2.430000e-06	5.976616e-07	1.068247e-08	4.286143e+00	6.952553e+02
2.440000e-06	4.661744e-07	9.636739e-09	3.343180e+00	6.266159e+02
2.450000e-06	3.345611e-07	8.550946e-09	2.399312e+00	5.555802e+02
2.460000e-06	2.027986e-07	7.436690e-09	1.454375e+00	4.827697e+02
2.470000e-06	7.090425e-08	6.303579e-09	5.084913e-01	4.087985e+02
2.480000e-06	-6.100422e-08	5.162715e-09	-4.374931e-01	3.341717e+02
2.490000e-06	-1.928764e-07	4.020267e-09	-1.383217e+00	2.591989e+02
2.500000e-06	-3.247172e-07	2.870738e-09	-2.328717e+00	1.839426e+02
2.510000e-06	-4.564425e-07	1.708468e-09	-3.273387e+00	1.082173e+02
2.520000e-06	-5.880252e-07	5.321309e-10	-4.217036e+00	3.164308e+01
2.530000e-06	-7.194544e-07	-6.606334e-10	-5.159583e+00	-4.625365e+01
2.540000e-06	-8.506798e-07	-1.876499e-09	-6.100669e+00	-1.259098e+02
2.550000e-06	-9.815860e-07	-3.119074e-09	-7.039466e+00	-2.075921e+02
2.560000e-06	-1.112097e-06	-4.389562e-09	-7.975428e+00	-2.912867e+02
2.570000e-06	-1.242218e-06	-5.689281e-09	-8.908593e+00	-3.766360e+02
2.580000e-06	-1.371955e-06	-7.011477e-09	-9.839008e+00	-4.629361e+02
2.590000e-06	-1.501301e-06	-8.338542e-09	-1.076661e+01	-5.491964e+02
2.600000e-06	-1.630200e-06	-9.647672e-09	-1.169101e+01	-6.342512e+02
2.610000e-06	-1.758556e-06	-1.091724e-08	-1.261152e+01	-7.169002e+02
2.620000e-06	-1.886227e-06	-1.212976e-08	-1.352712e+01	-7.960537e+02
2.630000e-06	-2.013146e-06	-1.327247e-08	-1.443732e+01	-8.708538e+02
2.640000e-06	-2.139313e-06	-1.434054e-08	-1.534213e+01	-9.407527e+02
2.650000e-06	-2.264635e-06	-1.533138e-08	-1.624088e+01	-1.005537e+03
2.660000e-06	-2.388964e-06	-1.624599e-08	-1.713251e+01	-1.065297e+03
2.670000e-06	-2.512281e-06	-1.709160e-08	-1.801688e+01	-1.120359e+03
2.680000e-06	-2.634637e-06	-1.787419e-08	-1.889436e+01	-1.171189e+03
2.690000e-06	-2.756106e-06	-1.859962e-08	-1.976548e+01	-1.218297e+03
2.700000e-06	-2.876581e-06	-1.927311e-08	-2.062947e+01	-1.262156e+03
2.710000e-06	-2.995921e-06	-1.990287e-08	-2.148531e+01	-1.303154e+03
2.720000e-06	-3.114166e-06	-2.049427e-08	-2.233331e+01	-1.341575e+03
2.730000e-06	-3.231197e-06	-2.104636e-08	-2.317260e+01	-1.377607e+03
2.740000e-06	-3.346888e-06	-2.155833e-08	-2.400228e+01	-1.411380e+03
2.750000e-06	-3.461172e-06	-2.203718e-08	-2.482187e+01	-1.443000e+03
2.760000e-06	-3.573985e-06	-2.248840e-08	-2.563091e+01	-1.472580e+03
2.770000e-06	-3.685359e-06	-2.290931e-08	-2.642963e+01	-1.500264e+03
2.780000e-06	-3.795392e-06	-2.330505e-08	-2.721874e+01	-1.526223e+03
2.790000e-06	-3.904196e-06	-2.368252e-08	-2.799902e+01	-1.550649e+03
2.800000e-06	-4.011790e-06	-2.404118e-08	-2.877064e+01	-1.573725e+03
2.810000e-06	-4.118098e-06	-2.437782e-08	-2.953303e+01	-1.595612e+03
2.820000e-06	-4.222970e-06	-2.469399e-08	-3.028512e+01	-1.616427e+03
2.830000e-06	-4.326282e-06	-2.499657e-08	-3.102603e+01	-1.636245e+03
2.840000e-06	-4.427950e-06	-2.528546e-08	-3.175514e+01	-1.655099e+03
2.850000e-06	-4.527988e-06	-2.555908e-08	-3.247256e+01	-1.673001e+03
2.860000e-06	-4.626485e-06	-2.581732e-08	-3.317894e+01	-1.689959e+03
2.870000e-06	-4.723374e-06	-2.605999e-08	-3.387378e+01	-1.705993e+03
2.880000e-06	-4.818582e-06	-2.629140e-08	-3.455657e+01	-1.721146e+03
2.890000e-06	-4.911987e-06	-2.651339e-08	-3.522642e+01	-1.735484e+03
2.900000e-06	-5.003670e-06	-2.672684e-08	-3.588393e+01	-1.749088e+03
2.910000e-06	-5.093696e-06	-2.692941e-08	-3.652955e+01	-1.762040e+03
2.920000e-06	-5.181846e-06	-2.712147e-08	-3.716172e+01	-1.774413e+03
2.930000e-06	-5.267962e-06	-2.730476e-08	-3.777931e+01	-1.786255e+03
2.940000e-06	-5.352044e-06	-2.747724e-08	-3.838230e+01	-1.797590e+03
