# Temperatura_=_87.0
# Concentracion g/m^3_=_28200.0
# C_Vs_to_Am_M_A/Vsm_=_65563218390.804596
# pendiente_HvsI_1/m_=_3716.3
# ordenada_HvsI_A/m_=_1297.0
# frecuencia_Hz_=_302269.741204223

Tiempo_(s)	Campo_(V.s)	Magnetizacion_(V.s)	Campo_(kA/m)	Magnetizacion_(A/m)
0.000000e+00	-6.895326e-06	-3.123345e-08	-4.952587e+01	-2.045201e+03
1.000000e-08	-6.891989e-06	-3.122509e-08	-4.950191e+01	-2.044545e+03
2.000000e-08	-6.886430e-06	-3.120995e-08	-4.946198e+01	-2.043668e+03
3.000000e-08	-6.878716e-06	-3.119276e-08	-4.940657e+01	-2.042596e+03
4.000000e-08	-6.868619e-06	-3.117400e-08	-4.933405e+01	-2.041348e+03
5.000000e-08	-6.855971e-06	-3.115234e-08	-4.924321e+01	-2.039936e+03
6.000000e-08	-6.840767e-06	-3.112753e-08	-4.913400e+01	-2.038362e+03
7.000000e-08	-6.823271e-06	-3.109583e-08	-4.900833e+01	-2.036619e+03
8.000000e-08	-6.803726e-06	-3.106411e-08	-4.886795e+01	-2.034700e+03
9.000000e-08	-6.781904e-06	-3.106928e-08	-4.871122e+01	-2.032601e+03
1.000000e-07	-6.757381e-06	-3.105412e-08	-4.853508e+01	-2.030332e+03
1.100000e-07	-6.730071e-06	-3.098669e-08	-4.833893e+01	-2.027910e+03
1.200000e-07	-6.700328e-06	-3.092739e-08	-4.812529e+01	-2.025361e+03
1.300000e-07	-6.668370e-06	-3.087653e-08	-4.789576e+01	-2.022708e+03
1.400000e-07	-6.634237e-06	-3.078692e-08	-4.765059e+01	-2.019959e+03
1.500000e-07	-6.598325e-06	-3.072711e-08	-4.739266e+01	-2.017100e+03
1.600000e-07	-6.560639e-06	-3.075644e-08	-4.712198e+01	-2.014093e+03
1.700000e-07	-6.520809e-06	-3.066866e-08	-4.683589e+01	-2.010875e+03
1.800000e-07	-6.478678e-06	-3.059277e-08	-4.653329e+01	-2.007369e+03
1.900000e-07	-6.434030e-06	-3.057568e-08	-4.621260e+01	-2.003502e+03
2.000000e-07	-6.386985e-06	-3.045497e-08	-4.587470e+01	-1.999223e+03
2.100000e-07	-6.337547e-06	-3.037372e-08	-4.551961e+01	-1.994507e+03
2.200000e-07	-6.285386e-06	-3.030154e-08	-4.514496e+01	-1.989373e+03
2.300000e-07	-6.230671e-06	-3.022504e-08	-4.475197e+01	-1.983868e+03
2.400000e-07	-6.173620e-06	-3.016012e-08	-4.434220e+01	-1.978062e+03
2.500000e-07	-6.114193e-06	-3.005253e-08	-4.391536e+01	-1.972026e+03
2.600000e-07	-6.052526e-06	-2.996998e-08	-4.347244e+01	-1.965813e+03
2.700000e-07	-5.988668e-06	-2.987192e-08	-4.301378e+01	-1.959443e+03
2.800000e-07	-5.922539e-06	-2.975278e-08	-4.253880e+01	-1.952897e+03
2.900000e-07	-5.854180e-06	-2.965571e-08	-4.204781e+01	-1.946123e+03
3.000000e-07	-5.783670e-06	-2.955586e-08	-4.154137e+01	-1.939045e+03
3.100000e-07	-5.710970e-06	-2.945159e-08	-4.101920e+01	-1.931588e+03
3.200000e-07	-5.636019e-06	-2.931589e-08	-4.048086e+01	-1.923693e+03
3.300000e-07	-5.558737e-06	-2.918381e-08	-3.992578e+01	-1.915333e+03
3.400000e-07	-5.479084e-06	-2.903847e-08	-3.935367e+01	-1.906515e+03
3.500000e-07	-5.397377e-06	-2.890056e-08	-3.876681e+01	-1.897277e+03
3.600000e-07	-5.313943e-06	-2.877735e-08	-3.816755e+01	-1.887671e+03
3.700000e-07	-5.228761e-06	-2.862366e-08	-3.755572e+01	-1.877741e+03
3.800000e-07	-5.141836e-06	-2.846809e-08	-3.693138e+01	-1.867513e+03
3.900000e-07	-5.053104e-06	-2.829694e-08	-3.629406e+01	-1.856975e+03
4.000000e-07	-4.962481e-06	-2.811469e-08	-3.564316e+01	-1.846083e+03
4.100000e-07	-4.870148e-06	-2.793532e-08	-3.497997e+01	-1.834769e+03
4.200000e-07	-4.776207e-06	-2.776467e-08	-3.430524e+01	-1.822954e+03
4.300000e-07	-4.680634e-06	-2.758453e-08	-3.361879e+01	-1.810571e+03
4.400000e-07	-4.583362e-06	-2.738462e-08	-3.292013e+01	-1.797578e+03
4.500000e-07	-4.484347e-06	-2.717787e-08	-3.220895e+01	-1.783965e+03
4.600000e-07	-4.383698e-06	-2.695941e-08	-3.148603e+01	-1.769750e+03
4.700000e-07	-4.281497e-06	-2.673245e-08	-3.075197e+01	-1.754969e+03
4.800000e-07	-4.177865e-06	-2.650005e-08	-3.000763e+01	-1.739652e+03
4.900000e-07	-4.072830e-06	-2.626203e-08	-2.925322e+01	-1.723808e+03
5.000000e-07	-3.966201e-06	-2.600977e-08	-2.848735e+01	-1.707413e+03
5.100000e-07	-3.858031e-06	-2.574423e-08	-2.771042e+01	-1.690405e+03
5.200000e-07	-3.748572e-06	-2.546901e-08	-2.692422e+01	-1.672696e+03
5.300000e-07	-3.637808e-06	-2.518167e-08	-2.612866e+01	-1.654186e+03
5.400000e-07	-3.525681e-06	-2.487986e-08	-2.532331e+01	-1.634784e+03
5.500000e-07	-3.412144e-06	-2.456878e-08	-2.450782e+01	-1.614424e+03
5.600000e-07	-3.297065e-06	-2.425027e-08	-2.368126e+01	-1.593071e+03
5.700000e-07	-3.180542e-06	-2.391266e-08	-2.284434e+01	-1.570717e+03
5.800000e-07	-3.062817e-06	-2.355480e-08	-2.199877e+01	-1.547369e+03
5.900000e-07	-2.943961e-06	-2.317967e-08	-2.114508e+01	-1.523020e+03
6.000000e-07	-2.824014e-06	-2.279047e-08	-2.028356e+01	-1.497633e+03
6.100000e-07	-2.703117e-06	-2.238380e-08	-1.941522e+01	-1.471124e+03
6.200000e-07	-2.581169e-06	-2.195892e-08	-1.853932e+01	-1.443357e+03
6.300000e-07	-2.458038e-06	-2.151266e-08	-1.765493e+01	-1.414158e+03
6.400000e-07	-2.333939e-06	-2.103827e-08	-1.676358e+01	-1.383330e+03
6.500000e-07	-2.209162e-06	-2.053473e-08	-1.586737e+01	-1.350681e+03
6.600000e-07	-2.083755e-06	-2.000397e-08	-1.496663e+01	-1.316041e+03
6.700000e-07	-1.957651e-06	-1.944684e-08	-1.406088e+01	-1.279274e+03
6.800000e-07	-1.830879e-06	-1.885751e-08	-1.315034e+01	-1.240267e+03
6.900000e-07	-1.703411e-06	-1.823050e-08	-1.223480e+01	-1.198916e+03
7.000000e-07	-1.575319e-06	-1.756131e-08	-1.131477e+01	-1.155095e+03
7.100000e-07	-1.446765e-06	-1.684975e-08	-1.039143e+01	-1.108636e+03
7.200000e-07	-1.317821e-06	-1.609091e-08	-9.465289e+00	-1.059316e+03
7.300000e-07	-1.188441e-06	-1.528312e-08	-8.536012e+00	-1.006874e+03
7.400000e-07	-1.058661e-06	-1.442926e-08	-7.603861e+00	-9.510430e+02
7.500000e-07	-9.285099e-07	-1.352386e-08	-6.669048e+00	-8.916068e+02
7.600000e-07	-7.979571e-07	-1.256281e-08	-5.731349e+00	-8.284641e+02
7.700000e-07	-6.670939e-07	-1.154641e-08	-4.791421e+00	-7.616820e+02
7.800000e-07	-5.359311e-07	-1.047874e-08	-3.849340e+00	-6.915269e+02
7.900000e-07	-4.045290e-07	-9.367569e-09	-2.905541e+00	-6.184562e+02
8.000000e-07	-2.730244e-07	-8.221191e-09	-1.961006e+00	-5.430693e+02
8.100000e-07	-1.413950e-07	-7.047079e-09	-1.015573e+00	-4.660215e+02
8.200000e-07	-9.647362e-09	-5.855063e-09	-6.929245e-02	-3.879180e+02
8.300000e-07	1.221731e-07	-4.654505e-09	8.775114e-01	-3.092085e+02
8.400000e-07	2.540298e-07	-3.449424e-09	1.824576e+00	-2.301084e+02
8.500000e-07	3.858156e-07	-2.237897e-09	2.771131e+00	-1.505663e+02
8.600000e-07	5.174469e-07	-1.016728e-09	3.716577e+00	-7.028943e+01
8.700000e-07	6.488820e-07	2.204978e-10	4.660613e+00	1.117300e+01
8.800000e-07	7.800718e-07	1.482903e-09	5.602888e+00	9.430440e+01
8.900000e-07	9.109545e-07	2.777120e-09	6.542956e+00	1.794756e+02
9.000000e-07	1.041473e-06	4.105292e-09	7.480408e+00	2.668107e+02
9.100000e-07	1.171528e-06	5.464059e-09	8.414532e+00	3.560921e+02
9.200000e-07	1.301088e-06	6.846093e-09	9.345098e+00	4.467258e+02
9.300000e-07	1.430205e-06	8.235631e-09	1.027249e+01	5.377751e+02
9.400000e-07	1.558872e-06	9.612885e-09	1.119664e+01	6.280576e+02
9.500000e-07	1.686997e-06	1.095715e-08	1.211690e+01	7.162864e+02
9.600000e-07	1.814463e-06	1.224798e-08	1.303243e+01	8.012290e+02
9.700000e-07	1.941220e-06	1.347001e-08	1.394287e+01	8.818525e+02
9.800000e-07	2.067226e-06	1.461217e-08	1.484791e+01	9.574310e+02
9.900000e-07	2.192526e-06	1.567052e-08	1.574788e+01	1.027597e+03
1.000000e-06	2.317188e-06	1.664700e-08	1.664327e+01	1.092331e+03
1.010000e-06	2.441103e-06	1.754924e-08	1.753329e+01	1.151904e+03
1.020000e-06	2.564067e-06	1.838593e-08	1.841648e+01	1.206778e+03
1.030000e-06	2.685971e-06	1.916268e-08	1.929207e+01	1.257501e+03
1.040000e-06	2.806822e-06	1.988280e-08	2.016008e+01	1.304610e+03
1.050000e-06	2.926604e-06	2.055232e-08	2.102041e+01	1.348564e+03
1.060000e-06	3.045282e-06	2.117579e-08	2.187282e+01	1.389709e+03
1.070000e-06	3.162818e-06	2.175765e-08	2.271703e+01	1.428278e+03
1.080000e-06	3.279147e-06	2.230399e-08	2.355257e+01	1.464428e+03
1.090000e-06	3.394158e-06	2.281672e-08	2.437864e+01	1.498270e+03
1.100000e-06	3.507813e-06	2.329529e-08	2.519497e+01	1.529919e+03
1.110000e-06	3.620153e-06	2.374380e-08	2.600185e+01	1.559513e+03
1.120000e-06	3.731145e-06	2.416558e-08	2.679905e+01	1.587228e+03
1.130000e-06	3.840833e-06	2.456353e-08	2.758689e+01	1.613263e+03
1.140000e-06	3.949320e-06	2.494126e-08	2.836610e+01	1.637824e+03
1.150000e-06	4.056549e-06	2.529966e-08	2.913628e+01	1.661096e+03
1.160000e-06	4.162343e-06	2.564014e-08	2.989614e+01	1.683221e+03
1.170000e-06	4.266567e-06	2.596269e-08	3.064474e+01	1.704295e+03
1.180000e-06	4.369253e-06	2.626595e-08	3.138229e+01	1.724365e+03
1.190000e-06	4.470435e-06	2.654987e-08	3.210902e+01	1.743446e+03
1.200000e-06	4.570023e-06	2.681869e-08	3.282432e+01	1.761545e+03
1.210000e-06	4.667852e-06	2.707529e-08	3.352698e+01	1.778675e+03
1.220000e-06	4.763900e-06	2.732103e-08	3.421685e+01	1.794871e+03
1.230000e-06	4.858238e-06	2.755620e-08	3.489443e+01	1.810195e+03
1.240000e-06	4.950941e-06	2.778112e-08	3.556028e+01	1.824726e+03
1.250000e-06	5.041948e-06	2.799494e-08	3.621394e+01	1.838551e+03
1.260000e-06	5.131060e-06	2.819653e-08	3.685398e+01	1.851748e+03
1.270000e-06	5.218224e-06	2.838552e-08	3.748004e+01	1.864374e+03
1.280000e-06	5.303554e-06	2.856440e-08	3.809293e+01	1.876460e+03
1.290000e-06	5.387094e-06	2.873719e-08	3.869295e+01	1.888013e+03
1.300000e-06	5.468650e-06	2.890382e-08	3.927873e+01	1.899025e+03
1.310000e-06	5.548136e-06	2.906254e-08	3.984965e+01	1.909485e+03
1.320000e-06	5.625589e-06	2.921419e-08	4.040595e+01	1.919389e+03
1.330000e-06	5.700883e-06	2.935909e-08	4.094675e+01	1.928747e+03
1.340000e-06	5.773891e-06	2.949751e-08	4.147114e+01	1.937587e+03
1.350000e-06	5.844766e-06	2.962945e-08	4.198020e+01	1.945947e+03
1.360000e-06	5.913616e-06	2.975401e-08	4.247471e+01	1.953868e+03
1.370000e-06	5.980359e-06	2.987160e-08	4.295410e+01	1.961382e+03
1.380000e-06	6.044944e-06	2.998142e-08	4.341798e+01	1.968512e+03
1.390000e-06	6.107395e-06	3.008276e-08	4.386654e+01	1.975267e+03
1.400000e-06	6.167816e-06	3.017779e-08	4.430052e+01	1.981643e+03
1.410000e-06	6.226079e-06	3.026719e-08	4.471899e+01	1.987638e+03
1.420000e-06	6.282101e-06	3.035098e-08	4.512136e+01	1.993254e+03
1.430000e-06	6.335851e-06	3.043021e-08	4.550743e+01	1.998506e+03
1.440000e-06	6.387081e-06	3.050632e-08	4.587539e+01	2.003424e+03
1.450000e-06	6.435692e-06	3.058024e-08	4.622454e+01	2.008047e+03
1.460000e-06	6.481913e-06	3.065006e-08	4.655652e+01	2.012415e+03
1.470000e-06	6.525945e-06	3.071441e-08	4.687279e+01	2.016563e+03
1.480000e-06	6.567603e-06	3.077390e-08	4.717200e+01	2.020506e+03
1.490000e-06	6.606820e-06	3.082978e-08	4.745367e+01	2.024240e+03
1.500000e-06	6.643810e-06	3.088204e-08	4.771935e+01	2.027742e+03
1.510000e-06	6.678611e-06	3.092999e-08	4.796931e+01	2.030974e+03
1.520000e-06	6.710985e-06	3.097242e-08	4.820184e+01	2.033899e+03
1.530000e-06	6.740907e-06	3.101016e-08	4.841676e+01	2.036489e+03
1.540000e-06	6.768488e-06	3.104479e-08	4.861485e+01	2.038733e+03
1.550000e-06	6.793538e-06	3.107661e-08	4.879478e+01	2.040644e+03
1.560000e-06	6.816073e-06	3.110508e-08	4.895663e+01	2.042251e+03
1.570000e-06	6.836328e-06	3.112832e-08	4.910212e+01	2.043596e+03
1.580000e-06	6.854203e-06	3.114521e-08	4.923051e+01	2.044722e+03
1.590000e-06	6.869473e-06	3.115648e-08	4.934018e+01	2.045660e+03
1.600000e-06	6.882149e-06	3.116555e-08	4.943123e+01	2.046424e+03
1.610000e-06	6.892134e-06	3.117380e-08	4.950295e+01	2.047012e+03
1.620000e-06	6.899448e-06	3.118158e-08	4.955548e+01	2.047406e+03
1.630000e-06	6.904363e-06	3.118685e-08	4.959078e+01	2.047582e+03
1.640000e-06	6.906871e-06	3.118822e-08	4.960879e+01	2.047519e+03
1.650000e-06	6.906886e-06	3.118547e-08	4.960890e+01	2.047208e+03
1.660000e-06	6.904580e-06	3.117500e-08	4.959234e+01	2.046651e+03
1.670000e-06	6.900015e-06	3.116270e-08	4.955955e+01	2.045866e+03
1.680000e-06	6.893053e-06	3.114938e-08	4.950954e+01	2.044874e+03
1.690000e-06	6.883806e-06	3.113364e-08	4.944313e+01	2.043699e+03
1.700000e-06	6.872315e-06	3.111617e-08	4.936060e+01	2.042357e+03
1.710000e-06	6.858426e-06	3.109772e-08	4.926084e+01	2.040852e+03
1.720000e-06	6.842236e-06	3.108059e-08	4.914455e+01	2.039182e+03
1.730000e-06	6.824005e-06	3.104126e-08	4.901361e+01	2.037339e+03
1.740000e-06	6.803498e-06	3.095674e-08	4.886632e+01	2.035316e+03
1.750000e-06	6.779941e-06	3.092771e-08	4.869711e+01	2.033118e+03
1.760000e-06	6.753190e-06	3.092933e-08	4.850498e+01	2.030758e+03
1.770000e-06	6.723788e-06	3.089413e-08	4.829380e+01	2.028260e+03
1.780000e-06	6.692205e-06	3.088658e-08	4.806695e+01	2.025649e+03
1.790000e-06	6.658925e-06	3.087561e-08	4.782791e+01	2.022941e+03
1.800000e-06	6.624143e-06	3.076385e-08	4.757809e+01	2.020132e+03
1.810000e-06	6.587243e-06	3.074926e-08	4.731306e+01	2.017195e+03
1.820000e-06	6.547842e-06	3.074730e-08	4.703006e+01	2.014076e+03
1.830000e-06	6.506249e-06	3.065892e-08	4.673132e+01	2.010702e+03
1.840000e-06	6.462443e-06	3.068221e-08	4.641668e+01	2.006998e+03
1.850000e-06	6.416292e-06	3.058468e-08	4.608520e+01	2.002900e+03
1.860000e-06	6.367785e-06	3.049154e-08	4.573679e+01	1.998371e+03
1.870000e-06	6.316887e-06	3.044377e-08	4.537122e+01	1.993411e+03
1.880000e-06	6.263517e-06	3.029750e-08	4.498789e+01	1.988057e+03
1.890000e-06	6.207547e-06	3.026900e-08	4.458588e+01	1.982371e+03
1.900000e-06	6.149219e-06	3.016724e-08	4.416694e+01	1.976425e+03
1.910000e-06	6.088662e-06	3.006026e-08	4.373199e+01	1.970283e+03
1.920000e-06	6.025661e-06	3.002711e-08	4.327948e+01	1.963980e+03
1.930000e-06	5.960447e-06	2.988734e-08	4.281108e+01	1.957514e+03
1.940000e-06	5.893141e-06	2.978915e-08	4.232765e+01	1.950845e+03
1.950000e-06	5.823527e-06	2.964842e-08	4.182765e+01	1.943907e+03
1.960000e-06	5.751515e-06	2.954087e-08	4.131042e+01	1.936620e+03
1.970000e-06	5.677326e-06	2.944332e-08	4.077755e+01	1.928918e+03
1.980000e-06	5.601011e-06	2.930780e-08	4.022942e+01	1.920758e+03
1.990000e-06	5.522327e-06	2.921427e-08	3.966427e+01	1.912133e+03
2.000000e-06	5.441512e-06	2.905193e-08	3.908381e+01	1.903069e+03
2.010000e-06	5.358896e-06	2.891002e-08	3.849042e+01	1.893614e+03
2.020000e-06	5.274534e-06	2.874630e-08	3.788449e+01	1.883818e+03
2.030000e-06	5.188188e-06	2.859348e-08	3.726431e+01	1.873716e+03
2.040000e-06	5.099847e-06	2.847009e-08	3.662979e+01	1.863314e+03
2.050000e-06	5.009804e-06	2.830433e-08	3.598306e+01	1.852581e+03
2.060000e-06	4.918131e-06	2.813386e-08	3.532461e+01	1.841457e+03
2.070000e-06	4.824742e-06	2.793225e-08	3.465385e+01	1.829866e+03
2.080000e-06	4.729517e-06	2.774600e-08	3.396989e+01	1.817733e+03
2.090000e-06	4.632626e-06	2.755004e-08	3.327396e+01	1.805003e+03
2.100000e-06	4.534232e-06	2.735538e-08	3.256725e+01	1.791655e+03
2.110000e-06	4.434326e-06	2.715673e-08	3.184967e+01	1.777694e+03
2.120000e-06	4.332795e-06	2.693591e-08	3.112042e+01	1.763151e+03
2.130000e-06	4.229549e-06	2.670342e-08	3.037885e+01	1.748060e+03
2.140000e-06	4.124803e-06	2.645608e-08	2.962651e+01	1.732443e+03
2.150000e-06	4.018691e-06	2.621490e-08	2.886436e+01	1.716289e+03
2.160000e-06	3.911183e-06	2.596150e-08	2.809218e+01	1.699553e+03
2.170000e-06	3.802262e-06	2.570053e-08	2.730985e+01	1.682156e+03
2.180000e-06	3.691930e-06	2.542112e-08	2.651739e+01	1.664001e+03
2.190000e-06	3.580151e-06	2.513103e-08	2.571453e+01	1.644991e+03
2.200000e-06	3.466933e-06	2.482535e-08	2.490134e+01	1.625047e+03
2.210000e-06	3.352354e-06	2.450992e-08	2.407838e+01	1.604121e+03
2.220000e-06	3.236435e-06	2.418325e-08	2.324578e+01	1.582196e+03
2.230000e-06	3.119177e-06	2.383995e-08	2.240357e+01	1.559273e+03
2.240000e-06	3.000519e-06	2.347870e-08	2.155131e+01	1.535354e+03
2.250000e-06	2.880544e-06	2.309840e-08	2.068959e+01	1.510419e+03
2.260000e-06	2.759529e-06	2.270064e-08	1.982040e+01	1.484404e+03
2.270000e-06	2.637622e-06	2.227892e-08	1.894480e+01	1.457196e+03
2.280000e-06	2.514843e-06	2.184062e-08	1.806293e+01	1.428634e+03
2.290000e-06	2.391163e-06	2.138141e-08	1.717459e+01	1.398527e+03
2.300000e-06	2.266671e-06	2.090101e-08	1.628043e+01	1.366681e+03
2.310000e-06	2.141501e-06	2.038968e-08	1.538139e+01	1.332913e+03
2.320000e-06	2.015653e-06	1.984552e-08	1.447749e+01	1.297072e+03
2.330000e-06	1.888991e-06	1.926742e-08	1.356773e+01	1.259037e+03
2.340000e-06	1.761504e-06	1.865490e-08	1.265205e+01	1.218704e+03
2.350000e-06	1.633344e-06	1.800724e-08	1.173154e+01	1.175959e+03
2.360000e-06	1.504596e-06	1.732001e-08	1.080680e+01	1.130654e+03
2.370000e-06	1.375425e-06	1.658664e-08	9.879029e+00	1.082590e+03
2.380000e-06	1.245957e-06	1.580163e-08	8.949124e+00	1.031519e+03
2.390000e-06	1.116118e-06	1.496643e-08	8.016552e+00	9.771711e+02
2.400000e-06	9.858974e-07	1.407922e-08	7.081236e+00	9.193000e+02
2.410000e-06	8.553476e-07	1.314274e-08	6.143558e+00	8.577481e+02
2.420000e-06	7.245023e-07	1.215623e-08	5.203758e+00	7.925046e+02
2.430000e-06	5.934136e-07	1.111586e-08	4.262210e+00	7.237492e+02
2.440000e-06	4.621119e-07	1.002391e-08	3.319132e+00	6.518610e+02
2.450000e-06	3.306499e-07	8.886106e-09	2.374902e+00	5.773870e+02
2.460000e-06	1.990553e-07	7.713987e-09	1.429720e+00	5.009711e+02
2.470000e-06	6.737586e-08	6.521094e-09	4.839290e-01	4.232533e+02
2.480000e-06	-6.431526e-08	5.316501e-09	-4.619462e-01	3.447618e+02
2.490000e-06	-1.960343e-07	4.107002e-09	-1.408022e+00	2.658194e+02
2.500000e-06	-3.276887e-07	2.894316e-09	-2.353633e+00	1.864894e+02
2.510000e-06	-4.591713e-07	1.672614e-09	-3.298011e+00	1.065755e+02
2.520000e-06	-5.905556e-07	4.348197e-10	-4.241682e+00	2.568135e+01
2.530000e-06	-7.217845e-07	-8.219409e-10	-5.184237e+00	-5.667985e+01
2.540000e-06	-8.527644e-07	-2.104443e-09	-6.125004e+00	-1.409449e+02
2.550000e-06	-9.834733e-07	-3.419764e-09	-7.063825e+00	-2.273582e+02
2.560000e-06	-1.113809e-06	-4.768038e-09	-7.999962e+00	-3.158566e+02
2.570000e-06	-1.243760e-06	-6.144327e-09	-8.933344e+00	-4.060074e+02
2.580000e-06	-1.373370e-06	-7.539579e-09	-9.864271e+00	-4.970123e+02
2.590000e-06	-1.502553e-06	-8.937107e-09	-1.079213e+01	-5.877789e+02
2.600000e-06	-1.631257e-06	-1.031142e-08	-1.171655e+01	-6.770460e+02
2.610000e-06	-1.759402e-06	-1.163743e-08	-1.263695e+01	-7.635384e+02
2.620000e-06	-1.886823e-06	-1.289845e-08	-1.355216e+01	-8.461219e+02
2.630000e-06	-2.013428e-06	-1.408483e-08	-1.446150e+01	-9.239294e+02
2.640000e-06	-2.139242e-06	-1.519119e-08	-1.536516e+01	-9.964370e+02
2.650000e-06	-2.264269e-06	-1.621694e-08	-1.626317e+01	-1.063481e+03
2.660000e-06	-2.388417e-06	-1.716459e-08	-1.715487e+01	-1.125219e+03
2.670000e-06	-2.511612e-06	-1.803999e-08	-1.803972e+01	-1.182042e+03
2.680000e-06	-2.633838e-06	-1.884811e-08	-1.891761e+01	-1.234476e+03
2.690000e-06	-2.755105e-06	-1.959518e-08	-1.978862e+01	-1.283073e+03
2.700000e-06	-2.875446e-06	-2.028866e-08	-2.065297e+01	-1.328330e+03
2.710000e-06	-2.994678e-06	-2.093585e-08	-2.150936e+01	-1.370644e+03
2.720000e-06	-3.112643e-06	-2.154367e-08	-2.235664e+01	-1.410295e+03
2.730000e-06	-3.229337e-06	-2.211353e-08	-2.319480e+01	-1.447467e+03
2.740000e-06	-3.344723e-06	-2.264393e-08	-2.402357e+01	-1.482285e+03
2.750000e-06	-3.458747e-06	-2.313852e-08	-2.484255e+01	-1.514860e+03
2.760000e-06	-3.571351e-06	-2.360338e-08	-2.565133e+01	-1.545315e+03
2.770000e-06	-3.682557e-06	-2.403914e-08	-2.645007e+01	-1.573812e+03
2.780000e-06	-3.792438e-06	-2.444713e-08	-2.723929e+01	-1.600542e+03
2.790000e-06	-3.901125e-06	-2.483406e-08	-2.801994e+01	-1.625711e+03
2.800000e-06	-4.008580e-06	-2.520204e-08	-2.879174e+01	-1.649515e+03
2.810000e-06	-4.114669e-06	-2.554882e-08	-2.955373e+01	-1.672118e+03
2.820000e-06	-4.219333e-06	-2.587634e-08	-3.030548e+01	-1.693635e+03
2.830000e-06	-4.322478e-06	-2.618853e-08	-3.104632e+01	-1.714132e+03
2.840000e-06	-4.423964e-06	-2.648680e-08	-3.177525e+01	-1.733637e+03
2.850000e-06	-4.523836e-06	-2.677025e-08	-3.249258e+01	-1.752156e+03
2.860000e-06	-4.622186e-06	-2.703685e-08	-3.319898e+01	-1.769699e+03
2.870000e-06	-4.718937e-06	-2.728701e-08	-3.389390e+01	-1.786289e+03
2.880000e-06	-4.814017e-06	-2.752602e-08	-3.457681e+01	-1.801978e+03
2.890000e-06	-4.907304e-06	-2.775678e-08	-3.524685e+01	-1.816839e+03
2.900000e-06	-4.998863e-06	-2.797949e-08	-3.590448e+01	-1.830956e+03
2.910000e-06	-5.088705e-06	-2.819092e-08	-3.654977e+01	-1.844414e+03
2.920000e-06	-5.176659e-06	-2.839057e-08	-3.718150e+01	-1.857280e+03
2.930000e-06	-5.262570e-06	-2.857997e-08	-3.779855e+01	-1.869596e+03
2.940000e-06	-5.346529e-06	-2.875773e-08	-3.840159e+01	-1.881378e+03
