# Temperatura_=_28.6
# Concentracion g/m^3_=_28200.0
# C_Vs_to_Am_M_A/Vsm_=_65563218390.804596
# pendiente_HvsI_1/m_=_3716.3
# ordenada_HvsI_A/m_=_1297.0
# frecuencia_Hz_=_302277.53404361696

Tiempo_(s)	Campo_(V.s)	Magnetizacion_(V.s)	Campo_(kA/m)	Magnetizacion_(A/m)
0.000000e+00	-6.925071e-06	-2.346024e-08	-4.952109e+01	-1.535498e+03
1.000000e-08	-6.922203e-06	-2.346045e-08	-4.950058e+01	-1.535181e+03
2.000000e-08	-6.917053e-06	-2.344884e-08	-4.946375e+01	-1.534699e+03
3.000000e-08	-6.909723e-06	-2.343500e-08	-4.941133e+01	-1.534031e+03
4.000000e-08	-6.899994e-06	-2.342264e-08	-4.934176e+01	-1.533165e+03
5.000000e-08	-6.887729e-06	-2.340497e-08	-4.925406e+01	-1.532100e+03
6.000000e-08	-6.872883e-06	-2.338311e-08	-4.914789e+01	-1.530853e+03
7.000000e-08	-6.855606e-06	-2.335521e-08	-4.902434e+01	-1.529453e+03
8.000000e-08	-6.836312e-06	-2.331892e-08	-4.888637e+01	-1.527942e+03
9.000000e-08	-6.814835e-06	-2.336302e-08	-4.873279e+01	-1.526364e+03
1.000000e-07	-6.790682e-06	-2.338102e-08	-4.856008e+01	-1.524759e+03
1.100000e-07	-6.763717e-06	-2.329130e-08	-4.836725e+01	-1.523156e+03
1.200000e-07	-6.734263e-06	-2.323618e-08	-4.815662e+01	-1.521558e+03
1.300000e-07	-6.702605e-06	-2.321391e-08	-4.793024e+01	-1.519950e+03
1.400000e-07	-6.668727e-06	-2.310477e-08	-4.768797e+01	-1.518286e+03
1.500000e-07	-6.633006e-06	-2.300193e-08	-4.743253e+01	-1.516506e+03
1.600000e-07	-6.595532e-06	-2.316670e-08	-4.716456e+01	-1.514538e+03
1.700000e-07	-6.555889e-06	-2.310706e-08	-4.688107e+01	-1.512312e+03
1.800000e-07	-6.513955e-06	-2.297534e-08	-4.658120e+01	-1.509771e+03
1.900000e-07	-6.469542e-06	-2.305964e-08	-4.626361e+01	-1.506884e+03
2.000000e-07	-6.422685e-06	-2.286874e-08	-4.592853e+01	-1.503644e+03
2.100000e-07	-6.373395e-06	-2.276683e-08	-4.557606e+01	-1.500075e+03
2.200000e-07	-6.321382e-06	-2.278611e-08	-4.520411e+01	-1.496223e+03
2.300000e-07	-6.266842e-06	-2.274898e-08	-4.481410e+01	-1.492145e+03
2.400000e-07	-6.209921e-06	-2.272542e-08	-4.440706e+01	-1.487897e+03
2.500000e-07	-6.150609e-06	-2.259305e-08	-4.398292e+01	-1.483519e+03
2.600000e-07	-6.089117e-06	-2.254721e-08	-4.354319e+01	-1.479033e+03
2.700000e-07	-6.025416e-06	-2.247415e-08	-4.308767e+01	-1.474431e+03
2.800000e-07	-5.959355e-06	-2.235887e-08	-4.261527e+01	-1.469683e+03
2.900000e-07	-5.891036e-06	-2.232928e-08	-4.212672e+01	-1.464741e+03
3.000000e-07	-5.820587e-06	-2.227222e-08	-4.162294e+01	-1.459552e+03
3.100000e-07	-5.747887e-06	-2.217774e-08	-4.110306e+01	-1.454070e+03
3.200000e-07	-5.672863e-06	-2.202888e-08	-4.056656e+01	-1.448262e+03
3.300000e-07	-5.595524e-06	-2.196775e-08	-4.001351e+01	-1.442119e+03
3.400000e-07	-5.515845e-06	-2.188066e-08	-3.944373e+01	-1.435648e+03
3.500000e-07	-5.434110e-06	-2.174772e-08	-3.885925e+01	-1.428872e+03
3.600000e-07	-5.350665e-06	-2.167427e-08	-3.826253e+01	-1.421818e+03
3.700000e-07	-5.265461e-06	-2.156179e-08	-3.765324e+01	-1.414506e+03
3.800000e-07	-5.178494e-06	-2.143465e-08	-3.703134e+01	-1.406942e+03
3.900000e-07	-5.089708e-06	-2.130735e-08	-3.639643e+01	-1.399114e+03
4.000000e-07	-4.999010e-06	-2.119600e-08	-3.574785e+01	-1.390992e+03
4.100000e-07	-4.906548e-06	-2.105662e-08	-3.508666e+01	-1.382532e+03
4.200000e-07	-4.812486e-06	-2.090502e-08	-3.441402e+01	-1.373690e+03
4.300000e-07	-4.716788e-06	-2.077446e-08	-3.372968e+01	-1.364426e+03
4.400000e-07	-4.619367e-06	-2.063648e-08	-3.303303e+01	-1.354711e+03
4.500000e-07	-4.520173e-06	-2.048243e-08	-3.232369e+01	-1.344536e+03
4.600000e-07	-4.419296e-06	-2.031876e-08	-3.160233e+01	-1.333903e+03
4.700000e-07	-4.316983e-06	-2.015061e-08	-3.087069e+01	-1.322823e+03
4.800000e-07	-4.213197e-06	-1.996460e-08	-3.012852e+01	-1.311302e+03
4.900000e-07	-4.107867e-06	-1.977436e-08	-2.937530e+01	-1.299340e+03
5.000000e-07	-4.000984e-06	-1.959204e-08	-2.861098e+01	-1.286916e+03
5.100000e-07	-3.892592e-06	-1.940315e-08	-2.783587e+01	-1.273993e+03
5.200000e-07	-3.782840e-06	-1.919109e-08	-2.705104e+01	-1.260519e+03
5.300000e-07	-3.671758e-06	-1.896665e-08	-2.625669e+01	-1.246432e+03
5.400000e-07	-3.559289e-06	-1.873774e-08	-2.545242e+01	-1.231674e+03
5.500000e-07	-3.445381e-06	-1.850425e-08	-2.463787e+01	-1.216192e+03
5.600000e-07	-3.329916e-06	-1.826375e-08	-2.381218e+01	-1.199950e+03
5.700000e-07	-3.212997e-06	-1.800837e-08	-2.297610e+01	-1.182922e+03
5.800000e-07	-3.094910e-06	-1.773060e-08	-2.213166e+01	-1.165089e+03
5.900000e-07	-2.975676e-06	-1.743449e-08	-2.127902e+01	-1.146430e+03
6.000000e-07	-2.855341e-06	-1.713120e-08	-2.041850e+01	-1.126911e+03
6.100000e-07	-2.734053e-06	-1.681957e-08	-1.955117e+01	-1.106478e+03
6.200000e-07	-2.611746e-06	-1.649776e-08	-1.867656e+01	-1.085054e+03
6.300000e-07	-2.488278e-06	-1.615708e-08	-1.779364e+01	-1.062539e+03
6.400000e-07	-2.363828e-06	-1.579136e-08	-1.690370e+01	-1.038816e+03
6.500000e-07	-2.238643e-06	-1.539939e-08	-1.600850e+01	-1.013764e+03
6.600000e-07	-2.112803e-06	-1.499028e-08	-1.510862e+01	-9.872601e+02
6.700000e-07	-1.986305e-06	-1.456491e-08	-1.420404e+01	-9.591884e+02
6.800000e-07	-1.859051e-06	-1.411655e-08	-1.329405e+01	-9.294391e+02
6.900000e-07	-1.731081e-06	-1.363750e-08	-1.237894e+01	-8.979042e+02
7.000000e-07	-1.602509e-06	-1.312331e-08	-1.145952e+01	-8.644713e+02
7.100000e-07	-1.473444e-06	-1.257966e-08	-1.053658e+01	-8.290190e+02
7.200000e-07	-1.343968e-06	-1.200279e-08	-9.610695e+00	-7.914173e+02
7.300000e-07	-1.214065e-06	-1.139525e-08	-8.681761e+00	-7.515381e+02
7.400000e-07	-1.083747e-06	-1.075436e-08	-7.749859e+00	-7.092746e+02
7.500000e-07	-9.530417e-07	-1.007557e-08	-6.815188e+00	-6.645687e+02
7.600000e-07	-8.219618e-07	-9.356587e-09	-5.877838e+00	-6.174408e+02
7.700000e-07	-6.905256e-07	-8.602307e-09	-4.937939e+00	-5.680154e+02
7.800000e-07	-5.588130e-07	-7.817825e-09	-3.996064e+00	-5.165336e+02
7.900000e-07	-4.268870e-07	-7.008278e-09	-3.052663e+00	-4.633470e+02
8.000000e-07	-2.948264e-07	-6.181463e-09	-2.108299e+00	-4.088902e+02
8.100000e-07	-1.626983e-07	-5.341408e-09	-1.163453e+00	-3.536329e+02
8.200000e-07	-3.043895e-08	-4.496280e-09	-2.176685e-01	-2.980183e+02
8.300000e-07	1.019091e-07	-3.650432e-09	7.287504e-01	-2.423994e+02
8.400000e-07	2.342706e-07	-2.808899e-09	1.675266e+00	-1.869844e+02
8.500000e-07	3.665635e-07	-1.968637e-09	2.621291e+00	-1.318035e+02
8.600000e-07	4.987141e-07	-1.129655e-09	3.566297e+00	-7.670734e+01
8.700000e-07	6.306987e-07	-2.899310e-10	4.510118e+00	-2.139702e+01
8.800000e-07	7.624496e-07	5.573871e-10	5.452266e+00	3.451432e+01
8.900000e-07	8.939129e-07	1.420809e-09	6.392359e+00	9.142031e+01
9.000000e-07	1.025114e-06	2.307123e-09	7.330575e+00	1.496337e+02
9.100000e-07	1.155980e-06	3.215052e-09	8.266395e+00	2.093082e+02
9.200000e-07	1.286351e-06	4.144696e-09	9.198675e+00	2.703844e+02
9.300000e-07	1.416190e-06	5.091655e-09	1.012715e+01	3.325694e+02
9.400000e-07	1.545473e-06	6.049619e-09	1.105166e+01	3.953545e+02
9.500000e-07	1.674219e-06	7.007427e-09	1.197232e+01	4.580664e+02
9.600000e-07	1.802424e-06	7.950908e-09	1.288911e+01	5.199439e+02
9.700000e-07	1.929956e-06	8.867946e-09	1.380109e+01	5.802242e+02
9.800000e-07	2.056647e-06	9.748897e-09	1.470706e+01	6.382260e+02
9.900000e-07	2.182528e-06	1.058647e-08	1.560722e+01	6.934139e+02
1.000000e-06	2.307765e-06	1.137220e-08	1.650279e+01	7.454373e+02
1.010000e-06	2.432334e-06	1.210815e-08	1.739359e+01	7.941378e+02
1.020000e-06	2.556006e-06	1.279617e-08	1.827796e+01	8.395303e+02
1.030000e-06	2.678573e-06	1.343984e-08	1.915444e+01	8.817635e+02
1.040000e-06	2.800014e-06	1.403942e-08	2.002286e+01	9.210697e+02
1.050000e-06	2.920397e-06	1.459805e-08	2.088372e+01	9.577160e+02
1.060000e-06	3.039751e-06	1.511799e-08	2.173722e+01	9.919633e+02
1.070000e-06	3.158021e-06	1.560300e-08	2.258296e+01	1.024041e+03
1.080000e-06	3.275201e-06	1.605863e-08	2.342092e+01	1.054136e+03
1.090000e-06	3.391166e-06	1.648722e-08	2.425018e+01	1.082396e+03
1.100000e-06	3.505692e-06	1.689036e-08	2.506916e+01	1.108942e+03
1.110000e-06	3.618768e-06	1.726896e-08	2.587776e+01	1.133880e+03
1.120000e-06	3.730485e-06	1.762627e-08	2.667665e+01	1.157316e+03
1.130000e-06	3.840919e-06	1.796373e-08	2.746636e+01	1.179362e+03
1.140000e-06	3.950116e-06	1.828410e-08	2.824723e+01	1.200133e+03
1.150000e-06	4.058027e-06	1.858440e-08	2.901890e+01	1.219747e+03
1.160000e-06	4.164422e-06	1.886542e-08	2.977973e+01	1.238311e+03
1.170000e-06	4.269209e-06	1.912979e-08	3.052905e+01	1.255918e+03
1.180000e-06	4.372443e-06	1.938011e-08	3.126728e+01	1.272641e+03
1.190000e-06	4.474183e-06	1.961791e-08	3.199482e+01	1.288533e+03
1.200000e-06	4.574441e-06	1.984555e-08	3.271177e+01	1.303633e+03
1.210000e-06	4.673047e-06	2.006289e-08	3.341689e+01	1.317969e+03
1.220000e-06	4.769848e-06	2.026977e-08	3.410912e+01	1.331567e+03
1.230000e-06	4.864813e-06	2.046536e-08	3.478821e+01	1.344460e+03
1.240000e-06	4.958071e-06	2.065028e-08	3.545510e+01	1.356685e+03
1.250000e-06	5.049708e-06	2.082529e-08	3.611039e+01	1.368284e+03
1.260000e-06	5.139523e-06	2.099186e-08	3.675265e+01	1.379300e+03
1.270000e-06	5.227358e-06	2.114988e-08	3.738077e+01	1.389775e+03
1.280000e-06	5.313294e-06	2.129957e-08	3.799529e+01	1.399737e+03
1.290000e-06	5.397423e-06	2.144372e-08	3.859690e+01	1.409207e+03
1.300000e-06	5.479603e-06	2.158379e-08	3.918457e+01	1.418193e+03
1.310000e-06	5.559718e-06	2.171718e-08	3.975747e+01	1.426699e+03
1.320000e-06	5.637863e-06	2.184144e-08	4.031628e+01	1.434725e+03
1.330000e-06	5.713948e-06	2.195700e-08	4.086036e+01	1.442278e+03
1.340000e-06	5.787769e-06	2.206472e-08	4.138826e+01	1.449375e+03
1.350000e-06	5.859370e-06	2.216545e-08	4.190027e+01	1.456043e+03
1.360000e-06	5.928850e-06	2.226057e-08	4.239712e+01	1.462319e+03
1.370000e-06	5.996269e-06	2.235157e-08	4.287924e+01	1.468246e+03
1.380000e-06	6.061468e-06	2.243746e-08	4.334548e+01	1.473865e+03
1.390000e-06	6.124451e-06	2.251793e-08	4.379586e+01	1.479212e+03
1.400000e-06	6.185434e-06	2.259333e-08	4.423195e+01	1.484311e+03
1.410000e-06	6.244295e-06	2.266622e-08	4.465287e+01	1.489175e+03
1.420000e-06	6.300905e-06	2.273678e-08	4.505769e+01	1.493803e+03
1.430000e-06	6.355267e-06	2.280441e-08	4.544642e+01	1.498188e+03
1.440000e-06	6.407153e-06	2.286793e-08	4.581746e+01	1.502318e+03
1.450000e-06	6.456317e-06	2.292649e-08	4.616903e+01	1.506186e+03
1.460000e-06	6.502997e-06	2.298083e-08	4.650284e+01	1.509787e+03
1.470000e-06	6.547523e-06	2.303151e-08	4.682125e+01	1.513126e+03
1.480000e-06	6.589789e-06	2.307803e-08	4.712349e+01	1.516214e+03
1.490000e-06	6.629613e-06	2.311990e-08	4.740827e+01	1.519065e+03
1.500000e-06	6.667149e-06	2.315963e-08	4.767669e+01	1.521694e+03
1.510000e-06	6.702455e-06	2.319827e-08	4.792916e+01	1.524112e+03
1.520000e-06	6.735284e-06	2.323326e-08	4.816392e+01	1.526325e+03
1.530000e-06	6.765662e-06	2.326272e-08	4.838116e+01	1.528332e+03
1.540000e-06	6.793824e-06	2.328913e-08	4.858254e+01	1.530127e+03
1.550000e-06	6.819507e-06	2.331252e-08	4.876620e+01	1.531703e+03
1.560000e-06	6.842542e-06	2.333214e-08	4.893092e+01	1.533054e+03
1.570000e-06	6.863219e-06	2.334791e-08	4.907879e+01	1.534181e+03
1.580000e-06	6.881546e-06	2.336067e-08	4.920984e+01	1.535090e+03
1.590000e-06	6.897276e-06	2.337230e-08	4.932233e+01	1.535797e+03
1.600000e-06	6.910412e-06	2.338234e-08	4.941626e+01	1.536324e+03
1.610000e-06	6.920888e-06	2.339086e-08	4.949117e+01	1.536694e+03
1.620000e-06	6.928688e-06	2.339787e-08	4.954695e+01	1.536929e+03
1.630000e-06	6.934035e-06	2.340235e-08	4.958519e+01	1.537045e+03
1.640000e-06	6.936952e-06	2.340247e-08	4.960604e+01	1.537046e+03
1.650000e-06	6.937351e-06	2.340270e-08	4.960890e+01	1.536927e+03
1.660000e-06	6.935370e-06	2.339361e-08	4.959474e+01	1.536674e+03
1.670000e-06	6.931198e-06	2.338221e-08	4.956490e+01	1.536266e+03
1.680000e-06	6.924636e-06	2.337744e-08	4.951798e+01	1.535679e+03
1.690000e-06	6.915701e-06	2.336793e-08	4.945408e+01	1.534899e+03
1.700000e-06	6.904583e-06	2.335599e-08	4.937457e+01	1.533918e+03
1.710000e-06	6.891035e-06	2.334628e-08	4.927769e+01	1.532746e+03
1.720000e-06	6.875090e-06	2.334682e-08	4.916368e+01	1.531407e+03
1.730000e-06	6.857108e-06	2.333593e-08	4.903508e+01	1.529938e+03
1.740000e-06	6.836932e-06	2.320733e-08	4.889081e+01	1.528383e+03
1.750000e-06	6.813723e-06	2.317387e-08	4.872484e+01	1.526785e+03
1.760000e-06	6.787213e-06	2.322118e-08	4.853527e+01	1.525179e+03
1.770000e-06	6.757927e-06	2.317904e-08	4.832584e+01	1.523580e+03
1.780000e-06	6.726386e-06	2.317437e-08	4.810029e+01	1.521980e+03
1.790000e-06	6.693113e-06	2.329823e-08	4.786236e+01	1.520346e+03
1.800000e-06	6.658488e-06	2.314927e-08	4.761476e+01	1.518624e+03
1.810000e-06	6.621968e-06	2.306360e-08	4.735360e+01	1.516746e+03
1.820000e-06	6.582848e-06	2.319086e-08	4.707385e+01	1.514638e+03
1.830000e-06	6.541455e-06	2.297634e-08	4.677785e+01	1.512238e+03
1.840000e-06	6.497826e-06	2.307877e-08	4.646586e+01	1.509501e+03
1.850000e-06	6.451810e-06	2.309763e-08	4.613680e+01	1.506410e+03
1.860000e-06	6.403521e-06	2.292962e-08	4.579149e+01	1.502978e+03
1.870000e-06	6.352780e-06	2.295364e-08	4.542864e+01	1.499241e+03
1.880000e-06	6.299515e-06	2.270819e-08	4.504775e+01	1.495252e+03
1.890000e-06	6.243688e-06	2.273747e-08	4.464853e+01	1.491070e+03
1.900000e-06	6.185433e-06	2.272306e-08	4.423194e+01	1.486744e+03
1.910000e-06	6.124906e-06	2.259201e-08	4.379912e+01	1.482304e+03
1.920000e-06	6.061970e-06	2.267329e-08	4.334907e+01	1.477754e+03
1.930000e-06	5.996814e-06	2.247589e-08	4.288314e+01	1.473073e+03
1.940000e-06	5.929557e-06	2.239905e-08	4.240218e+01	1.468220e+03
1.950000e-06	5.859992e-06	2.230269e-08	4.190472e+01	1.463143e+03
1.960000e-06	5.788040e-06	2.223433e-08	4.139019e+01	1.457792e+03
1.970000e-06	5.713859e-06	2.221019e-08	4.085973e+01	1.452126e+03
1.980000e-06	5.637510e-06	2.203937e-08	4.031376e+01	1.446127e+03
1.990000e-06	5.558798e-06	2.202210e-08	3.975088e+01	1.439794e+03
2.000000e-06	5.478036e-06	2.186379e-08	3.917336e+01	1.433145e+03
2.010000e-06	5.395495e-06	2.177011e-08	3.858311e+01	1.426207e+03
2.020000e-06	5.311030e-06	2.168749e-08	3.797910e+01	1.419004e+03
2.030000e-06	5.224580e-06	2.155343e-08	3.736090e+01	1.411548e+03
2.040000e-06	5.136142e-06	2.145519e-08	3.672848e+01	1.403836e+03
2.050000e-06	5.045983e-06	2.129326e-08	3.608375e+01	1.395844e+03
2.060000e-06	4.954180e-06	2.120977e-08	3.542727e+01	1.387535e+03
2.070000e-06	4.860683e-06	2.105579e-08	3.475867e+01	1.378862e+03
2.080000e-06	4.765434e-06	2.092014e-08	3.407756e+01	1.369782e+03
2.090000e-06	4.668419e-06	2.076979e-08	3.338380e+01	1.360263e+03
2.100000e-06	4.569867e-06	2.061418e-08	3.267905e+01	1.350285e+03
2.110000e-06	4.469754e-06	2.046601e-08	3.196315e+01	1.339848e+03
2.120000e-06	4.368007e-06	2.030171e-08	3.123556e+01	1.328957e+03
2.130000e-06	4.264578e-06	2.015298e-08	3.049594e+01	1.317625e+03
2.140000e-06	4.159561e-06	1.995568e-08	2.974496e+01	1.305853e+03
2.150000e-06	4.053135e-06	1.976292e-08	2.898391e+01	1.293630e+03
2.160000e-06	3.945313e-06	1.955993e-08	2.821288e+01	1.280927e+03
2.170000e-06	3.836106e-06	1.936958e-08	2.743194e+01	1.267696e+03
2.180000e-06	3.725496e-06	1.916231e-08	2.664097e+01	1.253879e+03
2.190000e-06	3.613449e-06	1.894857e-08	2.583972e+01	1.239415e+03
2.200000e-06	3.499991e-06	1.871602e-08	2.502839e+01	1.224249e+03
2.210000e-06	3.385093e-06	1.846477e-08	2.420675e+01	1.208337e+03
2.220000e-06	3.268695e-06	1.821064e-08	2.337439e+01	1.191648e+03
2.230000e-06	3.150964e-06	1.795503e-08	2.253250e+01	1.174162e+03
2.240000e-06	3.031940e-06	1.769017e-08	2.168136e+01	1.155860e+03
2.250000e-06	2.911692e-06	1.739587e-08	2.082147e+01	1.136714e+03
2.260000e-06	2.790458e-06	1.708582e-08	1.995453e+01	1.116681e+03
2.270000e-06	2.668325e-06	1.675577e-08	1.908116e+01	1.095693e+03
2.280000e-06	2.545215e-06	1.642081e-08	1.820080e+01	1.073658e+03
2.290000e-06	2.421058e-06	1.607360e-08	1.731295e+01	1.050468e+03
2.300000e-06	2.296047e-06	1.571149e-08	1.641900e+01	1.026000e+03
2.310000e-06	2.170347e-06	1.531999e-08	1.552012e+01	1.000133e+03
2.320000e-06	2.043909e-06	1.490041e-08	1.461596e+01	9.727468e+02
2.330000e-06	1.916673e-06	1.445478e-08	1.370610e+01	9.437295e+02
2.340000e-06	1.788674e-06	1.398646e-08	1.279079e+01	9.129730e+02
2.350000e-06	1.660045e-06	1.349461e-08	1.187096e+01	8.803677e+02
2.360000e-06	1.530875e-06	1.297143e-08	1.094726e+01	8.457963e+02
2.370000e-06	1.401267e-06	1.241195e-08	1.002044e+01	8.091317e+02
2.380000e-06	1.271320e-06	1.181119e-08	9.091193e+00	7.702433e+02
2.390000e-06	1.141010e-06	1.117805e-08	8.159349e+00	7.290122e+02
2.400000e-06	1.010385e-06	1.051162e-08	7.225248e+00	6.853556e+02
2.410000e-06	8.794456e-07	9.811281e-09	6.288903e+00	6.392568e+02
2.420000e-06	7.481890e-07	9.076382e-09	5.350289e+00	5.907933e+02
2.430000e-06	6.166426e-07	8.304785e-09	4.409603e+00	5.401556e+02
2.440000e-06	4.847830e-07	7.500911e-09	3.466677e+00	4.876502e+02
2.450000e-06	3.527521e-07	6.672354e-09	2.522526e+00	4.336809e+02
2.460000e-06	2.206402e-07	5.829107e-09	1.577795e+00	3.787092e+02
2.470000e-06	8.838076e-08	4.979620e-09	6.320096e-01	3.231976e+02
2.480000e-06	-4.394686e-08	4.127071e-09	-3.142634e-01	2.675455e+02
2.490000e-06	-1.762724e-07	3.277578e-09	-1.260521e+00	2.120284e+02
2.500000e-06	-3.085646e-07	2.433980e-09	-2.206541e+00	1.567552e+02
2.510000e-06	-4.407257e-07	1.592210e-09	-3.151623e+00	1.016515e+02
2.520000e-06	-5.727542e-07	7.464878e-10	-4.095758e+00	4.647677e+01
2.530000e-06	-7.046435e-07	-1.078416e-10	-5.038896e+00	-9.127327e+00
2.540000e-06	-8.362892e-07	-9.745194e-10	-5.980293e+00	-6.556221e+01
2.550000e-06	-9.675823e-07	-1.856220e-09	-6.919168e+00	-1.231858e+02
2.560000e-06	-1.098466e-06	-2.755467e-09	-7.855117e+00	-1.822282e+02
2.570000e-06	-1.228898e-06	-3.675371e-09	-8.787831e+00	-2.427261e+02
2.580000e-06	-1.358950e-06	-4.616482e-09	-9.717832e+00	-3.044866e+02
2.590000e-06	-1.488688e-06	-5.575289e-09	-1.064559e+01	-3.670890e+02
2.600000e-06	-1.617994e-06	-6.539832e-09	-1.157025e+01	-4.299225e+02
2.610000e-06	-1.746756e-06	-7.494598e-09	-1.249103e+01	-4.922530e+02
2.620000e-06	-1.874795e-06	-8.427647e-09	-1.340663e+01	-5.533079e+02
2.630000e-06	-2.002064e-06	-9.329747e-09	-1.431673e+01	-6.123616e+02
2.640000e-06	-2.128588e-06	-1.019372e-08	-1.522151e+01	-6.688099e+02
2.650000e-06	-2.254257e-06	-1.101220e-08	-1.612016e+01	-7.222201e+02
2.660000e-06	-2.379071e-06	-1.177994e-08	-1.701270e+01	-7.723524e+02
2.670000e-06	-2.502965e-06	-1.249678e-08	-1.789866e+01	-8.191513e+02
2.680000e-06	-2.625853e-06	-1.316398e-08	-1.877744e+01	-8.627139e+02
2.690000e-06	-2.747798e-06	-1.378501e-08	-1.964947e+01	-9.032430e+02
2.700000e-06	-2.868767e-06	-1.436703e-08	-2.051451e+01	-9.409963e+02
2.710000e-06	-2.988637e-06	-1.491142e-08	-2.137170e+01	-9.762415e+02
2.720000e-06	-3.107348e-06	-1.541663e-08	-2.222060e+01	-1.009224e+03
2.730000e-06	-3.224853e-06	-1.588729e-08	-2.306088e+01	-1.040148e+03
2.740000e-06	-3.341077e-06	-1.632796e-08	-2.389200e+01	-1.069179e+03
2.750000e-06	-3.455889e-06	-1.674235e-08	-2.471301e+01	-1.096446e+03
2.760000e-06	-3.569311e-06	-1.713586e-08	-2.552409e+01	-1.122061e+03
2.770000e-06	-3.681302e-06	-1.750682e-08	-2.632494e+01	-1.146128e+03
2.780000e-06	-3.791814e-06	-1.785204e-08	-2.711521e+01	-1.168755e+03
2.790000e-06	-3.901052e-06	-1.817542e-08	-2.789637e+01	-1.190059e+03
2.800000e-06	-4.009098e-06	-1.848231e-08	-2.866901e+01	-1.210155e+03
2.810000e-06	-4.115888e-06	-1.877451e-08	-2.943266e+01	-1.229156e+03
2.820000e-06	-4.221304e-06	-1.905163e-08	-3.018648e+01	-1.247163e+03
2.830000e-06	-4.325162e-06	-1.931295e-08	-3.092917e+01	-1.264257e+03
2.840000e-06	-4.427365e-06	-1.956139e-08	-3.166002e+01	-1.280501e+03
2.850000e-06	-4.527921e-06	-1.980042e-08	-3.237910e+01	-1.295937e+03
2.860000e-06	-4.626906e-06	-2.002800e-08	-3.308694e+01	-1.310597e+03
2.870000e-06	-4.724337e-06	-2.024386e-08	-3.378367e+01	-1.324508e+03
2.880000e-06	-4.820082e-06	-2.044759e-08	-3.446834e+01	-1.337699e+03
2.890000e-06	-4.914041e-06	-2.063998e-08	-3.514024e+01	-1.350205e+03
2.900000e-06	-5.006191e-06	-2.082096e-08	-3.579920e+01	-1.362067e+03
2.910000e-06	-5.096627e-06	-2.099160e-08	-3.644591e+01	-1.373328e+03
2.920000e-06	-5.185289e-06	-2.115448e-08	-3.707993e+01	-1.384031e+03
2.930000e-06	-5.271954e-06	-2.131158e-08	-3.769967e+01	-1.394210e+03
2.940000e-06	-5.356561e-06	-2.146232e-08	-3.830470e+01	-1.403889e+03
