# Temperatura_=_28.9
# Concentracion g/m^3_=_28200.0
# C_Vs_to_Am_M_A/Vsm_=_65563218390.804596
# pendiente_HvsI_1/m_=_3716.3
# ordenada_HvsI_A/m_=_1297.0
# frecuencia_Hz_=_302278.25648978795

Tiempo_(s)	Campo_(V.s)	Magnetizacion_(V.s)	Campo_(kA/m)	Magnetizacion_(A/m)
0.000000e+00	-6.933011e-06	-2.346796e-08	-4.951969e+01	-1.535996e+03
1.000000e-08	-6.930075e-06	-2.346771e-08	-4.949872e+01	-1.535626e+03
2.000000e-08	-6.924836e-06	-2.345614e-08	-4.946129e+01	-1.535108e+03
3.000000e-08	-6.917469e-06	-2.344291e-08	-4.940868e+01	-1.534429e+03
4.000000e-08	-6.907757e-06	-2.342974e-08	-4.933931e+01	-1.533576e+03
5.000000e-08	-6.895499e-06	-2.341163e-08	-4.925175e+01	-1.532541e+03
6.000000e-08	-6.880645e-06	-2.339032e-08	-4.914566e+01	-1.531328e+03
7.000000e-08	-6.863416e-06	-2.336378e-08	-4.902260e+01	-1.529950e+03
8.000000e-08	-6.844179e-06	-2.332990e-08	-4.888520e+01	-1.528436e+03
9.000000e-08	-6.822718e-06	-2.337918e-08	-4.873191e+01	-1.526823e+03
1.000000e-07	-6.798521e-06	-2.339103e-08	-4.855908e+01	-1.525152e+03
1.100000e-07	-6.771504e-06	-2.329705e-08	-4.836611e+01	-1.523463e+03
1.200000e-07	-6.742021e-06	-2.324526e-08	-4.815552e+01	-1.521779e+03
1.300000e-07	-6.710316e-06	-2.322445e-08	-4.792906e+01	-1.520104e+03
1.400000e-07	-6.676401e-06	-2.311048e-08	-4.768682e+01	-1.518414e+03
1.500000e-07	-6.640651e-06	-2.301040e-08	-4.743147e+01	-1.516662e+03
1.600000e-07	-6.603105e-06	-2.318136e-08	-4.716330e+01	-1.514779e+03
1.700000e-07	-6.563375e-06	-2.309981e-08	-4.687952e+01	-1.512687e+03
1.800000e-07	-6.521361e-06	-2.298682e-08	-4.657944e+01	-1.510311e+03
1.900000e-07	-6.476869e-06	-2.308373e-08	-4.626165e+01	-1.507597e+03
2.000000e-07	-6.429952e-06	-2.288210e-08	-4.592654e+01	-1.504516e+03
2.100000e-07	-6.380565e-06	-2.278852e-08	-4.557379e+01	-1.501072e+03
2.200000e-07	-6.328429e-06	-2.279819e-08	-4.520141e+01	-1.497299e+03
2.300000e-07	-6.273829e-06	-2.275645e-08	-4.481142e+01	-1.493254e+03
2.400000e-07	-6.216850e-06	-2.273508e-08	-4.440444e+01	-1.489000e+03
2.500000e-07	-6.157433e-06	-2.261473e-08	-4.398005e+01	-1.484594e+03
2.600000e-07	-6.095822e-06	-2.257101e-08	-4.353999e+01	-1.480071e+03
2.700000e-07	-6.031997e-06	-2.249039e-08	-4.308411e+01	-1.475440e+03
2.800000e-07	-5.965856e-06	-2.237727e-08	-4.261169e+01	-1.470678e+03
2.900000e-07	-5.897456e-06	-2.233701e-08	-4.212314e+01	-1.465738e+03
3.000000e-07	-5.826922e-06	-2.227377e-08	-4.161934e+01	-1.460565e+03
3.100000e-07	-5.754178e-06	-2.219370e-08	-4.109976e+01	-1.455102e+03
3.200000e-07	-5.679037e-06	-2.205259e-08	-4.056306e+01	-1.449308e+03
3.300000e-07	-5.601540e-06	-2.199258e-08	-4.000953e+01	-1.443166e+03
3.400000e-07	-5.521802e-06	-2.190110e-08	-3.943999e+01	-1.436682e+03
3.500000e-07	-5.440026e-06	-2.176132e-08	-3.885590e+01	-1.429880e+03
3.600000e-07	-5.356507e-06	-2.168076e-08	-3.825936e+01	-1.422794e+03
3.700000e-07	-5.271212e-06	-2.156866e-08	-3.765013e+01	-1.415452e+03
3.800000e-07	-5.184215e-06	-2.145042e-08	-3.702874e+01	-1.407867e+03
3.900000e-07	-5.095398e-06	-2.132838e-08	-3.639436e+01	-1.400030e+03
4.000000e-07	-5.004613e-06	-2.122261e-08	-3.574592e+01	-1.391910e+03
4.100000e-07	-4.912076e-06	-2.107959e-08	-3.508497e+01	-1.383460e+03
4.200000e-07	-4.817918e-06	-2.092327e-08	-3.441243e+01	-1.374626e+03
4.300000e-07	-4.722114e-06	-2.078926e-08	-3.372814e+01	-1.365361e+03
4.400000e-07	-4.624536e-06	-2.065001e-08	-3.303118e+01	-1.355635e+03
4.500000e-07	-4.525255e-06	-2.049680e-08	-3.232207e+01	-1.345435e+03
4.600000e-07	-4.424303e-06	-2.033101e-08	-3.160100e+01	-1.334770e+03
4.700000e-07	-4.321866e-06	-2.016211e-08	-3.086934e+01	-1.323658e+03
4.800000e-07	-4.217966e-06	-1.997658e-08	-3.012722e+01	-1.312114e+03
4.900000e-07	-4.112458e-06	-1.978914e-08	-2.937362e+01	-1.300145e+03
5.000000e-07	-4.005382e-06	-1.960965e-08	-2.860882e+01	-1.287735e+03
5.100000e-07	-3.896831e-06	-1.942425e-08	-2.783349e+01	-1.274843e+03
5.200000e-07	-3.786968e-06	-1.921146e-08	-2.704878e+01	-1.261411e+03
5.300000e-07	-3.675856e-06	-1.898363e-08	-2.625515e+01	-1.247369e+03
5.400000e-07	-3.563314e-06	-1.875249e-08	-2.545131e+01	-1.232647e+03
5.500000e-07	-3.449233e-06	-1.851702e-08	-2.463647e+01	-1.217188e+03
5.600000e-07	-3.333664e-06	-1.827581e-08	-2.381101e+01	-1.200951e+03
5.700000e-07	-3.216657e-06	-1.802214e-08	-2.297528e+01	-1.183915e+03
5.800000e-07	-3.098448e-06	-1.774861e-08	-2.213096e+01	-1.166069e+03
5.900000e-07	-2.979211e-06	-1.745384e-08	-2.127930e+01	-1.147401e+03
6.000000e-07	-2.858858e-06	-1.715096e-08	-2.041966e+01	-1.127886e+03
6.100000e-07	-2.737364e-06	-1.683849e-08	-1.955188e+01	-1.107475e+03
6.200000e-07	-2.614826e-06	-1.651464e-08	-1.867664e+01	-1.086090e+03
6.300000e-07	-2.491203e-06	-1.617278e-08	-1.779366e+01	-1.063625e+03
6.400000e-07	-2.366650e-06	-1.580815e-08	-1.690402e+01	-1.039953e+03
6.500000e-07	-2.241334e-06	-1.541759e-08	-1.600894e+01	-1.014939e+03
6.600000e-07	-2.115324e-06	-1.500748e-08	-1.510890e+01	-9.884515e+02
6.700000e-07	-1.988677e-06	-1.458088e-08	-1.420431e+01	-9.603698e+02
6.800000e-07	-1.861350e-06	-1.413151e-08	-1.329487e+01	-9.305858e+02
6.900000e-07	-1.733262e-06	-1.365344e-08	-1.237999e+01	-8.989996e+02
7.000000e-07	-1.604441e-06	-1.314069e-08	-1.145987e+01	-8.655111e+02
7.100000e-07	-1.475102e-06	-1.259740e-08	-1.053605e+01	-8.300109e+02
7.200000e-07	-1.345404e-06	-1.201903e-08	-9.609677e+00	-7.923783e+02
7.300000e-07	-1.215346e-06	-1.140870e-08	-8.680723e+00	-7.524878e+02
7.400000e-07	-1.084824e-06	-1.076598e-08	-7.748458e+00	-7.102273e+02
7.500000e-07	-9.539087e-07	-1.008630e-08	-6.813383e+00	-6.655265e+02
7.600000e-07	-8.226729e-07	-9.367459e-09	-5.876019e+00	-6.183893e+02
7.700000e-07	-6.910826e-07	-8.614533e-09	-4.936123e+00	-5.689234e+02
7.800000e-07	-5.592011e-07	-7.830071e-09	-3.994147e+00	-5.173569e+02
7.900000e-07	-4.271308e-07	-7.017458e-09	-3.050822e+00	-4.640360e+02
8.000000e-07	-2.949199e-07	-6.187078e-09	-2.106493e+00	-4.093979e+02
8.100000e-07	-1.625989e-07	-5.343272e-09	-1.161378e+00	-3.539226e+02
8.200000e-07	-3.019243e-08	-4.493672e-09	-2.156523e-01	-2.980685e+02
8.300000e-07	1.022721e-07	-3.643427e-09	7.304883e-01	-2.422040e+02
8.400000e-07	2.347452e-07	-2.799419e-09	1.676690e+00	-1.865487e+02
8.500000e-07	3.671946e-07	-1.958043e-09	2.622722e+00	-1.311377e+02
8.600000e-07	4.995335e-07	-1.114960e-09	3.567965e+00	-7.581783e+01
8.700000e-07	6.316916e-07	-2.697041e-10	4.511917e+00	-2.027999e+01
8.800000e-07	7.636320e-07	5.820188e-10	5.454314e+00	3.587677e+01
8.900000e-07	8.952766e-07	1.448942e-09	6.394598e+00	9.305916e+01
9.000000e-07	1.026555e-06	2.338005e-09	7.332265e+00	1.515875e+02
9.100000e-07	1.157445e-06	3.249300e-09	8.267163e+00	2.116141e+02
9.200000e-07	1.287914e-06	4.184633e-09	9.199049e+00	2.730679e+02
9.300000e-07	1.417933e-06	5.139056e-09	1.012772e+01	3.356355e+02
9.400000e-07	1.547462e-06	6.104314e-09	1.105289e+01	3.987818e+02
9.500000e-07	1.676436e-06	7.066102e-09	1.197410e+01	4.618069e+02
9.600000e-07	1.804761e-06	8.013266e-09	1.289067e+01	5.239267e+02
9.700000e-07	1.932355e-06	8.933886e-09	1.380203e+01	5.843643e+02
9.800000e-07	2.059210e-06	9.814932e-09	1.470810e+01	6.424348e+02
9.900000e-07	2.185308e-06	1.065154e-08	1.560877e+01	6.976098e+02
1.000000e-06	2.310687e-06	1.143456e-08	1.650430e+01	7.495540e+02
1.010000e-06	2.435297e-06	1.216622e-08	1.739434e+01	7.981291e+02
1.020000e-06	2.558980e-06	1.284991e-08	1.827776e+01	8.433704e+02
1.030000e-06	2.681649e-06	1.349039e-08	1.915393e+01	8.854437e+02
1.040000e-06	2.803307e-06	1.408962e-08	2.002289e+01	9.245931e+02
1.050000e-06	2.923871e-06	1.464892e-08	2.088403e+01	9.610907e+02
1.060000e-06	3.043308e-06	1.516804e-08	2.173712e+01	9.951978e+02
1.070000e-06	3.161698e-06	1.565103e-08	2.258273e+01	1.027140e+03
1.080000e-06	3.279048e-06	1.610335e-08	2.342091e+01	1.057102e+03
1.090000e-06	3.395172e-06	1.652851e-08	2.425034e+01	1.085228e+03
1.100000e-06	3.509859e-06	1.692876e-08	2.506950e+01	1.111639e+03
1.110000e-06	3.623077e-06	1.730531e-08	2.587817e+01	1.136445e+03
1.120000e-06	3.734885e-06	1.766123e-08	2.667677e+01	1.159756e+03
1.130000e-06	3.845379e-06	1.799766e-08	2.746598e+01	1.181689e+03
1.140000e-06	3.954639e-06	1.831688e-08	2.824638e+01	1.202363e+03
1.150000e-06	4.062648e-06	1.861634e-08	2.901784e+01	1.221896e+03
1.160000e-06	4.169224e-06	1.889568e-08	2.977908e+01	1.240392e+03
1.170000e-06	4.274238e-06	1.915790e-08	3.052915e+01	1.257941e+03
1.180000e-06	4.377668e-06	1.940766e-08	3.126791e+01	1.274609e+03
1.190000e-06	4.479578e-06	1.964623e-08	3.199581e+01	1.290444e+03
1.200000e-06	4.579984e-06	1.987490e-08	3.271297e+01	1.305478e+03
1.210000e-06	4.678708e-06	2.009309e-08	3.341811e+01	1.319739e+03
1.220000e-06	4.775551e-06	2.029807e-08	3.410982e+01	1.333255e+03
1.230000e-06	4.870539e-06	2.048960e-08	3.478829e+01	1.346060e+03
1.240000e-06	4.963846e-06	2.067155e-08	3.545474e+01	1.358195e+03
1.250000e-06	5.055603e-06	2.084523e-08	3.611012e+01	1.369707e+03
1.260000e-06	5.145631e-06	2.101309e-08	3.675316e+01	1.380643e+03
1.270000e-06	5.233653e-06	2.117271e-08	3.738186e+01	1.391045e+03
1.280000e-06	5.319755e-06	2.132357e-08	3.799685e+01	1.400945e+03
1.290000e-06	5.404057e-06	2.146703e-08	3.859898e+01	1.410361e+03
1.300000e-06	5.486398e-06	2.160333e-08	3.918712e+01	1.419302e+03
1.310000e-06	5.566648e-06	2.173329e-08	3.976031e+01	1.427769e+03
1.320000e-06	5.644877e-06	2.185575e-08	4.031907e+01	1.435763e+03
1.330000e-06	5.721031e-06	2.197071e-08	4.086301e+01	1.443289e+03
1.340000e-06	5.794900e-06	2.207949e-08	4.139062e+01	1.450362e+03
1.350000e-06	5.866532e-06	2.218194e-08	4.190226e+01	1.457005e+03
1.360000e-06	5.936115e-06	2.227882e-08	4.239926e+01	1.463255e+03
1.370000e-06	6.003653e-06	2.237040e-08	4.288166e+01	1.469151e+03
1.380000e-06	6.068978e-06	2.245560e-08	4.334825e+01	1.474733e+03
1.390000e-06	6.132074e-06	2.253532e-08	4.379892e+01	1.480038e+03
1.400000e-06	6.193118e-06	2.260954e-08	4.423493e+01	1.485093e+03
1.410000e-06	6.252068e-06	2.268041e-08	4.465599e+01	1.489914e+03
1.420000e-06	6.308772e-06	2.274982e-08	4.506100e+01	1.494505e+03
1.430000e-06	6.363156e-06	2.281774e-08	4.544944e+01	1.498866e+03
1.440000e-06	6.415043e-06	2.288141e-08	4.582005e+01	1.502987e+03
1.450000e-06	6.464331e-06	2.294021e-08	4.617210e+01	1.506861e+03
1.460000e-06	6.511168e-06	2.299523e-08	4.650663e+01	1.510482e+03
1.470000e-06	6.555844e-06	2.304632e-08	4.682573e+01	1.513846e+03
1.480000e-06	6.598190e-06	2.309361e-08	4.712820e+01	1.516957e+03
1.490000e-06	6.637990e-06	2.313614e-08	4.741247e+01	1.519820e+03
1.500000e-06	6.675495e-06	2.317494e-08	4.768036e+01	1.522442e+03
1.510000e-06	6.710775e-06	2.321145e-08	4.793235e+01	1.524834e+03
1.520000e-06	6.743632e-06	2.324418e-08	4.816703e+01	1.527003e+03
1.530000e-06	6.774074e-06	2.327236e-08	4.838446e+01	1.528955e+03
1.540000e-06	6.802258e-06	2.329875e-08	4.858577e+01	1.530696e+03
1.550000e-06	6.827915e-06	2.332362e-08	4.876903e+01	1.532229e+03
1.560000e-06	6.850921e-06	2.334520e-08	4.893335e+01	1.533557e+03
1.570000e-06	6.871602e-06	2.336309e-08	4.908107e+01	1.534685e+03
1.580000e-06	6.889931e-06	2.337630e-08	4.921198e+01	1.535618e+03
1.590000e-06	6.905646e-06	2.338511e-08	4.932423e+01	1.536363e+03
1.600000e-06	6.918785e-06	2.339215e-08	4.941808e+01	1.536929e+03
1.610000e-06	6.929235e-06	2.339920e-08	4.949272e+01	1.537327e+03
1.620000e-06	6.936972e-06	2.340707e-08	4.954798e+01	1.537570e+03
1.630000e-06	6.942288e-06	2.341258e-08	4.958595e+01	1.537667e+03
1.640000e-06	6.945165e-06	2.341285e-08	4.960650e+01	1.537628e+03
1.650000e-06	6.945501e-06	2.341347e-08	4.960890e+01	1.537455e+03
1.660000e-06	6.943486e-06	2.340419e-08	4.959451e+01	1.537146e+03
1.670000e-06	6.939277e-06	2.339163e-08	4.956444e+01	1.536693e+03
1.680000e-06	6.932666e-06	2.338345e-08	4.951722e+01	1.536084e+03
1.690000e-06	6.923727e-06	2.337233e-08	4.945337e+01	1.535306e+03
1.700000e-06	6.912587e-06	2.336126e-08	4.937381e+01	1.534350e+03
1.710000e-06	6.898970e-06	2.335161e-08	4.927655e+01	1.533212e+03
1.720000e-06	6.882995e-06	2.334989e-08	4.916244e+01	1.531902e+03
1.730000e-06	6.865008e-06	2.333472e-08	4.903397e+01	1.530442e+03
1.740000e-06	6.844792e-06	2.320482e-08	4.888957e+01	1.528865e+03
1.750000e-06	6.821569e-06	2.318086e-08	4.872370e+01	1.527214e+03
1.760000e-06	6.795097e-06	2.322943e-08	4.853463e+01	1.525528e+03
1.770000e-06	6.765826e-06	2.317953e-08	4.832555e+01	1.523840e+03
1.780000e-06	6.734253e-06	2.317648e-08	4.810004e+01	1.522162e+03
1.790000e-06	6.700958e-06	2.329836e-08	4.786223e+01	1.520483e+03
1.800000e-06	6.666301e-06	2.313613e-08	4.761468e+01	1.518765e+03
1.810000e-06	6.629646e-06	2.306095e-08	4.735287e+01	1.516947e+03
1.820000e-06	6.590422e-06	2.318243e-08	4.707271e+01	1.514954e+03
1.830000e-06	6.548972e-06	2.297829e-08	4.677665e+01	1.512708e+03
1.840000e-06	6.505298e-06	2.309868e-08	4.646471e+01	1.510144e+03
1.850000e-06	6.459226e-06	2.309625e-08	4.613563e+01	1.507222e+03
1.860000e-06	6.410804e-06	2.294618e-08	4.578978e+01	1.503930e+03
1.870000e-06	6.359920e-06	2.297746e-08	4.542633e+01	1.500292e+03
1.880000e-06	6.306540e-06	2.273354e-08	4.504506e+01	1.496356e+03
1.890000e-06	6.250597e-06	2.276532e-08	4.464548e+01	1.492183e+03
1.900000e-06	6.192211e-06	2.272477e-08	4.422845e+01	1.487836e+03
1.910000e-06	6.131567e-06	2.260037e-08	4.379530e+01	1.483361e+03
1.920000e-06	6.068536e-06	2.268048e-08	4.334509e+01	1.478777e+03
1.930000e-06	6.003296e-06	2.248678e-08	4.287911e+01	1.474075e+03
1.940000e-06	5.935957e-06	2.243211e-08	4.239814e+01	1.469218e+03
1.950000e-06	5.866285e-06	2.232544e-08	4.190050e+01	1.464152e+03
1.960000e-06	5.794228e-06	2.225435e-08	4.138582e+01	1.458819e+03
1.970000e-06	5.719947e-06	2.221755e-08	4.085526e+01	1.453170e+03
1.980000e-06	5.643452e-06	2.204846e-08	4.030889e+01	1.447178e+03
1.990000e-06	5.564590e-06	2.203750e-08	3.974561e+01	1.440838e+03
2.000000e-06	5.483683e-06	2.187877e-08	3.916772e+01	1.434168e+03
2.010000e-06	5.401002e-06	2.179374e-08	3.857717e+01	1.427200e+03
2.020000e-06	5.316471e-06	2.170166e-08	3.797340e+01	1.419964e+03
2.030000e-06	5.229902e-06	2.156320e-08	3.735507e+01	1.412483e+03
2.040000e-06	5.141277e-06	2.145767e-08	3.672206e+01	1.404756e+03
2.050000e-06	5.050992e-06	2.129838e-08	3.607719e+01	1.396763e+03
2.060000e-06	4.959131e-06	2.122166e-08	3.542107e+01	1.388460e+03
2.070000e-06	4.865499e-06	2.106998e-08	3.475228e+01	1.379797e+03
2.080000e-06	4.770025e-06	2.093813e-08	3.407035e+01	1.370721e+03
2.090000e-06	4.672871e-06	2.078215e-08	3.337643e+01	1.361195e+03
2.100000e-06	4.574235e-06	2.062400e-08	3.267191e+01	1.351199e+03
2.110000e-06	4.474023e-06	2.047453e-08	3.195613e+01	1.340731e+03
2.120000e-06	4.372086e-06	2.031324e-08	3.122804e+01	1.329808e+03
2.130000e-06	4.268481e-06	2.016414e-08	3.048803e+01	1.318447e+03
2.140000e-06	4.163358e-06	1.996566e-08	2.973718e+01	1.306661e+03
2.150000e-06	4.056841e-06	1.977171e-08	2.897637e+01	1.294443e+03
2.160000e-06	3.949018e-06	1.956679e-08	2.820624e+01	1.281763e+03
2.170000e-06	3.839762e-06	1.937963e-08	2.742587e+01	1.268571e+03
2.180000e-06	3.728964e-06	1.917687e-08	2.663448e+01	1.254799e+03
2.190000e-06	3.616719e-06	1.896673e-08	2.583275e+01	1.240376e+03
2.200000e-06	3.503129e-06	1.873233e-08	2.502143e+01	1.225239e+03
2.210000e-06	3.388172e-06	1.847750e-08	2.420034e+01	1.209339e+03
2.220000e-06	3.271672e-06	1.821876e-08	2.336822e+01	1.192647e+03
2.230000e-06	3.153723e-06	1.796259e-08	2.252577e+01	1.175149e+03
2.240000e-06	3.034505e-06	1.769970e-08	2.167424e+01	1.156835e+03
2.250000e-06	2.914128e-06	1.740934e-08	2.081444e+01	1.137687e+03
2.260000e-06	2.792736e-06	1.710346e-08	1.994738e+01	1.117667e+03
2.270000e-06	2.670392e-06	1.677531e-08	1.907352e+01	1.096711e+03
2.280000e-06	2.547172e-06	1.643983e-08	1.819342e+01	1.074724e+03
2.290000e-06	2.423015e-06	1.609030e-08	1.730662e+01	1.051585e+03
2.300000e-06	2.297886e-06	1.572605e-08	1.641287e+01	1.027162e+03
2.310000e-06	2.171938e-06	1.533355e-08	1.551328e+01	1.001322e+03
2.320000e-06	2.045231e-06	1.491668e-08	1.460826e+01	9.739370e+02
2.330000e-06	1.917764e-06	1.447324e-08	1.369781e+01	9.448949e+02
2.340000e-06	1.789560e-06	1.400464e-08	1.278210e+01	9.140929e+02
2.350000e-06	1.660744e-06	1.351139e-08	1.186202e+01	8.814322e+02
2.360000e-06	1.531449e-06	1.298754e-08	1.093852e+01	8.468080e+02
2.370000e-06	1.401738e-06	1.242805e-08	1.001205e+01	8.101045e+02
2.380000e-06	1.271626e-06	1.182793e-08	9.082708e+00	7.711966e+02
2.390000e-06	1.141105e-06	1.119600e-08	8.150454e+00	7.299633e+02
2.400000e-06	1.010281e-06	1.052904e-08	7.216024e+00	6.863128e+02
2.410000e-06	8.792127e-07	9.826532e-09	6.279860e+00	6.402130e+02
2.420000e-06	7.478445e-07	9.088435e-09	5.341550e+00	5.917241e+02
2.430000e-06	6.162030e-07	8.315262e-09	4.401288e+00	5.410219e+02
2.440000e-06	4.843268e-07	7.512529e-09	3.459350e+00	4.884035e+02
2.450000e-06	3.523372e-07	6.684370e-09	2.516602e+00	4.342721e+02
2.460000e-06	2.202521e-07	5.839829e-09	1.573171e+00	3.790964e+02
2.470000e-06	8.795927e-08	4.987250e-09	6.282574e-01	3.233526e+02
2.480000e-06	-4.445362e-08	4.130872e-09	-3.175142e-01	2.674556e+02
2.490000e-06	-1.768444e-07	3.276332e-09	-1.263128e+00	2.116949e+02
2.500000e-06	-3.091567e-07	2.427454e-09	-2.208181e+00	1.561871e+02
2.510000e-06	-4.413391e-07	1.580673e-09	-3.152306e+00	1.008579e+02
2.520000e-06	-5.733863e-07	7.299727e-10	-4.095466e+00	4.545883e+01
2.530000e-06	-7.052571e-07	-1.278320e-10	-5.037366e+00	-1.038130e+01
2.540000e-06	-8.368398e-07	-9.978981e-10	-5.977207e+00	-6.707802e+01
2.550000e-06	-9.681490e-07	-1.883286e-09	-6.915096e+00	-1.249996e+02
2.560000e-06	-1.099181e-06	-2.786903e-09	-7.851001e+00	-1.843791e+02
2.570000e-06	-1.229823e-06	-3.710284e-09	-8.784125e+00	-2.452458e+02
2.580000e-06	-1.360062e-06	-4.656029e-09	-9.714372e+00	-3.073897e+02
2.590000e-06	-1.489900e-06	-5.621773e-09	-1.064175e+01	-3.703660e+02
2.600000e-06	-1.619304e-06	-6.593509e-09	-1.156603e+01	-4.335365e+02
2.610000e-06	-1.748235e-06	-7.554213e-09	-1.248693e+01	-4.961421e+02
2.620000e-06	-1.876523e-06	-8.492041e-09	-1.340324e+01	-5.573918e+02
2.630000e-06	-2.004027e-06	-9.396544e-09	-1.431395e+01	-6.165520e+02
2.640000e-06	-2.130729e-06	-1.025954e-08	-1.521893e+01	-6.730209e+02
2.650000e-06	-2.256615e-06	-1.107564e-08	-1.611809e+01	-7.263781e+02
2.660000e-06	-2.381609e-06	-1.184072e-08	-1.701087e+01	-7.764023e+02
2.670000e-06	-2.505636e-06	-1.255610e-08	-1.789674e+01	-8.230587e+02
2.680000e-06	-2.628623e-06	-1.322349e-08	-1.877519e+01	-8.664634e+02
2.690000e-06	-2.750634e-06	-1.384397e-08	-1.964666e+01	-9.068333e+02
2.700000e-06	-2.871746e-06	-1.442207e-08	-2.051172e+01	-9.444343e+02
2.710000e-06	-2.991835e-06	-1.496315e-08	-2.136947e+01	-9.795360e+02
2.720000e-06	-3.110752e-06	-1.546771e-08	-2.221884e+01	-1.012382e+03
2.730000e-06	-3.228477e-06	-1.593849e-08	-2.305970e+01	-1.043172e+03
2.740000e-06	-3.344870e-06	-1.637655e-08	-2.389105e+01	-1.072069e+03
2.750000e-06	-3.459844e-06	-1.678699e-08	-2.471226e+01	-1.099202e+03
2.760000e-06	-3.573416e-06	-1.717651e-08	-2.552346e+01	-1.124682e+03
2.770000e-06	-3.685519e-06	-1.754281e-08	-2.632416e+01	-1.148621e+03
2.780000e-06	-3.796226e-06	-1.788551e-08	-2.711490e+01	-1.171130e+03
2.790000e-06	-3.905658e-06	-1.820971e-08	-2.789653e+01	-1.192329e+03
2.800000e-06	-4.013850e-06	-1.851923e-08	-2.866931e+01	-1.212338e+03
2.810000e-06	-4.120732e-06	-1.881219e-08	-2.943272e+01	-1.231266e+03
2.820000e-06	-4.226238e-06	-1.908817e-08	-3.018630e+01	-1.249212e+03
2.830000e-06	-4.330190e-06	-1.934829e-08	-3.092879e+01	-1.266251e+03
2.840000e-06	-4.432481e-06	-1.959321e-08	-3.165941e+01	-1.282438e+03
2.850000e-06	-4.533149e-06	-1.982639e-08	-3.237844e+01	-1.297812e+03
2.860000e-06	-4.632227e-06	-2.005092e-08	-3.308612e+01	-1.312402e+03
2.870000e-06	-4.729768e-06	-2.026680e-08	-3.378282e+01	-1.326234e+03
2.880000e-06	-4.825640e-06	-2.047114e-08	-3.446759e+01	-1.339339e+03
2.890000e-06	-4.919676e-06	-2.066275e-08	-3.513925e+01	-1.351755e+03
2.900000e-06	-5.011897e-06	-2.084298e-08	-3.579795e+01	-1.363529e+03
2.910000e-06	-5.102400e-06	-2.101346e-08	-3.644437e+01	-1.374706e+03
2.920000e-06	-5.191116e-06	-2.117534e-08	-3.707804e+01	-1.385333e+03
2.930000e-06	-5.277846e-06	-2.133057e-08	-3.769751e+01	-1.395445e+03
2.940000e-06	-5.362575e-06	-2.147880e-08	-3.830270e+01	-1.405067e+03
