# Temperatura_=_57.57
# Concentracion g/m^3_=_28200.0
# C_Vs_to_Am_M_A/Vsm_=_65563218390.804596
# pendiente_HvsI_1/m_=_3716.3
# ordenada_HvsI_A/m_=_1297.0
# frecuencia_Hz_=_302273.4376691254

Tiempo_(s)	Campo_(V.s)	Magnetizacion_(V.s)	Campo_(kA/m)	Magnetizacion_(A/m)
0.000000e+00	-6.918216e-06	-2.749397e-08	-4.952091e+01	-1.799615e+03
1.000000e-08	-6.914820e-06	-2.748912e-08	-4.949661e+01	-1.799137e+03
2.000000e-08	-6.909153e-06	-2.747825e-08	-4.945604e+01	-1.798461e+03
3.000000e-08	-6.901322e-06	-2.746756e-08	-4.939999e+01	-1.797592e+03
4.000000e-08	-6.891109e-06	-2.745379e-08	-4.932688e+01	-1.796541e+03
5.000000e-08	-6.878341e-06	-2.743578e-08	-4.923549e+01	-1.795315e+03
6.000000e-08	-6.862993e-06	-2.741150e-08	-4.912562e+01	-1.793927e+03
7.000000e-08	-6.845285e-06	-2.738154e-08	-4.899887e+01	-1.792385e+03
8.000000e-08	-6.825591e-06	-2.735678e-08	-4.885790e+01	-1.790702e+03
9.000000e-08	-6.803646e-06	-2.738190e-08	-4.870082e+01	-1.788895e+03
1.000000e-07	-6.778931e-06	-2.734899e-08	-4.852390e+01	-1.786983e+03
1.100000e-07	-6.751416e-06	-2.727793e-08	-4.832695e+01	-1.784986e+03
1.200000e-07	-6.721472e-06	-2.723989e-08	-4.811261e+01	-1.782921e+03
1.300000e-07	-6.689328e-06	-2.720150e-08	-4.788252e+01	-1.780798e+03
1.400000e-07	-6.655059e-06	-2.710647e-08	-4.763723e+01	-1.778609e+03
1.500000e-07	-6.619020e-06	-2.707761e-08	-4.737926e+01	-1.776330e+03
1.600000e-07	-6.581118e-06	-2.713800e-08	-4.710796e+01	-1.773917e+03
1.700000e-07	-6.541031e-06	-2.699249e-08	-4.682101e+01	-1.771313e+03
1.800000e-07	-6.498634e-06	-2.696722e-08	-4.651753e+01	-1.768455e+03
1.900000e-07	-6.453762e-06	-2.695419e-08	-4.619633e+01	-1.765285e+03
2.000000e-07	-6.406580e-06	-2.682331e-08	-4.585860e+01	-1.761763e+03
2.100000e-07	-6.356886e-06	-2.680342e-08	-4.550289e+01	-1.757874e+03
2.200000e-07	-6.304394e-06	-2.672393e-08	-4.512715e+01	-1.753631e+03
2.300000e-07	-6.249472e-06	-2.667048e-08	-4.473401e+01	-1.749068e+03
2.400000e-07	-6.192226e-06	-2.661658e-08	-4.432424e+01	-1.744236e+03
2.500000e-07	-6.132568e-06	-2.651642e-08	-4.389721e+01	-1.739188e+03
2.600000e-07	-6.070659e-06	-2.645072e-08	-4.345406e+01	-1.733962e+03
2.700000e-07	-6.006500e-06	-2.635857e-08	-4.299481e+01	-1.728577e+03
2.800000e-07	-5.940080e-06	-2.625878e-08	-4.251937e+01	-1.723024e+03
2.900000e-07	-5.871420e-06	-2.616629e-08	-4.202790e+01	-1.717269e+03
3.000000e-07	-5.800609e-06	-2.608532e-08	-4.152103e+01	-1.711264e+03
3.100000e-07	-5.727602e-06	-2.600606e-08	-4.099845e+01	-1.704958e+03
3.200000e-07	-5.652267e-06	-2.589217e-08	-4.045919e+01	-1.698308e+03
3.300000e-07	-5.574594e-06	-2.579845e-08	-3.990321e+01	-1.691289e+03
3.400000e-07	-5.494574e-06	-2.566101e-08	-3.933042e+01	-1.683898e+03
3.500000e-07	-5.412514e-06	-2.554285e-08	-3.874303e+01	-1.676150e+03
3.600000e-07	-5.328736e-06	-2.544007e-08	-3.814335e+01	-1.668067e+03
3.700000e-07	-5.243232e-06	-2.530386e-08	-3.753130e+01	-1.659670e+03
3.800000e-07	-5.156072e-06	-2.517859e-08	-3.690741e+01	-1.650968e+03
3.900000e-07	-5.067087e-06	-2.503321e-08	-3.627045e+01	-1.641948e+03
4.000000e-07	-4.976147e-06	-2.488252e-08	-3.561950e+01	-1.632581e+03
4.100000e-07	-4.883471e-06	-2.472169e-08	-3.495612e+01	-1.622822e+03
4.200000e-07	-4.789206e-06	-2.457823e-08	-3.428136e+01	-1.612623e+03
4.300000e-07	-4.693261e-06	-2.442024e-08	-3.359458e+01	-1.601943e+03
4.400000e-07	-4.595560e-06	-2.424234e-08	-3.289523e+01	-1.590759e+03
4.500000e-07	-4.496179e-06	-2.406281e-08	-3.218386e+01	-1.579065e+03
4.600000e-07	-4.395118e-06	-2.387346e-08	-3.146046e+01	-1.566869e+03
4.700000e-07	-4.292536e-06	-2.368280e-08	-3.072617e+01	-1.554186e+03
4.800000e-07	-4.188533e-06	-2.348327e-08	-2.998172e+01	-1.541025e+03
4.900000e-07	-4.082985e-06	-2.328325e-08	-2.922620e+01	-1.527377e+03
5.000000e-07	-3.975911e-06	-2.306291e-08	-2.845976e+01	-1.513206e+03
5.100000e-07	-3.867405e-06	-2.282936e-08	-2.768307e+01	-1.498457e+03
5.200000e-07	-3.757555e-06	-2.258631e-08	-2.689675e+01	-1.483052e+03
5.300000e-07	-3.646438e-06	-2.233552e-08	-2.610138e+01	-1.466915e+03
5.400000e-07	-3.533929e-06	-2.207289e-08	-2.529603e+01	-1.449974e+03
5.500000e-07	-3.419954e-06	-2.179647e-08	-2.448019e+01	-1.432178e+03
5.600000e-07	-3.304478e-06	-2.151446e-08	-2.365361e+01	-1.413500e+03
5.700000e-07	-3.187519e-06	-2.121623e-08	-2.281641e+01	-1.393928e+03
5.800000e-07	-3.069311e-06	-2.090578e-08	-2.197028e+01	-1.373458e+03
5.900000e-07	-2.949996e-06	-2.057983e-08	-2.111621e+01	-1.352074e+03
6.000000e-07	-2.829599e-06	-2.024058e-08	-2.025440e+01	-1.329734e+03
6.100000e-07	-2.708143e-06	-1.988136e-08	-1.938502e+01	-1.306358e+03
6.200000e-07	-2.585693e-06	-1.950127e-08	-1.850851e+01	-1.281830e+03
6.300000e-07	-2.462240e-06	-1.910143e-08	-1.762483e+01	-1.255999e+03
6.400000e-07	-2.337784e-06	-1.867911e-08	-1.673397e+01	-1.228704e+03
6.500000e-07	-2.212538e-06	-1.823544e-08	-1.583745e+01	-1.199782e+03
6.600000e-07	-2.086620e-06	-1.776628e-08	-1.493612e+01	-1.169086e+03
6.700000e-07	-1.960020e-06	-1.727003e-08	-1.402991e+01	-1.136490e+03
6.800000e-07	-1.832744e-06	-1.674445e-08	-1.311887e+01	-1.101883e+03
6.900000e-07	-1.704825e-06	-1.618713e-08	-1.220322e+01	-1.065157e+03
7.000000e-07	-1.576251e-06	-1.559169e-08	-1.128288e+01	-1.026185e+03
7.100000e-07	-1.447080e-06	-1.495745e-08	-1.035827e+01	-9.848106e+02
7.200000e-07	-1.317491e-06	-1.428127e-08	-9.430666e+00	-9.408400e+02
7.300000e-07	-1.187553e-06	-1.356318e-08	-8.500559e+00	-8.940595e+02
7.400000e-07	-1.057195e-06	-1.280033e-08	-7.567454e+00	-8.442650e+02
7.500000e-07	-9.264408e-07	-1.198869e-08	-6.631507e+00	-7.913092e+02
7.600000e-07	-7.953805e-07	-1.113289e-08	-5.693371e+00	-7.351515e+02
7.700000e-07	-6.640716e-07	-1.023109e-08	-4.753456e+00	-6.759006e+02
7.800000e-07	-5.325521e-07	-9.286534e-09	-3.812033e+00	-6.138360e+02
7.900000e-07	-4.008265e-07	-8.304638e-09	-2.869135e+00	-5.493981e+02
8.000000e-07	-2.688980e-07	-7.295407e-09	-1.924785e+00	-4.831440e+02
8.100000e-07	-1.368011e-07	-6.267894e-09	-9.792289e-01	-4.156739e+02
8.200000e-07	-4.652961e-09	-5.228967e-09	-3.330611e-02	-3.475397e+02
8.300000e-07	1.275438e-07	-4.186615e-09	9.129642e-01	-2.791538e+02
8.400000e-07	2.597228e-07	-3.144068e-09	1.859108e+00	-2.107196e+02
8.500000e-07	3.917981e-07	-2.100389e-09	2.804509e+00	-1.421990e+02
8.600000e-07	5.237514e-07	-1.052220e-09	3.749037e+00	-7.332877e+01
8.700000e-07	6.555459e-07	5.560268e-12	4.692428e+00	-3.685713e+00
8.800000e-07	7.871285e-07	1.081778e-09	5.634303e+00	6.721007e+01
8.900000e-07	9.184192e-07	2.182239e-09	6.574088e+00	1.397715e+02
9.000000e-07	1.049363e-06	3.315059e-09	7.511392e+00	2.142252e+02
9.100000e-07	1.179906e-06	4.478557e-09	8.445824e+00	2.905209e+02
9.200000e-07	1.310020e-06	5.664959e-09	9.377187e+00	3.682864e+02
9.300000e-07	1.439672e-06	6.864729e-09	1.030524e+01	4.468404e+02
9.400000e-07	1.568820e-06	8.063619e-09	1.122969e+01	5.252582e+02
9.500000e-07	1.697425e-06	9.244044e-09	1.215025e+01	6.024801e+02
9.600000e-07	1.825349e-06	1.038370e-08	1.306594e+01	6.774398e+02
9.700000e-07	1.952519e-06	1.146876e-08	1.397622e+01	7.491907e+02
9.800000e-07	2.078939e-06	1.249000e-08	1.488114e+01	8.170057e+02
9.900000e-07	2.204622e-06	1.344533e-08	1.578079e+01	8.804365e+02
1.000000e-06	2.329655e-06	1.433314e-08	1.667578e+01	9.393248e+02
1.010000e-06	2.453925e-06	1.515809e-08	1.756531e+01	9.937684e+02
1.020000e-06	2.577193e-06	1.592344e-08	1.844767e+01	1.044055e+03
1.030000e-06	2.699426e-06	1.663151e-08	1.932262e+01	1.090581e+03
1.040000e-06	2.820662e-06	1.729029e-08	2.019043e+01	1.133770e+03
1.050000e-06	2.940811e-06	1.790427e-08	2.105046e+01	1.174009e+03
1.060000e-06	3.059867e-06	1.847577e-08	2.190267e+01	1.211616e+03
1.070000e-06	3.177812e-06	1.900686e-08	2.274693e+01	1.246826e+03
1.080000e-06	3.294563e-06	1.950424e-08	2.358263e+01	1.279805e+03
1.090000e-06	3.410026e-06	1.997044e-08	2.440913e+01	1.310679e+03
1.100000e-06	3.524136e-06	2.040712e-08	2.522593e+01	1.339565e+03
1.110000e-06	3.636877e-06	2.081553e-08	2.603294e+01	1.366588e+03
1.120000e-06	3.748266e-06	2.120056e-08	2.683026e+01	1.391898e+03
1.130000e-06	3.858365e-06	2.156588e-08	2.761836e+01	1.415662e+03
1.140000e-06	3.967265e-06	2.191171e-08	2.839787e+01	1.438052e+03
1.150000e-06	4.074837e-06	2.223683e-08	2.916788e+01	1.459227e+03
1.160000e-06	4.180822e-06	2.254395e-08	2.992652e+01	1.479317e+03
1.170000e-06	4.285259e-06	2.283354e-08	3.067408e+01	1.498410e+03
1.180000e-06	4.388197e-06	2.310387e-08	3.141092e+01	1.516560e+03
1.190000e-06	4.489627e-06	2.335844e-08	3.213696e+01	1.533790e+03
1.200000e-06	4.589499e-06	2.360091e-08	3.285185e+01	1.550112e+03
1.210000e-06	4.687665e-06	2.383387e-08	3.355453e+01	1.565541e+03
1.220000e-06	4.784054e-06	2.405705e-08	3.424448e+01	1.580110e+03
1.230000e-06	4.878664e-06	2.426715e-08	3.492171e+01	1.593873e+03
1.240000e-06	4.971572e-06	2.446506e-08	3.558674e+01	1.606899e+03
1.250000e-06	5.062716e-06	2.465401e-08	3.623916e+01	1.619269e+03
1.260000e-06	5.151970e-06	2.483414e-08	3.687804e+01	1.631056e+03
1.270000e-06	5.239310e-06	2.500278e-08	3.750323e+01	1.642318e+03
1.280000e-06	5.324820e-06	2.516257e-08	3.811531e+01	1.653088e+03
1.290000e-06	5.408530e-06	2.531733e-08	3.871451e+01	1.663376e+03
1.300000e-06	5.490333e-06	2.546631e-08	3.930006e+01	1.673171e+03
1.310000e-06	5.570084e-06	2.560879e-08	3.987093e+01	1.682456e+03
1.320000e-06	5.647763e-06	2.574396e-08	4.042695e+01	1.691216e+03
1.330000e-06	5.723269e-06	2.587272e-08	4.096743e+01	1.699450e+03
1.340000e-06	5.796490e-06	2.599272e-08	4.149154e+01	1.707175e+03
1.350000e-06	5.867576e-06	2.610434e-08	4.200038e+01	1.714424e+03
1.360000e-06	5.936642e-06	2.621057e-08	4.249476e+01	1.721243e+03
1.370000e-06	6.003594e-06	2.631154e-08	4.297401e+01	1.727683e+03
1.380000e-06	6.068307e-06	2.640447e-08	4.343722e+01	1.733789e+03
1.390000e-06	6.130893e-06	2.649001e-08	4.388522e+01	1.739593e+03
1.400000e-06	6.191469e-06	2.656915e-08	4.431883e+01	1.745115e+03
1.410000e-06	6.249860e-06	2.664488e-08	4.473679e+01	1.750364e+03
1.420000e-06	6.305953e-06	2.672025e-08	4.513831e+01	1.755340e+03
1.430000e-06	6.359739e-06	2.679331e-08	4.552331e+01	1.760040e+03
1.440000e-06	6.410970e-06	2.686269e-08	4.589003e+01	1.764465e+03
1.450000e-06	6.459580e-06	2.692819e-08	4.623798e+01	1.768621e+03
1.460000e-06	6.505851e-06	2.698889e-08	4.656919e+01	1.772517e+03
1.470000e-06	6.549972e-06	2.704366e-08	4.688501e+01	1.776165e+03
1.480000e-06	6.591749e-06	2.709441e-08	4.718405e+01	1.779574e+03
1.490000e-06	6.631086e-06	2.714235e-08	4.746563e+01	1.782747e+03
1.500000e-06	6.668225e-06	2.718759e-08	4.773147e+01	1.785679e+03
1.510000e-06	6.703013e-06	2.722824e-08	4.798048e+01	1.788361e+03
1.520000e-06	6.735276e-06	2.726364e-08	4.821142e+01	1.790781e+03
1.530000e-06	6.765243e-06	2.729386e-08	4.842593e+01	1.792930e+03
1.540000e-06	6.792859e-06	2.732090e-08	4.862360e+01	1.794807e+03
1.550000e-06	6.817921e-06	2.734618e-08	4.880300e+01	1.796421e+03
1.560000e-06	6.840507e-06	2.736891e-08	4.896467e+01	1.797791e+03
1.570000e-06	6.860753e-06	2.739029e-08	4.910960e+01	1.798941e+03
1.580000e-06	6.878546e-06	2.740686e-08	4.923696e+01	1.799900e+03
1.590000e-06	6.893753e-06	2.741847e-08	4.934581e+01	1.800690e+03
1.600000e-06	6.906340e-06	2.742635e-08	4.943590e+01	1.801327e+03
1.610000e-06	6.916146e-06	2.743092e-08	4.950610e+01	1.801816e+03
1.620000e-06	6.923277e-06	2.743594e-08	4.955714e+01	1.802152e+03
1.630000e-06	6.928091e-06	2.744113e-08	4.959160e+01	1.802322e+03
1.640000e-06	6.930508e-06	2.744315e-08	4.960890e+01	1.802313e+03
1.650000e-06	6.930399e-06	2.744085e-08	4.960813e+01	1.802112e+03
1.660000e-06	6.927998e-06	2.742976e-08	4.959093e+01	1.801712e+03
1.670000e-06	6.923324e-06	2.742167e-08	4.955748e+01	1.801113e+03
1.680000e-06	6.916228e-06	2.741180e-08	4.950668e+01	1.800319e+03
1.690000e-06	6.906883e-06	2.739722e-08	4.943979e+01	1.799337e+03
1.700000e-06	6.895304e-06	2.738139e-08	4.935691e+01	1.798179e+03
1.710000e-06	6.881233e-06	2.736695e-08	4.925619e+01	1.796853e+03
1.720000e-06	6.864870e-06	2.735808e-08	4.913906e+01	1.795369e+03
1.730000e-06	6.846516e-06	2.731375e-08	4.900768e+01	1.793740e+03
1.740000e-06	6.825783e-06	2.722068e-08	4.885927e+01	1.791979e+03
1.750000e-06	6.801919e-06	2.722089e-08	4.868846e+01	1.790105e+03
1.760000e-06	6.774865e-06	2.722491e-08	4.849480e+01	1.788139e+03
1.770000e-06	6.745136e-06	2.717522e-08	4.828200e+01	1.786099e+03
1.780000e-06	6.713291e-06	2.720001e-08	4.805405e+01	1.783998e+03
1.790000e-06	6.679852e-06	2.720251e-08	4.781469e+01	1.781836e+03
1.800000e-06	6.644993e-06	2.705246e-08	4.756517e+01	1.779597e+03
1.810000e-06	6.607905e-06	2.709711e-08	4.729969e+01	1.777242e+03
1.820000e-06	6.568262e-06	2.708626e-08	4.701593e+01	1.774720e+03
1.830000e-06	6.526536e-06	2.699486e-08	4.671725e+01	1.771969e+03
1.840000e-06	6.482533e-06	2.707796e-08	4.640227e+01	1.768927e+03
1.850000e-06	6.436214e-06	2.691346e-08	4.607072e+01	1.765546e+03
1.860000e-06	6.387518e-06	2.686534e-08	4.572215e+01	1.761801e+03
1.870000e-06	6.336298e-06	2.683304e-08	4.535552e+01	1.757694e+03
1.880000e-06	6.282611e-06	2.668500e-08	4.497123e+01	1.753250e+03
1.890000e-06	6.226367e-06	2.671756e-08	4.456863e+01	1.748518e+03
1.900000e-06	6.167787e-06	2.659655e-08	4.414931e+01	1.743548e+03
1.910000e-06	6.106847e-06	2.652339e-08	4.371310e+01	1.738389e+03
1.920000e-06	6.043460e-06	2.648217e-08	4.325937e+01	1.733065e+03
1.930000e-06	5.977990e-06	2.635315e-08	4.279074e+01	1.727580e+03
1.940000e-06	5.910452e-06	2.630959e-08	4.230729e+01	1.721909e+03
1.950000e-06	5.840574e-06	2.615570e-08	4.180710e+01	1.716009e+03
1.960000e-06	5.768241e-06	2.609395e-08	4.128934e+01	1.709826e+03
1.970000e-06	5.693741e-06	2.598256e-08	4.075607e+01	1.703315e+03
1.980000e-06	5.616977e-06	2.586954e-08	4.020659e+01	1.696442e+03
1.990000e-06	5.537791e-06	2.580758e-08	3.963977e+01	1.689196e+03
2.000000e-06	5.456702e-06	2.565579e-08	3.905933e+01	1.681585e+03
2.010000e-06	5.373857e-06	2.556175e-08	3.846632e+01	1.673630e+03
2.020000e-06	5.289084e-06	2.540043e-08	3.785952e+01	1.665355e+03
2.030000e-06	5.202281e-06	2.527538e-08	3.723817e+01	1.656772e+03
2.040000e-06	5.113572e-06	2.515567e-08	3.660319e+01	1.647880e+03
2.050000e-06	5.023216e-06	2.501915e-08	3.595642e+01	1.638653e+03
2.060000e-06	4.931186e-06	2.488256e-08	3.529766e+01	1.629054e+03
2.070000e-06	4.837366e-06	2.470708e-08	3.462609e+01	1.619032e+03
2.080000e-06	4.741753e-06	2.455583e-08	3.394169e+01	1.608545e+03
2.090000e-06	4.644517e-06	2.437563e-08	3.324567e+01	1.597561e+03
2.100000e-06	4.545816e-06	2.421142e-08	3.253917e+01	1.586066e+03
2.110000e-06	4.445522e-06	2.403517e-08	3.182126e+01	1.574065e+03
2.120000e-06	4.343513e-06	2.385045e-08	3.109107e+01	1.561572e+03
2.130000e-06	4.239868e-06	2.364631e-08	3.034917e+01	1.548598e+03
2.140000e-06	4.134698e-06	2.343152e-08	2.959636e+01	1.535143e+03
2.150000e-06	4.028146e-06	2.322499e-08	2.883366e+01	1.521183e+03
2.160000e-06	3.920234e-06	2.300724e-08	2.806122e+01	1.506669e+03
2.170000e-06	3.810867e-06	2.278567e-08	2.727837e+01	1.491531e+03
2.180000e-06	3.700095e-06	2.254387e-08	2.648545e+01	1.475690e+03
2.190000e-06	3.587874e-06	2.229643e-08	2.568217e+01	1.459072e+03
2.200000e-06	3.474266e-06	2.202613e-08	2.486896e+01	1.441616e+03
2.210000e-06	3.359307e-06	2.174965e-08	2.404608e+01	1.423286e+03
2.220000e-06	3.242827e-06	2.146266e-08	2.321231e+01	1.404065e+03
2.230000e-06	3.124963e-06	2.116253e-08	2.236863e+01	1.383949e+03
2.240000e-06	3.005853e-06	2.084030e-08	2.151604e+01	1.362927e+03
2.250000e-06	2.885524e-06	2.050459e-08	2.065472e+01	1.340969e+03
2.260000e-06	2.764160e-06	2.015633e-08	1.978599e+01	1.318012e+03
2.270000e-06	2.641882e-06	1.978709e-08	1.891072e+01	1.293952e+03
2.280000e-06	2.518658e-06	1.940207e-08	1.802868e+01	1.268652e+03
2.290000e-06	2.394472e-06	1.899781e-08	1.713974e+01	1.241952e+03
2.300000e-06	2.269403e-06	1.857268e-08	1.624449e+01	1.213687e+03
2.310000e-06	2.143613e-06	1.811681e-08	1.534408e+01	1.183704e+03
2.320000e-06	2.017127e-06	1.763544e-08	1.443869e+01	1.151867e+03
2.330000e-06	1.889915e-06	1.712276e-08	1.352810e+01	1.118063e+03
2.340000e-06	1.761955e-06	1.657679e-08	1.261216e+01	1.082182e+03
2.350000e-06	1.633287e-06	1.599621e-08	1.169114e+01	1.044109e+03
2.360000e-06	1.504085e-06	1.538214e-08	1.076631e+01	1.003700e+03
2.370000e-06	1.374525e-06	1.472849e-08	9.838915e+00	9.607732e+02
2.380000e-06	1.244663e-06	1.403117e-08	8.909353e+00	9.151220e+02
2.390000e-06	1.114443e-06	1.329003e-08	7.977236e+00	8.665330e+02
2.400000e-06	9.838625e-07	1.250029e-08	7.042534e+00	8.148306e+02
2.410000e-06	8.529185e-07	1.166378e-08	6.105231e+00	7.599265e+02
2.420000e-06	7.216723e-07	1.078064e-08	5.165764e+00	7.018667e+02
2.430000e-06	5.902114e-07	9.853923e-09	4.224761e+00	6.408629e+02
2.440000e-06	4.585206e-07	8.886551e-09	3.282112e+00	5.772956e+02
2.450000e-06	3.266774e-07	7.884183e-09	2.338372e+00	5.116834e+02
2.460000e-06	1.947008e-07	6.858394e-09	1.393678e+00	4.446201e+02
2.470000e-06	6.256853e-08	5.818269e-09	4.478685e-01	3.766876e+02
2.480000e-06	-6.959983e-08	4.772314e-09	-4.981989e-01	3.083632e+02
2.490000e-06	-2.017331e-07	3.725317e-09	-1.444015e+00	2.399386e+02
2.500000e-06	-3.338339e-07	2.676581e-09	-2.389599e+00	1.714714e+02
2.510000e-06	-4.658603e-07	1.623602e-09	-3.334650e+00	1.027817e+02
2.520000e-06	-5.977011e-07	5.613286e-10	-4.278373e+00	3.349863e+01
2.530000e-06	-7.293577e-07	-5.145365e-10	-5.220777e+00	-3.684964e+01
2.540000e-06	-8.607745e-07	-1.609331e-09	-6.161464e+00	-1.087173e+02
2.550000e-06	-9.918586e-07	-2.729172e-09	-7.099771e+00	-1.824171e+02
2.560000e-06	-1.122615e-06	-3.877241e-09	-8.035730e+00	-2.580158e+02
2.570000e-06	-1.252929e-06	-5.054095e-09	-8.968525e+00	-3.352693e+02
2.580000e-06	-1.382773e-06	-6.253136e-09	-9.897954e+00	-4.136128e+02
2.590000e-06	-1.512262e-06	-7.461169e-09	-1.082484e+01	-4.922061e+02
2.600000e-06	-1.641302e-06	-8.658837e-09	-1.174852e+01	-5.700280e+02
2.610000e-06	-1.769763e-06	-9.825653e-09	-1.266805e+01	-6.459989e+02
2.620000e-06	-1.897558e-06	-1.094559e-08	-1.358281e+01	-7.191115e+02
2.630000e-06	-2.024604e-06	-1.200751e-08	-1.449221e+01	-7.885427e+02
2.640000e-06	-2.150885e-06	-1.300434e-08	-1.539614e+01	-8.537309e+02
2.650000e-06	-2.276298e-06	-1.393128e-08	-1.629385e+01	-9.144055e+02
2.660000e-06	-2.400802e-06	-1.479173e-08	-1.718505e+01	-9.705701e+02
2.670000e-06	-2.524333e-06	-1.558982e-08	-1.806929e+01	-1.022447e+03
2.680000e-06	-2.646912e-06	-1.632836e-08	-1.894672e+01	-1.070400e+03
2.690000e-06	-2.768571e-06	-1.701312e-08	-1.981756e+01	-1.114851e+03
2.700000e-06	-2.889197e-06	-1.764886e-08	-2.068101e+01	-1.156207e+03
2.710000e-06	-3.008697e-06	-1.824159e-08	-2.153639e+01	-1.194816e+03
2.720000e-06	-3.127083e-06	-1.879654e-08	-2.238381e+01	-1.230945e+03
2.730000e-06	-3.244343e-06	-1.931263e-08	-2.322316e+01	-1.264784e+03
2.740000e-06	-3.360272e-06	-1.979307e-08	-2.405298e+01	-1.296472e+03
2.750000e-06	-3.474704e-06	-2.024339e-08	-2.487210e+01	-1.326125e+03
2.760000e-06	-3.587692e-06	-2.066615e-08	-2.568087e+01	-1.353864e+03
2.770000e-06	-3.699307e-06	-2.106414e-08	-2.647981e+01	-1.379828e+03
2.780000e-06	-3.809568e-06	-2.143826e-08	-2.726907e+01	-1.404179e+03
2.790000e-06	-3.918557e-06	-2.179151e-08	-2.804921e+01	-1.427089e+03
2.800000e-06	-4.026289e-06	-2.212547e-08	-2.882037e+01	-1.448725e+03
2.810000e-06	-4.132668e-06	-2.244002e-08	-2.958183e+01	-1.469228e+03
2.820000e-06	-4.237648e-06	-2.273782e-08	-3.033328e+01	-1.488705e+03
2.830000e-06	-4.341137e-06	-2.302079e-08	-3.107406e+01	-1.507222e+03
2.840000e-06	-4.442966e-06	-2.328804e-08	-3.180296e+01	-1.524812e+03
2.850000e-06	-4.543128e-06	-2.354145e-08	-3.251992e+01	-1.541489e+03
2.860000e-06	-4.641691e-06	-2.378271e-08	-3.322544e+01	-1.557267e+03
2.870000e-06	-4.738730e-06	-2.401315e-08	-3.392006e+01	-1.572170e+03
2.880000e-06	-4.834103e-06	-2.423358e-08	-3.460274e+01	-1.586242e+03
2.890000e-06	-4.927648e-06	-2.444131e-08	-3.527234e+01	-1.599549e+03
2.900000e-06	-5.019394e-06	-2.463614e-08	-3.592906e+01	-1.612167e+03
2.910000e-06	-5.109404e-06	-2.481944e-08	-3.657335e+01	-1.624175e+03
2.920000e-06	-5.197598e-06	-2.499495e-08	-3.720465e+01	-1.635638e+03
2.930000e-06	-5.283760e-06	-2.516467e-08	-3.782140e+01	-1.646600e+03
2.940000e-06	-5.367947e-06	-2.532486e-08	-3.842402e+01	-1.657078e+03
