# Temperatura_=_84.94
# Concentracion g/m^3_=_28200.0
# C_Vs_to_Am_M_A/Vsm_=_65563218390.804596
# pendiente_HvsI_1/m_=_3716.3
# ordenada_HvsI_A/m_=_1297.0
# frecuencia_Hz_=_302271.0851621259

Tiempo_(s)	Campo_(V.s)	Magnetizacion_(V.s)	Campo_(kA/m)	Magnetizacion_(A/m)
0.000000e+00	-6.926278e-06	-3.093630e-08	-4.951977e+01	-2.025675e+03
1.000000e-08	-6.923099e-06	-3.092879e-08	-4.949705e+01	-2.025087e+03
2.000000e-08	-6.917600e-06	-3.091435e-08	-4.945773e+01	-2.024272e+03
3.000000e-08	-6.909960e-06	-3.089970e-08	-4.940311e+01	-2.023249e+03
4.000000e-08	-6.899965e-06	-3.088264e-08	-4.933165e+01	-2.022038e+03
5.000000e-08	-6.887403e-06	-3.086163e-08	-4.924183e+01	-2.020652e+03
6.000000e-08	-6.872288e-06	-3.083673e-08	-4.913377e+01	-2.019099e+03
7.000000e-08	-6.854870e-06	-3.080560e-08	-4.900924e+01	-2.017378e+03
8.000000e-08	-6.835437e-06	-3.077496e-08	-4.887030e+01	-2.015488e+03
9.000000e-08	-6.813730e-06	-3.078382e-08	-4.871511e+01	-2.013429e+03
1.000000e-07	-6.789345e-06	-3.076519e-08	-4.854077e+01	-2.011208e+03
1.100000e-07	-6.762170e-06	-3.069524e-08	-4.834648e+01	-2.008841e+03
1.200000e-07	-6.732474e-06	-3.064005e-08	-4.813417e+01	-2.006349e+03
1.300000e-07	-6.700516e-06	-3.059770e-08	-4.790568e+01	-2.003751e+03
1.400000e-07	-6.666400e-06	-3.050284e-08	-4.766177e+01	-2.001054e+03
1.500000e-07	-6.630485e-06	-3.043464e-08	-4.740499e+01	-1.998247e+03
1.600000e-07	-6.592763e-06	-3.048527e-08	-4.713530e+01	-1.995298e+03
1.700000e-07	-6.552847e-06	-3.037698e-08	-4.684991e+01	-1.992150e+03
1.800000e-07	-6.510627e-06	-3.029148e-08	-4.654806e+01	-1.988738e+03
1.900000e-07	-6.465972e-06	-3.029015e-08	-4.622880e+01	-1.984994e+03
2.000000e-07	-6.418886e-06	-3.016026e-08	-4.589215e+01	-1.980867e+03
2.100000e-07	-6.369271e-06	-3.008377e-08	-4.553743e+01	-1.976330e+03
2.200000e-07	-6.316963e-06	-3.003596e-08	-4.516344e+01	-1.971391e+03
2.300000e-07	-6.262143e-06	-2.997797e-08	-4.477151e+01	-1.966084e+03
2.400000e-07	-6.204992e-06	-2.989756e-08	-4.436291e+01	-1.960464e+03
2.500000e-07	-6.145506e-06	-2.978727e-08	-4.393761e+01	-1.954591e+03
2.600000e-07	-6.083734e-06	-2.970516e-08	-4.349597e+01	-1.948508e+03
2.700000e-07	-6.019715e-06	-2.959493e-08	-4.303826e+01	-1.942237e+03
2.800000e-07	-5.953431e-06	-2.948008e-08	-4.256435e+01	-1.935765e+03
2.900000e-07	-5.884947e-06	-2.939074e-08	-4.207473e+01	-1.929049e+03
3.000000e-07	-5.814233e-06	-2.928399e-08	-4.156916e+01	-1.922031e+03
3.100000e-07	-5.741257e-06	-2.917724e-08	-4.104741e+01	-1.914649e+03
3.200000e-07	-5.665979e-06	-2.905027e-08	-4.050921e+01	-1.906853e+03
3.300000e-07	-5.588373e-06	-2.892557e-08	-3.995436e+01	-1.898620e+03
3.400000e-07	-5.508536e-06	-2.878775e-08	-3.938356e+01	-1.889957e+03
3.500000e-07	-5.426662e-06	-2.865451e-08	-3.879819e+01	-1.880893e+03
3.600000e-07	-5.342993e-06	-2.852333e-08	-3.820000e+01	-1.871468e+03
3.700000e-07	-5.257647e-06	-2.836447e-08	-3.758981e+01	-1.861717e+03
3.800000e-07	-5.170548e-06	-2.821441e-08	-3.696710e+01	-1.851654e+03
3.900000e-07	-5.081607e-06	-2.805237e-08	-3.633121e+01	-1.841263e+03
4.000000e-07	-4.990770e-06	-2.788138e-08	-3.568176e+01	-1.830501e+03
4.100000e-07	-4.898138e-06	-2.770492e-08	-3.501948e+01	-1.819304e+03
4.200000e-07	-4.803899e-06	-2.753177e-08	-3.434572e+01	-1.807602e+03
4.300000e-07	-4.707975e-06	-2.734920e-08	-3.365990e+01	-1.795337e+03
4.400000e-07	-4.610328e-06	-2.714810e-08	-3.296177e+01	-1.782477e+03
4.500000e-07	-4.511009e-06	-2.693993e-08	-3.225169e+01	-1.769019e+03
4.600000e-07	-4.410070e-06	-2.672623e-08	-3.153002e+01	-1.754983e+03
4.700000e-07	-4.307596e-06	-2.650684e-08	-3.079737e+01	-1.740402e+03
4.800000e-07	-4.203595e-06	-2.627696e-08	-3.005382e+01	-1.725305e+03
4.900000e-07	-4.098097e-06	-2.604516e-08	-2.929955e+01	-1.709695e+03
5.000000e-07	-3.991070e-06	-2.579970e-08	-2.853436e+01	-1.693541e+03
5.100000e-07	-3.882516e-06	-2.553900e-08	-2.775824e+01	-1.676779e+03
5.200000e-07	-3.772586e-06	-2.526528e-08	-2.697229e+01	-1.659316e+03
5.300000e-07	-3.661355e-06	-2.497935e-08	-2.617705e+01	-1.641051e+03
5.400000e-07	-3.548736e-06	-2.468194e-08	-2.537187e+01	-1.621894e+03
5.500000e-07	-3.434685e-06	-2.437414e-08	-2.455645e+01	-1.601779e+03
5.600000e-07	-3.319102e-06	-2.405635e-08	-2.373009e+01	-1.580672e+03
5.700000e-07	-3.202089e-06	-2.372142e-08	-2.289350e+01	-1.558570e+03
5.800000e-07	-3.083902e-06	-2.337072e-08	-2.204851e+01	-1.535478e+03
5.900000e-07	-2.964614e-06	-2.300256e-08	-2.119566e+01	-1.511395e+03
6.000000e-07	-2.844221e-06	-2.261954e-08	-2.033491e+01	-1.486284e+03
6.100000e-07	-2.722796e-06	-2.221801e-08	-1.946677e+01	-1.460064e+03
6.200000e-07	-2.600329e-06	-2.179688e-08	-1.859118e+01	-1.432604e+03
6.300000e-07	-2.476748e-06	-2.135303e-08	-1.770763e+01	-1.403730e+03
6.400000e-07	-2.352250e-06	-2.088254e-08	-1.681753e+01	-1.373248e+03
6.500000e-07	-2.227058e-06	-2.038523e-08	-1.592246e+01	-1.340968e+03
6.600000e-07	-2.101140e-06	-1.986001e-08	-1.502221e+01	-1.306721e+03
6.700000e-07	-1.974481e-06	-1.930784e-08	-1.411665e+01	-1.270370e+03
6.800000e-07	-1.847118e-06	-1.872488e-08	-1.320606e+01	-1.231804e+03
6.900000e-07	-1.719118e-06	-1.810548e-08	-1.229092e+01	-1.190921e+03
7.000000e-07	-1.590529e-06	-1.744494e-08	-1.137156e+01	-1.147597e+03
7.100000e-07	-1.461406e-06	-1.674312e-08	-1.044840e+01	-1.101668e+03
7.200000e-07	-1.331832e-06	-1.599453e-08	-9.522000e+00	-1.052917e+03
7.300000e-07	-1.201815e-06	-1.519619e-08	-8.592437e+00	-1.001083e+03
7.400000e-07	-1.071365e-06	-1.435016e-08	-7.659780e+00	-9.458989e+02
7.500000e-07	-9.404999e-07	-1.345358e-08	-6.724151e+00	-8.871461e+02
7.600000e-07	-8.092455e-07	-1.250231e-08	-5.785742e+00	-8.247141e+02
7.700000e-07	-6.776857e-07	-1.149712e-08	-4.845148e+00	-7.586583e+02
7.800000e-07	-5.459229e-07	-1.044336e-08	-3.903104e+00	-6.892308e+02
7.900000e-07	-4.139819e-07	-9.345727e-09	-2.959785e+00	-6.168754e+02
8.000000e-07	-2.818723e-07	-8.211591e-09	-2.015261e+00	-5.421814e+02
8.100000e-07	-1.496517e-07	-7.048814e-09	-1.069942e+00	-4.658003e+02
8.200000e-07	-1.736439e-08	-5.866400e-09	-1.241476e-01	-3.883408e+02
8.300000e-07	1.149718e-07	-4.672911e-09	8.219965e-01	-3.102643e+02
8.400000e-07	2.473018e-07	-3.473976e-09	1.768097e+00	-2.318036e+02
8.500000e-07	3.796000e-07	-2.270788e-09	2.713969e+00	-1.529277e+02
8.600000e-07	5.118005e-07	-1.059576e-09	3.659144e+00	-7.336303e+01
8.700000e-07	6.438495e-07	1.656598e-10	4.603235e+00	7.327873e+00
8.800000e-07	7.757391e-07	1.412570e-09	5.546186e+00	8.962401e+01
8.900000e-07	9.073737e-07	2.689738e-09	6.487314e+00	1.739025e+02
9.000000e-07	1.038647e-06	4.002373e-09	7.425862e+00	2.603044e+02
9.100000e-07	1.169531e-06	5.347093e-09	8.361619e+00	3.486368e+02
9.200000e-07	1.299894e-06	6.715414e-09	9.293656e+00	4.383347e+02
9.300000e-07	1.429662e-06	8.092674e-09	1.022144e+01	5.284901e+02
9.400000e-07	1.558940e-06	9.460740e-09	1.114572e+01	6.179443e+02
9.500000e-07	1.687708e-06	1.079768e-08	1.206635e+01	7.054265e+02
9.600000e-07	1.815806e-06	1.207905e-08	1.298220e+01	7.897104e+02
9.700000e-07	1.943174e-06	1.328930e-08	1.389282e+01	8.697609e+02
9.800000e-07	2.069798e-06	1.442053e-08	1.479813e+01	9.448427e+02
9.900000e-07	2.195689e-06	1.547103e-08	1.569819e+01	1.014575e+03
1.000000e-06	2.320864e-06	1.644216e-08	1.659314e+01	1.078924e+03
1.010000e-06	2.445311e-06	1.734039e-08	1.748287e+01	1.138148e+03
1.020000e-06	2.568949e-06	1.817325e-08	1.836683e+01	1.192700e+03
1.030000e-06	2.691554e-06	1.894427e-08	1.924340e+01	1.243122e+03
1.040000e-06	2.813017e-06	1.965941e-08	2.011181e+01	1.289950e+03
1.050000e-06	2.933321e-06	2.032570e-08	2.097193e+01	1.333640e+03
1.060000e-06	3.052558e-06	2.094665e-08	2.182442e+01	1.374537e+03
1.070000e-06	3.170743e-06	2.152346e-08	2.266939e+01	1.412874e+03
1.080000e-06	3.287796e-06	2.206373e-08	2.350626e+01	1.448802e+03
1.090000e-06	3.403624e-06	2.257197e-08	2.433439e+01	1.482433e+03
1.100000e-06	3.518013e-06	2.304699e-08	2.515221e+01	1.513875e+03
1.110000e-06	3.630947e-06	2.349233e-08	2.595964e+01	1.543268e+03
1.120000e-06	3.742546e-06	2.391266e-08	2.675752e+01	1.570787e+03
1.130000e-06	3.852839e-06	2.431041e-08	2.754607e+01	1.596633e+03
1.140000e-06	3.961869e-06	2.468625e-08	2.832558e+01	1.621017e+03
1.150000e-06	4.069685e-06	2.504163e-08	2.909642e+01	1.644124e+03
1.160000e-06	4.176092e-06	2.537921e-08	2.985718e+01	1.666101e+03
1.170000e-06	4.280880e-06	2.569838e-08	3.060637e+01	1.687040e+03
1.180000e-06	4.384072e-06	2.599826e-08	3.134415e+01	1.706986e+03
1.190000e-06	4.485713e-06	2.628035e-08	3.207083e+01	1.725948e+03
1.200000e-06	4.585821e-06	2.654705e-08	3.278656e+01	1.743926e+03
1.210000e-06	4.684248e-06	2.680172e-08	3.349027e+01	1.760927e+03
1.220000e-06	4.780816e-06	2.704488e-08	3.418068e+01	1.776985e+03
1.230000e-06	4.875651e-06	2.727799e-08	3.485872e+01	1.792162e+03
1.240000e-06	4.968832e-06	2.750151e-08	3.552492e+01	1.806541e+03
1.250000e-06	5.060371e-06	2.771355e-08	3.617938e+01	1.820216e+03
1.260000e-06	5.150053e-06	2.791328e-08	3.682057e+01	1.833272e+03
1.270000e-06	5.237711e-06	2.810019e-08	3.744728e+01	1.845773e+03
1.280000e-06	5.323488e-06	2.827691e-08	3.806055e+01	1.857752e+03
1.290000e-06	5.407463e-06	2.844761e-08	3.866093e+01	1.869214e+03
1.300000e-06	5.489505e-06	2.861286e-08	3.924749e+01	1.880148e+03
1.310000e-06	5.569434e-06	2.877097e-08	3.981895e+01	1.890533e+03
1.320000e-06	5.647305e-06	2.892161e-08	4.037569e+01	1.900359e+03
1.330000e-06	5.723108e-06	2.906542e-08	4.091765e+01	1.909630e+03
1.340000e-06	5.796653e-06	2.920221e-08	4.144347e+01	1.918371e+03
1.350000e-06	5.867982e-06	2.933134e-08	4.195343e+01	1.926625e+03
1.360000e-06	5.937273e-06	2.945404e-08	4.244883e+01	1.934437e+03
1.370000e-06	6.004526e-06	2.956974e-08	4.292966e+01	1.941853e+03
1.380000e-06	6.069558e-06	2.967734e-08	4.339461e+01	1.948904e+03
1.390000e-06	6.132378e-06	2.977777e-08	4.384375e+01	1.955604e+03
1.400000e-06	6.193193e-06	2.987109e-08	4.427855e+01	1.961956e+03
1.410000e-06	6.251863e-06	2.995969e-08	4.469801e+01	1.967952e+03
1.420000e-06	6.308227e-06	3.004554e-08	4.510099e+01	1.973588e+03
1.430000e-06	6.362336e-06	3.012826e-08	4.548784e+01	1.978869e+03
1.440000e-06	6.414009e-06	3.020603e-08	4.585728e+01	1.983813e+03
1.450000e-06	6.462977e-06	3.027933e-08	4.620738e+01	1.988450e+03
1.460000e-06	6.509478e-06	3.034848e-08	4.653985e+01	1.992817e+03
1.470000e-06	6.553842e-06	3.041185e-08	4.685702e+01	1.996947e+03
1.480000e-06	6.595851e-06	3.046958e-08	4.715737e+01	2.000862e+03
1.490000e-06	6.635365e-06	3.052352e-08	4.743988e+01	2.004564e+03
1.500000e-06	6.672640e-06	3.057615e-08	4.770638e+01	2.008036e+03
1.510000e-06	6.707669e-06	3.062602e-08	4.795682e+01	2.011249e+03
1.520000e-06	6.740201e-06	3.067062e-08	4.818941e+01	2.014167e+03
1.530000e-06	6.770323e-06	3.071089e-08	4.840477e+01	2.016760e+03
1.540000e-06	6.798233e-06	3.074661e-08	4.860431e+01	2.019013e+03
1.550000e-06	6.823686e-06	3.077750e-08	4.878629e+01	2.020932e+03
1.560000e-06	6.846516e-06	3.080338e-08	4.894951e+01	2.022542e+03
1.570000e-06	6.866944e-06	3.082318e-08	4.909556e+01	2.023883e+03
1.580000e-06	6.884979e-06	3.083907e-08	4.922451e+01	2.024996e+03
1.590000e-06	6.900442e-06	3.085254e-08	4.933506e+01	2.025919e+03
1.600000e-06	6.913278e-06	3.086531e-08	4.942683e+01	2.026672e+03
1.610000e-06	6.923408e-06	3.087632e-08	4.949926e+01	2.027260e+03
1.620000e-06	6.930879e-06	3.088456e-08	4.955267e+01	2.027671e+03
1.630000e-06	6.935978e-06	3.088892e-08	4.958913e+01	2.027883e+03
1.640000e-06	6.938638e-06	3.088851e-08	4.960814e+01	2.027875e+03
1.650000e-06	6.938744e-06	3.088510e-08	4.960890e+01	2.027629e+03
1.660000e-06	6.936527e-06	3.087294e-08	4.959305e+01	2.027143e+03
1.670000e-06	6.932079e-06	3.086049e-08	4.956125e+01	2.026423e+03
1.680000e-06	6.925215e-06	3.084997e-08	4.951217e+01	2.025487e+03
1.690000e-06	6.915983e-06	3.083693e-08	4.944617e+01	2.024354e+03
1.700000e-06	6.904539e-06	3.082140e-08	4.936435e+01	2.023041e+03
1.710000e-06	6.890716e-06	3.080413e-08	4.926552e+01	2.021559e+03
1.720000e-06	6.874542e-06	3.078698e-08	4.914989e+01	2.019910e+03
1.730000e-06	6.856326e-06	3.074498e-08	4.901965e+01	2.018092e+03
1.740000e-06	6.835830e-06	3.065799e-08	4.887312e+01	2.016105e+03
1.750000e-06	6.812283e-06	3.063345e-08	4.870476e+01	2.013951e+03
1.760000e-06	6.785525e-06	3.063420e-08	4.851345e+01	2.011644e+03
1.770000e-06	6.756047e-06	3.058838e-08	4.830270e+01	2.009203e+03
1.780000e-06	6.724371e-06	3.058466e-08	4.807623e+01	2.006648e+03
1.790000e-06	6.690991e-06	3.059328e-08	4.783758e+01	2.003993e+03
1.800000e-06	6.656195e-06	3.046276e-08	4.758880e+01	2.001236e+03
1.810000e-06	6.619336e-06	3.046710e-08	4.732528e+01	1.998353e+03
1.820000e-06	6.579924e-06	3.047884e-08	4.704350e+01	1.995298e+03
1.830000e-06	6.538320e-06	3.037158e-08	4.674605e+01	1.992007e+03
1.840000e-06	6.494434e-06	3.041652e-08	4.643228e+01	1.988412e+03
1.850000e-06	6.448157e-06	3.031327e-08	4.610143e+01	1.984454e+03
1.860000e-06	6.399544e-06	3.021115e-08	4.575386e+01	1.980094e+03
1.870000e-06	6.348486e-06	3.015052e-08	4.538882e+01	1.975324e+03
1.880000e-06	6.294968e-06	3.000791e-08	4.500620e+01	1.970169e+03
1.890000e-06	6.238869e-06	3.000210e-08	4.460511e+01	1.964675e+03
1.900000e-06	6.180378e-06	2.990504e-08	4.418693e+01	1.958903e+03
1.910000e-06	6.119624e-06	2.981236e-08	4.375256e+01	1.952906e+03
1.920000e-06	6.056407e-06	2.976933e-08	4.330059e+01	1.946715e+03
1.930000e-06	5.990972e-06	2.961894e-08	4.283276e+01	1.940332e+03
1.940000e-06	5.923415e-06	2.953475e-08	4.234975e+01	1.933727e+03
1.950000e-06	5.853564e-06	2.939979e-08	4.185035e+01	1.926847e+03
1.960000e-06	5.781325e-06	2.929342e-08	4.133388e+01	1.919627e+03
1.970000e-06	5.706819e-06	2.919081e-08	4.080119e+01	1.912012e+03
1.980000e-06	5.630115e-06	2.905905e-08	4.025279e+01	1.903967e+03
1.990000e-06	5.551114e-06	2.896010e-08	3.968797e+01	1.895486e+03
2.000000e-06	5.470103e-06	2.880484e-08	3.910878e+01	1.886589e+03
2.010000e-06	5.387298e-06	2.867723e-08	3.851676e+01	1.877314e+03
2.020000e-06	5.302619e-06	2.851907e-08	3.791134e+01	1.867699e+03
2.030000e-06	5.215908e-06	2.836017e-08	3.729140e+01	1.857769e+03
2.040000e-06	5.127255e-06	2.821884e-08	3.665757e+01	1.847522e+03
2.050000e-06	5.036908e-06	2.805206e-08	3.601163e+01	1.836925e+03
2.060000e-06	4.944874e-06	2.788895e-08	3.535362e+01	1.825923e+03
2.070000e-06	4.851167e-06	2.770187e-08	3.468366e+01	1.814445e+03
2.080000e-06	4.755699e-06	2.752381e-08	3.400111e+01	1.802427e+03
2.090000e-06	4.658519e-06	2.733338e-08	3.330632e+01	1.789824e+03
2.100000e-06	4.559755e-06	2.713589e-08	3.260020e+01	1.776621e+03
2.110000e-06	4.459375e-06	2.693284e-08	3.188253e+01	1.762828e+03
2.120000e-06	4.357425e-06	2.671457e-08	3.115363e+01	1.748476e+03
2.130000e-06	4.253851e-06	2.648439e-08	3.041313e+01	1.733598e+03
2.140000e-06	4.148716e-06	2.623991e-08	2.966146e+01	1.718209e+03
2.150000e-06	4.042176e-06	2.599840e-08	2.889974e+01	1.702294e+03
2.160000e-06	3.934250e-06	2.574897e-08	2.812812e+01	1.685802e+03
2.170000e-06	3.824920e-06	2.549408e-08	2.734646e+01	1.668651e+03
2.180000e-06	3.714156e-06	2.522392e-08	2.655454e+01	1.650742e+03
2.190000e-06	3.601913e-06	2.493821e-08	2.575206e+01	1.631977e+03
2.200000e-06	3.488246e-06	2.463591e-08	2.493939e+01	1.612278e+03
2.210000e-06	3.373199e-06	2.432160e-08	2.411685e+01	1.591598e+03
2.220000e-06	3.256671e-06	2.399741e-08	2.328373e+01	1.569922e+03
2.230000e-06	3.138764e-06	2.365902e-08	2.244075e+01	1.547253e+03
2.240000e-06	3.019640e-06	2.329983e-08	2.158907e+01	1.523596e+03
2.250000e-06	2.899308e-06	2.292036e-08	2.072875e+01	1.498932e+03
2.260000e-06	2.777918e-06	2.252482e-08	1.986086e+01	1.473201e+03
2.270000e-06	2.655591e-06	2.211073e-08	1.898628e+01	1.446291e+03
2.280000e-06	2.532347e-06	2.168083e-08	1.810515e+01	1.418045e+03
2.290000e-06	2.408191e-06	2.123131e-08	1.721748e+01	1.388276e+03
2.300000e-06	2.283162e-06	2.075624e-08	1.632358e+01	1.356789e+03
2.310000e-06	2.157400e-06	2.024671e-08	1.542444e+01	1.323403e+03
2.320000e-06	2.030884e-06	1.970594e-08	1.451991e+01	1.287968e+03
2.330000e-06	1.903544e-06	1.913480e-08	1.360948e+01	1.250364e+03
2.340000e-06	1.775464e-06	1.853064e-08	1.269377e+01	1.210487e+03
2.350000e-06	1.646773e-06	1.789074e-08	1.177369e+01	1.168226e+03
2.360000e-06	1.517565e-06	1.721018e-08	1.084991e+01	1.123437e+03
2.370000e-06	1.387969e-06	1.648477e-08	9.923353e+00	1.075925e+03
2.380000e-06	1.258024e-06	1.571109e-08	8.994307e+00	1.025445e+03
2.390000e-06	1.127675e-06	1.488815e-08	8.062370e+00	9.717273e+02
2.400000e-06	9.970201e-07	1.401232e-08	7.128245e+00	9.145251e+02
2.410000e-06	8.660521e-07	1.308496e-08	6.191883e+00	8.536735e+02
2.420000e-06	7.347488e-07	1.210514e-08	5.253124e+00	7.891514e+02
2.430000e-06	6.031736e-07	1.107164e-08	4.312420e+00	7.211248e+02
2.440000e-06	4.713412e-07	9.988490e-09	3.369878e+00	6.499587e+02
2.450000e-06	3.393618e-07	8.862395e-09	2.426285e+00	5.761883e+02
2.460000e-06	2.072450e-07	7.703563e-09	1.481709e+00	5.004503e+02
2.470000e-06	7.499695e-08	6.522372e-09	5.361945e-01	4.233854e+02
2.480000e-06	-5.730868e-08	5.330180e-09	-4.097313e-01	3.455298e+02
2.490000e-06	-1.896165e-07	4.132682e-09	-1.355672e+00	2.672216e+02
2.500000e-06	-3.218788e-07	2.929159e-09	-2.301289e+00	1.885439e+02
2.510000e-06	-4.540385e-07	1.715385e-09	-3.246171e+00	1.093205e+02
2.520000e-06	-5.860513e-07	4.868460e-10	-4.190004e+00	2.917140e+01
2.530000e-06	-7.178615e-07	-7.595975e-10	-5.132388e+00	-5.238165e+01
2.540000e-06	-8.494035e-07	-2.030028e-09	-6.072853e+00	-1.357771e+02
2.550000e-06	-9.806375e-07	-3.328743e-09	-7.011117e+00	-2.212718e+02
2.560000e-06	-1.111490e-06	-4.659111e-09	-7.946651e+00	-3.088245e+02
2.570000e-06	-1.241938e-06	-6.020568e-09	-8.879299e+00	-3.980302e+02
2.580000e-06	-1.372045e-06	-7.402363e-09	-9.809507e+00	-4.881199e+02
2.590000e-06	-1.501728e-06	-8.785309e-09	-1.073668e+01	-5.780275e+02
2.600000e-06	-1.630865e-06	-1.014698e-08	-1.165995e+01	-6.665116e+02
2.610000e-06	-1.759461e-06	-1.146499e-08	-1.257936e+01	-7.523074e+02
2.620000e-06	-1.887523e-06	-1.271963e-08	-1.349494e+01	-8.342820e+02
2.630000e-06	-2.014924e-06	-1.389790e-08	-1.440580e+01	-9.115614e+02
2.640000e-06	-2.141461e-06	-1.499534e-08	-1.531048e+01	-9.836099e+02
2.650000e-06	-2.267105e-06	-1.601277e-08	-1.620878e+01	-1.050250e+03
2.660000e-06	-2.391845e-06	-1.695294e-08	-1.710062e+01	-1.111624e+03
2.670000e-06	-2.515619e-06	-1.782264e-08	-1.798555e+01	-1.168115e+03
2.680000e-06	-2.638417e-06	-1.862792e-08	-1.886349e+01	-1.220240e+03
2.690000e-06	-2.760233e-06	-1.937319e-08	-1.973442e+01	-1.268547e+03
2.700000e-06	-2.881091e-06	-2.006491e-08	-2.059851e+01	-1.313533e+03
2.710000e-06	-3.000946e-06	-2.070948e-08	-2.145541e+01	-1.355592e+03
2.720000e-06	-3.119608e-06	-2.131276e-08	-2.230379e+01	-1.395004e+03
2.730000e-06	-3.236948e-06	-2.187837e-08	-2.314273e+01	-1.431950e+03
2.740000e-06	-3.352988e-06	-2.240531e-08	-2.397236e+01	-1.466553e+03
2.750000e-06	-3.467736e-06	-2.289635e-08	-2.479275e+01	-1.498919e+03
2.760000e-06	-3.581054e-06	-2.335750e-08	-2.560293e+01	-1.529171e+03
2.770000e-06	-3.692887e-06	-2.379022e-08	-2.640248e+01	-1.557470e+03
2.780000e-06	-3.803300e-06	-2.419653e-08	-2.719188e+01	-1.584008e+03
2.790000e-06	-3.912424e-06	-2.458080e-08	-2.797207e+01	-1.608994e+03
2.800000e-06	-4.020385e-06	-2.494495e-08	-2.874395e+01	-1.632627e+03
2.810000e-06	-4.127050e-06	-2.528910e-08	-2.950655e+01	-1.655074e+03
2.820000e-06	-4.232311e-06	-2.561549e-08	-3.025912e+01	-1.676451e+03
2.830000e-06	-4.336064e-06	-2.592639e-08	-3.100091e+01	-1.696820e+03
2.840000e-06	-4.438078e-06	-2.622298e-08	-3.173026e+01	-1.716204e+03
2.850000e-06	-4.538433e-06	-2.650437e-08	-3.244776e+01	-1.734604e+03
2.860000e-06	-4.637262e-06	-2.676950e-08	-3.315434e+01	-1.752022e+03
2.870000e-06	-4.734516e-06	-2.701893e-08	-3.384966e+01	-1.768479e+03
2.880000e-06	-4.830161e-06	-2.725566e-08	-3.453348e+01	-1.784024e+03
2.890000e-06	-4.923942e-06	-2.748308e-08	-3.520397e+01	-1.798734e+03
2.900000e-06	-5.015923e-06	-2.770273e-08	-3.586160e+01	-1.812699e+03
2.910000e-06	-5.106226e-06	-2.791184e-08	-3.650722e+01	-1.826012e+03
2.920000e-06	-5.194720e-06	-2.810957e-08	-3.713991e+01	-1.838745e+03
2.930000e-06	-5.281212e-06	-2.829808e-08	-3.775830e+01	-1.850945e+03
2.940000e-06	-5.365645e-06	-2.847516e-08	-3.836195e+01	-1.862631e+03
