# Temperatura_=_42.73
# Concentracion g/m^3_=_28200.0
# C_Vs_to_Am_M_A/Vsm_=_65563218390.804596
# pendiente_HvsI_1/m_=_3716.3
# ordenada_HvsI_A/m_=_1297.0
# frecuencia_Hz_=_302272.2035798775

Tiempo_(s)	Campo_(V.s)	Magnetizacion_(V.s)	Campo_(kA/m)	Magnetizacion_(A/m)
0.000000e+00	-6.895511e-06	-2.562890e-08	-4.952218e+01	-1.678078e+03
1.000000e-08	-6.892265e-06	-2.562618e-08	-4.949887e+01	-1.677689e+03
2.000000e-08	-6.886723e-06	-2.561386e-08	-4.945907e+01	-1.677114e+03
3.000000e-08	-6.879055e-06	-2.560289e-08	-4.940400e+01	-1.676341e+03
4.000000e-08	-6.869018e-06	-2.559058e-08	-4.933192e+01	-1.675371e+03
5.000000e-08	-6.856458e-06	-2.557277e-08	-4.924171e+01	-1.674212e+03
6.000000e-08	-6.841384e-06	-2.554983e-08	-4.913345e+01	-1.672883e+03
7.000000e-08	-6.823943e-06	-2.551886e-08	-4.900819e+01	-1.671411e+03
8.000000e-08	-6.804465e-06	-2.548319e-08	-4.886831e+01	-1.669827e+03
9.000000e-08	-6.782730e-06	-2.553462e-08	-4.871221e+01	-1.668163e+03
1.000000e-07	-6.758255e-06	-2.552588e-08	-4.853643e+01	-1.666444e+03
1.100000e-07	-6.730960e-06	-2.542986e-08	-4.834041e+01	-1.664686e+03
1.200000e-07	-6.701226e-06	-2.538677e-08	-4.812687e+01	-1.662891e+03
1.300000e-07	-6.669390e-06	-2.536730e-08	-4.789822e+01	-1.661044e+03
1.400000e-07	-6.635362e-06	-2.525240e-08	-4.765384e+01	-1.659115e+03
1.500000e-07	-6.599506e-06	-2.519535e-08	-4.739633e+01	-1.657060e+03
1.600000e-07	-6.561892e-06	-2.535458e-08	-4.712619e+01	-1.654827e+03
1.700000e-07	-6.522077e-06	-2.519081e-08	-4.684025e+01	-1.652364e+03
1.800000e-07	-6.480007e-06	-2.511250e-08	-4.653811e+01	-1.649627e+03
1.900000e-07	-6.435431e-06	-2.517342e-08	-4.621797e+01	-1.646586e+03
2.000000e-07	-6.388425e-06	-2.497384e-08	-4.588039e+01	-1.643227e+03
2.100000e-07	-6.338956e-06	-2.494172e-08	-4.552511e+01	-1.639560e+03
2.200000e-07	-6.286765e-06	-2.491913e-08	-4.515028e+01	-1.635607e+03
2.300000e-07	-6.232097e-06	-2.486806e-08	-4.475768e+01	-1.631402e+03
2.400000e-07	-6.175078e-06	-2.484047e-08	-4.434817e+01	-1.626983e+03
2.500000e-07	-6.115642e-06	-2.473181e-08	-4.392131e+01	-1.622377e+03
2.600000e-07	-6.053948e-06	-2.466589e-08	-4.347824e+01	-1.617600e+03
2.700000e-07	-5.990104e-06	-2.456335e-08	-4.301973e+01	-1.612648e+03
2.800000e-07	-5.924046e-06	-2.447798e-08	-4.254531e+01	-1.607503e+03
2.900000e-07	-5.855741e-06	-2.441772e-08	-4.205476e+01	-1.602134e+03
3.000000e-07	-5.785270e-06	-2.432919e-08	-4.154865e+01	-1.596504e+03
3.100000e-07	-5.712638e-06	-2.427303e-08	-4.102702e+01	-1.590582e+03
3.200000e-07	-5.637696e-06	-2.414468e-08	-4.048881e+01	-1.584345e+03
3.300000e-07	-5.560372e-06	-2.404036e-08	-3.993348e+01	-1.577787e+03
3.400000e-07	-5.480709e-06	-2.391879e-08	-3.936136e+01	-1.570910e+03
3.500000e-07	-5.399002e-06	-2.381750e-08	-3.877455e+01	-1.563729e+03
3.600000e-07	-5.315539e-06	-2.373394e-08	-3.817514e+01	-1.556255e+03
3.700000e-07	-5.230358e-06	-2.359802e-08	-3.756339e+01	-1.548496e+03
3.800000e-07	-5.143509e-06	-2.348238e-08	-3.693965e+01	-1.540445e+03
3.900000e-07	-5.054885e-06	-2.333803e-08	-3.630317e+01	-1.532081e+03
4.000000e-07	-4.964357e-06	-2.319676e-08	-3.565302e+01	-1.523371e+03
4.100000e-07	-4.872042e-06	-2.305005e-08	-3.499003e+01	-1.514276e+03
4.200000e-07	-4.778119e-06	-2.292023e-08	-3.431549e+01	-1.504756e+03
4.300000e-07	-4.682549e-06	-2.277848e-08	-3.362913e+01	-1.494781e+03
4.400000e-07	-4.585277e-06	-2.261131e-08	-3.293054e+01	-1.484336e+03
4.500000e-07	-4.486299e-06	-2.244328e-08	-3.221970e+01	-1.473417e+03
4.600000e-07	-4.385625e-06	-2.226607e-08	-3.149668e+01	-1.462029e+03
4.700000e-07	-4.283413e-06	-2.208782e-08	-3.076261e+01	-1.450180e+03
4.800000e-07	-4.179767e-06	-2.190002e-08	-3.001825e+01	-1.437870e+03
4.900000e-07	-4.074660e-06	-2.171287e-08	-2.926339e+01	-1.425084e+03
5.000000e-07	-3.968006e-06	-2.150665e-08	-2.849743e+01	-1.411788e+03
5.100000e-07	-3.859846e-06	-2.128976e-08	-2.772064e+01	-1.397934e+03
5.200000e-07	-3.750387e-06	-2.106170e-08	-2.693453e+01	-1.383459e+03
5.300000e-07	-3.639610e-06	-2.082418e-08	-2.613895e+01	-1.368301e+03
5.400000e-07	-3.527507e-06	-2.057757e-08	-2.533385e+01	-1.352404e+03
5.500000e-07	-3.414039e-06	-2.032374e-08	-2.451894e+01	-1.335727e+03
5.600000e-07	-3.298947e-06	-2.006345e-08	-2.369238e+01	-1.318241e+03
5.700000e-07	-3.182360e-06	-1.978411e-08	-2.285507e+01	-1.299929e+03
5.800000e-07	-3.064574e-06	-1.948953e-08	-2.200916e+01	-1.280773e+03
5.900000e-07	-2.945667e-06	-1.917795e-08	-2.115519e+01	-1.260745e+03
6.000000e-07	-2.825721e-06	-1.885851e-08	-2.029376e+01	-1.239794e+03
6.100000e-07	-2.704822e-06	-1.852362e-08	-1.942549e+01	-1.217841e+03
6.200000e-07	-2.582859e-06	-1.817363e-08	-1.854958e+01	-1.194781e+03
6.300000e-07	-2.459789e-06	-1.780223e-08	-1.766571e+01	-1.170485e+03
6.400000e-07	-2.335732e-06	-1.740559e-08	-1.677476e+01	-1.144816e+03
6.500000e-07	-2.210907e-06	-1.698443e-08	-1.587829e+01	-1.117638e+03
6.600000e-07	-2.085504e-06	-1.654124e-08	-1.497767e+01	-1.088826e+03
6.700000e-07	-1.959433e-06	-1.607842e-08	-1.407226e+01	-1.058267e+03
6.800000e-07	-1.832579e-06	-1.558930e-08	-1.316121e+01	-1.025853e+03
6.900000e-07	-1.705018e-06	-1.506970e-08	-1.224510e+01	-9.914750e+02
7.000000e-07	-1.576932e-06	-1.450994e-08	-1.132521e+01	-9.550068e+02
7.100000e-07	-1.448428e-06	-1.391777e-08	-1.040232e+01	-9.162970e+02
7.200000e-07	-1.319501e-06	-1.328806e-08	-9.476395e+00	-8.751705e+02
7.300000e-07	-1.190152e-06	-1.261961e-08	-8.547432e+00	-8.314436e+02
7.400000e-07	-1.060362e-06	-1.191129e-08	-7.615310e+00	-7.849522e+02
7.500000e-07	-9.301310e-07	-1.115902e-08	-6.680014e+00	-7.355911e+02
7.600000e-07	-7.994858e-07	-1.036285e-08	-5.741747e+00	-6.833544e+02
7.700000e-07	-6.685194e-07	-9.521656e-09	-4.801173e+00	-6.283693e+02
7.800000e-07	-5.373292e-07	-8.645239e-09	-3.858991e+00	-5.709106e+02
7.900000e-07	-4.059372e-07	-7.740390e-09	-2.915360e+00	-5.113905e+02
8.000000e-07	-2.744043e-07	-6.815003e-09	-1.970717e+00	-4.503196e+02
8.100000e-07	-1.427311e-07	-5.871436e-09	-1.025066e+00	-3.882436e+02
8.200000e-07	-1.093327e-08	-4.919229e-09	-7.852058e-02	-3.256657e+02
8.300000e-07	1.209385e-07	-3.965053e-09	8.685563e-01	-2.629681e+02
8.400000e-07	2.528005e-07	-3.009585e-09	1.815563e+00	-2.003514e+02
8.500000e-07	3.845396e-07	-2.052115e-09	2.761687e+00	-1.378027e+02
8.600000e-07	5.161424e-07	-1.094697e-09	3.706831e+00	-7.510507e+01
8.700000e-07	6.476482e-07	-1.333263e-10	4.651280e+00	-1.188713e+01
8.800000e-07	7.789650e-07	8.416451e-10	5.594371e+00	5.229269e+01
8.900000e-07	9.099267e-07	1.835065e-09	6.534911e+00	1.178425e+02
9.000000e-07	1.040480e-06	2.854586e-09	7.472519e+00	1.850326e+02
9.100000e-07	1.170574e-06	3.900724e-09	8.406826e+00	2.539104e+02
9.200000e-07	1.300155e-06	4.972517e-09	9.337453e+00	3.242516e+02
9.300000e-07	1.429206e-06	6.059877e-09	1.026427e+01	3.955558e+02
9.400000e-07	1.557769e-06	7.151824e-09	1.118759e+01	4.670894e+02
9.500000e-07	1.685866e-06	8.234155e-09	1.210756e+01	5.379666e+02
9.600000e-07	1.813424e-06	9.288749e-09	1.302365e+01	6.072530e+02
9.700000e-07	1.940303e-06	1.030278e-08	1.393487e+01	6.740737e+02
9.800000e-07	2.066379e-06	1.126519e-08	1.484032e+01	7.377068e+02
9.900000e-07	2.191705e-06	1.217109e-08	1.574039e+01	7.976473e+02
1.000000e-06	2.316383e-06	1.301497e-08	1.663580e+01	8.536332e+02
1.010000e-06	2.440305e-06	1.380106e-08	1.752578e+01	9.056333e+02
1.020000e-06	2.563224e-06	1.453179e-08	1.840856e+01	9.538051e+02
1.030000e-06	2.685031e-06	1.521298e-08	1.928335e+01	9.984322e+02
1.040000e-06	2.805791e-06	1.584646e-08	2.015063e+01	1.039858e+03
1.050000e-06	2.925561e-06	1.643535e-08	2.101079e+01	1.078427e+03
1.060000e-06	3.044267e-06	1.698378e-08	2.186332e+01	1.114445e+03
1.070000e-06	3.161880e-06	1.749321e-08	2.270799e+01	1.148158e+03
1.080000e-06	3.278405e-06	1.796960e-08	2.354485e+01	1.179751e+03
1.090000e-06	3.393637e-06	1.841663e-08	2.437242e+01	1.209367e+03
1.100000e-06	3.507391e-06	1.883588e-08	2.518938e+01	1.237126e+03
1.110000e-06	3.619731e-06	1.922827e-08	2.599618e+01	1.263142e+03
1.120000e-06	3.730750e-06	1.960085e-08	2.679350e+01	1.287540e+03
1.130000e-06	3.840488e-06	1.995388e-08	2.758162e+01	1.310458e+03
1.140000e-06	3.949047e-06	2.028803e-08	2.836127e+01	1.332038e+03
1.150000e-06	4.056352e-06	2.060195e-08	2.913191e+01	1.352417e+03
1.160000e-06	4.162066e-06	2.089545e-08	2.989112e+01	1.371715e+03
1.170000e-06	4.266172e-06	2.117099e-08	3.063879e+01	1.390025e+03
1.180000e-06	4.368802e-06	2.143043e-08	3.137586e+01	1.407411e+03
1.190000e-06	4.469997e-06	2.167612e-08	3.210262e+01	1.423913e+03
1.200000e-06	4.569702e-06	2.191050e-08	3.281868e+01	1.439557e+03
1.210000e-06	4.667573e-06	2.213477e-08	3.352158e+01	1.454364e+03
1.220000e-06	4.763600e-06	2.234826e-08	3.421122e+01	1.468365e+03
1.230000e-06	4.857917e-06	2.255106e-08	3.488859e+01	1.481605e+03
1.240000e-06	4.950603e-06	2.274346e-08	3.555424e+01	1.494138e+03
1.250000e-06	5.041593e-06	2.292527e-08	3.620771e+01	1.506031e+03
1.260000e-06	5.130670e-06	2.309709e-08	3.684744e+01	1.517344e+03
1.270000e-06	5.217841e-06	2.325923e-08	3.747349e+01	1.528131e+03
1.280000e-06	5.303204e-06	2.341393e-08	3.808655e+01	1.538424e+03
1.290000e-06	5.386766e-06	2.356350e-08	3.868667e+01	1.548238e+03
1.300000e-06	5.468371e-06	2.370792e-08	3.927274e+01	1.557569e+03
1.310000e-06	5.547898e-06	2.384416e-08	3.984389e+01	1.566404e+03
1.320000e-06	5.625398e-06	2.397256e-08	4.040048e+01	1.574733e+03
1.330000e-06	5.700735e-06	2.409457e-08	4.094154e+01	1.582553e+03
1.340000e-06	5.773807e-06	2.420814e-08	4.146633e+01	1.589876e+03
1.350000e-06	5.844739e-06	2.431315e-08	4.197575e+01	1.596735e+03
1.360000e-06	5.913649e-06	2.441227e-08	4.247064e+01	1.603174e+03
1.370000e-06	5.980457e-06	2.450702e-08	4.295045e+01	1.609244e+03
1.380000e-06	6.045054e-06	2.459475e-08	4.341437e+01	1.614996e+03
1.390000e-06	6.107521e-06	2.467626e-08	4.386300e+01	1.620470e+03
1.400000e-06	6.167990e-06	2.475335e-08	4.429727e+01	1.625692e+03
1.410000e-06	6.226292e-06	2.482778e-08	4.471599e+01	1.630674e+03
1.420000e-06	6.282305e-06	2.490011e-08	4.511826e+01	1.635414e+03
1.430000e-06	6.336093e-06	2.496881e-08	4.550455e+01	1.639903e+03
1.440000e-06	6.387290e-06	2.503359e-08	4.587224e+01	1.644130e+03
1.450000e-06	6.435849e-06	2.509419e-08	4.622098e+01	1.648088e+03
1.460000e-06	6.482109e-06	2.515132e-08	4.655321e+01	1.651779e+03
1.470000e-06	6.526199e-06	2.520425e-08	4.686985e+01	1.655211e+03
1.480000e-06	6.567910e-06	2.525287e-08	4.716942e+01	1.658396e+03
1.490000e-06	6.607153e-06	2.529774e-08	4.745125e+01	1.661347e+03
1.500000e-06	6.644199e-06	2.533885e-08	4.771731e+01	1.664076e+03
1.510000e-06	6.679026e-06	2.537687e-08	4.796743e+01	1.666587e+03
1.520000e-06	6.711387e-06	2.541133e-08	4.819984e+01	1.668878e+03
1.530000e-06	6.741334e-06	2.544170e-08	4.841491e+01	1.670943e+03
1.540000e-06	6.769014e-06	2.547048e-08	4.861370e+01	1.672773e+03
1.550000e-06	6.794167e-06	2.549561e-08	4.879435e+01	1.674363e+03
1.560000e-06	6.816700e-06	2.551611e-08	4.895618e+01	1.675715e+03
1.570000e-06	6.836985e-06	2.553255e-08	4.910186e+01	1.676836e+03
1.580000e-06	6.854908e-06	2.554478e-08	4.923058e+01	1.677745e+03
1.590000e-06	6.870174e-06	2.555554e-08	4.934022e+01	1.678461e+03
1.600000e-06	6.882845e-06	2.556468e-08	4.943122e+01	1.679009e+03
1.610000e-06	6.892809e-06	2.557341e-08	4.950278e+01	1.679408e+03
1.620000e-06	6.900122e-06	2.558029e-08	4.955529e+01	1.679672e+03
1.630000e-06	6.905077e-06	2.558324e-08	4.959088e+01	1.679806e+03
1.640000e-06	6.907586e-06	2.558340e-08	4.960890e+01	1.679805e+03
1.650000e-06	6.907574e-06	2.558473e-08	4.960881e+01	1.679656e+03
1.660000e-06	6.905300e-06	2.557320e-08	4.959248e+01	1.679343e+03
1.670000e-06	6.900804e-06	2.556324e-08	4.956019e+01	1.678849e+03
1.680000e-06	6.893886e-06	2.555624e-08	4.951051e+01	1.678161e+03
1.690000e-06	6.884685e-06	2.554410e-08	4.944443e+01	1.677275e+03
1.700000e-06	6.873292e-06	2.553106e-08	4.936261e+01	1.676195e+03
1.710000e-06	6.859438e-06	2.551855e-08	4.926311e+01	1.674936e+03
1.720000e-06	6.843236e-06	2.551939e-08	4.914675e+01	1.673521e+03
1.730000e-06	6.825013e-06	2.549443e-08	4.901588e+01	1.671981e+03
1.740000e-06	6.804543e-06	2.536056e-08	4.886887e+01	1.670348e+03
1.750000e-06	6.781000e-06	2.535251e-08	4.869978e+01	1.668649e+03
1.760000e-06	6.754209e-06	2.539287e-08	4.850738e+01	1.666907e+03
1.770000e-06	6.724686e-06	2.534068e-08	4.829535e+01	1.665129e+03
1.780000e-06	6.692982e-06	2.536143e-08	4.806766e+01	1.663307e+03
1.790000e-06	6.659662e-06	2.543228e-08	4.782836e+01	1.661417e+03
1.800000e-06	6.624958e-06	2.522392e-08	4.757912e+01	1.659422e+03
1.810000e-06	6.588134e-06	2.523703e-08	4.731466e+01	1.657271e+03
1.820000e-06	6.548717e-06	2.531162e-08	4.703157e+01	1.654913e+03
1.830000e-06	6.507170e-06	2.512098e-08	4.673320e+01	1.652298e+03
1.840000e-06	6.463427e-06	2.528149e-08	4.641904e+01	1.649390e+03
1.850000e-06	6.417317e-06	2.517120e-08	4.608789e+01	1.646167e+03
1.860000e-06	6.368835e-06	2.504264e-08	4.573970e+01	1.642629e+03
1.870000e-06	6.317915e-06	2.505884e-08	4.537400e+01	1.638795e+03
1.880000e-06	6.264551e-06	2.484274e-08	4.499075e+01	1.634693e+03
1.890000e-06	6.208608e-06	2.490453e-08	4.458898e+01	1.630362e+03
1.900000e-06	6.150288e-06	2.481405e-08	4.417014e+01	1.625833e+03
1.910000e-06	6.089719e-06	2.472598e-08	4.373515e+01	1.621128e+03
1.920000e-06	6.026696e-06	2.476289e-08	4.328253e+01	1.616253e+03
1.930000e-06	5.961501e-06	2.456535e-08	4.281431e+01	1.611194e+03
1.940000e-06	5.894257e-06	2.454024e-08	4.233137e+01	1.605925e+03
1.950000e-06	5.824729e-06	2.437760e-08	4.183204e+01	1.600410e+03
1.960000e-06	5.752803e-06	2.430863e-08	4.131548e+01	1.594617e+03
1.970000e-06	5.678656e-06	2.427068e-08	4.078297e+01	1.588517e+03
1.980000e-06	5.602289e-06	2.413047e-08	4.023452e+01	1.582096e+03
1.990000e-06	5.523536e-06	2.409705e-08	3.966893e+01	1.575354e+03
2.000000e-06	5.442810e-06	2.392344e-08	3.908917e+01	1.568301e+03
2.010000e-06	5.360334e-06	2.383826e-08	3.849685e+01	1.560951e+03
2.020000e-06	5.275995e-06	2.369675e-08	3.789114e+01	1.553314e+03
2.030000e-06	5.189624e-06	2.357568e-08	3.727084e+01	1.545390e+03
2.040000e-06	5.101277e-06	2.349806e-08	3.663635e+01	1.537163e+03
2.050000e-06	5.011247e-06	2.334993e-08	3.598977e+01	1.528606e+03
2.060000e-06	4.919594e-06	2.322820e-08	3.533154e+01	1.519681e+03
2.070000e-06	4.826286e-06	2.304481e-08	3.466142e+01	1.510347e+03
2.080000e-06	4.731127e-06	2.291232e-08	3.397801e+01	1.500570e+03
2.090000e-06	4.634265e-06	2.274873e-08	3.328236e+01	1.490328e+03
2.100000e-06	4.535930e-06	2.259609e-08	3.257614e+01	1.479611e+03
2.110000e-06	4.436054e-06	2.243736e-08	3.185885e+01	1.468423e+03
2.120000e-06	4.334514e-06	2.225622e-08	3.112961e+01	1.456771e+03
2.130000e-06	4.231254e-06	2.206863e-08	3.038802e+01	1.444659e+03
2.140000e-06	4.126469e-06	2.185967e-08	2.963548e+01	1.432079e+03
2.150000e-06	4.020304e-06	2.167240e-08	2.887302e+01	1.419007e+03
2.160000e-06	3.912787e-06	2.146523e-08	2.810085e+01	1.405399e+03
2.170000e-06	3.803899e-06	2.126279e-08	2.731884e+01	1.391197e+03
2.180000e-06	3.693606e-06	2.103379e-08	2.652674e+01	1.376339e+03
2.190000e-06	3.581838e-06	2.079809e-08	2.572405e+01	1.360765e+03
2.200000e-06	3.468645e-06	2.054234e-08	2.491112e+01	1.344426e+03
2.210000e-06	3.354100e-06	2.028283e-08	2.408847e+01	1.327289e+03
2.220000e-06	3.238184e-06	2.001528e-08	2.325599e+01	1.309333e+03
2.230000e-06	3.120940e-06	1.973836e-08	2.241397e+01	1.290542e+03
2.240000e-06	3.002299e-06	1.944460e-08	2.156191e+01	1.270892e+03
2.250000e-06	2.882382e-06	1.912637e-08	2.070069e+01	1.250344e+03
2.260000e-06	2.761478e-06	1.879346e-08	1.983238e+01	1.228832e+03
2.270000e-06	2.639643e-06	1.844096e-08	1.895739e+01	1.206260e+03
2.280000e-06	2.516865e-06	1.808202e-08	1.807562e+01	1.182510e+03
2.290000e-06	2.393135e-06	1.770551e-08	1.718701e+01	1.157447e+03
2.300000e-06	2.268585e-06	1.731112e-08	1.629252e+01	1.130932e+03
2.310000e-06	2.143427e-06	1.688361e-08	1.539366e+01	1.102835e+03
2.320000e-06	2.017550e-06	1.642859e-08	1.448964e+01	1.073037e+03
2.330000e-06	1.890797e-06	1.594214e-08	1.357933e+01	1.041430e+03
2.340000e-06	1.763230e-06	1.542998e-08	1.266317e+01	1.007908e+03
2.350000e-06	1.635002e-06	1.489192e-08	1.174226e+01	9.723528e+02
2.360000e-06	1.506265e-06	1.431991e-08	1.081770e+01	9.346237e+02
2.370000e-06	1.377143e-06	1.370923e-08	9.890365e+00	8.945552e+02
2.380000e-06	1.247686e-06	1.305512e-08	8.960629e+00	8.519646e+02
2.390000e-06	1.117906e-06	1.236141e-08	8.028574e+00	8.066751e+02
2.400000e-06	9.877983e-07	1.162402e-08	7.094169e+00	7.585511e+02
2.410000e-06	8.573333e-07	1.084702e-08	6.157196e+00	7.075394e+02
2.420000e-06	7.264941e-07	1.003130e-08	5.217535e+00	6.537070e+02
2.430000e-06	5.952879e-07	9.175183e-09	4.275239e+00	5.972652e+02
2.440000e-06	4.638877e-07	8.279919e-09	3.331548e+00	5.385703e+02
2.450000e-06	3.323724e-07	7.352158e-09	2.387032e+00	4.780974e+02
2.460000e-06	2.006648e-07	6.404847e-09	1.441134e+00	4.163861e+02
2.470000e-06	6.884482e-08	5.448183e-09	4.944297e-01	3.539675e+02
2.480000e-06	-6.298897e-08	4.490784e-09	-4.523742e-01	2.912848e+02
2.490000e-06	-1.948135e-07	3.535949e-09	-1.399111e+00	2.286221e+02
2.500000e-06	-3.265549e-07	2.581123e-09	-2.345252e+00	1.660594e+02
2.510000e-06	-4.581210e-07	1.623653e-09	-3.290133e+00	1.034635e+02
2.520000e-06	-5.895918e-07	6.588231e-10	-4.234330e+00	4.052053e+01
2.530000e-06	-7.209706e-07	-3.161111e-10	-5.177867e+00	-2.319285e+01
2.540000e-06	-8.520574e-07	-1.307312e-09	-6.119305e+00	-8.811232e+01
2.550000e-06	-9.827562e-07	-2.320295e-09	-7.057958e+00	-1.545792e+02
2.560000e-06	-1.113053e-06	-3.357983e-09	-7.993721e+00	-2.227450e+02
2.570000e-06	-1.242930e-06	-4.421809e-09	-8.926477e+00	-2.925048e+02
2.580000e-06	-1.372459e-06	-5.508663e-09	-9.856723e+00	-3.634742e+02
2.590000e-06	-1.501626e-06	-6.607521e-09	-1.078438e+01	-4.350115e+02
2.600000e-06	-1.630348e-06	-7.702613e-09	-1.170883e+01	-5.062843e+02
2.610000e-06	-1.758557e-06	-8.776639e-09	-1.262961e+01	-5.763657e+02
2.620000e-06	-1.886106e-06	-9.816059e-09	-1.354563e+01	-6.443424e+02
2.630000e-06	-2.012764e-06	-1.081153e-08	-1.445527e+01	-7.094174e+02
2.640000e-06	-2.138491e-06	-1.175283e-08	-1.535822e+01	-7.709870e+02
2.650000e-06	-2.263436e-06	-1.263627e-08	-1.625555e+01	-8.286845e+02
2.660000e-06	-2.387593e-06	-1.345957e-08	-1.714722e+01	-8.823835e+02
2.670000e-06	-2.510876e-06	-1.422388e-08	-1.803261e+01	-9.321673e+02
2.680000e-06	-2.633151e-06	-1.493323e-08	-1.891076e+01	-9.782736e+02
2.690000e-06	-2.754399e-06	-1.559048e-08	-1.978154e+01	-1.021028e+03
2.700000e-06	-2.874756e-06	-1.620085e-08	-2.064592e+01	-1.060782e+03
2.710000e-06	-2.994046e-06	-1.677116e-08	-2.150264e+01	-1.097860e+03
2.720000e-06	-3.111971e-06	-1.730413e-08	-2.234955e+01	-1.132534e+03
2.730000e-06	-3.228645e-06	-1.779854e-08	-2.318748e+01	-1.165016e+03
2.740000e-06	-3.344172e-06	-1.825942e-08	-2.401718e+01	-1.195464e+03
2.750000e-06	-3.458304e-06	-1.869338e-08	-2.483685e+01	-1.224005e+03
2.760000e-06	-3.570907e-06	-1.910375e-08	-2.564554e+01	-1.250754e+03
2.770000e-06	-3.682117e-06	-1.949144e-08	-2.644422e+01	-1.275830e+03
2.780000e-06	-3.792031e-06	-1.985426e-08	-2.723361e+01	-1.299365e+03
2.790000e-06	-3.900709e-06	-2.019197e-08	-2.801411e+01	-1.321501e+03
2.800000e-06	-4.008175e-06	-2.050878e-08	-2.878591e+01	-1.342379e+03
2.810000e-06	-4.114299e-06	-2.080972e-08	-2.954808e+01	-1.362127e+03
2.820000e-06	-4.219015e-06	-2.109626e-08	-3.030012e+01	-1.380851e+03
2.830000e-06	-4.322145e-06	-2.136870e-08	-3.104078e+01	-1.398627e+03
2.840000e-06	-4.423577e-06	-2.162759e-08	-3.176924e+01	-1.415505e+03
2.850000e-06	-4.523488e-06	-2.187430e-08	-3.248678e+01	-1.431514e+03
2.860000e-06	-4.621880e-06	-2.210881e-08	-3.319342e+01	-1.446677e+03
2.870000e-06	-4.718709e-06	-2.233016e-08	-3.388882e+01	-1.461019e+03
2.880000e-06	-4.813775e-06	-2.253933e-08	-3.457157e+01	-1.474579e+03
2.890000e-06	-4.907013e-06	-2.273612e-08	-3.524119e+01	-1.487408e+03
2.900000e-06	-4.998558e-06	-2.292129e-08	-3.589864e+01	-1.499567e+03
2.910000e-06	-5.088362e-06	-2.309703e-08	-3.654360e+01	-1.511122e+03
2.920000e-06	-5.176334e-06	-2.326536e-08	-3.717540e+01	-1.522129e+03
2.930000e-06	-5.262288e-06	-2.342651e-08	-3.779270e+01	-1.532632e+03
2.940000e-06	-5.346289e-06	-2.357920e-08	-3.839597e+01	-1.542650e+03
