# Temperatura_=_88.54
# Concentracion g/m^3_=_28200.0
# C_Vs_to_Am_M_A/Vsm_=_65563218390.804596
# pendiente_HvsI_1/m_=_3716.3
# ordenada_HvsI_A/m_=_1297.0
# frecuencia_Hz_=_302270.1882560249

Tiempo_(s)	Campo_(V.s)	Magnetizacion_(V.s)	Campo_(kA/m)	Magnetizacion_(A/m)
0.000000e+00	-6.894124e-06	-3.186866e-08	-4.952194e+01	-2.086802e+03
1.000000e-08	-6.890849e-06	-3.186365e-08	-4.949841e+01	-2.086182e+03
2.000000e-08	-6.885332e-06	-3.184916e-08	-4.945879e+01	-2.085310e+03
3.000000e-08	-6.877693e-06	-3.183227e-08	-4.940391e+01	-2.084203e+03
4.000000e-08	-6.867646e-06	-3.181383e-08	-4.933174e+01	-2.082883e+03
5.000000e-08	-6.855037e-06	-3.178986e-08	-4.924117e+01	-2.081371e+03
6.000000e-08	-6.839845e-06	-3.176234e-08	-4.913204e+01	-2.079680e+03
7.000000e-08	-6.822286e-06	-3.172712e-08	-4.900591e+01	-2.077820e+03
8.000000e-08	-6.802758e-06	-3.168646e-08	-4.886564e+01	-2.075795e+03
9.000000e-08	-6.781013e-06	-3.171251e-08	-4.870944e+01	-2.073609e+03
1.000000e-07	-6.756583e-06	-3.170427e-08	-4.853395e+01	-2.071275e+03
1.100000e-07	-6.729364e-06	-3.161301e-08	-4.833843e+01	-2.068805e+03
1.200000e-07	-6.699677e-06	-3.155139e-08	-4.812518e+01	-2.066218e+03
1.300000e-07	-6.667818e-06	-3.151473e-08	-4.789634e+01	-2.063528e+03
1.400000e-07	-6.633809e-06	-3.140942e-08	-4.765204e+01	-2.060734e+03
1.500000e-07	-6.597991e-06	-3.132579e-08	-4.739475e+01	-2.057822e+03
1.600000e-07	-6.560374e-06	-3.141918e-08	-4.712454e+01	-2.054751e+03
1.700000e-07	-6.520577e-06	-3.129369e-08	-4.683867e+01	-2.051463e+03
1.800000e-07	-6.478478e-06	-3.118163e-08	-4.653627e+01	-2.047891e+03
1.900000e-07	-6.433917e-06	-3.121352e-08	-4.621618e+01	-2.043969e+03
2.000000e-07	-6.386983e-06	-3.103872e-08	-4.587904e+01	-2.039645e+03
2.100000e-07	-6.337647e-06	-3.098050e-08	-4.552464e+01	-2.034896e+03
2.200000e-07	-6.285610e-06	-3.094445e-08	-4.515085e+01	-2.029732e+03
2.300000e-07	-6.231053e-06	-3.084651e-08	-4.475896e+01	-2.024190e+03
2.400000e-07	-6.174172e-06	-3.079897e-08	-4.435038e+01	-2.018326e+03
2.500000e-07	-6.114894e-06	-3.067542e-08	-4.392456e+01	-2.012201e+03
2.600000e-07	-6.053350e-06	-3.058030e-08	-4.348248e+01	-2.005859e+03
2.700000e-07	-5.989578e-06	-3.047624e-08	-4.302440e+01	-1.999321e+03
2.800000e-07	-5.923503e-06	-3.035874e-08	-4.254977e+01	-1.992574e+03
2.900000e-07	-5.855224e-06	-3.025919e-08	-4.205930e+01	-1.985577e+03
3.000000e-07	-5.784791e-06	-3.014351e-08	-4.155336e+01	-1.978272e+03
3.100000e-07	-5.712169e-06	-3.004939e-08	-4.103171e+01	-1.970598e+03
3.200000e-07	-5.637266e-06	-2.989860e-08	-4.049366e+01	-1.962506e+03
3.300000e-07	-5.559988e-06	-2.977553e-08	-3.993856e+01	-1.953976e+03
3.400000e-07	-5.480366e-06	-2.963590e-08	-3.936662e+01	-1.945011e+03
3.500000e-07	-5.398684e-06	-2.948770e-08	-3.877988e+01	-1.935639e+03
3.600000e-07	-5.315268e-06	-2.936475e-08	-3.818068e+01	-1.925898e+03
3.700000e-07	-5.230126e-06	-2.919868e-08	-3.756909e+01	-1.915818e+03
3.800000e-07	-5.143283e-06	-2.903984e-08	-3.694528e+01	-1.905410e+03
3.900000e-07	-5.054690e-06	-2.886933e-08	-3.630890e+01	-1.894655e+03
4.000000e-07	-4.964207e-06	-2.869356e-08	-3.565894e+01	-1.883507e+03
4.100000e-07	-4.871942e-06	-2.850711e-08	-3.499618e+01	-1.871902e+03
4.200000e-07	-4.778085e-06	-2.832966e-08	-3.432199e+01	-1.859772e+03
4.300000e-07	-4.682640e-06	-2.814622e-08	-3.363638e+01	-1.847065e+03
4.400000e-07	-4.585477e-06	-2.793706e-08	-3.293844e+01	-1.833751e+03
4.500000e-07	-4.486574e-06	-2.772176e-08	-3.222800e+01	-1.819831e+03
4.600000e-07	-4.386024e-06	-2.749883e-08	-3.150573e+01	-1.805329e+03
4.700000e-07	-4.283939e-06	-2.727040e-08	-3.077243e+01	-1.790278e+03
4.800000e-07	-4.180374e-06	-2.703495e-08	-3.002851e+01	-1.774703e+03
4.900000e-07	-4.075324e-06	-2.679599e-08	-2.927391e+01	-1.758604e+03
5.000000e-07	-3.968704e-06	-2.654167e-08	-2.850803e+01	-1.741943e+03
5.100000e-07	-3.860550e-06	-2.627155e-08	-2.773114e+01	-1.724650e+03
5.200000e-07	-3.751135e-06	-2.598748e-08	-2.694519e+01	-1.706628e+03
5.300000e-07	-3.640444e-06	-2.569311e-08	-2.615007e+01	-1.687772e+03
5.400000e-07	-3.528379e-06	-2.538721e-08	-2.534509e+01	-1.667992e+03
5.500000e-07	-3.414870e-06	-2.506981e-08	-2.452973e+01	-1.647223e+03
5.600000e-07	-3.299805e-06	-2.474160e-08	-2.370319e+01	-1.625436e+03
5.700000e-07	-3.183296e-06	-2.439548e-08	-2.286628e+01	-1.602629e+03
5.800000e-07	-3.065581e-06	-2.403054e-08	-2.202071e+01	-1.578809e+03
5.900000e-07	-2.946738e-06	-2.364913e-08	-2.116704e+01	-1.553973e+03
6.000000e-07	-2.826838e-06	-2.325559e-08	-2.030577e+01	-1.528082e+03
6.100000e-07	-2.705998e-06	-2.284293e-08	-1.943775e+01	-1.501048e+03
6.200000e-07	-2.584086e-06	-2.240962e-08	-1.856203e+01	-1.472731e+03
6.300000e-07	-2.461080e-06	-2.195207e-08	-1.767845e+01	-1.442952e+03
6.400000e-07	-2.337124e-06	-2.146688e-08	-1.678805e+01	-1.411511e+03
6.500000e-07	-2.212343e-06	-2.095213e-08	-1.589172e+01	-1.378215e+03
6.600000e-07	-2.086924e-06	-2.041031e-08	-1.499081e+01	-1.342897e+03
6.700000e-07	-1.960874e-06	-1.984204e-08	-1.408537e+01	-1.305420e+03
6.800000e-07	-1.834078e-06	-1.924296e-08	-1.317457e+01	-1.265677e+03
6.900000e-07	-1.706593e-06	-1.860541e-08	-1.225881e+01	-1.223562e+03
7.000000e-07	-1.578552e-06	-1.792322e-08	-1.133907e+01	-1.178949e+03
7.100000e-07	-1.450028e-06	-1.720052e-08	-1.041585e+01	-1.131664e+03
7.200000e-07	-1.321078e-06	-1.643041e-08	-9.489577e+00	-1.081473e+03
7.300000e-07	-1.191728e-06	-1.561036e-08	-8.560435e+00	-1.028100e+03
7.400000e-07	-1.061935e-06	-1.473902e-08	-7.628103e+00	-9.712625e+02
7.500000e-07	-9.317406e-07	-1.381379e-08	-6.692888e+00	-9.107280e+02
7.600000e-07	-8.011707e-07	-1.283148e-08	-5.754977e+00	-8.463830e+02
7.700000e-07	-6.702529e-07	-1.179416e-08	-4.814567e+00	-7.782893e+02
7.800000e-07	-5.391105e-07	-1.070687e-08	-3.872544e+00	-7.067151e+02
7.900000e-07	-4.078227e-07	-9.574524e-09	-2.929476e+00	-6.321289e+02
8.000000e-07	-2.763701e-07	-8.405987e-09	-1.985224e+00	-5.551480e+02
8.100000e-07	-1.447944e-07	-7.207310e-09	-1.040088e+00	-4.764501e+02
8.200000e-07	-1.314899e-08	-5.989949e-09	-9.445194e-02	-3.966630e+02
8.300000e-07	1.185511e-07	-4.762519e-09	8.515777e-01	-3.162550e+02
8.400000e-07	2.502842e-07	-3.529661e-09	1.797844e+00	-2.354524e+02
8.500000e-07	3.819637e-07	-2.288894e-09	2.743726e+00	-1.542045e+02
8.600000e-07	5.134385e-07	-1.039176e-09	3.688136e+00	-7.220979e+01
8.700000e-07	6.447003e-07	2.254327e-10	4.631018e+00	1.099983e+01
8.800000e-07	7.758135e-07	1.512986e-09	5.572831e+00	9.592813e+01
8.900000e-07	9.066872e-07	2.830542e-09	6.512924e+00	1.829643e+02
9.000000e-07	1.037221e-06	4.186561e-09	7.450576e+00	2.722428e+02
9.100000e-07	1.167347e-06	5.577362e-09	8.385296e+00	3.635442e+02
9.200000e-07	1.296988e-06	6.993155e-09	9.316534e+00	4.562577e+02
9.300000e-07	1.426157e-06	8.417055e-09	1.024439e+01	5.494155e+02
9.400000e-07	1.554844e-06	9.830500e-09	1.116877e+01	6.417931e+02
9.500000e-07	1.682949e-06	1.120951e-08	1.208898e+01	7.320566e+02
9.600000e-07	1.810451e-06	1.253021e-08	1.300485e+01	8.189279e+02
9.700000e-07	1.937264e-06	1.377699e-08	1.391578e+01	9.013377e+02
9.800000e-07	2.063272e-06	1.494095e-08	1.482092e+01	9.785374e+02
9.900000e-07	2.188590e-06	1.602045e-08	1.572110e+01	1.050153e+03
1.000000e-06	2.313272e-06	1.701624e-08	1.661671e+01	1.116176e+03
1.010000e-06	2.437216e-06	1.793617e-08	1.750704e+01	1.176898e+03
1.020000e-06	2.560236e-06	1.878812e-08	1.839071e+01	1.232810e+03
1.030000e-06	2.682195e-06	1.958209e-08	1.926677e+01	1.284492e+03
1.040000e-06	2.803088e-06	2.031792e-08	2.013517e+01	1.332505e+03
1.050000e-06	2.922900e-06	2.100081e-08	2.099580e+01	1.377323e+03
1.060000e-06	3.041576e-06	2.163680e-08	2.184828e+01	1.419297e+03
1.070000e-06	3.159154e-06	2.222951e-08	2.269286e+01	1.458659e+03
1.080000e-06	3.275577e-06	2.278466e-08	2.352916e+01	1.495553e+03
1.090000e-06	3.390615e-06	2.330608e-08	2.435550e+01	1.530082e+03
1.100000e-06	3.504292e-06	2.379448e-08	2.517206e+01	1.562353e+03
1.110000e-06	3.616650e-06	2.425188e-08	2.597915e+01	1.592504e+03
1.120000e-06	3.727636e-06	2.468326e-08	2.677639e+01	1.620715e+03
1.130000e-06	3.837380e-06	2.509021e-08	2.756471e+01	1.647200e+03
1.140000e-06	3.945986e-06	2.547521e-08	2.834484e+01	1.672179e+03
1.150000e-06	4.053296e-06	2.583755e-08	2.911567e+01	1.695852e+03
1.160000e-06	4.159089e-06	2.618108e-08	2.987561e+01	1.718375e+03
1.170000e-06	4.263269e-06	2.650761e-08	3.062396e+01	1.739846e+03
1.180000e-06	4.365879e-06	2.681684e-08	3.136103e+01	1.760310e+03
1.190000e-06	4.467021e-06	2.710767e-08	3.208755e+01	1.779775e+03
1.200000e-06	4.566615e-06	2.738330e-08	3.280295e+01	1.798235e+03
1.210000e-06	4.664479e-06	2.764546e-08	3.350593e+01	1.815694e+03
1.220000e-06	4.760538e-06	2.789503e-08	3.419595e+01	1.832178e+03
1.230000e-06	4.854890e-06	2.813318e-08	3.487369e+01	1.847749e+03
1.240000e-06	4.947636e-06	2.836060e-08	3.553990e+01	1.862490e+03
1.250000e-06	5.038701e-06	2.857642e-08	3.619405e+01	1.876498e+03
1.260000e-06	5.127886e-06	2.878049e-08	3.683468e+01	1.889865e+03
1.270000e-06	5.215093e-06	2.897153e-08	3.746111e+01	1.902659e+03
1.280000e-06	5.300490e-06	2.915262e-08	3.807453e+01	1.914921e+03
1.290000e-06	5.384096e-06	2.932781e-08	3.867509e+01	1.926663e+03
1.300000e-06	5.465697e-06	2.949576e-08	3.926125e+01	1.937877e+03
1.310000e-06	5.545198e-06	2.965584e-08	3.983232e+01	1.948545e+03
1.320000e-06	5.622709e-06	2.981029e-08	4.038910e+01	1.958656e+03
1.330000e-06	5.698123e-06	2.996033e-08	4.093081e+01	1.968216e+03
1.340000e-06	5.771199e-06	3.010297e-08	4.145574e+01	1.977245e+03
1.350000e-06	5.842104e-06	3.023641e-08	4.196506e+01	1.985781e+03
1.360000e-06	5.911049e-06	3.036118e-08	4.246031e+01	1.993864e+03
1.370000e-06	5.977885e-06	3.048008e-08	4.294040e+01	2.001531e+03
1.380000e-06	6.042489e-06	3.059164e-08	4.340447e+01	2.008809e+03
1.390000e-06	6.104987e-06	3.069397e-08	4.385340e+01	2.015708e+03
1.400000e-06	6.165531e-06	3.078909e-08	4.428830e+01	2.022224e+03
1.410000e-06	6.223946e-06	3.088188e-08	4.470791e+01	2.028353e+03
1.420000e-06	6.280082e-06	3.097158e-08	4.511114e+01	2.034090e+03
1.430000e-06	6.333922e-06	3.105406e-08	4.549789e+01	2.039446e+03
1.440000e-06	6.385206e-06	3.113099e-08	4.586627e+01	2.044446e+03
1.450000e-06	6.433836e-06	3.120423e-08	4.621559e+01	2.049129e+03
1.460000e-06	6.480060e-06	3.127296e-08	4.654763e+01	2.053540e+03
1.470000e-06	6.524145e-06	3.133619e-08	4.686430e+01	2.057717e+03
1.480000e-06	6.565913e-06	3.139663e-08	4.716433e+01	2.061685e+03
1.490000e-06	6.605225e-06	3.145381e-08	4.744671e+01	2.065448e+03
1.500000e-06	6.642308e-06	3.150673e-08	4.771309e+01	2.068987e+03
1.510000e-06	6.677130e-06	3.155501e-08	4.796323e+01	2.072266e+03
1.520000e-06	6.709467e-06	3.159905e-08	4.819551e+01	2.075243e+03
1.530000e-06	6.739414e-06	3.163896e-08	4.841063e+01	2.077883e+03
1.540000e-06	6.767159e-06	3.167482e-08	4.860992e+01	2.080169e+03
1.550000e-06	6.792419e-06	3.170649e-08	4.879137e+01	2.082104e+03
1.560000e-06	6.815063e-06	3.173238e-08	4.895403e+01	2.083717e+03
1.570000e-06	6.835352e-06	3.175259e-08	4.909977e+01	2.085051e+03
1.580000e-06	6.853222e-06	3.177047e-08	4.922813e+01	2.086153e+03
1.590000e-06	6.868531e-06	3.178558e-08	4.933810e+01	2.087067e+03
1.600000e-06	6.881318e-06	3.179596e-08	4.942995e+01	2.087818e+03
1.610000e-06	6.891405e-06	3.180348e-08	4.950240e+01	2.088411e+03
1.620000e-06	6.898742e-06	3.181161e-08	4.955511e+01	2.088835e+03
1.630000e-06	6.903647e-06	3.181927e-08	4.959035e+01	2.089062e+03
1.640000e-06	6.906163e-06	3.182058e-08	4.960842e+01	2.089064e+03
1.650000e-06	6.906230e-06	3.181889e-08	4.960890e+01	2.088816e+03
1.660000e-06	6.903975e-06	3.180697e-08	4.959270e+01	2.088308e+03
1.670000e-06	6.899480e-06	3.179215e-08	4.956041e+01	2.087542e+03
1.680000e-06	6.892631e-06	3.177787e-08	4.951121e+01	2.086533e+03
1.690000e-06	6.883471e-06	3.176099e-08	4.944542e+01	2.085301e+03
1.700000e-06	6.872059e-06	3.174417e-08	4.936344e+01	2.083869e+03
1.710000e-06	6.858203e-06	3.172582e-08	4.926391e+01	2.082253e+03
1.720000e-06	6.842052e-06	3.171258e-08	4.914790e+01	2.080465e+03
1.730000e-06	6.823867e-06	3.167937e-08	4.901727e+01	2.078509e+03
1.740000e-06	6.803406e-06	3.155927e-08	4.887029e+01	2.076391e+03
1.750000e-06	6.779889e-06	3.153109e-08	4.870136e+01	2.074119e+03
1.760000e-06	6.753161e-06	3.155231e-08	4.850937e+01	2.071705e+03
1.770000e-06	6.723788e-06	3.150213e-08	4.829838e+01	2.069166e+03
1.780000e-06	6.692221e-06	3.149168e-08	4.807163e+01	2.066518e+03
1.790000e-06	6.658944e-06	3.152650e-08	4.783259e+01	2.063769e+03
1.800000e-06	6.624236e-06	3.136218e-08	4.758327e+01	2.060911e+03
1.810000e-06	6.587444e-06	3.134705e-08	4.731899e+01	2.057913e+03
1.820000e-06	6.548071e-06	3.140769e-08	4.703617e+01	2.054727e+03
1.830000e-06	6.506541e-06	3.123826e-08	4.673785e+01	2.051285e+03
1.840000e-06	6.462843e-06	3.133132e-08	4.642395e+01	2.047520e+03
1.850000e-06	6.416822e-06	3.123048e-08	4.609338e+01	2.043372e+03
1.860000e-06	6.368458e-06	3.107232e-08	4.574597e+01	2.038806e+03
1.870000e-06	6.317660e-06	3.107448e-08	4.538108e+01	2.033816e+03
1.880000e-06	6.264404e-06	3.087214e-08	4.499853e+01	2.028430e+03
1.890000e-06	6.208517e-06	3.087952e-08	4.459708e+01	2.022696e+03
1.900000e-06	6.150213e-06	3.079472e-08	4.417827e+01	2.016676e+03
1.910000e-06	6.089669e-06	3.065600e-08	4.374337e+01	2.010422e+03
1.920000e-06	6.026713e-06	3.065180e-08	4.329114e+01	2.003967e+03
1.930000e-06	5.961578e-06	3.046985e-08	4.282326e+01	1.997313e+03
1.940000e-06	5.894330e-06	3.040091e-08	4.234021e+01	1.990430e+03
1.950000e-06	5.824811e-06	3.024711e-08	4.184084e+01	1.983264e+03
1.960000e-06	5.752938e-06	3.013890e-08	4.132456e+01	1.975755e+03
1.970000e-06	5.678837e-06	3.005798e-08	4.079228e+01	1.967846e+03
1.980000e-06	5.602533e-06	2.987982e-08	4.024417e+01	1.959504e+03
1.990000e-06	5.523890e-06	2.980623e-08	3.967926e+01	1.950723e+03
2.000000e-06	5.443196e-06	2.962604e-08	3.909962e+01	1.941521e+03
2.010000e-06	5.360678e-06	2.950117e-08	3.850688e+01	1.931933e+03
2.020000e-06	5.276352e-06	2.934311e-08	3.790115e+01	1.921996e+03
2.030000e-06	5.189995e-06	2.917282e-08	3.728082e+01	1.911728e+03
2.040000e-06	5.101601e-06	2.904531e-08	3.664587e+01	1.901125e+03
2.050000e-06	5.011560e-06	2.885864e-08	3.599909e+01	1.890152e+03
2.060000e-06	4.919911e-06	2.869739e-08	3.534076e+01	1.878751e+03
2.070000e-06	4.826573e-06	2.848710e-08	3.467028e+01	1.866854e+03
2.080000e-06	4.731502e-06	2.831102e-08	3.398737e+01	1.854400e+03
2.090000e-06	4.634717e-06	2.811195e-08	3.329214e+01	1.841347e+03
2.100000e-06	4.536362e-06	2.790886e-08	3.258564e+01	1.827685e+03
2.110000e-06	4.436491e-06	2.770334e-08	3.186824e+01	1.813428e+03
2.120000e-06	4.335063e-06	2.747293e-08	3.113967e+01	1.798608e+03
2.130000e-06	4.231905e-06	2.723850e-08	3.039866e+01	1.783255e+03
2.140000e-06	4.127117e-06	2.697994e-08	2.964595e+01	1.767383e+03
2.150000e-06	4.020962e-06	2.673791e-08	2.888341e+01	1.750969e+03
2.160000e-06	3.913480e-06	2.648032e-08	2.811134e+01	1.733957e+03
2.170000e-06	3.804639e-06	2.622237e-08	2.732952e+01	1.716260e+03
2.180000e-06	3.694383e-06	2.593935e-08	2.653753e+01	1.697774e+03
2.190000e-06	3.582698e-06	2.564399e-08	2.573527e+01	1.678399e+03
2.200000e-06	3.469603e-06	2.533053e-08	2.492289e+01	1.658059e+03
2.210000e-06	3.355129e-06	2.500592e-08	2.410060e+01	1.636710e+03
2.220000e-06	3.239270e-06	2.467184e-08	2.326836e+01	1.614338e+03
2.230000e-06	3.122031e-06	2.432254e-08	2.242620e+01	1.590951e+03
2.240000e-06	3.003382e-06	2.395572e-08	2.157392e+01	1.566553e+03
2.250000e-06	2.883495e-06	2.356533e-08	2.071275e+01	1.541121e+03
2.260000e-06	2.762622e-06	2.315957e-08	1.984449e+01	1.514591e+03
2.270000e-06	2.640822e-06	2.273082e-08	1.896958e+01	1.486844e+03
2.280000e-06	2.518088e-06	2.228823e-08	1.808796e+01	1.457715e+03
2.290000e-06	2.394420e-06	2.182176e-08	1.719962e+01	1.427010e+03
2.300000e-06	2.269927e-06	2.132967e-08	1.630536e+01	1.394532e+03
2.310000e-06	2.144764e-06	2.080235e-08	1.540629e+01	1.360098e+03
2.320000e-06	2.018883e-06	2.024587e-08	1.450206e+01	1.323560e+03
2.330000e-06	1.892125e-06	1.965867e-08	1.359153e+01	1.284801e+03
2.340000e-06	1.764582e-06	1.903801e-08	1.267536e+01	1.243715e+03
2.350000e-06	1.636393e-06	1.838063e-08	1.175455e+01	1.200191e+03
2.360000e-06	1.507662e-06	1.768020e-08	1.082985e+01	1.154076e+03
2.370000e-06	1.378522e-06	1.693259e-08	9.902215e+00	1.105162e+03
2.380000e-06	1.249039e-06	1.613260e-08	8.972112e+00	1.053188e+03
2.390000e-06	1.119217e-06	1.528243e-08	8.039568e+00	9.978677e+02
2.400000e-06	9.890833e-07	1.438007e-08	7.104793e+00	9.389395e+02
2.410000e-06	8.586283e-07	1.342748e-08	6.167707e+00	8.762311e+02
2.420000e-06	7.278519e-07	1.241995e-08	5.228313e+00	8.097231e+02
2.430000e-06	5.967714e-07	1.135623e-08	4.286734e+00	7.395939e+02
2.440000e-06	4.654631e-07	1.024135e-08	3.343519e+00	6.662297e+02
2.450000e-06	3.340224e-07	9.080929e-09	2.399353e+00	5.901929e+02
2.460000e-06	2.024460e-07	7.886472e-09	1.454212e+00	5.121481e+02
2.470000e-06	7.078426e-08	6.670352e-09	5.084582e-01	4.327585e+02
2.480000e-06	-6.093423e-08	5.441942e-09	-4.377034e-01	3.525731e+02
2.490000e-06	-1.926636e-07	4.206314e-09	-1.383943e+00	2.719292e+02
2.500000e-06	-3.242975e-07	2.962985e-09	-2.329497e+00	1.908954e+02
2.510000e-06	-4.558662e-07	1.711780e-09	-3.274583e+00	1.092706e+02
2.520000e-06	-5.873353e-07	4.490031e-10	-4.218953e+00	2.664431e+01
2.530000e-06	-7.186079e-07	-8.332956e-10	-5.161911e+00	-5.748993e+01
2.540000e-06	-8.496234e-07	-2.143631e-09	-6.103023e+00	-1.435888e+02
2.550000e-06	-9.802739e-07	-3.486096e-09	-7.041513e+00	-2.319113e+02
2.560000e-06	-1.110567e-06	-4.860933e-09	-7.977436e+00	-3.223980e+02
2.570000e-06	-1.240501e-06	-6.268857e-09	-8.910780e+00	-4.146060e+02
2.580000e-06	-1.370083e-06	-7.697438e-09	-9.841593e+00	-5.077116e+02
2.590000e-06	-1.499270e-06	-9.125949e-09	-1.076957e+01	-6.005846e+02
2.600000e-06	-1.627966e-06	-1.053087e-08	-1.169402e+01	-6.919180e+02
2.610000e-06	-1.756147e-06	-1.188788e-08	-1.261477e+01	-7.803897e+02
2.620000e-06	-1.883610e-06	-1.317873e-08	-1.353036e+01	-8.648242e+02
2.630000e-06	-2.010259e-06	-1.439133e-08	-1.444011e+01	-9.443252e+02
2.640000e-06	-2.136151e-06	-1.551912e-08	-1.534442e+01	-1.018356e+03
2.650000e-06	-2.261200e-06	-1.656277e-08	-1.624267e+01	-1.086756e+03
2.660000e-06	-2.385369e-06	-1.752706e-08	-1.713461e+01	-1.149698e+03
2.670000e-06	-2.508583e-06	-1.841847e-08	-1.801968e+01	-1.207604e+03
2.680000e-06	-2.630773e-06	-1.924323e-08	-1.889739e+01	-1.261028e+03
2.690000e-06	-2.752058e-06	-2.000626e-08	-1.976861e+01	-1.310549e+03
2.700000e-06	-2.872388e-06	-2.071623e-08	-2.063297e+01	-1.356687e+03
2.710000e-06	-2.991580e-06	-2.137927e-08	-2.148915e+01	-1.399845e+03
2.720000e-06	-3.109516e-06	-2.199809e-08	-2.233631e+01	-1.440305e+03
2.730000e-06	-3.226209e-06	-2.257616e-08	-2.317454e+01	-1.478242e+03
2.740000e-06	-3.341700e-06	-2.311674e-08	-2.400413e+01	-1.513774e+03
2.750000e-06	-3.455829e-06	-2.362045e-08	-2.482394e+01	-1.546998e+03
2.760000e-06	-3.568444e-06	-2.409252e-08	-2.563288e+01	-1.578038e+03
2.770000e-06	-3.679654e-06	-2.453663e-08	-2.643173e+01	-1.607056e+03
2.780000e-06	-3.789570e-06	-2.495413e-08	-2.722128e+01	-1.634254e+03
2.790000e-06	-3.898235e-06	-2.534999e-08	-2.800184e+01	-1.659852e+03
2.800000e-06	-4.005651e-06	-2.572497e-08	-2.877343e+01	-1.684064e+03
2.810000e-06	-4.111755e-06	-2.607884e-08	-2.953560e+01	-1.707064e+03
2.820000e-06	-4.216453e-06	-2.641228e-08	-3.028767e+01	-1.728978e+03
2.830000e-06	-4.319575e-06	-2.672913e-08	-3.102842e+01	-1.749871e+03
2.840000e-06	-4.421096e-06	-2.703176e-08	-3.175766e+01	-1.769765e+03
2.850000e-06	-4.521035e-06	-2.732075e-08	-3.247554e+01	-1.788657e+03
2.860000e-06	-4.619415e-06	-2.759428e-08	-3.318223e+01	-1.806543e+03
2.870000e-06	-4.716212e-06	-2.785046e-08	-3.387754e+01	-1.823440e+03
2.880000e-06	-4.811305e-06	-2.809355e-08	-3.456061e+01	-1.839393e+03
2.890000e-06	-4.904614e-06	-2.832704e-08	-3.523087e+01	-1.854479e+03
2.900000e-06	-4.996175e-06	-2.855196e-08	-3.588857e+01	-1.868790e+03
2.910000e-06	-5.086020e-06	-2.876700e-08	-3.653395e+01	-1.882421e+03
2.920000e-06	-5.174004e-06	-2.897167e-08	-3.716596e+01	-1.895454e+03
2.930000e-06	-5.259971e-06	-2.916546e-08	-3.778347e+01	-1.907942e+03
2.940000e-06	-5.343949e-06	-2.934619e-08	-3.838671e+01	-1.919908e+03
