# Temperatura_=_84.06
# Concentracion g/m^3_=_28200.0
# C_Vs_to_Am_M_A/Vsm_=_65563218390.804596
# pendiente_HvsI_1/m_=_3716.3
# ordenada_HvsI_A/m_=_1297.0
# frecuencia_Hz_=_302270.74282720557

Tiempo_(s)	Campo_(V.s)	Magnetizacion_(V.s)	Campo_(kA/m)	Magnetizacion_(A/m)
0.000000e+00	-6.927784e-06	-3.079732e-08	-4.952052e+01	-2.016514e+03
1.000000e-08	-6.924608e-06	-3.079251e-08	-4.949782e+01	-2.015963e+03
2.000000e-08	-6.919107e-06	-3.077831e-08	-4.945849e+01	-2.015191e+03
3.000000e-08	-6.911470e-06	-3.076336e-08	-4.940391e+01	-2.014211e+03
4.000000e-08	-6.901496e-06	-3.074793e-08	-4.933261e+01	-2.013036e+03
5.000000e-08	-6.888975e-06	-3.072685e-08	-4.924311e+01	-2.011674e+03
6.000000e-08	-6.873885e-06	-3.070181e-08	-4.913524e+01	-2.010129e+03
7.000000e-08	-6.856478e-06	-3.067073e-08	-4.901082e+01	-2.008402e+03
8.000000e-08	-6.837038e-06	-3.063419e-08	-4.887186e+01	-2.006496e+03
9.000000e-08	-6.815330e-06	-3.066081e-08	-4.871669e+01	-2.004419e+03
1.000000e-07	-6.790872e-06	-3.064819e-08	-4.854186e+01	-2.002188e+03
1.100000e-07	-6.763614e-06	-3.055618e-08	-4.834702e+01	-1.999827e+03
1.200000e-07	-6.733915e-06	-3.049900e-08	-4.813473e+01	-1.997365e+03
1.300000e-07	-6.701970e-06	-3.046445e-08	-4.790638e+01	-1.994822e+03
1.400000e-07	-6.667845e-06	-3.036373e-08	-4.766245e+01	-1.992203e+03
1.500000e-07	-6.631916e-06	-3.028232e-08	-4.740562e+01	-1.989490e+03
1.600000e-07	-6.594158e-06	-3.037393e-08	-4.713572e+01	-1.986638e+03
1.700000e-07	-6.554171e-06	-3.025991e-08	-4.684990e+01	-1.983577e+03
1.800000e-07	-6.511942e-06	-3.014530e-08	-4.654803e+01	-1.980231e+03
1.900000e-07	-6.467332e-06	-3.018199e-08	-4.622916e+01	-1.976525e+03
2.000000e-07	-6.420312e-06	-3.002380e-08	-4.589305e+01	-1.972404e+03
2.100000e-07	-6.370780e-06	-2.995219e-08	-4.553899e+01	-1.967845e+03
2.200000e-07	-6.318496e-06	-2.991816e-08	-4.516527e+01	-1.962865e+03
2.300000e-07	-6.263766e-06	-2.982304e-08	-4.477405e+01	-1.957509e+03
2.400000e-07	-6.206658e-06	-2.976356e-08	-4.436584e+01	-1.951847e+03
2.500000e-07	-6.147140e-06	-2.965913e-08	-4.394040e+01	-1.945947e+03
2.600000e-07	-6.085424e-06	-2.957510e-08	-4.349924e+01	-1.939863e+03
2.700000e-07	-6.021453e-06	-2.946273e-08	-4.304197e+01	-1.933614e+03
2.800000e-07	-5.955249e-06	-2.935893e-08	-4.256874e+01	-1.927186e+03
2.900000e-07	-5.886775e-06	-2.927206e-08	-4.207928e+01	-1.920529e+03
3.000000e-07	-5.816091e-06	-2.915572e-08	-4.157402e+01	-1.913576e+03
3.100000e-07	-5.743247e-06	-2.906832e-08	-4.105333e+01	-1.906253e+03
3.200000e-07	-5.668104e-06	-2.892883e-08	-4.051620e+01	-1.898508e+03
3.300000e-07	-5.590574e-06	-2.880005e-08	-3.996200e+01	-1.890314e+03
3.400000e-07	-5.510677e-06	-2.866021e-08	-3.939089e+01	-1.881679e+03
3.500000e-07	-5.428767e-06	-2.851951e-08	-3.880539e+01	-1.872637e+03
3.600000e-07	-5.345119e-06	-2.839821e-08	-3.820747e+01	-1.863234e+03
3.700000e-07	-5.259726e-06	-2.824635e-08	-3.759707e+01	-1.853512e+03
3.800000e-07	-5.172600e-06	-2.809944e-08	-3.697428e+01	-1.843490e+03
3.900000e-07	-5.083601e-06	-2.793320e-08	-3.633811e+01	-1.833155e+03
4.000000e-07	-4.992708e-06	-2.776540e-08	-3.568840e+01	-1.822462e+03
4.100000e-07	-4.900091e-06	-2.758707e-08	-3.502636e+01	-1.811345e+03
4.200000e-07	-4.805853e-06	-2.741324e-08	-3.435273e+01	-1.799728e+03
4.300000e-07	-4.709980e-06	-2.723302e-08	-3.366742e+01	-1.787550e+03
4.400000e-07	-4.612360e-06	-2.703358e-08	-3.296963e+01	-1.774773e+03
4.500000e-07	-4.513063e-06	-2.682908e-08	-3.225985e+01	-1.761394e+03
4.600000e-07	-4.412158e-06	-2.661666e-08	-3.153856e+01	-1.747434e+03
4.700000e-07	-4.309685e-06	-2.639835e-08	-3.080607e+01	-1.732931e+03
4.800000e-07	-4.205679e-06	-2.617067e-08	-3.006263e+01	-1.717914e+03
4.900000e-07	-4.100148e-06	-2.593887e-08	-2.930829e+01	-1.702392e+03
5.000000e-07	-3.993104e-06	-2.569094e-08	-2.854312e+01	-1.686336e+03
5.100000e-07	-3.884562e-06	-2.542874e-08	-2.776726e+01	-1.669682e+03
5.200000e-07	-3.774698e-06	-2.515511e-08	-2.698194e+01	-1.652336e+03
5.300000e-07	-3.663527e-06	-2.487275e-08	-2.618727e+01	-1.634194e+03
5.400000e-07	-3.550891e-06	-2.458038e-08	-2.538214e+01	-1.615161e+03
5.500000e-07	-3.436756e-06	-2.427735e-08	-2.456629e+01	-1.595169e+03
5.600000e-07	-3.321156e-06	-2.396288e-08	-2.373997e+01	-1.574183e+03
5.700000e-07	-3.204169e-06	-2.363154e-08	-2.290373e+01	-1.552198e+03
5.800000e-07	-3.085945e-06	-2.328096e-08	-2.205866e+01	-1.529224e+03
5.900000e-07	-2.966591e-06	-2.291068e-08	-2.120550e+01	-1.505260e+03
6.000000e-07	-2.846127e-06	-2.252728e-08	-2.034441e+01	-1.480278e+03
6.100000e-07	-2.724605e-06	-2.212710e-08	-1.947576e+01	-1.454197e+03
6.200000e-07	-2.602055e-06	-2.170856e-08	-1.859976e+01	-1.426890e+03
6.300000e-07	-2.478512e-06	-2.126658e-08	-1.771666e+01	-1.398182e+03
6.400000e-07	-2.354029e-06	-2.080019e-08	-1.682684e+01	-1.367878e+03
6.500000e-07	-2.228723e-06	-2.030740e-08	-1.593114e+01	-1.335785e+03
6.600000e-07	-2.102772e-06	-1.978756e-08	-1.503083e+01	-1.301731e+03
6.700000e-07	-1.976207e-06	-1.923977e-08	-1.412613e+01	-1.265575e+03
6.800000e-07	-1.848891e-06	-1.865977e-08	-1.321607e+01	-1.227205e+03
6.900000e-07	-1.720784e-06	-1.804323e-08	-1.230034e+01	-1.186520e+03
7.000000e-07	-1.592056e-06	-1.738364e-08	-1.138018e+01	-1.143398e+03
7.100000e-07	-1.462854e-06	-1.668324e-08	-1.045663e+01	-1.097680e+03
7.200000e-07	-1.333254e-06	-1.593607e-08	-9.530237e+00	-1.049154e+03
7.300000e-07	-1.203246e-06	-1.514110e-08	-8.600928e+00	-9.975653e+02
7.400000e-07	-1.072739e-06	-1.429924e-08	-7.668046e+00	-9.426510e+02
7.500000e-07	-9.418297e-07	-1.340763e-08	-6.732297e+00	-8.841935e+02
7.600000e-07	-8.106357e-07	-1.246232e-08	-5.794508e+00	-8.220828e+02
7.700000e-07	-6.791795e-07	-1.146200e-08	-4.854846e+00	-7.563718e+02
7.800000e-07	-5.474529e-07	-1.041205e-08	-3.913250e+00	-6.873088e+02
7.900000e-07	-4.154691e-07	-9.318872e-09	-2.969816e+00	-6.153334e+02
8.000000e-07	-2.833677e-07	-8.189997e-09	-2.025542e+00	-5.410314e+02
8.100000e-07	-1.511254e-07	-7.032362e-09	-1.080260e+00	-4.650522e+02
8.200000e-07	-1.875988e-08	-5.857520e-09	-1.340975e-01	-3.880044e+02
8.300000e-07	1.136343e-07	-4.672525e-09	8.122698e-01	-3.103512e+02
8.400000e-07	2.460270e-07	-3.481065e-09	1.758627e+00	-2.323289e+02
8.500000e-07	3.783317e-07	-2.284417e-09	2.704354e+00	-1.539100e+02
8.600000e-07	5.104710e-07	-1.079418e-09	3.648900e+00	-7.482341e+01
8.700000e-07	6.424235e-07	1.397552e-10	4.592110e+00	5.368343e+00
8.800000e-07	7.742172e-07	1.379960e-09	5.534185e+00	8.714762e+01
8.900000e-07	9.057601e-07	2.649607e-09	6.474467e+00	1.708989e+02
9.000000e-07	1.036885e-06	3.954058e-09	7.411761e+00	2.567740e+02
9.100000e-07	1.167577e-06	5.290676e-09	8.345965e+00	3.445939e+02
9.200000e-07	1.297817e-06	6.652832e-09	9.276931e+00	4.338081e+02
9.300000e-07	1.427583e-06	8.023413e-09	1.020451e+01	5.235221e+02
9.400000e-07	1.556943e-06	9.383913e-09	1.112919e+01	6.125880e+02
9.500000e-07	1.685861e-06	1.071403e-08	1.205071e+01	6.997411e+02
9.600000e-07	1.814174e-06	1.199265e-08	1.296790e+01	7.837559e+02
9.700000e-07	1.941661e-06	1.320076e-08	1.387920e+01	8.635923e+02
9.800000e-07	2.068285e-06	1.432760e-08	1.478432e+01	9.385055e+02
9.900000e-07	2.194185e-06	1.537610e-08	1.568426e+01	1.008102e+03
1.000000e-06	2.319472e-06	1.634649e-08	1.657982e+01	1.072336e+03
1.010000e-06	2.444066e-06	1.724417e-08	1.747044e+01	1.131452e+03
1.020000e-06	2.567692e-06	1.807360e-08	1.835413e+01	1.185896e+03
1.030000e-06	2.690176e-06	1.884336e-08	1.922966e+01	1.236206e+03
1.040000e-06	2.811651e-06	1.955753e-08	2.009798e+01	1.282916e+03
1.050000e-06	2.932199e-06	2.022065e-08	2.095966e+01	1.326488e+03
1.060000e-06	3.051603e-06	2.083851e-08	2.181317e+01	1.367272e+03
1.070000e-06	3.169813e-06	2.141544e-08	2.265815e+01	1.405509e+03
1.080000e-06	3.286866e-06	2.195752e-08	2.349486e+01	1.441356e+03
1.090000e-06	3.402591e-06	2.246449e-08	2.432207e+01	1.474925e+03
1.100000e-06	3.516966e-06	2.293821e-08	2.513964e+01	1.506325e+03
1.110000e-06	3.630077e-06	2.338327e-08	2.594817e+01	1.535691e+03
1.120000e-06	3.741773e-06	2.380335e-08	2.674658e+01	1.563190e+03
1.130000e-06	3.852087e-06	2.419993e-08	2.753512e+01	1.589017e+03
1.140000e-06	3.961201e-06	2.457569e-08	2.831508e+01	1.613374e+03
1.150000e-06	4.068984e-06	2.493020e-08	2.908552e+01	1.636445e+03
1.160000e-06	4.175296e-06	2.526654e-08	2.984545e+01	1.658372e+03
1.170000e-06	4.280156e-06	2.558438e-08	3.059500e+01	1.679250e+03
1.180000e-06	4.383440e-06	2.588328e-08	3.133329e+01	1.699128e+03
1.190000e-06	4.485150e-06	2.616344e-08	3.206032e+01	1.718022e+03
1.200000e-06	4.585283e-06	2.642907e-08	3.277608e+01	1.735936e+03
1.210000e-06	4.683706e-06	2.668392e-08	3.347962e+01	1.752883e+03
1.220000e-06	4.780386e-06	2.692724e-08	3.417069e+01	1.768896e+03
1.230000e-06	4.875282e-06	2.715919e-08	3.484902e+01	1.784037e+03
1.240000e-06	4.968484e-06	2.738055e-08	3.551524e+01	1.798389e+03
1.250000e-06	5.059956e-06	2.759026e-08	3.616909e+01	1.812041e+03
1.260000e-06	5.149625e-06	2.778801e-08	3.681005e+01	1.825075e+03
1.270000e-06	5.237408e-06	2.797529e-08	3.743753e+01	1.837553e+03
1.280000e-06	5.323275e-06	2.815376e-08	3.805132e+01	1.849506e+03
1.290000e-06	5.407228e-06	2.832541e-08	3.865143e+01	1.860943e+03
1.300000e-06	5.489222e-06	2.848950e-08	3.923753e+01	1.871853e+03
1.310000e-06	5.569176e-06	2.864527e-08	3.980905e+01	1.882220e+03
1.320000e-06	5.647077e-06	2.879344e-08	4.036589e+01	1.892034e+03
1.330000e-06	5.722868e-06	2.893633e-08	4.090766e+01	1.901301e+03
1.340000e-06	5.796440e-06	2.907341e-08	4.143355e+01	1.910046e+03
1.350000e-06	5.867862e-06	2.920377e-08	4.194409e+01	1.918304e+03
1.360000e-06	5.937177e-06	2.932794e-08	4.243956e+01	1.926120e+03
1.370000e-06	6.004379e-06	2.944447e-08	4.291992e+01	1.933530e+03
1.380000e-06	6.069426e-06	2.955170e-08	4.338489e+01	1.940562e+03
1.390000e-06	6.132335e-06	2.965100e-08	4.383457e+01	1.947228e+03
1.400000e-06	6.193125e-06	2.974444e-08	4.426910e+01	1.953529e+03
1.410000e-06	6.251838e-06	2.983328e-08	4.468879e+01	1.959460e+03
1.420000e-06	6.308325e-06	2.991693e-08	4.509256e+01	1.965021e+03
1.430000e-06	6.362468e-06	2.999548e-08	4.547958e+01	1.970222e+03
1.440000e-06	6.414134e-06	3.007085e-08	4.584889e+01	1.975086e+03
1.450000e-06	6.463149e-06	3.014401e-08	4.619926e+01	1.979648e+03
1.460000e-06	6.509712e-06	3.021390e-08	4.653210e+01	1.983949e+03
1.470000e-06	6.554090e-06	3.027803e-08	4.684932e+01	1.988023e+03
1.480000e-06	6.596166e-06	3.033607e-08	4.715008e+01	1.991892e+03
1.490000e-06	6.635815e-06	3.038898e-08	4.743350e+01	1.995558e+03
1.500000e-06	6.673181e-06	3.043921e-08	4.770059e+01	1.999002e+03
1.510000e-06	6.708303e-06	3.048715e-08	4.795165e+01	2.002193e+03
1.520000e-06	6.741010e-06	3.053019e-08	4.818544e+01	2.005093e+03
1.530000e-06	6.771287e-06	3.056757e-08	4.840186e+01	2.007671e+03
1.540000e-06	6.799237e-06	3.060197e-08	4.860165e+01	2.009911e+03
1.550000e-06	6.824694e-06	3.063356e-08	4.878362e+01	2.011818e+03
1.560000e-06	6.847558e-06	3.066032e-08	4.894705e+01	2.013417e+03
1.570000e-06	6.868015e-06	3.068226e-08	4.909329e+01	2.014745e+03
1.580000e-06	6.886091e-06	3.069969e-08	4.922249e+01	2.015843e+03
1.590000e-06	6.901591e-06	3.071243e-08	4.933329e+01	2.016749e+03
1.600000e-06	6.914480e-06	3.072193e-08	4.942542e+01	2.017485e+03
1.610000e-06	6.924683e-06	3.072946e-08	4.949835e+01	2.018058e+03
1.620000e-06	6.932200e-06	3.073598e-08	4.955209e+01	2.018458e+03
1.630000e-06	6.937282e-06	3.074150e-08	4.958841e+01	2.018669e+03
1.640000e-06	6.939979e-06	3.074395e-08	4.960769e+01	2.018669e+03
1.650000e-06	6.940148e-06	3.074501e-08	4.960890e+01	2.018446e+03
1.660000e-06	6.937954e-06	3.073579e-08	4.959322e+01	2.017992e+03
1.670000e-06	6.933513e-06	3.072377e-08	4.956147e+01	2.017313e+03
1.680000e-06	6.926713e-06	3.071237e-08	4.951286e+01	2.016421e+03
1.690000e-06	6.917638e-06	3.069623e-08	4.944800e+01	2.015327e+03
1.700000e-06	6.906279e-06	3.067831e-08	4.936680e+01	2.014044e+03
1.710000e-06	6.892459e-06	3.066106e-08	4.926801e+01	2.012577e+03
1.720000e-06	6.876322e-06	3.064891e-08	4.915266e+01	2.010928e+03
1.730000e-06	6.858154e-06	3.061338e-08	4.902279e+01	2.009098e+03
1.740000e-06	6.837711e-06	3.049809e-08	4.887667e+01	2.007093e+03
1.750000e-06	6.814238e-06	3.047705e-08	4.870888e+01	2.004924e+03
1.760000e-06	6.787575e-06	3.050176e-08	4.851829e+01	2.002615e+03
1.770000e-06	6.758127e-06	3.045206e-08	4.830779e+01	2.000193e+03
1.780000e-06	6.726418e-06	3.044547e-08	4.808114e+01	1.997683e+03
1.790000e-06	6.693039e-06	3.048705e-08	4.784254e+01	1.995097e+03
1.800000e-06	6.658240e-06	3.032746e-08	4.759379e+01	1.992428e+03
1.810000e-06	6.621377e-06	3.029745e-08	4.733029e+01	1.989642e+03
1.820000e-06	6.581943e-06	3.036015e-08	4.704841e+01	1.986680e+03
1.830000e-06	6.540314e-06	3.021174e-08	4.675085e+01	1.983466e+03
1.840000e-06	6.496466e-06	3.029079e-08	4.643742e+01	1.979922e+03
1.850000e-06	6.450314e-06	3.020178e-08	4.610751e+01	1.975983e+03
1.860000e-06	6.401844e-06	3.005969e-08	4.576104e+01	1.971612e+03
1.870000e-06	6.350858e-06	3.005467e-08	4.539659e+01	1.966808e+03
1.880000e-06	6.297329e-06	2.987342e-08	4.501396e+01	1.961605e+03
1.890000e-06	6.241205e-06	2.986785e-08	4.461278e+01	1.956066e+03
1.900000e-06	6.182733e-06	2.977504e-08	4.419482e+01	1.950259e+03
1.910000e-06	6.121964e-06	2.966514e-08	4.376043e+01	1.944249e+03
1.920000e-06	6.058805e-06	2.964817e-08	4.330897e+01	1.938070e+03
1.930000e-06	5.993522e-06	2.946787e-08	4.284232e+01	1.931723e+03
1.940000e-06	5.926020e-06	2.941114e-08	4.235981e+01	1.925172e+03
1.950000e-06	5.856123e-06	2.925777e-08	4.186018e+01	1.918354e+03
1.960000e-06	5.783881e-06	2.914936e-08	4.134378e+01	1.911197e+03
1.970000e-06	5.709446e-06	2.907379e-08	4.081171e+01	1.903638e+03
1.980000e-06	5.632820e-06	2.891829e-08	4.026398e+01	1.895637e+03
1.990000e-06	5.553918e-06	2.884369e-08	3.969998e+01	1.887188e+03
2.000000e-06	5.472998e-06	2.866920e-08	3.912156e+01	1.878315e+03
2.010000e-06	5.390242e-06	2.854442e-08	3.853001e+01	1.869060e+03
2.020000e-06	5.305547e-06	2.838469e-08	3.792460e+01	1.859470e+03
2.030000e-06	5.218790e-06	2.822769e-08	3.730446e+01	1.849576e+03
2.040000e-06	5.130093e-06	2.809977e-08	3.667044e+01	1.839379e+03
2.050000e-06	5.039756e-06	2.792600e-08	3.602470e+01	1.828846e+03
2.060000e-06	4.947777e-06	2.777313e-08	3.536722e+01	1.817920e+03
2.070000e-06	4.854023e-06	2.757381e-08	3.469706e+01	1.806526e+03
2.080000e-06	4.758516e-06	2.740150e-08	3.401437e+01	1.794594e+03
2.090000e-06	4.661348e-06	2.720361e-08	3.331980e+01	1.782076e+03
2.100000e-06	4.562655e-06	2.700893e-08	3.261433e+01	1.768953e+03
2.110000e-06	4.462397e-06	2.680932e-08	3.189768e+01	1.755238e+03
2.120000e-06	4.360409e-06	2.659251e-08	3.116866e+01	1.740963e+03
2.130000e-06	4.256742e-06	2.636811e-08	3.042763e+01	1.726163e+03
2.140000e-06	4.151612e-06	2.612614e-08	2.967615e+01	1.710858e+03
2.150000e-06	4.045139e-06	2.589293e-08	2.891507e+01	1.695037e+03
2.160000e-06	3.937265e-06	2.564206e-08	2.814398e+01	1.678649e+03
2.170000e-06	3.827929e-06	2.539032e-08	2.736243e+01	1.661612e+03
2.180000e-06	3.717168e-06	2.511562e-08	2.657070e+01	1.643823e+03
2.190000e-06	3.604957e-06	2.483058e-08	2.576861e+01	1.625182e+03
2.200000e-06	3.491316e-06	2.452733e-08	2.495629e+01	1.605607e+03
2.210000e-06	3.376290e-06	2.421514e-08	2.413407e+01	1.585049e+03
2.220000e-06	3.259770e-06	2.389209e-08	2.330117e+01	1.563491e+03
2.230000e-06	3.141841e-06	2.355859e-08	2.245821e+01	1.540939e+03
2.240000e-06	3.022662e-06	2.320605e-08	2.160630e+01	1.517401e+03
2.250000e-06	2.902286e-06	2.282971e-08	2.074584e+01	1.492861e+03
2.260000e-06	2.780857e-06	2.243720e-08	1.987785e+01	1.467264e+03
2.270000e-06	2.658525e-06	2.202414e-08	1.900341e+01	1.440501e+03
2.280000e-06	2.535276e-06	2.159525e-08	1.812241e+01	1.412416e+03
2.290000e-06	2.411019e-06	2.114384e-08	1.723422e+01	1.382821e+03
2.300000e-06	2.285920e-06	2.067040e-08	1.633999e+01	1.351517e+03
2.310000e-06	2.160088e-06	2.016420e-08	1.544053e+01	1.318322e+03
2.320000e-06	2.033468e-06	1.962889e-08	1.453544e+01	1.283081e+03
2.330000e-06	1.906120e-06	1.906076e-08	1.362515e+01	1.245673e+03
2.340000e-06	1.778096e-06	1.846001e-08	1.271002e+01	1.205993e+03
2.350000e-06	1.649393e-06	1.782377e-08	1.179003e+01	1.163931e+03
2.360000e-06	1.520131e-06	1.714661e-08	1.086605e+01	1.119349e+03
2.370000e-06	1.390487e-06	1.642529e-08	9.939348e+00	1.072055e+03
2.380000e-06	1.260511e-06	1.565428e-08	9.010261e+00	1.021811e+03
2.390000e-06	1.130204e-06	1.483476e-08	8.078813e+00	9.683527e+02
2.400000e-06	9.995187e-07	1.396400e-08	7.144664e+00	9.114346e+02
2.410000e-06	8.684875e-07	1.304252e-08	6.208039e+00	8.508934e+02
2.420000e-06	7.371865e-07	1.206889e-08	5.269486e+00	7.867064e+02
2.430000e-06	6.055622e-07	1.104179e-08	4.328621e+00	7.190364e+02
2.440000e-06	4.736779e-07	9.965871e-09	3.385899e+00	6.482442e+02
2.450000e-06	3.416306e-07	8.847050e-09	2.442011e+00	5.748610e+02
2.460000e-06	2.093770e-07	7.694358e-09	1.496648e+00	4.995209e+02
2.470000e-06	7.698724e-08	6.518131e-09	5.503128e-01	4.228633e+02
2.480000e-06	-5.545222e-08	5.330173e-09	-3.963782e-01	3.454257e+02
2.490000e-06	-1.878752e-07	4.137737e-09	-1.342951e+00	2.675491e+02
2.500000e-06	-3.202087e-07	2.940377e-09	-2.288885e+00	1.893200e+02
2.510000e-06	-4.524579e-07	1.735127e-09	-3.234216e+00	1.105655e+02
2.520000e-06	-5.845886e-07	5.166921e-10	-4.178700e+00	3.090673e+01
2.530000e-06	-7.165088e-07	-7.202067e-10	-5.121679e+00	-5.013636e+01
2.540000e-06	-8.481717e-07	-1.981783e-09	-6.062819e+00	-1.330079e+02
2.550000e-06	-9.795225e-07	-3.273041e-09	-7.001728e+00	-2.179740e+02
2.560000e-06	-1.110439e-06	-4.595296e-09	-7.937531e+00	-3.050063e+02
2.570000e-06	-1.240895e-06	-5.948275e-09	-8.870044e+00	-3.937141e+02
2.580000e-06	-1.370951e-06	-7.323440e-09	-9.799702e+00	-4.833427e+02
2.590000e-06	-1.500616e-06	-8.702061e-09	-1.072656e+01	-5.728383e+02
2.600000e-06	-1.629859e-06	-1.005882e-08	-1.165040e+01	-6.609674e+02
2.610000e-06	-1.758665e-06	-1.137154e-08	-1.257112e+01	-7.464687e+02
2.620000e-06	-1.886799e-06	-1.262273e-08	-1.348703e+01	-8.282064e+02
2.630000e-06	-2.014051e-06	-1.379817e-08	-1.439665e+01	-9.052991e+02
2.640000e-06	-2.140470e-06	-1.489357e-08	-1.530030e+01	-9.771997e+02
2.650000e-06	-2.266151e-06	-1.590877e-08	-1.619868e+01	-1.043717e+03
2.660000e-06	-2.391037e-06	-1.684677e-08	-1.709138e+01	-1.104982e+03
2.670000e-06	-2.514956e-06	-1.771444e-08	-1.797716e+01	-1.161366e+03
2.680000e-06	-2.637830e-06	-1.851742e-08	-1.885548e+01	-1.213380e+03
2.690000e-06	-2.759738e-06	-1.926052e-08	-1.972689e+01	-1.261571e+03
2.700000e-06	-2.880753e-06	-1.995096e-08	-2.059192e+01	-1.306438e+03
2.710000e-06	-3.000639e-06	-2.059605e-08	-2.144888e+01	-1.348382e+03
2.720000e-06	-3.119201e-06	-2.120014e-08	-2.229637e+01	-1.387688e+03
2.730000e-06	-3.236617e-06	-2.176364e-08	-2.313567e+01	-1.424544e+03
2.740000e-06	-3.352803e-06	-2.228618e-08	-2.396618e+01	-1.459077e+03
2.750000e-06	-3.467556e-06	-2.277373e-08	-2.478645e+01	-1.491392e+03
2.760000e-06	-3.580891e-06	-2.323351e-08	-2.559658e+01	-1.521612e+03
2.770000e-06	-3.692855e-06	-2.366466e-08	-2.639691e+01	-1.549888e+03
2.780000e-06	-3.803441e-06	-2.407148e-08	-2.718739e+01	-1.576407e+03
2.790000e-06	-3.912695e-06	-2.445911e-08	-2.796835e+01	-1.601371e+03
2.800000e-06	-4.020657e-06	-2.482543e-08	-2.874007e+01	-1.624973e+03
2.810000e-06	-4.127269e-06	-2.516988e-08	-2.950214e+01	-1.647375e+03
2.820000e-06	-4.232514e-06	-2.549353e-08	-3.025445e+01	-1.668695e+03
2.830000e-06	-4.336200e-06	-2.580259e-08	-3.099561e+01	-1.688999e+03
2.840000e-06	-4.438341e-06	-2.609732e-08	-3.172572e+01	-1.708314e+03
2.850000e-06	-4.538910e-06	-2.637639e-08	-3.244460e+01	-1.726648e+03
2.860000e-06	-4.637817e-06	-2.664084e-08	-3.315160e+01	-1.744006e+03
2.870000e-06	-4.735174e-06	-2.689089e-08	-3.384751e+01	-1.760414e+03
2.880000e-06	-4.830813e-06	-2.712875e-08	-3.453115e+01	-1.775920e+03
2.890000e-06	-4.924665e-06	-2.735656e-08	-3.520201e+01	-1.790600e+03
2.900000e-06	-5.016750e-06	-2.757557e-08	-3.586025e+01	-1.804541e+03
2.910000e-06	-5.107062e-06	-2.778437e-08	-3.650581e+01	-1.817832e+03
2.920000e-06	-5.195553e-06	-2.798360e-08	-3.713835e+01	-1.830542e+03
2.930000e-06	-5.282057e-06	-2.817257e-08	-3.775669e+01	-1.842718e+03
2.940000e-06	-5.366528e-06	-2.834926e-08	-3.836050e+01	-1.854377e+03
