# Temperatura_=_89.73
# Concentracion g/m^3_=_28200.0
# C_Vs_to_Am_M_A/Vsm_=_65563218390.804596
# pendiente_HvsI_1/m_=_3716.3
# ordenada_HvsI_A/m_=_1297.0
# frecuencia_Hz_=_302267.8297826045

Tiempo_(s)	Campo_(V.s)	Magnetizacion_(V.s)	Campo_(kA/m)	Magnetizacion_(A/m)
0.000000e+00	-6.885169e-06	-3.231444e-08	-4.952293e+01	-2.115900e+03
1.000000e-08	-6.882168e-06	-3.231232e-08	-4.950134e+01	-2.115310e+03
2.000000e-08	-6.876860e-06	-3.229836e-08	-4.946316e+01	-2.114486e+03
3.000000e-08	-6.869430e-06	-3.228237e-08	-4.940972e+01	-2.113445e+03
4.000000e-08	-6.859692e-06	-3.226476e-08	-4.933968e+01	-2.112207e+03
5.000000e-08	-6.847444e-06	-3.224028e-08	-4.925158e+01	-2.110782e+03
6.000000e-08	-6.832606e-06	-3.221195e-08	-4.914486e+01	-2.109170e+03
7.000000e-08	-6.815352e-06	-3.217603e-08	-4.902075e+01	-2.107366e+03
8.000000e-08	-6.796096e-06	-3.212876e-08	-4.888225e+01	-2.105363e+03
9.000000e-08	-6.774681e-06	-3.215970e-08	-4.872822e+01	-2.103160e+03
1.000000e-07	-6.750595e-06	-3.216328e-08	-4.855498e+01	-2.100770e+03
1.100000e-07	-6.723665e-06	-3.206540e-08	-4.836127e+01	-2.098216e+03
1.200000e-07	-6.694224e-06	-3.199881e-08	-4.814952e+01	-2.095531e+03
1.300000e-07	-6.662601e-06	-3.196787e-08	-4.792206e+01	-2.092745e+03
1.400000e-07	-6.628818e-06	-3.185159e-08	-4.767907e+01	-2.089875e+03
1.500000e-07	-6.593199e-06	-3.173769e-08	-4.742287e+01	-2.086914e+03
1.600000e-07	-6.555821e-06	-3.186950e-08	-4.715402e+01	-2.083826e+03
1.700000e-07	-6.516329e-06	-3.175336e-08	-4.686998e+01	-2.080546e+03
1.800000e-07	-6.474583e-06	-3.161077e-08	-4.656970e+01	-2.076993e+03
1.900000e-07	-6.430377e-06	-3.167607e-08	-4.625175e+01	-2.073083e+03
2.000000e-07	-6.383807e-06	-3.148672e-08	-4.591678e+01	-2.068751e+03
2.100000e-07	-6.334809e-06	-3.141411e-08	-4.556435e+01	-2.063961e+03
2.200000e-07	-6.283053e-06	-3.137976e-08	-4.519209e+01	-2.058720e+03
2.300000e-07	-6.228763e-06	-3.126077e-08	-4.480160e+01	-2.053070e+03
2.400000e-07	-6.172124e-06	-3.122086e-08	-4.439421e+01	-2.047080e+03
2.500000e-07	-6.113131e-06	-3.110286e-08	-4.396989e+01	-2.040824e+03
2.600000e-07	-6.051896e-06	-3.101023e-08	-4.352945e+01	-2.034364e+03
2.700000e-07	-5.988399e-06	-3.090464e-08	-4.307273e+01	-2.027728e+03
2.800000e-07	-5.922652e-06	-3.078614e-08	-4.259983e+01	-2.020907e+03
2.900000e-07	-5.854697e-06	-3.068732e-08	-4.211106e+01	-2.013855e+03
3.000000e-07	-5.784545e-06	-3.056011e-08	-4.160647e+01	-2.006498e+03
3.100000e-07	-5.712204e-06	-3.047645e-08	-4.108615e+01	-1.998761e+03
3.200000e-07	-5.637591e-06	-3.033011e-08	-4.054948e+01	-1.990581e+03
3.300000e-07	-5.560649e-06	-3.019729e-08	-3.999606e+01	-1.981925e+03
3.400000e-07	-5.481391e-06	-3.004695e-08	-3.942598e+01	-1.972795e+03
3.500000e-07	-5.400037e-06	-2.989091e-08	-3.884082e+01	-1.963227e+03
3.600000e-07	-5.316922e-06	-2.977346e-08	-3.824300e+01	-1.953271e+03
3.700000e-07	-5.232130e-06	-2.960836e-08	-3.763312e+01	-1.942975e+03
3.800000e-07	-5.145687e-06	-2.944987e-08	-3.701136e+01	-1.932368e+03
3.900000e-07	-5.057464e-06	-2.927508e-08	-3.637680e+01	-1.921442e+03
4.000000e-07	-4.967315e-06	-2.908901e-08	-3.572838e+01	-1.910157e+03
4.100000e-07	-4.875359e-06	-2.889594e-08	-3.506697e+01	-1.898442e+03
4.200000e-07	-4.781783e-06	-2.871977e-08	-3.439391e+01	-1.886220e+03
4.300000e-07	-4.686610e-06	-2.854050e-08	-3.370936e+01	-1.873418e+03
4.400000e-07	-4.589698e-06	-2.832967e-08	-3.301230e+01	-1.859993e+03
4.500000e-07	-4.491099e-06	-2.811122e-08	-3.230311e+01	-1.845931e+03
4.600000e-07	-4.390850e-06	-2.788427e-08	-3.158204e+01	-1.831252e+03
4.700000e-07	-4.289025e-06	-2.765166e-08	-3.084965e+01	-1.815991e+03
4.800000e-07	-4.185786e-06	-2.741580e-08	-3.010709e+01	-1.800182e+03
4.900000e-07	-4.081109e-06	-2.717588e-08	-2.935418e+01	-1.783839e+03
5.000000e-07	-3.974872e-06	-2.691779e-08	-2.859004e+01	-1.766940e+03
5.100000e-07	-3.867051e-06	-2.664127e-08	-2.781452e+01	-1.749426e+03
5.200000e-07	-3.757914e-06	-2.635333e-08	-2.702953e+01	-1.731205e+03
5.300000e-07	-3.647591e-06	-2.605712e-08	-2.623602e+01	-1.712172e+03
5.400000e-07	-3.535957e-06	-2.574878e-08	-2.543306e+01	-1.692230e+03
5.500000e-07	-3.422820e-06	-2.543104e-08	-2.461930e+01	-1.671305e+03
5.600000e-07	-3.308127e-06	-2.510125e-08	-2.379435e+01	-1.649355e+03
5.700000e-07	-3.191956e-06	-2.475305e-08	-2.295877e+01	-1.626368e+03
5.800000e-07	-3.074470e-06	-2.438524e-08	-2.211373e+01	-1.602347e+03
5.900000e-07	-2.955878e-06	-2.400007e-08	-2.126073e+01	-1.577288e+03
6.000000e-07	-2.836270e-06	-2.360188e-08	-2.040043e+01	-1.551156e+03
6.100000e-07	-2.715684e-06	-2.318352e-08	-1.953309e+01	-1.523868e+03
6.200000e-07	-2.594033e-06	-2.274617e-08	-1.865809e+01	-1.495292e+03
6.300000e-07	-2.471267e-06	-2.228485e-08	-1.777507e+01	-1.465252e+03
6.400000e-07	-2.347489e-06	-2.179775e-08	-1.688477e+01	-1.433550e+03
6.500000e-07	-2.222933e-06	-2.128085e-08	-1.598888e+01	-1.399993e+03
6.600000e-07	-2.097746e-06	-2.073531e-08	-1.508845e+01	-1.364409e+03
6.700000e-07	-1.971889e-06	-2.016256e-08	-1.418320e+01	-1.326660e+03
6.800000e-07	-1.845289e-06	-1.955888e-08	-1.327260e+01	-1.286636e+03
6.900000e-07	-1.718023e-06	-1.891818e-08	-1.235722e+01	-1.244232e+03
7.000000e-07	-1.590222e-06	-1.823243e-08	-1.143798e+01	-1.199323e+03
7.100000e-07	-1.461873e-06	-1.750434e-08	-1.051481e+01	-1.151736e+03
7.200000e-07	-1.333038e-06	-1.672794e-08	-9.588139e+00	-1.101239e+03
7.300000e-07	-1.203834e-06	-1.590247e-08	-8.658815e+00	-1.047552e+03
7.400000e-07	-1.074236e-06	-1.502642e-08	-7.726650e+00	-9.903837e+02
7.500000e-07	-9.441978e-07	-1.409617e-08	-6.791327e+00	-9.294873e+02
7.600000e-07	-8.138379e-07	-1.310905e-08	-5.853688e+00	-8.647311e+02
7.700000e-07	-6.832212e-07	-1.206530e-08	-4.914202e+00	-7.961576e+02
7.800000e-07	-5.522662e-07	-1.096728e-08	-3.972282e+00	-7.240187e+02
7.900000e-07	-4.211161e-07	-9.822599e-09	-3.028960e+00	-6.487726e+02
8.000000e-07	-2.898643e-07	-8.641081e-09	-2.084906e+00	-5.710359e+02
8.100000e-07	-1.584487e-07	-7.430869e-09	-1.139673e+00	-4.914956e+02
8.200000e-07	-2.692358e-08	-6.203640e-09	-1.936531e-01	-4.107978e+02
8.300000e-07	1.046495e-07	-4.963495e-09	7.527124e-01	-3.294349e+02
8.400000e-07	2.362050e-07	-3.715139e-09	1.698950e+00	-2.476584e+02
8.500000e-07	3.676745e-07	-2.458409e-09	2.644571e+00	-1.654389e+02
8.600000e-07	4.990730e-07	-1.192890e-09	3.589680e+00	-8.248713e+01
8.700000e-07	6.303556e-07	8.603035e-11	4.533956e+00	1.663918e+00
8.800000e-07	7.614000e-07	1.387379e-09	5.476519e+00	8.752917e+01
8.900000e-07	8.921489e-07	2.718738e-09	6.416956e+00	1.755191e+02
9.000000e-07	1.022549e-06	4.088542e-09	7.354882e+00	2.657956e+02
9.100000e-07	1.152509e-06	5.494506e-09	8.289648e+00	3.581675e+02
9.200000e-07	1.281966e-06	6.927311e-09	9.220793e+00	4.520472e+02
9.300000e-07	1.410976e-06	8.369886e-09	1.014872e+01	5.464807e+02
9.400000e-07	1.539540e-06	9.804051e-09	1.107344e+01	6.402445e+02
9.500000e-07	1.667543e-06	1.120642e-08	1.199413e+01	7.319920e+02
9.600000e-07	1.794930e-06	1.255168e-08	1.291038e+01	8.204204e+02
9.700000e-07	1.921645e-06	1.382368e-08	1.382180e+01	9.044265e+02
9.800000e-07	2.047633e-06	1.501165e-08	1.472800e+01	9.832232e+02
9.900000e-07	2.172892e-06	1.611306e-08	1.562895e+01	1.056398e+03
1.000000e-06	2.297482e-06	1.713000e-08	1.652509e+01	1.123910e+03
1.010000e-06	2.421420e-06	1.806991e-08	1.741654e+01	1.186024e+03
1.020000e-06	2.544422e-06	1.894083e-08	1.830125e+01	1.243216e+03
1.030000e-06	2.666205e-06	1.975173e-08	1.917720e+01	1.296059e+03
1.040000e-06	2.786904e-06	2.050441e-08	2.004535e+01	1.345118e+03
1.050000e-06	2.906615e-06	2.120306e-08	2.090640e+01	1.390879e+03
1.060000e-06	3.025284e-06	2.185191e-08	2.175994e+01	1.433706e+03
1.070000e-06	3.142941e-06	2.245663e-08	2.260621e+01	1.473849e+03
1.080000e-06	3.259429e-06	2.302329e-08	2.344408e+01	1.511467e+03
1.090000e-06	3.374453e-06	2.355542e-08	2.427142e+01	1.546677e+03
1.100000e-06	3.488046e-06	2.405387e-08	2.508846e+01	1.579594e+03
1.110000e-06	3.600343e-06	2.451939e-08	2.589617e+01	1.610360e+03
1.120000e-06	3.711332e-06	2.495701e-08	2.669448e+01	1.639156e+03
1.130000e-06	3.821073e-06	2.536983e-08	2.748381e+01	1.666192e+03
1.140000e-06	3.929671e-06	2.576203e-08	2.826493e+01	1.691684e+03
1.150000e-06	4.037004e-06	2.613366e-08	2.903694e+01	1.715830e+03
1.160000e-06	4.142785e-06	2.648512e-08	2.979779e+01	1.738782e+03
1.170000e-06	4.246963e-06	2.681792e-08	3.054711e+01	1.760642e+03
1.180000e-06	4.349586e-06	2.713335e-08	3.128525e+01	1.781460e+03
1.190000e-06	4.450717e-06	2.743096e-08	3.201266e+01	1.801252e+03
1.200000e-06	4.550420e-06	2.771063e-08	3.272979e+01	1.820023e+03
1.210000e-06	4.648420e-06	2.797532e-08	3.343467e+01	1.837786e+03
1.220000e-06	4.744542e-06	2.822834e-08	3.412604e+01	1.854577e+03
1.230000e-06	4.838929e-06	2.847064e-08	3.480495e+01	1.870461e+03
1.240000e-06	4.931737e-06	2.870290e-08	3.547248e+01	1.885523e+03
1.250000e-06	5.022927e-06	2.892485e-08	3.612839e+01	1.899856e+03
1.260000e-06	5.112214e-06	2.913600e-08	3.677060e+01	1.913543e+03
1.270000e-06	5.199506e-06	2.933368e-08	3.739847e+01	1.926646e+03
1.280000e-06	5.284947e-06	2.951988e-08	3.801302e+01	1.939198e+03
1.290000e-06	5.368654e-06	2.969781e-08	3.861509e+01	1.951205e+03
1.300000e-06	5.450428e-06	2.986904e-08	3.920327e+01	1.962656e+03
1.310000e-06	5.530087e-06	3.003233e-08	3.977624e+01	1.973537e+03
1.320000e-06	5.607719e-06	3.018806e-08	4.033462e+01	1.983844e+03
1.330000e-06	5.683203e-06	3.033795e-08	4.087755e+01	1.993587e+03
1.340000e-06	5.756401e-06	3.048185e-08	4.140404e+01	2.002795e+03
1.350000e-06	5.827443e-06	3.062002e-08	4.191502e+01	2.011511e+03
1.360000e-06	5.896463e-06	3.075110e-08	4.241146e+01	2.019779e+03
1.370000e-06	5.963408e-06	3.087470e-08	4.289298e+01	2.027635e+03
1.380000e-06	6.028135e-06	3.098961e-08	4.335854e+01	2.035102e+03
1.390000e-06	6.090717e-06	3.109606e-08	4.380867e+01	2.042184e+03
1.400000e-06	6.151377e-06	3.119484e-08	4.424498e+01	2.048876e+03
1.410000e-06	6.209927e-06	3.128853e-08	4.466612e+01	2.055168e+03
1.420000e-06	6.266166e-06	3.137711e-08	4.507063e+01	2.061057e+03
1.430000e-06	6.320124e-06	3.146020e-08	4.545873e+01	2.066555e+03
1.440000e-06	6.371538e-06	3.153944e-08	4.582853e+01	2.071691e+03
1.450000e-06	6.420276e-06	3.161606e-08	4.617909e+01	2.076509e+03
1.460000e-06	6.466616e-06	3.168970e-08	4.651240e+01	2.081057e+03
1.470000e-06	6.510869e-06	3.175614e-08	4.683070e+01	2.085376e+03
1.480000e-06	6.552852e-06	3.181608e-08	4.713267e+01	2.089490e+03
1.490000e-06	6.592346e-06	3.187304e-08	4.741674e+01	2.093399e+03
1.500000e-06	6.629629e-06	3.192888e-08	4.768490e+01	2.097080e+03
1.510000e-06	6.664683e-06	3.198070e-08	4.793704e+01	2.100493e+03
1.520000e-06	6.697277e-06	3.202624e-08	4.817148e+01	2.103593e+03
1.530000e-06	6.727500e-06	3.206630e-08	4.838886e+01	2.106343e+03
1.540000e-06	6.755459e-06	3.210320e-08	4.858996e+01	2.108727e+03
1.550000e-06	6.780898e-06	3.213683e-08	4.877293e+01	2.110750e+03
1.560000e-06	6.803699e-06	3.216546e-08	4.893694e+01	2.112444e+03
1.570000e-06	6.824166e-06	3.218889e-08	4.908415e+01	2.113853e+03
1.580000e-06	6.842278e-06	3.220751e-08	4.921443e+01	2.115026e+03
1.590000e-06	6.857877e-06	3.222222e-08	4.932662e+01	2.116003e+03
1.600000e-06	6.870897e-06	3.223378e-08	4.942027e+01	2.116809e+03
1.610000e-06	6.881142e-06	3.224302e-08	4.949396e+01	2.117446e+03
1.620000e-06	6.888726e-06	3.225045e-08	4.954851e+01	2.117900e+03
1.630000e-06	6.893935e-06	3.225592e-08	4.958597e+01	2.118147e+03
1.640000e-06	6.896753e-06	3.225688e-08	4.960624e+01	2.118163e+03
1.650000e-06	6.897122e-06	3.225634e-08	4.960890e+01	2.117930e+03
1.660000e-06	6.895158e-06	3.224584e-08	4.959477e+01	2.117445e+03
1.670000e-06	6.890943e-06	3.223334e-08	4.956446e+01	2.116719e+03
1.680000e-06	6.884312e-06	3.222337e-08	4.951676e+01	2.115768e+03
1.690000e-06	6.875375e-06	3.220861e-08	4.945248e+01	2.114613e+03
1.700000e-06	6.864261e-06	3.219127e-08	4.937254e+01	2.113267e+03
1.710000e-06	6.850676e-06	3.217284e-08	4.927483e+01	2.111735e+03
1.720000e-06	6.834697e-06	3.216309e-08	4.915990e+01	2.110014e+03
1.730000e-06	6.816683e-06	3.213913e-08	4.903033e+01	2.108096e+03
1.740000e-06	6.796517e-06	3.200676e-08	4.888528e+01	2.105978e+03
1.750000e-06	6.773377e-06	3.196844e-08	4.871884e+01	2.103666e+03
1.760000e-06	6.746978e-06	3.200121e-08	4.852896e+01	2.101178e+03
1.770000e-06	6.717861e-06	3.194901e-08	4.831953e+01	2.098545e+03
1.780000e-06	6.686536e-06	3.193493e-08	4.809422e+01	2.095799e+03
1.790000e-06	6.653455e-06	3.200671e-08	4.785628e+01	2.092964e+03
1.800000e-06	6.618943e-06	3.181302e-08	4.760805e+01	2.090044e+03
1.810000e-06	6.582462e-06	3.176127e-08	4.734564e+01	2.087017e+03
1.820000e-06	6.543430e-06	3.185922e-08	4.706490e+01	2.083828e+03
1.830000e-06	6.502232e-06	3.166177e-08	4.676858e+01	2.080402e+03
1.840000e-06	6.458876e-06	3.177414e-08	4.645673e+01	2.076654e+03
1.850000e-06	6.413120e-06	3.168801e-08	4.612762e+01	2.072509e+03
1.860000e-06	6.365016e-06	3.150254e-08	4.578162e+01	2.067917e+03
1.870000e-06	6.314494e-06	3.154926e-08	4.541823e+01	2.062866e+03
1.880000e-06	6.261524e-06	3.133093e-08	4.503724e+01	2.057384e+03
1.890000e-06	6.206001e-06	3.132852e-08	4.463788e+01	2.051530e+03
1.900000e-06	6.148022e-06	3.124369e-08	4.422085e+01	2.045379e+03
1.910000e-06	6.087765e-06	3.107730e-08	4.378744e+01	2.039000e+03
1.920000e-06	6.025148e-06	3.109859e-08	4.333705e+01	2.032438e+03
1.930000e-06	5.960347e-06	3.091159e-08	4.287096e+01	2.025700e+03
1.940000e-06	5.893472e-06	3.085160e-08	4.238995e+01	2.018754e+03
1.950000e-06	5.824351e-06	3.068927e-08	4.189278e+01	2.011537e+03
1.960000e-06	5.752837e-06	3.055825e-08	4.137841e+01	2.003972e+03
1.970000e-06	5.679055e-06	3.049631e-08	4.084771e+01	1.995987e+03
1.980000e-06	5.603094e-06	3.030886e-08	4.030135e+01	1.987536e+03
1.990000e-06	5.524779e-06	3.024567e-08	3.973805e+01	1.978607e+03
2.000000e-06	5.444380e-06	3.006234e-08	3.915977e+01	1.969220e+03
2.010000e-06	5.362220e-06	2.992609e-08	3.856882e+01	1.959424e+03
2.020000e-06	5.278211e-06	2.976090e-08	3.796456e+01	1.949268e+03
2.030000e-06	5.192212e-06	2.957736e-08	3.734600e+01	1.938793e+03
2.040000e-06	5.104226e-06	2.946666e-08	3.671315e+01	1.928007e+03
2.050000e-06	5.014526e-06	2.928550e-08	3.606796e+01	1.916882e+03
2.060000e-06	4.923224e-06	2.912468e-08	3.541125e+01	1.905361e+03
2.070000e-06	4.830201e-06	2.890375e-08	3.474217e+01	1.893365e+03
2.080000e-06	4.735383e-06	2.871819e-08	3.406017e+01	1.880819e+03
2.090000e-06	4.638880e-06	2.851638e-08	3.336605e+01	1.867664e+03
2.100000e-06	4.540819e-06	2.831084e-08	3.266073e+01	1.853874e+03
2.110000e-06	4.441267e-06	2.811082e-08	3.194468e+01	1.839456e+03
2.120000e-06	4.340163e-06	2.787816e-08	3.121747e+01	1.824439e+03
2.130000e-06	4.237359e-06	2.763921e-08	3.047803e+01	1.808861e+03
2.140000e-06	4.132917e-06	2.737407e-08	2.972681e+01	1.792747e+03
2.150000e-06	4.027006e-06	2.712995e-08	2.896503e+01	1.776091e+03
2.160000e-06	3.919794e-06	2.687061e-08	2.819389e+01	1.758850e+03
2.170000e-06	3.811260e-06	2.660847e-08	2.741323e+01	1.740944e+03
2.180000e-06	3.701308e-06	2.631951e-08	2.662238e+01	1.722272e+03
2.190000e-06	3.589877e-06	2.601877e-08	2.582089e+01	1.702730e+03
2.200000e-06	3.477006e-06	2.570314e-08	2.500905e+01	1.682233e+03
2.210000e-06	3.362806e-06	2.537630e-08	2.418764e+01	1.660724e+03
2.220000e-06	3.247249e-06	2.504125e-08	2.335647e+01	1.638181e+03
2.230000e-06	3.130288e-06	2.469002e-08	2.251521e+01	1.614603e+03
2.240000e-06	3.011999e-06	2.432027e-08	2.166439e+01	1.589991e+03
2.250000e-06	2.892464e-06	2.392632e-08	2.080461e+01	1.564325e+03
2.260000e-06	2.771791e-06	2.351734e-08	1.993665e+01	1.537546e+03
2.270000e-06	2.650173e-06	2.308351e-08	1.906189e+01	1.509541e+03
2.280000e-06	2.527667e-06	2.263441e-08	1.818074e+01	1.480151e+03
2.290000e-06	2.404276e-06	2.216220e-08	1.729322e+01	1.449186e+03
2.300000e-06	2.280068e-06	2.166676e-08	1.639984e+01	1.416446e+03
2.310000e-06	2.155119e-06	2.113821e-08	1.550111e+01	1.381749e+03
2.320000e-06	2.029419e-06	2.057861e-08	1.459699e+01	1.344943e+03
2.330000e-06	1.902933e-06	1.998549e-08	1.368722e+01	1.305906e+03
2.340000e-06	1.775729e-06	1.935729e-08	1.277227e+01	1.264535e+03
2.350000e-06	1.647854e-06	1.869327e-08	1.185251e+01	1.220717e+03
2.360000e-06	1.519357e-06	1.798794e-08	1.092828e+01	1.174302e+03
2.370000e-06	1.390361e-06	1.723797e-08	1.000045e+01	1.125085e+03
2.380000e-06	1.261028e-06	1.643636e-08	9.070187e+00	1.072801e+03
2.390000e-06	1.131389e-06	1.558255e-08	8.137737e+00	1.017159e+03
2.400000e-06	1.001444e-06	1.467366e-08	7.203081e+00	9.578839e+02
2.410000e-06	8.711794e-07	1.371154e-08	6.266128e+00	8.947877e+02
2.420000e-06	7.405584e-07	1.269690e-08	5.326611e+00	8.278316e+02
2.430000e-06	6.096594e-07	1.162794e-08	4.385095e+00	7.571758e+02
2.440000e-06	4.785847e-07	1.050448e-08	3.442314e+00	6.831932e+02
2.450000e-06	3.473582e-07	9.333240e-09	2.498442e+00	6.064411e+02
2.460000e-06	2.159708e-07	8.125919e-09	1.553412e+00	5.275893e+02
2.470000e-06	8.449697e-08	6.894647e-09	6.077610e-01	4.473156e+02
2.480000e-06	-4.704432e-08	5.650924e-09	-3.383755e-01	3.661910e+02
2.490000e-06	-1.785898e-07	4.400841e-09	-1.284542e+00	2.845785e+02
2.500000e-06	-3.100414e-07	3.144918e-09	-2.230034e+00	2.025700e+02
2.510000e-06	-4.414040e-07	1.879405e-09	-3.174885e+00	1.199812e+02
2.520000e-06	-5.726504e-07	6.006476e-10	-4.118900e+00	3.640741e+01
2.530000e-06	-7.037770e-07	-6.986333e-10	-5.062054e+00	-4.866359e+01
2.540000e-06	-8.347019e-07	-2.025313e-09	-6.003757e+00	-1.357059e+02
2.550000e-06	-9.653362e-07	-3.382456e-09	-6.943369e+00	-2.250039e+02
2.560000e-06	-1.095623e-06	-4.772814e-09	-7.880480e+00	-3.165268e+02
2.570000e-06	-1.225463e-06	-6.196194e-09	-8.814384e+00	-4.098576e+02
2.580000e-06	-1.354872e-06	-7.643278e-09	-9.745183e+00	-5.041911e+02
2.590000e-06	-1.483836e-06	-9.093469e-09	-1.067278e+01	-5.984036e+02
2.600000e-06	-1.612378e-06	-1.052127e-08	-1.159734e+01	-6.911815e+02
2.610000e-06	-1.740500e-06	-1.190188e-08	-1.251888e+01	-7.811826e+02
2.620000e-06	-1.867916e-06	-1.321675e-08	-1.343535e+01	-8.672011e+02
2.630000e-06	-1.994449e-06	-1.445376e-08	-1.434546e+01	-9.483037e+02
2.640000e-06	-2.120154e-06	-1.560737e-08	-1.524962e+01	-1.023914e+03
2.650000e-06	-2.245059e-06	-1.667608e-08	-1.614803e+01	-1.093837e+03
2.660000e-06	-2.369157e-06	-1.766206e-08	-1.704062e+01	-1.158216e+03
2.670000e-06	-2.492354e-06	-1.857294e-08	-1.792674e+01	-1.217450e+03
2.680000e-06	-2.614529e-06	-1.941634e-08	-1.880551e+01	-1.272086e+03
2.690000e-06	-2.735705e-06	-2.019678e-08	-1.967709e+01	-1.322702e+03
2.700000e-06	-2.855999e-06	-2.092132e-08	-2.054233e+01	-1.369824e+03
2.710000e-06	-2.975217e-06	-2.159655e-08	-2.139983e+01	-1.413872e+03
2.720000e-06	-3.093145e-06	-2.222790e-08	-2.224805e+01	-1.455142e+03
2.730000e-06	-3.209834e-06	-2.281869e-08	-2.308736e+01	-1.493826e+03
2.740000e-06	-3.325277e-06	-2.336957e-08	-2.391771e+01	-1.530056e+03
2.750000e-06	-3.439368e-06	-2.388399e-08	-2.473832e+01	-1.563941e+03
2.760000e-06	-3.551962e-06	-2.436739e-08	-2.554818e+01	-1.595609e+03
2.770000e-06	-3.663153e-06	-2.482139e-08	-2.634794e+01	-1.625225e+03
2.780000e-06	-3.773011e-06	-2.524723e-08	-2.713812e+01	-1.652989e+03
2.790000e-06	-3.881641e-06	-2.564969e-08	-2.791946e+01	-1.679117e+03
2.800000e-06	-3.989117e-06	-2.603300e-08	-2.869250e+01	-1.703818e+03
2.810000e-06	-4.095271e-06	-2.639581e-08	-2.945604e+01	-1.727267e+03
2.820000e-06	-4.200014e-06	-2.673529e-08	-3.020942e+01	-1.749586e+03
2.830000e-06	-4.303105e-06	-2.705639e-08	-3.095092e+01	-1.770847e+03
2.840000e-06	-4.404503e-06	-2.736281e-08	-3.168025e+01	-1.791079e+03
2.850000e-06	-4.504416e-06	-2.765598e-08	-3.239889e+01	-1.810287e+03
2.860000e-06	-4.602832e-06	-2.793519e-08	-3.310677e+01	-1.828479e+03
2.870000e-06	-4.699712e-06	-2.819820e-08	-3.380360e+01	-1.845681e+03
2.880000e-06	-4.794896e-06	-2.844629e-08	-3.448823e+01	-1.861945e+03
2.890000e-06	-4.888229e-06	-2.868356e-08	-3.515954e+01	-1.877348e+03
2.900000e-06	-4.979861e-06	-2.891269e-08	-3.581862e+01	-1.891982e+03
2.910000e-06	-5.069762e-06	-2.913106e-08	-3.646525e+01	-1.905937e+03
2.920000e-06	-5.157807e-06	-2.933870e-08	-3.709854e+01	-1.919286e+03
2.930000e-06	-5.243879e-06	-2.953745e-08	-3.771762e+01	-1.932072e+03
2.940000e-06	-5.327957e-06	-2.972407e-08	-3.832238e+01	-1.944313e+03
