# Temperatura_=_87.06
# Concentracion g/m^3_=_28200.0
# C_Vs_to_Am_M_A/Vsm_=_65563218390.804596
# pendiente_HvsI_1/m_=_3716.3
# ordenada_HvsI_A/m_=_1297.0
# frecuencia_Hz_=_302272.23354351986

Tiempo_(s)	Campo_(V.s)	Magnetizacion_(V.s)	Campo_(kA/m)	Magnetizacion_(A/m)
0.000000e+00	-6.921180e-06	-3.157102e-08	-4.951876e+01	-2.067370e+03
1.000000e-08	-6.917834e-06	-3.156518e-08	-4.949482e+01	-2.066748e+03
2.000000e-08	-6.912282e-06	-3.154936e-08	-4.945510e+01	-2.065905e+03
3.000000e-08	-6.904584e-06	-3.153333e-08	-4.940003e+01	-2.064859e+03
4.000000e-08	-6.894501e-06	-3.151453e-08	-4.932788e+01	-2.063622e+03
5.000000e-08	-6.881875e-06	-3.149189e-08	-4.923755e+01	-2.062201e+03
6.000000e-08	-6.866638e-06	-3.146422e-08	-4.912853e+01	-2.060595e+03
7.000000e-08	-6.849095e-06	-3.142954e-08	-4.900302e+01	-2.058796e+03
8.000000e-08	-6.829567e-06	-3.139635e-08	-4.886330e+01	-2.056803e+03
9.000000e-08	-6.807760e-06	-3.142923e-08	-4.870728e+01	-2.054620e+03
1.000000e-07	-6.783214e-06	-3.140360e-08	-4.853166e+01	-2.052264e+03
1.100000e-07	-6.755862e-06	-3.131037e-08	-4.833596e+01	-2.049764e+03
1.200000e-07	-6.725999e-06	-3.125733e-08	-4.812231e+01	-2.047152e+03
1.300000e-07	-6.693891e-06	-3.121704e-08	-4.789258e+01	-2.044457e+03
1.400000e-07	-6.659721e-06	-3.109542e-08	-4.764811e+01	-2.041689e+03
1.500000e-07	-6.623804e-06	-3.102743e-08	-4.739114e+01	-2.038834e+03
1.600000e-07	-6.586081e-06	-3.114191e-08	-4.712124e+01	-2.035847e+03
1.700000e-07	-6.546098e-06	-3.097629e-08	-4.683518e+01	-2.032659e+03
1.800000e-07	-6.503797e-06	-3.089876e-08	-4.653253e+01	-2.029186e+03
1.900000e-07	-6.459046e-06	-3.092810e-08	-4.621235e+01	-2.025348e+03
2.000000e-07	-6.411833e-06	-3.074220e-08	-4.587455e+01	-2.021084e+03
2.100000e-07	-6.362178e-06	-3.069790e-08	-4.551929e+01	-2.016367e+03
2.200000e-07	-6.309790e-06	-3.063340e-08	-4.514447e+01	-2.011210e+03
2.300000e-07	-6.254896e-06	-3.054909e-08	-4.475172e+01	-2.005659e+03
2.400000e-07	-6.197706e-06	-3.049141e-08	-4.434255e+01	-1.999785e+03
2.500000e-07	-6.138131e-06	-3.038126e-08	-4.391631e+01	-1.993659e+03
2.600000e-07	-6.076319e-06	-3.029244e-08	-4.347406e+01	-1.987337e+03
2.700000e-07	-6.012268e-06	-3.017951e-08	-4.301579e+01	-1.980844e+03
2.800000e-07	-5.945967e-06	-3.007559e-08	-4.254143e+01	-1.974166e+03
2.900000e-07	-5.877428e-06	-2.997242e-08	-4.205106e+01	-1.967256e+03
3.000000e-07	-5.806634e-06	-2.985708e-08	-4.154455e+01	-1.960046e+03
3.100000e-07	-5.733643e-06	-2.976813e-08	-4.102232e+01	-1.952464e+03
3.200000e-07	-5.658368e-06	-2.962411e-08	-4.048376e+01	-1.944454e+03
3.300000e-07	-5.580745e-06	-2.949657e-08	-3.992839e+01	-1.935989e+03
3.400000e-07	-5.500834e-06	-2.934631e-08	-3.935666e+01	-1.927074e+03
3.500000e-07	-5.418935e-06	-2.920819e-08	-3.877069e+01	-1.917741e+03
3.600000e-07	-5.335259e-06	-2.908561e-08	-3.817202e+01	-1.908035e+03
3.700000e-07	-5.249845e-06	-2.892327e-08	-3.756091e+01	-1.897995e+03
3.800000e-07	-5.162671e-06	-2.877191e-08	-3.693721e+01	-1.887637e+03
3.900000e-07	-5.073657e-06	-2.859610e-08	-3.630034e+01	-1.876949e+03
4.000000e-07	-4.982813e-06	-2.841741e-08	-3.565039e+01	-1.865885e+03
4.100000e-07	-4.890208e-06	-2.823134e-08	-3.498783e+01	-1.854379e+03
4.200000e-07	-4.795899e-06	-2.806197e-08	-3.431308e+01	-1.842360e+03
4.300000e-07	-4.699901e-06	-2.787837e-08	-3.362624e+01	-1.829768e+03
4.400000e-07	-4.602271e-06	-2.767139e-08	-3.292773e+01	-1.816569e+03
4.500000e-07	-4.502901e-06	-2.746125e-08	-3.221677e+01	-1.802760e+03
4.600000e-07	-4.401863e-06	-2.723993e-08	-3.149388e+01	-1.788364e+03
4.700000e-07	-4.299404e-06	-2.701396e-08	-3.076082e+01	-1.773413e+03
4.800000e-07	-4.195431e-06	-2.677873e-08	-3.001693e+01	-1.757936e+03
4.900000e-07	-4.089932e-06	-2.654273e-08	-2.926212e+01	-1.741935e+03
5.000000e-07	-3.982952e-06	-2.628581e-08	-2.849671e+01	-1.725379e+03
5.100000e-07	-3.874421e-06	-2.601669e-08	-2.772021e+01	-1.708201e+03
5.200000e-07	-3.764515e-06	-2.573626e-08	-2.693386e+01	-1.690307e+03
5.300000e-07	-3.653313e-06	-2.544533e-08	-2.613825e+01	-1.671597e+03
5.400000e-07	-3.540685e-06	-2.514315e-08	-2.533243e+01	-1.651980e+03
5.500000e-07	-3.426606e-06	-2.482918e-08	-2.451623e+01	-1.631393e+03
5.600000e-07	-3.311116e-06	-2.450658e-08	-2.368994e+01	-1.609802e+03
5.700000e-07	-3.194277e-06	-2.416468e-08	-2.285400e+01	-1.587203e+03
5.800000e-07	-3.076165e-06	-2.380538e-08	-2.200895e+01	-1.563600e+03
5.900000e-07	-2.956861e-06	-2.342506e-08	-2.115537e+01	-1.538985e+03
6.000000e-07	-2.836412e-06	-2.303193e-08	-2.029359e+01	-1.513316e+03
6.100000e-07	-2.714936e-06	-2.262053e-08	-1.942447e+01	-1.486503e+03
6.200000e-07	-2.592524e-06	-2.219040e-08	-1.854866e+01	-1.458409e+03
6.300000e-07	-2.469081e-06	-2.173765e-08	-1.766546e+01	-1.428856e+03
6.400000e-07	-2.344625e-06	-2.125791e-08	-1.677502e+01	-1.397651e+03
6.500000e-07	-2.219372e-06	-2.075059e-08	-1.587888e+01	-1.364609e+03
6.600000e-07	-2.093504e-06	-2.021420e-08	-1.497833e+01	-1.329566e+03
6.700000e-07	-1.966961e-06	-1.964966e-08	-1.407296e+01	-1.292395e+03
6.800000e-07	-1.839654e-06	-1.905308e-08	-1.316212e+01	-1.252987e+03
6.900000e-07	-1.711650e-06	-1.842100e-08	-1.224629e+01	-1.211239e+03
7.000000e-07	-1.583047e-06	-1.774582e-08	-1.132618e+01	-1.167020e+03
7.100000e-07	-1.453910e-06	-1.702963e-08	-1.040224e+01	-1.120148e+03
7.200000e-07	-1.324337e-06	-1.626503e-08	-9.475193e+00	-1.070388e+03
7.300000e-07	-1.194397e-06	-1.545115e-08	-8.545519e+00	-1.017458e+03
7.400000e-07	-1.064074e-06	-1.458799e-08	-7.613101e+00	-9.610753e+02
7.500000e-07	-9.333359e-07	-1.367034e-08	-6.677711e+00	-9.010133e+02
7.600000e-07	-8.022864e-07	-1.269584e-08	-5.740095e+00	-8.371662e+02
7.700000e-07	-6.710403e-07	-1.166562e-08	-4.801073e+00	-7.696052e+02
7.800000e-07	-5.395458e-07	-1.058739e-08	-3.860272e+00	-6.986080e+02
7.900000e-07	-4.078166e-07	-9.463839e-09	-2.917793e+00	-6.246484e+02
8.000000e-07	-2.759048e-07	-8.303703e-09	-1.974008e+00	-5.483437e+02
8.100000e-07	-1.438631e-07	-7.116280e-09	-1.029293e+00	-4.703649e+02
8.200000e-07	-1.171327e-08	-5.912480e-09	-8.380461e-02	-3.913274e+02
8.300000e-07	1.204974e-07	-4.698458e-09	8.621191e-01	-3.116836e+02
8.400000e-07	2.526768e-07	-3.475396e-09	1.807820e+00	-2.316445e+02
8.500000e-07	3.848134e-07	-2.245956e-09	2.753213e+00	-1.511484e+02
8.600000e-07	5.168261e-07	-1.008006e-09	3.697721e+00	-6.989031e+01
8.700000e-07	6.486381e-07	2.451235e-10	4.640791e+00	1.259186e+01
8.800000e-07	7.802099e-07	1.522751e-09	5.582145e+00	9.678707e+01
8.900000e-07	9.114871e-07	2.829309e-09	6.521389e+00	1.830636e+02
9.000000e-07	1.042469e-06	4.169668e-09	7.458525e+00	2.715339e+02
9.100000e-07	1.173076e-06	5.544375e-09	8.392970e+00	3.619601e+02
9.200000e-07	1.303280e-06	6.946345e-09	9.324542e+00	4.537217e+02
9.300000e-07	1.433101e-06	8.356501e-09	1.025337e+01	5.458538e+02
9.400000e-07	1.562394e-06	9.752577e-09	1.117842e+01	6.371473e+02
9.500000e-07	1.691099e-06	1.111393e-08	1.209925e+01	7.262950e+02
9.600000e-07	1.819143e-06	1.241645e-08	1.301537e+01	8.120524e+02
9.700000e-07	1.946433e-06	1.364683e-08	1.392609e+01	8.933848e+02
9.800000e-07	2.072934e-06	1.479527e-08	1.483116e+01	9.695738e+02
9.900000e-07	2.198710e-06	1.585951e-08	1.573105e+01	1.040266e+03
1.000000e-06	2.323851e-06	1.684239e-08	1.662639e+01	1.105462e+03
1.010000e-06	2.448217e-06	1.775104e-08	1.751619e+01	1.165451e+03
1.020000e-06	2.571594e-06	1.859462e-08	1.839891e+01	1.220714e+03
1.030000e-06	2.693923e-06	1.937936e-08	1.927413e+01	1.271812e+03
1.040000e-06	2.815256e-06	2.010733e-08	2.014223e+01	1.319290e+03
1.050000e-06	2.935516e-06	2.078326e-08	2.100265e+01	1.363609e+03
1.060000e-06	3.054646e-06	2.141256e-08	2.185498e+01	1.405113e+03
1.070000e-06	3.172659e-06	2.199831e-08	2.269933e+01	1.444033e+03
1.080000e-06	3.289549e-06	2.254871e-08	2.353564e+01	1.480518e+03
1.090000e-06	3.405184e-06	2.306587e-08	2.436297e+01	1.514678e+03
1.100000e-06	3.519431e-06	2.354926e-08	2.518037e+01	1.546622e+03
1.110000e-06	3.632291e-06	2.400054e-08	2.598784e+01	1.576490e+03
1.120000e-06	3.743740e-06	2.442544e-08	2.678522e+01	1.604457e+03
1.130000e-06	3.853870e-06	2.482831e-08	2.757317e+01	1.630726e+03
1.140000e-06	3.962811e-06	2.521058e-08	2.835260e+01	1.655506e+03
1.150000e-06	4.070468e-06	2.557315e-08	2.912286e+01	1.678983e+03
1.160000e-06	4.176663e-06	2.591606e-08	2.988265e+01	1.701302e+03
1.170000e-06	4.281267e-06	2.624088e-08	3.063105e+01	1.722560e+03
1.180000e-06	4.384263e-06	2.654650e-08	3.136796e+01	1.742803e+03
1.190000e-06	4.485762e-06	2.683272e-08	3.209415e+01	1.762046e+03
1.200000e-06	4.585757e-06	2.710293e-08	3.280958e+01	1.780296e+03
1.210000e-06	4.684058e-06	2.736036e-08	3.351289e+01	1.797565e+03
1.220000e-06	4.780509e-06	2.760827e-08	3.420297e+01	1.813890e+03
1.230000e-06	4.875180e-06	2.784561e-08	3.488031e+01	1.829333e+03
1.240000e-06	4.968231e-06	2.807271e-08	3.554605e+01	1.843978e+03
1.250000e-06	5.059661e-06	2.828912e-08	3.620020e+01	1.857913e+03
1.260000e-06	5.149215e-06	2.849354e-08	3.684093e+01	1.871218e+03
1.270000e-06	5.236758e-06	2.868435e-08	3.746728e+01	1.883953e+03
1.280000e-06	5.322416e-06	2.886499e-08	3.808013e+01	1.896150e+03
1.290000e-06	5.406283e-06	2.903843e-08	3.868017e+01	1.907816e+03
1.300000e-06	5.488193e-06	2.920418e-08	3.926621e+01	1.918942e+03
1.310000e-06	5.567993e-06	2.936344e-08	3.983715e+01	1.929516e+03
1.320000e-06	5.645762e-06	2.951732e-08	4.039357e+01	1.939532e+03
1.330000e-06	5.721481e-06	2.966674e-08	4.093531e+01	1.949001e+03
1.340000e-06	5.794938e-06	2.980856e-08	4.146087e+01	1.957949e+03
1.350000e-06	5.866174e-06	2.994165e-08	4.197054e+01	1.966414e+03
1.360000e-06	5.935366e-06	3.006665e-08	4.246559e+01	1.974436e+03
1.370000e-06	6.002432e-06	3.018526e-08	4.294543e+01	1.982050e+03
1.380000e-06	6.067240e-06	3.029552e-08	4.340910e+01	1.989278e+03
1.390000e-06	6.129903e-06	3.039819e-08	4.385744e+01	1.996129e+03
1.400000e-06	6.190635e-06	3.049529e-08	4.429195e+01	2.002600e+03
1.410000e-06	6.249235e-06	3.058614e-08	4.471122e+01	2.008685e+03
1.420000e-06	6.305532e-06	3.067208e-08	4.511400e+01	2.014385e+03
1.430000e-06	6.359579e-06	3.075370e-08	4.550069e+01	2.019713e+03
1.440000e-06	6.411097e-06	3.083147e-08	4.586928e+01	2.024696e+03
1.450000e-06	6.459903e-06	3.090490e-08	4.621847e+01	2.029372e+03
1.460000e-06	6.506303e-06	3.097356e-08	4.655046e+01	2.033783e+03
1.470000e-06	6.550579e-06	3.103766e-08	4.686723e+01	2.037964e+03
1.480000e-06	6.592493e-06	3.109787e-08	4.716711e+01	2.041935e+03
1.490000e-06	6.631930e-06	3.115488e-08	4.744928e+01	2.045698e+03
1.500000e-06	6.669154e-06	3.120854e-08	4.771560e+01	2.049232e+03
1.510000e-06	6.704089e-06	3.125739e-08	4.796554e+01	2.052506e+03
1.520000e-06	6.736534e-06	3.130149e-08	4.819768e+01	2.055483e+03
1.530000e-06	6.766591e-06	3.134117e-08	4.841273e+01	2.058136e+03
1.540000e-06	6.794402e-06	3.137727e-08	4.861171e+01	2.060452e+03
1.550000e-06	6.819678e-06	3.141056e-08	4.879255e+01	2.062438e+03
1.560000e-06	6.842333e-06	3.143921e-08	4.895464e+01	2.064120e+03
1.570000e-06	6.862707e-06	3.146222e-08	4.910041e+01	2.065533e+03
1.580000e-06	6.880774e-06	3.147989e-08	4.922967e+01	2.066715e+03
1.590000e-06	6.896236e-06	3.149351e-08	4.934030e+01	2.067695e+03
1.600000e-06	6.908989e-06	3.150422e-08	4.943154e+01	2.068490e+03
1.610000e-06	6.918980e-06	3.151243e-08	4.950302e+01	2.069099e+03
1.620000e-06	6.926330e-06	3.152019e-08	4.955561e+01	2.069510e+03
1.630000e-06	6.931289e-06	3.152532e-08	4.959109e+01	2.069703e+03
1.640000e-06	6.933779e-06	3.152577e-08	4.960890e+01	2.069662e+03
1.650000e-06	6.933753e-06	3.152446e-08	4.960872e+01	2.069379e+03
1.660000e-06	6.931407e-06	3.151091e-08	4.959194e+01	2.068856e+03
1.670000e-06	6.926820e-06	3.149985e-08	4.955912e+01	2.068106e+03
1.680000e-06	6.919843e-06	3.149049e-08	4.950920e+01	2.067145e+03
1.690000e-06	6.910585e-06	3.147478e-08	4.944296e+01	2.065988e+03
1.700000e-06	6.899146e-06	3.145661e-08	4.936112e+01	2.064645e+03
1.710000e-06	6.885266e-06	3.143932e-08	4.926181e+01	2.063119e+03
1.720000e-06	6.869037e-06	3.142845e-08	4.914570e+01	2.061403e+03
1.730000e-06	6.850781e-06	3.138237e-08	4.901508e+01	2.059493e+03
1.740000e-06	6.830210e-06	3.126370e-08	4.886790e+01	2.057389e+03
1.750000e-06	6.806519e-06	3.125526e-08	4.869840e+01	2.055104e+03
1.760000e-06	6.779579e-06	3.127158e-08	4.850565e+01	2.052662e+03
1.770000e-06	6.749953e-06	3.121128e-08	4.829369e+01	2.050093e+03
1.780000e-06	6.718167e-06	3.122829e-08	4.806627e+01	2.047431e+03
1.790000e-06	6.684729e-06	3.126123e-08	4.782703e+01	2.044694e+03
1.800000e-06	6.649864e-06	3.104984e-08	4.757759e+01	2.041880e+03
1.810000e-06	6.612911e-06	3.107046e-08	4.731320e+01	2.038956e+03
1.820000e-06	6.573433e-06	3.111283e-08	4.703075e+01	2.035864e+03
1.830000e-06	6.531787e-06	3.096562e-08	4.673278e+01	2.032523e+03
1.840000e-06	6.487819e-06	3.107977e-08	4.641821e+01	2.028850e+03
1.850000e-06	6.441470e-06	3.092006e-08	4.608659e+01	2.024773e+03
1.860000e-06	6.392820e-06	3.081710e-08	4.573852e+01	2.020251e+03
1.870000e-06	6.341757e-06	3.080329e-08	4.537318e+01	2.015279e+03
1.880000e-06	6.288270e-06	3.061055e-08	4.499050e+01	2.009889e+03
1.890000e-06	6.232147e-06	3.062764e-08	4.458896e+01	2.004143e+03
1.900000e-06	6.173629e-06	3.049463e-08	4.417028e+01	1.998116e+03
1.910000e-06	6.112876e-06	3.039797e-08	4.373561e+01	1.991873e+03
1.920000e-06	6.049683e-06	3.037348e-08	4.328349e+01	1.985452e+03
1.930000e-06	5.984296e-06	3.020236e-08	4.281567e+01	1.978857e+03
1.940000e-06	5.916649e-06	3.014526e-08	4.233167e+01	1.972054e+03
1.950000e-06	5.846686e-06	2.996150e-08	4.183111e+01	1.964982e+03
1.960000e-06	5.774477e-06	2.986793e-08	4.131448e+01	1.957567e+03
1.970000e-06	5.700040e-06	2.976548e-08	4.078190e+01	1.949745e+03
1.980000e-06	5.623390e-06	2.962052e-08	4.023350e+01	1.941476e+03
1.990000e-06	5.544389e-06	2.954463e-08	3.966828e+01	1.932751e+03
2.000000e-06	5.463372e-06	2.936566e-08	3.908863e+01	1.923592e+03
2.010000e-06	5.380571e-06	2.924057e-08	3.849621e+01	1.914040e+03
2.020000e-06	5.295824e-06	2.905720e-08	3.788987e+01	1.904139e+03
2.030000e-06	5.209111e-06	2.890431e-08	3.726947e+01	1.893916e+03
2.040000e-06	5.120506e-06	2.877490e-08	3.663553e+01	1.883373e+03
2.050000e-06	5.030201e-06	2.860546e-08	3.598943e+01	1.872477e+03
2.060000e-06	4.938184e-06	2.843501e-08	3.533108e+01	1.861169e+03
2.070000e-06	4.844442e-06	2.822620e-08	3.466038e+01	1.849378e+03
2.080000e-06	4.748924e-06	2.804832e-08	3.397699e+01	1.837037e+03
2.090000e-06	4.651678e-06	2.784496e-08	3.328122e+01	1.824100e+03
2.100000e-06	4.552964e-06	2.764841e-08	3.257496e+01	1.810551e+03
2.110000e-06	4.452647e-06	2.744328e-08	3.185722e+01	1.796402e+03
2.120000e-06	4.350715e-06	2.722074e-08	3.112793e+01	1.781684e+03
2.130000e-06	4.247244e-06	2.698043e-08	3.038763e+01	1.766430e+03
2.140000e-06	4.142206e-06	2.672852e-08	2.963612e+01	1.750655e+03
2.150000e-06	4.035715e-06	2.648659e-08	2.887421e+01	1.734343e+03
2.160000e-06	3.927809e-06	2.623210e-08	2.810218e+01	1.717441e+03
2.170000e-06	3.818462e-06	2.597243e-08	2.731984e+01	1.699866e+03
2.180000e-06	3.707736e-06	2.569000e-08	2.652763e+01	1.681518e+03
2.190000e-06	3.595546e-06	2.539789e-08	2.572495e+01	1.662299e+03
2.200000e-06	3.481861e-06	2.508752e-08	2.491157e+01	1.642133e+03
2.210000e-06	3.366750e-06	2.476679e-08	2.408799e+01	1.620974e+03
2.220000e-06	3.250251e-06	2.443236e-08	2.325447e+01	1.598806e+03
2.230000e-06	3.132447e-06	2.408657e-08	2.241163e+01	1.575633e+03
2.240000e-06	3.013374e-06	2.372107e-08	2.155970e+01	1.551454e+03
2.250000e-06	2.893051e-06	2.333567e-08	2.069882e+01	1.526244e+03
2.260000e-06	2.771637e-06	2.293326e-08	1.983015e+01	1.499935e+03
2.270000e-06	2.649371e-06	2.250934e-08	1.895538e+01	1.472410e+03
2.280000e-06	2.526222e-06	2.206803e-08	1.807429e+01	1.443505e+03
2.290000e-06	2.402065e-06	2.160374e-08	1.718598e+01	1.413031e+03
2.300000e-06	2.276992e-06	2.111727e-08	1.629112e+01	1.380798e+03
2.310000e-06	2.151149e-06	2.059812e-08	1.539076e+01	1.346630e+03
2.320000e-06	2.024617e-06	2.004618e-08	1.448546e+01	1.310384e+03
2.330000e-06	1.897364e-06	1.945877e-08	1.357501e+01	1.271947e+03
2.340000e-06	1.769418e-06	1.883858e-08	1.265960e+01	1.231216e+03
2.350000e-06	1.640834e-06	1.818539e-08	1.173963e+01	1.188074e+03
2.360000e-06	1.511658e-06	1.749387e-08	1.081542e+01	1.142364e+03
2.370000e-06	1.382014e-06	1.675647e-08	9.887851e+00	1.093874e+03
2.380000e-06	1.251998e-06	1.596596e-08	8.957633e+00	1.042338e+03
2.390000e-06	1.121681e-06	1.512382e-08	8.025260e+00	9.874671e+02
2.400000e-06	9.911097e-07	1.422753e-08	7.091063e+00	9.290032e+02
2.410000e-06	8.602402e-07	1.327879e-08	6.154735e+00	8.667806e+02
2.420000e-06	7.290081e-07	1.227784e-08	5.215812e+00	8.007892e+02
2.430000e-06	5.974661e-07	1.122402e-08	4.274673e+00	7.312169e+02
2.440000e-06	4.657131e-07	1.011990e-08	3.332024e+00	6.584577e+02
2.450000e-06	3.337370e-07	8.969835e-09	2.387778e+00	5.830762e+02
2.460000e-06	2.015840e-07	7.784767e-09	1.442267e+00	5.057334e+02
2.470000e-06	6.937152e-08	6.577725e-09	4.963303e-01	4.270821e+02
2.480000e-06	-6.287830e-08	5.361396e-09	-4.498735e-01	3.476566e+02
2.490000e-06	-1.951298e-07	4.140091e-09	-1.396090e+00	2.677782e+02
2.500000e-06	-3.272938e-07	2.910323e-09	-2.341679e+00	1.875021e+02
2.510000e-06	-4.593254e-07	1.670242e-09	-3.286322e+00	1.066203e+02
2.520000e-06	-5.911854e-07	4.171637e-10	-4.229736e+00	2.472399e+01
2.530000e-06	-7.228805e-07	-8.562094e-10	-5.171972e+00	-5.868188e+01
2.540000e-06	-8.543445e-07	-2.157542e-09	-6.112553e+00	-1.440354e+02
2.550000e-06	-9.854462e-07	-3.488885e-09	-7.050543e+00	-2.315731e+02
2.560000e-06	-1.116169e-06	-4.850875e-09	-7.985823e+00	-3.212151e+02
2.570000e-06	-1.246543e-06	-6.243362e-09	-8.918607e+00	-4.125045e+02
2.580000e-06	-1.376584e-06	-7.656400e-09	-9.849001e+00	-5.046149e+02
2.590000e-06	-1.506230e-06	-9.070004e-09	-1.077658e+01	-5.964261e+02
2.600000e-06	-1.635372e-06	-1.045817e-08	-1.170055e+01	-6.866535e+02
2.610000e-06	-1.763913e-06	-1.179824e-08	-1.262022e+01	-7.740061e+02
2.620000e-06	-1.891777e-06	-1.307319e-08	-1.353504e+01	-8.573436e+02
2.630000e-06	-2.018855e-06	-1.427002e-08	-1.444424e+01	-9.358022e+02
2.640000e-06	-2.145242e-06	-1.538423e-08	-1.534850e+01	-1.008870e+03
2.650000e-06	-2.270881e-06	-1.641695e-08	-1.624741e+01	-1.076401e+03
2.660000e-06	-2.395575e-06	-1.737106e-08	-1.713955e+01	-1.138572e+03
2.670000e-06	-2.519293e-06	-1.825125e-08	-1.802471e+01	-1.195795e+03
2.680000e-06	-2.641995e-06	-1.906391e-08	-1.890260e+01	-1.248608e+03
2.690000e-06	-2.763738e-06	-1.981634e-08	-1.977363e+01	-1.297575e+03
2.700000e-06	-2.884502e-06	-2.051643e-08	-2.063766e+01	-1.343199e+03
2.710000e-06	-3.004165e-06	-2.117108e-08	-2.149381e+01	-1.385875e+03
2.720000e-06	-3.122681e-06	-2.178391e-08	-2.234175e+01	-1.425881e+03
2.730000e-06	-3.239976e-06	-2.235799e-08	-2.318096e+01	-1.463396e+03
2.740000e-06	-3.355931e-06	-2.289308e-08	-2.401058e+01	-1.498540e+03
2.750000e-06	-3.470451e-06	-2.339153e-08	-2.482993e+01	-1.531419e+03
2.760000e-06	-3.583566e-06	-2.386027e-08	-2.563924e+01	-1.562157e+03
2.770000e-06	-3.695310e-06	-2.430006e-08	-2.643873e+01	-1.590916e+03
2.780000e-06	-3.805645e-06	-2.471308e-08	-2.722814e+01	-1.617887e+03
2.790000e-06	-3.914689e-06	-2.510313e-08	-2.800831e+01	-1.643281e+03
2.800000e-06	-4.022532e-06	-2.547411e-08	-2.877989e+01	-1.667296e+03
2.810000e-06	-4.129100e-06	-2.582487e-08	-2.954235e+01	-1.690097e+03
2.820000e-06	-4.234255e-06	-2.615478e-08	-3.029470e+01	-1.711802e+03
2.830000e-06	-4.337805e-06	-2.646993e-08	-3.103556e+01	-1.732477e+03
2.840000e-06	-4.439695e-06	-2.677112e-08	-3.176455e+01	-1.752148e+03
2.850000e-06	-4.539960e-06	-2.705773e-08	-3.248192e+01	-1.770823e+03
2.860000e-06	-4.638671e-06	-2.732575e-08	-3.318816e+01	-1.788510e+03
2.870000e-06	-4.735853e-06	-2.757686e-08	-3.388346e+01	-1.805233e+03
2.880000e-06	-4.831368e-06	-2.781687e-08	-3.456684e+01	-1.821046e+03
2.890000e-06	-4.925029e-06	-2.804924e-08	-3.523696e+01	-1.836022e+03
2.900000e-06	-5.016881e-06	-2.827459e-08	-3.589413e+01	-1.850251e+03
2.910000e-06	-5.107051e-06	-2.848874e-08	-3.653927e+01	-1.863818e+03
2.920000e-06	-5.195394e-06	-2.869197e-08	-3.717133e+01	-1.876792e+03
2.930000e-06	-5.281738e-06	-2.888280e-08	-3.778910e+01	-1.889218e+03
2.940000e-06	-5.366094e-06	-2.906088e-08	-3.839263e+01	-1.901112e+03
