# Temperatura_=_85.66
# Concentracion g/m^3_=_28200.0
# C_Vs_to_Am_M_A/Vsm_=_65563218390.804596
# pendiente_HvsI_1/m_=_3716.3
# ordenada_HvsI_A/m_=_1297.0
# frecuencia_Hz_=_302271.5580735482

Tiempo_(s)	Campo_(V.s)	Magnetizacion_(V.s)	Campo_(kA/m)	Magnetizacion_(A/m)
0.000000e+00	-6.919689e-06	-3.103998e-08	-4.952133e+01	-2.032335e+03
1.000000e-08	-6.916337e-06	-3.103120e-08	-4.949734e+01	-2.031732e+03
2.000000e-08	-6.910771e-06	-3.101512e-08	-4.945751e+01	-2.030893e+03
3.000000e-08	-6.903085e-06	-3.100086e-08	-4.940250e+01	-2.029838e+03
4.000000e-08	-6.893018e-06	-3.098454e-08	-4.933046e+01	-2.028585e+03
5.000000e-08	-6.880356e-06	-3.096324e-08	-4.923984e+01	-2.027151e+03
6.000000e-08	-6.865163e-06	-3.093463e-08	-4.913111e+01	-2.025543e+03
7.000000e-08	-6.847677e-06	-3.089956e-08	-4.900597e+01	-2.023764e+03
8.000000e-08	-6.828140e-06	-3.086875e-08	-4.886615e+01	-2.021813e+03
9.000000e-08	-6.806345e-06	-3.089211e-08	-4.871017e+01	-2.019692e+03
1.000000e-07	-6.781838e-06	-3.086769e-08	-4.853479e+01	-2.017410e+03
1.100000e-07	-6.754538e-06	-3.078594e-08	-4.833941e+01	-2.014985e+03
1.200000e-07	-6.724788e-06	-3.073307e-08	-4.812651e+01	-2.012441e+03
1.300000e-07	-6.692795e-06	-3.068892e-08	-4.789755e+01	-2.009800e+03
1.400000e-07	-6.658635e-06	-3.058064e-08	-4.765307e+01	-2.007074e+03
1.500000e-07	-6.622712e-06	-3.052704e-08	-4.739599e+01	-2.004254e+03
1.600000e-07	-6.584950e-06	-3.059790e-08	-4.712574e+01	-2.001308e+03
1.700000e-07	-6.544976e-06	-3.045088e-08	-4.683966e+01	-1.998180e+03
1.800000e-07	-6.502715e-06	-3.037504e-08	-4.653722e+01	-1.994799e+03
1.900000e-07	-6.457946e-06	-3.037825e-08	-4.621683e+01	-1.991093e+03
2.000000e-07	-6.410737e-06	-3.023562e-08	-4.587897e+01	-1.987002e+03
2.100000e-07	-6.361061e-06	-3.018529e-08	-4.552346e+01	-1.982490e+03
2.200000e-07	-6.308684e-06	-3.014497e-08	-4.514862e+01	-1.977556e+03
2.300000e-07	-6.253875e-06	-3.008806e-08	-4.475638e+01	-1.972230e+03
2.400000e-07	-6.196679e-06	-2.999166e-08	-4.434705e+01	-1.966565e+03
2.500000e-07	-6.137054e-06	-2.987582e-08	-4.392034e+01	-1.960621e+03
2.600000e-07	-6.075205e-06	-2.979436e-08	-4.347771e+01	-1.954450e+03
2.700000e-07	-6.011033e-06	-2.967251e-08	-4.301846e+01	-1.948080e+03
2.800000e-07	-5.944602e-06	-2.957123e-08	-4.254304e+01	-1.941511e+03
2.900000e-07	-5.876038e-06	-2.948617e-08	-4.205235e+01	-1.934710e+03
3.000000e-07	-5.805317e-06	-2.937247e-08	-4.154623e+01	-1.927623e+03
3.100000e-07	-5.732343e-06	-2.926515e-08	-4.102399e+01	-1.920193e+03
3.200000e-07	-5.656992e-06	-2.913355e-08	-4.048473e+01	-1.912370e+03
3.300000e-07	-5.579332e-06	-2.901048e-08	-3.992895e+01	-1.904124e+03
3.400000e-07	-5.499438e-06	-2.887160e-08	-3.935719e+01	-1.895454e+03
3.500000e-07	-5.417566e-06	-2.874450e-08	-3.877126e+01	-1.886380e+03
3.600000e-07	-5.333920e-06	-2.860952e-08	-3.817264e+01	-1.876933e+03
3.700000e-07	-5.248508e-06	-2.844707e-08	-3.756138e+01	-1.867142e+03
3.800000e-07	-5.161367e-06	-2.830125e-08	-3.693776e+01	-1.857022e+03
3.900000e-07	-5.072378e-06	-2.813363e-08	-3.630089e+01	-1.846558e+03
4.000000e-07	-4.981472e-06	-2.796384e-08	-3.565032e+01	-1.835713e+03
4.100000e-07	-4.888824e-06	-2.778725e-08	-3.498728e+01	-1.824429e+03
4.200000e-07	-4.794629e-06	-2.761603e-08	-3.431316e+01	-1.812645e+03
4.300000e-07	-4.698806e-06	-2.743091e-08	-3.362740e+01	-1.800307e+03
4.400000e-07	-4.601189e-06	-2.722600e-08	-3.292879e+01	-1.787384e+03
4.500000e-07	-4.501825e-06	-2.701462e-08	-3.221768e+01	-1.773871e+03
4.600000e-07	-4.400806e-06	-2.679660e-08	-3.149474e+01	-1.759783e+03
4.700000e-07	-4.298344e-06	-2.657738e-08	-3.076146e+01	-1.745148e+03
4.800000e-07	-4.194456e-06	-2.634842e-08	-3.001797e+01	-1.729986e+03
4.900000e-07	-4.088982e-06	-2.611949e-08	-2.926314e+01	-1.714296e+03
5.000000e-07	-3.981927e-06	-2.587191e-08	-2.849699e+01	-1.698046e+03
5.100000e-07	-3.873395e-06	-2.560973e-08	-2.772027e+01	-1.681172e+03
5.200000e-07	-3.763547e-06	-2.533181e-08	-2.693413e+01	-1.663588e+03
5.300000e-07	-3.652461e-06	-2.504114e-08	-2.613914e+01	-1.645199e+03
5.400000e-07	-3.540029e-06	-2.474144e-08	-2.533451e+01	-1.625922e+03
5.500000e-07	-3.426046e-06	-2.443222e-08	-2.451879e+01	-1.605697e+03
5.600000e-07	-3.310495e-06	-2.411298e-08	-2.369183e+01	-1.584492e+03
5.700000e-07	-3.193563e-06	-2.377491e-08	-2.285500e+01	-1.562301e+03
5.800000e-07	-3.075408e-06	-2.342324e-08	-2.200941e+01	-1.539126e+03
5.900000e-07	-2.956146e-06	-2.305281e-08	-2.115591e+01	-1.514956e+03
6.000000e-07	-2.835842e-06	-2.266996e-08	-2.029494e+01	-1.489748e+03
6.100000e-07	-2.714485e-06	-2.226963e-08	-1.942643e+01	-1.463414e+03
6.200000e-07	-2.592015e-06	-2.184618e-08	-1.854997e+01	-1.435817e+03
6.300000e-07	-2.468423e-06	-2.139708e-08	-1.766548e+01	-1.406782e+03
6.400000e-07	-2.343968e-06	-2.092204e-08	-1.677480e+01	-1.376120e+03
6.500000e-07	-2.218826e-06	-2.042113e-08	-1.587921e+01	-1.343643e+03
6.600000e-07	-2.092981e-06	-1.989184e-08	-1.497859e+01	-1.309188e+03
6.700000e-07	-1.966455e-06	-1.933844e-08	-1.407310e+01	-1.272625e+03
6.800000e-07	-1.839228e-06	-1.875481e-08	-1.316259e+01	-1.233843e+03
6.900000e-07	-1.711314e-06	-1.813370e-08	-1.224716e+01	-1.192739e+03
7.000000e-07	-1.582838e-06	-1.746812e-08	-1.132771e+01	-1.149184e+03
7.100000e-07	-1.453853e-06	-1.676168e-08	-1.040462e+01	-1.103008e+03
7.200000e-07	-1.324335e-06	-1.600962e-08	-9.477713e+00	-1.053985e+03
7.300000e-07	-1.194344e-06	-1.520733e-08	-8.547425e+00	-1.001849e+03
7.400000e-07	-1.063907e-06	-1.435666e-08	-7.613942e+00	-9.463331e+02
7.500000e-07	-9.330308e-07	-1.345312e-08	-6.677312e+00	-8.872191e+02
7.600000e-07	-8.017998e-07	-1.249546e-08	-5.738147e+00	-8.244055e+02
7.700000e-07	-6.703052e-07	-1.148353e-08	-4.797095e+00	-7.579593e+02
7.800000e-07	-5.386102e-07	-1.042339e-08	-3.854609e+00	-6.881461e+02
7.900000e-07	-4.067369e-07	-9.321100e-09	-2.910847e+00	-6.154224e+02
8.000000e-07	-2.747620e-07	-8.183581e-09	-1.966357e+00	-5.403861e+02
8.100000e-07	-1.427201e-07	-7.015926e-09	-1.021388e+00	-4.636919e+02
8.200000e-07	-1.057586e-08	-5.828387e-09	-7.568699e-02	-3.859451e+02
8.300000e-07	1.216060e-07	-4.630326e-09	8.702833e-01	-3.075971e+02
8.400000e-07	2.537640e-07	-3.426702e-09	1.816083e+00	-2.288667e+02
8.500000e-07	3.858650e-07	-2.220267e-09	2.761475e+00	-1.497074e+02
8.600000e-07	5.178746e-07	-1.005988e-09	3.706213e+00	-6.983163e+01
8.700000e-07	6.497831e-07	2.227349e-10	4.650227e+00	1.120719e+01
8.800000e-07	7.815388e-07	1.476210e-09	5.593147e+00	9.388991e+01
8.900000e-07	9.130528e-07	2.761136e-09	6.534339e+00	1.785876e+02
9.000000e-07	1.044257e-06	4.081876e-09	7.473313e+00	2.654274e+02
9.100000e-07	1.175091e-06	5.435133e-09	8.409635e+00	3.541975e+02
9.200000e-07	1.305406e-06	6.810650e-09	9.342243e+00	4.443110e+02
9.300000e-07	1.435083e-06	8.192754e-09	1.027029e+01	5.348390e+02
9.400000e-07	1.564100e-06	9.563491e-09	1.119361e+01	6.246061e+02
9.500000e-07	1.692521e-06	1.090259e-08	1.211267e+01	7.123313e+02
9.600000e-07	1.820350e-06	1.218619e-08	1.302749e+01	7.967861e+02
9.700000e-07	1.947590e-06	1.339895e-08	1.393809e+01	8.769405e+02
9.800000e-07	2.074146e-06	1.453013e-08	1.484380e+01	9.520710e+02
9.900000e-07	2.199912e-06	1.557905e-08	1.574385e+01	1.021812e+03
1.000000e-06	2.324936e-06	1.654856e-08	1.663860e+01	1.086147e+03
1.010000e-06	2.449243e-06	1.744719e-08	1.752821e+01	1.145350e+03
1.020000e-06	2.572779e-06	1.828149e-08	1.841231e+01	1.199885e+03
1.030000e-06	2.695263e-06	1.905369e-08	1.928887e+01	1.250303e+03
1.040000e-06	2.816490e-06	1.976931e-08	2.015645e+01	1.297141e+03
1.050000e-06	2.936583e-06	2.043513e-08	2.101590e+01	1.340854e+03
1.060000e-06	3.055663e-06	2.105744e-08	2.186810e+01	1.381784e+03
1.070000e-06	3.173718e-06	2.163660e-08	2.271298e+01	1.420158e+03
1.080000e-06	3.290648e-06	2.217836e-08	2.354979e+01	1.456123e+03
1.090000e-06	3.406291e-06	2.268661e-08	2.437741e+01	1.489785e+03
1.100000e-06	3.520470e-06	2.316217e-08	2.519454e+01	1.521255e+03
1.110000e-06	3.633165e-06	2.360788e-08	2.600105e+01	1.550670e+03
1.120000e-06	3.744530e-06	2.402805e-08	2.679804e+01	1.578207e+03
1.130000e-06	3.854621e-06	2.442635e-08	2.758591e+01	1.604070e+03
1.140000e-06	3.963504e-06	2.480398e-08	2.836515e+01	1.628472e+03
1.150000e-06	4.071231e-06	2.516044e-08	2.913611e+01	1.651599e+03
1.160000e-06	4.177496e-06	2.549741e-08	2.989660e+01	1.673597e+03
1.170000e-06	4.282046e-06	2.581505e-08	3.064482e+01	1.694560e+03
1.180000e-06	4.385003e-06	2.611370e-08	3.138164e+01	1.714528e+03
1.190000e-06	4.486439e-06	2.639558e-08	3.210757e+01	1.733510e+03
1.200000e-06	4.586370e-06	2.666268e-08	3.282274e+01	1.751504e+03
1.210000e-06	4.684589e-06	2.691873e-08	3.352565e+01	1.768517e+03
1.220000e-06	4.780943e-06	2.716458e-08	3.421522e+01	1.784582e+03
1.230000e-06	4.875588e-06	2.739885e-08	3.489255e+01	1.799762e+03
1.240000e-06	4.968621e-06	2.762122e-08	3.555835e+01	1.814142e+03
1.250000e-06	5.060008e-06	2.783106e-08	3.621237e+01	1.827818e+03
1.260000e-06	5.149492e-06	2.802857e-08	3.685277e+01	1.840877e+03
1.270000e-06	5.236980e-06	2.821487e-08	3.747888e+01	1.853382e+03
1.280000e-06	5.322594e-06	2.839232e-08	3.809159e+01	1.865367e+03
1.290000e-06	5.406418e-06	2.856396e-08	3.869148e+01	1.876839e+03
1.300000e-06	5.488273e-06	2.873020e-08	3.927728e+01	1.887782e+03
1.310000e-06	5.568003e-06	2.888886e-08	3.984788e+01	1.898178e+03
1.320000e-06	5.645762e-06	2.903982e-08	4.040436e+01	1.908012e+03
1.330000e-06	5.721473e-06	2.918358e-08	4.094620e+01	1.917290e+03
1.340000e-06	5.794866e-06	2.931974e-08	4.147144e+01	1.926037e+03
1.350000e-06	5.866016e-06	2.944998e-08	4.198063e+01	1.934291e+03
1.360000e-06	5.935144e-06	2.957362e-08	4.247535e+01	1.942101e+03
1.370000e-06	6.002217e-06	2.968947e-08	4.295536e+01	1.949508e+03
1.380000e-06	6.067052e-06	2.979527e-08	4.341936e+01	1.956544e+03
1.390000e-06	6.129677e-06	2.989405e-08	4.386754e+01	1.963222e+03
1.400000e-06	6.190330e-06	2.998825e-08	4.430161e+01	1.969543e+03
1.410000e-06	6.248867e-06	3.007681e-08	4.472054e+01	1.975500e+03
1.420000e-06	6.305115e-06	3.016156e-08	4.512308e+01	1.981089e+03
1.430000e-06	6.359114e-06	3.024199e-08	4.550953e+01	1.986316e+03
1.440000e-06	6.410557e-06	3.031764e-08	4.587768e+01	1.991201e+03
1.450000e-06	6.459270e-06	3.038888e-08	4.622630e+01	1.995777e+03
1.460000e-06	6.505563e-06	3.045600e-08	4.655760e+01	2.000083e+03
1.470000e-06	6.549763e-06	3.051862e-08	4.687392e+01	2.004154e+03
1.480000e-06	6.591690e-06	3.057651e-08	4.717398e+01	2.008013e+03
1.490000e-06	6.631091e-06	3.063003e-08	4.745595e+01	2.011663e+03
1.500000e-06	6.668236e-06	3.068085e-08	4.772178e+01	2.015088e+03
1.510000e-06	6.703162e-06	3.072801e-08	4.797173e+01	2.018257e+03
1.520000e-06	6.735597e-06	3.077083e-08	4.820386e+01	2.021132e+03
1.530000e-06	6.765576e-06	3.080991e-08	4.841841e+01	2.023683e+03
1.540000e-06	6.793293e-06	3.084470e-08	4.861676e+01	2.025894e+03
1.550000e-06	6.818501e-06	3.087572e-08	4.879717e+01	2.027772e+03
1.560000e-06	6.841061e-06	3.090236e-08	4.895862e+01	2.029344e+03
1.570000e-06	6.861294e-06	3.092369e-08	4.910342e+01	2.030649e+03
1.580000e-06	6.879158e-06	3.094051e-08	4.923126e+01	2.031732e+03
1.590000e-06	6.894467e-06	3.095343e-08	4.934083e+01	2.032630e+03
1.600000e-06	6.907187e-06	3.096352e-08	4.943186e+01	2.033367e+03
1.610000e-06	6.917146e-06	3.097235e-08	4.950313e+01	2.033945e+03
1.620000e-06	6.924464e-06	3.098087e-08	4.955550e+01	2.034352e+03
1.630000e-06	6.929411e-06	3.098648e-08	4.959091e+01	2.034563e+03
1.640000e-06	6.931925e-06	3.098766e-08	4.960890e+01	2.034552e+03
1.650000e-06	6.931917e-06	3.098752e-08	4.960884e+01	2.034301e+03
1.660000e-06	6.929611e-06	3.097702e-08	4.959233e+01	2.033802e+03
1.670000e-06	6.925043e-06	3.096530e-08	4.955964e+01	2.033062e+03
1.680000e-06	6.918062e-06	3.095200e-08	4.950969e+01	2.032096e+03
1.690000e-06	6.908798e-06	3.093430e-08	4.944338e+01	2.030925e+03
1.700000e-06	6.897258e-06	3.091638e-08	4.936080e+01	2.029567e+03
1.710000e-06	6.883300e-06	3.089926e-08	4.926091e+01	2.028033e+03
1.720000e-06	6.867073e-06	3.088756e-08	4.914478e+01	2.026328e+03
1.730000e-06	6.848798e-06	3.084185e-08	4.901399e+01	2.024450e+03
1.740000e-06	6.828161e-06	3.074195e-08	4.886630e+01	2.022401e+03
1.750000e-06	6.804453e-06	3.072935e-08	4.869664e+01	2.020185e+03
1.760000e-06	6.777633e-06	3.073414e-08	4.850469e+01	2.017818e+03
1.770000e-06	6.748141e-06	3.067818e-08	4.829363e+01	2.015322e+03
1.780000e-06	6.716380e-06	3.069117e-08	4.806633e+01	2.012720e+03
1.790000e-06	6.682970e-06	3.069841e-08	4.782723e+01	2.010030e+03
1.800000e-06	6.648169e-06	3.052350e-08	4.757817e+01	2.007253e+03
1.810000e-06	6.611210e-06	3.054824e-08	4.731367e+01	2.004366e+03
1.820000e-06	6.571699e-06	3.057364e-08	4.703091e+01	2.001323e+03
1.830000e-06	6.530053e-06	3.048140e-08	4.673287e+01	1.998060e+03
1.840000e-06	6.486107e-06	3.055237e-08	4.641837e+01	1.994501e+03
1.850000e-06	6.439739e-06	3.040014e-08	4.608653e+01	1.990581e+03
1.860000e-06	6.391069e-06	3.030347e-08	4.573821e+01	1.986251e+03
1.870000e-06	6.340028e-06	3.022595e-08	4.537294e+01	1.981496e+03
1.880000e-06	6.286525e-06	3.007494e-08	4.499004e+01	1.976332e+03
1.890000e-06	6.230393e-06	3.010411e-08	4.458833e+01	1.970805e+03
1.900000e-06	6.171875e-06	2.998707e-08	4.416953e+01	1.964972e+03
1.910000e-06	6.111064e-06	2.992254e-08	4.373433e+01	1.958893e+03
1.920000e-06	6.047834e-06	2.987043e-08	4.328183e+01	1.952607e+03
1.930000e-06	5.982409e-06	2.969549e-08	4.281361e+01	1.946125e+03
1.940000e-06	5.914851e-06	2.962483e-08	4.233012e+01	1.939429e+03
1.950000e-06	5.845018e-06	2.946786e-08	4.183035e+01	1.932471e+03
1.960000e-06	5.772749e-06	2.938282e-08	4.131316e+01	1.925195e+03
1.970000e-06	5.698259e-06	2.927334e-08	4.078006e+01	1.917545e+03
1.980000e-06	5.621557e-06	2.914375e-08	4.023114e+01	1.909482e+03
1.990000e-06	5.542500e-06	2.904502e-08	3.966536e+01	1.900992e+03
2.000000e-06	5.461438e-06	2.887825e-08	3.908523e+01	1.892087e+03
2.010000e-06	5.378628e-06	2.876503e-08	3.849260e+01	1.882795e+03
2.020000e-06	5.293965e-06	2.859458e-08	3.788670e+01	1.873149e+03
2.030000e-06	5.207230e-06	2.844817e-08	3.726598e+01	1.863169e+03
2.040000e-06	5.118536e-06	2.829810e-08	3.663123e+01	1.852856e+03
2.050000e-06	5.028194e-06	2.812704e-08	3.598469e+01	1.842180e+03
2.060000e-06	4.936306e-06	2.796136e-08	3.532709e+01	1.831091e+03
2.070000e-06	4.842666e-06	2.776872e-08	3.465694e+01	1.819529e+03
2.080000e-06	4.747125e-06	2.759819e-08	3.397319e+01	1.807433e+03
2.090000e-06	4.649890e-06	2.740384e-08	3.327733e+01	1.794763e+03
2.100000e-06	4.551146e-06	2.721398e-08	3.257065e+01	1.781501e+03
2.110000e-06	4.450873e-06	2.700790e-08	3.185304e+01	1.767657e+03
2.120000e-06	4.348956e-06	2.679102e-08	3.112367e+01	1.753253e+03
2.130000e-06	4.245366e-06	2.655436e-08	3.038232e+01	1.738315e+03
2.140000e-06	4.140242e-06	2.630734e-08	2.962999e+01	1.722852e+03
2.150000e-06	4.033679e-06	2.606487e-08	2.886736e+01	1.706848e+03
2.160000e-06	3.925755e-06	2.581169e-08	2.809499e+01	1.690251e+03
2.170000e-06	3.816459e-06	2.555727e-08	2.731280e+01	1.672982e+03
2.180000e-06	3.705721e-06	2.528703e-08	2.652030e+01	1.654949e+03
2.190000e-06	3.593520e-06	2.500469e-08	2.571732e+01	1.636062e+03
2.200000e-06	3.479932e-06	2.469964e-08	2.490443e+01	1.616248e+03
2.210000e-06	3.364974e-06	2.438605e-08	2.408172e+01	1.595464e+03
2.220000e-06	3.248554e-06	2.405868e-08	2.324854e+01	1.573695e+03
2.230000e-06	3.130729e-06	2.371899e-08	2.240532e+01	1.550942e+03
2.240000e-06	3.011572e-06	2.335599e-08	2.155256e+01	1.527201e+03
2.250000e-06	2.891223e-06	2.297272e-08	2.069128e+01	1.502446e+03
2.260000e-06	2.769847e-06	2.257442e-08	1.982264e+01	1.476608e+03
2.270000e-06	2.647556e-06	2.216104e-08	1.894745e+01	1.449571e+03
2.280000e-06	2.524378e-06	2.173338e-08	1.806592e+01	1.421175e+03
2.290000e-06	2.400310e-06	2.128395e-08	1.717802e+01	1.391234e+03
2.300000e-06	2.275422e-06	2.080697e-08	1.628425e+01	1.359556e+03
2.310000e-06	2.149739e-06	2.029107e-08	1.538479e+01	1.325966e+03
2.320000e-06	2.023232e-06	1.974364e-08	1.447943e+01	1.290321e+03
2.330000e-06	1.895921e-06	1.916532e-08	1.356832e+01	1.252502e+03
2.340000e-06	1.767890e-06	1.855918e-08	1.265205e+01	1.212406e+03
2.350000e-06	1.639282e-06	1.791921e-08	1.173165e+01	1.169920e+03
2.360000e-06	1.510156e-06	1.723646e-08	1.080756e+01	1.124891e+03
2.370000e-06	1.380574e-06	1.650565e-08	9.880193e+00	1.077118e+03
2.380000e-06	1.250626e-06	1.572528e-08	8.950212e+00	1.026350e+03
2.390000e-06	1.120290e-06	1.489630e-08	8.017448e+00	9.723136e+02
2.400000e-06	9.896001e-07	1.401620e-08	7.082155e+00	9.147618e+02
2.410000e-06	8.586250e-07	1.308573e-08	6.144821e+00	8.535361e+02
2.420000e-06	7.273801e-07	1.210116e-08	5.205556e+00	7.886257e+02
2.430000e-06	5.959031e-07	1.106040e-08	4.264630e+00	7.202098e+02
2.440000e-06	4.642547e-07	9.970518e-09	3.322478e+00	6.486665e+02
2.450000e-06	3.324040e-07	8.838644e-09	2.378877e+00	5.745419e+02
2.460000e-06	2.003793e-07	7.674793e-09	1.434031e+00	4.984784e+02
2.470000e-06	6.830187e-08	6.489194e-09	4.888080e-01	4.211159e+02
2.480000e-06	-6.383397e-08	5.292930e-09	-4.568331e-01	3.429835e+02
2.490000e-06	-1.960003e-07	4.092305e-09	-1.402692e+00	2.644069e+02
2.500000e-06	-3.280887e-07	2.883731e-09	-2.347994e+00	1.854535e+02
2.510000e-06	-4.600446e-07	1.663838e-09	-3.292347e+00	1.059323e+02
2.520000e-06	-5.918601e-07	4.291644e-10	-4.235696e+00	2.545172e+01
2.530000e-06	-7.235134e-07	-8.225651e-10	-5.177884e+00	-5.647163e+01
2.540000e-06	-8.549142e-07	-2.098622e-09	-6.118264e+00	-1.402735e+02
2.550000e-06	-9.860225e-07	-3.403363e-09	-7.056552e+00	-2.262002e+02
2.560000e-06	-1.116833e-06	-4.739039e-09	-7.992709e+00	-3.141933e+02
2.570000e-06	-1.247243e-06	-6.105472e-09	-8.925995e+00	-4.038268e+02
2.580000e-06	-1.377209e-06	-7.493076e-09	-9.856113e+00	-4.943099e+02
2.590000e-06	-1.506728e-06	-8.882915e-09	-1.078303e+01	-5.845577e+02
2.600000e-06	-1.635723e-06	-1.025029e-08	-1.170619e+01	-6.733154e+02
2.610000e-06	-1.764187e-06	-1.157190e-08	-1.262555e+01	-7.593128e+02
2.620000e-06	-1.892170e-06	-1.282870e-08	-1.354147e+01	-8.414189e+02
2.630000e-06	-2.019548e-06	-1.400902e-08	-1.445306e+01	-9.187690e+02
2.640000e-06	-2.146038e-06	-1.510812e-08	-1.535830e+01	-9.908415e+02
2.650000e-06	-2.271537e-06	-1.612501e-08	-1.625644e+01	-1.057475e+03
2.660000e-06	-2.396083e-06	-1.706441e-08	-1.714777e+01	-1.118830e+03
2.670000e-06	-2.519700e-06	-1.793369e-08	-1.803245e+01	-1.175301e+03
2.680000e-06	-2.642370e-06	-1.873788e-08	-1.891034e+01	-1.227415e+03
2.690000e-06	-2.764086e-06	-1.948273e-08	-1.978141e+01	-1.275726e+03
2.700000e-06	-2.884841e-06	-2.017509e-08	-2.064560e+01	-1.320730e+03
2.710000e-06	-3.004575e-06	-2.082078e-08	-2.150249e+01	-1.362819e+03
2.720000e-06	-3.123077e-06	-2.142346e-08	-2.235056e+01	-1.402266e+03
2.730000e-06	-3.240213e-06	-2.198690e-08	-2.318885e+01	-1.439250e+03
2.740000e-06	-3.356083e-06	-2.251316e-08	-2.401809e+01	-1.473887e+03
2.750000e-06	-3.470634e-06	-2.300446e-08	-2.483788e+01	-1.506282e+03
2.760000e-06	-3.583803e-06	-2.346625e-08	-2.564778e+01	-1.536559e+03
2.770000e-06	-3.695474e-06	-2.389917e-08	-2.644697e+01	-1.564877e+03
2.780000e-06	-3.805700e-06	-2.430577e-08	-2.723581e+01	-1.591432e+03
2.790000e-06	-3.914684e-06	-2.469180e-08	-2.801576e+01	-1.616435e+03
2.800000e-06	-4.022458e-06	-2.505780e-08	-2.878706e+01	-1.640088e+03
2.810000e-06	-4.128932e-06	-2.540256e-08	-2.954905e+01	-1.662556e+03
2.820000e-06	-4.234002e-06	-2.572754e-08	-3.030099e+01	-1.683955e+03
2.830000e-06	-4.337584e-06	-2.603772e-08	-3.104228e+01	-1.704347e+03
2.840000e-06	-4.439418e-06	-2.633464e-08	-3.177107e+01	-1.723752e+03
2.850000e-06	-4.539535e-06	-2.661676e-08	-3.248756e+01	-1.742170e+03
2.860000e-06	-4.638168e-06	-2.688189e-08	-3.319343e+01	-1.759601e+03
2.870000e-06	-4.735253e-06	-2.713135e-08	-3.388823e+01	-1.776067e+03
2.880000e-06	-4.830686e-06	-2.736918e-08	-3.457121e+01	-1.791617e+03
2.890000e-06	-4.924302e-06	-2.759820e-08	-3.524117e+01	-1.806329e+03
2.900000e-06	-5.016160e-06	-2.781891e-08	-3.589857e+01	-1.820296e+03
2.910000e-06	-5.106319e-06	-2.802847e-08	-3.654380e+01	-1.833610e+03
2.920000e-06	-5.194595e-06	-2.822592e-08	-3.717555e+01	-1.846347e+03
2.930000e-06	-5.280839e-06	-2.841235e-08	-3.779276e+01	-1.858553e+03
2.940000e-06	-5.365056e-06	-2.858768e-08	-3.839547e+01	-1.870246e+03
