# Temperatura_=_62.58
# Concentracion g/m^3_=_26700.0
# C_Vs_to_Am_M_A/Vsm_=_65563218390.804596
# pendiente_HvsI_1/m_=_3716.3
# ordenada_HvsI_A/m_=_1297.0
# frecuencia_Hz_=_301855.90469386976

Tiempo_(s)	Campo_(V.s)	Magnetizacion_(V.s)	Campo_(kA/m)	Magnetizacion_(A/m)
0.000000e+00	-5.247270e-06	-6.973022e-10	-3.827547e+01	-4.536482e+01
1.000000e-08	-5.244927e-06	-6.968632e-10	-3.825838e+01	-4.534365e+01
2.000000e-08	-5.240806e-06	-6.958567e-10	-3.822832e+01	-4.531759e+01
3.000000e-08	-5.235107e-06	-6.937482e-10	-3.818675e+01	-4.528215e+01
4.000000e-08	-5.227858e-06	-6.925932e-10	-3.813387e+01	-4.522872e+01
5.000000e-08	-5.218857e-06	-6.923414e-10	-3.806822e+01	-4.514651e+01
6.000000e-08	-5.207838e-06	-6.912600e-10	-3.798784e+01	-4.502562e+01
7.000000e-08	-5.194917e-06	-6.927941e-10	-3.789359e+01	-4.486020e+01
8.000000e-08	-5.180062e-06	-6.887827e-10	-3.778524e+01	-4.465089e+01
9.000000e-08	-5.163038e-06	-6.701464e-10	-3.766105e+01	-4.440590e+01
1.000000e-07	-5.143964e-06	-6.685402e-10	-3.752192e+01	-4.414008e+01
1.100000e-07	-5.123026e-06	-6.723591e-10	-3.736919e+01	-4.387224e+01
1.200000e-07	-5.100344e-06	-6.650842e-10	-3.720374e+01	-4.362116e+01
1.300000e-07	-5.076156e-06	-6.815484e-10	-3.702731e+01	-4.340129e+01
1.400000e-07	-5.050461e-06	-6.745697e-10	-3.683988e+01	-4.321916e+01
1.500000e-07	-5.023134e-06	-6.287747e-10	-3.664055e+01	-4.307149e+01
1.600000e-07	-4.994287e-06	-6.524518e-10	-3.643013e+01	-4.294542e+01
1.700000e-07	-4.964048e-06	-6.534930e-10	-3.620955e+01	-4.282105e+01
1.800000e-07	-4.932080e-06	-6.400123e-10	-3.597636e+01	-4.267553e+01
1.900000e-07	-4.898058e-06	-6.772050e-10	-3.572820e+01	-4.248784e+01
2.000000e-07	-4.862326e-06	-6.304536e-10	-3.546755e+01	-4.224307e+01
2.100000e-07	-4.825083e-06	-5.907934e-10	-3.519589e+01	-4.193513e+01
2.200000e-07	-4.786173e-06	-6.175583e-10	-3.491206e+01	-4.156738e+01
2.300000e-07	-4.745433e-06	-6.114359e-10	-3.461489e+01	-4.115099e+01
2.400000e-07	-4.702693e-06	-6.044532e-10	-3.430314e+01	-4.070159e+01
2.500000e-07	-4.658138e-06	-5.981316e-10	-3.397814e+01	-4.023504e+01
2.600000e-07	-4.611912e-06	-5.824946e-10	-3.364094e+01	-3.976361e+01
2.700000e-07	-4.563904e-06	-5.974737e-10	-3.329075e+01	-3.929338e+01
2.800000e-07	-4.513912e-06	-5.933289e-10	-3.292610e+01	-3.882348e+01
2.900000e-07	-4.461866e-06	-5.747197e-10	-3.254645e+01	-3.834746e+01
3.000000e-07	-4.408023e-06	-5.541280e-10	-3.215370e+01	-3.785601e+01
3.100000e-07	-4.352578e-06	-5.479035e-10	-3.174926e+01	-3.734047e+01
3.200000e-07	-4.295448e-06	-5.597734e-10	-3.133254e+01	-3.679588e+01
3.300000e-07	-4.236587e-06	-5.458013e-10	-3.090319e+01	-3.622287e+01
3.400000e-07	-4.176242e-06	-5.299387e-10	-3.046301e+01	-3.562778e+01
3.500000e-07	-4.114531e-06	-5.225901e-10	-3.001286e+01	-3.502101e+01
3.600000e-07	-4.051447e-06	-5.112450e-10	-2.955271e+01	-3.441413e+01
3.700000e-07	-3.986979e-06	-4.968188e-10	-2.908246e+01	-3.381658e+01
3.800000e-07	-3.920904e-06	-4.958389e-10	-2.860049e+01	-3.323288e+01
3.900000e-07	-3.853198e-06	-5.041216e-10	-2.810661e+01	-3.266121e+01
4.000000e-07	-3.784136e-06	-4.825385e-10	-2.760285e+01	-3.209363e+01
4.100000e-07	-3.713921e-06	-4.523552e-10	-2.709067e+01	-3.151811e+01
4.200000e-07	-3.642621e-06	-4.461166e-10	-2.657059e+01	-3.092155e+01
4.300000e-07	-3.570033e-06	-4.460666e-10	-2.604110e+01	-3.029314e+01
4.400000e-07	-3.495888e-06	-4.405091e-10	-2.550026e+01	-2.962711e+01
4.500000e-07	-3.420178e-06	-4.325456e-10	-2.494801e+01	-2.892408e+01
4.600000e-07	-3.343113e-06	-4.224393e-10	-2.438587e+01	-2.819084e+01
4.700000e-07	-3.264814e-06	-4.027893e-10	-2.381473e+01	-2.743839e+01
4.800000e-07	-3.185169e-06	-3.841851e-10	-2.323377e+01	-2.667914e+01
4.900000e-07	-3.104217e-06	-3.766610e-10	-2.264327e+01	-2.592377e+01
5.000000e-07	-3.022158e-06	-3.676220e-10	-2.204471e+01	-2.517880e+01
5.100000e-07	-2.939104e-06	-3.557895e-10	-2.143888e+01	-2.444531e+01
5.200000e-07	-2.855232e-06	-3.446460e-10	-2.082709e+01	-2.371929e+01
5.300000e-07	-2.770560e-06	-3.347475e-10	-2.020946e+01	-2.299327e+01
5.400000e-07	-2.684950e-06	-3.217217e-10	-1.958499e+01	-2.225882e+01
5.500000e-07	-2.598372e-06	-3.117607e-10	-1.895346e+01	-2.150909e+01
5.600000e-07	-2.510852e-06	-3.060013e-10	-1.831505e+01	-2.074081e+01
5.700000e-07	-2.422492e-06	-2.939328e-10	-1.767053e+01	-1.995506e+01
5.800000e-07	-2.333114e-06	-2.779994e-10	-1.701857e+01	-1.915672e+01
5.900000e-07	-2.242589e-06	-2.618430e-10	-1.635825e+01	-1.835292e+01
6.000000e-07	-2.151239e-06	-2.470858e-10	-1.569191e+01	-1.755074e+01
6.100000e-07	-2.059291e-06	-2.332166e-10	-1.502121e+01	-1.675510e+01
6.200000e-07	-1.966643e-06	-2.224166e-10	-1.434540e+01	-1.596727e+01
6.300000e-07	-1.873187e-06	-2.151335e-10	-1.366370e+01	-1.518451e+01
6.400000e-07	-1.779070e-06	-2.064625e-10	-1.297718e+01	-1.440079e+01
6.500000e-07	-1.684392e-06	-1.961043e-10	-1.228656e+01	-1.360848e+01
6.600000e-07	-1.589171e-06	-1.837772e-10	-1.159199e+01	-1.280031e+01
6.700000e-07	-1.493473e-06	-1.680472e-10	-1.089393e+01	-1.197131e+01
6.800000e-07	-1.397237e-06	-1.514806e-10	-1.019195e+01	-1.111988e+01
6.900000e-07	-1.300426e-06	-1.384901e-10	-9.485778e+00	-1.024802e+01
7.000000e-07	-1.203088e-06	-1.279866e-10	-8.775754e+00	-9.360562e+00
7.100000e-07	-1.105199e-06	-1.173264e-10	-8.061717e+00	-8.463744e+00
7.200000e-07	-1.006800e-06	-1.049170e-10	-7.343964e+00	-7.563558e+00
7.300000e-07	-9.080287e-07	-9.146853e-11	-6.623488e+00	-6.664401e+00
7.400000e-07	-8.089897e-07	-7.619392e-11	-5.901061e+00	-5.768347e+00
7.500000e-07	-7.097085e-07	-6.166698e-11	-5.176869e+00	-4.875203e+00
7.600000e-07	-6.102044e-07	-5.038375e-11	-4.451050e+00	-3.983250e+00
7.700000e-07	-5.105244e-07	-3.912294e-11	-3.723949e+00	-3.090348e+00
7.800000e-07	-4.107018e-07	-2.642034e-11	-2.995807e+00	-2.195017e+00
7.900000e-07	-3.107718e-07	-1.125319e-11	-2.266881e+00	-1.297133e+00
8.000000e-07	-2.107415e-07	3.334868e-12	-1.537225e+00	-3.980128e-01
8.100000e-07	-1.106445e-07	1.545203e-11	-8.070808e-01	5.000848e-01
8.200000e-07	-1.049971e-08	2.705966e-11	-7.658867e-02	1.394856e+00
8.300000e-07	8.967815e-08	3.909594e-11	6.541446e-01	2.284894e+00
8.400000e-07	1.898844e-07	5.127645e-11	1.385085e+00	3.170322e+00
8.500000e-07	2.900392e-07	6.487467e-11	2.115650e+00	4.052885e+00
8.600000e-07	3.901078e-07	7.946882e-11	2.845587e+00	4.935423e+00
8.700000e-07	4.901230e-07	9.338362e-11	3.575133e+00	5.820883e+00
8.800000e-07	5.899747e-07	1.069716e-10	4.303487e+00	6.711194e+00
8.900000e-07	6.896223e-07	1.195043e-10	5.030353e+00	7.606370e+00
9.000000e-07	7.890742e-07	1.310162e-10	5.755790e+00	8.504166e+00
9.100000e-07	8.883184e-07	1.436667e-10	6.479714e+00	9.400442e+00
9.200000e-07	9.872850e-07	1.566892e-10	7.201612e+00	1.029016e+01
9.300000e-07	1.085893e-06	1.685173e-10	7.920896e+00	1.116871e+01
9.400000e-07	1.184095e-06	1.810299e-10	8.637212e+00	1.203325e+01
9.500000e-07	1.281710e-06	1.959228e-10	9.349255e+00	1.288352e+01
9.600000e-07	1.378615e-06	2.103078e-10	1.005612e+01	1.372190e+01
9.700000e-07	1.474826e-06	2.216319e-10	1.075791e+01	1.455275e+01
9.800000e-07	1.570440e-06	2.327127e-10	1.145535e+01	1.538101e+01
9.900000e-07	1.665493e-06	2.459191e-10	1.214870e+01	1.621062e+01
1.000000e-06	1.759971e-06	2.586031e-10	1.283786e+01	1.704310e+01
1.010000e-06	1.853866e-06	2.690885e-10	1.352277e+01	1.787686e+01
1.020000e-06	1.947180e-06	2.798608e-10	1.420343e+01	1.870729e+01
1.030000e-06	2.039892e-06	2.926694e-10	1.487971e+01	1.952787e+01
1.040000e-06	2.131897e-06	3.050948e-10	1.555083e+01	2.033174e+01
1.050000e-06	2.223188e-06	3.178600e-10	1.621673e+01	2.111357e+01
1.060000e-06	2.313692e-06	3.315365e-10	1.687690e+01	2.187098e+01
1.070000e-06	2.403151e-06	3.446979e-10	1.752944e+01	2.260518e+01
1.080000e-06	2.491493e-06	3.557089e-10	1.817384e+01	2.332068e+01
1.090000e-06	2.578941e-06	3.648186e-10	1.881172e+01	2.402405e+01
1.100000e-06	2.665597e-06	3.749350e-10	1.944383e+01	2.472209e+01
1.110000e-06	2.751369e-06	3.844725e-10	2.006948e+01	2.542001e+01
1.120000e-06	2.836248e-06	3.935468e-10	2.068861e+01	2.611997e+01
1.130000e-06	2.920315e-06	4.043343e-10	2.130183e+01	2.682057e+01
1.140000e-06	3.003587e-06	4.159217e-10	2.190924e+01	2.751735e+01
1.150000e-06	3.085866e-06	4.266159e-10	2.250941e+01	2.820407e+01
1.160000e-06	3.166929e-06	4.369664e-10	2.310072e+01	2.887457e+01
1.170000e-06	3.246777e-06	4.488315e-10	2.368316e+01	2.952455e+01
1.180000e-06	3.325471e-06	4.606832e-10	2.425718e+01	3.015278e+01
1.190000e-06	3.403016e-06	4.700364e-10	2.482282e+01	3.076142e+01
1.200000e-06	3.479369e-06	4.785898e-10	2.537977e+01	3.135536e+01
1.210000e-06	3.554413e-06	4.870344e-10	2.592717e+01	3.194074e+01
1.220000e-06	3.627902e-06	4.956282e-10	2.646322e+01	3.252315e+01
1.230000e-06	3.699898e-06	5.039762e-10	2.698838e+01	3.310600e+01
1.240000e-06	3.770601e-06	5.126169e-10	2.750412e+01	3.368945e+01
1.250000e-06	3.839954e-06	5.207038e-10	2.801000e+01	3.427040e+01
1.260000e-06	3.908067e-06	5.284388e-10	2.850685e+01	3.484327e+01
1.270000e-06	3.974865e-06	5.381243e-10	2.899409e+01	3.540156e+01
1.280000e-06	4.040012e-06	5.491990e-10	2.946930e+01	3.593952e+01
1.290000e-06	4.103564e-06	5.580636e-10	2.993287e+01	3.645365e+01
1.300000e-06	4.165710e-06	5.638476e-10	3.038618e+01	3.694346e+01
1.310000e-06	4.226510e-06	5.691443e-10	3.082968e+01	3.741128e+01
1.320000e-06	4.286001e-06	5.754875e-10	3.126363e+01	3.786136e+01
1.330000e-06	4.343888e-06	5.824354e-10	3.168588e+01	3.829839e+01
1.340000e-06	4.400007e-06	5.881795e-10	3.209523e+01	3.872601e+01
1.350000e-06	4.454537e-06	5.935436e-10	3.249300e+01	3.914570e+01
1.360000e-06	4.507454e-06	6.002552e-10	3.287899e+01	3.955644e+01
1.370000e-06	4.558510e-06	6.074497e-10	3.325141e+01	3.995511e+01
1.380000e-06	4.607590e-06	6.138876e-10	3.360942e+01	4.033764e+01
1.390000e-06	4.654884e-06	6.193851e-10	3.395440e+01	4.070044e+01
1.400000e-06	4.700575e-06	6.236444e-10	3.428768e+01	4.104160e+01
1.410000e-06	4.744767e-06	6.286802e-10	3.461004e+01	4.136166e+01
1.420000e-06	4.787328e-06	6.335412e-10	3.492049e+01	4.166353e+01
1.430000e-06	4.828042e-06	6.377522e-10	3.521747e+01	4.195170e+01
1.440000e-06	4.867023e-06	6.422939e-10	3.550182e+01	4.223098e+01
1.450000e-06	4.904406e-06	6.466895e-10	3.577450e+01	4.250511e+01
1.460000e-06	4.940256e-06	6.506777e-10	3.603600e+01	4.277576e+01
1.470000e-06	4.974326e-06	6.535285e-10	3.628452e+01	4.304218e+01
1.480000e-06	5.006496e-06	6.568472e-10	3.651918e+01	4.330159e+01
1.490000e-06	5.036956e-06	6.620377e-10	3.674137e+01	4.355025e+01
1.500000e-06	5.065751e-06	6.665931e-10	3.695141e+01	4.378476e+01
1.510000e-06	5.092830e-06	6.699998e-10	3.714893e+01	4.400317e+01
1.520000e-06	5.117928e-06	6.731903e-10	3.733201e+01	4.420563e+01
1.530000e-06	5.141027e-06	6.755114e-10	3.750050e+01	4.439422e+01
1.540000e-06	5.162355e-06	6.786197e-10	3.765607e+01	4.457205e+01
1.550000e-06	5.182043e-06	6.823762e-10	3.779968e+01	4.474197e+01
1.560000e-06	5.199949e-06	6.868541e-10	3.793030e+01	4.490522e+01
1.570000e-06	5.215868e-06	6.905039e-10	3.804642e+01	4.506060e+01
1.580000e-06	5.229851e-06	6.905793e-10	3.814841e+01	4.520438e+01
1.590000e-06	5.241889e-06	6.905615e-10	3.823622e+01	4.533115e+01
1.600000e-06	5.251825e-06	6.915527e-10	3.830870e+01	4.543527e+01
1.610000e-06	5.259683e-06	6.927493e-10	3.836602e+01	4.551261e+01
1.620000e-06	5.265616e-06	6.935906e-10	3.840929e+01	4.556194e+01
1.630000e-06	5.269816e-06	6.945183e-10	3.843993e+01	4.558556e+01
1.640000e-06	5.272195e-06	6.964588e-10	3.845728e+01	4.558874e+01
1.650000e-06	5.272567e-06	6.974504e-10	3.846000e+01	4.557822e+01
1.660000e-06	5.271142e-06	6.973950e-10	3.844960e+01	4.556001e+01
1.670000e-06	5.268088e-06	6.952181e-10	3.842733e+01	4.553723e+01
1.680000e-06	5.263383e-06	6.946360e-10	3.839301e+01	4.550849e+01
1.690000e-06	5.256829e-06	6.941016e-10	3.834520e+01	4.546771e+01
1.700000e-06	5.248509e-06	6.911726e-10	3.828451e+01	4.540518e+01
1.710000e-06	5.238671e-06	6.896790e-10	3.821275e+01	4.531007e+01
1.720000e-06	5.227245e-06	6.867611e-10	3.812940e+01	4.517357e+01
1.730000e-06	5.213946e-06	6.857693e-10	3.803239e+01	4.499193e+01
1.740000e-06	5.198585e-06	7.030182e-10	3.792035e+01	4.476847e+01
1.750000e-06	5.181044e-06	6.970387e-10	3.779240e+01	4.451398e+01
1.760000e-06	5.161039e-06	6.900587e-10	3.764647e+01	4.424510e+01
1.770000e-06	5.138637e-06	6.813318e-10	3.748306e+01	4.398115e+01
1.780000e-06	5.114596e-06	6.366405e-10	3.730770e+01	4.373982e+01
1.790000e-06	5.089669e-06	6.630603e-10	3.712588e+01	4.353309e+01
1.800000e-06	5.063707e-06	6.834959e-10	3.693650e+01	4.336410e+01
1.810000e-06	5.035947e-06	6.554146e-10	3.673400e+01	4.322597e+01
1.820000e-06	5.006262e-06	6.824881e-10	3.651747e+01	4.310296e+01
1.830000e-06	4.974865e-06	6.396091e-10	3.628845e+01	4.297359e+01
1.840000e-06	4.941610e-06	6.059325e-10	3.604588e+01	4.281511e+01
1.850000e-06	4.906665e-06	6.806654e-10	3.579098e+01	4.260825e+01
1.860000e-06	4.870112e-06	6.523165e-10	3.552435e+01	4.234103e+01
1.870000e-06	4.831611e-06	6.252407e-10	3.524350e+01	4.201080e+01
1.880000e-06	4.791344e-06	6.449346e-10	3.494978e+01	4.162400e+01
1.890000e-06	4.749452e-06	6.101820e-10	3.464421e+01	4.119385e+01
1.900000e-06	4.705868e-06	6.458434e-10	3.432629e+01	4.073653e+01
1.910000e-06	4.660616e-06	6.285435e-10	3.399621e+01	4.026703e+01
1.920000e-06	4.613556e-06	5.729051e-10	3.365294e+01	3.979562e+01
1.930000e-06	4.564888e-06	6.120585e-10	3.329793e+01	3.932586e+01
1.940000e-06	4.514569e-06	6.061475e-10	3.293089e+01	3.885465e+01
1.950000e-06	4.462339e-06	6.005563e-10	3.254991e+01	3.837415e+01
1.960000e-06	4.408176e-06	5.763415e-10	3.215482e+01	3.787488e+01
1.970000e-06	4.352190e-06	5.484079e-10	3.174644e+01	3.734919e+01
1.980000e-06	4.294636e-06	5.720199e-10	3.132662e+01	3.679398e+01
1.990000e-06	4.235634e-06	5.375848e-10	3.089624e+01	3.621202e+01
2.000000e-06	4.175248e-06	5.376134e-10	3.045576e+01	3.561135e+01
2.010000e-06	4.113326e-06	5.510536e-10	3.000407e+01	3.500317e+01
2.020000e-06	4.049696e-06	5.288418e-10	2.953993e+01	3.439867e+01
2.030000e-06	3.984601e-06	5.041385e-10	2.906511e+01	3.380578e+01
2.040000e-06	3.918174e-06	4.746970e-10	2.858057e+01	3.322685e+01
2.050000e-06	3.850370e-06	5.058409e-10	2.808598e+01	3.265774e+01
2.060000e-06	3.781221e-06	5.035707e-10	2.758159e+01	3.208876e+01
2.070000e-06	3.710551e-06	4.731532e-10	2.706609e+01	3.150710e+01
2.080000e-06	3.638422e-06	4.709252e-10	2.653996e+01	3.090011e+01
2.090000e-06	3.565097e-06	4.576577e-10	2.600510e+01	3.025852e+01
2.100000e-06	3.490530e-06	4.504288e-10	2.546118e+01	2.957878e+01
2.110000e-06	3.414621e-06	4.344575e-10	2.490747e+01	2.886383e+01
2.120000e-06	3.337379e-06	4.339025e-10	2.434404e+01	2.812225e+01
2.130000e-06	3.258731e-06	4.244499e-10	2.377035e+01	2.736589e+01
2.140000e-06	3.178725e-06	4.033465e-10	2.318676e+01	2.660689e+01
2.150000e-06	3.097635e-06	3.957599e-10	2.259526e+01	2.585468e+01
2.160000e-06	3.015514e-06	3.812120e-10	2.199624e+01	2.511389e+01
2.170000e-06	2.932349e-06	3.691882e-10	2.138961e+01	2.438367e+01
2.180000e-06	2.848211e-06	3.599944e-10	2.077587e+01	2.365854e+01
2.190000e-06	2.763119e-06	3.576185e-10	2.015518e+01	2.293037e+01
2.200000e-06	2.676891e-06	3.440346e-10	1.952621e+01	2.219101e+01
2.210000e-06	2.589429e-06	3.254572e-10	1.888823e+01	2.143473e+01
2.220000e-06	2.501042e-06	3.136198e-10	1.824350e+01	2.065978e+01
2.230000e-06	2.411821e-06	3.010773e-10	1.759269e+01	1.986873e+01
2.240000e-06	2.321712e-06	2.904250e-10	1.693541e+01	1.906751e+01
2.250000e-06	2.230860e-06	2.812219e-10	1.627270e+01	1.826346e+01
2.260000e-06	2.139292e-06	2.760504e-10	1.560476e+01	1.746314e+01
2.270000e-06	2.047020e-06	2.619838e-10	1.493170e+01	1.667027e+01
2.280000e-06	1.954056e-06	2.449427e-10	1.425359e+01	1.588468e+01
2.290000e-06	1.860346e-06	2.316218e-10	1.357004e+01	1.510232e+01
2.300000e-06	1.765813e-06	2.219614e-10	1.288047e+01	1.431635e+01
2.310000e-06	1.670477e-06	2.128928e-10	1.218506e+01	1.351904e+01
2.320000e-06	1.574502e-06	1.985530e-10	1.148498e+01	1.270377e+01
2.330000e-06	1.478113e-06	1.837260e-10	1.078189e+01	1.186666e+01
2.340000e-06	1.381316e-06	1.682625e-10	1.007582e+01	1.100745e+01
2.350000e-06	1.284061e-06	1.525089e-10	9.366400e+00	1.012928e+01
2.360000e-06	1.186421e-06	1.387544e-10	8.654181e+00	9.237665e+00
2.370000e-06	1.088375e-06	1.269272e-10	7.938995e+00	8.338935e+00
2.380000e-06	9.899670e-07	1.180604e-10	7.221175e+00	7.438644e+00
2.390000e-06	8.912859e-07	1.085793e-10	6.501360e+00	6.540404e+00
2.400000e-06	7.924200e-07	9.148260e-11	5.780196e+00	5.645431e+00
2.410000e-06	6.933893e-07	7.159071e-11	5.057831e+00	4.752877e+00
2.420000e-06	5.941453e-07	5.560941e-11	4.333909e+00	3.860736e+00
2.430000e-06	4.947057e-07	4.242390e-11	3.608561e+00	2.966995e+00
2.440000e-06	3.951698e-07	2.799523e-11	2.882510e+00	2.070607e+00
2.450000e-06	2.955820e-07	1.440980e-11	2.156081e+00	1.171985e+00
2.460000e-06	1.959151e-07	2.211121e-12	1.429075e+00	2.728669e-01
2.470000e-06	9.618045e-08	-1.370762e-11	7.015748e-01	-6.243596e-01
2.480000e-06	-3.655075e-09	-3.021123e-11	-2.666143e-02	-1.517611e+00
2.490000e-06	-1.035744e-07	-4.228500e-11	-7.555087e-01	-2.405980e+00
2.500000e-06	-2.034933e-07	-5.304159e-11	-1.484353e+00	-3.290191e+00
2.510000e-06	-3.032815e-07	-6.704459e-11	-2.212245e+00	-4.172470e+00
2.520000e-06	-4.028931e-07	-8.297769e-11	-2.938847e+00	-5.055823e+00
2.530000e-06	-5.024416e-07	-9.863885e-11	-3.664989e+00	-5.942959e+00
2.540000e-06	-6.019541e-07	-1.135916e-10	-4.390870e+00	-6.835203e+00
2.550000e-06	-7.012852e-07	-1.280097e-10	-5.115426e+00	-7.731766e+00
2.560000e-06	-8.003387e-07	-1.415451e-10	-5.837958e+00	-8.629648e+00
2.570000e-06	-8.991032e-07	-1.540743e-10	-6.558382e+00	-9.524246e+00
2.580000e-06	-9.975829e-07	-1.663099e-10	-7.276728e+00	-1.041052e+01
2.590000e-06	-1.095766e-06	-1.785079e-10	-7.992908e+00	-1.128435e+01
2.600000e-06	-1.193558e-06	-1.911343e-10	-8.706237e+00	-1.214376e+01
2.610000e-06	-1.290903e-06	-2.058848e-10	-9.416313e+00	-1.298946e+01
2.620000e-06	-1.387773e-06	-2.219310e-10	-1.012291e+01	-1.382467e+01
2.630000e-06	-1.484146e-06	-2.365112e-10	-1.082590e+01	-1.465413e+01
2.640000e-06	-1.580125e-06	-2.488476e-10	-1.152600e+01	-1.548260e+01
2.650000e-06	-1.675673e-06	-2.611134e-10	-1.222296e+01	-1.631329e+01
2.660000e-06	-1.770574e-06	-2.754433e-10	-1.291520e+01	-1.714666e+01
2.670000e-06	-1.864601e-06	-2.890841e-10	-1.360107e+01	-1.797997e+01
2.680000e-06	-1.957631e-06	-3.009167e-10	-1.427967e+01	-1.880777e+01
2.690000e-06	-2.049823e-06	-3.119011e-10	-1.495215e+01	-1.962321e+01
2.700000e-06	-2.141380e-06	-3.229127e-10	-1.561999e+01	-2.041977e+01
2.710000e-06	-2.232231e-06	-3.349688e-10	-1.628269e+01	-2.119305e+01
2.720000e-06	-2.322197e-06	-3.466324e-10	-1.693894e+01	-2.194192e+01
2.730000e-06	-2.411292e-06	-3.588004e-10	-1.758883e+01	-2.266887e+01
2.740000e-06	-2.499679e-06	-3.706106e-10	-1.823356e+01	-2.337931e+01
2.750000e-06	-2.587412e-06	-3.818801e-10	-1.887351e+01	-2.408012e+01
2.760000e-06	-2.674286e-06	-3.930825e-10	-1.950720e+01	-2.477774e+01
2.770000e-06	-2.759983e-06	-4.038547e-10	-2.013231e+01	-2.547639e+01
2.780000e-06	-2.844494e-06	-4.135928e-10	-2.074876e+01	-2.617700e+01
2.790000e-06	-2.928023e-06	-4.233825e-10	-2.135805e+01	-2.687697e+01
2.800000e-06	-3.010644e-06	-4.341637e-10	-2.196072e+01	-2.757099e+01
2.810000e-06	-3.092316e-06	-4.436880e-10	-2.255646e+01	-2.825264e+01
2.820000e-06	-3.173008e-06	-4.535198e-10	-2.314506e+01	-2.891624e+01
2.830000e-06	-3.252693e-06	-4.632563e-10	-2.372631e+01	-2.955850e+01
2.840000e-06	-3.331092e-06	-4.712468e-10	-2.429818e+01	-3.017940e+01
2.850000e-06	-3.408024e-06	-4.799081e-10	-2.485935e+01	-3.078220e+01
2.860000e-06	-3.483542e-06	-4.891188e-10	-2.541020e+01	-3.137245e+01
2.870000e-06	-3.557678e-06	-4.975345e-10	-2.595098e+01	-3.195629e+01
2.880000e-06	-3.630549e-06	-5.066934e-10	-2.648253e+01	-3.253870e+01
2.890000e-06	-3.702221e-06	-5.155447e-10	-2.700533e+01	-3.312200e+01
2.900000e-06	-3.772460e-06	-5.228986e-10	-2.751768e+01	-3.370515e+01
2.910000e-06	-3.841159e-06	-5.304410e-10	-2.801879e+01	-3.428402e+01
2.920000e-06	-3.908494e-06	-5.390533e-10	-2.850996e+01	-3.485251e+01
2.930000e-06	-3.974479e-06	-5.492310e-10	-2.899128e+01	-3.540418e+01
2.940000e-06	-4.039135e-06	-5.597050e-10	-2.946290e+01	-3.593397e+01
