# Temperatura_=_83.67
# Concentracion g/m^3_=_26700.0
# C_Vs_to_Am_M_A/Vsm_=_65563218390.804596
# pendiente_HvsI_1/m_=_3716.3
# ordenada_HvsI_A/m_=_1297.0
# frecuencia_Hz_=_301823.67919573863

Tiempo_(s)	Campo_(V.s)	Magnetizacion_(V.s)	Campo_(kA/m)	Magnetizacion_(A/m)
0.000000e+00	-5.238202e-06	-2.193708e-08	-3.827929e+01	-1.432956e+03
1.000000e-08	-5.235187e-06	-2.193283e-08	-3.825726e+01	-1.432888e+03
2.000000e-08	-5.230500e-06	-2.192324e-08	-3.822301e+01	-1.432648e+03
3.000000e-08	-5.224193e-06	-2.191351e-08	-3.817691e+01	-1.432228e+03
4.000000e-08	-5.216357e-06	-2.190207e-08	-3.811965e+01	-1.431612e+03
5.000000e-08	-5.206715e-06	-2.188741e-08	-3.804919e+01	-1.430779e+03
6.000000e-08	-5.195022e-06	-2.187089e-08	-3.796374e+01	-1.429714e+03
7.000000e-08	-5.181586e-06	-2.184135e-08	-3.786555e+01	-1.428411e+03
8.000000e-08	-5.166074e-06	-2.182284e-08	-3.775220e+01	-1.426880e+03
9.000000e-08	-5.148255e-06	-2.184858e-08	-3.762198e+01	-1.425150e+03
1.000000e-07	-5.128499e-06	-2.181016e-08	-3.747761e+01	-1.423262e+03
1.100000e-07	-5.106960e-06	-2.174430e-08	-3.732021e+01	-1.421264e+03
1.200000e-07	-5.083785e-06	-2.172475e-08	-3.715085e+01	-1.419202e+03
1.300000e-07	-5.059183e-06	-2.162085e-08	-3.697107e+01	-1.417107e+03
1.400000e-07	-5.033020e-06	-2.159736e-08	-3.677988e+01	-1.414994e+03
1.500000e-07	-5.005124e-06	-2.167493e-08	-3.657602e+01	-1.412851e+03
1.600000e-07	-4.975712e-06	-2.150453e-08	-3.636109e+01	-1.410646e+03
1.700000e-07	-4.944943e-06	-2.149431e-08	-3.613623e+01	-1.408330e+03
1.800000e-07	-4.912326e-06	-2.155312e-08	-3.589788e+01	-1.405849e+03
1.900000e-07	-4.877655e-06	-2.134743e-08	-3.564451e+01	-1.403151e+03
2.000000e-07	-4.841445e-06	-2.134287e-08	-3.537990e+01	-1.400200e+03
2.100000e-07	-4.803642e-06	-2.135211e-08	-3.510365e+01	-1.396975e+03
2.200000e-07	-4.764191e-06	-2.124336e-08	-3.481535e+01	-1.393479e+03
2.300000e-07	-4.722940e-06	-2.122729e-08	-3.451390e+01	-1.389730e+03
2.400000e-07	-4.679638e-06	-2.112813e-08	-3.419746e+01	-1.385758e+03
2.500000e-07	-4.634593e-06	-2.103017e-08	-3.386829e+01	-1.381594e+03
2.600000e-07	-4.587870e-06	-2.101534e-08	-3.352685e+01	-1.377267e+03
2.700000e-07	-4.539257e-06	-2.093040e-08	-3.317160e+01	-1.372792e+03
2.800000e-07	-4.488594e-06	-2.086571e-08	-3.280137e+01	-1.368174e+03
2.900000e-07	-4.435973e-06	-2.077714e-08	-3.241683e+01	-1.363406e+03
3.000000e-07	-4.381659e-06	-2.069269e-08	-3.201991e+01	-1.358473e+03
3.100000e-07	-4.325824e-06	-2.063669e-08	-3.161189e+01	-1.353361e+03
3.200000e-07	-4.268219e-06	-2.054813e-08	-3.119093e+01	-1.348058e+03
3.300000e-07	-4.208896e-06	-2.046650e-08	-3.075742e+01	-1.342563e+03
3.400000e-07	-4.148211e-06	-2.036510e-08	-3.031394e+01	-1.336881e+03
3.500000e-07	-4.086173e-06	-2.027980e-08	-2.986059e+01	-1.331024e+03
3.600000e-07	-4.022756e-06	-2.017740e-08	-2.939716e+01	-1.325006e+03
3.700000e-07	-3.957887e-06	-2.008065e-08	-2.892311e+01	-1.318843e+03
3.800000e-07	-3.891389e-06	-2.001944e-08	-2.843716e+01	-1.312541e+03
3.900000e-07	-3.823360e-06	-1.991222e-08	-2.794002e+01	-1.306100e+03
4.000000e-07	-3.754044e-06	-1.979440e-08	-2.743348e+01	-1.299513e+03
4.100000e-07	-3.683548e-06	-1.968266e-08	-2.691832e+01	-1.292767e+03
4.200000e-07	-3.612043e-06	-1.958014e-08	-2.639578e+01	-1.285847e+03
4.300000e-07	-3.539280e-06	-1.947802e-08	-2.586405e+01	-1.278738e+03
4.400000e-07	-3.464845e-06	-1.936135e-08	-2.532010e+01	-1.271433e+03
4.500000e-07	-3.388902e-06	-1.924851e-08	-2.476513e+01	-1.263930e+03
4.600000e-07	-3.311732e-06	-1.912436e-08	-2.420120e+01	-1.256234e+03
4.700000e-07	-3.233281e-06	-1.899843e-08	-2.362789e+01	-1.248351e+03
4.800000e-07	-3.153405e-06	-1.888041e-08	-2.304418e+01	-1.240289e+03
4.900000e-07	-3.072287e-06	-1.875769e-08	-2.245140e+01	-1.232053e+03
5.000000e-07	-2.990082e-06	-1.863031e-08	-2.185067e+01	-1.223641e+03
5.100000e-07	-2.906912e-06	-1.849365e-08	-2.124289e+01	-1.215046e+03
5.200000e-07	-2.822957e-06	-1.835879e-08	-2.062937e+01	-1.206257e+03
5.300000e-07	-2.738160e-06	-1.821994e-08	-2.000969e+01	-1.197258e+03
5.400000e-07	-2.652430e-06	-1.807212e-08	-1.938320e+01	-1.188037e+03
5.500000e-07	-2.565796e-06	-1.792930e-08	-1.875010e+01	-1.178583e+03
5.600000e-07	-2.478385e-06	-1.778139e-08	-1.811133e+01	-1.168891e+03
5.700000e-07	-2.390021e-06	-1.762665e-08	-1.746559e+01	-1.158961e+03
5.800000e-07	-2.300481e-06	-1.746486e-08	-1.681126e+01	-1.148797e+03
5.900000e-07	-2.209875e-06	-1.730724e-08	-1.614914e+01	-1.138404e+03
6.000000e-07	-2.118465e-06	-1.714767e-08	-1.548114e+01	-1.127786e+03
6.100000e-07	-2.026399e-06	-1.698004e-08	-1.480835e+01	-1.116940e+03
6.200000e-07	-1.933652e-06	-1.680968e-08	-1.413058e+01	-1.105862e+03
6.300000e-07	-1.840198e-06	-1.663563e-08	-1.344765e+01	-1.094539e+03
6.400000e-07	-1.746039e-06	-1.645910e-08	-1.275956e+01	-1.082958e+03
6.500000e-07	-1.651315e-06	-1.627706e-08	-1.206734e+01	-1.071102e+03
6.600000e-07	-1.556151e-06	-1.608939e-08	-1.137191e+01	-1.058955e+03
6.700000e-07	-1.460549e-06	-1.589571e-08	-1.067327e+01	-1.046508e+03
6.800000e-07	-1.364390e-06	-1.569964e-08	-9.970574e+00	-1.033752e+03
6.900000e-07	-1.267627e-06	-1.550155e-08	-9.263456e+00	-1.020683e+03
7.000000e-07	-1.170316e-06	-1.530261e-08	-8.552339e+00	-1.007300e+03
7.100000e-07	-1.072457e-06	-1.509941e-08	-7.837210e+00	-9.936012e+02
7.200000e-07	-9.741216e-07	-1.488826e-08	-7.118603e+00	-9.795836e+02
7.300000e-07	-8.754810e-07	-1.466934e-08	-6.397766e+00	-9.652400e+02
7.400000e-07	-7.766204e-07	-1.444353e-08	-5.675321e+00	-9.505590e+02
7.500000e-07	-6.774927e-07	-1.421381e-08	-4.950924e+00	-9.355246e+02
7.600000e-07	-5.780933e-07	-1.397854e-08	-4.224541e+00	-9.201169e+02
7.700000e-07	-4.784837e-07	-1.373792e-08	-3.496623e+00	-9.043131e+02
7.800000e-07	-3.787282e-07	-1.349116e-08	-2.767638e+00	-8.880880e+02
7.900000e-07	-2.788538e-07	-1.323721e-08	-2.037784e+00	-8.714150e+02
8.000000e-07	-1.788722e-07	-1.297735e-08	-1.307147e+00	-8.542655e+02
8.100000e-07	-7.883164e-08	-1.271172e-08	-5.760792e-01	-8.366088e+02
8.200000e-07	2.122058e-08	-1.243721e-08	1.550739e-01	-8.184116e+02
8.300000e-07	1.212506e-07	-1.215022e-08	8.860648e-01	-7.996370e+02
8.400000e-07	2.212682e-07	-1.185291e-08	1.616965e+00	-7.802447e+02
8.500000e-07	3.212691e-07	-1.154527e-08	2.347743e+00	-7.601904e+02
8.600000e-07	4.211552e-07	-1.122790e-08	3.077682e+00	-7.394264e+02
8.700000e-07	5.209333e-07	-1.089973e-08	3.806832e+00	-7.179012e+02
8.800000e-07	6.206201e-07	-1.055907e-08	4.535315e+00	-6.955596e+02
8.900000e-07	7.201424e-07	-1.020614e-08	5.262596e+00	-6.723415e+02
9.000000e-07	8.194536e-07	-9.836984e-09	5.988334e+00	-6.481807e+02
9.100000e-07	9.184249e-07	-9.450290e-09	6.711588e+00	-6.230031e+02
9.200000e-07	1.017001e-06	-9.048240e-09	7.431954e+00	-5.967246e+02
9.300000e-07	1.115145e-06	-8.632335e-09	8.149164e+00	-5.692492e+02
9.400000e-07	1.212799e-06	-8.195262e-09	8.862790e+00	-5.404682e+02
9.500000e-07	1.309919e-06	-7.733137e-09	9.572516e+00	-5.102597e+02
9.600000e-07	1.406468e-06	-7.247198e-09	1.027807e+01	-4.784891e+02
9.700000e-07	1.502402e-06	-6.737012e-09	1.097913e+01	-4.450112e+02
9.800000e-07	1.597670e-06	-6.197717e-09	1.167532e+01	-4.096727e+02
9.900000e-07	1.692372e-06	-5.626730e-09	1.236737e+01	-3.723162e+02
1.000000e-06	1.786516e-06	-5.024062e-09	1.305535e+01	-3.327851e+02
1.010000e-06	1.880027e-06	-4.387085e-09	1.373871e+01	-2.909308e+02
1.020000e-06	1.972930e-06	-3.713161e-09	1.441761e+01	-2.466207e+02
1.030000e-06	2.065275e-06	-2.999562e-09	1.509244e+01	-1.997496e+02
1.040000e-06	2.157010e-06	-2.243455e-09	1.576282e+01	-1.502516e+02
1.050000e-06	2.247944e-06	-1.444544e-09	1.642733e+01	-9.811464e+01
1.060000e-06	2.337866e-06	-6.053396e-10	1.708446e+01	-4.339376e+01
1.070000e-06	2.426796e-06	2.697589e-10	1.773433e+01	1.377640e+01
1.080000e-06	2.514830e-06	1.176195e-09	1.837766e+01	7.317342e+01
1.090000e-06	2.601976e-06	2.110305e-09	1.901450e+01	1.344845e+02
1.100000e-06	2.688228e-06	3.067003e-09	1.964480e+01	1.973112e+02
1.110000e-06	2.773613e-06	4.039775e-09	2.026877e+01	2.611815e+02
1.120000e-06	2.858175e-06	5.021084e-09	2.088673e+01	3.255697e+02
1.130000e-06	2.941921e-06	6.002185e-09	2.149872e+01	3.899215e+02
1.140000e-06	3.024745e-06	6.973707e-09	2.210397e+01	4.536814e+02
1.150000e-06	3.106432e-06	7.926951e-09	2.270092e+01	5.163207e+02
1.160000e-06	3.186917e-06	8.854091e-09	2.328908e+01	5.773611e+02
1.170000e-06	3.266241e-06	9.750273e-09	2.386876e+01	6.363932e+02
1.180000e-06	3.344455e-06	1.061089e-08	2.444032e+01	6.930869e+02
1.190000e-06	3.421547e-06	1.143411e-08	2.500369e+01	7.471941e+02
1.200000e-06	3.497416e-06	1.221401e-08	2.555812e+01	7.985453e+02
1.210000e-06	3.571860e-06	1.294718e-08	2.610214e+01	8.470411e+02
1.220000e-06	3.644664e-06	1.363528e-08	2.663417e+01	8.926411e+02
1.230000e-06	3.716007e-06	1.428143e-08	2.715552e+01	9.353528e+02
1.240000e-06	3.786083e-06	1.488408e-08	2.766761e+01	9.752218e+02
1.250000e-06	3.854896e-06	1.544416e-08	2.817048e+01	1.012324e+03
1.260000e-06	3.922551e-06	1.596468e-08	2.866488e+01	1.046762e+03
1.270000e-06	3.988763e-06	1.644662e-08	2.914874e+01	1.078658e+03
1.280000e-06	4.053312e-06	1.689128e-08	2.962045e+01	1.108152e+03
1.290000e-06	4.116387e-06	1.730132e-08	3.008138e+01	1.135400e+03
1.300000e-06	4.178022e-06	1.768127e-08	3.053179e+01	1.160565e+03
1.310000e-06	4.238328e-06	1.803241e-08	3.097249e+01	1.183813e+03
1.320000e-06	4.297289e-06	1.835811e-08	3.140336e+01	1.205305e+03
1.330000e-06	4.354552e-06	1.865917e-08	3.182183e+01	1.225192e+03
1.340000e-06	4.410067e-06	1.893543e-08	3.222751e+01	1.243610e+03
1.350000e-06	4.464003e-06	1.919108e-08	3.262166e+01	1.260677e+03
1.360000e-06	4.516274e-06	1.943166e-08	3.300364e+01	1.276495e+03
1.370000e-06	4.566532e-06	1.965468e-08	3.337092e+01	1.291150e+03
1.380000e-06	4.614803e-06	1.985819e-08	3.372367e+01	1.304718e+03
1.390000e-06	4.661483e-06	2.004423e-08	3.406479e+01	1.317270e+03
1.400000e-06	4.706665e-06	2.021636e-08	3.439497e+01	1.328873e+03
1.410000e-06	4.750296e-06	2.037799e-08	3.471381e+01	1.339590e+03
1.420000e-06	4.792091e-06	2.052886e-08	3.501924e+01	1.349489e+03
1.430000e-06	4.832058e-06	2.066980e-08	3.531130e+01	1.358628e+03
1.440000e-06	4.870464e-06	2.080008e-08	3.559197e+01	1.367067e+03
1.450000e-06	4.907327e-06	2.091896e-08	3.586135e+01	1.374854e+03
1.460000e-06	4.942570e-06	2.102706e-08	3.611890e+01	1.382032e+03
1.470000e-06	4.975885e-06	2.112557e-08	3.636235e+01	1.388638e+03
1.480000e-06	5.007335e-06	2.121498e-08	3.659218e+01	1.394702e+03
1.490000e-06	5.037123e-06	2.129711e-08	3.680986e+01	1.400255e+03
1.500000e-06	5.065370e-06	2.137334e-08	3.701628e+01	1.405326e+03
1.510000e-06	5.091846e-06	2.144412e-08	3.720976e+01	1.409945e+03
1.520000e-06	5.116256e-06	2.150902e-08	3.738814e+01	1.414147e+03
1.530000e-06	5.138816e-06	2.156745e-08	3.755300e+01	1.417963e+03
1.540000e-06	5.159669e-06	2.162067e-08	3.770539e+01	1.421423e+03
1.550000e-06	5.178798e-06	2.166767e-08	3.784518e+01	1.424551e+03
1.560000e-06	5.196016e-06	2.170946e-08	3.797100e+01	1.427360e+03
1.570000e-06	5.211238e-06	2.174649e-08	3.808224e+01	1.429858e+03
1.580000e-06	5.224571e-06	2.177783e-08	3.817967e+01	1.432046e+03
1.590000e-06	5.235898e-06	2.180405e-08	3.826245e+01	1.433920e+03
1.600000e-06	5.245005e-06	2.182501e-08	3.832900e+01	1.435482e+03
1.610000e-06	5.252116e-06	2.184223e-08	3.838097e+01	1.436735e+03
1.620000e-06	5.257489e-06	2.185611e-08	3.842023e+01	1.437696e+03
1.630000e-06	5.261197e-06	2.186797e-08	3.844733e+01	1.438386e+03
1.640000e-06	5.262931e-06	2.187952e-08	3.846000e+01	1.438834e+03
1.650000e-06	5.262656e-06	2.188726e-08	3.845799e+01	1.439069e+03
1.660000e-06	5.260711e-06	2.188568e-08	3.844378e+01	1.439115e+03
1.670000e-06	5.257226e-06	2.188285e-08	3.841831e+01	1.438986e+03
1.680000e-06	5.252059e-06	2.187880e-08	3.838055e+01	1.438683e+03
1.690000e-06	5.244963e-06	2.187203e-08	3.832870e+01	1.438196e+03
1.700000e-06	5.236203e-06	2.186266e-08	3.826468e+01	1.437505e+03
1.710000e-06	5.225949e-06	2.185423e-08	3.818975e+01	1.436591e+03
1.720000e-06	5.213980e-06	2.185321e-08	3.810228e+01	1.435441e+03
1.730000e-06	5.200050e-06	2.183897e-08	3.800049e+01	1.434054e+03
1.740000e-06	5.184094e-06	2.175072e-08	3.788388e+01	1.432449e+03
1.750000e-06	5.165906e-06	2.173365e-08	3.775097e+01	1.430657e+03
1.760000e-06	5.145208e-06	2.173533e-08	3.759972e+01	1.428724e+03
1.770000e-06	5.122214e-06	2.169742e-08	3.743168e+01	1.426699e+03
1.780000e-06	5.097820e-06	2.174990e-08	3.725342e+01	1.424622e+03
1.790000e-06	5.072762e-06	2.161014e-08	3.707030e+01	1.422521e+03
1.800000e-06	5.046437e-06	2.157072e-08	3.687793e+01	1.420399e+03
1.810000e-06	5.018054e-06	2.169742e-08	3.667051e+01	1.418239e+03
1.820000e-06	4.987892e-06	2.147810e-08	3.645010e+01	1.416001e+03
1.830000e-06	4.956010e-06	2.146224e-08	3.621711e+01	1.413632e+03
1.840000e-06	4.922241e-06	2.160440e-08	3.597034e+01	1.411080e+03
1.850000e-06	4.886936e-06	2.140267e-08	3.571233e+01	1.408295e+03
1.860000e-06	4.849799e-06	2.138408e-08	3.544095e+01	1.405247e+03
1.870000e-06	4.810670e-06	2.135944e-08	3.515500e+01	1.401925e+03
1.880000e-06	4.769994e-06	2.124332e-08	3.485776e+01	1.398335e+03
1.890000e-06	4.727585e-06	2.133151e-08	3.454785e+01	1.394503e+03
1.900000e-06	4.683532e-06	2.117310e-08	3.422591e+01	1.390459e+03
1.910000e-06	4.637787e-06	2.108547e-08	3.389162e+01	1.386235e+03
1.920000e-06	4.590176e-06	2.112216e-08	3.354370e+01	1.381854e+03
1.930000e-06	4.541061e-06	2.097022e-08	3.318478e+01	1.377328e+03
1.940000e-06	4.490190e-06	2.096368e-08	3.281303e+01	1.372658e+03
1.950000e-06	4.437307e-06	2.085552e-08	3.242658e+01	1.367833e+03
1.960000e-06	4.382537e-06	2.076575e-08	3.202633e+01	1.362837e+03
1.970000e-06	4.326051e-06	2.075052e-08	3.161355e+01	1.357658e+03
1.980000e-06	4.268093e-06	2.058267e-08	3.119000e+01	1.352288e+03
1.990000e-06	4.208775e-06	2.055001e-08	3.075653e+01	1.346725e+03
2.000000e-06	4.148093e-06	2.046978e-08	3.031308e+01	1.340978e+03
2.010000e-06	4.085710e-06	2.037956e-08	2.985720e+01	1.335062e+03
2.020000e-06	4.021588e-06	2.028710e-08	2.938862e+01	1.328992e+03
2.030000e-06	3.956089e-06	2.012906e-08	2.890997e+01	1.322778e+03
2.040000e-06	3.889233e-06	2.010002e-08	2.842140e+01	1.316427e+03
2.050000e-06	3.821078e-06	1.998393e-08	2.792335e+01	1.309936e+03
2.060000e-06	3.751468e-06	1.987334e-08	2.741466e+01	1.303294e+03
2.070000e-06	3.680336e-06	1.978582e-08	2.689485e+01	1.296488e+03
2.080000e-06	3.607971e-06	1.967282e-08	2.636602e+01	1.289501e+03
2.090000e-06	3.534350e-06	1.958635e-08	2.582802e+01	1.282323e+03
2.100000e-06	3.459515e-06	1.944128e-08	2.528115e+01	1.274948e+03
2.110000e-06	3.383382e-06	1.935164e-08	2.472479e+01	1.267375e+03
2.120000e-06	3.305752e-06	1.923458e-08	2.415749e+01	1.259612e+03
2.130000e-06	3.226723e-06	1.910050e-08	2.357997e+01	1.251664e+03
2.140000e-06	3.146512e-06	1.898055e-08	2.299381e+01	1.243540e+03
2.150000e-06	3.065269e-06	1.884983e-08	2.240011e+01	1.235242e+03
2.160000e-06	2.982940e-06	1.873523e-08	2.179848e+01	1.226766e+03
2.170000e-06	2.899649e-06	1.858890e-08	2.118981e+01	1.218104e+03
2.180000e-06	2.815445e-06	1.846797e-08	2.057447e+01	1.209241e+03
2.190000e-06	2.730070e-06	1.834024e-08	1.995057e+01	1.200165e+03
2.200000e-06	2.643495e-06	1.819356e-08	1.931791e+01	1.190862e+03
2.210000e-06	2.555864e-06	1.804629e-08	1.867752e+01	1.181323e+03
2.220000e-06	2.467321e-06	1.789799e-08	1.803048e+01	1.171546e+03
2.230000e-06	2.377997e-06	1.775456e-08	1.737772e+01	1.161532e+03
2.240000e-06	2.287933e-06	1.759000e-08	1.671956e+01	1.151286e+03
2.250000e-06	2.197124e-06	1.743363e-08	1.605596e+01	1.140813e+03
2.260000e-06	2.105627e-06	1.727574e-08	1.538732e+01	1.130113e+03
2.270000e-06	2.013489e-06	1.711137e-08	1.471400e+01	1.119186e+03
2.280000e-06	1.920633e-06	1.694210e-08	1.403544e+01	1.108022e+03
2.290000e-06	1.826889e-06	1.676913e-08	1.335038e+01	1.096609e+03
2.300000e-06	1.732253e-06	1.659699e-08	1.265881e+01	1.084932e+03
2.310000e-06	1.636977e-06	1.641446e-08	1.196256e+01	1.072973e+03
2.320000e-06	1.541185e-06	1.622360e-08	1.126254e+01	1.060721e+03
2.330000e-06	1.444905e-06	1.603027e-08	1.055895e+01	1.048164e+03
2.340000e-06	1.348198e-06	1.583610e-08	9.852245e+00	1.035297e+03
2.350000e-06	1.251088e-06	1.563279e-08	9.142592e+00	1.022116e+03
2.360000e-06	1.153581e-06	1.542390e-08	8.430043e+00	1.008621e+03
2.370000e-06	1.055690e-06	1.521257e-08	7.714680e+00	9.948088e+02
2.380000e-06	9.574363e-07	1.500048e-08	6.996672e+00	9.806759e+02
2.390000e-06	8.589212e-07	1.478226e-08	6.276751e+00	9.662136e+02
2.400000e-06	7.601966e-07	1.455321e-08	5.555300e+00	9.514086e+02
2.410000e-06	6.612203e-07	1.432008e-08	4.832010e+00	9.362435e+02
2.420000e-06	5.620908e-07	1.408178e-08	4.107600e+00	9.206973e+02
2.430000e-06	4.628414e-07	1.383468e-08	3.382313e+00	9.047462e+02
2.440000e-06	3.634818e-07	1.358276e-08	2.656222e+00	8.883645e+02
2.450000e-06	2.640283e-07	1.332666e-08	1.929443e+00	8.715249e+02
2.460000e-06	1.644564e-07	1.306169e-08	1.201800e+00	8.541981e+02
2.470000e-06	6.486754e-08	1.278703e-08	4.740335e-01	8.363525e+02
2.480000e-06	-3.473095e-08	1.250554e-08	-2.538039e-01	8.179537e+02
2.490000e-06	-1.343732e-07	1.221745e-08	-9.819611e-01	7.989636e+02
2.500000e-06	-2.339783e-07	1.191881e-08	-1.709847e+00	7.793403e+02
2.510000e-06	-3.335146e-07	1.160892e-08	-2.437230e+00	7.590384e+02
2.520000e-06	-4.329894e-07	1.128881e-08	-3.164164e+00	7.380088e+02
2.530000e-06	-5.323887e-07	1.095747e-08	-3.890545e+00	7.161988e+02
2.540000e-06	-6.316632e-07	1.061250e-08	-4.616015e+00	6.935515e+02
2.550000e-06	-7.307441e-07	1.025145e-08	-5.340070e+00	6.700049e+02
2.560000e-06	-8.296194e-07	9.875730e-09	-6.062622e+00	6.454901e+02
2.570000e-06	-9.282203e-07	9.486217e-09	-6.783169e+00	6.199298e+02
2.580000e-06	-1.026506e-06	9.081537e-09	-7.501412e+00	5.932356e+02
2.590000e-06	-1.124402e-06	8.658237e-09	-8.216809e+00	5.653073e+02
2.600000e-06	-1.221832e-06	8.213754e-09	-8.928800e+00	5.360314e+02
2.610000e-06	-1.318829e-06	7.746279e-09	-9.637629e+00	5.052812e+02
2.620000e-06	-1.415414e-06	7.252200e-09	-1.034344e+01	4.729182e+02
2.630000e-06	-1.511590e-06	6.729546e-09	-1.104627e+01	4.387940e+02
2.640000e-06	-1.607296e-06	6.176485e-09	-1.174566e+01	4.027531e+02
2.650000e-06	-1.702408e-06	5.591418e-09	-1.244071e+01	3.646378e+02
2.660000e-06	-1.796788e-06	4.975013e-09	-1.313041e+01	3.242936e+02
2.670000e-06	-1.890289e-06	4.324894e-09	-1.381369e+01	2.815765e+02
2.680000e-06	-1.982917e-06	3.637797e-09	-1.449060e+01	2.363623e+02
2.690000e-06	-2.074785e-06	2.913018e-09	-1.516194e+01	1.885582e+02
2.700000e-06	-2.165969e-06	2.147238e-09	-1.582828e+01	1.381162e+02
2.710000e-06	-2.256459e-06	1.338994e-09	-1.648956e+01	8.504631e+01
2.720000e-06	-2.346075e-06	4.897899e-10	-1.714445e+01	2.943098e+01
2.730000e-06	-2.434851e-06	-3.965633e-10	-1.779320e+01	-2.856453e+01
2.740000e-06	-2.522934e-06	-1.314583e-09	-1.843688e+01	-8.868549e+01
2.750000e-06	-2.610261e-06	-2.259668e-09	-1.907504e+01	-1.505876e+02
2.760000e-06	-2.696576e-06	-3.225244e-09	-1.970581e+01	-2.138442e+02
2.770000e-06	-2.781709e-06	-4.203270e-09	-2.032793e+01	-2.779617e+02
2.780000e-06	-2.865838e-06	-5.185635e-09	-2.094273e+01	-3.424011e+02
2.790000e-06	-2.949102e-06	-6.164774e-09	-2.155120e+01	-4.066042e+02
2.800000e-06	-3.031411e-06	-7.133956e-09	-2.215269e+01	-4.700222e+02
2.810000e-06	-3.112655e-06	-8.084379e-09	-2.274639e+01	-5.321419e+02
2.820000e-06	-3.192866e-06	-9.007752e-09	-2.333255e+01	-5.925080e+02
2.830000e-06	-3.271963e-06	-9.898988e-09	-2.391058e+01	-6.507384e+02
2.840000e-06	-3.349707e-06	-1.075506e-08	-2.447870e+01	-7.065324e+02
2.850000e-06	-3.426033e-06	-1.157237e-08	-2.503648e+01	-7.596707e+02
2.860000e-06	-3.500968e-06	-1.234629e-08	-2.558408e+01	-8.100101e+02
2.870000e-06	-3.574573e-06	-1.307414e-08	-2.612196e+01	-8.574734e+02
2.880000e-06	-3.646966e-06	-1.375700e-08	-2.665099e+01	-9.020386e+02
2.890000e-06	-3.718066e-06	-1.439673e-08	-2.717056e+01	-9.437279e+02
2.900000e-06	-3.787644e-06	-1.499402e-08	-2.767903e+01	-9.825985e+02
2.910000e-06	-3.855771e-06	-1.555127e-08	-2.817688e+01	-1.018736e+03
2.920000e-06	-3.922611e-06	-1.606823e-08	-2.866532e+01	-1.052251e+03
2.930000e-06	-3.988102e-06	-1.654643e-08	-2.914391e+01	-1.083272e+03
2.940000e-06	-4.052251e-06	-1.698893e-08	-2.961270e+01	-1.111945e+03
