# Temperatura_=_39.63
# Concentracion g/m^3_=_28200.0
# C_Vs_to_Am_M_A/Vsm_=_65563218390.804596
# pendiente_HvsI_1/m_=_3716.3
# ordenada_HvsI_A/m_=_1297.0
# frecuencia_Hz_=_302513.36612431466

Tiempo_(s)	Campo_(V.s)	Magnetizacion_(V.s)	Campo_(kA/m)	Magnetizacion_(A/m)
0.000000e+00	-7.875935e-06	-2.516920e-08	-5.684371e+01	-1.648747e+03
1.000000e-08	-7.872098e-06	-2.516378e-08	-5.681602e+01	-1.648223e+03
2.000000e-08	-7.865649e-06	-2.515412e-08	-5.676947e+01	-1.647578e+03
3.000000e-08	-7.856607e-06	-2.514422e-08	-5.670422e+01	-1.646858e+03
4.000000e-08	-7.844809e-06	-2.513349e-08	-5.661906e+01	-1.646090e+03
5.000000e-08	-7.830023e-06	-2.511714e-08	-5.651235e+01	-1.645280e+03
6.000000e-08	-7.812558e-06	-2.509775e-08	-5.638630e+01	-1.644407e+03
7.000000e-08	-7.792858e-06	-2.507612e-08	-5.624411e+01	-1.643434e+03
8.000000e-08	-7.770791e-06	-2.506472e-08	-5.608485e+01	-1.642320e+03
9.000000e-08	-7.745829e-06	-2.508149e-08	-5.590469e+01	-1.641038e+03
1.000000e-07	-7.717755e-06	-2.506681e-08	-5.570206e+01	-1.639579e+03
1.100000e-07	-7.686712e-06	-2.502043e-08	-5.547802e+01	-1.637963e+03
1.200000e-07	-7.652809e-06	-2.498311e-08	-5.523332e+01	-1.636226e+03
1.300000e-07	-7.616302e-06	-2.494150e-08	-5.496984e+01	-1.634412e+03
1.400000e-07	-7.577433e-06	-2.487485e-08	-5.468931e+01	-1.632552e+03
1.500000e-07	-7.536355e-06	-2.482190e-08	-5.439283e+01	-1.630653e+03
1.600000e-07	-7.492969e-06	-2.487705e-08	-5.407969e+01	-1.628687e+03
1.700000e-07	-7.446916e-06	-2.485385e-08	-5.374731e+01	-1.626600e+03
1.800000e-07	-7.398160e-06	-2.476804e-08	-5.339542e+01	-1.624320e+03
1.900000e-07	-7.346558e-06	-2.476802e-08	-5.302299e+01	-1.621775e+03
2.000000e-07	-7.292063e-06	-2.467881e-08	-5.262968e+01	-1.618920e+03
2.100000e-07	-7.234933e-06	-2.459035e-08	-5.221735e+01	-1.615741e+03
2.200000e-07	-7.175153e-06	-2.456056e-08	-5.178590e+01	-1.612270e+03
2.300000e-07	-7.112756e-06	-2.453661e-08	-5.133555e+01	-1.608566e+03
2.400000e-07	-7.047727e-06	-2.449827e-08	-5.086621e+01	-1.604705e+03
2.500000e-07	-6.979948e-06	-2.441148e-08	-5.037702e+01	-1.600757e+03
2.600000e-07	-6.909486e-06	-2.436066e-08	-4.986847e+01	-1.596760e+03
2.700000e-07	-6.836336e-06	-2.430416e-08	-4.934052e+01	-1.592711e+03
2.800000e-07	-6.760394e-06	-2.422498e-08	-4.879242e+01	-1.588563e+03
2.900000e-07	-6.681725e-06	-2.415062e-08	-4.822463e+01	-1.584239e+03
3.000000e-07	-6.600472e-06	-2.409613e-08	-4.763820e+01	-1.579651e+03
3.100000e-07	-6.516861e-06	-2.403224e-08	-4.703474e+01	-1.574723e+03
3.200000e-07	-6.431101e-06	-2.392371e-08	-4.641578e+01	-1.569414e+03
3.300000e-07	-6.343065e-06	-2.383929e-08	-4.578039e+01	-1.563725e+03
3.400000e-07	-6.252644e-06	-2.375686e-08	-4.512778e+01	-1.557698e+03
3.500000e-07	-6.159988e-06	-2.365484e-08	-4.445905e+01	-1.551395e+03
3.600000e-07	-6.065111e-06	-2.355572e-08	-4.377429e+01	-1.544884e+03
3.700000e-07	-5.967965e-06	-2.346296e-08	-4.307314e+01	-1.538206e+03
3.800000e-07	-5.868638e-06	-2.336464e-08	-4.235626e+01	-1.531362e+03
3.900000e-07	-5.767290e-06	-2.324939e-08	-4.162480e+01	-1.524311e+03
4.000000e-07	-5.663944e-06	-2.313156e-08	-4.087890e+01	-1.516974e+03
4.100000e-07	-5.558523e-06	-2.300429e-08	-4.011804e+01	-1.509260e+03
4.200000e-07	-5.451149e-06	-2.287398e-08	-3.934308e+01	-1.501085e+03
4.300000e-07	-5.341873e-06	-2.274102e-08	-3.855439e+01	-1.492396e+03
4.400000e-07	-5.230578e-06	-2.260880e-08	-3.775113e+01	-1.483184e+03
4.500000e-07	-5.117328e-06	-2.246842e-08	-3.693376e+01	-1.473480e+03
4.600000e-07	-5.002166e-06	-2.231286e-08	-3.610260e+01	-1.463341e+03
4.700000e-07	-4.885095e-06	-2.214565e-08	-3.525765e+01	-1.452823e+03
4.800000e-07	-4.766218e-06	-2.197563e-08	-3.439966e+01	-1.441956e+03
4.900000e-07	-4.645630e-06	-2.180393e-08	-3.352933e+01	-1.430727e+03
5.000000e-07	-4.523334e-06	-2.162452e-08	-3.264668e+01	-1.419071e+03
5.100000e-07	-4.399336e-06	-2.143781e-08	-3.175173e+01	-1.406884e+03
5.200000e-07	-4.273790e-06	-2.123732e-08	-3.084562e+01	-1.394044e+03
5.300000e-07	-4.146702e-06	-2.102229e-08	-2.992837e+01	-1.380441e+03
5.400000e-07	-4.018075e-06	-2.079397e-08	-2.900003e+01	-1.366001e+03
5.500000e-07	-3.887952e-06	-2.056283e-08	-2.806087e+01	-1.350698e+03
5.600000e-07	-3.756319e-06	-2.032557e-08	-2.711082e+01	-1.334555e+03
5.700000e-07	-3.623225e-06	-2.007378e-08	-2.615024e+01	-1.317621e+03
5.800000e-07	-3.488742e-06	-1.980184e-08	-2.517962e+01	-1.299941e+03
5.900000e-07	-3.352933e-06	-1.951347e-08	-2.419943e+01	-1.281522e+03
6.000000e-07	-3.215870e-06	-1.921440e-08	-2.321020e+01	-1.262311e+03
6.100000e-07	-3.077534e-06	-1.889940e-08	-2.221177e+01	-1.242183e+03
6.200000e-07	-2.937848e-06	-1.856858e-08	-2.120360e+01	-1.220955e+03
6.300000e-07	-2.796822e-06	-1.822046e-08	-2.018576e+01	-1.198414e+03
6.400000e-07	-2.654607e-06	-1.785227e-08	-1.915934e+01	-1.174349e+03
6.500000e-07	-2.511468e-06	-1.745770e-08	-1.812625e+01	-1.148590e+03
6.600000e-07	-2.367465e-06	-1.703587e-08	-1.708692e+01	-1.121014e+03
6.700000e-07	-2.222628e-06	-1.659009e-08	-1.604158e+01	-1.091546e+03
6.800000e-07	-2.077014e-06	-1.611682e-08	-1.499063e+01	-1.060126e+03
6.900000e-07	-1.930676e-06	-1.560935e-08	-1.393445e+01	-1.026662e+03
7.000000e-07	-1.783695e-06	-1.506259e-08	-1.287363e+01	-9.909905e+02
7.100000e-07	-1.636166e-06	-1.447307e-08	-1.180885e+01	-9.528403e+02
7.200000e-07	-1.488219e-06	-1.383693e-08	-1.074106e+01	-9.118388e+02
7.300000e-07	-1.339862e-06	-1.315403e-08	-9.670309e+00	-8.675493e+02
7.400000e-07	-1.191075e-06	-1.241923e-08	-8.596454e+00	-8.195441e+02
7.500000e-07	-1.041845e-06	-1.162717e-08	-7.519407e+00	-7.674990e+02
7.600000e-07	-8.922343e-07	-1.077600e-08	-6.439605e+00	-7.112857e+02
7.700000e-07	-7.423303e-07	-9.866752e-09	-5.357689e+00	-6.510385e+02
7.800000e-07	-5.921689e-07	-8.900478e-09	-4.273915e+00	-5.871728e+02
7.900000e-07	-4.418232e-07	-7.882941e-09	-3.188811e+00	-5.203455e+02
8.000000e-07	-2.913405e-07	-6.827673e-09	-2.102719e+00	-4.513583e+02
8.100000e-07	-1.407670e-07	-5.747847e-09	-1.015971e+00	-3.810226e+02
8.200000e-07	9.865602e-09	-4.658657e-09	7.120392e-02	-3.100123e+02
8.300000e-07	1.605495e-07	-3.568354e-09	1.158749e+00	-2.387408e+02
8.400000e-07	3.112220e-07	-2.480000e-09	2.246211e+00	-1.672914e+02
8.500000e-07	4.618021e-07	-1.390104e-09	3.333007e+00	-9.542148e+01
8.600000e-07	6.122604e-07	-2.895545e-10	4.418923e+00	-2.264491e+01
8.700000e-07	7.625707e-07	8.329654e-10	5.503772e+00	5.162180e+01
8.800000e-07	9.126700e-07	1.987254e-09	6.587097e+00	1.278793e+02
8.900000e-07	1.062458e-06	3.177913e-09	7.668180e+00	2.063701e+02
9.000000e-07	1.211863e-06	4.406051e-09	8.746494e+00	2.869461e+02
9.100000e-07	1.360820e-06	5.663360e-09	9.821568e+00	3.690112e+02
9.200000e-07	1.509295e-06	6.932927e-09	1.089318e+01	4.515505e+02
9.300000e-07	1.657310e-06	8.189044e-09	1.196146e+01	5.332449e+02
9.400000e-07	1.804768e-06	9.401719e-09	1.302572e+01	6.126441e+02
9.500000e-07	1.951633e-06	1.054492e-08	1.408570e+01	6.883657e+02
9.600000e-07	2.097855e-06	1.160583e-08	1.514104e+01	7.592794e+02
9.700000e-07	2.243300e-06	1.258358e-08	1.619078e+01	8.246399e+02
9.800000e-07	2.387845e-06	1.347887e-08	1.723402e+01	8.841474e+02
9.900000e-07	2.531421e-06	1.429489e-08	1.827026e+01	9.379282e+02
1.000000e-06	2.673980e-06	1.503691e-08	1.929916e+01	9.864473e+02
1.010000e-06	2.815434e-06	1.571094e-08	2.032009e+01	1.030377e+03
1.020000e-06	2.955791e-06	1.632551e-08	2.133310e+01	1.070453e+03
1.030000e-06	3.094972e-06	1.689007e-08	2.233763e+01	1.107352e+03
1.040000e-06	3.232921e-06	1.741324e-08	2.333326e+01	1.141607e+03
1.050000e-06	3.369540e-06	1.789750e-08	2.431929e+01	1.173575e+03
1.060000e-06	3.504856e-06	1.834612e-08	2.529592e+01	1.203455e+03
1.070000e-06	3.638914e-06	1.876168e-08	2.626347e+01	1.231341e+03
1.080000e-06	3.771712e-06	1.914983e-08	2.722193e+01	1.257284e+03
1.090000e-06	3.903206e-06	1.951533e-08	2.817097e+01	1.281354e+03
1.100000e-06	4.033246e-06	1.985768e-08	2.910952e+01	1.303672e+03
1.110000e-06	4.161739e-06	2.017664e-08	3.003691e+01	1.324420e+03
1.120000e-06	4.288727e-06	2.047618e-08	3.095343e+01	1.343819e+03
1.130000e-06	4.414368e-06	2.075986e-08	3.186023e+01	1.362096e+03
1.140000e-06	4.538596e-06	2.102554e-08	3.275683e+01	1.379440e+03
1.150000e-06	4.661296e-06	2.127395e-08	3.364240e+01	1.395975e+03
1.160000e-06	4.782263e-06	2.150862e-08	3.451547e+01	1.411756e+03
1.170000e-06	4.901447e-06	2.173192e-08	3.537566e+01	1.426772e+03
1.180000e-06	5.018945e-06	2.194304e-08	3.622369e+01	1.440979e+03
1.190000e-06	5.134595e-06	2.214275e-08	3.705839e+01	1.454336e+03
1.200000e-06	5.248115e-06	2.233153e-08	3.787771e+01	1.466831e+03
1.210000e-06	5.359587e-06	2.251073e-08	3.868224e+01	1.478501e+03
1.220000e-06	5.469223e-06	2.267980e-08	3.947353e+01	1.489432e+03
1.230000e-06	5.577006e-06	2.283948e-08	4.025144e+01	1.499737e+03
1.240000e-06	5.682759e-06	2.299267e-08	4.101470e+01	1.509535e+03
1.250000e-06	5.786342e-06	2.313864e-08	4.176230e+01	1.518920e+03
1.260000e-06	5.887850e-06	2.327623e-08	4.249492e+01	1.527942e+03
1.270000e-06	5.987241e-06	2.340788e-08	4.321226e+01	1.536597e+03
1.280000e-06	6.084274e-06	2.353162e-08	4.391259e+01	1.544846e+03
1.290000e-06	6.178959e-06	2.364712e-08	4.459597e+01	1.552627e+03
1.300000e-06	6.271557e-06	2.375637e-08	4.526429e+01	1.559887e+03
1.310000e-06	6.362010e-06	2.385945e-08	4.591712e+01	1.566606e+03
1.320000e-06	6.450104e-06	2.395643e-08	4.655293e+01	1.572809e+03
1.330000e-06	6.535850e-06	2.404685e-08	4.717179e+01	1.578562e+03
1.340000e-06	6.619380e-06	2.413280e-08	4.777466e+01	1.583963e+03
1.350000e-06	6.700527e-06	2.421460e-08	4.836033e+01	1.589112e+03
1.360000e-06	6.779161e-06	2.429169e-08	4.892786e+01	1.594092e+03
1.370000e-06	6.855332e-06	2.436446e-08	4.947762e+01	1.598949e+03
1.380000e-06	6.928837e-06	2.443328e-08	5.000813e+01	1.603683e+03
1.390000e-06	6.999732e-06	2.449872e-08	5.051981e+01	1.608255e+03
1.400000e-06	7.068241e-06	2.456011e-08	5.101426e+01	1.612604e+03
1.410000e-06	7.134176e-06	2.461825e-08	5.149015e+01	1.616671e+03
1.420000e-06	7.197510e-06	2.467535e-08	5.194725e+01	1.620416e+03
1.430000e-06	7.258452e-06	2.472965e-08	5.238709e+01	1.623834e+03
1.440000e-06	7.316894e-06	2.478069e-08	5.280890e+01	1.626952e+03
1.450000e-06	7.372732e-06	2.482802e-08	5.321190e+01	1.629826e+03
1.460000e-06	7.425890e-06	2.487125e-08	5.359556e+01	1.632518e+03
1.470000e-06	7.476021e-06	2.490935e-08	5.395737e+01	1.635079e+03
1.480000e-06	7.523158e-06	2.494360e-08	5.429758e+01	1.637533e+03
1.490000e-06	7.567701e-06	2.497675e-08	5.461907e+01	1.639873e+03
1.500000e-06	7.609546e-06	2.500714e-08	5.492108e+01	1.642066e+03
1.510000e-06	7.648536e-06	2.503404e-08	5.520248e+01	1.644063e+03
1.520000e-06	7.684940e-06	2.505946e-08	5.546522e+01	1.645819e+03
1.530000e-06	7.718708e-06	2.508327e-08	5.570895e+01	1.647308e+03
1.540000e-06	7.749682e-06	2.510379e-08	5.593250e+01	1.648534e+03
1.550000e-06	7.777981e-06	2.512087e-08	5.613674e+01	1.649532e+03
1.560000e-06	7.803450e-06	2.513548e-08	5.632056e+01	1.650354e+03
1.570000e-06	7.825983e-06	2.514811e-08	5.648319e+01	1.651059e+03
1.580000e-06	7.845777e-06	2.515892e-08	5.662605e+01	1.651692e+03
1.590000e-06	7.862807e-06	2.516854e-08	5.674896e+01	1.652275e+03
1.600000e-06	7.876866e-06	2.517654e-08	5.685043e+01	1.652798e+03
1.610000e-06	7.887822e-06	2.518172e-08	5.692951e+01	1.653229e+03
1.620000e-06	7.895758e-06	2.518573e-08	5.698678e+01	1.653520e+03
1.630000e-06	7.900926e-06	2.518874e-08	5.702408e+01	1.653629e+03
1.640000e-06	7.903339e-06	2.518984e-08	5.704150e+01	1.653532e+03
1.650000e-06	7.902924e-06	2.518689e-08	5.703850e+01	1.653229e+03
1.660000e-06	7.899838e-06	2.517699e-08	5.701623e+01	1.652748e+03
1.670000e-06	7.894110e-06	2.516912e-08	5.697489e+01	1.652132e+03
1.680000e-06	7.885698e-06	2.516181e-08	5.691418e+01	1.651428e+03
1.690000e-06	7.874669e-06	2.515342e-08	5.683457e+01	1.650671e+03
1.700000e-06	7.860896e-06	2.514521e-08	5.673517e+01	1.649873e+03
1.710000e-06	7.844483e-06	2.513912e-08	5.661671e+01	1.649020e+03
1.720000e-06	7.825759e-06	2.513314e-08	5.648157e+01	1.648079e+03
1.730000e-06	7.804641e-06	2.508783e-08	5.632916e+01	1.647008e+03
1.740000e-06	7.780579e-06	2.502652e-08	5.615549e+01	1.645775e+03
1.750000e-06	7.752985e-06	2.501737e-08	5.595633e+01	1.644364e+03
1.760000e-06	7.721862e-06	2.501149e-08	5.573171e+01	1.642789e+03
1.770000e-06	7.687943e-06	2.499033e-08	5.548690e+01	1.641081e+03
1.780000e-06	7.651754e-06	2.500621e-08	5.522571e+01	1.639284e+03
1.790000e-06	7.613362e-06	2.503898e-08	5.494862e+01	1.637434e+03
1.800000e-06	7.572998e-06	2.492904e-08	5.465729e+01	1.635546e+03
1.810000e-06	7.530459e-06	2.487878e-08	5.435027e+01	1.633603e+03
1.820000e-06	7.485261e-06	2.488249e-08	5.402406e+01	1.631557e+03
1.830000e-06	7.437468e-06	2.479094e-08	5.367912e+01	1.629338e+03
1.840000e-06	7.386792e-06	2.481756e-08	5.331337e+01	1.626874e+03
1.850000e-06	7.333146e-06	2.478952e-08	5.292619e+01	1.624110e+03
1.860000e-06	7.276796e-06	2.475781e-08	5.251949e+01	1.621021e+03
1.870000e-06	7.217717e-06	2.469272e-08	5.209309e+01	1.617627e+03
1.880000e-06	7.156078e-06	2.456656e-08	5.164822e+01	1.613981e+03
1.890000e-06	7.091714e-06	2.455888e-08	5.118368e+01	1.610157e+03
1.900000e-06	7.024545e-06	2.447353e-08	5.069889e+01	1.606227e+03
1.910000e-06	6.954717e-06	2.441209e-08	5.019492e+01	1.602241e+03
1.920000e-06	6.882176e-06	2.439328e-08	4.967136e+01	1.598209e+03
1.930000e-06	6.806914e-06	2.432836e-08	4.912817e+01	1.594095e+03
1.940000e-06	6.728956e-06	2.425299e-08	4.856551e+01	1.589830e+03
1.950000e-06	6.648407e-06	2.414582e-08	4.798416e+01	1.585324e+03
1.960000e-06	6.565326e-06	2.409669e-08	4.738453e+01	1.580498e+03
1.970000e-06	6.479829e-06	2.401500e-08	4.676746e+01	1.575299e+03
1.980000e-06	6.391974e-06	2.392258e-08	4.613339e+01	1.569715e+03
1.990000e-06	6.301799e-06	2.385222e-08	4.548256e+01	1.563777e+03
2.000000e-06	6.209478e-06	2.376021e-08	4.481624e+01	1.557545e+03
2.010000e-06	6.114964e-06	2.366442e-08	4.413409e+01	1.551087e+03
2.020000e-06	6.018244e-06	2.355101e-08	4.343603e+01	1.544453e+03
2.030000e-06	5.919355e-06	2.345377e-08	4.272231e+01	1.537658e+03
2.040000e-06	5.818335e-06	2.335199e-08	4.199321e+01	1.530672e+03
2.050000e-06	5.715281e-06	2.324105e-08	4.124942e+01	1.523425e+03
2.060000e-06	5.610278e-06	2.312439e-08	4.049158e+01	1.515827e+03
2.070000e-06	5.503344e-06	2.300073e-08	3.971979e+01	1.507790e+03
2.080000e-06	5.394462e-06	2.286579e-08	3.893395e+01	1.499249e+03
2.090000e-06	5.283671e-06	2.272001e-08	3.813433e+01	1.490184e+03
2.100000e-06	5.170948e-06	2.257936e-08	3.732076e+01	1.480615e+03
2.110000e-06	5.056269e-06	2.243956e-08	3.649308e+01	1.470593e+03
2.120000e-06	4.939571e-06	2.229536e-08	3.565082e+01	1.460177e+03
2.130000e-06	4.820927e-06	2.213641e-08	3.479452e+01	1.449408e+03
2.140000e-06	4.700463e-06	2.196364e-08	3.392508e+01	1.438286e+03
2.150000e-06	4.578313e-06	2.177987e-08	3.304348e+01	1.426760e+03
2.160000e-06	4.454487e-06	2.158769e-08	3.214978e+01	1.414736e+03
2.170000e-06	4.328977e-06	2.139244e-08	3.124393e+01	1.402094e+03
2.180000e-06	4.201892e-06	2.119235e-08	3.032670e+01	1.388717e+03
2.190000e-06	4.073303e-06	2.098055e-08	2.939863e+01	1.374520e+03
2.200000e-06	3.943254e-06	2.075301e-08	2.846001e+01	1.359462e+03
2.210000e-06	3.811670e-06	2.051294e-08	2.751032e+01	1.343554e+03
2.220000e-06	3.678648e-06	2.026666e-08	2.655025e+01	1.326839e+03
2.230000e-06	3.544223e-06	2.001009e-08	2.558005e+01	1.309368e+03
2.240000e-06	3.408478e-06	1.973732e-08	2.460032e+01	1.291162e+03
2.250000e-06	3.271518e-06	1.944815e-08	2.361183e+01	1.272186e+03
2.260000e-06	3.133297e-06	1.914050e-08	2.261423e+01	1.252336e+03
2.270000e-06	2.993830e-06	1.881458e-08	2.160764e+01	1.231442e+03
2.280000e-06	2.853155e-06	1.847216e-08	2.059234e+01	1.209297e+03
2.290000e-06	2.711464e-06	1.811503e-08	1.956970e+01	1.185686e+03
2.300000e-06	2.568795e-06	1.773798e-08	1.854000e+01	1.160425e+03
2.310000e-06	2.425119e-06	1.733502e-08	1.750303e+01	1.133376e+03
2.320000e-06	2.280602e-06	1.690321e-08	1.646000e+01	1.104454e+03
2.330000e-06	2.135295e-06	1.643937e-08	1.541126e+01	1.073597e+03
2.340000e-06	1.989270e-06	1.594067e-08	1.435734e+01	1.040730e+03
2.350000e-06	1.842602e-06	1.540365e-08	1.329878e+01	1.005710e+03
2.360000e-06	1.695363e-06	1.482886e-08	1.223610e+01	9.683010e+02
2.370000e-06	1.547602e-06	1.421216e-08	1.116965e+01	9.281561e+02
2.380000e-06	1.399339e-06	1.354660e-08	1.009958e+01	8.848507e+02
2.390000e-06	1.250639e-06	1.282822e-08	9.026349e+00	8.379455e+02
2.400000e-06	1.101494e-06	1.205230e-08	7.949911e+00	7.870768e+02
2.410000e-06	9.519203e-07	1.121713e-08	6.870382e+00	7.320520e+02
2.420000e-06	8.020071e-07	1.032436e-08	5.788400e+00	6.729260e+02
2.430000e-06	6.518740e-07	9.376944e-09	4.704830e+00	6.100353e+02
2.440000e-06	5.014967e-07	8.376865e-09	3.619498e+00	5.439753e+02
2.450000e-06	3.508914e-07	7.331108e-09	2.532521e+00	4.755191e+02
2.460000e-06	2.001731e-07	6.253750e-09	1.444728e+00	4.054902e+02
2.470000e-06	4.935480e-08	5.160679e-09	3.562129e-01	3.346161e+02
2.480000e-06	-1.015460e-07	4.063261e-09	-7.328970e-01	2.633947e+02
2.490000e-06	-2.524283e-07	2.966668e-09	-1.821874e+00	1.920065e+02
2.500000e-06	-4.032111e-07	1.871142e-09	-2.910133e+00	1.202969e+02
2.510000e-06	-5.539149e-07	7.702491e-10	-3.997821e+00	4.783681e+01
2.520000e-06	-7.044745e-07	-3.471212e-10	-5.084469e+00	-2.594698e+01
2.530000e-06	-8.548307e-07	-1.492976e-09	-6.169648e+00	-1.015977e+02
2.540000e-06	-1.004888e-06	-2.676350e-09	-7.252671e+00	-1.794477e+02
2.550000e-06	-1.154490e-06	-3.898262e-09	-8.332410e+00	-2.594700e+02
2.560000e-06	-1.303612e-06	-5.151250e-09	-9.408677e+00	-3.411974e+02
2.570000e-06	-1.452207e-06	-6.420597e-09	-1.048114e+01	-4.237264e+02
2.580000e-06	-1.600275e-06	-7.684737e-09	-1.154981e+01	-5.058092e+02
2.590000e-06	-1.747824e-06	-8.920218e-09	-1.261473e+01	-5.860129e+02
2.600000e-06	-1.894755e-06	-1.009999e-08	-1.367519e+01	-6.629157e+02
2.610000e-06	-2.040984e-06	-1.120293e-08	-1.473058e+01	-7.352988e+02
2.620000e-06	-2.186488e-06	-1.221965e-08	-1.578074e+01	-8.022974e+02
2.630000e-06	-2.331148e-06	-1.314705e-08	-1.682481e+01	-8.634828e+02
2.640000e-06	-2.474861e-06	-1.398905e-08	-1.786204e+01	-9.188661e+02
2.650000e-06	-2.617612e-06	-1.475575e-08	-1.889233e+01	-9.688273e+02
2.660000e-06	-2.759268e-06	-1.545744e-08	-1.991472e+01	-1.013994e+03
2.670000e-06	-2.899734e-06	-1.609995e-08	-2.092852e+01	-1.055099e+03
2.680000e-06	-3.038949e-06	-1.668730e-08	-2.193329e+01	-1.092845e+03
2.690000e-06	-3.176983e-06	-1.722571e-08	-2.292953e+01	-1.127812e+03
2.700000e-06	-3.313850e-06	-1.772125e-08	-2.391736e+01	-1.160408e+03
2.710000e-06	-3.449509e-06	-1.817988e-08	-2.489646e+01	-1.190873e+03
2.720000e-06	-3.583987e-06	-1.860774e-08	-2.586704e+01	-1.219324e+03
2.730000e-06	-3.717136e-06	-1.900776e-08	-2.682803e+01	-1.245818e+03
2.740000e-06	-3.848896e-06	-1.938293e-08	-2.777900e+01	-1.270414e+03
2.750000e-06	-3.979319e-06	-1.973440e-08	-2.872031e+01	-1.293217e+03
2.760000e-06	-4.108377e-06	-2.006189e-08	-2.965177e+01	-1.314393e+03
2.770000e-06	-4.236017e-06	-2.036970e-08	-3.057299e+01	-1.334156e+03
2.780000e-06	-4.362239e-06	-2.065954e-08	-3.148399e+01	-1.352733e+03
2.790000e-06	-4.486967e-06	-2.093183e-08	-3.238420e+01	-1.370328e+03
2.800000e-06	-4.610119e-06	-2.118714e-08	-3.327304e+01	-1.387087e+03
2.810000e-06	-4.731731e-06	-2.142885e-08	-3.415076e+01	-1.403083e+03
2.820000e-06	-4.851574e-06	-2.165947e-08	-3.501571e+01	-1.418322e+03
2.830000e-06	-4.969374e-06	-2.187942e-08	-3.586592e+01	-1.432766e+03
2.840000e-06	-5.085090e-06	-2.208867e-08	-3.670109e+01	-1.446370e+03
2.850000e-06	-5.198768e-06	-2.228567e-08	-3.752154e+01	-1.459111e+03
2.860000e-06	-5.310386e-06	-2.247043e-08	-3.832714e+01	-1.471011e+03
2.870000e-06	-5.420026e-06	-2.264251e-08	-3.911846e+01	-1.482143e+03
2.880000e-06	-5.527918e-06	-2.280391e-08	-3.989715e+01	-1.492616e+03
2.890000e-06	-5.633944e-06	-2.295681e-08	-4.066239e+01	-1.502549e+03
2.900000e-06	-5.737866e-06	-2.310259e-08	-4.141243e+01	-1.512046e+03
2.910000e-06	-5.839564e-06	-2.324173e-08	-4.214642e+01	-1.521170e+03
2.920000e-06	-5.939172e-06	-2.337417e-08	-4.286533e+01	-1.529934e+03
2.930000e-06	-6.036796e-06	-2.350034e-08	-4.356992e+01	-1.538306e+03
2.940000e-06	-6.132230e-06	-2.361857e-08	-4.425871e+01	-1.546227e+03
