# Temperatura_=_36.75
# Concentracion g/m^3_=_28200.0
# C_Vs_to_Am_M_A/Vsm_=_65563218390.804596
# pendiente_HvsI_1/m_=_3716.3
# ordenada_HvsI_A/m_=_1297.0
# frecuencia_Hz_=_302513.6649039783

Tiempo_(s)	Campo_(V.s)	Magnetizacion_(V.s)	Campo_(kA/m)	Magnetizacion_(A/m)
0.000000e+00	-7.869774e-06	-2.516481e-08	-5.683477e+01	-1.647785e+03
1.000000e-08	-7.865429e-06	-2.516086e-08	-5.680340e+01	-1.647244e+03
2.000000e-08	-7.858630e-06	-2.515000e-08	-5.675430e+01	-1.646575e+03
3.000000e-08	-7.849148e-06	-2.514062e-08	-5.668582e+01	-1.645819e+03
4.000000e-08	-7.836845e-06	-2.512943e-08	-5.659697e+01	-1.645006e+03
5.000000e-08	-7.821613e-06	-2.511188e-08	-5.648696e+01	-1.644146e+03
6.000000e-08	-7.803679e-06	-2.508868e-08	-5.635744e+01	-1.643225e+03
7.000000e-08	-7.783585e-06	-2.505737e-08	-5.621233e+01	-1.642215e+03
8.000000e-08	-7.761181e-06	-2.505051e-08	-5.605053e+01	-1.641084e+03
9.000000e-08	-7.735823e-06	-2.511013e-08	-5.586739e+01	-1.639811e+03
1.000000e-07	-7.707236e-06	-2.506729e-08	-5.566094e+01	-1.638389e+03
1.100000e-07	-7.675742e-06	-2.499407e-08	-5.543349e+01	-1.636834e+03
1.200000e-07	-7.641476e-06	-2.497201e-08	-5.518603e+01	-1.635174e+03
1.300000e-07	-7.604607e-06	-2.493134e-08	-5.491976e+01	-1.633441e+03
1.400000e-07	-7.565492e-06	-2.484063e-08	-5.463728e+01	-1.631653e+03
1.500000e-07	-7.524162e-06	-2.477890e-08	-5.433880e+01	-1.629806e+03
1.600000e-07	-7.480446e-06	-2.490405e-08	-5.402309e+01	-1.627866e+03
1.700000e-07	-7.434114e-06	-2.482776e-08	-5.368848e+01	-1.625776e+03
1.800000e-07	-7.385011e-06	-2.472502e-08	-5.333386e+01	-1.623467e+03
1.900000e-07	-7.332971e-06	-2.477902e-08	-5.295804e+01	-1.620879e+03
2.000000e-07	-7.278062e-06	-2.463810e-08	-5.256148e+01	-1.617973e+03
2.100000e-07	-7.220490e-06	-2.457497e-08	-5.214571e+01	-1.614747e+03
2.200000e-07	-7.160292e-06	-2.455548e-08	-5.171096e+01	-1.611237e+03
2.300000e-07	-7.097565e-06	-2.451620e-08	-5.125796e+01	-1.607505e+03
2.400000e-07	-7.032148e-06	-2.448596e-08	-5.078552e+01	-1.603625e+03
2.500000e-07	-6.963979e-06	-2.437973e-08	-5.029321e+01	-1.599660e+03
2.600000e-07	-6.893222e-06	-2.435399e-08	-4.978220e+01	-1.595643e+03
2.700000e-07	-6.819699e-06	-2.427066e-08	-4.925123e+01	-1.591565e+03
2.800000e-07	-6.743442e-06	-2.419286e-08	-4.870051e+01	-1.587379e+03
2.900000e-07	-6.664473e-06	-2.413015e-08	-4.813021e+01	-1.583010e+03
3.000000e-07	-6.582808e-06	-2.406239e-08	-4.754042e+01	-1.578375e+03
3.100000e-07	-6.498921e-06	-2.399914e-08	-4.693460e+01	-1.573405e+03
3.200000e-07	-6.412910e-06	-2.388647e-08	-4.631344e+01	-1.568067e+03
3.300000e-07	-6.324576e-06	-2.382844e-08	-4.567550e+01	-1.562365e+03
3.400000e-07	-6.233896e-06	-2.371795e-08	-4.502061e+01	-1.556337e+03
3.500000e-07	-6.141013e-06	-2.362147e-08	-4.434983e+01	-1.550041e+03
3.600000e-07	-6.045940e-06	-2.353707e-08	-4.366322e+01	-1.543531e+03
3.700000e-07	-5.948538e-06	-2.343542e-08	-4.295978e+01	-1.536839e+03
3.800000e-07	-5.848908e-06	-2.333129e-08	-4.224027e+01	-1.529955e+03
3.900000e-07	-5.747254e-06	-2.321528e-08	-4.150613e+01	-1.522832e+03
4.000000e-07	-5.643637e-06	-2.310792e-08	-4.075782e+01	-1.515392e+03
4.100000e-07	-5.538035e-06	-2.296559e-08	-3.999517e+01	-1.507551e+03
4.200000e-07	-5.430472e-06	-2.284170e-08	-3.921836e+01	-1.499236e+03
4.300000e-07	-5.320945e-06	-2.271105e-08	-3.842737e+01	-1.490407e+03
4.400000e-07	-5.209465e-06	-2.257733e-08	-3.762227e+01	-1.481066e+03
4.500000e-07	-5.096027e-06	-2.242666e-08	-3.680303e+01	-1.471251e+03
4.600000e-07	-4.980599e-06	-2.227091e-08	-3.596942e+01	-1.461020e+03
4.700000e-07	-4.863243e-06	-2.210727e-08	-3.512189e+01	-1.450421e+03
4.800000e-07	-4.744148e-06	-2.193214e-08	-3.426179e+01	-1.439476e+03
4.900000e-07	-4.623441e-06	-2.175918e-08	-3.339006e+01	-1.428159e+03
5.000000e-07	-4.500971e-06	-2.157855e-08	-3.250559e+01	-1.416395e+03
5.100000e-07	-4.376771e-06	-2.139134e-08	-3.160864e+01	-1.404075e+03
5.200000e-07	-4.251036e-06	-2.118366e-08	-3.070059e+01	-1.391079e+03
5.300000e-07	-4.123805e-06	-2.097086e-08	-2.978174e+01	-1.377303e+03
5.400000e-07	-3.995074e-06	-2.074319e-08	-2.885205e+01	-1.362682e+03
5.500000e-07	-3.864801e-06	-2.051175e-08	-2.791123e+01	-1.347203e+03
5.600000e-07	-3.732980e-06	-2.026906e-08	-2.695923e+01	-1.330897e+03
5.700000e-07	-3.599773e-06	-2.001174e-08	-2.599723e+01	-1.313816e+03
5.800000e-07	-3.465267e-06	-1.973671e-08	-2.502583e+01	-1.296002e+03
5.900000e-07	-3.329493e-06	-1.944513e-08	-2.404529e+01	-1.277455e+03
6.000000e-07	-3.192429e-06	-1.914315e-08	-2.305542e+01	-1.258108e+03
6.100000e-07	-3.053993e-06	-1.882636e-08	-2.205565e+01	-1.237827e+03
6.200000e-07	-2.914231e-06	-1.849719e-08	-2.104631e+01	-1.216419e+03
6.300000e-07	-2.773249e-06	-1.814479e-08	-2.002814e+01	-1.193668e+03
6.400000e-07	-2.631125e-06	-1.777098e-08	-1.900174e+01	-1.169363e+03
6.500000e-07	-2.487883e-06	-1.737145e-08	-1.796726e+01	-1.143337e+03
6.600000e-07	-2.343657e-06	-1.694934e-08	-1.692568e+01	-1.115473e+03
6.700000e-07	-2.198694e-06	-1.650162e-08	-1.587876e+01	-1.085695e+03
6.800000e-07	-2.053011e-06	-1.602337e-08	-1.482665e+01	-1.053940e+03
6.900000e-07	-1.906586e-06	-1.551117e-08	-1.376919e+01	-1.020106e+03
7.000000e-07	-1.759627e-06	-1.495577e-08	-1.270786e+01	-9.840162e+02
7.100000e-07	-1.612209e-06	-1.435811e-08	-1.164322e+01	-9.453865e+02
7.200000e-07	-1.464289e-06	-1.371324e-08	-1.057496e+01	-9.038378e+02
7.300000e-07	-1.315916e-06	-1.302183e-08	-9.503424e+00	-8.589369e+02
7.400000e-07	-1.167173e-06	-1.227659e-08	-8.429216e+00	-8.102744e+02
7.500000e-07	-1.018008e-06	-1.147397e-08	-7.351957e+00	-7.575588e+02
7.600000e-07	-8.684763e-07	-1.061459e-08	-6.272055e+00	-7.007064e+02
7.700000e-07	-7.186413e-07	-9.697545e-09	-5.189960e+00	-6.399010e+02
7.800000e-07	-5.685439e-07	-8.724177e-09	-4.105971e+00	-5.756046e+02
7.900000e-07	-4.183212e-07	-7.702645e-09	-3.021077e+00	-5.085086e+02
8.000000e-07	-2.679097e-07	-6.647670e-09	-1.934819e+00	-4.394304e+02
8.100000e-07	-1.173099e-07	-5.568286e-09	-8.472013e-01	-3.691740e+02
8.200000e-07	3.332770e-08	-4.481218e-09	2.406895e-01	-2.983847e+02
8.300000e-07	1.839757e-07	-3.396415e-09	1.328655e+00	-2.274303e+02
8.400000e-07	3.346301e-07	-2.315225e-09	2.416668e+00	-1.563411e+02
8.500000e-07	4.851643e-07	-1.229330e-09	3.503811e+00	-8.482397e+01
8.600000e-07	6.355439e-07	-1.320212e-10	4.589839e+00	-1.235528e+01
8.700000e-07	7.857460e-07	9.859544e-10	5.674585e+00	6.166644e+01
8.800000e-07	9.357029e-07	2.137693e-09	6.757559e+00	1.377373e+02
8.900000e-07	1.085364e-06	3.327234e-09	7.838399e+00	2.160745e+02
9.000000e-07	1.234691e-06	4.553498e-09	8.916823e+00	2.964911e+02
9.100000e-07	1.383607e-06	5.805851e-09	9.992279e+00	3.783470e+02
9.200000e-07	1.531985e-06	7.071266e-09	1.106385e+01	4.605887e+02
9.300000e-07	1.679827e-06	8.321162e-09	1.213155e+01	5.418722e+02
9.400000e-07	1.827139e-06	9.525306e-09	1.319543e+01	6.207414e+02
9.500000e-07	1.973857e-06	1.066081e-08	1.425501e+01	6.958285e+02
9.600000e-07	2.119853e-06	1.171330e-08	1.530938e+01	7.660346e+02
9.700000e-07	2.264997e-06	1.268132e-08	1.635760e+01	8.306567e+02
9.800000e-07	2.409256e-06	1.356359e-08	1.739942e+01	8.894395e+02
9.900000e-07	2.552576e-06	1.436839e-08	1.843447e+01	9.425483e+02
1.000000e-06	2.694851e-06	1.510117e-08	1.946197e+01	9.904754e+02
1.010000e-06	2.836075e-06	1.576925e-08	2.048187e+01	1.033905e+03
1.020000e-06	2.976169e-06	1.637876e-08	2.149362e+01	1.073573e+03
1.030000e-06	3.115012e-06	1.693917e-08	2.249633e+01	1.110140e+03
1.040000e-06	3.252582e-06	1.745713e-08	2.348984e+01	1.144119e+03
1.050000e-06	3.388831e-06	1.793654e-08	2.447382e+01	1.175846e+03
1.060000e-06	3.523821e-06	1.838165e-08	2.544871e+01	1.205502e+03
1.070000e-06	3.657612e-06	1.879429e-08	2.641493e+01	1.233171e+03
1.080000e-06	3.790121e-06	1.918007e-08	2.737190e+01	1.258899e+03
1.090000e-06	3.921284e-06	1.954153e-08	2.831915e+01	1.282759e+03
1.100000e-06	4.051054e-06	1.988104e-08	2.925634e+01	1.304879e+03
1.110000e-06	4.179353e-06	2.019786e-08	3.018290e+01	1.325450e+03
1.120000e-06	4.306151e-06	2.049648e-08	3.109862e+01	1.344698e+03
1.130000e-06	4.431477e-06	2.077720e-08	3.200372e+01	1.362852e+03
1.140000e-06	4.555349e-06	2.103996e-08	3.289831e+01	1.380099e+03
1.150000e-06	4.677638e-06	2.128715e-08	3.378146e+01	1.396561e+03
1.160000e-06	4.798184e-06	2.152177e-08	3.465204e+01	1.412282e+03
1.170000e-06	4.917022e-06	2.174369e-08	3.551028e+01	1.427246e+03
1.180000e-06	5.034109e-06	2.195186e-08	3.635587e+01	1.441404e+03
1.190000e-06	5.149298e-06	2.214910e-08	3.718775e+01	1.454709e+03
1.200000e-06	5.262494e-06	2.233745e-08	3.800524e+01	1.467150e+03
1.210000e-06	5.373660e-06	2.251632e-08	3.880807e+01	1.478765e+03
1.220000e-06	5.482892e-06	2.268613e-08	3.959693e+01	1.489641e+03
1.230000e-06	5.590277e-06	2.284682e-08	4.037246e+01	1.499895e+03
1.240000e-06	5.695637e-06	2.299855e-08	4.113336e+01	1.509648e+03
1.250000e-06	5.798838e-06	2.314311e-08	4.187867e+01	1.518995e+03
1.260000e-06	5.899916e-06	2.328081e-08	4.260864e+01	1.527985e+03
1.270000e-06	5.998802e-06	2.341120e-08	4.332279e+01	1.536616e+03
1.280000e-06	6.095375e-06	2.353467e-08	4.402023e+01	1.544845e+03
1.290000e-06	6.189674e-06	2.365074e-08	4.470125e+01	1.552610e+03
1.300000e-06	6.281870e-06	2.375873e-08	4.536708e+01	1.559858e+03
1.310000e-06	6.371882e-06	2.385950e-08	4.601714e+01	1.566565e+03
1.320000e-06	6.459536e-06	2.395532e-08	4.665017e+01	1.572756e+03
1.330000e-06	6.544887e-06	2.404673e-08	4.726657e+01	1.578497e+03
1.340000e-06	6.628029e-06	2.413333e-08	4.786701e+01	1.583883e+03
1.350000e-06	6.708762e-06	2.421604e-08	4.845005e+01	1.589016e+03
1.360000e-06	6.786954e-06	2.429312e-08	4.901475e+01	1.593978e+03
1.370000e-06	6.862591e-06	2.436415e-08	4.956100e+01	1.598816e+03
1.380000e-06	6.935578e-06	2.443038e-08	5.008810e+01	1.603530e+03
1.390000e-06	7.006037e-06	2.449447e-08	5.059695e+01	1.608085e+03
1.400000e-06	7.074072e-06	2.455647e-08	5.108829e+01	1.612420e+03
1.410000e-06	7.139533e-06	2.461694e-08	5.156105e+01	1.616478e+03
1.420000e-06	7.202438e-06	2.467520e-08	5.201533e+01	1.620219e+03
1.430000e-06	7.262998e-06	2.473009e-08	5.245270e+01	1.623636e+03
1.440000e-06	7.321090e-06	2.478110e-08	5.287223e+01	1.626757e+03
1.450000e-06	7.376547e-06	2.482852e-08	5.327273e+01	1.629632e+03
1.460000e-06	7.429224e-06	2.487061e-08	5.365316e+01	1.632321e+03
1.470000e-06	7.478852e-06	2.490713e-08	5.401157e+01	1.634871e+03
1.480000e-06	7.525551e-06	2.494184e-08	5.434883e+01	1.637307e+03
1.490000e-06	7.569667e-06	2.497412e-08	5.466743e+01	1.639619e+03
1.500000e-06	7.611104e-06	2.500418e-08	5.496668e+01	1.641774e+03
1.510000e-06	7.649722e-06	2.503091e-08	5.524558e+01	1.643725e+03
1.520000e-06	7.685737e-06	2.505561e-08	5.550568e+01	1.645429e+03
1.530000e-06	7.719021e-06	2.507810e-08	5.574605e+01	1.646863e+03
1.540000e-06	7.749495e-06	2.509876e-08	5.596613e+01	1.648031e+03
1.550000e-06	7.777317e-06	2.511755e-08	5.616706e+01	1.648969e+03
1.560000e-06	7.802244e-06	2.513170e-08	5.634708e+01	1.649732e+03
1.570000e-06	7.824306e-06	2.514291e-08	5.650641e+01	1.650377e+03
1.580000e-06	7.843765e-06	2.515264e-08	5.664694e+01	1.650953e+03
1.590000e-06	7.860378e-06	2.516050e-08	5.676692e+01	1.651482e+03
1.600000e-06	7.873990e-06	2.516671e-08	5.686522e+01	1.651958e+03
1.610000e-06	7.884525e-06	2.517219e-08	5.694131e+01	1.652349e+03
1.620000e-06	7.891943e-06	2.517515e-08	5.699487e+01	1.652610e+03
1.630000e-06	7.896561e-06	2.517607e-08	5.702823e+01	1.652698e+03
1.640000e-06	7.898399e-06	2.517708e-08	5.704150e+01	1.652586e+03
1.650000e-06	7.897431e-06	2.517613e-08	5.703451e+01	1.652271e+03
1.660000e-06	7.893919e-06	2.516382e-08	5.700915e+01	1.651775e+03
1.670000e-06	7.887767e-06	2.515859e-08	5.696472e+01	1.651137e+03
1.680000e-06	7.878937e-06	2.515129e-08	5.690095e+01	1.650401e+03
1.690000e-06	7.867490e-06	2.513881e-08	5.681828e+01	1.649601e+03
1.700000e-06	7.853199e-06	2.512913e-08	5.671507e+01	1.648753e+03
1.710000e-06	7.836288e-06	2.512615e-08	5.659294e+01	1.647851e+03
1.720000e-06	7.817191e-06	2.512903e-08	5.645503e+01	1.646868e+03
1.730000e-06	7.795689e-06	2.505587e-08	5.629974e+01	1.645774e+03
1.740000e-06	7.771065e-06	2.497300e-08	5.612191e+01	1.644542e+03
1.750000e-06	7.742875e-06	2.501217e-08	5.591833e+01	1.643161e+03
1.760000e-06	7.711235e-06	2.500365e-08	5.568982e+01	1.641640e+03
1.770000e-06	7.676915e-06	2.496121e-08	5.544197e+01	1.640006e+03
1.780000e-06	7.640463e-06	2.500477e-08	5.517871e+01	1.638290e+03
1.790000e-06	7.601793e-06	2.507106e-08	5.489944e+01	1.636516e+03
1.800000e-06	7.561166e-06	2.488589e-08	5.460604e+01	1.634687e+03
1.810000e-06	7.518309e-06	2.489283e-08	5.429653e+01	1.632777e+03
1.820000e-06	7.472697e-06	2.490600e-08	5.396712e+01	1.630736e+03
1.830000e-06	7.424455e-06	2.472333e-08	5.361873e+01	1.628496e+03
1.840000e-06	7.373331e-06	2.485208e-08	5.324951e+01	1.625991e+03
1.850000e-06	7.319226e-06	2.475274e-08	5.285877e+01	1.623177e+03
1.860000e-06	7.262380e-06	2.474616e-08	5.244823e+01	1.620040e+03
1.870000e-06	7.202961e-06	2.469133e-08	5.201911e+01	1.616604e+03
1.880000e-06	7.140967e-06	2.451378e-08	5.157140e+01	1.612926e+03
1.890000e-06	7.076142e-06	2.458580e-08	5.110324e+01	1.609081e+03
1.900000e-06	7.008700e-06	2.444201e-08	5.061618e+01	1.605134e+03
1.910000e-06	6.938580e-06	2.443677e-08	5.010978e+01	1.601130e+03
1.920000e-06	6.865621e-06	2.439892e-08	4.958288e+01	1.597071e+03
1.930000e-06	6.790038e-06	2.429800e-08	4.903702e+01	1.592922e+03
1.940000e-06	6.711692e-06	2.426019e-08	4.847121e+01	1.588613e+03
1.950000e-06	6.630740e-06	2.411186e-08	4.788659e+01	1.584060e+03
1.960000e-06	6.547385e-06	2.410501e-08	4.728461e+01	1.579191e+03
1.970000e-06	6.461597e-06	2.398660e-08	4.666505e+01	1.573958e+03
1.980000e-06	6.373392e-06	2.392875e-08	4.602804e+01	1.568356e+03
1.990000e-06	6.282918e-06	2.385215e-08	4.537465e+01	1.562414e+03
2.000000e-06	6.190319e-06	2.373747e-08	4.470591e+01	1.556188e+03
2.010000e-06	6.095472e-06	2.366215e-08	4.402093e+01	1.549734e+03
2.020000e-06	5.998435e-06	2.353238e-08	4.332014e+01	1.543091e+03
2.030000e-06	5.899301e-06	2.345024e-08	4.260420e+01	1.536264e+03
2.040000e-06	5.798053e-06	2.331655e-08	4.187300e+01	1.529215e+03
2.050000e-06	5.694657e-06	2.322743e-08	4.112629e+01	1.521874e+03
2.060000e-06	5.589269e-06	2.309828e-08	4.036518e+01	1.514155e+03
2.070000e-06	5.482034e-06	2.297333e-08	3.959074e+01	1.505980e+03
2.080000e-06	5.372914e-06	2.283788e-08	3.880268e+01	1.497298e+03
2.090000e-06	5.261859e-06	2.269358e-08	3.800066e+01	1.488100e+03
2.100000e-06	5.148833e-06	2.255605e-08	3.718439e+01	1.478414e+03
2.110000e-06	5.033921e-06	2.240228e-08	3.635451e+01	1.468295e+03
2.120000e-06	4.917033e-06	2.226446e-08	3.551035e+01	1.457796e+03
2.130000e-06	4.798152e-06	2.209613e-08	3.465181e+01	1.446950e+03
2.140000e-06	4.677466e-06	2.192589e-08	3.378023e+01	1.435743e+03
2.150000e-06	4.555117e-06	2.173458e-08	3.289663e+01	1.424116e+03
2.160000e-06	4.431107e-06	2.154708e-08	3.200104e+01	1.411966e+03
2.170000e-06	4.305482e-06	2.134675e-08	3.109379e+01	1.399174e+03
2.180000e-06	4.178253e-06	2.114614e-08	3.017496e+01	1.385628e+03
2.190000e-06	4.049439e-06	2.093124e-08	2.924467e+01	1.371251e+03
2.200000e-06	3.919173e-06	2.070403e-08	2.830390e+01	1.356015e+03
2.210000e-06	3.787502e-06	2.046092e-08	2.735299e+01	1.339939e+03
2.220000e-06	3.654418e-06	2.020847e-08	2.639186e+01	1.323073e+03
2.230000e-06	3.519893e-06	1.994957e-08	2.542034e+01	1.305465e+03
2.240000e-06	3.384050e-06	1.967417e-08	2.443929e+01	1.287130e+03
2.250000e-06	3.246983e-06	1.938680e-08	2.344941e+01	1.268021e+03
2.260000e-06	3.108678e-06	1.907608e-08	2.245058e+01	1.248024e+03
2.270000e-06	2.969207e-06	1.874957e-08	2.144334e+01	1.226959e+03
2.280000e-06	2.828592e-06	1.840293e-08	2.042783e+01	1.204612e+03
2.290000e-06	2.686775e-06	1.804250e-08	1.940364e+01	1.180770e+03
2.300000e-06	2.543895e-06	1.765951e-08	1.837177e+01	1.155249e+03
2.310000e-06	2.400108e-06	1.725229e-08	1.733336e+01	1.127918e+03
2.320000e-06	2.255524e-06	1.681389e-08	1.628918e+01	1.098692e+03
2.330000e-06	2.110205e-06	1.634285e-08	1.523970e+01	1.067508e+03
2.340000e-06	1.964187e-06	1.583666e-08	1.418518e+01	1.034282e+03
2.350000e-06	1.817521e-06	1.529352e-08	1.312597e+01	9.988591e+02
2.360000e-06	1.670293e-06	1.471356e-08	1.206270e+01	9.609889e+02
2.370000e-06	1.522596e-06	1.408866e-08	1.099605e+01	9.203162e+02
2.380000e-06	1.374429e-06	1.341371e-08	9.926002e+00	8.764165e+02
2.390000e-06	1.225790e-06	1.268540e-08	8.852543e+00	8.288644e+02
2.400000e-06	1.076724e-06	1.189910e-08	7.775997e+00	7.773249e+02
2.410000e-06	9.272269e-07	1.105477e-08	6.696346e+00	7.216470e+02
2.420000e-06	7.773549e-07	1.015466e-08	5.613985e+00	6.619346e+02
2.430000e-06	6.272701e-07	9.200251e-09	4.530087e+00	5.985725e+02
2.440000e-06	4.769842e-07	8.193276e-09	3.444735e+00	5.321950e+02
2.450000e-06	3.265210e-07	7.142173e-09	2.358105e+00	4.635966e+02
2.460000e-06	1.759465e-07	6.065024e-09	1.270669e+00	3.936004e+02
2.470000e-06	2.524369e-08	4.975004e-09	1.823076e-01	3.229109e+02
2.480000e-06	-1.255197e-07	3.881332e-09	-9.064913e-01	2.519843e+02
2.490000e-06	-2.762155e-07	2.790249e-09	-1.994803e+00	1.809494e+02
2.500000e-06	-4.267874e-07	1.699752e-09	-3.082219e+00	1.095993e+02
2.510000e-06	-5.772701e-07	6.045988e-10	-4.168991e+00	3.746268e+01
2.520000e-06	-7.276634e-07	-5.077223e-10	-5.255118e+00	-3.605767e+01
2.530000e-06	-8.778161e-07	-1.649867e-09	-6.339506e+00	-1.115068e+02
2.540000e-06	-1.027641e-06	-2.830180e-09	-7.421529e+00	-1.891974e+02
2.550000e-06	-1.177030e-06	-4.048784e-09	-8.500404e+00	-2.690665e+02
2.560000e-06	-1.325888e-06	-5.298046e-09	-9.575439e+00	-3.506032e+02
2.570000e-06	-1.474239e-06	-6.565688e-09	-1.064682e+01	-4.328632e+02
2.580000e-06	-1.622088e-06	-7.827077e-09	-1.171457e+01	-5.145690e+02
2.590000e-06	-1.769413e-06	-9.056186e-09	-1.277854e+01	-5.942762e+02
2.600000e-06	-1.916122e-06	-1.022642e-08	-1.383806e+01	-6.705718e+02
2.610000e-06	-2.062173e-06	-1.131638e-08	-1.489282e+01	-7.422643e+02
2.620000e-06	-2.207463e-06	-1.231867e-08	-1.594209e+01	-8.085287e+02
2.630000e-06	-2.351846e-06	-1.323425e-08	-1.698481e+01	-8.689811e+02
2.640000e-06	-2.495266e-06	-1.406779e-08	-1.802058e+01	-9.236740e+02
2.650000e-06	-2.637671e-06	-1.482686e-08	-1.904901e+01	-9.730184e+02
2.660000e-06	-2.779001e-06	-1.552062e-08	-2.006969e+01	-1.017659e+03
2.670000e-06	-2.919208e-06	-1.615651e-08	-2.108225e+01	-1.058330e+03
2.680000e-06	-3.058256e-06	-1.674023e-08	-2.208644e+01	-1.095724e+03
2.690000e-06	-3.196130e-06	-1.727568e-08	-2.308216e+01	-1.130402e+03
2.700000e-06	-3.332822e-06	-1.776732e-08	-2.406933e+01	-1.162749e+03
2.710000e-06	-3.468293e-06	-1.822217e-08	-2.504769e+01	-1.192986e+03
2.720000e-06	-3.602455e-06	-1.864503e-08	-2.601660e+01	-1.221219e+03
2.730000e-06	-3.735213e-06	-1.903966e-08	-2.697536e+01	-1.247497e+03
2.740000e-06	-3.866630e-06	-1.941004e-08	-2.792444e+01	-1.271881e+03
2.750000e-06	-3.996763e-06	-1.975711e-08	-2.886425e+01	-1.294483e+03
2.760000e-06	-4.125531e-06	-2.008190e-08	-2.979420e+01	-1.315475e+03
2.770000e-06	-4.252902e-06	-2.038851e-08	-3.071406e+01	-1.335078e+03
2.780000e-06	-4.378828e-06	-2.067903e-08	-3.162349e+01	-1.353524e+03
2.790000e-06	-4.503212e-06	-2.095342e-08	-3.252178e+01	-1.371016e+03
2.800000e-06	-4.626007e-06	-2.121033e-08	-3.340859e+01	-1.387696e+03
2.810000e-06	-4.747198e-06	-2.144995e-08	-3.428382e+01	-1.403629e+03
2.820000e-06	-4.866602e-06	-2.167690e-08	-3.514615e+01	-1.418814e+03
2.830000e-06	-4.984044e-06	-2.189426e-08	-3.599430e+01	-1.433209e+03
2.840000e-06	-5.099486e-06	-2.210156e-08	-3.682801e+01	-1.446762e+03
2.850000e-06	-5.212871e-06	-2.229696e-08	-3.764687e+01	-1.459449e+03
2.860000e-06	-5.324163e-06	-2.248050e-08	-3.845061e+01	-1.471294e+03
2.870000e-06	-5.433482e-06	-2.265306e-08	-3.924010e+01	-1.482371e+03
2.880000e-06	-5.540965e-06	-2.281562e-08	-4.001634e+01	-1.492792e+03
2.890000e-06	-5.646611e-06	-2.296858e-08	-4.077930e+01	-1.502678e+03
2.900000e-06	-5.750210e-06	-2.311335e-08	-4.152748e+01	-1.512135e+03
2.910000e-06	-5.851541e-06	-2.325046e-08	-4.225929e+01	-1.521226e+03
2.920000e-06	-5.950697e-06	-2.338017e-08	-4.297538e+01	-1.529963e+03
2.930000e-06	-6.047816e-06	-2.350393e-08	-4.367676e+01	-1.538314e+03
2.940000e-06	-6.142766e-06	-2.362009e-08	-4.436248e+01	-1.546219e+03
