# Temperatura_=_80.0
# Concentracion g/m^3_=_28200.0
# C_Vs_to_Am_M_A/Vsm_=_65563218390.804596
# pendiente_HvsI_1/m_=_3716.3
# ordenada_HvsI_A/m_=_1297.0
# frecuencia_Hz_=_302511.31099418696

Tiempo_(s)	Campo_(V.s)	Magnetizacion_(V.s)	Campo_(kA/m)	Magnetizacion_(A/m)
0.000000e+00	-7.898729e-06	-2.873592e-08	-5.684919e+01	-1.882466e+03
1.000000e-08	-7.895099e-06	-2.873277e-08	-5.682307e+01	-1.881803e+03
2.000000e-08	-7.888898e-06	-2.872302e-08	-5.677844e+01	-1.880987e+03
3.000000e-08	-7.880031e-06	-2.871010e-08	-5.671462e+01	-1.880082e+03
4.000000e-08	-7.868306e-06	-2.869447e-08	-5.663023e+01	-1.879124e+03
5.000000e-08	-7.853684e-06	-2.867535e-08	-5.652499e+01	-1.878113e+03
6.000000e-08	-7.836356e-06	-2.865289e-08	-5.640028e+01	-1.877014e+03
7.000000e-08	-7.816741e-06	-2.862815e-08	-5.625910e+01	-1.875769e+03
8.000000e-08	-7.794817e-06	-2.860136e-08	-5.610131e+01	-1.874313e+03
9.000000e-08	-7.770128e-06	-2.860916e-08	-5.592362e+01	-1.872605e+03
1.000000e-07	-7.742280e-06	-2.860261e-08	-5.572319e+01	-1.870634e+03
1.100000e-07	-7.711388e-06	-2.854194e-08	-5.550085e+01	-1.868433e+03
1.200000e-07	-7.677728e-06	-2.848817e-08	-5.525859e+01	-1.866064e+03
1.300000e-07	-7.641408e-06	-2.845161e-08	-5.499719e+01	-1.863603e+03
1.400000e-07	-7.602652e-06	-2.840639e-08	-5.471825e+01	-1.861117e+03
1.500000e-07	-7.561657e-06	-2.833248e-08	-5.442320e+01	-1.858635e+03
1.600000e-07	-7.518372e-06	-2.830916e-08	-5.411166e+01	-1.856140e+03
1.700000e-07	-7.472515e-06	-2.830742e-08	-5.378162e+01	-1.853568e+03
1.800000e-07	-7.423882e-06	-2.819063e-08	-5.343159e+01	-1.850823e+03
1.900000e-07	-7.372370e-06	-2.817121e-08	-5.306085e+01	-1.847798e+03
2.000000e-07	-7.317940e-06	-2.814103e-08	-5.266910e+01	-1.844409e+03
2.100000e-07	-7.260842e-06	-2.803344e-08	-5.225816e+01	-1.840610e+03
2.200000e-07	-7.201180e-06	-2.796897e-08	-5.182875e+01	-1.836407e+03
2.300000e-07	-7.138898e-06	-2.787595e-08	-5.138049e+01	-1.831853e+03
2.400000e-07	-7.073953e-06	-2.784808e-08	-5.091307e+01	-1.827031e+03
2.500000e-07	-7.006310e-06	-2.779015e-08	-5.042623e+01	-1.822023e+03
2.600000e-07	-6.936013e-06	-2.770136e-08	-4.992028e+01	-1.816891e+03
2.700000e-07	-6.862961e-06	-2.761126e-08	-4.939451e+01	-1.811652e+03
2.800000e-07	-6.787098e-06	-2.753272e-08	-4.884850e+01	-1.806277e+03
2.900000e-07	-6.708480e-06	-2.744517e-08	-4.828266e+01	-1.800698e+03
3.000000e-07	-6.627203e-06	-2.732665e-08	-4.769769e+01	-1.794829e+03
3.100000e-07	-6.543584e-06	-2.725630e-08	-4.709586e+01	-1.788594e+03
3.200000e-07	-6.457788e-06	-2.718222e-08	-4.647837e+01	-1.781947e+03
3.300000e-07	-6.369698e-06	-2.705584e-08	-4.584436e+01	-1.774886e+03
3.400000e-07	-6.279279e-06	-2.691498e-08	-4.519359e+01	-1.767451e+03
3.500000e-07	-6.186645e-06	-2.680593e-08	-4.452688e+01	-1.759703e+03
3.600000e-07	-6.091857e-06	-2.670875e-08	-4.384467e+01	-1.751707e+03
3.700000e-07	-5.994835e-06	-2.657169e-08	-4.314637e+01	-1.743502e+03
3.800000e-07	-5.895561e-06	-2.643357e-08	-4.243187e+01	-1.735084e+03
3.900000e-07	-5.794129e-06	-2.630796e-08	-4.170185e+01	-1.726404e+03
4.000000e-07	-5.690609e-06	-2.616151e-08	-4.095678e+01	-1.717374e+03
4.100000e-07	-5.585075e-06	-2.600428e-08	-4.019723e+01	-1.707896e+03
4.200000e-07	-5.477624e-06	-2.585990e-08	-3.942387e+01	-1.697884e+03
4.300000e-07	-5.368271e-06	-2.571061e-08	-3.863683e+01	-1.687288e+03
4.400000e-07	-5.256922e-06	-2.553218e-08	-3.783542e+01	-1.676108e+03
4.500000e-07	-5.143556e-06	-2.535424e-08	-3.701950e+01	-1.664386e+03
4.600000e-07	-5.028302e-06	-2.518122e-08	-3.618999e+01	-1.652191e+03
4.700000e-07	-4.911209e-06	-2.499003e-08	-3.534724e+01	-1.639586e+03
4.800000e-07	-4.792236e-06	-2.478710e-08	-3.449096e+01	-1.626600e+03
4.900000e-07	-4.671463e-06	-2.458427e-08	-3.362173e+01	-1.613212e+03
5.000000e-07	-4.549012e-06	-2.436817e-08	-3.274042e+01	-1.599344e+03
5.100000e-07	-4.424899e-06	-2.412772e-08	-3.184714e+01	-1.584874e+03
5.200000e-07	-4.299189e-06	-2.388758e-08	-3.094237e+01	-1.569667e+03
5.300000e-07	-4.171924e-06	-2.365013e-08	-3.002641e+01	-1.553606e+03
5.400000e-07	-4.043077e-06	-2.339034e-08	-2.909907e+01	-1.536621e+03
5.500000e-07	-3.912689e-06	-2.311102e-08	-2.816064e+01	-1.518700e+03
5.600000e-07	-3.780793e-06	-2.282878e-08	-2.721134e+01	-1.499883e+03
5.700000e-07	-3.647488e-06	-2.253946e-08	-2.625191e+01	-1.480237e+03
5.800000e-07	-3.512753e-06	-2.222699e-08	-2.528219e+01	-1.459817e+03
5.900000e-07	-3.376595e-06	-2.189934e-08	-2.430223e+01	-1.438625e+03
6.000000e-07	-3.239198e-06	-2.155978e-08	-2.331334e+01	-1.416590e+03
6.100000e-07	-3.100537e-06	-2.120111e-08	-2.231536e+01	-1.393554e+03
6.200000e-07	-2.960548e-06	-2.082075e-08	-2.130783e+01	-1.369299e+03
6.300000e-07	-2.819246e-06	-2.042193e-08	-2.029084e+01	-1.343577e+03
6.400000e-07	-2.676739e-06	-2.000431e-08	-1.926518e+01	-1.316157e+03
6.500000e-07	-2.533247e-06	-1.955998e-08	-1.823243e+01	-1.286862e+03
6.600000e-07	-2.388933e-06	-1.908656e-08	-1.719377e+01	-1.255585e+03
6.700000e-07	-2.243811e-06	-1.858304e-08	-1.614928e+01	-1.222276e+03
6.800000e-07	-2.097889e-06	-1.805027e-08	-1.509905e+01	-1.186903e+03
6.900000e-07	-1.951225e-06	-1.748492e-08	-1.404347e+01	-1.149391e+03
7.000000e-07	-1.803911e-06	-1.687779e-08	-1.298321e+01	-1.109567e+03
7.100000e-07	-1.656077e-06	-1.622178e-08	-1.191921e+01	-1.067121e+03
7.200000e-07	-1.507732e-06	-1.551483e-08	-1.085154e+01	-1.021610e+03
7.300000e-07	-1.358932e-06	-1.475233e-08	-9.780581e+00	-9.725009e+02
7.400000e-07	-1.209719e-06	-1.393030e-08	-8.706662e+00	-9.192584e+02
7.500000e-07	-1.060110e-06	-1.304858e-08	-7.629888e+00	-8.614565e+02
7.600000e-07	-9.101527e-07	-1.210462e-08	-6.550604e+00	-7.988855e+02
7.700000e-07	-7.598394e-07	-1.109323e-08	-5.468761e+00	-7.316283e+02
7.800000e-07	-6.092051e-07	-1.001130e-08	-4.384607e+00	-6.600816e+02
7.900000e-07	-4.583759e-07	-8.868347e-09	-3.299050e+00	-5.849089e+02
8.000000e-07	-3.073774e-07	-7.676320e-09	-2.212275e+00	-5.069315e+02
8.100000e-07	-1.562702e-07	-6.445816e-09	-1.124717e+00	-4.269781e+02
8.200000e-07	-5.110534e-09	-5.192320e-09	-3.678183e-02	-3.457268e+02
8.300000e-07	1.460876e-07	-3.932055e-09	1.051430e+00	-2.635784e+02
8.400000e-07	2.972381e-07	-2.667572e-09	2.139299e+00	-1.805937e+02
8.500000e-07	4.483752e-07	-1.391715e-09	3.227072e+00	-9.651578e+01
8.600000e-07	5.994362e-07	-1.001236e-10	4.314297e+00	-1.087698e+01
8.700000e-07	7.502682e-07	1.219250e-09	5.399874e+00	7.682959e+01
8.800000e-07	9.008383e-07	2.579178e-09	6.483566e+00	1.669508e+02
8.900000e-07	1.051108e-06	3.984636e-09	7.565097e+00	2.594917e+02
9.000000e-07	1.200977e-06	5.428512e-09	8.643742e+00	3.539946e+02
9.100000e-07	1.350443e-06	6.894600e-09	9.719489e+00	4.495091e+02
9.200000e-07	1.499511e-06	8.359490e-09	1.079237e+01	5.446632e+02
9.300000e-07	1.648051e-06	9.789610e-09	1.186145e+01	6.378249e+02
9.400000e-07	1.795945e-06	1.115226e-08	1.292588e+01	7.273194e+02
9.500000e-07	1.943221e-06	1.242359e-08	1.398586e+01	8.116599e+02
9.600000e-07	2.089827e-06	1.359160e-08	1.504102e+01	8.897435e+02
9.700000e-07	2.235611e-06	1.465254e-08	1.609027e+01	9.609745e+02
9.800000e-07	2.380611e-06	1.561396e-08	1.713387e+01	1.025295e+03
9.900000e-07	2.524739e-06	1.648902e-08	1.817120e+01	1.083121e+03
1.000000e-06	2.667819e-06	1.728819e-08	1.920099e+01	1.135205e+03
1.010000e-06	2.809855e-06	1.801873e-08	2.022326e+01	1.182466e+03
1.020000e-06	2.950748e-06	1.868736e-08	2.123729e+01	1.225807e+03
1.030000e-06	3.090388e-06	1.930322e-08	2.224232e+01	1.265987e+03
1.040000e-06	3.228783e-06	1.987366e-08	2.323839e+01	1.303539e+03
1.050000e-06	3.365958e-06	2.040355e-08	2.422567e+01	1.338765e+03
1.060000e-06	3.501848e-06	2.089733e-08	2.520370e+01	1.371780e+03
1.070000e-06	3.636388e-06	2.135745e-08	2.617202e+01	1.402600e+03
1.080000e-06	3.769650e-06	2.178624e-08	2.713115e+01	1.431228e+03
1.090000e-06	3.901553e-06	2.218553e-08	2.808048e+01	1.457727e+03
1.100000e-06	4.032006e-06	2.255815e-08	2.901939e+01	1.482255e+03
1.110000e-06	4.161047e-06	2.291045e-08	2.994813e+01	1.505060e+03
1.120000e-06	4.288562e-06	2.324516e-08	3.086589e+01	1.526438e+03
1.130000e-06	4.414627e-06	2.356218e-08	3.177321e+01	1.546681e+03
1.140000e-06	4.539294e-06	2.386052e-08	3.267047e+01	1.566015e+03
1.150000e-06	4.662345e-06	2.414124e-08	3.355610e+01	1.584574e+03
1.160000e-06	4.783773e-06	2.440452e-08	3.443005e+01	1.602384e+03
1.170000e-06	4.903485e-06	2.465265e-08	3.529164e+01	1.619395e+03
1.180000e-06	5.021390e-06	2.488967e-08	3.614024e+01	1.635515e+03
1.190000e-06	5.137512e-06	2.511641e-08	3.697600e+01	1.650668e+03
1.200000e-06	5.251637e-06	2.533277e-08	3.779739e+01	1.664830e+03
1.210000e-06	5.363666e-06	2.553686e-08	3.860369e+01	1.678049e+03
1.220000e-06	5.473764e-06	2.572880e-08	3.939609e+01	1.690446e+03
1.230000e-06	5.581979e-06	2.591163e-08	4.017494e+01	1.702180e+03
1.240000e-06	5.688202e-06	2.608536e-08	4.093946e+01	1.713414e+03
1.250000e-06	5.792278e-06	2.625123e-08	4.168852e+01	1.724274e+03
1.260000e-06	5.894173e-06	2.641045e-08	4.242189e+01	1.734818e+03
1.270000e-06	5.994032e-06	2.656368e-08	4.314060e+01	1.745034e+03
1.280000e-06	6.091671e-06	2.671094e-08	4.384333e+01	1.754853e+03
1.290000e-06	6.186914e-06	2.685091e-08	4.452882e+01	1.764176e+03
1.300000e-06	6.279923e-06	2.698307e-08	4.519823e+01	1.772915e+03
1.310000e-06	6.370751e-06	2.710692e-08	4.585194e+01	1.781024e+03
1.320000e-06	6.459238e-06	2.722442e-08	4.648880e+01	1.788514e+03
1.330000e-06	6.545433e-06	2.733644e-08	4.710917e+01	1.795457e+03
1.340000e-06	6.629426e-06	2.744300e-08	4.771369e+01	1.801962e+03
1.350000e-06	6.711022e-06	2.754175e-08	4.830096e+01	1.808150e+03
1.360000e-06	6.790116e-06	2.763223e-08	4.887022e+01	1.814120e+03
1.370000e-06	6.866783e-06	2.771789e-08	4.942201e+01	1.819927e+03
1.380000e-06	6.940810e-06	2.779930e-08	4.995480e+01	1.825574e+03
1.390000e-06	7.012135e-06	2.787772e-08	5.046814e+01	1.831020e+03
1.400000e-06	7.081042e-06	2.795315e-08	5.096409e+01	1.836199e+03
1.410000e-06	7.147454e-06	2.802512e-08	5.144207e+01	1.841050e+03
1.420000e-06	7.211271e-06	2.809343e-08	5.190138e+01	1.845540e+03
1.430000e-06	7.272594e-06	2.815859e-08	5.234274e+01	1.849674e+03
1.440000e-06	7.331421e-06	2.822052e-08	5.276613e+01	1.853497e+03
1.450000e-06	7.387664e-06	2.827936e-08	5.317093e+01	1.857080e+03
1.460000e-06	7.441293e-06	2.833645e-08	5.355691e+01	1.860495e+03
1.470000e-06	7.491944e-06	2.838788e-08	5.392145e+01	1.863793e+03
1.480000e-06	7.539499e-06	2.843553e-08	5.426372e+01	1.866988e+03
1.490000e-06	7.584392e-06	2.847984e-08	5.458683e+01	1.870050e+03
1.500000e-06	7.626674e-06	2.851824e-08	5.489114e+01	1.872918e+03
1.510000e-06	7.666142e-06	2.855223e-08	5.517521e+01	1.875517e+03
1.520000e-06	7.702905e-06	2.858349e-08	5.543980e+01	1.877786e+03
1.530000e-06	7.736994e-06	2.861391e-08	5.568514e+01	1.879695e+03
1.540000e-06	7.768305e-06	2.864117e-08	5.591050e+01	1.881256e+03
1.550000e-06	7.796943e-06	2.866629e-08	5.611661e+01	1.882523e+03
1.560000e-06	7.822767e-06	2.868828e-08	5.630248e+01	1.883575e+03
1.570000e-06	7.845684e-06	2.870476e-08	5.646742e+01	1.884494e+03
1.580000e-06	7.865889e-06	2.871808e-08	5.661283e+01	1.885341e+03
1.590000e-06	7.883295e-06	2.872958e-08	5.673811e+01	1.886139e+03
1.600000e-06	7.897707e-06	2.873980e-08	5.684184e+01	1.886869e+03
1.610000e-06	7.909039e-06	2.874644e-08	5.692340e+01	1.887481e+03
1.620000e-06	7.917319e-06	2.874970e-08	5.698299e+01	1.887906e+03
1.630000e-06	7.922778e-06	2.875211e-08	5.702228e+01	1.888085e+03
1.640000e-06	7.925449e-06	2.875372e-08	5.704150e+01	1.887985e+03
1.650000e-06	7.925235e-06	2.875393e-08	5.703996e+01	1.887609e+03
1.660000e-06	7.922367e-06	2.874739e-08	5.701932e+01	1.887000e+03
1.670000e-06	7.916886e-06	2.873889e-08	5.697987e+01	1.886220e+03
1.680000e-06	7.908692e-06	2.872892e-08	5.692090e+01	1.885334e+03
1.690000e-06	7.897880e-06	2.871483e-08	5.684308e+01	1.884387e+03
1.700000e-06	7.884318e-06	2.869838e-08	5.674547e+01	1.883392e+03
1.710000e-06	7.868103e-06	2.868282e-08	5.662877e+01	1.882323e+03
1.720000e-06	7.849545e-06	2.866866e-08	5.649520e+01	1.881124e+03
1.730000e-06	7.828617e-06	2.863934e-08	5.634458e+01	1.879734e+03
1.740000e-06	7.804839e-06	2.856021e-08	5.617344e+01	1.878099e+03
1.750000e-06	7.777566e-06	2.853287e-08	5.597715e+01	1.876200e+03
1.760000e-06	7.746704e-06	2.853938e-08	5.575503e+01	1.874058e+03
1.770000e-06	7.712947e-06	2.851535e-08	5.551207e+01	1.871728e+03
1.780000e-06	7.676911e-06	2.848606e-08	5.525271e+01	1.869285e+03
1.790000e-06	7.638665e-06	2.850539e-08	5.497745e+01	1.866799e+03
1.800000e-06	7.598403e-06	2.845129e-08	5.468767e+01	1.864314e+03
1.810000e-06	7.555966e-06	2.833878e-08	5.438224e+01	1.861826e+03
1.820000e-06	7.510860e-06	2.838746e-08	5.405760e+01	1.859284e+03
1.830000e-06	7.463182e-06	2.830728e-08	5.371445e+01	1.856598e+03
1.840000e-06	7.412721e-06	2.826570e-08	5.335127e+01	1.853662e+03
1.850000e-06	7.359193e-06	2.825159e-08	5.296601e+01	1.850383e+03
1.860000e-06	7.302861e-06	2.816531e-08	5.256058e+01	1.846701e+03
1.870000e-06	7.243830e-06	2.818850e-08	5.213571e+01	1.842609e+03
1.880000e-06	7.182193e-06	2.806381e-08	5.169210e+01	1.838146e+03
1.890000e-06	7.117827e-06	2.797798e-08	5.122884e+01	1.833390e+03
1.900000e-06	7.050728e-06	2.791013e-08	5.074591e+01	1.828426e+03
1.910000e-06	6.980979e-06	2.780281e-08	5.024391e+01	1.823324e+03
1.920000e-06	6.908448e-06	2.775752e-08	4.972188e+01	1.818116e+03
1.930000e-06	6.833239e-06	2.766096e-08	4.918059e+01	1.812784e+03
1.940000e-06	6.755351e-06	2.762778e-08	4.862000e+01	1.807270e+03
1.950000e-06	6.674845e-06	2.750779e-08	4.804059e+01	1.801491e+03
1.960000e-06	6.591794e-06	2.736025e-08	4.744284e+01	1.795366e+03
1.970000e-06	6.506241e-06	2.728774e-08	4.682710e+01	1.788837e+03
1.980000e-06	6.418358e-06	2.719337e-08	4.619458e+01	1.781891e+03
1.990000e-06	6.328233e-06	2.710404e-08	4.554593e+01	1.774556e+03
2.000000e-06	6.235910e-06	2.696666e-08	4.488145e+01	1.766889e+03
2.010000e-06	6.141360e-06	2.686138e-08	4.420095e+01	1.758957e+03
2.020000e-06	6.044612e-06	2.673173e-08	4.350463e+01	1.750809e+03
2.030000e-06	5.945670e-06	2.658793e-08	4.279252e+01	1.742454e+03
2.040000e-06	5.844567e-06	2.647444e-08	4.206486e+01	1.733855e+03
2.050000e-06	5.741414e-06	2.635333e-08	4.132244e+01	1.724934e+03
2.060000e-06	5.636290e-06	2.619971e-08	4.056583e+01	1.715592e+03
2.070000e-06	5.529241e-06	2.602076e-08	3.979538e+01	1.705738e+03
2.080000e-06	5.420268e-06	2.587264e-08	3.901107e+01	1.695310e+03
2.090000e-06	5.309382e-06	2.571092e-08	3.821300e+01	1.684293e+03
2.100000e-06	5.196567e-06	2.553512e-08	3.740103e+01	1.672718e+03
2.110000e-06	5.081715e-06	2.535340e-08	3.657442e+01	1.660650e+03
2.120000e-06	4.964839e-06	2.517261e-08	3.573323e+01	1.648155e+03
2.130000e-06	4.846080e-06	2.496913e-08	3.487849e+01	1.635276e+03
2.140000e-06	4.725532e-06	2.475927e-08	3.401088e+01	1.622008e+03
2.150000e-06	4.603235e-06	2.456364e-08	3.313067e+01	1.608286e+03
2.160000e-06	4.479193e-06	2.435071e-08	3.223791e+01	1.594001e+03
2.170000e-06	4.353503e-06	2.411263e-08	3.133328e+01	1.579016e+03
2.180000e-06	4.226265e-06	2.386441e-08	3.041752e+01	1.563208e+03
2.190000e-06	4.097477e-06	2.361679e-08	2.949060e+01	1.546489e+03
2.200000e-06	3.967166e-06	2.335320e-08	2.855272e+01	1.528832e+03
2.210000e-06	3.835343e-06	2.307550e-08	2.760395e+01	1.510264e+03
2.220000e-06	3.702055e-06	2.278824e-08	2.664465e+01	1.490847e+03
2.230000e-06	3.567448e-06	2.248755e-08	2.567584e+01	1.470643e+03
2.240000e-06	3.431583e-06	2.216581e-08	2.469799e+01	1.449674e+03
2.250000e-06	3.294386e-06	2.183077e-08	2.371055e+01	1.427891e+03
2.260000e-06	3.155866e-06	2.148406e-08	2.271359e+01	1.405160e+03
2.270000e-06	3.016083e-06	2.111766e-08	2.170753e+01	1.381277e+03
2.280000e-06	2.875079e-06	2.072645e-08	2.069269e+01	1.355998e+03
2.290000e-06	2.732993e-06	2.031095e-08	1.967005e+01	1.329083e+03
2.300000e-06	2.589966e-06	1.987757e-08	1.864065e+01	1.300336e+03
2.310000e-06	2.446106e-06	1.942068e-08	1.760525e+01	1.269631e+03
2.320000e-06	2.301409e-06	1.893196e-08	1.656384e+01	1.236904e+03
2.330000e-06	2.155874e-06	1.840658e-08	1.551638e+01	1.202124e+03
2.340000e-06	2.009575e-06	1.784541e-08	1.446343e+01	1.165234e+03
2.350000e-06	1.862608e-06	1.724695e-08	1.340567e+01	1.126095e+03
2.360000e-06	1.715011e-06	1.660482e-08	1.234338e+01	1.084437e+03
2.370000e-06	1.566832e-06	1.591686e-08	1.127690e+01	1.039852e+03
2.380000e-06	1.418154e-06	1.518000e-08	1.020682e+01	9.918259e+02
2.390000e-06	1.268988e-06	1.438495e-08	9.133232e+00	9.398135e+02
2.400000e-06	1.119330e-06	1.352175e-08	8.056110e+00	8.833457e+02
2.410000e-06	9.692931e-07	1.259371e-08	6.976253e+00	8.221412e+02
2.420000e-06	8.189835e-07	1.160311e-08	5.894436e+00	7.561946e+02
2.430000e-06	6.684282e-07	1.054658e-08	4.810850e+00	6.858145e+02
2.440000e-06	5.176977e-07	9.424371e-09	3.726004e+00	6.115970e+02
2.450000e-06	3.668022e-07	8.244150e-09	2.639970e+00	5.343323e+02
2.460000e-06	2.157703e-07	7.020767e-09	1.552954e+00	4.548636e+02
2.470000e-06	6.463627e-08	5.767999e-09	4.652039e-01	3.739270e+02
2.480000e-06	-8.654262e-08	4.500619e-09	-6.228696e-01	2.920122e+02
2.490000e-06	-2.376935e-07	3.228709e-09	-1.710741e+00	2.092788e+02
2.500000e-06	-3.887774e-07	1.950014e-09	-2.798132e+00	1.255531e+02
2.510000e-06	-5.397524e-07	6.568307e-10	-3.884737e+00	4.041267e+01
2.520000e-06	-6.906100e-07	-6.576223e-10	-4.970499e+00	-4.665830e+01
2.530000e-06	-8.412938e-07	-2.003888e-09	-6.055009e+00	-1.360725e+02
2.540000e-06	-9.917185e-07	-3.395993e-09	-7.137654e+00	-2.279484e+02
2.550000e-06	-1.141819e-06	-4.834144e-09	-8.217964e+00	-3.219680e+02
2.560000e-06	-1.291496e-06	-6.304523e-09	-9.295233e+00	-4.173187e+02
2.570000e-06	-1.440650e-06	-7.784300e-09	-1.036873e+01	-5.127360e+02
2.580000e-06	-1.589274e-06	-9.239909e-09	-1.143841e+01	-6.066417e+02
2.590000e-06	-1.737340e-06	-1.063523e-08	-1.250408e+01	-6.973494e+02
2.600000e-06	-1.884683e-06	-1.194571e-08	-1.356455e+01	-7.832962e+02
2.610000e-06	-2.031285e-06	-1.315897e-08	-1.461968e+01	-8.632531e+02
2.620000e-06	-2.177231e-06	-1.426779e-08	-1.567009e+01	-9.364723e+02
2.630000e-06	-2.322419e-06	-1.527385e-08	-1.671505e+01	-1.002745e+03
2.640000e-06	-2.466610e-06	-1.618554e-08	-1.775283e+01	-1.062362e+03
2.650000e-06	-2.609760e-06	-1.701509e-08	-1.878312e+01	-1.115999e+03
2.660000e-06	-2.751921e-06	-1.777181e-08	-1.980629e+01	-1.164543e+03
2.670000e-06	-2.893002e-06	-1.846548e-08	-2.082169e+01	-1.208919e+03
2.680000e-06	-3.032901e-06	-1.910461e-08	-2.182857e+01	-1.249939e+03
2.690000e-06	-3.171541e-06	-1.969588e-08	-2.282640e+01	-1.288203e+03
2.700000e-06	-3.308955e-06	-2.024231e-08	-2.381540e+01	-1.324076e+03
2.710000e-06	-3.445149e-06	-2.074627e-08	-2.479563e+01	-1.357720e+03
2.720000e-06	-3.580059e-06	-2.121556e-08	-2.576661e+01	-1.389169e+03
2.730000e-06	-3.713699e-06	-2.165418e-08	-2.672845e+01	-1.418422e+03
2.740000e-06	-3.845991e-06	-2.206402e-08	-2.768059e+01	-1.445519e+03
2.750000e-06	-3.976897e-06	-2.245057e-08	-2.862276e+01	-1.470590e+03
2.760000e-06	-4.106482e-06	-2.281634e-08	-2.955541e+01	-1.493859e+03
2.770000e-06	-4.234653e-06	-2.315882e-08	-3.047789e+01	-1.515615e+03
2.780000e-06	-4.361384e-06	-2.347982e-08	-3.139000e+01	-1.536156e+03
2.790000e-06	-4.486622e-06	-2.378364e-08	-3.229137e+01	-1.555733e+03
2.800000e-06	-4.610193e-06	-2.407043e-08	-3.318075e+01	-1.574508e+03
2.810000e-06	-4.732125e-06	-2.434117e-08	-3.405833e+01	-1.592536e+03
2.820000e-06	-4.852444e-06	-2.459729e-08	-3.492429e+01	-1.609785e+03
2.830000e-06	-4.970923e-06	-2.484066e-08	-3.577702e+01	-1.626170e+03
2.840000e-06	-5.087366e-06	-2.507363e-08	-3.661509e+01	-1.641606e+03
2.850000e-06	-5.201735e-06	-2.529704e-08	-3.743823e+01	-1.656051e+03
2.860000e-06	-5.313992e-06	-2.550966e-08	-3.824617e+01	-1.669531e+03
2.870000e-06	-5.424145e-06	-2.571040e-08	-3.903897e+01	-1.682149e+03
2.880000e-06	-5.532432e-06	-2.589942e-08	-3.981834e+01	-1.694057e+03
2.890000e-06	-5.638940e-06	-2.607753e-08	-4.058491e+01	-1.705420e+03
2.900000e-06	-5.743418e-06	-2.624545e-08	-4.133686e+01	-1.716378e+03
2.910000e-06	-5.845687e-06	-2.640417e-08	-4.207292e+01	-1.727012e+03
2.920000e-06	-5.945776e-06	-2.655619e-08	-4.279329e+01	-1.737328e+03
2.930000e-06	-6.043774e-06	-2.670281e-08	-4.349860e+01	-1.747271e+03
2.940000e-06	-6.139635e-06	-2.684183e-08	-4.418854e+01	-1.756748e+03
