# Temperatura_=_77.34
# Concentracion g/m^3_=_28200.0
# C_Vs_to_Am_M_A/Vsm_=_65563218390.804596
# pendiente_HvsI_1/m_=_3716.3
# ordenada_HvsI_A/m_=_1297.0
# frecuencia_Hz_=_302510.02068995335

Tiempo_(s)	Campo_(V.s)	Magnetizacion_(V.s)	Campo_(kA/m)	Magnetizacion_(A/m)
0.000000e+00	-7.889637e-06	-2.843839e-08	-5.684024e+01	-1.862796e+03
1.000000e-08	-7.885481e-06	-2.843055e-08	-5.681030e+01	-1.862054e+03
2.000000e-08	-7.878760e-06	-2.841776e-08	-5.676188e+01	-1.861158e+03
3.000000e-08	-7.869376e-06	-2.840399e-08	-5.669427e+01	-1.860176e+03
4.000000e-08	-7.857200e-06	-2.838835e-08	-5.660655e+01	-1.859152e+03
5.000000e-08	-7.842126e-06	-2.836764e-08	-5.649795e+01	-1.858095e+03
6.000000e-08	-7.824370e-06	-2.834482e-08	-5.637003e+01	-1.856976e+03
7.000000e-08	-7.804381e-06	-2.831313e-08	-5.622602e+01	-1.855736e+03
8.000000e-08	-7.782032e-06	-2.830046e-08	-5.606501e+01	-1.854310e+03
9.000000e-08	-7.756773e-06	-2.832923e-08	-5.588303e+01	-1.852646e+03
1.000000e-07	-7.728331e-06	-2.829219e-08	-5.567813e+01	-1.850719e+03
1.100000e-07	-7.696981e-06	-2.822715e-08	-5.545227e+01	-1.848548e+03
1.200000e-07	-7.662863e-06	-2.818854e-08	-5.520646e+01	-1.846181e+03
1.300000e-07	-7.626112e-06	-2.815472e-08	-5.494169e+01	-1.843684e+03
1.400000e-07	-7.587041e-06	-2.808889e-08	-5.466021e+01	-1.841121e+03
1.500000e-07	-7.545703e-06	-2.801580e-08	-5.436239e+01	-1.838527e+03
1.600000e-07	-7.501984e-06	-2.805282e-08	-5.404742e+01	-1.835901e+03
1.700000e-07	-7.455737e-06	-2.796530e-08	-5.371424e+01	-1.833198e+03
1.800000e-07	-7.406724e-06	-2.787365e-08	-5.336113e+01	-1.830343e+03
1.900000e-07	-7.354726e-06	-2.788884e-08	-5.298652e+01	-1.827249e+03
2.000000e-07	-7.299933e-06	-2.780977e-08	-5.259177e+01	-1.823842e+03
2.100000e-07	-7.242456e-06	-2.775678e-08	-5.217768e+01	-1.820078e+03
2.200000e-07	-7.182264e-06	-2.767391e-08	-5.174403e+01	-1.815954e+03
2.300000e-07	-7.119522e-06	-2.760223e-08	-5.129201e+01	-1.811506e+03
2.400000e-07	-7.054129e-06	-2.757322e-08	-5.082089e+01	-1.806793e+03
2.500000e-07	-6.986028e-06	-2.748988e-08	-5.033027e+01	-1.801880e+03
2.600000e-07	-6.915262e-06	-2.739687e-08	-4.982043e+01	-1.796811e+03
2.700000e-07	-6.841686e-06	-2.729359e-08	-4.929036e+01	-1.791600e+03
2.800000e-07	-6.765390e-06	-2.722848e-08	-4.874069e+01	-1.786220e+03
2.900000e-07	-6.686394e-06	-2.713516e-08	-4.817157e+01	-1.780618e+03
3.000000e-07	-6.604712e-06	-2.702381e-08	-4.758310e+01	-1.774727e+03
3.100000e-07	-6.520733e-06	-2.696746e-08	-4.697808e+01	-1.768490e+03
3.200000e-07	-6.434614e-06	-2.688519e-08	-4.635765e+01	-1.761874e+03
3.300000e-07	-6.346181e-06	-2.676079e-08	-4.572054e+01	-1.754879e+03
3.400000e-07	-6.255355e-06	-2.660682e-08	-4.506619e+01	-1.747539e+03
3.500000e-07	-6.162309e-06	-2.651496e-08	-4.439584e+01	-1.739900e+03
3.600000e-07	-6.067098e-06	-2.641900e-08	-4.370991e+01	-1.732006e+03
3.700000e-07	-5.969596e-06	-2.627423e-08	-4.300746e+01	-1.723878e+03
3.800000e-07	-5.869923e-06	-2.614389e-08	-4.228938e+01	-1.715499e+03
3.900000e-07	-5.768237e-06	-2.601687e-08	-4.155679e+01	-1.706818e+03
4.000000e-07	-5.664495e-06	-2.586901e-08	-4.080939e+01	-1.697758e+03
4.100000e-07	-5.558693e-06	-2.570366e-08	-4.004715e+01	-1.688238e+03
4.200000e-07	-5.450938e-06	-2.557119e-08	-3.927083e+01	-1.678198e+03
4.300000e-07	-5.341309e-06	-2.541598e-08	-3.848102e+01	-1.667609e+03
4.400000e-07	-5.229762e-06	-2.523635e-08	-3.767739e+01	-1.656486e+03
4.500000e-07	-5.116196e-06	-2.505881e-08	-3.685921e+01	-1.644877e+03
4.600000e-07	-5.000617e-06	-2.488640e-08	-3.602653e+01	-1.632838e+03
4.700000e-07	-4.883180e-06	-2.469656e-08	-3.518047e+01	-1.620415e+03
4.800000e-07	-4.763972e-06	-2.449630e-08	-3.432164e+01	-1.607613e+03
4.900000e-07	-4.643001e-06	-2.430284e-08	-3.345012e+01	-1.594386e+03
5.000000e-07	-4.520271e-06	-2.408800e-08	-3.256592e+01	-1.580639e+03
5.100000e-07	-4.395866e-06	-2.385358e-08	-3.166966e+01	-1.566245e+03
5.200000e-07	-4.269922e-06	-2.361353e-08	-3.076230e+01	-1.551075e+03
5.300000e-07	-4.142464e-06	-2.337532e-08	-2.984404e+01	-1.535029e+03
5.400000e-07	-4.013481e-06	-2.311001e-08	-2.891479e+01	-1.518056e+03
5.500000e-07	-3.882907e-06	-2.282996e-08	-2.797408e+01	-1.500165e+03
5.600000e-07	-3.750787e-06	-2.254802e-08	-2.702223e+01	-1.481409e+03
5.700000e-07	-3.617290e-06	-2.225742e-08	-2.606047e+01	-1.461858e+03
5.800000e-07	-3.482466e-06	-2.195042e-08	-2.508914e+01	-1.441557e+03
5.900000e-07	-3.346361e-06	-2.162636e-08	-2.410858e+01	-1.420492e+03
6.000000e-07	-3.208968e-06	-2.129131e-08	-2.311874e+01	-1.398571e+03
6.100000e-07	-3.070245e-06	-2.093371e-08	-2.211933e+01	-1.375620e+03
6.200000e-07	-2.930204e-06	-2.055632e-08	-2.111041e+01	-1.351409e+03
6.300000e-07	-2.788902e-06	-2.015658e-08	-2.009241e+01	-1.325691e+03
6.400000e-07	-2.646456e-06	-1.973599e-08	-1.906617e+01	-1.298247e+03
6.500000e-07	-2.502939e-06	-1.929017e-08	-1.803221e+01	-1.268916e+03
6.600000e-07	-2.358524e-06	-1.881475e-08	-1.699179e+01	-1.237608e+03
6.700000e-07	-2.213309e-06	-1.831020e-08	-1.594560e+01	-1.204283e+03
6.800000e-07	-2.067308e-06	-1.777668e-08	-1.489375e+01	-1.168910e+03
6.900000e-07	-1.920607e-06	-1.721379e-08	-1.383685e+01	-1.131402e+03
7.000000e-07	-1.773307e-06	-1.660573e-08	-1.277564e+01	-1.091565e+03
7.100000e-07	-1.625532e-06	-1.594953e-08	-1.171101e+01	-1.049066e+03
7.200000e-07	-1.477284e-06	-1.524208e-08	-1.064297e+01	-1.003444e+03
7.300000e-07	-1.328593e-06	-1.447886e-08	-9.571739e+00	-9.541597e+02
7.400000e-07	-1.179494e-06	-1.365423e-08	-8.497565e+00	-9.006911e+02
7.500000e-07	-1.030001e-06	-1.276878e-08	-7.420554e+00	-8.426435e+02
7.600000e-07	-8.802289e-07	-1.182215e-08	-6.341537e+00	-7.798537e+02
7.700000e-07	-7.301643e-07	-1.080693e-08	-5.260409e+00	-7.124579e+02
7.800000e-07	-5.798054e-07	-9.725147e-09	-4.177160e+00	-6.409010e+02
7.900000e-07	-4.292309e-07	-8.584733e-09	-3.092358e+00	-5.658793e+02
8.000000e-07	-2.784602e-07	-7.396291e-09	-2.006144e+00	-4.882237e+02
8.100000e-07	-1.275276e-07	-6.171114e-09	-9.187621e-01	-4.087458e+02
8.200000e-07	2.345721e-08	-4.928362e-09	1.689955e-01	-3.280841e+02
8.300000e-07	1.744373e-07	-3.678853e-09	1.256719e+00	-2.465854e+02
8.400000e-07	3.253830e-07	-2.423012e-09	2.344195e+00	-1.642558e+02
8.500000e-07	4.762713e-07	-1.155830e-09	3.431258e+00	-8.079576e+01
8.600000e-07	6.269898e-07	1.281657e-10	4.517096e+00	4.281017e+00
8.700000e-07	7.774731e-07	1.439745e-09	5.601241e+00	9.147052e+01
8.800000e-07	9.277679e-07	2.793766e-09	6.684027e+00	1.810797e+02
8.900000e-07	1.077785e-06	4.191707e-09	7.764815e+00	2.730522e+02
9.000000e-07	1.227422e-06	5.626015e-09	8.842858e+00	3.668601e+02
9.100000e-07	1.376638e-06	7.079702e-09	9.917877e+00	4.614890e+02
9.200000e-07	1.525395e-06	8.528977e-09	1.098958e+01	5.555238e+02
9.300000e-07	1.673604e-06	9.938558e-09	1.205734e+01	6.473195e+02
9.400000e-07	1.821183e-06	1.127576e-08	1.312057e+01	7.352235e+02
9.500000e-07	1.968123e-06	1.252064e-08	1.417918e+01	8.178026e+02
9.600000e-07	2.114445e-06	1.365894e-08	1.523334e+01	8.940302e+02
9.700000e-07	2.260012e-06	1.469011e-08	1.628207e+01	9.633967e+02
9.800000e-07	2.404683e-06	1.562297e-08	1.732434e+01	1.025925e+03
9.900000e-07	2.548425e-06	1.647483e-08	1.835992e+01	1.082097e+03
1.000000e-06	2.691206e-06	1.725368e-08	1.938857e+01	1.132705e+03
1.010000e-06	2.832905e-06	1.796518e-08	2.040943e+01	1.178680e+03
1.020000e-06	2.973395e-06	1.861756e-08	2.142158e+01	1.220915e+03
1.030000e-06	3.112693e-06	1.921755e-08	2.242514e+01	1.260141e+03
1.040000e-06	3.250752e-06	1.977342e-08	2.341977e+01	1.296855e+03
1.050000e-06	3.387440e-06	2.029005e-08	2.440453e+01	1.331322e+03
1.060000e-06	3.522816e-06	2.077251e-08	2.537983e+01	1.363634e+03
1.070000e-06	3.656985e-06	2.122142e-08	2.634645e+01	1.393787e+03
1.080000e-06	3.789943e-06	2.164010e-08	2.730433e+01	1.421782e+03
1.090000e-06	3.921526e-06	2.203065e-08	2.825231e+01	1.447685e+03
1.100000e-06	4.051659e-06	2.239821e-08	2.918984e+01	1.471662e+03
1.110000e-06	4.180296e-06	2.274575e-08	3.011660e+01	1.493966e+03
1.120000e-06	4.307432e-06	2.307486e-08	3.103254e+01	1.514895e+03
1.130000e-06	4.433177e-06	2.338455e-08	3.193846e+01	1.534736e+03
1.140000e-06	4.557442e-06	2.367504e-08	3.283371e+01	1.553708e+03
1.150000e-06	4.680137e-06	2.394902e-08	3.371766e+01	1.571931e+03
1.160000e-06	4.801148e-06	2.420650e-08	3.458947e+01	1.589421e+03
1.170000e-06	4.920406e-06	2.445066e-08	3.544866e+01	1.606118e+03
1.180000e-06	5.037915e-06	2.468358e-08	3.629524e+01	1.621929e+03
1.190000e-06	5.153554e-06	2.490586e-08	3.712836e+01	1.636777e+03
1.200000e-06	5.267163e-06	2.511871e-08	3.794684e+01	1.650644e+03
1.210000e-06	5.378685e-06	2.532042e-08	3.875029e+01	1.663585e+03
1.220000e-06	5.488301e-06	2.551036e-08	3.954001e+01	1.675725e+03
1.230000e-06	5.596075e-06	2.568983e-08	4.031646e+01	1.687225e+03
1.240000e-06	5.701811e-06	2.585914e-08	4.107823e+01	1.698247e+03
1.250000e-06	5.805360e-06	2.602142e-08	4.182424e+01	1.708909e+03
1.260000e-06	5.906820e-06	2.617662e-08	4.255520e+01	1.719265e+03
1.270000e-06	6.006183e-06	2.632638e-08	4.327105e+01	1.729295e+03
1.280000e-06	6.103218e-06	2.646978e-08	4.397013e+01	1.738922e+03
1.290000e-06	6.197939e-06	2.660664e-08	4.465254e+01	1.748048e+03
1.300000e-06	6.290460e-06	2.673716e-08	4.531910e+01	1.756587e+03
1.310000e-06	6.380765e-06	2.685896e-08	4.596969e+01	1.764496e+03
1.320000e-06	6.468764e-06	2.697266e-08	4.660368e+01	1.771796e+03
1.330000e-06	6.554466e-06	2.708040e-08	4.722111e+01	1.778562e+03
1.340000e-06	6.637878e-06	2.718444e-08	4.782205e+01	1.784911e+03
1.350000e-06	6.718909e-06	2.728249e-08	4.840583e+01	1.790963e+03
1.360000e-06	6.797495e-06	2.737169e-08	4.897199e+01	1.796815e+03
1.370000e-06	6.873575e-06	2.745565e-08	4.952010e+01	1.802519e+03
1.380000e-06	6.947041e-06	2.753563e-08	5.004938e+01	1.808071e+03
1.390000e-06	7.017911e-06	2.761252e-08	5.055996e+01	1.813422e+03
1.400000e-06	7.086298e-06	2.768664e-08	5.105265e+01	1.818503e+03
1.410000e-06	7.152150e-06	2.775913e-08	5.152707e+01	1.823247e+03
1.420000e-06	7.215433e-06	2.782786e-08	5.198299e+01	1.827621e+03
1.430000e-06	7.276319e-06	2.789084e-08	5.242164e+01	1.831631e+03
1.440000e-06	7.334721e-06	2.795049e-08	5.284239e+01	1.835327e+03
1.450000e-06	7.390485e-06	2.800781e-08	5.324414e+01	1.838782e+03
1.460000e-06	7.443505e-06	2.806142e-08	5.362612e+01	1.842072e+03
1.470000e-06	7.493481e-06	2.810909e-08	5.398617e+01	1.845253e+03
1.480000e-06	7.540474e-06	2.815466e-08	5.432472e+01	1.848339e+03
1.490000e-06	7.584813e-06	2.819839e-08	5.464416e+01	1.851303e+03
1.500000e-06	7.626494e-06	2.823856e-08	5.494445e+01	1.854082e+03
1.510000e-06	7.665379e-06	2.827308e-08	5.522459e+01	1.856601e+03
1.520000e-06	7.701582e-06	2.830317e-08	5.548541e+01	1.858798e+03
1.530000e-06	7.735082e-06	2.833064e-08	5.572676e+01	1.860640e+03
1.540000e-06	7.765837e-06	2.835607e-08	5.594833e+01	1.862141e+03
1.550000e-06	7.793925e-06	2.838127e-08	5.615069e+01	1.863351e+03
1.560000e-06	7.819184e-06	2.840246e-08	5.633267e+01	1.864351e+03
1.570000e-06	7.841546e-06	2.841770e-08	5.649377e+01	1.865220e+03
1.580000e-06	7.861248e-06	2.842954e-08	5.663571e+01	1.866020e+03
1.590000e-06	7.878169e-06	2.844123e-08	5.675762e+01	1.866773e+03
1.600000e-06	7.892063e-06	2.845183e-08	5.685772e+01	1.867460e+03
1.610000e-06	7.902822e-06	2.845844e-08	5.693523e+01	1.868028e+03
1.620000e-06	7.910505e-06	2.846143e-08	5.699058e+01	1.868406e+03
1.630000e-06	7.915428e-06	2.846266e-08	5.702605e+01	1.868532e+03
1.640000e-06	7.917573e-06	2.846171e-08	5.704150e+01	1.868370e+03
1.650000e-06	7.916860e-06	2.845750e-08	5.703636e+01	1.867925e+03
1.660000e-06	7.913520e-06	2.844778e-08	5.701230e+01	1.867239e+03
1.670000e-06	7.907509e-06	2.844152e-08	5.696899e+01	1.866378e+03
1.680000e-06	7.898790e-06	2.843288e-08	5.690618e+01	1.865413e+03
1.690000e-06	7.887457e-06	2.841939e-08	5.682453e+01	1.864397e+03
1.700000e-06	7.873351e-06	2.840466e-08	5.672291e+01	1.863349e+03
1.710000e-06	7.856615e-06	2.839175e-08	5.660233e+01	1.862251e+03
1.720000e-06	7.837650e-06	2.838333e-08	5.646570e+01	1.861051e+03
1.730000e-06	7.816318e-06	2.831491e-08	5.631202e+01	1.859683e+03
1.740000e-06	7.791931e-06	2.824301e-08	5.613632e+01	1.858089e+03
1.750000e-06	7.763879e-06	2.824850e-08	5.593423e+01	1.856236e+03
1.760000e-06	7.732305e-06	2.824037e-08	5.570675e+01	1.854130e+03
1.770000e-06	7.698066e-06	2.820488e-08	5.546008e+01	1.851811e+03
1.780000e-06	7.661615e-06	2.820562e-08	5.519747e+01	1.849342e+03
1.790000e-06	7.622954e-06	2.822280e-08	5.491894e+01	1.846791e+03
1.800000e-06	7.582357e-06	2.807632e-08	5.462646e+01	1.844203e+03
1.810000e-06	7.539546e-06	2.805699e-08	5.431804e+01	1.841587e+03
1.820000e-06	7.494054e-06	2.806166e-08	5.399030e+01	1.838911e+03
1.830000e-06	7.445997e-06	2.796862e-08	5.364407e+01	1.836107e+03
1.840000e-06	7.395017e-06	2.800098e-08	5.327679e+01	1.833089e+03
1.850000e-06	7.340942e-06	2.787439e-08	5.288721e+01	1.829776e+03
1.860000e-06	7.284125e-06	2.786868e-08	5.247788e+01	1.826115e+03
1.870000e-06	7.224787e-06	2.784451e-08	5.205038e+01	1.822090e+03
1.880000e-06	7.162846e-06	2.770001e-08	5.160413e+01	1.817727e+03
1.890000e-06	7.098025e-06	2.768379e-08	5.113713e+01	1.813082e+03
1.900000e-06	7.030451e-06	2.756474e-08	5.065031e+01	1.808219e+03
1.910000e-06	6.960174e-06	2.752191e-08	5.014400e+01	1.803190e+03
1.920000e-06	6.887158e-06	2.744488e-08	4.961796e+01	1.798019e+03
1.930000e-06	6.811538e-06	2.736356e-08	4.907317e+01	1.792690e+03
1.940000e-06	6.733222e-06	2.733029e-08	4.850894e+01	1.787157e+03
1.950000e-06	6.652314e-06	2.717043e-08	4.792605e+01	1.781354e+03
1.960000e-06	6.568942e-06	2.706403e-08	4.732540e+01	1.775219e+03
1.970000e-06	6.483096e-06	2.695895e-08	4.670693e+01	1.768711e+03
1.980000e-06	6.394832e-06	2.690946e-08	4.607104e+01	1.761821e+03
1.990000e-06	6.304296e-06	2.679707e-08	4.541878e+01	1.754573e+03
2.000000e-06	6.211618e-06	2.666320e-08	4.475109e+01	1.747013e+03
2.010000e-06	6.116722e-06	2.656466e-08	4.406742e+01	1.739187e+03
2.020000e-06	6.019622e-06	2.641583e-08	4.336787e+01	1.731124e+03
2.030000e-06	5.920402e-06	2.628659e-08	4.265305e+01	1.722819e+03
2.040000e-06	5.819080e-06	2.616658e-08	4.192308e+01	1.714230e+03
2.050000e-06	5.715619e-06	2.606272e-08	4.117771e+01	1.705285e+03
2.060000e-06	5.610154e-06	2.588912e-08	4.041789e+01	1.695903e+03
2.070000e-06	5.502785e-06	2.572240e-08	3.964436e+01	1.686014e+03
2.080000e-06	5.393532e-06	2.557095e-08	3.885725e+01	1.675581e+03
2.090000e-06	5.282374e-06	2.541344e-08	3.805642e+01	1.664606e+03
2.100000e-06	5.169242e-06	2.524133e-08	3.724138e+01	1.653128e+03
2.110000e-06	5.054169e-06	2.506615e-08	3.641234e+01	1.641204e+03
2.120000e-06	4.937114e-06	2.488980e-08	3.556903e+01	1.628887e+03
2.130000e-06	4.818123e-06	2.467511e-08	3.471177e+01	1.616194e+03
2.140000e-06	4.697306e-06	2.446724e-08	3.384136e+01	1.603095e+03
2.150000e-06	4.574800e-06	2.426900e-08	3.295877e+01	1.589507e+03
2.160000e-06	4.450655e-06	2.406136e-08	3.206437e+01	1.575310e+03
2.170000e-06	4.324863e-06	2.382190e-08	3.115812e+01	1.560373e+03
2.180000e-06	4.197460e-06	2.358336e-08	3.024025e+01	1.544583e+03
2.190000e-06	4.068509e-06	2.333534e-08	2.931124e+01	1.527874e+03
2.200000e-06	3.938100e-06	2.307287e-08	2.837171e+01	1.510240e+03
2.210000e-06	3.806197e-06	2.279541e-08	2.742143e+01	1.491723e+03
2.220000e-06	3.672877e-06	2.251164e-08	2.646094e+01	1.472392e+03
2.230000e-06	3.538189e-06	2.221120e-08	2.549059e+01	1.452301e+03
2.240000e-06	3.402134e-06	2.188655e-08	2.451039e+01	1.431459e+03
2.250000e-06	3.264834e-06	2.155144e-08	2.352123e+01	1.409795e+03
2.260000e-06	3.126291e-06	2.120367e-08	2.252311e+01	1.387158e+03
2.270000e-06	2.986537e-06	2.084020e-08	2.151626e+01	1.363331e+03
2.280000e-06	2.845606e-06	2.044937e-08	2.050093e+01	1.338067e+03
2.290000e-06	2.703547e-06	2.003808e-08	1.947748e+01	1.311134e+03
2.300000e-06	2.560466e-06	1.960714e-08	1.844667e+01	1.282353e+03
2.310000e-06	2.416477e-06	1.915233e-08	1.740931e+01	1.251613e+03
2.320000e-06	2.271722e-06	1.866191e-08	1.636644e+01	1.218866e+03
2.330000e-06	2.126271e-06	1.813350e-08	1.531854e+01	1.184082e+03
2.340000e-06	1.980110e-06	1.756924e-08	1.426554e+01	1.147196e+03
2.350000e-06	1.833214e-06	1.696806e-08	1.320724e+01	1.108051e+03
2.360000e-06	1.685688e-06	1.632597e-08	1.214440e+01	1.066353e+03
2.370000e-06	1.537653e-06	1.563963e-08	1.107790e+01	1.021675e+03
2.380000e-06	1.389106e-06	1.490356e-08	1.000770e+01	9.734919e+02
2.390000e-06	1.240052e-06	1.410407e-08	8.933853e+00	9.212652e+02
2.400000e-06	1.090550e-06	1.323464e-08	7.856776e+00	8.645529e+02
2.410000e-06	9.406532e-07	1.230338e-08	6.776858e+00	8.031165e+02
2.420000e-06	7.904462e-07	1.131214e-08	5.694705e+00	7.370028e+02
2.430000e-06	6.399705e-07	1.025554e-08	4.610614e+00	6.665714e+02
2.440000e-06	4.892413e-07	9.132300e-09	3.524699e+00	5.924566e+02
2.450000e-06	3.383585e-07	7.953242e-09	2.437676e+00	5.154653e+02
2.460000e-06	1.873870e-07	6.734215e-09	1.350014e+00	4.364312e+02
2.470000e-06	3.638433e-08	5.489772e-09	2.621279e-01	3.560564e+02
2.480000e-06	-1.146378e-07	4.235644e-09	-8.258985e-01	2.747798e+02
2.490000e-06	-2.656517e-07	2.978794e-09	-1.913866e+00	1.927048e+02
2.500000e-06	-4.165881e-07	1.713953e-09	-3.001275e+00	1.096106e+02
2.510000e-06	-5.674508e-07	4.304719e-10	-4.088152e+00	2.504819e+01
2.520000e-06	-7.181839e-07	-8.788512e-10	-5.174097e+00	-6.149595e+01
2.530000e-06	-8.686994e-07	-2.220906e-09	-6.258473e+00	-1.504024e+02
2.540000e-06	-1.019009e-06	-3.606149e-09	-7.341363e+00	-2.417333e+02
2.550000e-06	-1.168978e-06	-5.033472e-09	-8.421805e+00	-3.351013e+02
2.560000e-06	-1.318449e-06	-6.488690e-09	-9.498659e+00	-4.296266e+02
2.570000e-06	-1.467362e-06	-7.950594e-09	-1.057149e+01	-5.239943e+02
2.580000e-06	-1.615664e-06	-9.385403e-09	-1.163992e+01	-6.166040e+02
2.590000e-06	-1.763378e-06	-1.075761e-08	-1.270411e+01	-7.057812e+02
2.600000e-06	-1.910476e-06	-1.204177e-08	-1.376387e+01	-7.900086e+02
2.610000e-06	-2.056838e-06	-1.322600e-08	-1.481832e+01	-8.681282e+02
2.620000e-06	-2.202440e-06	-1.430560e-08	-1.586730e+01	-9.394768e+02
2.630000e-06	-2.347276e-06	-1.528359e-08	-1.691076e+01	-1.003929e+03
2.640000e-06	-2.491151e-06	-1.617095e-08	-1.794729e+01	-1.061848e+03
2.650000e-06	-2.634024e-06	-1.697974e-08	-1.897661e+01	-1.113955e+03
2.660000e-06	-2.775899e-06	-1.771835e-08	-1.999874e+01	-1.161160e+03
2.670000e-06	-2.916650e-06	-1.839362e-08	-2.101277e+01	-1.204382e+03
2.680000e-06	-3.056164e-06	-1.901490e-08	-2.201788e+01	-1.244407e+03
2.690000e-06	-3.194420e-06	-1.959042e-08	-2.301394e+01	-1.281803e+03
2.700000e-06	-3.331440e-06	-2.012474e-08	-2.400109e+01	-1.316899e+03
2.710000e-06	-3.467223e-06	-2.061986e-08	-2.497932e+01	-1.349826e+03
2.720000e-06	-3.601790e-06	-2.108107e-08	-2.594880e+01	-1.380599e+03
2.730000e-06	-3.735081e-06	-2.151162e-08	-2.690908e+01	-1.409209e+03
2.740000e-06	-3.867003e-06	-2.191369e-08	-2.785951e+01	-1.435699e+03
2.750000e-06	-3.997523e-06	-2.229319e-08	-2.879983e+01	-1.460205e+03
2.760000e-06	-4.126715e-06	-2.264920e-08	-2.973058e+01	-1.482959e+03
2.770000e-06	-4.254511e-06	-2.298278e-08	-3.065127e+01	-1.504251e+03
2.780000e-06	-4.380831e-06	-2.329772e-08	-3.156133e+01	-1.524378e+03
2.790000e-06	-4.505607e-06	-2.359459e-08	-3.246027e+01	-1.543583e+03
2.800000e-06	-4.628735e-06	-2.387475e-08	-3.334734e+01	-1.562016e+03
2.810000e-06	-4.750301e-06	-2.414048e-08	-3.422316e+01	-1.579720e+03
2.820000e-06	-4.870140e-06	-2.439235e-08	-3.508652e+01	-1.596655e+03
2.830000e-06	-4.987999e-06	-2.463243e-08	-3.593562e+01	-1.612730e+03
2.840000e-06	-5.103891e-06	-2.486301e-08	-3.677056e+01	-1.627859e+03
2.850000e-06	-5.217773e-06	-2.508216e-08	-3.759101e+01	-1.642006e+03
2.860000e-06	-5.329536e-06	-2.528933e-08	-3.839621e+01	-1.655203e+03
2.870000e-06	-5.439264e-06	-2.548409e-08	-3.918673e+01	-1.667557e+03
2.880000e-06	-5.547096e-06	-2.566824e-08	-3.996360e+01	-1.679225e+03
2.890000e-06	-5.653076e-06	-2.584346e-08	-4.072712e+01	-1.690370e+03
2.900000e-06	-5.757031e-06	-2.600896e-08	-4.147605e+01	-1.701128e+03
2.910000e-06	-5.858808e-06	-2.616483e-08	-4.220930e+01	-1.711572e+03
2.920000e-06	-5.958409e-06	-2.631475e-08	-4.292687e+01	-1.721702e+03
2.930000e-06	-6.055921e-06	-2.645990e-08	-4.362939e+01	-1.731456e+03
2.940000e-06	-6.151284e-06	-2.659691e-08	-4.431642e+01	-1.740737e+03
