# Temperatura_=_35.18
# Concentracion g/m^3_=_28200.0
# C_Vs_to_Am_M_A/Vsm_=_65563218390.804596
# pendiente_HvsI_1/m_=_3716.3
# ordenada_HvsI_A/m_=_1297.0
# frecuencia_Hz_=_302514.13248584705

Tiempo_(s)	Campo_(V.s)	Magnetizacion_(V.s)	Campo_(kA/m)	Magnetizacion_(A/m)
0.000000e+00	-7.888817e-06	-2.510375e-08	-5.684380e+01	-1.643941e+03
1.000000e-08	-7.884917e-06	-2.510034e-08	-5.681569e+01	-1.643406e+03
2.000000e-08	-7.878490e-06	-2.509107e-08	-5.676938e+01	-1.642739e+03
3.000000e-08	-7.869437e-06	-2.507995e-08	-5.670415e+01	-1.641990e+03
4.000000e-08	-7.857557e-06	-2.506796e-08	-5.661855e+01	-1.641195e+03
5.000000e-08	-7.842758e-06	-2.505302e-08	-5.651191e+01	-1.640366e+03
6.000000e-08	-7.825242e-06	-2.503253e-08	-5.638569e+01	-1.639491e+03
7.000000e-08	-7.805494e-06	-2.500939e-08	-5.624340e+01	-1.638537e+03
8.000000e-08	-7.783385e-06	-2.498890e-08	-5.608409e+01	-1.637464e+03
9.000000e-08	-7.758360e-06	-2.502266e-08	-5.590377e+01	-1.636239e+03
1.000000e-07	-7.730221e-06	-2.501050e-08	-5.570101e+01	-1.634846e+03
1.100000e-07	-7.699152e-06	-2.494713e-08	-5.547714e+01	-1.633298e+03
1.200000e-07	-7.665251e-06	-2.491438e-08	-5.523286e+01	-1.631624e+03
1.300000e-07	-7.628699e-06	-2.487944e-08	-5.496948e+01	-1.629866e+03
1.400000e-07	-7.589815e-06	-2.480888e-08	-5.468930e+01	-1.628057e+03
1.500000e-07	-7.548680e-06	-2.473946e-08	-5.439290e+01	-1.626210e+03
1.600000e-07	-7.505210e-06	-2.479929e-08	-5.407967e+01	-1.624309e+03
1.700000e-07	-7.459196e-06	-2.478065e-08	-5.374811e+01	-1.622306e+03
1.800000e-07	-7.410448e-06	-2.467009e-08	-5.339685e+01	-1.620136e+03
1.900000e-07	-7.358794e-06	-2.470297e-08	-5.302465e+01	-1.617727e+03
2.000000e-07	-7.304257e-06	-2.463290e-08	-5.263168e+01	-1.615028e+03
2.100000e-07	-7.247068e-06	-2.454872e-08	-5.221960e+01	-1.612015e+03
2.200000e-07	-7.187231e-06	-2.452458e-08	-5.178844e+01	-1.608703e+03
2.300000e-07	-7.124766e-06	-2.445422e-08	-5.133834e+01	-1.605138e+03
2.400000e-07	-7.059616e-06	-2.442307e-08	-5.086889e+01	-1.601387e+03
2.500000e-07	-6.991755e-06	-2.434301e-08	-5.037991e+01	-1.597513e+03
2.600000e-07	-6.921268e-06	-2.430666e-08	-4.987201e+01	-1.593559e+03
2.700000e-07	-6.848072e-06	-2.424610e-08	-4.934459e+01	-1.589532e+03
2.800000e-07	-6.772162e-06	-2.416588e-08	-4.879761e+01	-1.585401e+03
2.900000e-07	-6.693498e-06	-2.409369e-08	-4.823078e+01	-1.581103e+03
3.000000e-07	-6.612117e-06	-2.401258e-08	-4.764439e+01	-1.576562e+03
3.100000e-07	-6.528366e-06	-2.395929e-08	-4.704091e+01	-1.571712e+03
3.200000e-07	-6.442455e-06	-2.386936e-08	-4.642187e+01	-1.566508e+03
3.300000e-07	-6.354295e-06	-2.379815e-08	-4.578662e+01	-1.560946e+03
3.400000e-07	-6.263769e-06	-2.370397e-08	-4.513432e+01	-1.555053e+03
3.500000e-07	-6.170986e-06	-2.359532e-08	-4.446576e+01	-1.548878e+03
3.600000e-07	-6.076002e-06	-2.350664e-08	-4.378134e+01	-1.542475e+03
3.700000e-07	-5.978761e-06	-2.341396e-08	-4.308066e+01	-1.535876e+03
3.800000e-07	-5.879320e-06	-2.331604e-08	-4.236413e+01	-1.529083e+03
3.900000e-07	-5.777804e-06	-2.320356e-08	-4.163264e+01	-1.522056e+03
4.000000e-07	-5.674252e-06	-2.309004e-08	-4.088648e+01	-1.514729e+03
4.100000e-07	-5.568716e-06	-2.295638e-08	-4.012603e+01	-1.507019e+03
4.200000e-07	-5.461211e-06	-2.282619e-08	-3.935140e+01	-1.498854e+03
4.300000e-07	-5.351764e-06	-2.269766e-08	-3.856276e+01	-1.490190e+03
4.400000e-07	-5.240347e-06	-2.256346e-08	-3.775993e+01	-1.481021e+03
4.500000e-07	-5.126908e-06	-2.241981e-08	-3.694254e+01	-1.471377e+03
4.600000e-07	-5.011531e-06	-2.226733e-08	-3.611117e+01	-1.461310e+03
4.700000e-07	-4.894265e-06	-2.210613e-08	-3.526620e+01	-1.450868e+03
4.800000e-07	-4.775190e-06	-2.193981e-08	-3.440819e+01	-1.440077e+03
4.900000e-07	-4.654395e-06	-2.177217e-08	-3.353778e+01	-1.428918e+03
5.000000e-07	-4.531920e-06	-2.159289e-08	-3.265528e+01	-1.417324e+03
5.100000e-07	-4.407755e-06	-2.140211e-08	-3.176060e+01	-1.405194e+03
5.200000e-07	-4.281971e-06	-2.119757e-08	-3.085424e+01	-1.392407e+03
5.300000e-07	-4.154638e-06	-2.098728e-08	-2.993673e+01	-1.378855e+03
5.400000e-07	-4.025776e-06	-2.076323e-08	-2.900820e+01	-1.364466e+03
5.500000e-07	-3.895423e-06	-2.053125e-08	-2.806893e+01	-1.349215e+03
5.600000e-07	-3.763541e-06	-2.029001e-08	-2.711864e+01	-1.333126e+03
5.700000e-07	-3.630212e-06	-2.003803e-08	-2.615792e+01	-1.316244e+03
5.800000e-07	-3.495525e-06	-1.976918e-08	-2.518741e+01	-1.298613e+03
5.900000e-07	-3.359460e-06	-1.948484e-08	-2.420698e+01	-1.280240e+03
6.000000e-07	-3.222108e-06	-1.918911e-08	-2.321728e+01	-1.261072e+03
6.100000e-07	-3.083536e-06	-1.887639e-08	-2.221878e+01	-1.240986e+03
6.200000e-07	-2.943616e-06	-1.854637e-08	-2.121057e+01	-1.219803e+03
6.300000e-07	-2.802307e-06	-1.819638e-08	-2.019235e+01	-1.197310e+03
6.400000e-07	-2.659895e-06	-1.782816e-08	-1.916619e+01	-1.173298e+03
6.500000e-07	-2.516541e-06	-1.743405e-08	-1.813323e+01	-1.147594e+03
6.600000e-07	-2.372338e-06	-1.701495e-08	-1.709416e+01	-1.120072e+03
6.700000e-07	-2.227319e-06	-1.657058e-08	-1.604921e+01	-1.090649e+03
6.800000e-07	-2.081451e-06	-1.609799e-08	-1.499814e+01	-1.059260e+03
6.900000e-07	-1.934911e-06	-1.559172e-08	-1.394223e+01	-1.025810e+03
7.000000e-07	-1.787757e-06	-1.504605e-08	-1.288189e+01	-9.901292e+02
7.100000e-07	-1.640036e-06	-1.445777e-08	-1.181747e+01	-9.519514e+02
7.200000e-07	-1.491830e-06	-1.382177e-08	-1.074956e+01	-9.109089e+02
7.300000e-07	-1.343186e-06	-1.313814e-08	-9.678487e+00	-8.665736e+02
7.400000e-07	-1.194185e-06	-1.240161e-08	-8.604842e+00	-8.185283e+02
7.500000e-07	-1.044755e-06	-1.160825e-08	-7.528105e+00	-7.664597e+02
7.600000e-07	-8.949221e-07	-1.075677e-08	-6.448466e+00	-7.102500e+02
7.700000e-07	-7.447396e-07	-9.850103e-09	-5.366309e+00	-6.500426e+02
7.800000e-07	-5.942710e-07	-8.886027e-09	-4.282089e+00	-5.862615e+02
7.900000e-07	-4.435953e-07	-7.872121e-09	-3.196378e+00	-5.195717e+02
8.000000e-07	-2.927018e-07	-6.820849e-09	-2.109097e+00	-4.507836e+02
8.100000e-07	-1.416630e-07	-5.744075e-09	-1.020769e+00	-3.807175e+02
8.200000e-07	9.485592e-09	-4.659486e-09	6.834954e-02	-3.100563e+02
8.300000e-07	1.606596e-07	-3.575669e-09	1.157652e+00	-2.392203e+02
8.400000e-07	3.117514e-07	-2.497111e-09	2.246361e+00	-1.682953e+02
8.500000e-07	4.627637e-07	-1.417509e-09	3.334498e+00	-9.703414e+01
8.600000e-07	6.135955e-07	-3.273361e-10	4.421334e+00	-2.493685e+01
8.700000e-07	7.642028e-07	7.851251e-10	5.506553e+00	4.860408e+01
8.800000e-07	9.146195e-07	1.929128e-09	6.590398e+00	1.241225e+02
8.900000e-07	1.064691e-06	3.108887e-09	7.671755e+00	2.019002e+02
9.000000e-07	1.214331e-06	4.325916e-09	8.750003e+00	2.818300e+02
9.100000e-07	1.363554e-06	5.572584e-09	9.825250e+00	3.633524e+02
9.200000e-07	1.512320e-06	6.833723e-09	1.089720e+01	4.454803e+02
9.300000e-07	1.660582e-06	8.083537e-09	1.196552e+01	5.269085e+02
9.400000e-07	1.808265e-06	9.294885e-09	1.302966e+01	6.061857e+02
9.500000e-07	1.955300e-06	1.044237e-08	1.408914e+01	6.819144e+02
9.600000e-07	2.101651e-06	1.151005e-08	1.514369e+01	7.529379e+02
9.700000e-07	2.247240e-06	1.249223e-08	1.619275e+01	8.184785e+02
9.800000e-07	2.392000e-06	1.338920e-08	1.723583e+01	8.782035e+02
9.900000e-07	2.535875e-06	1.420624e-08	1.827254e+01	9.322112e+02
1.000000e-06	2.678766e-06	1.494943e-08	1.930216e+01	9.809463e+02
1.010000e-06	2.820582e-06	1.562594e-08	2.032404e+01	1.025071e+03
1.020000e-06	2.961187e-06	1.624259e-08	2.133718e+01	1.065318e+03
1.030000e-06	3.100495e-06	1.681033e-08	2.234098e+01	1.102369e+03
1.040000e-06	3.238584e-06	1.733395e-08	2.333599e+01	1.136762e+03
1.050000e-06	3.375476e-06	1.781913e-08	2.432239e+01	1.168860e+03
1.060000e-06	3.511079e-06	1.827012e-08	2.529949e+01	1.198864e+03
1.070000e-06	3.645361e-06	1.868980e-08	2.626708e+01	1.226865e+03
1.080000e-06	3.778344e-06	1.908042e-08	2.722530e+01	1.252909e+03
1.090000e-06	3.909970e-06	1.944459e-08	2.817374e+01	1.277060e+03
1.100000e-06	4.040179e-06	1.978454e-08	2.911198e+01	1.299432e+03
1.110000e-06	4.168927e-06	2.010256e-08	3.003969e+01	1.320208e+03
1.120000e-06	4.296166e-06	2.040322e-08	3.095653e+01	1.339610e+03
1.130000e-06	4.421948e-06	2.068709e-08	3.186286e+01	1.357871e+03
1.140000e-06	4.546271e-06	2.095249e-08	3.275869e+01	1.375189e+03
1.150000e-06	4.668999e-06	2.120127e-08	3.364302e+01	1.391701e+03
1.160000e-06	4.790054e-06	2.143722e-08	3.451529e+01	1.407466e+03
1.170000e-06	4.909447e-06	2.166085e-08	3.537560e+01	1.422478e+03
1.180000e-06	5.027122e-06	2.187138e-08	3.622351e+01	1.436695e+03
1.190000e-06	5.142866e-06	2.206939e-08	3.705752e+01	1.450068e+03
1.200000e-06	5.256544e-06	2.225692e-08	3.787665e+01	1.462581e+03
1.210000e-06	5.368217e-06	2.243392e-08	3.868132e+01	1.474264e+03
1.220000e-06	5.477975e-06	2.260279e-08	3.947219e+01	1.485197e+03
1.230000e-06	5.585858e-06	2.276449e-08	4.024955e+01	1.495494e+03
1.240000e-06	5.691720e-06	2.291945e-08	4.101236e+01	1.505276e+03
1.250000e-06	5.795431e-06	2.306678e-08	4.175966e+01	1.514642e+03
1.260000e-06	5.897073e-06	2.320432e-08	4.249205e+01	1.523649e+03
1.270000e-06	5.996616e-06	2.333426e-08	4.320932e+01	1.532299e+03
1.280000e-06	6.093845e-06	2.345727e-08	4.390992e+01	1.540554e+03
1.290000e-06	6.188725e-06	2.357228e-08	4.459358e+01	1.548351e+03
1.300000e-06	6.281451e-06	2.367943e-08	4.526173e+01	1.555635e+03
1.310000e-06	6.371969e-06	2.378124e-08	4.591397e+01	1.562376e+03
1.320000e-06	6.460147e-06	2.387905e-08	4.654935e+01	1.568592e+03
1.330000e-06	6.546029e-06	2.397096e-08	4.716818e+01	1.574344e+03
1.340000e-06	6.629651e-06	2.405767e-08	4.777073e+01	1.579727e+03
1.350000e-06	6.710957e-06	2.413812e-08	4.835659e+01	1.584844e+03
1.360000e-06	6.789787e-06	2.421324e-08	4.892461e+01	1.589782e+03
1.370000e-06	6.866049e-06	2.428445e-08	4.947412e+01	1.594594e+03
1.380000e-06	6.939659e-06	2.435223e-08	5.000452e+01	1.599287e+03
1.390000e-06	7.010707e-06	2.441719e-08	5.051647e+01	1.603828e+03
1.400000e-06	7.079330e-06	2.447855e-08	5.101094e+01	1.608159e+03
1.410000e-06	7.145379e-06	2.453782e-08	5.148687e+01	1.612221e+03
1.420000e-06	7.208878e-06	2.459394e-08	5.194442e+01	1.615972e+03
1.430000e-06	7.269978e-06	2.464747e-08	5.238468e+01	1.619400e+03
1.440000e-06	7.328555e-06	2.469987e-08	5.280676e+01	1.622530e+03
1.450000e-06	7.384555e-06	2.474834e-08	5.321027e+01	1.625412e+03
1.460000e-06	7.437877e-06	2.479200e-08	5.359450e+01	1.628108e+03
1.470000e-06	7.488120e-06	2.483098e-08	5.395653e+01	1.630668e+03
1.480000e-06	7.535355e-06	2.486713e-08	5.429688e+01	1.633118e+03
1.490000e-06	7.579953e-06	2.490051e-08	5.461824e+01	1.635453e+03
1.500000e-06	7.621834e-06	2.493254e-08	5.492001e+01	1.637639e+03
1.510000e-06	7.660921e-06	2.496087e-08	5.520167e+01	1.639625e+03
1.520000e-06	7.697401e-06	2.498491e-08	5.546452e+01	1.641366e+03
1.530000e-06	7.731186e-06	2.500652e-08	5.570797e+01	1.642831e+03
1.540000e-06	7.762155e-06	2.502572e-08	5.593112e+01	1.644024e+03
1.550000e-06	7.790494e-06	2.504321e-08	5.613532e+01	1.644976e+03
1.560000e-06	7.816030e-06	2.505830e-08	5.631932e+01	1.645744e+03
1.570000e-06	7.838589e-06	2.507038e-08	5.648187e+01	1.646391e+03
1.580000e-06	7.858475e-06	2.508053e-08	5.662516e+01	1.646968e+03
1.590000e-06	7.875584e-06	2.508954e-08	5.674844e+01	1.647503e+03
1.600000e-06	7.889693e-06	2.509697e-08	5.685011e+01	1.647992e+03
1.610000e-06	7.900770e-06	2.510235e-08	5.692992e+01	1.648404e+03
1.620000e-06	7.908778e-06	2.510537e-08	5.698762e+01	1.648691e+03
1.630000e-06	7.913929e-06	2.510634e-08	5.702474e+01	1.648805e+03
1.640000e-06	7.916255e-06	2.510510e-08	5.704150e+01	1.648714e+03
1.650000e-06	7.915730e-06	2.510480e-08	5.703772e+01	1.648413e+03
1.660000e-06	7.912614e-06	2.509748e-08	5.701527e+01	1.647923e+03
1.670000e-06	7.906928e-06	2.509151e-08	5.697430e+01	1.647288e+03
1.680000e-06	7.898549e-06	2.508358e-08	5.691392e+01	1.646557e+03
1.690000e-06	7.887535e-06	2.507239e-08	5.683456e+01	1.645771e+03
1.700000e-06	7.873695e-06	2.506201e-08	5.673483e+01	1.644951e+03
1.710000e-06	7.857168e-06	2.505485e-08	5.661574e+01	1.644091e+03
1.720000e-06	7.838370e-06	2.504832e-08	5.648029e+01	1.643163e+03
1.730000e-06	7.817238e-06	2.501401e-08	5.632802e+01	1.642127e+03
1.740000e-06	7.793160e-06	2.493002e-08	5.615453e+01	1.640946e+03
1.750000e-06	7.765511e-06	2.493480e-08	5.595530e+01	1.639600e+03
1.760000e-06	7.734320e-06	2.494242e-08	5.573055e+01	1.638093e+03
1.770000e-06	7.700300e-06	2.490903e-08	5.548541e+01	1.636450e+03
1.780000e-06	7.664031e-06	2.491933e-08	5.522407e+01	1.634711e+03
1.790000e-06	7.625530e-06	2.497753e-08	5.494665e+01	1.632913e+03
1.800000e-06	7.585081e-06	2.488340e-08	5.465519e+01	1.631076e+03
1.810000e-06	7.542496e-06	2.482254e-08	5.434834e+01	1.629193e+03
1.820000e-06	7.497209e-06	2.486944e-08	5.402202e+01	1.627225e+03
1.830000e-06	7.449298e-06	2.473199e-08	5.367679e+01	1.625108e+03
1.840000e-06	7.398567e-06	2.476757e-08	5.331124e+01	1.622773e+03
1.850000e-06	7.344863e-06	2.472793e-08	5.292427e+01	1.620160e+03
1.860000e-06	7.288353e-06	2.467044e-08	5.251708e+01	1.617236e+03
1.870000e-06	7.229166e-06	2.467741e-08	5.209060e+01	1.614004e+03
1.880000e-06	7.167441e-06	2.453598e-08	5.164584e+01	1.610504e+03
1.890000e-06	7.102905e-06	2.455001e-08	5.118081e+01	1.606798e+03
1.900000e-06	7.035597e-06	2.445262e-08	5.069582e+01	1.602953e+03
1.910000e-06	6.965614e-06	2.437112e-08	5.019155e+01	1.599018e+03
1.920000e-06	6.892833e-06	2.436797e-08	4.966712e+01	1.595012e+03
1.930000e-06	6.817410e-06	2.427872e-08	4.912365e+01	1.590915e+03
1.940000e-06	6.739268e-06	2.425756e-08	4.856058e+01	1.586671e+03
1.950000e-06	6.658538e-06	2.414096e-08	4.797887e+01	1.582207e+03
1.960000e-06	6.575416e-06	2.407838e-08	4.737993e+01	1.577450e+03
1.970000e-06	6.489869e-06	2.398260e-08	4.676351e+01	1.572348e+03
1.980000e-06	6.401886e-06	2.388366e-08	4.612954e+01	1.566886e+03
1.990000e-06	6.311569e-06	2.384391e-08	4.547875e+01	1.561082e+03
2.000000e-06	6.219104e-06	2.373813e-08	4.481248e+01	1.554981e+03
2.010000e-06	6.124413e-06	2.366161e-08	4.413018e+01	1.548637e+03
2.020000e-06	6.027550e-06	2.353284e-08	4.343222e+01	1.542092e+03
2.030000e-06	5.928557e-06	2.343108e-08	4.271891e+01	1.535355e+03
2.040000e-06	5.827436e-06	2.331904e-08	4.199027e+01	1.528400e+03
2.050000e-06	5.724231e-06	2.321851e-08	4.124662e+01	1.521166e+03
2.060000e-06	5.618974e-06	2.311481e-08	4.048817e+01	1.513572e+03
2.070000e-06	5.511802e-06	2.298504e-08	3.971593e+01	1.505543e+03
2.080000e-06	5.402724e-06	2.285696e-08	3.892996e+01	1.497023e+03
2.090000e-06	5.291737e-06	2.270548e-08	3.813023e+01	1.487995e+03
2.100000e-06	5.178802e-06	2.256980e-08	3.731646e+01	1.478481e+03
2.110000e-06	5.063935e-06	2.242180e-08	3.648878e+01	1.468528e+03
2.120000e-06	4.947123e-06	2.228200e-08	3.564707e+01	1.458188e+03
2.130000e-06	4.828407e-06	2.211579e-08	3.479165e+01	1.447495e+03
2.140000e-06	4.707824e-06	2.194194e-08	3.392277e+01	1.436445e+03
2.150000e-06	4.585472e-06	2.176091e-08	3.304116e+01	1.424984e+03
2.160000e-06	4.461462e-06	2.157622e-08	3.214759e+01	1.413018e+03
2.170000e-06	4.335828e-06	2.138418e-08	3.124232e+01	1.400429e+03
2.180000e-06	4.208647e-06	2.118459e-08	3.032590e+01	1.387104e+03
2.190000e-06	4.079869e-06	2.097807e-08	2.939797e+01	1.372958e+03
2.200000e-06	3.949572e-06	2.075168e-08	2.845910e+01	1.357952e+03
2.210000e-06	3.817800e-06	2.051271e-08	2.750960e+01	1.342097e+03
2.220000e-06	3.684594e-06	2.026001e-08	2.654977e+01	1.325435e+03
2.230000e-06	3.550078e-06	2.000177e-08	2.558050e+01	1.308014e+03
2.240000e-06	3.414248e-06	1.972590e-08	2.460176e+01	1.289855e+03
2.250000e-06	3.277090e-06	1.943943e-08	2.361346e+01	1.270922e+03
2.260000e-06	3.138693e-06	1.913687e-08	2.261622e+01	1.251114e+03
2.270000e-06	2.999068e-06	1.881713e-08	2.161013e+01	1.230264e+03
2.280000e-06	2.858232e-06	1.847415e-08	2.059533e+01	1.208166e+03
2.290000e-06	2.716348e-06	1.811201e-08	1.957296e+01	1.184607e+03
2.300000e-06	2.573457e-06	1.773269e-08	1.854334e+01	1.159401e+03
2.310000e-06	2.429604e-06	1.732994e-08	1.750679e+01	1.132407e+03
2.320000e-06	2.284883e-06	1.689897e-08	1.646399e+01	1.103533e+03
2.330000e-06	2.139353e-06	1.643539e-08	1.541536e+01	1.072712e+03
2.340000e-06	1.993142e-06	1.593753e-08	1.436182e+01	1.039863e+03
2.350000e-06	1.846270e-06	1.540038e-08	1.330351e+01	1.004841e+03
2.360000e-06	1.698723e-06	1.482500e-08	1.224035e+01	9.674093e+02
2.370000e-06	1.550645e-06	1.420812e-08	1.117336e+01	9.272264e+02
2.380000e-06	1.402116e-06	1.354268e-08	1.010311e+01	8.838756e+02
2.390000e-06	1.253133e-06	1.282398e-08	9.029595e+00	8.369275e+02
2.400000e-06	1.103762e-06	1.204482e-08	7.953288e+00	7.860295e+02
2.410000e-06	9.539877e-07	1.120561e-08	6.874070e+00	7.309995e+02
2.420000e-06	8.038135e-07	1.031165e-08	5.791973e+00	6.719021e+02
2.430000e-06	6.533828e-07	9.364898e-09	4.708026e+00	6.090823e+02
2.440000e-06	5.027604e-07	8.366550e-09	3.622699e+00	5.431439e+02
2.450000e-06	3.520129e-07	7.324423e-09	2.536470e+00	4.748682e+02
2.460000e-06	2.011621e-07	6.253490e-09	1.449497e+00	4.050879e+02
2.470000e-06	5.020942e-08	5.165455e-09	3.617898e-01	3.345393e+02
2.480000e-06	-1.007881e-07	4.071647e-09	-7.262406e-01	2.637282e+02
2.490000e-06	-2.517722e-07	2.980521e-09	-1.814174e+00	1.928391e+02
2.500000e-06	-4.027081e-07	1.891480e-09	-2.901761e+00	1.217151e+02
2.510000e-06	-5.535437e-07	7.978277e-10	-3.988624e+00	4.991622e+01
2.520000e-06	-7.041957e-07	-3.106308e-10	-5.074165e+00	-2.315207e+01
2.530000e-06	-8.546508e-07	-1.444047e-09	-6.158286e+00	-9.806373e+01
2.540000e-06	-1.004839e-06	-2.614412e-09	-7.240485e+00	-1.751890e+02
2.550000e-06	-1.154665e-06	-3.824914e-09	-8.320071e+00	-2.545419e+02
2.560000e-06	-1.304038e-06	-5.067827e-09	-9.396400e+00	-3.356937e+02
2.570000e-06	-1.452941e-06	-6.330625e-09	-1.046933e+01	-4.177717e+02
2.580000e-06	-1.601353e-06	-7.592018e-09	-1.153873e+01	-4.995463e+02
2.590000e-06	-1.749211e-06	-8.827182e-09	-1.260415e+01	-5.795878e+02
2.600000e-06	-1.896418e-06	-1.000838e-08	-1.366486e+01	-6.564632e+02
2.610000e-06	-2.042884e-06	-1.111399e-08	-1.472024e+01	-7.289299e+02
2.620000e-06	-2.188618e-06	-1.213274e-08	-1.577034e+01	-7.960919e+02
2.630000e-06	-2.333496e-06	-1.306219e-08	-1.681428e+01	-8.574873e+02
2.640000e-06	-2.477403e-06	-1.390691e-08	-1.785121e+01	-9.130972e+02
2.650000e-06	-2.620305e-06	-1.467668e-08	-1.888092e+01	-9.632791e+02
2.660000e-06	-2.762140e-06	-1.538104e-08	-1.990292e+01	-1.008647e+03
2.670000e-06	-2.902884e-06	-1.602620e-08	-2.091707e+01	-1.049930e+03
2.680000e-06	-3.042517e-06	-1.661829e-08	-2.192321e+01	-1.087833e+03
2.690000e-06	-3.180942e-06	-1.716365e-08	-2.292065e+01	-1.122942e+03
2.700000e-06	-3.318104e-06	-1.766459e-08	-2.390898e+01	-1.155669e+03
2.710000e-06	-3.454005e-06	-1.812556e-08	-2.488824e+01	-1.186259e+03
2.720000e-06	-3.588616e-06	-1.855369e-08	-2.585819e+01	-1.214828e+03
2.730000e-06	-3.721914e-06	-1.895290e-08	-2.681869e+01	-1.241428e+03
2.740000e-06	-3.853909e-06	-1.932879e-08	-2.776979e+01	-1.266112e+03
2.750000e-06	-3.984577e-06	-1.968037e-08	-2.871134e+01	-1.288978e+03
2.760000e-06	-4.113903e-06	-2.000674e-08	-2.964321e+01	-1.310189e+03
2.770000e-06	-4.241771e-06	-2.031472e-08	-3.056458e+01	-1.329960e+03
2.780000e-06	-4.368154e-06	-2.060676e-08	-3.147524e+01	-1.348526e+03
2.790000e-06	-4.493125e-06	-2.088276e-08	-3.237574e+01	-1.366098e+03
2.800000e-06	-4.616502e-06	-2.113910e-08	-3.326474e+01	-1.382832e+03
2.810000e-06	-4.738186e-06	-2.137888e-08	-3.414155e+01	-1.398809e+03
2.820000e-06	-4.858125e-06	-2.160789e-08	-3.500579e+01	-1.414041e+03
2.830000e-06	-4.976168e-06	-2.182651e-08	-3.585636e+01	-1.428491e+03
2.840000e-06	-5.092259e-06	-2.203584e-08	-3.669287e+01	-1.442110e+03
2.850000e-06	-5.206289e-06	-2.223292e-08	-3.751453e+01	-1.454869e+03
2.860000e-06	-5.318205e-06	-2.241754e-08	-3.832095e+01	-1.466784e+03
2.870000e-06	-5.428140e-06	-2.258950e-08	-3.911310e+01	-1.477921e+03
2.880000e-06	-5.536192e-06	-2.274894e-08	-3.989168e+01	-1.488388e+03
2.890000e-06	-5.642352e-06	-2.290198e-08	-4.065663e+01	-1.498307e+03
2.900000e-06	-5.746461e-06	-2.304906e-08	-4.140680e+01	-1.507786e+03
2.910000e-06	-5.848358e-06	-2.318923e-08	-4.214102e+01	-1.516893e+03
2.920000e-06	-5.948109e-06	-2.332195e-08	-4.285979e+01	-1.525649e+03
2.930000e-06	-6.045831e-06	-2.344847e-08	-4.356394e+01	-1.534023e+03
2.940000e-06	-6.141390e-06	-2.356574e-08	-4.425250e+01	-1.541959e+03
