# Temperatura_=_54.98
# Concentracion g/m^3_=_28200.0
# C_Vs_to_Am_M_A/Vsm_=_65563218390.804596
# pendiente_HvsI_1/m_=_3716.3
# ordenada_HvsI_A/m_=_1297.0
# frecuencia_Hz_=_302512.19114514574

Tiempo_(s)	Campo_(V.s)	Magnetizacion_(V.s)	Campo_(kA/m)	Magnetizacion_(A/m)
0.000000e+00	-7.844442e-06	-2.558200e-08	-5.684001e+01	-1.675173e+03
1.000000e-08	-7.840424e-06	-2.557773e-08	-5.681090e+01	-1.674643e+03
2.000000e-08	-7.833924e-06	-2.556570e-08	-5.676380e+01	-1.673982e+03
3.000000e-08	-7.824781e-06	-2.555397e-08	-5.669755e+01	-1.673231e+03
4.000000e-08	-7.812812e-06	-2.554132e-08	-5.661082e+01	-1.672418e+03
5.000000e-08	-7.797888e-06	-2.552521e-08	-5.650268e+01	-1.671548e+03
6.000000e-08	-7.780269e-06	-2.550434e-08	-5.637502e+01	-1.670605e+03
7.000000e-08	-7.760503e-06	-2.547822e-08	-5.623180e+01	-1.669557e+03
8.000000e-08	-7.738450e-06	-2.546151e-08	-5.607200e+01	-1.668372e+03
9.000000e-08	-7.713510e-06	-2.550899e-08	-5.589129e+01	-1.667027e+03
1.000000e-07	-7.685352e-06	-2.548543e-08	-5.568726e+01	-1.665522e+03
1.100000e-07	-7.654295e-06	-2.541542e-08	-5.546222e+01	-1.663874e+03
1.200000e-07	-7.620490e-06	-2.538326e-08	-5.521728e+01	-1.662120e+03
1.300000e-07	-7.584026e-06	-2.534306e-08	-5.495306e+01	-1.660293e+03
1.400000e-07	-7.545304e-06	-2.526163e-08	-5.467249e+01	-1.658416e+03
1.500000e-07	-7.504408e-06	-2.519883e-08	-5.437616e+01	-1.656482e+03
1.600000e-07	-7.461112e-06	-2.529238e-08	-5.406244e+01	-1.654456e+03
1.700000e-07	-7.415217e-06	-2.523144e-08	-5.372989e+01	-1.652275e+03
1.800000e-07	-7.366660e-06	-2.513076e-08	-5.337805e+01	-1.649867e+03
1.900000e-07	-7.315183e-06	-2.516715e-08	-5.300505e+01	-1.647168e+03
2.000000e-07	-7.260764e-06	-2.505331e-08	-5.261074e+01	-1.644137e+03
2.100000e-07	-7.203687e-06	-2.498163e-08	-5.219717e+01	-1.640776e+03
2.200000e-07	-7.144007e-06	-2.495378e-08	-5.176473e+01	-1.637125e+03
2.300000e-07	-7.081763e-06	-2.490478e-08	-5.131372e+01	-1.633254e+03
2.400000e-07	-7.016892e-06	-2.487132e-08	-5.084367e+01	-1.629240e+03
2.500000e-07	-6.949363e-06	-2.477084e-08	-5.035436e+01	-1.625149e+03
2.600000e-07	-6.879218e-06	-2.473251e-08	-4.984609e+01	-1.621012e+03
2.700000e-07	-6.806364e-06	-2.466862e-08	-4.931821e+01	-1.616816e+03
2.800000e-07	-6.730761e-06	-2.458632e-08	-4.877040e+01	-1.612502e+03
2.900000e-07	-6.652388e-06	-2.450783e-08	-4.820251e+01	-1.607985e+03
3.000000e-07	-6.571249e-06	-2.443717e-08	-4.761459e+01	-1.603175e+03
3.100000e-07	-6.487764e-06	-2.437946e-08	-4.700966e+01	-1.598000e+03
3.200000e-07	-6.402193e-06	-2.426139e-08	-4.638963e+01	-1.592426e+03
3.300000e-07	-6.314407e-06	-2.418583e-08	-4.575354e+01	-1.586463e+03
3.400000e-07	-6.224302e-06	-2.408885e-08	-4.510064e+01	-1.580165e+03
3.500000e-07	-6.131946e-06	-2.398210e-08	-4.443144e+01	-1.573600e+03
3.600000e-07	-6.037421e-06	-2.388516e-08	-4.374652e+01	-1.566837e+03
3.700000e-07	-5.940592e-06	-2.378432e-08	-4.304491e+01	-1.559914e+03
3.800000e-07	-5.841505e-06	-2.368340e-08	-4.232694e+01	-1.552825e+03
3.900000e-07	-5.740451e-06	-2.356265e-08	-4.159471e+01	-1.545518e+03
4.000000e-07	-5.637426e-06	-2.344809e-08	-4.084821e+01	-1.537905e+03
4.100000e-07	-5.532360e-06	-2.330983e-08	-4.008691e+01	-1.529890e+03
4.200000e-07	-5.425337e-06	-2.317722e-08	-3.931143e+01	-1.521388e+03
4.300000e-07	-5.316415e-06	-2.303874e-08	-3.852219e+01	-1.512352e+03
4.400000e-07	-5.205555e-06	-2.290059e-08	-3.771891e+01	-1.502781e+03
4.500000e-07	-5.092789e-06	-2.275082e-08	-3.690182e+01	-1.492719e+03
4.600000e-07	-4.978063e-06	-2.259087e-08	-3.607053e+01	-1.482228e+03
4.700000e-07	-4.861335e-06	-2.242490e-08	-3.522473e+01	-1.471372e+03
4.800000e-07	-4.742823e-06	-2.225184e-08	-3.436600e+01	-1.460179e+03
4.900000e-07	-4.622616e-06	-2.207607e-08	-3.349500e+01	-1.448631e+03
5.000000e-07	-4.500678e-06	-2.188743e-08	-3.261145e+01	-1.436656e+03
5.100000e-07	-4.377002e-06	-2.169437e-08	-3.171530e+01	-1.424140e+03
5.200000e-07	-4.251820e-06	-2.148434e-08	-3.080825e+01	-1.410955e+03
5.300000e-07	-4.125169e-06	-2.126698e-08	-2.989054e+01	-1.396988e+03
5.400000e-07	-3.996996e-06	-2.103757e-08	-2.896182e+01	-1.382169e+03
5.500000e-07	-3.867328e-06	-2.080282e-08	-2.802225e+01	-1.366479e+03
5.600000e-07	-3.736031e-06	-2.055601e-08	-2.707089e+01	-1.349950e+03
5.700000e-07	-3.603298e-06	-2.029405e-08	-2.610912e+01	-1.332639e+03
5.800000e-07	-3.469292e-06	-2.001633e-08	-2.513813e+01	-1.314593e+03
5.900000e-07	-3.333974e-06	-1.972361e-08	-2.415763e+01	-1.295820e+03
6.000000e-07	-3.197424e-06	-1.942130e-08	-2.316820e+01	-1.276256e+03
6.100000e-07	-3.059662e-06	-1.910141e-08	-2.216999e+01	-1.255767e+03
6.200000e-07	-2.920584e-06	-1.876661e-08	-2.116224e+01	-1.234156e+03
6.300000e-07	-2.780134e-06	-1.841102e-08	-2.014456e+01	-1.211201e+03
6.400000e-07	-2.638543e-06	-1.803531e-08	-1.911861e+01	-1.186689e+03
6.500000e-07	-2.496008e-06	-1.763495e-08	-1.808581e+01	-1.160449e+03
6.600000e-07	-2.352592e-06	-1.721085e-08	-1.704664e+01	-1.132369e+03
6.700000e-07	-2.208333e-06	-1.676039e-08	-1.600135e+01	-1.102386e+03
6.800000e-07	-2.063219e-06	-1.627652e-08	-1.494987e+01	-1.070452e+03
6.900000e-07	-1.917323e-06	-1.575865e-08	-1.389272e+01	-1.036485e+03
7.000000e-07	-1.770861e-06	-1.520240e-08	-1.283147e+01	-1.000322e+03
7.100000e-07	-1.623914e-06	-1.460475e-08	-1.176671e+01	-9.616874e+02
7.200000e-07	-1.476421e-06	-1.396002e-08	-1.069799e+01	-9.201948e+02
7.300000e-07	-1.328469e-06	-1.326977e-08	-9.625947e+00	-8.753906e+02
7.400000e-07	-1.180161e-06	-1.252644e-08	-8.551321e+00	-8.268303e+02
7.500000e-07	-1.031484e-06	-1.172516e-08	-7.474026e+00	-7.741757e+02
7.600000e-07	-8.824498e-07	-1.086503e-08	-6.394139e+00	-7.172902e+02
7.700000e-07	-7.331311e-07	-9.945953e-09	-5.312192e+00	-6.563054e+02
7.800000e-07	-5.835707e-07	-8.968621e-09	-4.228492e+00	-5.916372e+02
7.900000e-07	-4.337935e-07	-7.939000e-09	-3.143222e+00	-5.239423e+02
8.000000e-07	-2.838615e-07	-6.869804e-09	-2.056831e+00	-4.540176e+02
8.100000e-07	-1.338481e-07	-5.772386e-09	-9.698493e-01	-3.826611e+02
8.200000e-07	1.620590e-08	-4.663328e-09	1.174263e-01	-3.105254e+02
8.300000e-07	1.662876e-07	-3.550749e-09	1.204903e+00	-2.379965e+02
8.400000e-07	3.163559e-07	-2.440270e-09	2.292282e+00	-1.651304e+02
8.500000e-07	4.663560e-07	-1.327038e-09	3.379167e+00	-9.166625e+01
8.600000e-07	6.162437e-07	-2.011890e-10	4.465237e+00	-1.711654e+01
8.700000e-07	7.659351e-07	9.492652e-10	5.549886e+00	5.907936e+01
8.800000e-07	9.153916e-07	2.133684e-09	6.632832e+00	1.373723e+02
8.900000e-07	1.064595e-06	3.355318e-09	7.713946e+00	2.179300e+02
9.000000e-07	1.213500e-06	4.614642e-09	8.792896e+00	3.005126e+02
9.100000e-07	1.362016e-06	5.900469e-09	9.869027e+00	3.844263e+02
9.200000e-07	1.510029e-06	7.195437e-09	1.094152e+01	4.685678e+02
9.300000e-07	1.657510e-06	8.469636e-09	1.201015e+01	5.515512e+02
9.400000e-07	1.804420e-06	9.695024e-09	1.307464e+01	6.318917e+02
9.500000e-07	1.950690e-06	1.084780e-08	1.413450e+01	7.082099e+02
9.600000e-07	2.096203e-06	1.191316e-08	1.518887e+01	7.794136e+02
9.700000e-07	2.240894e-06	1.289142e-08	1.623728e+01	8.448235e+02
9.800000e-07	2.384780e-06	1.378381e-08	1.727987e+01	9.042217e+02
9.900000e-07	2.527702e-06	1.459809e-08	1.831547e+01	9.578180e+02
1.000000e-06	2.669605e-06	1.533797e-08	1.934368e+01	1.006149e+03
1.010000e-06	2.810462e-06	1.601112e-08	2.036432e+01	1.049940e+03
1.020000e-06	2.950120e-06	1.662615e-08	2.137626e+01	1.089952e+03
1.030000e-06	3.088537e-06	1.719371e-08	2.237922e+01	1.126864e+03
1.040000e-06	3.225777e-06	1.771583e-08	2.337364e+01	1.161193e+03
1.050000e-06	3.361833e-06	1.819787e-08	2.435949e+01	1.193268e+03
1.060000e-06	3.496614e-06	1.864603e-08	2.533610e+01	1.223262e+03
1.070000e-06	3.630127e-06	1.906382e-08	2.630352e+01	1.251248e+03
1.080000e-06	3.762348e-06	1.945408e-08	2.726158e+01	1.277267e+03
1.090000e-06	3.893180e-06	1.981773e-08	2.820958e+01	1.301390e+03
1.100000e-06	4.022616e-06	2.016042e-08	2.914746e+01	1.323753e+03
1.110000e-06	4.150662e-06	2.048172e-08	3.007527e+01	1.344552e+03
1.120000e-06	4.277258e-06	2.078443e-08	3.099256e+01	1.364024e+03
1.130000e-06	4.402398e-06	2.106950e-08	3.189932e+01	1.382405e+03
1.140000e-06	4.526025e-06	2.133550e-08	3.279511e+01	1.399886e+03
1.150000e-06	4.648025e-06	2.158449e-08	3.367911e+01	1.416586e+03
1.160000e-06	4.768356e-06	2.182113e-08	3.455101e+01	1.432545e+03
1.170000e-06	4.886993e-06	2.204493e-08	3.541064e+01	1.447742e+03
1.180000e-06	5.003843e-06	2.225740e-08	3.625732e+01	1.462123e+03
1.190000e-06	5.118793e-06	2.245884e-08	3.709024e+01	1.475639e+03
1.200000e-06	5.231782e-06	2.264984e-08	3.790895e+01	1.488281e+03
1.210000e-06	5.342781e-06	2.283261e-08	3.871323e+01	1.500094e+03
1.220000e-06	5.451904e-06	2.300720e-08	3.950393e+01	1.511174e+03
1.230000e-06	5.559163e-06	2.317176e-08	4.028112e+01	1.521646e+03
1.240000e-06	5.664402e-06	2.332663e-08	4.104366e+01	1.531636e+03
1.250000e-06	5.767559e-06	2.347194e-08	4.179113e+01	1.541239e+03
1.260000e-06	5.868539e-06	2.361054e-08	4.252282e+01	1.550501e+03
1.270000e-06	5.967268e-06	2.374392e-08	4.323820e+01	1.559409e+03
1.280000e-06	6.063689e-06	2.387109e-08	4.393686e+01	1.567909e+03
1.290000e-06	6.157905e-06	2.399184e-08	4.461954e+01	1.575928e+03
1.300000e-06	6.250060e-06	2.410627e-08	4.528728e+01	1.583404e+03
1.310000e-06	6.340046e-06	2.421307e-08	4.593931e+01	1.590311e+03
1.320000e-06	6.427695e-06	2.431052e-08	4.657441e+01	1.596674e+03
1.330000e-06	6.513057e-06	2.440274e-08	4.719293e+01	1.602567e+03
1.340000e-06	6.596186e-06	2.449022e-08	4.779528e+01	1.608096e+03
1.350000e-06	6.676951e-06	2.457133e-08	4.838049e+01	1.613370e+03
1.360000e-06	6.755212e-06	2.464839e-08	4.894756e+01	1.618480e+03
1.370000e-06	6.830887e-06	2.472258e-08	4.949590e+01	1.623474e+03
1.380000e-06	6.903969e-06	2.479402e-08	5.002544e+01	1.628354e+03
1.390000e-06	6.974537e-06	2.486262e-08	5.053677e+01	1.633077e+03
1.400000e-06	7.042664e-06	2.492887e-08	5.103041e+01	1.637578e+03
1.410000e-06	7.108245e-06	2.499288e-08	5.150560e+01	1.641791e+03
1.420000e-06	7.171259e-06	2.505233e-08	5.196220e+01	1.645674e+03
1.430000e-06	7.231884e-06	2.510665e-08	5.240148e+01	1.649218e+03
1.440000e-06	7.290056e-06	2.515724e-08	5.282299e+01	1.652452e+03
1.450000e-06	7.345646e-06	2.520575e-08	5.322578e+01	1.655435e+03
1.460000e-06	7.398486e-06	2.525118e-08	5.360866e+01	1.658230e+03
1.470000e-06	7.448275e-06	2.529266e-08	5.396943e+01	1.660893e+03
1.480000e-06	7.495155e-06	2.533220e-08	5.430911e+01	1.663450e+03
1.490000e-06	7.539457e-06	2.536891e-08	5.463012e+01	1.665893e+03
1.500000e-06	7.581071e-06	2.540138e-08	5.493165e+01	1.668187e+03
1.510000e-06	7.619908e-06	2.542905e-08	5.521306e+01	1.670280e+03
1.520000e-06	7.656137e-06	2.545425e-08	5.547557e+01	1.672123e+03
1.530000e-06	7.689650e-06	2.547751e-08	5.571840e+01	1.673686e+03
1.540000e-06	7.720346e-06	2.549854e-08	5.594082e+01	1.674972e+03
1.550000e-06	7.748389e-06	2.551739e-08	5.614402e+01	1.676011e+03
1.560000e-06	7.773644e-06	2.553255e-08	5.632702e+01	1.676860e+03
1.570000e-06	7.795978e-06	2.554438e-08	5.648885e+01	1.677576e+03
1.580000e-06	7.815618e-06	2.555411e-08	5.663115e+01	1.678211e+03
1.590000e-06	7.832476e-06	2.556380e-08	5.675330e+01	1.678789e+03
1.600000e-06	7.846398e-06	2.557355e-08	5.685418e+01	1.679304e+03
1.610000e-06	7.857305e-06	2.557997e-08	5.693321e+01	1.679727e+03
1.620000e-06	7.865102e-06	2.558056e-08	5.698971e+01	1.680014e+03
1.630000e-06	7.870065e-06	2.557976e-08	5.702567e+01	1.680123e+03
1.640000e-06	7.872250e-06	2.558039e-08	5.704150e+01	1.680027e+03
1.650000e-06	7.871598e-06	2.558086e-08	5.703678e+01	1.679724e+03
1.660000e-06	7.868371e-06	2.557195e-08	5.701340e+01	1.679239e+03
1.670000e-06	7.862554e-06	2.556826e-08	5.697125e+01	1.678610e+03
1.680000e-06	7.854074e-06	2.556243e-08	5.690980e+01	1.677880e+03
1.690000e-06	7.842989e-06	2.555073e-08	5.682948e+01	1.677082e+03
1.700000e-06	7.829084e-06	2.553961e-08	5.672873e+01	1.676228e+03
1.710000e-06	7.812514e-06	2.553344e-08	5.660866e+01	1.675307e+03
1.720000e-06	7.793741e-06	2.553287e-08	5.647263e+01	1.674292e+03
1.730000e-06	7.772652e-06	2.547761e-08	5.631983e+01	1.673148e+03
1.740000e-06	7.748556e-06	2.538843e-08	5.614523e+01	1.671849e+03
1.750000e-06	7.720858e-06	2.540723e-08	5.594453e+01	1.670388e+03
1.760000e-06	7.689618e-06	2.540902e-08	5.571817e+01	1.668777e+03
1.770000e-06	7.655613e-06	2.537096e-08	5.547178e+01	1.667048e+03
1.780000e-06	7.619503e-06	2.539749e-08	5.521013e+01	1.665238e+03
1.790000e-06	7.581167e-06	2.545144e-08	5.493234e+01	1.663373e+03
1.800000e-06	7.540828e-06	2.529873e-08	5.464006e+01	1.661456e+03
1.810000e-06	7.498402e-06	2.527322e-08	5.433264e+01	1.659461e+03
1.820000e-06	7.453314e-06	2.529986e-08	5.400593e+01	1.657331e+03
1.830000e-06	7.405619e-06	2.515467e-08	5.366035e+01	1.654994e+03
1.840000e-06	7.355070e-06	2.524688e-08	5.329407e+01	1.652382e+03
1.850000e-06	7.301468e-06	2.516887e-08	5.290568e+01	1.649447e+03
1.860000e-06	7.245101e-06	2.513421e-08	5.249725e+01	1.646177e+03
1.870000e-06	7.186186e-06	2.509657e-08	5.207036e+01	1.642602e+03
1.880000e-06	7.124730e-06	2.492685e-08	5.162505e+01	1.638784e+03
1.890000e-06	7.060414e-06	2.497057e-08	5.115902e+01	1.634802e+03
1.900000e-06	6.993390e-06	2.485381e-08	5.067337e+01	1.630728e+03
1.910000e-06	6.923737e-06	2.481237e-08	5.016868e+01	1.626602e+03
1.920000e-06	6.851301e-06	2.478775e-08	4.964381e+01	1.622426e+03
1.930000e-06	6.776281e-06	2.468650e-08	4.910022e+01	1.618152e+03
1.940000e-06	6.698574e-06	2.464620e-08	4.853717e+01	1.613702e+03
1.950000e-06	6.618199e-06	2.450242e-08	4.795478e+01	1.608983e+03
1.960000e-06	6.535364e-06	2.448251e-08	4.735457e+01	1.603917e+03
1.970000e-06	6.450148e-06	2.438063e-08	4.673710e+01	1.598456e+03
1.980000e-06	6.362510e-06	2.428897e-08	4.610209e+01	1.592600e+03
1.990000e-06	6.272569e-06	2.422225e-08	4.545038e+01	1.586389e+03
2.000000e-06	6.180523e-06	2.410555e-08	4.478343e+01	1.579892e+03
2.010000e-06	6.086183e-06	2.402729e-08	4.409985e+01	1.573180e+03
2.020000e-06	5.989657e-06	2.389543e-08	4.340043e+01	1.566300e+03
2.030000e-06	5.891122e-06	2.380940e-08	4.268646e+01	1.559260e+03
2.040000e-06	5.790529e-06	2.368345e-08	4.195757e+01	1.552022e+03
2.050000e-06	5.687812e-06	2.357332e-08	4.121329e+01	1.544506e+03
2.060000e-06	5.583032e-06	2.344802e-08	4.045407e+01	1.536614e+03
2.070000e-06	5.476362e-06	2.331845e-08	3.968115e+01	1.528257e+03
2.080000e-06	5.367832e-06	2.318706e-08	3.889475e+01	1.519374e+03
2.090000e-06	5.257366e-06	2.303790e-08	3.809433e+01	1.509953e+03
2.100000e-06	5.144941e-06	2.290027e-08	3.727971e+01	1.500024e+03
2.110000e-06	5.030658e-06	2.274363e-08	3.645162e+01	1.489648e+03
2.120000e-06	4.914421e-06	2.259458e-08	3.560938e+01	1.478890e+03
2.130000e-06	4.796288e-06	2.242148e-08	3.475340e+01	1.467792e+03
2.140000e-06	4.676300e-06	2.224806e-08	3.388398e+01	1.456350e+03
2.150000e-06	4.554544e-06	2.205533e-08	3.300175e+01	1.444505e+03
2.160000e-06	4.431105e-06	2.186384e-08	3.210732e+01	1.432156e+03
2.170000e-06	4.306048e-06	2.166358e-08	3.120117e+01	1.419173e+03
2.180000e-06	4.179468e-06	2.145981e-08	3.028399e+01	1.405438e+03
2.190000e-06	4.051268e-06	2.124347e-08	2.935507e+01	1.390866e+03
2.200000e-06	3.921578e-06	2.101093e-08	2.841534e+01	1.375422e+03
2.210000e-06	3.790419e-06	2.076770e-08	2.746498e+01	1.359127e+03
2.220000e-06	3.657798e-06	2.051135e-08	2.650402e+01	1.342032e+03
2.230000e-06	3.523942e-06	2.024800e-08	2.553412e+01	1.324193e+03
2.240000e-06	3.388827e-06	1.996689e-08	2.455509e+01	1.305629e+03
2.250000e-06	3.252353e-06	1.967488e-08	2.356621e+01	1.286301e+03
2.260000e-06	3.114670e-06	1.935939e-08	2.256857e+01	1.266093e+03
2.270000e-06	2.975790e-06	1.902783e-08	2.156226e+01	1.244824e+03
2.280000e-06	2.835717e-06	1.867893e-08	2.054731e+01	1.222275e+03
2.290000e-06	2.694568e-06	1.831653e-08	1.952456e+01	1.198226e+03
2.300000e-06	2.552449e-06	1.793160e-08	1.849478e+01	1.172492e+03
2.310000e-06	2.409376e-06	1.751993e-08	1.745808e+01	1.144945e+03
2.320000e-06	2.265315e-06	1.707803e-08	1.641424e+01	1.115510e+03
2.330000e-06	2.120449e-06	1.660427e-08	1.536455e+01	1.084138e+03
2.340000e-06	1.974970e-06	1.609806e-08	1.431043e+01	1.050763e+03
2.350000e-06	1.828907e-06	1.555508e-08	1.325207e+01	1.015250e+03
2.360000e-06	1.682224e-06	1.497383e-08	1.218922e+01	9.773552e+02
2.370000e-06	1.534964e-06	1.434863e-08	1.112219e+01	9.367225e+02
2.380000e-06	1.387205e-06	1.367514e-08	1.005154e+01	8.929110e+02
2.390000e-06	1.239016e-06	1.294935e-08	8.977783e+00	8.454639e+02
2.400000e-06	1.090375e-06	1.216432e-08	7.900745e+00	7.940023e+02
2.410000e-06	9.413065e-07	1.131969e-08	6.820609e+00	7.383238e+02
2.420000e-06	7.919382e-07	1.041674e-08	5.738302e+00	6.784789e+02
2.430000e-06	6.424072e-07	9.455591e-09	4.654816e+00	6.148041e+02
2.440000e-06	4.927251e-07	8.439729e-09	3.570235e+00	5.478954e+02
2.450000e-06	3.428399e-07	7.377768e-09	2.484182e+00	4.785225e+02
2.460000e-06	1.927850e-07	6.286040e-09	1.396900e+00	4.074985e+02
2.470000e-06	4.263295e-08	5.178120e-09	3.089139e-01	3.355315e+02
2.480000e-06	-1.075144e-07	4.063484e-09	-7.790381e-01	2.630933e+02
2.490000e-06	-2.576240e-07	2.945615e-09	-1.866717e+00	1.903363e+02
2.500000e-06	-4.076571e-07	1.825800e-09	-2.953841e+00	1.170843e+02
2.510000e-06	-5.575795e-07	6.987451e-10	-4.040163e+00	4.290100e+01
2.520000e-06	-7.073654e-07	-4.472033e-10	-5.125496e+00	-3.277131e+01
2.530000e-06	-8.569414e-07	-1.622238e-09	-6.209308e+00	-1.104338e+02
2.540000e-06	-1.006234e-06	-2.836235e-09	-7.291064e+00	-1.903505e+02
2.550000e-06	-1.155192e-06	-4.089361e-09	-8.370401e+00	-2.724065e+02
2.560000e-06	-1.303782e-06	-5.372611e-09	-9.447072e+00	-3.560374e+02
2.570000e-06	-1.451887e-06	-6.670644e-09	-1.052022e+01	-4.402470e+02
2.580000e-06	-1.599404e-06	-7.958904e-09	-1.158911e+01	-5.237133e+02
2.590000e-06	-1.746316e-06	-9.210155e-09	-1.265362e+01	-6.049591e+02
2.600000e-06	-1.892663e-06	-1.039822e-08	-1.371404e+01	-6.825546e+02
2.610000e-06	-2.038407e-06	-1.150520e-08	-1.477008e+01	-7.553095e+02
2.620000e-06	-2.183372e-06	-1.252269e-08	-1.582049e+01	-8.224184e+02
2.630000e-06	-2.327374e-06	-1.344950e-08	-1.686391e+01	-8.835311e+02
2.640000e-06	-2.470349e-06	-1.429097e-08	-1.789989e+01	-9.387432e+02
2.650000e-06	-2.612287e-06	-1.505732e-08	-1.892836e+01	-9.885114e+02
2.660000e-06	-2.753191e-06	-1.575699e-08	-1.994934e+01	-1.033522e+03
2.670000e-06	-2.893060e-06	-1.639614e-08	-2.096281e+01	-1.074540e+03
2.680000e-06	-3.031787e-06	-1.698315e-08	-2.196801e+01	-1.112278e+03
2.690000e-06	-3.169392e-06	-1.752460e-08	-2.296508e+01	-1.147304e+03
2.700000e-06	-3.305752e-06	-1.802299e-08	-2.395313e+01	-1.180000e+03
2.710000e-06	-3.440794e-06	-1.848310e-08	-2.493163e+01	-1.210580e+03
2.720000e-06	-3.574587e-06	-1.891085e-08	-2.590108e+01	-1.239136e+03
2.730000e-06	-3.707122e-06	-1.931036e-08	-2.686142e+01	-1.265712e+03
2.740000e-06	-3.838341e-06	-1.968608e-08	-2.781222e+01	-1.290368e+03
2.750000e-06	-3.968245e-06	-2.003823e-08	-2.875349e+01	-1.313217e+03
2.760000e-06	-4.096817e-06	-2.036676e-08	-2.968511e+01	-1.334441e+03
2.770000e-06	-4.223913e-06	-2.067652e-08	-3.060603e+01	-1.354268e+03
2.780000e-06	-4.349564e-06	-2.096982e-08	-3.151649e+01	-1.372940e+03
2.790000e-06	-4.473802e-06	-2.124562e-08	-3.241670e+01	-1.390663e+03
2.800000e-06	-4.596466e-06	-2.150468e-08	-3.330552e+01	-1.407580e+03
2.810000e-06	-4.717383e-06	-2.175024e-08	-3.418167e+01	-1.423752e+03
2.820000e-06	-4.836474e-06	-2.198382e-08	-3.504459e+01	-1.439173e+03
2.830000e-06	-4.953686e-06	-2.220657e-08	-3.589389e+01	-1.453793e+03
2.840000e-06	-5.068924e-06	-2.241833e-08	-3.672890e+01	-1.467560e+03
2.850000e-06	-5.182119e-06	-2.261742e-08	-3.754910e+01	-1.480451e+03
2.860000e-06	-5.293289e-06	-2.280284e-08	-3.835462e+01	-1.492495e+03
2.870000e-06	-5.402541e-06	-2.297582e-08	-3.914625e+01	-1.503773e+03
2.880000e-06	-5.509952e-06	-2.314109e-08	-3.992454e+01	-1.514406e+03
2.890000e-06	-5.615441e-06	-2.329975e-08	-4.068890e+01	-1.524523e+03
2.900000e-06	-5.718874e-06	-2.345137e-08	-4.143836e+01	-1.534231e+03
2.910000e-06	-5.820127e-06	-2.359484e-08	-4.217203e+01	-1.543591e+03
2.920000e-06	-5.919273e-06	-2.373081e-08	-4.289043e+01	-1.552605e+03
2.930000e-06	-6.016392e-06	-2.385993e-08	-4.359415e+01	-1.561230e+03
2.940000e-06	-6.111272e-06	-2.398009e-08	-4.428164e+01	-1.569395e+03
