# Temperatura_=_38.25
# Concentracion g/m^3_=_28200.0
# C_Vs_to_Am_M_A/Vsm_=_65563218390.804596
# pendiente_HvsI_1/m_=_3716.3
# ordenada_HvsI_A/m_=_1297.0
# frecuencia_Hz_=_302512.41392328456

Tiempo_(s)	Campo_(V.s)	Magnetizacion_(V.s)	Campo_(kA/m)	Magnetizacion_(A/m)
0.000000e+00	-7.876563e-06	-2.508582e-08	-5.683735e+01	-1.642791e+03
1.000000e-08	-7.872313e-06	-2.507855e-08	-5.680668e+01	-1.642235e+03
2.000000e-08	-7.865606e-06	-2.506565e-08	-5.675829e+01	-1.641553e+03
3.000000e-08	-7.856213e-06	-2.505462e-08	-5.669051e+01	-1.640796e+03
4.000000e-08	-7.843937e-06	-2.504327e-08	-5.660192e+01	-1.639998e+03
5.000000e-08	-7.828711e-06	-2.502737e-08	-5.649205e+01	-1.639168e+03
6.000000e-08	-7.810817e-06	-2.500758e-08	-5.636293e+01	-1.638291e+03
7.000000e-08	-7.790743e-06	-2.497823e-08	-5.621807e+01	-1.637328e+03
8.000000e-08	-7.768335e-06	-2.497757e-08	-5.605638e+01	-1.636238e+03
9.000000e-08	-7.742957e-06	-2.503302e-08	-5.587324e+01	-1.634988e+03
1.000000e-07	-7.714379e-06	-2.498466e-08	-5.566703e+01	-1.633567e+03
1.100000e-07	-7.682929e-06	-2.491459e-08	-5.544009e+01	-1.631987e+03
1.200000e-07	-7.648708e-06	-2.489517e-08	-5.519315e+01	-1.630281e+03
1.300000e-07	-7.611876e-06	-2.485706e-08	-5.492736e+01	-1.628492e+03
1.400000e-07	-7.572785e-06	-2.476845e-08	-5.464529e+01	-1.626651e+03
1.500000e-07	-7.531424e-06	-2.471070e-08	-5.434682e+01	-1.624768e+03
1.600000e-07	-7.487623e-06	-2.483393e-08	-5.403076e+01	-1.622822e+03
1.700000e-07	-7.441292e-06	-2.474329e-08	-5.369643e+01	-1.620764e+03
1.800000e-07	-7.392244e-06	-2.465073e-08	-5.334250e+01	-1.618527e+03
1.900000e-07	-7.340211e-06	-2.470500e-08	-5.296703e+01	-1.616042e+03
2.000000e-07	-7.285331e-06	-2.457793e-08	-5.257102e+01	-1.613263e+03
2.100000e-07	-7.227780e-06	-2.452545e-08	-5.215573e+01	-1.610173e+03
2.200000e-07	-7.167557e-06	-2.448307e-08	-5.172116e+01	-1.606794e+03
2.300000e-07	-7.104754e-06	-2.444307e-08	-5.126797e+01	-1.603177e+03
2.400000e-07	-7.039259e-06	-2.440392e-08	-5.079536e+01	-1.599391e+03
2.500000e-07	-6.971063e-06	-2.430636e-08	-5.030325e+01	-1.595494e+03
2.600000e-07	-6.900283e-06	-2.429079e-08	-4.979251e+01	-1.591522e+03
2.700000e-07	-6.826784e-06	-2.422270e-08	-4.926214e+01	-1.587475e+03
2.800000e-07	-6.750531e-06	-2.414276e-08	-4.871189e+01	-1.583313e+03
2.900000e-07	-6.671529e-06	-2.406501e-08	-4.814181e+01	-1.578968e+03
3.000000e-07	-6.589861e-06	-2.399772e-08	-4.755249e+01	-1.574367e+03
3.100000e-07	-6.505924e-06	-2.393446e-08	-4.694681e+01	-1.569445e+03
3.200000e-07	-6.419836e-06	-2.382570e-08	-4.632560e+01	-1.564170e+03
3.300000e-07	-6.331402e-06	-2.377429e-08	-4.568745e+01	-1.558545e+03
3.400000e-07	-6.240582e-06	-2.367251e-08	-4.503209e+01	-1.552607e+03
3.500000e-07	-6.147579e-06	-2.356961e-08	-4.436098e+01	-1.546409e+03
3.600000e-07	-6.052432e-06	-2.347762e-08	-4.367440e+01	-1.540001e+03
3.700000e-07	-5.954958e-06	-2.338171e-08	-4.297103e+01	-1.533411e+03
3.800000e-07	-5.855281e-06	-2.328564e-08	-4.225176e+01	-1.526625e+03
3.900000e-07	-5.753644e-06	-2.316969e-08	-4.151835e+01	-1.519595e+03
4.000000e-07	-5.650000e-06	-2.306223e-08	-4.077045e+01	-1.512243e+03
4.100000e-07	-5.544259e-06	-2.292292e-08	-4.000742e+01	-1.504481e+03
4.200000e-07	-5.436553e-06	-2.279603e-08	-3.923021e+01	-1.496240e+03
4.300000e-07	-5.326989e-06	-2.266115e-08	-3.843960e+01	-1.487482e+03
4.400000e-07	-5.215489e-06	-2.253015e-08	-3.763501e+01	-1.478213e+03
4.500000e-07	-5.102014e-06	-2.238461e-08	-3.681618e+01	-1.468474e+03
4.600000e-07	-4.986533e-06	-2.222869e-08	-3.598286e+01	-1.458324e+03
4.700000e-07	-4.869156e-06	-2.206546e-08	-3.513587e+01	-1.447816e+03
4.800000e-07	-4.750013e-06	-2.189492e-08	-3.427614e+01	-1.436971e+03
4.900000e-07	-4.629138e-06	-2.172615e-08	-3.340391e+01	-1.425763e+03
5.000000e-07	-4.506517e-06	-2.154394e-08	-3.251906e+01	-1.414115e+03
5.100000e-07	-4.382218e-06	-2.135715e-08	-3.162212e+01	-1.401914e+03
5.200000e-07	-4.256396e-06	-2.115201e-08	-3.071419e+01	-1.389036e+03
5.300000e-07	-4.129042e-06	-2.093923e-08	-2.979520e+01	-1.375374e+03
5.400000e-07	-4.000165e-06	-2.071133e-08	-2.886523e+01	-1.360862e+03
5.500000e-07	-3.869733e-06	-2.048060e-08	-2.792403e+01	-1.345486e+03
5.600000e-07	-3.737767e-06	-2.024070e-08	-2.697176e+01	-1.329279e+03
5.700000e-07	-3.604427e-06	-1.998540e-08	-2.600958e+01	-1.312296e+03
5.800000e-07	-3.469765e-06	-1.971375e-08	-2.503785e+01	-1.294584e+03
5.900000e-07	-3.333791e-06	-1.942649e-08	-2.405666e+01	-1.276146e+03
6.000000e-07	-3.196558e-06	-1.912989e-08	-2.306640e+01	-1.256917e+03
6.100000e-07	-3.058080e-06	-1.881483e-08	-2.206714e+01	-1.236764e+03
6.200000e-07	-2.918247e-06	-1.848524e-08	-2.105810e+01	-1.215491e+03
6.300000e-07	-2.777030e-06	-1.813570e-08	-2.003908e+01	-1.192878e+03
6.400000e-07	-2.634707e-06	-1.776626e-08	-1.901207e+01	-1.168714e+03
6.500000e-07	-2.491410e-06	-1.737033e-08	-1.797803e+01	-1.142826e+03
6.600000e-07	-2.347135e-06	-1.694856e-08	-1.693694e+01	-1.115097e+03
6.700000e-07	-2.202026e-06	-1.650072e-08	-1.588984e+01	-1.085453e+03
6.800000e-07	-2.056117e-06	-1.602106e-08	-1.483696e+01	-1.053832e+03
6.900000e-07	-1.909573e-06	-1.551027e-08	-1.377949e+01	-1.020137e+03
7.000000e-07	-1.762539e-06	-1.495915e-08	-1.271850e+01	-9.841946e+02
7.100000e-07	-1.614937e-06	-1.436643e-08	-1.165340e+01	-9.457234e+02
7.200000e-07	-1.466837e-06	-1.372689e-08	-1.058471e+01	-9.043437e+02
7.300000e-07	-1.318332e-06	-1.303877e-08	-9.513099e+00	-8.596187e+02
7.400000e-07	-1.169454e-06	-1.229558e-08	-8.438787e+00	-8.111322e+02
7.500000e-07	-1.020216e-06	-1.149355e-08	-7.361889e+00	-7.585836e+02
7.600000e-07	-8.705986e-07	-1.063499e-08	-6.282247e+00	-7.018788e+02
7.700000e-07	-7.206520e-07	-9.719776e-09	-5.200231e+00	-6.411918e+02
7.800000e-07	-5.704565e-07	-8.748968e-09	-4.116419e+00	-5.769763e+02
7.900000e-07	-4.200576e-07	-7.728393e-09	-3.031139e+00	-5.099180e+02
8.000000e-07	-2.695023e-07	-6.672725e-09	-1.944731e+00	-4.408312e+02
8.100000e-07	-1.188234e-07	-5.592444e-09	-8.574310e-01	-3.705197e+02
8.200000e-07	3.198782e-08	-4.504311e-09	2.308244e-01	-2.996301e+02
8.300000e-07	1.829060e-07	-3.416467e-09	1.319851e+00	-2.285335e+02
8.400000e-07	3.337548e-07	-2.331574e-09	2.408378e+00	-1.572641e+02
8.500000e-07	4.844255e-07	-1.244872e-09	3.495619e+00	-8.553406e+01
8.600000e-07	6.349125e-07	-1.464456e-10	4.581535e+00	-1.282646e+01
8.700000e-07	7.851607e-07	9.752177e-10	5.665727e+00	6.145138e+01
8.800000e-07	9.351628e-07	2.132461e-09	6.748143e+00	1.377843e+02
8.900000e-07	1.084890e-06	3.326384e-09	7.828573e+00	2.163759e+02
9.000000e-07	1.234236e-06	4.556292e-09	8.906258e+00	2.970238e+02
9.100000e-07	1.383156e-06	5.812267e-09	9.980870e+00	3.790718e+02
9.200000e-07	1.531719e-06	7.078384e-09	1.105290e+01	4.614526e+02
9.300000e-07	1.679831e-06	8.327193e-09	1.212168e+01	5.428113e+02
9.400000e-07	1.827276e-06	9.529991e-09	1.318564e+01	6.216867e+02
9.500000e-07	1.973964e-06	1.066339e-08	1.424414e+01	6.967124e+02
9.600000e-07	2.119938e-06	1.171376e-08	1.529749e+01	7.667970e+02
9.700000e-07	2.265247e-06	1.267980e-08	1.634604e+01	8.312503e+02
9.800000e-07	2.409700e-06	1.355973e-08	1.738842e+01	8.898328e+02
9.900000e-07	2.553175e-06	1.436346e-08	1.842374e+01	9.427262e+02
1.000000e-06	2.695603e-06	1.509382e-08	1.945149e+01	9.904368e+02
1.010000e-06	2.836962e-06	1.575770e-08	2.047154e+01	1.033660e+03
1.020000e-06	2.977224e-06	1.636381e-08	2.148368e+01	1.073135e+03
1.030000e-06	3.116219e-06	1.692043e-08	2.248666e+01	1.109525e+03
1.040000e-06	3.253917e-06	1.743523e-08	2.348029e+01	1.143340e+03
1.050000e-06	3.390314e-06	1.791160e-08	2.446454e+01	1.174912e+03
1.060000e-06	3.525463e-06	1.835481e-08	2.543977e+01	1.204420e+03
1.070000e-06	3.659375e-06	1.876687e-08	2.640608e+01	1.231942e+03
1.080000e-06	3.791992e-06	1.915205e-08	2.736305e+01	1.257527e+03
1.090000e-06	3.923199e-06	1.951211e-08	2.830984e+01	1.281249e+03
1.100000e-06	4.052958e-06	1.984886e-08	2.924618e+01	1.303239e+03
1.110000e-06	4.181332e-06	2.016374e-08	3.017253e+01	1.323688e+03
1.120000e-06	4.308232e-06	2.046186e-08	3.108824e+01	1.342826e+03
1.130000e-06	4.433680e-06	2.074115e-08	3.199348e+01	1.360877e+03
1.140000e-06	4.557675e-06	2.100113e-08	3.288823e+01	1.378026e+03
1.150000e-06	4.680053e-06	2.124566e-08	3.377131e+01	1.394388e+03
1.160000e-06	4.800747e-06	2.147854e-08	3.464224e+01	1.410002e+03
1.170000e-06	4.919670e-06	2.170043e-08	3.550038e+01	1.424851e+03
1.180000e-06	5.036840e-06	2.190985e-08	3.634588e+01	1.438883e+03
1.190000e-06	5.152153e-06	2.210689e-08	3.717798e+01	1.452057e+03
1.200000e-06	5.265381e-06	2.229262e-08	3.799504e+01	1.464365e+03
1.210000e-06	5.376604e-06	2.246876e-08	3.879762e+01	1.475852e+03
1.220000e-06	5.485968e-06	2.263506e-08	3.958679e+01	1.486611e+03
1.230000e-06	5.593453e-06	2.279336e-08	4.036241e+01	1.496762e+03
1.240000e-06	5.698862e-06	2.294463e-08	4.112304e+01	1.506424e+03
1.250000e-06	5.802061e-06	2.308897e-08	4.186773e+01	1.515691e+03
1.260000e-06	5.903148e-06	2.322510e-08	4.259717e+01	1.524603e+03
1.270000e-06	6.002109e-06	2.335186e-08	4.331128e+01	1.533152e+03
1.280000e-06	6.098807e-06	2.347146e-08	4.400905e+01	1.541290e+03
1.290000e-06	6.193248e-06	2.358526e-08	4.469053e+01	1.548953e+03
1.300000e-06	6.285522e-06	2.369345e-08	4.535639e+01	1.556087e+03
1.310000e-06	6.375544e-06	2.379573e-08	4.600599e+01	1.562677e+03
1.320000e-06	6.463240e-06	2.389143e-08	4.663880e+01	1.568755e+03
1.330000e-06	6.548720e-06	2.398054e-08	4.725562e+01	1.574396e+03
1.340000e-06	6.631971e-06	2.406529e-08	4.785636e+01	1.579702e+03
1.350000e-06	6.712819e-06	2.414521e-08	4.843976e+01	1.584779e+03
1.360000e-06	6.791140e-06	2.421972e-08	4.900493e+01	1.589707e+03
1.370000e-06	6.866905e-06	2.429031e-08	4.955165e+01	1.594527e+03
1.380000e-06	6.940023e-06	2.435614e-08	5.007927e+01	1.599229e+03
1.390000e-06	7.010608e-06	2.441986e-08	5.058861e+01	1.603767e+03
1.400000e-06	7.078788e-06	2.448242e-08	5.108060e+01	1.608073e+03
1.410000e-06	7.144379e-06	2.454480e-08	5.155390e+01	1.612084e+03
1.420000e-06	7.207384e-06	2.460417e-08	5.200855e+01	1.615759e+03
1.430000e-06	7.268022e-06	2.465684e-08	5.244612e+01	1.619097e+03
1.440000e-06	7.326179e-06	2.470362e-08	5.286577e+01	1.622133e+03
1.450000e-06	7.381675e-06	2.474746e-08	5.326624e+01	1.624926e+03
1.460000e-06	7.434406e-06	2.478954e-08	5.364674e+01	1.627545e+03
1.470000e-06	7.484151e-06	2.482684e-08	5.400570e+01	1.630041e+03
1.480000e-06	7.530947e-06	2.486157e-08	5.434338e+01	1.632438e+03
1.490000e-06	7.575090e-06	2.489559e-08	5.466192e+01	1.634726e+03
1.500000e-06	7.616580e-06	2.492711e-08	5.496131e+01	1.636864e+03
1.510000e-06	7.655305e-06	2.495412e-08	5.524075e+01	1.638799e+03
1.520000e-06	7.691404e-06	2.497883e-08	5.550124e+01	1.640482e+03
1.530000e-06	7.724797e-06	2.500050e-08	5.574220e+01	1.641888e+03
1.540000e-06	7.755391e-06	2.501834e-08	5.596297e+01	1.643024e+03
1.550000e-06	7.783313e-06	2.503394e-08	5.616446e+01	1.643928e+03
1.560000e-06	7.808358e-06	2.504747e-08	5.634518e+01	1.644662e+03
1.570000e-06	7.830452e-06	2.505998e-08	5.650461e+01	1.645290e+03
1.580000e-06	7.849886e-06	2.507098e-08	5.664485e+01	1.645863e+03
1.590000e-06	7.866564e-06	2.508105e-08	5.676519e+01	1.646403e+03
1.600000e-06	7.880213e-06	2.508938e-08	5.686369e+01	1.646901e+03
1.610000e-06	7.890687e-06	2.509412e-08	5.693927e+01	1.647319e+03
1.620000e-06	7.898121e-06	2.509559e-08	5.699291e+01	1.647603e+03
1.630000e-06	7.902858e-06	2.509600e-08	5.702709e+01	1.647705e+03
1.640000e-06	7.904854e-06	2.509797e-08	5.704150e+01	1.647595e+03
1.650000e-06	7.903988e-06	2.509733e-08	5.703525e+01	1.647271e+03
1.660000e-06	7.900510e-06	2.508529e-08	5.701015e+01	1.646759e+03
1.670000e-06	7.894427e-06	2.508028e-08	5.696625e+01	1.646107e+03
1.680000e-06	7.885627e-06	2.507316e-08	5.690275e+01	1.645366e+03
1.690000e-06	7.874191e-06	2.506055e-08	5.682023e+01	1.644576e+03
1.700000e-06	7.860008e-06	2.505150e-08	5.671789e+01	1.643756e+03
1.710000e-06	7.843198e-06	2.505052e-08	5.659659e+01	1.642894e+03
1.720000e-06	7.824107e-06	2.505629e-08	5.645883e+01	1.641958e+03
1.730000e-06	7.802569e-06	2.497519e-08	5.630341e+01	1.640908e+03
1.740000e-06	7.777977e-06	2.490012e-08	5.612595e+01	1.639705e+03
1.750000e-06	7.749826e-06	2.493922e-08	5.592281e+01	1.638331e+03
1.760000e-06	7.718211e-06	2.492935e-08	5.569468e+01	1.636792e+03
1.770000e-06	7.683950e-06	2.488573e-08	5.544745e+01	1.635117e+03
1.780000e-06	7.647518e-06	2.493188e-08	5.518456e+01	1.633347e+03
1.790000e-06	7.608831e-06	2.498952e-08	5.490539e+01	1.631517e+03
1.800000e-06	7.568178e-06	2.478947e-08	5.461204e+01	1.629646e+03
1.810000e-06	7.525323e-06	2.480740e-08	5.430280e+01	1.627721e+03
1.820000e-06	7.479696e-06	2.481643e-08	5.397355e+01	1.625701e+03
1.830000e-06	7.431435e-06	2.467119e-08	5.362530e+01	1.623520e+03
1.840000e-06	7.380314e-06	2.477930e-08	5.325641e+01	1.621111e+03
1.850000e-06	7.326185e-06	2.466217e-08	5.286582e+01	1.618418e+03
1.860000e-06	7.269304e-06	2.468378e-08	5.245536e+01	1.615415e+03
1.870000e-06	7.209843e-06	2.461894e-08	5.202629e+01	1.612114e+03
1.880000e-06	7.147778e-06	2.447082e-08	5.157843e+01	1.608557e+03
1.890000e-06	7.082838e-06	2.453890e-08	5.110982e+01	1.604811e+03
1.900000e-06	7.015209e-06	2.437515e-08	5.062181e+01	1.600940e+03
1.910000e-06	6.944943e-06	2.435979e-08	5.011477e+01	1.596987e+03
1.920000e-06	6.871925e-06	2.431549e-08	4.958787e+01	1.592963e+03
1.930000e-06	6.796273e-06	2.424232e-08	4.904197e+01	1.588838e+03
1.940000e-06	6.717880e-06	2.420711e-08	4.847628e+01	1.584552e+03
1.950000e-06	6.636894e-06	2.407404e-08	4.789189e+01	1.580031e+03
1.960000e-06	6.553496e-06	2.406164e-08	4.729009e+01	1.575204e+03
1.970000e-06	6.467680e-06	2.392003e-08	4.667084e+01	1.570030e+03
1.980000e-06	6.379443e-06	2.386118e-08	4.603412e+01	1.564501e+03
1.990000e-06	6.288945e-06	2.378775e-08	4.538109e+01	1.558646e+03
2.000000e-06	6.196304e-06	2.369015e-08	4.471259e+01	1.552516e+03
2.010000e-06	6.101367e-06	2.361123e-08	4.402752e+01	1.546163e+03
2.020000e-06	6.004223e-06	2.348222e-08	4.332653e+01	1.539623e+03
2.030000e-06	5.905008e-06	2.339983e-08	4.261059e+01	1.532896e+03
2.040000e-06	5.803684e-06	2.326953e-08	4.187944e+01	1.525942e+03
2.050000e-06	5.700188e-06	2.318224e-08	4.113261e+01	1.518689e+03
2.060000e-06	5.594729e-06	2.305813e-08	4.037162e+01	1.511051e+03
2.070000e-06	5.487461e-06	2.293947e-08	3.959757e+01	1.502952e+03
2.080000e-06	5.378352e-06	2.279766e-08	3.881024e+01	1.494342e+03
2.090000e-06	5.267322e-06	2.265362e-08	3.800904e+01	1.485215e+03
2.100000e-06	5.154296e-06	2.251540e-08	3.719345e+01	1.475603e+03
2.110000e-06	5.039346e-06	2.237086e-08	3.636397e+01	1.465563e+03
2.120000e-06	4.922408e-06	2.223345e-08	3.552014e+01	1.455153e+03
2.130000e-06	4.803518e-06	2.206692e-08	3.466223e+01	1.444403e+03
2.140000e-06	4.682767e-06	2.189741e-08	3.379089e+01	1.433303e+03
2.150000e-06	4.560341e-06	2.170539e-08	3.290746e+01	1.421790e+03
2.160000e-06	4.436295e-06	2.152019e-08	3.201234e+01	1.409759e+03
2.170000e-06	4.310633e-06	2.132226e-08	3.110556e+01	1.397086e+03
2.180000e-06	4.183356e-06	2.112843e-08	3.018714e+01	1.383655e+03
2.190000e-06	4.054480e-06	2.091526e-08	2.925717e+01	1.369388e+03
2.200000e-06	3.924176e-06	2.068890e-08	2.831689e+01	1.354257e+03
2.210000e-06	3.792364e-06	2.044629e-08	2.736573e+01	1.338281e+03
2.220000e-06	3.659087e-06	2.019437e-08	2.640400e+01	1.321513e+03
2.230000e-06	3.524482e-06	1.993502e-08	2.543269e+01	1.304006e+03
2.240000e-06	3.388576e-06	1.966017e-08	2.445199e+01	1.285777e+03
2.250000e-06	3.251460e-06	1.937389e-08	2.346257e+01	1.266784e+03
2.260000e-06	3.113147e-06	1.906550e-08	2.246449e+01	1.246911e+03
2.270000e-06	2.973554e-06	1.873952e-08	2.145719e+01	1.225979e+03
2.280000e-06	2.832748e-06	1.839314e-08	2.044114e+01	1.203771e+03
2.290000e-06	2.690850e-06	1.803503e-08	1.941720e+01	1.180068e+03
2.300000e-06	2.547970e-06	1.765599e-08	1.838617e+01	1.154686e+03
2.310000e-06	2.404115e-06	1.725357e-08	1.734811e+01	1.127491e+03
2.320000e-06	2.259336e-06	1.682019e-08	1.630339e+01	1.098399e+03
2.330000e-06	2.113844e-06	1.635296e-08	1.525352e+01	1.067349e+03
2.340000e-06	1.967765e-06	1.584913e-08	1.419941e+01	1.034260e+03
2.350000e-06	1.821088e-06	1.530597e-08	1.314099e+01	9.989819e+02
2.360000e-06	1.673804e-06	1.472443e-08	1.207818e+01	9.612669e+02
2.370000e-06	1.525957e-06	1.410038e-08	1.101132e+01	9.207603e+02
2.380000e-06	1.377539e-06	1.342885e-08	9.940336e+00	8.770351e+02
2.390000e-06	1.228617e-06	1.270557e-08	8.865713e+00	8.296598e+02
2.400000e-06	1.079312e-06	1.192337e-08	7.788323e+00	7.782908e+02
2.410000e-06	9.296329e-07	1.108120e-08	6.708239e+00	7.227671e+02
2.420000e-06	7.796196e-07	1.018159e-08	5.625742e+00	6.631823e+02
2.430000e-06	6.294453e-07	9.226293e-09	4.542083e+00	5.999125e+02
2.440000e-06	4.791308e-07	8.218549e-09	3.457412e+00	5.335854e+02
2.450000e-06	3.286444e-07	7.168625e-09	2.371501e+00	4.649918e+02
2.460000e-06	1.780432e-07	6.090965e-09	1.284761e+00	3.949537e+02
2.470000e-06	2.735250e-08	4.998417e-09	1.973759e-01	3.241765e+02
2.480000e-06	-1.233601e-07	3.902287e-09	-8.901676e-01	2.531193e+02
2.490000e-06	-2.740373e-07	2.807590e-09	-1.977456e+00	1.819145e+02
2.500000e-06	-4.246711e-07	1.714667e-09	-3.064430e+00	1.103602e+02
2.510000e-06	-5.751953e-07	6.165361e-10	-4.150615e+00	3.799126e+01
2.520000e-06	-7.255251e-07	-4.990952e-10	-5.235396e+00	-3.578137e+01
2.530000e-06	-8.756679e-07	-1.645051e-09	-6.318828e+00	-1.114923e+02
2.540000e-06	-1.025621e-06	-2.831633e-09	-7.400890e+00	-1.894409e+02
2.550000e-06	-1.175292e-06	-4.057517e-09	-8.480920e+00	-2.695495e+02
2.560000e-06	-1.324505e-06	-5.311519e-09	-9.557642e+00	-3.512912e+02
2.570000e-06	-1.473125e-06	-6.579229e-09	-1.063009e+01	-4.337068e+02
2.580000e-06	-1.621168e-06	-7.840157e-09	-1.169836e+01	-5.155068e+02
2.590000e-06	-1.768679e-06	-9.068350e-09	-1.276281e+01	-5.952401e+02
2.600000e-06	-1.915549e-06	-1.023620e-08	-1.382262e+01	-6.714932e+02
2.610000e-06	-2.061621e-06	-1.132593e-08	-1.487668e+01	-7.430802e+02
2.620000e-06	-2.206998e-06	-1.232942e-08	-1.592572e+01	-8.091878e+02
2.630000e-06	-2.351606e-06	-1.324349e-08	-1.696921e+01	-8.694474e+02
2.640000e-06	-2.495163e-06	-1.407330e-08	-1.800512e+01	-9.239275e+02
2.650000e-06	-2.637692e-06	-1.482989e-08	-1.903361e+01	-9.730547e+02
2.660000e-06	-2.779209e-06	-1.552158e-08	-2.005480e+01	-1.017485e+03
2.670000e-06	-2.919582e-06	-1.615309e-08	-2.106773e+01	-1.057959e+03
2.680000e-06	-3.058720e-06	-1.673223e-08	-2.207175e+01	-1.095172e+03
2.690000e-06	-3.196691e-06	-1.726426e-08	-2.306735e+01	-1.129682e+03
2.700000e-06	-3.333512e-06	-1.775271e-08	-2.405465e+01	-1.161872e+03
2.710000e-06	-3.469035e-06	-1.820507e-08	-2.503259e+01	-1.191960e+03
2.720000e-06	-3.603282e-06	-1.862577e-08	-2.600132e+01	-1.220045e+03
2.730000e-06	-3.736275e-06	-1.901902e-08	-2.696100e+01	-1.246179e+03
2.740000e-06	-3.867882e-06	-1.938831e-08	-2.791067e+01	-1.270424e+03
2.750000e-06	-3.998119e-06	-1.973304e-08	-2.885046e+01	-1.292893e+03
2.760000e-06	-4.127024e-06	-2.005580e-08	-2.978064e+01	-1.313761e+03
2.770000e-06	-4.254479e-06	-2.036014e-08	-3.070036e+01	-1.333251e+03
2.780000e-06	-4.380492e-06	-2.064782e-08	-3.160967e+01	-1.351592e+03
2.790000e-06	-4.505020e-06	-2.091840e-08	-3.250826e+01	-1.368985e+03
2.800000e-06	-4.627962e-06	-2.117157e-08	-3.339541e+01	-1.385565e+03
2.810000e-06	-4.749326e-06	-2.141001e-08	-3.427118e+01	-1.401394e+03
2.820000e-06	-4.868922e-06	-2.163722e-08	-3.513418e+01	-1.416467e+03
2.830000e-06	-4.986535e-06	-2.185450e-08	-3.598288e+01	-1.430739e+03
2.840000e-06	-5.102095e-06	-2.205972e-08	-3.681677e+01	-1.444162e+03
2.850000e-06	-5.215573e-06	-2.225193e-08	-3.763562e+01	-1.456716e+03
2.860000e-06	-5.326974e-06	-2.243213e-08	-3.843949e+01	-1.468432e+03
2.870000e-06	-5.436410e-06	-2.260141e-08	-3.922918e+01	-1.479388e+03
2.880000e-06	-5.544014e-06	-2.276138e-08	-4.000566e+01	-1.489701e+03
2.890000e-06	-5.649764e-06	-2.291294e-08	-4.076875e+01	-1.499493e+03
2.900000e-06	-5.753429e-06	-2.305716e-08	-4.151680e+01	-1.508867e+03
2.910000e-06	-5.854865e-06	-2.319455e-08	-4.224876e+01	-1.517880e+03
2.920000e-06	-5.954172e-06	-2.332558e-08	-4.296536e+01	-1.526538e+03
2.930000e-06	-6.051417e-06	-2.344976e-08	-4.366708e+01	-1.534801e+03
2.940000e-06	-6.146514e-06	-2.356483e-08	-4.435330e+01	-1.542607e+03
