# Temperatura_=_62.83
# Concentracion g/m^3_=_28200.0
# C_Vs_to_Am_M_A/Vsm_=_65563218390.804596
# pendiente_HvsI_1/m_=_3716.3
# ordenada_HvsI_A/m_=_1297.0
# frecuencia_Hz_=_302513.22505652905

Tiempo_(s)	Campo_(V.s)	Magnetizacion_(V.s)	Campo_(kA/m)	Magnetizacion_(A/m)
0.000000e+00	-7.888948e-06	-2.631468e-08	-5.684016e+01	-1.723554e+03
1.000000e-08	-7.884738e-06	-2.630885e-08	-5.680982e+01	-1.722955e+03
2.000000e-08	-7.878048e-06	-2.629846e-08	-5.676162e+01	-1.722212e+03
3.000000e-08	-7.868738e-06	-2.628724e-08	-5.669454e+01	-1.721384e+03
4.000000e-08	-7.856645e-06	-2.627495e-08	-5.660741e+01	-1.720512e+03
5.000000e-08	-7.841672e-06	-2.625802e-08	-5.649953e+01	-1.719604e+03
6.000000e-08	-7.823984e-06	-2.623758e-08	-5.637209e+01	-1.718636e+03
7.000000e-08	-7.804036e-06	-2.620969e-08	-5.622836e+01	-1.717559e+03
8.000000e-08	-7.781750e-06	-2.620255e-08	-5.606779e+01	-1.716316e+03
9.000000e-08	-7.756532e-06	-2.623169e-08	-5.588610e+01	-1.714862e+03
1.000000e-07	-7.728066e-06	-2.619442e-08	-5.568100e+01	-1.713179e+03
1.100000e-07	-7.696615e-06	-2.613507e-08	-5.545439e+01	-1.711282e+03
1.200000e-07	-7.662390e-06	-2.610161e-08	-5.520780e+01	-1.709214e+03
1.300000e-07	-7.625623e-06	-2.606557e-08	-5.494289e+01	-1.707037e+03
1.400000e-07	-7.586587e-06	-2.600473e-08	-5.466163e+01	-1.704805e+03
1.500000e-07	-7.545320e-06	-2.595315e-08	-5.436431e+01	-1.702551e+03
1.600000e-07	-7.501661e-06	-2.600187e-08	-5.404974e+01	-1.700273e+03
1.700000e-07	-7.455399e-06	-2.590586e-08	-5.371642e+01	-1.697929e+03
1.800000e-07	-7.406359e-06	-2.582435e-08	-5.336308e+01	-1.695450e+03
1.900000e-07	-7.354400e-06	-2.584416e-08	-5.298872e+01	-1.692756e+03
2.000000e-07	-7.299617e-06	-2.575754e-08	-5.259401e+01	-1.689780e+03
2.100000e-07	-7.242171e-06	-2.571860e-08	-5.218011e+01	-1.686480e+03
2.200000e-07	-7.182042e-06	-2.566235e-08	-5.174687e+01	-1.682855e+03
2.300000e-07	-7.119312e-06	-2.560019e-08	-5.129490e+01	-1.678939e+03
2.400000e-07	-7.053952e-06	-2.555265e-08	-5.082398e+01	-1.674790e+03
2.500000e-07	-6.985830e-06	-2.547556e-08	-5.033316e+01	-1.670468e+03
2.600000e-07	-6.914971e-06	-2.541201e-08	-4.982261e+01	-1.666017e+03
2.700000e-07	-6.841372e-06	-2.533036e-08	-4.929233e+01	-1.661451e+03
2.800000e-07	-6.765078e-06	-2.526977e-08	-4.874263e+01	-1.656746e+03
2.900000e-07	-6.686077e-06	-2.518138e-08	-4.817343e+01	-1.651850e+03
3.000000e-07	-6.604514e-06	-2.508365e-08	-4.758576e+01	-1.646698e+03
3.100000e-07	-6.520672e-06	-2.502144e-08	-4.698168e+01	-1.641231e+03
3.200000e-07	-6.434634e-06	-2.493632e-08	-4.636177e+01	-1.635412e+03
3.300000e-07	-6.346268e-06	-2.484260e-08	-4.572509e+01	-1.629238e+03
3.400000e-07	-6.255493e-06	-2.472245e-08	-4.507105e+01	-1.622734e+03
3.500000e-07	-6.162482e-06	-2.463505e-08	-4.440091e+01	-1.615944e+03
3.600000e-07	-6.067279e-06	-2.453957e-08	-4.371497e+01	-1.608910e+03
3.700000e-07	-5.969819e-06	-2.441632e-08	-4.301276e+01	-1.601656e+03
3.800000e-07	-5.870193e-06	-2.430236e-08	-4.229496e+01	-1.594172e+03
3.900000e-07	-5.768488e-06	-2.418565e-08	-4.156216e+01	-1.586415e+03
4.000000e-07	-5.664755e-06	-2.405931e-08	-4.081476e+01	-1.578318e+03
4.100000e-07	-5.559018e-06	-2.391248e-08	-4.005293e+01	-1.569807e+03
4.200000e-07	-5.451305e-06	-2.378763e-08	-3.927685e+01	-1.560819e+03
4.300000e-07	-5.341722e-06	-2.364678e-08	-3.848730e+01	-1.551326e+03
4.400000e-07	-5.230173e-06	-2.349042e-08	-3.768359e+01	-1.541332e+03
4.500000e-07	-5.116559e-06	-2.332905e-08	-3.686499e+01	-1.530876e+03
4.600000e-07	-5.001010e-06	-2.316987e-08	-3.603246e+01	-1.520008e+03
4.700000e-07	-4.883625e-06	-2.299940e-08	-3.518670e+01	-1.508769e+03
4.800000e-07	-4.764426e-06	-2.281767e-08	-3.432786e+01	-1.497168e+03
4.900000e-07	-4.643482e-06	-2.263764e-08	-3.345646e+01	-1.485167e+03
5.000000e-07	-4.520833e-06	-2.244072e-08	-3.257277e+01	-1.472684e+03
5.100000e-07	-4.396459e-06	-2.223035e-08	-3.167665e+01	-1.459606e+03
5.200000e-07	-4.270493e-06	-2.201017e-08	-3.076906e+01	-1.445815e+03
5.300000e-07	-4.143036e-06	-2.179001e-08	-2.985072e+01	-1.431213e+03
5.400000e-07	-4.014027e-06	-2.155229e-08	-2.892121e+01	-1.415747e+03
5.500000e-07	-3.883473e-06	-2.130159e-08	-2.798056e+01	-1.399416e+03
5.600000e-07	-3.751486e-06	-2.104280e-08	-2.702960e+01	-1.382261e+03
5.700000e-07	-3.618125e-06	-2.077304e-08	-2.606872e+01	-1.364339e+03
5.800000e-07	-3.483337e-06	-2.048857e-08	-2.509757e+01	-1.345690e+03
5.900000e-07	-3.347201e-06	-2.018882e-08	-2.411671e+01	-1.326305e+03
6.000000e-07	-3.209764e-06	-1.987853e-08	-2.312646e+01	-1.306104e+03
6.100000e-07	-3.071019e-06	-1.954856e-08	-2.212680e+01	-1.284935e+03
6.200000e-07	-2.930921e-06	-1.919903e-08	-2.111740e+01	-1.262592e+03
6.300000e-07	-2.789566e-06	-1.882853e-08	-2.009892e+01	-1.238849e+03
6.400000e-07	-2.647084e-06	-1.844064e-08	-1.907234e+01	-1.213502e+03
6.500000e-07	-2.503579e-06	-1.802999e-08	-1.803838e+01	-1.186393e+03
6.600000e-07	-2.359267e-06	-1.759206e-08	-1.699861e+01	-1.157428e+03
6.700000e-07	-2.214183e-06	-1.712616e-08	-1.595327e+01	-1.126556e+03
6.800000e-07	-2.068288e-06	-1.662891e-08	-1.490209e+01	-1.093734e+03
6.900000e-07	-1.921660e-06	-1.610006e-08	-1.384563e+01	-1.058874e+03
7.000000e-07	-1.774454e-06	-1.552997e-08	-1.278500e+01	-1.021793e+03
7.100000e-07	-1.626752e-06	-1.491734e-08	-1.172081e+01	-9.821858e+02
7.200000e-07	-1.478545e-06	-1.425915e-08	-1.065297e+01	-9.396327e+02
7.300000e-07	-1.329878e-06	-1.355113e-08	-9.581820e+00	-8.936452e+02
7.400000e-07	-1.180804e-06	-1.278448e-08	-8.507736e+00	-8.437515e+02
7.500000e-07	-1.031268e-06	-1.195727e-08	-7.430320e+00	-7.895977e+02
7.600000e-07	-8.813702e-07	-1.107175e-08	-6.350304e+00	-7.310445e+02
7.700000e-07	-7.311895e-07	-1.012253e-08	-5.268247e+00	-6.682318e+02
7.800000e-07	-5.807285e-07	-9.113085e-09	-4.184170e+00	-6.015910e+02
7.900000e-07	-4.300425e-07	-8.052264e-09	-3.098472e+00	-5.317940e+02
8.000000e-07	-2.792097e-07	-6.949758e-09	-2.011716e+00	-4.596465e+02
8.100000e-07	-1.283192e-07	-5.814333e-09	-9.245447e-01	-3.859450e+02
8.200000e-07	2.267399e-08	-4.665197e-09	1.633669e-01	-3.113282e+02
8.300000e-07	1.736981e-07	-3.514038e-09	1.251501e+00	-2.361607e+02
8.400000e-07	3.246547e-07	-2.362567e-09	2.339149e+00	-1.604764e+02
8.500000e-07	4.755363e-07	-1.204211e-09	3.426256e+00	-8.400201e+01
8.600000e-07	6.263000e-07	-3.136403e-11	4.512514e+00	-6.257694e+00
8.700000e-07	7.769166e-07	1.166194e-09	5.597712e+00	7.328124e+01
8.800000e-07	9.273132e-07	2.402694e-09	6.681325e+00	1.549981e+02
8.900000e-07	1.077415e-06	3.680405e-09	7.762813e+00	2.389641e+02
9.000000e-07	1.227152e-06	4.993251e-09	8.841675e+00	3.248230e+02
9.100000e-07	1.376410e-06	6.326215e-09	9.917081e+00	4.117594e+02
9.200000e-07	1.525104e-06	7.660864e-09	1.098843e+01	4.985595e+02
9.300000e-07	1.673233e-06	8.967407e-09	1.205570e+01	5.837543e+02
9.400000e-07	1.820835e-06	1.021639e-08	1.311918e+01	6.658162e+02
9.500000e-07	1.967839e-06	1.138574e-08	1.417835e+01	7.433693e+02
9.600000e-07	2.114115e-06	1.246242e-08	1.523228e+01	8.153695e+02
9.700000e-07	2.259606e-06	1.344734e-08	1.628054e+01	8.812217e+02
9.800000e-07	2.404282e-06	1.434222e-08	1.732294e+01	9.408138e+02
9.900000e-07	2.548045e-06	1.515655e-08	1.835875e+01	9.944660e+02
1.000000e-06	2.690769e-06	1.589679e-08	1.938709e+01	1.042814e+03
1.010000e-06	2.832407e-06	1.657102e-08	2.040760e+01	1.086656e+03
1.020000e-06	2.972882e-06	1.718766e-08	2.141972e+01	1.126797e+03
1.030000e-06	3.112159e-06	1.775454e-08	2.242322e+01	1.163927e+03
1.040000e-06	3.250224e-06	1.828069e-08	2.341798e+01	1.198548e+03
1.050000e-06	3.387011e-06	1.876810e-08	2.440354e+01	1.230960e+03
1.060000e-06	3.522499e-06	1.922205e-08	2.537973e+01	1.261302e+03
1.070000e-06	3.656730e-06	1.964483e-08	2.634688e+01	1.289617e+03
1.080000e-06	3.789600e-06	2.003976e-08	2.730420e+01	1.315930e+03
1.090000e-06	3.921067e-06	2.040956e-08	2.825143e+01	1.340312e+03
1.100000e-06	4.051161e-06	2.075566e-08	2.918876e+01	1.362906e+03
1.110000e-06	4.179805e-06	2.107983e-08	3.011565e+01	1.383930e+03
1.120000e-06	4.306983e-06	2.138674e-08	3.103197e+01	1.403639e+03
1.130000e-06	4.432693e-06	2.167633e-08	3.193771e+01	1.422283e+03
1.140000e-06	4.556899e-06	2.194750e-08	3.283262e+01	1.440059e+03
1.150000e-06	4.679597e-06	2.220356e-08	3.371667e+01	1.457081e+03
1.160000e-06	4.800679e-06	2.244533e-08	3.458907e+01	1.473377e+03
1.170000e-06	4.919952e-06	2.267481e-08	3.544843e+01	1.488910e+03
1.180000e-06	5.037436e-06	2.289278e-08	3.629491e+01	1.503610e+03
1.190000e-06	5.153094e-06	2.309971e-08	3.712823e+01	1.517420e+03
1.200000e-06	5.266722e-06	2.329604e-08	3.794692e+01	1.530328e+03
1.210000e-06	5.378246e-06	2.348077e-08	3.875046e+01	1.542384e+03
1.220000e-06	5.487831e-06	2.365470e-08	3.954002e+01	1.553692e+03
1.230000e-06	5.595542e-06	2.382034e-08	4.031608e+01	1.564391e+03
1.240000e-06	5.701276e-06	2.397865e-08	4.107790e+01	1.574614e+03
1.250000e-06	5.804887e-06	2.413114e-08	4.182442e+01	1.584462e+03
1.260000e-06	5.906349e-06	2.427621e-08	4.255546e+01	1.593977e+03
1.270000e-06	6.005644e-06	2.441382e-08	4.327088e+01	1.603142e+03
1.280000e-06	6.102629e-06	2.454555e-08	4.396967e+01	1.611893e+03
1.290000e-06	6.197331e-06	2.466907e-08	4.465199e+01	1.620149e+03
1.300000e-06	6.289836e-06	2.478407e-08	4.531850e+01	1.627845e+03
1.310000e-06	6.380107e-06	2.489136e-08	4.596891e+01	1.634955e+03
1.320000e-06	6.468040e-06	2.499189e-08	4.660246e+01	1.641508e+03
1.330000e-06	6.553718e-06	2.508782e-08	4.721978e+01	1.647588e+03
1.340000e-06	6.637187e-06	2.518051e-08	4.782118e+01	1.653305e+03
1.350000e-06	6.718233e-06	2.526773e-08	4.840512e+01	1.658777e+03
1.360000e-06	6.796773e-06	2.534969e-08	4.897100e+01	1.664093e+03
1.370000e-06	6.872825e-06	2.542817e-08	4.951896e+01	1.669297e+03
1.380000e-06	6.946258e-06	2.550060e-08	5.004804e+01	1.674380e+03
1.390000e-06	7.017134e-06	2.556997e-08	5.055870e+01	1.679292e+03
1.400000e-06	7.085556e-06	2.563782e-08	5.105169e+01	1.683956e+03
1.410000e-06	7.151414e-06	2.570279e-08	5.152620e+01	1.688306e+03
1.420000e-06	7.214690e-06	2.576426e-08	5.198210e+01	1.692299e+03
1.430000e-06	7.275526e-06	2.582087e-08	5.242043e+01	1.695936e+03
1.440000e-06	7.333864e-06	2.587400e-08	5.284076e+01	1.699258e+03
1.450000e-06	7.389617e-06	2.592449e-08	5.324246e+01	1.702336e+03
1.460000e-06	7.442703e-06	2.597244e-08	5.362495e+01	1.705243e+03
1.470000e-06	7.492718e-06	2.601653e-08	5.398530e+01	1.708038e+03
1.480000e-06	7.539712e-06	2.605800e-08	5.432390e+01	1.710744e+03
1.490000e-06	7.584075e-06	2.609614e-08	5.464354e+01	1.713343e+03
1.500000e-06	7.625770e-06	2.612962e-08	5.494395e+01	1.715786e+03
1.510000e-06	7.664714e-06	2.615922e-08	5.522455e+01	1.718009e+03
1.520000e-06	7.701056e-06	2.618585e-08	5.548639e+01	1.719953e+03
1.530000e-06	7.734673e-06	2.621018e-08	5.572860e+01	1.721586e+03
1.540000e-06	7.765440e-06	2.623317e-08	5.595028e+01	1.722916e+03
1.550000e-06	7.793527e-06	2.625446e-08	5.615264e+01	1.723986e+03
1.560000e-06	7.818780e-06	2.627256e-08	5.633459e+01	1.724866e+03
1.570000e-06	7.841079e-06	2.628830e-08	5.649526e+01	1.725627e+03
1.580000e-06	7.860659e-06	2.630071e-08	5.663633e+01	1.726329e+03
1.590000e-06	7.877442e-06	2.631022e-08	5.675726e+01	1.726996e+03
1.600000e-06	7.891305e-06	2.631664e-08	5.685714e+01	1.727615e+03
1.610000e-06	7.902115e-06	2.632097e-08	5.693503e+01	1.728142e+03
1.620000e-06	7.909845e-06	2.632460e-08	5.699072e+01	1.728515e+03
1.630000e-06	7.914768e-06	2.632666e-08	5.702619e+01	1.728676e+03
1.640000e-06	7.916893e-06	2.632749e-08	5.704150e+01	1.728591e+03
1.650000e-06	7.916207e-06	2.632590e-08	5.703656e+01	1.728258e+03
1.660000e-06	7.912938e-06	2.631819e-08	5.701301e+01	1.727709e+03
1.670000e-06	7.907010e-06	2.631329e-08	5.697029e+01	1.726999e+03
1.680000e-06	7.898372e-06	2.630621e-08	5.690806e+01	1.726190e+03
1.690000e-06	7.887066e-06	2.629517e-08	5.682659e+01	1.725327e+03
1.700000e-06	7.872900e-06	2.628338e-08	5.672453e+01	1.724429e+03
1.710000e-06	7.856121e-06	2.627238e-08	5.660364e+01	1.723481e+03
1.720000e-06	7.837147e-06	2.626495e-08	5.646693e+01	1.722439e+03
1.730000e-06	7.815823e-06	2.619863e-08	5.631329e+01	1.721248e+03
1.740000e-06	7.791475e-06	2.613571e-08	5.613786e+01	1.719857e+03
1.750000e-06	7.763497e-06	2.614509e-08	5.593628e+01	1.718238e+03
1.760000e-06	7.731995e-06	2.613708e-08	5.570931e+01	1.716397e+03
1.770000e-06	7.697777e-06	2.610719e-08	5.546276e+01	1.714372e+03
1.780000e-06	7.661345e-06	2.611918e-08	5.520027e+01	1.712218e+03
1.790000e-06	7.622654e-06	2.613147e-08	5.492150e+01	1.709996e+03
1.800000e-06	7.582039e-06	2.598188e-08	5.462886e+01	1.707746e+03
1.810000e-06	7.539269e-06	2.598957e-08	5.432070e+01	1.705476e+03
1.820000e-06	7.493747e-06	2.599023e-08	5.399272e+01	1.703155e+03
1.830000e-06	7.445610e-06	2.589198e-08	5.364589e+01	1.700722e+03
1.840000e-06	7.394656e-06	2.593776e-08	5.327876e+01	1.698097e+03
1.850000e-06	7.340672e-06	2.581995e-08	5.288981e+01	1.695205e+03
1.860000e-06	7.283918e-06	2.580318e-08	5.248089e+01	1.691999e+03
1.870000e-06	7.224537e-06	2.576963e-08	5.205305e+01	1.688463e+03
1.880000e-06	7.162549e-06	2.566677e-08	5.160643e+01	1.684625e+03
1.890000e-06	7.097739e-06	2.566741e-08	5.113947e+01	1.680534e+03
1.900000e-06	7.030203e-06	2.554636e-08	5.065287e+01	1.676255e+03
1.910000e-06	6.960009e-06	2.550385e-08	5.014712e+01	1.671837e+03
1.920000e-06	6.887060e-06	2.542434e-08	4.962152e+01	1.667303e+03
1.930000e-06	6.811444e-06	2.535258e-08	4.907670e+01	1.662641e+03
1.940000e-06	6.733110e-06	2.532392e-08	4.851231e+01	1.657805e+03
1.950000e-06	6.652184e-06	2.520075e-08	4.792923e+01	1.652732e+03
1.960000e-06	6.568770e-06	2.513073e-08	4.732822e+01	1.647358e+03
1.970000e-06	6.482878e-06	2.502587e-08	4.670937e+01	1.641641e+03
1.980000e-06	6.394562e-06	2.496063e-08	4.607305e+01	1.635566e+03
1.990000e-06	6.304050e-06	2.485910e-08	4.542091e+01	1.629151e+03
2.000000e-06	6.211412e-06	2.475227e-08	4.475345e+01	1.622436e+03
2.010000e-06	6.116518e-06	2.466239e-08	4.406973e+01	1.615467e+03
2.020000e-06	6.019420e-06	2.453665e-08	4.337014e+01	1.608274e+03
2.030000e-06	5.920175e-06	2.442403e-08	4.265507e+01	1.600857e+03
2.040000e-06	5.818857e-06	2.430500e-08	4.192507e+01	1.593184e+03
2.050000e-06	5.715479e-06	2.420352e-08	4.118023e+01	1.585191e+03
2.060000e-06	5.610105e-06	2.405421e-08	4.042101e+01	1.576803e+03
2.070000e-06	5.502744e-06	2.391394e-08	3.964747e+01	1.567955e+03
2.080000e-06	5.393447e-06	2.377570e-08	3.885998e+01	1.558606e+03
2.090000e-06	5.282242e-06	2.363401e-08	3.805874e+01	1.548752e+03
2.100000e-06	5.169054e-06	2.347651e-08	3.724322e+01	1.538422e+03
2.110000e-06	5.053975e-06	2.331779e-08	3.641408e+01	1.527665e+03
2.120000e-06	4.936967e-06	2.315882e-08	3.557102e+01	1.516528e+03
2.130000e-06	4.818027e-06	2.297316e-08	3.471406e+01	1.505031e+03
2.140000e-06	4.697224e-06	2.278892e-08	3.384367e+01	1.493150e+03
2.150000e-06	4.574735e-06	2.260370e-08	3.296113e+01	1.480814e+03
2.160000e-06	4.450603e-06	2.241427e-08	3.206676e+01	1.467918e+03
2.170000e-06	4.324814e-06	2.219857e-08	3.116045e+01	1.454340e+03
2.180000e-06	4.197472e-06	2.197927e-08	3.024294e+01	1.439976e+03
2.190000e-06	4.068605e-06	2.175094e-08	2.931444e+01	1.424758e+03
2.200000e-06	3.938203e-06	2.151503e-08	2.837489e+01	1.408670e+03
2.210000e-06	3.806307e-06	2.126309e-08	2.742458e+01	1.391744e+03
2.220000e-06	3.673073e-06	2.100120e-08	2.646463e+01	1.374034e+03
2.230000e-06	3.538468e-06	2.072476e-08	2.549479e+01	1.355590e+03
2.240000e-06	3.402561e-06	2.042895e-08	2.451558e+01	1.336419e+03
2.250000e-06	3.265397e-06	2.012166e-08	2.352730e+01	1.316463e+03
2.260000e-06	3.126879e-06	1.980117e-08	2.252928e+01	1.295588e+03
2.270000e-06	2.987084e-06	1.946673e-08	2.152205e+01	1.273602e+03
2.280000e-06	2.846167e-06	1.910795e-08	2.050674e+01	1.250281e+03
2.290000e-06	2.704128e-06	1.872802e-08	1.948334e+01	1.225409e+03
2.300000e-06	2.561023e-06	1.832779e-08	1.845226e+01	1.198815e+03
2.310000e-06	2.417096e-06	1.790345e-08	1.741526e+01	1.170386e+03
2.320000e-06	2.272368e-06	1.744781e-08	1.637249e+01	1.140061e+03
2.330000e-06	2.126814e-06	1.696181e-08	1.532377e+01	1.107801e+03
2.340000e-06	1.980566e-06	1.644430e-08	1.427005e+01	1.073536e+03
2.350000e-06	1.833655e-06	1.588801e-08	1.321155e+01	1.037114e+03
2.360000e-06	1.686107e-06	1.528878e-08	1.214846e+01	9.982658e+02
2.370000e-06	1.538033e-06	1.464601e-08	1.108158e+01	9.566015e+02
2.380000e-06	1.389499e-06	1.395681e-08	1.001139e+01	9.116448e+02
2.390000e-06	1.240554e-06	1.321242e-08	8.938234e+00	8.629092e+02
2.400000e-06	1.091130e-06	1.240499e-08	7.861633e+00	8.099965e+02
2.410000e-06	9.412342e-07	1.153868e-08	6.781627e+00	7.526978e+02
2.420000e-06	7.910213e-07	1.061368e-08	5.699337e+00	6.910693e+02
2.430000e-06	6.405781e-07	9.625732e-09	4.615388e+00	6.254614e+02
2.440000e-06	4.898752e-07	8.578631e-09	3.529569e+00	5.564861e+02
2.450000e-06	3.389501e-07	7.484470e-09	2.442148e+00	4.849245e+02
2.460000e-06	1.878938e-07	6.356340e-09	1.353781e+00	4.115911e+02
2.470000e-06	3.679137e-08	5.206463e-09	2.650831e-01	3.371838e+02
2.480000e-06	-1.142839e-07	4.048734e-09	-8.234196e-01	2.621543e+02
2.490000e-06	-2.653695e-07	2.890183e-09	-1.911997e+00	1.866322e+02
2.500000e-06	-4.163758e-07	1.726810e-09	-3.000003e+00	1.104249e+02
2.510000e-06	-5.672425e-07	5.515792e-10	-4.087003e+00	3.309727e+01
2.520000e-06	-7.179475e-07	-6.433081e-10	-5.172838e+00	-4.588129e+01
2.530000e-06	-8.684250e-07	-1.867100e-09	-6.257034e+00	-1.269534e+02
2.540000e-06	-1.018622e-06	-3.132420e-09	-7.339209e+00	-2.102942e+02
2.550000e-06	-1.168418e-06	-4.438195e-09	-8.418493e+00	-2.956769e+02
2.560000e-06	-1.317752e-06	-5.771559e-09	-9.494452e+00	-3.824152e+02
2.570000e-06	-1.466616e-06	-7.116141e-09	-1.056702e+01	-4.693975e+02
2.580000e-06	-1.615008e-06	-8.443592e-09	-1.163619e+01	-5.552094e+02
2.590000e-06	-1.762796e-06	-9.722765e-09	-1.270101e+01	-6.383184e+02
2.600000e-06	-1.909858e-06	-1.092870e-08	-1.376060e+01	-7.172848e+02
2.610000e-06	-2.056195e-06	-1.204710e-08	-1.481496e+01	-7.909545e+02
2.620000e-06	-2.201769e-06	-1.307165e-08	-1.586383e+01	-8.585967e+02
2.630000e-06	-2.346511e-06	-1.400296e-08	-1.690669e+01	-9.199631e+02
2.640000e-06	-2.490375e-06	-1.484822e-08	-1.794324e+01	-9.752598e+02
2.650000e-06	-2.633262e-06	-1.561829e-08	-1.897275e+01	-1.025047e+03
2.660000e-06	-2.775067e-06	-1.632168e-08	-1.999446e+01	-1.070093e+03
2.670000e-06	-2.915745e-06	-1.696440e-08	-2.100805e+01	-1.111215e+03
2.680000e-06	-3.055196e-06	-1.755454e-08	-2.201280e+01	-1.149147e+03
2.690000e-06	-3.193395e-06	-1.809867e-08	-2.300853e+01	-1.184446e+03
2.700000e-06	-3.330355e-06	-1.860034e-08	-2.399533e+01	-1.217471e+03
2.710000e-06	-3.466135e-06	-1.906493e-08	-2.497363e+01	-1.248399e+03
2.720000e-06	-3.600703e-06	-1.949877e-08	-2.594319e+01	-1.277292e+03
2.730000e-06	-3.733937e-06	-1.990396e-08	-2.690315e+01	-1.304174e+03
2.740000e-06	-3.865810e-06	-2.028400e-08	-2.785330e+01	-1.329097e+03
2.750000e-06	-3.996346e-06	-2.063985e-08	-2.879382e+01	-1.352184e+03
2.760000e-06	-4.125518e-06	-2.097213e-08	-2.972451e+01	-1.373633e+03
2.770000e-06	-4.253292e-06	-2.128536e-08	-3.064513e+01	-1.393692e+03
2.780000e-06	-4.379649e-06	-2.158147e-08	-3.155553e+01	-1.412618e+03
2.790000e-06	-4.504484e-06	-2.186133e-08	-3.245497e+01	-1.430627e+03
2.800000e-06	-4.627762e-06	-2.212480e-08	-3.334319e+01	-1.447859e+03
2.810000e-06	-4.749388e-06	-2.237251e-08	-3.421952e+01	-1.464366e+03
2.820000e-06	-4.869204e-06	-2.260763e-08	-3.508279e+01	-1.480124e+03
2.830000e-06	-4.987153e-06	-2.283322e-08	-3.593262e+01	-1.495071e+03
2.840000e-06	-5.103106e-06	-2.304799e-08	-3.676806e+01	-1.509140e+03
2.850000e-06	-5.216943e-06	-2.325219e-08	-3.758826e+01	-1.522304e+03
2.860000e-06	-5.328669e-06	-2.344488e-08	-3.839325e+01	-1.534596e+03
2.870000e-06	-5.438413e-06	-2.362494e-08	-3.918397e+01	-1.546106e+03
2.880000e-06	-5.546323e-06	-2.379457e-08	-3.996146e+01	-1.556966e+03
2.890000e-06	-5.652347e-06	-2.395567e-08	-4.072537e+01	-1.567314e+03
2.900000e-06	-5.756317e-06	-2.410960e-08	-4.147448e+01	-1.577263e+03
2.910000e-06	-5.858081e-06	-2.425409e-08	-4.220769e+01	-1.586873e+03
2.920000e-06	-5.957659e-06	-2.439115e-08	-4.292515e+01	-1.596144e+03
2.930000e-06	-6.055174e-06	-2.452285e-08	-4.362775e+01	-1.605023e+03
2.940000e-06	-6.150535e-06	-2.464715e-08	-4.431483e+01	-1.613430e+03
