# Temperatura_=_87.45
# Concentracion g/m^3_=_28200.0
# C_Vs_to_Am_M_A/Vsm_=_65563218390.804596
# pendiente_HvsI_1/m_=_3716.3
# ordenada_HvsI_A/m_=_1297.0
# frecuencia_Hz_=_302513.7250354803

Tiempo_(s)	Campo_(V.s)	Magnetizacion_(V.s)	Campo_(kA/m)	Magnetizacion_(A/m)
0.000000e+00	-7.888344e-06	-3.041772e-08	-5.683630e+01	-1.992194e+03
1.000000e-08	-7.883862e-06	-3.040877e-08	-5.680400e+01	-1.991378e+03
2.000000e-08	-7.876922e-06	-3.039623e-08	-5.675400e+01	-1.990442e+03
3.000000e-08	-7.867256e-06	-3.038158e-08	-5.668435e+01	-1.989454e+03
4.000000e-08	-7.854676e-06	-3.036436e-08	-5.659371e+01	-1.988444e+03
5.000000e-08	-7.839216e-06	-3.034205e-08	-5.648232e+01	-1.987394e+03
6.000000e-08	-7.821170e-06	-3.031542e-08	-5.635230e+01	-1.986245e+03
7.000000e-08	-7.800891e-06	-3.027536e-08	-5.620618e+01	-1.984911e+03
8.000000e-08	-7.778209e-06	-3.026280e-08	-5.604276e+01	-1.983310e+03
9.000000e-08	-7.752544e-06	-3.028366e-08	-5.585784e+01	-1.981386e+03
1.000000e-07	-7.723714e-06	-3.023216e-08	-5.565012e+01	-1.979128e+03
1.100000e-07	-7.692005e-06	-3.017057e-08	-5.542165e+01	-1.976579e+03
1.200000e-07	-7.657502e-06	-3.013738e-08	-5.517305e+01	-1.973817e+03
1.300000e-07	-7.620452e-06	-3.010160e-08	-5.490611e+01	-1.970938e+03
1.400000e-07	-7.581177e-06	-3.003010e-08	-5.462313e+01	-1.968025e+03
1.500000e-07	-7.539587e-06	-2.995774e-08	-5.432347e+01	-1.965121e+03
1.600000e-07	-7.495474e-06	-2.998013e-08	-5.400563e+01	-1.962219e+03
1.700000e-07	-7.448818e-06	-2.987599e-08	-5.366947e+01	-1.959257e+03
1.800000e-07	-7.399441e-06	-2.980492e-08	-5.331370e+01	-1.956140e+03
1.900000e-07	-7.347114e-06	-2.979869e-08	-5.293668e+01	-1.952760e+03
2.000000e-07	-7.291984e-06	-2.970803e-08	-5.253946e+01	-1.949028e+03
2.100000e-07	-7.234189e-06	-2.968204e-08	-5.212304e+01	-1.944898e+03
2.200000e-07	-7.173740e-06	-2.956988e-08	-5.168751e+01	-1.940371e+03
2.300000e-07	-7.110706e-06	-2.946919e-08	-5.123333e+01	-1.935495e+03
2.400000e-07	-7.045003e-06	-2.943664e-08	-5.075994e+01	-1.930344e+03
2.500000e-07	-6.976613e-06	-2.936084e-08	-5.026718e+01	-1.924993e+03
2.600000e-07	-6.905511e-06	-2.925853e-08	-4.975488e+01	-1.919490e+03
2.700000e-07	-6.831619e-06	-2.915200e-08	-4.922249e+01	-1.913845e+03
2.800000e-07	-6.755044e-06	-2.909526e-08	-4.867075e+01	-1.908022e+03
2.900000e-07	-6.675685e-06	-2.897650e-08	-4.809896e+01	-1.901953e+03
3.000000e-07	-6.593658e-06	-2.884227e-08	-4.750795e+01	-1.895559e+03
3.100000e-07	-6.509383e-06	-2.877679e-08	-4.690074e+01	-1.888775e+03
3.200000e-07	-6.422950e-06	-2.869461e-08	-4.627798e+01	-1.881565e+03
3.300000e-07	-6.334264e-06	-2.856529e-08	-4.563899e+01	-1.873938e+03
3.400000e-07	-6.243257e-06	-2.840192e-08	-4.498328e+01	-1.865934e+03
3.500000e-07	-6.149981e-06	-2.830294e-08	-4.431122e+01	-1.857612e+03
3.600000e-07	-6.054444e-06	-2.818788e-08	-4.362286e+01	-1.849024e+03
3.700000e-07	-5.956644e-06	-2.803197e-08	-4.291821e+01	-1.840191e+03
3.800000e-07	-5.856694e-06	-2.789666e-08	-4.219805e+01	-1.831094e+03
3.900000e-07	-5.754695e-06	-2.776136e-08	-4.146314e+01	-1.821675e+03
4.000000e-07	-5.650654e-06	-2.760314e-08	-4.071352e+01	-1.811848e+03
4.100000e-07	-5.544590e-06	-2.742542e-08	-3.994932e+01	-1.801524e+03
4.200000e-07	-5.436610e-06	-2.727502e-08	-3.917131e+01	-1.790639e+03
4.300000e-07	-5.326768e-06	-2.710022e-08	-3.837989e+01	-1.779166e+03
4.400000e-07	-5.214930e-06	-2.690990e-08	-3.757408e+01	-1.767126e+03
4.500000e-07	-5.101032e-06	-2.672333e-08	-3.675344e+01	-1.754573e+03
4.600000e-07	-4.985221e-06	-2.653504e-08	-3.591900e+01	-1.741569e+03
4.700000e-07	-4.867574e-06	-2.632828e-08	-3.507135e+01	-1.728158e+03
4.800000e-07	-4.748129e-06	-2.611328e-08	-3.421074e+01	-1.714338e+03
4.900000e-07	-4.626981e-06	-2.590238e-08	-3.333785e+01	-1.700052e+03
5.000000e-07	-4.504121e-06	-2.566722e-08	-3.245263e+01	-1.685189e+03
5.100000e-07	-4.379595e-06	-2.541423e-08	-3.155541e+01	-1.669612e+03
5.200000e-07	-4.253557e-06	-2.515677e-08	-3.064729e+01	-1.653183e+03
5.300000e-07	-4.125944e-06	-2.489732e-08	-2.972784e+01	-1.635805e+03
5.400000e-07	-3.996770e-06	-2.461420e-08	-2.879712e+01	-1.617436e+03
5.500000e-07	-3.866020e-06	-2.431777e-08	-2.785505e+01	-1.598098e+03
5.600000e-07	-3.733738e-06	-2.401595e-08	-2.690195e+01	-1.577856e+03
5.700000e-07	-3.600141e-06	-2.370121e-08	-2.593937e+01	-1.556786e+03
5.800000e-07	-3.465203e-06	-2.336832e-08	-2.496713e+01	-1.534927e+03
5.900000e-07	-3.328929e-06	-2.301741e-08	-2.398526e+01	-1.512252e+03
6.000000e-07	-3.191342e-06	-2.265148e-08	-2.299394e+01	-1.488640e+03
6.100000e-07	-3.052465e-06	-2.226426e-08	-2.199331e+01	-1.463888e+03
6.200000e-07	-2.912304e-06	-2.185672e-08	-2.098344e+01	-1.437739e+03
6.300000e-07	-2.770831e-06	-2.142581e-08	-1.996411e+01	-1.409926e+03
6.400000e-07	-2.628211e-06	-2.097334e-08	-1.893652e+01	-1.380223e+03
6.500000e-07	-2.484606e-06	-2.049524e-08	-1.790183e+01	-1.348477e+03
6.600000e-07	-2.340115e-06	-1.998385e-08	-1.686076e+01	-1.314613e+03
6.700000e-07	-2.194895e-06	-1.943814e-08	-1.581444e+01	-1.278606e+03
6.800000e-07	-2.048911e-06	-1.885934e-08	-1.476261e+01	-1.240430e+03
6.900000e-07	-1.902134e-06	-1.824658e-08	-1.370507e+01	-1.199989e+03
7.000000e-07	-1.754757e-06	-1.758746e-08	-1.264320e+01	-1.157059e+03
7.100000e-07	-1.606896e-06	-1.687942e-08	-1.157784e+01	-1.111260e+03
7.200000e-07	-1.458564e-06	-1.611873e-08	-1.050910e+01	-1.062071e+03
7.300000e-07	-1.309763e-06	-1.529862e-08	-9.436974e+00	-1.008902e+03
7.400000e-07	-1.160568e-06	-1.441059e-08	-8.362007e+00	-9.511932e+02
7.500000e-07	-1.011027e-06	-1.345457e-08	-7.284550e+00	-8.885392e+02
7.600000e-07	-8.611301e-07	-1.243579e-08	-6.204527e+00	-8.207997e+02
7.700000e-07	-7.109307e-07	-1.134466e-08	-5.122326e+00	-7.481620e+02
7.800000e-07	-5.604691e-07	-1.017910e-08	-4.038235e+00	-6.711407e+02
7.900000e-07	-4.098025e-07	-8.951153e-09	-2.952667e+00	-5.905038e+02
8.000000e-07	-2.590255e-07	-7.675422e-09	-1.866304e+00	-5.071380e+02
8.100000e-07	-1.081419e-07	-6.361462e-09	-7.791728e-01	-4.218809e+02
8.200000e-07	4.286814e-08	-5.027314e-09	3.088691e-01	-3.353601e+02
8.300000e-07	1.939345e-07	-3.687156e-09	1.397317e+00	-2.478784e+02
8.400000e-07	3.449559e-07	-2.341968e-09	2.485441e+00	-1.593776e+02
8.500000e-07	4.958768e-07	-9.827350e-10	3.572841e+00	-6.949548e+01
8.600000e-07	6.466068e-07	3.989504e-10	4.658866e+00	2.229252e+01
8.700000e-07	7.971268e-07	1.814335e-09	5.743377e+00	1.164747e+02
8.800000e-07	9.474229e-07	3.277280e-09	6.826275e+00	2.132923e+02
8.900000e-07	1.097377e-06	4.786040e-09	7.906711e+00	3.125648e+02
9.000000e-07	1.246948e-06	6.331740e-09	8.984380e+00	4.135943e+02
9.100000e-07	1.396065e-06	7.894705e-09	1.005878e+01	5.151737e+02
9.200000e-07	1.544693e-06	9.444187e-09	1.112966e+01	6.157019e+02
9.300000e-07	1.692821e-06	1.094140e-08	1.219694e+01	7.133839e+02
9.400000e-07	1.840369e-06	1.235280e-08	1.326004e+01	8.064753e+02
9.500000e-07	1.987264e-06	1.365942e-08	1.431843e+01	8.935215e+02
9.600000e-07	2.133452e-06	1.485271e-08	1.537173e+01	9.735428e+02
9.700000e-07	2.278808e-06	1.593446e-08	1.641904e+01	1.046131e+03
9.800000e-07	2.423312e-06	1.691472e-08	1.746020e+01	1.111441e+03
9.900000e-07	2.566936e-06	1.780870e-08	1.849502e+01	1.170091e+03
1.000000e-06	2.709571e-06	1.862443e-08	1.952272e+01	1.222994e+03
1.010000e-06	2.851158e-06	1.936931e-08	2.054287e+01	1.271160e+03
1.020000e-06	2.991489e-06	2.005266e-08	2.155397e+01	1.315524e+03
1.030000e-06	3.130570e-06	2.068360e-08	2.255607e+01	1.356817e+03
1.040000e-06	3.268424e-06	2.126941e-08	2.354931e+01	1.395511e+03
1.050000e-06	3.405014e-06	2.181415e-08	2.453346e+01	1.431838e+03
1.060000e-06	3.540312e-06	2.232201e-08	2.550829e+01	1.465854e+03
1.070000e-06	3.674273e-06	2.279340e-08	2.647350e+01	1.497545e+03
1.080000e-06	3.806943e-06	2.323279e-08	2.742940e+01	1.526917e+03
1.090000e-06	3.938276e-06	2.364278e-08	2.837567e+01	1.554062e+03
1.100000e-06	4.068215e-06	2.402790e-08	2.931189e+01	1.579182e+03
1.110000e-06	4.196738e-06	2.439202e-08	3.023791e+01	1.602569e+03
1.120000e-06	4.323736e-06	2.473765e-08	3.115294e+01	1.624552e+03
1.130000e-06	4.449235e-06	2.506525e-08	3.205717e+01	1.645432e+03
1.140000e-06	4.573266e-06	2.537285e-08	3.295083e+01	1.665428e+03
1.150000e-06	4.695713e-06	2.566074e-08	3.383307e+01	1.684648e+03
1.160000e-06	4.816530e-06	2.593162e-08	3.470357e+01	1.703089e+03
1.170000e-06	4.935562e-06	2.618858e-08	3.556121e+01	1.720677e+03
1.180000e-06	5.052689e-06	2.643329e-08	3.640512e+01	1.737307e+03
1.190000e-06	5.167942e-06	2.666816e-08	3.723553e+01	1.752909e+03
1.200000e-06	5.281295e-06	2.689277e-08	3.805225e+01	1.767474e+03
1.210000e-06	5.392668e-06	2.710466e-08	3.885471e+01	1.781079e+03
1.220000e-06	5.502110e-06	2.730412e-08	3.964324e+01	1.793864e+03
1.230000e-06	5.609591e-06	2.749262e-08	4.041766e+01	1.806007e+03
1.240000e-06	5.715036e-06	2.767068e-08	4.117739e+01	1.817673e+03
1.250000e-06	5.818406e-06	2.784198e-08	4.192218e+01	1.828979e+03
1.260000e-06	5.919615e-06	2.800682e-08	4.265141e+01	1.839966e+03
1.270000e-06	6.018601e-06	2.816450e-08	4.336462e+01	1.850603e+03
1.280000e-06	6.115241e-06	2.831564e-08	4.406091e+01	1.860807e+03
1.290000e-06	6.209591e-06	2.846175e-08	4.474072e+01	1.870475e+03
1.300000e-06	6.301786e-06	2.860133e-08	4.540499e+01	1.879524e+03
1.310000e-06	6.391773e-06	2.873199e-08	4.605335e+01	1.887924e+03
1.320000e-06	6.479489e-06	2.885504e-08	4.668536e+01	1.895704e+03
1.330000e-06	6.564952e-06	2.897213e-08	4.730112e+01	1.902950e+03
1.340000e-06	6.648139e-06	2.908253e-08	4.790049e+01	1.909777e+03
1.350000e-06	6.728895e-06	2.918551e-08	4.848235e+01	1.916302e+03
1.360000e-06	6.807129e-06	2.928227e-08	4.904603e+01	1.922608e+03
1.370000e-06	6.882824e-06	2.937356e-08	4.959142e+01	1.928729e+03
1.380000e-06	6.955956e-06	2.945921e-08	5.011835e+01	1.934649e+03
1.390000e-06	7.026572e-06	2.954016e-08	5.062715e+01	1.940312e+03
1.400000e-06	7.094706e-06	2.961734e-08	5.111806e+01	1.945650e+03
1.410000e-06	7.160257e-06	2.969273e-08	5.159035e+01	1.950614e+03
1.420000e-06	7.223212e-06	2.976536e-08	5.204395e+01	1.955187e+03
1.430000e-06	7.283721e-06	2.983266e-08	5.247993e+01	1.959399e+03
1.440000e-06	7.341800e-06	2.989503e-08	5.289839e+01	1.963315e+03
1.450000e-06	7.397277e-06	2.995408e-08	5.329811e+01	1.967019e+03
1.460000e-06	7.449917e-06	3.000968e-08	5.367738e+01	1.970582e+03
1.470000e-06	7.499489e-06	3.006263e-08	5.403456e+01	1.974043e+03
1.480000e-06	7.546134e-06	3.011366e-08	5.437063e+01	1.977396e+03
1.490000e-06	7.590115e-06	3.016041e-08	5.468753e+01	1.980589e+03
1.500000e-06	7.631395e-06	3.020175e-08	5.498495e+01	1.983546e+03
1.510000e-06	7.669946e-06	3.023718e-08	5.526271e+01	1.986184e+03
1.520000e-06	7.705848e-06	3.026773e-08	5.552139e+01	1.988447e+03
1.530000e-06	7.738970e-06	3.029623e-08	5.576004e+01	1.990319e+03
1.540000e-06	7.769347e-06	3.032399e-08	5.597891e+01	1.991835e+03
1.550000e-06	7.797035e-06	3.034928e-08	5.617840e+01	1.993068e+03
1.560000e-06	7.821830e-06	3.037031e-08	5.635706e+01	1.994110e+03
1.570000e-06	7.843791e-06	3.038746e-08	5.651529e+01	1.995047e+03
1.580000e-06	7.863055e-06	3.040139e-08	5.665408e+01	1.995929e+03
1.590000e-06	7.879498e-06	3.041193e-08	5.677256e+01	1.996763e+03
1.600000e-06	7.892943e-06	3.042019e-08	5.686943e+01	1.997509e+03
1.610000e-06	7.903286e-06	3.042674e-08	5.694395e+01	1.998097e+03
1.620000e-06	7.910583e-06	3.043077e-08	5.699653e+01	1.998449e+03
1.630000e-06	7.915096e-06	3.043281e-08	5.702904e+01	1.998506e+03
1.640000e-06	7.916825e-06	3.043265e-08	5.704150e+01	1.998250e+03
1.650000e-06	7.915744e-06	3.042738e-08	5.703372e+01	1.997706e+03
1.660000e-06	7.912125e-06	3.041858e-08	5.700764e+01	1.996937e+03
1.670000e-06	7.905884e-06	3.041358e-08	5.696267e+01	1.996026e+03
1.680000e-06	7.896934e-06	3.040448e-08	5.689819e+01	1.995046e+03
1.690000e-06	7.885235e-06	3.039048e-08	5.681390e+01	1.994040e+03
1.700000e-06	7.870717e-06	3.037601e-08	5.670929e+01	1.993004e+03
1.710000e-06	7.853695e-06	3.036367e-08	5.658664e+01	1.991890e+03
1.720000e-06	7.834432e-06	3.035691e-08	5.644785e+01	1.990616e+03
1.730000e-06	7.812697e-06	3.028471e-08	5.629125e+01	1.989096e+03
1.740000e-06	7.787834e-06	3.022462e-08	5.611211e+01	1.987266e+03
1.750000e-06	7.759354e-06	3.022690e-08	5.590691e+01	1.985100e+03
1.760000e-06	7.727491e-06	3.020208e-08	5.567733e+01	1.982625e+03
1.770000e-06	7.693046e-06	3.015552e-08	5.542915e+01	1.979913e+03
1.780000e-06	7.656343e-06	3.015215e-08	5.516471e+01	1.977056e+03
1.790000e-06	7.617457e-06	3.014600e-08	5.488453e+01	1.974144e+03
1.800000e-06	7.576678e-06	3.000081e-08	5.459071e+01	1.971235e+03
1.810000e-06	7.533576e-06	3.002617e-08	5.428016e+01	1.968334e+03
1.820000e-06	7.487760e-06	2.998834e-08	5.395005e+01	1.965397e+03
1.830000e-06	7.439296e-06	2.989511e-08	5.360086e+01	1.962333e+03
1.840000e-06	7.387877e-06	2.992356e-08	5.323038e+01	1.959036e+03
1.850000e-06	7.333437e-06	2.976186e-08	5.283813e+01	1.955410e+03
1.860000e-06	7.276252e-06	2.977305e-08	5.242611e+01	1.951394e+03
1.870000e-06	7.216545e-06	2.974742e-08	5.199592e+01	1.946975e+03
1.880000e-06	7.154227e-06	2.963258e-08	5.154691e+01	1.942191e+03
1.890000e-06	7.089071e-06	2.958875e-08	5.107745e+01	1.937109e+03
1.900000e-06	7.021212e-06	2.945921e-08	5.058853e+01	1.931807e+03
1.910000e-06	6.950616e-06	2.942390e-08	5.007987e+01	1.926343e+03
1.920000e-06	6.877237e-06	2.929638e-08	4.955116e+01	1.920738e+03
1.930000e-06	6.801144e-06	2.922649e-08	4.900291e+01	1.914970e+03
1.940000e-06	6.722351e-06	2.919746e-08	4.843520e+01	1.908978e+03
1.950000e-06	6.641082e-06	2.904314e-08	4.784965e+01	1.902683e+03
1.960000e-06	6.557425e-06	2.892823e-08	4.724689e+01	1.896013e+03
1.970000e-06	6.471298e-06	2.880324e-08	4.662634e+01	1.888924e+03
1.980000e-06	6.382762e-06	2.874287e-08	4.598842e+01	1.881412e+03
1.990000e-06	6.292044e-06	2.860786e-08	4.533479e+01	1.873508e+03
2.000000e-06	6.199120e-06	2.848431e-08	4.466527e+01	1.865269e+03
2.010000e-06	6.103865e-06	2.837818e-08	4.397895e+01	1.856751e+03
2.020000e-06	6.006435e-06	2.822160e-08	4.327696e+01	1.847986e+03
2.030000e-06	5.906963e-06	2.807257e-08	4.256025e+01	1.838968e+03
2.040000e-06	5.805405e-06	2.792764e-08	4.182851e+01	1.829647e+03
2.050000e-06	5.701697e-06	2.780520e-08	4.108129e+01	1.819944e+03
2.060000e-06	5.596031e-06	2.762141e-08	4.031996e+01	1.809769e+03
2.070000e-06	5.488516e-06	2.746058e-08	3.954530e+01	1.799046e+03
2.080000e-06	5.379084e-06	2.729993e-08	3.875683e+01	1.787739e+03
2.090000e-06	5.267632e-06	2.712936e-08	3.795380e+01	1.775856e+03
2.100000e-06	5.154188e-06	2.693777e-08	3.713643e+01	1.763441e+03
2.110000e-06	5.038867e-06	2.674588e-08	3.630553e+01	1.750558e+03
2.120000e-06	4.921539e-06	2.654803e-08	3.546017e+01	1.737260e+03
2.130000e-06	4.802254e-06	2.632242e-08	3.460072e+01	1.723558e+03
2.140000e-06	4.681202e-06	2.610728e-08	3.372852e+01	1.709412e+03
2.150000e-06	4.558489e-06	2.588918e-08	3.284436e+01	1.694726e+03
2.160000e-06	4.434120e-06	2.565833e-08	3.194827e+01	1.679366e+03
2.170000e-06	4.308108e-06	2.540001e-08	3.104034e+01	1.663191e+03
2.180000e-06	4.180488e-06	2.514403e-08	3.012082e+01	1.646090e+03
2.190000e-06	4.051350e-06	2.487557e-08	2.919038e+01	1.628002e+03
2.200000e-06	3.920752e-06	2.459440e-08	2.824941e+01	1.608934e+03
2.210000e-06	3.788702e-06	2.429458e-08	2.729797e+01	1.588940e+03
2.220000e-06	3.655297e-06	2.398298e-08	2.633678e+01	1.568098e+03
2.230000e-06	3.520472e-06	2.365258e-08	2.536535e+01	1.546463e+03
2.240000e-06	3.384292e-06	2.330450e-08	2.438416e+01	1.524027e+03
2.250000e-06	3.246873e-06	2.294823e-08	2.339404e+01	1.500699e+03
2.260000e-06	3.108125e-06	2.257634e-08	2.239434e+01	1.476296e+03
2.270000e-06	2.968171e-06	2.218508e-08	2.138596e+01	1.450571e+03
2.280000e-06	2.827144e-06	2.176468e-08	2.036985e+01	1.423258e+03
2.290000e-06	2.684963e-06	2.131737e-08	1.934542e+01	1.394112e+03
2.300000e-06	2.541756e-06	2.084550e-08	1.831360e+01	1.362959e+03
2.310000e-06	2.397730e-06	2.034904e-08	1.727588e+01	1.329702e+03
2.320000e-06	2.252891e-06	1.981912e-08	1.623230e+01	1.294307e+03
2.330000e-06	2.107261e-06	1.925289e-08	1.518302e+01	1.256754e+03
2.340000e-06	1.960933e-06	1.864842e-08	1.412871e+01	1.216975e+03
2.350000e-06	1.813951e-06	1.800255e-08	1.306969e+01	1.174787e+03
2.360000e-06	1.666322e-06	1.730904e-08	1.200601e+01	1.129853e+03
2.370000e-06	1.518100e-06	1.656549e-08	1.093806e+01	1.081690e+03
2.380000e-06	1.369424e-06	1.576793e-08	9.866834e+00	1.029718e+03
2.390000e-06	1.220377e-06	1.490641e-08	8.792937e+00	9.733543e+02
2.400000e-06	1.070908e-06	1.397267e-08	7.715996e+00	9.121389e+02
2.410000e-06	9.210144e-07	1.296859e-08	6.636000e+00	8.458464e+02
2.420000e-06	7.707988e-07	1.189745e-08	5.553681e+00	7.745675e+02
2.430000e-06	6.203522e-07	1.075507e-08	4.469698e+00	6.987275e+02
2.440000e-06	4.697154e-07	9.543377e-09	3.384346e+00	6.190336e+02
2.450000e-06	3.188812e-07	8.277463e-09	2.297570e+00	5.363549e+02
2.460000e-06	1.679267e-07	6.971072e-09	1.209929e+00	4.515605e+02
2.470000e-06	1.690024e-08	5.637985e-09	1.217679e-01	3.653525e+02
2.480000e-06	-1.342200e-07	4.291033e-09	-9.670680e-01	2.781340e+02
2.490000e-06	-2.853203e-07	2.937504e-09	-2.055761e+00	1.899483e+02
2.500000e-06	-4.363034e-07	1.572322e-09	-3.143609e+00	1.005088e+02
2.510000e-06	-5.871533e-07	1.880028e-10	-4.230497e+00	9.319050e+00
2.520000e-06	-7.377998e-07	-1.222834e-09	-5.315920e+00	-8.414164e+01
2.530000e-06	-8.882069e-07	-2.672426e-09	-6.399618e+00	-1.802054e+02
2.540000e-06	-1.038319e-06	-4.171172e-09	-7.481192e+00	-2.788260e+02
2.550000e-06	-1.188018e-06	-5.714844e-09	-8.559785e+00	-3.794575e+02
2.560000e-06	-1.337284e-06	-7.282742e-09	-9.635259e+00	-4.810309e+02
2.570000e-06	-1.486127e-06	-8.848250e-09	-1.070769e+01	-5.820402e+02
2.580000e-06	-1.634503e-06	-1.037524e-08	-1.177675e+01	-6.807221e+02
2.590000e-06	-1.782312e-06	-1.182849e-08	-1.284174e+01	-7.752920e+02
2.600000e-06	-1.929378e-06	-1.318185e-08	-1.390136e+01	-8.641906e+02
2.610000e-06	-2.075648e-06	-1.442545e-08	-1.495525e+01	-9.462882e+02
2.620000e-06	-2.221161e-06	-1.555667e-08	-1.600368e+01	-1.021009e+03
2.630000e-06	-2.365860e-06	-1.657975e-08	-1.704625e+01	-1.088355e+03
2.640000e-06	-2.509599e-06	-1.750718e-08	-1.808191e+01	-1.148826e+03
2.650000e-06	-2.652291e-06	-1.835286e-08	-1.911002e+01	-1.203270e+03
2.660000e-06	-2.793952e-06	-1.912597e-08	-2.013070e+01	-1.252690e+03
2.670000e-06	-2.934553e-06	-1.983450e-08	-2.114375e+01	-1.298057e+03
2.680000e-06	-3.073967e-06	-2.048820e-08	-2.214823e+01	-1.340169e+03
2.690000e-06	-3.212117e-06	-2.109255e-08	-2.314362e+01	-1.379575e+03
2.700000e-06	-3.349016e-06	-2.165363e-08	-2.412999e+01	-1.416567e+03
2.710000e-06	-3.484630e-06	-2.217460e-08	-2.510710e+01	-1.451246e+03
2.720000e-06	-3.618925e-06	-2.265921e-08	-2.607471e+01	-1.483605e+03
2.730000e-06	-3.751977e-06	-2.311141e-08	-2.703336e+01	-1.513636e+03
2.740000e-06	-3.883709e-06	-2.353438e-08	-2.798250e+01	-1.541403e+03
2.750000e-06	-4.014049e-06	-2.393303e-08	-2.892161e+01	-1.567077e+03
2.760000e-06	-4.143076e-06	-2.430783e-08	-2.985127e+01	-1.590928e+03
2.770000e-06	-4.270643e-06	-2.465840e-08	-3.077040e+01	-1.613281e+03
2.780000e-06	-4.396686e-06	-2.498738e-08	-3.167856e+01	-1.634451e+03
2.790000e-06	-4.521264e-06	-2.529774e-08	-3.257615e+01	-1.654685e+03
2.800000e-06	-4.644234e-06	-2.559127e-08	-3.346217e+01	-1.674124e+03
2.810000e-06	-4.765540e-06	-2.587153e-08	-3.433618e+01	-1.692795e+03
2.820000e-06	-4.885129e-06	-2.613962e-08	-3.519784e+01	-1.710639e+03
2.830000e-06	-5.002852e-06	-2.639394e-08	-3.604604e+01	-1.727554e+03
2.840000e-06	-5.118517e-06	-2.663372e-08	-3.687942e+01	-1.743456e+03
2.850000e-06	-5.232049e-06	-2.686198e-08	-3.769742e+01	-1.758315e+03
2.860000e-06	-5.343593e-06	-2.707986e-08	-3.850111e+01	-1.772183e+03
2.870000e-06	-5.453155e-06	-2.728573e-08	-3.929052e+01	-1.785187e+03
2.880000e-06	-5.560763e-06	-2.748180e-08	-4.006584e+01	-1.797497e+03
2.890000e-06	-5.666464e-06	-2.766757e-08	-4.082743e+01	-1.809287e+03
2.900000e-06	-5.770081e-06	-2.784317e-08	-4.157400e+01	-1.820689e+03
2.910000e-06	-5.871496e-06	-2.800902e-08	-4.230470e+01	-1.831769e+03
2.920000e-06	-5.970801e-06	-2.816775e-08	-4.302021e+01	-1.842515e+03
2.930000e-06	-6.068057e-06	-2.832042e-08	-4.372095e+01	-1.852855e+03
2.940000e-06	-6.163151e-06	-2.846531e-08	-4.440611e+01	-1.862688e+03
