# Temperatura_=_85.84
# Concentracion g/m^3_=_28200.0
# C_Vs_to_Am_M_A/Vsm_=_65563218390.804596
# pendiente_HvsI_1/m_=_3716.3
# ordenada_HvsI_A/m_=_1297.0
# frecuencia_Hz_=_302513.8167542072

Tiempo_(s)	Campo_(V.s)	Magnetizacion_(V.s)	Campo_(kA/m)	Magnetizacion_(A/m)
0.000000e+00	-7.896785e-06	-2.943554e-08	-5.684118e+01	-1.928399e+03
1.000000e-08	-7.892816e-06	-2.942695e-08	-5.681262e+01	-1.927634e+03
2.000000e-08	-7.886323e-06	-2.941183e-08	-5.676588e+01	-1.926728e+03
3.000000e-08	-7.877160e-06	-2.939605e-08	-5.669992e+01	-1.925744e+03
4.000000e-08	-7.865200e-06	-2.937990e-08	-5.661383e+01	-1.924719e+03
5.000000e-08	-7.850310e-06	-2.936156e-08	-5.650665e+01	-1.923650e+03
6.000000e-08	-7.832678e-06	-2.933960e-08	-5.637974e+01	-1.922496e+03
7.000000e-08	-7.812845e-06	-2.931082e-08	-5.623699e+01	-1.921194e+03
8.000000e-08	-7.790666e-06	-2.928972e-08	-5.607734e+01	-1.919674e+03
9.000000e-08	-7.765566e-06	-2.931378e-08	-5.589667e+01	-1.917887e+03
1.000000e-07	-7.737327e-06	-2.928048e-08	-5.569340e+01	-1.915818e+03
1.100000e-07	-7.706179e-06	-2.920611e-08	-5.546920e+01	-1.913492e+03
1.200000e-07	-7.672201e-06	-2.916255e-08	-5.522463e+01	-1.910968e+03
1.300000e-07	-7.635539e-06	-2.912490e-08	-5.496073e+01	-1.908317e+03
1.400000e-07	-7.596596e-06	-2.906397e-08	-5.468042e+01	-1.905601e+03
1.500000e-07	-7.555432e-06	-2.899650e-08	-5.438412e+01	-1.902851e+03
1.600000e-07	-7.511851e-06	-2.902101e-08	-5.407042e+01	-1.900056e+03
1.700000e-07	-7.465678e-06	-2.895372e-08	-5.373807e+01	-1.897163e+03
1.800000e-07	-7.416820e-06	-2.884766e-08	-5.338639e+01	-1.894090e+03
1.900000e-07	-7.365010e-06	-2.884570e-08	-5.301346e+01	-1.890748e+03
2.000000e-07	-7.310301e-06	-2.876485e-08	-5.261967e+01	-1.887068e+03
2.100000e-07	-7.252957e-06	-2.870090e-08	-5.220690e+01	-1.883019e+03
2.200000e-07	-7.192959e-06	-2.863475e-08	-5.177504e+01	-1.878610e+03
2.300000e-07	-7.130366e-06	-2.853925e-08	-5.132449e+01	-1.873893e+03
2.400000e-07	-7.065076e-06	-2.850600e-08	-5.085453e+01	-1.868937e+03
2.500000e-07	-6.997037e-06	-2.843001e-08	-5.036479e+01	-1.863809e+03
2.600000e-07	-6.926363e-06	-2.833642e-08	-4.985607e+01	-1.858548e+03
2.700000e-07	-6.852950e-06	-2.824238e-08	-4.932764e+01	-1.853154e+03
2.800000e-07	-6.776849e-06	-2.817899e-08	-4.877987e+01	-1.847582e+03
2.900000e-07	-6.698006e-06	-2.808021e-08	-4.821235e+01	-1.841760e+03
3.000000e-07	-6.616421e-06	-2.795093e-08	-4.762510e+01	-1.835609e+03
3.100000e-07	-6.532587e-06	-2.788353e-08	-4.702166e+01	-1.829064e+03
3.200000e-07	-6.446595e-06	-2.779013e-08	-4.640270e+01	-1.822096e+03
3.300000e-07	-6.358271e-06	-2.766081e-08	-4.576694e+01	-1.814719e+03
3.400000e-07	-6.267547e-06	-2.751659e-08	-4.511390e+01	-1.806984e+03
3.500000e-07	-6.174552e-06	-2.741651e-08	-4.444452e+01	-1.798958e+03
3.600000e-07	-6.079421e-06	-2.731151e-08	-4.375977e+01	-1.790702e+03
3.700000e-07	-5.982025e-06	-2.716416e-08	-4.305871e+01	-1.782243e+03
3.800000e-07	-5.882394e-06	-2.703049e-08	-4.234156e+01	-1.773566e+03
3.900000e-07	-5.780764e-06	-2.689838e-08	-4.161003e+01	-1.764606e+03
4.000000e-07	-5.677111e-06	-2.674930e-08	-4.086394e+01	-1.755270e+03
4.100000e-07	-5.571365e-06	-2.658216e-08	-4.010277e+01	-1.745457e+03
4.200000e-07	-5.463666e-06	-2.643800e-08	-3.932755e+01	-1.735089e+03
4.300000e-07	-5.354073e-06	-2.627834e-08	-3.853870e+01	-1.724125e+03
4.400000e-07	-5.242502e-06	-2.609416e-08	-3.773561e+01	-1.712577e+03
4.500000e-07	-5.128941e-06	-2.591080e-08	-3.691820e+01	-1.700498e+03
4.600000e-07	-5.013359e-06	-2.572925e-08	-3.608624e+01	-1.687957e+03
4.700000e-07	-4.895864e-06	-2.553153e-08	-3.524051e+01	-1.675013e+03
4.800000e-07	-4.776626e-06	-2.532242e-08	-3.438223e+01	-1.661683e+03
4.900000e-07	-4.655692e-06	-2.511727e-08	-3.351175e+01	-1.647929e+03
5.000000e-07	-4.533066e-06	-2.489285e-08	-3.262908e+01	-1.633659e+03
5.100000e-07	-4.408753e-06	-2.464953e-08	-3.173428e+01	-1.618740e+03
5.200000e-07	-4.282847e-06	-2.440180e-08	-3.082800e+01	-1.603033e+03
5.300000e-07	-4.155370e-06	-2.415534e-08	-2.991042e+01	-1.586429e+03
5.400000e-07	-4.026354e-06	-2.388678e-08	-2.898176e+01	-1.568867e+03
5.500000e-07	-3.895773e-06	-2.360172e-08	-2.804184e+01	-1.550352e+03
5.600000e-07	-3.763610e-06	-2.331075e-08	-2.709052e+01	-1.530937e+03
5.700000e-07	-3.630064e-06	-2.300812e-08	-2.612926e+01	-1.510695e+03
5.800000e-07	-3.495229e-06	-2.268596e-08	-2.515872e+01	-1.489677e+03
5.900000e-07	-3.359085e-06	-2.234712e-08	-2.417875e+01	-1.467875e+03
6.000000e-07	-3.221657e-06	-2.199940e-08	-2.318954e+01	-1.445199e+03
6.100000e-07	-3.082918e-06	-2.163167e-08	-2.219090e+01	-1.421472e+03
6.200000e-07	-2.942820e-06	-2.124151e-08	-2.118247e+01	-1.396460e+03
6.300000e-07	-2.801410e-06	-2.082859e-08	-2.016460e+01	-1.369905e+03
6.400000e-07	-2.658886e-06	-2.039550e-08	-1.913870e+01	-1.341579e+03
6.500000e-07	-2.515362e-06	-1.993778e-08	-1.810562e+01	-1.311313e+03
6.600000e-07	-2.370927e-06	-1.944857e-08	-1.706597e+01	-1.279015e+03
6.700000e-07	-2.225694e-06	-1.892871e-08	-1.602058e+01	-1.244645e+03
6.800000e-07	-2.079688e-06	-1.837972e-08	-1.496962e+01	-1.208172e+03
6.900000e-07	-1.932924e-06	-1.779725e-08	-1.391322e+01	-1.169514e+03
7.000000e-07	-1.785562e-06	-1.716775e-08	-1.285251e+01	-1.128475e+03
7.100000e-07	-1.637744e-06	-1.648885e-08	-1.178851e+01	-1.084717e+03
7.200000e-07	-1.489465e-06	-1.576054e-08	-1.072119e+01	-1.037763e+03
7.300000e-07	-1.340743e-06	-1.497629e-08	-9.650687e+00	-9.870526e+02
7.400000e-07	-1.191596e-06	-1.412910e-08	-8.577130e+00	-9.320398e+02
7.500000e-07	-1.042018e-06	-1.321868e-08	-7.500461e+00	-8.723047e+02
7.600000e-07	-8.920356e-07	-1.224328e-08	-6.420886e+00	-8.076634e+02
7.700000e-07	-7.417217e-07	-1.119701e-08	-5.338925e+00	-7.382389e+02
7.800000e-07	-5.911173e-07	-1.008008e-08	-4.254871e+00	-6.644730e+02
7.900000e-07	-4.402937e-07	-8.902354e-09	-3.169241e+00	-5.870684e+02
8.000000e-07	-2.892876e-07	-7.675991e-09	-2.082297e+00	-5.068690e+02
8.100000e-07	-1.381582e-07	-6.410970e-09	-9.944652e-01	-4.247026e+02
8.200000e-07	1.302563e-08	-5.124670e-09	9.375866e-02	-3.412222e+02
8.300000e-07	1.642526e-07	-3.829393e-09	1.182293e+00	-2.567844e+02
8.400000e-07	3.154602e-07	-2.527735e-09	2.270688e+00	-1.713988e+02
8.500000e-07	4.665839e-07	-1.214551e-09	3.358478e+00	-8.476487e+01
8.600000e-07	6.175610e-07	1.160493e-10	4.445214e+00	3.606320e+00
8.700000e-07	7.683045e-07	1.476256e-09	5.530268e+00	9.420899e+01
8.800000e-07	9.187939e-07	2.882095e-09	6.613493e+00	1.873386e+02
8.900000e-07	1.069031e-06	4.335937e-09	7.694906e+00	2.829133e+02
9.000000e-07	1.218893e-06	5.826954e-09	8.773613e+00	3.803640e+02
9.100000e-07	1.368244e-06	7.335777e-09	9.848644e+00	4.786206e+02
9.200000e-07	1.517099e-06	8.838459e-09	1.092011e+01	5.762029e+02
9.300000e-07	1.665455e-06	1.029884e-08	1.198797e+01	6.713988e+02
9.400000e-07	1.813289e-06	1.168146e-08	1.305208e+01	7.624946e+02
9.500000e-07	1.960483e-06	1.296838e-08	1.411159e+01	8.480101e+02
9.600000e-07	2.106912e-06	1.415018e-08	1.516559e+01	9.268909e+02
9.700000e-07	2.252535e-06	1.522153e-08	1.621378e+01	9.986214e+02
9.800000e-07	2.397296e-06	1.618987e-08	1.725578e+01	1.063240e+03
9.900000e-07	2.541212e-06	1.707029e-08	1.829168e+01	1.121257e+03
1.000000e-06	2.684281e-06	1.787242e-08	1.932150e+01	1.173507e+03
1.010000e-06	2.826218e-06	1.860669e-08	2.034316e+01	1.220962e+03
1.020000e-06	2.966901e-06	1.928011e-08	2.135580e+01	1.264555e+03
1.030000e-06	3.106403e-06	1.990142e-08	2.235994e+01	1.305044e+03
1.040000e-06	3.244653e-06	2.047649e-08	2.335507e+01	1.342945e+03
1.050000e-06	3.381618e-06	2.101099e-08	2.434094e+01	1.378533e+03
1.060000e-06	3.517266e-06	2.150900e-08	2.531733e+01	1.411898e+03
1.070000e-06	3.651601e-06	2.197238e-08	2.628428e+01	1.443034e+03
1.080000e-06	3.784651e-06	2.240417e-08	2.724198e+01	1.471938e+03
1.090000e-06	3.916355e-06	2.280653e-08	2.818999e+01	1.498674e+03
1.100000e-06	4.046693e-06	2.318514e-08	2.912816e+01	1.523413e+03
1.110000e-06	4.175619e-06	2.354346e-08	3.005618e+01	1.546415e+03
1.120000e-06	4.303068e-06	2.388339e-08	3.097355e+01	1.567990e+03
1.130000e-06	4.429036e-06	2.420363e-08	3.188027e+01	1.588436e+03
1.140000e-06	4.553501e-06	2.450411e-08	3.277617e+01	1.607983e+03
1.150000e-06	4.676429e-06	2.478645e-08	3.366101e+01	1.626759e+03
1.160000e-06	4.797660e-06	2.505182e-08	3.453364e+01	1.644786e+03
1.170000e-06	4.917098e-06	2.530322e-08	3.539335e+01	1.662003e+03
1.180000e-06	5.034712e-06	2.554300e-08	3.623994e+01	1.678315e+03
1.190000e-06	5.150448e-06	2.577245e-08	3.707301e+01	1.693644e+03
1.200000e-06	5.264236e-06	2.599222e-08	3.789205e+01	1.707967e+03
1.210000e-06	5.376017e-06	2.619974e-08	3.869666e+01	1.721337e+03
1.220000e-06	5.485857e-06	2.639521e-08	3.948729e+01	1.733879e+03
1.230000e-06	5.593843e-06	2.657900e-08	4.026457e+01	1.745758e+03
1.240000e-06	5.699838e-06	2.675362e-08	4.102752e+01	1.757137e+03
1.250000e-06	5.803690e-06	2.692132e-08	4.177505e+01	1.768143e+03
1.260000e-06	5.905375e-06	2.708180e-08	4.250698e+01	1.778833e+03
1.270000e-06	6.004853e-06	2.723569e-08	4.322303e+01	1.789194e+03
1.280000e-06	6.102049e-06	2.738379e-08	4.392264e+01	1.799156e+03
1.290000e-06	6.197009e-06	2.752721e-08	4.460617e+01	1.808621e+03
1.300000e-06	6.289816e-06	2.766390e-08	4.527420e+01	1.817503e+03
1.310000e-06	6.380403e-06	2.779140e-08	4.592624e+01	1.825759e+03
1.320000e-06	6.468670e-06	2.791083e-08	4.656159e+01	1.833402e+03
1.330000e-06	6.554607e-06	2.802462e-08	4.718017e+01	1.840504e+03
1.340000e-06	6.638324e-06	2.813507e-08	4.778276e+01	1.847172e+03
1.350000e-06	6.719690e-06	2.823902e-08	4.836843e+01	1.853521e+03
1.360000e-06	6.798511e-06	2.833426e-08	4.893579e+01	1.859642e+03
1.370000e-06	6.874773e-06	2.842286e-08	4.948472e+01	1.865584e+03
1.380000e-06	6.948426e-06	2.850560e-08	5.001488e+01	1.871344e+03
1.390000e-06	7.019509e-06	2.858430e-08	5.052654e+01	1.876879e+03
1.400000e-06	7.088162e-06	2.866051e-08	5.102070e+01	1.882125e+03
1.410000e-06	7.154319e-06	2.873510e-08	5.149690e+01	1.887025e+03
1.420000e-06	7.217907e-06	2.880604e-08	5.195461e+01	1.891552e+03
1.430000e-06	7.279024e-06	2.887204e-08	5.239453e+01	1.895718e+03
1.440000e-06	7.337637e-06	2.893392e-08	5.281643e+01	1.899575e+03
1.450000e-06	7.393644e-06	2.899244e-08	5.321957e+01	1.903194e+03
1.460000e-06	7.446895e-06	2.904774e-08	5.360287e+01	1.906648e+03
1.470000e-06	7.497096e-06	2.909952e-08	5.396421e+01	1.909986e+03
1.480000e-06	7.544318e-06	2.914931e-08	5.430412e+01	1.913215e+03
1.490000e-06	7.588916e-06	2.919523e-08	5.462514e+01	1.916305e+03
1.500000e-06	7.630846e-06	2.923622e-08	5.492695e+01	1.919194e+03
1.510000e-06	7.669961e-06	2.927268e-08	5.520850e+01	1.921807e+03
1.520000e-06	7.706411e-06	2.930510e-08	5.547087e+01	1.924088e+03
1.530000e-06	7.740197e-06	2.933447e-08	5.571406e+01	1.926011e+03
1.540000e-06	7.771170e-06	2.936179e-08	5.593701e+01	1.927593e+03
1.550000e-06	7.799429e-06	2.938775e-08	5.614042e+01	1.928889e+03
1.560000e-06	7.824908e-06	2.941123e-08	5.632381e+01	1.929977e+03
1.570000e-06	7.847475e-06	2.942951e-08	5.648625e+01	1.930933e+03
1.580000e-06	7.867317e-06	2.944271e-08	5.662907e+01	1.931811e+03
1.590000e-06	7.884335e-06	2.945405e-08	5.675157e+01	1.932624e+03
1.600000e-06	7.898334e-06	2.946426e-08	5.685233e+01	1.933349e+03
1.610000e-06	7.909316e-06	2.947106e-08	5.693138e+01	1.933929e+03
1.620000e-06	7.917226e-06	2.947392e-08	5.698832e+01	1.934295e+03
1.630000e-06	7.922271e-06	2.947510e-08	5.702464e+01	1.934391e+03
1.640000e-06	7.924614e-06	2.947626e-08	5.704150e+01	1.934193e+03
1.650000e-06	7.924149e-06	2.947524e-08	5.703815e+01	1.933713e+03
1.660000e-06	7.921010e-06	2.946545e-08	5.701556e+01	1.933001e+03
1.670000e-06	7.915167e-06	2.945718e-08	5.697350e+01	1.932127e+03
1.680000e-06	7.906664e-06	2.944697e-08	5.691229e+01	1.931158e+03
1.690000e-06	7.895552e-06	2.943227e-08	5.683231e+01	1.930141e+03
1.700000e-06	7.881555e-06	2.941636e-08	5.673156e+01	1.929086e+03
1.710000e-06	7.864914e-06	2.940271e-08	5.661178e+01	1.927960e+03
1.720000e-06	7.846040e-06	2.939159e-08	5.647592e+01	1.926706e+03
1.730000e-06	7.824810e-06	2.933752e-08	5.632311e+01	1.925253e+03
1.740000e-06	7.800566e-06	2.925354e-08	5.614860e+01	1.923544e+03
1.750000e-06	7.772773e-06	2.925435e-08	5.594854e+01	1.921553e+03
1.760000e-06	7.741460e-06	2.925442e-08	5.572315e+01	1.919295e+03
1.770000e-06	7.707320e-06	2.921692e-08	5.547741e+01	1.916819e+03
1.780000e-06	7.671045e-06	2.920713e-08	5.521631e+01	1.914195e+03
1.790000e-06	7.632543e-06	2.921613e-08	5.493917e+01	1.911491e+03
1.800000e-06	7.592017e-06	2.908886e-08	5.464746e+01	1.908748e+03
1.810000e-06	7.549328e-06	2.903757e-08	5.434018e+01	1.905969e+03
1.820000e-06	7.503899e-06	2.906317e-08	5.401319e+01	1.903109e+03
1.830000e-06	7.455876e-06	2.895906e-08	5.366751e+01	1.900095e+03
1.840000e-06	7.405013e-06	2.897578e-08	5.330140e+01	1.896837e+03
1.850000e-06	7.351093e-06	2.887634e-08	5.291328e+01	1.893257e+03
1.860000e-06	7.294399e-06	2.882142e-08	5.250520e+01	1.889313e+03
1.870000e-06	7.235163e-06	2.882359e-08	5.207882e+01	1.885001e+03
1.880000e-06	7.173339e-06	2.867277e-08	5.163381e+01	1.880364e+03
1.890000e-06	7.108680e-06	2.863066e-08	5.116839e+01	1.875468e+03
1.900000e-06	7.041296e-06	2.853258e-08	5.068336e+01	1.870382e+03
1.910000e-06	6.971214e-06	2.846275e-08	5.017891e+01	1.865155e+03
1.920000e-06	6.898351e-06	2.838770e-08	4.965444e+01	1.859800e+03
1.930000e-06	6.822816e-06	2.828782e-08	4.911074e+01	1.854283e+03
1.940000e-06	6.744507e-06	2.826426e-08	4.854707e+01	1.848540e+03
1.950000e-06	6.663621e-06	2.810955e-08	4.796485e+01	1.842489e+03
1.960000e-06	6.580338e-06	2.799850e-08	4.736538e+01	1.836060e+03
1.970000e-06	6.494606e-06	2.790187e-08	4.674828e+01	1.829211e+03
1.980000e-06	6.406461e-06	2.781495e-08	4.611381e+01	1.821946e+03
1.990000e-06	6.316021e-06	2.770872e-08	4.546282e+01	1.814305e+03
2.000000e-06	6.223463e-06	2.756456e-08	4.479659e+01	1.806354e+03
2.010000e-06	6.128610e-06	2.746716e-08	4.411383e+01	1.798157e+03
2.020000e-06	6.031506e-06	2.732038e-08	4.341488e+01	1.789754e+03
2.030000e-06	5.932329e-06	2.718975e-08	4.270100e+01	1.781142e+03
2.040000e-06	5.831090e-06	2.706175e-08	4.197228e+01	1.772270e+03
2.050000e-06	5.727739e-06	2.693906e-08	4.122836e+01	1.763050e+03
2.060000e-06	5.622369e-06	2.676381e-08	4.046990e+01	1.753382e+03
2.070000e-06	5.515080e-06	2.658418e-08	3.969764e+01	1.743177e+03
2.080000e-06	5.405905e-06	2.643120e-08	3.891179e+01	1.732382e+03
2.090000e-06	5.294805e-06	2.626471e-08	3.811209e+01	1.720996e+03
2.100000e-06	5.181631e-06	2.609371e-08	3.729746e+01	1.709060e+03
2.110000e-06	5.066561e-06	2.591166e-08	3.646919e+01	1.696643e+03
2.120000e-06	4.949602e-06	2.573127e-08	3.562731e+01	1.683808e+03
2.130000e-06	4.830641e-06	2.551431e-08	3.477103e+01	1.670588e+03
2.140000e-06	4.709813e-06	2.530000e-08	3.390131e+01	1.656961e+03
2.150000e-06	4.587311e-06	2.508813e-08	3.301954e+01	1.642849e+03
2.160000e-06	4.463190e-06	2.486550e-08	3.212611e+01	1.628128e+03
2.170000e-06	4.337443e-06	2.461693e-08	3.122099e+01	1.612658e+03
2.180000e-06	4.210025e-06	2.436454e-08	3.030383e+01	1.596317e+03
2.190000e-06	4.080988e-06	2.411048e-08	2.937502e+01	1.579030e+03
2.200000e-06	3.950534e-06	2.384229e-08	2.843601e+01	1.560782e+03
2.210000e-06	3.818632e-06	2.356004e-08	2.748657e+01	1.541615e+03
2.220000e-06	3.685271e-06	2.326363e-08	2.652664e+01	1.521601e+03
2.230000e-06	3.550550e-06	2.295183e-08	2.555692e+01	1.500800e+03
2.240000e-06	3.414441e-06	2.261589e-08	2.457720e+01	1.479226e+03
2.250000e-06	3.277021e-06	2.227016e-08	2.358805e+01	1.456813e+03
2.260000e-06	3.138442e-06	2.190930e-08	2.259055e+01	1.433407e+03
2.270000e-06	2.998678e-06	2.153179e-08	2.158453e+01	1.408786e+03
2.280000e-06	2.857695e-06	2.112954e-08	2.056974e+01	1.382696e+03
2.290000e-06	2.715624e-06	2.070449e-08	1.954711e+01	1.354894e+03
2.300000e-06	2.572559e-06	2.025797e-08	1.851732e+01	1.325194e+03
2.310000e-06	2.428561e-06	1.978551e-08	1.748082e+01	1.293481e+03
2.320000e-06	2.283656e-06	1.927857e-08	1.643779e+01	1.259703e+03
2.330000e-06	2.137968e-06	1.873547e-08	1.538913e+01	1.223835e+03
2.340000e-06	1.991649e-06	1.815791e-08	1.433592e+01	1.185814e+03
2.350000e-06	1.844639e-06	1.754157e-08	1.327774e+01	1.145482e+03
2.360000e-06	1.696948e-06	1.687987e-08	1.221466e+01	1.102542e+03
2.370000e-06	1.548691e-06	1.617030e-08	1.114750e+01	1.056554e+03
2.380000e-06	1.399971e-06	1.540894e-08	1.007701e+01	1.006974e+03
2.390000e-06	1.250835e-06	1.458449e-08	9.003528e+00	9.532396e+02
2.400000e-06	1.101279e-06	1.369151e-08	7.927024e+00	8.948830e+02
2.410000e-06	9.513501e-07	1.273561e-08	6.847833e+00	8.316435e+02
2.420000e-06	8.011302e-07	1.171753e-08	5.766548e+00	7.635524e+02
2.430000e-06	6.506212e-07	1.062958e-08	4.683182e+00	6.909632e+02
2.440000e-06	4.998548e-07	9.469738e-09	3.597963e+00	6.145140e+02
2.450000e-06	3.489141e-07	8.251923e-09	2.511489e+00	5.350232e+02
2.460000e-06	1.978716e-07	6.995056e-09	1.424283e+00	4.533402e+02
2.470000e-06	4.674262e-08	5.709688e-09	3.364541e-01	3.701826e+02
2.480000e-06	-1.044532e-07	4.408218e-09	-7.518556e-01	2.860005e+02
2.490000e-06	-2.556407e-07	3.098414e-09	-1.840106e+00	2.009029e+02
2.500000e-06	-4.067718e-07	1.778866e-09	-2.927950e+00	1.146687e+02
2.510000e-06	-5.578307e-07	4.450599e-10	-4.015274e+00	2.684634e+01
2.520000e-06	-7.086879e-07	-9.104630e-10	-5.101147e+00	-6.307776e+01
2.530000e-06	-8.593006e-07	-2.300666e-09	-6.185259e+00	-1.554760e+02
2.540000e-06	-1.009640e-06	-3.739494e-09	-7.267402e+00	-2.503894e+02
2.550000e-06	-1.159561e-06	-5.224629e-09	-8.346542e+00	-3.473938e+02
2.560000e-06	-1.308998e-06	-6.739437e-09	-9.422190e+00	-4.455574e+02
2.570000e-06	-1.457987e-06	-8.259373e-09	-1.049461e+01	-5.435026e+02
2.580000e-06	-1.606562e-06	-9.748782e-09	-1.156406e+01	-6.395613e+02
2.590000e-06	-1.754590e-06	-1.117182e-08	-1.262957e+01	-7.319956e+02
2.600000e-06	-1.901924e-06	-1.250221e-08	-1.369008e+01	-8.192362e+02
2.610000e-06	-2.048452e-06	-1.372742e-08	-1.474479e+01	-9.000915e+02
2.620000e-06	-2.194200e-06	-1.484313e-08	-1.579389e+01	-9.738861e+02
2.630000e-06	-2.339173e-06	-1.585237e-08	-1.683740e+01	-1.040504e+03
2.640000e-06	-2.483290e-06	-1.676616e-08	-1.787476e+01	-1.100335e+03
2.650000e-06	-2.626416e-06	-1.759882e-08	-1.890499e+01	-1.154137e+03
2.660000e-06	-2.768431e-06	-1.835948e-08	-1.992721e+01	-1.202865e+03
2.670000e-06	-2.909336e-06	-1.905687e-08	-2.094145e+01	-1.247475e+03
2.680000e-06	-3.049104e-06	-1.970134e-08	-2.194750e+01	-1.288789e+03
2.690000e-06	-3.187614e-06	-2.029771e-08	-2.294450e+01	-1.327393e+03
2.700000e-06	-3.324821e-06	-2.084965e-08	-2.393211e+01	-1.363628e+03
2.710000e-06	-3.460835e-06	-2.136005e-08	-2.491114e+01	-1.397628e+03
2.720000e-06	-3.595617e-06	-2.183377e-08	-2.588131e+01	-1.429404e+03
2.730000e-06	-3.729110e-06	-2.227616e-08	-2.684220e+01	-1.458945e+03
2.740000e-06	-3.861323e-06	-2.269061e-08	-2.779387e+01	-1.486290e+03
2.750000e-06	-3.992145e-06	-2.308109e-08	-2.873553e+01	-1.511578e+03
2.760000e-06	-4.121534e-06	-2.344823e-08	-2.966686e+01	-1.535047e+03
2.770000e-06	-4.249543e-06	-2.379262e-08	-3.058828e+01	-1.556999e+03
2.780000e-06	-4.376145e-06	-2.411752e-08	-3.149956e+01	-1.577742e+03
2.790000e-06	-4.501202e-06	-2.442460e-08	-3.239972e+01	-1.597529e+03
2.800000e-06	-4.624644e-06	-2.471475e-08	-3.328826e+01	-1.616521e+03
2.810000e-06	-4.746424e-06	-2.498966e-08	-3.416483e+01	-1.634766e+03
2.820000e-06	-4.866446e-06	-2.524960e-08	-3.502876e+01	-1.652225e+03
2.830000e-06	-4.984609e-06	-2.549603e-08	-3.587930e+01	-1.668807e+03
2.840000e-06	-5.100781e-06	-2.573184e-08	-3.671550e+01	-1.684424e+03
2.850000e-06	-5.214881e-06	-2.595840e-08	-3.753679e+01	-1.699034e+03
2.860000e-06	-5.326860e-06	-2.617375e-08	-3.834282e+01	-1.712668e+03
2.870000e-06	-5.436811e-06	-2.637513e-08	-3.913425e+01	-1.725433e+03
2.880000e-06	-5.544909e-06	-2.656514e-08	-3.991234e+01	-1.737485e+03
2.890000e-06	-5.651120e-06	-2.674735e-08	-4.067685e+01	-1.748993e+03
2.900000e-06	-5.755269e-06	-2.692075e-08	-4.142652e+01	-1.760098e+03
2.910000e-06	-5.857197e-06	-2.708333e-08	-4.216020e+01	-1.770878e+03
2.920000e-06	-5.957017e-06	-2.723704e-08	-4.287870e+01	-1.781340e+03
2.930000e-06	-6.054786e-06	-2.738533e-08	-4.358244e+01	-1.791427e+03
2.940000e-06	-6.150328e-06	-2.752658e-08	-4.427016e+01	-1.801045e+03
