# Temperatura_=_28.78
# Concentracion g/m^3_=_28200.0
# C_Vs_to_Am_M_A/Vsm_=_65563218390.804596
# pendiente_HvsI_1/m_=_3716.3
# ordenada_HvsI_A/m_=_1297.0
# frecuencia_Hz_=_302515.04418104654

Tiempo_(s)	Campo_(V.s)	Magnetizacion_(V.s)	Campo_(kA/m)	Magnetizacion_(A/m)
0.000000e+00	-7.898396e-06	-2.480132e-08	-5.684293e+01	-1.623755e+03
1.000000e-08	-7.894232e-06	-2.479469e-08	-5.681297e+01	-1.623250e+03
2.000000e-08	-7.887546e-06	-2.478407e-08	-5.676485e+01	-1.622626e+03
3.000000e-08	-7.878223e-06	-2.477371e-08	-5.669776e+01	-1.621920e+03
4.000000e-08	-7.866010e-06	-2.476230e-08	-5.660986e+01	-1.621158e+03
5.000000e-08	-7.850769e-06	-2.474749e-08	-5.650017e+01	-1.620343e+03
6.000000e-08	-7.832898e-06	-2.472598e-08	-5.637157e+01	-1.619454e+03
7.000000e-08	-7.812909e-06	-2.469818e-08	-5.622771e+01	-1.618457e+03
8.000000e-08	-7.790596e-06	-2.468371e-08	-5.606713e+01	-1.617312e+03
9.000000e-08	-7.765334e-06	-2.471083e-08	-5.588532e+01	-1.615988e+03
1.000000e-07	-7.736858e-06	-2.467962e-08	-5.568038e+01	-1.614478e+03
1.100000e-07	-7.705453e-06	-2.462205e-08	-5.545437e+01	-1.612795e+03
1.200000e-07	-7.671244e-06	-2.459688e-08	-5.520818e+01	-1.610976e+03
1.300000e-07	-7.634371e-06	-2.457269e-08	-5.494281e+01	-1.609066e+03
1.400000e-07	-7.595151e-06	-2.451074e-08	-5.466055e+01	-1.607103e+03
1.500000e-07	-7.553730e-06	-2.444541e-08	-5.436245e+01	-1.605103e+03
1.600000e-07	-7.510039e-06	-2.450625e-08	-5.404802e+01	-1.603054e+03
1.700000e-07	-7.463748e-06	-2.445298e-08	-5.371487e+01	-1.600914e+03
1.800000e-07	-7.414653e-06	-2.436891e-08	-5.336155e+01	-1.598617e+03
1.900000e-07	-7.362657e-06	-2.437884e-08	-5.298735e+01	-1.596097e+03
2.000000e-07	-7.307853e-06	-2.428524e-08	-5.259293e+01	-1.593297e+03
2.100000e-07	-7.250398e-06	-2.423028e-08	-5.217945e+01	-1.590191e+03
2.200000e-07	-7.190236e-06	-2.416028e-08	-5.174647e+01	-1.586787e+03
2.300000e-07	-7.127465e-06	-2.409461e-08	-5.129472e+01	-1.583127e+03
2.400000e-07	-7.062020e-06	-2.409120e-08	-5.082373e+01	-1.579272e+03
2.500000e-07	-6.993858e-06	-2.402896e-08	-5.033318e+01	-1.575283e+03
2.600000e-07	-6.923026e-06	-2.397272e-08	-4.982343e+01	-1.571202e+03
2.700000e-07	-6.849429e-06	-2.389571e-08	-4.929376e+01	-1.567040e+03
2.800000e-07	-6.773061e-06	-2.382890e-08	-4.874416e+01	-1.562770e+03
2.900000e-07	-6.693882e-06	-2.374864e-08	-4.817433e+01	-1.558333e+03
3.000000e-07	-6.612073e-06	-2.366836e-08	-4.758557e+01	-1.553657e+03
3.100000e-07	-6.528058e-06	-2.361902e-08	-4.698093e+01	-1.548672e+03
3.200000e-07	-6.441901e-06	-2.353443e-08	-4.636088e+01	-1.543332e+03
3.300000e-07	-6.353416e-06	-2.345247e-08	-4.572408e+01	-1.537625e+03
3.400000e-07	-6.262548e-06	-2.332764e-08	-4.507012e+01	-1.531574e+03
3.500000e-07	-6.169513e-06	-2.322639e-08	-4.440057e+01	-1.525226e+03
3.600000e-07	-6.074301e-06	-2.314857e-08	-4.371535e+01	-1.518635e+03
3.700000e-07	-5.976717e-06	-2.304707e-08	-4.301306e+01	-1.511841e+03
3.800000e-07	-5.876916e-06	-2.293729e-08	-4.229481e+01	-1.504857e+03
3.900000e-07	-5.775096e-06	-2.282377e-08	-4.156204e+01	-1.497657e+03
4.000000e-07	-5.671226e-06	-2.271031e-08	-4.081451e+01	-1.490183e+03
4.100000e-07	-5.565355e-06	-2.257002e-08	-4.005258e+01	-1.482360e+03
4.200000e-07	-5.457537e-06	-2.244504e-08	-3.927664e+01	-1.474113e+03
4.300000e-07	-5.347797e-06	-2.231913e-08	-3.848687e+01	-1.465389e+03
4.400000e-07	-5.236060e-06	-2.218526e-08	-3.768272e+01	-1.456165e+03
4.500000e-07	-5.122272e-06	-2.203561e-08	-3.686381e+01	-1.446454e+03
4.600000e-07	-5.006511e-06	-2.188183e-08	-3.603071e+01	-1.436290e+03
4.700000e-07	-4.888869e-06	-2.172225e-08	-3.518406e+01	-1.425714e+03
4.800000e-07	-4.769478e-06	-2.155241e-08	-3.432483e+01	-1.414750e+03
4.900000e-07	-4.648382e-06	-2.137793e-08	-3.345333e+01	-1.403391e+03
5.000000e-07	-4.525560e-06	-2.119192e-08	-3.256942e+01	-1.391587e+03
5.100000e-07	-4.401018e-06	-2.100083e-08	-3.167311e+01	-1.379258e+03
5.200000e-07	-4.274919e-06	-2.079596e-08	-3.076561e+01	-1.366302e+03
5.300000e-07	-4.147311e-06	-2.058706e-08	-2.984724e+01	-1.352624e+03
5.400000e-07	-4.018185e-06	-2.036396e-08	-2.891795e+01	-1.338153e+03
5.500000e-07	-3.887551e-06	-2.012959e-08	-2.797781e+01	-1.322856e+03
5.600000e-07	-3.755326e-06	-1.988396e-08	-2.702622e+01	-1.306737e+03
5.700000e-07	-3.621667e-06	-1.962745e-08	-2.606430e+01	-1.289824e+03
5.800000e-07	-3.486729e-06	-1.935699e-08	-2.509318e+01	-1.272144e+03
5.900000e-07	-3.350340e-06	-1.907099e-08	-2.411163e+01	-1.253693e+03
6.000000e-07	-3.212640e-06	-1.877413e-08	-2.312063e+01	-1.234419e+03
6.100000e-07	-3.073757e-06	-1.846048e-08	-2.212112e+01	-1.214209e+03
6.200000e-07	-2.933427e-06	-1.813135e-08	-2.111120e+01	-1.192899e+03
6.300000e-07	-2.791738e-06	-1.778135e-08	-2.009149e+01	-1.170292e+03
6.400000e-07	-2.648958e-06	-1.741177e-08	-1.906394e+01	-1.146191e+03
6.500000e-07	-2.505251e-06	-1.701834e-08	-1.802971e+01	-1.120422e+03
6.600000e-07	-2.360690e-06	-1.659818e-08	-1.698934e+01	-1.092851e+03
6.700000e-07	-2.215236e-06	-1.614896e-08	-1.594254e+01	-1.063379e+03
6.800000e-07	-2.069024e-06	-1.567174e-08	-1.489029e+01	-1.031922e+03
6.900000e-07	-1.922249e-06	-1.516616e-08	-1.383399e+01	-9.983737e+02
7.000000e-07	-1.774917e-06	-1.462248e-08	-1.277367e+01	-9.625695e+02
7.100000e-07	-1.627004e-06	-1.403439e-08	-1.170917e+01	-9.242637e+02
7.200000e-07	-1.478574e-06	-1.339785e-08	-1.064096e+01	-8.831315e+02
7.300000e-07	-1.329730e-06	-1.271437e-08	-9.569758e+00	-8.388034e+02
7.400000e-07	-1.180509e-06	-1.197826e-08	-8.495850e+00	-7.909306e+02
7.500000e-07	-1.030869e-06	-1.118888e-08	-7.418923e+00	-7.392678e+02
7.600000e-07	-8.808645e-07	-1.034895e-08	-6.339379e+00	-6.837567e+02
7.700000e-07	-7.305852e-07	-9.457364e-09	-5.257854e+00	-6.245860e+02
7.800000e-07	-5.800822e-07	-8.511893e-09	-4.174718e+00	-5.622091e+02
7.900000e-07	-4.293071e-07	-7.522157e-09	-3.089624e+00	-4.973076e+02
8.000000e-07	-2.783166e-07	-6.503460e-09	-2.002980e+00	-4.307020e+02
8.100000e-07	-1.272445e-07	-5.469772e-09	-9.157495e-01	-3.632226e+02
8.200000e-07	2.393938e-08	-4.437051e-09	1.722862e-01	-2.955670e+02
8.300000e-07	1.751392e-07	-3.410694e-09	1.260437e+00	-2.281749e+02
8.400000e-07	3.262476e-07	-2.392684e-09	2.347929e+00	-1.611498e+02
8.500000e-07	4.772657e-07	-1.376854e-09	3.434771e+00	-9.424958e+01
8.600000e-07	6.281567e-07	-3.571753e-10	4.520699e+00	-2.695181e+01
8.700000e-07	7.788708e-07	6.773880e-10	5.605354e+00	4.141463e+01
8.800000e-07	9.293002e-07	1.739518e-09	6.687959e+00	1.114977e+02
8.900000e-07	1.079353e-06	2.835849e-09	7.767852e+00	1.837444e+02
9.000000e-07	1.229009e-06	3.970986e-09	8.844896e+00	2.582547e+02
9.100000e-07	1.378262e-06	5.137822e-09	9.919034e+00	3.346986e+02
9.200000e-07	1.527107e-06	6.326228e-09	1.099024e+01	4.123138e+02
9.300000e-07	1.675483e-06	7.516272e-09	1.205806e+01	4.899864e+02
9.400000e-07	1.823253e-06	8.682975e-09	1.312153e+01	5.663959e+02
9.500000e-07	1.970351e-06	9.802911e-09	1.418016e+01	6.401971e+02
9.600000e-07	2.116843e-06	1.085850e-08	1.523443e+01	7.102010e+02
9.700000e-07	2.262624e-06	1.184053e-08	1.628359e+01	7.755206e+02
9.800000e-07	2.407494e-06	1.274478e-08	1.732618e+01	8.356559e+02
9.900000e-07	2.551419e-06	1.357525e-08	1.836197e+01	8.905076e+02
1.000000e-06	2.694331e-06	1.433399e-08	1.939048e+01	9.403226e+02
1.010000e-06	2.836178e-06	1.502591e-08	2.041132e+01	9.855921e+02
1.020000e-06	2.976960e-06	1.565758e-08	2.142450e+01	1.026926e+03
1.030000e-06	3.116512e-06	1.623877e-08	2.242882e+01	1.064934e+03
1.040000e-06	3.254735e-06	1.677457e-08	2.342358e+01	1.100138e+03
1.050000e-06	3.391629e-06	1.727057e-08	2.440877e+01	1.132920e+03
1.060000e-06	3.527177e-06	1.773048e-08	2.538428e+01	1.163527e+03
1.070000e-06	3.661445e-06	1.815728e-08	2.635058e+01	1.192096e+03
1.080000e-06	3.794473e-06	1.855712e-08	2.730795e+01	1.218711e+03
1.090000e-06	3.926148e-06	1.893173e-08	2.825559e+01	1.243452e+03
1.100000e-06	4.056402e-06	1.928293e-08	2.919299e+01	1.266432e+03
1.110000e-06	4.185157e-06	1.961201e-08	3.011961e+01	1.287815e+03
1.120000e-06	4.312373e-06	1.992240e-08	3.103516e+01	1.307801e+03
1.130000e-06	4.438169e-06	2.021260e-08	3.194048e+01	1.326601e+03
1.140000e-06	4.562590e-06	2.048154e-08	3.283591e+01	1.344404e+03
1.150000e-06	4.685460e-06	2.073366e-08	3.372017e+01	1.361350e+03
1.160000e-06	4.806554e-06	2.097424e-08	3.459166e+01	1.377515e+03
1.170000e-06	4.925862e-06	2.120530e-08	3.545029e+01	1.392916e+03
1.180000e-06	5.043411e-06	2.142540e-08	3.629627e+01	1.407532e+03
1.190000e-06	5.159155e-06	2.163246e-08	3.712925e+01	1.421330e+03
1.200000e-06	5.272849e-06	2.182873e-08	3.794748e+01	1.434297e+03
1.210000e-06	5.384457e-06	2.201381e-08	3.875070e+01	1.446455e+03
1.220000e-06	5.494171e-06	2.218764e-08	3.954028e+01	1.457866e+03
1.230000e-06	5.602047e-06	2.235164e-08	4.031664e+01	1.468623e+03
1.240000e-06	5.707937e-06	2.250793e-08	4.107871e+01	1.478830e+03
1.250000e-06	5.811670e-06	2.265859e-08	4.182525e+01	1.488576e+03
1.260000e-06	5.913282e-06	2.280164e-08	4.255653e+01	1.497915e+03
1.270000e-06	6.012710e-06	2.293724e-08	4.327209e+01	1.506863e+03
1.280000e-06	6.109803e-06	2.306609e-08	4.397084e+01	1.515394e+03
1.290000e-06	6.204603e-06	2.318902e-08	4.465310e+01	1.523463e+03
1.300000e-06	6.297263e-06	2.330549e-08	4.531995e+01	1.531026e+03
1.310000e-06	6.387703e-06	2.341329e-08	4.597083e+01	1.538058e+03
1.320000e-06	6.475793e-06	2.351187e-08	4.660479e+01	1.544572e+03
1.330000e-06	6.561587e-06	2.360290e-08	4.722223e+01	1.550618e+03
1.340000e-06	6.645195e-06	2.369013e-08	4.782394e+01	1.556274e+03
1.350000e-06	6.726442e-06	2.377268e-08	4.840866e+01	1.561633e+03
1.360000e-06	6.805102e-06	2.385090e-08	4.897475e+01	1.566776e+03
1.370000e-06	6.881210e-06	2.392736e-08	4.952248e+01	1.571756e+03
1.380000e-06	6.954700e-06	2.400084e-08	5.005137e+01	1.576590e+03
1.390000e-06	7.025600e-06	2.407011e-08	5.056162e+01	1.581262e+03
1.400000e-06	7.094084e-06	2.413425e-08	5.105449e+01	1.585730e+03
1.410000e-06	7.160006e-06	2.419588e-08	5.152892e+01	1.589945e+03
1.420000e-06	7.223294e-06	2.425547e-08	5.198438e+01	1.593869e+03
1.430000e-06	7.284151e-06	2.431113e-08	5.242236e+01	1.597488e+03
1.440000e-06	7.342527e-06	2.436229e-08	5.284247e+01	1.600816e+03
1.450000e-06	7.398292e-06	2.441030e-08	5.324381e+01	1.603890e+03
1.460000e-06	7.451338e-06	2.445561e-08	5.362556e+01	1.606754e+03
1.470000e-06	7.501370e-06	2.449775e-08	5.398563e+01	1.609451e+03
1.480000e-06	7.548406e-06	2.453728e-08	5.432414e+01	1.612006e+03
1.490000e-06	7.592823e-06	2.457484e-08	5.464380e+01	1.614418e+03
1.500000e-06	7.634594e-06	2.460898e-08	5.494442e+01	1.616666e+03
1.510000e-06	7.673574e-06	2.463721e-08	5.522495e+01	1.618713e+03
1.520000e-06	7.709930e-06	2.466179e-08	5.548659e+01	1.620526e+03
1.530000e-06	7.743517e-06	2.468199e-08	5.572831e+01	1.622083e+03
1.540000e-06	7.774238e-06	2.469991e-08	5.594940e+01	1.623385e+03
1.550000e-06	7.802345e-06	2.471847e-08	5.615168e+01	1.624459e+03
1.560000e-06	7.827660e-06	2.473546e-08	5.633386e+01	1.625347e+03
1.570000e-06	7.850005e-06	2.474953e-08	5.649468e+01	1.626097e+03
1.580000e-06	7.869653e-06	2.476115e-08	5.663608e+01	1.626750e+03
1.590000e-06	7.886585e-06	2.477209e-08	5.675793e+01	1.627328e+03
1.600000e-06	7.900516e-06	2.478158e-08	5.685819e+01	1.627826e+03
1.610000e-06	7.911276e-06	2.478705e-08	5.693563e+01	1.628222e+03
1.620000e-06	7.918961e-06	2.478891e-08	5.699094e+01	1.628481e+03
1.630000e-06	7.923864e-06	2.478961e-08	5.702622e+01	1.628567e+03
1.640000e-06	7.925987e-06	2.479001e-08	5.704150e+01	1.628462e+03
1.650000e-06	7.925305e-06	2.478865e-08	5.703659e+01	1.628166e+03
1.660000e-06	7.922030e-06	2.478069e-08	5.701303e+01	1.627701e+03
1.670000e-06	7.916102e-06	2.477783e-08	5.697036e+01	1.627106e+03
1.680000e-06	7.907433e-06	2.477348e-08	5.690798e+01	1.626419e+03
1.690000e-06	7.896086e-06	2.476387e-08	5.682631e+01	1.625671e+03
1.700000e-06	7.881938e-06	2.475344e-08	5.672449e+01	1.624871e+03
1.710000e-06	7.865173e-06	2.474662e-08	5.660384e+01	1.624005e+03
1.720000e-06	7.846170e-06	2.474410e-08	5.646708e+01	1.623043e+03
1.730000e-06	7.824778e-06	2.469982e-08	5.631312e+01	1.621942e+03
1.740000e-06	7.800347e-06	2.463681e-08	5.613730e+01	1.620671e+03
1.750000e-06	7.772294e-06	2.464564e-08	5.593541e+01	1.619212e+03
1.760000e-06	7.740703e-06	2.464085e-08	5.570805e+01	1.617574e+03
1.770000e-06	7.706405e-06	2.460080e-08	5.546122e+01	1.615789e+03
1.780000e-06	7.669954e-06	2.460124e-08	5.519889e+01	1.613900e+03
1.790000e-06	7.631307e-06	2.463463e-08	5.492076e+01	1.611948e+03
1.800000e-06	7.590647e-06	2.451029e-08	5.462814e+01	1.609957e+03
1.810000e-06	7.547780e-06	2.449312e-08	5.431963e+01	1.607925e+03
1.820000e-06	7.502281e-06	2.451035e-08	5.399219e+01	1.605815e+03
1.830000e-06	7.454130e-06	2.439840e-08	5.364566e+01	1.603569e+03
1.840000e-06	7.402978e-06	2.445190e-08	5.327753e+01	1.601118e+03
1.850000e-06	7.348750e-06	2.437628e-08	5.288726e+01	1.598401e+03
1.860000e-06	7.291821e-06	2.437330e-08	5.247756e+01	1.595383e+03
1.870000e-06	7.232412e-06	2.435841e-08	5.205000e+01	1.592060e+03
1.880000e-06	7.170433e-06	2.421221e-08	5.160396e+01	1.588467e+03
1.890000e-06	7.105530e-06	2.419468e-08	5.113686e+01	1.584660e+03
1.900000e-06	7.037851e-06	2.408412e-08	5.064979e+01	1.580702e+03
1.910000e-06	6.967466e-06	2.405231e-08	5.014325e+01	1.576644e+03
1.920000e-06	6.894329e-06	2.402106e-08	4.961690e+01	1.572505e+03
1.930000e-06	6.818587e-06	2.394968e-08	4.907180e+01	1.568269e+03
1.940000e-06	6.740112e-06	2.391169e-08	4.850704e+01	1.563887e+03
1.950000e-06	6.659094e-06	2.377827e-08	4.792397e+01	1.559285e+03
1.960000e-06	6.575637e-06	2.370218e-08	4.732335e+01	1.554394e+03
1.970000e-06	6.489751e-06	2.360393e-08	4.670525e+01	1.549157e+03
1.980000e-06	6.401536e-06	2.355868e-08	4.607038e+01	1.543553e+03
1.990000e-06	6.311024e-06	2.349593e-08	4.541899e+01	1.537595e+03
2.000000e-06	6.218320e-06	2.338346e-08	4.475181e+01	1.531325e+03
2.010000e-06	6.123339e-06	2.329343e-08	4.406826e+01	1.524798e+03
2.020000e-06	6.026136e-06	2.316881e-08	4.336871e+01	1.518058e+03
2.030000e-06	5.926797e-06	2.307097e-08	4.265379e+01	1.511129e+03
2.040000e-06	5.825313e-06	2.296021e-08	4.192344e+01	1.503994e+03
2.050000e-06	5.721709e-06	2.287050e-08	4.117782e+01	1.496604e+03
2.060000e-06	5.616161e-06	2.274666e-08	4.041822e+01	1.488888e+03
2.070000e-06	5.508755e-06	2.260765e-08	3.964524e+01	1.480768e+03
2.080000e-06	5.399484e-06	2.247036e-08	3.885884e+01	1.472183e+03
2.090000e-06	5.288263e-06	2.233278e-08	3.805841e+01	1.463101e+03
2.100000e-06	5.174960e-06	2.219898e-08	3.724300e+01	1.453525e+03
2.110000e-06	5.059672e-06	2.204907e-08	3.641330e+01	1.443485e+03
2.120000e-06	4.942446e-06	2.189865e-08	3.556965e+01	1.433022e+03
2.130000e-06	4.823317e-06	2.172767e-08	3.471230e+01	1.422168e+03
2.140000e-06	4.702367e-06	2.155419e-08	3.384185e+01	1.410923e+03
2.150000e-06	4.579740e-06	2.137210e-08	3.295933e+01	1.399253e+03
2.160000e-06	4.455466e-06	2.118993e-08	3.206496e+01	1.387083e+03
2.170000e-06	4.329574e-06	2.099214e-08	3.115895e+01	1.374315e+03
2.180000e-06	4.202030e-06	2.078756e-08	3.024104e+01	1.360852e+03
2.190000e-06	4.072863e-06	2.057301e-08	2.931145e+01	1.346611e+03
2.200000e-06	3.942241e-06	2.034818e-08	2.837140e+01	1.331550e+03
2.210000e-06	3.810171e-06	2.011095e-08	2.742093e+01	1.315663e+03
2.220000e-06	3.676662e-06	1.986072e-08	2.646009e+01	1.298972e+03
2.230000e-06	3.541796e-06	1.960120e-08	2.548949e+01	1.281509e+03
2.240000e-06	3.405608e-06	1.932556e-08	2.450938e+01	1.263280e+03
2.250000e-06	3.268132e-06	1.903902e-08	2.351999e+01	1.244249e+03
2.260000e-06	3.129443e-06	1.873435e-08	2.252188e+01	1.224320e+03
2.270000e-06	2.989526e-06	1.841182e-08	2.151493e+01	1.203342e+03
2.280000e-06	2.848376e-06	1.806658e-08	2.049911e+01	1.181126e+03
2.290000e-06	2.706140e-06	1.770334e-08	1.947546e+01	1.157470e+03
2.300000e-06	2.562963e-06	1.732277e-08	1.844505e+01	1.132192e+03
2.310000e-06	2.418825e-06	1.692201e-08	1.740772e+01	1.105146e+03
2.320000e-06	2.273759e-06	1.649094e-08	1.636372e+01	1.076225e+03
2.330000e-06	2.127951e-06	1.602317e-08	1.531437e+01	1.045343e+03
2.340000e-06	1.981519e-06	1.551926e-08	1.426054e+01	1.012405e+03
2.350000e-06	1.834456e-06	1.497903e-08	1.320216e+01	9.772657e+02
2.360000e-06	1.686800e-06	1.440344e-08	1.213951e+01	9.397037e+02
2.370000e-06	1.538556e-06	1.378905e-08	1.107263e+01	8.994147e+02
2.380000e-06	1.389729e-06	1.312802e-08	1.000156e+01	8.560368e+02
2.390000e-06	1.240384e-06	1.241254e-08	8.926756e+00	8.092069e+02
2.400000e-06	1.090600e-06	1.163686e-08	7.848798e+00	7.586415e+02
2.410000e-06	9.404203e-07	1.080490e-08	6.767988e+00	7.042212e+02
2.420000e-06	7.899793e-07	9.925078e-09	5.685299e+00	6.460602e+02
2.430000e-06	6.394418e-07	8.998452e-09	4.601915e+00	5.845375e+02
2.440000e-06	4.887721e-07	8.025178e-09	3.517580e+00	5.202765e+02
2.450000e-06	3.379515e-07	7.013318e-09	2.432159e+00	4.540699e+02
2.460000e-06	1.870115e-07	5.977618e-09	1.345879e+00	3.867595e+02
2.470000e-06	3.595152e-08	4.932597e-09	2.587348e-01	3.190951e+02
2.480000e-06	-1.151460e-07	3.891972e-09	-8.286790e-01	2.516006e+02
2.490000e-06	-2.661822e-07	2.862252e-09	-1.915652e+00	1.844798e+02
2.500000e-06	-4.171501e-07	1.838843e-09	-3.002133e+00	1.175859e+02
2.510000e-06	-5.680182e-07	8.143512e-10	-4.087896e+00	5.046572e+01
2.520000e-06	-7.187627e-07	-2.191754e-10	-5.172770e+00	-1.752583e+01
2.530000e-06	-8.693859e-07	-1.273917e-09	-6.256770e+00	-8.706189e+01
2.540000e-06	-1.019749e-06	-2.363308e-09	-7.338896e+00	-1.586638e+02
2.550000e-06	-1.169773e-06	-3.491143e-09	-8.418590e+00	-2.325425e+02
2.560000e-06	-1.319398e-06	-4.653097e-09	-9.495406e+00	-3.084946e+02
2.570000e-06	-1.468486e-06	-5.841084e-09	-1.056835e+01	-3.858768e+02
2.580000e-06	-1.616991e-06	-7.038065e-09	-1.163711e+01	-4.636630e+02
2.590000e-06	-1.764893e-06	-8.221816e-09	-1.270153e+01	-5.405741e+02
2.600000e-06	-1.912150e-06	-9.367330e-09	-1.376130e+01	-6.152528e+02
2.610000e-06	-2.058658e-06	-1.045513e-08	-1.481569e+01	-6.864485e+02
2.620000e-06	-2.204430e-06	-1.147180e-08	-1.586477e+01	-7.531763e+02
2.630000e-06	-2.349475e-06	-1.240848e-08	-1.690863e+01	-8.148211e+02
2.640000e-06	-2.493495e-06	-1.326635e-08	-1.794511e+01	-8.711717e+02
2.650000e-06	-2.636444e-06	-1.405300e-08	-1.897388e+01	-9.223851e+02
2.660000e-06	-2.778421e-06	-1.477365e-08	-1.999565e+01	-9.688949e+02
2.670000e-06	-2.919304e-06	-1.543246e-08	-2.100956e+01	-1.011290e+03
2.680000e-06	-3.058997e-06	-1.603685e-08	-2.201490e+01	-1.050191e+03
2.690000e-06	-3.197501e-06	-1.659279e-08	-2.301168e+01	-1.086152e+03
2.700000e-06	-3.334813e-06	-1.710478e-08	-2.399988e+01	-1.119596e+03
2.710000e-06	-3.470804e-06	-1.757727e-08	-2.497858e+01	-1.150807e+03
2.720000e-06	-3.605467e-06	-1.801754e-08	-2.594771e+01	-1.179950e+03
2.730000e-06	-3.738853e-06	-1.842966e-08	-2.690766e+01	-1.207117e+03
2.740000e-06	-3.870904e-06	-1.881589e-08	-2.785801e+01	-1.232384e+03
2.750000e-06	-4.001589e-06	-1.917715e-08	-2.879851e+01	-1.255854e+03
2.760000e-06	-4.130896e-06	-1.951229e-08	-2.972911e+01	-1.277675e+03
2.770000e-06	-4.258776e-06	-1.982607e-08	-3.064943e+01	-1.298040e+03
2.780000e-06	-4.385199e-06	-2.012393e-08	-3.155927e+01	-1.317158e+03
2.790000e-06	-4.510110e-06	-2.040574e-08	-3.245822e+01	-1.335231e+03
2.800000e-06	-4.633451e-06	-2.066910e-08	-3.334588e+01	-1.352412e+03
2.810000e-06	-4.755218e-06	-2.091781e-08	-3.422221e+01	-1.368797e+03
2.820000e-06	-4.875233e-06	-2.115418e-08	-3.508593e+01	-1.384419e+03
2.830000e-06	-4.993251e-06	-2.138076e-08	-3.593528e+01	-1.399263e+03
2.840000e-06	-5.109247e-06	-2.159641e-08	-3.677007e+01	-1.413298e+03
2.850000e-06	-5.223191e-06	-2.180029e-08	-3.759010e+01	-1.426503e+03
2.860000e-06	-5.334967e-06	-2.199453e-08	-3.839453e+01	-1.438889e+03
2.870000e-06	-5.444704e-06	-2.217547e-08	-3.918428e+01	-1.450505e+03
2.880000e-06	-5.552651e-06	-2.234425e-08	-3.996115e+01	-1.461440e+03
2.890000e-06	-5.658793e-06	-2.250200e-08	-4.072503e+01	-1.471795e+03
2.900000e-06	-5.762888e-06	-2.265176e-08	-4.147418e+01	-1.481666e+03
2.910000e-06	-5.864761e-06	-2.279538e-08	-4.220733e+01	-1.491120e+03
2.920000e-06	-5.964426e-06	-2.293281e-08	-4.292460e+01	-1.500181e+03
2.930000e-06	-6.062028e-06	-2.306478e-08	-4.362702e+01	-1.508836e+03
2.940000e-06	-6.157487e-06	-2.318797e-08	-4.431402e+01	-1.517044e+03
