# Temperatura_=_86.15
# Concentracion g/m^3_=_28200.0
# C_Vs_to_Am_M_A/Vsm_=_65563218390.804596
# pendiente_HvsI_1/m_=_3716.3
# ordenada_HvsI_A/m_=_1297.0
# frecuencia_Hz_=_301917.02126076625

Tiempo_(s)	Campo_(V.s)	Magnetizacion_(V.s)	Campo_(kA/m)	Magnetizacion_(A/m)
0.000000e+00	-5.839037e-06	-2.498447e-08	-4.194656e+01	-1.637213e+03
1.000000e-08	-5.836936e-06	-2.498261e-08	-4.193146e+01	-1.636826e+03
2.000000e-08	-5.832809e-06	-2.497293e-08	-4.190181e+01	-1.636257e+03
3.000000e-08	-5.826877e-06	-2.496079e-08	-4.185920e+01	-1.635502e+03
4.000000e-08	-5.819193e-06	-2.494886e-08	-4.180400e+01	-1.634556e+03
5.000000e-08	-5.809530e-06	-2.493084e-08	-4.173458e+01	-1.633411e+03
6.000000e-08	-5.797658e-06	-2.490675e-08	-4.164930e+01	-1.632061e+03
7.000000e-08	-5.783681e-06	-2.487350e-08	-4.154888e+01	-1.630504e+03
8.000000e-08	-5.767502e-06	-2.484259e-08	-4.143266e+01	-1.628740e+03
9.000000e-08	-5.749186e-06	-2.487042e-08	-4.130108e+01	-1.626781e+03
1.000000e-07	-5.728780e-06	-2.487158e-08	-4.115449e+01	-1.624641e+03
1.100000e-07	-5.706190e-06	-2.479077e-08	-4.099220e+01	-1.622342e+03
1.200000e-07	-5.681416e-06	-2.473539e-08	-4.081424e+01	-1.619907e+03
1.300000e-07	-5.654611e-06	-2.467091e-08	-4.062167e+01	-1.617352e+03
1.400000e-07	-5.626293e-06	-2.454064e-08	-4.041824e+01	-1.614686e+03
1.500000e-07	-5.596568e-06	-2.459016e-08	-4.020470e+01	-1.611906e+03
1.600000e-07	-5.565117e-06	-2.460949e-08	-3.997877e+01	-1.608994e+03
1.700000e-07	-5.531866e-06	-2.445673e-08	-3.973989e+01	-1.605919e+03
1.800000e-07	-5.496705e-06	-2.449859e-08	-3.948730e+01	-1.602642e+03
1.900000e-07	-5.459511e-06	-2.441856e-08	-3.922011e+01	-1.599124e+03
2.000000e-07	-5.420439e-06	-2.426324e-08	-3.893942e+01	-1.595331e+03
2.100000e-07	-5.379437e-06	-2.429251e-08	-3.864487e+01	-1.591241e+03
2.200000e-07	-5.336312e-06	-2.420408e-08	-3.833507e+01	-1.586846e+03
2.300000e-07	-5.291161e-06	-2.411493e-08	-3.801071e+01	-1.582155e+03
2.400000e-07	-5.244010e-06	-2.407034e-08	-3.767199e+01	-1.577189e+03
2.500000e-07	-5.194588e-06	-2.396437e-08	-3.731696e+01	-1.571972e+03
2.600000e-07	-5.142812e-06	-2.390346e-08	-3.694500e+01	-1.566527e+03
2.700000e-07	-5.088958e-06	-2.379835e-08	-3.655813e+01	-1.560868e+03
2.800000e-07	-5.033326e-06	-2.369632e-08	-3.615848e+01	-1.554996e+03
2.900000e-07	-4.975805e-06	-2.361229e-08	-3.574526e+01	-1.548896e+03
3.000000e-07	-4.916307e-06	-2.350247e-08	-3.531784e+01	-1.542545e+03
3.100000e-07	-4.855024e-06	-2.341300e-08	-3.487759e+01	-1.535913e+03
3.200000e-07	-4.791981e-06	-2.331274e-08	-3.442470e+01	-1.528974e+03
3.300000e-07	-4.727184e-06	-2.321182e-08	-3.395921e+01	-1.521709e+03
3.400000e-07	-4.660598e-06	-2.307881e-08	-3.348086e+01	-1.514113e+03
3.500000e-07	-4.592294e-06	-2.295082e-08	-3.299019e+01	-1.506190e+03
3.600000e-07	-4.522356e-06	-2.283746e-08	-3.248776e+01	-1.497953e+03
3.700000e-07	-4.450897e-06	-2.269960e-08	-3.197442e+01	-1.489419e+03
3.800000e-07	-4.377865e-06	-2.258225e-08	-3.144977e+01	-1.480595e+03
3.900000e-07	-4.302957e-06	-2.243909e-08	-3.091164e+01	-1.471481e+03
4.000000e-07	-4.226275e-06	-2.227712e-08	-3.036077e+01	-1.462062e+03
4.100000e-07	-4.147944e-06	-2.212954e-08	-2.979806e+01	-1.452311e+03
4.200000e-07	-4.067912e-06	-2.197541e-08	-2.922312e+01	-1.442196e+03
4.300000e-07	-3.986396e-06	-2.182165e-08	-2.863753e+01	-1.431682e+03
4.400000e-07	-3.903658e-06	-2.165113e-08	-2.804316e+01	-1.420742e+03
4.500000e-07	-3.819775e-06	-2.148022e-08	-2.744055e+01	-1.409360e+03
4.600000e-07	-3.734781e-06	-2.129420e-08	-2.682997e+01	-1.397534e+03
4.700000e-07	-3.648600e-06	-2.110192e-08	-2.621086e+01	-1.385267e+03
4.800000e-07	-3.561234e-06	-2.091340e-08	-2.558324e+01	-1.372568e+03
4.900000e-07	-3.472603e-06	-2.071530e-08	-2.494653e+01	-1.359437e+03
5.000000e-07	-3.382444e-06	-2.051006e-08	-2.429885e+01	-1.345863e+03
5.100000e-07	-3.290890e-06	-2.029078e-08	-2.364114e+01	-1.331817e+03
5.200000e-07	-3.198217e-06	-2.006635e-08	-2.297540e+01	-1.317253e+03
5.300000e-07	-3.104438e-06	-1.982971e-08	-2.230171e+01	-1.302113e+03
5.400000e-07	-3.009544e-06	-1.958595e-08	-2.162001e+01	-1.286335e+03
5.500000e-07	-2.913655e-06	-1.933505e-08	-2.093116e+01	-1.269862e+03
5.600000e-07	-2.816649e-06	-1.907455e-08	-2.023428e+01	-1.252649e+03
5.700000e-07	-2.718325e-06	-1.880180e-08	-1.952794e+01	-1.234666e+03
5.800000e-07	-2.618857e-06	-1.851462e-08	-1.881338e+01	-1.215897e+03
5.900000e-07	-2.518490e-06	-1.821503e-08	-1.809236e+01	-1.196331e+03
6.000000e-07	-2.417285e-06	-1.789998e-08	-1.736532e+01	-1.175954e+03
6.100000e-07	-2.315238e-06	-1.757380e-08	-1.663224e+01	-1.154736e+03
6.200000e-07	-2.212306e-06	-1.723513e-08	-1.589279e+01	-1.132626e+03
6.300000e-07	-2.108538e-06	-1.688316e-08	-1.514734e+01	-1.109548e+03
6.400000e-07	-2.004108e-06	-1.651427e-08	-1.439714e+01	-1.085402e+03
6.500000e-07	-1.898954e-06	-1.612644e-08	-1.364173e+01	-1.060074e+03
6.600000e-07	-1.792915e-06	-1.571871e-08	-1.287997e+01	-1.033442e+03
6.700000e-07	-1.686042e-06	-1.528913e-08	-1.211221e+01	-1.005389e+03
6.800000e-07	-1.578540e-06	-1.483902e-08	-1.133994e+01	-9.758035e+02
6.900000e-07	-1.470576e-06	-1.436464e-08	-1.056434e+01	-9.445852e+02
7.000000e-07	-1.362208e-06	-1.386189e-08	-9.785846e+00	-9.116373e+02
7.100000e-07	-1.253443e-06	-1.332986e-08	-9.004502e+00	-8.768606e+02
7.200000e-07	-1.144353e-06	-1.276954e-08	-8.220822e+00	-8.401478e+02
7.300000e-07	-1.034949e-06	-1.217858e-08	-7.434881e+00	-8.013827e+02
7.400000e-07	-9.252084e-07	-1.155555e-08	-6.646524e+00	-7.604478e+02
7.500000e-07	-8.151854e-07	-1.089830e-08	-5.856140e+00	-7.172403e+02
7.600000e-07	-7.048480e-07	-1.020541e-08	-5.063496e+00	-6.716959e+02
7.700000e-07	-5.942411e-07	-9.473377e-09	-4.268918e+00	-6.238155e+02
7.800000e-07	-4.834877e-07	-8.704404e-09	-3.473285e+00	-5.736865e+02
7.900000e-07	-3.725650e-07	-7.905505e-09	-2.676438e+00	-5.214944e+02
8.000000e-07	-2.614736e-07	-7.082514e-09	-1.878378e+00	-4.675172e+02
8.100000e-07	-1.502349e-07	-6.241766e-09	-1.079260e+00	-4.121010e+02
8.200000e-07	-3.889562e-08	-5.384792e-09	-2.794189e-01	-3.556186e+02
8.300000e-07	7.246338e-08	-4.514916e-09	5.205634e-01	-2.984176e+02
8.400000e-07	1.838455e-07	-3.637349e-09	1.320712e+00	-2.407675e+02
8.500000e-07	2.951659e-07	-2.754543e-09	2.120417e+00	-1.828168e+02
8.600000e-07	4.063765e-07	-1.864205e-09	2.919333e+00	-1.245706e+02
8.700000e-07	5.174891e-07	-9.660436e-10	3.717546e+00	-6.589551e+01
8.800000e-07	6.284579e-07	-6.032861e-11	4.514725e+00	-6.553214e+00
8.900000e-07	7.392378e-07	8.557172e-10	5.310547e+00	5.374118e+01
9.000000e-07	8.497953e-07	1.790134e-09	6.104771e+00	1.152463e+02
9.100000e-07	9.600654e-07	2.747116e-09	6.896931e+00	1.781199e+02
9.200000e-07	1.069977e-06	3.722824e-09	7.686516e+00	2.423567e+02
9.300000e-07	1.179509e-06	4.715638e-09	8.473371e+00	3.077514e+02
9.400000e-07	1.288665e-06	5.722604e-09	9.257527e+00	3.738931e+02
9.500000e-07	1.397439e-06	6.734388e-09	1.003894e+01	4.401943e+02
9.600000e-07	1.505753e-06	7.736515e-09	1.081705e+01	5.059478e+02
9.700000e-07	1.613612e-06	8.716972e-09	1.159189e+01	5.704021e+02
9.800000e-07	1.720982e-06	9.664903e-09	1.236321e+01	6.328422e+02
9.900000e-07	1.827628e-06	1.057064e-08	1.312934e+01	6.926611e+02
1.000000e-06	1.933354e-06	1.142819e-08	1.388885e+01	7.494115e+02
1.010000e-06	2.038190e-06	1.223636e-08	1.464198e+01	8.028307e+02
1.020000e-06	2.142262e-06	1.299519e-08	1.538961e+01	8.528372e+02
1.030000e-06	2.245562e-06	1.370361e-08	1.613170e+01	8.995041e+02
1.040000e-06	2.348048e-06	1.436485e-08	1.686794e+01	9.430154e+02
1.050000e-06	2.449679e-06	1.498151e-08	1.759804e+01	9.836180e+02
1.060000e-06	2.550428e-06	1.555855e-08	1.832180e+01	1.021576e+03
1.070000e-06	2.650392e-06	1.609782e-08	1.903992e+01	1.057137e+03
1.080000e-06	2.749573e-06	1.660335e-08	1.975242e+01	1.090515e+03
1.090000e-06	2.847677e-06	1.707901e-08	2.045718e+01	1.121880e+03
1.100000e-06	2.944484e-06	1.752736e-08	2.115263e+01	1.151374e+03
1.110000e-06	3.040126e-06	1.794979e-08	2.183970e+01	1.179115e+03
1.120000e-06	3.134727e-06	1.834744e-08	2.251930e+01	1.205217e+03
1.130000e-06	3.228269e-06	1.872152e-08	2.319128e+01	1.229797e+03
1.140000e-06	3.320783e-06	1.907369e-08	2.385589e+01	1.252975e+03
1.150000e-06	3.412279e-06	1.940717e-08	2.451318e+01	1.274879e+03
1.160000e-06	3.502598e-06	1.972390e-08	2.516201e+01	1.295629e+03
1.170000e-06	3.591509e-06	2.002606e-08	2.580073e+01	1.315333e+03
1.180000e-06	3.679058e-06	2.031354e-08	2.642967e+01	1.334079e+03
1.190000e-06	3.765368e-06	2.058528e-08	2.704970e+01	1.351930e+03
1.200000e-06	3.850446e-06	2.084201e-08	2.766089e+01	1.368930e+03
1.210000e-06	3.934372e-06	2.108561e-08	2.826379e+01	1.385110e+03
1.220000e-06	4.017041e-06	2.131637e-08	2.885767e+01	1.400491e+03
1.230000e-06	4.098151e-06	2.153682e-08	2.944035e+01	1.415102e+03
1.240000e-06	4.177626e-06	2.174714e-08	3.001128e+01	1.428977e+03
1.250000e-06	4.255538e-06	2.194726e-08	3.057099e+01	1.442163e+03
1.260000e-06	4.331920e-06	2.213742e-08	3.111971e+01	1.454711e+03
1.270000e-06	4.406653e-06	2.231977e-08	3.165658e+01	1.466679e+03
1.280000e-06	4.479555e-06	2.249432e-08	3.218029e+01	1.478114e+03
1.290000e-06	4.550718e-06	2.266198e-08	3.269151e+01	1.489056e+03
1.300000e-06	4.620248e-06	2.282186e-08	3.319100e+01	1.499528e+03
1.310000e-06	4.688221e-06	2.297506e-08	3.367931e+01	1.509536e+03
1.320000e-06	4.754553e-06	2.312241e-08	3.415582e+01	1.519076e+03
1.330000e-06	4.819046e-06	2.326126e-08	3.461913e+01	1.528137e+03
1.340000e-06	4.881752e-06	2.339128e-08	3.506960e+01	1.536713e+03
1.350000e-06	4.942852e-06	2.351596e-08	3.550852e+01	1.544801e+03
1.360000e-06	5.002419e-06	2.363446e-08	3.593645e+01	1.552414e+03
1.370000e-06	5.060187e-06	2.374575e-08	3.635144e+01	1.559576e+03
1.380000e-06	5.115984e-06	2.384984e-08	3.675228e+01	1.566323e+03
1.390000e-06	5.169924e-06	2.394506e-08	3.713977e+01	1.572694e+03
1.400000e-06	5.221917e-06	2.403476e-08	3.751328e+01	1.578732e+03
1.410000e-06	5.271653e-06	2.412213e-08	3.787057e+01	1.584473e+03
1.420000e-06	5.319219e-06	2.420816e-08	3.821227e+01	1.589944e+03
1.430000e-06	5.364956e-06	2.428984e-08	3.854085e+01	1.595162e+03
1.440000e-06	5.409014e-06	2.436542e-08	3.885735e+01	1.600133e+03
1.450000e-06	5.451182e-06	2.443620e-08	3.916028e+01	1.604854e+03
1.460000e-06	5.491291e-06	2.450388e-08	3.944841e+01	1.609319e+03
1.470000e-06	5.529507e-06	2.456836e-08	3.972295e+01	1.613517e+03
1.480000e-06	5.565946e-06	2.462829e-08	3.998472e+01	1.617440e+03
1.490000e-06	5.600493e-06	2.468361e-08	4.023290e+01	1.621081e+03
1.500000e-06	5.632949e-06	2.473552e-08	4.046605e+01	1.624440e+03
1.510000e-06	5.663375e-06	2.478372e-08	4.068463e+01	1.627517e+03
1.520000e-06	5.691915e-06	2.482884e-08	4.088966e+01	1.630318e+03
1.530000e-06	5.718477e-06	2.486937e-08	4.108047e+01	1.632851e+03
1.540000e-06	5.742798e-06	2.490414e-08	4.125519e+01	1.635124e+03
1.550000e-06	5.764944e-06	2.493304e-08	4.141428e+01	1.637147e+03
1.560000e-06	5.785191e-06	2.495754e-08	4.155974e+01	1.638929e+03
1.570000e-06	5.803522e-06	2.497992e-08	4.169142e+01	1.640477e+03
1.580000e-06	5.819714e-06	2.500086e-08	4.180774e+01	1.641799e+03
1.590000e-06	5.833686e-06	2.501899e-08	4.190812e+01	1.642903e+03
1.600000e-06	5.845399e-06	2.503275e-08	4.199226e+01	1.643793e+03
1.610000e-06	5.854750e-06	2.504377e-08	4.205944e+01	1.644476e+03
1.620000e-06	5.861881e-06	2.505294e-08	4.211066e+01	1.644957e+03
1.630000e-06	5.867003e-06	2.505942e-08	4.214746e+01	1.645240e+03
1.640000e-06	5.870090e-06	2.506275e-08	4.216964e+01	1.645332e+03
1.650000e-06	5.871018e-06	2.506455e-08	4.217630e+01	1.645237e+03
1.660000e-06	5.869904e-06	2.505920e-08	4.216829e+01	1.644959e+03
1.670000e-06	5.866989e-06	2.504765e-08	4.214736e+01	1.644500e+03
1.680000e-06	5.862196e-06	2.503906e-08	4.211292e+01	1.643857e+03
1.690000e-06	5.855296e-06	2.502908e-08	4.206335e+01	1.643026e+03
1.700000e-06	5.846481e-06	2.501593e-08	4.200003e+01	1.642001e+03
1.710000e-06	5.835932e-06	2.500104e-08	4.192425e+01	1.640775e+03
1.720000e-06	5.823329e-06	2.498973e-08	4.183371e+01	1.639343e+03
1.730000e-06	5.808592e-06	2.497609e-08	4.172784e+01	1.637702e+03
1.740000e-06	5.791961e-06	2.487676e-08	4.160837e+01	1.635859e+03
1.750000e-06	5.773096e-06	2.480921e-08	4.147285e+01	1.633825e+03
1.760000e-06	5.751435e-06	2.482728e-08	4.131724e+01	1.631619e+03
1.770000e-06	5.727099e-06	2.479857e-08	4.114241e+01	1.629263e+03
1.780000e-06	5.700772e-06	2.483729e-08	4.095329e+01	1.626777e+03
1.790000e-06	5.673283e-06	2.483216e-08	4.075581e+01	1.624177e+03
1.800000e-06	5.644797e-06	2.462662e-08	4.055117e+01	1.621467e+03
1.810000e-06	5.614283e-06	2.465598e-08	4.033196e+01	1.618636e+03
1.820000e-06	5.581440e-06	2.465598e-08	4.009602e+01	1.615663e+03
1.830000e-06	5.546957e-06	2.451840e-08	3.984831e+01	1.612512e+03
1.840000e-06	5.510563e-06	2.463916e-08	3.958686e+01	1.609144e+03
1.850000e-06	5.471962e-06	2.452514e-08	3.930955e+01	1.605520e+03
1.860000e-06	5.431373e-06	2.437402e-08	3.901797e+01	1.601611e+03
1.870000e-06	5.388906e-06	2.441539e-08	3.871290e+01	1.597399e+03
1.880000e-06	5.344827e-06	2.425589e-08	3.839624e+01	1.592885e+03
1.890000e-06	5.298874e-06	2.422422e-08	3.806612e+01	1.588082e+03
1.900000e-06	5.250697e-06	2.416144e-08	3.772003e+01	1.583013e+03
1.910000e-06	5.200459e-06	2.402276e-08	3.735913e+01	1.577702e+03
1.920000e-06	5.148021e-06	2.405930e-08	3.698243e+01	1.572171e+03
1.930000e-06	5.093487e-06	2.390723e-08	3.659066e+01	1.566428e+03
1.940000e-06	5.037097e-06	2.382207e-08	3.618556e+01	1.560467e+03
1.950000e-06	4.978824e-06	2.374168e-08	3.576694e+01	1.554271e+03
1.960000e-06	4.918836e-06	2.359624e-08	3.533600e+01	1.547811e+03
1.970000e-06	4.856975e-06	2.354187e-08	3.489160e+01	1.541061e+03
1.980000e-06	4.793165e-06	2.337730e-08	3.443320e+01	1.533994e+03
1.990000e-06	4.727632e-06	2.331076e-08	3.396243e+01	1.526598e+03
2.000000e-06	4.660464e-06	2.320832e-08	3.347991e+01	1.518870e+03
2.010000e-06	4.591677e-06	2.305254e-08	3.298575e+01	1.510821e+03
2.020000e-06	4.521046e-06	2.294386e-08	3.247836e+01	1.502465e+03
2.030000e-06	4.448679e-06	2.276789e-08	3.195848e+01	1.493814e+03
2.040000e-06	4.374732e-06	2.268123e-08	3.142726e+01	1.484876e+03
2.050000e-06	4.299201e-06	2.253898e-08	3.088466e+01	1.475643e+03
2.060000e-06	4.221946e-06	2.238899e-08	3.032967e+01	1.466096e+03
2.070000e-06	4.142908e-06	2.225174e-08	2.976188e+01	1.456205e+03
2.080000e-06	4.062422e-06	2.206918e-08	2.918368e+01	1.445936e+03
2.090000e-06	3.980571e-06	2.191506e-08	2.859568e+01	1.435256e+03
2.100000e-06	3.897440e-06	2.173056e-08	2.799848e+01	1.424142e+03
2.110000e-06	3.813084e-06	2.157813e-08	2.739249e+01	1.412584e+03
2.120000e-06	3.727296e-06	2.139596e-08	2.677620e+01	1.400583e+03
2.130000e-06	3.640026e-06	2.120220e-08	2.614927e+01	1.388144e+03
2.140000e-06	3.551445e-06	2.100897e-08	2.551292e+01	1.375274e+03
2.150000e-06	3.461670e-06	2.079956e-08	2.486799e+01	1.361971e+03
2.160000e-06	3.370709e-06	2.059976e-08	2.421455e+01	1.348214e+03
2.170000e-06	3.278673e-06	2.038145e-08	2.355338e+01	1.333970e+03
2.180000e-06	3.185517e-06	2.016308e-08	2.288416e+01	1.319186e+03
2.190000e-06	3.090983e-06	1.992101e-08	2.220505e+01	1.303801e+03
2.200000e-06	2.995184e-06	1.967233e-08	2.151684e+01	1.287755e+03
2.210000e-06	2.898351e-06	1.941578e-08	2.082122e+01	1.270994e+03
2.220000e-06	2.800531e-06	1.915386e-08	2.011850e+01	1.253480e+03
2.230000e-06	2.701721e-06	1.888350e-08	1.940866e+01	1.235189e+03
2.240000e-06	2.601993e-06	1.859747e-08	1.869224e+01	1.216107e+03
2.250000e-06	2.501506e-06	1.830082e-08	1.797035e+01	1.196223e+03
2.260000e-06	2.400061e-06	1.798072e-08	1.724159e+01	1.175518e+03
2.270000e-06	2.297416e-06	1.764694e-08	1.650421e+01	1.153956e+03
2.280000e-06	2.193710e-06	1.730098e-08	1.575920e+01	1.131475e+03
2.290000e-06	2.089255e-06	1.694679e-08	1.500882e+01	1.107989e+03
2.300000e-06	1.984151e-06	1.657424e-08	1.425377e+01	1.083392e+03
2.310000e-06	1.878393e-06	1.618298e-08	1.349403e+01	1.057565e+03
2.320000e-06	1.772017e-06	1.577163e-08	1.272984e+01	1.030387e+03
2.330000e-06	1.665024e-06	1.533636e-08	1.196122e+01	1.001743e+03
2.340000e-06	1.557514e-06	1.487524e-08	1.118889e+01	9.715264e+02
2.350000e-06	1.449610e-06	1.438902e-08	1.041373e+01	9.396389e+02
2.360000e-06	1.341399e-06	1.387923e-08	9.636360e+00	9.059833e+02
2.370000e-06	1.232859e-06	1.333953e-08	8.856630e+00	8.704580e+02
2.380000e-06	1.123981e-06	1.276662e-08	8.074471e+00	8.329519e+02
2.390000e-06	1.014725e-06	1.215787e-08	7.289593e+00	7.933468e+02
2.400000e-06	9.049891e-07	1.151569e-08	6.501273e+00	7.515284e+02
2.410000e-06	7.948746e-07	1.084062e-08	5.710231e+00	7.074061e+02
2.420000e-06	6.845190e-07	1.013491e-08	4.917457e+00	6.609383e+02
2.430000e-06	5.739332e-07	9.396986e-09	4.123029e+00	6.121574e+02
2.440000e-06	4.631257e-07	8.625012e-09	3.327009e+00	5.611890e+02
2.450000e-06	3.522155e-07	7.819529e-09	2.530250e+00	5.082567e+02
2.460000e-06	2.412625e-07	6.982852e-09	1.733185e+00	4.536690e+02
2.470000e-06	1.301141e-07	6.124349e-09	9.347153e-01	3.977883e+02
2.480000e-06	1.887059e-08	5.254295e-09	1.355628e-01	3.409840e+02
2.490000e-06	-9.229294e-08	4.378051e-09	-6.630153e-01	2.835791e+02
2.500000e-06	-2.033974e-07	3.496919e-09	-1.461169e+00	2.257996e+02
2.510000e-06	-3.143940e-07	2.611093e-09	-2.258548e+00	1.677390e+02
2.520000e-06	-4.253063e-07	1.719309e-09	-3.055321e+00	1.093457e+02
2.530000e-06	-5.361698e-07	8.185903e-10	-3.851744e+00	5.043968e+01
2.540000e-06	-6.468667e-07	-9.378147e-11	-4.646970e+00	-9.243735e+00
2.550000e-06	-7.572724e-07	-1.020883e-09	-5.440104e+00	-6.998824e+01
2.560000e-06	-8.673863e-07	-1.965786e-09	-6.231142e+00	-1.320213e+02
2.570000e-06	-9.771252e-07	-2.932015e-09	-7.019485e+00	-1.954430e+02
2.580000e-06	-1.086423e-06	-3.922470e-09	-7.804664e+00	-2.601721e+02
2.590000e-06	-1.195337e-06	-4.931435e-09	-8.587078e+00	-3.259213e+02
2.600000e-06	-1.303890e-06	-5.949435e-09	-9.366901e+00	-3.922053e+02
2.610000e-06	-1.412079e-06	-6.965230e-09	-1.014411e+01	-4.583812e+02
2.620000e-06	-1.519853e-06	-7.965798e-09	-1.091834e+01	-5.237150e+02
2.630000e-06	-1.627134e-06	-8.938820e-09	-1.168903e+01	-5.874600e+02
2.640000e-06	-1.733813e-06	-9.876250e-09	-1.245539e+01	-6.489361e+02
2.650000e-06	-1.839868e-06	-1.077407e-08	-1.321727e+01	-7.075942e+02
2.660000e-06	-1.945293e-06	-1.162596e-08	-1.397462e+01	-7.630582e+02
2.670000e-06	-2.050002e-06	-1.242664e-08	-1.472683e+01	-8.151383e+02
2.680000e-06	-2.153949e-06	-1.317460e-08	-1.547357e+01	-8.638182e+02
2.690000e-06	-2.257072e-06	-1.387089e-08	-1.621439e+01	-9.092202e+02
2.700000e-06	-2.359169e-06	-1.451965e-08	-1.694783e+01	-9.515588e+02
2.710000e-06	-2.460216e-06	-1.512786e-08	-1.767374e+01	-9.910926e+02
2.720000e-06	-2.560375e-06	-1.569809e-08	-1.839326e+01	-1.028083e+03
2.730000e-06	-2.659693e-06	-1.623098e-08	-1.910674e+01	-1.062764e+03
2.740000e-06	-2.758152e-06	-1.672826e-08	-1.981405e+01	-1.095334e+03
2.750000e-06	-2.855670e-06	-1.719388e-08	-2.051460e+01	-1.125950e+03
2.760000e-06	-2.952221e-06	-1.763216e-08	-2.120821e+01	-1.154743e+03
2.770000e-06	-3.047858e-06	-1.804598e-08	-2.189524e+01	-1.181828e+03
2.780000e-06	-3.142440e-06	-1.843897e-08	-2.257471e+01	-1.207319e+03
2.790000e-06	-3.235768e-06	-1.881021e-08	-2.324515e+01	-1.231335e+03
2.800000e-06	-3.327871e-06	-1.915698e-08	-2.390681e+01	-1.253999e+03
2.810000e-06	-3.418773e-06	-1.948194e-08	-2.455983e+01	-1.275437e+03
2.820000e-06	-3.508447e-06	-1.978979e-08	-2.520403e+01	-1.295765e+03
2.830000e-06	-3.596996e-06	-2.008351e-08	-2.584015e+01	-1.315085e+03
2.840000e-06	-3.684383e-06	-2.036466e-08	-2.646792e+01	-1.333474e+03
2.850000e-06	-3.770371e-06	-2.063316e-08	-2.708564e+01	-1.350988e+03
2.860000e-06	-3.854882e-06	-2.088917e-08	-2.769276e+01	-1.367664e+03
2.870000e-06	-3.938022e-06	-2.113245e-08	-2.829001e+01	-1.383529e+03
2.880000e-06	-4.019867e-06	-2.136370e-08	-2.887798e+01	-1.398605e+03
2.890000e-06	-4.100335e-06	-2.158467e-08	-2.945604e+01	-1.412924e+03
2.900000e-06	-4.179186e-06	-2.179425e-08	-3.002249e+01	-1.426523e+03
2.910000e-06	-4.256284e-06	-2.199406e-08	-3.057635e+01	-1.439453e+03
2.920000e-06	-4.331720e-06	-2.218452e-08	-3.111827e+01	-1.451768e+03
2.930000e-06	-4.405583e-06	-2.236397e-08	-3.164889e+01	-1.463523e+03
2.940000e-06	-4.477843e-06	-2.253374e-08	-3.216799e+01	-1.474762e+03
