# Temperatura_=_82.49
# Concentracion g/m^3_=_28200.0
# C_Vs_to_Am_M_A/Vsm_=_65563218390.804596
# pendiente_HvsI_1/m_=_3716.3
# ordenada_HvsI_A/m_=_1297.0
# frecuencia_Hz_=_301917.9600479133

Tiempo_(s)	Campo_(V.s)	Magnetizacion_(V.s)	Campo_(kA/m)	Magnetizacion_(A/m)
0.000000e+00	-5.895776e-06	-2.479588e-08	-4.195132e+01	-1.625342e+03
1.000000e-08	-5.893403e-06	-2.479544e-08	-4.193444e+01	-1.624942e+03
2.000000e-08	-5.888961e-06	-2.478739e-08	-4.190283e+01	-1.624362e+03
3.000000e-08	-5.882679e-06	-2.477697e-08	-4.185814e+01	-1.623599e+03
4.000000e-08	-5.874622e-06	-2.476429e-08	-4.180081e+01	-1.622653e+03
5.000000e-08	-5.864569e-06	-2.474354e-08	-4.172927e+01	-1.621519e+03
6.000000e-08	-5.852315e-06	-2.471820e-08	-4.164208e+01	-1.620192e+03
7.000000e-08	-5.837933e-06	-2.468334e-08	-4.153975e+01	-1.618670e+03
8.000000e-08	-5.821332e-06	-2.466012e-08	-4.142162e+01	-1.616953e+03
9.000000e-08	-5.802602e-06	-2.471067e-08	-4.128835e+01	-1.615047e+03
1.000000e-07	-5.781749e-06	-2.470049e-08	-4.113997e+01	-1.612961e+03
1.100000e-07	-5.758653e-06	-2.459479e-08	-4.097563e+01	-1.610712e+03
1.200000e-07	-5.733301e-06	-2.454924e-08	-4.079524e+01	-1.608319e+03
1.300000e-07	-5.705946e-06	-2.448314e-08	-4.060059e+01	-1.605798e+03
1.400000e-07	-5.677110e-06	-2.433161e-08	-4.039541e+01	-1.603159e+03
1.500000e-07	-5.646841e-06	-2.442594e-08	-4.018003e+01	-1.600403e+03
1.600000e-07	-5.614882e-06	-2.444826e-08	-3.995263e+01	-1.597517e+03
1.700000e-07	-5.581020e-06	-2.425980e-08	-3.971168e+01	-1.594476e+03
1.800000e-07	-5.545177e-06	-2.434812e-08	-3.945665e+01	-1.591245e+03
1.900000e-07	-5.507370e-06	-2.423691e-08	-3.918763e+01	-1.587786e+03
2.000000e-07	-5.467704e-06	-2.406933e-08	-3.890539e+01	-1.584063e+03
2.100000e-07	-5.426022e-06	-2.414994e-08	-3.860880e+01	-1.580049e+03
2.200000e-07	-5.382188e-06	-2.403797e-08	-3.829690e+01	-1.575732e+03
2.300000e-07	-5.336396e-06	-2.394231e-08	-3.797107e+01	-1.571115e+03
2.400000e-07	-5.288472e-06	-2.390063e-08	-3.763006e+01	-1.566213e+03
2.500000e-07	-5.238163e-06	-2.378262e-08	-3.727209e+01	-1.561050e+03
2.600000e-07	-5.185530e-06	-2.373189e-08	-3.689758e+01	-1.555649e+03
2.700000e-07	-5.130904e-06	-2.363937e-08	-3.650889e+01	-1.550029e+03
2.800000e-07	-5.074534e-06	-2.355015e-08	-3.610779e+01	-1.544194e+03
2.900000e-07	-5.016209e-06	-2.345064e-08	-3.569278e+01	-1.538138e+03
3.000000e-07	-4.955911e-06	-2.333890e-08	-3.526373e+01	-1.531841e+03
3.100000e-07	-4.893842e-06	-2.325050e-08	-3.482208e+01	-1.525278e+03
3.200000e-07	-4.830041e-06	-2.314042e-08	-3.436810e+01	-1.518420e+03
3.300000e-07	-4.764376e-06	-2.305975e-08	-3.390087e+01	-1.511248e+03
3.400000e-07	-4.696843e-06	-2.292722e-08	-3.342033e+01	-1.503749e+03
3.500000e-07	-4.627657e-06	-2.279576e-08	-3.292804e+01	-1.495923e+03
3.600000e-07	-4.556924e-06	-2.268405e-08	-3.242474e+01	-1.487777e+03
3.700000e-07	-4.484660e-06	-2.254611e-08	-3.191055e+01	-1.479322e+03
3.800000e-07	-4.410563e-06	-2.243532e-08	-3.138331e+01	-1.470565e+03
3.900000e-07	-4.334539e-06	-2.229511e-08	-3.084236e+01	-1.461506e+03
4.000000e-07	-4.256823e-06	-2.213918e-08	-3.028938e+01	-1.452133e+03
4.100000e-07	-4.177383e-06	-2.198735e-08	-2.972412e+01	-1.442424e+03
4.200000e-07	-4.096313e-06	-2.183152e-08	-2.914727e+01	-1.432350e+03
4.300000e-07	-4.013912e-06	-2.167852e-08	-2.856095e+01	-1.421884e+03
4.400000e-07	-3.930323e-06	-2.150703e-08	-2.796617e+01	-1.411001e+03
4.500000e-07	-3.845541e-06	-2.134415e-08	-2.736291e+01	-1.399686e+03
4.600000e-07	-3.759516e-06	-2.115860e-08	-2.675079e+01	-1.387937e+03
4.700000e-07	-3.672355e-06	-2.096563e-08	-2.613060e+01	-1.375755e+03
4.800000e-07	-3.584030e-06	-2.077542e-08	-2.550212e+01	-1.363146e+03
4.900000e-07	-3.494208e-06	-2.057676e-08	-2.486300e+01	-1.350108e+03
5.000000e-07	-3.402898e-06	-2.037370e-08	-2.421328e+01	-1.336627e+03
5.100000e-07	-3.310348e-06	-2.015589e-08	-2.355474e+01	-1.322672e+03
5.200000e-07	-3.216659e-06	-1.993550e-08	-2.288810e+01	-1.308200e+03
5.300000e-07	-3.121926e-06	-1.970158e-08	-2.221403e+01	-1.293153e+03
5.400000e-07	-3.026112e-06	-1.946050e-08	-2.153226e+01	-1.277473e+03
5.500000e-07	-2.929032e-06	-1.920843e-08	-2.084149e+01	-1.261103e+03
5.600000e-07	-2.830709e-06	-1.894572e-08	-2.014188e+01	-1.244001e+03
5.700000e-07	-2.731279e-06	-1.867100e-08	-1.943439e+01	-1.226136e+03
5.800000e-07	-2.630847e-06	-1.838494e-08	-1.871976e+01	-1.207489e+03
5.900000e-07	-2.529464e-06	-1.809137e-08	-1.799837e+01	-1.188045e+03
6.000000e-07	-2.427140e-06	-1.778160e-08	-1.727029e+01	-1.167783e+03
6.100000e-07	-2.324049e-06	-1.745716e-08	-1.653674e+01	-1.146668e+03
6.200000e-07	-2.220190e-06	-1.711744e-08	-1.579774e+01	-1.124644e+03
6.300000e-07	-2.115354e-06	-1.676419e-08	-1.505178e+01	-1.101630e+03
6.400000e-07	-2.009555e-06	-1.639485e-08	-1.429897e+01	-1.077526e+03
6.500000e-07	-1.902998e-06	-1.600852e-08	-1.354076e+01	-1.052218e+03
6.600000e-07	-1.795802e-06	-1.560163e-08	-1.277801e+01	-1.025587e+03
6.700000e-07	-1.687936e-06	-1.517029e-08	-1.201049e+01	-9.975213e+02
6.800000e-07	-1.579451e-06	-1.471747e-08	-1.123856e+01	-9.679127e+02
6.900000e-07	-1.470526e-06	-1.424186e-08	-1.046351e+01	-9.366622e+02
7.000000e-07	-1.361160e-06	-1.374095e-08	-9.685321e+00	-9.036719e+02
7.100000e-07	-1.251317e-06	-1.321131e-08	-8.903734e+00	-8.688388e+02
7.200000e-07	-1.141088e-06	-1.265058e-08	-8.119396e+00	-8.320489e+02
7.300000e-07	-1.030547e-06	-1.205497e-08	-7.332844e+00	-7.931792e+02
7.400000e-07	-9.197596e-07	-1.142465e-08	-6.544539e+00	-7.521065e+02
7.500000e-07	-8.087585e-07	-1.076110e-08	-5.754712e+00	-7.087265e+02
7.600000e-07	-6.975135e-07	-1.006381e-08	-4.963149e+00	-6.629797e+02
7.700000e-07	-5.859896e-07	-9.330061e-09	-4.169602e+00	-6.148776e+02
7.800000e-07	-4.741793e-07	-8.560966e-09	-3.374017e+00	-5.645251e+02
7.900000e-07	-3.621714e-07	-7.760924e-09	-2.577026e+00	-5.121286e+02
8.000000e-07	-2.500460e-07	-6.934194e-09	-1.779199e+00	-4.579879e+02
8.100000e-07	-1.377833e-07	-6.088141e-09	-9.803955e-01	-4.024670e+02
8.200000e-07	-2.537611e-08	-5.228863e-09	-1.805635e-01	-3.459497e+02
8.300000e-07	8.715030e-08	-4.361301e-09	6.201170e-01	-2.887842e+02
8.400000e-07	1.997066e-07	-3.486357e-09	1.421010e+00	-2.312297e+02
8.500000e-07	3.121981e-07	-2.604200e-09	2.221442e+00	-1.734151e+02
8.600000e-07	4.245024e-07	-1.713672e-09	3.020542e+00	-1.153195e+02
8.700000e-07	5.365815e-07	-8.164237e-10	3.818039e+00	-5.678271e+01
8.800000e-07	6.484620e-07	8.681708e-11	4.614124e+00	2.455509e+00
8.900000e-07	7.600990e-07	1.000943e-09	5.408476e+00	6.269244e+01
9.000000e-07	8.714451e-07	1.933657e-09	6.200758e+00	1.241858e+02
9.100000e-07	9.825129e-07	2.889150e-09	6.991060e+00	1.870782e+02
9.200000e-07	1.093333e-06	3.864326e-09	7.779598e+00	2.513371e+02
9.300000e-07	1.203872e-06	4.858238e-09	8.566138e+00	3.167219e+02
9.400000e-07	1.314063e-06	5.866200e-09	9.350200e+00	3.827844e+02
9.500000e-07	1.423790e-06	6.876383e-09	1.013096e+01	4.489044e+02
9.600000e-07	1.532974e-06	7.874452e-09	1.090786e+01	5.143518e+02
9.700000e-07	1.641639e-06	8.848749e-09	1.168107e+01	5.783668e+02
9.800000e-07	1.749770e-06	9.786510e-09	1.245047e+01	6.402405e+02
9.900000e-07	1.857267e-06	1.067926e-08	1.321536e+01	6.993858e+02
1.000000e-06	1.964049e-06	1.152474e-08	1.397517e+01	7.553848e+02
1.010000e-06	2.070116e-06	1.232006e-08	1.472988e+01	8.080082e+02
1.020000e-06	2.175369e-06	1.306555e-08	1.547881e+01	8.572075e+02
1.030000e-06	2.279670e-06	1.376086e-08	1.622097e+01	9.030825e+02
1.040000e-06	2.382989e-06	1.441205e-08	1.695613e+01	9.458361e+02
1.050000e-06	2.485386e-06	1.502167e-08	1.768473e+01	9.857246e+02
1.060000e-06	2.586956e-06	1.559147e-08	1.840745e+01	1.023014e+03
1.070000e-06	2.687682e-06	1.612219e-08	1.912417e+01	1.057949e+03
1.080000e-06	2.787494e-06	1.661723e-08	1.983438e+01	1.090735e+03
1.090000e-06	2.886383e-06	1.708120e-08	2.053802e+01	1.121542e+03
1.100000e-06	2.984232e-06	1.751730e-08	2.123427e+01	1.150504e+03
1.110000e-06	3.080825e-06	1.792996e-08	2.192158e+01	1.177743e+03
1.120000e-06	3.176180e-06	1.832080e-08	2.260007e+01	1.203374e+03
1.130000e-06	3.270476e-06	1.869002e-08	2.327104e+01	1.227514e+03
1.140000e-06	3.363765e-06	1.903912e-08	2.393483e+01	1.250288e+03
1.150000e-06	3.455967e-06	1.937048e-08	2.459089e+01	1.271818e+03
1.160000e-06	3.547007e-06	1.968378e-08	2.523869e+01	1.292221e+03
1.170000e-06	3.636733e-06	1.998107e-08	2.587713e+01	1.311597e+03
1.180000e-06	3.725021e-06	2.026141e-08	2.650535e+01	1.330025e+03
1.190000e-06	3.811990e-06	2.052584e-08	2.712417e+01	1.347561e+03
1.200000e-06	3.897730e-06	2.077680e-08	2.773425e+01	1.364245e+03
1.210000e-06	3.982229e-06	2.101564e-08	2.833550e+01	1.380105e+03
1.220000e-06	4.065479e-06	2.124373e-08	2.892787e+01	1.395168e+03
1.230000e-06	4.147253e-06	2.146143e-08	2.950973e+01	1.409468e+03
1.240000e-06	4.227365e-06	2.166878e-08	3.007977e+01	1.423046e+03
1.250000e-06	4.305915e-06	2.186593e-08	3.063869e+01	1.435954e+03
1.260000e-06	4.382919e-06	2.205406e-08	3.118661e+01	1.448248e+03
1.270000e-06	4.458304e-06	2.223418e-08	3.172301e+01	1.459981e+03
1.280000e-06	4.531869e-06	2.240466e-08	3.224646e+01	1.471199e+03
1.290000e-06	4.603555e-06	2.256803e-08	3.275654e+01	1.481931e+03
1.300000e-06	4.673557e-06	2.272392e-08	3.325464e+01	1.492191e+03
1.310000e-06	4.741994e-06	2.287262e-08	3.374161e+01	1.501979e+03
1.320000e-06	4.808807e-06	2.301608e-08	3.421701e+01	1.511286e+03
1.330000e-06	4.873739e-06	2.315372e-08	3.467904e+01	1.520101e+03
1.340000e-06	4.936822e-06	2.328266e-08	3.512790e+01	1.528423e+03
1.350000e-06	4.998278e-06	2.340186e-08	3.556519e+01	1.536256e+03
1.360000e-06	5.058153e-06	2.351480e-08	3.599123e+01	1.543623e+03
1.370000e-06	5.116266e-06	2.362177e-08	3.640473e+01	1.550555e+03
1.380000e-06	5.172423e-06	2.372194e-08	3.680432e+01	1.557093e+03
1.390000e-06	5.226651e-06	2.381435e-08	3.719017e+01	1.563279e+03
1.400000e-06	5.278889e-06	2.390148e-08	3.756187e+01	1.569151e+03
1.410000e-06	5.328897e-06	2.398646e-08	3.791771e+01	1.574740e+03
1.420000e-06	5.376710e-06	2.406897e-08	3.825792e+01	1.580068e+03
1.430000e-06	5.422649e-06	2.414722e-08	3.858479e+01	1.585144e+03
1.440000e-06	5.466882e-06	2.422075e-08	3.889954e+01	1.589972e+03
1.450000e-06	5.509220e-06	2.429089e-08	3.920079e+01	1.594547e+03
1.460000e-06	5.549465e-06	2.435816e-08	3.948715e+01	1.598865e+03
1.470000e-06	5.587724e-06	2.442134e-08	3.975938e+01	1.602919e+03
1.480000e-06	5.624190e-06	2.447907e-08	4.001886e+01	1.606706e+03
1.490000e-06	5.658753e-06	2.453224e-08	4.026479e+01	1.610224e+03
1.500000e-06	5.691178e-06	2.458056e-08	4.049551e+01	1.613473e+03
1.510000e-06	5.721574e-06	2.462589e-08	4.071179e+01	1.616454e+03
1.520000e-06	5.750146e-06	2.466875e-08	4.091510e+01	1.619169e+03
1.530000e-06	5.776719e-06	2.470806e-08	4.110418e+01	1.621622e+03
1.540000e-06	5.801020e-06	2.474233e-08	4.127709e+01	1.623817e+03
1.550000e-06	5.823176e-06	2.477040e-08	4.143475e+01	1.625761e+03
1.560000e-06	5.843419e-06	2.479552e-08	4.157878e+01	1.627461e+03
1.570000e-06	5.861628e-06	2.481803e-08	4.170835e+01	1.628928e+03
1.580000e-06	5.877606e-06	2.483650e-08	4.182204e+01	1.630171e+03
1.590000e-06	5.891379e-06	2.485160e-08	4.192004e+01	1.631202e+03
1.600000e-06	5.902875e-06	2.486476e-08	4.200184e+01	1.632030e+03
1.610000e-06	5.911999e-06	2.487536e-08	4.206676e+01	1.632663e+03
1.620000e-06	5.918903e-06	2.488311e-08	4.211589e+01	1.633105e+03
1.630000e-06	5.923832e-06	2.488848e-08	4.215096e+01	1.633362e+03
1.640000e-06	5.926729e-06	2.489247e-08	4.217157e+01	1.633434e+03
1.650000e-06	5.927393e-06	2.489506e-08	4.217630e+01	1.633324e+03
1.660000e-06	5.926008e-06	2.488817e-08	4.216644e+01	1.633032e+03
1.670000e-06	5.922847e-06	2.487538e-08	4.214395e+01	1.632560e+03
1.680000e-06	5.917772e-06	2.486801e-08	4.210784e+01	1.631907e+03
1.690000e-06	5.910617e-06	2.485706e-08	4.205693e+01	1.631071e+03
1.700000e-06	5.901531e-06	2.484222e-08	4.199228e+01	1.630050e+03
1.710000e-06	5.890656e-06	2.482853e-08	4.191490e+01	1.628839e+03
1.720000e-06	5.877749e-06	2.482351e-08	4.182305e+01	1.627435e+03
1.730000e-06	5.862672e-06	2.480776e-08	4.171578e+01	1.625835e+03
1.740000e-06	5.845678e-06	2.468322e-08	4.159485e+01	1.624041e+03
1.750000e-06	5.826411e-06	2.462760e-08	4.145776e+01	1.622061e+03
1.760000e-06	5.804173e-06	2.466536e-08	4.129953e+01	1.619908e+03
1.770000e-06	5.779258e-06	2.462669e-08	4.112224e+01	1.617599e+03
1.780000e-06	5.752507e-06	2.469120e-08	4.093189e+01	1.615152e+03
1.790000e-06	5.724721e-06	2.468185e-08	4.073419e+01	1.612582e+03
1.800000e-06	5.695888e-06	2.443428e-08	4.052903e+01	1.609897e+03
1.810000e-06	5.664873e-06	2.450568e-08	4.030834e+01	1.607090e+03
1.820000e-06	5.631605e-06	2.448417e-08	4.007162e+01	1.604146e+03
1.830000e-06	5.596711e-06	2.432610e-08	3.982333e+01	1.601034e+03
1.840000e-06	5.559750e-06	2.449514e-08	3.956034e+01	1.597716e+03
1.850000e-06	5.520564e-06	2.431428e-08	3.928151e+01	1.594156e+03
1.860000e-06	5.479412e-06	2.417476e-08	3.898869e+01	1.590320e+03
1.870000e-06	5.436415e-06	2.424953e-08	3.868275e+01	1.586186e+03
1.880000e-06	5.391842e-06	2.406103e-08	3.836559e+01	1.581749e+03
1.890000e-06	5.345181e-06	2.408387e-08	3.803357e+01	1.577016e+03
1.900000e-06	5.296159e-06	2.399640e-08	3.768476e+01	1.572007e+03
1.910000e-06	5.245134e-06	2.384208e-08	3.732169e+01	1.566746e+03
1.920000e-06	5.191862e-06	2.388772e-08	3.694264e+01	1.561256e+03
1.930000e-06	5.136506e-06	2.370347e-08	3.654875e+01	1.555550e+03
1.940000e-06	5.079316e-06	2.366424e-08	3.614181e+01	1.549629e+03
1.950000e-06	5.020335e-06	2.357027e-08	3.572214e+01	1.543480e+03
1.960000e-06	4.959616e-06	2.344128e-08	3.529009e+01	1.537080e+03
1.970000e-06	4.896901e-06	2.338827e-08	3.484384e+01	1.530403e+03
1.980000e-06	4.832270e-06	2.318340e-08	3.438396e+01	1.523422e+03
1.990000e-06	4.765892e-06	2.315155e-08	3.391165e+01	1.516121e+03
2.000000e-06	4.697931e-06	2.303505e-08	3.342807e+01	1.508492e+03
2.010000e-06	4.628198e-06	2.289861e-08	3.293189e+01	1.500537e+03
2.020000e-06	4.556546e-06	2.279002e-08	3.242205e+01	1.492267e+03
2.030000e-06	4.483334e-06	2.259791e-08	3.190111e+01	1.483692e+03
2.040000e-06	4.408546e-06	2.252248e-08	3.136896e+01	1.474816e+03
2.050000e-06	4.332025e-06	2.235883e-08	3.082447e+01	1.465634e+03
2.060000e-06	4.253712e-06	2.222682e-08	3.026724e+01	1.456130e+03
2.070000e-06	4.173766e-06	2.208548e-08	2.969839e+01	1.446280e+03
2.080000e-06	4.092413e-06	2.191134e-08	2.911952e+01	1.436054e+03
2.090000e-06	4.009665e-06	2.175830e-08	2.853073e+01	1.425425e+03
2.100000e-06	3.925622e-06	2.156241e-08	2.793272e+01	1.414373e+03
2.110000e-06	3.840148e-06	2.141874e-08	2.732453e+01	1.402886e+03
2.120000e-06	3.753200e-06	2.123080e-08	2.670585e+01	1.390965e+03
2.130000e-06	3.664960e-06	2.104980e-08	2.607798e+01	1.378613e+03
2.140000e-06	3.575473e-06	2.085452e-08	2.544124e+01	1.365835e+03
2.150000e-06	3.484791e-06	2.064932e-08	2.479599e+01	1.352624e+03
2.160000e-06	3.392958e-06	2.044828e-08	2.414255e+01	1.338960e+03
2.170000e-06	3.299870e-06	2.022513e-08	2.348019e+01	1.324807e+03
2.180000e-06	3.205424e-06	2.000739e-08	2.280816e+01	1.310114e+03
2.190000e-06	3.109733e-06	1.976833e-08	2.212727e+01	1.294824e+03
2.200000e-06	3.012939e-06	1.953075e-08	2.143853e+01	1.278878e+03
2.210000e-06	2.915108e-06	1.927474e-08	2.074242e+01	1.262223e+03
2.220000e-06	2.816311e-06	1.901526e-08	2.003943e+01	1.244823e+03
2.230000e-06	2.716611e-06	1.874334e-08	1.933001e+01	1.226652e+03
2.240000e-06	2.615923e-06	1.845698e-08	1.861357e+01	1.207692e+03
2.250000e-06	2.514170e-06	1.815977e-08	1.788955e+01	1.187928e+03
2.260000e-06	2.411387e-06	1.784253e-08	1.715819e+01	1.167335e+03
2.270000e-06	2.307587e-06	1.751328e-08	1.641961e+01	1.145869e+03
2.280000e-06	2.202867e-06	1.717100e-08	1.567447e+01	1.123466e+03
2.290000e-06	2.097383e-06	1.681739e-08	1.492391e+01	1.100035e+03
2.300000e-06	1.991176e-06	1.644222e-08	1.416819e+01	1.075471e+03
2.310000e-06	1.884404e-06	1.605250e-08	1.340845e+01	1.049656e+03
2.320000e-06	1.777174e-06	1.564177e-08	1.264546e+01	1.022473e+03
2.330000e-06	1.669386e-06	1.520693e-08	1.187850e+01	9.938120e+02
2.340000e-06	1.560963e-06	1.474324e-08	1.110701e+01	9.635686e+02
2.350000e-06	1.452025e-06	1.425483e-08	1.033187e+01	9.316451e+02
2.360000e-06	1.342729e-06	1.374313e-08	9.554171e+00	8.979423e+02
2.370000e-06	1.233036e-06	1.320053e-08	8.773653e+00	8.623533e+02
2.380000e-06	1.122987e-06	1.262768e-08	7.990599e+00	8.247599e+02
2.390000e-06	1.012614e-06	1.202125e-08	7.205240e+00	7.850375e+02
2.400000e-06	9.017906e-07	1.137918e-08	6.416680e+00	7.430676e+02
2.410000e-06	7.905026e-07	1.070033e-08	5.624812e+00	6.987602e+02
2.420000e-06	6.788986e-07	9.989286e-09	4.830695e+00	6.520805e+02
2.430000e-06	5.670385e-07	9.245376e-09	4.034756e+00	6.030748e+02
2.440000e-06	4.549875e-07	8.468619e-09	3.237458e+00	5.518877e+02
2.450000e-06	3.427985e-07	7.660504e-09	2.439179e+00	4.987645e+02
2.460000e-06	2.304692e-07	6.824194e-09	1.639901e+00	4.440346e+02
2.470000e-06	1.180619e-07	5.966279e-09	8.400679e-01	3.880758e+02
2.480000e-06	5.565367e-09	5.095348e-09	3.960031e-02	3.312647e+02
2.490000e-06	-1.069504e-07	4.218614e-09	-7.610047e-01	2.739206e+02
2.500000e-06	-2.194131e-07	3.339607e-09	-1.561231e+00	2.162554e+02
2.510000e-06	-3.317915e-07	2.458537e-09	-2.360859e+00	1.583397e+02
2.520000e-06	-4.440504e-07	1.570536e-09	-3.159636e+00	1.000952e+02
2.530000e-06	-5.560739e-07	6.712099e-10	-3.956738e+00	4.131622e+01
2.540000e-06	-6.678901e-07	-2.416216e-10	-4.752364e+00	-1.828071e+01
2.550000e-06	-7.795016e-07	-1.169863e-09	-5.546534e+00	-7.898666e+01
2.560000e-06	-8.906974e-07	-2.114401e-09	-6.337747e+00	-1.410226e+02
2.570000e-06	-1.001478e-06	-3.080148e-09	-7.126002e+00	-2.044683e+02
2.580000e-06	-1.111808e-06	-4.068604e-09	-7.911054e+00	-2.692115e+02
2.590000e-06	-1.221687e-06	-5.073920e-09	-8.692902e+00	-3.349280e+02
2.600000e-06	-1.331189e-06	-6.089688e-09	-9.472062e+00	-4.010961e+02
2.610000e-06	-1.440308e-06	-7.103333e-09	-1.024849e+01	-4.670438e+02
2.620000e-06	-1.548990e-06	-8.099406e-09	-1.102182e+01	-5.320194e+02
2.630000e-06	-1.657094e-06	-9.065734e-09	-1.179103e+01	-5.952737e+02
2.640000e-06	-1.764548e-06	-9.995076e-09	-1.255562e+01	-6.561384e+02
2.650000e-06	-1.871423e-06	-1.088302e-08	-1.331609e+01	-7.140885e+02
2.660000e-06	-1.977752e-06	-1.172301e-08	-1.407267e+01	-7.687796e+02
2.670000e-06	-2.083392e-06	-1.250976e-08	-1.482435e+01	-8.200559e+02
2.680000e-06	-2.188226e-06	-1.324373e-08	-1.557030e+01	-8.679319e+02
2.690000e-06	-2.292252e-06	-1.392664e-08	-1.631049e+01	-9.125538e+02
2.700000e-06	-2.395367e-06	-1.456292e-08	-1.704421e+01	-9.541512e+02
2.710000e-06	-2.497540e-06	-1.516120e-08	-1.777122e+01	-9.929889e+02
2.720000e-06	-2.598775e-06	-1.572255e-08	-1.849156e+01	-1.029327e+03
2.730000e-06	-2.698934e-06	-1.624566e-08	-1.920424e+01	-1.063397e+03
2.740000e-06	-2.798062e-06	-1.673452e-08	-1.990958e+01	-1.095389e+03
2.750000e-06	-2.896303e-06	-1.719247e-08	-2.060861e+01	-1.125458e+03
2.760000e-06	-2.993620e-06	-1.762270e-08	-2.130107e+01	-1.153731e+03
2.770000e-06	-3.089926e-06	-1.802870e-08	-2.198634e+01	-1.180325e+03
2.780000e-06	-3.185176e-06	-1.841347e-08	-2.266408e+01	-1.205357e+03
2.790000e-06	-3.279331e-06	-1.877647e-08	-2.333405e+01	-1.228947e+03
2.800000e-06	-3.372307e-06	-1.911726e-08	-2.399561e+01	-1.251219e+03
2.810000e-06	-3.463992e-06	-1.943918e-08	-2.464799e+01	-1.272295e+03
2.820000e-06	-3.554435e-06	-1.974399e-08	-2.529154e+01	-1.292285e+03
2.830000e-06	-3.643679e-06	-2.003344e-08	-2.592656e+01	-1.311282e+03
2.840000e-06	-3.731686e-06	-2.030859e-08	-2.655277e+01	-1.329355e+03
2.850000e-06	-3.818352e-06	-2.056996e-08	-2.716944e+01	-1.346554e+03
2.860000e-06	-3.903530e-06	-2.081930e-08	-2.777553e+01	-1.362912e+03
2.870000e-06	-3.987280e-06	-2.105815e-08	-2.837145e+01	-1.378457e+03
2.880000e-06	-4.069678e-06	-2.128610e-08	-2.895775e+01	-1.393217e+03
2.890000e-06	-4.150661e-06	-2.150226e-08	-2.953398e+01	-1.407229e+03
2.900000e-06	-4.230106e-06	-2.170657e-08	-3.009927e+01	-1.420539e+03
2.910000e-06	-4.307872e-06	-2.190056e-08	-3.065261e+01	-1.433200e+03
2.920000e-06	-4.383854e-06	-2.208545e-08	-3.119326e+01	-1.445269e+03
2.930000e-06	-4.458190e-06	-2.226070e-08	-3.172220e+01	-1.456797e+03
2.940000e-06	-4.530974e-06	-2.242774e-08	-3.224009e+01	-1.467823e+03
