# Temperatura_=_79.35
# Concentracion g/m^3_=_28200.0
# C_Vs_to_Am_M_A/Vsm_=_65563218390.804596
# pendiente_HvsI_1/m_=_3716.3
# ordenada_HvsI_A/m_=_1297.0
# frecuencia_Hz_=_301916.43760794523

Tiempo_(s)	Campo_(V.s)	Magnetizacion_(V.s)	Campo_(kA/m)	Magnetizacion_(A/m)
0.000000e+00	-5.914610e-06	-2.461125e-08	-4.194880e+01	-1.612858e+03
1.000000e-08	-5.912259e-06	-2.461087e-08	-4.193212e+01	-1.612423e+03
2.000000e-08	-5.907885e-06	-2.460005e-08	-4.190110e+01	-1.611811e+03
3.000000e-08	-5.901763e-06	-2.458709e-08	-4.185768e+01	-1.611027e+03
4.000000e-08	-5.893908e-06	-2.457356e-08	-4.180197e+01	-1.610074e+03
5.000000e-08	-5.883975e-06	-2.455335e-08	-4.173152e+01	-1.608952e+03
6.000000e-08	-5.871754e-06	-2.452794e-08	-4.164485e+01	-1.607654e+03
7.000000e-08	-5.857397e-06	-2.449055e-08	-4.154302e+01	-1.606171e+03
8.000000e-08	-5.840840e-06	-2.446551e-08	-4.142559e+01	-1.604495e+03
9.000000e-08	-5.822142e-06	-2.453031e-08	-4.129298e+01	-1.602626e+03
1.000000e-07	-5.801333e-06	-2.452366e-08	-4.114540e+01	-1.600570e+03
1.100000e-07	-5.778338e-06	-2.441281e-08	-4.098230e+01	-1.598340e+03
1.200000e-07	-5.753079e-06	-2.437616e-08	-4.080316e+01	-1.595959e+03
1.300000e-07	-5.725766e-06	-2.431038e-08	-4.060944e+01	-1.593449e+03
1.400000e-07	-5.696974e-06	-2.412917e-08	-4.040524e+01	-1.590830e+03
1.500000e-07	-5.666712e-06	-2.424514e-08	-4.019061e+01	-1.588109e+03
1.600000e-07	-5.634680e-06	-2.427051e-08	-3.996342e+01	-1.585280e+03
1.700000e-07	-5.600737e-06	-2.406296e-08	-3.972268e+01	-1.582319e+03
1.800000e-07	-5.564867e-06	-2.419074e-08	-3.946828e+01	-1.579188e+03
1.900000e-07	-5.527025e-06	-2.407842e-08	-3.919989e+01	-1.575844e+03
2.000000e-07	-5.487317e-06	-2.392125e-08	-3.891827e+01	-1.572241e+03
2.100000e-07	-5.445652e-06	-2.401196e-08	-3.862276e+01	-1.568347e+03
2.200000e-07	-5.401817e-06	-2.386299e-08	-3.831186e+01	-1.564143e+03
2.300000e-07	-5.355964e-06	-2.376350e-08	-3.798666e+01	-1.559630e+03
2.400000e-07	-5.307953e-06	-2.372259e-08	-3.764615e+01	-1.554826e+03
2.500000e-07	-5.257522e-06	-2.360671e-08	-3.728847e+01	-1.549759e+03
2.600000e-07	-5.204796e-06	-2.359395e-08	-3.691451e+01	-1.544462e+03
2.700000e-07	-5.150070e-06	-2.349524e-08	-3.652638e+01	-1.538957e+03
2.800000e-07	-5.093522e-06	-2.338178e-08	-3.612531e+01	-1.533254e+03
2.900000e-07	-5.035060e-06	-2.327623e-08	-3.571068e+01	-1.527346e+03
3.000000e-07	-4.974670e-06	-2.317536e-08	-3.528236e+01	-1.521209e+03
3.100000e-07	-4.912494e-06	-2.310293e-08	-3.484139e+01	-1.514810e+03
3.200000e-07	-4.848553e-06	-2.300912e-08	-3.438790e+01	-1.508112e+03
3.300000e-07	-4.782723e-06	-2.293128e-08	-3.392100e+01	-1.501088e+03
3.400000e-07	-4.715049e-06	-2.277563e-08	-3.344103e+01	-1.493721e+03
3.500000e-07	-4.645688e-06	-2.264000e-08	-3.294909e+01	-1.486010e+03
3.600000e-07	-4.574712e-06	-2.252793e-08	-3.244570e+01	-1.477967e+03
3.700000e-07	-4.502236e-06	-2.239785e-08	-3.193167e+01	-1.469612e+03
3.800000e-07	-4.427987e-06	-2.230885e-08	-3.140507e+01	-1.460960e+03
3.900000e-07	-4.351860e-06	-2.216557e-08	-3.086514e+01	-1.452022e+03
4.000000e-07	-4.274035e-06	-2.199319e-08	-3.031318e+01	-1.442792e+03
4.100000e-07	-4.194436e-06	-2.183972e-08	-2.974863e+01	-1.433251e+03
4.200000e-07	-4.113187e-06	-2.169050e-08	-2.917238e+01	-1.423367e+03
4.300000e-07	-4.030627e-06	-2.154210e-08	-2.858683e+01	-1.413105e+03
4.400000e-07	-3.946906e-06	-2.137397e-08	-2.799305e+01	-1.402432e+03
4.500000e-07	-3.861941e-06	-2.121533e-08	-2.739044e+01	-1.391323e+03
4.600000e-07	-3.775688e-06	-2.103076e-08	-2.677871e+01	-1.379766e+03
4.700000e-07	-3.688303e-06	-2.084445e-08	-2.615893e+01	-1.367761e+03
4.800000e-07	-3.599752e-06	-2.066230e-08	-2.553090e+01	-1.355311e+03
4.900000e-07	-3.509678e-06	-2.046607e-08	-2.489205e+01	-1.342418e+03
5.000000e-07	-3.418134e-06	-2.026216e-08	-2.424278e+01	-1.329073e+03
5.100000e-07	-3.325343e-06	-2.004217e-08	-2.358467e+01	-1.315254e+03
5.200000e-07	-3.231332e-06	-1.982286e-08	-2.291791e+01	-1.300921e+03
5.300000e-07	-3.136242e-06	-1.958928e-08	-2.224349e+01	-1.286021e+03
5.400000e-07	-3.040153e-06	-1.934885e-08	-2.156199e+01	-1.270497e+03
5.500000e-07	-2.942813e-06	-1.909928e-08	-2.087162e+01	-1.254292e+03
5.600000e-07	-2.844114e-06	-1.884087e-08	-2.017160e+01	-1.237361e+03
5.700000e-07	-2.744383e-06	-1.857266e-08	-1.946427e+01	-1.219672e+03
5.800000e-07	-2.643691e-06	-1.829447e-08	-1.875012e+01	-1.201203e+03
5.900000e-07	-2.542001e-06	-1.800528e-08	-1.802889e+01	-1.181941e+03
6.000000e-07	-2.439390e-06	-1.769185e-08	-1.730114e+01	-1.161866e+03
6.100000e-07	-2.336005e-06	-1.736338e-08	-1.656789e+01	-1.140946e+03
6.200000e-07	-2.231881e-06	-1.702409e-08	-1.582940e+01	-1.119128e+03
6.300000e-07	-2.126832e-06	-1.667526e-08	-1.508435e+01	-1.096332e+03
6.400000e-07	-2.020700e-06	-1.631374e-08	-1.433162e+01	-1.072459e+03
6.500000e-07	-1.913656e-06	-1.593416e-08	-1.357242e+01	-1.047391e+03
6.600000e-07	-1.806012e-06	-1.553078e-08	-1.280896e+01	-1.021009e+03
6.700000e-07	-1.697861e-06	-1.510075e-08	-1.204192e+01	-9.931932e+02
6.800000e-07	-1.589118e-06	-1.465127e-08	-1.127067e+01	-9.638347e+02
6.900000e-07	-1.479828e-06	-1.418024e-08	-1.049554e+01	-9.328325e+02
7.000000e-07	-1.370104e-06	-1.368380e-08	-9.717330e+00	-9.000899e+02
7.100000e-07	-1.259934e-06	-1.315608e-08	-8.935961e+00	-8.655074e+02
7.200000e-07	-1.149391e-06	-1.259565e-08	-8.151942e+00	-8.289771e+02
7.300000e-07	-1.038528e-06	-1.200250e-08	-7.365660e+00	-7.903819e+02
7.400000e-07	-9.273478e-07	-1.137789e-08	-6.577125e+00	-7.496043e+02
7.500000e-07	-8.158934e-07	-1.072230e-08	-5.786645e+00	-7.065435e+02
7.600000e-07	-7.042303e-07	-1.003411e-08	-4.994685e+00	-6.611403e+02
7.700000e-07	-5.923363e-07	-9.308841e-09	-4.201088e+00	-6.134041e+02
7.800000e-07	-4.802366e-07	-8.543458e-09	-3.406031e+00	-5.634352e+02
7.900000e-07	-3.680192e-07	-7.744394e-09	-2.610140e+00	-5.114347e+02
8.000000e-07	-2.557219e-07	-6.920290e-09	-1.813683e+00	-4.576977e+02
8.100000e-07	-1.432935e-07	-6.080736e-09	-1.016296e+00	-4.025863e+02
8.200000e-07	-3.062353e-08	-5.230061e-09	-2.171945e-01	-3.464850e+02
8.300000e-07	8.219209e-08	-4.371949e-09	5.829394e-01	-2.897464e+02
8.400000e-07	1.949458e-07	-3.505870e-09	1.382634e+00	-2.326369e+02
8.500000e-07	3.075878e-07	-2.631581e-09	2.181537e+00	-1.752932e+02
8.600000e-07	4.200555e-07	-1.749725e-09	2.979203e+00	-1.177019e+02
8.700000e-07	5.323440e-07	-8.602554e-10	3.775599e+00	-5.970734e+01
8.800000e-07	6.445098e-07	3.716971e-11	4.571123e+00	-1.049520e+00
8.900000e-07	7.564829e-07	9.442394e-10	5.365282e+00	5.857366e+01
9.000000e-07	8.682419e-07	1.867235e-09	6.157922e+00	1.194298e+02
9.100000e-07	9.797484e-07	2.813013e-09	6.948771e+00	1.816758e+02
9.200000e-07	1.090962e-06	3.779047e-09	7.737541e+00	2.452956e+02
9.300000e-07	1.201841e-06	4.762889e-09	8.523938e+00	3.100660e+02
9.400000e-07	1.312363e-06	5.760765e-09	9.307807e+00	3.755545e+02
9.500000e-07	1.422424e-06	6.761792e-09	1.008841e+01	4.411538e+02
9.600000e-07	1.531961e-06	7.751890e-09	1.086528e+01	5.061424e+02
9.700000e-07	1.641008e-06	8.719418e-09	1.163869e+01	5.697641e+02
9.800000e-07	1.749508e-06	9.654251e-09	1.240822e+01	6.313094e+02
9.900000e-07	1.857388e-06	1.054646e-08	1.317334e+01	6.901866e+02
1.000000e-06	1.964665e-06	1.139013e-08	1.393420e+01	7.459706e+02
1.010000e-06	2.071270e-06	1.218245e-08	1.469028e+01	7.984233e+02
1.020000e-06	2.176917e-06	1.292463e-08	1.543957e+01	8.474868e+02
1.030000e-06	2.281429e-06	1.361687e-08	1.618081e+01	8.932521e+02
1.040000e-06	2.385021e-06	1.426431e-08	1.691553e+01	9.359142e+02
1.050000e-06	2.487845e-06	1.487028e-08	1.764480e+01	9.757230e+02
1.060000e-06	2.589820e-06	1.543846e-08	1.836805e+01	1.012939e+03
1.070000e-06	2.690908e-06	1.596752e-08	1.908500e+01	1.047804e+03
1.080000e-06	2.791135e-06	1.646068e-08	1.979586e+01	1.080520e+03
1.090000e-06	2.890538e-06	1.692480e-08	2.050086e+01	1.111254e+03
1.100000e-06	2.988794e-06	1.736245e-08	2.119774e+01	1.140141e+03
1.110000e-06	3.085653e-06	1.777560e-08	2.188470e+01	1.167299e+03
1.120000e-06	3.181306e-06	1.816498e-08	2.256311e+01	1.192842e+03
1.130000e-06	3.275956e-06	1.853194e-08	2.323440e+01	1.216889e+03
1.140000e-06	3.369533e-06	1.887695e-08	2.389809e+01	1.239564e+03
1.150000e-06	3.462032e-06	1.920273e-08	2.455413e+01	1.260992e+03
1.160000e-06	3.553532e-06	1.951310e-08	2.520308e+01	1.281290e+03
1.170000e-06	3.643720e-06	1.980858e-08	2.584273e+01	1.300563e+03
1.180000e-06	3.732328e-06	2.008852e-08	2.647117e+01	1.318893e+03
1.190000e-06	3.819548e-06	2.035465e-08	2.708978e+01	1.336338e+03
1.200000e-06	3.905548e-06	2.060581e-08	2.769972e+01	1.352942e+03
1.210000e-06	3.990332e-06	2.084384e-08	2.830105e+01	1.368733e+03
1.220000e-06	4.073923e-06	2.107004e-08	2.889390e+01	1.383739e+03
1.230000e-06	4.156102e-06	2.128673e-08	2.947675e+01	1.397990e+03
1.240000e-06	4.236621e-06	2.149280e-08	3.004782e+01	1.411524e+03
1.250000e-06	4.315507e-06	2.168808e-08	3.060732e+01	1.424391e+03
1.260000e-06	4.392828e-06	2.187363e-08	3.115571e+01	1.436642e+03
1.270000e-06	4.468551e-06	2.205174e-08	3.169276e+01	1.448328e+03
1.280000e-06	4.542480e-06	2.222214e-08	3.221710e+01	1.459494e+03
1.290000e-06	4.614543e-06	2.238443e-08	3.272820e+01	1.470170e+03
1.300000e-06	4.684897e-06	2.253951e-08	3.322718e+01	1.480374e+03
1.310000e-06	4.753641e-06	2.268970e-08	3.371474e+01	1.490109e+03
1.320000e-06	4.820727e-06	2.283467e-08	3.419054e+01	1.499370e+03
1.330000e-06	4.885952e-06	2.297126e-08	3.465314e+01	1.508151e+03
1.340000e-06	4.949355e-06	2.309816e-08	3.510282e+01	1.516447e+03
1.350000e-06	5.011106e-06	2.321487e-08	3.554079e+01	1.524266e+03
1.360000e-06	5.071237e-06	2.332609e-08	3.596726e+01	1.531622e+03
1.370000e-06	5.129593e-06	2.343468e-08	3.638114e+01	1.538544e+03
1.380000e-06	5.186010e-06	2.353677e-08	3.678127e+01	1.545064e+03
1.390000e-06	5.240533e-06	2.362992e-08	3.716797e+01	1.551221e+03
1.400000e-06	5.293060e-06	2.371622e-08	3.754052e+01	1.557052e+03
1.410000e-06	5.343350e-06	2.379959e-08	3.789720e+01	1.562589e+03
1.420000e-06	5.391447e-06	2.388125e-08	3.823832e+01	1.567856e+03
1.430000e-06	5.437647e-06	2.395917e-08	3.856598e+01	1.572871e+03
1.440000e-06	5.482136e-06	2.403312e-08	3.888152e+01	1.577642e+03
1.450000e-06	5.524774e-06	2.410286e-08	3.918393e+01	1.582174e+03
1.460000e-06	5.565315e-06	2.416864e-08	3.947146e+01	1.586464e+03
1.470000e-06	5.603857e-06	2.423042e-08	3.974482e+01	1.590507e+03
1.480000e-06	5.640587e-06	2.428914e-08	4.000532e+01	1.594297e+03
1.490000e-06	5.675375e-06	2.434414e-08	4.025205e+01	1.597824e+03
1.500000e-06	5.708026e-06	2.439404e-08	4.048362e+01	1.601083e+03
1.510000e-06	5.738621e-06	2.443921e-08	4.070061e+01	1.604068e+03
1.520000e-06	5.767384e-06	2.448015e-08	4.090462e+01	1.606777e+03
1.530000e-06	5.794122e-06	2.451706e-08	4.109425e+01	1.609212e+03
1.540000e-06	5.818582e-06	2.454965e-08	4.126773e+01	1.611380e+03
1.550000e-06	5.840934e-06	2.457837e-08	4.142626e+01	1.613293e+03
1.560000e-06	5.861394e-06	2.460381e-08	4.157137e+01	1.614965e+03
1.570000e-06	5.879796e-06	2.462658e-08	4.170188e+01	1.616412e+03
1.580000e-06	5.895873e-06	2.464667e-08	4.181591e+01	1.617648e+03
1.590000e-06	5.909771e-06	2.466409e-08	4.191448e+01	1.618683e+03
1.600000e-06	5.921442e-06	2.467858e-08	4.199726e+01	1.619524e+03
1.610000e-06	5.930698e-06	2.468940e-08	4.206290e+01	1.620173e+03
1.620000e-06	5.937753e-06	2.469681e-08	4.211294e+01	1.620628e+03
1.630000e-06	5.942840e-06	2.470079e-08	4.214902e+01	1.620886e+03
1.640000e-06	5.945877e-06	2.470327e-08	4.217056e+01	1.620947e+03
1.650000e-06	5.946687e-06	2.470752e-08	4.217630e+01	1.620813e+03
1.660000e-06	5.945384e-06	2.470083e-08	4.216706e+01	1.620489e+03
1.670000e-06	5.942283e-06	2.468662e-08	4.214507e+01	1.619981e+03
1.680000e-06	5.937280e-06	2.467847e-08	4.210958e+01	1.619299e+03
1.690000e-06	5.930184e-06	2.466792e-08	4.205926e+01	1.618447e+03
1.700000e-06	5.921158e-06	2.465427e-08	4.199524e+01	1.617427e+03
1.710000e-06	5.910273e-06	2.464156e-08	4.191804e+01	1.616235e+03
1.720000e-06	5.897286e-06	2.463848e-08	4.182593e+01	1.614864e+03
1.730000e-06	5.882191e-06	2.462441e-08	4.171887e+01	1.613304e+03
1.740000e-06	5.865190e-06	2.448205e-08	4.159829e+01	1.611551e+03
1.750000e-06	5.845898e-06	2.443117e-08	4.146147e+01	1.609606e+03
1.760000e-06	5.823684e-06	2.448167e-08	4.130392e+01	1.607477e+03
1.770000e-06	5.798775e-06	2.442969e-08	4.112725e+01	1.605184e+03
1.780000e-06	5.772045e-06	2.451563e-08	4.093767e+01	1.602748e+03
1.790000e-06	5.744346e-06	2.451235e-08	4.074122e+01	1.600192e+03
1.800000e-06	5.715595e-06	2.422981e-08	4.053730e+01	1.597531e+03
1.810000e-06	5.684595e-06	2.432681e-08	4.031744e+01	1.594768e+03
1.820000e-06	5.651288e-06	2.427938e-08	4.008121e+01	1.591889e+03
1.830000e-06	5.616334e-06	2.409787e-08	3.983331e+01	1.588865e+03
1.840000e-06	5.579307e-06	2.431349e-08	3.957069e+01	1.585654e+03
1.850000e-06	5.540108e-06	2.410371e-08	3.929268e+01	1.582212e+03
1.860000e-06	5.498979e-06	2.398929e-08	3.900098e+01	1.578496e+03
1.870000e-06	5.456002e-06	2.409386e-08	3.869616e+01	1.574480e+03
1.880000e-06	5.411404e-06	2.388108e-08	3.837986e+01	1.570152e+03
1.890000e-06	5.364672e-06	2.393363e-08	3.804842e+01	1.565520e+03
1.900000e-06	5.315643e-06	2.379728e-08	3.770068e+01	1.560607e+03
1.910000e-06	5.264519e-06	2.361669e-08	3.733809e+01	1.555445e+03
1.920000e-06	5.211075e-06	2.372363e-08	3.695905e+01	1.550062e+03
1.930000e-06	5.155636e-06	2.354794e-08	3.656585e+01	1.544478e+03
1.940000e-06	5.098400e-06	2.352258e-08	3.615991e+01	1.538695e+03
1.950000e-06	5.039318e-06	2.340830e-08	3.574087e+01	1.532699e+03
1.960000e-06	4.978415e-06	2.326965e-08	3.530893e+01	1.526462e+03
1.970000e-06	4.915533e-06	2.321074e-08	3.486294e+01	1.519948e+03
1.980000e-06	4.850789e-06	2.299424e-08	3.440375e+01	1.513123e+03
1.990000e-06	4.784308e-06	2.299941e-08	3.393224e+01	1.505964e+03
2.000000e-06	4.716258e-06	2.288932e-08	3.344960e+01	1.498460e+03
2.010000e-06	4.646403e-06	2.275873e-08	3.295417e+01	1.490615e+03
2.020000e-06	4.574601e-06	2.262652e-08	3.244492e+01	1.482445e+03
2.030000e-06	4.501209e-06	2.241696e-08	3.192439e+01	1.473970e+03
2.040000e-06	4.426194e-06	2.237320e-08	3.139235e+01	1.465204e+03
2.050000e-06	4.349411e-06	2.221839e-08	3.084778e+01	1.456151e+03
2.060000e-06	4.270851e-06	2.209969e-08	3.029060e+01	1.446801e+03
2.070000e-06	4.190765e-06	2.195556e-08	2.972259e+01	1.437128e+03
2.080000e-06	4.109306e-06	2.177721e-08	2.914486e+01	1.427098e+03
2.090000e-06	4.026460e-06	2.162011e-08	2.855728e+01	1.416676e+03
2.100000e-06	3.942267e-06	2.142191e-08	2.796015e+01	1.405832e+03
2.110000e-06	3.856489e-06	2.128984e-08	2.735177e+01	1.394547e+03
2.120000e-06	3.769260e-06	2.110228e-08	2.673311e+01	1.382812e+03
2.130000e-06	3.680822e-06	2.092803e-08	2.610588e+01	1.370630e+03
2.140000e-06	3.591123e-06	2.073249e-08	2.546969e+01	1.358004e+03
2.150000e-06	3.500254e-06	2.052988e-08	2.482521e+01	1.344934e+03
2.160000e-06	3.408230e-06	2.033171e-08	2.417254e+01	1.331405e+03
2.170000e-06	3.314843e-06	2.011367e-08	2.351020e+01	1.317388e+03
2.180000e-06	3.220053e-06	1.990029e-08	2.283791e+01	1.302838e+03
2.190000e-06	3.124118e-06	1.965866e-08	2.215751e+01	1.287698e+03
2.200000e-06	3.027122e-06	1.942442e-08	2.146957e+01	1.271911e+03
2.210000e-06	2.929089e-06	1.917350e-08	2.077428e+01	1.255424e+03
2.220000e-06	2.830074e-06	1.891660e-08	2.007203e+01	1.238197e+03
2.230000e-06	2.730127e-06	1.863998e-08	1.936316e+01	1.220202e+03
2.240000e-06	2.629144e-06	1.835850e-08	1.864695e+01	1.201422e+03
2.250000e-06	2.526956e-06	1.807307e-08	1.792219e+01	1.181841e+03
2.260000e-06	2.423735e-06	1.776373e-08	1.719011e+01	1.161438e+03
2.270000e-06	2.319668e-06	1.743596e-08	1.645202e+01	1.140171e+03
2.280000e-06	2.214739e-06	1.709036e-08	1.570782e+01	1.117978e+03
2.290000e-06	2.109011e-06	1.673581e-08	1.495795e+01	1.094771e+03
2.300000e-06	2.002552e-06	1.636150e-08	1.420291e+01	1.070441e+03
2.310000e-06	1.895468e-06	1.597901e-08	1.344343e+01	1.044870e+03
2.320000e-06	1.787913e-06	1.557970e-08	1.268060e+01	1.017937e+03
2.330000e-06	1.679862e-06	1.515334e-08	1.191426e+01	9.895257e+02
2.340000e-06	1.571266e-06	1.469084e-08	1.114405e+01	9.595316e+02
2.350000e-06	1.462087e-06	1.420028e-08	1.036971e+01	9.278556e+02
2.360000e-06	1.352387e-06	1.369134e-08	9.591677e+00	8.944009e+02
2.370000e-06	1.242305e-06	1.315724e-08	8.810928e+00	8.590651e+02
2.380000e-06	1.131847e-06	1.259262e-08	8.027514e+00	8.217363e+02
2.390000e-06	1.021040e-06	1.199024e-08	7.241630e+00	7.822958e+02
2.400000e-06	9.098333e-07	1.134906e-08	6.452905e+00	7.406300e+02
2.410000e-06	7.982536e-07	1.067244e-08	5.661536e+00	6.966513e+02
2.420000e-06	6.864106e-07	9.966116e-09	4.868301e+00	6.503243e+02
2.430000e-06	5.743069e-07	9.229513e-09	4.073216e+00	6.016919e+02
2.440000e-06	4.619406e-07	8.463288e-09	3.276269e+00	5.508938e+02
2.450000e-06	3.493459e-07	7.664761e-09	2.477702e+00	4.981699e+02
2.460000e-06	2.366014e-07	6.833920e-09	1.678072e+00	4.438458e+02
2.470000e-06	1.237039e-07	5.978153e-09	8.773578e-01	3.882986e+02
2.480000e-06	1.071949e-08	5.110407e-09	7.602695e-02	3.319070e+02
2.490000e-06	-1.022333e-07	4.239247e-09	-7.250794e-01	2.749958e+02
2.500000e-06	-2.151715e-07	3.365949e-09	-1.526083e+00	2.177846e+02
2.510000e-06	-3.280508e-07	2.491533e-09	-2.326669e+00	1.603520e+02
2.520000e-06	-4.407778e-07	1.613285e-09	-3.126174e+00	1.026263e+02
2.530000e-06	-5.533099e-07	7.269376e-10	-3.924297e+00	4.440455e+01
2.540000e-06	-6.655786e-07	-1.734261e-10	-4.720552e+00	-1.459816e+01
2.550000e-06	-7.774998e-07	-1.092016e-09	-5.514342e+00	-7.467988e+01
2.560000e-06	-8.889851e-07	-2.029937e-09	-6.305041e+00	-1.360733e+02
2.570000e-06	-1.000025e-06	-2.988586e-09	-7.092580e+00	-1.988735e+02
2.580000e-06	-1.110683e-06	-3.967370e-09	-7.877409e+00	-2.629854e+02
2.590000e-06	-1.220953e-06	-4.963472e-09	-8.659494e+00	-3.281018e+02
2.600000e-06	-1.330773e-06	-5.970767e-09	-9.438375e+00	-3.937158e+02
2.610000e-06	-1.440150e-06	-6.977274e-09	-1.021413e+01	-4.591665e+02
2.620000e-06	-1.549032e-06	-7.965750e-09	-1.098636e+01	-5.237089e+02
2.630000e-06	-1.657337e-06	-8.923718e-09	-1.175451e+01	-5.865959e+02
2.640000e-06	-1.765076e-06	-9.847284e-09	-1.251863e+01	-6.471568e+02
2.650000e-06	-1.872289e-06	-1.073219e-08	-1.327903e+01	-7.048608e+02
2.660000e-06	-1.978926e-06	-1.157112e-08	-1.403534e+01	-7.593556e+02
2.670000e-06	-2.084845e-06	-1.235846e-08	-1.478656e+01	-8.104762e+02
2.680000e-06	-2.190013e-06	-1.309243e-08	-1.553245e+01	-8.582278e+02
2.690000e-06	-2.294408e-06	-1.377395e-08	-1.627287e+01	-9.027481e+02
2.700000e-06	-2.397931e-06	-1.440725e-08	-1.700709e+01	-9.442595e+02
2.710000e-06	-2.500514e-06	-1.500143e-08	-1.773466e+01	-9.830208e+02
2.720000e-06	-2.602079e-06	-1.556271e-08	-1.845499e+01	-1.019288e+03
2.730000e-06	-2.702506e-06	-1.608853e-08	-1.916727e+01	-1.053288e+03
2.740000e-06	-2.801939e-06	-1.657896e-08	-1.987248e+01	-1.085210e+03
2.750000e-06	-2.900516e-06	-1.703668e-08	-2.057163e+01	-1.115204e+03
2.760000e-06	-2.998164e-06	-1.746548e-08	-2.126419e+01	-1.143400e+03
2.770000e-06	-3.094850e-06	-1.786889e-08	-2.194993e+01	-1.169911e+03
2.780000e-06	-3.190576e-06	-1.825019e-08	-2.262885e+01	-1.194853e+03
2.790000e-06	-3.285202e-06	-1.861267e-08	-2.329998e+01	-1.218348e+03
2.800000e-06	-3.378497e-06	-1.895514e-08	-2.396166e+01	-1.240520e+03
2.810000e-06	-3.470481e-06	-1.927677e-08	-2.461405e+01	-1.261492e+03
2.820000e-06	-3.561232e-06	-1.958041e-08	-2.525770e+01	-1.281378e+03
2.830000e-06	-3.650744e-06	-1.986898e-08	-2.589255e+01	-1.300273e+03
2.840000e-06	-3.739032e-06	-2.014299e-08	-2.651872e+01	-1.318251e+03
2.850000e-06	-3.826049e-06	-2.040352e-08	-2.713588e+01	-1.335363e+03
2.860000e-06	-3.911572e-06	-2.065183e-08	-2.774245e+01	-1.351646e+03
2.870000e-06	-3.995574e-06	-2.088886e-08	-2.833822e+01	-1.367127e+03
2.880000e-06	-4.078258e-06	-2.111471e-08	-2.892465e+01	-1.381834e+03
2.890000e-06	-4.159586e-06	-2.132902e-08	-2.950146e+01	-1.395799e+03
2.900000e-06	-4.239469e-06	-2.153175e-08	-3.006802e+01	-1.409067e+03
2.910000e-06	-4.317650e-06	-2.172540e-08	-3.062251e+01	-1.421687e+03
2.920000e-06	-4.393935e-06	-2.191210e-08	-3.116356e+01	-1.433712e+03
2.930000e-06	-4.468554e-06	-2.209089e-08	-3.169279e+01	-1.445191e+03
2.940000e-06	-4.541582e-06	-2.225886e-08	-3.221073e+01	-1.456163e+03
