# Temperatura_=_72.12
# Concentracion g/m^3_=_28200.0
# C_Vs_to_Am_M_A/Vsm_=_65563218390.804596
# pendiente_HvsI_1/m_=_3716.3
# ordenada_HvsI_A/m_=_1297.0
# frecuencia_Hz_=_301918.58071393886

Tiempo_(s)	Campo_(V.s)	Magnetizacion_(V.s)	Campo_(kA/m)	Magnetizacion_(A/m)
0.000000e+00	-5.871545e-06	-2.353180e-08	-4.194902e+01	-1.541723e+03
1.000000e-08	-5.869172e-06	-2.353263e-08	-4.193206e+01	-1.541360e+03
2.000000e-08	-5.864808e-06	-2.352371e-08	-4.190089e+01	-1.540842e+03
3.000000e-08	-5.858629e-06	-2.351371e-08	-4.185674e+01	-1.540165e+03
4.000000e-08	-5.850656e-06	-2.350220e-08	-4.179978e+01	-1.539323e+03
5.000000e-08	-5.840687e-06	-2.348337e-08	-4.172855e+01	-1.538305e+03
6.000000e-08	-5.828493e-06	-2.346000e-08	-4.164143e+01	-1.537101e+03
7.000000e-08	-5.814169e-06	-2.342246e-08	-4.153910e+01	-1.535704e+03
8.000000e-08	-5.797631e-06	-2.340042e-08	-4.142094e+01	-1.534109e+03
9.000000e-08	-5.778923e-06	-2.346664e-08	-4.128729e+01	-1.532323e+03
1.000000e-07	-5.758105e-06	-2.344471e-08	-4.113855e+01	-1.530361e+03
1.100000e-07	-5.735103e-06	-2.333924e-08	-4.097422e+01	-1.528245e+03
1.200000e-07	-5.709853e-06	-2.331522e-08	-4.079382e+01	-1.525999e+03
1.300000e-07	-5.682607e-06	-2.323115e-08	-4.059916e+01	-1.523648e+03
1.400000e-07	-5.653906e-06	-2.307348e-08	-4.039411e+01	-1.521207e+03
1.500000e-07	-5.623709e-06	-2.323224e-08	-4.017836e+01	-1.518679e+03
1.600000e-07	-5.591804e-06	-2.318600e-08	-3.995042e+01	-1.516051e+03
1.700000e-07	-5.558112e-06	-2.300358e-08	-3.970971e+01	-1.513295e+03
1.800000e-07	-5.522459e-06	-2.315433e-08	-3.945499e+01	-1.510372e+03
1.900000e-07	-5.484791e-06	-2.298876e-08	-3.918587e+01	-1.507236e+03
2.000000e-07	-5.445241e-06	-2.289460e-08	-3.890331e+01	-1.503847e+03
2.100000e-07	-5.403650e-06	-2.298756e-08	-3.860617e+01	-1.500174e+03
2.200000e-07	-5.359934e-06	-2.282524e-08	-3.829384e+01	-1.496203e+03
2.300000e-07	-5.314286e-06	-2.275415e-08	-3.796770e+01	-1.491938e+03
2.400000e-07	-5.266507e-06	-2.269605e-08	-3.762635e+01	-1.487398e+03
2.500000e-07	-5.216385e-06	-2.258842e-08	-3.726826e+01	-1.482614e+03
2.600000e-07	-5.163928e-06	-2.258910e-08	-3.689348e+01	-1.477615e+03
2.700000e-07	-5.109418e-06	-2.247403e-08	-3.650404e+01	-1.472425e+03
2.800000e-07	-5.053178e-06	-2.237564e-08	-3.610223e+01	-1.467056e+03
2.900000e-07	-4.995038e-06	-2.227374e-08	-3.568685e+01	-1.461499e+03
3.000000e-07	-4.934962e-06	-2.217545e-08	-3.525764e+01	-1.455733e+03
3.100000e-07	-4.873175e-06	-2.211267e-08	-3.481620e+01	-1.449724e+03
3.200000e-07	-4.809656e-06	-2.203199e-08	-3.436239e+01	-1.443436e+03
3.300000e-07	-4.744285e-06	-2.195508e-08	-3.389536e+01	-1.436838e+03
3.400000e-07	-4.677072e-06	-2.180284e-08	-3.341515e+01	-1.429909e+03
3.500000e-07	-4.608109e-06	-2.168787e-08	-3.292245e+01	-1.422643e+03
3.600000e-07	-4.537505e-06	-2.157138e-08	-3.241803e+01	-1.415046e+03
3.700000e-07	-4.465472e-06	-2.144895e-08	-3.190339e+01	-1.407135e+03
3.800000e-07	-4.391748e-06	-2.136952e-08	-3.137667e+01	-1.398928e+03
3.900000e-07	-4.316121e-06	-2.122412e-08	-3.083635e+01	-1.390437e+03
4.000000e-07	-4.238789e-06	-2.106326e-08	-3.028386e+01	-1.381664e+03
4.100000e-07	-4.159686e-06	-2.092336e-08	-2.971871e+01	-1.372598e+03
4.200000e-07	-4.078962e-06	-2.078264e-08	-2.914199e+01	-1.363218e+03
4.300000e-07	-3.996884e-06	-2.064069e-08	-2.855558e+01	-1.353493e+03
4.400000e-07	-3.913543e-06	-2.048161e-08	-2.796015e+01	-1.343391e+03
4.500000e-07	-3.829033e-06	-2.032681e-08	-2.735637e+01	-1.332886e+03
4.600000e-07	-3.743329e-06	-2.014605e-08	-2.674407e+01	-1.321958e+03
4.700000e-07	-3.656472e-06	-1.997051e-08	-2.612352e+01	-1.310596e+03
4.800000e-07	-3.568447e-06	-1.979989e-08	-2.549463e+01	-1.298794e+03
4.900000e-07	-3.479013e-06	-1.961422e-08	-2.485567e+01	-1.286547e+03
5.000000e-07	-3.388086e-06	-1.942040e-08	-2.420604e+01	-1.273844e+03
5.100000e-07	-3.295884e-06	-1.921135e-08	-2.354731e+01	-1.260664e+03
5.200000e-07	-3.202546e-06	-1.900307e-08	-2.288046e+01	-1.246977e+03
5.300000e-07	-3.108119e-06	-1.877949e-08	-2.220583e+01	-1.232738e+03
5.400000e-07	-3.012680e-06	-1.854949e-08	-2.152397e+01	-1.217899e+03
5.500000e-07	-2.916099e-06	-1.831094e-08	-2.083395e+01	-1.202410e+03
5.600000e-07	-2.818211e-06	-1.806114e-08	-2.013460e+01	-1.186227e+03
5.700000e-07	-2.719127e-06	-1.780267e-08	-1.942669e+01	-1.169314e+03
5.800000e-07	-2.619014e-06	-1.753613e-08	-1.871144e+01	-1.151643e+03
5.900000e-07	-2.517982e-06	-1.726105e-08	-1.798962e+01	-1.133194e+03
6.000000e-07	-2.416056e-06	-1.696415e-08	-1.726141e+01	-1.113942e+03
6.100000e-07	-2.313264e-06	-1.665331e-08	-1.652702e+01	-1.093855e+03
6.200000e-07	-2.209758e-06	-1.632781e-08	-1.578753e+01	-1.072883e+03
6.300000e-07	-2.105475e-06	-1.598990e-08	-1.504248e+01	-1.050959e+03
6.400000e-07	-2.000230e-06	-1.563946e-08	-1.429056e+01	-1.027997e+03
6.500000e-07	-1.894085e-06	-1.527218e-08	-1.353221e+01	-1.003893e+03
6.600000e-07	-1.787260e-06	-1.488229e-08	-1.276901e+01	-9.785383e+02
6.700000e-07	-1.679827e-06	-1.446705e-08	-1.200146e+01	-9.518195e+02
6.800000e-07	-1.571788e-06	-1.403483e-08	-1.122958e+01	-9.236274e+02
6.900000e-07	-1.463233e-06	-1.358295e-08	-1.045401e+01	-8.938573e+02
7.000000e-07	-1.354239e-06	-1.310686e-08	-9.675309e+00	-8.624083e+02
7.100000e-07	-1.244844e-06	-1.260051e-08	-8.893740e+00	-8.291798e+02
7.200000e-07	-1.135076e-06	-1.206210e-08	-8.109507e+00	-7.940698e+02
7.300000e-07	-1.024940e-06	-1.149043e-08	-7.322642e+00	-7.569760e+02
7.400000e-07	-9.144750e-07	-1.089027e-08	-6.533430e+00	-7.178031e+02
7.500000e-07	-8.037232e-07	-1.026072e-08	-5.742168e+00	-6.764777e+02
7.600000e-07	-6.927064e-07	-9.598558e-09	-4.949013e+00	-6.329669e+02
7.700000e-07	-5.815101e-07	-8.902755e-09	-4.154576e+00	-5.872998e+02
7.800000e-07	-4.701931e-07	-8.173290e-09	-3.359276e+00	-5.395841e+02
7.900000e-07	-3.587719e-07	-7.415863e-09	-2.563232e+00	-4.900144e+02
8.000000e-07	-2.472476e-07	-6.632437e-09	-1.766451e+00	-4.388650e+02
8.100000e-07	-1.356056e-07	-5.831913e-09	-9.688289e-01	-3.864675e+02
8.200000e-07	-2.389070e-08	-5.021335e-09	-1.706862e-01	-3.331737e+02
8.300000e-07	8.789541e-08	-4.203630e-09	6.279652e-01	-2.793089e+02
8.400000e-07	1.997054e-07	-3.379303e-09	1.426787e+00	-2.251247e+02
8.500000e-07	3.114223e-07	-2.551070e-09	2.224944e+00	-1.707594e+02
8.600000e-07	4.230349e-07	-1.720360e-09	3.022356e+00	-1.162179e+02
8.700000e-07	5.345204e-07	-8.835637e-10	3.818860e+00	-6.137423e+01
8.800000e-07	6.458817e-07	-4.018451e-11	4.614476e+00	-6.000607e+00
8.900000e-07	7.571252e-07	8.138416e-10	5.409251e+00	5.018071e+01
9.000000e-07	8.681851e-07	1.684600e-09	6.202714e+00	1.074313e+02
9.100000e-07	9.789909e-07	2.573447e-09	6.994362e+00	1.659278e+02
9.200000e-07	1.089514e-06	3.479269e-09	7.783991e+00	2.257021e+02
9.300000e-07	1.199682e-06	4.404343e-09	8.571078e+00	2.866041e+02
9.400000e-07	1.309403e-06	5.347248e-09	9.354981e+00	3.482916e+02
9.500000e-07	1.418652e-06	6.295805e-09	1.013550e+01	4.102521e+02
9.600000e-07	1.527456e-06	7.235445e-09	1.091285e+01	4.718511e+02
9.700000e-07	1.635719e-06	8.156086e-09	1.168633e+01	5.323989e+02
9.800000e-07	1.743397e-06	9.050125e-09	1.245563e+01	5.912244e+02
9.900000e-07	1.850489e-06	9.908661e-09	1.322074e+01	6.477434e+02
1.000000e-06	1.956873e-06	1.072315e-08	1.398080e+01	7.015092e+02
1.010000e-06	2.062442e-06	1.148844e-08	1.473503e+01	7.522408e+02
1.020000e-06	2.166993e-06	1.220757e-08	1.548199e+01	7.998253e+02
1.030000e-06	2.270584e-06	1.288211e-08	1.622210e+01	8.442972e+02
1.040000e-06	2.373423e-06	1.351397e-08	1.695683e+01	8.858015e+02
1.050000e-06	2.475504e-06	1.410433e-08	1.768614e+01	9.245509e+02
1.060000e-06	2.576775e-06	1.465721e-08	1.840967e+01	9.607827e+02
1.070000e-06	2.677207e-06	1.517276e-08	1.912720e+01	9.947265e+02
1.080000e-06	2.776741e-06	1.565278e-08	1.983831e+01	1.026583e+03
1.090000e-06	2.875280e-06	1.610436e-08	2.054232e+01	1.056518e+03
1.100000e-06	2.972641e-06	1.653051e-08	2.123791e+01	1.084666e+03
1.110000e-06	3.068680e-06	1.693389e-08	2.192406e+01	1.111141e+03
1.120000e-06	3.163571e-06	1.731496e-08	2.260201e+01	1.136049e+03
1.130000e-06	3.257456e-06	1.767282e-08	2.327277e+01	1.159496e+03
1.140000e-06	3.350354e-06	1.800722e-08	2.393647e+01	1.181594e+03
1.150000e-06	3.442260e-06	1.832243e-08	2.459309e+01	1.202459e+03
1.160000e-06	3.532991e-06	1.862325e-08	2.524131e+01	1.222205e+03
1.170000e-06	3.622284e-06	1.891157e-08	2.587927e+01	1.240934e+03
1.180000e-06	3.710150e-06	1.918433e-08	2.650702e+01	1.258732e+03
1.190000e-06	3.796794e-06	1.944236e-08	2.712604e+01	1.275665e+03
1.200000e-06	3.882251e-06	1.968620e-08	2.773659e+01	1.291779e+03
1.210000e-06	3.966540e-06	1.991722e-08	2.833879e+01	1.307106e+03
1.220000e-06	4.049536e-06	2.013693e-08	2.893175e+01	1.321672e+03
1.230000e-06	4.130958e-06	2.034595e-08	2.951347e+01	1.335502e+03
1.240000e-06	4.210766e-06	2.054505e-08	3.008365e+01	1.348630e+03
1.250000e-06	4.289015e-06	2.073470e-08	3.064270e+01	1.361095e+03
1.260000e-06	4.365724e-06	2.091542e-08	3.119074e+01	1.372945e+03
1.270000e-06	4.440802e-06	2.108857e-08	3.172713e+01	1.384229e+03
1.280000e-06	4.514040e-06	2.125378e-08	3.225038e+01	1.394992e+03
1.290000e-06	4.585479e-06	2.141131e-08	3.276077e+01	1.405268e+03
1.300000e-06	4.655245e-06	2.156108e-08	3.325921e+01	1.415079e+03
1.310000e-06	4.723424e-06	2.170293e-08	3.374632e+01	1.424434e+03
1.320000e-06	4.789921e-06	2.183923e-08	3.422140e+01	1.433330e+03
1.330000e-06	4.854553e-06	2.196971e-08	3.468316e+01	1.441761e+03
1.340000e-06	4.917421e-06	2.209271e-08	3.513232e+01	1.449721e+03
1.350000e-06	4.978675e-06	2.220730e-08	3.556994e+01	1.457214e+03
1.360000e-06	5.038334e-06	2.231432e-08	3.599618e+01	1.464254e+03
1.370000e-06	5.096213e-06	2.241488e-08	3.640969e+01	1.470867e+03
1.380000e-06	5.152120e-06	2.250922e-08	3.680912e+01	1.477090e+03
1.390000e-06	5.206107e-06	2.259735e-08	3.719482e+01	1.482964e+03
1.400000e-06	5.258097e-06	2.268053e-08	3.756626e+01	1.488531e+03
1.410000e-06	5.307814e-06	2.276089e-08	3.792147e+01	1.493826e+03
1.420000e-06	5.355404e-06	2.283926e-08	3.826147e+01	1.498876e+03
1.430000e-06	5.401167e-06	2.291451e-08	3.858842e+01	1.503695e+03
1.440000e-06	5.445195e-06	2.298614e-08	3.890298e+01	1.508287e+03
1.450000e-06	5.487229e-06	2.305390e-08	3.920329e+01	1.512646e+03
1.460000e-06	5.527167e-06	2.311673e-08	3.948863e+01	1.516762e+03
1.470000e-06	5.565271e-06	2.317500e-08	3.976086e+01	1.520624e+03
1.480000e-06	5.601629e-06	2.322860e-08	4.002062e+01	1.524221e+03
1.490000e-06	5.636002e-06	2.327875e-08	4.026619e+01	1.527548e+03
1.500000e-06	5.668242e-06	2.332452e-08	4.049653e+01	1.530605e+03
1.510000e-06	5.698519e-06	2.336583e-08	4.071284e+01	1.533396e+03
1.520000e-06	5.726957e-06	2.340406e-08	4.091602e+01	1.535929e+03
1.530000e-06	5.753377e-06	2.343919e-08	4.110477e+01	1.538215e+03
1.540000e-06	5.777505e-06	2.347133e-08	4.127715e+01	1.540266e+03
1.550000e-06	5.799502e-06	2.349952e-08	4.143431e+01	1.542091e+03
1.560000e-06	5.819680e-06	2.352467e-08	4.157847e+01	1.543699e+03
1.570000e-06	5.837929e-06	2.354597e-08	4.170885e+01	1.545098e+03
1.580000e-06	5.853926e-06	2.356222e-08	4.182314e+01	1.546293e+03
1.590000e-06	5.867705e-06	2.357676e-08	4.192158e+01	1.547288e+03
1.600000e-06	5.879192e-06	2.359038e-08	4.200366e+01	1.548085e+03
1.610000e-06	5.888282e-06	2.360105e-08	4.206860e+01	1.548689e+03
1.620000e-06	5.895145e-06	2.360824e-08	4.211763e+01	1.549105e+03
1.630000e-06	5.900002e-06	2.361281e-08	4.215233e+01	1.549338e+03
1.640000e-06	5.902762e-06	2.361589e-08	4.217205e+01	1.549396e+03
1.650000e-06	5.903357e-06	2.361906e-08	4.217630e+01	1.549288e+03
1.660000e-06	5.901992e-06	2.361118e-08	4.216655e+01	1.549019e+03
1.670000e-06	5.898802e-06	2.359996e-08	4.214375e+01	1.548594e+03
1.680000e-06	5.893631e-06	2.359404e-08	4.210681e+01	1.548012e+03
1.690000e-06	5.886374e-06	2.358326e-08	4.205497e+01	1.547270e+03
1.700000e-06	5.877267e-06	2.356888e-08	4.198990e+01	1.546359e+03
1.710000e-06	5.866376e-06	2.355687e-08	4.191209e+01	1.545269e+03
1.720000e-06	5.853380e-06	2.355843e-08	4.181924e+01	1.543988e+03
1.730000e-06	5.838239e-06	2.354215e-08	4.171107e+01	1.542511e+03
1.740000e-06	5.821212e-06	2.339942e-08	4.158942e+01	1.540839e+03
1.750000e-06	5.801856e-06	2.336892e-08	4.145113e+01	1.538981e+03
1.760000e-06	5.779593e-06	2.341282e-08	4.129207e+01	1.536954e+03
1.770000e-06	5.754745e-06	2.335704e-08	4.111455e+01	1.534782e+03
1.780000e-06	5.728109e-06	2.346449e-08	4.092425e+01	1.532492e+03
1.790000e-06	5.700475e-06	2.340314e-08	4.072682e+01	1.530103e+03
1.800000e-06	5.671788e-06	2.315137e-08	4.052187e+01	1.527627e+03
1.810000e-06	5.640832e-06	2.330504e-08	4.030070e+01	1.525061e+03
1.820000e-06	5.607601e-06	2.319305e-08	4.006328e+01	1.522386e+03
1.830000e-06	5.572798e-06	2.306760e-08	3.981464e+01	1.519568e+03
1.840000e-06	5.535883e-06	2.328181e-08	3.955089e+01	1.516565e+03
1.850000e-06	5.496760e-06	2.300483e-08	3.927138e+01	1.513333e+03
1.860000e-06	5.455767e-06	2.293814e-08	3.897851e+01	1.509834e+03
1.870000e-06	5.412939e-06	2.300704e-08	3.867253e+01	1.506043e+03
1.880000e-06	5.368529e-06	2.281040e-08	3.835524e+01	1.501954e+03
1.890000e-06	5.322059e-06	2.290648e-08	3.802324e+01	1.497576e+03
1.900000e-06	5.273269e-06	2.272665e-08	3.767466e+01	1.492935e+03
1.910000e-06	5.222411e-06	2.259484e-08	3.731131e+01	1.488062e+03
1.920000e-06	5.169207e-06	2.268787e-08	3.693120e+01	1.482985e+03
1.930000e-06	5.113949e-06	2.248334e-08	3.653640e+01	1.477723e+03
1.940000e-06	5.056909e-06	2.249710e-08	3.612889e+01	1.472280e+03
1.950000e-06	4.998101e-06	2.237542e-08	3.570873e+01	1.466643e+03
1.960000e-06	4.937603e-06	2.226393e-08	3.527651e+01	1.460785e+03
1.970000e-06	4.875092e-06	2.220669e-08	3.482990e+01	1.454670e+03
1.980000e-06	4.810669e-06	2.199490e-08	3.436963e+01	1.448262e+03
1.990000e-06	4.744569e-06	2.200841e-08	3.389738e+01	1.441534e+03
2.000000e-06	4.676953e-06	2.188488e-08	3.341430e+01	1.434471e+03
2.010000e-06	4.607630e-06	2.177915e-08	3.291903e+01	1.427072e+03
2.020000e-06	4.536326e-06	2.164514e-08	3.240960e+01	1.419349e+03
2.030000e-06	4.463365e-06	2.145575e-08	3.188833e+01	1.411319e+03
2.040000e-06	4.388834e-06	2.142078e-08	3.135585e+01	1.402997e+03
2.050000e-06	4.312640e-06	2.125214e-08	3.081149e+01	1.394395e+03
2.060000e-06	4.234649e-06	2.114775e-08	3.025428e+01	1.385507e+03
2.070000e-06	4.155038e-06	2.100703e-08	2.968551e+01	1.376320e+03
2.080000e-06	4.074038e-06	2.084416e-08	2.910681e+01	1.366807e+03
2.090000e-06	3.991611e-06	2.069688e-08	2.851791e+01	1.356936e+03
2.100000e-06	3.907903e-06	2.051407e-08	2.791986e+01	1.346678e+03
2.110000e-06	3.822741e-06	2.039497e-08	2.731142e+01	1.336007e+03
2.120000e-06	3.736105e-06	2.020998e-08	2.669246e+01	1.324908e+03
2.130000e-06	3.648198e-06	2.004379e-08	2.606440e+01	1.313373e+03
2.140000e-06	3.559044e-06	1.985354e-08	2.542745e+01	1.301395e+03
2.150000e-06	3.468682e-06	1.966477e-08	2.478186e+01	1.288969e+03
2.160000e-06	3.377195e-06	1.947487e-08	2.412823e+01	1.276081e+03
2.170000e-06	3.284519e-06	1.926835e-08	2.346611e+01	1.262705e+03
2.180000e-06	3.190408e-06	1.906701e-08	2.279374e+01	1.248805e+03
2.190000e-06	3.095040e-06	1.883565e-08	2.211239e+01	1.234336e+03
2.200000e-06	2.998633e-06	1.861209e-08	2.142361e+01	1.219246e+03
2.210000e-06	2.901203e-06	1.837290e-08	2.072753e+01	1.203487e+03
2.220000e-06	2.802773e-06	1.813004e-08	2.002430e+01	1.187020e+03
2.230000e-06	2.703462e-06	1.786566e-08	1.931478e+01	1.169811e+03
2.240000e-06	2.603204e-06	1.759258e-08	1.859849e+01	1.151836e+03
2.250000e-06	2.501839e-06	1.731150e-08	1.787429e+01	1.133073e+03
2.260000e-06	2.399409e-06	1.701215e-08	1.714248e+01	1.113496e+03
2.270000e-06	2.295982e-06	1.670009e-08	1.640355e+01	1.093067e+03
2.280000e-06	2.191661e-06	1.637226e-08	1.565823e+01	1.071729e+03
2.290000e-06	2.086579e-06	1.603472e-08	1.490748e+01	1.049407e+03
2.300000e-06	1.980821e-06	1.567711e-08	1.415190e+01	1.026008e+03
2.310000e-06	1.874410e-06	1.530890e-08	1.339165e+01	1.001425e+03
2.320000e-06	1.767477e-06	1.492171e-08	1.262767e+01	9.755465e+02
2.330000e-06	1.660096e-06	1.451091e-08	1.186049e+01	9.482604e+02
2.340000e-06	1.552215e-06	1.406900e-08	1.108974e+01	9.194593e+02
2.350000e-06	1.443843e-06	1.360070e-08	1.031548e+01	8.890403e+02
2.360000e-06	1.334998e-06	1.311084e-08	9.537837e+00	8.569030e+02
2.370000e-06	1.225709e-06	1.259693e-08	8.757032e+00	8.229464e+02
2.380000e-06	1.116075e-06	1.205491e-08	7.973757e+00	7.870678e+02
2.390000e-06	1.006077e-06	1.147712e-08	7.187875e+00	7.491664e+02
2.400000e-06	8.957001e-07	1.086350e-08	6.399294e+00	7.091536e+02
2.410000e-06	7.850150e-07	1.021652e-08	5.608509e+00	6.669694e+02
2.420000e-06	6.740645e-07	9.541004e-09	4.815827e+00	6.226026e+02
2.430000e-06	5.628877e-07	8.835563e-09	4.021529e+00	5.761118e+02
2.440000e-06	4.514998e-07	8.101391e-09	3.225723e+00	5.276386e+02
2.450000e-06	3.399519e-07	7.336973e-09	2.428773e+00	4.774104e+02
2.460000e-06	2.282220e-07	6.546195e-09	1.630523e+00	4.257278e+02
2.470000e-06	1.163214e-07	5.736442e-09	8.310537e-01	3.729353e+02
2.480000e-06	4.405636e-09	4.917214e-09	3.147589e-02	3.193802e+02
2.490000e-06	-1.074709e-07	4.094657e-09	-7.678213e-01	2.653642e+02
2.500000e-06	-2.192852e-07	3.267419e-09	-1.566674e+00	2.110982e+02
2.510000e-06	-3.310633e-07	2.436392e-09	-2.365269e+00	1.566695e+02
2.520000e-06	-4.427747e-07	1.599769e-09	-3.163386e+00	1.020296e+02
2.530000e-06	-5.543214e-07	7.559914e-10	-3.960327e+00	4.700774e+01
2.540000e-06	-6.656374e-07	-9.672203e-11	-4.755620e+00	-8.650678e+00
2.550000e-06	-7.765174e-07	-9.621031e-10	-5.547798e+00	-6.522538e+01
2.560000e-06	-8.870097e-07	-1.843266e-09	-6.337206e+00	-1.229525e+02
2.570000e-06	-9.972034e-07	-2.743499e-09	-7.124480e+00	-1.819579e+02
2.580000e-06	-1.106993e-06	-3.662927e-09	-7.908865e+00	-2.422052e+02
2.590000e-06	-1.216422e-06	-4.597821e-09	-8.690676e+00	-3.034681e+02
2.600000e-06	-1.325472e-06	-5.543253e-09	-9.469785e+00	-3.653334e+02
2.610000e-06	-1.434090e-06	-6.491240e-09	-1.024580e+01	-4.272335e+02
2.620000e-06	-1.542218e-06	-7.430096e-09	-1.101832e+01	-4.885036e+02
2.630000e-06	-1.649797e-06	-8.346345e-09	-1.178691e+01	-5.484527e+02
2.640000e-06	-1.756869e-06	-9.231574e-09	-1.255188e+01	-6.064363e+02
2.650000e-06	-1.863425e-06	-1.008115e-08	-1.331316e+01	-6.619194e+02
2.660000e-06	-1.969344e-06	-1.088788e-08	-1.406990e+01	-7.145184e+02
2.670000e-06	-2.074550e-06	-1.164764e-08	-1.482154e+01	-7.640196e+02
2.680000e-06	-2.179007e-06	-1.235959e-08	-1.556783e+01	-8.103714e+02
2.690000e-06	-2.282634e-06	-1.302194e-08	-1.630819e+01	-8.536567e+02
2.700000e-06	-2.385287e-06	-1.363862e-08	-1.704159e+01	-8.940524e+02
2.710000e-06	-2.486921e-06	-1.421835e-08	-1.776771e+01	-9.317855e+02
2.720000e-06	-2.587599e-06	-1.476352e-08	-1.848700e+01	-9.670936e+02
2.730000e-06	-2.687323e-06	-1.527223e-08	-1.919947e+01	-1.000197e+03
2.740000e-06	-2.786122e-06	-1.574705e-08	-1.990534e+01	-1.031282e+03
2.750000e-06	-2.883981e-06	-1.619195e-08	-2.060449e+01	-1.060502e+03
2.760000e-06	-2.980880e-06	-1.660958e-08	-2.129678e+01	-1.087981e+03
2.770000e-06	-3.076864e-06	-1.700562e-08	-2.198253e+01	-1.113829e+03
2.780000e-06	-3.171847e-06	-1.738196e-08	-2.266114e+01	-1.138151e+03
2.790000e-06	-3.265646e-06	-1.773570e-08	-2.333128e+01	-1.161055e+03
2.800000e-06	-3.358181e-06	-1.806692e-08	-2.399239e+01	-1.182657e+03
2.810000e-06	-3.449483e-06	-1.837807e-08	-2.464469e+01	-1.203070e+03
2.820000e-06	-3.539574e-06	-1.867183e-08	-2.528835e+01	-1.222407e+03
2.830000e-06	-3.628409e-06	-1.895018e-08	-2.592302e+01	-1.240762e+03
2.840000e-06	-3.716061e-06	-1.921532e-08	-2.654925e+01	-1.258215e+03
2.850000e-06	-3.802413e-06	-1.946827e-08	-2.716619e+01	-1.274822e+03
2.860000e-06	-3.887213e-06	-1.971029e-08	-2.777204e+01	-1.290625e+03
2.870000e-06	-3.970636e-06	-1.994325e-08	-2.836805e+01	-1.305652e+03
2.880000e-06	-4.052803e-06	-2.016546e-08	-2.895509e+01	-1.319927e+03
2.890000e-06	-4.133570e-06	-2.037584e-08	-2.953213e+01	-1.333478e+03
2.900000e-06	-4.212738e-06	-2.057227e-08	-3.009774e+01	-1.346341e+03
2.910000e-06	-4.290133e-06	-2.075654e-08	-3.065068e+01	-1.358560e+03
2.920000e-06	-4.365810e-06	-2.093270e-08	-3.119136e+01	-1.370183e+03
2.930000e-06	-4.439847e-06	-2.110116e-08	-3.172031e+01	-1.381259e+03
2.940000e-06	-4.512263e-06	-2.126218e-08	-3.223768e+01	-1.391828e+03
