# Temperatura_=_45.97
# Concentracion g/m^3_=_28200.0
# C_Vs_to_Am_M_A/Vsm_=_65563218390.804596
# pendiente_HvsI_1/m_=_3716.3
# ordenada_HvsI_A/m_=_1297.0
# frecuencia_Hz_=_301919.4859629098

Tiempo_(s)	Campo_(V.s)	Magnetizacion_(V.s)	Campo_(kA/m)	Magnetizacion_(A/m)
0.000000e+00	-5.854960e-06	-2.112160e-08	-4.195088e+01	-1.383671e+03
1.000000e-08	-5.852818e-06	-2.112119e-08	-4.193553e+01	-1.383401e+03
2.000000e-08	-5.848640e-06	-2.111177e-08	-4.190560e+01	-1.382998e+03
3.000000e-08	-5.842669e-06	-2.110090e-08	-4.186281e+01	-1.382458e+03
4.000000e-08	-5.834986e-06	-2.109284e-08	-4.180777e+01	-1.381771e+03
5.000000e-08	-5.825307e-06	-2.108050e-08	-4.173841e+01	-1.380928e+03
6.000000e-08	-5.813341e-06	-2.106345e-08	-4.165268e+01	-1.379922e+03
7.000000e-08	-5.799247e-06	-2.103417e-08	-4.155169e+01	-1.378748e+03
8.000000e-08	-5.782943e-06	-2.100555e-08	-4.143487e+01	-1.377407e+03
9.000000e-08	-5.764500e-06	-2.105768e-08	-4.130273e+01	-1.375908e+03
1.000000e-07	-5.744019e-06	-2.106621e-08	-4.115599e+01	-1.374263e+03
1.100000e-07	-5.721429e-06	-2.097308e-08	-4.099413e+01	-1.372487e+03
1.200000e-07	-5.696574e-06	-2.093523e-08	-4.081604e+01	-1.370599e+03
1.300000e-07	-5.669595e-06	-2.088344e-08	-4.062274e+01	-1.368610e+03
1.400000e-07	-5.641142e-06	-2.072579e-08	-4.041887e+01	-1.366527e+03
1.500000e-07	-5.611291e-06	-2.083524e-08	-4.020499e+01	-1.364350e+03
1.600000e-07	-5.579690e-06	-2.087662e-08	-3.997856e+01	-1.362064e+03
1.700000e-07	-5.546241e-06	-2.067801e-08	-3.973890e+01	-1.359650e+03
1.800000e-07	-5.510910e-06	-2.079507e-08	-3.948576e+01	-1.357081e+03
1.900000e-07	-5.473593e-06	-2.070862e-08	-3.921838e+01	-1.354329e+03
2.000000e-07	-5.434436e-06	-2.052753e-08	-3.893782e+01	-1.351368e+03
2.100000e-07	-5.393303e-06	-2.061752e-08	-3.864310e+01	-1.348181e+03
2.200000e-07	-5.349967e-06	-2.052011e-08	-3.833260e+01	-1.344759e+03
2.300000e-07	-5.304630e-06	-2.044302e-08	-3.800776e+01	-1.341103e+03
2.400000e-07	-5.257270e-06	-2.043930e-08	-3.766843e+01	-1.337223e+03
2.500000e-07	-5.207608e-06	-2.033610e-08	-3.731259e+01	-1.333136e+03
2.600000e-07	-5.155596e-06	-2.029825e-08	-3.693993e+01	-1.328855e+03
2.700000e-07	-5.101513e-06	-2.020861e-08	-3.655242e+01	-1.324392e+03
2.800000e-07	-5.045686e-06	-2.012542e-08	-3.615242e+01	-1.319750e+03
2.900000e-07	-4.987959e-06	-2.005590e-08	-3.573880e+01	-1.314925e+03
3.000000e-07	-4.928272e-06	-1.997256e-08	-3.531114e+01	-1.309903e+03
3.100000e-07	-4.866834e-06	-1.991388e-08	-3.487094e+01	-1.304665e+03
3.200000e-07	-4.803620e-06	-1.982427e-08	-3.441801e+01	-1.299191e+03
3.300000e-07	-4.738635e-06	-1.974927e-08	-3.395240e+01	-1.293464e+03
3.400000e-07	-4.671846e-06	-1.963082e-08	-3.347385e+01	-1.287470e+03
3.500000e-07	-4.603312e-06	-1.952445e-08	-3.298280e+01	-1.281202e+03
3.600000e-07	-4.533124e-06	-1.944192e-08	-3.247991e+01	-1.274659e+03
3.700000e-07	-4.461418e-06	-1.932919e-08	-3.196613e+01	-1.267844e+03
3.800000e-07	-4.388153e-06	-1.924692e-08	-3.144118e+01	-1.260757e+03
3.900000e-07	-4.312977e-06	-1.913060e-08	-3.090255e+01	-1.253397e+03
4.000000e-07	-4.235972e-06	-1.898978e-08	-3.035080e+01	-1.245758e+03
4.100000e-07	-4.157325e-06	-1.886645e-08	-2.978730e+01	-1.237826e+03
4.200000e-07	-4.077035e-06	-1.873990e-08	-2.921202e+01	-1.229585e+03
4.300000e-07	-3.995279e-06	-1.861872e-08	-2.862624e+01	-1.221015e+03
4.400000e-07	-3.912281e-06	-1.847759e-08	-2.803155e+01	-1.212099e+03
4.500000e-07	-3.828143e-06	-1.834461e-08	-2.742870e+01	-1.202822e+03
4.600000e-07	-3.742835e-06	-1.819119e-08	-2.681747e+01	-1.193175e+03
4.700000e-07	-3.656344e-06	-1.802864e-08	-2.619777e+01	-1.183149e+03
4.800000e-07	-3.568650e-06	-1.787254e-08	-2.556943e+01	-1.172740e+03
4.900000e-07	-3.479615e-06	-1.770641e-08	-2.493150e+01	-1.161937e+03
5.000000e-07	-3.389104e-06	-1.753837e-08	-2.428298e+01	-1.150724e+03
5.100000e-07	-3.297267e-06	-1.735581e-08	-2.362497e+01	-1.139076e+03
5.200000e-07	-3.204316e-06	-1.717040e-08	-2.295897e+01	-1.126959e+03
5.300000e-07	-3.110272e-06	-1.697133e-08	-2.228515e+01	-1.114331e+03
5.400000e-07	-3.015158e-06	-1.676746e-08	-2.160365e+01	-1.101147e+03
5.500000e-07	-2.918917e-06	-1.655710e-08	-2.091409e+01	-1.087363e+03
5.600000e-07	-2.821507e-06	-1.633782e-08	-2.021614e+01	-1.072940e+03
5.700000e-07	-2.722920e-06	-1.610733e-08	-1.950976e+01	-1.057844e+03
5.800000e-07	-2.623198e-06	-1.586269e-08	-1.879525e+01	-1.042048e+03
5.900000e-07	-2.522570e-06	-1.560928e-08	-1.807425e+01	-1.025529e+03
6.000000e-07	-2.421107e-06	-1.534134e-08	-1.734727e+01	-1.008260e+03
6.100000e-07	-2.318779e-06	-1.506464e-08	-1.661409e+01	-9.902085e+02
6.200000e-07	-2.215586e-06	-1.477790e-08	-1.587470e+01	-9.713306e+02
6.300000e-07	-2.111539e-06	-1.447908e-08	-1.512921e+01	-9.515668e+02
6.400000e-07	-2.006682e-06	-1.416424e-08	-1.437791e+01	-9.308438e+02
6.500000e-07	-1.901095e-06	-1.383158e-08	-1.362138e+01	-9.090767e+02
6.600000e-07	-1.794778e-06	-1.347856e-08	-1.285961e+01	-8.861726e+02
6.700000e-07	-1.687645e-06	-1.310332e-08	-1.209200e+01	-8.620355e+02
6.800000e-07	-1.579834e-06	-1.271016e-08	-1.131954e+01	-8.365699e+02
6.900000e-07	-1.471566e-06	-1.229667e-08	-1.054379e+01	-8.096817e+02
7.000000e-07	-1.362928e-06	-1.186369e-08	-9.765401e+00	-7.812793e+02
7.100000e-07	-1.253906e-06	-1.140753e-08	-8.984258e+00	-7.512727e+02
7.200000e-07	-1.144425e-06	-1.092549e-08	-8.199826e+00	-7.195741e+02
7.300000e-07	-1.034547e-06	-1.041486e-08	-7.412544e+00	-6.861020e+02
7.400000e-07	-9.244110e-07	-9.876725e-09	-6.623420e+00	-6.507886e+02
7.500000e-07	-8.140690e-07	-9.311667e-09	-5.832817e+00	-6.135924e+02
7.600000e-07	-7.035230e-07	-8.716755e-09	-5.040754e+00	-5.745138e+02
7.700000e-07	-5.927226e-07	-8.088158e-09	-4.246867e+00	-5.336097e+02
7.800000e-07	-4.817340e-07	-7.431215e-09	-3.451632e+00	-4.910059e+02
7.900000e-07	-3.705803e-07	-6.756565e-09	-2.655214e+00	-4.469001e+02
8.000000e-07	-2.592625e-07	-6.066369e-09	-1.857620e+00	-4.015543e+02
8.100000e-07	-1.478330e-07	-5.365987e-09	-1.059226e+00	-3.552743e+02
8.200000e-07	-3.630841e-08	-4.658299e-09	-2.601503e-01	-3.083783e+02
8.300000e-07	7.522873e-08	-3.943951e-09	5.390150e-01	-2.611580e+02
8.400000e-07	1.867706e-07	-3.224004e-09	1.338214e+00	-2.138387e+02
8.500000e-07	2.983057e-07	-2.500693e-09	2.137365e+00	-1.665466e+02
8.600000e-07	4.097650e-07	-1.774387e-09	2.935973e+00	-1.192891e+02
8.700000e-07	5.211117e-07	-1.047419e-09	3.733774e+00	-7.195457e+01
8.800000e-07	6.322876e-07	-3.208771e-10	4.530350e+00	-2.433279e+01
8.900000e-07	7.432066e-07	4.102435e-10	5.325087e+00	2.384547e+01
9.000000e-07	8.538856e-07	1.154129e-09	6.118104e+00	7.285548e+01
9.100000e-07	9.643520e-07	1.917112e-09	6.909597e+00	1.229207e+02
9.200000e-07	1.074572e-06	2.698789e-09	7.699324e+00	1.741599e+02
9.300000e-07	1.184452e-06	3.498247e-09	8.486618e+00	2.265479e+02
9.400000e-07	1.293920e-06	4.312124e-09	9.270956e+00	2.798979e+02
9.500000e-07	1.402930e-06	5.133659e-09	1.005202e+01	3.338675e+02
9.600000e-07	1.511441e-06	5.956972e-09	1.082950e+01	3.879872e+02
9.700000e-07	1.619498e-06	6.776415e-09	1.160373e+01	4.417074e+02
9.800000e-07	1.727046e-06	7.582594e-09	1.237431e+01	4.944546e+02
9.900000e-07	1.833963e-06	8.361879e-09	1.314037e+01	5.456883e+02
1.000000e-06	1.940100e-06	9.105119e-09	1.390085e+01	5.949494e+02
1.010000e-06	2.045360e-06	9.812747e-09	1.465504e+01	6.418939e+02
1.020000e-06	2.149736e-06	1.048591e-08	1.540289e+01	6.863080e+02
1.030000e-06	2.253228e-06	1.111916e-08	1.614441e+01	7.281049e+02
1.040000e-06	2.355886e-06	1.171481e-08	1.687996e+01	7.673067e+02
1.050000e-06	2.457713e-06	1.227290e-08	1.760955e+01	8.040171e+02
1.060000e-06	2.558686e-06	1.279354e-08	1.833302e+01	8.383896e+02
1.070000e-06	2.658894e-06	1.327852e-08	1.905101e+01	8.705995e+02
1.080000e-06	2.758324e-06	1.373429e-08	1.976343e+01	9.008209e+02
1.090000e-06	2.856713e-06	1.416618e-08	2.046839e+01	9.292137e+02
1.100000e-06	2.953861e-06	1.457442e-08	2.116446e+01	9.559172e+02
1.110000e-06	3.049779e-06	1.495925e-08	2.185171e+01	9.810522e+02
1.120000e-06	3.144574e-06	1.532222e-08	2.253092e+01	1.004725e+03
1.130000e-06	3.238316e-06	1.566347e-08	2.320259e+01	1.027033e+03
1.140000e-06	3.331061e-06	1.598304e-08	2.386710e+01	1.048069e+03
1.150000e-06	3.422845e-06	1.628227e-08	2.452474e+01	1.067925e+03
1.160000e-06	3.513446e-06	1.656498e-08	2.517390e+01	1.086688e+03
1.170000e-06	3.602601e-06	1.683592e-08	2.581269e+01	1.104440e+03
1.180000e-06	3.690371e-06	1.709285e-08	2.644157e+01	1.121255e+03
1.190000e-06	3.776926e-06	1.733577e-08	2.706173e+01	1.137199e+03
1.200000e-06	3.862253e-06	1.756584e-08	2.767311e+01	1.152327e+03
1.210000e-06	3.946354e-06	1.778334e-08	2.827569e+01	1.166686e+03
1.220000e-06	4.029193e-06	1.798835e-08	2.886923e+01	1.180318e+03
1.230000e-06	4.110551e-06	1.818363e-08	2.945217e+01	1.193261e+03
1.240000e-06	4.190293e-06	1.836991e-08	3.002351e+01	1.205555e+03
1.250000e-06	4.268460e-06	1.854751e-08	3.058358e+01	1.217237e+03
1.260000e-06	4.345125e-06	1.871575e-08	3.113289e+01	1.228345e+03
1.270000e-06	4.420166e-06	1.887666e-08	3.167056e+01	1.238910e+03
1.280000e-06	4.493336e-06	1.903109e-08	3.219482e+01	1.248962e+03
1.290000e-06	4.564694e-06	1.917985e-08	3.270610e+01	1.258519e+03
1.300000e-06	4.634405e-06	1.931998e-08	3.320558e+01	1.267595e+03
1.310000e-06	4.702585e-06	1.945225e-08	3.369409e+01	1.276195e+03
1.320000e-06	4.769077e-06	1.957771e-08	3.417051e+01	1.284325e+03
1.330000e-06	4.833699e-06	1.969474e-08	3.463353e+01	1.291990e+03
1.340000e-06	4.896613e-06	1.980262e-08	3.508431e+01	1.299202e+03
1.350000e-06	4.957853e-06	1.990314e-08	3.552310e+01	1.305980e+03
1.360000e-06	5.017501e-06	2.000004e-08	3.595047e+01	1.312355e+03
1.370000e-06	5.075414e-06	2.009374e-08	3.636542e+01	1.318362e+03
1.380000e-06	5.131375e-06	2.018241e-08	3.676638e+01	1.324042e+03
1.390000e-06	5.185438e-06	2.026400e-08	3.715374e+01	1.329433e+03
1.400000e-06	5.237472e-06	2.034132e-08	3.752657e+01	1.334570e+03
1.410000e-06	5.287255e-06	2.041546e-08	3.788327e+01	1.339475e+03
1.420000e-06	5.334900e-06	2.048707e-08	3.822464e+01	1.344163e+03
1.430000e-06	5.380703e-06	2.055546e-08	3.855282e+01	1.348635e+03
1.440000e-06	5.424835e-06	2.061993e-08	3.886903e+01	1.352884e+03
1.450000e-06	5.467083e-06	2.068110e-08	3.917173e+01	1.356898e+03
1.460000e-06	5.507229e-06	2.073891e-08	3.945938e+01	1.360665e+03
1.470000e-06	5.545480e-06	2.079242e-08	3.973345e+01	1.364176e+03
1.480000e-06	5.581993e-06	2.084100e-08	3.999507e+01	1.367427e+03
1.490000e-06	5.616511e-06	2.088577e-08	4.024239e+01	1.370421e+03
1.500000e-06	5.648870e-06	2.092757e-08	4.047424e+01	1.373168e+03
1.510000e-06	5.679260e-06	2.096643e-08	4.069199e+01	1.375679e+03
1.520000e-06	5.707838e-06	2.100232e-08	4.089675e+01	1.377968e+03
1.530000e-06	5.734397e-06	2.103537e-08	4.108704e+01	1.380049e+03
1.540000e-06	5.758653e-06	2.106349e-08	4.126084e+01	1.381931e+03
1.550000e-06	5.780773e-06	2.108632e-08	4.141933e+01	1.383619e+03
1.560000e-06	5.801040e-06	2.110659e-08	4.156454e+01	1.385117e+03
1.570000e-06	5.819362e-06	2.112526e-08	4.169582e+01	1.386424e+03
1.580000e-06	5.835498e-06	2.114157e-08	4.181144e+01	1.387540e+03
1.590000e-06	5.849452e-06	2.115643e-08	4.191142e+01	1.388466e+03
1.600000e-06	5.861144e-06	2.116931e-08	4.199519e+01	1.389206e+03
1.610000e-06	5.870400e-06	2.117894e-08	4.206151e+01	1.389767e+03
1.620000e-06	5.877409e-06	2.118580e-08	4.211173e+01	1.390156e+03
1.630000e-06	5.882450e-06	2.119094e-08	4.214785e+01	1.390387e+03
1.640000e-06	5.885498e-06	2.119441e-08	4.216969e+01	1.390468e+03
1.650000e-06	5.886421e-06	2.119815e-08	4.217630e+01	1.390411e+03
1.660000e-06	5.885283e-06	2.119363e-08	4.216815e+01	1.390220e+03
1.670000e-06	5.882304e-06	2.118192e-08	4.214680e+01	1.389897e+03
1.680000e-06	5.877508e-06	2.117580e-08	4.211244e+01	1.389441e+03
1.690000e-06	5.870669e-06	2.116777e-08	4.206343e+01	1.388843e+03
1.700000e-06	5.861820e-06	2.115708e-08	4.200003e+01	1.388094e+03
1.710000e-06	5.851195e-06	2.114785e-08	4.192390e+01	1.387187e+03
1.720000e-06	5.838613e-06	2.114675e-08	4.183375e+01	1.386114e+03
1.730000e-06	5.823899e-06	2.114513e-08	4.172832e+01	1.384874e+03
1.740000e-06	5.807203e-06	2.102810e-08	4.160870e+01	1.383469e+03
1.750000e-06	5.788295e-06	2.097309e-08	4.147323e+01	1.381910e+03
1.760000e-06	5.766534e-06	2.102058e-08	4.131730e+01	1.380210e+03
1.770000e-06	5.741993e-06	2.098374e-08	4.114147e+01	1.378388e+03
1.780000e-06	5.715539e-06	2.105900e-08	4.095192e+01	1.376457e+03
1.790000e-06	5.687999e-06	2.106064e-08	4.075460e+01	1.374430e+03
1.800000e-06	5.659456e-06	2.080104e-08	4.055009e+01	1.372311e+03
1.810000e-06	5.628854e-06	2.089332e-08	4.033083e+01	1.370091e+03
1.820000e-06	5.595972e-06	2.086992e-08	4.009523e+01	1.367757e+03
1.830000e-06	5.561440e-06	2.069010e-08	3.984781e+01	1.365285e+03
1.840000e-06	5.524875e-06	2.090282e-08	3.958582e+01	1.362646e+03
1.850000e-06	5.486127e-06	2.074171e-08	3.930819e+01	1.359814e+03
1.860000e-06	5.445435e-06	2.059367e-08	3.901663e+01	1.356765e+03
1.870000e-06	5.402827e-06	2.069404e-08	3.871134e+01	1.353485e+03
1.880000e-06	5.358628e-06	2.050132e-08	3.839466e+01	1.349969e+03
1.890000e-06	5.312537e-06	2.052855e-08	3.806441e+01	1.346223e+03
1.900000e-06	5.264177e-06	2.045626e-08	3.771791e+01	1.342259e+03
1.910000e-06	5.213757e-06	2.030565e-08	3.735665e+01	1.338093e+03
1.920000e-06	5.161062e-06	2.041233e-08	3.697909e+01	1.333739e+03
1.930000e-06	5.106209e-06	2.024329e-08	3.658607e+01	1.329205e+03
1.940000e-06	5.049537e-06	2.020013e-08	3.618001e+01	1.324491e+03
1.950000e-06	4.991088e-06	2.012640e-08	3.576122e+01	1.319590e+03
1.960000e-06	4.930874e-06	1.999885e-08	3.532979e+01	1.314484e+03
1.970000e-06	4.868690e-06	1.998839e-08	3.488424e+01	1.309155e+03
1.980000e-06	4.804631e-06	1.981057e-08	3.442526e+01	1.303583e+03
1.990000e-06	4.738889e-06	1.980030e-08	3.395421e+01	1.297751e+03
2.000000e-06	4.671590e-06	1.972008e-08	3.347202e+01	1.291649e+03
2.010000e-06	4.602650e-06	1.959108e-08	3.297806e+01	1.285272e+03
2.020000e-06	4.531746e-06	1.950679e-08	3.247003e+01	1.278621e+03
2.030000e-06	4.459137e-06	1.933107e-08	3.194978e+01	1.271698e+03
2.040000e-06	4.385028e-06	1.929413e-08	3.141879e+01	1.264504e+03
2.050000e-06	4.309308e-06	1.916786e-08	3.087626e+01	1.257034e+03
2.060000e-06	4.231808e-06	1.905274e-08	3.032097e+01	1.249281e+03
2.070000e-06	4.152554e-06	1.894639e-08	2.975312e+01	1.241229e+03
2.080000e-06	4.071832e-06	1.879149e-08	2.917474e+01	1.232860e+03
2.090000e-06	3.989761e-06	1.866998e-08	2.858670e+01	1.224155e+03
2.100000e-06	3.906416e-06	1.850155e-08	2.798953e+01	1.215098e+03
2.110000e-06	3.821755e-06	1.839144e-08	2.738293e+01	1.205676e+03
2.120000e-06	3.735709e-06	1.824248e-08	2.676642e+01	1.195880e+03
2.130000e-06	3.648213e-06	1.808850e-08	2.613950e+01	1.185703e+03
2.140000e-06	3.559386e-06	1.792697e-08	2.550305e+01	1.175140e+03
2.150000e-06	3.469418e-06	1.774979e-08	2.485843e+01	1.164177e+03
2.160000e-06	3.378275e-06	1.758874e-08	2.420539e+01	1.152796e+03
2.170000e-06	3.285953e-06	1.740596e-08	2.354391e+01	1.140967e+03
2.180000e-06	3.192356e-06	1.722899e-08	2.287328e+01	1.128654e+03
2.190000e-06	3.097462e-06	1.702741e-08	2.219336e+01	1.115812e+03
2.200000e-06	3.001402e-06	1.682442e-08	2.150509e+01	1.102397e+03
2.210000e-06	2.904302e-06	1.660792e-08	2.080937e+01	1.088365e+03
2.220000e-06	2.806184e-06	1.638720e-08	2.010635e+01	1.073680e+03
2.230000e-06	2.707142e-06	1.615880e-08	1.939671e+01	1.058311e+03
2.240000e-06	2.607191e-06	1.591634e-08	1.868057e+01	1.042233e+03
2.250000e-06	2.506275e-06	1.566668e-08	1.795750e+01	1.025422e+03
2.260000e-06	2.404458e-06	1.539404e-08	1.722798e+01	1.007849e+03
2.270000e-06	2.301628e-06	1.510927e-08	1.649120e+01	9.894782e+02
2.280000e-06	2.197711e-06	1.481378e-08	1.574663e+01	9.702592e+02
2.290000e-06	2.092958e-06	1.451244e-08	1.499608e+01	9.501271e+02
2.300000e-06	1.987543e-06	1.419315e-08	1.424078e+01	9.290037e+02
2.310000e-06	1.881475e-06	1.386035e-08	1.348080e+01	9.068003e+02
2.320000e-06	1.774850e-06	1.350789e-08	1.271683e+01	8.834225e+02
2.330000e-06	1.667720e-06	1.313199e-08	1.194924e+01	8.587739e+02
2.340000e-06	1.560094e-06	1.273319e-08	1.117809e+01	8.327595e+02
2.350000e-06	1.451927e-06	1.231295e-08	1.040308e+01	8.052864e+02
2.360000e-06	1.343304e-06	1.187538e-08	9.624795e+00	7.762636e+02
2.370000e-06	1.234409e-06	1.141324e-08	8.844559e+00	7.456016e+02
2.380000e-06	1.125231e-06	1.092328e-08	8.062299e+00	7.132145e+02
2.390000e-06	1.015672e-06	1.039940e-08	7.277309e+00	6.790251e+02
2.400000e-06	9.057408e-07	9.843966e-09	6.489647e+00	6.429741e+02
2.410000e-06	7.954599e-07	9.260938e-09	5.699483e+00	6.050347e+02
2.420000e-06	6.848007e-07	8.655680e-09	4.906607e+00	5.652276e+02
2.430000e-06	5.738493e-07	8.027340e-09	4.111639e+00	5.236358e+02
2.440000e-06	4.627977e-07	7.372786e-09	3.315953e+00	4.804136e+02
2.450000e-06	3.516150e-07	6.691605e-09	2.519327e+00	4.357855e+02
2.460000e-06	2.402208e-07	5.987999e-09	1.721186e+00	3.900338e+02
2.470000e-06	1.287043e-07	5.272792e-09	9.221683e-01	3.434736e+02
2.480000e-06	1.710988e-08	4.552519e-09	1.225925e-01	2.964173e+02
2.490000e-06	-9.457760e-08	3.831615e-09	-6.776500e-01	2.491352e+02
2.500000e-06	-2.062078e-07	3.112200e-09	-1.477482e+00	2.018170e+02
2.510000e-06	-3.176762e-07	2.392700e-09	-2.276155e+00	1.545435e+02
2.520000e-06	-4.290266e-07	1.670422e-09	-3.073982e+00	1.072742e+02
2.530000e-06	-5.402333e-07	9.437898e-10	-3.870780e+00	5.985536e+01
2.540000e-06	-6.512433e-07	2.120678e-10	-4.666169e+00	1.204778e+01
2.550000e-06	-7.619789e-07	-5.272079e-10	-5.459591e+00	-3.642689e+01
2.560000e-06	-8.723473e-07	-1.278987e-09	-6.250382e+00	-8.583045e+01
2.570000e-06	-9.823201e-07	-2.048209e-09	-7.038339e+00	-1.363509e+02
2.580000e-06	-1.091900e-06	-2.836171e-09	-7.823479e+00	-1.880541e+02
2.590000e-06	-1.201131e-06	-3.641721e-09	-8.606124e+00	-2.408522e+02
2.600000e-06	-1.310044e-06	-4.462453e-09	-9.386486e+00	-2.944953e+02
2.610000e-06	-1.418526e-06	-5.290644e-09	-1.016376e+01	-3.485864e+02
2.620000e-06	-1.526482e-06	-6.115183e-09	-1.093727e+01	-4.026182e+02
2.630000e-06	-1.633900e-06	-6.928686e-09	-1.170692e+01	-4.560248e+02
2.640000e-06	-1.740822e-06	-7.725592e-09	-1.247302e+01	-5.082392e+02
2.650000e-06	-1.847214e-06	-8.500174e-09	-1.323531e+01	-5.587478e+02
2.660000e-06	-1.952887e-06	-9.244147e-09	-1.399246e+01	-6.071337e+02
2.670000e-06	-2.057804e-06	-9.950921e-09	-1.474419e+01	-6.531033e+02
2.680000e-06	-2.161989e-06	-1.061773e-08	-1.549068e+01	-6.964938e+02
2.690000e-06	-2.265282e-06	-1.124194e-08	-1.623078e+01	-7.372643e+02
2.700000e-06	-2.367639e-06	-1.182639e-08	-1.696417e+01	-7.754724e+02
2.710000e-06	-2.469070e-06	-1.237652e-08	-1.769093e+01	-8.112451e+02
2.720000e-06	-2.569548e-06	-1.289309e-08	-1.841085e+01	-8.447477e+02
2.730000e-06	-2.669089e-06	-1.337531e-08	-1.912407e+01	-8.761571e+02
2.740000e-06	-2.767719e-06	-1.382638e-08	-1.983075e+01	-9.056431e+02
2.750000e-06	-2.865443e-06	-1.424927e-08	-2.053095e+01	-9.333576e+02
2.760000e-06	-2.962292e-06	-1.464814e-08	-2.122487e+01	-9.594324e+02
2.770000e-06	-3.058209e-06	-1.502580e-08	-2.191211e+01	-9.839816e+02
2.780000e-06	-3.153069e-06	-1.538048e-08	-2.259179e+01	-1.007108e+03
2.790000e-06	-3.246746e-06	-1.571293e-08	-2.326298e+01	-1.028906e+03
2.800000e-06	-3.339165e-06	-1.602654e-08	-2.392517e+01	-1.049469e+03
2.810000e-06	-3.430367e-06	-1.632350e-08	-2.457863e+01	-1.068886e+03
2.820000e-06	-3.520309e-06	-1.660389e-08	-2.522307e+01	-1.087243e+03
2.830000e-06	-3.609036e-06	-1.686880e-08	-2.585880e+01	-1.104620e+03
2.840000e-06	-3.696604e-06	-1.712090e-08	-2.648622e+01	-1.121087e+03
2.850000e-06	-3.782757e-06	-1.736204e-08	-2.710351e+01	-1.136705e+03
2.860000e-06	-3.867394e-06	-1.759303e-08	-2.770994e+01	-1.151526e+03
2.870000e-06	-3.950716e-06	-1.781274e-08	-2.830694e+01	-1.165595e+03
2.880000e-06	-4.032753e-06	-1.801952e-08	-2.889473e+01	-1.178953e+03
2.890000e-06	-4.113385e-06	-1.821347e-08	-2.947247e+01	-1.191638e+03
2.900000e-06	-4.192421e-06	-1.839543e-08	-3.003876e+01	-1.203688e+03
2.910000e-06	-4.269695e-06	-1.856802e-08	-3.059243e+01	-1.215141e+03
2.920000e-06	-4.345301e-06	-1.873286e-08	-3.113415e+01	-1.226033e+03
2.930000e-06	-4.419309e-06	-1.889030e-08	-3.166442e+01	-1.236394e+03
2.940000e-06	-4.491718e-06	-1.904106e-08	-3.218323e+01	-1.246251e+03
