# Temperatura_=_70.81
# Concentracion g/m^3_=_28200.0
# C_Vs_to_Am_M_A/Vsm_=_65563218390.804596
# pendiente_HvsI_1/m_=_3716.3
# ordenada_HvsI_A/m_=_1297.0
# frecuencia_Hz_=_301921.3287320119

Tiempo_(s)	Campo_(V.s)	Magnetizacion_(V.s)	Campo_(kA/m)	Magnetizacion_(A/m)
0.000000e+00	-5.867266e-06	-2.332330e-08	-4.195072e+01	-1.527987e+03
1.000000e-08	-5.865359e-06	-2.332139e-08	-4.193708e+01	-1.527658e+03
2.000000e-08	-5.861434e-06	-2.331288e-08	-4.190903e+01	-1.527166e+03
3.000000e-08	-5.855702e-06	-2.330154e-08	-4.186804e+01	-1.526509e+03
4.000000e-08	-5.848192e-06	-2.328949e-08	-4.181435e+01	-1.525682e+03
5.000000e-08	-5.838765e-06	-2.327446e-08	-4.174694e+01	-1.524683e+03
6.000000e-08	-5.827132e-06	-2.325491e-08	-4.166376e+01	-1.523507e+03
7.000000e-08	-5.813360e-06	-2.322687e-08	-4.156529e+01	-1.522153e+03
8.000000e-08	-5.797391e-06	-2.320034e-08	-4.145112e+01	-1.520620e+03
9.000000e-08	-5.779259e-06	-2.322689e-08	-4.132148e+01	-1.518913e+03
1.000000e-07	-5.759036e-06	-2.322626e-08	-4.117688e+01	-1.517040e+03
1.100000e-07	-5.736635e-06	-2.315222e-08	-4.101671e+01	-1.515014e+03
1.200000e-07	-5.712047e-06	-2.310555e-08	-4.084091e+01	-1.512848e+03
1.300000e-07	-5.685338e-06	-2.305538e-08	-4.064994e+01	-1.510557e+03
1.400000e-07	-5.657004e-06	-2.293286e-08	-4.044736e+01	-1.508149e+03
1.500000e-07	-5.627274e-06	-2.297521e-08	-4.023479e+01	-1.505627e+03
1.600000e-07	-5.595893e-06	-2.299167e-08	-4.001041e+01	-1.502984e+03
1.700000e-07	-5.562647e-06	-2.285334e-08	-3.977270e+01	-1.500204e+03
1.800000e-07	-5.527476e-06	-2.289873e-08	-3.952123e+01	-1.497261e+03
1.900000e-07	-5.490300e-06	-2.283111e-08	-3.925543e+01	-1.494123e+03
2.000000e-07	-5.451231e-06	-2.270619e-08	-3.897609e+01	-1.490759e+03
2.100000e-07	-5.410261e-06	-2.273809e-08	-3.868316e+01	-1.487143e+03
2.200000e-07	-5.367211e-06	-2.265433e-08	-3.837534e+01	-1.483256e+03
2.300000e-07	-5.322109e-06	-2.257185e-08	-3.805287e+01	-1.479093e+03
2.400000e-07	-5.274874e-06	-2.252201e-08	-3.771514e+01	-1.474661e+03
2.500000e-07	-5.225407e-06	-2.242184e-08	-3.736145e+01	-1.469977e+03
2.600000e-07	-5.173638e-06	-2.237558e-08	-3.699131e+01	-1.465063e+03
2.700000e-07	-5.119714e-06	-2.228462e-08	-3.660576e+01	-1.459938e+03
2.800000e-07	-5.063980e-06	-2.218900e-08	-3.620726e+01	-1.454616e+03
2.900000e-07	-5.006372e-06	-2.210502e-08	-3.579536e+01	-1.449102e+03
3.000000e-07	-4.946805e-06	-2.200522e-08	-3.536946e+01	-1.443385e+03
3.100000e-07	-4.885457e-06	-2.192105e-08	-3.493082e+01	-1.437448e+03
3.200000e-07	-4.822366e-06	-2.183705e-08	-3.447973e+01	-1.431263e+03
3.300000e-07	-4.757506e-06	-2.175957e-08	-3.401598e+01	-1.424804e+03
3.400000e-07	-4.690812e-06	-2.163434e-08	-3.353912e+01	-1.418047e+03
3.500000e-07	-4.622356e-06	-2.151247e-08	-3.304967e+01	-1.410978e+03
3.600000e-07	-4.552278e-06	-2.140454e-08	-3.254861e+01	-1.403590e+03
3.700000e-07	-4.480717e-06	-2.127943e-08	-3.203695e+01	-1.395884e+03
3.800000e-07	-4.407494e-06	-2.118188e-08	-3.151341e+01	-1.387867e+03
3.900000e-07	-4.332339e-06	-2.105981e-08	-3.097606e+01	-1.379546e+03
4.000000e-07	-4.255477e-06	-2.091050e-08	-3.042649e+01	-1.370922e+03
4.100000e-07	-4.176938e-06	-2.076846e-08	-2.986495e+01	-1.361992e+03
4.200000e-07	-4.096631e-06	-2.062316e-08	-2.929075e+01	-1.352742e+03
4.300000e-07	-4.014853e-06	-2.047967e-08	-2.870604e+01	-1.343154e+03
4.400000e-07	-3.931914e-06	-2.032413e-08	-2.811303e+01	-1.333207e+03
4.500000e-07	-3.847844e-06	-2.017135e-08	-2.751194e+01	-1.322878e+03
4.600000e-07	-3.762515e-06	-2.000278e-08	-2.690183e+01	-1.312149e+03
4.700000e-07	-3.675989e-06	-1.982814e-08	-2.628317e+01	-1.301005e+03
4.800000e-07	-3.588356e-06	-1.965601e-08	-2.565661e+01	-1.289435e+03
4.900000e-07	-3.499365e-06	-1.947592e-08	-2.502032e+01	-1.277428e+03
5.000000e-07	-3.408873e-06	-1.929033e-08	-2.437331e+01	-1.264968e+03
5.100000e-07	-3.317105e-06	-1.908709e-08	-2.371717e+01	-1.252035e+03
5.200000e-07	-3.224181e-06	-1.887828e-08	-2.305277e+01	-1.238600e+03
5.300000e-07	-3.130075e-06	-1.865798e-08	-2.237991e+01	-1.224624e+03
5.400000e-07	-3.034919e-06	-1.843088e-08	-2.169955e+01	-1.210065e+03
5.500000e-07	-2.938752e-06	-1.819774e-08	-2.101196e+01	-1.194878e+03
5.600000e-07	-2.841322e-06	-1.795626e-08	-2.031534e+01	-1.179021e+03
5.700000e-07	-2.742611e-06	-1.770426e-08	-1.960956e+01	-1.162456e+03
5.800000e-07	-2.642829e-06	-1.744044e-08	-1.889612e+01	-1.145153e+03
5.900000e-07	-2.542103e-06	-1.716762e-08	-1.817594e+01	-1.127084e+03
6.000000e-07	-2.440459e-06	-1.687753e-08	-1.744919e+01	-1.108220e+03
6.100000e-07	-2.337912e-06	-1.657343e-08	-1.671598e+01	-1.088525e+03
6.200000e-07	-2.234633e-06	-1.625571e-08	-1.597754e+01	-1.067953e+03
6.300000e-07	-2.130659e-06	-1.592459e-08	-1.523413e+01	-1.046441e+03
6.400000e-07	-2.025795e-06	-1.557861e-08	-1.448436e+01	-1.023912e+03
6.500000e-07	-1.919974e-06	-1.521723e-08	-1.372774e+01	-1.000273e+03
6.600000e-07	-1.813347e-06	-1.483738e-08	-1.296536e+01	-9.754250e+02
6.700000e-07	-1.706101e-06	-1.443388e-08	-1.219856e+01	-9.492619e+02
6.800000e-07	-1.598299e-06	-1.401007e-08	-1.142777e+01	-9.216779e+02
6.900000e-07	-1.489967e-06	-1.356555e-08	-1.065321e+01	-8.925685e+02
7.000000e-07	-1.381149e-06	-1.309813e-08	-9.875159e+00	-8.618299e+02
7.100000e-07	-1.271903e-06	-1.260245e-08	-9.094055e+00	-8.293572e+02
7.200000e-07	-1.162307e-06	-1.207732e-08	-8.310450e+00	-7.950442e+02
7.300000e-07	-1.052364e-06	-1.152108e-08	-7.524362e+00	-7.587851e+02
7.400000e-07	-9.420497e-07	-1.093442e-08	-6.735618e+00	-7.204821e+02
7.500000e-07	-8.314383e-07	-1.031755e-08	-5.944751e+00	-6.800581e+02
7.600000e-07	-7.205835e-07	-9.667998e-09	-5.152143e+00	-6.374749e+02
7.700000e-07	-6.095075e-07	-8.985556e-09	-4.357955e+00	-5.927524e+02
7.800000e-07	-4.982394e-07	-8.271650e-09	-3.562392e+00	-5.459850e+02
7.900000e-07	-3.868465e-07	-7.530664e-09	-2.765937e+00	-4.973496e+02
8.000000e-07	-2.753837e-07	-6.763953e-09	-1.968983e+00	-4.471020e+02
8.100000e-07	-1.638478e-07	-5.976198e-09	-1.171505e+00	-3.955575e+02
8.200000e-07	-5.223042e-08	-5.173753e-09	-3.734454e-01	-3.430580e+02
8.300000e-07	5.946276e-08	-4.363101e-09	4.251564e-01	-2.899293e+02
8.400000e-07	1.711501e-07	-3.549283e-09	1.223717e+00	-2.364353e+02
8.500000e-07	2.828137e-07	-2.733269e-09	2.022107e+00	-1.827389e+02
8.600000e-07	3.944294e-07	-1.912600e-09	2.820154e+00	-1.288773e+02
8.700000e-07	5.059200e-07	-1.086727e-09	3.617308e+00	-7.475906e+01
8.800000e-07	6.172640e-07	-2.553599e-10	4.413413e+00	-2.018571e+01
8.900000e-07	7.284789e-07	5.855365e-10	5.208596e+00	3.510380e+01
9.000000e-07	8.395128e-07	1.441688e-09	6.002483e+00	9.137279e+01
9.100000e-07	9.503180e-07	2.315643e-09	6.794736e+00	1.488204e+02
9.200000e-07	1.060827e-06	3.206333e-09	7.584871e+00	2.075210e+02
9.300000e-07	1.170928e-06	4.115135e-09	8.372092e+00	2.673812e+02
9.400000e-07	1.280591e-06	5.040547e-09	9.156173e+00	3.281220e+02
9.500000e-07	1.389834e-06	5.975143e-09	9.937260e+00	3.892908e+02
9.600000e-07	1.498664e-06	6.906828e-09	1.071539e+01	4.503001e+02
9.700000e-07	1.607008e-06	7.824084e-09	1.149004e+01	5.104880e+02
9.800000e-07	1.714838e-06	8.717490e-09	1.226102e+01	5.691878e+02
9.900000e-07	1.822109e-06	9.576699e-09	1.302801e+01	6.257967e+02
1.000000e-06	1.928660e-06	1.039488e-08	1.378984e+01	6.798311e+02
1.010000e-06	2.034394e-06	1.116752e-08	1.454583e+01	7.309616e+02
1.020000e-06	2.139227e-06	1.189380e-08	1.529539e+01	7.790233e+02
1.030000e-06	2.243101e-06	1.257536e-08	1.603809e+01	8.240029e+02
1.040000e-06	2.346091e-06	1.321346e-08	1.677446e+01	8.660080e+02
1.050000e-06	2.448265e-06	1.380955e-08	1.750500e+01	9.052263e+02
1.060000e-06	2.549596e-06	1.436910e-08	1.822951e+01	9.418842e+02
1.070000e-06	2.650118e-06	1.489152e-08	1.894824e+01	9.762104e+02
1.080000e-06	2.749837e-06	1.537921e-08	1.966122e+01	1.008412e+03
1.090000e-06	2.848599e-06	1.583655e-08	2.036737e+01	1.038665e+03
1.100000e-06	2.946165e-06	1.626557e-08	2.106497e+01	1.067110e+03
1.110000e-06	3.042444e-06	1.666960e-08	2.175336e+01	1.093866e+03
1.120000e-06	3.137619e-06	1.705215e-08	2.243385e+01	1.119040e+03
1.130000e-06	3.231774e-06	1.741455e-08	2.310706e+01	1.142736e+03
1.140000e-06	3.324894e-06	1.775655e-08	2.377286e+01	1.165060e+03
1.150000e-06	3.417041e-06	1.807909e-08	2.443171e+01	1.186125e+03
1.160000e-06	3.508083e-06	1.838348e-08	2.508265e+01	1.206041e+03
1.170000e-06	3.597713e-06	1.867219e-08	2.572350e+01	1.224912e+03
1.180000e-06	3.685875e-06	1.894525e-08	2.635386e+01	1.242827e+03
1.190000e-06	3.772741e-06	1.920350e-08	2.697495e+01	1.259856e+03
1.200000e-06	3.858377e-06	1.944735e-08	2.758724e+01	1.276052e+03
1.210000e-06	3.942809e-06	1.967832e-08	2.819093e+01	1.291452e+03
1.220000e-06	4.025982e-06	1.989882e-08	2.878562e+01	1.306085e+03
1.230000e-06	4.107612e-06	2.010949e-08	2.936926e+01	1.319980e+03
1.240000e-06	4.187648e-06	2.031019e-08	2.994152e+01	1.333169e+03
1.250000e-06	4.266135e-06	2.050213e-08	3.050270e+01	1.345694e+03
1.260000e-06	4.343074e-06	2.068418e-08	3.105280e+01	1.357601e+03
1.270000e-06	4.418431e-06	2.085739e-08	3.159161e+01	1.368939e+03
1.280000e-06	4.491984e-06	2.102197e-08	3.211751e+01	1.379753e+03
1.290000e-06	4.563761e-06	2.117935e-08	3.263071e+01	1.390079e+03
1.300000e-06	4.633869e-06	2.132900e-08	3.313198e+01	1.399940e+03
1.310000e-06	4.702413e-06	2.147187e-08	3.362207e+01	1.409343e+03
1.320000e-06	4.769304e-06	2.160909e-08	3.410034e+01	1.418289e+03
1.330000e-06	4.834339e-06	2.174036e-08	3.456533e+01	1.426769e+03
1.340000e-06	4.897592e-06	2.186494e-08	3.501759e+01	1.434778e+03
1.350000e-06	4.959200e-06	2.198165e-08	3.545809e+01	1.442319e+03
1.360000e-06	5.019269e-06	2.209004e-08	3.588758e+01	1.449407e+03
1.370000e-06	5.077562e-06	2.219038e-08	3.630437e+01	1.456067e+03
1.380000e-06	5.133900e-06	2.228501e-08	3.670718e+01	1.462338e+03
1.390000e-06	5.188367e-06	2.237342e-08	3.709662e+01	1.468261e+03
1.400000e-06	5.240861e-06	2.245670e-08	3.747195e+01	1.473878e+03
1.410000e-06	5.291136e-06	2.253853e-08	3.783141e+01	1.479224e+03
1.420000e-06	5.339214e-06	2.261872e-08	3.817517e+01	1.484324e+03
1.430000e-06	5.385372e-06	2.269586e-08	3.850520e+01	1.489190e+03
1.440000e-06	5.429831e-06	2.276796e-08	3.882308e+01	1.493824e+03
1.450000e-06	5.472440e-06	2.283440e-08	3.912773e+01	1.498218e+03
1.460000e-06	5.512955e-06	2.289663e-08	3.941741e+01	1.502362e+03
1.470000e-06	5.551541e-06	2.295500e-08	3.969330e+01	1.506246e+03
1.480000e-06	5.588335e-06	2.301018e-08	3.995637e+01	1.509861e+03
1.490000e-06	5.623145e-06	2.306162e-08	4.020526e+01	1.513205e+03
1.500000e-06	5.655860e-06	2.310861e-08	4.043917e+01	1.516281e+03
1.510000e-06	5.686619e-06	2.315165e-08	4.065910e+01	1.519096e+03
1.520000e-06	5.715519e-06	2.319126e-08	4.086574e+01	1.521659e+03
1.530000e-06	5.742456e-06	2.322699e-08	4.105834e+01	1.523981e+03
1.540000e-06	5.767195e-06	2.325795e-08	4.123522e+01	1.526070e+03
1.550000e-06	5.789726e-06	2.328545e-08	4.139631e+01	1.527934e+03
1.560000e-06	5.810291e-06	2.331096e-08	4.154335e+01	1.529578e+03
1.570000e-06	5.828936e-06	2.333286e-08	4.167666e+01	1.531008e+03
1.580000e-06	5.845414e-06	2.335060e-08	4.179448e+01	1.532229e+03
1.590000e-06	5.859688e-06	2.336550e-08	4.189654e+01	1.533247e+03
1.600000e-06	5.871713e-06	2.337899e-08	4.198252e+01	1.534067e+03
1.610000e-06	5.881354e-06	2.338991e-08	4.205145e+01	1.534697e+03
1.620000e-06	5.888783e-06	2.339803e-08	4.210456e+01	1.535144e+03
1.630000e-06	5.894210e-06	2.340317e-08	4.214337e+01	1.535415e+03
1.640000e-06	5.897602e-06	2.340628e-08	4.216762e+01	1.535514e+03
1.650000e-06	5.898816e-06	2.340956e-08	4.217630e+01	1.535448e+03
1.660000e-06	5.897935e-06	2.340569e-08	4.217001e+01	1.535217e+03
1.670000e-06	5.895202e-06	2.339513e-08	4.215046e+01	1.534823e+03
1.680000e-06	5.890617e-06	2.338727e-08	4.211768e+01	1.534265e+03
1.690000e-06	5.883944e-06	2.337797e-08	4.206997e+01	1.533541e+03
1.700000e-06	5.875303e-06	2.336468e-08	4.200818e+01	1.532646e+03
1.710000e-06	5.864921e-06	2.334973e-08	4.193396e+01	1.531577e+03
1.720000e-06	5.852558e-06	2.333974e-08	4.184556e+01	1.530330e+03
1.730000e-06	5.838053e-06	2.333049e-08	4.174185e+01	1.528904e+03
1.740000e-06	5.821576e-06	2.323957e-08	4.162404e+01	1.527301e+03
1.750000e-06	5.802951e-06	2.318113e-08	4.149087e+01	1.525526e+03
1.760000e-06	5.781564e-06	2.320087e-08	4.133795e+01	1.523590e+03
1.770000e-06	5.757402e-06	2.317151e-08	4.116520e+01	1.521507e+03
1.780000e-06	5.731176e-06	2.320648e-08	4.097768e+01	1.519289e+03
1.790000e-06	5.703741e-06	2.320832e-08	4.078152e+01	1.516950e+03
1.800000e-06	5.675375e-06	2.302355e-08	4.057871e+01	1.514496e+03
1.810000e-06	5.645053e-06	2.304154e-08	4.036190e+01	1.511927e+03
1.820000e-06	5.612385e-06	2.302293e-08	4.012833e+01	1.509232e+03
1.830000e-06	5.577991e-06	2.289164e-08	3.988241e+01	1.506390e+03
1.840000e-06	5.541617e-06	2.299765e-08	3.962234e+01	1.503373e+03
1.850000e-06	5.503063e-06	2.288299e-08	3.934668e+01	1.500149e+03
1.860000e-06	5.462570e-06	2.275029e-08	3.905716e+01	1.496688e+03
1.870000e-06	5.420163e-06	2.278588e-08	3.875395e+01	1.492965e+03
1.880000e-06	5.376106e-06	2.264805e-08	3.843895e+01	1.488969e+03
1.890000e-06	5.330161e-06	2.263794e-08	3.811044e+01	1.484698e+03
1.900000e-06	5.281979e-06	2.256750e-08	3.776594e+01	1.480164e+03
1.910000e-06	5.231771e-06	2.243341e-08	3.740696e+01	1.475385e+03
1.920000e-06	5.179284e-06	2.246848e-08	3.703168e+01	1.470385e+03
1.930000e-06	5.124611e-06	2.232983e-08	3.664077e+01	1.465180e+03
1.940000e-06	5.068092e-06	2.226895e-08	3.623666e+01	1.459782e+03
1.950000e-06	5.009740e-06	2.219933e-08	3.581944e+01	1.454189e+03
1.960000e-06	4.949660e-06	2.206849e-08	3.538988e+01	1.448387e+03
1.970000e-06	4.887680e-06	2.200856e-08	3.494672e+01	1.442355e+03
1.980000e-06	4.823761e-06	2.185296e-08	3.448970e+01	1.436064e+03
1.990000e-06	4.758108e-06	2.180115e-08	3.402029e+01	1.429490e+03
2.000000e-06	4.690889e-06	2.171566e-08	3.353967e+01	1.422611e+03
2.010000e-06	4.622048e-06	2.159435e-08	3.304746e+01	1.415415e+03
2.020000e-06	4.551329e-06	2.148943e-08	3.254182e+01	1.407901e+03
2.030000e-06	4.478872e-06	2.131488e-08	3.202375e+01	1.400071e+03
2.040000e-06	4.404821e-06	2.122841e-08	3.149430e+01	1.391933e+03
2.050000e-06	4.329148e-06	2.109374e-08	3.095323e+01	1.383492e+03
2.060000e-06	4.251700e-06	2.096855e-08	3.039948e+01	1.374747e+03
2.070000e-06	4.172536e-06	2.084878e-08	2.983347e+01	1.365692e+03
2.080000e-06	4.091917e-06	2.069027e-08	2.925705e+01	1.356311e+03
2.090000e-06	4.009824e-06	2.054853e-08	2.867009e+01	1.346584e+03
2.100000e-06	3.926467e-06	2.037557e-08	2.807408e+01	1.336488e+03
2.110000e-06	3.841825e-06	2.023688e-08	2.746890e+01	1.326002e+03
2.120000e-06	3.755611e-06	2.007053e-08	2.685247e+01	1.315111e+03
2.130000e-06	3.667944e-06	1.989631e-08	2.622565e+01	1.303800e+03
2.140000e-06	3.579074e-06	1.971458e-08	2.559024e+01	1.292058e+03
2.150000e-06	3.489058e-06	1.952184e-08	2.494662e+01	1.279874e+03
2.160000e-06	3.397918e-06	1.933656e-08	2.429498e+01	1.267230e+03
2.170000e-06	3.305637e-06	1.913638e-08	2.363518e+01	1.254103e+03
2.180000e-06	3.211989e-06	1.893922e-08	2.296559e+01	1.240459e+03
2.190000e-06	3.117013e-06	1.872114e-08	2.228652e+01	1.226258e+03
2.200000e-06	3.020929e-06	1.849673e-08	2.159952e+01	1.211457e+03
2.210000e-06	2.923787e-06	1.825957e-08	2.090496e+01	1.196010e+03
2.220000e-06	2.825650e-06	1.801539e-08	2.020329e+01	1.179878e+03
2.230000e-06	2.726572e-06	1.776131e-08	1.949488e+01	1.163026e+03
2.240000e-06	2.626629e-06	1.749480e-08	1.878029e+01	1.145424e+03
2.250000e-06	2.525776e-06	1.722072e-08	1.805920e+01	1.127045e+03
2.260000e-06	2.423803e-06	1.692711e-08	1.733009e+01	1.107858e+03
2.270000e-06	2.320739e-06	1.662001e-08	1.659319e+01	1.087824e+03
2.280000e-06	2.216728e-06	1.629990e-08	1.584952e+01	1.066890e+03
2.290000e-06	2.111862e-06	1.596991e-08	1.509973e+01	1.044987e+03
2.300000e-06	2.006308e-06	1.562132e-08	1.434502e+01	1.022033e+03
2.310000e-06	1.900168e-06	1.525711e-08	1.358612e+01	9.979303e+02
2.320000e-06	1.793446e-06	1.487439e-08	1.282307e+01	9.725771e+02
2.330000e-06	1.686180e-06	1.446981e-08	1.205612e+01	9.458673e+02
2.340000e-06	1.578453e-06	1.404048e-08	1.128588e+01	9.176954e+02
2.350000e-06	1.470260e-06	1.358622e-08	1.051230e+01	8.879572e+02
2.360000e-06	1.361604e-06	1.310934e-08	9.735414e+00	8.565488e+02
2.370000e-06	1.252560e-06	1.260619e-08	8.955752e+00	8.233648e+02
2.380000e-06	1.143085e-06	1.207505e-08	8.173009e+00	7.882986e+02
2.390000e-06	1.033243e-06	1.150967e-08	7.387644e+00	7.512463e+02
2.400000e-06	9.230896e-07	1.091019e-08	6.600054e+00	7.121164e+02
2.410000e-06	8.125799e-07	1.027817e-08	5.809914e+00	6.708448e+02
2.420000e-06	7.017614e-07	9.615392e-09	5.017566e+00	6.274139e+02
2.430000e-06	5.907200e-07	8.923413e-09	4.223625e+00	5.818712e+02
2.440000e-06	4.794904e-07	8.202920e-09	3.428337e+00	5.343431e+02
2.450000e-06	3.680456e-07	7.453220e-09	2.631512e+00	4.850389e+02
2.460000e-06	2.564170e-07	6.676614e-09	1.833372e+00	4.342408e+02
2.470000e-06	1.446327e-07	5.881074e-09	1.034118e+00	3.822791e+02
2.480000e-06	3.276329e-08	5.074868e-09	2.342562e-01	3.294949e+02
2.490000e-06	-7.908957e-08	4.262433e-09	-5.654873e-01	2.761950e+02
2.500000e-06	-1.908810e-07	3.444715e-09	-1.364792e+00	2.226076e+02
2.510000e-06	-3.025810e-07	2.623776e-09	-2.163442e+00	1.688481e+02
2.520000e-06	-4.141550e-07	1.798949e-09	-2.961192e+00	1.149022e+02
2.530000e-06	-5.255551e-07	9.675488e-10	-3.757698e+00	6.063235e+01
2.540000e-06	-6.367742e-07	1.285253e-10	-4.552911e+00	5.809281e+00
2.550000e-06	-7.478035e-07	-7.220182e-10	-5.346765e+00	-4.983679e+01
2.560000e-06	-8.585078e-07	-1.588233e-09	-6.138297e+00	-1.065518e+02
2.570000e-06	-9.687585e-07	-2.472337e-09	-6.926585e+00	-1.644925e+02
2.580000e-06	-1.078612e-06	-3.375466e-09	-7.712030e+00	-2.236711e+02
2.590000e-06	-1.188082e-06	-4.295845e-09	-8.494736e+00	-2.839218e+02
2.600000e-06	-1.297149e-06	-5.229118e-09	-9.274564e+00	-3.448944e+02
2.610000e-06	-1.405813e-06	-6.167016e-09	-1.005151e+01	-4.060773e+02
2.620000e-06	-1.514047e-06	-7.097981e-09	-1.082538e+01	-4.668458e+02
2.630000e-06	-1.621808e-06	-8.010074e-09	-1.159587e+01	-5.265276e+02
2.640000e-06	-1.729019e-06	-8.895038e-09	-1.236242e+01	-5.844734e+02
2.650000e-06	-1.835638e-06	-9.746600e-09	-1.312474e+01	-6.401216e+02
2.660000e-06	-1.941624e-06	-1.055785e-08	-1.388254e+01	-6.930464e+02
2.670000e-06	-2.046953e-06	-1.132357e-08	-1.463563e+01	-7.429832e+02
2.680000e-06	-2.151549e-06	-1.204144e-08	-1.538349e+01	-7.898292e+02
2.690000e-06	-2.255363e-06	-1.271169e-08	-1.612576e+01	-8.336231e+02
2.700000e-06	-2.358195e-06	-1.333813e-08	-1.686100e+01	-8.745091e+02
2.710000e-06	-2.459910e-06	-1.392695e-08	-1.758826e+01	-9.126948e+02
2.720000e-06	-2.560635e-06	-1.447979e-08	-1.830844e+01	-9.484112e+02
2.730000e-06	-2.660453e-06	-1.499475e-08	-1.902214e+01	-9.818809e+02
2.740000e-06	-2.759417e-06	-1.547534e-08	-1.972972e+01	-1.013299e+03
2.750000e-06	-2.857471e-06	-1.592562e-08	-2.043080e+01	-1.042827e+03
2.760000e-06	-2.954561e-06	-1.634741e-08	-2.112499e+01	-1.070597e+03
2.770000e-06	-3.050741e-06	-1.674540e-08	-2.181268e+01	-1.096720e+03
2.780000e-06	-3.145933e-06	-1.712269e-08	-2.249330e+01	-1.121302e+03
2.790000e-06	-3.239927e-06	-1.747920e-08	-2.316535e+01	-1.144447e+03
2.800000e-06	-3.332654e-06	-1.781454e-08	-2.382835e+01	-1.166264e+03
2.810000e-06	-3.424182e-06	-1.813076e-08	-2.448277e+01	-1.186866e+03
2.820000e-06	-3.514492e-06	-1.843044e-08	-2.512848e+01	-1.206361e+03
2.830000e-06	-3.603521e-06	-1.871376e-08	-2.576503e+01	-1.224847e+03
2.840000e-06	-3.691363e-06	-1.898110e-08	-2.639310e+01	-1.242408e+03
2.850000e-06	-3.777917e-06	-1.923397e-08	-2.701195e+01	-1.259106e+03
2.860000e-06	-3.862956e-06	-1.947485e-08	-2.761998e+01	-1.274986e+03
2.870000e-06	-3.946612e-06	-1.970546e-08	-2.821812e+01	-1.290082e+03
2.880000e-06	-4.028972e-06	-1.992712e-08	-2.880699e+01	-1.304423e+03
2.890000e-06	-4.109918e-06	-2.013991e-08	-2.938575e+01	-1.318038e+03
2.900000e-06	-4.189383e-06	-2.034103e-08	-2.995392e+01	-1.330962e+03
2.910000e-06	-4.267130e-06	-2.053019e-08	-3.050981e+01	-1.343239e+03
2.920000e-06	-4.343126e-06	-2.070872e-08	-3.105318e+01	-1.354918e+03
2.930000e-06	-4.417519e-06	-2.087769e-08	-3.158508e+01	-1.366046e+03
2.940000e-06	-4.490317e-06	-2.103800e-08	-3.210559e+01	-1.376666e+03
