# Temperatura_=_66.39
# Concentracion g/m^3_=_28200.0
# C_Vs_to_Am_M_A/Vsm_=_65563218390.804596
# pendiente_HvsI_1/m_=_3716.3
# ordenada_HvsI_A/m_=_1297.0
# frecuencia_Hz_=_301915.9554966769

Tiempo_(s)	Campo_(V.s)	Magnetizacion_(V.s)	Campo_(kA/m)	Magnetizacion_(A/m)
0.000000e+00	-5.838268e-06	-2.295940e-08	-4.195083e+01	-1.504726e+03
1.000000e-08	-5.836379e-06	-2.296079e-08	-4.193725e+01	-1.504418e+03
2.000000e-08	-5.832458e-06	-2.295599e-08	-4.190907e+01	-1.503955e+03
3.000000e-08	-5.826757e-06	-2.294648e-08	-4.186811e+01	-1.503335e+03
4.000000e-08	-5.819305e-06	-2.293797e-08	-4.181456e+01	-1.502558e+03
5.000000e-08	-5.809892e-06	-2.292402e-08	-4.174693e+01	-1.501615e+03
6.000000e-08	-5.798274e-06	-2.290351e-08	-4.166345e+01	-1.500503e+03
7.000000e-08	-5.784562e-06	-2.287105e-08	-4.156492e+01	-1.499216e+03
8.000000e-08	-5.768683e-06	-2.282625e-08	-4.145082e+01	-1.497752e+03
9.000000e-08	-5.750649e-06	-2.286156e-08	-4.132123e+01	-1.496114e+03
1.000000e-07	-5.730566e-06	-2.290858e-08	-4.117693e+01	-1.494310e+03
1.100000e-07	-5.708333e-06	-2.281831e-08	-4.101717e+01	-1.492351e+03
1.200000e-07	-5.683927e-06	-2.275066e-08	-4.084181e+01	-1.490253e+03
1.300000e-07	-5.657394e-06	-2.272382e-08	-4.065116e+01	-1.488026e+03
1.400000e-07	-5.629254e-06	-2.254994e-08	-4.044896e+01	-1.485680e+03
1.500000e-07	-5.599778e-06	-2.259020e-08	-4.023715e+01	-1.483214e+03
1.600000e-07	-5.568621e-06	-2.272776e-08	-4.001327e+01	-1.480619e+03
1.700000e-07	-5.535627e-06	-2.248986e-08	-3.977620e+01	-1.477877e+03
1.800000e-07	-5.500698e-06	-2.254266e-08	-3.952522e+01	-1.474963e+03
1.900000e-07	-5.463771e-06	-2.255618e-08	-3.925987e+01	-1.471851e+03
2.000000e-07	-5.424963e-06	-2.229717e-08	-3.898102e+01	-1.468515e+03
2.100000e-07	-5.384274e-06	-2.239548e-08	-3.868866e+01	-1.464937e+03
2.200000e-07	-5.341488e-06	-2.235169e-08	-3.838121e+01	-1.461108e+03
2.300000e-07	-5.296629e-06	-2.221241e-08	-3.805888e+01	-1.457030e+03
2.400000e-07	-5.249753e-06	-2.220380e-08	-3.772205e+01	-1.452715e+03
2.500000e-07	-5.200641e-06	-2.208566e-08	-3.736916e+01	-1.448178e+03
2.600000e-07	-5.149199e-06	-2.203784e-08	-3.699952e+01	-1.443435e+03
2.700000e-07	-5.095599e-06	-2.197237e-08	-3.661438e+01	-1.438499e+03
2.800000e-07	-5.040220e-06	-2.186076e-08	-3.621646e+01	-1.433370e+03
2.900000e-07	-4.983009e-06	-2.179631e-08	-3.580537e+01	-1.428041e+03
3.000000e-07	-4.923805e-06	-2.169066e-08	-3.537996e+01	-1.422492e+03
3.100000e-07	-4.862800e-06	-2.161881e-08	-3.494161e+01	-1.416700e+03
3.200000e-07	-4.800062e-06	-2.152927e-08	-3.449081e+01	-1.410640e+03
3.300000e-07	-4.735592e-06	-2.144716e-08	-3.402755e+01	-1.404292e+03
3.400000e-07	-4.669236e-06	-2.133716e-08	-3.355075e+01	-1.397644e+03
3.500000e-07	-4.601116e-06	-2.120006e-08	-3.306128e+01	-1.390691e+03
3.600000e-07	-4.531390e-06	-2.111244e-08	-3.256027e+01	-1.383441e+03
3.700000e-07	-4.460167e-06	-2.098021e-08	-3.204849e+01	-1.375902e+03
3.800000e-07	-4.387456e-06	-2.088337e-08	-3.152602e+01	-1.368084e+03
3.900000e-07	-4.312833e-06	-2.077007e-08	-3.098983e+01	-1.359991e+03
4.000000e-07	-4.236380e-06	-2.061134e-08	-3.044047e+01	-1.351618e+03
4.100000e-07	-4.158329e-06	-2.048339e-08	-2.987964e+01	-1.342949e+03
4.200000e-07	-4.078512e-06	-2.034726e-08	-2.930611e+01	-1.333962e+03
4.300000e-07	-3.997176e-06	-2.021637e-08	-2.872167e+01	-1.324628e+03
4.400000e-07	-3.914603e-06	-2.006048e-08	-2.812834e+01	-1.314920e+03
4.500000e-07	-3.830852e-06	-1.990950e-08	-2.752655e+01	-1.304816e+03
4.600000e-07	-3.745947e-06	-1.974570e-08	-2.691647e+01	-1.294301e+03
4.700000e-07	-3.659818e-06	-1.956916e-08	-2.629759e+01	-1.283366e+03
4.800000e-07	-3.572605e-06	-1.940434e-08	-2.567092e+01	-1.272009e+03
4.900000e-07	-3.484260e-06	-1.922609e-08	-2.503612e+01	-1.260226e+03
5.000000e-07	-3.394371e-06	-1.904126e-08	-2.439022e+01	-1.248007e+03
5.100000e-07	-3.303008e-06	-1.884048e-08	-2.373373e+01	-1.235335e+03
5.200000e-07	-3.210554e-06	-1.863746e-08	-2.306940e+01	-1.222179e+03
5.300000e-07	-3.116990e-06	-1.842481e-08	-2.239710e+01	-1.208499e+03
5.400000e-07	-3.022319e-06	-1.820576e-08	-2.171684e+01	-1.194246e+03
5.500000e-07	-2.926694e-06	-1.797912e-08	-2.102973e+01	-1.179372e+03
5.600000e-07	-2.830000e-06	-1.774132e-08	-2.033494e+01	-1.163829e+03
5.700000e-07	-2.731875e-06	-1.749060e-08	-1.962986e+01	-1.147579e+03
5.800000e-07	-2.632504e-06	-1.722878e-08	-1.891584e+01	-1.130589e+03
5.900000e-07	-2.532323e-06	-1.695971e-08	-1.819598e+01	-1.112835e+03
6.000000e-07	-2.431334e-06	-1.667529e-08	-1.747033e+01	-1.094289e+03
6.100000e-07	-2.329424e-06	-1.637739e-08	-1.673805e+01	-1.074923e+03
6.200000e-07	-2.226608e-06	-1.606664e-08	-1.599927e+01	-1.054691e+03
6.300000e-07	-2.123063e-06	-1.574158e-08	-1.525525e+01	-1.033536e+03
6.400000e-07	-2.018898e-06	-1.540072e-08	-1.450677e+01	-1.011384e+03
6.500000e-07	-1.913888e-06	-1.504482e-08	-1.375223e+01	-9.881443e+02
6.600000e-07	-1.807888e-06	-1.467078e-08	-1.299056e+01	-9.637179e+02
6.700000e-07	-1.701073e-06	-1.427467e-08	-1.222304e+01	-9.380004e+02
6.800000e-07	-1.593671e-06	-1.385776e-08	-1.145131e+01	-9.108859e+02
6.900000e-07	-1.485869e-06	-1.342136e-08	-1.067670e+01	-8.822701e+02
7.000000e-07	-1.377687e-06	-1.296202e-08	-9.899359e+00	-8.520492e+02
7.100000e-07	-1.269035e-06	-1.247400e-08	-9.118643e+00	-8.201194e+02
7.200000e-07	-1.159921e-06	-1.195593e-08	-8.334601e+00	-7.863759e+02
7.300000e-07	-1.050461e-06	-1.140865e-08	-7.548075e+00	-7.507155e+02
7.400000e-07	-9.407210e-07	-1.083468e-08	-6.759542e+00	-7.130442e+02
7.500000e-07	-8.306960e-07	-1.023086e-08	-5.968959e+00	-6.732895e+02
7.600000e-07	-7.203770e-07	-9.592817e-09	-5.176262e+00	-6.314180e+02
7.700000e-07	-6.097808e-07	-8.918597e-09	-4.381575e+00	-5.874540e+02
7.800000e-07	-4.989766e-07	-8.213207e-09	-3.585392e+00	-5.414947e+02
7.900000e-07	-3.880139e-07	-7.482512e-09	-2.788070e+00	-4.937182e+02
8.000000e-07	-2.769229e-07	-6.731428e-09	-1.989827e+00	-4.443788e+02
8.100000e-07	-1.657524e-07	-5.963997e-09	-1.191012e+00	-3.937882e+02
8.200000e-07	-5.452758e-08	-5.181382e-09	-3.918074e-01	-3.422834e+02
8.300000e-07	5.672274e-08	-4.387770e-09	4.075807e-01	-2.901851e+02
8.400000e-07	1.679712e-07	-3.587355e-09	1.206955e+00	-2.377537e+02
8.500000e-07	2.792443e-07	-2.783800e-09	2.006507e+00	-1.851510e+02
8.600000e-07	3.905030e-07	-1.975860e-09	2.805956e+00	-1.324165e+02
8.700000e-07	5.016245e-07	-1.164918e-09	3.604418e+00	-7.946361e+01
8.800000e-07	6.125454e-07	-3.493164e-10	4.401440e+00	-2.610017e+01
8.900000e-07	7.232731e-07	4.744460e-10	5.197073e+00	2.793013e+01
9.000000e-07	8.338031e-07	1.310119e-09	5.991285e+00	8.289025e+01
9.100000e-07	9.440735e-07	2.162790e-09	6.783632e+00	1.389863e+02
9.200000e-07	1.054010e-06	3.033431e-09	7.573579e+00	1.963090e+02
9.300000e-07	1.163537e-06	3.921690e-09	8.360587e+00	2.547908e+02
9.400000e-07	1.272674e-06	4.825429e-09	9.144788e+00	3.141872e+02
9.500000e-07	1.381460e-06	5.738018e-09	9.926468e+00	3.740843e+02
9.600000e-07	1.489805e-06	6.649207e-09	1.070498e+01	4.339337e+02
9.700000e-07	1.597665e-06	7.550751e-09	1.148001e+01	4.931071e+02
9.800000e-07	1.705060e-06	8.432622e-09	1.225170e+01	5.509607e+02
9.900000e-07	1.811787e-06	9.282976e-09	1.301858e+01	6.069010e+02
1.000000e-06	1.917673e-06	1.009422e-08	1.377942e+01	6.604384e+02
1.010000e-06	2.022729e-06	1.086087e-08	1.453430e+01	7.112234e+02
1.020000e-06	2.126891e-06	1.158213e-08	1.528276e+01	7.590607e+02
1.030000e-06	2.230220e-06	1.226118e-08	1.602523e+01	8.039010e+02
1.040000e-06	2.332779e-06	1.289757e-08	1.676216e+01	8.458162e+02
1.050000e-06	2.434473e-06	1.349209e-08	1.749289e+01	8.849637e+02
1.060000e-06	2.535321e-06	1.404917e-08	1.821752e+01	9.215484e+02
1.070000e-06	2.635379e-06	1.456864e-08	1.893649e+01	9.557879e+02
1.080000e-06	2.734645e-06	1.505506e-08	1.964977e+01	9.878881e+02
1.090000e-06	2.832865e-06	1.551240e-08	2.035553e+01	1.018029e+03
1.100000e-06	2.929814e-06	1.594366e-08	2.105215e+01	1.046363e+03
1.110000e-06	3.025583e-06	1.634876e-08	2.174030e+01	1.073016e+03
1.120000e-06	3.120285e-06	1.673071e-08	2.242078e+01	1.098100e+03
1.130000e-06	3.213949e-06	1.709099e-08	2.309381e+01	1.121721e+03
1.140000e-06	3.306574e-06	1.742879e-08	2.375936e+01	1.143981e+03
1.150000e-06	3.398214e-06	1.774669e-08	2.441784e+01	1.164986e+03
1.160000e-06	3.488766e-06	1.804821e-08	2.506850e+01	1.184838e+03
1.170000e-06	3.577901e-06	1.833586e-08	2.570898e+01	1.203635e+03
1.180000e-06	3.665609e-06	1.860860e-08	2.633920e+01	1.221463e+03
1.190000e-06	3.752079e-06	1.886721e-08	2.696053e+01	1.238394e+03
1.200000e-06	3.837373e-06	1.911233e-08	2.757341e+01	1.254484e+03
1.210000e-06	3.921501e-06	1.934344e-08	2.817791e+01	1.269778e+03
1.220000e-06	4.004348e-06	1.956223e-08	2.877321e+01	1.284311e+03
1.230000e-06	4.085715e-06	1.976961e-08	2.935787e+01	1.298117e+03
1.240000e-06	4.165487e-06	1.996686e-08	2.993107e+01	1.311230e+03
1.250000e-06	4.243667e-06	2.015569e-08	3.049283e+01	1.323689e+03
1.260000e-06	4.320331e-06	2.033533e-08	3.104370e+01	1.335535e+03
1.270000e-06	4.395470e-06	2.050798e-08	3.158361e+01	1.346812e+03
1.280000e-06	4.468780e-06	2.067387e-08	3.211038e+01	1.357557e+03
1.290000e-06	4.540201e-06	2.083255e-08	3.262358e+01	1.367802e+03
1.300000e-06	4.609969e-06	2.098188e-08	3.312489e+01	1.377570e+03
1.310000e-06	4.678187e-06	2.112338e-08	3.361507e+01	1.386871e+03
1.320000e-06	4.744754e-06	2.125835e-08	3.409339e+01	1.395708e+03
1.330000e-06	4.809505e-06	2.138697e-08	3.455865e+01	1.404081e+03
1.340000e-06	4.872514e-06	2.150769e-08	3.501141e+01	1.411990e+03
1.350000e-06	4.933886e-06	2.162092e-08	3.545239e+01	1.419442e+03
1.360000e-06	4.993671e-06	2.172692e-08	3.588198e+01	1.426452e+03
1.370000e-06	5.051675e-06	2.182682e-08	3.629877e+01	1.433046e+03
1.380000e-06	5.107715e-06	2.192202e-08	3.670144e+01	1.439257e+03
1.390000e-06	5.161877e-06	2.201088e-08	3.709062e+01	1.445124e+03
1.400000e-06	5.214104e-06	2.209480e-08	3.746590e+01	1.450685e+03
1.410000e-06	5.264123e-06	2.217546e-08	3.782531e+01	1.455973e+03
1.420000e-06	5.311954e-06	2.225373e-08	3.816899e+01	1.461012e+03
1.430000e-06	5.357901e-06	2.232771e-08	3.849915e+01	1.465818e+03
1.440000e-06	5.402146e-06	2.239636e-08	3.881707e+01	1.470392e+03
1.450000e-06	5.444550e-06	2.246116e-08	3.912177e+01	1.474733e+03
1.460000e-06	5.484910e-06	2.252406e-08	3.941177e+01	1.478832e+03
1.470000e-06	5.523376e-06	2.258411e-08	3.968817e+01	1.482677e+03
1.480000e-06	5.560031e-06	2.263880e-08	3.995155e+01	1.486263e+03
1.490000e-06	5.594734e-06	2.268883e-08	4.020091e+01	1.489585e+03
1.500000e-06	5.627350e-06	2.273478e-08	4.043527e+01	1.492645e+03
1.510000e-06	5.658015e-06	2.277647e-08	4.065562e+01	1.495448e+03
1.520000e-06	5.686881e-06	2.281485e-08	4.086304e+01	1.498003e+03
1.530000e-06	5.713704e-06	2.285067e-08	4.105577e+01	1.500320e+03
1.540000e-06	5.738217e-06	2.288259e-08	4.123191e+01	1.502411e+03
1.550000e-06	5.760599e-06	2.291003e-08	4.139273e+01	1.504284e+03
1.560000e-06	5.781130e-06	2.293374e-08	4.154026e+01	1.505946e+03
1.570000e-06	5.799723e-06	2.295538e-08	4.167385e+01	1.507402e+03
1.580000e-06	5.816160e-06	2.297468e-08	4.179197e+01	1.508656e+03
1.590000e-06	5.830464e-06	2.299099e-08	4.189475e+01	1.509710e+03
1.600000e-06	5.842562e-06	2.300424e-08	4.198168e+01	1.510566e+03
1.610000e-06	5.852212e-06	2.301468e-08	4.205102e+01	1.511230e+03
1.620000e-06	5.859592e-06	2.302284e-08	4.210404e+01	1.511704e+03
1.630000e-06	5.864972e-06	2.302760e-08	4.214271e+01	1.511995e+03
1.640000e-06	5.868370e-06	2.302881e-08	4.216712e+01	1.512112e+03
1.650000e-06	5.869648e-06	2.303191e-08	4.217630e+01	1.512060e+03
1.660000e-06	5.868818e-06	2.303096e-08	4.217034e+01	1.511847e+03
1.670000e-06	5.866141e-06	2.301784e-08	4.215110e+01	1.511476e+03
1.680000e-06	5.861644e-06	2.301103e-08	4.211879e+01	1.510951e+03
1.690000e-06	5.855100e-06	2.300329e-08	4.207177e+01	1.510269e+03
1.700000e-06	5.846604e-06	2.299012e-08	4.201072e+01	1.509426e+03
1.710000e-06	5.836355e-06	2.297709e-08	4.193707e+01	1.508417e+03
1.720000e-06	5.824128e-06	2.297006e-08	4.184922e+01	1.507235e+03
1.730000e-06	5.809678e-06	2.298372e-08	4.174539e+01	1.505877e+03
1.740000e-06	5.793253e-06	2.288232e-08	4.162737e+01	1.504343e+03
1.750000e-06	5.774793e-06	2.277035e-08	4.149473e+01	1.502638e+03
1.760000e-06	5.753555e-06	2.281991e-08	4.134212e+01	1.500771e+03
1.770000e-06	5.729467e-06	2.280694e-08	4.116903e+01	1.498754e+03
1.780000e-06	5.703282e-06	2.283456e-08	4.098088e+01	1.496603e+03
1.790000e-06	5.675872e-06	2.292250e-08	4.078392e+01	1.494328e+03
1.800000e-06	5.647629e-06	2.263272e-08	4.058099e+01	1.491934e+03
1.810000e-06	5.617589e-06	2.263077e-08	4.036514e+01	1.489418e+03
1.820000e-06	5.585120e-06	2.273615e-08	4.013183e+01	1.486767e+03
1.830000e-06	5.550926e-06	2.246965e-08	3.988613e+01	1.483960e+03
1.840000e-06	5.514901e-06	2.266525e-08	3.962727e+01	1.480971e+03
1.850000e-06	5.476581e-06	2.263283e-08	3.935193e+01	1.477772e+03
1.860000e-06	5.436237e-06	2.233843e-08	3.906203e+01	1.474342e+03
1.870000e-06	5.393958e-06	2.248822e-08	3.875824e+01	1.470664e+03
1.880000e-06	5.350100e-06	2.232739e-08	3.844310e+01	1.466736e+03
1.890000e-06	5.304504e-06	2.227722e-08	3.811546e+01	1.462562e+03
1.900000e-06	5.256559e-06	2.230746e-08	3.777096e+01	1.458156e+03
1.910000e-06	5.206599e-06	2.205383e-08	3.741197e+01	1.453536e+03
1.920000e-06	5.154568e-06	2.216342e-08	3.703810e+01	1.448715e+03
1.930000e-06	5.100309e-06	2.203939e-08	3.664822e+01	1.443703e+03
1.940000e-06	5.044098e-06	2.191583e-08	3.624432e+01	1.438496e+03
1.950000e-06	4.986019e-06	2.192100e-08	3.582699e+01	1.433082e+03
1.960000e-06	4.926239e-06	2.172915e-08	3.539744e+01	1.427439e+03
1.970000e-06	4.864574e-06	2.173103e-08	3.495435e+01	1.421544e+03
1.980000e-06	4.800953e-06	2.155205e-08	3.449721e+01	1.415372e+03
1.990000e-06	4.735659e-06	2.147342e-08	3.402804e+01	1.408906e+03
2.000000e-06	4.668768e-06	2.144564e-08	3.354739e+01	1.402137e+03
2.010000e-06	4.600356e-06	2.126260e-08	3.305582e+01	1.395066e+03
2.020000e-06	4.530032e-06	2.120694e-08	3.255051e+01	1.387700e+03
2.030000e-06	4.457866e-06	2.100786e-08	3.203196e+01	1.380049e+03
2.040000e-06	4.384204e-06	2.094375e-08	3.150266e+01	1.372122e+03
2.050000e-06	4.309004e-06	2.084306e-08	3.096231e+01	1.363919e+03
2.060000e-06	4.232117e-06	2.067348e-08	3.040984e+01	1.355431e+03
2.070000e-06	4.153358e-06	2.058175e-08	2.984392e+01	1.346639e+03
2.080000e-06	4.073058e-06	2.039645e-08	2.926692e+01	1.337518e+03
2.090000e-06	3.991391e-06	2.027590e-08	2.868010e+01	1.328039e+03
2.100000e-06	3.908358e-06	2.009600e-08	2.808347e+01	1.318177e+03
2.110000e-06	3.824178e-06	1.996135e-08	2.747860e+01	1.307912e+03
2.120000e-06	3.738649e-06	1.981388e-08	2.686403e+01	1.297232e+03
2.130000e-06	3.651567e-06	1.962684e-08	2.623830e+01	1.286131e+03
2.140000e-06	3.563213e-06	1.946429e-08	2.560344e+01	1.274606e+03
2.150000e-06	3.473684e-06	1.926383e-08	2.496013e+01	1.262652e+03
2.160000e-06	3.382903e-06	1.909616e-08	2.430782e+01	1.250257e+03
2.170000e-06	3.291073e-06	1.889301e-08	2.364798e+01	1.237398e+03
2.180000e-06	3.198166e-06	1.869724e-08	2.298040e+01	1.224040e+03
2.190000e-06	3.103839e-06	1.847933e-08	2.230261e+01	1.210140e+03
2.200000e-06	3.008179e-06	1.825631e-08	2.161524e+01	1.195648e+03
2.210000e-06	2.911528e-06	1.803091e-08	2.092076e+01	1.180515e+03
2.220000e-06	2.813886e-06	1.778865e-08	2.021916e+01	1.164697e+03
2.230000e-06	2.715204e-06	1.754545e-08	1.951007e+01	1.148159e+03
2.240000e-06	2.615646e-06	1.728047e-08	1.879470e+01	1.130871e+03
2.250000e-06	2.515298e-06	1.701396e-08	1.807365e+01	1.112808e+03
2.260000e-06	2.414035e-06	1.672180e-08	1.734603e+01	1.093943e+03
2.270000e-06	2.311612e-06	1.641898e-08	1.661007e+01	1.074242e+03
2.280000e-06	2.208067e-06	1.610254e-08	1.586605e+01	1.053654e+03
2.290000e-06	2.103763e-06	1.577969e-08	1.511657e+01	1.032116e+03
2.300000e-06	1.998781e-06	1.543828e-08	1.436222e+01	1.009547e+03
2.310000e-06	1.893108e-06	1.507989e-08	1.360291e+01	9.858526e+02
2.320000e-06	1.786865e-06	1.470604e-08	1.283950e+01	9.609305e+02
2.330000e-06	1.680073e-06	1.430731e-08	1.207215e+01	9.346758e+02
2.340000e-06	1.572724e-06	1.388567e-08	1.130080e+01	9.069829e+02
2.350000e-06	1.464901e-06	1.343666e-08	1.052603e+01	8.777478e+02
2.360000e-06	1.356732e-06	1.296895e-08	9.748786e+00	8.468670e+02
2.370000e-06	1.248285e-06	1.247425e-08	8.969542e+00	8.142361e+02
2.380000e-06	1.139541e-06	1.195158e-08	8.188161e+00	7.797506e+02
2.390000e-06	1.030410e-06	1.139428e-08	7.404003e+00	7.433096e+02
2.400000e-06	9.208470e-07	1.080448e-08	6.616738e+00	7.048256e+02
2.410000e-06	8.108440e-07	1.018488e-08	5.826312e+00	6.642395e+02
2.420000e-06	7.004915e-07	9.535746e-09	5.033375e+00	6.215383e+02
2.430000e-06	5.899308e-07	8.855819e-09	4.238943e+00	5.767734e+02
2.440000e-06	4.792339e-07	8.144943e-09	3.443531e+00	5.300735e+02
2.450000e-06	3.683962e-07	7.408715e-09	2.647108e+00	4.816479e+02
2.460000e-06	2.573946e-07	6.645473e-09	1.849506e+00	4.317765e+02
2.470000e-06	1.462182e-07	5.862582e-09	1.050649e+00	3.807855e+02
2.480000e-06	3.501543e-08	5.070245e-09	2.516030e-01	3.290107e+02
2.490000e-06	-7.614204e-08	4.274708e-09	-5.471179e-01	2.767542e+02
2.500000e-06	-1.872670e-07	3.476160e-09	-1.345605e+00	2.242416e+02
2.510000e-06	-2.982958e-07	2.675339e-09	-2.143401e+00	1.715886e+02
2.520000e-06	-4.092350e-07	1.872241e-09	-2.940555e+00	1.187841e+02
2.530000e-06	-5.200485e-07	1.062027e-09	-3.736804e+00	6.569656e+01
2.540000e-06	-6.306890e-07	2.440168e-10	-4.531810e+00	1.210245e+01
2.550000e-06	-7.411109e-07	-5.865256e-10	-5.325246e+00	-4.226452e+01
2.560000e-06	-8.512487e-07	-1.433178e-09	-6.116640e+00	-9.765253e+01
2.570000e-06	-9.610346e-07	-2.296199e-09	-6.905506e+00	-1.542287e+02
2.580000e-06	-1.070454e-06	-3.179248e-09	-7.691739e+00	-2.120255e+02
2.590000e-06	-1.179468e-06	-4.080211e-09	-8.475054e+00	-2.709066e+02
2.600000e-06	-1.288061e-06	-4.994862e-09	-9.255349e+00	-3.305585e+02
2.610000e-06	-1.396271e-06	-5.913498e-09	-1.003289e+01	-3.905092e+02
2.620000e-06	-1.504083e-06	-6.825050e-09	-1.080758e+01	-4.501713e+02
2.630000e-06	-1.611409e-06	-7.721352e-09	-1.157877e+01	-5.089025e+02
2.640000e-06	-1.718172e-06	-8.594259e-09	-1.234591e+01	-5.660716e+02
2.650000e-06	-1.824350e-06	-9.437876e-09	-1.310885e+01	-6.211201e+02
2.660000e-06	-1.929883e-06	-1.024426e-08	-1.386716e+01	-6.736104e+02
2.670000e-06	-2.034693e-06	-1.100643e-08	-1.462027e+01	-7.232533e+02
2.680000e-06	-2.138750e-06	-1.172379e-08	-1.536797e+01	-7.699126e+02
2.690000e-06	-2.241959e-06	-1.239488e-08	-1.610958e+01	-8.135906e+02
2.700000e-06	-2.344114e-06	-1.302030e-08	-1.684361e+01	-8.543973e+02
2.710000e-06	-2.445227e-06	-1.360563e-08	-1.757016e+01	-8.925132e+02
2.720000e-06	-2.545461e-06	-1.415366e-08	-1.829039e+01	-9.281518e+02
2.730000e-06	-2.644835e-06	-1.466515e-08	-1.900444e+01	-9.615285e+02
2.740000e-06	-2.743340e-06	-1.514264e-08	-1.971224e+01	-9.928403e+02
2.750000e-06	-2.840951e-06	-1.559206e-08	-2.041363e+01	-1.022256e+03
2.760000e-06	-2.937654e-06	-1.601502e-08	-2.110849e+01	-1.049916e+03
2.770000e-06	-3.033476e-06	-1.641447e-08	-2.179701e+01	-1.075941e+03
2.780000e-06	-3.128292e-06	-1.679300e-08	-2.247832e+01	-1.100439e+03
2.790000e-06	-3.221854e-06	-1.714821e-08	-2.315061e+01	-1.123514e+03
2.800000e-06	-3.314089e-06	-1.748048e-08	-2.381336e+01	-1.145269e+03
2.810000e-06	-3.405114e-06	-1.779291e-08	-2.446742e+01	-1.165810e+03
2.820000e-06	-3.494973e-06	-1.808876e-08	-2.511310e+01	-1.185238e+03
2.830000e-06	-3.583671e-06	-1.836981e-08	-2.575044e+01	-1.203646e+03
2.840000e-06	-3.671182e-06	-1.863680e-08	-2.637925e+01	-1.221114e+03
2.850000e-06	-3.757248e-06	-1.889069e-08	-2.699767e+01	-1.237710e+03
2.860000e-06	-3.841847e-06	-1.913331e-08	-2.760556e+01	-1.253483e+03
2.870000e-06	-3.925177e-06	-1.936550e-08	-2.820432e+01	-1.268475e+03
2.880000e-06	-4.007219e-06	-1.958625e-08	-2.879384e+01	-1.282720e+03
2.890000e-06	-4.087933e-06	-1.979560e-08	-2.937381e+01	-1.296251e+03
2.900000e-06	-4.167112e-06	-1.999231e-08	-2.994275e+01	-1.309103e+03
2.910000e-06	-4.244467e-06	-2.017723e-08	-3.049858e+01	-1.321317e+03
2.920000e-06	-4.320096e-06	-2.035324e-08	-3.104201e+01	-1.332936e+03
2.930000e-06	-4.394166e-06	-2.052121e-08	-3.157424e+01	-1.344000e+03
2.940000e-06	-4.466732e-06	-2.068224e-08	-3.209566e+01	-1.354546e+03
