# Temperatura_=_37.91
# Concentracion g/m^3_=_28200.0
# C_Vs_to_Am_M_A/Vsm_=_65563218390.804596
# pendiente_HvsI_1/m_=_3716.3
# ordenada_HvsI_A/m_=_1297.0
# frecuencia_Hz_=_301921.4083866467

Tiempo_(s)	Campo_(V.s)	Magnetizacion_(V.s)	Campo_(kA/m)	Magnetizacion_(A/m)
0.000000e+00	-5.842590e-06	-2.091024e-08	-4.194581e+01	-1.369944e+03
1.000000e-08	-5.840473e-06	-2.091008e-08	-4.193061e+01	-1.369675e+03
2.000000e-08	-5.836364e-06	-2.090286e-08	-4.190110e+01	-1.369269e+03
3.000000e-08	-5.830474e-06	-2.089434e-08	-4.185882e+01	-1.368720e+03
4.000000e-08	-5.822837e-06	-2.088675e-08	-4.180400e+01	-1.368023e+03
5.000000e-08	-5.813216e-06	-2.087282e-08	-4.173492e+01	-1.367172e+03
6.000000e-08	-5.801324e-06	-2.085282e-08	-4.164955e+01	-1.366161e+03
7.000000e-08	-5.787272e-06	-2.081980e-08	-4.154866e+01	-1.364990e+03
8.000000e-08	-5.770972e-06	-2.078716e-08	-4.143164e+01	-1.363663e+03
9.000000e-08	-5.752498e-06	-2.084146e-08	-4.129900e+01	-1.362187e+03
1.000000e-07	-5.731984e-06	-2.086111e-08	-4.115173e+01	-1.360574e+03
1.100000e-07	-5.709310e-06	-2.076348e-08	-4.098894e+01	-1.358834e+03
1.200000e-07	-5.684396e-06	-2.072269e-08	-4.081008e+01	-1.356979e+03
1.300000e-07	-5.657449e-06	-2.067543e-08	-4.061662e+01	-1.355015e+03
1.400000e-07	-5.629036e-06	-2.050142e-08	-4.041264e+01	-1.352940e+03
1.500000e-07	-5.599227e-06	-2.060911e-08	-4.019862e+01	-1.350746e+03
1.600000e-07	-5.567686e-06	-2.067094e-08	-3.997218e+01	-1.348418e+03
1.700000e-07	-5.534386e-06	-2.044788e-08	-3.973311e+01	-1.345936e+03
1.800000e-07	-5.499181e-06	-2.057900e-08	-3.948036e+01	-1.343277e+03
1.900000e-07	-5.461888e-06	-2.051721e-08	-3.921262e+01	-1.340420e+03
2.000000e-07	-5.422705e-06	-2.031206e-08	-3.893132e+01	-1.337351e+03
2.100000e-07	-5.381618e-06	-2.041913e-08	-3.863634e+01	-1.334064e+03
2.200000e-07	-5.338419e-06	-2.031783e-08	-3.832620e+01	-1.330560e+03
2.300000e-07	-5.293208e-06	-2.021506e-08	-3.800162e+01	-1.326852e+03
2.400000e-07	-5.245992e-06	-2.021110e-08	-3.766264e+01	-1.322953e+03
2.500000e-07	-5.196522e-06	-2.011417e-08	-3.730748e+01	-1.318882e+03
2.600000e-07	-5.144674e-06	-2.009190e-08	-3.693524e+01	-1.314651e+03
2.700000e-07	-5.090663e-06	-2.000548e-08	-3.654749e+01	-1.310265e+03
2.800000e-07	-5.034915e-06	-1.990963e-08	-3.614725e+01	-1.305720e+03
2.900000e-07	-4.977335e-06	-1.983573e-08	-3.573387e+01	-1.301002e+03
3.000000e-07	-4.917767e-06	-1.975007e-08	-3.530621e+01	-1.296086e+03
3.100000e-07	-4.856451e-06	-1.970870e-08	-3.486600e+01	-1.290948e+03
3.200000e-07	-4.793413e-06	-1.962804e-08	-3.441343e+01	-1.285560e+03
3.300000e-07	-4.728545e-06	-1.954976e-08	-3.394772e+01	-1.279902e+03
3.400000e-07	-4.661841e-06	-1.943039e-08	-3.346884e+01	-1.273961e+03
3.500000e-07	-4.593435e-06	-1.931595e-08	-3.297773e+01	-1.267731e+03
3.600000e-07	-4.523402e-06	-1.923547e-08	-3.247494e+01	-1.261216e+03
3.700000e-07	-4.451883e-06	-1.912640e-08	-3.196148e+01	-1.254423e+03
3.800000e-07	-4.378812e-06	-1.905353e-08	-3.143688e+01	-1.247361e+03
3.900000e-07	-4.303798e-06	-1.893549e-08	-3.089833e+01	-1.240035e+03
4.000000e-07	-4.226949e-06	-1.878521e-08	-3.034661e+01	-1.232441e+03
4.100000e-07	-4.148503e-06	-1.866366e-08	-2.978341e+01	-1.224570e+03
4.200000e-07	-4.068348e-06	-1.853968e-08	-2.920796e+01	-1.216406e+03
4.300000e-07	-3.986730e-06	-1.842282e-08	-2.862200e+01	-1.207927e+03
4.400000e-07	-3.903929e-06	-1.828218e-08	-2.802754e+01	-1.199111e+03
4.500000e-07	-3.819964e-06	-1.814923e-08	-2.742473e+01	-1.189939e+03
4.600000e-07	-3.734788e-06	-1.799682e-08	-2.681323e+01	-1.180393e+03
4.700000e-07	-3.648354e-06	-1.783870e-08	-2.619269e+01	-1.170461e+03
4.800000e-07	-3.560794e-06	-1.769134e-08	-2.556407e+01	-1.160133e+03
4.900000e-07	-3.471990e-06	-1.752872e-08	-2.492652e+01	-1.149396e+03
5.000000e-07	-3.381668e-06	-1.735743e-08	-2.427806e+01	-1.138237e+03
5.100000e-07	-3.289959e-06	-1.717068e-08	-2.361966e+01	-1.126634e+03
5.200000e-07	-3.197157e-06	-1.698429e-08	-2.295340e+01	-1.114560e+03
5.300000e-07	-3.103301e-06	-1.678512e-08	-2.227958e+01	-1.101980e+03
5.400000e-07	-3.008359e-06	-1.658284e-08	-2.159796e+01	-1.088854e+03
5.500000e-07	-2.912387e-06	-1.637498e-08	-2.090895e+01	-1.075142e+03
5.600000e-07	-2.815285e-06	-1.615704e-08	-2.021182e+01	-1.060806e+03
5.700000e-07	-2.716897e-06	-1.592879e-08	-1.950546e+01	-1.045810e+03
5.800000e-07	-2.617372e-06	-1.568920e-08	-1.879094e+01	-1.030122e+03
5.900000e-07	-2.516963e-06	-1.543870e-08	-1.807008e+01	-1.013713e+03
6.000000e-07	-2.415686e-06	-1.517081e-08	-1.734298e+01	-9.965502e+02
6.100000e-07	-2.313469e-06	-1.489325e-08	-1.660912e+01	-9.785980e+02
6.200000e-07	-2.210418e-06	-1.460686e-08	-1.586929e+01	-9.598104e+02
6.300000e-07	-2.106660e-06	-1.431069e-08	-1.512438e+01	-9.401304e+02
6.400000e-07	-2.002243e-06	-1.399730e-08	-1.437473e+01	-9.194898e+02
6.500000e-07	-1.897038e-06	-1.366564e-08	-1.361943e+01	-8.978103e+02
6.600000e-07	-1.790909e-06	-1.331232e-08	-1.285750e+01	-8.750065e+02
6.700000e-07	-1.683980e-06	-1.293697e-08	-1.208983e+01	-8.509886e+02
6.800000e-07	-1.576461e-06	-1.254718e-08	-1.131791e+01	-8.256652e+02
6.900000e-07	-1.468456e-06	-1.214045e-08	-1.054251e+01	-7.989441e+02
7.000000e-07	-1.360035e-06	-1.171282e-08	-9.764122e+00	-7.707333e+02
7.100000e-07	-1.251189e-06	-1.125892e-08	-8.982683e+00	-7.409416e+02
7.200000e-07	-1.141967e-06	-1.077815e-08	-8.198540e+00	-7.094806e+02
7.300000e-07	-1.032462e-06	-1.026930e-08	-7.412373e+00	-6.762700e+02
7.400000e-07	-9.226119e-07	-9.734753e-09	-6.623723e+00	-6.412465e+02
7.500000e-07	-8.124282e-07	-9.174750e-09	-5.832680e+00	-6.043758e+02
7.600000e-07	-7.019973e-07	-8.585862e-09	-5.039861e+00	-5.656680e+02
7.700000e-07	-5.913188e-07	-7.964609e-09	-4.245265e+00	-5.251910e+02
7.800000e-07	-4.804254e-07	-7.315991e-09	-3.449127e+00	-4.830803e+02
7.900000e-07	-3.693904e-07	-6.651031e-09	-2.651971e+00	-4.395408e+02
8.000000e-07	-2.582820e-07	-5.972209e-09	-1.854288e+00	-3.948376e+02
8.100000e-07	-1.470653e-07	-5.282594e-09	-1.055829e+00	-3.492752e+02
8.200000e-07	-3.570403e-08	-4.585440e-09	-2.563306e-01	-3.031669e+02
8.300000e-07	7.568743e-08	-3.882996e-09	5.433841e-01	-2.567967e+02
8.400000e-07	1.870328e-07	-3.176712e-09	1.342768e+00	-2.103825e+02
8.500000e-07	2.983303e-07	-2.470362e-09	2.141808e+00	-1.640438e+02
8.600000e-07	4.095479e-07	-1.764536e-09	2.940274e+00	-1.177848e+02
8.700000e-07	5.206638e-07	-1.057247e-09	3.738010e+00	-7.149330e+01
8.800000e-07	6.316645e-07	-3.465813e-10	4.534920e+00	-2.496097e+01
8.900000e-07	7.425232e-07	3.690677e-10	5.330809e+00	2.207935e+01
9.000000e-07	8.531711e-07	1.095548e-09	6.125186e+00	6.990313e+01
9.100000e-07	9.635251e-07	1.839826e-09	6.917452e+00	1.187389e+02
9.200000e-07	1.073536e-06	2.600526e-09	7.707255e+00	1.687172e+02
9.300000e-07	1.183122e-06	3.378341e-09	8.494009e+00	2.198327e+02
9.400000e-07	1.292298e-06	4.173327e-09	9.277813e+00	2.719249e+02
9.500000e-07	1.401068e-06	4.979736e-09	1.005871e+01	3.246826e+02
9.600000e-07	1.509393e-06	5.789019e-09	1.083641e+01	3.776692e+02
9.700000e-07	1.617293e-06	6.594693e-09	1.161106e+01	4.303655e+02
9.800000e-07	1.724689e-06	7.387966e-09	1.238209e+01	4.822221e+02
9.900000e-07	1.831482e-06	8.155203e-09	1.314879e+01	5.327137e+02
1.000000e-06	1.937443e-06	8.889870e-09	1.390952e+01	5.813860e+02
1.010000e-06	2.042385e-06	9.590648e-09	1.466293e+01	6.278890e+02
1.020000e-06	2.146447e-06	1.025800e-08	1.541002e+01	6.719942e+02
1.030000e-06	2.249747e-06	1.088856e-08	1.615164e+01	7.135934e+02
1.040000e-06	2.352240e-06	1.148125e-08	1.688748e+01	7.526846e+02
1.050000e-06	2.453894e-06	1.203833e-08	1.761728e+01	7.893469e+02
1.060000e-06	2.554693e-06	1.256051e-08	1.834095e+01	8.237123e+02
1.070000e-06	2.654719e-06	1.304731e-08	1.905907e+01	8.559385e+02
1.080000e-06	2.753979e-06	1.350506e-08	1.977169e+01	8.861876e+02
1.090000e-06	2.852094e-06	1.393739e-08	2.047608e+01	9.146118e+02
1.100000e-06	2.948832e-06	1.434381e-08	2.117060e+01	9.413471e+02
1.110000e-06	3.044464e-06	1.472588e-08	2.185718e+01	9.665130e+02
1.120000e-06	3.139144e-06	1.508711e-08	2.253691e+01	9.902163e+02
1.130000e-06	3.232765e-06	1.542877e-08	2.320904e+01	1.012555e+03
1.140000e-06	3.325330e-06	1.575026e-08	2.387360e+01	1.033624e+03
1.150000e-06	3.416942e-06	1.605151e-08	2.453131e+01	1.053512e+03
1.160000e-06	3.507364e-06	1.633482e-08	2.518048e+01	1.072308e+03
1.170000e-06	3.596247e-06	1.660550e-08	2.581860e+01	1.090093e+03
1.180000e-06	3.683780e-06	1.686355e-08	2.644702e+01	1.106940e+03
1.190000e-06	3.770155e-06	1.710865e-08	2.706714e+01	1.122916e+03
1.200000e-06	3.855313e-06	1.733929e-08	2.767851e+01	1.138074e+03
1.210000e-06	3.939236e-06	1.755335e-08	2.828102e+01	1.152462e+03
1.220000e-06	4.021822e-06	1.775519e-08	2.887394e+01	1.166122e+03
1.230000e-06	4.102874e-06	1.795036e-08	2.945583e+01	1.179093e+03
1.240000e-06	4.182405e-06	1.813826e-08	3.002681e+01	1.191412e+03
1.250000e-06	4.260488e-06	1.831850e-08	3.058739e+01	1.203118e+03
1.260000e-06	4.337013e-06	1.848890e-08	3.113679e+01	1.214247e+03
1.270000e-06	4.411816e-06	1.865041e-08	3.167383e+01	1.224833e+03
1.280000e-06	4.484727e-06	1.880461e-08	3.219727e+01	1.234902e+03
1.290000e-06	4.555875e-06	1.895181e-08	3.270807e+01	1.244477e+03
1.300000e-06	4.625395e-06	1.909077e-08	3.320718e+01	1.253570e+03
1.310000e-06	4.693394e-06	1.922351e-08	3.369536e+01	1.262189e+03
1.320000e-06	4.759765e-06	1.934863e-08	3.417186e+01	1.270341e+03
1.330000e-06	4.824258e-06	1.946637e-08	3.463488e+01	1.278031e+03
1.340000e-06	4.887008e-06	1.957634e-08	3.508538e+01	1.285271e+03
1.350000e-06	4.948170e-06	1.967886e-08	3.552448e+01	1.292080e+03
1.360000e-06	5.007770e-06	1.977665e-08	3.595237e+01	1.298486e+03
1.370000e-06	5.065525e-06	1.986901e-08	3.636701e+01	1.304523e+03
1.380000e-06	5.121294e-06	1.995628e-08	3.676740e+01	1.310231e+03
1.390000e-06	5.175216e-06	2.003716e-08	3.715452e+01	1.315648e+03
1.400000e-06	5.227125e-06	2.011455e-08	3.752718e+01	1.320804e+03
1.410000e-06	5.276779e-06	2.019038e-08	3.788367e+01	1.325724e+03
1.420000e-06	5.324333e-06	2.026386e-08	3.822507e+01	1.330420e+03
1.430000e-06	5.370061e-06	2.033397e-08	3.855337e+01	1.334893e+03
1.440000e-06	5.414128e-06	2.039887e-08	3.886974e+01	1.339136e+03
1.450000e-06	5.456296e-06	2.045917e-08	3.917248e+01	1.343138e+03
1.460000e-06	5.496344e-06	2.051628e-08	3.946000e+01	1.346886e+03
1.470000e-06	5.534488e-06	2.056957e-08	3.973385e+01	1.350373e+03
1.480000e-06	5.570879e-06	2.061808e-08	3.999511e+01	1.353597e+03
1.490000e-06	5.605304e-06	2.066138e-08	4.024225e+01	1.356562e+03
1.500000e-06	5.637597e-06	2.070098e-08	4.047410e+01	1.359279e+03
1.510000e-06	5.667918e-06	2.073915e-08	4.069178e+01	1.361762e+03
1.520000e-06	5.696410e-06	2.077492e-08	4.089633e+01	1.364030e+03
1.530000e-06	5.722921e-06	2.080707e-08	4.108667e+01	1.366095e+03
1.540000e-06	5.747152e-06	2.083506e-08	4.126063e+01	1.367968e+03
1.550000e-06	5.769228e-06	2.085837e-08	4.141911e+01	1.369656e+03
1.560000e-06	5.789448e-06	2.087897e-08	4.156428e+01	1.371160e+03
1.570000e-06	5.807711e-06	2.089793e-08	4.169540e+01	1.372480e+03
1.580000e-06	5.823759e-06	2.091418e-08	4.181061e+01	1.373615e+03
1.590000e-06	5.837622e-06	2.092803e-08	4.191014e+01	1.374562e+03
1.600000e-06	5.849282e-06	2.094068e-08	4.199385e+01	1.375325e+03
1.610000e-06	5.858542e-06	2.095199e-08	4.206033e+01	1.375907e+03
1.620000e-06	5.865561e-06	2.096039e-08	4.211072e+01	1.376318e+03
1.630000e-06	5.870659e-06	2.096541e-08	4.214732e+01	1.376566e+03
1.640000e-06	5.873785e-06	2.096836e-08	4.216977e+01	1.376662e+03
1.650000e-06	5.874695e-06	2.097051e-08	4.217630e+01	1.376614e+03
1.660000e-06	5.873493e-06	2.096449e-08	4.216767e+01	1.376427e+03
1.670000e-06	5.870496e-06	2.095279e-08	4.214615e+01	1.376104e+03
1.680000e-06	5.865662e-06	2.094960e-08	4.211145e+01	1.375641e+03
1.690000e-06	5.858745e-06	2.094412e-08	4.206179e+01	1.375034e+03
1.700000e-06	5.849833e-06	2.093398e-08	4.199781e+01	1.374276e+03
1.710000e-06	5.839200e-06	2.092457e-08	4.192147e+01	1.373362e+03
1.720000e-06	5.826616e-06	2.092376e-08	4.183112e+01	1.372287e+03
1.730000e-06	5.811868e-06	2.092648e-08	4.172524e+01	1.371054e+03
1.740000e-06	5.795222e-06	2.080858e-08	4.160573e+01	1.369666e+03
1.750000e-06	5.776363e-06	2.074326e-08	4.147034e+01	1.368134e+03
1.760000e-06	5.754574e-06	2.079851e-08	4.131391e+01	1.366469e+03
1.770000e-06	5.730113e-06	2.076328e-08	4.113830e+01	1.364682e+03
1.780000e-06	5.703776e-06	2.083359e-08	4.094921e+01	1.362782e+03
1.790000e-06	5.676318e-06	2.085971e-08	4.075208e+01	1.360774e+03
1.800000e-06	5.647924e-06	2.058227e-08	4.054823e+01	1.358653e+03
1.810000e-06	5.617403e-06	2.067995e-08	4.032911e+01	1.356408e+03
1.820000e-06	5.584520e-06	2.068629e-08	4.009304e+01	1.354021e+03
1.830000e-06	5.550062e-06	2.046559e-08	3.984566e+01	1.351471e+03
1.840000e-06	5.513573e-06	2.069024e-08	3.958369e+01	1.348736e+03
1.850000e-06	5.474845e-06	2.054279e-08	3.930564e+01	1.345796e+03
1.860000e-06	5.434200e-06	2.036233e-08	3.901384e+01	1.342641e+03
1.870000e-06	5.391604e-06	2.050078e-08	3.870804e+01	1.339267e+03
1.880000e-06	5.347425e-06	2.030993e-08	3.839086e+01	1.335680e+03
1.890000e-06	5.301368e-06	2.032399e-08	3.806020e+01	1.331894e+03
1.900000e-06	5.253019e-06	2.025741e-08	3.771309e+01	1.327925e+03
1.910000e-06	5.202658e-06	2.007049e-08	3.735153e+01	1.323789e+03
1.920000e-06	5.150016e-06	2.020989e-08	3.697359e+01	1.319496e+03
1.930000e-06	5.095264e-06	2.005661e-08	3.658052e+01	1.315048e+03
1.940000e-06	5.038761e-06	2.000530e-08	3.617486e+01	1.310436e+03
1.950000e-06	4.980397e-06	1.994507e-08	3.575585e+01	1.305643e+03
1.960000e-06	4.920309e-06	1.978948e-08	3.532446e+01	1.300642e+03
1.970000e-06	4.858278e-06	1.979112e-08	3.487912e+01	1.295408e+03
1.980000e-06	4.794326e-06	1.960568e-08	3.441998e+01	1.289915e+03
1.990000e-06	4.728719e-06	1.959520e-08	3.394897e+01	1.284146e+03
2.000000e-06	4.661538e-06	1.954405e-08	3.346666e+01	1.278090e+03
2.010000e-06	4.592753e-06	1.939989e-08	3.297283e+01	1.271747e+03
2.020000e-06	4.522045e-06	1.931597e-08	3.246519e+01	1.265121e+03
2.030000e-06	4.449631e-06	1.912706e-08	3.194531e+01	1.258221e+03
2.040000e-06	4.375670e-06	1.910134e-08	3.141432e+01	1.251054e+03
2.050000e-06	4.300075e-06	1.898889e-08	3.087160e+01	1.243622e+03
2.060000e-06	4.222734e-06	1.886515e-08	3.031634e+01	1.235920e+03
2.070000e-06	4.143647e-06	1.876626e-08	2.974855e+01	1.227935e+03
2.080000e-06	4.063114e-06	1.860256e-08	2.917038e+01	1.219649e+03
2.090000e-06	3.981155e-06	1.848753e-08	2.858197e+01	1.211040e+03
2.100000e-06	3.897892e-06	1.831876e-08	2.798420e+01	1.202086e+03
2.110000e-06	3.813428e-06	1.821184e-08	2.737781e+01	1.192767e+03
2.120000e-06	3.727512e-06	1.806600e-08	2.676099e+01	1.183070e+03
2.130000e-06	3.640123e-06	1.790604e-08	2.613360e+01	1.172983e+03
2.140000e-06	3.551437e-06	1.774890e-08	2.549689e+01	1.162494e+03
2.150000e-06	3.461516e-06	1.756993e-08	2.485132e+01	1.151593e+03
2.160000e-06	3.370421e-06	1.741269e-08	2.419732e+01	1.140261e+03
2.170000e-06	3.278271e-06	1.723010e-08	2.353575e+01	1.128476e+03
2.180000e-06	3.184908e-06	1.705544e-08	2.286547e+01	1.116207e+03
2.190000e-06	3.090204e-06	1.685325e-08	2.218555e+01	1.103416e+03
2.200000e-06	2.994330e-06	1.665369e-08	2.149725e+01	1.090064e+03
2.210000e-06	2.897417e-06	1.644282e-08	2.080147e+01	1.076111e+03
2.220000e-06	2.799460e-06	1.622042e-08	2.009821e+01	1.061519e+03
2.230000e-06	2.700521e-06	1.599085e-08	1.938790e+01	1.046253e+03
2.240000e-06	2.600723e-06	1.574656e-08	1.867141e+01	1.030285e+03
2.250000e-06	2.500112e-06	1.550013e-08	1.794910e+01	1.013583e+03
2.260000e-06	2.398549e-06	1.523012e-08	1.721995e+01	9.961138e+02
2.270000e-06	2.295879e-06	1.494832e-08	1.648284e+01	9.778386e+02
2.280000e-06	2.192160e-06	1.465411e-08	1.573821e+01	9.587069e+02
2.290000e-06	2.087584e-06	1.435365e-08	1.498742e+01	9.386574e+02
2.300000e-06	1.982296e-06	1.403394e-08	1.423153e+01	9.176176e+02
2.310000e-06	1.876387e-06	1.370153e-08	1.347118e+01	8.955060e+02
2.320000e-06	1.769923e-06	1.335394e-08	1.270684e+01	8.722352e+02
2.330000e-06	1.662898e-06	1.298232e-08	1.193847e+01	8.477145e+02
2.340000e-06	1.555394e-06	1.258488e-08	1.116667e+01	8.218521e+02
2.350000e-06	1.447490e-06	1.216337e-08	1.039199e+01	7.945558e+02
2.360000e-06	1.339201e-06	1.172806e-08	9.614552e+00	7.657339e+02
2.370000e-06	1.230545e-06	1.127146e-08	8.834470e+00	7.352957e+02
2.380000e-06	1.121521e-06	1.078729e-08	8.051758e+00	7.031554e+02
2.390000e-06	1.012102e-06	1.026769e-08	7.266198e+00	6.692380e+02
2.400000e-06	9.022848e-07	9.716863e-09	6.477788e+00	6.334898e+02
2.410000e-06	7.921530e-07	9.138105e-09	5.687118e+00	5.958925e+02
2.420000e-06	6.817228e-07	8.536562e-09	4.894304e+00	5.564770e+02
2.430000e-06	5.710247e-07	7.914241e-09	4.099567e+00	5.153373e+02
2.440000e-06	4.602314e-07	7.268903e-09	3.304147e+00	4.726363e+02
2.450000e-06	3.493093e-07	6.599889e-09	2.507802e+00	4.286043e+02
2.460000e-06	2.382382e-07	5.907120e-09	1.710387e+00	3.835251e+02
2.470000e-06	1.270688e-07	5.200886e-09	9.122670e-01	3.377108e+02
2.480000e-06	1.578623e-08	4.491394e-09	1.133343e-01	2.914677e+02
2.490000e-06	-9.552825e-08	3.782464e-09	-6.858276e-01	2.450582e+02
2.500000e-06	-2.067471e-07	3.073050e-09	-1.484303e+00	1.986647e+02
2.510000e-06	-3.178548e-07	2.364448e-09	-2.281980e+00	1.523626e+02
2.520000e-06	-4.289036e-07	1.657647e-09	-3.079235e+00	1.061093e+02
2.530000e-06	-5.397730e-07	9.497102e-10	-3.875201e+00	5.975138e+01
2.540000e-06	-6.504340e-07	2.370032e-10	-4.669672e+00	1.305213e+01
2.550000e-06	-7.608659e-07	-4.851897e-10	-5.462497e+00	-3.426537e+01
2.560000e-06	-8.709888e-07	-1.219389e-09	-6.253105e+00	-8.246473e+01
2.570000e-06	-9.807746e-07	-1.969512e-09	-7.041292e+00	-1.317415e+02
2.580000e-06	-1.090199e-06	-2.739157e-09	-7.826887e+00	-1.821765e+02
2.590000e-06	-1.199230e-06	-3.526468e-09	-8.609652e+00	-2.337044e+02
2.600000e-06	-1.307800e-06	-4.327864e-09	-9.389113e+00	-2.861038e+02
2.610000e-06	-1.415932e-06	-5.135741e-09	-1.016542e+01	-3.390101e+02
2.620000e-06	-1.523677e-06	-5.942546e-09	-1.093896e+01	-3.919483e+02
2.630000e-06	-1.631017e-06	-6.741510e-09	-1.170959e+01	-4.443809e+02
2.640000e-06	-1.737794e-06	-7.525568e-09	-1.247617e+01	-4.957618e+02
2.650000e-06	-1.843903e-06	-8.287258e-09	-1.323796e+01	-5.455885e+02
2.660000e-06	-1.949355e-06	-9.021018e-09	-1.399504e+01	-5.934447e+02
2.670000e-06	-2.054067e-06	-9.723646e-09	-1.474680e+01	-6.390270e+02
2.680000e-06	-2.158058e-06	-1.038838e-08	-1.549338e+01	-6.821551e+02
2.690000e-06	-2.261307e-06	-1.101167e-08	-1.623464e+01	-7.227651e+02
2.700000e-06	-2.363573e-06	-1.159687e-08	-1.696884e+01	-7.608900e+02
2.710000e-06	-2.464683e-06	-1.214861e-08	-1.769474e+01	-7.966330e+02
2.720000e-06	-2.564780e-06	-1.266451e-08	-1.841337e+01	-8.301395e+02
2.730000e-06	-2.664063e-06	-1.314468e-08	-1.912615e+01	-8.615708e+02
2.740000e-06	-2.762469e-06	-1.359511e-08	-1.983264e+01	-8.910866e+02
2.750000e-06	-2.859971e-06	-1.401887e-08	-2.053264e+01	-9.188329e+02
2.760000e-06	-2.956546e-06	-1.441847e-08	-2.122598e+01	-9.449391e+02
2.770000e-06	-3.052193e-06	-1.479626e-08	-2.191266e+01	-9.695191e+02
2.780000e-06	-3.146844e-06	-1.515180e-08	-2.259219e+01	-9.926759e+02
2.790000e-06	-3.240215e-06	-1.548633e-08	-2.326253e+01	-1.014506e+03
2.800000e-06	-3.332352e-06	-1.580186e-08	-2.392401e+01	-1.035101e+03
2.810000e-06	-3.423392e-06	-1.609966e-08	-2.457762e+01	-1.054551e+03
2.820000e-06	-3.513164e-06	-1.638083e-08	-2.522212e+01	-1.072941e+03
2.830000e-06	-3.601686e-06	-1.664529e-08	-2.585764e+01	-1.090350e+03
2.840000e-06	-3.689093e-06	-1.689599e-08	-2.648517e+01	-1.106849e+03
2.850000e-06	-3.775124e-06	-1.713593e-08	-2.710282e+01	-1.122498e+03
2.860000e-06	-3.859651e-06	-1.736585e-08	-2.770966e+01	-1.137349e+03
2.870000e-06	-3.942884e-06	-1.758664e-08	-2.830722e+01	-1.151447e+03
2.880000e-06	-4.024801e-06	-1.779672e-08	-2.889532e+01	-1.164832e+03
2.890000e-06	-4.105326e-06	-1.799390e-08	-2.947343e+01	-1.177544e+03
2.900000e-06	-4.184339e-06	-1.817734e-08	-3.004070e+01	-1.189619e+03
2.910000e-06	-4.261569e-06	-1.835018e-08	-3.059515e+01	-1.201095e+03
2.920000e-06	-4.337065e-06	-1.851526e-08	-3.113716e+01	-1.212007e+03
2.930000e-06	-4.410952e-06	-1.867203e-08	-3.166762e+01	-1.222388e+03
2.940000e-06	-4.483232e-06	-1.882114e-08	-3.218655e+01	-1.232262e+03
