# Temperatura_=_27.4
# Concentracion g/m^3_=_28200.0
# C_Vs_to_Am_M_A/Vsm_=_65563218390.804596
# pendiente_HvsI_1/m_=_3716.3
# ordenada_HvsI_A/m_=_1297.0
# frecuencia_Hz_=_301918.8604534212

Tiempo_(s)	Campo_(V.s)	Magnetizacion_(V.s)	Campo_(kA/m)	Magnetizacion_(A/m)
0.000000e+00	-5.853423e-06	-2.095948e-08	-4.194926e+01	-1.372890e+03
1.000000e-08	-5.851406e-06	-2.095996e-08	-4.193480e+01	-1.372604e+03
2.000000e-08	-5.847426e-06	-2.095479e-08	-4.190628e+01	-1.372182e+03
3.000000e-08	-5.841661e-06	-2.094466e-08	-4.186496e+01	-1.371621e+03
4.000000e-08	-5.834128e-06	-2.093375e-08	-4.181098e+01	-1.370914e+03
5.000000e-08	-5.824577e-06	-2.092008e-08	-4.174253e+01	-1.370049e+03
6.000000e-08	-5.812796e-06	-2.090222e-08	-4.165810e+01	-1.369020e+03
7.000000e-08	-5.798881e-06	-2.087308e-08	-4.155838e+01	-1.367822e+03
8.000000e-08	-5.782742e-06	-2.084206e-08	-4.144272e+01	-1.366459e+03
9.000000e-08	-5.764493e-06	-2.087698e-08	-4.131193e+01	-1.364943e+03
1.000000e-07	-5.744206e-06	-2.089520e-08	-4.116654e+01	-1.363290e+03
1.100000e-07	-5.721721e-06	-2.081766e-08	-4.100540e+01	-1.361520e+03
1.200000e-07	-5.697005e-06	-2.077195e-08	-4.082827e+01	-1.359650e+03
1.300000e-07	-5.670235e-06	-2.072877e-08	-4.063642e+01	-1.357694e+03
1.400000e-07	-5.641927e-06	-2.058306e-08	-4.043355e+01	-1.355652e+03
1.500000e-07	-5.612192e-06	-2.063575e-08	-4.022044e+01	-1.353516e+03
1.600000e-07	-5.580775e-06	-2.070203e-08	-3.999529e+01	-1.351266e+03
1.700000e-07	-5.547539e-06	-2.053145e-08	-3.975710e+01	-1.348876e+03
1.800000e-07	-5.512384e-06	-2.059525e-08	-3.950516e+01	-1.346315e+03
1.900000e-07	-5.475195e-06	-2.056415e-08	-3.923864e+01	-1.343555e+03
2.000000e-07	-5.436115e-06	-2.038298e-08	-3.895857e+01	-1.340576e+03
2.100000e-07	-5.395156e-06	-2.043288e-08	-3.866503e+01	-1.337365e+03
2.200000e-07	-5.352058e-06	-2.036686e-08	-3.835616e+01	-1.333923e+03
2.300000e-07	-5.306947e-06	-2.026407e-08	-3.803287e+01	-1.330258e+03
2.400000e-07	-5.259761e-06	-2.024609e-08	-3.769471e+01	-1.326385e+03
2.500000e-07	-5.210215e-06	-2.017034e-08	-3.733963e+01	-1.322321e+03
2.600000e-07	-5.158360e-06	-2.012871e-08	-3.696801e+01	-1.318078e+03
2.700000e-07	-5.104432e-06	-2.005442e-08	-3.658152e+01	-1.313663e+03
2.800000e-07	-5.048725e-06	-1.996884e-08	-3.618229e+01	-1.309072e+03
2.900000e-07	-4.991146e-06	-1.989270e-08	-3.576965e+01	-1.304294e+03
3.000000e-07	-4.931586e-06	-1.979896e-08	-3.534280e+01	-1.299312e+03
3.100000e-07	-4.870257e-06	-1.973822e-08	-3.490328e+01	-1.294105e+03
3.200000e-07	-4.807203e-06	-1.965903e-08	-3.445140e+01	-1.288654e+03
3.300000e-07	-4.742303e-06	-1.958208e-08	-3.398628e+01	-1.282944e+03
3.400000e-07	-4.675561e-06	-1.947603e-08	-3.350797e+01	-1.276966e+03
3.500000e-07	-4.607144e-06	-1.936450e-08	-3.301765e+01	-1.270717e+03
3.600000e-07	-4.537109e-06	-1.927751e-08	-3.251573e+01	-1.264199e+03
3.700000e-07	-4.465550e-06	-1.916776e-08	-3.200290e+01	-1.257413e+03
3.800000e-07	-4.392406e-06	-1.908034e-08	-3.147871e+01	-1.250360e+03
3.900000e-07	-4.317421e-06	-1.897164e-08	-3.094131e+01	-1.243036e+03
4.000000e-07	-4.240626e-06	-1.883500e-08	-3.039095e+01	-1.235430e+03
4.100000e-07	-4.162149e-06	-1.870759e-08	-2.982854e+01	-1.227528e+03
4.200000e-07	-4.081998e-06	-1.857936e-08	-2.925413e+01	-1.219311e+03
4.300000e-07	-4.000381e-06	-1.845723e-08	-2.866921e+01	-1.210759e+03
4.400000e-07	-3.917535e-06	-1.831835e-08	-2.807548e+01	-1.201855e+03
4.500000e-07	-3.833523e-06	-1.818228e-08	-2.747340e+01	-1.192583e+03
4.600000e-07	-3.748335e-06	-1.803239e-08	-2.686289e+01	-1.182934e+03
4.700000e-07	-3.661941e-06	-1.787112e-08	-2.624374e+01	-1.172898e+03
4.800000e-07	-3.574347e-06	-1.771330e-08	-2.561599e+01	-1.162469e+03
4.900000e-07	-3.485437e-06	-1.754632e-08	-2.497880e+01	-1.151635e+03
5.000000e-07	-3.395087e-06	-1.737434e-08	-2.433130e+01	-1.140382e+03
5.100000e-07	-3.303425e-06	-1.719334e-08	-2.367439e+01	-1.128686e+03
5.200000e-07	-3.210636e-06	-1.700812e-08	-2.300941e+01	-1.116517e+03
5.300000e-07	-3.116759e-06	-1.680866e-08	-2.233663e+01	-1.103837e+03
5.400000e-07	-3.021764e-06	-1.660221e-08	-2.165583e+01	-1.090608e+03
5.500000e-07	-2.925689e-06	-1.639093e-08	-2.096730e+01	-1.076787e+03
5.600000e-07	-2.828441e-06	-1.617069e-08	-2.027036e+01	-1.062336e+03
5.700000e-07	-2.729935e-06	-1.593924e-08	-1.956441e+01	-1.047221e+03
5.800000e-07	-2.630314e-06	-1.569596e-08	-1.885046e+01	-1.031410e+03
5.900000e-07	-2.529745e-06	-1.544333e-08	-1.812972e+01	-1.014873e+03
6.000000e-07	-2.428324e-06	-1.517627e-08	-1.740288e+01	-9.975778e+02
6.100000e-07	-2.326077e-06	-1.489736e-08	-1.667011e+01	-9.794885e+02
6.200000e-07	-2.222999e-06	-1.460902e-08	-1.593139e+01	-9.605602e+02
6.300000e-07	-2.119104e-06	-1.430873e-08	-1.518681e+01	-9.407378e+02
6.400000e-07	-2.014424e-06	-1.399220e-08	-1.443661e+01	-9.199557e+02
6.500000e-07	-1.908959e-06	-1.365746e-08	-1.368078e+01	-8.981386e+02
6.600000e-07	-1.802685e-06	-1.330387e-08	-1.291916e+01	-8.752036e+02
6.700000e-07	-1.695668e-06	-1.293039e-08	-1.215221e+01	-8.510628e+02
6.800000e-07	-1.588042e-06	-1.253907e-08	-1.138089e+01	-8.256248e+02
6.900000e-07	-1.479909e-06	-1.212916e-08	-1.060595e+01	-7.987972e+02
7.000000e-07	-1.371348e-06	-1.169903e-08	-9.827931e+00	-7.704877e+02
7.100000e-07	-1.262340e-06	-1.124394e-08	-9.046708e+00	-7.406062e+02
7.200000e-07	-1.152886e-06	-1.076089e-08	-8.262296e+00	-7.090683e+02
7.300000e-07	-1.043073e-06	-1.024992e-08	-7.475309e+00	-6.758016e+02
7.400000e-07	-9.330231e-07	-9.712318e-09	-6.686622e+00	-6.407543e+02
7.500000e-07	-8.227225e-07	-9.150946e-09	-5.896139e+00	-6.039072e+02
7.600000e-07	-7.121622e-07	-8.565832e-09	-5.103795e+00	-5.652861e+02
7.700000e-07	-6.013545e-07	-7.952610e-09	-4.309679e+00	-5.249733e+02
7.800000e-07	-4.903375e-07	-7.311473e-09	-3.514063e+00	-4.831152e+02
7.900000e-07	-3.791869e-07	-6.650746e-09	-2.717488e+00	-4.399219e+02
8.000000e-07	-2.678961e-07	-5.976257e-09	-1.919910e+00	-3.956584e+02
8.100000e-07	-1.564618e-07	-5.291599e-09	-1.121302e+00	-3.506249e+02
8.200000e-07	-4.489893e-08	-4.601568e-09	-3.217736e-01	-3.051288e+02
8.300000e-07	6.665978e-08	-3.909882e-09	4.777253e-01	-2.594509e+02
8.400000e-07	1.781742e-07	-3.217718e-09	1.276907e+00	-2.138110e+02
8.500000e-07	2.896609e-07	-2.527649e-09	2.075890e+00	-1.683385e+02
8.600000e-07	4.010671e-07	-1.839338e-09	2.874295e+00	-1.230541e+02
8.700000e-07	5.123782e-07	-1.151962e-09	3.672020e+00	-7.786661e+01
8.800000e-07	6.235395e-07	-4.638932e-10	4.468670e+00	-3.258689e+01
8.900000e-07	7.344940e-07	2.294796e-10	5.263839e+00	1.304127e+01
9.000000e-07	8.452161e-07	9.327633e-10	6.057342e+00	5.929792e+01
9.100000e-07	9.556481e-07	1.650232e-09	6.848767e+00	1.064370e+02
9.200000e-07	1.065793e-06	2.384428e-09	7.638130e+00	1.546376e+02
9.300000e-07	1.175643e-06	3.136184e-09	8.425383e+00	2.039638e+02
9.400000e-07	1.285126e-06	3.903617e-09	9.210007e+00	2.543401e+02
9.500000e-07	1.394160e-06	4.683375e-09	9.991416e+00	3.055459e+02
9.600000e-07	1.502717e-06	5.470959e-09	1.076940e+01	3.572293e+02
9.700000e-07	1.610835e-06	6.259658e-09	1.154424e+01	4.089395e+02
9.800000e-07	1.718452e-06	7.041325e-09	1.231549e+01	4.601703e+02
9.900000e-07	1.825427e-06	7.805547e-09	1.308214e+01	5.104090e+02
1.000000e-06	1.931614e-06	8.544924e-09	1.384314e+01	5.591839e+02
1.010000e-06	2.036884e-06	9.254972e-09	1.459757e+01	6.061016e+02
1.020000e-06	2.141268e-06	9.933326e-09	1.534565e+01	6.508722e+02
1.030000e-06	2.244888e-06	1.057751e-08	1.608826e+01	6.933186e+02
1.040000e-06	2.347707e-06	1.118513e-08	1.682512e+01	7.333711e+02
1.050000e-06	2.449656e-06	1.175611e-08	1.755576e+01	7.710511e+02
1.060000e-06	2.550713e-06	1.229334e-08	1.827999e+01	8.064472e+02
1.070000e-06	2.650978e-06	1.279658e-08	1.899855e+01	8.396895e+02
1.080000e-06	2.750462e-06	1.326840e-08	1.971151e+01	8.709262e+02
1.090000e-06	2.848878e-06	1.371383e-08	2.041683e+01	9.003055e+02
1.100000e-06	2.946008e-06	1.413465e-08	2.111292e+01	9.279643e+02
1.110000e-06	3.041923e-06	1.453217e-08	2.180031e+01	9.540243e+02
1.120000e-06	3.136788e-06	1.490754e-08	2.248017e+01	9.785923e+02
1.130000e-06	3.230615e-06	1.526155e-08	2.315259e+01	1.001764e+03
1.140000e-06	3.323397e-06	1.559398e-08	2.381752e+01	1.023629e+03
1.150000e-06	3.415212e-06	1.590634e-08	2.447553e+01	1.044274e+03
1.160000e-06	3.505937e-06	1.620125e-08	2.512572e+01	1.063783e+03
1.170000e-06	3.595263e-06	1.648215e-08	2.576588e+01	1.082239e+03
1.180000e-06	3.683105e-06	1.674876e-08	2.639541e+01	1.099721e+03
1.190000e-06	3.769664e-06	1.700124e-08	2.701575e+01	1.116298e+03
1.200000e-06	3.855077e-06	1.724034e-08	2.762787e+01	1.132034e+03
1.210000e-06	3.939290e-06	1.746626e-08	2.823140e+01	1.146981e+03
1.220000e-06	4.022222e-06	1.768100e-08	2.882574e+01	1.161184e+03
1.230000e-06	4.103672e-06	1.788579e-08	2.940946e+01	1.174680e+03
1.240000e-06	4.183475e-06	1.808084e-08	2.998138e+01	1.187506e+03
1.250000e-06	4.261660e-06	1.826710e-08	3.054170e+01	1.199692e+03
1.260000e-06	4.338356e-06	1.844322e-08	3.109135e+01	1.211274e+03
1.270000e-06	4.413504e-06	1.861065e-08	3.162991e+01	1.222283e+03
1.280000e-06	4.486772e-06	1.877084e-08	3.215499e+01	1.232751e+03
1.290000e-06	4.558189e-06	1.892443e-08	3.266681e+01	1.242705e+03
1.300000e-06	4.627989e-06	1.906941e-08	3.316704e+01	1.252166e+03
1.310000e-06	4.696265e-06	1.920658e-08	3.365635e+01	1.261151e+03
1.320000e-06	4.762924e-06	1.933772e-08	3.413407e+01	1.269668e+03
1.330000e-06	4.827674e-06	1.946261e-08	3.459810e+01	1.277723e+03
1.340000e-06	4.890614e-06	1.958010e-08	3.504917e+01	1.285322e+03
1.350000e-06	4.951948e-06	1.968834e-08	3.548873e+01	1.292474e+03
1.360000e-06	5.011710e-06	1.978979e-08	3.591702e+01	1.299193e+03
1.370000e-06	5.069727e-06	1.988625e-08	3.633281e+01	1.305502e+03
1.380000e-06	5.125762e-06	1.997792e-08	3.673439e+01	1.311434e+03
1.390000e-06	5.179936e-06	2.006202e-08	3.712263e+01	1.317025e+03
1.400000e-06	5.232208e-06	2.014023e-08	3.749724e+01	1.322313e+03
1.410000e-06	5.282236e-06	2.021651e-08	3.785577e+01	1.327335e+03
1.420000e-06	5.330053e-06	2.029088e-08	3.819846e+01	1.332119e+03
1.430000e-06	5.375989e-06	2.036243e-08	3.852767e+01	1.336680e+03
1.440000e-06	5.420256e-06	2.043038e-08	3.884492e+01	1.341026e+03
1.450000e-06	5.462672e-06	2.049403e-08	3.914889e+01	1.345149e+03
1.460000e-06	5.502984e-06	2.055320e-08	3.943779e+01	1.349038e+03
1.470000e-06	5.541333e-06	2.060737e-08	3.971263e+01	1.352676e+03
1.480000e-06	5.577898e-06	2.065622e-08	3.997467e+01	1.356049e+03
1.490000e-06	5.612576e-06	2.070012e-08	4.022320e+01	1.359150e+03
1.500000e-06	5.645134e-06	2.074149e-08	4.045653e+01	1.361978e+03
1.510000e-06	5.675641e-06	2.078138e-08	4.067516e+01	1.364543e+03
1.520000e-06	5.704281e-06	2.081796e-08	4.088042e+01	1.366861e+03
1.530000e-06	5.730951e-06	2.085059e-08	4.107155e+01	1.368952e+03
1.540000e-06	5.755420e-06	2.087886e-08	4.124690e+01	1.370834e+03
1.550000e-06	5.777760e-06	2.090403e-08	4.140701e+01	1.372525e+03
1.560000e-06	5.798188e-06	2.092687e-08	4.155341e+01	1.374035e+03
1.570000e-06	5.816606e-06	2.094648e-08	4.168540e+01	1.375369e+03
1.580000e-06	5.832892e-06	2.096225e-08	4.180212e+01	1.376525e+03
1.590000e-06	5.847022e-06	2.097541e-08	4.190338e+01	1.377501e+03
1.600000e-06	5.858881e-06	2.098768e-08	4.198837e+01	1.378291e+03
1.610000e-06	5.868354e-06	2.099866e-08	4.205626e+01	1.378897e+03
1.620000e-06	5.875558e-06	2.100781e-08	4.210789e+01	1.379320e+03
1.630000e-06	5.880765e-06	2.101457e-08	4.214521e+01	1.379570e+03
1.640000e-06	5.884013e-06	2.101793e-08	4.216849e+01	1.379657e+03
1.650000e-06	5.885104e-06	2.102059e-08	4.217630e+01	1.379593e+03
1.660000e-06	5.884100e-06	2.101656e-08	4.216911e+01	1.379388e+03
1.670000e-06	5.881267e-06	2.100496e-08	4.214881e+01	1.379047e+03
1.680000e-06	5.876528e-06	2.099744e-08	4.211484e+01	1.378571e+03
1.690000e-06	5.869705e-06	2.098895e-08	4.206595e+01	1.377953e+03
1.700000e-06	5.860949e-06	2.097758e-08	4.200319e+01	1.377184e+03
1.710000e-06	5.850457e-06	2.096673e-08	4.192800e+01	1.376254e+03
1.720000e-06	5.838048e-06	2.096199e-08	4.183907e+01	1.375158e+03
1.730000e-06	5.823507e-06	2.096057e-08	4.173486e+01	1.373893e+03
1.740000e-06	5.806975e-06	2.086933e-08	4.161638e+01	1.372467e+03
1.750000e-06	5.788258e-06	2.080068e-08	4.148225e+01	1.370894e+03
1.760000e-06	5.766698e-06	2.083387e-08	4.132773e+01	1.369192e+03
1.770000e-06	5.742390e-06	2.080897e-08	4.115353e+01	1.367380e+03
1.780000e-06	5.716080e-06	2.085352e-08	4.096497e+01	1.365474e+03
1.790000e-06	5.688560e-06	2.088754e-08	4.076774e+01	1.363483e+03
1.800000e-06	5.660134e-06	2.066634e-08	4.056403e+01	1.361405e+03
1.810000e-06	5.629770e-06	2.068676e-08	4.034642e+01	1.359226e+03
1.820000e-06	5.597015e-06	2.071222e-08	4.011168e+01	1.356924e+03
1.830000e-06	5.562589e-06	2.054299e-08	3.986496e+01	1.354469e+03
1.840000e-06	5.526246e-06	2.068640e-08	3.960450e+01	1.351832e+03
1.850000e-06	5.487669e-06	2.061118e-08	3.932803e+01	1.348987e+03
1.860000e-06	5.447110e-06	2.044147e-08	3.903737e+01	1.345917e+03
1.870000e-06	5.404644e-06	2.052434e-08	3.873303e+01	1.342614e+03
1.880000e-06	5.360610e-06	2.039099e-08	3.841746e+01	1.339082e+03
1.890000e-06	5.314757e-06	2.035463e-08	3.808885e+01	1.335332e+03
1.900000e-06	5.266592e-06	2.031143e-08	3.774366e+01	1.331381e+03
1.910000e-06	5.216355e-06	2.016437e-08	3.738363e+01	1.327245e+03
1.920000e-06	5.163928e-06	2.022027e-08	3.700791e+01	1.322933e+03
1.930000e-06	5.109341e-06	2.010281e-08	3.661670e+01	1.318449e+03
1.940000e-06	5.052852e-06	2.004594e-08	3.621187e+01	1.313785e+03
1.950000e-06	4.994508e-06	1.999435e-08	3.579374e+01	1.308928e+03
1.960000e-06	4.934463e-06	1.985859e-08	3.536342e+01	1.303859e+03
1.970000e-06	4.872560e-06	1.983173e-08	3.491978e+01	1.298557e+03
1.980000e-06	4.808720e-06	1.967597e-08	3.446227e+01	1.293005e+03
1.990000e-06	4.743101e-06	1.962516e-08	3.399200e+01	1.287189e+03
2.000000e-06	4.675921e-06	1.957044e-08	3.351055e+01	1.281105e+03
2.010000e-06	4.607136e-06	1.944328e-08	3.301759e+01	1.274749e+03
2.020000e-06	4.536411e-06	1.936032e-08	3.251073e+01	1.268124e+03
2.030000e-06	4.463905e-06	1.920049e-08	3.199111e+01	1.261233e+03
2.040000e-06	4.389835e-06	1.913479e-08	3.146028e+01	1.254073e+03
2.050000e-06	4.314122e-06	1.902784e-08	3.091767e+01	1.246638e+03
2.060000e-06	4.236685e-06	1.890698e-08	3.036271e+01	1.238917e+03
2.070000e-06	4.157539e-06	1.880375e-08	2.979550e+01	1.230893e+03
2.080000e-06	4.076914e-06	1.865179e-08	2.921769e+01	1.222546e+03
2.090000e-06	3.994929e-06	1.852456e-08	2.863014e+01	1.213856e+03
2.100000e-06	3.911675e-06	1.836398e-08	2.803349e+01	1.204808e+03
2.110000e-06	3.827116e-06	1.824137e-08	2.742748e+01	1.195388e+03
2.120000e-06	3.741145e-06	1.810162e-08	2.681136e+01	1.185587e+03
2.130000e-06	3.653793e-06	1.794789e-08	2.618534e+01	1.175397e+03
2.140000e-06	3.565143e-06	1.779089e-08	2.555003e+01	1.164809e+03
2.150000e-06	3.475265e-06	1.761289e-08	2.490590e+01	1.153812e+03
2.160000e-06	3.384211e-06	1.744568e-08	2.425335e+01	1.142387e+03
2.170000e-06	3.292041e-06	1.726308e-08	2.359280e+01	1.130508e+03
2.180000e-06	3.198650e-06	1.708160e-08	2.292351e+01	1.118142e+03
2.190000e-06	3.103923e-06	1.688269e-08	2.224463e+01	1.105250e+03
2.200000e-06	3.007976e-06	1.668096e-08	2.155702e+01	1.091792e+03
2.210000e-06	2.911016e-06	1.646734e-08	2.086215e+01	1.077728e+03
2.220000e-06	2.813044e-06	1.624269e-08	2.016001e+01	1.063019e+03
2.230000e-06	2.714043e-06	1.601294e-08	1.945052e+01	1.047633e+03
2.240000e-06	2.614124e-06	1.577178e-08	1.873443e+01	1.031539e+03
2.250000e-06	2.513347e-06	1.552285e-08	1.801220e+01	1.014707e+03
2.260000e-06	2.411606e-06	1.525323e-08	1.728306e+01	9.971041e+02
2.270000e-06	2.308759e-06	1.496783e-08	1.654600e+01	9.786901e+02
2.280000e-06	2.204868e-06	1.466944e-08	1.580145e+01	9.594167e+02
2.290000e-06	2.100185e-06	1.436337e-08	1.505123e+01	9.392247e+02
2.300000e-06	1.994823e-06	1.404177e-08	1.429614e+01	9.180444e+02
2.310000e-06	1.888798e-06	1.370786e-08	1.353630e+01	8.957974e+02
2.320000e-06	1.782211e-06	1.335828e-08	1.277243e+01	8.723985e+02
2.330000e-06	1.675100e-06	1.298625e-08	1.200480e+01	8.477580e+02
2.340000e-06	1.567469e-06	1.258878e-08	1.123346e+01	8.217842e+02
2.350000e-06	1.459350e-06	1.216811e-08	1.045860e+01	7.943844e+02
2.360000e-06	1.350827e-06	1.173018e-08	9.680867e+00	7.654669e+02
2.370000e-06	1.241996e-06	1.126963e-08	8.900914e+00	7.349433e+02
2.380000e-06	1.132829e-06	1.078236e-08	8.118555e+00	7.027330e+02
2.390000e-06	1.023329e-06	1.026309e-08	7.333813e+00	6.687704e+02
2.400000e-06	9.134949e-07	9.713821e-09	6.546671e+00	6.330152e+02
2.410000e-06	8.032980e-07	9.137107e-09	5.756932e+00	5.954642e+02
2.420000e-06	6.927366e-07	8.537779e-09	4.964580e+00	5.561642e+02
2.430000e-06	5.818905e-07	7.917506e-09	4.170188e+00	5.152223e+02
2.440000e-06	4.708961e-07	7.275278e-09	3.374734e+00	4.728103e+02
2.450000e-06	3.597223e-07	6.612114e-09	2.577993e+00	4.291616e+02
2.460000e-06	2.483541e-07	5.927696e-09	1.779859e+00	3.845577e+02
2.470000e-06	1.368675e-07	5.229798e-09	9.808773e-01	3.393054e+02
2.480000e-06	2.534127e-08	4.528407e-09	1.816112e-01	2.937061e+02
2.490000e-06	-8.620915e-08	3.828550e-09	-6.178282e-01	2.480204e+02
2.500000e-06	-1.977420e-07	3.132038e-09	-1.417142e+00	2.024356e+02
2.510000e-06	-3.091562e-07	2.438748e-09	-2.215605e+00	1.570399e+02
2.520000e-06	-4.204457e-07	1.747748e-09	-3.013174e+00	1.118094e+02
2.530000e-06	-5.315925e-07	1.054712e-09	-3.809721e+00	6.661180e+01
2.540000e-06	-6.425545e-07	3.574254e-10	-4.604944e+00	2.122717e+01
2.550000e-06	-7.532532e-07	-3.457106e-10	-5.398280e+00	-2.461579e+01
2.560000e-06	-8.636035e-07	-1.058018e-09	-6.189118e+00	-7.119292e+01
2.570000e-06	-9.736020e-07	-1.782285e-09	-6.977436e+00	-1.187342e+02
2.580000e-06	-1.083212e-06	-2.524622e-09	-7.762972e+00	-1.673777e+02
2.590000e-06	-1.192395e-06	-3.285633e-09	-8.545444e+00	-2.171346e+02
2.600000e-06	-1.301204e-06	-4.062287e-09	-9.325234e+00	-2.678719e+02
2.610000e-06	-1.409647e-06	-4.849017e-09	-1.010241e+01	-3.193145e+02
2.620000e-06	-1.517662e-06	-5.637745e-09	-1.087651e+01	-3.710674e+02
2.630000e-06	-1.625189e-06	-6.422784e-09	-1.164711e+01	-4.226520e+02
2.640000e-06	-1.732171e-06	-7.199024e-09	-1.241381e+01	-4.735539e+02
2.650000e-06	-1.838549e-06	-7.960462e-09	-1.317618e+01	-5.232711e+02
2.660000e-06	-1.944257e-06	-8.698852e-09	-1.393375e+01	-5.713589e+02
2.670000e-06	-2.049245e-06	-9.408800e-09	-1.468616e+01	-6.174625e+02
2.680000e-06	-2.153472e-06	-1.008372e-08	-1.543312e+01	-6.613359e+02
2.690000e-06	-2.256885e-06	-1.071872e-08	-1.617424e+01	-7.028456e+02
2.700000e-06	-2.359360e-06	-1.131509e-08	-1.690864e+01	-7.419602e+02
2.710000e-06	-2.460809e-06	-1.187846e-08	-1.763568e+01	-7.787305e+02
2.720000e-06	-2.561233e-06	-1.241104e-08	-1.835539e+01	-8.132644e+02
2.730000e-06	-2.660741e-06	-1.291058e-08	-1.906852e+01	-8.457018e+02
2.740000e-06	-2.759427e-06	-1.337925e-08	-1.977577e+01	-8.761925e+02
2.750000e-06	-2.857213e-06	-1.381780e-08	-2.047656e+01	-9.048814e+02
2.760000e-06	-2.954040e-06	-1.422969e-08	-2.117048e+01	-9.318994e+02
2.770000e-06	-3.049946e-06	-1.462055e-08	-2.185780e+01	-9.573622e+02
2.780000e-06	-3.144878e-06	-1.499008e-08	-2.253814e+01	-9.813717e+02
2.790000e-06	-3.238582e-06	-1.533662e-08	-2.320968e+01	-1.004021e+03
2.800000e-06	-3.330957e-06	-1.566148e-08	-2.387170e+01	-1.025397e+03
2.810000e-06	-3.422126e-06	-1.596930e-08	-2.452507e+01	-1.045587e+03
2.820000e-06	-3.512077e-06	-1.626183e-08	-2.516972e+01	-1.064674e+03
2.830000e-06	-3.600842e-06	-1.653788e-08	-2.580587e+01	-1.082739e+03
2.840000e-06	-3.688472e-06	-1.679933e-08	-2.643388e+01	-1.099858e+03
2.850000e-06	-3.774744e-06	-1.704850e-08	-2.705215e+01	-1.116099e+03
2.860000e-06	-3.859495e-06	-1.728682e-08	-2.765953e+01	-1.131520e+03
2.870000e-06	-3.942892e-06	-1.751370e-08	-2.825720e+01	-1.146171e+03
2.880000e-06	-4.024994e-06	-1.772882e-08	-2.884561e+01	-1.160093e+03
2.890000e-06	-4.105733e-06	-1.793232e-08	-2.942423e+01	-1.173323e+03
2.900000e-06	-4.184940e-06	-1.812285e-08	-2.999187e+01	-1.185894e+03
2.910000e-06	-4.262360e-06	-1.830253e-08	-3.054671e+01	-1.197840e+03
2.920000e-06	-4.338039e-06	-1.847329e-08	-3.108908e+01	-1.209194e+03
2.930000e-06	-4.412141e-06	-1.863654e-08	-3.162014e+01	-1.219988e+03
2.940000e-06	-4.484716e-06	-1.879356e-08	-3.214025e+01	-1.230252e+03
