# Temperatura_=_59.95
# Concentracion g/m^3_=_28200.0
# C_Vs_to_Am_M_A/Vsm_=_65563218390.804596
# pendiente_HvsI_1/m_=_3716.3
# ordenada_HvsI_A/m_=_1297.0
# frecuencia_Hz_=_301921.3829568546

Tiempo_(s)	Campo_(V.s)	Magnetizacion_(V.s)	Campo_(kA/m)	Magnetizacion_(A/m)
0.000000e+00	-5.880376e-06	-2.274565e-08	-4.195135e+01	-1.490516e+03
1.000000e-08	-5.878754e-06	-2.274516e-08	-4.193978e+01	-1.490216e+03
2.000000e-08	-5.875046e-06	-2.273910e-08	-4.191332e+01	-1.489759e+03
3.000000e-08	-5.869465e-06	-2.272690e-08	-4.187351e+01	-1.489144e+03
4.000000e-08	-5.862109e-06	-2.271564e-08	-4.182104e+01	-1.488369e+03
5.000000e-08	-5.852859e-06	-2.270031e-08	-4.175505e+01	-1.487433e+03
6.000000e-08	-5.841411e-06	-2.268090e-08	-4.167337e+01	-1.486334e+03
7.000000e-08	-5.827824e-06	-2.265541e-08	-4.157644e+01	-1.485072e+03
8.000000e-08	-5.812086e-06	-2.262111e-08	-4.146416e+01	-1.483650e+03
9.000000e-08	-5.794185e-06	-2.264674e-08	-4.133645e+01	-1.482072e+03
1.000000e-07	-5.774203e-06	-2.268902e-08	-4.119390e+01	-1.480344e+03
1.100000e-07	-5.751969e-06	-2.260877e-08	-4.103528e+01	-1.478473e+03
1.200000e-07	-5.727465e-06	-2.253653e-08	-4.086047e+01	-1.476467e+03
1.300000e-07	-5.700896e-06	-2.251453e-08	-4.067092e+01	-1.474331e+03
1.400000e-07	-5.672733e-06	-2.235541e-08	-4.047000e+01	-1.472064e+03
1.500000e-07	-5.643125e-06	-2.234791e-08	-4.025878e+01	-1.469664e+03
1.600000e-07	-5.611800e-06	-2.249876e-08	-4.003530e+01	-1.467121e+03
1.700000e-07	-5.578651e-06	-2.230523e-08	-3.979881e+01	-1.464419e+03
1.800000e-07	-5.543635e-06	-2.231422e-08	-3.954900e+01	-1.461540e+03
1.900000e-07	-5.506628e-06	-2.236970e-08	-3.928498e+01	-1.458466e+03
2.000000e-07	-5.467675e-06	-2.212709e-08	-3.900709e+01	-1.455181e+03
2.100000e-07	-5.426832e-06	-2.216399e-08	-3.871571e+01	-1.451674e+03
2.200000e-07	-5.383902e-06	-2.213663e-08	-3.840944e+01	-1.447939e+03
2.300000e-07	-5.338907e-06	-2.199184e-08	-3.808845e+01	-1.443980e+03
2.400000e-07	-5.291837e-06	-2.197631e-08	-3.775264e+01	-1.439803e+03
2.500000e-07	-5.242431e-06	-2.190425e-08	-3.740017e+01	-1.435419e+03
2.600000e-07	-5.190689e-06	-2.185532e-08	-3.703104e+01	-1.430838e+03
2.700000e-07	-5.136819e-06	-2.178566e-08	-3.664672e+01	-1.426063e+03
2.800000e-07	-5.081161e-06	-2.167117e-08	-3.624965e+01	-1.421093e+03
2.900000e-07	-5.023661e-06	-2.159508e-08	-3.583944e+01	-1.415919e+03
3.000000e-07	-4.964176e-06	-2.149187e-08	-3.541506e+01	-1.410525e+03
3.100000e-07	-4.902924e-06	-2.143642e-08	-3.497808e+01	-1.404892e+03
3.200000e-07	-4.839949e-06	-2.136024e-08	-3.452881e+01	-1.399002e+03
3.300000e-07	-4.775135e-06	-2.126597e-08	-3.406642e+01	-1.392837e+03
3.400000e-07	-4.708453e-06	-2.115798e-08	-3.359071e+01	-1.386387e+03
3.500000e-07	-4.640038e-06	-2.102151e-08	-3.310262e+01	-1.379648e+03
3.600000e-07	-4.569973e-06	-2.093078e-08	-3.260277e+01	-1.372620e+03
3.700000e-07	-4.498454e-06	-2.081713e-08	-3.209255e+01	-1.365307e+03
3.800000e-07	-4.425311e-06	-2.072628e-08	-3.157073e+01	-1.357710e+03
3.900000e-07	-4.350182e-06	-2.061423e-08	-3.103476e+01	-1.349827e+03
4.000000e-07	-4.273240e-06	-2.045656e-08	-3.048584e+01	-1.341651e+03
4.100000e-07	-4.194648e-06	-2.032133e-08	-2.992515e+01	-1.333168e+03
4.200000e-07	-4.114398e-06	-2.018708e-08	-2.935264e+01	-1.324357e+03
4.300000e-07	-4.032695e-06	-2.006069e-08	-2.876976e+01	-1.315199e+03
4.400000e-07	-3.949749e-06	-1.991241e-08	-2.817801e+01	-1.305674e+03
4.500000e-07	-3.865636e-06	-1.976391e-08	-2.757794e+01	-1.295766e+03
4.600000e-07	-3.780330e-06	-1.960567e-08	-2.696935e+01	-1.285464e+03
4.700000e-07	-3.693822e-06	-1.943155e-08	-2.635220e+01	-1.274761e+03
4.800000e-07	-3.606124e-06	-1.926509e-08	-2.572655e+01	-1.263650e+03
4.900000e-07	-3.517097e-06	-1.909092e-08	-2.509142e+01	-1.252123e+03
5.000000e-07	-3.426604e-06	-1.890873e-08	-2.444583e+01	-1.240163e+03
5.100000e-07	-3.334717e-06	-1.871479e-08	-2.379030e+01	-1.227746e+03
5.200000e-07	-3.241649e-06	-1.851836e-08	-2.312634e+01	-1.214835e+03
5.300000e-07	-3.147524e-06	-1.830948e-08	-2.245483e+01	-1.201390e+03
5.400000e-07	-3.052353e-06	-1.809114e-08	-2.177588e+01	-1.187364e+03
5.500000e-07	-2.956035e-06	-1.786516e-08	-2.108873e+01	-1.172713e+03
5.600000e-07	-2.858487e-06	-1.762926e-08	-2.039281e+01	-1.157398e+03
5.700000e-07	-2.759701e-06	-1.738546e-08	-1.968806e+01	-1.141386e+03
5.800000e-07	-2.659816e-06	-1.713195e-08	-1.897546e+01	-1.124652e+03
5.900000e-07	-2.559052e-06	-1.686569e-08	-1.825660e+01	-1.107172e+03
6.000000e-07	-2.457439e-06	-1.658290e-08	-1.753168e+01	-1.088921e+03
6.100000e-07	-2.354971e-06	-1.628701e-08	-1.680066e+01	-1.069862e+03
6.200000e-07	-2.251654e-06	-1.598249e-08	-1.606359e+01	-1.049948e+03
6.300000e-07	-2.147455e-06	-1.566647e-08	-1.532022e+01	-1.029112e+03
6.400000e-07	-2.042394e-06	-1.533574e-08	-1.457070e+01	-1.007274e+03
6.500000e-07	-1.936525e-06	-1.498740e-08	-1.381541e+01	-9.843391e+02
6.600000e-07	-1.829898e-06	-1.461549e-08	-1.305473e+01	-9.602069e+02
6.700000e-07	-1.722513e-06	-1.421854e-08	-1.228862e+01	-9.347737e+02
6.800000e-07	-1.614511e-06	-1.380277e-08	-1.151813e+01	-9.079378e+02
6.900000e-07	-1.506043e-06	-1.337275e-08	-1.074430e+01	-8.795999e+02
7.000000e-07	-1.397102e-06	-1.291986e-08	-9.967100e+00	-8.496623e+02
7.100000e-07	-1.287686e-06	-1.243727e-08	-9.186516e+00	-8.180263e+02
7.200000e-07	-1.177890e-06	-1.192448e-08	-8.403216e+00	-7.845906e+02
7.300000e-07	-1.067795e-06	-1.138156e-08	-7.617784e+00	-7.492534e+02
7.400000e-07	-9.574199e-07	-1.080978e-08	-6.830356e+00	-7.119194e+02
7.500000e-07	-8.467615e-07	-1.020895e-08	-6.040905e+00	-6.725133e+02
7.600000e-07	-7.357865e-07	-9.577126e-09	-5.249195e+00	-6.309978e+02
7.700000e-07	-6.245121e-07	-8.910366e-09	-4.455349e+00	-5.873928e+02
7.800000e-07	-5.130013e-07	-8.211617e-09	-3.659817e+00	-5.417925e+02
7.900000e-07	-4.012850e-07	-7.487196e-09	-2.862818e+00	-4.943736e+02
8.000000e-07	-2.893962e-07	-6.740680e-09	-2.064589e+00	-4.453915e+02
8.100000e-07	-1.773801e-07	-5.975640e-09	-1.265452e+00	-3.951620e+02
8.200000e-07	-6.528353e-08	-5.198182e-09	-4.657410e-01	-3.440289e+02
8.300000e-07	4.688174e-08	-4.413536e-09	3.344603e-01	-2.923218e+02
8.400000e-07	1.590618e-07	-3.622778e-09	1.134767e+00	-2.403111e+02
8.500000e-07	2.712230e-07	-2.826858e-09	1.934940e+00	-1.881688e+02
8.600000e-07	3.833177e-07	-2.026339e-09	2.734637e+00	-1.359424e+02
8.700000e-07	4.952206e-07	-1.223002e-09	3.532967e+00	-8.355048e+01
8.800000e-07	6.068855e-07	-4.154621e-10	4.329599e+00	-3.080134e+01
8.900000e-07	7.183119e-07	3.986471e-10	5.124529e+00	2.256651e+01
9.000000e-07	8.295051e-07	1.224514e-09	5.917795e+00	7.682710e+01
9.100000e-07	9.404409e-07	2.067568e-09	6.709225e+00	1.322032e+02
9.200000e-07	1.051090e-06	2.928316e-09	7.498612e+00	1.888064e+02
9.300000e-07	1.161431e-06	3.806446e-09	8.285799e+00	2.465931e+02
9.400000e-07	1.271421e-06	4.700122e-09	9.070477e+00	3.053423e+02
9.500000e-07	1.380982e-06	5.602481e-09	9.852104e+00	3.646618e+02
9.600000e-07	1.490050e-06	6.504036e-09	1.063021e+01	4.240203e+02
9.700000e-07	1.598627e-06	7.398248e-09	1.140481e+01	4.827998e+02
9.800000e-07	1.706702e-06	8.276503e-09	1.217583e+01	5.403601e+02
9.900000e-07	1.814147e-06	9.127207e-09	1.294236e+01	5.961030e+02
1.000000e-06	1.920923e-06	9.939369e-09	1.370411e+01	6.495282e+02
1.010000e-06	2.026979e-06	1.070548e-08	1.446072e+01	7.002702e+02
1.020000e-06	2.132205e-06	1.142573e-08	1.521142e+01	7.481147e+02
1.030000e-06	2.236473e-06	1.210234e-08	1.595528e+01	7.929932e+02
1.040000e-06	2.339791e-06	1.273701e-08	1.669237e+01	8.349597e+02
1.050000e-06	2.442288e-06	1.333398e-08	1.742359e+01	8.741575e+02
1.060000e-06	2.543918e-06	1.389511e-08	1.814864e+01	9.107813e+02
1.070000e-06	2.644680e-06	1.441610e-08	1.886749e+01	9.450433e+02
1.080000e-06	2.744674e-06	1.489997e-08	1.958086e+01	9.771484e+02
1.090000e-06	2.843824e-06	1.535497e-08	2.028821e+01	1.007279e+03
1.100000e-06	2.941847e-06	1.578477e-08	2.098751e+01	1.035589e+03
1.110000e-06	3.038542e-06	1.619094e-08	2.167735e+01	1.062212e+03
1.120000e-06	3.134012e-06	1.657424e-08	2.235844e+01	1.087263e+03
1.130000e-06	3.228386e-06	1.693437e-08	2.303172e+01	1.110848e+03
1.140000e-06	3.321715e-06	1.727151e-08	2.369754e+01	1.133072e+03
1.150000e-06	3.414033e-06	1.758914e-08	2.435615e+01	1.154039e+03
1.160000e-06	3.505271e-06	1.789132e-08	2.500705e+01	1.173848e+03
1.170000e-06	3.595257e-06	1.817978e-08	2.564902e+01	1.192594e+03
1.180000e-06	3.683824e-06	1.845237e-08	2.628087e+01	1.210360e+03
1.190000e-06	3.771022e-06	1.870842e-08	2.690295e+01	1.227215e+03
1.200000e-06	3.856983e-06	1.895016e-08	2.751621e+01	1.243217e+03
1.210000e-06	3.941730e-06	1.917777e-08	2.812080e+01	1.258410e+03
1.220000e-06	4.025235e-06	1.939352e-08	2.871654e+01	1.272834e+03
1.230000e-06	4.107324e-06	1.960049e-08	2.930217e+01	1.286527e+03
1.240000e-06	4.187780e-06	1.979784e-08	2.987616e+01	1.299529e+03
1.250000e-06	4.266632e-06	1.998529e-08	3.043869e+01	1.311881e+03
1.260000e-06	4.343949e-06	2.016432e-08	3.099029e+01	1.323628e+03
1.270000e-06	4.419699e-06	2.033628e-08	3.153070e+01	1.334815e+03
1.280000e-06	4.493669e-06	2.049973e-08	3.205841e+01	1.345478e+03
1.290000e-06	4.565783e-06	2.065516e-08	3.257288e+01	1.355646e+03
1.300000e-06	4.636171e-06	2.080301e-08	3.307504e+01	1.365336e+03
1.310000e-06	4.704942e-06	2.094423e-08	3.356565e+01	1.374553e+03
1.320000e-06	4.772126e-06	2.107992e-08	3.404495e+01	1.383297e+03
1.330000e-06	4.837499e-06	2.120834e-08	3.451133e+01	1.391564e+03
1.340000e-06	4.901038e-06	2.132666e-08	3.496463e+01	1.399355e+03
1.350000e-06	4.962931e-06	2.143514e-08	3.540618e+01	1.406679e+03
1.360000e-06	5.023279e-06	2.153739e-08	3.583671e+01	1.413558e+03
1.370000e-06	5.081969e-06	2.163633e-08	3.625542e+01	1.420023e+03
1.380000e-06	5.138675e-06	2.173161e-08	3.665996e+01	1.426115e+03
1.390000e-06	5.193444e-06	2.181897e-08	3.705069e+01	1.431880e+03
1.400000e-06	5.246376e-06	2.189975e-08	3.742832e+01	1.437358e+03
1.410000e-06	5.297126e-06	2.197840e-08	3.779037e+01	1.442583e+03
1.420000e-06	5.345563e-06	2.205570e-08	3.813593e+01	1.447578e+03
1.430000e-06	5.392015e-06	2.213092e-08	3.846732e+01	1.452352e+03
1.440000e-06	5.436744e-06	2.220230e-08	3.878642e+01	1.456901e+03
1.450000e-06	5.479721e-06	2.226897e-08	3.909303e+01	1.461216e+03
1.460000e-06	5.520644e-06	2.233023e-08	3.938498e+01	1.465282e+03
1.470000e-06	5.559504e-06	2.238577e-08	3.966221e+01	1.469086e+03
1.480000e-06	5.596540e-06	2.243745e-08	3.992643e+01	1.472620e+03
1.490000e-06	5.631735e-06	2.248630e-08	4.017752e+01	1.475879e+03
1.500000e-06	5.664827e-06	2.253192e-08	4.041360e+01	1.478870e+03
1.510000e-06	5.695824e-06	2.257424e-08	4.063473e+01	1.481602e+03
1.520000e-06	5.724990e-06	2.261361e-08	4.084281e+01	1.484087e+03
1.530000e-06	5.752307e-06	2.264919e-08	4.103769e+01	1.486340e+03
1.540000e-06	5.777417e-06	2.267961e-08	4.121683e+01	1.488372e+03
1.550000e-06	5.800208e-06	2.270483e-08	4.137943e+01	1.490192e+03
1.560000e-06	5.821016e-06	2.272702e-08	4.152787e+01	1.491809e+03
1.570000e-06	5.839915e-06	2.274732e-08	4.166270e+01	1.493225e+03
1.580000e-06	5.856722e-06	2.276503e-08	4.178260e+01	1.494444e+03
1.590000e-06	5.871319e-06	2.278082e-08	4.188674e+01	1.495469e+03
1.600000e-06	5.883672e-06	2.279491e-08	4.197487e+01	1.496301e+03
1.610000e-06	5.893606e-06	2.280666e-08	4.204574e+01	1.496947e+03
1.620000e-06	5.901202e-06	2.281552e-08	4.209993e+01	1.497411e+03
1.630000e-06	5.906787e-06	2.282108e-08	4.213977e+01	1.497700e+03
1.640000e-06	5.910423e-06	2.282352e-08	4.216571e+01	1.497819e+03
1.650000e-06	5.911907e-06	2.282577e-08	4.217630e+01	1.497774e+03
1.660000e-06	5.911271e-06	2.282369e-08	4.217176e+01	1.497569e+03
1.670000e-06	5.908760e-06	2.281111e-08	4.215385e+01	1.497206e+03
1.680000e-06	5.904434e-06	2.280365e-08	4.212298e+01	1.496686e+03
1.690000e-06	5.898069e-06	2.279618e-08	4.207757e+01	1.496007e+03
1.700000e-06	5.889638e-06	2.278370e-08	4.201743e+01	1.495168e+03
1.710000e-06	5.879422e-06	2.277158e-08	4.194455e+01	1.494168e+03
1.720000e-06	5.867256e-06	2.276318e-08	4.185775e+01	1.493004e+03
1.730000e-06	5.852886e-06	2.276823e-08	4.175523e+01	1.491678e+03
1.740000e-06	5.836555e-06	2.268439e-08	4.163873e+01	1.490193e+03
1.750000e-06	5.818191e-06	2.257961e-08	4.150771e+01	1.488554e+03
1.760000e-06	5.797056e-06	2.261724e-08	4.135694e+01	1.486768e+03
1.770000e-06	5.773033e-06	2.260838e-08	4.118556e+01	1.484842e+03
1.780000e-06	5.746871e-06	2.261432e-08	4.099891e+01	1.482783e+03
1.790000e-06	5.719421e-06	2.271641e-08	4.080308e+01	1.480595e+03
1.800000e-06	5.691111e-06	2.247662e-08	4.060111e+01	1.478276e+03
1.810000e-06	5.661043e-06	2.241738e-08	4.038660e+01	1.475820e+03
1.820000e-06	5.628524e-06	2.253378e-08	4.015461e+01	1.473216e+03
1.830000e-06	5.594257e-06	2.229978e-08	3.991014e+01	1.470445e+03
1.840000e-06	5.558121e-06	2.240891e-08	3.965235e+01	1.467491e+03
1.850000e-06	5.519723e-06	2.241777e-08	3.937841e+01	1.464335e+03
1.860000e-06	5.479356e-06	2.215341e-08	3.909042e+01	1.460963e+03
1.870000e-06	5.437068e-06	2.226273e-08	3.878874e+01	1.457365e+03
1.880000e-06	5.393117e-06	2.215232e-08	3.847519e+01	1.453541e+03
1.890000e-06	5.347361e-06	2.206296e-08	3.814875e+01	1.449494e+03
1.900000e-06	5.299293e-06	2.207077e-08	3.780583e+01	1.445234e+03
1.910000e-06	5.249156e-06	2.185282e-08	3.744815e+01	1.440770e+03
1.920000e-06	5.196891e-06	2.193064e-08	3.707528e+01	1.436112e+03
1.930000e-06	5.142397e-06	2.185240e-08	3.668651e+01	1.431260e+03
1.940000e-06	5.085988e-06	2.173371e-08	3.628409e+01	1.426210e+03
1.950000e-06	5.027718e-06	2.171687e-08	3.586838e+01	1.420951e+03
1.960000e-06	4.967706e-06	2.152537e-08	3.544024e+01	1.415465e+03
1.970000e-06	4.905810e-06	2.150662e-08	3.499868e+01	1.409732e+03
1.980000e-06	4.841988e-06	2.136035e-08	3.454336e+01	1.403734e+03
1.990000e-06	4.776410e-06	2.127673e-08	3.407552e+01	1.397458e+03
2.000000e-06	4.709182e-06	2.126681e-08	3.359590e+01	1.390893e+03
2.010000e-06	4.640351e-06	2.110234e-08	3.310485e+01	1.384039e+03
2.020000e-06	4.569594e-06	2.101551e-08	3.260007e+01	1.376898e+03
2.030000e-06	4.497086e-06	2.082812e-08	3.208278e+01	1.369472e+03
2.040000e-06	4.423033e-06	2.074957e-08	3.155448e+01	1.361763e+03
2.050000e-06	4.347343e-06	2.066563e-08	3.101450e+01	1.353765e+03
2.060000e-06	4.269942e-06	2.051228e-08	3.046231e+01	1.345469e+03
2.070000e-06	4.190784e-06	2.041457e-08	2.989759e+01	1.336859e+03
2.080000e-06	4.110149e-06	2.024150e-08	2.932232e+01	1.327913e+03
2.090000e-06	4.028149e-06	2.011157e-08	2.873733e+01	1.318612e+03
2.100000e-06	3.944800e-06	1.994016e-08	2.814270e+01	1.308937e+03
2.110000e-06	3.860135e-06	1.980163e-08	2.753870e+01	1.298874e+03
2.120000e-06	3.773970e-06	1.966205e-08	2.692399e+01	1.288414e+03
2.130000e-06	3.686351e-06	1.948552e-08	2.629890e+01	1.277551e+03
2.140000e-06	3.597482e-06	1.932444e-08	2.566489e+01	1.266278e+03
2.150000e-06	3.507394e-06	1.912894e-08	2.502219e+01	1.254582e+03
2.160000e-06	3.416107e-06	1.895456e-08	2.437094e+01	1.242445e+03
2.170000e-06	3.323727e-06	1.876095e-08	2.371189e+01	1.229837e+03
2.180000e-06	3.230143e-06	1.856972e-08	2.304425e+01	1.216721e+03
2.190000e-06	3.135230e-06	1.835892e-08	2.236713e+01	1.203052e+03
2.200000e-06	3.039077e-06	1.814230e-08	2.168117e+01	1.188784e+03
2.210000e-06	2.941842e-06	1.792046e-08	2.098747e+01	1.173876e+03
2.220000e-06	2.843622e-06	1.767922e-08	2.028676e+01	1.158290e+03
2.230000e-06	2.744430e-06	1.743274e-08	1.957911e+01	1.141996e+03
2.240000e-06	2.644309e-06	1.717325e-08	1.886484e+01	1.124971e+03
2.250000e-06	2.543225e-06	1.691511e-08	1.814369e+01	1.107190e+03
2.260000e-06	2.441141e-06	1.663388e-08	1.741541e+01	1.088626e+03
2.270000e-06	2.338048e-06	1.633397e-08	1.667993e+01	1.069237e+03
2.280000e-06	2.233971e-06	1.601699e-08	1.593743e+01	1.048968e+03
2.290000e-06	2.129044e-06	1.569417e-08	1.518887e+01	1.027748e+03
2.300000e-06	2.023417e-06	1.535872e-08	1.443532e+01	1.005490e+03
2.310000e-06	1.917151e-06	1.500826e-08	1.367720e+01	9.820961e+02
2.320000e-06	1.810285e-06	1.464111e-08	1.291480e+01	9.574641e+02
2.330000e-06	1.702891e-06	1.424583e-08	1.214864e+01	9.314909e+02
2.340000e-06	1.594923e-06	1.382367e-08	1.137838e+01	9.040756e+02
2.350000e-06	1.486414e-06	1.337523e-08	1.060426e+01	8.751200e+02
2.360000e-06	1.377498e-06	1.291174e-08	9.827246e+00	8.445261e+02
2.370000e-06	1.268223e-06	1.242900e-08	9.047666e+00	8.121943e+02
2.380000e-06	1.158577e-06	1.191841e-08	8.265434e+00	7.780226e+02
2.390000e-06	1.048531e-06	1.136832e-08	7.480351e+00	7.419106e+02
2.400000e-06	9.381069e-07	1.077971e-08	6.692574e+00	7.037689e+02
2.410000e-06	8.273308e-07	1.016028e-08	5.902283e+00	6.635348e+02
2.420000e-06	7.162189e-07	9.513581e-09	5.109597e+00	6.211913e+02
2.430000e-06	6.048417e-07	8.840292e-09	4.315018e+00	5.767857e+02
2.440000e-06	4.932806e-07	8.139183e-09	3.519127e+00	5.304443e+02
2.450000e-06	3.815103e-07	7.410822e-09	2.721743e+00	4.823760e+02
2.460000e-06	2.695277e-07	6.653121e-09	1.922845e+00	4.328628e+02
2.470000e-06	1.574064e-07	5.873916e-09	1.122957e+00	3.822362e+02
2.480000e-06	4.523056e-08	5.085668e-09	3.226806e-01	3.308396e+02
2.490000e-06	-6.689291e-08	4.294830e-09	-4.772226e-01	2.789847e+02
2.500000e-06	-1.789719e-07	3.502457e-09	-1.276809e+00	2.269073e+02
2.510000e-06	-2.909863e-07	2.709219e-09	-2.075934e+00	1.747326e+02
2.520000e-06	-4.028844e-07	1.913948e-09	-2.874228e+00	1.224567e+02
2.530000e-06	-5.146505e-07	1.111742e-09	-3.671582e+00	6.995131e+01
2.540000e-06	-6.262237e-07	3.024266e-10	-4.467560e+00	1.699140e+01
2.550000e-06	-7.375697e-07	-5.174110e-10	-5.261917e+00	-3.669686e+01
2.560000e-06	-8.485926e-07	-1.350857e-09	-6.053968e+00	-9.137501e+01
2.570000e-06	-9.591867e-07	-2.199566e-09	-6.842960e+00	-1.472287e+02
2.580000e-06	-1.069348e-06	-3.068200e-09	-7.628862e+00	-2.043127e+02
2.590000e-06	-1.179092e-06	-3.957469e-09	-8.411789e+00	-2.625147e+02
2.600000e-06	-1.288450e-06	-4.864853e-09	-9.191965e+00	-3.215444e+02
2.610000e-06	-1.397421e-06	-5.778714e-09	-9.969377e+00	-3.809497e+02
2.620000e-06	-1.505953e-06	-6.685321e-09	-1.074366e+01	-4.401581e+02
2.630000e-06	-1.613954e-06	-7.575317e-09	-1.151415e+01	-4.985350e+02
2.640000e-06	-1.721378e-06	-8.443560e-09	-1.228053e+01	-5.554492e+02
2.650000e-06	-1.828246e-06	-9.283865e-09	-1.304294e+01	-6.103355e+02
2.660000e-06	-1.934523e-06	-1.008790e-08	-1.380114e+01	-6.627428e+02
2.670000e-06	-2.040097e-06	-1.084962e-08	-1.455431e+01	-7.123646e+02
2.680000e-06	-2.144915e-06	-1.156662e-08	-1.530209e+01	-7.590456e+02
2.690000e-06	-2.248932e-06	-1.223606e-08	-1.604417e+01	-8.027688e+02
2.700000e-06	-2.352037e-06	-1.286065e-08	-1.677973e+01	-8.436279e+02
2.710000e-06	-2.454186e-06	-1.344857e-08	-1.750847e+01	-8.817906e+02
2.720000e-06	-2.555345e-06	-1.400156e-08	-1.823016e+01	-9.174621e+02
2.730000e-06	-2.655509e-06	-1.451617e-08	-1.894474e+01	-9.508544e+02
2.740000e-06	-2.754759e-06	-1.499406e-08	-1.965280e+01	-9.821643e+02
2.750000e-06	-2.853128e-06	-1.544063e-08	-2.035458e+01	-1.011564e+03
2.760000e-06	-2.950552e-06	-1.585872e-08	-2.104962e+01	-1.039198e+03
2.770000e-06	-3.047010e-06	-1.625476e-08	-2.173776e+01	-1.065191e+03
2.780000e-06	-3.142513e-06	-1.663144e-08	-2.241909e+01	-1.089654e+03
2.790000e-06	-3.236909e-06	-1.698763e-08	-2.309252e+01	-1.112693e+03
2.800000e-06	-3.330011e-06	-1.732163e-08	-2.375672e+01	-1.134412e+03
2.810000e-06	-3.421806e-06	-1.763381e-08	-2.441160e+01	-1.154913e+03
2.820000e-06	-3.512414e-06	-1.792859e-08	-2.505801e+01	-1.174295e+03
2.830000e-06	-3.601841e-06	-1.820675e-08	-2.569600e+01	-1.192648e+03
2.840000e-06	-3.690055e-06	-1.847060e-08	-2.632532e+01	-1.210049e+03
2.850000e-06	-3.776983e-06	-1.872372e-08	-2.694548e+01	-1.226564e+03
2.860000e-06	-3.862414e-06	-1.896566e-08	-2.755495e+01	-1.242244e+03
2.870000e-06	-3.946405e-06	-1.919605e-08	-2.815416e+01	-1.257132e+03
2.880000e-06	-4.029094e-06	-1.941528e-08	-2.874407e+01	-1.271265e+03
2.890000e-06	-4.110436e-06	-1.962329e-08	-2.932438e+01	-1.284682e+03
2.900000e-06	-4.190327e-06	-1.981812e-08	-2.989433e+01	-1.297424e+03
2.910000e-06	-4.268492e-06	-2.000191e-08	-3.045197e+01	-1.309535e+03
2.920000e-06	-4.344877e-06	-2.017736e-08	-3.099691e+01	-1.321058e+03
2.930000e-06	-4.419620e-06	-2.034451e-08	-3.153013e+01	-1.332036e+03
2.940000e-06	-4.492742e-06	-2.050284e-08	-3.205179e+01	-1.342503e+03
