# Temperatura_=_64.11
# Concentracion g/m^3_=_28200.0
# C_Vs_to_Am_M_A/Vsm_=_65563218390.804596
# pendiente_HvsI_1/m_=_3716.3
# ordenada_HvsI_A/m_=_1297.0
# frecuencia_Hz_=_301918.9087735847

Tiempo_(s)	Campo_(V.s)	Magnetizacion_(V.s)	Campo_(kA/m)	Magnetizacion_(A/m)
0.000000e+00	-5.883631e-06	-2.293309e-08	-4.195070e+01	-1.502743e+03
1.000000e-08	-5.881389e-06	-2.293401e-08	-4.193471e+01	-1.502431e+03
2.000000e-08	-5.877189e-06	-2.292840e-08	-4.190477e+01	-1.501966e+03
3.000000e-08	-5.871208e-06	-2.291908e-08	-4.186212e+01	-1.501343e+03
4.000000e-08	-5.863497e-06	-2.290650e-08	-4.180714e+01	-1.500555e+03
5.000000e-08	-5.853765e-06	-2.288844e-08	-4.173775e+01	-1.499595e+03
6.000000e-08	-5.841766e-06	-2.286694e-08	-4.165220e+01	-1.498458e+03
7.000000e-08	-5.827565e-06	-2.283856e-08	-4.155094e+01	-1.497141e+03
8.000000e-08	-5.811204e-06	-2.282187e-08	-4.143428e+01	-1.495647e+03
9.000000e-08	-5.792727e-06	-2.285461e-08	-4.130255e+01	-1.493981e+03
1.000000e-07	-5.772142e-06	-2.284018e-08	-4.115577e+01	-1.492156e+03
1.100000e-07	-5.749386e-06	-2.276690e-08	-4.099352e+01	-1.490186e+03
1.200000e-07	-5.724355e-06	-2.273080e-08	-4.081505e+01	-1.488085e+03
1.300000e-07	-5.697319e-06	-2.266539e-08	-4.062228e+01	-1.485868e+03
1.400000e-07	-5.668739e-06	-2.255420e-08	-4.041850e+01	-1.483540e+03
1.500000e-07	-5.638665e-06	-2.261626e-08	-4.020407e+01	-1.481101e+03
1.600000e-07	-5.606875e-06	-2.259950e-08	-3.997740e+01	-1.478539e+03
1.700000e-07	-5.573252e-06	-2.248316e-08	-3.973767e+01	-1.475835e+03
1.800000e-07	-5.537743e-06	-2.253999e-08	-3.948449e+01	-1.472959e+03
1.900000e-07	-5.500232e-06	-2.244794e-08	-3.921703e+01	-1.469883e+03
2.000000e-07	-5.460806e-06	-2.235821e-08	-3.893592e+01	-1.466575e+03
2.100000e-07	-5.419376e-06	-2.238828e-08	-3.864053e+01	-1.463016e+03
2.200000e-07	-5.375828e-06	-2.228283e-08	-3.833002e+01	-1.459194e+03
2.300000e-07	-5.330268e-06	-2.219793e-08	-3.800518e+01	-1.455109e+03
2.400000e-07	-5.282557e-06	-2.214140e-08	-3.766500e+01	-1.450774e+03
2.500000e-07	-5.232521e-06	-2.204952e-08	-3.730824e+01	-1.446208e+03
2.600000e-07	-5.180191e-06	-2.201565e-08	-3.693512e+01	-1.441431e+03
2.700000e-07	-5.125837e-06	-2.194334e-08	-3.654758e+01	-1.436460e+03
2.800000e-07	-5.069698e-06	-2.184522e-08	-3.614729e+01	-1.431304e+03
2.900000e-07	-5.011644e-06	-2.174334e-08	-3.573337e+01	-1.425959e+03
3.000000e-07	-4.951649e-06	-2.165776e-08	-3.530560e+01	-1.420409e+03
3.100000e-07	-4.889923e-06	-2.158250e-08	-3.486549e+01	-1.414632e+03
3.200000e-07	-4.826489e-06	-2.150278e-08	-3.441320e+01	-1.408599e+03
3.300000e-07	-4.761215e-06	-2.142963e-08	-3.394779e+01	-1.402286e+03
3.400000e-07	-4.694019e-06	-2.129765e-08	-3.346868e+01	-1.395672e+03
3.500000e-07	-4.625070e-06	-2.117607e-08	-3.297707e+01	-1.388746e+03
3.600000e-07	-4.554578e-06	-2.106782e-08	-3.247446e+01	-1.381509e+03
3.700000e-07	-4.482530e-06	-2.095282e-08	-3.196075e+01	-1.373965e+03
3.800000e-07	-4.408731e-06	-2.086179e-08	-3.143455e+01	-1.366124e+03
3.900000e-07	-4.333063e-06	-2.074153e-08	-3.089504e+01	-1.357990e+03
4.000000e-07	-4.255627e-06	-2.059324e-08	-3.034292e+01	-1.349566e+03
4.100000e-07	-4.176498e-06	-2.044687e-08	-2.977872e+01	-1.340842e+03
4.200000e-07	-4.095796e-06	-2.030835e-08	-2.920331e+01	-1.331804e+03
4.300000e-07	-4.013764e-06	-2.016864e-08	-2.861842e+01	-1.322431e+03
4.400000e-07	-3.930474e-06	-2.001775e-08	-2.802455e+01	-1.312698e+03
4.500000e-07	-3.845987e-06	-1.986757e-08	-2.742215e+01	-1.302586e+03
4.600000e-07	-3.760294e-06	-1.970270e-08	-2.681115e+01	-1.292076e+03
4.700000e-07	-3.673395e-06	-1.953549e-08	-2.619156e+01	-1.281156e+03
4.800000e-07	-3.585294e-06	-1.936927e-08	-2.556340e+01	-1.269816e+03
4.900000e-07	-3.495715e-06	-1.919119e-08	-2.492469e+01	-1.258046e+03
5.000000e-07	-3.404648e-06	-1.900269e-08	-2.427538e+01	-1.245829e+03
5.100000e-07	-3.312360e-06	-1.880202e-08	-2.361736e+01	-1.233144e+03
5.200000e-07	-3.218954e-06	-1.859698e-08	-2.295136e+01	-1.219958e+03
5.300000e-07	-3.124457e-06	-1.838321e-08	-2.227759e+01	-1.206232e+03
5.400000e-07	-3.028873e-06	-1.816162e-08	-2.159607e+01	-1.191922e+03
5.500000e-07	-2.932133e-06	-1.793252e-08	-2.090631e+01	-1.176982e+03
5.600000e-07	-2.834191e-06	-1.769380e-08	-2.020798e+01	-1.161369e+03
5.700000e-07	-2.735106e-06	-1.744400e-08	-1.950149e+01	-1.145048e+03
5.800000e-07	-2.635010e-06	-1.718513e-08	-1.878780e+01	-1.127988e+03
5.900000e-07	-2.533952e-06	-1.691863e-08	-1.806725e+01	-1.110162e+03
6.000000e-07	-2.431959e-06	-1.663232e-08	-1.734003e+01	-1.091539e+03
6.100000e-07	-2.329137e-06	-1.632763e-08	-1.660691e+01	-1.072083e+03
6.200000e-07	-2.225537e-06	-1.601189e-08	-1.586823e+01	-1.051745e+03
6.300000e-07	-2.121043e-06	-1.568666e-08	-1.512318e+01	-1.030460e+03
6.400000e-07	-2.015628e-06	-1.534852e-08	-1.437157e+01	-1.008148e+03
6.500000e-07	-1.909393e-06	-1.499247e-08	-1.361410e+01	-9.847182e+02
6.600000e-07	-1.802395e-06	-1.461334e-08	-1.285120e+01	-9.600696e+02
6.700000e-07	-1.694760e-06	-1.420867e-08	-1.208375e+01	-9.340993e+02
6.800000e-07	-1.586558e-06	-1.378506e-08	-1.131226e+01	-9.067037e+02
6.900000e-07	-1.477862e-06	-1.334457e-08	-1.053726e+01	-8.777803e+02
7.000000e-07	-1.368713e-06	-1.288286e-08	-9.759019e+00	-8.472265e+02
7.100000e-07	-1.259126e-06	-1.239284e-08	-8.977654e+00	-8.149383e+02
7.200000e-07	-1.149144e-06	-1.187090e-08	-8.193479e+00	-7.808096e+02
7.300000e-07	-1.038860e-06	-1.131634e-08	-7.407144e+00	-7.447356e+02
7.400000e-07	-9.283373e-07	-1.073114e-08	-6.619109e+00	-7.066219e+02
7.500000e-07	-8.175164e-07	-1.011638e-08	-5.828948e+00	-6.663986e+02
7.600000e-07	-7.064078e-07	-9.470858e-09	-5.036736e+00	-6.240388e+02
7.700000e-07	-5.950550e-07	-8.793784e-09	-4.242783e+00	-5.795782e+02
7.800000e-07	-4.835007e-07	-8.085433e-09	-3.447393e+00	-5.331296e+02
7.900000e-07	-3.718191e-07	-7.350994e-09	-2.651096e+00	-4.848893e+02
8.000000e-07	-2.600276e-07	-6.593229e-09	-1.854015e+00	-4.351296e+02
8.100000e-07	-1.480846e-07	-5.814972e-09	-1.055853e+00	-3.841769e+02
8.200000e-07	-3.602887e-08	-5.023323e-09	-2.568883e-01	-3.323759e+02
8.300000e-07	7.609148e-08	-4.225083e-09	5.425375e-01	-2.800464e+02
8.400000e-07	1.882226e-07	-3.424101e-09	1.342040e+00	-2.274378e+02
8.500000e-07	3.002853e-07	-2.620123e-09	2.141055e+00	-1.746924e+02
8.600000e-07	4.122228e-07	-1.811757e-09	2.939177e+00	-1.218241e+02
8.700000e-07	5.239972e-07	-9.995298e-10	3.736136e+00	-6.872031e+01
8.800000e-07	6.355988e-07	-1.833412e-10	4.531863e+00	-1.516666e+01
8.900000e-07	7.470185e-07	6.417155e-10	5.326294e+00	3.910586e+01
9.000000e-07	8.582628e-07	1.482144e-09	6.119473e+00	9.435995e+01
9.100000e-07	9.692657e-07	2.341809e-09	6.910931e+00	1.507870e+02
9.200000e-07	1.079939e-06	3.219597e-09	7.700042e+00	2.084500e+02
9.300000e-07	1.190300e-06	4.114856e-09	8.486918e+00	2.672442e+02
9.400000e-07	1.300275e-06	5.023784e-09	9.271052e+00	3.268839e+02
9.500000e-07	1.409777e-06	5.936586e-09	1.005181e+01	3.869175e+02
9.600000e-07	1.518768e-06	6.844651e-09	1.082892e+01	4.467679e+02
9.700000e-07	1.627237e-06	7.740326e-09	1.160231e+01	5.057917e+02
9.800000e-07	1.735149e-06	8.615038e-09	1.237173e+01	5.633463e+02
9.900000e-07	1.842499e-06	9.459219e-09	1.313714e+01	6.188547e+02
1.000000e-06	1.949293e-06	1.026451e-08	1.389859e+01	6.718558e+02
1.010000e-06	2.055346e-06	1.102405e-08	1.465476e+01	7.220358e+02
1.020000e-06	2.160380e-06	1.173721e-08	1.540366e+01	7.692358e+02
1.030000e-06	2.264385e-06	1.240514e-08	1.614522e+01	8.134390e+02
1.040000e-06	2.367561e-06	1.303037e-08	1.688087e+01	8.547413e+02
1.050000e-06	2.469904e-06	1.361632e-08	1.761059e+01	8.933141e+02
1.060000e-06	2.571418e-06	1.416609e-08	1.833438e+01	9.293664e+02
1.070000e-06	2.672063e-06	1.467838e-08	1.905199e+01	9.631132e+02
1.080000e-06	2.771827e-06	1.515621e-08	1.976332e+01	9.947535e+02
1.090000e-06	2.870770e-06	1.560623e-08	2.046879e+01	1.024460e+03
1.100000e-06	2.968621e-06	1.602989e-08	2.116647e+01	1.052380e+03
1.110000e-06	3.065117e-06	1.642956e-08	2.185449e+01	1.078639e+03
1.120000e-06	3.160417e-06	1.680714e-08	2.253399e+01	1.103352e+03
1.130000e-06	3.254647e-06	1.716324e-08	2.320586e+01	1.126628e+03
1.140000e-06	3.347820e-06	1.749796e-08	2.387019e+01	1.148575e+03
1.150000e-06	3.439928e-06	1.781180e-08	2.452692e+01	1.169299e+03
1.160000e-06	3.530968e-06	1.810824e-08	2.517605e+01	1.188902e+03
1.170000e-06	3.620716e-06	1.839121e-08	2.581595e+01	1.207474e+03
1.180000e-06	3.708952e-06	1.866055e-08	2.644508e+01	1.225092e+03
1.190000e-06	3.795869e-06	1.891627e-08	2.706481e+01	1.241817e+03
1.200000e-06	3.881561e-06	1.915774e-08	2.767580e+01	1.257697e+03
1.210000e-06	3.966020e-06	1.938542e-08	2.827800e+01	1.272769e+03
1.220000e-06	4.049278e-06	1.960066e-08	2.887163e+01	1.287070e+03
1.230000e-06	4.131049e-06	1.980534e-08	2.945466e+01	1.300636e+03
1.240000e-06	4.211116e-06	1.999962e-08	3.002555e+01	1.313511e+03
1.250000e-06	4.289643e-06	2.018429e-08	3.058545e+01	1.325743e+03
1.260000e-06	4.366666e-06	2.036146e-08	3.113463e+01	1.337382e+03
1.270000e-06	4.442008e-06	2.053289e-08	3.167183e+01	1.348477e+03
1.280000e-06	4.515487e-06	2.069688e-08	3.219573e+01	1.359068e+03
1.290000e-06	4.587213e-06	2.085180e-08	3.270715e+01	1.369181e+03
1.300000e-06	4.657256e-06	2.099778e-08	3.320656e+01	1.378830e+03
1.310000e-06	4.725684e-06	2.113744e-08	3.369446e+01	1.388015e+03
1.320000e-06	4.792508e-06	2.127260e-08	3.417091e+01	1.396731e+03
1.330000e-06	4.857456e-06	2.140021e-08	3.463400e+01	1.404969e+03
1.340000e-06	4.920575e-06	2.151911e-08	3.508404e+01	1.412727e+03
1.350000e-06	4.982077e-06	2.163087e-08	3.552255e+01	1.420016e+03
1.360000e-06	5.042014e-06	2.173640e-08	3.594990e+01	1.426857e+03
1.370000e-06	5.100180e-06	2.183491e-08	3.636464e+01	1.433285e+03
1.380000e-06	5.156361e-06	2.192707e-08	3.676521e+01	1.439341e+03
1.390000e-06	5.210644e-06	2.201231e-08	3.715225e+01	1.445072e+03
1.400000e-06	5.262988e-06	2.209346e-08	3.752547e+01	1.450517e+03
1.410000e-06	5.313095e-06	2.217371e-08	3.788274e+01	1.455707e+03
1.420000e-06	5.360977e-06	2.225203e-08	3.822414e+01	1.460664e+03
1.430000e-06	5.406975e-06	2.232617e-08	3.855210e+01	1.465393e+03
1.440000e-06	5.451318e-06	2.239472e-08	3.886827e+01	1.469893e+03
1.450000e-06	5.493812e-06	2.245849e-08	3.917126e+01	1.474154e+03
1.460000e-06	5.534188e-06	2.251882e-08	3.945914e+01	1.478165e+03
1.470000e-06	5.572559e-06	2.257650e-08	3.973273e+01	1.481920e+03
1.480000e-06	5.609142e-06	2.263011e-08	3.999357e+01	1.485412e+03
1.490000e-06	5.643835e-06	2.267829e-08	4.024093e+01	1.488645e+03
1.500000e-06	5.676387e-06	2.272209e-08	4.047303e+01	1.491623e+03
1.510000e-06	5.706903e-06	2.276436e-08	4.069061e+01	1.494354e+03
1.520000e-06	5.735572e-06	2.280499e-08	4.089502e+01	1.496848e+03
1.530000e-06	5.762229e-06	2.284165e-08	4.108509e+01	1.499112e+03
1.540000e-06	5.786661e-06	2.287240e-08	4.125929e+01	1.501151e+03
1.550000e-06	5.808951e-06	2.289847e-08	4.141822e+01	1.502969e+03
1.560000e-06	5.829289e-06	2.292200e-08	4.156323e+01	1.504568e+03
1.570000e-06	5.847654e-06	2.294304e-08	4.169418e+01	1.505950e+03
1.580000e-06	5.863858e-06	2.296090e-08	4.180971e+01	1.507120e+03
1.590000e-06	5.877851e-06	2.297599e-08	4.190948e+01	1.508084e+03
1.600000e-06	5.889559e-06	2.298921e-08	4.199296e+01	1.508850e+03
1.610000e-06	5.898866e-06	2.299967e-08	4.205932e+01	1.509429e+03
1.620000e-06	5.905942e-06	2.300727e-08	4.210977e+01	1.509832e+03
1.630000e-06	5.911059e-06	2.301167e-08	4.214626e+01	1.510069e+03
1.640000e-06	5.914238e-06	2.301339e-08	4.216892e+01	1.510149e+03
1.650000e-06	5.915272e-06	2.301412e-08	4.217630e+01	1.510077e+03
1.660000e-06	5.914181e-06	2.300720e-08	4.216852e+01	1.509855e+03
1.670000e-06	5.911221e-06	2.299780e-08	4.214742e+01	1.509482e+03
1.680000e-06	5.906375e-06	2.299174e-08	4.211286e+01	1.508955e+03
1.690000e-06	5.899436e-06	2.298402e-08	4.206339e+01	1.508267e+03
1.700000e-06	5.890537e-06	2.297280e-08	4.199994e+01	1.507411e+03
1.710000e-06	5.879883e-06	2.296086e-08	4.192397e+01	1.506381e+03
1.720000e-06	5.867212e-06	2.295477e-08	4.183363e+01	1.505172e+03
1.730000e-06	5.852407e-06	2.293105e-08	4.172806e+01	1.503784e+03
1.740000e-06	5.835648e-06	2.283661e-08	4.160857e+01	1.502220e+03
1.750000e-06	5.816587e-06	2.280050e-08	4.147267e+01	1.500489e+03
1.760000e-06	5.794661e-06	2.281875e-08	4.131633e+01	1.498604e+03
1.770000e-06	5.770067e-06	2.278441e-08	4.114098e+01	1.496580e+03
1.780000e-06	5.743578e-06	2.283314e-08	4.095211e+01	1.494431e+03
1.790000e-06	5.715943e-06	2.280086e-08	4.075507e+01	1.492169e+03
1.800000e-06	5.687289e-06	2.263887e-08	4.055076e+01	1.489797e+03
1.810000e-06	5.656595e-06	2.268171e-08	4.033191e+01	1.487311e+03
1.820000e-06	5.623575e-06	2.263309e-08	4.009648e+01	1.484695e+03
1.830000e-06	5.588873e-06	2.255107e-08	3.984905e+01	1.481926e+03
1.840000e-06	5.552173e-06	2.263246e-08	3.958738e+01	1.478974e+03
1.850000e-06	5.513237e-06	2.246994e-08	3.930976e+01	1.475809e+03
1.860000e-06	5.472326e-06	2.238763e-08	3.901806e+01	1.472404e+03
1.870000e-06	5.429581e-06	2.241273e-08	3.871329e+01	1.468741e+03
1.880000e-06	5.385163e-06	2.229629e-08	3.839658e+01	1.464813e+03
1.890000e-06	5.338725e-06	2.230662e-08	3.806547e+01	1.460627e+03
1.900000e-06	5.290030e-06	2.220279e-08	3.771828e+01	1.456198e+03
1.910000e-06	5.239284e-06	2.208913e-08	3.735646e+01	1.451545e+03
1.920000e-06	5.186264e-06	2.209157e-08	3.697842e+01	1.446690e+03
1.930000e-06	5.131137e-06	2.197630e-08	3.658536e+01	1.441645e+03
1.940000e-06	5.074233e-06	2.194382e-08	3.617963e+01	1.436414e+03
1.950000e-06	5.015528e-06	2.184616e-08	3.576106e+01	1.430990e+03
1.960000e-06	4.955021e-06	2.174422e-08	3.532964e+01	1.425353e+03
1.970000e-06	4.892581e-06	2.165777e-08	3.488444e+01	1.419478e+03
1.980000e-06	4.828272e-06	2.150345e-08	3.442591e+01	1.413337e+03
1.990000e-06	4.762205e-06	2.146813e-08	3.395485e+01	1.406906e+03
2.000000e-06	4.694565e-06	2.137561e-08	3.347258e+01	1.400169e+03
2.010000e-06	4.625242e-06	2.127889e-08	3.297830e+01	1.393120e+03
2.020000e-06	4.553961e-06	2.115536e-08	3.247006e+01	1.385760e+03
2.030000e-06	4.481014e-06	2.098894e-08	3.194994e+01	1.378097e+03
2.040000e-06	4.406554e-06	2.089917e-08	3.141904e+01	1.370140e+03
2.050000e-06	4.330394e-06	2.076720e-08	3.087601e+01	1.361891e+03
2.060000e-06	4.252421e-06	2.066188e-08	3.032006e+01	1.353350e+03
2.070000e-06	4.172770e-06	2.053562e-08	2.975214e+01	1.344504e+03
2.080000e-06	4.091685e-06	2.038807e-08	2.917400e+01	1.335336e+03
2.090000e-06	4.009222e-06	2.023886e-08	2.858603e+01	1.325823e+03
2.100000e-06	3.925444e-06	2.007414e-08	2.798868e+01	1.315942e+03
2.110000e-06	3.840296e-06	1.993531e-08	2.738157e+01	1.305675e+03
2.120000e-06	3.753695e-06	1.976577e-08	2.676410e+01	1.295004e+03
2.130000e-06	3.665720e-06	1.960084e-08	2.613684e+01	1.283919e+03
2.140000e-06	3.576484e-06	1.942242e-08	2.550058e+01	1.272410e+03
2.150000e-06	3.486065e-06	1.923893e-08	2.485588e+01	1.260465e+03
2.160000e-06	3.394507e-06	1.905230e-08	2.420307e+01	1.248067e+03
2.170000e-06	3.301778e-06	1.885956e-08	2.354190e+01	1.235188e+03
2.180000e-06	3.207716e-06	1.866325e-08	2.287124e+01	1.221794e+03
2.190000e-06	3.112324e-06	1.844702e-08	2.219108e+01	1.207844e+03
2.200000e-06	3.015766e-06	1.822740e-08	2.150262e+01	1.193290e+03
2.210000e-06	2.918204e-06	1.799863e-08	2.080700e+01	1.178089e+03
2.220000e-06	2.819655e-06	1.776203e-08	2.010434e+01	1.162201e+03
2.230000e-06	2.720202e-06	1.750358e-08	1.939523e+01	1.145592e+03
2.240000e-06	2.619885e-06	1.723496e-08	1.867996e+01	1.128234e+03
2.250000e-06	2.518525e-06	1.696345e-08	1.795726e+01	1.110097e+03
2.260000e-06	2.416049e-06	1.667992e-08	1.722659e+01	1.091151e+03
2.270000e-06	2.312509e-06	1.637907e-08	1.648835e+01	1.071354e+03
2.280000e-06	2.208037e-06	1.606322e-08	1.574346e+01	1.050652e+03
2.290000e-06	2.102799e-06	1.573495e-08	1.499310e+01	1.028972e+03
2.300000e-06	1.996916e-06	1.538669e-08	1.423815e+01	1.006232e+03
2.310000e-06	1.890420e-06	1.502363e-08	1.347882e+01	9.823342e+02
2.320000e-06	1.783331e-06	1.464514e-08	1.271527e+01	9.571777e+02
2.330000e-06	1.675783e-06	1.424756e-08	1.194845e+01	9.306586e+02
2.340000e-06	1.567757e-06	1.382146e-08	1.117822e+01	9.026740e+02
2.350000e-06	1.459186e-06	1.336668e-08	1.040409e+01	8.731213e+02
2.360000e-06	1.350132e-06	1.288926e-08	9.626537e+00	8.418977e+02
2.370000e-06	1.240633e-06	1.239092e-08	8.845797e+00	8.088981e+02
2.380000e-06	1.130746e-06	1.186591e-08	8.062295e+00	7.740163e+02
2.390000e-06	1.020495e-06	1.130615e-08	7.276203e+00	7.371502e+02
2.400000e-06	9.099183e-07	1.070859e-08	6.487780e+00	6.982131e+02
2.410000e-06	7.990469e-07	1.007658e-08	5.697260e+00	6.571495e+02
2.420000e-06	6.878307e-07	9.415490e-09	4.904280e+00	6.139551e+02
2.430000e-06	5.763255e-07	8.726570e-09	4.109240e+00	5.686944e+02
2.440000e-06	4.646661e-07	8.011235e-09	3.313102e+00	5.215129e+02
2.450000e-06	3.529162e-07	7.269109e-09	2.516317e+00	4.726386e+02
2.460000e-06	2.409407e-07	6.502531e-09	1.717924e+00	4.223683e+02
2.470000e-06	1.286977e-07	5.716952e-09	9.176233e-01	3.710405e+02
2.480000e-06	1.640679e-08	4.920740e-09	1.169816e-01	3.189956e+02
2.490000e-06	-9.582571e-08	4.119578e-09	-6.832439e-01	2.665310e+02
2.500000e-06	-2.080350e-07	3.316652e-09	-1.483304e+00	2.138575e+02
2.510000e-06	-3.201449e-07	2.512846e-09	-2.282656e+00	1.610683e+02
2.520000e-06	-4.320851e-07	1.705381e-09	-3.080797e+00	1.081264e+02
2.530000e-06	-5.438217e-07	8.926605e-10	-3.877487e+00	5.487462e+01
2.540000e-06	-6.552900e-07	7.302270e-11	-4.672263e+00	1.070695e+00
2.550000e-06	-7.665010e-07	-7.619077e-10	-5.465205e+00	-5.355969e+01
2.560000e-06	-8.774063e-07	-1.615110e-09	-6.255967e+00	-1.092588e+02
2.570000e-06	-9.879350e-07	-2.484463e-09	-7.044045e+00	-1.661736e+02
2.580000e-06	-1.098145e-06	-3.369785e-09	-7.829851e+00	-2.243045e+02
2.590000e-06	-1.208053e-06	-4.272566e-09	-8.613503e+00	-2.834758e+02
2.600000e-06	-1.317517e-06	-5.191911e-09	-9.393988e+00	-3.433333e+02
2.610000e-06	-1.426441e-06	-6.115284e-09	-1.017062e+01	-4.033700e+02
2.620000e-06	-1.534821e-06	-7.028661e-09	-1.094338e+01	-4.629749e+02
2.630000e-06	-1.642695e-06	-7.922516e-09	-1.171253e+01	-5.214968e+02
2.640000e-06	-1.750057e-06	-8.790299e-09	-1.247803e+01	-5.783120e+02
2.650000e-06	-1.856840e-06	-9.626196e-09	-1.323940e+01	-6.328837e+02
2.660000e-06	-1.962978e-06	-1.042232e-08	-1.399617e+01	-6.848063e+02
2.670000e-06	-2.068417e-06	-1.117516e-08	-1.474796e+01	-7.338273e+02
2.680000e-06	-2.173121e-06	-1.188343e-08	-1.549451e+01	-7.798460e+02
2.690000e-06	-2.277052e-06	-1.254417e-08	-1.623554e+01	-8.228941e+02
2.700000e-06	-2.380157e-06	-1.316065e-08	-1.697068e+01	-8.631017e+02
2.710000e-06	-2.482266e-06	-1.373867e-08	-1.769873e+01	-9.006596e+02
2.720000e-06	-2.583242e-06	-1.428058e-08	-1.841869e+01	-9.357821e+02
2.730000e-06	-2.683213e-06	-1.478526e-08	-1.913150e+01	-9.686800e+02
2.740000e-06	-2.782287e-06	-1.525712e-08	-1.983790e+01	-9.995426e+02
2.750000e-06	-2.880457e-06	-1.569972e-08	-2.053786e+01	-1.028532e+03
2.760000e-06	-2.977703e-06	-1.611483e-08	-2.123123e+01	-1.055787e+03
2.770000e-06	-3.073975e-06	-1.650829e-08	-2.191766e+01	-1.081426e+03
2.780000e-06	-3.169263e-06	-1.688071e-08	-2.259707e+01	-1.105563e+03
2.790000e-06	-3.263367e-06	-1.723113e-08	-2.326803e+01	-1.128304e+03
2.800000e-06	-3.356125e-06	-1.755991e-08	-2.392940e+01	-1.149759e+03
2.810000e-06	-3.447657e-06	-1.786993e-08	-2.458204e+01	-1.170033e+03
2.820000e-06	-3.538017e-06	-1.816310e-08	-2.522631e+01	-1.189221e+03
2.830000e-06	-3.627104e-06	-1.843873e-08	-2.586150e+01	-1.207411e+03
2.840000e-06	-3.714979e-06	-1.870002e-08	-2.648806e+01	-1.224673e+03
2.850000e-06	-3.801593e-06	-1.895000e-08	-2.710562e+01	-1.241062e+03
2.860000e-06	-3.886729e-06	-1.919017e-08	-2.771265e+01	-1.256621e+03
2.870000e-06	-3.970464e-06	-1.942087e-08	-2.830968e+01	-1.271387e+03
2.880000e-06	-4.052837e-06	-1.963966e-08	-2.889701e+01	-1.285396e+03
2.890000e-06	-4.133803e-06	-1.984559e-08	-2.947430e+01	-1.298686e+03
2.900000e-06	-4.213357e-06	-2.003749e-08	-3.004153e+01	-1.311304e+03
2.910000e-06	-4.291221e-06	-2.021692e-08	-3.059670e+01	-1.323298e+03
2.920000e-06	-4.367218e-06	-2.038847e-08	-3.113856e+01	-1.334719e+03
2.930000e-06	-4.441553e-06	-2.055354e-08	-3.166858e+01	-1.345613e+03
2.940000e-06	-4.514343e-06	-2.071244e-08	-3.218758e+01	-1.356014e+03
