# Temperatura_=_74.65
# Concentracion g/m^3_=_28200.0
# C_Vs_to_Am_M_A/Vsm_=_65563218390.804596
# pendiente_HvsI_1/m_=_3716.3
# ordenada_HvsI_A/m_=_1297.0
# frecuencia_Hz_=_301927.7531421261

Tiempo_(s)	Campo_(V.s)	Magnetizacion_(V.s)	Campo_(kA/m)	Magnetizacion_(A/m)
0.000000e+00	-5.866764e-06	-2.397393e-08	-4.194837e+01	-1.571457e+03
1.000000e-08	-5.864725e-06	-2.397449e-08	-4.193379e+01	-1.571103e+03
2.000000e-08	-5.860611e-06	-2.396531e-08	-4.190437e+01	-1.570574e+03
3.000000e-08	-5.854701e-06	-2.395302e-08	-4.186212e+01	-1.569871e+03
4.000000e-08	-5.847078e-06	-2.394175e-08	-4.180761e+01	-1.568996e+03
5.000000e-08	-5.837529e-06	-2.392401e-08	-4.173934e+01	-1.567945e+03
6.000000e-08	-5.825714e-06	-2.390075e-08	-4.165486e+01	-1.566716e+03
7.000000e-08	-5.811758e-06	-2.386514e-08	-4.155506e+01	-1.565307e+03
8.000000e-08	-5.795557e-06	-2.382810e-08	-4.143923e+01	-1.563714e+03
9.000000e-08	-5.777161e-06	-2.389075e-08	-4.130770e+01	-1.561939e+03
1.000000e-07	-5.756703e-06	-2.391280e-08	-4.116141e+01	-1.559986e+03
1.100000e-07	-5.734039e-06	-2.379219e-08	-4.099936e+01	-1.557862e+03
1.200000e-07	-5.709191e-06	-2.373954e-08	-4.082170e+01	-1.555577e+03
1.300000e-07	-5.682271e-06	-2.369580e-08	-4.062922e+01	-1.553140e+03
1.400000e-07	-5.653801e-06	-2.349272e-08	-4.042565e+01	-1.550558e+03
1.500000e-07	-5.623953e-06	-2.360653e-08	-4.021223e+01	-1.547833e+03
1.600000e-07	-5.592423e-06	-2.369865e-08	-3.998679e+01	-1.544958e+03
1.700000e-07	-5.559138e-06	-2.342079e-08	-3.974879e+01	-1.541920e+03
1.800000e-07	-5.523888e-06	-2.356147e-08	-3.949675e+01	-1.538698e+03
1.900000e-07	-5.486542e-06	-2.349648e-08	-3.922971e+01	-1.535270e+03
2.000000e-07	-5.447295e-06	-2.324192e-08	-3.894910e+01	-1.531614e+03
2.100000e-07	-5.406142e-06	-2.338081e-08	-3.865484e+01	-1.527715e+03
2.200000e-07	-5.362906e-06	-2.326018e-08	-3.834570e+01	-1.523564e+03
2.300000e-07	-5.317657e-06	-2.313460e-08	-3.802216e+01	-1.519166e+03
2.400000e-07	-5.270406e-06	-2.313653e-08	-3.768431e+01	-1.514531e+03
2.500000e-07	-5.220824e-06	-2.301494e-08	-3.732979e+01	-1.509674e+03
2.600000e-07	-5.168824e-06	-2.298478e-08	-3.695798e+01	-1.504609e+03
2.700000e-07	-5.114713e-06	-2.288531e-08	-3.657108e+01	-1.499344e+03
2.800000e-07	-5.058861e-06	-2.277655e-08	-3.617172e+01	-1.493878e+03
2.900000e-07	-5.001100e-06	-2.269089e-08	-3.575872e+01	-1.488195e+03
3.000000e-07	-4.941321e-06	-2.258569e-08	-3.533129e+01	-1.482273e+03
3.100000e-07	-4.879810e-06	-2.253096e-08	-3.489148e+01	-1.476085e+03
3.200000e-07	-4.816572e-06	-2.242292e-08	-3.443932e+01	-1.469603e+03
3.300000e-07	-4.751567e-06	-2.233381e-08	-3.397452e+01	-1.462807e+03
3.400000e-07	-4.684679e-06	-2.220038e-08	-3.349626e+01	-1.455687e+03
3.500000e-07	-4.616002e-06	-2.206185e-08	-3.300520e+01	-1.448244e+03
3.600000e-07	-4.545738e-06	-2.197141e-08	-3.250280e+01	-1.440490e+03
3.700000e-07	-4.474026e-06	-2.184115e-08	-3.199005e+01	-1.432440e+03
3.800000e-07	-4.400720e-06	-2.174735e-08	-3.146590e+01	-1.424108e+03
3.900000e-07	-4.325511e-06	-2.160446e-08	-3.092815e+01	-1.415499e+03
4.000000e-07	-4.248511e-06	-2.143477e-08	-3.037759e+01	-1.406607e+03
4.100000e-07	-4.169837e-06	-2.130045e-08	-2.981505e+01	-1.397413e+03
4.200000e-07	-4.089461e-06	-2.115570e-08	-2.924035e+01	-1.387888e+03
4.300000e-07	-4.007593e-06	-2.102026e-08	-2.865498e+01	-1.377999e+03
4.400000e-07	-3.924505e-06	-2.085396e-08	-2.806088e+01	-1.367714e+03
4.500000e-07	-3.840308e-06	-2.069942e-08	-2.745886e+01	-1.357009e+03
4.600000e-07	-3.754945e-06	-2.052095e-08	-2.684850e+01	-1.345869e+03
4.700000e-07	-3.668332e-06	-2.033540e-08	-2.622921e+01	-1.334289e+03
4.800000e-07	-3.580566e-06	-2.016001e-08	-2.560166e+01	-1.322270e+03
4.900000e-07	-3.491530e-06	-1.996835e-08	-2.496504e+01	-1.309812e+03
5.000000e-07	-3.400944e-06	-1.977470e-08	-2.431733e+01	-1.296906e+03
5.100000e-07	-3.308965e-06	-1.956474e-08	-2.365967e+01	-1.283532e+03
5.200000e-07	-3.215865e-06	-1.935504e-08	-2.299398e+01	-1.269657e+03
5.300000e-07	-3.121631e-06	-1.912708e-08	-2.232020e+01	-1.255233e+03
5.400000e-07	-3.026296e-06	-1.889536e-08	-2.163854e+01	-1.240205e+03
5.500000e-07	-2.929955e-06	-1.865493e-08	-2.094968e+01	-1.224522e+03
5.600000e-07	-2.832469e-06	-1.840391e-08	-2.025264e+01	-1.208133e+03
5.700000e-07	-2.733643e-06	-1.814217e-08	-1.954602e+01	-1.191005e+03
5.800000e-07	-2.633726e-06	-1.786806e-08	-1.883159e+01	-1.173109e+03
5.900000e-07	-2.532971e-06	-1.758369e-08	-1.811118e+01	-1.154428e+03
6.000000e-07	-2.431327e-06	-1.728150e-08	-1.738441e+01	-1.134942e+03
6.100000e-07	-2.328791e-06	-1.696942e-08	-1.665126e+01	-1.114623e+03
6.200000e-07	-2.225414e-06	-1.664576e-08	-1.591209e+01	-1.093423e+03
6.300000e-07	-2.121282e-06	-1.630880e-08	-1.516753e+01	-1.071276e+03
6.400000e-07	-2.016419e-06	-1.595308e-08	-1.441775e+01	-1.048094e+03
6.500000e-07	-1.910700e-06	-1.557898e-08	-1.366183e+01	-1.023769e+03
6.600000e-07	-1.804037e-06	-1.518310e-08	-1.289917e+01	-9.981875e+02
6.700000e-07	-1.696582e-06	-1.476561e-08	-1.213085e+01	-9.712301e+02
6.800000e-07	-1.588562e-06	-1.433226e-08	-1.135849e+01	-9.427837e+02
6.900000e-07	-1.480133e-06	-1.387929e-08	-1.058320e+01	-9.127410e+02
7.000000e-07	-1.371313e-06	-1.339894e-08	-9.805120e+00	-8.810001e+02
7.100000e-07	-1.262049e-06	-1.288478e-08	-9.023869e+00	-8.474610e+02
7.200000e-07	-1.152370e-06	-1.233973e-08	-8.239647e+00	-8.120214e+02
7.300000e-07	-1.042347e-06	-1.176322e-08	-7.452957e+00	-7.745776e+02
7.400000e-07	-9.320246e-07	-1.115879e-08	-6.664136e+00	-7.350299e+02
7.500000e-07	-8.214107e-07	-1.052406e-08	-5.873227e+00	-6.932964e+02
7.600000e-07	-7.105745e-07	-9.856015e-09	-5.080730e+00	-6.493328e+02
7.700000e-07	-5.995408e-07	-9.151137e-09	-4.286819e+00	-6.031547e+02
7.800000e-07	-4.882873e-07	-8.410970e-09	-3.491338e+00	-5.548570e+02
7.900000e-07	-3.768761e-07	-7.642094e-09	-2.694729e+00	-5.046243e+02
8.000000e-07	-2.653295e-07	-6.847861e-09	-1.897151e+00	-4.527269e+02
8.100000e-07	-1.536670e-07	-6.036709e-09	-1.098745e+00	-3.994998e+02
8.200000e-07	-4.190975e-08	-5.213458e-09	-2.996619e-01	-3.453061e+02
8.300000e-07	6.997364e-08	-4.383536e-09	5.003236e-01	-2.904886e+02
8.400000e-07	1.818919e-07	-3.546786e-09	1.300558e+00	-2.353203e+02
8.500000e-07	2.936899e-07	-2.706083e-09	2.099933e+00	-1.799611e+02
8.600000e-07	4.053617e-07	-1.859781e-09	2.898405e+00	-1.244329e+02
8.700000e-07	5.169494e-07	-1.007318e-09	3.696277e+00	-6.861946e+01
8.800000e-07	6.283454e-07	-1.475778e-10	4.492777e+00	-1.229340e+01
8.900000e-07	7.394968e-07	7.236679e-10	5.287529e+00	4.483237e+01
9.000000e-07	8.504431e-07	1.608553e-09	6.080814e+00	1.030365e+02
9.100000e-07	9.611424e-07	2.512284e-09	6.872333e+00	1.625167e+02
9.200000e-07	1.071553e-06	3.435254e-09	7.661785e+00	2.233259e+02
9.300000e-07	1.181631e-06	4.378212e-09	8.448862e+00	2.853303e+02
9.400000e-07	1.291300e-06	5.337704e-09	9.233016e+00	3.481956e+02
9.500000e-07	1.400508e-06	6.304642e-09	1.001387e+01	4.114073e+02
9.600000e-07	1.509249e-06	7.267412e-09	1.079139e+01	4.743182e+02
9.700000e-07	1.617551e-06	8.212389e-09	1.156577e+01	5.362181e+02
9.800000e-07	1.725394e-06	9.128547e-09	1.233687e+01	5.964102e+02
9.900000e-07	1.832612e-06	1.000634e-08	1.310349e+01	6.542830e+02
1.000000e-06	1.938971e-06	1.083909e-08	1.386397e+01	7.093653e+02
1.010000e-06	2.044385e-06	1.162299e-08	1.461771e+01	7.613569e+02
1.020000e-06	2.149016e-06	1.235982e-08	1.536584e+01	8.101326e+02
1.030000e-06	2.252848e-06	1.305128e-08	1.610825e+01	8.557210e+02
1.040000e-06	2.355824e-06	1.370008e-08	1.684455e+01	8.982675e+02
1.050000e-06	2.457998e-06	1.430832e-08	1.757511e+01	9.379884e+02
1.060000e-06	2.559264e-06	1.487689e-08	1.829918e+01	9.751267e+02
1.070000e-06	2.659716e-06	1.540423e-08	1.901743e+01	1.009917e+03
1.080000e-06	2.759405e-06	1.589562e-08	1.973022e+01	1.042566e+03
1.090000e-06	2.858054e-06	1.635821e-08	2.043558e+01	1.073241e+03
1.100000e-06	2.955457e-06	1.679609e-08	2.113202e+01	1.102080e+03
1.110000e-06	3.051585e-06	1.720930e-08	2.181936e+01	1.129198e+03
1.120000e-06	3.146598e-06	1.759887e-08	2.249872e+01	1.154704e+03
1.130000e-06	3.240603e-06	1.796590e-08	2.317087e+01	1.178709e+03
1.140000e-06	3.333575e-06	1.831094e-08	2.383564e+01	1.201327e+03
1.150000e-06	3.425579e-06	1.863663e-08	2.449348e+01	1.222680e+03
1.160000e-06	3.516418e-06	1.894485e-08	2.514299e+01	1.242885e+03
1.170000e-06	3.605826e-06	1.923835e-08	2.578228e+01	1.262048e+03
1.180000e-06	3.693833e-06	1.951638e-08	2.641154e+01	1.280256e+03
1.190000e-06	3.780565e-06	1.977901e-08	2.703169e+01	1.297576e+03
1.200000e-06	3.866095e-06	2.002648e-08	2.764324e+01	1.314052e+03
1.210000e-06	3.950464e-06	2.026164e-08	2.824650e+01	1.329719e+03
1.220000e-06	4.033608e-06	2.048793e-08	2.884099e+01	1.344601e+03
1.230000e-06	4.115208e-06	2.070330e-08	2.942444e+01	1.358727e+03
1.240000e-06	4.195175e-06	2.090742e-08	2.999622e+01	1.372135e+03
1.250000e-06	4.273549e-06	2.110252e-08	3.055661e+01	1.384871e+03
1.260000e-06	4.350371e-06	2.128722e-08	3.110590e+01	1.396987e+03
1.270000e-06	4.425592e-06	2.146396e-08	3.164375e+01	1.408539e+03
1.280000e-06	4.498980e-06	2.163183e-08	3.216848e+01	1.419574e+03
1.290000e-06	4.570593e-06	2.179243e-08	3.268053e+01	1.430127e+03
1.300000e-06	4.640560e-06	2.194565e-08	3.318080e+01	1.440217e+03
1.310000e-06	4.708947e-06	2.209434e-08	3.366978e+01	1.449848e+03
1.320000e-06	4.775625e-06	2.223740e-08	3.414654e+01	1.459011e+03
1.330000e-06	4.840408e-06	2.237117e-08	3.460974e+01	1.467693e+03
1.340000e-06	4.903468e-06	2.249581e-08	3.506064e+01	1.475887e+03
1.350000e-06	4.964925e-06	2.261257e-08	3.550006e+01	1.483591e+03
1.360000e-06	5.024804e-06	2.272377e-08	3.592821e+01	1.490823e+03
1.370000e-06	5.082875e-06	2.282849e-08	3.634343e+01	1.497611e+03
1.380000e-06	5.138985e-06	2.292758e-08	3.674462e+01	1.503996e+03
1.390000e-06	5.193223e-06	2.301941e-08	3.713244e+01	1.510026e+03
1.400000e-06	5.245478e-06	2.310434e-08	3.750607e+01	1.515745e+03
1.410000e-06	5.295507e-06	2.318492e-08	3.786378e+01	1.521192e+03
1.420000e-06	5.343391e-06	2.326326e-08	3.820616e+01	1.526393e+03
1.430000e-06	5.389403e-06	2.334056e-08	3.853516e+01	1.531362e+03
1.440000e-06	5.433711e-06	2.341507e-08	3.885197e+01	1.536101e+03
1.450000e-06	5.476129e-06	2.348524e-08	3.915526e+01	1.540604e+03
1.460000e-06	5.516475e-06	2.355100e-08	3.944374e+01	1.544859e+03
1.470000e-06	5.554950e-06	2.361164e-08	3.971885e+01	1.548854e+03
1.480000e-06	5.591657e-06	2.366783e-08	3.998131e+01	1.552582e+03
1.490000e-06	5.626394e-06	2.371974e-08	4.022968e+01	1.556036e+03
1.500000e-06	5.658940e-06	2.376743e-08	4.046239e+01	1.559219e+03
1.510000e-06	5.689513e-06	2.381194e-08	4.068100e+01	1.562135e+03
1.520000e-06	5.718291e-06	2.385383e-08	4.088676e+01	1.564791e+03
1.530000e-06	5.744993e-06	2.389261e-08	4.107769e+01	1.567195e+03
1.540000e-06	5.769410e-06	2.392503e-08	4.125227e+01	1.569357e+03
1.550000e-06	5.791711e-06	2.395192e-08	4.141173e+01	1.571284e+03
1.560000e-06	5.812149e-06	2.397721e-08	4.155786e+01	1.572985e+03
1.570000e-06	5.830667e-06	2.400129e-08	4.169027e+01	1.574466e+03
1.580000e-06	5.846910e-06	2.402194e-08	4.180641e+01	1.575736e+03
1.590000e-06	5.860896e-06	2.403898e-08	4.190641e+01	1.576800e+03
1.600000e-06	5.872666e-06	2.405426e-08	4.199057e+01	1.577663e+03
1.610000e-06	5.882011e-06	2.406669e-08	4.205739e+01	1.578333e+03
1.620000e-06	5.889144e-06	2.407478e-08	4.210839e+01	1.578811e+03
1.630000e-06	5.894351e-06	2.407966e-08	4.214562e+01	1.579104e+03
1.640000e-06	5.897588e-06	2.408201e-08	4.216877e+01	1.579213e+03
1.650000e-06	5.898642e-06	2.408501e-08	4.217630e+01	1.579141e+03
1.660000e-06	5.897526e-06	2.408011e-08	4.216832e+01	1.578892e+03
1.670000e-06	5.894572e-06	2.406578e-08	4.214720e+01	1.578468e+03
1.680000e-06	5.889760e-06	2.405991e-08	4.211280e+01	1.577869e+03
1.690000e-06	5.882830e-06	2.405052e-08	4.206324e+01	1.577098e+03
1.700000e-06	5.873961e-06	2.403664e-08	4.199983e+01	1.576153e+03
1.710000e-06	5.863396e-06	2.402535e-08	4.192429e+01	1.575031e+03
1.720000e-06	5.850800e-06	2.402223e-08	4.183422e+01	1.573730e+03
1.730000e-06	5.836029e-06	2.402802e-08	4.172861e+01	1.572248e+03
1.740000e-06	5.819391e-06	2.388989e-08	4.160965e+01	1.570582e+03
1.750000e-06	5.800604e-06	2.380454e-08	4.147531e+01	1.568736e+03
1.760000e-06	5.778928e-06	2.387070e-08	4.132033e+01	1.566713e+03
1.770000e-06	5.754503e-06	2.382874e-08	4.114569e+01	1.564524e+03
1.780000e-06	5.728151e-06	2.389272e-08	4.095726e+01	1.562176e+03
1.790000e-06	5.700659e-06	2.395043e-08	4.076069e+01	1.559681e+03
1.800000e-06	5.672266e-06	2.361560e-08	4.055767e+01	1.557041e+03
1.810000e-06	5.641758e-06	2.370140e-08	4.033954e+01	1.554257e+03
1.820000e-06	5.608818e-06	2.372492e-08	4.010401e+01	1.551319e+03
1.830000e-06	5.574308e-06	2.342981e-08	3.985726e+01	1.548211e+03
1.840000e-06	5.537749e-06	2.369465e-08	3.959586e+01	1.544909e+03
1.850000e-06	5.498922e-06	2.354146e-08	3.931824e+01	1.541393e+03
1.860000e-06	5.458256e-06	2.330298e-08	3.902747e+01	1.537642e+03
1.870000e-06	5.415721e-06	2.347892e-08	3.872333e+01	1.533643e+03
1.880000e-06	5.371666e-06	2.324288e-08	3.840833e+01	1.529393e+03
1.890000e-06	5.325687e-06	2.325244e-08	3.807957e+01	1.524899e+03
1.900000e-06	5.277299e-06	2.319963e-08	3.773359e+01	1.520173e+03
1.910000e-06	5.226875e-06	2.296098e-08	3.737306e+01	1.515232e+03
1.920000e-06	5.174127e-06	2.312671e-08	3.699590e+01	1.510087e+03
1.930000e-06	5.119189e-06	2.293749e-08	3.660308e+01	1.504743e+03
1.940000e-06	5.062528e-06	2.286947e-08	3.619794e+01	1.499192e+03
1.950000e-06	5.004102e-06	2.280379e-08	3.578019e+01	1.493418e+03
1.960000e-06	4.943943e-06	2.261513e-08	3.535004e+01	1.487394e+03
1.970000e-06	4.881744e-06	2.263408e-08	3.490531e+01	1.481092e+03
1.980000e-06	4.817613e-06	2.240157e-08	3.444676e+01	1.474487e+03
1.990000e-06	4.751815e-06	2.238475e-08	3.397629e+01	1.467563e+03
2.000000e-06	4.684423e-06	2.232214e-08	3.349443e+01	1.460314e+03
2.010000e-06	4.615371e-06	2.213773e-08	3.300070e+01	1.452746e+03
2.020000e-06	4.544305e-06	2.205367e-08	3.249256e+01	1.444873e+03
2.030000e-06	4.471629e-06	2.183088e-08	3.197292e+01	1.436710e+03
2.040000e-06	4.397479e-06	2.180166e-08	3.144273e+01	1.428268e+03
2.050000e-06	4.321601e-06	2.166024e-08	3.090019e+01	1.419548e+03
2.060000e-06	4.243877e-06	2.151006e-08	3.034445e+01	1.410539e+03
2.070000e-06	4.164473e-06	2.139769e-08	2.977669e+01	1.401218e+03
2.080000e-06	4.083657e-06	2.120360e-08	2.919885e+01	1.391552e+03
2.090000e-06	4.001459e-06	2.107843e-08	2.861112e+01	1.381510e+03
2.100000e-06	3.918024e-06	2.087763e-08	2.801455e+01	1.371061e+03
2.110000e-06	3.833192e-06	2.075142e-08	2.740798e+01	1.360185e+03
2.120000e-06	3.746771e-06	2.057707e-08	2.679006e+01	1.348872e+03
2.130000e-06	3.659015e-06	2.039323e-08	2.616258e+01	1.337118e+03
2.140000e-06	3.570116e-06	2.021454e-08	2.552694e+01	1.324925e+03
2.150000e-06	3.480040e-06	2.000507e-08	2.488289e+01	1.312291e+03
2.160000e-06	3.388806e-06	1.982448e-08	2.423055e+01	1.299204e+03
2.170000e-06	3.296433e-06	1.960905e-08	2.357006e+01	1.285637e+03
2.180000e-06	3.202706e-06	1.940820e-08	2.289990e+01	1.271551e+03
2.190000e-06	3.107588e-06	1.917330e-08	2.221979e+01	1.256895e+03
2.200000e-06	3.011350e-06	1.894552e-08	2.153167e+01	1.241615e+03
2.210000e-06	2.914148e-06	1.870269e-08	2.083666e+01	1.225658e+03
2.220000e-06	2.815978e-06	1.844814e-08	2.013472e+01	1.208982e+03
2.230000e-06	2.716838e-06	1.818871e-08	1.942586e+01	1.191553e+03
2.240000e-06	2.616804e-06	1.791234e-08	1.871060e+01	1.173350e+03
2.250000e-06	2.515815e-06	1.763460e-08	1.798851e+01	1.154354e+03
2.260000e-06	2.413724e-06	1.732944e-08	1.725854e+01	1.134544e+03
2.270000e-06	2.310513e-06	1.701331e-08	1.652056e+01	1.113884e+03
2.280000e-06	2.206392e-06	1.667885e-08	1.577608e+01	1.092320e+03
2.290000e-06	2.101562e-06	1.633871e-08	1.502653e+01	1.069777e+03
2.300000e-06	1.996019e-06	1.597986e-08	1.427188e+01	1.046158e+03
2.310000e-06	1.889844e-06	1.560780e-08	1.351271e+01	1.021353e+03
2.320000e-06	1.783143e-06	1.521615e-08	1.274978e+01	9.952430e+02
2.330000e-06	1.675879e-06	1.479800e-08	1.198282e+01	9.677127e+02
2.340000e-06	1.568075e-06	1.435269e-08	1.121201e+01	9.386504e+02
2.350000e-06	1.459859e-06	1.388068e-08	1.043824e+01	9.079514e+02
2.360000e-06	1.351253e-06	1.339052e-08	9.661689e+00	8.755149e+02
2.370000e-06	1.242260e-06	1.287348e-08	8.882370e+00	8.412403e+02
2.380000e-06	1.132908e-06	1.232619e-08	8.100487e+00	8.050246e+02
2.390000e-06	1.023092e-06	1.173944e-08	7.315282e+00	7.667643e+02
2.400000e-06	9.128031e-07	1.111766e-08	6.526699e+00	7.263649e+02
2.410000e-06	8.021305e-07	1.046369e-08	5.735371e+00	6.837566e+02
2.420000e-06	6.911470e-07	9.781581e-09	4.941819e+00	6.389159e+02
2.430000e-06	5.800317e-07	9.070409e-09	4.147326e+00	5.918878e+02
2.440000e-06	4.687734e-07	8.328899e-09	3.351810e+00	5.428017e+02
2.450000e-06	3.572951e-07	7.555994e-09	2.554721e+00	4.918773e+02
2.460000e-06	2.457111e-07	6.751798e-09	1.756876e+00	4.394139e+02
2.470000e-06	1.340415e-07	5.925673e-09	9.584197e-01	3.857626e+02
2.480000e-06	2.232144e-08	5.089783e-09	1.596022e-01	3.312845e+02
2.490000e-06	-8.943357e-08	4.250775e-09	-6.394654e-01	2.763010e+02
2.500000e-06	-2.011882e-07	3.406535e-09	-1.438530e+00	2.210447e+02
2.510000e-06	-3.128648e-07	2.560433e-09	-2.237037e+00	1.656232e+02
2.520000e-06	-4.244434e-07	1.710684e-09	-3.034843e+00	1.100027e+02
2.530000e-06	-5.358302e-07	8.511819e-10	-3.831278e+00	5.401852e+01
2.540000e-06	-6.469971e-07	-1.741558e-11	-4.626141e+00	-2.587501e+00
2.550000e-06	-7.579798e-07	-8.963853e-10	-5.419685e+00	-6.010777e+01
2.560000e-06	-8.687184e-07	-1.788357e-09	-6.211486e+00	-1.187976e+02
2.570000e-06	-9.790559e-07	-2.699630e-09	-7.000418e+00	-1.788044e+02
2.580000e-06	-1.088905e-06	-3.633942e-09	-7.785856e+00	-2.401115e+02
2.590000e-06	-1.198305e-06	-4.586764e-09	-8.568086e+00	-3.025059e+02
2.600000e-06	-1.307299e-06	-5.552960e-09	-9.347416e+00	-3.655785e+02
2.610000e-06	-1.415893e-06	-6.520799e-09	-1.012388e+01	-4.287555e+02
2.620000e-06	-1.524066e-06	-7.477758e-09	-1.089733e+01	-4.913562e+02
2.630000e-06	-1.631740e-06	-8.413540e-09	-1.166722e+01	-5.526662e+02
2.640000e-06	-1.738808e-06	-9.317586e-09	-1.243277e+01	-6.120144e+02
2.650000e-06	-1.845278e-06	-1.018561e-08	-1.319406e+01	-6.688392e+02
2.660000e-06	-1.951164e-06	-1.101268e-08	-1.395116e+01	-7.227344e+02
2.670000e-06	-2.056363e-06	-1.179185e-08	-1.470335e+01	-7.734696e+02
2.680000e-06	-2.160869e-06	-1.252239e-08	-1.545059e+01	-8.209834e+02
2.690000e-06	-2.264632e-06	-1.320190e-08	-1.619251e+01	-8.653556e+02
2.700000e-06	-2.367377e-06	-1.383529e-08	-1.692715e+01	-9.067651e+02
2.710000e-06	-2.469001e-06	-1.443065e-08	-1.765378e+01	-9.454434e+02
2.720000e-06	-2.569667e-06	-1.498975e-08	-1.837356e+01	-9.816339e+02
2.730000e-06	-2.669430e-06	-1.551090e-08	-1.908688e+01	-1.015562e+03
2.740000e-06	-2.768276e-06	-1.599615e-08	-1.979365e+01	-1.047418e+03
2.750000e-06	-2.866227e-06	-1.645169e-08	-2.049401e+01	-1.077358e+03
2.760000e-06	-2.963192e-06	-1.687898e-08	-2.118733e+01	-1.105509e+03
2.770000e-06	-3.059226e-06	-1.728280e-08	-2.187399e+01	-1.131982e+03
2.780000e-06	-3.154317e-06	-1.766689e-08	-2.255391e+01	-1.156886e+03
2.790000e-06	-3.248182e-06	-1.802887e-08	-2.322506e+01	-1.180333e+03
2.800000e-06	-3.340764e-06	-1.836774e-08	-2.388704e+01	-1.202441e+03
2.810000e-06	-3.432162e-06	-1.868612e-08	-2.454055e+01	-1.223331e+03
2.820000e-06	-3.522358e-06	-1.898734e-08	-2.518546e+01	-1.243116e+03
2.830000e-06	-3.611297e-06	-1.927377e-08	-2.582139e+01	-1.261895e+03
2.840000e-06	-3.699084e-06	-1.954688e-08	-2.644909e+01	-1.279749e+03
2.850000e-06	-3.785587e-06	-1.980658e-08	-2.706760e+01	-1.296734e+03
2.860000e-06	-3.870553e-06	-2.005339e-08	-2.767512e+01	-1.312890e+03
2.870000e-06	-3.954101e-06	-2.029013e-08	-2.827250e+01	-1.328247e+03
2.880000e-06	-4.036337e-06	-2.051672e-08	-2.886050e+01	-1.342829e+03
2.890000e-06	-4.117191e-06	-2.073174e-08	-2.943862e+01	-1.356670e+03
2.900000e-06	-4.196498e-06	-2.093230e-08	-3.000568e+01	-1.369809e+03
2.910000e-06	-4.274061e-06	-2.112104e-08	-3.056027e+01	-1.382296e+03
2.920000e-06	-4.349876e-06	-2.130190e-08	-3.110236e+01	-1.394185e+03
2.930000e-06	-4.424079e-06	-2.147491e-08	-3.163292e+01	-1.405530e+03
2.940000e-06	-4.496723e-06	-2.163995e-08	-3.215234e+01	-1.416373e+03
