# Temperatura_=_45.48
# Concentracion g/m^3_=_28200.0
# C_Vs_to_Am_M_A/Vsm_=_65563218390.804596
# pendiente_HvsI_1/m_=_3716.3
# ordenada_HvsI_A/m_=_1297.0
# frecuencia_Hz_=_301916.7596068872

Tiempo_(s)	Campo_(V.s)	Magnetizacion_(V.s)	Campo_(kA/m)	Magnetizacion_(A/m)
0.000000e+00	-5.849424e-06	-2.105967e-08	-4.195136e+01	-1.379197e+03
1.000000e-08	-5.847540e-06	-2.106081e-08	-4.193785e+01	-1.378937e+03
2.000000e-08	-5.843595e-06	-2.105614e-08	-4.190955e+01	-1.378544e+03
3.000000e-08	-5.837823e-06	-2.104637e-08	-4.186816e+01	-1.378017e+03
4.000000e-08	-5.830302e-06	-2.103691e-08	-4.181422e+01	-1.377348e+03
5.000000e-08	-5.820891e-06	-2.102299e-08	-4.174673e+01	-1.376531e+03
6.000000e-08	-5.809291e-06	-2.100298e-08	-4.166353e+01	-1.375559e+03
7.000000e-08	-5.795560e-06	-2.097500e-08	-4.156505e+01	-1.374428e+03
8.000000e-08	-5.779677e-06	-2.094400e-08	-4.145114e+01	-1.373141e+03
9.000000e-08	-5.761573e-06	-2.097843e-08	-4.132131e+01	-1.371707e+03
1.000000e-07	-5.741360e-06	-2.101222e-08	-4.117634e+01	-1.370143e+03
1.100000e-07	-5.718987e-06	-2.094123e-08	-4.101588e+01	-1.368463e+03
1.200000e-07	-5.694430e-06	-2.088787e-08	-4.083977e+01	-1.366683e+03
1.300000e-07	-5.667766e-06	-2.084965e-08	-4.064853e+01	-1.364812e+03
1.400000e-07	-5.639499e-06	-2.070159e-08	-4.044581e+01	-1.362848e+03
1.500000e-07	-5.609853e-06	-2.072983e-08	-4.023319e+01	-1.360777e+03
1.600000e-07	-5.578534e-06	-2.082573e-08	-4.000857e+01	-1.358577e+03
1.700000e-07	-5.545403e-06	-2.066831e-08	-3.977096e+01	-1.356218e+03
1.800000e-07	-5.510354e-06	-2.071820e-08	-3.951959e+01	-1.353666e+03
1.900000e-07	-5.473319e-06	-2.071704e-08	-3.925398e+01	-1.350895e+03
2.000000e-07	-5.434390e-06	-2.051376e-08	-3.897479e+01	-1.347885e+03
2.100000e-07	-5.393535e-06	-2.053611e-08	-3.868178e+01	-1.344633e+03
2.200000e-07	-5.350540e-06	-2.046226e-08	-3.837343e+01	-1.341146e+03
2.300000e-07	-5.305528e-06	-2.035037e-08	-3.805060e+01	-1.337444e+03
2.400000e-07	-5.258565e-06	-2.035735e-08	-3.771379e+01	-1.333554e+03
2.500000e-07	-5.209373e-06	-2.029317e-08	-3.736099e+01	-1.329499e+03
2.600000e-07	-5.157798e-06	-2.026233e-08	-3.699111e+01	-1.325296e+03
2.700000e-07	-5.104008e-06	-2.019130e-08	-3.660533e+01	-1.320949e+03
2.800000e-07	-5.048404e-06	-2.006836e-08	-3.620654e+01	-1.316447e+03
2.900000e-07	-4.991006e-06	-1.999540e-08	-3.579489e+01	-1.311766e+03
3.000000e-07	-4.931632e-06	-1.992660e-08	-3.536907e+01	-1.306874e+03
3.100000e-07	-4.870480e-06	-1.988015e-08	-3.493049e+01	-1.301736e+03
3.200000e-07	-4.807627e-06	-1.980392e-08	-3.447972e+01	-1.296322e+03
3.300000e-07	-4.742971e-06	-1.971484e-08	-3.401602e+01	-1.290614e+03
3.400000e-07	-4.676441e-06	-1.959649e-08	-3.353887e+01	-1.284607e+03
3.500000e-07	-4.608127e-06	-1.947353e-08	-3.304893e+01	-1.278310e+03
3.600000e-07	-4.538182e-06	-1.939523e-08	-3.254729e+01	-1.271737e+03
3.700000e-07	-4.466764e-06	-1.929429e-08	-3.203509e+01	-1.264909e+03
3.800000e-07	-4.393802e-06	-1.921057e-08	-3.151182e+01	-1.257839e+03
3.900000e-07	-4.318969e-06	-1.909769e-08	-3.097513e+01	-1.250532e+03
4.000000e-07	-4.242326e-06	-1.894427e-08	-3.042545e+01	-1.242978e+03
4.100000e-07	-4.164004e-06	-1.881739e-08	-2.986373e+01	-1.235156e+03
4.200000e-07	-4.083983e-06	-1.869842e-08	-2.928983e+01	-1.227037e+03
4.300000e-07	-4.002503e-06	-1.858414e-08	-2.870547e+01	-1.218585e+03
4.400000e-07	-3.919779e-06	-1.844996e-08	-2.811218e+01	-1.209772e+03
4.500000e-07	-3.835854e-06	-1.831502e-08	-2.751028e+01	-1.200575e+03
4.600000e-07	-3.750718e-06	-1.816851e-08	-2.689970e+01	-1.190980e+03
4.700000e-07	-3.664364e-06	-1.800720e-08	-2.628037e+01	-1.180984e+03
4.800000e-07	-3.576862e-06	-1.784887e-08	-2.565282e+01	-1.170589e+03
4.900000e-07	-3.488162e-06	-1.767900e-08	-2.501668e+01	-1.159796e+03
5.000000e-07	-3.398057e-06	-1.750555e-08	-2.437046e+01	-1.148598e+03
5.100000e-07	-3.306523e-06	-1.732512e-08	-2.371398e+01	-1.136977e+03
5.200000e-07	-3.213828e-06	-1.714243e-08	-2.304918e+01	-1.124904e+03
5.300000e-07	-3.120035e-06	-1.694789e-08	-2.237652e+01	-1.112339e+03
5.400000e-07	-3.025090e-06	-1.674384e-08	-2.169558e+01	-1.099234e+03
5.500000e-07	-2.929076e-06	-1.653473e-08	-2.100698e+01	-1.085541e+03
5.600000e-07	-2.831990e-06	-1.631626e-08	-2.031069e+01	-1.071218e+03
5.700000e-07	-2.733705e-06	-1.608955e-08	-1.960580e+01	-1.056227e+03
5.800000e-07	-2.634221e-06	-1.585206e-08	-1.889231e+01	-1.040544e+03
5.900000e-07	-2.533790e-06	-1.559996e-08	-1.817204e+01	-1.024145e+03
6.000000e-07	-2.432544e-06	-1.532620e-08	-1.744591e+01	-1.007010e+03
6.100000e-07	-2.330428e-06	-1.504114e-08	-1.671355e+01	-9.891080e+02
6.200000e-07	-2.227454e-06	-1.475639e-08	-1.597503e+01	-9.703987e+02
6.300000e-07	-2.123690e-06	-1.446633e-08	-1.523085e+01	-9.508238e+02
6.400000e-07	-2.019159e-06	-1.416096e-08	-1.448117e+01	-9.303089e+02
6.500000e-07	-1.913887e-06	-1.383341e-08	-1.372617e+01	-9.087661e+02
6.600000e-07	-1.807871e-06	-1.348154e-08	-1.296583e+01	-8.860986e+02
6.700000e-07	-1.701039e-06	-1.310766e-08	-1.219964e+01	-8.622065e+02
6.800000e-07	-1.593466e-06	-1.271854e-08	-1.142814e+01	-8.369916e+02
6.900000e-07	-1.485369e-06	-1.231497e-08	-1.065289e+01	-8.103599e+02
7.000000e-07	-1.376873e-06	-1.188975e-08	-9.874767e+00	-7.822219e+02
7.100000e-07	-1.268021e-06	-1.143555e-08	-9.094095e+00	-7.524917e+02
7.200000e-07	-1.158807e-06	-1.095148e-08	-8.310825e+00	-7.210869e+02
7.300000e-07	-1.049165e-06	-1.044048e-08	-7.524485e+00	-6.879303e+02
7.400000e-07	-9.391512e-07	-9.906240e-09	-6.735479e+00	-6.529570e+02
7.500000e-07	-8.288365e-07	-9.349002e-09	-5.944315e+00	-6.161247e+02
7.600000e-07	-7.182710e-07	-8.764628e-09	-5.151353e+00	-5.774291e+02
7.700000e-07	-6.075467e-07	-8.147056e-09	-4.357252e+00	-5.369196e+02
7.800000e-07	-4.966573e-07	-7.497130e-09	-3.561966e+00	-4.947114e+02
7.900000e-07	-3.855694e-07	-6.824599e-09	-2.765257e+00	-4.509911e+02
8.000000e-07	-2.743747e-07	-6.136608e-09	-1.967783e+00	-4.060109e+02
8.100000e-07	-1.630998e-07	-5.438049e-09	-1.169732e+00	-3.600701e+02
8.200000e-07	-5.167803e-08	-4.733466e-09	-3.706286e-01	-3.134851e+02
8.300000e-07	5.979388e-08	-4.024901e-09	4.288345e-01	-2.665507e+02
8.400000e-07	1.712483e-07	-3.312572e-09	1.228172e+00	-2.195011e+02
8.500000e-07	2.827003e-07	-2.596965e-09	2.027492e+00	-1.724745e+02
8.600000e-07	3.940866e-07	-1.877474e-09	2.826342e+00	-1.254924e+02
8.700000e-07	5.053741e-07	-1.155027e-09	3.624482e+00	-7.845631e+01
8.800000e-07	6.164969e-07	-4.297861e-10	4.421441e+00	-3.116604e+01
8.900000e-07	7.273737e-07	2.993810e-10	5.216636e+00	1.664319e+01
9.000000e-07	8.380271e-07	1.036681e-09	6.010229e+00	6.524894e+01
9.100000e-07	9.484338e-07	1.790433e-09	6.802052e+00	1.148840e+02
9.200000e-07	1.058581e-06	2.564611e-09	7.592017e+00	1.656826e+02
9.300000e-07	1.168402e-06	3.357919e-09	8.379641e+00	2.176396e+02
9.400000e-07	1.277781e-06	4.166779e-09	9.164089e+00	2.705900e+02
9.500000e-07	1.386749e-06	4.985179e-09	9.945600e+00	3.242120e+02
9.600000e-07	1.495368e-06	5.805780e-09	1.072460e+01	3.780532e+02
9.700000e-07	1.603571e-06	6.622357e-09	1.150062e+01	4.315755e+02
9.800000e-07	1.711202e-06	7.427284e-09	1.227253e+01	4.842101e+02
9.900000e-07	1.818058e-06	8.207958e-09	1.303889e+01	5.354141e+02
1.000000e-06	1.924019e-06	8.953947e-09	1.379883e+01	5.847206e+02
1.010000e-06	2.029184e-06	9.662015e-09	1.455306e+01	6.317734e+02
1.020000e-06	2.133608e-06	1.033350e-08	1.530198e+01	6.763445e+02
1.030000e-06	2.237190e-06	1.096836e-08	1.604485e+01	7.183331e+02
1.040000e-06	2.339894e-06	1.156591e-08	1.678144e+01	7.577490e+02
1.050000e-06	2.441745e-06	1.212828e-08	1.751190e+01	7.946856e+02
1.060000e-06	2.542750e-06	1.265521e-08	1.823630e+01	8.292896e+02
1.070000e-06	2.642992e-06	1.314577e-08	1.895522e+01	8.617310e+02
1.080000e-06	2.742400e-06	1.360434e-08	1.966816e+01	8.921807e+02
1.090000e-06	2.840691e-06	1.403598e-08	2.037309e+01	9.207952e+02
1.100000e-06	2.937819e-06	1.444553e-08	2.106968e+01	9.477110e+02
1.110000e-06	3.033842e-06	1.483261e-08	2.175835e+01	9.730453e+02
1.120000e-06	3.128740e-06	1.519814e-08	2.243894e+01	9.969008e+02
1.130000e-06	3.222561e-06	1.554249e-08	2.311182e+01	1.019373e+03
1.140000e-06	3.315399e-06	1.586501e-08	2.377764e+01	1.040552e+03
1.150000e-06	3.407255e-06	1.616721e-08	2.443642e+01	1.060531e+03
1.160000e-06	3.497870e-06	1.645207e-08	2.508630e+01	1.079401e+03
1.170000e-06	3.587086e-06	1.672514e-08	2.572615e+01	1.097248e+03
1.180000e-06	3.674980e-06	1.698430e-08	2.635651e+01	1.114153e+03
1.190000e-06	3.761616e-06	1.722817e-08	2.697786e+01	1.130186e+03
1.200000e-06	3.847041e-06	1.745868e-08	2.759051e+01	1.145408e+03
1.210000e-06	3.931279e-06	1.767587e-08	2.819466e+01	1.159867e+03
1.220000e-06	4.014164e-06	1.788147e-08	2.878910e+01	1.173605e+03
1.230000e-06	4.095528e-06	1.807703e-08	2.937263e+01	1.186656e+03
1.240000e-06	4.175353e-06	1.826461e-08	2.994513e+01	1.199056e+03
1.250000e-06	4.253646e-06	1.844520e-08	3.050663e+01	1.210836e+03
1.260000e-06	4.330398e-06	1.861729e-08	3.105709e+01	1.222029e+03
1.270000e-06	4.405470e-06	1.878082e-08	3.159550e+01	1.232669e+03
1.280000e-06	4.478755e-06	1.893606e-08	3.212109e+01	1.242785e+03
1.290000e-06	4.550307e-06	1.908412e-08	3.263425e+01	1.252402e+03
1.300000e-06	4.620202e-06	1.922346e-08	3.313553e+01	1.261539e+03
1.310000e-06	4.688507e-06	1.935530e-08	3.362541e+01	1.270209e+03
1.320000e-06	4.755100e-06	1.948144e-08	3.410300e+01	1.278420e+03
1.330000e-06	4.819884e-06	1.960047e-08	3.456763e+01	1.286181e+03
1.340000e-06	4.882999e-06	1.971109e-08	3.502028e+01	1.293501e+03
1.350000e-06	4.944484e-06	1.981440e-08	3.546124e+01	1.300394e+03
1.360000e-06	5.004335e-06	1.991258e-08	3.589049e+01	1.306881e+03
1.370000e-06	5.062377e-06	2.000661e-08	3.630676e+01	1.312990e+03
1.380000e-06	5.118478e-06	2.009611e-08	3.670911e+01	1.318755e+03
1.390000e-06	5.172770e-06	2.017793e-08	3.709848e+01	1.324212e+03
1.400000e-06	5.225138e-06	2.025383e-08	3.747406e+01	1.329393e+03
1.410000e-06	5.275243e-06	2.032752e-08	3.783341e+01	1.334328e+03
1.420000e-06	5.323127e-06	2.039970e-08	3.817682e+01	1.339036e+03
1.430000e-06	5.369160e-06	2.046894e-08	3.850697e+01	1.343526e+03
1.440000e-06	5.413523e-06	2.053414e-08	3.882514e+01	1.347797e+03
1.450000e-06	5.456000e-06	2.059601e-08	3.912977e+01	1.351841e+03
1.460000e-06	5.496348e-06	2.065521e-08	3.941914e+01	1.355648e+03
1.470000e-06	5.534767e-06	2.070958e-08	3.969468e+01	1.359205e+03
1.480000e-06	5.571442e-06	2.075800e-08	3.995771e+01	1.362503e+03
1.490000e-06	5.606180e-06	2.080161e-08	4.020684e+01	1.365539e+03
1.500000e-06	5.638795e-06	2.084166e-08	4.044076e+01	1.368318e+03
1.510000e-06	5.669395e-06	2.088029e-08	4.066021e+01	1.370849e+03
1.520000e-06	5.698169e-06	2.091703e-08	4.086658e+01	1.373147e+03
1.530000e-06	5.724959e-06	2.095008e-08	4.105872e+01	1.375227e+03
1.540000e-06	5.749533e-06	2.097812e-08	4.123496e+01	1.377106e+03
1.550000e-06	5.771999e-06	2.100223e-08	4.139608e+01	1.378794e+03
1.560000e-06	5.792559e-06	2.102274e-08	4.154353e+01	1.380302e+03
1.570000e-06	5.811153e-06	2.104124e-08	4.167689e+01	1.381630e+03
1.580000e-06	5.827575e-06	2.105780e-08	4.179466e+01	1.382780e+03
1.590000e-06	5.841811e-06	2.107151e-08	4.189676e+01	1.383750e+03
1.600000e-06	5.853833e-06	2.108256e-08	4.198298e+01	1.384538e+03
1.610000e-06	5.863468e-06	2.109243e-08	4.205208e+01	1.385146e+03
1.620000e-06	5.870833e-06	2.110146e-08	4.210490e+01	1.385578e+03
1.630000e-06	5.876210e-06	2.110664e-08	4.214347e+01	1.385841e+03
1.640000e-06	5.879581e-06	2.110901e-08	4.216764e+01	1.385947e+03
1.650000e-06	5.880788e-06	2.111270e-08	4.217630e+01	1.385905e+03
1.660000e-06	5.879904e-06	2.111173e-08	4.216996e+01	1.385725e+03
1.670000e-06	5.877178e-06	2.110144e-08	4.215041e+01	1.385412e+03
1.680000e-06	5.872634e-06	2.109300e-08	4.211782e+01	1.384966e+03
1.690000e-06	5.866013e-06	2.108434e-08	4.207033e+01	1.384383e+03
1.700000e-06	5.857381e-06	2.107321e-08	4.200843e+01	1.383657e+03
1.710000e-06	5.847002e-06	2.106325e-08	4.193399e+01	1.382778e+03
1.720000e-06	5.834675e-06	2.106017e-08	4.184559e+01	1.381742e+03
1.730000e-06	5.820187e-06	2.106401e-08	4.174168e+01	1.380548e+03
1.740000e-06	5.803726e-06	2.097813e-08	4.162362e+01	1.379202e+03
1.750000e-06	5.785150e-06	2.089566e-08	4.149040e+01	1.377714e+03
1.760000e-06	5.763771e-06	2.092960e-08	4.133707e+01	1.376101e+03
1.770000e-06	5.739599e-06	2.091343e-08	4.116371e+01	1.374380e+03
1.780000e-06	5.713399e-06	2.094866e-08	4.097581e+01	1.372563e+03
1.790000e-06	5.686020e-06	2.100179e-08	4.077945e+01	1.370655e+03
1.800000e-06	5.657752e-06	2.078521e-08	4.057671e+01	1.368650e+03
1.810000e-06	5.627558e-06	2.077748e-08	4.036017e+01	1.366531e+03
1.820000e-06	5.594972e-06	2.081590e-08	4.012646e+01	1.364272e+03
1.830000e-06	5.560705e-06	2.062666e-08	3.988071e+01	1.361840e+03
1.840000e-06	5.524525e-06	2.076026e-08	3.962123e+01	1.359204e+03
1.850000e-06	5.486080e-06	2.072549e-08	3.934550e+01	1.356340e+03
1.860000e-06	5.445660e-06	2.054739e-08	3.905562e+01	1.353234e+03
1.870000e-06	5.403314e-06	2.065377e-08	3.875191e+01	1.349886e+03
1.880000e-06	5.359366e-06	2.052414e-08	3.843673e+01	1.346311e+03
1.890000e-06	5.313647e-06	2.045505e-08	3.810884e+01	1.342532e+03
1.900000e-06	5.265639e-06	2.041388e-08	3.776453e+01	1.338573e+03
1.910000e-06	5.215541e-06	2.023192e-08	3.740523e+01	1.334458e+03
1.920000e-06	5.163299e-06	2.032776e-08	3.703056e+01	1.330198e+03
1.930000e-06	5.108873e-06	2.025317e-08	3.664022e+01	1.325791e+03
1.940000e-06	5.052520e-06	2.015358e-08	3.623606e+01	1.321222e+03
1.950000e-06	4.994318e-06	2.010991e-08	3.581865e+01	1.316461e+03
1.960000e-06	4.934424e-06	1.995299e-08	3.538909e+01	1.311475e+03
1.970000e-06	4.872646e-06	1.992411e-08	3.494603e+01	1.306231e+03
1.980000e-06	4.808909e-06	1.978292e-08	3.448892e+01	1.300702e+03
1.990000e-06	4.743446e-06	1.973540e-08	3.401942e+01	1.294876e+03
2.000000e-06	4.676397e-06	1.970844e-08	3.353855e+01	1.288752e+03
2.010000e-06	4.607792e-06	1.955687e-08	3.304652e+01	1.282344e+03
2.020000e-06	4.537264e-06	1.946464e-08	3.254071e+01	1.275668e+03
2.030000e-06	4.464957e-06	1.929772e-08	3.202213e+01	1.268743e+03
2.040000e-06	4.391097e-06	1.924429e-08	3.149242e+01	1.261579e+03
2.050000e-06	4.315630e-06	1.916321e-08	3.095118e+01	1.254175e+03
2.060000e-06	4.238501e-06	1.902954e-08	3.039802e+01	1.246519e+03
2.070000e-06	4.159591e-06	1.893049e-08	2.983208e+01	1.238583e+03
2.080000e-06	4.079161e-06	1.876603e-08	2.925525e+01	1.230336e+03
2.090000e-06	3.997370e-06	1.863848e-08	2.866866e+01	1.221745e+03
2.100000e-06	3.914247e-06	1.847759e-08	2.807250e+01	1.212782e+03
2.110000e-06	3.829853e-06	1.835157e-08	2.746724e+01	1.203429e+03
2.120000e-06	3.744035e-06	1.821852e-08	2.685177e+01	1.193676e+03
2.130000e-06	3.656752e-06	1.806259e-08	2.622578e+01	1.183522e+03
2.140000e-06	3.568183e-06	1.791519e-08	2.559058e+01	1.172970e+03
2.150000e-06	3.478427e-06	1.773577e-08	2.494686e+01	1.162018e+03
2.160000e-06	3.387495e-06	1.757091e-08	2.429470e+01	1.150656e+03
2.170000e-06	3.295433e-06	1.738674e-08	2.363445e+01	1.138861e+03
2.180000e-06	3.202164e-06	1.720418e-08	2.296554e+01	1.126599e+03
2.190000e-06	3.107577e-06	1.700422e-08	2.228717e+01	1.113827e+03
2.200000e-06	3.011760e-06	1.680152e-08	2.159998e+01	1.100496e+03
2.210000e-06	2.914906e-06	1.659462e-08	2.090536e+01	1.086559e+03
2.220000e-06	2.817035e-06	1.637230e-08	2.020343e+01	1.071976e+03
2.230000e-06	2.718166e-06	1.614308e-08	1.949436e+01	1.056716e+03
2.240000e-06	2.618383e-06	1.590305e-08	1.877873e+01	1.040753e+03
2.250000e-06	2.517691e-06	1.566505e-08	1.805657e+01	1.024067e+03
2.260000e-06	2.416100e-06	1.540147e-08	1.732798e+01	1.006633e+03
2.270000e-06	2.313435e-06	1.511654e-08	1.659167e+01	9.884192e+02
2.280000e-06	2.209669e-06	1.481574e-08	1.584748e+01	9.693768e+02
2.290000e-06	2.105124e-06	1.450993e-08	1.509769e+01	9.494415e+02
2.300000e-06	1.999953e-06	1.419458e-08	1.434342e+01	9.285331e+02
2.310000e-06	1.894112e-06	1.386825e-08	1.358435e+01	9.065594e+02
2.320000e-06	1.787684e-06	1.352693e-08	1.282105e+01	8.834218e+02
2.330000e-06	1.680739e-06	1.315692e-08	1.205406e+01	8.590208e+02
2.340000e-06	1.573274e-06	1.275814e-08	1.128333e+01	8.332594e+02
2.350000e-06	1.465319e-06	1.233503e-08	1.050909e+01	8.060455e+02
2.360000e-06	1.356912e-06	1.189978e-08	9.731606e+00	7.772912e+02
2.370000e-06	1.248154e-06	1.144650e-08	8.951607e+00	7.469119e+02
2.380000e-06	1.139100e-06	1.096507e-08	8.169484e+00	7.148267e+02
2.390000e-06	1.029707e-06	1.044629e-08	7.384934e+00	6.809624e+02
2.400000e-06	9.199322e-07	9.892718e-09	6.597642e+00	6.452612e+02
2.410000e-06	8.097455e-07	9.313051e-09	5.807397e+00	6.076939e+02
2.420000e-06	6.991700e-07	8.713361e-09	5.014363e+00	5.682756e+02
2.430000e-06	5.882921e-07	8.092190e-09	4.219160e+00	5.270801e+02
2.440000e-06	4.772804e-07	7.445905e-09	3.422997e+00	4.842509e+02
2.450000e-06	3.661472e-07	6.772695e-09	2.625963e+00	4.400015e+02
2.460000e-06	2.548734e-07	6.074795e-09	1.827921e+00	3.946057e+02
2.470000e-06	1.435071e-07	5.362803e-09	1.029216e+00	3.483735e+02
2.480000e-06	3.202120e-08	4.643809e-09	2.296522e-01	3.016177e+02
2.490000e-06	-7.951861e-08	3.923837e-09	-5.702978e-01	2.546140e+02
2.500000e-06	-1.909729e-07	3.205944e-09	-1.369635e+00	2.075622e+02
2.510000e-06	-3.022762e-07	2.491401e-09	-2.167888e+00	1.605565e+02
2.520000e-06	-4.134511e-07	1.777459e-09	-2.965221e+00	1.135703e+02
2.530000e-06	-5.245335e-07	1.058249e-09	-3.761891e+00	6.646199e+01
2.540000e-06	-6.354829e-07	3.314022e-10	-4.557606e+00	1.900052e+01
2.550000e-06	-7.461665e-07	-4.052529e-10	-5.351416e+00	-2.909057e+01
2.560000e-06	-8.565121e-07	-1.153723e-09	-6.142801e+00	-7.807814e+01
2.570000e-06	-9.664581e-07	-1.915885e-09	-6.931321e+00	-1.281622e+02
2.580000e-06	-1.076000e-06	-2.695591e-09	-7.716940e+00	-1.794260e+02
2.590000e-06	-1.185188e-06	-3.492887e-09	-8.500025e+00	-2.318028e+02
2.600000e-06	-1.294003e-06	-4.308329e-09	-9.280433e+00	-2.850643e+02
2.610000e-06	-1.402431e-06	-5.132777e-09	-1.005807e+01	-3.388331e+02
2.620000e-06	-1.510404e-06	-5.953128e-09	-1.083243e+01	-3.926171e+02
2.630000e-06	-1.617844e-06	-6.762631e-09	-1.160298e+01	-4.458591e+02
2.640000e-06	-1.724719e-06	-7.555936e-09	-1.236947e+01	-4.979940e+02
2.650000e-06	-1.831001e-06	-8.329475e-09	-1.313172e+01	-5.485035e+02
2.660000e-06	-1.936664e-06	-9.075609e-09	-1.388952e+01	-5.969611e+02
2.670000e-06	-2.041612e-06	-9.786429e-09	-1.464219e+01	-6.430597e+02
2.680000e-06	-2.145854e-06	-1.045738e-08	-1.538981e+01	-6.866226e+02
2.690000e-06	-2.249289e-06	-1.108608e-08	-1.613163e+01	-7.275948e+02
2.700000e-06	-2.351690e-06	-1.167459e-08	-1.686604e+01	-7.660228e+02
2.710000e-06	-2.453106e-06	-1.222862e-08	-1.759338e+01	-8.020245e+02
2.720000e-06	-2.553578e-06	-1.274853e-08	-1.831396e+01	-8.357590e+02
2.730000e-06	-2.653111e-06	-1.323440e-08	-1.902779e+01	-8.673990e+02
2.740000e-06	-2.751773e-06	-1.368929e-08	-1.973539e+01	-8.971109e+02
2.750000e-06	-2.849513e-06	-1.411529e-08	-2.043636e+01	-9.250438e+02
2.760000e-06	-2.946298e-06	-1.451696e-08	-2.113050e+01	-9.513261e+02
2.770000e-06	-3.042177e-06	-1.489805e-08	-2.181813e+01	-9.760686e+02
2.780000e-06	-3.137038e-06	-1.525754e-08	-2.249846e+01	-9.993703e+02
2.790000e-06	-3.230711e-06	-1.559473e-08	-2.317027e+01	-1.021324e+03
2.800000e-06	-3.323159e-06	-1.590998e-08	-2.383330e+01	-1.042022e+03
2.810000e-06	-3.414376e-06	-1.620634e-08	-2.448749e+01	-1.061556e+03
2.820000e-06	-3.504404e-06	-1.648610e-08	-2.513316e+01	-1.080014e+03
2.830000e-06	-3.593245e-06	-1.675066e-08	-2.577032e+01	-1.097483e+03
2.840000e-06	-3.680859e-06	-1.700335e-08	-2.639868e+01	-1.114038e+03
2.850000e-06	-3.767083e-06	-1.724664e-08	-2.701706e+01	-1.129747e+03
2.860000e-06	-3.851840e-06	-1.748142e-08	-2.762493e+01	-1.144665e+03
2.870000e-06	-3.935275e-06	-1.770485e-08	-2.822332e+01	-1.158837e+03
2.880000e-06	-4.017428e-06	-1.791442e-08	-2.881251e+01	-1.172302e+03
2.890000e-06	-4.098209e-06	-1.810920e-08	-2.939186e+01	-1.185094e+03
2.900000e-06	-4.177394e-06	-1.829007e-08	-2.995976e+01	-1.197247e+03
2.910000e-06	-4.254820e-06	-1.846235e-08	-3.051505e+01	-1.208794e+03
2.920000e-06	-4.330595e-06	-1.862834e-08	-3.105850e+01	-1.219767e+03
2.930000e-06	-4.404776e-06	-1.878813e-08	-3.159052e+01	-1.230199e+03
2.940000e-06	-4.477363e-06	-1.894050e-08	-3.211110e+01	-1.240117e+03
