# Temperatura_=_51.8
# Concentracion g/m^3_=_28200.0
# C_Vs_to_Am_M_A/Vsm_=_65563218390.804596
# pendiente_HvsI_1/m_=_3716.3
# ordenada_HvsI_A/m_=_1297.0
# frecuencia_Hz_=_301917.00142597855

Tiempo_(s)	Campo_(V.s)	Magnetizacion_(V.s)	Campo_(kA/m)	Magnetizacion_(A/m)
0.000000e+00	-5.870082e-06	-2.217345e-08	-4.195328e+01	-1.452547e+03
1.000000e-08	-5.867912e-06	-2.217706e-08	-4.193777e+01	-1.452265e+03
2.000000e-08	-5.863729e-06	-2.216939e-08	-4.190788e+01	-1.451838e+03
3.000000e-08	-5.857701e-06	-2.215858e-08	-4.186480e+01	-1.451264e+03
4.000000e-08	-5.849914e-06	-2.214792e-08	-4.180914e+01	-1.450533e+03
5.000000e-08	-5.840160e-06	-2.213201e-08	-4.173943e+01	-1.449638e+03
6.000000e-08	-5.828164e-06	-2.211226e-08	-4.165370e+01	-1.448569e+03
7.000000e-08	-5.814099e-06	-2.207960e-08	-4.155317e+01	-1.447323e+03
8.000000e-08	-5.797823e-06	-2.204868e-08	-4.143685e+01	-1.445902e+03
9.000000e-08	-5.779362e-06	-2.211363e-08	-4.130491e+01	-1.444312e+03
1.000000e-07	-5.758791e-06	-2.212692e-08	-4.115789e+01	-1.442569e+03
1.100000e-07	-5.736068e-06	-2.202181e-08	-4.099549e+01	-1.440690e+03
1.200000e-07	-5.711089e-06	-2.198395e-08	-4.081696e+01	-1.438693e+03
1.300000e-07	-5.684015e-06	-2.192808e-08	-4.062347e+01	-1.436591e+03
1.400000e-07	-5.655437e-06	-2.174361e-08	-4.041922e+01	-1.434388e+03
1.500000e-07	-5.625420e-06	-2.186989e-08	-4.020469e+01	-1.432079e+03
1.600000e-07	-5.593710e-06	-2.192394e-08	-3.997806e+01	-1.429647e+03
1.700000e-07	-5.560149e-06	-2.170085e-08	-3.973820e+01	-1.427067e+03
1.800000e-07	-5.524699e-06	-2.184959e-08	-3.948484e+01	-1.424307e+03
1.900000e-07	-5.487221e-06	-2.175501e-08	-3.921699e+01	-1.421339e+03
2.000000e-07	-5.447855e-06	-2.155575e-08	-3.893564e+01	-1.418139e+03
2.100000e-07	-5.406603e-06	-2.167875e-08	-3.864081e+01	-1.414694e+03
2.200000e-07	-5.363204e-06	-2.154787e-08	-3.833064e+01	-1.411003e+03
2.300000e-07	-5.317792e-06	-2.143355e-08	-3.800609e+01	-1.407078e+03
2.400000e-07	-5.270282e-06	-2.143111e-08	-3.766653e+01	-1.402937e+03
2.500000e-07	-5.220414e-06	-2.132861e-08	-3.731013e+01	-1.398602e+03
2.600000e-07	-5.168214e-06	-2.131574e-08	-3.693705e+01	-1.394088e+03
2.700000e-07	-5.113948e-06	-2.123897e-08	-3.654922e+01	-1.389403e+03
2.800000e-07	-5.057951e-06	-2.113902e-08	-3.614901e+01	-1.384543e+03
2.900000e-07	-5.000089e-06	-2.103914e-08	-3.573547e+01	-1.379492e+03
3.000000e-07	-4.940251e-06	-2.095040e-08	-3.530781e+01	-1.374223e+03
3.100000e-07	-4.878691e-06	-2.090157e-08	-3.486784e+01	-1.368708e+03
3.200000e-07	-4.815401e-06	-2.080812e-08	-3.441551e+01	-1.362922e+03
3.300000e-07	-4.750229e-06	-2.074360e-08	-3.394973e+01	-1.356845e+03
3.400000e-07	-4.683196e-06	-2.061481e-08	-3.347065e+01	-1.350472e+03
3.500000e-07	-4.614454e-06	-2.048287e-08	-3.297935e+01	-1.343805e+03
3.600000e-07	-4.544115e-06	-2.039267e-08	-3.247664e+01	-1.336859e+03
3.700000e-07	-4.472298e-06	-2.027844e-08	-3.196336e+01	-1.329647e+03
3.800000e-07	-4.398782e-06	-2.020134e-08	-3.143795e+01	-1.322182e+03
3.900000e-07	-4.323340e-06	-2.008116e-08	-3.089877e+01	-1.314468e+03
4.000000e-07	-4.246166e-06	-1.992876e-08	-3.034721e+01	-1.306497e+03
4.100000e-07	-4.167333e-06	-1.979608e-08	-2.978379e+01	-1.298248e+03
4.200000e-07	-4.086860e-06	-1.966467e-08	-2.920865e+01	-1.289692e+03
4.300000e-07	-4.004944e-06	-1.954139e-08	-2.862320e+01	-1.280798e+03
4.400000e-07	-3.921821e-06	-1.939404e-08	-2.802912e+01	-1.271533e+03
4.500000e-07	-3.837563e-06	-1.925800e-08	-2.742694e+01	-1.261873e+03
4.600000e-07	-3.752070e-06	-1.909762e-08	-2.681592e+01	-1.251801e+03
4.700000e-07	-3.665353e-06	-1.892814e-08	-2.619616e+01	-1.241311e+03
4.800000e-07	-3.577427e-06	-1.876549e-08	-2.556775e+01	-1.230399e+03
4.900000e-07	-3.488126e-06	-1.858584e-08	-2.492952e+01	-1.219062e+03
5.000000e-07	-3.397361e-06	-1.840365e-08	-2.428082e+01	-1.207293e+03
5.100000e-07	-3.305280e-06	-1.821042e-08	-2.362273e+01	-1.195075e+03
5.200000e-07	-3.212092e-06	-1.801842e-08	-2.295671e+01	-1.182377e+03
5.300000e-07	-3.117838e-06	-1.781259e-08	-2.228308e+01	-1.169161e+03
5.400000e-07	-3.022559e-06	-1.760101e-08	-2.160213e+01	-1.155382e+03
5.500000e-07	-2.926161e-06	-1.737864e-08	-2.091318e+01	-1.140992e+03
5.600000e-07	-2.828488e-06	-1.714610e-08	-2.021511e+01	-1.125948e+03
5.700000e-07	-2.729616e-06	-1.690551e-08	-1.950848e+01	-1.110212e+03
5.800000e-07	-2.629641e-06	-1.665359e-08	-1.879396e+01	-1.093751e+03
5.900000e-07	-2.528705e-06	-1.639270e-08	-1.807257e+01	-1.076539e+03
6.000000e-07	-2.426854e-06	-1.611128e-08	-1.734465e+01	-1.058546e+03
6.100000e-07	-2.324221e-06	-1.581654e-08	-1.661113e+01	-1.039737e+03
6.200000e-07	-2.220915e-06	-1.551358e-08	-1.587280e+01	-1.020062e+03
6.300000e-07	-2.116673e-06	-1.520388e-08	-1.512780e+01	-9.994602e+02
6.400000e-07	-2.011436e-06	-1.487858e-08	-1.437567e+01	-9.778536e+02
6.500000e-07	-1.905454e-06	-1.453289e-08	-1.361822e+01	-9.551527e+02
6.600000e-07	-1.798829e-06	-1.416391e-08	-1.285617e+01	-9.312603e+02
6.700000e-07	-1.691497e-06	-1.377044e-08	-1.208907e+01	-9.060757e+02
6.800000e-07	-1.583516e-06	-1.335989e-08	-1.131733e+01	-8.794981e+02
6.900000e-07	-1.475001e-06	-1.293071e-08	-1.054178e+01	-8.514281e+02
7.000000e-07	-1.366012e-06	-1.248121e-08	-9.762845e+00	-8.217671e+02
7.100000e-07	-1.256662e-06	-1.200413e-08	-8.981324e+00	-7.904160e+02
7.200000e-07	-1.146953e-06	-1.149686e-08	-8.197232e+00	-7.572762e+02
7.300000e-07	-1.036877e-06	-1.095736e-08	-7.410524e+00	-7.222526e+02
7.400000e-07	-9.265081e-07	-1.038928e-08	-6.621722e+00	-6.852626e+02
7.500000e-07	-8.158603e-07	-9.795215e-09	-5.830926e+00	-6.462503e+02
7.600000e-07	-7.049500e-07	-9.172780e-09	-5.038254e+00	-6.052029e+02
7.700000e-07	-5.938385e-07	-8.517755e-09	-4.244144e+00	-5.621691e+02
7.800000e-07	-4.825572e-07	-7.830798e-09	-3.448821e+00	-5.172715e+02
7.900000e-07	-3.711158e-07	-7.118493e-09	-2.652352e+00	-4.707114e+02
8.000000e-07	-2.595322e-07	-6.384566e-09	-1.854868e+00	-4.227607e+02
8.100000e-07	-1.477906e-07	-5.637848e-09	-1.056255e+00	-3.737395e+02
8.200000e-07	-3.599552e-08	-4.882844e-09	-2.572588e-01	-3.239825e+02
8.300000e-07	7.582826e-08	-4.123360e-09	5.419421e-01	-2.737970e+02
8.400000e-07	1.877461e-07	-3.359403e-09	1.341815e+00	-2.234201e+02
8.500000e-07	2.996001e-07	-2.591546e-09	2.141232e+00	-1.729842e+02
8.600000e-07	4.112997e-07	-1.819767e-09	2.939545e+00	-1.224972e+02
8.700000e-07	5.228789e-07	-1.043840e-09	3.736998e+00	-7.184294e+01
8.800000e-07	6.342952e-07	-2.629787e-10	4.533287e+00	-2.080553e+01
8.900000e-07	7.455227e-07	5.256799e-10	5.328226e+00	3.088760e+01
9.000000e-07	8.565145e-07	1.326026e-09	6.121481e+00	8.350802e+01
9.100000e-07	9.671823e-07	2.142509e-09	6.912420e+00	1.372646e+02
9.200000e-07	1.077534e-06	2.977061e-09	7.701100e+00	1.922484e+02
9.300000e-07	1.187607e-06	3.831634e-09	8.487787e+00	2.483931e+02
9.400000e-07	1.297335e-06	4.702137e-09	9.272013e+00	3.054597e+02
9.500000e-07	1.406631e-06	5.580526e-09	1.005315e+01	3.630461e+02
9.600000e-07	1.515455e-06	6.457451e-09	1.083090e+01	4.206226e+02
9.700000e-07	1.623774e-06	7.324470e-09	1.160506e+01	4.775839e+02
9.800000e-07	1.731555e-06	8.172774e-09	1.237537e+01	5.333123e+02
9.900000e-07	1.838690e-06	8.992868e-09	1.314106e+01	5.872380e+02
1.000000e-06	1.945082e-06	9.775919e-09	1.390144e+01	6.388904e+02
1.010000e-06	2.050671e-06	1.051645e-08	1.465608e+01	6.879311e+02
1.020000e-06	2.155416e-06	1.121696e-08	1.540469e+01	7.341673e+02
1.030000e-06	2.259251e-06	1.187490e-08	1.614679e+01	7.775438e+02
1.040000e-06	2.362194e-06	1.249076e-08	1.688252e+01	8.181205e+02
1.050000e-06	2.464328e-06	1.306662e-08	1.761247e+01	8.560393e+02
1.060000e-06	2.565596e-06	1.360643e-08	1.833623e+01	8.914888e+02
1.070000e-06	2.666024e-06	1.410955e-08	1.905398e+01	9.246729e+02
1.080000e-06	2.765632e-06	1.458048e-08	1.976588e+01	9.557868e+02
1.090000e-06	2.864185e-06	1.502446e-08	2.047024e+01	9.850036e+02
1.100000e-06	2.961541e-06	1.544300e-08	2.116604e+01	1.012471e+03
1.110000e-06	3.057720e-06	1.583813e-08	2.185342e+01	1.038313e+03
1.120000e-06	3.152760e-06	1.621176e-08	2.253267e+01	1.062638e+03
1.130000e-06	3.246734e-06	1.656270e-08	2.320430e+01	1.085548e+03
1.140000e-06	3.339698e-06	1.688981e-08	2.386871e+01	1.107141e+03
1.150000e-06	3.431675e-06	1.719704e-08	2.452607e+01	1.127513e+03
1.160000e-06	3.522454e-06	1.748897e-08	2.517486e+01	1.146761e+03
1.170000e-06	3.611805e-06	1.776851e-08	2.581345e+01	1.164974e+03
1.180000e-06	3.699768e-06	1.803297e-08	2.644212e+01	1.182234e+03
1.190000e-06	3.786472e-06	1.828430e-08	2.706179e+01	1.198611e+03
1.200000e-06	3.871963e-06	1.852146e-08	2.767279e+01	1.214163e+03
1.210000e-06	3.956274e-06	1.874322e-08	2.827536e+01	1.228935e+03
1.220000e-06	4.039286e-06	1.895217e-08	2.886864e+01	1.242967e+03
1.230000e-06	4.120756e-06	1.915345e-08	2.945090e+01	1.256294e+03
1.240000e-06	4.200683e-06	1.934637e-08	3.002214e+01	1.268949e+03
1.250000e-06	4.279136e-06	1.953021e-08	3.058284e+01	1.280969e+03
1.260000e-06	4.356036e-06	1.970445e-08	3.113245e+01	1.292391e+03
1.270000e-06	4.431195e-06	1.987123e-08	3.166960e+01	1.303250e+03
1.280000e-06	4.504498e-06	2.002982e-08	3.219350e+01	1.313578e+03
1.290000e-06	4.576049e-06	2.017946e-08	3.270487e+01	1.323402e+03
1.300000e-06	4.645910e-06	2.032087e-08	3.320417e+01	1.332741e+03
1.310000e-06	4.714181e-06	2.045662e-08	3.369210e+01	1.341605e+03
1.320000e-06	4.780843e-06	2.058690e-08	3.416853e+01	1.350001e+03
1.330000e-06	4.845695e-06	2.070855e-08	3.463202e+01	1.357935e+03
1.340000e-06	4.908781e-06	2.082145e-08	3.508289e+01	1.365414e+03
1.350000e-06	4.970205e-06	2.092800e-08	3.552189e+01	1.372452e+03
1.360000e-06	5.030075e-06	2.102918e-08	3.594978e+01	1.379070e+03
1.370000e-06	5.088200e-06	2.112453e-08	3.636519e+01	1.385299e+03
1.380000e-06	5.144337e-06	2.121512e-08	3.676641e+01	1.391173e+03
1.390000e-06	5.198577e-06	2.129925e-08	3.715406e+01	1.396732e+03
1.400000e-06	5.250849e-06	2.137787e-08	3.752764e+01	1.402010e+03
1.410000e-06	5.300873e-06	2.145369e-08	3.788516e+01	1.407037e+03
1.420000e-06	5.348720e-06	2.152666e-08	3.822713e+01	1.411833e+03
1.430000e-06	5.394731e-06	2.159591e-08	3.855597e+01	1.416409e+03
1.440000e-06	5.438986e-06	2.166317e-08	3.887225e+01	1.420764e+03
1.450000e-06	5.481259e-06	2.172898e-08	3.917438e+01	1.424891e+03
1.460000e-06	5.521469e-06	2.179122e-08	3.946176e+01	1.428780e+03
1.470000e-06	5.559774e-06	2.184730e-08	3.973552e+01	1.432419e+03
1.480000e-06	5.596288e-06	2.189730e-08	3.999649e+01	1.435800e+03
1.490000e-06	5.630856e-06	2.194220e-08	4.024354e+01	1.438918e+03
1.500000e-06	5.663260e-06	2.198263e-08	4.047513e+01	1.441778e+03
1.510000e-06	5.693691e-06	2.202138e-08	4.069262e+01	1.444385e+03
1.520000e-06	5.722307e-06	2.205985e-08	4.089714e+01	1.446753e+03
1.530000e-06	5.748853e-06	2.209528e-08	4.108686e+01	1.448893e+03
1.540000e-06	5.773125e-06	2.212530e-08	4.126033e+01	1.450818e+03
1.550000e-06	5.795319e-06	2.215071e-08	4.141895e+01	1.452540e+03
1.560000e-06	5.815632e-06	2.217345e-08	4.156413e+01	1.454066e+03
1.570000e-06	5.833963e-06	2.219318e-08	4.169514e+01	1.455402e+03
1.580000e-06	5.850110e-06	2.220870e-08	4.181054e+01	1.456550e+03
1.590000e-06	5.864054e-06	2.222255e-08	4.191020e+01	1.457513e+03
1.600000e-06	5.875753e-06	2.223526e-08	4.199382e+01	1.458291e+03
1.610000e-06	5.885090e-06	2.224480e-08	4.206054e+01	1.458890e+03
1.620000e-06	5.892183e-06	2.225121e-08	4.211124e+01	1.459315e+03
1.630000e-06	5.897283e-06	2.225621e-08	4.214768e+01	1.459572e+03
1.640000e-06	5.900380e-06	2.226139e-08	4.216982e+01	1.459671e+03
1.650000e-06	5.901287e-06	2.226673e-08	4.217630e+01	1.459619e+03
1.660000e-06	5.900125e-06	2.225987e-08	4.216800e+01	1.459422e+03
1.670000e-06	5.897196e-06	2.224579e-08	4.214706e+01	1.459082e+03
1.680000e-06	5.892378e-06	2.223957e-08	4.211263e+01	1.458597e+03
1.690000e-06	5.885456e-06	2.222972e-08	4.206316e+01	1.457962e+03
1.700000e-06	5.876561e-06	2.221723e-08	4.199958e+01	1.457167e+03
1.710000e-06	5.865870e-06	2.220864e-08	4.192318e+01	1.456203e+03
1.720000e-06	5.853149e-06	2.221006e-08	4.183226e+01	1.455064e+03
1.730000e-06	5.838324e-06	2.221279e-08	4.172631e+01	1.453748e+03
1.740000e-06	5.821628e-06	2.207822e-08	4.160698e+01	1.452258e+03
1.750000e-06	5.802657e-06	2.201455e-08	4.147140e+01	1.450605e+03
1.760000e-06	5.780751e-06	2.207202e-08	4.131483e+01	1.448806e+03
1.770000e-06	5.756162e-06	2.202655e-08	4.113910e+01	1.446877e+03
1.780000e-06	5.729676e-06	2.211521e-08	4.094981e+01	1.444837e+03
1.790000e-06	5.702104e-06	2.213472e-08	4.075275e+01	1.442694e+03
1.800000e-06	5.673632e-06	2.184014e-08	4.054926e+01	1.440450e+03
1.810000e-06	5.643067e-06	2.194042e-08	4.033081e+01	1.438094e+03
1.820000e-06	5.610138e-06	2.191204e-08	4.009547e+01	1.435606e+03
1.830000e-06	5.575589e-06	2.168901e-08	3.984855e+01	1.432958e+03
1.840000e-06	5.539010e-06	2.192526e-08	3.958712e+01	1.430119e+03
1.850000e-06	5.500185e-06	2.173318e-08	3.930964e+01	1.427061e+03
1.860000e-06	5.459414e-06	2.157374e-08	3.901825e+01	1.423765e+03
1.870000e-06	5.416732e-06	2.172954e-08	3.871321e+01	1.420222e+03
1.880000e-06	5.372460e-06	2.152091e-08	3.839679e+01	1.416436e+03
1.890000e-06	5.326218e-06	2.155218e-08	3.806630e+01	1.412423e+03
1.900000e-06	5.277680e-06	2.145942e-08	3.771941e+01	1.408203e+03
1.910000e-06	5.227164e-06	2.125859e-08	3.735837e+01	1.403795e+03
1.920000e-06	5.174345e-06	2.138431e-08	3.698087e+01	1.399212e+03
1.930000e-06	5.119357e-06	2.122340e-08	3.658788e+01	1.394459e+03
1.940000e-06	5.062547e-06	2.120354e-08	3.618185e+01	1.389526e+03
1.950000e-06	5.003941e-06	2.111868e-08	3.576300e+01	1.384391e+03
1.960000e-06	4.943652e-06	2.097158e-08	3.533212e+01	1.379028e+03
1.970000e-06	4.881404e-06	2.095555e-08	3.488723e+01	1.373409e+03
1.980000e-06	4.817220e-06	2.073615e-08	3.442851e+01	1.367509e+03
1.990000e-06	4.751278e-06	2.074865e-08	3.395723e+01	1.361315e+03
2.000000e-06	4.683751e-06	2.067912e-08	3.347461e+01	1.354824e+03
2.010000e-06	4.614594e-06	2.054353e-08	3.298035e+01	1.348045e+03
2.020000e-06	4.543496e-06	2.045360e-08	3.247222e+01	1.340991e+03
2.030000e-06	4.470722e-06	2.024895e-08	3.195210e+01	1.333678e+03
2.040000e-06	4.396435e-06	2.021854e-08	3.142117e+01	1.326115e+03
2.050000e-06	4.320481e-06	2.008552e-08	3.087833e+01	1.318300e+03
2.060000e-06	4.242722e-06	1.997304e-08	3.032259e+01	1.310222e+03
2.070000e-06	4.163309e-06	1.986507e-08	2.975503e+01	1.301855e+03
2.080000e-06	4.082450e-06	1.969943e-08	2.917713e+01	1.293170e+03
2.090000e-06	4.000180e-06	1.957410e-08	2.858916e+01	1.284133e+03
2.100000e-06	3.916649e-06	1.939020e-08	2.799216e+01	1.274714e+03
2.110000e-06	3.831710e-06	1.927931e-08	2.738511e+01	1.264893e+03
2.120000e-06	3.745306e-06	1.912061e-08	2.676758e+01	1.254656e+03
2.130000e-06	3.657565e-06	1.896634e-08	2.614049e+01	1.243999e+03
2.140000e-06	3.568539e-06	1.880370e-08	2.550423e+01	1.232920e+03
2.150000e-06	3.478313e-06	1.861802e-08	2.485939e+01	1.221414e+03
2.160000e-06	3.386959e-06	1.844832e-08	2.420648e+01	1.209470e+03
2.170000e-06	3.294392e-06	1.825426e-08	2.354491e+01	1.197066e+03
2.180000e-06	3.200468e-06	1.806940e-08	2.287364e+01	1.184169e+03
2.190000e-06	3.105313e-06	1.785554e-08	2.219357e+01	1.170737e+03
2.200000e-06	3.009020e-06	1.764645e-08	2.150537e+01	1.156722e+03
2.210000e-06	2.911663e-06	1.742185e-08	2.080956e+01	1.142080e+03
2.220000e-06	2.813306e-06	1.719312e-08	2.010661e+01	1.126767e+03
2.230000e-06	2.714029e-06	1.695296e-08	1.939707e+01	1.110749e+03
2.240000e-06	2.613804e-06	1.669901e-08	1.868077e+01	1.093995e+03
2.250000e-06	2.512527e-06	1.644342e-08	1.795695e+01	1.076479e+03
2.260000e-06	2.410322e-06	1.616498e-08	1.722649e+01	1.058169e+03
2.270000e-06	2.307145e-06	1.587120e-08	1.648909e+01	1.039025e+03
2.280000e-06	2.202973e-06	1.555915e-08	1.574457e+01	1.018994e+03
2.290000e-06	2.098001e-06	1.523965e-08	1.499434e+01	9.980064e+02
2.300000e-06	1.992305e-06	1.490304e-08	1.423894e+01	9.759802e+02
2.310000e-06	1.885955e-06	1.455716e-08	1.347885e+01	9.528222e+02
2.320000e-06	1.779106e-06	1.419579e-08	1.271521e+01	9.284333e+02
2.330000e-06	1.671795e-06	1.380950e-08	1.194827e+01	9.027124e+02
2.340000e-06	1.563936e-06	1.339296e-08	1.117740e+01	8.755594e+02
2.350000e-06	1.455539e-06	1.294862e-08	1.040269e+01	8.468752e+02
2.360000e-06	1.346674e-06	1.248736e-08	9.624636e+00	8.165611e+02
2.370000e-06	1.237438e-06	1.200698e-08	8.843931e+00	7.845181e+02
2.380000e-06	1.127924e-06	1.149956e-08	8.061236e+00	7.506482e+02
2.390000e-06	1.018149e-06	1.095399e-08	7.276679e+00	7.148599e+02
2.400000e-06	9.080363e-07	1.037152e-08	6.489706e+00	6.770792e+02
2.410000e-06	7.974745e-07	9.757790e-09	5.699524e+00	6.372649e+02
2.420000e-06	6.864947e-07	9.119317e-09	4.906355e+00	5.954265e+02
2.430000e-06	5.752777e-07	8.455432e-09	4.111491e+00	5.516405e+02
2.440000e-06	4.639451e-07	7.766141e-09	3.315800e+00	5.060607e+02
2.450000e-06	3.524608e-07	7.051996e-09	2.519026e+00	4.589176e+02
2.460000e-06	2.407590e-07	6.311600e-09	1.720697e+00	4.105056e+02
2.470000e-06	1.288580e-07	5.550316e-09	9.209435e-01	3.611550e+02
2.480000e-06	1.692076e-08	4.780877e-09	1.209321e-01	3.111951e+02
2.490000e-06	-9.501208e-08	4.012306e-09	-6.790482e-01	2.609103e+02
2.500000e-06	-2.069369e-07	3.243294e-09	-1.478971e+00	2.105002e+02
2.510000e-06	-3.186645e-07	2.473741e-09	-2.277484e+00	1.600494e+02
2.520000e-06	-4.302642e-07	1.704577e-09	-3.075084e+00	1.095159e+02
2.530000e-06	-5.418194e-07	9.308648e-10	-3.872365e+00	5.874026e+01
2.540000e-06	-6.531599e-07	1.486773e-10	-4.668112e+00	7.478136e+00
2.550000e-06	-7.641749e-07	-6.465252e-10	-5.461533e+00	-4.454994e+01
2.560000e-06	-8.748345e-07	-1.456077e-09	-6.252413e+00	-9.759818e+01
2.570000e-06	-9.851417e-07	-2.282268e-09	-7.040775e+00	-1.518350e+02
2.580000e-06	-1.095015e-06	-3.129332e-09	-7.826039e+00	-2.072932e+02
2.590000e-06	-1.204469e-06	-3.993854e-09	-8.608298e+00	-2.638391e+02
2.600000e-06	-1.313563e-06	-4.872659e-09	-9.387988e+00	-3.211668e+02
2.610000e-06	-1.422239e-06	-5.755836e-09	-1.016469e+01	-3.788189e+02
2.620000e-06	-1.530460e-06	-6.633132e-09	-1.093815e+01	-4.362290e+02
2.630000e-06	-1.638200e-06	-7.496499e-09	-1.170816e+01	-4.927792e+02
2.640000e-06	-1.745409e-06	-8.336834e-09	-1.247438e+01	-5.478637e+02
2.650000e-06	-1.852012e-06	-9.148859e-09	-1.323627e+01	-6.009466e+02
2.660000e-06	-1.957980e-06	-9.925981e-09	-1.399362e+01	-6.516063e+02
2.670000e-06	-2.063251e-06	-1.066464e-08	-1.474599e+01	-6.995612e+02
2.680000e-06	-2.167749e-06	-1.135944e-08	-1.549283e+01	-7.446744e+02
2.690000e-06	-2.271405e-06	-1.200639e-08	-1.623366e+01	-7.869394e+02
2.700000e-06	-2.374096e-06	-1.261061e-08	-1.696758e+01	-8.264526e+02
2.710000e-06	-2.475845e-06	-1.317855e-08	-1.769478e+01	-8.633783e+02
2.720000e-06	-2.576651e-06	-1.371074e-08	-1.841524e+01	-8.979145e+02
2.730000e-06	-2.676422e-06	-1.420635e-08	-1.912830e+01	-9.302640e+02
2.740000e-06	-2.775237e-06	-1.466961e-08	-1.983452e+01	-9.606142e+02
2.750000e-06	-2.873157e-06	-1.510323e-08	-2.053436e+01	-9.891284e+02
2.760000e-06	-2.970176e-06	-1.551001e-08	-2.122775e+01	-1.015944e+03
2.770000e-06	-3.066248e-06	-1.589607e-08	-2.191437e+01	-1.041179e+03
2.780000e-06	-3.161300e-06	-1.626262e-08	-2.259371e+01	-1.064938e+03
2.790000e-06	-3.255201e-06	-1.660701e-08	-2.326482e+01	-1.087319e+03
2.800000e-06	-3.347831e-06	-1.692957e-08	-2.392684e+01	-1.108422e+03
2.810000e-06	-3.439190e-06	-1.723371e-08	-2.457977e+01	-1.128342e+03
2.820000e-06	-3.529352e-06	-1.752086e-08	-2.522416e+01	-1.147174e+03
2.830000e-06	-3.618342e-06	-1.779031e-08	-2.586017e+01	-1.165004e+03
2.840000e-06	-3.706105e-06	-1.804569e-08	-2.648741e+01	-1.181911e+03
2.850000e-06	-3.792530e-06	-1.829123e-08	-2.710509e+01	-1.197959e+03
2.860000e-06	-3.877502e-06	-1.852764e-08	-2.771238e+01	-1.213200e+03
2.870000e-06	-3.961067e-06	-1.875424e-08	-2.830961e+01	-1.227678e+03
2.880000e-06	-4.043286e-06	-1.896891e-08	-2.889723e+01	-1.241430e+03
2.890000e-06	-4.124094e-06	-1.917028e-08	-2.947477e+01	-1.254490e+03
2.900000e-06	-4.203366e-06	-1.935713e-08	-3.004132e+01	-1.266892e+03
2.910000e-06	-4.280911e-06	-1.953335e-08	-3.059553e+01	-1.278674e+03
2.920000e-06	-4.356705e-06	-1.970252e-08	-3.113723e+01	-1.289871e+03
2.930000e-06	-4.430909e-06	-1.986526e-08	-3.166756e+01	-1.300519e+03
2.940000e-06	-4.503514e-06	-2.002167e-08	-3.218647e+01	-1.310647e+03
