# Temperatura_=_76.58
# Concentracion g/m^3_=_28200.0
# C_Vs_to_Am_M_A/Vsm_=_65563218390.804596
# pendiente_HvsI_1/m_=_3716.3
# ordenada_HvsI_A/m_=_1297.0
# frecuencia_Hz_=_301920.06023488933

Tiempo_(s)	Campo_(V.s)	Magnetizacion_(V.s)	Campo_(kA/m)	Magnetizacion_(A/m)
0.000000e+00	-5.861159e-06	-2.421747e-08	-4.194904e+01	-1.587099e+03
1.000000e-08	-5.859256e-06	-2.421753e-08	-4.193542e+01	-1.586765e+03
2.000000e-08	-5.855370e-06	-2.421093e-08	-4.190762e+01	-1.586254e+03
3.000000e-08	-5.849630e-06	-2.419896e-08	-4.186653e+01	-1.585566e+03
4.000000e-08	-5.842066e-06	-2.418582e-08	-4.181239e+01	-1.584698e+03
5.000000e-08	-5.832576e-06	-2.416790e-08	-4.174448e+01	-1.583649e+03
6.000000e-08	-5.820913e-06	-2.414560e-08	-4.166100e+01	-1.582415e+03
7.000000e-08	-5.807157e-06	-2.411526e-08	-4.156255e+01	-1.580992e+03
8.000000e-08	-5.791210e-06	-2.408272e-08	-4.144841e+01	-1.579380e+03
9.000000e-08	-5.773026e-06	-2.411936e-08	-4.131826e+01	-1.577580e+03
1.000000e-07	-5.752724e-06	-2.413593e-08	-4.117296e+01	-1.575600e+03
1.100000e-07	-5.730253e-06	-2.404670e-08	-4.101214e+01	-1.573454e+03
1.200000e-07	-5.705618e-06	-2.399016e-08	-4.083582e+01	-1.571157e+03
1.300000e-07	-5.678898e-06	-2.394419e-08	-4.064458e+01	-1.568727e+03
1.400000e-07	-5.650568e-06	-2.378762e-08	-4.044182e+01	-1.566178e+03
1.500000e-07	-5.620830e-06	-2.383733e-08	-4.022898e+01	-1.563515e+03
1.600000e-07	-5.589425e-06	-2.390313e-08	-4.000421e+01	-1.560731e+03
1.700000e-07	-5.556264e-06	-2.371134e-08	-3.976688e+01	-1.557811e+03
1.800000e-07	-5.521182e-06	-2.377208e-08	-3.951579e+01	-1.554723e+03
1.900000e-07	-5.484030e-06	-2.372837e-08	-3.924988e+01	-1.551435e+03
2.000000e-07	-5.444962e-06	-2.353282e-08	-3.897028e+01	-1.547910e+03
2.100000e-07	-5.404023e-06	-2.359757e-08	-3.867727e+01	-1.544119e+03
2.200000e-07	-5.360987e-06	-2.352276e-08	-3.836925e+01	-1.540044e+03
2.300000e-07	-5.315908e-06	-2.340541e-08	-3.804662e+01	-1.535682e+03
2.400000e-07	-5.268796e-06	-2.337023e-08	-3.770943e+01	-1.531041e+03
2.500000e-07	-5.219424e-06	-2.326188e-08	-3.735607e+01	-1.526141e+03
2.600000e-07	-5.167709e-06	-2.321201e-08	-3.698594e+01	-1.521003e+03
2.700000e-07	-5.113859e-06	-2.313041e-08	-3.660052e+01	-1.515647e+03
2.800000e-07	-5.058179e-06	-2.302699e-08	-3.620202e+01	-1.510082e+03
2.900000e-07	-5.000576e-06	-2.293890e-08	-3.578975e+01	-1.504303e+03
3.000000e-07	-4.941008e-06	-2.283188e-08	-3.536341e+01	-1.498295e+03
3.100000e-07	-4.879693e-06	-2.274901e-08	-3.492457e+01	-1.492032e+03
3.200000e-07	-4.816654e-06	-2.264618e-08	-3.447339e+01	-1.485486e+03
3.300000e-07	-4.751844e-06	-2.256045e-08	-3.400954e+01	-1.478633e+03
3.400000e-07	-4.685161e-06	-2.244222e-08	-3.353228e+01	-1.471456e+03
3.500000e-07	-4.616721e-06	-2.230676e-08	-3.304245e+01	-1.463950e+03
3.600000e-07	-4.546717e-06	-2.219878e-08	-3.254142e+01	-1.456121e+03
3.700000e-07	-4.475211e-06	-2.206869e-08	-3.202964e+01	-1.447981e+03
3.800000e-07	-4.402140e-06	-2.196211e-08	-3.150666e+01	-1.439542e+03
3.900000e-07	-4.327171e-06	-2.182806e-08	-3.097010e+01	-1.430809e+03
4.000000e-07	-4.250319e-06	-2.166575e-08	-3.042006e+01	-1.421779e+03
4.100000e-07	-4.171839e-06	-2.152175e-08	-2.985837e+01	-1.412437e+03
4.200000e-07	-4.091716e-06	-2.137414e-08	-2.928492e+01	-1.402758e+03
4.300000e-07	-4.010087e-06	-2.122971e-08	-2.870069e+01	-1.392711e+03
4.400000e-07	-3.927200e-06	-2.106580e-08	-2.810746e+01	-1.382270e+03
4.500000e-07	-3.843120e-06	-2.090543e-08	-2.750569e+01	-1.371411e+03
4.600000e-07	-3.757847e-06	-2.072939e-08	-2.689538e+01	-1.360123e+03
4.700000e-07	-3.671402e-06	-2.054380e-08	-2.627668e+01	-1.348400e+03
4.800000e-07	-3.583768e-06	-2.036405e-08	-2.564948e+01	-1.336245e+03
4.900000e-07	-3.494926e-06	-2.017237e-08	-2.501362e+01	-1.323656e+03
5.000000e-07	-3.404648e-06	-1.997349e-08	-2.436749e+01	-1.310625e+03
5.100000e-07	-3.312875e-06	-1.976166e-08	-2.371066e+01	-1.297130e+03
5.200000e-07	-3.219948e-06	-1.954753e-08	-2.304557e+01	-1.283135e+03
5.300000e-07	-3.125951e-06	-1.932148e-08	-2.237282e+01	-1.268592e+03
5.400000e-07	-3.030858e-06	-1.908871e-08	-2.169223e+01	-1.253444e+03
5.500000e-07	-2.934694e-06	-1.884822e-08	-2.100397e+01	-1.237638e+03
5.600000e-07	-2.837439e-06	-1.859662e-08	-2.030790e+01	-1.221125e+03
5.700000e-07	-2.738886e-06	-1.833306e-08	-1.960255e+01	-1.203869e+03
5.800000e-07	-2.639128e-06	-1.805705e-08	-1.888857e+01	-1.185846e+03
5.900000e-07	-2.538455e-06	-1.776950e-08	-1.816804e+01	-1.167036e+03
6.000000e-07	-2.436904e-06	-1.746459e-08	-1.744122e+01	-1.147421e+03
6.100000e-07	-2.334504e-06	-1.714789e-08	-1.670833e+01	-1.126973e+03
6.200000e-07	-2.231298e-06	-1.682163e-08	-1.596968e+01	-1.105643e+03
6.300000e-07	-2.127299e-06	-1.648280e-08	-1.522535e+01	-1.083362e+03
6.400000e-07	-2.022558e-06	-1.612725e-08	-1.447570e+01	-1.060041e+03
6.500000e-07	-1.917068e-06	-1.575381e-08	-1.372069e+01	-1.035571e+03
6.600000e-07	-1.810733e-06	-1.535878e-08	-1.295964e+01	-1.009836e+03
6.700000e-07	-1.703603e-06	-1.494017e-08	-1.219290e+01	-9.827178e+02
6.800000e-07	-1.595822e-06	-1.450116e-08	-1.142150e+01	-9.541061e+02
6.900000e-07	-1.487533e-06	-1.404101e-08	-1.064646e+01	-9.238967e+02
7.000000e-07	-1.378875e-06	-1.355572e-08	-9.868778e+00	-8.919914e+02
7.100000e-07	-1.269824e-06	-1.304167e-08	-9.088292e+00	-8.582926e+02
7.200000e-07	-1.160321e-06	-1.249841e-08	-8.304561e+00	-8.226989e+02
7.300000e-07	-1.050437e-06	-1.192344e-08	-7.518106e+00	-7.851040e+02
7.400000e-07	-9.402025e-07	-1.131731e-08	-6.729147e+00	-7.454023e+02
7.500000e-07	-8.296970e-07	-1.068021e-08	-5.938245e+00	-7.035025e+02
7.600000e-07	-7.189823e-07	-1.000872e-08	-5.145846e+00	-6.593488e+02
7.700000e-07	-6.080614e-07	-9.299696e-09	-4.351971e+00	-6.129445e+02
7.800000e-07	-4.969263e-07	-8.555935e-09	-3.556564e+00	-5.643733e+02
7.900000e-07	-3.855554e-07	-7.782172e-09	-2.759468e+00	-5.138111e+02
8.000000e-07	-2.740638e-07	-6.982414e-09	-1.961508e+00	-4.615237e+02
8.100000e-07	-1.624938e-07	-6.165032e-09	-1.162988e+00	-4.078462e+02
8.200000e-07	-5.082435e-08	-5.335988e-09	-3.637562e-01	-3.531457e+02
8.300000e-07	6.095303e-08	-4.498341e-09	4.362484e-01	-2.977728e+02
8.400000e-07	1.727832e-07	-3.652576e-09	1.236631e+00	-2.420093e+02
8.500000e-07	2.844578e-07	-2.801087e-09	2.035900e+00	-1.860244e+02
8.600000e-07	3.959811e-07	-1.944061e-09	2.834086e+00	-1.298478e+02
8.700000e-07	5.074202e-07	-1.080513e-09	3.631670e+00	-7.336857e+01
8.800000e-07	6.187163e-07	-2.087132e-10	4.428230e+00	-1.636213e+01
8.900000e-07	7.298449e-07	6.737227e-10	5.223591e+00	4.145815e+01
9.000000e-07	8.407563e-07	1.569646e-09	6.017398e+00	1.003718e+02
9.100000e-07	9.514477e-07	2.484167e-09	6.809630e+00	1.605779e+02
9.200000e-07	1.061863e-06	3.417923e-09	7.599887e+00	2.221298e+02
9.300000e-07	1.171886e-06	4.372069e-09	8.387334e+00	2.848926e+02
9.400000e-07	1.281484e-06	5.343120e-09	9.171741e+00	3.485293e+02
9.500000e-07	1.390675e-06	6.320618e-09	9.953233e+00	4.125201e+02
9.600000e-07	1.499432e-06	7.293827e-09	1.073162e+01	4.762118e+02
9.700000e-07	1.607704e-06	8.250422e-09	1.150654e+01	5.388866e+02
9.800000e-07	1.715437e-06	9.178146e-09	1.227760e+01	5.998399e+02
9.900000e-07	1.822574e-06	1.006685e-08	1.304439e+01	6.584523e+02
1.000000e-06	1.928997e-06	1.091000e-08	1.380607e+01	7.142454e+02
1.010000e-06	2.034525e-06	1.170429e-08	1.456135e+01	7.669123e+02
1.020000e-06	2.139124e-06	1.245006e-08	1.530997e+01	8.163215e+02
1.030000e-06	2.242838e-06	1.314859e-08	1.605227e+01	8.624970e+02
1.040000e-06	2.345719e-06	1.380284e-08	1.678860e+01	9.055808e+02
1.050000e-06	2.447837e-06	1.441614e-08	1.751947e+01	9.457877e+02
1.060000e-06	2.549137e-06	1.499050e-08	1.824449e+01	9.833614e+02
1.070000e-06	2.649596e-06	1.552545e-08	1.896349e+01	1.018540e+03
1.080000e-06	2.749175e-06	1.602462e-08	1.967619e+01	1.051536e+03
1.090000e-06	2.847798e-06	1.649360e-08	2.038205e+01	1.082525e+03
1.100000e-06	2.945250e-06	1.693436e-08	2.107952e+01	1.111653e+03
1.110000e-06	3.041395e-06	1.734883e-08	2.176764e+01	1.139046e+03
1.120000e-06	3.136425e-06	1.773988e-08	2.244779e+01	1.164821e+03
1.130000e-06	3.230436e-06	1.811027e-08	2.312063e+01	1.189093e+03
1.140000e-06	3.323443e-06	1.846033e-08	2.378630e+01	1.211983e+03
1.150000e-06	3.415462e-06	1.879074e-08	2.444489e+01	1.233610e+03
1.160000e-06	3.506336e-06	1.910412e-08	2.509528e+01	1.254088e+03
1.170000e-06	3.595816e-06	1.940168e-08	2.573570e+01	1.273519e+03
1.180000e-06	3.683861e-06	1.968309e-08	2.636585e+01	1.291984e+03
1.190000e-06	3.770632e-06	1.994920e-08	2.698688e+01	1.309544e+03
1.200000e-06	3.856212e-06	2.020226e-08	2.759939e+01	1.326240e+03
1.210000e-06	3.940604e-06	2.044330e-08	2.820340e+01	1.342105e+03
1.220000e-06	4.023729e-06	2.067157e-08	2.879833e+01	1.357163e+03
1.230000e-06	4.105361e-06	2.088744e-08	2.938258e+01	1.371446e+03
1.240000e-06	4.185355e-06	2.109172e-08	2.995511e+01	1.384994e+03
1.250000e-06	4.263766e-06	2.128660e-08	3.051631e+01	1.397855e+03
1.260000e-06	4.340697e-06	2.147328e-08	3.106691e+01	1.410088e+03
1.270000e-06	4.416022e-06	2.165240e-08	3.160602e+01	1.421748e+03
1.280000e-06	4.489500e-06	2.182202e-08	3.213191e+01	1.432885e+03
1.290000e-06	4.561150e-06	2.198312e-08	3.264472e+01	1.443536e+03
1.300000e-06	4.631133e-06	2.213784e-08	3.314559e+01	1.453722e+03
1.310000e-06	4.699576e-06	2.228786e-08	3.363545e+01	1.463448e+03
1.320000e-06	4.766397e-06	2.243188e-08	3.411370e+01	1.472710e+03
1.330000e-06	4.831370e-06	2.256686e-08	3.457872e+01	1.481496e+03
1.340000e-06	4.894533e-06	2.269228e-08	3.503078e+01	1.489800e+03
1.350000e-06	4.956037e-06	2.281044e-08	3.547097e+01	1.497625e+03
1.360000e-06	5.015995e-06	2.292304e-08	3.590010e+01	1.504984e+03
1.370000e-06	5.074216e-06	2.302952e-08	3.631679e+01	1.511905e+03
1.380000e-06	5.130459e-06	2.313027e-08	3.671934e+01	1.518425e+03
1.390000e-06	5.184821e-06	2.322288e-08	3.710841e+01	1.524585e+03
1.400000e-06	5.237210e-06	2.330966e-08	3.748336e+01	1.530425e+03
1.410000e-06	5.287339e-06	2.339342e-08	3.784215e+01	1.535979e+03
1.420000e-06	5.335318e-06	2.347426e-08	3.818554e+01	1.541271e+03
1.430000e-06	5.381406e-06	2.355273e-08	3.851539e+01	1.546316e+03
1.440000e-06	5.425753e-06	2.362770e-08	3.883279e+01	1.551117e+03
1.450000e-06	5.468194e-06	2.369816e-08	3.913655e+01	1.555674e+03
1.460000e-06	5.508496e-06	2.376365e-08	3.942499e+01	1.559980e+03
1.470000e-06	5.546909e-06	2.382543e-08	3.969992e+01	1.564028e+03
1.480000e-06	5.583628e-06	2.388307e-08	3.996272e+01	1.567813e+03
1.490000e-06	5.618401e-06	2.393735e-08	4.021160e+01	1.571331e+03
1.500000e-06	5.651033e-06	2.398679e-08	4.044515e+01	1.574581e+03
1.510000e-06	5.681694e-06	2.403124e-08	4.066459e+01	1.577563e+03
1.520000e-06	5.710566e-06	2.407270e-08	4.087124e+01	1.580281e+03
1.530000e-06	5.737464e-06	2.411018e-08	4.106374e+01	1.582737e+03
1.540000e-06	5.762075e-06	2.414413e-08	4.123989e+01	1.584939e+03
1.550000e-06	5.784487e-06	2.417467e-08	4.140029e+01	1.586891e+03
1.560000e-06	5.805019e-06	2.420223e-08	4.154725e+01	1.588605e+03
1.570000e-06	5.823636e-06	2.422604e-08	4.168049e+01	1.590089e+03
1.580000e-06	5.840038e-06	2.424464e-08	4.179788e+01	1.591356e+03
1.590000e-06	5.854245e-06	2.426055e-08	4.189956e+01	1.592416e+03
1.600000e-06	5.866245e-06	2.427470e-08	4.198545e+01	1.593279e+03
1.610000e-06	5.875817e-06	2.428583e-08	4.205396e+01	1.593953e+03
1.620000e-06	5.883108e-06	2.429494e-08	4.210613e+01	1.594443e+03
1.630000e-06	5.888422e-06	2.430155e-08	4.214417e+01	1.594753e+03
1.640000e-06	5.891742e-06	2.430557e-08	4.216793e+01	1.594883e+03
1.650000e-06	5.892911e-06	2.430955e-08	4.217630e+01	1.594834e+03
1.660000e-06	5.892018e-06	2.430578e-08	4.216990e+01	1.594608e+03
1.670000e-06	5.889288e-06	2.429297e-08	4.215037e+01	1.594203e+03
1.680000e-06	5.884702e-06	2.428380e-08	4.211754e+01	1.593622e+03
1.690000e-06	5.878061e-06	2.427427e-08	4.207001e+01	1.592862e+03
1.700000e-06	5.869425e-06	2.426221e-08	4.200821e+01	1.591922e+03
1.710000e-06	5.858979e-06	2.424928e-08	4.193344e+01	1.590800e+03
1.720000e-06	5.846534e-06	2.424119e-08	4.184437e+01	1.589491e+03
1.730000e-06	5.831923e-06	2.423682e-08	4.173980e+01	1.587993e+03
1.740000e-06	5.815396e-06	2.413259e-08	4.162151e+01	1.586305e+03
1.750000e-06	5.796768e-06	2.405033e-08	4.148819e+01	1.584432e+03
1.760000e-06	5.775323e-06	2.408316e-08	4.133471e+01	1.582384e+03
1.770000e-06	5.751056e-06	2.405606e-08	4.116103e+01	1.580175e+03
1.780000e-06	5.724769e-06	2.409566e-08	4.097289e+01	1.577823e+03
1.790000e-06	5.697340e-06	2.413127e-08	4.077658e+01	1.575344e+03
1.800000e-06	5.669007e-06	2.388506e-08	4.057379e+01	1.572749e+03
1.810000e-06	5.638714e-06	2.389963e-08	4.035698e+01	1.570039e+03
1.820000e-06	5.606008e-06	2.393142e-08	4.012290e+01	1.567203e+03
1.830000e-06	5.571632e-06	2.374503e-08	3.987686e+01	1.564220e+03
1.840000e-06	5.535380e-06	2.389471e-08	3.961741e+01	1.561057e+03
1.850000e-06	5.496895e-06	2.380043e-08	3.934196e+01	1.557679e+03
1.860000e-06	5.456431e-06	2.360300e-08	3.905236e+01	1.554051e+03
1.870000e-06	5.414070e-06	2.368593e-08	3.874918e+01	1.550149e+03
1.880000e-06	5.370084e-06	2.353279e-08	3.843436e+01	1.545960e+03
1.890000e-06	5.324207e-06	2.350649e-08	3.810601e+01	1.541485e+03
1.900000e-06	5.276022e-06	2.346144e-08	3.776115e+01	1.536738e+03
1.910000e-06	5.225782e-06	2.327557e-08	3.740157e+01	1.531741e+03
1.920000e-06	5.173322e-06	2.334244e-08	3.702611e+01	1.526515e+03
1.930000e-06	5.118719e-06	2.320595e-08	3.663531e+01	1.521075e+03
1.940000e-06	5.062302e-06	2.311641e-08	3.623153e+01	1.515426e+03
1.950000e-06	5.004035e-06	2.305898e-08	3.581450e+01	1.509559e+03
1.960000e-06	4.943995e-06	2.290881e-08	3.538479e+01	1.503453e+03
1.970000e-06	4.882047e-06	2.287260e-08	3.494142e+01	1.497081e+03
1.980000e-06	4.818139e-06	2.269013e-08	3.448402e+01	1.490416e+03
1.990000e-06	4.752495e-06	2.262540e-08	3.401420e+01	1.483436e+03
2.000000e-06	4.685284e-06	2.255643e-08	3.353316e+01	1.476128e+03
2.010000e-06	4.616457e-06	2.239935e-08	3.304056e+01	1.468494e+03
2.020000e-06	4.545689e-06	2.229855e-08	3.253406e+01	1.460540e+03
2.030000e-06	4.473167e-06	2.211350e-08	3.201502e+01	1.452280e+03
2.040000e-06	4.399149e-06	2.203935e-08	3.148526e+01	1.443724e+03
2.050000e-06	4.323526e-06	2.191098e-08	3.094402e+01	1.434875e+03
2.060000e-06	4.246186e-06	2.175974e-08	3.039048e+01	1.425723e+03
2.070000e-06	4.167104e-06	2.163677e-08	2.982449e+01	1.416251e+03
2.080000e-06	4.086511e-06	2.145743e-08	2.924767e+01	1.406430e+03
2.090000e-06	4.004524e-06	2.131271e-08	2.866088e+01	1.396230e+03
2.100000e-06	3.921202e-06	2.112813e-08	2.806453e+01	1.385626e+03
2.110000e-06	3.836585e-06	2.098157e-08	2.745892e+01	1.374598e+03
2.120000e-06	3.750470e-06	2.081162e-08	2.684258e+01	1.363138e+03
2.130000e-06	3.662913e-06	2.062655e-08	2.621593e+01	1.351245e+03
2.140000e-06	3.574166e-06	2.044424e-08	2.558075e+01	1.338918e+03
2.150000e-06	3.484273e-06	2.023898e-08	2.493738e+01	1.326156e+03
2.160000e-06	3.393204e-06	2.004848e-08	2.428558e+01	1.312945e+03
2.170000e-06	3.301030e-06	1.983677e-08	2.362588e+01	1.299258e+03
2.180000e-06	3.207605e-06	1.962662e-08	2.295723e+01	1.285053e+03
2.190000e-06	3.112748e-06	1.939450e-08	2.227832e+01	1.270278e+03
2.200000e-06	3.016704e-06	1.916085e-08	2.159093e+01	1.254877e+03
2.210000e-06	2.919650e-06	1.891861e-08	2.089630e+01	1.238797e+03
2.220000e-06	2.821607e-06	1.866195e-08	2.019460e+01	1.221995e+03
2.230000e-06	2.722598e-06	1.839708e-08	1.948598e+01	1.204439e+03
2.240000e-06	2.622622e-06	1.811933e-08	1.877043e+01	1.186107e+03
2.250000e-06	2.521777e-06	1.783664e-08	1.804867e+01	1.166983e+03
2.260000e-06	2.419986e-06	1.753243e-08	1.732014e+01	1.147044e+03
2.270000e-06	2.317090e-06	1.721446e-08	1.658370e+01	1.126255e+03
2.280000e-06	2.213192e-06	1.687994e-08	1.584009e+01	1.104560e+03
2.290000e-06	2.108495e-06	1.653565e-08	1.509076e+01	1.081881e+03
2.300000e-06	2.003040e-06	1.617425e-08	1.433600e+01	1.058121e+03
2.310000e-06	1.896919e-06	1.579690e-08	1.357648e+01	1.033167e+03
2.320000e-06	1.790234e-06	1.540232e-08	1.281293e+01	1.006901e+03
2.330000e-06	1.683029e-06	1.498302e-08	1.204565e+01	9.792084e+02
2.340000e-06	1.575366e-06	1.453625e-08	1.127509e+01	9.499800e+02
2.350000e-06	1.467274e-06	1.406213e-08	1.050147e+01	9.191148e+02
2.360000e-06	1.358744e-06	1.356864e-08	9.724699e+00	8.865156e+02
2.370000e-06	1.249796e-06	1.304869e-08	8.944948e+00	8.520837e+02
2.380000e-06	1.140452e-06	1.249708e-08	8.162357e+00	8.157157e+02
2.390000e-06	1.030711e-06	1.190834e-08	7.376924e+00	7.773042e+02
2.400000e-06	9.205597e-07	1.128392e-08	6.588561e+00	7.367472e+02
2.410000e-06	8.099833e-07	1.062728e-08	5.797152e+00	6.939649e+02
2.420000e-06	6.991431e-07	9.941405e-09	5.003854e+00	6.489215e+02
2.430000e-06	5.881418e-07	9.226473e-09	4.209404e+00	6.016499e+02
2.440000e-06	4.769526e-07	8.479649e-09	3.413609e+00	5.522692e+02
2.450000e-06	3.655760e-07	7.700166e-09	2.616473e+00	5.009920e+02
2.460000e-06	2.540335e-07	6.889329e-09	1.818149e+00	4.481147e+02
2.470000e-06	1.423275e-07	6.057015e-09	1.018655e+00	3.939902e+02
2.480000e-06	3.056429e-08	5.213230e-09	2.187525e-01	3.389854e+02
2.490000e-06	-8.117447e-08	4.364434e-09	-5.809758e-01	2.834297e+02
2.500000e-06	-1.928964e-07	3.511368e-09	-1.380584e+00	2.275654e+02
2.510000e-06	-3.045506e-07	2.655744e-09	-2.179707e+00	1.715086e+02
2.520000e-06	-4.161048e-07	1.797575e-09	-2.978114e+00	1.152325e+02
2.530000e-06	-5.274320e-07	9.304381e-10	-3.774897e+00	5.857667e+01
2.540000e-06	-6.385228e-07	5.330624e-11	-4.569987e+00	1.284871e+00
2.550000e-06	-7.493320e-07	-8.365216e-10	-5.363063e+00	-5.693555e+01
2.560000e-06	-8.597637e-07	-1.741903e-09	-6.153436e+00	-1.163411e+02
2.570000e-06	-9.699303e-07	-2.666368e-09	-6.941912e+00	-1.770803e+02
2.580000e-06	-1.079734e-06	-3.612227e-09	-7.727794e+00	-2.391364e+02
2.590000e-06	-1.189143e-06	-4.574983e-09	-8.510844e+00	-3.022946e+02
2.600000e-06	-1.298201e-06	-5.551906e-09	-9.291387e+00	-3.661422e+02
2.610000e-06	-1.406814e-06	-6.532619e-09	-1.006875e+01	-4.300998e+02
2.620000e-06	-1.514925e-06	-7.502360e-09	-1.084251e+01	-4.934797e+02
2.630000e-06	-1.622489e-06	-8.450126e-09	-1.161235e+01	-5.555600e+02
2.640000e-06	-1.729565e-06	-9.367126e-09	-1.237872e+01	-6.156618e+02
2.650000e-06	-1.836138e-06	-1.024894e-08	-1.314147e+01	-6.732157e+02
2.660000e-06	-1.942021e-06	-1.108860e-08	-1.389929e+01	-7.278083e+02
2.670000e-06	-2.047146e-06	-1.187961e-08	-1.465168e+01	-7.792029e+02
2.680000e-06	-2.151548e-06	-1.261864e-08	-1.539890e+01	-8.273324e+02
2.690000e-06	-2.255146e-06	-1.330534e-08	-1.614036e+01	-8.722724e+02
2.700000e-06	-2.357857e-06	-1.394542e-08	-1.687548e+01	-9.141990e+02
2.710000e-06	-2.459558e-06	-1.454725e-08	-1.760336e+01	-9.533430e+02
2.720000e-06	-2.560188e-06	-1.511357e-08	-1.832359e+01	-9.899498e+02
2.730000e-06	-2.659875e-06	-1.564082e-08	-1.903705e+01	-1.024249e+03
2.740000e-06	-2.758744e-06	-1.613221e-08	-1.974468e+01	-1.056438e+03
2.750000e-06	-2.856699e-06	-1.659453e-08	-2.044575e+01	-1.086681e+03
2.760000e-06	-2.953638e-06	-1.702893e-08	-2.113955e+01	-1.115114e+03
2.770000e-06	-3.049585e-06	-1.743881e-08	-2.182626e+01	-1.141859e+03
2.780000e-06	-3.144620e-06	-1.782665e-08	-2.250644e+01	-1.167030e+03
2.790000e-06	-3.238562e-06	-1.819023e-08	-2.317879e+01	-1.190746e+03
2.800000e-06	-3.331171e-06	-1.853013e-08	-2.384161e+01	-1.213127e+03
2.810000e-06	-3.422546e-06	-1.885159e-08	-2.449559e+01	-1.234290e+03
2.820000e-06	-3.512687e-06	-1.915820e-08	-2.514074e+01	-1.254347e+03
2.830000e-06	-3.601567e-06	-1.945019e-08	-2.577686e+01	-1.273391e+03
2.840000e-06	-3.689292e-06	-1.972807e-08	-2.640472e+01	-1.291495e+03
2.850000e-06	-3.775769e-06	-1.999133e-08	-2.702365e+01	-1.308713e+03
2.860000e-06	-3.860714e-06	-2.024102e-08	-2.763161e+01	-1.325081e+03
2.870000e-06	-3.944263e-06	-2.047812e-08	-2.822958e+01	-1.340626e+03
2.880000e-06	-4.026573e-06	-2.070375e-08	-2.881869e+01	-1.355377e+03
2.890000e-06	-4.107473e-06	-2.091966e-08	-2.939770e+01	-1.369367e+03
2.900000e-06	-4.186870e-06	-2.112522e-08	-2.996595e+01	-1.382639e+03
2.910000e-06	-4.264579e-06	-2.132013e-08	-3.052212e+01	-1.395248e+03
2.920000e-06	-4.340520e-06	-2.150488e-08	-3.106564e+01	-1.407250e+03
2.930000e-06	-4.414775e-06	-2.167853e-08	-3.159710e+01	-1.418700e+03
2.940000e-06	-4.487428e-06	-2.184358e-08	-3.211708e+01	-1.429644e+03
