# Temperatura_=_66.9
# Concentracion g/m^3_=_28200.0
# C_Vs_to_Am_M_A/Vsm_=_65563218390.804596
# pendiente_HvsI_1/m_=_3716.3
# ordenada_HvsI_A/m_=_1297.0
# frecuencia_Hz_=_301922.3684295002

Tiempo_(s)	Campo_(V.s)	Magnetizacion_(V.s)	Campo_(kA/m)	Magnetizacion_(A/m)
0.000000e+00	-5.888428e-06	-2.306134e-08	-4.194879e+01	-1.511012e+03
1.000000e-08	-5.886474e-06	-2.306043e-08	-4.193487e+01	-1.510703e+03
2.000000e-08	-5.882453e-06	-2.305426e-08	-4.190623e+01	-1.510246e+03
3.000000e-08	-5.876646e-06	-2.304191e-08	-4.186485e+01	-1.509638e+03
4.000000e-08	-5.869104e-06	-2.302903e-08	-4.181113e+01	-1.508871e+03
5.000000e-08	-5.859619e-06	-2.301382e-08	-4.174355e+01	-1.507934e+03
6.000000e-08	-5.847902e-06	-2.299639e-08	-4.166008e+01	-1.506815e+03
7.000000e-08	-5.833980e-06	-2.297211e-08	-4.156091e+01	-1.505506e+03
8.000000e-08	-5.817827e-06	-2.294693e-08	-4.144583e+01	-1.504004e+03
9.000000e-08	-5.799552e-06	-2.297396e-08	-4.131564e+01	-1.502313e+03
1.000000e-07	-5.779199e-06	-2.298703e-08	-4.117065e+01	-1.500447e+03
1.100000e-07	-5.756703e-06	-2.290371e-08	-4.101039e+01	-1.498425e+03
1.200000e-07	-5.731972e-06	-2.284509e-08	-4.083420e+01	-1.496271e+03
1.300000e-07	-5.705129e-06	-2.280911e-08	-4.064298e+01	-1.494006e+03
1.400000e-07	-5.676689e-06	-2.267069e-08	-4.044037e+01	-1.491644e+03
1.500000e-07	-5.646851e-06	-2.268562e-08	-4.022781e+01	-1.489186e+03
1.600000e-07	-5.615365e-06	-2.277148e-08	-4.000350e+01	-1.486623e+03
1.700000e-07	-5.581957e-06	-2.260438e-08	-3.976551e+01	-1.483930e+03
1.800000e-07	-5.546607e-06	-2.262685e-08	-3.951368e+01	-1.481072e+03
1.900000e-07	-5.509237e-06	-2.263341e-08	-3.924746e+01	-1.478013e+03
2.000000e-07	-5.470006e-06	-2.245521e-08	-3.896798e+01	-1.474717e+03
2.100000e-07	-5.428909e-06	-2.248894e-08	-3.867521e+01	-1.471159e+03
2.200000e-07	-5.385663e-06	-2.243538e-08	-3.836712e+01	-1.467326e+03
2.300000e-07	-5.340423e-06	-2.230442e-08	-3.804484e+01	-1.463221e+03
2.400000e-07	-5.293120e-06	-2.225957e-08	-3.770785e+01	-1.458859e+03
2.500000e-07	-5.243432e-06	-2.218965e-08	-3.735388e+01	-1.454263e+03
2.600000e-07	-5.191381e-06	-2.214042e-08	-3.698307e+01	-1.449457e+03
2.700000e-07	-5.137215e-06	-2.205677e-08	-3.659719e+01	-1.444460e+03
2.800000e-07	-5.081206e-06	-2.195939e-08	-3.619819e+01	-1.439278e+03
2.900000e-07	-5.023348e-06	-2.186977e-08	-3.578602e+01	-1.433908e+03
3.000000e-07	-4.963602e-06	-2.176082e-08	-3.536038e+01	-1.428333e+03
3.100000e-07	-4.902086e-06	-2.170504e-08	-3.492215e+01	-1.422527e+03
3.200000e-07	-4.838817e-06	-2.162968e-08	-3.447143e+01	-1.416463e+03
3.300000e-07	-4.773640e-06	-2.153520e-08	-3.400711e+01	-1.410119e+03
3.400000e-07	-4.706598e-06	-2.141717e-08	-3.352950e+01	-1.403477e+03
3.500000e-07	-4.637881e-06	-2.128626e-08	-3.303997e+01	-1.396532e+03
3.600000e-07	-4.567557e-06	-2.118380e-08	-3.253899e+01	-1.389287e+03
3.700000e-07	-4.495725e-06	-2.107247e-08	-3.202726e+01	-1.381748e+03
3.800000e-07	-4.422156e-06	-2.098190e-08	-3.150316e+01	-1.373923e+03
3.900000e-07	-4.346683e-06	-2.085940e-08	-3.096549e+01	-1.365814e+03
4.000000e-07	-4.269485e-06	-2.070503e-08	-3.041554e+01	-1.357415e+03
4.100000e-07	-4.190598e-06	-2.056150e-08	-2.985355e+01	-1.348710e+03
4.200000e-07	-4.110057e-06	-2.041968e-08	-2.927979e+01	-1.339678e+03
4.300000e-07	-4.028123e-06	-2.028554e-08	-2.869609e+01	-1.330293e+03
4.400000e-07	-3.944976e-06	-2.013487e-08	-2.810376e+01	-1.320531e+03
4.500000e-07	-3.860561e-06	-1.998383e-08	-2.750239e+01	-1.310372e+03
4.600000e-07	-3.774895e-06	-1.981841e-08	-2.689211e+01	-1.299806e+03
4.700000e-07	-3.688087e-06	-1.964253e-08	-2.627370e+01	-1.288827e+03
4.800000e-07	-3.600111e-06	-1.947270e-08	-2.564696e+01	-1.277431e+03
4.900000e-07	-3.510696e-06	-1.929599e-08	-2.500998e+01	-1.265613e+03
5.000000e-07	-3.419802e-06	-1.910969e-08	-2.436245e+01	-1.253361e+03
5.100000e-07	-3.327645e-06	-1.891203e-08	-2.370593e+01	-1.240652e+03
5.200000e-07	-3.234297e-06	-1.871006e-08	-2.304093e+01	-1.227452e+03
5.300000e-07	-3.139850e-06	-1.849409e-08	-2.236809e+01	-1.213716e+03
5.400000e-07	-3.044343e-06	-1.826979e-08	-2.168771e+01	-1.199396e+03
5.500000e-07	-2.947670e-06	-1.803869e-08	-2.099902e+01	-1.184445e+03
5.600000e-07	-2.849749e-06	-1.779877e-08	-2.030143e+01	-1.168820e+03
5.700000e-07	-2.750664e-06	-1.755036e-08	-1.959556e+01	-1.152487e+03
5.800000e-07	-2.650571e-06	-1.729449e-08	-1.888250e+01	-1.135420e+03
5.900000e-07	-2.549518e-06	-1.702687e-08	-1.816260e+01	-1.117597e+03
6.000000e-07	-2.447552e-06	-1.673990e-08	-1.743621e+01	-1.098991e+03
6.100000e-07	-2.344814e-06	-1.643648e-08	-1.670431e+01	-1.079569e+03
6.200000e-07	-2.241286e-06	-1.612200e-08	-1.596678e+01	-1.059281e+03
6.300000e-07	-2.136833e-06	-1.579799e-08	-1.522267e+01	-1.038059e+03
6.400000e-07	-2.031422e-06	-1.546026e-08	-1.447172e+01	-1.015819e+03
6.500000e-07	-1.925134e-06	-1.510378e-08	-1.371453e+01	-9.924633e+02
6.600000e-07	-1.818113e-06	-1.472424e-08	-1.295212e+01	-9.678880e+02
6.700000e-07	-1.710495e-06	-1.432212e-08	-1.218546e+01	-9.419873e+02
6.800000e-07	-1.602355e-06	-1.390205e-08	-1.141508e+01	-9.146583e+02
6.900000e-07	-1.493671e-06	-1.346524e-08	-1.064082e+01	-8.858012e+02
7.000000e-07	-1.384508e-06	-1.300467e-08	-9.863150e+00	-8.553183e+02
7.100000e-07	-1.274884e-06	-1.251364e-08	-9.082190e+00	-8.231098e+02
7.200000e-07	-1.164863e-06	-1.199039e-08	-8.298409e+00	-7.890725e+02
7.300000e-07	-1.054532e-06	-1.143584e-08	-7.512418e+00	-7.531009e+02
7.400000e-07	-9.438616e-07	-1.085376e-08	-6.724010e+00	-7.150956e+02
7.500000e-07	-8.329372e-07	-1.024307e-08	-5.933792e+00	-6.749769e+02
7.600000e-07	-7.218108e-07	-9.599713e-09	-5.142135e+00	-6.327046e+02
7.700000e-07	-6.104111e-07	-8.920600e-09	-4.348530e+00	-5.882990e+02
7.800000e-07	-4.987659e-07	-8.208599e-09	-3.553177e+00	-5.418574e+02
7.900000e-07	-3.869849e-07	-7.470740e-09	-2.756856e+00	-4.935632e+02
8.000000e-07	-2.751208e-07	-6.711532e-09	-1.959943e+00	-4.436800e+02
8.100000e-07	-1.631300e-07	-5.932808e-09	-1.162128e+00	-3.925310e+02
8.200000e-07	-5.096784e-08	-5.140018e-09	-3.630917e-01	-3.404639e+02
8.300000e-07	6.132121e-08	-4.339489e-09	4.368484e-01	-2.878067e+02
8.400000e-07	1.735993e-07	-3.532900e-09	1.236710e+00	-2.348212e+02
8.500000e-07	2.857368e-07	-2.721452e-09	2.035571e+00	-1.816637e+02
8.600000e-07	3.977555e-07	-1.904985e-09	2.833585e+00	-1.283624e+02
8.700000e-07	5.096707e-07	-1.084455e-09	3.630862e+00	-7.481657e+01
8.800000e-07	6.214289e-07	-2.610100e-10	4.427020e+00	-2.081994e+01
8.900000e-07	7.329707e-07	5.682808e-10	5.221637e+00	3.389281e+01
9.000000e-07	8.442837e-07	1.412196e-09	6.014623e+00	8.958519e+01
9.100000e-07	9.553519e-07	2.276510e-09	6.805866e+00	1.464530e+02
9.200000e-07	1.066174e-06	3.160247e-09	7.595355e+00	2.045654e+02
9.300000e-07	1.176690e-06	4.061648e-09	8.382662e+00	2.638243e+02
9.400000e-07	1.286813e-06	4.978820e-09	9.167172e+00	3.239490e+02
9.500000e-07	1.396501e-06	5.903141e-09	9.948581e+00	3.844893e+02
9.600000e-07	1.505710e-06	6.821411e-09	1.072658e+01	4.448655e+02
9.700000e-07	1.614417e-06	7.725368e-09	1.150100e+01	5.044275e+02
9.800000e-07	1.722548e-06	8.607901e-09	1.227133e+01	5.625226e+02
9.900000e-07	1.830054e-06	9.459097e-09	1.303719e+01	6.185612e+02
1.000000e-06	1.936968e-06	1.026901e-08	1.379883e+01	6.720701e+02
1.010000e-06	2.043188e-06	1.103333e-08	1.455554e+01	7.227249e+02
1.020000e-06	2.148471e-06	1.175392e-08	1.530557e+01	7.703601e+02
1.030000e-06	2.252686e-06	1.243177e-08	1.604799e+01	8.149563e+02
1.040000e-06	2.355993e-06	1.306712e-08	1.678395e+01	8.566116e+02
1.050000e-06	2.458538e-06	1.365988e-08	1.751447e+01	8.955032e+02
1.060000e-06	2.560243e-06	1.421295e-08	1.823901e+01	9.318479e+02
1.070000e-06	2.661088e-06	1.472575e-08	1.895742e+01	9.658681e+02
1.080000e-06	2.761047e-06	1.520332e-08	1.966953e+01	9.977688e+02
1.090000e-06	2.860107e-06	1.565507e-08	2.037522e+01	1.027725e+03
1.100000e-06	2.958126e-06	1.608292e-08	2.107350e+01	1.055883e+03
1.110000e-06	3.054811e-06	1.648770e-08	2.176228e+01	1.082364e+03
1.120000e-06	3.150253e-06	1.687066e-08	2.244221e+01	1.107276e+03
1.130000e-06	3.244657e-06	1.723234e-08	2.311473e+01	1.130723e+03
1.140000e-06	3.338019e-06	1.757062e-08	2.377984e+01	1.152809e+03
1.150000e-06	3.430329e-06	1.788632e-08	2.443744e+01	1.173643e+03
1.160000e-06	3.521576e-06	1.818338e-08	2.508749e+01	1.193331e+03
1.170000e-06	3.611580e-06	1.846524e-08	2.572867e+01	1.211973e+03
1.180000e-06	3.700040e-06	1.873273e-08	2.635885e+01	1.229657e+03
1.190000e-06	3.787141e-06	1.898740e-08	2.697936e+01	1.246458e+03
1.200000e-06	3.873062e-06	1.923094e-08	2.759145e+01	1.262431e+03
1.210000e-06	3.957698e-06	1.946358e-08	2.819439e+01	1.277621e+03
1.220000e-06	4.041099e-06	1.968426e-08	2.878853e+01	1.292063e+03
1.230000e-06	4.123122e-06	1.989253e-08	2.937286e+01	1.305787e+03
1.240000e-06	4.203500e-06	2.008910e-08	2.994547e+01	1.318826e+03
1.250000e-06	4.282298e-06	2.027503e-08	3.050682e+01	1.331217e+03
1.260000e-06	4.359572e-06	2.045245e-08	3.105731e+01	1.342998e+03
1.270000e-06	4.435245e-06	2.062255e-08	3.159641e+01	1.354210e+03
1.280000e-06	4.509174e-06	2.078476e-08	3.212307e+01	1.364890e+03
1.290000e-06	4.581228e-06	2.094011e-08	3.263638e+01	1.375069e+03
1.300000e-06	4.651576e-06	2.108831e-08	3.313753e+01	1.384766e+03
1.310000e-06	4.720306e-06	2.123057e-08	3.362716e+01	1.393993e+03
1.320000e-06	4.787444e-06	2.136741e-08	3.410545e+01	1.402753e+03
1.330000e-06	4.852761e-06	2.149608e-08	3.457077e+01	1.411047e+03
1.340000e-06	4.916188e-06	2.161513e-08	3.502261e+01	1.418878e+03
1.350000e-06	4.977943e-06	2.172468e-08	3.546255e+01	1.426253e+03
1.360000e-06	5.038113e-06	2.182798e-08	3.589120e+01	1.433190e+03
1.370000e-06	5.096622e-06	2.192683e-08	3.630801e+01	1.439716e+03
1.380000e-06	5.153171e-06	2.202109e-08	3.671087e+01	1.445868e+03
1.390000e-06	5.207741e-06	2.210940e-08	3.709962e+01	1.451683e+03
1.400000e-06	5.260379e-06	2.219189e-08	3.747460e+01	1.457202e+03
1.410000e-06	5.310864e-06	2.227076e-08	3.783426e+01	1.462456e+03
1.420000e-06	5.359131e-06	2.234733e-08	3.817811e+01	1.467471e+03
1.430000e-06	5.405418e-06	2.242307e-08	3.850786e+01	1.472260e+03
1.440000e-06	5.449995e-06	2.249530e-08	3.882542e+01	1.476825e+03
1.450000e-06	5.492807e-06	2.256294e-08	3.913041e+01	1.481163e+03
1.460000e-06	5.533525e-06	2.262634e-08	3.942048e+01	1.485263e+03
1.470000e-06	5.572199e-06	2.268408e-08	3.969600e+01	1.489113e+03
1.480000e-06	5.609054e-06	2.273775e-08	3.995854e+01	1.492704e+03
1.490000e-06	5.644040e-06	2.278775e-08	4.020778e+01	1.496031e+03
1.500000e-06	5.676940e-06	2.283495e-08	4.044216e+01	1.499094e+03
1.510000e-06	5.707776e-06	2.287908e-08	4.066184e+01	1.501898e+03
1.520000e-06	5.736745e-06	2.291860e-08	4.086821e+01	1.504452e+03
1.530000e-06	5.763743e-06	2.295393e-08	4.106054e+01	1.506768e+03
1.540000e-06	5.788497e-06	2.298558e-08	4.123689e+01	1.508855e+03
1.550000e-06	5.811055e-06	2.301391e-08	4.139759e+01	1.510725e+03
1.560000e-06	5.831683e-06	2.303886e-08	4.154454e+01	1.512383e+03
1.570000e-06	5.850398e-06	2.306049e-08	4.167786e+01	1.513835e+03
1.580000e-06	5.866950e-06	2.307874e-08	4.179578e+01	1.515083e+03
1.590000e-06	5.881253e-06	2.309385e-08	4.189767e+01	1.516128e+03
1.600000e-06	5.893344e-06	2.310577e-08	4.198381e+01	1.516972e+03
1.610000e-06	5.903022e-06	2.311478e-08	4.205276e+01	1.517620e+03
1.620000e-06	5.910422e-06	2.312168e-08	4.210547e+01	1.518075e+03
1.630000e-06	5.915811e-06	2.312685e-08	4.214386e+01	1.518347e+03
1.640000e-06	5.919178e-06	2.313145e-08	4.216785e+01	1.518446e+03
1.650000e-06	5.920364e-06	2.313663e-08	4.217630e+01	1.518382e+03
1.660000e-06	5.919437e-06	2.313523e-08	4.216970e+01	1.518163e+03
1.670000e-06	5.916675e-06	2.312400e-08	4.215002e+01	1.517795e+03
1.680000e-06	5.912071e-06	2.311584e-08	4.211722e+01	1.517278e+03
1.690000e-06	5.905366e-06	2.310648e-08	4.206946e+01	1.516608e+03
1.700000e-06	5.896654e-06	2.309303e-08	4.200739e+01	1.515774e+03
1.710000e-06	5.886178e-06	2.307992e-08	4.193276e+01	1.514766e+03
1.720000e-06	5.873670e-06	2.307034e-08	4.184365e+01	1.513573e+03
1.730000e-06	5.859003e-06	2.306123e-08	4.173917e+01	1.512187e+03
1.740000e-06	5.842441e-06	2.297386e-08	4.162118e+01	1.510608e+03
1.750000e-06	5.823749e-06	2.289906e-08	4.148802e+01	1.508845e+03
1.760000e-06	5.802248e-06	2.292979e-08	4.133485e+01	1.506914e+03
1.770000e-06	5.777947e-06	2.291191e-08	4.116173e+01	1.504837e+03
1.780000e-06	5.751633e-06	2.292707e-08	4.097427e+01	1.502636e+03
1.790000e-06	5.724128e-06	2.297405e-08	4.077833e+01	1.500330e+03
1.800000e-06	5.695650e-06	2.277068e-08	4.057545e+01	1.497930e+03
1.810000e-06	5.665246e-06	2.274427e-08	4.035886e+01	1.495432e+03
1.820000e-06	5.632459e-06	2.279878e-08	4.012528e+01	1.492820e+03
1.830000e-06	5.597927e-06	2.263074e-08	3.987928e+01	1.490066e+03
1.840000e-06	5.561477e-06	2.272024e-08	3.961961e+01	1.487133e+03
1.850000e-06	5.522789e-06	2.266524e-08	3.934400e+01	1.483983e+03
1.860000e-06	5.482083e-06	2.247570e-08	3.905401e+01	1.480586e+03
1.870000e-06	5.439458e-06	2.254487e-08	3.875035e+01	1.476919e+03
1.880000e-06	5.395206e-06	2.244070e-08	3.843511e+01	1.472977e+03
1.890000e-06	5.349116e-06	2.238540e-08	3.810676e+01	1.468768e+03
1.900000e-06	5.300754e-06	2.233729e-08	3.776224e+01	1.464310e+03
1.910000e-06	5.250334e-06	2.217705e-08	3.740305e+01	1.459628e+03
1.920000e-06	5.197688e-06	2.221647e-08	3.702800e+01	1.454744e+03
1.930000e-06	5.142851e-06	2.210951e-08	3.663735e+01	1.449673e+03
1.940000e-06	5.086132e-06	2.204221e-08	3.623328e+01	1.444418e+03
1.950000e-06	5.027580e-06	2.198964e-08	3.581616e+01	1.438968e+03
1.960000e-06	4.967289e-06	2.182422e-08	3.538665e+01	1.433304e+03
1.970000e-06	4.905028e-06	2.178216e-08	3.494311e+01	1.427399e+03
1.980000e-06	4.840849e-06	2.163181e-08	3.448590e+01	1.421227e+03
1.990000e-06	4.774979e-06	2.156427e-08	3.401665e+01	1.414766e+03
2.000000e-06	4.707512e-06	2.151349e-08	3.353601e+01	1.408005e+03
2.010000e-06	4.638330e-06	2.137020e-08	3.304317e+01	1.400940e+03
2.020000e-06	4.567228e-06	2.126171e-08	3.253664e+01	1.393578e+03
2.030000e-06	4.494434e-06	2.108730e-08	3.201806e+01	1.385925e+03
2.040000e-06	4.420038e-06	2.100784e-08	3.148807e+01	1.377987e+03
2.050000e-06	4.343969e-06	2.089951e-08	3.094616e+01	1.369764e+03
2.060000e-06	4.266131e-06	2.077017e-08	3.039165e+01	1.361246e+03
2.070000e-06	4.186628e-06	2.065613e-08	2.982527e+01	1.352415e+03
2.080000e-06	4.105698e-06	2.049102e-08	2.924874e+01	1.343246e+03
2.090000e-06	4.023366e-06	2.035128e-08	2.866221e+01	1.333714e+03
2.100000e-06	3.939693e-06	2.018067e-08	2.806612e+01	1.323797e+03
2.110000e-06	3.854607e-06	2.004259e-08	2.745998e+01	1.313479e+03
2.120000e-06	3.768047e-06	1.988487e-08	2.684333e+01	1.302750e+03
2.130000e-06	3.680163e-06	1.971087e-08	2.621725e+01	1.291606e+03
2.140000e-06	3.591057e-06	1.953940e-08	2.558247e+01	1.280044e+03
2.150000e-06	3.500745e-06	1.934900e-08	2.493908e+01	1.268057e+03
2.160000e-06	3.409268e-06	1.916665e-08	2.428741e+01	1.255628e+03
2.170000e-06	3.316602e-06	1.897109e-08	2.362726e+01	1.242729e+03
2.180000e-06	3.222614e-06	1.877669e-08	2.295770e+01	1.229323e+03
2.190000e-06	3.127336e-06	1.855918e-08	2.227894e+01	1.215363e+03
2.200000e-06	3.030892e-06	1.833772e-08	2.159188e+01	1.200799e+03
2.210000e-06	2.933407e-06	1.810748e-08	2.089740e+01	1.185587e+03
2.220000e-06	2.834981e-06	1.786566e-08	2.019622e+01	1.169686e+03
2.230000e-06	2.735599e-06	1.761428e-08	1.948824e+01	1.153067e+03
2.240000e-06	2.635214e-06	1.735149e-08	1.877310e+01	1.135704e+03
2.250000e-06	2.533761e-06	1.708297e-08	1.805035e+01	1.117576e+03
2.260000e-06	2.431239e-06	1.679633e-08	1.731999e+01	1.098654e+03
2.270000e-06	2.327749e-06	1.649379e-08	1.658274e+01	1.078897e+03
2.280000e-06	2.223381e-06	1.617490e-08	1.583923e+01	1.058250e+03
2.290000e-06	2.118215e-06	1.584779e-08	1.509003e+01	1.036638e+03
2.300000e-06	2.012300e-06	1.550504e-08	1.433550e+01	1.013971e+03
2.310000e-06	1.905734e-06	1.514668e-08	1.357633e+01	9.901474e+02
2.320000e-06	1.798641e-06	1.476935e-08	1.281340e+01	9.650630e+02
2.330000e-06	1.691060e-06	1.436833e-08	1.204700e+01	9.386122e+02
2.340000e-06	1.583001e-06	1.394056e-08	1.127720e+01	9.106935e+02
2.350000e-06	1.474423e-06	1.348664e-08	1.050370e+01	8.812084e+02
2.360000e-06	1.365321e-06	1.301357e-08	9.726460e+00	8.500586e+02
2.370000e-06	1.255789e-06	1.251947e-08	8.946161e+00	8.171431e+02
2.380000e-06	1.145926e-06	1.199664e-08	8.163506e+00	7.823574e+02
2.390000e-06	1.035656e-06	1.143557e-08	7.377946e+00	7.455970e+02
2.400000e-06	9.250306e-07	1.083788e-08	6.589860e+00	7.067681e+02
2.410000e-06	8.141343e-07	1.020887e-08	5.799841e+00	6.658042e+02
2.420000e-06	7.028311e-07	9.551806e-09	5.006924e+00	6.226864e+02
2.430000e-06	5.912853e-07	8.866794e-09	4.212279e+00	5.774636e+02
2.440000e-06	4.796271e-07	8.153105e-09	3.416833e+00	5.302666e+02
2.450000e-06	3.677565e-07	7.410376e-09	2.619874e+00	4.813118e+02
2.460000e-06	2.556263e-07	6.639455e-09	1.821066e+00	4.308894e+02
2.470000e-06	1.432947e-07	5.848071e-09	1.020822e+00	3.793372e+02
2.480000e-06	3.094712e-08	5.046824e-09	2.204654e-01	3.270009e+02
2.490000e-06	-8.136585e-08	4.240959e-09	-5.796451e-01	2.741875e+02
2.500000e-06	-1.936300e-07	3.432321e-09	-1.379408e+00	2.211215e+02
2.510000e-06	-3.058107e-07	2.622083e-09	-2.178576e+00	1.679106e+02
2.520000e-06	-4.179181e-07	1.809475e-09	-2.977222e+00	1.145308e+02
2.530000e-06	-5.298941e-07	9.892117e-10	-3.774932e+00	6.083592e+01
2.540000e-06	-6.416639e-07	1.583137e-10	-4.571173e+00	6.589930e+00
2.550000e-06	-7.530931e-07	-6.848054e-10	-5.364988e+00	-4.847960e+01
2.560000e-06	-8.641270e-07	-1.542636e-09	-6.155986e+00	-1.046173e+02
2.570000e-06	-9.747872e-07	-2.416696e-09	-6.944322e+00	-1.619754e+02
2.580000e-06	-1.085054e-06	-3.310684e-09	-7.729857e+00	-2.205610e+02
2.590000e-06	-1.194934e-06	-4.223161e-09	-8.512631e+00	-2.802046e+02
2.600000e-06	-1.304411e-06	-5.149024e-09	-9.292544e+00	-3.405555e+02
2.610000e-06	-1.413470e-06	-6.078622e-09	-1.006947e+01	-4.011069e+02
2.620000e-06	-1.522036e-06	-6.999340e-09	-1.084289e+01	-4.612436e+02
2.630000e-06	-1.630001e-06	-7.902385e-09	-1.161202e+01	-5.203060e+02
2.640000e-06	-1.737450e-06	-8.779192e-09	-1.237749e+01	-5.776591e+02
2.650000e-06	-1.844400e-06	-9.623259e-09	-1.313939e+01	-6.327536e+02
2.660000e-06	-1.950677e-06	-1.042771e-08	-1.389650e+01	-6.851721e+02
2.670000e-06	-2.056272e-06	-1.118693e-08	-1.464875e+01	-7.346529e+02
2.680000e-06	-2.161146e-06	-1.190042e-08	-1.539587e+01	-7.810902e+02
2.690000e-06	-2.265197e-06	-1.256672e-08	-1.613712e+01	-8.245151e+02
2.700000e-06	-2.368391e-06	-1.318719e-08	-1.687227e+01	-8.650615e+02
2.710000e-06	-2.470652e-06	-1.377049e-08	-1.760077e+01	-9.029268e+02
2.720000e-06	-2.571855e-06	-1.431871e-08	-1.832173e+01	-9.383334e+02
2.730000e-06	-2.671975e-06	-1.482896e-08	-1.903498e+01	-9.714990e+02
2.740000e-06	-2.771203e-06	-1.530487e-08	-1.974187e+01	-1.002618e+03
2.750000e-06	-2.869582e-06	-1.575035e-08	-2.044272e+01	-1.031853e+03
2.760000e-06	-2.967014e-06	-1.616792e-08	-2.113682e+01	-1.059339e+03
2.770000e-06	-3.063446e-06	-1.656249e-08	-2.182379e+01	-1.085192e+03
2.780000e-06	-3.158922e-06	-1.693723e-08	-2.250396e+01	-1.109517e+03
2.790000e-06	-3.253341e-06	-1.729014e-08	-2.317660e+01	-1.132418e+03
2.800000e-06	-3.346382e-06	-1.762026e-08	-2.383941e+01	-1.154001e+03
2.810000e-06	-3.438098e-06	-1.793124e-08	-2.449279e+01	-1.174373e+03
2.820000e-06	-3.528658e-06	-1.822607e-08	-2.513794e+01	-1.193639e+03
2.830000e-06	-3.618045e-06	-1.850443e-08	-2.577472e+01	-1.211896e+03
2.840000e-06	-3.706212e-06	-1.876931e-08	-2.640282e+01	-1.229227e+03
2.850000e-06	-3.793104e-06	-1.902200e-08	-2.702183e+01	-1.245697e+03
2.860000e-06	-3.878516e-06	-1.926203e-08	-2.763030e+01	-1.261360e+03
2.870000e-06	-3.962450e-06	-1.949045e-08	-2.822824e+01	-1.276253e+03
2.880000e-06	-4.045053e-06	-1.970841e-08	-2.881670e+01	-1.290410e+03
2.890000e-06	-4.126282e-06	-1.991622e-08	-2.939538e+01	-1.303862e+03
2.900000e-06	-4.206077e-06	-2.011323e-08	-2.996382e+01	-1.316643e+03
2.910000e-06	-4.284137e-06	-2.030090e-08	-3.051992e+01	-1.328790e+03
2.920000e-06	-4.360381e-06	-2.047857e-08	-3.106308e+01	-1.340344e+03
2.930000e-06	-4.435038e-06	-2.064632e-08	-3.159493e+01	-1.351345e+03
2.940000e-06	-4.508123e-06	-2.080474e-08	-3.211558e+01	-1.361826e+03
