# Temperatura_=_58.6
# Concentracion g/m^3_=_28200.0
# C_Vs_to_Am_M_A/Vsm_=_65563218390.804596
# pendiente_HvsI_1/m_=_3716.3
# ordenada_HvsI_A/m_=_1297.0
# frecuencia_Hz_=_301920.8359039187

Tiempo_(s)	Campo_(V.s)	Magnetizacion_(V.s)	Campo_(kA/m)	Magnetizacion_(A/m)
0.000000e+00	-5.853341e-06	-2.272891e-08	-4.194611e+01	-1.488889e+03
1.000000e-08	-5.851563e-06	-2.272536e-08	-4.193337e+01	-1.488595e+03
2.000000e-08	-5.847784e-06	-2.271895e-08	-4.190629e+01	-1.488154e+03
3.000000e-08	-5.842173e-06	-2.270885e-08	-4.186608e+01	-1.487562e+03
4.000000e-08	-5.834762e-06	-2.269777e-08	-4.181297e+01	-1.486811e+03
5.000000e-08	-5.825395e-06	-2.268314e-08	-4.174585e+01	-1.485892e+03
6.000000e-08	-5.813869e-06	-2.266545e-08	-4.166325e+01	-1.484797e+03
7.000000e-08	-5.800207e-06	-2.264438e-08	-4.156534e+01	-1.483522e+03
8.000000e-08	-5.784370e-06	-2.261993e-08	-4.145185e+01	-1.482068e+03
9.000000e-08	-5.766359e-06	-2.262480e-08	-4.132279e+01	-1.480444e+03
1.000000e-07	-5.746276e-06	-2.264101e-08	-4.117887e+01	-1.478664e+03
1.100000e-07	-5.724026e-06	-2.258533e-08	-4.101942e+01	-1.476745e+03
1.200000e-07	-5.699551e-06	-2.252198e-08	-4.084403e+01	-1.474706e+03
1.300000e-07	-5.672966e-06	-2.248195e-08	-4.065351e+01	-1.472560e+03
1.400000e-07	-5.644713e-06	-2.237906e-08	-4.045105e+01	-1.470313e+03
1.500000e-07	-5.615059e-06	-2.235750e-08	-4.023854e+01	-1.467958e+03
1.600000e-07	-5.583770e-06	-2.242571e-08	-4.001432e+01	-1.465481e+03
1.700000e-07	-5.550685e-06	-2.231731e-08	-3.977722e+01	-1.462857e+03
1.800000e-07	-5.515686e-06	-2.228621e-08	-3.952642e+01	-1.460056e+03
1.900000e-07	-5.478680e-06	-2.231066e-08	-3.926122e+01	-1.457047e+03
2.000000e-07	-5.439801e-06	-2.215704e-08	-3.898261e+01	-1.453806e+03
2.100000e-07	-5.399077e-06	-2.212494e-08	-3.869078e+01	-1.450315e+03
2.200000e-07	-5.356249e-06	-2.210957e-08	-3.838386e+01	-1.446571e+03
2.300000e-07	-5.311326e-06	-2.199442e-08	-3.806193e+01	-1.442579e+03
2.400000e-07	-5.264320e-06	-2.194327e-08	-3.772508e+01	-1.438352e+03
2.500000e-07	-5.215026e-06	-2.189856e-08	-3.737183e+01	-1.433910e+03
2.600000e-07	-5.163435e-06	-2.182836e-08	-3.700212e+01	-1.429267e+03
2.700000e-07	-5.109695e-06	-2.173955e-08	-3.661701e+01	-1.424435e+03
2.800000e-07	-5.054074e-06	-2.164610e-08	-3.621842e+01	-1.419413e+03
2.900000e-07	-4.996620e-06	-2.157096e-08	-3.580670e+01	-1.414191e+03
3.000000e-07	-4.937271e-06	-2.147196e-08	-3.538139e+01	-1.408753e+03
3.100000e-07	-4.876152e-06	-2.141136e-08	-3.494340e+01	-1.403074e+03
3.200000e-07	-4.813312e-06	-2.133741e-08	-3.449307e+01	-1.397133e+03
3.300000e-07	-4.748703e-06	-2.122493e-08	-3.403008e+01	-1.390912e+03
3.400000e-07	-4.682312e-06	-2.112185e-08	-3.355431e+01	-1.384398e+03
3.500000e-07	-4.614167e-06	-2.100140e-08	-3.306597e+01	-1.377588e+03
3.600000e-07	-4.544335e-06	-2.089531e-08	-3.256554e+01	-1.370485e+03
3.700000e-07	-4.472959e-06	-2.079438e-08	-3.205404e+01	-1.363095e+03
3.800000e-07	-4.400004e-06	-2.069241e-08	-3.153123e+01	-1.355423e+03
3.900000e-07	-4.325208e-06	-2.056927e-08	-3.099523e+01	-1.347469e+03
4.000000e-07	-4.248623e-06	-2.042344e-08	-3.044641e+01	-1.339226e+03
4.100000e-07	-4.170342e-06	-2.028847e-08	-2.988543e+01	-1.330682e+03
4.200000e-07	-4.090334e-06	-2.015257e-08	-2.931208e+01	-1.321817e+03
4.300000e-07	-4.008871e-06	-2.001660e-08	-2.872830e+01	-1.312609e+03
4.400000e-07	-3.926231e-06	-1.987008e-08	-2.813609e+01	-1.303040e+03
4.500000e-07	-3.842432e-06	-1.971720e-08	-2.753557e+01	-1.293091e+03
4.600000e-07	-3.757426e-06	-1.956059e-08	-2.692640e+01	-1.282752e+03
4.700000e-07	-3.671211e-06	-1.939040e-08	-2.630857e+01	-1.272013e+03
4.800000e-07	-3.583757e-06	-1.922238e-08	-2.568186e+01	-1.260867e+03
4.900000e-07	-3.494998e-06	-1.904952e-08	-2.504579e+01	-1.249304e+03
5.000000e-07	-3.404851e-06	-1.886395e-08	-2.439979e+01	-1.237304e+03
5.100000e-07	-3.313311e-06	-1.867197e-08	-2.374379e+01	-1.224843e+03
5.200000e-07	-3.220515e-06	-1.847303e-08	-2.307880e+01	-1.211885e+03
5.300000e-07	-3.126632e-06	-1.826019e-08	-2.240602e+01	-1.198390e+03
5.400000e-07	-3.031741e-06	-1.803762e-08	-2.172601e+01	-1.184312e+03
5.500000e-07	-2.935729e-06	-1.781239e-08	-2.103797e+01	-1.169609e+03
5.600000e-07	-2.838524e-06	-1.757822e-08	-2.034138e+01	-1.154243e+03
5.700000e-07	-2.740145e-06	-1.733541e-08	-1.963638e+01	-1.138184e+03
5.800000e-07	-2.640659e-06	-1.708397e-08	-1.892344e+01	-1.121406e+03
5.900000e-07	-2.540232e-06	-1.681603e-08	-1.820377e+01	-1.103885e+03
6.000000e-07	-2.438934e-06	-1.652982e-08	-1.747785e+01	-1.085592e+03
6.100000e-07	-2.336766e-06	-1.623209e-08	-1.674569e+01	-1.066489e+03
6.200000e-07	-2.233773e-06	-1.592817e-08	-1.600763e+01	-1.046526e+03
6.300000e-07	-2.129955e-06	-1.561261e-08	-1.526365e+01	-1.025634e+03
6.400000e-07	-2.025271e-06	-1.528024e-08	-1.451346e+01	-1.003732e+03
6.500000e-07	-1.919842e-06	-1.492772e-08	-1.375794e+01	-9.807252e+02
6.600000e-07	-1.813711e-06	-1.455375e-08	-1.299738e+01	-9.565151e+02
6.700000e-07	-1.706765e-06	-1.415730e-08	-1.223099e+01	-9.310007e+02
6.800000e-07	-1.599125e-06	-1.374191e-08	-1.145962e+01	-9.040827e+02
6.900000e-07	-1.491005e-06	-1.331075e-08	-1.068482e+01	-8.756643e+02
7.000000e-07	-1.382489e-06	-1.285613e-08	-9.907167e+00	-8.456493e+02
7.100000e-07	-1.273557e-06	-1.237215e-08	-9.126540e+00	-8.139398e+02
7.200000e-07	-1.164185e-06	-1.185690e-08	-8.342760e+00	-7.804352e+02
7.300000e-07	-1.054438e-06	-1.131308e-08	-7.556298e+00	-7.450348e+02
7.400000e-07	-9.443895e-07	-1.074166e-08	-6.767668e+00	-7.076455e+02
7.500000e-07	-8.340783e-07	-1.014091e-08	-5.977157e+00	-6.681960e+02
7.600000e-07	-7.235390e-07	-9.507978e-09	-5.185013e+00	-6.266546e+02
7.700000e-07	-6.128057e-07	-8.840487e-09	-4.391478e+00	-5.830485e+02
7.800000e-07	-5.019234e-07	-8.142901e-09	-3.596875e+00	-5.374789e+02
7.900000e-07	-3.908719e-07	-7.420229e-09	-2.801059e+00	-4.901289e+02
8.000000e-07	-2.796175e-07	-6.676891e-09	-2.003790e+00	-4.412578e+02
8.100000e-07	-1.681855e-07	-5.916335e-09	-1.205248e+00	-3.911817e+02
8.200000e-07	-5.660906e-08	-5.142599e-09	-4.056709e-01	-3.402412e+02
8.300000e-07	5.500649e-08	-4.359369e-09	3.941866e-01	-2.887594e+02
8.400000e-07	1.665462e-07	-3.570572e-09	1.193500e+00	-2.369980e+02
8.500000e-07	2.780230e-07	-2.779533e-09	1.992364e+00	-1.851195e+02
8.600000e-07	3.894007e-07	-1.984812e-09	2.790517e+00	-1.331635e+02
8.700000e-07	5.006485e-07	-1.185998e-09	3.587739e+00	-8.104292e+01
8.800000e-07	6.117526e-07	-3.841553e-10	4.383931e+00	-2.856385e+01
8.900000e-07	7.226757e-07	4.237169e-10	5.178826e+00	2.453422e+01
9.000000e-07	8.334093e-07	1.244192e-09	5.972363e+00	7.852200e+01
9.100000e-07	9.439220e-07	2.081953e-09	6.764318e+00	1.336180e+02
9.200000e-07	1.054210e-06	2.939068e-09	7.554660e+00	1.899304e+02
9.300000e-07	1.164155e-06	3.815009e-09	8.342544e+00	2.474141e+02
9.400000e-07	1.273642e-06	4.705970e-09	9.127154e+00	3.058496e+02
9.500000e-07	1.382677e-06	5.605015e-09	9.908516e+00	3.648494e+02
9.600000e-07	1.491303e-06	6.503097e-09	1.068695e+01	4.238890e+02
9.700000e-07	1.599513e-06	7.391991e-09	1.146240e+01	4.823582e+02
9.800000e-07	1.707244e-06	8.262179e-09	1.223442e+01	5.396243e+02
9.900000e-07	1.814328e-06	9.104166e-09	1.300181e+01	5.950956e+02
1.000000e-06	1.920545e-06	9.909918e-09	1.376298e+01	6.482752e+02
1.010000e-06	2.025867e-06	1.067352e-08	1.451774e+01	6.987995e+02
1.020000e-06	2.130360e-06	1.139284e-08	1.526655e+01	7.464540e+02
1.030000e-06	2.234003e-06	1.206919e-08	1.600927e+01	7.911690e+02
1.040000e-06	2.336820e-06	1.270387e-08	1.674608e+01	8.329975e+02
1.050000e-06	2.438810e-06	1.329834e-08	1.747696e+01	8.720819e+02
1.060000e-06	2.539912e-06	1.385543e-08	1.820148e+01	9.086169e+02
1.070000e-06	2.640214e-06	1.437450e-08	1.892025e+01	9.428153e+02
1.080000e-06	2.739763e-06	1.485662e-08	1.963365e+01	9.748813e+02
1.090000e-06	2.838285e-06	1.531040e-08	2.033967e+01	1.004996e+03
1.100000e-06	2.935541e-06	1.573906e-08	2.103663e+01	1.033310e+03
1.110000e-06	3.031597e-06	1.614537e-08	2.172498e+01	1.059951e+03
1.120000e-06	3.126575e-06	1.652969e-08	2.240561e+01	1.085027e+03
1.130000e-06	3.220549e-06	1.689148e-08	2.307905e+01	1.108637e+03
1.140000e-06	3.313494e-06	1.723031e-08	2.374511e+01	1.130880e+03
1.150000e-06	3.405475e-06	1.754814e-08	2.440425e+01	1.151855e+03
1.160000e-06	3.496300e-06	1.784881e-08	2.505513e+01	1.171662e+03
1.170000e-06	3.585685e-06	1.813454e-08	2.569567e+01	1.190398e+03
1.180000e-06	3.673713e-06	1.840569e-08	2.632650e+01	1.208150e+03
1.190000e-06	3.760433e-06	1.866105e-08	2.694795e+01	1.224997e+03
1.200000e-06	3.845870e-06	1.890188e-08	2.756021e+01	1.241000e+03
1.210000e-06	3.930136e-06	1.913084e-08	2.816407e+01	1.256209e+03
1.220000e-06	4.013117e-06	1.935012e-08	2.875873e+01	1.270665e+03
1.230000e-06	4.094615e-06	1.955887e-08	2.934276e+01	1.284402e+03
1.240000e-06	4.174538e-06	1.975760e-08	2.991550e+01	1.297454e+03
1.250000e-06	4.252899e-06	1.994592e-08	3.047705e+01	1.309854e+03
1.260000e-06	4.329783e-06	2.012462e-08	3.102802e+01	1.321640e+03
1.270000e-06	4.405104e-06	2.029453e-08	3.156778e+01	1.332850e+03
1.280000e-06	4.478617e-06	2.045716e-08	3.209459e+01	1.343519e+03
1.290000e-06	4.550336e-06	2.061301e-08	3.260854e+01	1.353675e+03
1.300000e-06	4.620396e-06	2.076135e-08	3.311061e+01	1.363341e+03
1.310000e-06	4.688849e-06	2.090238e-08	3.360115e+01	1.372528e+03
1.320000e-06	4.755672e-06	2.103768e-08	3.408002e+01	1.381243e+03
1.330000e-06	4.820657e-06	2.116557e-08	3.454571e+01	1.389489e+03
1.340000e-06	4.883830e-06	2.128337e-08	3.499842e+01	1.397268e+03
1.350000e-06	4.945380e-06	2.139273e-08	3.543950e+01	1.404592e+03
1.360000e-06	5.005384e-06	2.149582e-08	3.586950e+01	1.411479e+03
1.370000e-06	5.063635e-06	2.159427e-08	3.628694e+01	1.417957e+03
1.380000e-06	5.119944e-06	2.168833e-08	3.669045e+01	1.424062e+03
1.390000e-06	5.174371e-06	2.177573e-08	3.708049e+01	1.429836e+03
1.400000e-06	5.226849e-06	2.185770e-08	3.745656e+01	1.435319e+03
1.410000e-06	5.277136e-06	2.193735e-08	3.781692e+01	1.440545e+03
1.420000e-06	5.325256e-06	2.201473e-08	3.816176e+01	1.445540e+03
1.430000e-06	5.371461e-06	2.208809e-08	3.849287e+01	1.450315e+03
1.440000e-06	5.415899e-06	2.215785e-08	3.881133e+01	1.454871e+03
1.450000e-06	5.458501e-06	2.222398e-08	3.911662e+01	1.459201e+03
1.460000e-06	5.499044e-06	2.228622e-08	3.940715e+01	1.463289e+03
1.470000e-06	5.537611e-06	2.234456e-08	3.968353e+01	1.467121e+03
1.480000e-06	5.574389e-06	2.239827e-08	3.994709e+01	1.470686e+03
1.490000e-06	5.609235e-06	2.244825e-08	4.019680e+01	1.473978e+03
1.500000e-06	5.641954e-06	2.249394e-08	4.043127e+01	1.476998e+03
1.510000e-06	5.672648e-06	2.253634e-08	4.065123e+01	1.479756e+03
1.520000e-06	5.701491e-06	2.257634e-08	4.085793e+01	1.482265e+03
1.530000e-06	5.728422e-06	2.261254e-08	4.105092e+01	1.484540e+03
1.540000e-06	5.753160e-06	2.264330e-08	4.122819e+01	1.486596e+03
1.550000e-06	5.775690e-06	2.266936e-08	4.138965e+01	1.488444e+03
1.560000e-06	5.796295e-06	2.269247e-08	4.153731e+01	1.490091e+03
1.570000e-06	5.814963e-06	2.271373e-08	4.167109e+01	1.491540e+03
1.580000e-06	5.831492e-06	2.273242e-08	4.178954e+01	1.492790e+03
1.590000e-06	5.845823e-06	2.274848e-08	4.189224e+01	1.493840e+03
1.600000e-06	5.857945e-06	2.276167e-08	4.197911e+01	1.494690e+03
1.610000e-06	5.867701e-06	2.277217e-08	4.204902e+01	1.495343e+03
1.620000e-06	5.875144e-06	2.278119e-08	4.210235e+01	1.495805e+03
1.630000e-06	5.880562e-06	2.278744e-08	4.214119e+01	1.496084e+03
1.640000e-06	5.884065e-06	2.279163e-08	4.216628e+01	1.496193e+03
1.650000e-06	5.885462e-06	2.279390e-08	4.217630e+01	1.496140e+03
1.660000e-06	5.884724e-06	2.279107e-08	4.217101e+01	1.495936e+03
1.670000e-06	5.882119e-06	2.277935e-08	4.215234e+01	1.495583e+03
1.680000e-06	5.877632e-06	2.277013e-08	4.212018e+01	1.495082e+03
1.690000e-06	5.871090e-06	2.276408e-08	4.207331e+01	1.494428e+03
1.700000e-06	5.862596e-06	2.275308e-08	4.201244e+01	1.493611e+03
1.710000e-06	5.852310e-06	2.273996e-08	4.193872e+01	1.492623e+03
1.720000e-06	5.840038e-06	2.272917e-08	4.185078e+01	1.491456e+03
1.730000e-06	5.825588e-06	2.271672e-08	4.174723e+01	1.490109e+03
1.740000e-06	5.809151e-06	2.265886e-08	4.162944e+01	1.488586e+03
1.750000e-06	5.790589e-06	2.258245e-08	4.149642e+01	1.486898e+03
1.760000e-06	5.769330e-06	2.258710e-08	4.134407e+01	1.485060e+03
1.770000e-06	5.745317e-06	2.258089e-08	4.117199e+01	1.483091e+03
1.780000e-06	5.719235e-06	2.257943e-08	4.098508e+01	1.481008e+03
1.790000e-06	5.691905e-06	2.261262e-08	4.078923e+01	1.478821e+03
1.800000e-06	5.663585e-06	2.247229e-08	4.058628e+01	1.476532e+03
1.810000e-06	5.633475e-06	2.240087e-08	4.037051e+01	1.474131e+03
1.820000e-06	5.601018e-06	2.245699e-08	4.013792e+01	1.471598e+03
1.830000e-06	5.566732e-06	2.235338e-08	3.989222e+01	1.468907e+03
1.840000e-06	5.530587e-06	2.236967e-08	3.963320e+01	1.466027e+03
1.850000e-06	5.492272e-06	2.236962e-08	3.935863e+01	1.462928e+03
1.860000e-06	5.451929e-06	2.219381e-08	3.906952e+01	1.459590e+03
1.870000e-06	5.409673e-06	2.219946e-08	3.876671e+01	1.455998e+03
1.880000e-06	5.365741e-06	2.215074e-08	3.845188e+01	1.452154e+03
1.890000e-06	5.319980e-06	2.204561e-08	3.812395e+01	1.448067e+03
1.900000e-06	5.272030e-06	2.201947e-08	3.778033e+01	1.443753e+03
1.910000e-06	5.221971e-06	2.191647e-08	3.742160e+01	1.439229e+03
1.920000e-06	5.169731e-06	2.191051e-08	3.704724e+01	1.434510e+03
1.930000e-06	5.115316e-06	2.184223e-08	3.665729e+01	1.429603e+03
1.940000e-06	5.059003e-06	2.173157e-08	3.625374e+01	1.424503e+03
1.950000e-06	5.000878e-06	2.168447e-08	3.583721e+01	1.419198e+03
1.960000e-06	4.940986e-06	2.153533e-08	3.540801e+01	1.413667e+03
1.970000e-06	4.879189e-06	2.147395e-08	3.496516e+01	1.407887e+03
1.980000e-06	4.815462e-06	2.137561e-08	3.450848e+01	1.401837e+03
1.990000e-06	4.749980e-06	2.127256e-08	3.403922e+01	1.395500e+03
2.000000e-06	4.682884e-06	2.123577e-08	3.355841e+01	1.388869e+03
2.010000e-06	4.614185e-06	2.109343e-08	3.306609e+01	1.381942e+03
2.020000e-06	4.543671e-06	2.097792e-08	3.256078e+01	1.374725e+03
2.030000e-06	4.471414e-06	2.084129e-08	3.204297e+01	1.367223e+03
2.040000e-06	4.397558e-06	2.073264e-08	3.151371e+01	1.359439e+03
2.050000e-06	4.322115e-06	2.063730e-08	3.097307e+01	1.351372e+03
2.060000e-06	4.245006e-06	2.049281e-08	3.042049e+01	1.343012e+03
2.070000e-06	4.166154e-06	2.038187e-08	2.985542e+01	1.334343e+03
2.080000e-06	4.085739e-06	2.022835e-08	2.927915e+01	1.325345e+03
2.090000e-06	4.003900e-06	2.008379e-08	2.869268e+01	1.315997e+03
2.100000e-06	3.920729e-06	1.993201e-08	2.809666e+01	1.306279e+03
2.110000e-06	3.836252e-06	1.978307e-08	2.749129e+01	1.296177e+03
2.120000e-06	3.750389e-06	1.963878e-08	2.687597e+01	1.285681e+03
2.130000e-06	3.663157e-06	1.946139e-08	2.625086e+01	1.274782e+03
2.140000e-06	3.574606e-06	1.929463e-08	2.561628e+01	1.263473e+03
2.150000e-06	3.484793e-06	1.910720e-08	2.497266e+01	1.251739e+03
2.160000e-06	3.393807e-06	1.892258e-08	2.432064e+01	1.239561e+03
2.170000e-06	3.301707e-06	1.873494e-08	2.366064e+01	1.226909e+03
2.180000e-06	3.208439e-06	1.854033e-08	2.299226e+01	1.213744e+03
2.190000e-06	3.113858e-06	1.833299e-08	2.231448e+01	1.200024e+03
2.200000e-06	3.018011e-06	1.811418e-08	2.162762e+01	1.185704e+03
2.210000e-06	2.921114e-06	1.789141e-08	2.093324e+01	1.170744e+03
2.220000e-06	2.823200e-06	1.764971e-08	2.023157e+01	1.155109e+03
2.230000e-06	2.724321e-06	1.740091e-08	1.952298e+01	1.138769e+03
2.240000e-06	2.624559e-06	1.714215e-08	1.880807e+01	1.121701e+03
2.250000e-06	2.523832e-06	1.687624e-08	1.808624e+01	1.103879e+03
2.260000e-06	2.422159e-06	1.659304e-08	1.735763e+01	1.085272e+03
2.270000e-06	2.319536e-06	1.629337e-08	1.662222e+01	1.065838e+03
2.280000e-06	2.215870e-06	1.598164e-08	1.587933e+01	1.045518e+03
2.290000e-06	2.111327e-06	1.565871e-08	1.513015e+01	1.024238e+03
2.300000e-06	2.006070e-06	1.532232e-08	1.437586e+01	1.001913e+03
2.310000e-06	1.900127e-06	1.496846e-08	1.361666e+01	9.784444e+02
2.320000e-06	1.793622e-06	1.459686e-08	1.285342e+01	9.537329e+02
2.330000e-06	1.686681e-06	1.419987e-08	1.208707e+01	9.276778e+02
2.340000e-06	1.579203e-06	1.377821e-08	1.131685e+01	9.001809e+02
2.350000e-06	1.471127e-06	1.333353e-08	1.054236e+01	8.711458e+02
2.360000e-06	1.362620e-06	1.287001e-08	9.764785e+00	8.404760e+02
2.370000e-06	1.253763e-06	1.238269e-08	8.984693e+00	8.080724e+02
2.380000e-06	1.144588e-06	1.186625e-08	8.202326e+00	7.738339e+02
2.390000e-06	1.035123e-06	1.131486e-08	7.417882e+00	7.376614e+02
2.400000e-06	9.253117e-07	1.072700e-08	6.630953e+00	6.994685e+02
2.410000e-06	8.151105e-07	1.010925e-08	5.841231e+00	6.591972e+02
2.420000e-06	7.045660e-07	9.462947e-09	5.049049e+00	6.168366e+02
2.430000e-06	5.937284e-07	8.788255e-09	4.254766e+00	5.724416e+02
2.440000e-06	4.826632e-07	8.085045e-09	3.458853e+00	5.261453e+02
2.450000e-06	3.714503e-07	7.355475e-09	2.661880e+00	4.781621e+02
2.460000e-06	2.600530e-07	6.599806e-09	1.863587e+00	4.287767e+02
2.470000e-06	1.484259e-07	5.824243e-09	1.063647e+00	3.783194e+02
2.480000e-06	3.673937e-08	5.040880e-09	2.632810e-01	3.271292e+02
2.490000e-06	-7.484862e-08	4.253820e-09	-5.363789e-01	2.755102e+02
2.500000e-06	-1.864273e-07	3.463292e-09	-1.335972e+00	2.236889e+02
2.510000e-06	-2.980041e-07	2.671957e-09	-2.135552e+00	1.717814e+02
2.520000e-06	-4.094475e-07	1.879497e-09	-2.934176e+00	1.197767e+02
2.530000e-06	-5.206845e-07	1.081163e-09	-3.731320e+00	6.754229e+01
2.540000e-06	-6.317022e-07	2.757618e-10	-4.526893e+00	1.485207e+01
2.550000e-06	-7.424406e-07	-5.384269e-10	-5.320465e+00	-3.856571e+01
2.560000e-06	-8.528503e-07	-1.367517e-09	-6.111681e+00	-9.296869e+01
2.570000e-06	-9.628953e-07	-2.214478e-09	-6.900284e+00	-1.485384e+02
2.580000e-06	-1.072526e-06	-3.081412e-09	-7.685918e+00	-2.053268e+02
2.590000e-06	-1.181761e-06	-3.966163e-09	-8.468715e+00	-2.632212e+02
2.600000e-06	-1.290673e-06	-4.865339e-09	-9.249201e+00	-3.219342e+02
2.610000e-06	-1.399256e-06	-5.772581e-09	-1.002733e+01	-3.810192e+02
2.620000e-06	-1.507350e-06	-6.675554e-09	-1.080195e+01	-4.399111e+02
2.630000e-06	-1.614873e-06	-7.563174e-09	-1.157247e+01	-4.979832e+02
2.640000e-06	-1.721827e-06	-8.427875e-09	-1.233893e+01	-5.546115e+02
2.650000e-06	-1.828200e-06	-9.264507e-09	-1.310121e+01	-6.092360e+02
2.660000e-06	-1.933948e-06	-1.006541e-08	-1.385903e+01	-6.614087e+02
2.670000e-06	-2.039002e-06	-1.082406e-08	-1.461186e+01	-7.108238e+02
2.680000e-06	-2.143310e-06	-1.153869e-08	-1.535935e+01	-7.573253e+02
2.690000e-06	-2.246817e-06	-1.220766e-08	-1.610110e+01	-8.008952e+02
2.700000e-06	-2.349295e-06	-1.283218e-08	-1.683548e+01	-8.416259e+02
2.710000e-06	-2.450702e-06	-1.341775e-08	-1.756218e+01	-8.796848e+02
2.720000e-06	-2.551283e-06	-1.396707e-08	-1.828296e+01	-9.152775e+02
2.730000e-06	-2.651000e-06	-1.447950e-08	-1.899755e+01	-9.486158e+02
2.740000e-06	-2.749760e-06	-1.495771e-08	-1.970528e+01	-9.798962e+02
2.750000e-06	-2.847578e-06	-1.540583e-08	-2.040627e+01	-1.009288e+03
2.760000e-06	-2.944463e-06	-1.582655e-08	-2.110056e+01	-1.036932e+03
2.770000e-06	-3.040475e-06	-1.622514e-08	-2.178860e+01	-1.062947e+03
2.780000e-06	-3.135500e-06	-1.660208e-08	-2.246957e+01	-1.087436e+03
2.790000e-06	-3.229309e-06	-1.695606e-08	-2.314182e+01	-1.110499e+03
2.800000e-06	-3.321871e-06	-1.728794e-08	-2.380514e+01	-1.132232e+03
2.810000e-06	-3.413212e-06	-1.760098e-08	-2.445970e+01	-1.152738e+03
2.820000e-06	-3.503290e-06	-1.789769e-08	-2.510522e+01	-1.172113e+03
2.830000e-06	-3.592204e-06	-1.817793e-08	-2.574239e+01	-1.190454e+03
2.840000e-06	-3.679971e-06	-1.844349e-08	-2.637135e+01	-1.207843e+03
2.850000e-06	-3.766292e-06	-1.869585e-08	-2.698994e+01	-1.224352e+03
2.860000e-06	-3.851138e-06	-1.893679e-08	-2.759796e+01	-1.240039e+03
2.870000e-06	-3.934661e-06	-1.916686e-08	-2.819650e+01	-1.254949e+03
2.880000e-06	-4.016863e-06	-1.938535e-08	-2.878557e+01	-1.269120e+03
2.890000e-06	-4.097786e-06	-1.959295e-08	-2.936548e+01	-1.282584e+03
2.900000e-06	-4.177169e-06	-1.978954e-08	-2.993436e+01	-1.295377e+03
2.910000e-06	-4.254758e-06	-1.997514e-08	-3.049037e+01	-1.307532e+03
2.920000e-06	-4.330650e-06	-2.015087e-08	-3.103423e+01	-1.319089e+03
2.930000e-06	-4.404925e-06	-2.031773e-08	-3.156650e+01	-1.330083e+03
2.940000e-06	-4.477640e-06	-2.047653e-08	-3.208759e+01	-1.340549e+03
