# Temperatura_=_68.38
# Concentracion g/m^3_=_41000.0
# C_Vs_to_Am_M_A/Vsm_=_65563218390.804596
# pendiente_HvsI_1/m_=_3716.3
# ordenada_HvsI_A/m_=_1297.0
# frecuencia_Hz_=_302010.5983126727

Tiempo_(s)	Campo_(V.s)	Magnetizacion_(V.s)	Campo_(kA/m)	Magnetizacion_(A/m)
0.000000e+00	-6.727727e-06	-2.334900e-08	-4.746642e+01	-1.531030e+03
1.000000e-08	-6.724238e-06	-2.334579e-08	-4.744181e+01	-1.531133e+03
2.000000e-08	-6.718558e-06	-2.333573e-08	-4.740174e+01	-1.530706e+03
3.000000e-08	-6.710837e-06	-2.332635e-08	-4.734726e+01	-1.529732e+03
4.000000e-08	-6.700812e-06	-2.331498e-08	-4.727653e+01	-1.528335e+03
5.000000e-08	-6.688301e-06	-2.330080e-08	-4.718826e+01	-1.526741e+03
6.000000e-08	-6.673297e-06	-2.327975e-08	-4.708240e+01	-1.525207e+03
7.000000e-08	-6.655922e-06	-2.325627e-08	-4.695982e+01	-1.523944e+03
8.000000e-08	-6.636457e-06	-2.330060e-08	-4.682248e+01	-1.523058e+03
9.000000e-08	-6.614645e-06	-2.335949e-08	-4.666859e+01	-1.522513e+03
1.000000e-07	-6.590126e-06	-2.327901e-08	-4.649560e+01	-1.522149e+03
1.100000e-07	-6.562906e-06	-2.320557e-08	-4.630355e+01	-1.521733e+03
1.200000e-07	-6.533412e-06	-2.319912e-08	-4.609547e+01	-1.521027e+03
1.300000e-07	-6.502123e-06	-2.308588e-08	-4.587471e+01	-1.519862e+03
1.400000e-07	-6.469072e-06	-2.300953e-08	-4.564152e+01	-1.518189e+03
1.500000e-07	-6.433988e-06	-2.320898e-08	-4.539399e+01	-1.516082e+03
1.600000e-07	-6.396815e-06	-2.310814e-08	-4.513173e+01	-1.513715e+03
1.700000e-07	-6.357660e-06	-2.302264e-08	-4.485548e+01	-1.511299e+03
1.800000e-07	-6.316138e-06	-2.314776e-08	-4.456252e+01	-1.509012e+03
1.900000e-07	-6.272109e-06	-2.295807e-08	-4.425188e+01	-1.506943e+03
2.000000e-07	-6.225892e-06	-2.295654e-08	-4.392581e+01	-1.505058e+03
2.100000e-07	-6.177258e-06	-2.295817e-08	-4.358268e+01	-1.503221e+03
2.200000e-07	-6.125902e-06	-2.284647e-08	-4.322034e+01	-1.501230e+03
2.300000e-07	-6.072034e-06	-2.285001e-08	-4.284028e+01	-1.498891e+03
2.400000e-07	-6.015939e-06	-2.279134e-08	-4.244451e+01	-1.496081e+03
2.500000e-07	-5.957552e-06	-2.275527e-08	-4.203257e+01	-1.492786e+03
2.600000e-07	-5.896900e-06	-2.272174e-08	-4.160465e+01	-1.489113e+03
2.700000e-07	-5.834198e-06	-2.266486e-08	-4.116227e+01	-1.485251e+03
2.800000e-07	-5.769366e-06	-2.261438e-08	-4.070486e+01	-1.481414e+03
2.900000e-07	-5.702268e-06	-2.254526e-08	-4.023146e+01	-1.477766e+03
3.000000e-07	-5.632984e-06	-2.252391e-08	-3.974264e+01	-1.474367e+03
3.100000e-07	-5.561648e-06	-2.243979e-08	-3.923934e+01	-1.471149e+03
3.200000e-07	-5.488215e-06	-2.238676e-08	-3.872124e+01	-1.467933e+03
3.300000e-07	-5.412546e-06	-2.232675e-08	-3.818737e+01	-1.464482e+03
3.400000e-07	-5.334638e-06	-2.223495e-08	-3.763770e+01	-1.460579e+03
3.500000e-07	-5.254531e-06	-2.219505e-08	-3.707252e+01	-1.456090e+03
3.600000e-07	-5.172437e-06	-2.211323e-08	-3.649332e+01	-1.451018e+03
3.700000e-07	-5.088740e-06	-2.204545e-08	-3.590281e+01	-1.445499e+03
3.800000e-07	-5.003457e-06	-2.196500e-08	-3.530111e+01	-1.439765e+03
3.900000e-07	-4.916509e-06	-2.187869e-08	-3.468766e+01	-1.434070e+03
4.000000e-07	-4.827869e-06	-2.179024e-08	-3.406227e+01	-1.428612e+03
4.100000e-07	-4.737482e-06	-2.171137e-08	-3.342456e+01	-1.423462e+03
4.200000e-07	-4.645395e-06	-2.164062e-08	-3.277486e+01	-1.418538e+03
4.300000e-07	-4.551731e-06	-2.154638e-08	-3.211402e+01	-1.413625e+03
4.400000e-07	-4.456533e-06	-2.146006e-08	-3.144237e+01	-1.408437e+03
4.500000e-07	-4.359681e-06	-2.136320e-08	-3.075905e+01	-1.402701e+03
4.600000e-07	-4.261188e-06	-2.125756e-08	-3.006415e+01	-1.396246e+03
4.700000e-07	-4.161173e-06	-2.114959e-08	-2.935851e+01	-1.389054e+03
4.800000e-07	-4.059700e-06	-2.104516e-08	-2.864258e+01	-1.381270e+03
4.900000e-07	-3.956828e-06	-2.093794e-08	-2.791678e+01	-1.373159e+03
5.000000e-07	-3.852549e-06	-2.082325e-08	-2.718105e+01	-1.365021e+03
5.100000e-07	-3.746830e-06	-2.070701e-08	-2.643517e+01	-1.357093e+03
5.200000e-07	-3.639620e-06	-2.058304e-08	-2.567877e+01	-1.349467e+03
5.300000e-07	-3.531040e-06	-2.045247e-08	-2.491270e+01	-1.342055e+03
5.400000e-07	-3.421248e-06	-2.031922e-08	-2.413808e+01	-1.334601e+03
5.500000e-07	-3.310288e-06	-2.018799e-08	-2.335522e+01	-1.326756e+03
5.600000e-07	-3.198076e-06	-2.005053e-08	-2.256353e+01	-1.318180e+03
5.700000e-07	-3.084454e-06	-1.990224e-08	-2.176189e+01	-1.308647e+03
5.800000e-07	-2.969463e-06	-1.974450e-08	-2.095058e+01	-1.298117e+03
5.900000e-07	-2.853276e-06	-1.958304e-08	-2.013084e+01	-1.286750e+03
6.000000e-07	-2.736017e-06	-1.941692e-08	-1.930354e+01	-1.274860e+03
6.100000e-07	-2.617748e-06	-1.924829e-08	-1.846911e+01	-1.262813e+03
6.200000e-07	-2.498546e-06	-1.907414e-08	-1.762810e+01	-1.250904e+03
6.300000e-07	-2.378400e-06	-1.888877e-08	-1.678043e+01	-1.239253e+03
6.400000e-07	-2.257286e-06	-1.869301e-08	-1.592593e+01	-1.227745e+03
6.500000e-07	-2.135343e-06	-1.849078e-08	-1.506558e+01	-1.216050e+03
6.600000e-07	-2.012683e-06	-1.828184e-08	-1.420017e+01	-1.203706e+03
6.700000e-07	-1.889306e-06	-1.806592e-08	-1.332970e+01	-1.190247e+03
6.800000e-07	-1.765196e-06	-1.784286e-08	-1.245407e+01	-1.175351e+03
6.900000e-07	-1.640419e-06	-1.760662e-08	-1.157372e+01	-1.158928e+03
7.000000e-07	-1.515141e-06	-1.735795e-08	-1.068984e+01	-1.141156e+03
7.100000e-07	-1.389454e-06	-1.709449e-08	-9.803078e+00	-1.122420e+03
7.200000e-07	-1.263370e-06	-1.681851e-08	-8.913509e+00	-1.103172e+03
7.300000e-07	-1.136923e-06	-1.652740e-08	-8.021380e+00	-1.083768e+03
7.400000e-07	-1.010121e-06	-1.621776e-08	-7.126748e+00	-1.064307e+03
7.500000e-07	-8.829654e-07	-1.589102e-08	-6.229624e+00	-1.044543e+03
7.600000e-07	-7.555298e-07	-1.554344e-08	-5.330522e+00	-1.023897e+03
7.700000e-07	-6.278264e-07	-1.517274e-08	-4.429531e+00	-1.001573e+03
7.800000e-07	-4.998565e-07	-1.477863e-08	-3.526659e+00	-9.767559e+02
7.900000e-07	-3.717118e-07	-1.435983e-08	-2.622555e+00	-9.488225e+02
8.000000e-07	-2.434096e-07	-1.390929e-08	-1.717338e+00	-9.175075e+02
8.100000e-07	-1.149809e-07	-1.342101e-08	-8.112297e-01	-8.829550e+02
8.200000e-07	1.349371e-08	-1.289062e-08	9.520276e-02	-8.456198e+02
8.300000e-07	1.420115e-07	-1.231010e-08	1.001940e+00	-8.060271e+02
8.400000e-07	2.705813e-07	-1.167199e-08	1.909044e+00	-7.644379e+02
8.500000e-07	3.991582e-07	-1.096971e-08	2.816199e+00	-7.205090e+02
8.600000e-07	5.276571e-07	-1.019028e-08	3.722802e+00	-6.730482e+02
8.700000e-07	6.559312e-07	-9.318178e-09	4.627820e+00	-6.199561e+02
8.800000e-07	7.839203e-07	-8.336691e-09	5.530827e+00	-5.584083e+02
8.900000e-07	9.116271e-07	-7.216683e-09	6.431842e+00	-4.852765e+02
9.000000e-07	1.038980e-06	-5.918848e-09	7.330359e+00	-3.977251e+02
9.100000e-07	1.165969e-06	-4.400775e-09	8.226311e+00	-2.938699e+02
9.200000e-07	1.292589e-06	-2.626255e-09	9.119659e+00	-1.733572e+02
9.300000e-07	1.418822e-06	-5.794146e-10	1.001028e+01	-3.772761e+01
9.400000e-07	1.544667e-06	1.703032e-09	1.089815e+01	1.095342e+02
9.500000e-07	1.670049e-06	4.115946e-09	1.178277e+01	2.632991e+02
9.600000e-07	1.794876e-06	6.542871e-09	1.266347e+01	4.174028e+02
9.700000e-07	1.919021e-06	8.854760e-09	1.353935e+01	5.654584e+02
9.800000e-07	2.042377e-06	1.091937e-08	1.440967e+01	7.017202e+02
9.900000e-07	2.164966e-06	1.267063e-08	1.527458e+01	8.218339e+02
1.000000e-06	2.286796e-06	1.410879e-08	1.613413e+01	9.233325e+02
1.010000e-06	2.407689e-06	1.527286e-08	1.698707e+01	1.005795e+03
1.020000e-06	2.527473e-06	1.621470e-08	1.783219e+01	1.070657e+03
1.030000e-06	2.646268e-06	1.698196e-08	1.867033e+01	1.120722e+03
1.040000e-06	2.764191e-06	1.761284e-08	1.950231e+01	1.159517e+03
1.050000e-06	2.881153e-06	1.813587e-08	2.032753e+01	1.190603e+03
1.060000e-06	2.996972e-06	1.857576e-08	2.114467e+01	1.217004e+03
1.070000e-06	3.111581e-06	1.895435e-08	2.195328e+01	1.240849e+03
1.080000e-06	3.224961e-06	1.928607e-08	2.275321e+01	1.263264e+03
1.090000e-06	3.337029e-06	1.957751e-08	2.354388e+01	1.284503e+03
1.100000e-06	3.447880e-06	1.983633e-08	2.432598e+01	1.304248e+03
1.110000e-06	3.557631e-06	2.006976e-08	2.510031e+01	1.321971e+03
1.120000e-06	3.666236e-06	2.028415e-08	2.586656e+01	1.337266e+03
1.130000e-06	3.773620e-06	2.048080e-08	2.662418e+01	1.350061e+03
1.140000e-06	3.879731e-06	2.066072e-08	2.737284e+01	1.360682e+03
1.150000e-06	3.984350e-06	2.082877e-08	2.811096e+01	1.369770e+03
1.160000e-06	4.087418e-06	2.098705e-08	2.883814e+01	1.378096e+03
1.170000e-06	4.189131e-06	2.113270e-08	2.955575e+01	1.386346e+03
1.180000e-06	4.289417e-06	2.126973e-08	3.026331e+01	1.394950e+03
1.190000e-06	4.388154e-06	2.139970e-08	3.095993e+01	1.403993e+03
1.200000e-06	4.485242e-06	2.151959e-08	3.164492e+01	1.413236e+03
1.210000e-06	4.580646e-06	2.163021e-08	3.231803e+01	1.422232e+03
1.220000e-06	4.674523e-06	2.173352e-08	3.298037e+01	1.430494e+03
1.230000e-06	4.766893e-06	2.183286e-08	3.363207e+01	1.437662e+03
1.240000e-06	4.857553e-06	2.192633e-08	3.427170e+01	1.443614e+03
1.250000e-06	4.946314e-06	2.201628e-08	3.489794e+01	1.448503e+03
1.260000e-06	5.033263e-06	2.210220e-08	3.551140e+01	1.452705e+03
1.270000e-06	5.118498e-06	2.218320e-08	3.611276e+01	1.456695e+03
1.280000e-06	5.201980e-06	2.225937e-08	3.670176e+01	1.460906e+03
1.290000e-06	5.283573e-06	2.233328e-08	3.727742e+01	1.465607e+03
1.300000e-06	5.363128e-06	2.240541e-08	3.783871e+01	1.470835e+03
1.310000e-06	5.440699e-06	2.247505e-08	3.838600e+01	1.476397e+03
1.320000e-06	5.516242e-06	2.254201e-08	3.891898e+01	1.481949e+03
1.330000e-06	5.589585e-06	2.260599e-08	3.943644e+01	1.487111e+03
1.340000e-06	5.660816e-06	2.266644e-08	3.993900e+01	1.491586e+03
1.350000e-06	5.730081e-06	2.272303e-08	4.042769e+01	1.495248e+03
1.360000e-06	5.797314e-06	2.277757e-08	4.090204e+01	1.498178e+03
1.370000e-06	5.862407e-06	2.283037e-08	4.136130e+01	1.500624e+03
1.380000e-06	5.925460e-06	2.288250e-08	4.180615e+01	1.502922e+03
1.390000e-06	5.986574e-06	2.293263e-08	4.223733e+01	1.505384e+03
1.400000e-06	6.045685e-06	2.297940e-08	4.265438e+01	1.508205e+03
1.410000e-06	6.102645e-06	2.302172e-08	4.305625e+01	1.511408e+03
1.420000e-06	6.157409e-06	2.306019e-08	4.344263e+01	1.514840e+03
1.430000e-06	6.209857e-06	2.309681e-08	4.381267e+01	1.518230e+03
1.440000e-06	6.259673e-06	2.313215e-08	4.416415e+01	1.521278e+03
1.450000e-06	6.307009e-06	2.316570e-08	4.449811e+01	1.523753e+03
1.460000e-06	6.352178e-06	2.319584e-08	4.481680e+01	1.525560e+03
1.470000e-06	6.395163e-06	2.322305e-08	4.512007e+01	1.526773e+03
1.480000e-06	6.435829e-06	2.324926e-08	4.540699e+01	1.527605e+03
1.490000e-06	6.474202e-06	2.327508e-08	4.567772e+01	1.528342e+03
1.500000e-06	6.510481e-06	2.329908e-08	4.593368e+01	1.529250e+03
1.510000e-06	6.544440e-06	2.332011e-08	4.617327e+01	1.530497e+03
1.520000e-06	6.575947e-06	2.333963e-08	4.639556e+01	1.532100e+03
1.530000e-06	6.605306e-06	2.335756e-08	4.660270e+01	1.533926e+03
1.540000e-06	6.632437e-06	2.337292e-08	4.679412e+01	1.535737e+03
1.550000e-06	6.657034e-06	2.338653e-08	4.696766e+01	1.537266e+03
1.560000e-06	6.679143e-06	2.339848e-08	4.712365e+01	1.538304e+03
1.570000e-06	6.698991e-06	2.340953e-08	4.726368e+01	1.538765e+03
1.580000e-06	6.716504e-06	2.342049e-08	4.738724e+01	1.538710e+03
1.590000e-06	6.731480e-06	2.343095e-08	4.749290e+01	1.538328e+03
1.600000e-06	6.743886e-06	2.343941e-08	4.758043e+01	1.537875e+03
1.610000e-06	6.753581e-06	2.344472e-08	4.764883e+01	1.537593e+03
1.620000e-06	6.760666e-06	2.344792e-08	4.769882e+01	1.537637e+03
1.630000e-06	6.765480e-06	2.345068e-08	4.773278e+01	1.538022e+03
1.640000e-06	6.767959e-06	2.345283e-08	4.775028e+01	1.538625e+03
1.650000e-06	6.768026e-06	2.345482e-08	4.775075e+01	1.539222e+03
1.660000e-06	6.765853e-06	2.344432e-08	4.773542e+01	1.539557e+03
1.670000e-06	6.761578e-06	2.343665e-08	4.770525e+01	1.539427e+03
1.680000e-06	6.754990e-06	2.343207e-08	4.765878e+01	1.538741e+03
1.690000e-06	6.746170e-06	2.342525e-08	4.759654e+01	1.537551e+03
1.700000e-06	6.735225e-06	2.341874e-08	4.751933e+01	1.536032e+03
1.710000e-06	6.721892e-06	2.341554e-08	4.742526e+01	1.534437e+03
1.720000e-06	6.706223e-06	2.342119e-08	4.731470e+01	1.533010e+03
1.730000e-06	6.688479e-06	2.333198e-08	4.718952e+01	1.531919e+03
1.740000e-06	6.668409e-06	2.322947e-08	4.704792e+01	1.531206e+03
1.750000e-06	6.645230e-06	2.328676e-08	4.688438e+01	1.530773e+03
1.760000e-06	6.618934e-06	2.330227e-08	4.669885e+01	1.530418e+03
1.770000e-06	6.590221e-06	2.328566e-08	4.649628e+01	1.529896e+03
1.780000e-06	6.559460e-06	2.342785e-08	4.627924e+01	1.528994e+03
1.790000e-06	6.527211e-06	2.330880e-08	4.605172e+01	1.527594e+03
1.800000e-06	6.493458e-06	2.317149e-08	4.581358e+01	1.525704e+03
1.810000e-06	6.457292e-06	2.329955e-08	4.555841e+01	1.523453e+03
1.820000e-06	6.418715e-06	2.313258e-08	4.528624e+01	1.521040e+03
1.830000e-06	6.378012e-06	2.319584e-08	4.499906e+01	1.518668e+03
1.840000e-06	6.335097e-06	2.324310e-08	4.469628e+01	1.516480e+03
1.850000e-06	6.290096e-06	2.300885e-08	4.437878e+01	1.514510e+03
1.860000e-06	6.242806e-06	2.313251e-08	4.404514e+01	1.512672e+03
1.870000e-06	6.193171e-06	2.302593e-08	4.369495e+01	1.510791e+03
1.880000e-06	6.141213e-06	2.297177e-08	4.332837e+01	1.508662e+03
1.890000e-06	6.086538e-06	2.300896e-08	4.294262e+01	1.506116e+03
1.900000e-06	6.029435e-06	2.283151e-08	4.253973e+01	1.503076e+03
1.910000e-06	5.970166e-06	2.291250e-08	4.212157e+01	1.499588e+03
1.920000e-06	5.908695e-06	2.283218e-08	4.168787e+01	1.495803e+03
1.930000e-06	5.845068e-06	2.277118e-08	4.123896e+01	1.491930e+03
1.940000e-06	5.779248e-06	2.274345e-08	4.077458e+01	1.488167e+03
1.950000e-06	5.711378e-06	2.262819e-08	4.029574e+01	1.484637e+03
1.960000e-06	5.641227e-06	2.265813e-08	3.980079e+01	1.481341e+03
1.970000e-06	5.568804e-06	2.250952e-08	3.928983e+01	1.478153e+03
1.980000e-06	5.494313e-06	2.249497e-08	3.876426e+01	1.474860e+03
1.990000e-06	5.417655e-06	2.244499e-08	3.822341e+01	1.471224e+03
2.000000e-06	5.338903e-06	2.234536e-08	3.766779e+01	1.467060e+03
2.010000e-06	5.258214e-06	2.231210e-08	3.709851e+01	1.462294e+03
2.020000e-06	5.175771e-06	2.218626e-08	3.651684e+01	1.456992e+03
2.030000e-06	5.091538e-06	2.216591e-08	3.592255e+01	1.451343e+03
2.040000e-06	5.005378e-06	2.207381e-08	3.531466e+01	1.445599e+03
2.050000e-06	4.917346e-06	2.200346e-08	3.469357e+01	1.439998e+03
2.060000e-06	4.827682e-06	2.192019e-08	3.406096e+01	1.434685e+03
2.070000e-06	4.736516e-06	2.183359e-08	3.341774e+01	1.429661e+03
2.080000e-06	4.643657e-06	2.175880e-08	3.276259e+01	1.424778e+03
2.090000e-06	4.549038e-06	2.164017e-08	3.209503e+01	1.419776e+03
2.100000e-06	4.452789e-06	2.156484e-08	3.141595e+01	1.414365e+03
2.110000e-06	4.355072e-06	2.146475e-08	3.072653e+01	1.408310e+03
2.120000e-06	4.256008e-06	2.138007e-08	3.002760e+01	1.401507e+03
2.130000e-06	4.155438e-06	2.126678e-08	2.931804e+01	1.394015e+03
2.140000e-06	4.053194e-06	2.115878e-08	2.859668e+01	1.386044e+03
2.150000e-06	3.949361e-06	2.104724e-08	2.786410e+01	1.377887e+03
2.160000e-06	3.844125e-06	2.093609e-08	2.712162e+01	1.369826e+03
2.170000e-06	3.737630e-06	2.082854e-08	2.637027e+01	1.362040e+03
2.180000e-06	3.629957e-06	2.070537e-08	2.561059e+01	1.354537e+03
2.190000e-06	3.520988e-06	2.058144e-08	2.484178e+01	1.347147e+03
2.200000e-06	3.410731e-06	2.044127e-08	2.406388e+01	1.339559e+03
2.210000e-06	3.299074e-06	2.030899e-08	2.327610e+01	1.331415e+03
2.220000e-06	3.186071e-06	2.016765e-08	2.247883e+01	1.322414e+03
2.230000e-06	3.071854e-06	2.002720e-08	2.167298e+01	1.312413e+03
2.240000e-06	2.956398e-06	1.987482e-08	2.085840e+01	1.301465e+03
2.250000e-06	2.839729e-06	1.971687e-08	2.003526e+01	1.289812e+03
2.260000e-06	2.721843e-06	1.954881e-08	1.920354e+01	1.277807e+03
2.270000e-06	2.602894e-06	1.937971e-08	1.836431e+01	1.265798e+03
2.280000e-06	2.482862e-06	1.920712e-08	1.751744e+01	1.254010e+03
2.290000e-06	2.361909e-06	1.902183e-08	1.666408e+01	1.242456e+03
2.300000e-06	2.240243e-06	1.882759e-08	1.580568e+01	1.230915e+03
2.310000e-06	2.117893e-06	1.862321e-08	1.494246e+01	1.218982e+03
2.320000e-06	1.994957e-06	1.841333e-08	1.407511e+01	1.206174e+03
2.330000e-06	1.871396e-06	1.819037e-08	1.320334e+01	1.192078e+03
2.340000e-06	1.747070e-06	1.795761e-08	1.232618e+01	1.176469e+03
2.350000e-06	1.621978e-06	1.771493e-08	1.144361e+01	1.159385e+03
2.360000e-06	1.496334e-06	1.746482e-08	1.055715e+01	1.141112e+03
2.370000e-06	1.370294e-06	1.720066e-08	9.667896e+00	1.122085e+03
2.380000e-06	1.243846e-06	1.692062e-08	8.775762e+00	1.102735e+03
2.390000e-06	1.116957e-06	1.662331e-08	7.880518e+00	1.083315e+03
2.400000e-06	9.896918e-07	1.630552e-08	6.982616e+00	1.063767e+03
2.410000e-06	8.620740e-07	1.597027e-08	6.082228e+00	1.043685e+03
2.420000e-06	7.341353e-07	1.561582e-08	5.179576e+00	1.022367e+03
2.430000e-06	6.059559e-07	1.524022e-08	4.275227e+00	9.989821e+02
2.440000e-06	4.775306e-07	1.483794e-08	3.369142e+00	9.727787e+02
2.450000e-06	3.488650e-07	1.440515e-08	2.461362e+00	9.432850e+02
2.460000e-06	2.200249e-07	1.393845e-08	1.552351e+00	9.104281e+02
2.470000e-06	9.109296e-08	1.343128e-08	6.426921e-01	8.745177e+02
2.480000e-06	-3.790260e-08	1.288025e-08	-2.674159e-01	8.360789e+02
2.490000e-06	-1.668960e-07	1.227580e-08	-1.177509e+00	7.955581e+02
2.500000e-06	-2.957912e-07	1.161227e-08	-2.086908e+00	7.529749e+02
2.510000e-06	-4.245568e-07	1.088302e-08	-2.995394e+00	7.076129e+02
2.520000e-06	-5.532129e-07	1.007361e-08	-3.903107e+00	6.578518e+02
2.530000e-06	-6.817173e-07	9.165167e-09	-4.809750e+00	6.012179e+02
2.540000e-06	-8.100235e-07	8.133034e-09	-5.714994e+00	5.346803e+02
2.550000e-06	-9.379789e-07	6.948339e-09	-6.617764e+00	4.551658e+02
2.560000e-06	-1.065507e-06	5.573085e-09	-7.517517e+00	3.601998e+02
2.570000e-06	-1.192581e-06	3.965941e-09	-8.414070e+00	2.485470e+02
2.580000e-06	-1.319183e-06	2.093450e-09	-9.307288e+00	1.207054e+02
2.590000e-06	-1.445417e-06	-5.120510e-11	-1.019791e+01	-2.086696e+01
2.600000e-06	-1.571256e-06	-2.415088e-09	-1.108575e+01	-1.718640e+02
2.610000e-06	-1.696536e-06	-4.883167e-09	-1.196965e+01	-3.265845e+02
2.620000e-06	-1.821051e-06	-7.314132e-09	-1.284814e+01	-4.786531e+02
2.630000e-06	-1.944669e-06	-9.565315e-09	-1.372031e+01	-6.218762e+02
2.640000e-06	-2.067408e-06	-1.153289e-08	-1.458627e+01	-7.510736e+02
2.650000e-06	-2.189442e-06	-1.318246e-08	-1.544726e+01	-8.627246e+02
2.660000e-06	-2.310824e-06	-1.452998e-08	-1.630366e+01	-9.553147e+02
2.670000e-06	-2.431366e-06	-1.562072e-08	-1.715412e+01	-1.029328e+03
2.680000e-06	-2.550899e-06	-1.650393e-08	-1.799747e+01	-1.086909e+03
2.690000e-06	-2.669426e-06	-1.722139e-08	-1.883371e+01	-1.131284e+03
2.700000e-06	-2.786942e-06	-1.781338e-08	-1.966283e+01	-1.166076e+03
2.710000e-06	-2.903286e-06	-1.830865e-08	-2.048368e+01	-1.194657e+03
2.720000e-06	-3.018350e-06	-1.872855e-08	-2.129550e+01	-1.219666e+03
2.730000e-06	-3.132171e-06	-1.908966e-08	-2.209854e+01	-1.242763e+03
2.740000e-06	-3.244791e-06	-1.940388e-08	-2.289312e+01	-1.264642e+03
2.750000e-06	-3.356105e-06	-1.968180e-08	-2.367847e+01	-1.285246e+03
2.760000e-06	-3.466038e-06	-1.993021e-08	-2.445409e+01	-1.304115e+03
2.770000e-06	-3.574760e-06	-2.015647e-08	-2.522116e+01	-1.320742e+03
2.780000e-06	-3.682374e-06	-2.036491e-08	-2.598041e+01	-1.334859e+03
2.790000e-06	-3.788892e-06	-2.055366e-08	-2.673194e+01	-1.346579e+03
2.800000e-06	-3.894203e-06	-2.072403e-08	-2.747494e+01	-1.356394e+03
2.810000e-06	-3.998004e-06	-2.088127e-08	-2.820729e+01	-1.365031e+03
2.820000e-06	-4.100262e-06	-2.103012e-08	-2.892876e+01	-1.373246e+03
2.830000e-06	-4.201011e-06	-2.117263e-08	-2.963957e+01	-1.381625e+03
2.840000e-06	-4.300296e-06	-2.130734e-08	-3.034007e+01	-1.390442e+03
2.850000e-06	-4.398235e-06	-2.143320e-08	-3.103106e+01	-1.399622e+03
2.860000e-06	-4.494634e-06	-2.154963e-08	-3.171119e+01	-1.408810e+03
2.870000e-06	-4.589378e-06	-2.165825e-08	-3.237964e+01	-1.417520e+03
2.880000e-06	-4.682467e-06	-2.176042e-08	-3.303641e+01	-1.425304e+03
2.890000e-06	-4.773891e-06	-2.185556e-08	-3.368144e+01	-1.431903e+03
2.900000e-06	-4.863662e-06	-2.194360e-08	-3.431481e+01	-1.437325e+03
2.910000e-06	-4.951659e-06	-2.202715e-08	-3.493565e+01	-1.441838e+03
2.920000e-06	-5.037762e-06	-2.210923e-08	-3.554314e+01	-1.445879e+03
2.930000e-06	-5.121951e-06	-2.219008e-08	-3.613712e+01	-1.449923e+03
2.940000e-06	-5.204323e-06	-2.226799e-08	-3.671828e+01	-1.454340e+03
