# Temperatura_=_87.28
# Concentracion g/m^3_=_41000.0
# C_Vs_to_Am_M_A/Vsm_=_65563218390.804596
# pendiente_HvsI_1/m_=_3716.3
# ordenada_HvsI_A/m_=_1297.0
# frecuencia_Hz_=_302010.40288726724

Tiempo_(s)	Campo_(V.s)	Magnetizacion_(V.s)	Campo_(kA/m)	Magnetizacion_(A/m)
0.000000e+00	-6.675764e-06	-2.413217e-08	-4.746655e+01	-1.582501e+03
1.000000e-08	-6.672769e-06	-2.412793e-08	-4.744526e+01	-1.582659e+03
2.000000e-08	-6.667550e-06	-2.411778e-08	-4.740815e+01	-1.582280e+03
3.000000e-08	-6.660269e-06	-2.410772e-08	-4.735638e+01	-1.581326e+03
4.000000e-08	-6.650733e-06	-2.409640e-08	-4.728858e+01	-1.579903e+03
5.000000e-08	-6.638760e-06	-2.408107e-08	-4.720344e+01	-1.578224e+03
6.000000e-08	-6.624375e-06	-2.406460e-08	-4.710116e+01	-1.576547e+03
7.000000e-08	-6.607641e-06	-2.404354e-08	-4.698218e+01	-1.575097e+03
8.000000e-08	-6.588702e-06	-2.405504e-08	-4.684752e+01	-1.573997e+03
9.000000e-08	-6.567466e-06	-2.410819e-08	-4.669652e+01	-1.573232e+03
1.000000e-07	-6.543632e-06	-2.406538e-08	-4.652706e+01	-1.572661e+03
1.100000e-07	-6.517058e-06	-2.398605e-08	-4.633811e+01	-1.572057e+03
1.200000e-07	-6.488138e-06	-2.395688e-08	-4.613248e+01	-1.571181e+03
1.300000e-07	-6.457317e-06	-2.387674e-08	-4.591333e+01	-1.569855e+03
1.400000e-07	-6.424807e-06	-2.378243e-08	-4.568218e+01	-1.568014e+03
1.500000e-07	-6.390388e-06	-2.390779e-08	-4.543745e+01	-1.565720e+03
1.600000e-07	-6.353820e-06	-2.389296e-08	-4.517744e+01	-1.563137e+03
1.700000e-07	-6.315280e-06	-2.376695e-08	-4.490341e+01	-1.560476e+03
1.800000e-07	-6.274471e-06	-2.386370e-08	-4.461325e+01	-1.557922e+03
1.900000e-07	-6.231167e-06	-2.374255e-08	-4.430534e+01	-1.555574e+03
2.000000e-07	-6.185653e-06	-2.364877e-08	-4.398172e+01	-1.553413e+03
2.100000e-07	-6.137882e-06	-2.367347e-08	-4.364206e+01	-1.551306e+03
2.200000e-07	-6.087461e-06	-2.358493e-08	-4.328355e+01	-1.549052e+03
2.300000e-07	-6.034464e-06	-2.356142e-08	-4.290673e+01	-1.546446e+03
2.400000e-07	-5.979147e-06	-2.351889e-08	-4.251341e+01	-1.543350e+03
2.500000e-07	-5.921471e-06	-2.345882e-08	-4.210332e+01	-1.539733e+03
2.600000e-07	-5.861565e-06	-2.341534e-08	-4.167737e+01	-1.535691e+03
2.700000e-07	-5.799633e-06	-2.334286e-08	-4.123701e+01	-1.531408e+03
2.800000e-07	-5.735668e-06	-2.329917e-08	-4.078221e+01	-1.527105e+03
2.900000e-07	-5.669469e-06	-2.324208e-08	-4.031151e+01	-1.522961e+03
3.000000e-07	-5.601076e-06	-2.319891e-08	-3.982522e+01	-1.519057e+03
3.100000e-07	-5.530655e-06	-2.311493e-08	-3.932451e+01	-1.515343e+03
3.200000e-07	-5.458187e-06	-2.302868e-08	-3.880924e+01	-1.511653e+03
3.300000e-07	-5.383556e-06	-2.297061e-08	-3.827859e+01	-1.507752e+03
3.400000e-07	-5.306725e-06	-2.288032e-08	-3.773230e+01	-1.503411e+03
3.500000e-07	-5.227798e-06	-2.282314e-08	-3.717111e+01	-1.498482e+03
3.600000e-07	-5.146787e-06	-2.274720e-08	-3.659510e+01	-1.492945e+03
3.700000e-07	-5.063967e-06	-2.265965e-08	-3.600623e+01	-1.486920e+03
3.800000e-07	-4.979605e-06	-2.257199e-08	-3.540639e+01	-1.480631e+03
3.900000e-07	-4.893635e-06	-2.247495e-08	-3.479511e+01	-1.474338e+03
4.000000e-07	-4.806011e-06	-2.238765e-08	-3.417208e+01	-1.468252e+03
4.100000e-07	-4.716681e-06	-2.230203e-08	-3.353692e+01	-1.462467e+03
4.200000e-07	-4.625605e-06	-2.221684e-08	-3.288935e+01	-1.456923e+03
4.300000e-07	-4.532912e-06	-2.211462e-08	-3.223027e+01	-1.451420e+03
4.400000e-07	-4.438645e-06	-2.201002e-08	-3.156001e+01	-1.445674e+03
4.500000e-07	-4.342805e-06	-2.190829e-08	-3.087856e+01	-1.439406e+03
4.600000e-07	-4.245357e-06	-2.179520e-08	-3.018568e+01	-1.432425e+03
4.700000e-07	-4.146259e-06	-2.168244e-08	-2.948107e+01	-1.424692e+03
4.800000e-07	-4.045733e-06	-2.156934e-08	-2.876629e+01	-1.416336e+03
4.900000e-07	-3.943865e-06	-2.145262e-08	-2.804198e+01	-1.407612e+03
5.000000e-07	-3.840586e-06	-2.132471e-08	-2.730764e+01	-1.398825e+03
5.100000e-07	-3.735920e-06	-2.119308e-08	-2.656344e+01	-1.390228e+03
5.200000e-07	-3.629787e-06	-2.105978e-08	-2.580880e+01	-1.381938e+03
5.300000e-07	-3.522235e-06	-2.092110e-08	-2.504408e+01	-1.373888e+03
5.400000e-07	-3.413398e-06	-2.078477e-08	-2.427021e+01	-1.365838e+03
5.500000e-07	-3.303372e-06	-2.064528e-08	-2.348790e+01	-1.357440e+03
5.600000e-07	-3.192176e-06	-2.049955e-08	-2.269727e+01	-1.348343e+03
5.700000e-07	-3.079840e-06	-2.034121e-08	-2.189853e+01	-1.338295e+03
5.800000e-07	-2.966262e-06	-2.017271e-08	-2.109095e+01	-1.327230e+03
5.900000e-07	-2.851299e-06	-1.999990e-08	-2.027354e+01	-1.315285e+03
6.000000e-07	-2.735055e-06	-1.982460e-08	-1.944701e+01	-1.302765e+03
6.100000e-07	-2.617716e-06	-1.964659e-08	-1.861269e+01	-1.290041e+03
6.200000e-07	-2.499425e-06	-1.945973e-08	-1.777161e+01	-1.277433e+03
6.300000e-07	-2.380199e-06	-1.926288e-08	-1.692388e+01	-1.265091e+03
6.400000e-07	-2.260127e-06	-1.905863e-08	-1.607014e+01	-1.252934e+03
6.500000e-07	-2.139354e-06	-1.885152e-08	-1.521141e+01	-1.240653e+03
6.600000e-07	-2.017877e-06	-1.863788e-08	-1.434767e+01	-1.227790e+03
6.700000e-07	-1.895557e-06	-1.841502e-08	-1.347794e+01	-1.213866e+03
6.800000e-07	-1.772398e-06	-1.818119e-08	-1.260225e+01	-1.198525e+03
6.900000e-07	-1.648563e-06	-1.793341e-08	-1.172175e+01	-1.181643e+03
7.000000e-07	-1.524224e-06	-1.767302e-08	-1.083766e+01	-1.163366e+03
7.100000e-07	-1.399514e-06	-1.740024e-08	-9.950935e+00	-1.144062e+03
7.200000e-07	-1.274446e-06	-1.711697e-08	-9.061666e+00	-1.124197e+03
7.300000e-07	-1.148971e-06	-1.682062e-08	-8.169503e+00	-1.104158e+03
7.400000e-07	-1.023070e-06	-1.650707e-08	-7.274312e+00	-1.084089e+03
7.500000e-07	-8.968233e-07	-1.617352e-08	-6.376665e+00	-1.063796e+03
7.600000e-07	-7.702948e-07	-1.582032e-08	-5.477012e+00	-1.042733e+03
7.700000e-07	-6.434803e-07	-1.544450e-08	-4.575325e+00	-1.020116e+03
7.800000e-07	-5.164537e-07	-1.504592e-08	-3.672130e+00	-9.951062e+02
7.900000e-07	-3.893368e-07	-1.462477e-08	-2.768294e+00	-9.670344e+02
8.000000e-07	-2.621019e-07	-1.417175e-08	-1.863618e+00	-9.355757e+02
8.100000e-07	-1.347161e-07	-1.367903e-08	-9.578695e-01	-9.008212e+02
8.200000e-07	-7.249785e-09	-1.314242e-08	-5.154800e-02	-8.631984e+02
8.300000e-07	1.202639e-07	-1.255905e-08	8.551100e-01	-8.232434e+02
8.400000e-07	2.477774e-07	-1.192230e-08	1.761767e+00	-7.812682e+02
8.500000e-07	3.752367e-07	-1.122338e-08	2.668038e+00	-7.370084e+02
8.600000e-07	5.026266e-07	-1.044666e-08	3.573816e+00	-6.893547e+02
8.700000e-07	6.298705e-07	-9.575348e-09	4.478556e+00	-6.362635e+02
8.800000e-07	7.569059e-07	-8.593126e-09	5.381813e+00	-5.749091e+02
8.900000e-07	8.837534e-07	-7.472150e-09	6.283734e+00	-5.020846e+02
9.000000e-07	1.010315e-06	-6.177130e-09	7.183620e+00	-4.147940e+02
9.100000e-07	1.136510e-06	-4.664223e-09	8.080903e+00	-3.109277e+02
9.200000e-07	1.262314e-06	-2.889017e-09	8.975409e+00	-1.898761e+02
9.300000e-07	1.387657e-06	-8.254758e-10	9.866629e+00	-5.294111e+01
9.400000e-07	1.512633e-06	1.486763e-09	1.075524e+01	9.656313e+01
9.500000e-07	1.637244e-06	3.921121e-09	1.164127e+01	2.535679e+02
9.600000e-07	1.761341e-06	6.370703e-09	1.252363e+01	4.118355e+02
9.700000e-07	1.884783e-06	8.755686e-09	1.340133e+01	5.647734e+02
9.800000e-07	2.007411e-06	1.093289e-08	1.427325e+01	7.063246e+02
9.900000e-07	2.129157e-06	1.278958e-08	1.513891e+01	8.317664e+02
1.000000e-06	2.250028e-06	1.431466e-08	1.599833e+01	9.382660e+02
1.010000e-06	2.369976e-06	1.554701e-08	1.685119e+01	1.025098e+03
1.020000e-06	2.488985e-06	1.653932e-08	1.769738e+01	1.093498e+03
1.030000e-06	2.607131e-06	1.734199e-08	1.853743e+01	1.146206e+03
1.040000e-06	2.724376e-06	1.799704e-08	1.937108e+01	1.186807e+03
1.050000e-06	2.840604e-06	1.853920e-08	2.019749e+01	1.219025e+03
1.060000e-06	2.955692e-06	1.899449e-08	2.101580e+01	1.246108e+03
1.070000e-06	3.069505e-06	1.938604e-08	2.182504e+01	1.270413e+03
1.080000e-06	3.182035e-06	1.973112e-08	2.262516e+01	1.293261e+03
1.090000e-06	3.293361e-06	2.003972e-08	2.341672e+01	1.315033e+03
1.100000e-06	3.403567e-06	2.031448e-08	2.420032e+01	1.335458e+03
1.110000e-06	3.512689e-06	2.055855e-08	2.497620e+01	1.353986e+03
1.120000e-06	3.620735e-06	2.077910e-08	2.574444e+01	1.370142e+03
1.130000e-06	3.727543e-06	2.098265e-08	2.650388e+01	1.383770e+03
1.140000e-06	3.832970e-06	2.117156e-08	2.725349e+01	1.395127e+03
1.150000e-06	3.936932e-06	2.134877e-08	2.799269e+01	1.404819e+03
1.160000e-06	4.039437e-06	2.151654e-08	2.872153e+01	1.413623e+03
1.170000e-06	4.140637e-06	2.167206e-08	2.944109e+01	1.422273e+03
1.180000e-06	4.240489e-06	2.181723e-08	3.015107e+01	1.431265e+03
1.190000e-06	4.338786e-06	2.195305e-08	3.084999e+01	1.440746e+03
1.200000e-06	4.435317e-06	2.208275e-08	3.153634e+01	1.450521e+03
1.210000e-06	4.530182e-06	2.220478e-08	3.221086e+01	1.460153e+03
1.220000e-06	4.623529e-06	2.231998e-08	3.287459e+01	1.469129e+03
1.230000e-06	4.715409e-06	2.242958e-08	3.352788e+01	1.477037e+03
1.240000e-06	4.805642e-06	2.253192e-08	3.416946e+01	1.483697e+03
1.250000e-06	4.893994e-06	2.262721e-08	3.479767e+01	1.489207e+03
1.260000e-06	4.980546e-06	2.271731e-08	3.541307e+01	1.493910e+03
1.270000e-06	5.065424e-06	2.280438e-08	3.601659e+01	1.498279e+03
1.280000e-06	5.148599e-06	2.288827e-08	3.660798e+01	1.502777e+03
1.290000e-06	5.229827e-06	2.296977e-08	3.718554e+01	1.507717e+03
1.300000e-06	5.309063e-06	2.304794e-08	3.774892e+01	1.513187e+03
1.310000e-06	5.386417e-06	2.312329e-08	3.829893e+01	1.519037e+03
1.320000e-06	5.461753e-06	2.319612e-08	3.883460e+01	1.524945e+03
1.330000e-06	5.534882e-06	2.326627e-08	3.935456e+01	1.530527e+03
1.340000e-06	5.605899e-06	2.333397e-08	3.985951e+01	1.535465e+03
1.350000e-06	5.674991e-06	2.339752e-08	4.035078e+01	1.539599e+03
1.360000e-06	5.742109e-06	2.345635e-08	4.082800e+01	1.542975e+03
1.370000e-06	5.807083e-06	2.351274e-08	4.128998e+01	1.545822e+03
1.380000e-06	5.869933e-06	2.356809e-08	4.173687e+01	1.548470e+03
1.390000e-06	5.930850e-06	2.362246e-08	4.217000e+01	1.551246e+03
1.400000e-06	5.989807e-06	2.367520e-08	4.258920e+01	1.554372e+03
1.410000e-06	6.046565e-06	2.372388e-08	4.299277e+01	1.557899e+03
1.420000e-06	6.101105e-06	2.376999e-08	4.338056e+01	1.561695e+03
1.430000e-06	6.153409e-06	2.381388e-08	4.375246e+01	1.565496e+03
1.440000e-06	6.203208e-06	2.385473e-08	4.410654e+01	1.568990e+03
1.450000e-06	6.250515e-06	2.389193e-08	4.444291e+01	1.571916e+03
1.460000e-06	6.295657e-06	2.392525e-08	4.476388e+01	1.574147e+03
1.470000e-06	6.338711e-06	2.395631e-08	4.507001e+01	1.575723e+03
1.480000e-06	6.379428e-06	2.398571e-08	4.535952e+01	1.576840e+03
1.490000e-06	6.417869e-06	2.401483e-08	4.563284e+01	1.577778e+03
1.500000e-06	6.454284e-06	2.404323e-08	4.589176e+01	1.578821e+03
1.510000e-06	6.488448e-06	2.406958e-08	4.613468e+01	1.580166e+03
1.520000e-06	6.520161e-06	2.409303e-08	4.636017e+01	1.581862e+03
1.530000e-06	6.549613e-06	2.411360e-08	4.656958e+01	1.583805e+03
1.540000e-06	6.576867e-06	2.413007e-08	4.676337e+01	1.585772e+03
1.550000e-06	6.601594e-06	2.414331e-08	4.693918e+01	1.587494e+03
1.560000e-06	6.623810e-06	2.415687e-08	4.709714e+01	1.588745e+03
1.570000e-06	6.643897e-06	2.417047e-08	4.723997e+01	1.589413e+03
1.580000e-06	6.661681e-06	2.418302e-08	4.736642e+01	1.589531e+03
1.590000e-06	6.676926e-06	2.419378e-08	4.747482e+01	1.589269e+03
1.600000e-06	6.689683e-06	2.420334e-08	4.756552e+01	1.588877e+03
1.610000e-06	6.699758e-06	2.421236e-08	4.763716e+01	1.588608e+03
1.620000e-06	6.707230e-06	2.421933e-08	4.769029e+01	1.588636e+03
1.630000e-06	6.712401e-06	2.422407e-08	4.772705e+01	1.589003e+03
1.640000e-06	6.715279e-06	2.422576e-08	4.774751e+01	1.589608e+03
1.650000e-06	6.715734e-06	2.422671e-08	4.775075e+01	1.590238e+03
1.660000e-06	6.713847e-06	2.421843e-08	4.773733e+01	1.590636e+03
1.670000e-06	6.709872e-06	2.420765e-08	4.770907e+01	1.590579e+03
1.680000e-06	6.703616e-06	2.420114e-08	4.766458e+01	1.589952e+03
1.690000e-06	6.695116e-06	2.419340e-08	4.760415e+01	1.588779e+03
1.700000e-06	6.684600e-06	2.418605e-08	4.752938e+01	1.587218e+03
1.710000e-06	6.671828e-06	2.418022e-08	4.743857e+01	1.585511e+03
1.720000e-06	6.656651e-06	2.417947e-08	4.733065e+01	1.583911e+03
1.730000e-06	6.639373e-06	2.413110e-08	4.720780e+01	1.582605e+03
1.740000e-06	6.619930e-06	2.401889e-08	4.706956e+01	1.581661e+03
1.750000e-06	6.597520e-06	2.402528e-08	4.691022e+01	1.581005e+03
1.760000e-06	6.571900e-06	2.405359e-08	4.672805e+01	1.580452e+03
1.770000e-06	6.543767e-06	2.403466e-08	4.652802e+01	1.579761e+03
1.780000e-06	6.513550e-06	2.412708e-08	4.631317e+01	1.578711e+03
1.790000e-06	6.481715e-06	2.408785e-08	4.608681e+01	1.577167e+03
1.800000e-06	6.448438e-06	2.391647e-08	4.585020e+01	1.575119e+03
1.810000e-06	6.412981e-06	2.398981e-08	4.559809e+01	1.572679e+03
1.820000e-06	6.375150e-06	2.391883e-08	4.532911e+01	1.570039e+03
1.830000e-06	6.335148e-06	2.389050e-08	4.504468e+01	1.567407e+03
1.840000e-06	6.292886e-06	2.400660e-08	4.474419e+01	1.564938e+03
1.850000e-06	6.248601e-06	2.382087e-08	4.442930e+01	1.562682e+03
1.860000e-06	6.202104e-06	2.382519e-08	4.409869e+01	1.560568e+03
1.870000e-06	6.153197e-06	2.379020e-08	4.375096e+01	1.558426e+03
1.880000e-06	6.102129e-06	2.366327e-08	4.338784e+01	1.556046e+03
1.890000e-06	6.048378e-06	2.370976e-08	4.300566e+01	1.553244e+03
1.900000e-06	5.992063e-06	2.359362e-08	4.260525e+01	1.549923e+03
1.910000e-06	5.933610e-06	2.361258e-08	4.218963e+01	1.546108e+03
1.920000e-06	5.873033e-06	2.359643e-08	4.175891e+01	1.541939e+03
1.930000e-06	5.810314e-06	2.345828e-08	4.131296e+01	1.537623e+03
1.940000e-06	5.745350e-06	2.343772e-08	4.085105e+01	1.533373e+03
1.950000e-06	5.678282e-06	2.332098e-08	4.037417e+01	1.529332e+03
1.960000e-06	5.609026e-06	2.332131e-08	3.988174e+01	1.525525e+03
1.970000e-06	5.537531e-06	2.323575e-08	3.937340e+01	1.521850e+03
1.980000e-06	5.463977e-06	2.315261e-08	3.885041e+01	1.518102e+03
1.990000e-06	5.388422e-06	2.312612e-08	3.831319e+01	1.514039e+03
2.000000e-06	5.310761e-06	2.299482e-08	3.776100e+01	1.509460e+03
2.010000e-06	5.230969e-06	2.294725e-08	3.719366e+01	1.504267e+03
2.020000e-06	5.149306e-06	2.284776e-08	3.661300e+01	1.498501e+03
2.030000e-06	5.065916e-06	2.279820e-08	3.602008e+01	1.492333e+03
2.040000e-06	4.980784e-06	2.273029e-08	3.541477e+01	1.486014e+03
2.050000e-06	4.893796e-06	2.261716e-08	3.479626e+01	1.479792e+03
2.060000e-06	4.805031e-06	2.253229e-08	3.416512e+01	1.473834e+03
2.070000e-06	4.714725e-06	2.242339e-08	3.352302e+01	1.468171e+03
2.080000e-06	4.622872e-06	2.234524e-08	3.286991e+01	1.462677e+03
2.090000e-06	4.529421e-06	2.223102e-08	3.220545e+01	1.457109e+03
2.100000e-06	4.434223e-06	2.213915e-08	3.152857e+01	1.451172e+03
2.110000e-06	4.337484e-06	2.204376e-08	3.084073e+01	1.444616e+03
2.120000e-06	4.239376e-06	2.193728e-08	3.014315e+01	1.437310e+03
2.130000e-06	4.139808e-06	2.182258e-08	2.943519e+01	1.429288e+03
2.140000e-06	4.038730e-06	2.169639e-08	2.871650e+01	1.420740e+03
2.150000e-06	3.935921e-06	2.158468e-08	2.798550e+01	1.411955e+03
2.160000e-06	3.831566e-06	2.146215e-08	2.724351e+01	1.403227e+03
2.170000e-06	3.725957e-06	2.134545e-08	2.649260e+01	1.394759e+03
2.180000e-06	3.619154e-06	2.121009e-08	2.573320e+01	1.386593e+03
2.190000e-06	3.511156e-06	2.107421e-08	2.496531e+01	1.378583e+03
2.200000e-06	3.401991e-06	2.093055e-08	2.418911e+01	1.370432e+03
2.210000e-06	3.291457e-06	2.078813e-08	2.340318e+01	1.361776e+03
2.220000e-06	3.179498e-06	2.064290e-08	2.260712e+01	1.352295e+03
2.230000e-06	3.066380e-06	2.049240e-08	2.180282e+01	1.341810e+03
2.240000e-06	2.952097e-06	2.033384e-08	2.099023e+01	1.330341e+03
2.250000e-06	2.836656e-06	2.016056e-08	2.016942e+01	1.318108e+03
2.260000e-06	2.720058e-06	1.998146e-08	1.934037e+01	1.305457e+03
2.270000e-06	2.602346e-06	1.980123e-08	1.850341e+01	1.292754e+03
2.280000e-06	2.483489e-06	1.962229e-08	1.765830e+01	1.280256e+03
2.290000e-06	2.363561e-06	1.942956e-08	1.680558e+01	1.268020e+03
2.300000e-06	2.242867e-06	1.922647e-08	1.594742e+01	1.255861e+03
2.310000e-06	2.121576e-06	1.901348e-08	1.508500e+01	1.243394e+03
2.320000e-06	1.999587e-06	1.879504e-08	1.421762e+01	1.230133e+03
2.330000e-06	1.876875e-06	1.856542e-08	1.334511e+01	1.215636e+03
2.340000e-06	1.753529e-06	1.832623e-08	1.246808e+01	1.199636e+03
2.350000e-06	1.629588e-06	1.807854e-08	1.158683e+01	1.182125e+03
2.360000e-06	1.505163e-06	1.781856e-08	1.070213e+01	1.163356e+03
2.370000e-06	1.380324e-06	1.754371e-08	9.814493e+00	1.143758e+03
2.380000e-06	1.255090e-06	1.725214e-08	8.924045e+00	1.123783e+03
2.390000e-06	1.129445e-06	1.694796e-08	8.030668e+00	1.103734e+03
2.400000e-06	1.003341e-06	1.662645e-08	7.134033e+00	1.083617e+03
2.410000e-06	8.767905e-07	1.628941e-08	6.234226e+00	1.063081e+03
2.420000e-06	7.498699e-07	1.593339e-08	5.331785e+00	1.041458e+03
2.430000e-06	6.226114e-07	1.555200e-08	4.426941e+00	1.017915e+03
2.440000e-06	4.950631e-07	1.514133e-08	3.520037e+00	9.916605e+02
2.450000e-06	3.673229e-07	1.470037e-08	2.611768e+00	9.621550e+02
2.460000e-06	2.393977e-07	1.422839e-08	1.702184e+00	9.292517e+02
2.470000e-06	1.113270e-07	1.371846e-08	7.915665e-01	8.932047e+02
2.480000e-06	-1.677189e-08	1.316630e-08	-1.192528e-01	8.545237e+02
2.490000e-06	-1.448896e-07	1.256294e-08	-1.030206e+00	8.136929e+02
2.500000e-06	-2.729566e-07	1.189867e-08	-1.940798e+00	7.708179e+02
2.510000e-06	-4.008753e-07	1.116740e-08	-2.850336e+00	7.252966e+02
2.520000e-06	-5.286622e-07	1.035805e-08	-3.758936e+00	6.756169e+02
2.530000e-06	-6.563071e-07	9.452840e-09	-4.666528e+00	6.193665e+02
2.540000e-06	-7.836898e-07	8.425995e-09	-5.572254e+00	5.534940e+02
2.550000e-06	-9.107004e-07	7.245009e-09	-6.475335e+00	4.748027e+02
2.560000e-06	-1.037256e-06	5.873767e-09	-7.375181e+00	3.805937e+02
2.570000e-06	-1.163309e-06	4.268200e-09	-8.271451e+00	2.693340e+02
2.580000e-06	-1.288919e-06	2.387806e-09	-9.164576e+00	1.411991e+02
2.590000e-06	-1.414139e-06	2.200350e-10	-1.005493e+01	-1.638485e+00
2.600000e-06	-1.538958e-06	-2.178004e-09	-1.094242e+01	-1.550604e+02
2.610000e-06	-1.663154e-06	-4.678135e-09	-1.182549e+01	-3.134090e+02
2.620000e-06	-1.786620e-06	-7.168804e-09	-1.270337e+01	-4.701864e+02
2.630000e-06	-1.909424e-06	-9.528900e-09	-1.357654e+01	-6.189222e+02
2.640000e-06	-2.031455e-06	-1.161474e-08	-1.444422e+01	-7.540445e+02
2.650000e-06	-2.152693e-06	-1.336148e-08	-1.530625e+01	-8.715908e+02
2.660000e-06	-2.273272e-06	-1.478308e-08	-1.616360e+01	-9.696265e+02
2.670000e-06	-2.393116e-06	-1.592740e-08	-1.701573e+01	-1.048305e+03
2.680000e-06	-2.511904e-06	-1.685098e-08	-1.786034e+01	-1.109576e+03
2.690000e-06	-2.629559e-06	-1.760340e-08	-1.869690e+01	-1.156630e+03
2.700000e-06	-2.746103e-06	-1.822400e-08	-1.952556e+01	-1.193196e+03
2.710000e-06	-2.861535e-06	-1.874095e-08	-2.034631e+01	-1.222859e+03
2.720000e-06	-2.975877e-06	-1.917555e-08	-2.115932e+01	-1.248520e+03
2.730000e-06	-3.088960e-06	-1.954705e-08	-2.196337e+01	-1.272096e+03
2.740000e-06	-3.200758e-06	-1.987067e-08	-2.275829e+01	-1.294480e+03
2.750000e-06	-3.311283e-06	-2.015802e-08	-2.354415e+01	-1.315731e+03
2.760000e-06	-3.420570e-06	-2.041675e-08	-2.432121e+01	-1.335411e+03
2.770000e-06	-3.528818e-06	-2.065481e-08	-2.509089e+01	-1.352964e+03
2.780000e-06	-3.636015e-06	-2.087495e-08	-2.585308e+01	-1.368030e+03
2.790000e-06	-3.742034e-06	-2.107490e-08	-2.660691e+01	-1.380628e+03
2.800000e-06	-3.846742e-06	-2.125642e-08	-2.735141e+01	-1.391179e+03
2.810000e-06	-3.949937e-06	-2.142337e-08	-2.808516e+01	-1.400390e+03
2.820000e-06	-4.051585e-06	-2.158016e-08	-2.880790e+01	-1.409047e+03
2.830000e-06	-4.151746e-06	-2.172885e-08	-2.952008e+01	-1.417800e+03
2.840000e-06	-4.250516e-06	-2.187099e-08	-3.022236e+01	-1.427003e+03
2.850000e-06	-4.347923e-06	-2.200632e-08	-3.091495e+01	-1.436649e+03
2.860000e-06	-4.443890e-06	-2.213390e-08	-3.159730e+01	-1.446422e+03
2.870000e-06	-4.538246e-06	-2.225418e-08	-3.226820e+01	-1.455831e+03
2.880000e-06	-4.630889e-06	-2.236772e-08	-3.292692e+01	-1.464387e+03
2.890000e-06	-4.721870e-06	-2.247375e-08	-3.357382e+01	-1.471764e+03
2.900000e-06	-4.811141e-06	-2.257223e-08	-3.420856e+01	-1.477900e+03
2.910000e-06	-4.898671e-06	-2.266506e-08	-3.483092e+01	-1.483009e+03
2.920000e-06	-4.984358e-06	-2.275207e-08	-3.544018e+01	-1.487506e+03
2.930000e-06	-5.068231e-06	-2.283417e-08	-3.603654e+01	-1.491878e+03
2.940000e-06	-5.150378e-06	-2.291453e-08	-3.662063e+01	-1.496537e+03
