# Temperatura_=_94.8
# Concentracion g/m^3_=_41000.0
# C_Vs_to_Am_M_A/Vsm_=_65563218390.804596
# pendiente_HvsI_1/m_=_3716.3
# ordenada_HvsI_A/m_=_1297.0
# frecuencia_Hz_=_302010.0041775613

Tiempo_(s)	Campo_(V.s)	Magnetizacion_(V.s)	Campo_(kA/m)	Magnetizacion_(A/m)
0.000000e+00	-6.711648e-06	-2.459218e-08	-4.746918e+01	-1.613196e+03
1.000000e-08	-6.708676e-06	-2.459047e-08	-4.744816e+01	-1.613309e+03
2.000000e-08	-6.703441e-06	-2.458243e-08	-4.741113e+01	-1.612868e+03
3.000000e-08	-6.696141e-06	-2.457365e-08	-4.735950e+01	-1.611852e+03
4.000000e-08	-6.686596e-06	-2.456240e-08	-4.729199e+01	-1.610378e+03
5.000000e-08	-6.674603e-06	-2.454701e-08	-4.720717e+01	-1.608668e+03
6.000000e-08	-6.660125e-06	-2.452996e-08	-4.710478e+01	-1.606978e+03
7.000000e-08	-6.643272e-06	-2.451002e-08	-4.698558e+01	-1.605523e+03
8.000000e-08	-6.624280e-06	-2.452146e-08	-4.685126e+01	-1.604414e+03
9.000000e-08	-6.603036e-06	-2.456914e-08	-4.670100e+01	-1.603626e+03
1.000000e-07	-6.579093e-06	-2.452976e-08	-4.653166e+01	-1.603008e+03
1.100000e-07	-6.552411e-06	-2.445140e-08	-4.634295e+01	-1.602336e+03
1.200000e-07	-6.523384e-06	-2.441973e-08	-4.613765e+01	-1.601379e+03
1.300000e-07	-6.492425e-06	-2.434745e-08	-4.591869e+01	-1.599974e+03
1.400000e-07	-6.459731e-06	-2.425337e-08	-4.568745e+01	-1.598068e+03
1.500000e-07	-6.425087e-06	-2.434875e-08	-4.544243e+01	-1.595731e+03
1.600000e-07	-6.388334e-06	-2.435428e-08	-4.518249e+01	-1.593130e+03
1.700000e-07	-6.349621e-06	-2.422238e-08	-4.490868e+01	-1.590463e+03
1.800000e-07	-6.308753e-06	-2.429452e-08	-4.461964e+01	-1.587898e+03
1.900000e-07	-6.265430e-06	-2.421486e-08	-4.431323e+01	-1.585511e+03
2.000000e-07	-6.219809e-06	-2.411477e-08	-4.399057e+01	-1.583262e+03
2.100000e-07	-6.171849e-06	-2.413937e-08	-4.365136e+01	-1.581007e+03
2.200000e-07	-6.121218e-06	-2.405839e-08	-4.329327e+01	-1.578541e+03
2.300000e-07	-6.067955e-06	-2.399855e-08	-4.291656e+01	-1.575673e+03
2.400000e-07	-6.012368e-06	-2.394567e-08	-4.252341e+01	-1.572281e+03
2.500000e-07	-5.954517e-06	-2.389961e-08	-4.211425e+01	-1.568359e+03
2.600000e-07	-5.894378e-06	-2.385271e-08	-4.168891e+01	-1.564021e+03
2.700000e-07	-5.832126e-06	-2.378069e-08	-4.124862e+01	-1.559466e+03
2.800000e-07	-5.767769e-06	-2.373656e-08	-4.079344e+01	-1.554914e+03
2.900000e-07	-5.701219e-06	-2.366160e-08	-4.032276e+01	-1.550538e+03
3.000000e-07	-5.632508e-06	-2.360035e-08	-3.983679e+01	-1.546403e+03
3.100000e-07	-5.561728e-06	-2.353084e-08	-3.933619e+01	-1.542441e+03
3.200000e-07	-5.488919e-06	-2.345027e-08	-3.882124e+01	-1.538475e+03
3.300000e-07	-5.413935e-06	-2.338541e-08	-3.829090e+01	-1.534265e+03
3.400000e-07	-5.336717e-06	-2.329421e-08	-3.774477e+01	-1.529588e+03
3.500000e-07	-5.257278e-06	-2.321984e-08	-3.718292e+01	-1.524307e+03
3.600000e-07	-5.175746e-06	-2.313681e-08	-3.660627e+01	-1.518419e+03
3.700000e-07	-5.092478e-06	-2.305120e-08	-3.601735e+01	-1.512057e+03
3.800000e-07	-5.007632e-06	-2.296305e-08	-3.541726e+01	-1.505453e+03
3.900000e-07	-4.921211e-06	-2.286283e-08	-3.480603e+01	-1.498865e+03
4.000000e-07	-4.833158e-06	-2.276759e-08	-3.418326e+01	-1.492493e+03
4.100000e-07	-4.743343e-06	-2.266927e-08	-3.354803e+01	-1.486417e+03
4.200000e-07	-4.651804e-06	-2.257516e-08	-3.290061e+01	-1.480560e+03
4.300000e-07	-4.558693e-06	-2.247240e-08	-3.224207e+01	-1.474715e+03
4.400000e-07	-4.464089e-06	-2.236639e-08	-3.157297e+01	-1.468597e+03
4.500000e-07	-4.367845e-06	-2.226018e-08	-3.089227e+01	-1.461933e+03
4.600000e-07	-4.269887e-06	-2.214317e-08	-3.019944e+01	-1.454549e+03
4.700000e-07	-4.170397e-06	-2.202201e-08	-2.949578e+01	-1.446421e+03
4.800000e-07	-4.069417e-06	-2.190043e-08	-2.878158e+01	-1.437688e+03
4.900000e-07	-3.967035e-06	-2.177815e-08	-2.805747e+01	-1.428605e+03
5.000000e-07	-3.863307e-06	-2.164503e-08	-2.732384e+01	-1.419469e+03
5.100000e-07	-3.758091e-06	-2.150980e-08	-2.657968e+01	-1.410516e+03
5.200000e-07	-3.651400e-06	-2.137187e-08	-2.582509e+01	-1.401842e+03
5.300000e-07	-3.543324e-06	-2.122598e-08	-2.506071e+01	-1.393365e+03
5.400000e-07	-3.434000e-06	-2.107841e-08	-2.428750e+01	-1.384838e+03
5.500000e-07	-3.323529e-06	-2.092750e-08	-2.350618e+01	-1.375925e+03
5.600000e-07	-3.211804e-06	-2.077242e-08	-2.271598e+01	-1.366293e+03
5.700000e-07	-3.098742e-06	-2.060849e-08	-2.191633e+01	-1.355723e+03
5.800000e-07	-2.984348e-06	-2.043786e-08	-2.110727e+01	-1.344174e+03
5.900000e-07	-2.868609e-06	-2.026091e-08	-2.028869e+01	-1.331805e+03
6.000000e-07	-2.751646e-06	-2.007979e-08	-1.946144e+01	-1.318920e+03
6.100000e-07	-2.633680e-06	-1.989414e-08	-1.862711e+01	-1.305875e+03
6.200000e-07	-2.514838e-06	-1.969922e-08	-1.778658e+01	-1.292954e+03
6.300000e-07	-2.395144e-06	-1.949587e-08	-1.694003e+01	-1.280267e+03
6.400000e-07	-2.274568e-06	-1.928418e-08	-1.608724e+01	-1.267698e+03
6.500000e-07	-2.153129e-06	-1.906707e-08	-1.522834e+01	-1.254919e+03
6.600000e-07	-2.030843e-06	-1.884367e-08	-1.436345e+01	-1.241474e+03
6.700000e-07	-1.907795e-06	-1.861018e-08	-1.349318e+01	-1.226912e+03
6.800000e-07	-1.784054e-06	-1.836623e-08	-1.261800e+01	-1.210922e+03
6.900000e-07	-1.659635e-06	-1.811167e-08	-1.173803e+01	-1.193428e+03
7.000000e-07	-1.534663e-06	-1.784574e-08	-1.085415e+01	-1.174615e+03
7.100000e-07	-1.409238e-06	-1.756680e-08	-9.967057e+00	-1.154865e+03
7.200000e-07	-1.283477e-06	-1.727452e-08	-9.077588e+00	-1.134627e+03
7.300000e-07	-1.157396e-06	-1.696797e-08	-8.185866e+00	-1.114242e+03
7.400000e-07	-1.030968e-06	-1.664334e-08	-7.291682e+00	-1.093792e+03
7.500000e-07	-9.041426e-07	-1.630026e-08	-6.394690e+00	-1.073016e+03
7.600000e-07	-7.768967e-07	-1.593931e-08	-5.494723e+00	-1.051323e+03
7.700000e-07	-6.494061e-07	-1.555531e-08	-4.593026e+00	-1.027916e+03
7.800000e-07	-5.217591e-07	-1.514661e-08	-3.690223e+00	-1.001987e+03
7.900000e-07	-3.939674e-07	-1.471138e-08	-2.786396e+00	-9.729261e+02
8.000000e-07	-2.660303e-07	-1.424308e-08	-1.881541e+00	-9.404871e+02
8.100000e-07	-1.379393e-07	-1.373657e-08	-9.755972e-01	-9.048268e+02
8.200000e-07	-9.771337e-09	-1.318760e-08	-6.910931e-02	-8.663993e+02
8.300000e-07	1.184231e-07	-1.258938e-08	8.375661e-01	-8.257065e+02
8.400000e-07	2.466522e-07	-1.193489e-08	1.744486e+00	-7.829566e+02
8.500000e-07	3.748389e-07	-1.121551e-08	2.651107e+00	-7.377229e+02
8.600000e-07	5.028679e-07	-1.041458e-08	3.556612e+00	-6.887019e+02
8.700000e-07	6.307277e-07	-9.515296e-09	4.460920e+00	-6.336665e+02
8.800000e-07	7.584414e-07	-8.500337e-09	5.364195e+00	-5.696635e+02
8.900000e-07	8.859640e-07	-7.339914e-09	6.266119e+00	-4.934553e+02
9.000000e-07	1.013200e-06	-5.993303e-09	7.166013e+00	-4.021369e+02
9.100000e-07	1.140044e-06	-4.415049e-09	8.063140e+00	-2.938123e+02
9.200000e-07	1.266460e-06	-2.557974e-09	8.957237e+00	-1.681859e+02
9.300000e-07	1.392454e-06	-4.026852e-10	9.848347e+00	-2.692800e+01
9.400000e-07	1.518028e-06	1.970808e-09	1.073649e+01	1.262831e+02
9.500000e-07	1.643165e-06	4.420957e-09	1.162154e+01	2.860784e+02
9.600000e-07	1.767790e-06	6.872870e-09	1.250297e+01	4.460341e+02
9.700000e-07	1.891837e-06	9.262549e-09	1.338031e+01	5.995139e+02
9.800000e-07	2.015208e-06	1.143766e-08	1.425287e+01	7.405627e+02
9.900000e-07	2.137718e-06	1.327755e-08	1.511935e+01	8.646801e+02
1.000000e-06	2.259235e-06	1.477426e-08	1.597879e+01	9.693330e+02
1.010000e-06	2.379837e-06	1.597394e-08	1.683177e+01	1.054117e+03
1.020000e-06	2.499599e-06	1.693656e-08	1.767880e+01	1.120556e+03
1.030000e-06	2.618451e-06	1.771659e-08	1.851940e+01	1.171604e+03
1.040000e-06	2.736388e-06	1.835714e-08	1.935353e+01	1.210960e+03
1.050000e-06	2.853370e-06	1.888997e-08	2.018090e+01	1.242367e+03
1.060000e-06	2.969233e-06	1.934016e-08	2.100037e+01	1.269008e+03
1.070000e-06	3.083739e-06	1.972845e-08	2.181022e+01	1.293133e+03
1.080000e-06	3.196887e-06	2.006935e-08	2.261048e+01	1.315938e+03
1.090000e-06	3.308858e-06	2.037285e-08	2.340242e+01	1.337705e+03
1.100000e-06	3.419699e-06	2.064366e-08	2.418635e+01	1.358100e+03
1.110000e-06	3.529382e-06	2.088810e-08	2.496211e+01	1.376560e+03
1.120000e-06	3.637935e-06	2.111245e-08	2.572986e+01	1.392634e+03
1.130000e-06	3.745369e-06	2.131983e-08	2.648971e+01	1.406213e+03
1.140000e-06	3.851428e-06	2.151119e-08	2.723983e+01	1.417601e+03
1.150000e-06	3.956003e-06	2.168985e-08	2.797945e+01	1.427434e+03
1.160000e-06	4.059120e-06	2.185974e-08	2.870876e+01	1.436496e+03
1.170000e-06	4.160769e-06	2.201941e-08	2.942769e+01	1.445496e+03
1.180000e-06	4.261075e-06	2.217047e-08	3.013712e+01	1.454887e+03
1.190000e-06	4.359832e-06	2.231368e-08	3.083559e+01	1.464767e+03
1.200000e-06	4.456867e-06	2.244805e-08	3.152188e+01	1.474898e+03
1.210000e-06	4.552302e-06	2.257265e-08	3.219686e+01	1.484821e+03
1.220000e-06	4.646146e-06	2.269048e-08	3.286059e+01	1.494023e+03
1.230000e-06	4.738492e-06	2.280332e-08	3.351373e+01	1.502113e+03
1.240000e-06	4.829256e-06	2.291115e-08	3.415566e+01	1.508939e+03
1.250000e-06	4.918188e-06	2.301376e-08	3.478465e+01	1.514633e+03
1.260000e-06	5.005232e-06	2.311043e-08	3.540028e+01	1.519560e+03
1.270000e-06	5.090513e-06	2.320186e-08	3.600345e+01	1.524201e+03
1.280000e-06	5.174148e-06	2.328991e-08	3.659497e+01	1.529003e+03
1.290000e-06	5.255904e-06	2.337559e-08	3.717320e+01	1.534258e+03
1.300000e-06	5.335629e-06	2.345776e-08	3.773706e+01	1.540025e+03
1.310000e-06	5.413405e-06	2.353608e-08	3.828715e+01	1.546131e+03
1.320000e-06	5.489157e-06	2.361034e-08	3.882292e+01	1.552242e+03
1.330000e-06	5.562715e-06	2.368140e-08	3.934317e+01	1.557981e+03
1.340000e-06	5.634152e-06	2.375093e-08	3.984842e+01	1.563045e+03
1.350000e-06	5.703615e-06	2.381868e-08	4.033971e+01	1.567303e+03
1.360000e-06	5.771127e-06	2.388365e-08	4.081719e+01	1.570823e+03
1.370000e-06	5.836492e-06	2.394684e-08	4.127950e+01	1.573849e+03
1.380000e-06	5.899688e-06	2.400733e-08	4.172646e+01	1.576716e+03
1.390000e-06	5.960972e-06	2.406494e-08	4.215991e+01	1.579738e+03
1.400000e-06	6.020348e-06	2.412021e-08	4.257985e+01	1.583116e+03
1.410000e-06	6.077538e-06	2.417110e-08	4.298433e+01	1.586875e+03
1.420000e-06	6.132515e-06	2.421900e-08	4.337317e+01	1.590864e+03
1.430000e-06	6.185260e-06	2.426434e-08	4.374621e+01	1.594807e+03
1.440000e-06	6.235420e-06	2.430772e-08	4.410098e+01	1.598395e+03
1.450000e-06	6.283059e-06	2.434984e-08	4.443791e+01	1.601384e+03
1.460000e-06	6.328544e-06	2.438843e-08	4.475961e+01	1.603666e+03
1.470000e-06	6.371959e-06	2.442274e-08	4.506667e+01	1.605304e+03
1.480000e-06	6.412997e-06	2.445522e-08	4.535692e+01	1.606509e+03
1.490000e-06	6.451662e-06	2.448724e-08	4.563038e+01	1.607567e+03
1.500000e-06	6.488208e-06	2.451676e-08	4.588886e+01	1.608756e+03
1.510000e-06	6.522490e-06	2.454114e-08	4.613133e+01	1.610253e+03
1.520000e-06	6.554375e-06	2.456144e-08	4.635684e+01	1.612092e+03
1.530000e-06	6.583990e-06	2.458083e-08	4.656629e+01	1.614149e+03
1.540000e-06	6.611389e-06	2.459881e-08	4.676008e+01	1.616192e+03
1.550000e-06	6.636286e-06	2.461702e-08	4.693617e+01	1.617955e+03
1.560000e-06	6.658699e-06	2.463534e-08	4.709469e+01	1.619221e+03
1.570000e-06	6.678908e-06	2.465144e-08	4.723762e+01	1.619895e+03
1.580000e-06	6.696758e-06	2.466559e-08	4.736386e+01	1.620028e+03
1.590000e-06	6.712090e-06	2.467744e-08	4.747230e+01	1.619803e+03
1.600000e-06	6.724926e-06	2.468749e-08	4.756309e+01	1.619473e+03
1.610000e-06	6.735067e-06	2.469553e-08	4.763481e+01	1.619284e+03
1.620000e-06	6.742597e-06	2.470024e-08	4.768807e+01	1.619396e+03
1.630000e-06	6.747890e-06	2.470305e-08	4.772550e+01	1.619833e+03
1.640000e-06	6.750902e-06	2.470427e-08	4.774680e+01	1.620481e+03
1.650000e-06	6.751459e-06	2.470513e-08	4.775075e+01	1.621117e+03
1.660000e-06	6.749643e-06	2.469866e-08	4.773791e+01	1.621486e+03
1.670000e-06	6.745709e-06	2.468911e-08	4.771008e+01	1.621376e+03
1.680000e-06	6.739539e-06	2.468427e-08	4.766644e+01	1.620685e+03
1.690000e-06	6.731073e-06	2.467783e-08	4.760656e+01	1.619453e+03
1.700000e-06	6.720507e-06	2.466947e-08	4.753183e+01	1.617849e+03
1.710000e-06	6.707685e-06	2.465911e-08	4.744115e+01	1.616118e+03
1.720000e-06	6.692461e-06	2.464817e-08	4.733348e+01	1.614510e+03
1.730000e-06	6.675110e-06	2.459355e-08	4.721076e+01	1.613199e+03
1.740000e-06	6.655595e-06	2.448615e-08	4.707273e+01	1.612241e+03
1.750000e-06	6.633082e-06	2.449093e-08	4.691351e+01	1.611552e+03
1.760000e-06	6.607371e-06	2.452250e-08	4.673166e+01	1.610942e+03
1.770000e-06	6.579162e-06	2.450652e-08	4.653215e+01	1.610176e+03
1.780000e-06	6.548876e-06	2.458086e-08	4.631795e+01	1.609043e+03
1.790000e-06	6.516982e-06	2.456514e-08	4.609237e+01	1.607425e+03
1.800000e-06	6.483592e-06	2.440847e-08	4.585622e+01	1.605321e+03
1.810000e-06	6.447968e-06	2.446266e-08	4.560426e+01	1.602849e+03
1.820000e-06	6.409894e-06	2.442147e-08	4.533497e+01	1.600197e+03
1.830000e-06	6.369708e-06	2.435289e-08	4.505075e+01	1.597560e+03
1.840000e-06	6.327367e-06	2.442901e-08	4.475129e+01	1.595071e+03
1.850000e-06	6.282901e-06	2.426859e-08	4.443680e+01	1.592757e+03
1.860000e-06	6.236133e-06	2.425220e-08	4.410602e+01	1.590530e+03
1.870000e-06	6.186977e-06	2.424295e-08	4.375836e+01	1.588212e+03
1.880000e-06	6.135615e-06	2.413423e-08	4.339509e+01	1.585597e+03
1.890000e-06	6.081602e-06	2.415804e-08	4.301308e+01	1.582515e+03
1.900000e-06	6.025087e-06	2.404469e-08	4.261336e+01	1.578891e+03
1.910000e-06	5.966446e-06	2.402942e-08	4.219862e+01	1.574773e+03
1.920000e-06	5.905636e-06	2.399562e-08	4.176853e+01	1.570317e+03
1.930000e-06	5.842684e-06	2.387224e-08	4.132330e+01	1.565739e+03
1.940000e-06	5.777537e-06	2.386368e-08	4.086253e+01	1.561249e+03
1.950000e-06	5.710276e-06	2.375257e-08	4.038682e+01	1.556978e+03
1.960000e-06	5.640697e-06	2.372264e-08	3.989471e+01	1.552935e+03
1.970000e-06	5.568781e-06	2.363703e-08	3.938607e+01	1.549000e+03
1.980000e-06	5.494873e-06	2.354851e-08	3.886335e+01	1.544962e+03
1.990000e-06	5.418841e-06	2.351390e-08	3.832560e+01	1.540577e+03
2.000000e-06	5.340618e-06	2.339583e-08	3.777235e+01	1.535653e+03
2.010000e-06	5.260363e-06	2.333933e-08	3.720474e+01	1.530106e+03
2.020000e-06	5.178320e-06	2.323608e-08	3.662448e+01	1.523993e+03
2.030000e-06	5.094601e-06	2.316400e-08	3.603236e+01	1.517498e+03
2.040000e-06	5.008978e-06	2.308245e-08	3.542677e+01	1.510873e+03
2.050000e-06	4.921467e-06	2.297878e-08	3.480784e+01	1.504361e+03
2.060000e-06	4.832295e-06	2.289833e-08	3.417716e+01	1.498117e+03
2.070000e-06	4.741624e-06	2.278914e-08	3.353588e+01	1.492155e+03
2.080000e-06	4.649392e-06	2.269962e-08	3.288355e+01	1.486337e+03
2.090000e-06	4.555413e-06	2.258194e-08	3.221887e+01	1.480413e+03
2.100000e-06	4.459739e-06	2.247862e-08	3.154220e+01	1.474092e+03
2.110000e-06	4.362568e-06	2.237283e-08	3.085494e+01	1.467136e+03
2.120000e-06	4.264032e-06	2.226144e-08	3.015803e+01	1.459428e+03
2.130000e-06	4.164044e-06	2.214501e-08	2.945085e+01	1.451017e+03
2.140000e-06	4.062398e-06	2.201943e-08	2.873194e+01	1.442100e+03
2.150000e-06	3.959109e-06	2.189784e-08	2.800142e+01	1.432962e+03
2.160000e-06	3.854334e-06	2.176881e-08	2.726037e+01	1.423884e+03
2.170000e-06	3.748242e-06	2.164550e-08	2.651002e+01	1.415051e+03
2.180000e-06	3.641015e-06	2.150659e-08	2.575165e+01	1.406484e+03
2.190000e-06	3.532534e-06	2.136329e-08	2.498440e+01	1.398025e+03
2.200000e-06	3.422749e-06	2.121316e-08	2.420792e+01	1.389378e+03
2.210000e-06	3.311641e-06	2.106459e-08	2.342210e+01	1.380195e+03
2.220000e-06	3.199129e-06	2.091068e-08	2.262634e+01	1.370181e+03
2.230000e-06	3.085411e-06	2.075212e-08	2.182205e+01	1.359187e+03
2.240000e-06	2.970561e-06	2.058554e-08	2.100976e+01	1.347259e+03
2.250000e-06	2.854519e-06	2.040957e-08	2.018903e+01	1.334628e+03
2.260000e-06	2.737191e-06	2.022848e-08	1.935921e+01	1.321634e+03
2.270000e-06	2.618638e-06	2.004266e-08	1.852073e+01	1.308617e+03
2.280000e-06	2.499050e-06	1.985487e-08	1.767492e+01	1.295798e+03
2.290000e-06	2.378482e-06	1.965507e-08	1.682219e+01	1.283192e+03
2.300000e-06	2.257106e-06	1.944606e-08	1.596374e+01	1.270585e+03
2.310000e-06	2.135125e-06	1.922669e-08	1.510100e+01	1.257581e+03
2.320000e-06	2.012554e-06	1.900012e-08	1.423410e+01	1.243710e+03
2.330000e-06	1.889324e-06	1.876348e-08	1.336254e+01	1.228564e+03
2.340000e-06	1.765466e-06	1.851754e-08	1.248653e+01	1.211925e+03
2.350000e-06	1.641014e-06	1.826197e-08	1.160633e+01	1.193831e+03
2.360000e-06	1.515984e-06	1.799552e-08	1.072204e+01	1.174564e+03
2.370000e-06	1.390372e-06	1.771575e-08	9.833620e+00	1.154555e+03
2.380000e-06	1.264224e-06	1.741972e-08	8.941418e+00	1.134226e+03
2.390000e-06	1.137645e-06	1.710935e-08	8.046170e+00	1.113824e+03
2.400000e-06	1.010667e-06	1.677762e-08	7.148101e+00	1.093289e+03
2.410000e-06	8.833620e-07	1.642598e-08	6.247716e+00	1.072210e+03
2.420000e-06	7.557573e-07	1.605613e-08	5.345212e+00	1.049888e+03
2.430000e-06	6.279033e-07	1.566461e-08	4.440944e+00	1.025494e+03
2.440000e-06	4.998433e-07	1.524635e-08	3.535220e+00	9.982809e+02
2.450000e-06	3.716063e-07	1.479840e-08	2.628243e+00	9.677806e+02
2.460000e-06	2.432527e-07	1.431837e-08	1.720443e+00	9.339223e+02
2.470000e-06	1.147202e-07	1.379537e-08	8.113766e-01	8.970127e+02
2.480000e-06	-1.395214e-08	1.322597e-08	-9.867865e-02	8.575638e+02
2.490000e-06	-1.426303e-07	1.260385e-08	-1.008775e+00	8.159957e+02
2.500000e-06	-2.712837e-07	1.192113e-08	-1.918696e+00	7.722830e+02
2.510000e-06	-3.998391e-07	1.117075e-08	-2.827924e+00	7.256432e+02
2.520000e-06	-5.282218e-07	1.033695e-08	-3.735931e+00	6.743691e+02
2.530000e-06	-6.564419e-07	9.401812e-09	-4.642787e+00	6.158832e+02
2.540000e-06	-7.844564e-07	8.339069e-09	-5.548190e+00	5.470440e+02
2.550000e-06	-9.121885e-07	7.115004e-09	-6.451595e+00	4.646742e+02
2.560000e-06	-1.039589e-06	5.688337e-09	-7.352653e+00	3.662200e+02
2.570000e-06	-1.166573e-06	4.010487e-09	-8.250773e+00	2.504091e+02
2.580000e-06	-1.293054e-06	2.040208e-09	-9.145325e+00	1.177609e+02
2.590000e-06	-1.419014e-06	-2.234401e-10	-1.003620e+01	-2.917795e+01
2.600000e-06	-1.544428e-06	-2.679991e-09	-1.092321e+01	-1.859453e+02
2.610000e-06	-1.669200e-06	-5.194399e-09	-1.180568e+01	-3.466269e+02
2.620000e-06	-1.793351e-06	-7.692119e-09	-1.268375e+01	-5.045980e+02
2.630000e-06	-1.916820e-06	-1.005714e-08	-1.355701e+01	-6.534079e+02
2.640000e-06	-2.039484e-06	-1.213374e-08	-1.442457e+01	-7.876428e+02
2.650000e-06	-2.161370e-06	-1.385639e-08	-1.528663e+01	-9.036018e+02
2.660000e-06	-2.282529e-06	-1.524803e-08	-1.614354e+01	-9.996662e+02
2.670000e-06	-2.402965e-06	-1.636484e-08	-1.699534e+01	-1.076302e+03
2.680000e-06	-2.522541e-06	-1.726549e-08	-1.784106e+01	-1.135721e+03
2.690000e-06	-2.640991e-06	-1.799712e-08	-1.867882e+01	-1.181284e+03
2.700000e-06	-2.758240e-06	-1.859785e-08	-1.950808e+01	-1.216795e+03
2.710000e-06	-2.874422e-06	-1.909957e-08	-2.032979e+01	-1.245816e+03
2.720000e-06	-2.989474e-06	-1.952584e-08	-2.114352e+01	-1.271163e+03
2.730000e-06	-3.103279e-06	-1.989449e-08	-2.194842e+01	-1.294632e+03
2.740000e-06	-3.215713e-06	-2.021798e-08	-2.274363e+01	-1.317000e+03
2.750000e-06	-3.326801e-06	-2.050543e-08	-2.352932e+01	-1.338240e+03
2.760000e-06	-3.436679e-06	-2.076376e-08	-2.430645e+01	-1.357873e+03
2.770000e-06	-3.545426e-06	-2.100054e-08	-2.507558e+01	-1.375348e+03
2.780000e-06	-3.653129e-06	-2.122071e-08	-2.583733e+01	-1.390340e+03
2.790000e-06	-3.759701e-06	-2.142312e-08	-2.659107e+01	-1.402918e+03
2.800000e-06	-3.864950e-06	-2.160729e-08	-2.733546e+01	-1.413546e+03
2.810000e-06	-3.968806e-06	-2.177733e-08	-2.807000e+01	-1.422949e+03
2.820000e-06	-4.071101e-06	-2.193772e-08	-2.879350e+01	-1.431908e+03
2.830000e-06	-4.171824e-06	-2.208949e-08	-2.950587e+01	-1.441037e+03
2.840000e-06	-4.271118e-06	-2.223424e-08	-3.020815e+01	-1.450644e+03
2.850000e-06	-4.368994e-06	-2.237300e-08	-3.090039e+01	-1.460675e+03
2.860000e-06	-4.465480e-06	-2.250535e-08	-3.158280e+01	-1.470779e+03
2.870000e-06	-4.560304e-06	-2.263002e-08	-3.225346e+01	-1.480450e+03
2.880000e-06	-4.653348e-06	-2.274636e-08	-3.291153e+01	-1.489210e+03
2.890000e-06	-4.744797e-06	-2.285543e-08	-3.355832e+01	-1.496757e+03
2.900000e-06	-4.834669e-06	-2.295800e-08	-3.419395e+01	-1.503065e+03
2.910000e-06	-4.922815e-06	-2.305426e-08	-3.481738e+01	-1.508374e+03
2.920000e-06	-5.009009e-06	-2.314498e-08	-3.542700e+01	-1.513116e+03
2.930000e-06	-5.093323e-06	-2.323113e-08	-3.602332e+01	-1.517775e+03
2.940000e-06	-5.175922e-06	-2.331496e-08	-3.660751e+01	-1.522746e+03
