# Temperatura_=_69.86
# Concentracion g/m^3_=_41000.0
# C_Vs_to_Am_M_A/Vsm_=_65563218390.804596
# pendiente_HvsI_1/m_=_3716.3
# ordenada_HvsI_A/m_=_1297.0
# frecuencia_Hz_=_302009.60840085894

Tiempo_(s)	Campo_(V.s)	Magnetizacion_(V.s)	Campo_(kA/m)	Magnetizacion_(A/m)
0.000000e+00	-6.722582e-06	-2.320853e-08	-4.746711e+01	-1.521662e+03
1.000000e-08	-6.719307e-06	-2.320500e-08	-4.744399e+01	-1.521838e+03
2.000000e-08	-6.713895e-06	-2.319835e-08	-4.740577e+01	-1.521485e+03
3.000000e-08	-6.706466e-06	-2.319035e-08	-4.735332e+01	-1.520578e+03
4.000000e-08	-6.696759e-06	-2.317885e-08	-4.728478e+01	-1.519236e+03
5.000000e-08	-6.684523e-06	-2.316624e-08	-4.719839e+01	-1.517680e+03
6.000000e-08	-6.669779e-06	-2.315345e-08	-4.709428e+01	-1.516170e+03
7.000000e-08	-6.652657e-06	-2.314016e-08	-4.697338e+01	-1.514923e+03
8.000000e-08	-6.633432e-06	-2.316440e-08	-4.683764e+01	-1.514046e+03
9.000000e-08	-6.611884e-06	-2.319936e-08	-4.668549e+01	-1.513504e+03
1.000000e-07	-6.587585e-06	-2.314867e-08	-4.651392e+01	-1.513135e+03
1.100000e-07	-6.560537e-06	-2.308183e-08	-4.632294e+01	-1.512697e+03
1.200000e-07	-6.531175e-06	-2.305680e-08	-4.611562e+01	-1.511947e+03
1.300000e-07	-6.499979e-06	-2.298395e-08	-4.589534e+01	-1.510712e+03
1.400000e-07	-6.467091e-06	-2.292416e-08	-4.566313e+01	-1.508940e+03
1.500000e-07	-6.432284e-06	-2.302825e-08	-4.541736e+01	-1.506717e+03
1.600000e-07	-6.395362e-06	-2.298745e-08	-4.515666e+01	-1.504231e+03
1.700000e-07	-6.356395e-06	-2.289251e-08	-4.488152e+01	-1.501713e+03
1.800000e-07	-6.315149e-06	-2.293951e-08	-4.459029e+01	-1.499362e+03
1.900000e-07	-6.271415e-06	-2.284470e-08	-4.428149e+01	-1.497280e+03
2.000000e-07	-6.225388e-06	-2.279669e-08	-4.395650e+01	-1.495439e+03
2.100000e-07	-6.177012e-06	-2.280909e-08	-4.361492e+01	-1.493693e+03
2.200000e-07	-6.126022e-06	-2.277614e-08	-4.325489e+01	-1.491820e+03
2.300000e-07	-6.072521e-06	-2.274374e-08	-4.287713e+01	-1.489597e+03
2.400000e-07	-6.016737e-06	-2.266019e-08	-4.248325e+01	-1.486870e+03
2.500000e-07	-5.958599e-06	-2.261131e-08	-4.207274e+01	-1.483601e+03
2.600000e-07	-5.898173e-06	-2.256785e-08	-4.164609e+01	-1.479883e+03
2.700000e-07	-5.835705e-06	-2.251163e-08	-4.120501e+01	-1.475910e+03
2.800000e-07	-5.771132e-06	-2.248394e-08	-4.074907e+01	-1.471913e+03
2.900000e-07	-5.704334e-06	-2.242602e-08	-4.027742e+01	-1.468086e+03
3.000000e-07	-5.635349e-06	-2.235914e-08	-3.979033e+01	-1.464524e+03
3.100000e-07	-5.564275e-06	-2.228258e-08	-3.928849e+01	-1.461186e+03
3.200000e-07	-5.491077e-06	-2.223191e-08	-3.877165e+01	-1.457911e+03
3.300000e-07	-5.415664e-06	-2.217701e-08	-3.823917e+01	-1.454466e+03
3.400000e-07	-5.338021e-06	-2.210945e-08	-3.769094e+01	-1.450616e+03
3.500000e-07	-5.258180e-06	-2.205549e-08	-3.712720e+01	-1.446205e+03
3.600000e-07	-5.176390e-06	-2.197029e-08	-3.654969e+01	-1.441201e+03
3.700000e-07	-5.092906e-06	-2.189385e-08	-3.596022e+01	-1.435713e+03
3.800000e-07	-5.007740e-06	-2.181931e-08	-3.535888e+01	-1.429955e+03
3.900000e-07	-4.920976e-06	-2.173850e-08	-3.474625e+01	-1.424180e+03
4.000000e-07	-4.832657e-06	-2.165482e-08	-3.412264e+01	-1.418596e+03
4.100000e-07	-4.742565e-06	-2.157043e-08	-3.348652e+01	-1.413298e+03
4.200000e-07	-4.650725e-06	-2.148680e-08	-3.283805e+01	-1.408232e+03
4.300000e-07	-4.557315e-06	-2.139338e-08	-3.217849e+01	-1.403208e+03
4.400000e-07	-4.462357e-06	-2.130065e-08	-3.150802e+01	-1.397953e+03
4.500000e-07	-4.365761e-06	-2.120401e-08	-3.082596e+01	-1.392198e+03
4.600000e-07	-4.267421e-06	-2.110360e-08	-3.013160e+01	-1.385759e+03
4.700000e-07	-4.167569e-06	-2.100010e-08	-2.942656e+01	-1.378599e+03
4.800000e-07	-4.066372e-06	-2.089853e-08	-2.871203e+01	-1.370842e+03
4.900000e-07	-3.963723e-06	-2.079344e-08	-2.798723e+01	-1.362734e+03
5.000000e-07	-3.859651e-06	-2.067537e-08	-2.725240e+01	-1.354566e+03
5.100000e-07	-3.754145e-06	-2.055263e-08	-2.650744e+01	-1.346579e+03
5.200000e-07	-3.647166e-06	-2.042828e-08	-2.575207e+01	-1.338879e+03
5.300000e-07	-3.538817e-06	-2.029910e-08	-2.498704e+01	-1.331396e+03
5.400000e-07	-3.429216e-06	-2.016513e-08	-2.421317e+01	-1.323894e+03
5.500000e-07	-3.318402e-06	-2.002972e-08	-2.343072e+01	-1.316039e+03
5.600000e-07	-3.206392e-06	-1.988794e-08	-2.263984e+01	-1.307495e+03
5.700000e-07	-3.093026e-06	-1.973748e-08	-2.183938e+01	-1.298028e+03
5.800000e-07	-2.978201e-06	-1.958318e-08	-2.102862e+01	-1.287585e+03
5.900000e-07	-2.862105e-06	-1.942782e-08	-2.020888e+01	-1.276310e+03
6.000000e-07	-2.744959e-06	-1.926900e-08	-1.938173e+01	-1.264501e+03
6.100000e-07	-2.626883e-06	-1.910337e-08	-1.854801e+01	-1.252516e+03
6.200000e-07	-2.507851e-06	-1.892608e-08	-1.770755e+01	-1.240654e+03
6.300000e-07	-2.387907e-06	-1.873719e-08	-1.686064e+01	-1.229042e+03
6.400000e-07	-2.267112e-06	-1.854074e-08	-1.600773e+01	-1.217583e+03
6.500000e-07	-2.145418e-06	-1.834018e-08	-1.514846e+01	-1.205959e+03
6.600000e-07	-2.022854e-06	-1.813376e-08	-1.428306e+01	-1.193716e+03
6.700000e-07	-1.899537e-06	-1.791781e-08	-1.341234e+01	-1.180392e+03
6.800000e-07	-1.775575e-06	-1.769191e-08	-1.253706e+01	-1.165653e+03
6.900000e-07	-1.650992e-06	-1.745592e-08	-1.165740e+01	-1.149396e+03
7.000000e-07	-1.525844e-06	-1.720917e-08	-1.077375e+01	-1.131785e+03
7.100000e-07	-1.400280e-06	-1.694942e-08	-9.887160e+00	-1.113194e+03
7.200000e-07	-1.274350e-06	-1.667718e-08	-8.997989e+00	-1.094080e+03
7.300000e-07	-1.148027e-06	-1.639006e-08	-8.106044e+00	-1.074810e+03
7.400000e-07	-1.021330e-06	-1.608515e-08	-7.211451e+00	-1.055507e+03
7.500000e-07	-8.943046e-07	-1.576087e-08	-6.314546e+00	-1.035950e+03
7.600000e-07	-7.669321e-07	-1.541628e-08	-5.415189e+00	-1.015582e+03
7.700000e-07	-6.392668e-07	-1.505024e-08	-4.513764e+00	-9.936193e+02
7.800000e-07	-5.113666e-07	-1.466129e-08	-3.610681e+00	-9.692418e+02
7.900000e-07	-3.833069e-07	-1.424735e-08	-2.706471e+00	-9.418071e+02
8.000000e-07	-2.551439e-07	-1.380264e-08	-1.801532e+00	-9.110211e+02
8.100000e-07	-1.268487e-07	-1.332098e-08	-8.956590e-01	-8.769981e+02
8.200000e-07	1.556350e-09	-1.279757e-08	1.098914e-02	-8.401740e+02
8.300000e-07	1.299573e-07	-1.222578e-08	9.176083e-01	-8.010743e+02
8.400000e-07	2.582806e-07	-1.159755e-08	1.823679e+00	-7.599847e+02
8.500000e-07	3.865505e-07	-1.090656e-08	2.729373e+00	-7.166089e+02
8.600000e-07	5.147375e-07	-1.014050e-08	3.634482e+00	-6.698155e+02
8.700000e-07	6.428314e-07	-9.282692e-09	4.538933e+00	-6.175651e+02
8.800000e-07	7.707930e-07	-8.314890e-09	5.442450e+00	-5.570768e+02
8.900000e-07	8.985149e-07	-7.210460e-09	6.344275e+00	-4.852339e+02
9.000000e-07	1.025856e-06	-5.932841e-09	7.243407e+00	-3.991721e+02
9.100000e-07	1.152821e-06	-4.439292e-09	8.139890e+00	-2.969370e+02
9.200000e-07	1.279422e-06	-2.691730e-09	9.033800e+00	-1.780722e+02
9.300000e-07	1.405583e-06	-6.724722e-10	9.924607e+00	-4.399929e+01
9.400000e-07	1.531312e-06	1.587241e-09	1.081236e+01	1.019118e+02
9.500000e-07	1.656582e-06	3.989509e-09	1.169687e+01	2.546208e+02
9.600000e-07	1.781368e-06	6.412968e-09	1.257797e+01	4.080108e+02
9.700000e-07	1.905610e-06	8.722368e-09	1.345522e+01	5.556926e+02
9.800000e-07	2.029137e-06	1.078648e-08	1.432742e+01	6.918704e+02
9.900000e-07	2.151783e-06	1.254046e-08	1.519340e+01	8.121033e+02
1.000000e-06	2.273523e-06	1.398262e-08	1.605299e+01	9.138204e+02
1.010000e-06	2.394335e-06	1.515028e-08	1.690603e+01	9.964995e+02
1.020000e-06	2.514172e-06	1.609376e-08	1.775218e+01	1.061494e+03
1.030000e-06	2.633069e-06	1.685901e-08	1.859169e+01	1.111564e+03
1.040000e-06	2.751031e-06	1.748667e-08	1.942460e+01	1.150226e+03
1.050000e-06	2.868052e-06	1.800658e-08	2.025087e+01	1.181068e+03
1.060000e-06	2.983973e-06	1.844340e-08	2.106937e+01	1.207163e+03
1.070000e-06	3.098548e-06	1.881814e-08	2.187837e+01	1.230696e+03
1.080000e-06	3.211842e-06	1.914673e-08	2.267832e+01	1.252843e+03
1.090000e-06	3.323926e-06	1.943791e-08	2.346973e+01	1.273891e+03
1.100000e-06	3.434787e-06	1.969621e-08	2.425250e+01	1.293530e+03
1.110000e-06	3.544504e-06	1.992771e-08	2.502720e+01	1.311222e+03
1.120000e-06	3.653147e-06	2.013881e-08	2.579431e+01	1.326534e+03
1.130000e-06	3.760612e-06	2.033415e-08	2.655310e+01	1.339362e+03
1.140000e-06	3.866691e-06	2.051386e-08	2.730211e+01	1.350006e+03
1.150000e-06	3.971279e-06	2.068084e-08	2.804059e+01	1.359091e+03
1.160000e-06	4.074400e-06	2.083898e-08	2.876871e+01	1.367384e+03
1.170000e-06	4.176128e-06	2.098594e-08	2.948699e+01	1.375585e+03
1.180000e-06	4.276479e-06	2.112238e-08	3.019556e+01	1.384141e+03
1.190000e-06	4.375329e-06	2.125087e-08	3.089352e+01	1.393156e+03
1.200000e-06	4.472489e-06	2.137147e-08	3.157955e+01	1.402405e+03
1.210000e-06	4.567924e-06	2.148343e-08	3.225341e+01	1.411446e+03
1.220000e-06	4.661786e-06	2.158797e-08	3.291615e+01	1.419784e+03
1.230000e-06	4.754179e-06	2.168694e-08	3.356852e+01	1.427046e+03
1.240000e-06	4.844904e-06	2.178019e-08	3.420911e+01	1.433093e+03
1.250000e-06	4.933770e-06	2.186966e-08	3.483659e+01	1.438062e+03
1.260000e-06	5.020796e-06	2.195528e-08	3.545107e+01	1.442318e+03
1.270000e-06	5.106079e-06	2.203726e-08	3.605323e+01	1.446334e+03
1.280000e-06	5.189671e-06	2.211519e-08	3.664346e+01	1.450550e+03
1.290000e-06	5.271364e-06	2.219058e-08	3.722028e+01	1.455246e+03
1.300000e-06	5.351047e-06	2.226346e-08	3.778292e+01	1.460470e+03
1.310000e-06	5.428785e-06	2.233356e-08	3.833181e+01	1.466040e+03
1.320000e-06	5.504465e-06	2.240013e-08	3.886617e+01	1.471617e+03
1.330000e-06	5.577969e-06	2.246267e-08	3.938518e+01	1.476819e+03
1.340000e-06	5.649369e-06	2.252257e-08	3.988932e+01	1.481344e+03
1.350000e-06	5.718805e-06	2.257983e-08	4.037960e+01	1.485061e+03
1.360000e-06	5.786231e-06	2.263429e-08	4.085568e+01	1.488041e+03
1.370000e-06	5.851528e-06	2.268750e-08	4.131673e+01	1.490532e+03
1.380000e-06	5.914733e-06	2.273993e-08	4.176301e+01	1.492870e+03
1.390000e-06	5.976009e-06	2.278893e-08	4.219568e+01	1.495371e+03
1.400000e-06	6.035280e-06	2.283519e-08	4.261418e+01	1.498236e+03
1.410000e-06	6.092301e-06	2.287846e-08	4.301680e+01	1.501490e+03
1.420000e-06	6.147131e-06	2.291885e-08	4.340394e+01	1.504981e+03
1.430000e-06	6.199715e-06	2.295622e-08	4.377523e+01	1.508433e+03
1.440000e-06	6.249783e-06	2.299019e-08	4.412875e+01	1.511540e+03
1.450000e-06	6.297360e-06	2.302124e-08	4.446468e+01	1.514059e+03
1.460000e-06	6.342724e-06	2.305003e-08	4.478499e+01	1.515889e+03
1.470000e-06	6.385983e-06	2.307698e-08	4.509044e+01	1.517102e+03
1.480000e-06	6.426849e-06	2.310242e-08	4.537898e+01	1.517912e+03
1.490000e-06	6.465339e-06	2.312796e-08	4.565076e+01	1.518614e+03
1.500000e-06	6.501746e-06	2.315287e-08	4.590783e+01	1.519487e+03
1.510000e-06	6.535869e-06	2.317521e-08	4.614876e+01	1.520710e+03
1.520000e-06	6.567570e-06	2.319437e-08	4.637260e+01	1.522309e+03
1.530000e-06	6.597061e-06	2.321192e-08	4.658083e+01	1.524156e+03
1.540000e-06	6.624368e-06	2.322754e-08	4.677364e+01	1.526009e+03
1.550000e-06	6.649203e-06	2.323949e-08	4.694899e+01	1.527594e+03
1.560000e-06	6.671532e-06	2.325061e-08	4.710665e+01	1.528689e+03
1.570000e-06	6.691624e-06	2.326283e-08	4.724852e+01	1.529196e+03
1.580000e-06	6.709344e-06	2.327492e-08	4.737364e+01	1.529168e+03
1.590000e-06	6.724516e-06	2.328615e-08	4.748077e+01	1.528793e+03
1.600000e-06	6.737158e-06	2.329513e-08	4.757003e+01	1.528332e+03
1.610000e-06	6.747097e-06	2.330138e-08	4.764021e+01	1.528035e+03
1.620000e-06	6.754472e-06	2.330556e-08	4.769228e+01	1.528068e+03
1.630000e-06	6.759585e-06	2.330919e-08	4.772839e+01	1.528459e+03
1.640000e-06	6.762402e-06	2.331138e-08	4.774828e+01	1.529090e+03
1.650000e-06	6.762753e-06	2.331104e-08	4.775075e+01	1.529736e+03
1.660000e-06	6.760740e-06	2.330175e-08	4.773654e+01	1.530138e+03
1.670000e-06	6.756629e-06	2.329248e-08	4.770751e+01	1.530083e+03
1.680000e-06	6.750251e-06	2.328809e-08	4.766247e+01	1.529470e+03
1.690000e-06	6.741610e-06	2.328395e-08	4.760146e+01	1.528341e+03
1.700000e-06	6.730816e-06	2.327863e-08	4.752525e+01	1.526870e+03
1.710000e-06	6.717669e-06	2.327352e-08	4.743242e+01	1.525306e+03
1.720000e-06	6.702216e-06	2.326770e-08	4.732331e+01	1.523900e+03
1.730000e-06	6.684713e-06	2.320314e-08	4.719972e+01	1.522822e+03
1.740000e-06	6.664930e-06	2.312144e-08	4.706004e+01	1.522115e+03
1.750000e-06	6.642109e-06	2.314069e-08	4.689890e+01	1.521683e+03
1.760000e-06	6.616142e-06	2.315870e-08	4.671556e+01	1.521316e+03
1.770000e-06	6.587692e-06	2.315305e-08	4.651467e+01	1.520764e+03
1.780000e-06	6.557204e-06	2.322645e-08	4.629940e+01	1.519806e+03
1.790000e-06	6.525174e-06	2.316867e-08	4.607324e+01	1.518322e+03
1.800000e-06	6.491605e-06	2.305719e-08	4.583622e+01	1.516325e+03
1.810000e-06	6.455675e-06	2.310016e-08	4.558252e+01	1.513954e+03
1.820000e-06	6.417318e-06	2.303512e-08	4.531169e+01	1.511427e+03
1.830000e-06	6.376873e-06	2.304858e-08	4.502611e+01	1.508969e+03
1.840000e-06	6.334279e-06	2.306479e-08	4.472536e+01	1.506740e+03
1.850000e-06	6.289587e-06	2.291497e-08	4.440980e+01	1.504784e+03
1.860000e-06	6.242569e-06	2.291836e-08	4.407781e+01	1.503013e+03
1.870000e-06	6.193183e-06	2.283196e-08	4.372911e+01	1.501240e+03
1.880000e-06	6.141516e-06	2.278576e-08	4.336430e+01	1.499233e+03
1.890000e-06	6.087160e-06	2.282555e-08	4.298050e+01	1.496791e+03
1.900000e-06	6.030354e-06	2.273779e-08	4.257940e+01	1.493811e+03
1.910000e-06	5.971400e-06	2.275934e-08	4.216313e+01	1.490317e+03
1.920000e-06	5.910206e-06	2.268545e-08	4.173105e+01	1.486455e+03
1.930000e-06	5.846793e-06	2.258797e-08	4.128330e+01	1.482445e+03
1.940000e-06	5.781184e-06	2.256482e-08	4.082005e+01	1.478510e+03
1.950000e-06	5.713541e-06	2.249758e-08	4.034243e+01	1.474805e+03
1.960000e-06	5.643642e-06	2.247687e-08	3.984888e+01	1.471362e+03
1.970000e-06	5.571487e-06	2.237783e-08	3.933941e+01	1.468082e+03
1.980000e-06	5.497310e-06	2.233065e-08	3.881566e+01	1.464761e+03
1.990000e-06	5.420981e-06	2.226986e-08	3.827671e+01	1.461157e+03
2.000000e-06	5.342510e-06	2.217998e-08	3.772264e+01	1.457061e+03
2.010000e-06	5.262035e-06	2.213656e-08	3.715441e+01	1.452372e+03
2.020000e-06	5.179770e-06	2.204894e-08	3.657355e+01	1.447125e+03
2.030000e-06	5.095715e-06	2.199591e-08	3.598006e+01	1.441483e+03
2.040000e-06	5.009747e-06	2.190685e-08	3.537305e+01	1.435689e+03
2.050000e-06	4.921902e-06	2.182444e-08	3.475279e+01	1.429985e+03
2.060000e-06	4.832432e-06	2.174573e-08	3.412105e+01	1.424533e+03
2.070000e-06	4.741526e-06	2.166184e-08	3.347918e+01	1.419361e+03
2.080000e-06	4.649021e-06	2.158429e-08	3.282602e+01	1.414347e+03
2.090000e-06	4.554742e-06	2.148785e-08	3.216033e+01	1.409254e+03
2.100000e-06	4.458740e-06	2.140395e-08	3.148247e+01	1.403799e+03
2.110000e-06	4.361215e-06	2.130312e-08	3.079387e+01	1.397744e+03
2.120000e-06	4.262292e-06	2.120086e-08	3.009538e+01	1.390967e+03
2.130000e-06	4.161919e-06	2.108670e-08	2.938667e+01	1.383509e+03
2.140000e-06	4.059954e-06	2.097977e-08	2.866671e+01	1.375555e+03
2.150000e-06	3.956368e-06	2.087230e-08	2.793530e+01	1.367387e+03
2.160000e-06	3.851341e-06	2.075985e-08	2.719373e+01	1.359282e+03
2.170000e-06	3.745054e-06	2.064823e-08	2.644325e+01	1.351427e+03
2.180000e-06	3.637580e-06	2.053089e-08	2.568439e+01	1.343850e+03
2.190000e-06	3.528800e-06	2.040771e-08	2.491631e+01	1.336398e+03
2.200000e-06	3.418680e-06	2.027510e-08	2.413877e+01	1.328779e+03
2.210000e-06	3.307196e-06	2.014396e-08	2.335160e+01	1.320644e+03
2.220000e-06	3.194367e-06	2.000385e-08	2.255493e+01	1.311693e+03
2.230000e-06	3.080376e-06	1.985597e-08	2.175006e+01	1.301770e+03
2.240000e-06	2.965212e-06	1.969801e-08	2.093690e+01	1.290914e+03
2.250000e-06	2.848851e-06	1.953808e-08	2.011529e+01	1.279350e+03
2.260000e-06	2.731263e-06	1.937429e-08	1.928502e+01	1.267418e+03
2.270000e-06	2.612429e-06	1.920904e-08	1.844595e+01	1.255464e+03
2.280000e-06	2.492575e-06	1.903936e-08	1.759968e+01	1.243718e+03
2.290000e-06	2.371865e-06	1.885915e-08	1.674737e+01	1.232206e+03
2.300000e-06	2.250379e-06	1.866674e-08	1.588958e+01	1.220722e+03
2.310000e-06	2.128196e-06	1.846364e-08	1.502686e+01	1.208874e+03
2.320000e-06	2.005319e-06	1.825357e-08	1.415925e+01	1.196185e+03
2.330000e-06	1.881810e-06	1.803380e-08	1.328717e+01	1.182235e+03
2.340000e-06	1.757679e-06	1.780642e-08	1.241070e+01	1.166790e+03
2.350000e-06	1.632930e-06	1.756864e-08	1.152986e+01	1.149871e+03
2.360000e-06	1.507609e-06	1.731843e-08	1.064499e+01	1.131753e+03
2.370000e-06	1.381756e-06	1.705239e-08	9.756363e+00	1.112866e+03
2.380000e-06	1.255407e-06	1.677215e-08	8.864233e+00	1.093648e+03
2.390000e-06	1.128539e-06	1.647960e-08	7.968441e+00	1.074369e+03
2.400000e-06	1.001201e-06	1.616939e-08	7.069326e+00	1.055000e+03
2.410000e-06	8.735670e-07	1.584084e-08	6.168121e+00	1.035155e+03
2.420000e-06	7.457121e-07	1.549163e-08	5.265358e+00	1.014154e+03
2.430000e-06	6.176303e-07	1.511813e-08	4.360992e+00	9.911688e+02
2.440000e-06	4.893699e-07	1.471995e-08	3.455365e+00	9.654360e+02
2.450000e-06	3.609295e-07	1.429527e-08	2.548468e+00	9.364594e+02
2.460000e-06	2.322981e-07	1.383927e-08	1.640221e+00	9.041353e+02
2.470000e-06	1.035574e-07	1.334385e-08	7.312027e-01	8.687478e+02
2.480000e-06	-2.522209e-08	1.280145e-08	-1.780893e-01	8.308105e+02
2.490000e-06	-1.539945e-07	1.220512e-08	-1.087331e+00	7.907816e+02
2.500000e-06	-2.827190e-07	1.155041e-08	-1.996235e+00	7.487163e+02
2.510000e-06	-4.113735e-07	1.082927e-08	-2.904644e+00	7.039529e+02
2.520000e-06	-5.399670e-07	1.002906e-08	-3.812624e+00	6.549337e+02
2.530000e-06	-6.684447e-07	9.132522e-09	-4.719784e+00	5.992392e+02
2.540000e-06	-7.967039e-07	8.117840e-09	-5.625403e+00	5.338689e+02
2.550000e-06	-9.246321e-07	6.953526e-09	-6.528684e+00	4.557430e+02
2.560000e-06	-1.052172e-06	5.600065e-09	-7.429227e+00	3.623386e+02
2.570000e-06	-1.179345e-06	4.016999e-09	-8.327174e+00	2.523335e+02
2.580000e-06	-1.306088e-06	2.171404e-09	-9.222087e+00	1.261128e+02
2.590000e-06	-1.432339e-06	5.659794e-11	-1.011352e+01	-1.398497e+01
2.600000e-06	-1.558049e-06	-2.281385e-09	-1.100114e+01	-1.637589e+02
2.610000e-06	-1.683114e-06	-4.733561e-09	-1.188421e+01	-3.175792e+02
2.620000e-06	-1.807480e-06	-7.156527e-09	-1.276233e+01	-4.690948e+02
2.630000e-06	-1.931103e-06	-9.405565e-09	-1.363522e+01	-6.120871e+02
2.640000e-06	-2.053882e-06	-1.137577e-08	-1.450214e+01	-7.413067e+02
2.650000e-06	-2.175917e-06	-1.302763e-08	-1.536382e+01	-8.531360e+02
2.660000e-06	-2.297266e-06	-1.437650e-08	-1.622064e+01	-9.459548e+02
2.670000e-06	-2.417786e-06	-1.546724e-08	-1.707161e+01	-1.020153e+03
2.680000e-06	-2.537393e-06	-1.635006e-08	-1.791614e+01	-1.077811e+03
2.690000e-06	-2.655941e-06	-1.706891e-08	-1.875319e+01	-1.122125e+03
2.700000e-06	-2.773385e-06	-1.765936e-08	-1.958244e+01	-1.156727e+03
2.710000e-06	-2.889707e-06	-1.814972e-08	-2.040377e+01	-1.185028e+03
2.720000e-06	-3.004829e-06	-1.856314e-08	-2.121663e+01	-1.209721e+03
2.730000e-06	-3.118706e-06	-1.891850e-08	-2.202070e+01	-1.232521e+03
2.740000e-06	-3.231283e-06	-1.922958e-08	-2.281559e+01	-1.254164e+03
2.750000e-06	-3.342582e-06	-1.950523e-08	-2.360146e+01	-1.274617e+03
2.760000e-06	-3.452547e-06	-1.975340e-08	-2.437790e+01	-1.293417e+03
2.770000e-06	-3.561313e-06	-1.998163e-08	-2.514588e+01	-1.310039e+03
2.780000e-06	-3.669066e-06	-2.019198e-08	-2.590670e+01	-1.324183e+03
2.790000e-06	-3.775675e-06	-2.038120e-08	-2.665946e+01	-1.335935e+03
2.800000e-06	-3.880996e-06	-2.055077e-08	-2.740311e+01	-1.345761e+03
2.810000e-06	-3.984883e-06	-2.070776e-08	-2.813664e+01	-1.354380e+03
2.820000e-06	-4.087244e-06	-2.085626e-08	-2.885940e+01	-1.362553e+03
2.830000e-06	-4.188104e-06	-2.099735e-08	-2.957155e+01	-1.370881e+03
2.840000e-06	-4.287479e-06	-2.113125e-08	-3.027322e+01	-1.379656e+03
2.850000e-06	-4.385430e-06	-2.125794e-08	-3.096484e+01	-1.388822e+03
2.860000e-06	-4.481920e-06	-2.137577e-08	-3.164614e+01	-1.398034e+03
2.870000e-06	-4.576805e-06	-2.148585e-08	-3.231611e+01	-1.406804e+03
2.880000e-06	-4.670036e-06	-2.158976e-08	-3.297440e+01	-1.414674e+03
2.890000e-06	-4.761594e-06	-2.168813e-08	-3.362088e+01	-1.421370e+03
2.900000e-06	-4.851462e-06	-2.178061e-08	-3.425542e+01	-1.426881e+03
2.910000e-06	-4.939546e-06	-2.186606e-08	-3.487737e+01	-1.431461e+03
2.920000e-06	-5.025757e-06	-2.194588e-08	-3.548609e+01	-1.435543e+03
2.930000e-06	-5.110066e-06	-2.202379e-08	-3.608138e+01	-1.439602e+03
2.940000e-06	-5.192543e-06	-2.210055e-08	-3.666374e+01	-1.444017e+03
