# Temperatura_=_88.15
# Concentracion g/m^3_=_41000.0
# C_Vs_to_Am_M_A/Vsm_=_65563218390.804596
# pendiente_HvsI_1/m_=_3716.3
# ordenada_HvsI_A/m_=_1297.0
# frecuencia_Hz_=_302008.00580359466

Tiempo_(s)	Campo_(V.s)	Magnetizacion_(V.s)	Campo_(kA/m)	Magnetizacion_(A/m)
0.000000e+00	-6.663470e-06	-2.425495e-08	-4.746763e+01	-1.590600e+03
1.000000e-08	-6.660503e-06	-2.425060e-08	-4.744650e+01	-1.590788e+03
2.000000e-08	-6.655324e-06	-2.424122e-08	-4.740960e+01	-1.590462e+03
3.000000e-08	-6.648162e-06	-2.423009e-08	-4.735859e+01	-1.589574e+03
4.000000e-08	-6.638794e-06	-2.421677e-08	-4.729186e+01	-1.588212e+03
5.000000e-08	-6.626995e-06	-2.420088e-08	-4.720781e+01	-1.586576e+03
6.000000e-08	-6.612759e-06	-2.418474e-08	-4.710639e+01	-1.584915e+03
7.000000e-08	-6.596103e-06	-2.416597e-08	-4.698774e+01	-1.583452e+03
8.000000e-08	-6.577268e-06	-2.417325e-08	-4.685357e+01	-1.582319e+03
9.000000e-08	-6.556226e-06	-2.421994e-08	-4.670368e+01	-1.581519e+03
1.000000e-07	-6.532553e-06	-2.419260e-08	-4.653504e+01	-1.580926e+03
1.100000e-07	-6.506122e-06	-2.411947e-08	-4.634676e+01	-1.580331e+03
1.200000e-07	-6.477346e-06	-2.408108e-08	-4.614177e+01	-1.579503e+03
1.300000e-07	-6.446645e-06	-2.400307e-08	-4.592307e+01	-1.578261e+03
1.400000e-07	-6.414259e-06	-2.390426e-08	-4.569237e+01	-1.576524e+03
1.500000e-07	-6.380012e-06	-2.399972e-08	-4.544840e+01	-1.574332e+03
1.600000e-07	-6.343672e-06	-2.401226e-08	-4.518953e+01	-1.571825e+03
1.700000e-07	-6.305337e-06	-2.390221e-08	-4.491646e+01	-1.569193e+03
1.800000e-07	-6.264723e-06	-2.398257e-08	-4.462714e+01	-1.566608e+03
1.900000e-07	-6.221625e-06	-2.388863e-08	-4.432012e+01	-1.564169e+03
2.000000e-07	-6.176311e-06	-2.378732e-08	-4.399733e+01	-1.561868e+03
2.100000e-07	-6.128737e-06	-2.379438e-08	-4.365843e+01	-1.559595e+03
2.200000e-07	-6.078576e-06	-2.368418e-08	-4.330111e+01	-1.557177e+03
2.300000e-07	-6.025870e-06	-2.365122e-08	-4.292565e+01	-1.554434e+03
2.400000e-07	-5.970826e-06	-2.363079e-08	-4.253355e+01	-1.551245e+03
2.500000e-07	-5.913507e-06	-2.357756e-08	-4.212523e+01	-1.547588e+03
2.600000e-07	-5.853880e-06	-2.355347e-08	-4.170047e+01	-1.543553e+03
2.700000e-07	-5.792071e-06	-2.348414e-08	-4.126017e+01	-1.539312e+03
2.800000e-07	-5.728258e-06	-2.340911e-08	-4.080559e+01	-1.535064e+03
2.900000e-07	-5.662308e-06	-2.335183e-08	-4.033579e+01	-1.530969e+03
3.000000e-07	-5.594178e-06	-2.331907e-08	-3.985047e+01	-1.527092e+03
3.100000e-07	-5.523993e-06	-2.324763e-08	-3.935050e+01	-1.523374e+03
3.200000e-07	-5.451811e-06	-2.316552e-08	-3.883631e+01	-1.519651e+03
3.300000e-07	-5.377478e-06	-2.309838e-08	-3.830679e+01	-1.515693e+03
3.400000e-07	-5.300900e-06	-2.299518e-08	-3.776129e+01	-1.511283e+03
3.500000e-07	-5.222158e-06	-2.293394e-08	-3.720036e+01	-1.506284e+03
3.600000e-07	-5.141373e-06	-2.287076e-08	-3.662488e+01	-1.500685e+03
3.700000e-07	-5.058784e-06	-2.278493e-08	-3.603656e+01	-1.494607e+03
3.800000e-07	-4.974501e-06	-2.269962e-08	-3.543616e+01	-1.488274e+03
3.900000e-07	-4.888592e-06	-2.259691e-08	-3.482418e+01	-1.481939e+03
4.000000e-07	-4.801092e-06	-2.249751e-08	-3.420087e+01	-1.475806e+03
4.100000e-07	-4.711956e-06	-2.240948e-08	-3.356590e+01	-1.469964e+03
4.200000e-07	-4.621117e-06	-2.232564e-08	-3.291881e+01	-1.464348e+03
4.300000e-07	-4.528666e-06	-2.222889e-08	-3.226023e+01	-1.458760e+03
4.400000e-07	-4.434699e-06	-2.212917e-08	-3.159085e+01	-1.452920e+03
4.500000e-07	-4.339131e-06	-2.202988e-08	-3.091006e+01	-1.446554e+03
4.600000e-07	-4.241891e-06	-2.191416e-08	-3.021737e+01	-1.439477e+03
4.700000e-07	-4.143028e-06	-2.179746e-08	-2.951311e+01	-1.431653e+03
4.800000e-07	-4.042747e-06	-2.167832e-08	-2.879875e+01	-1.423211e+03
4.900000e-07	-3.941122e-06	-2.155653e-08	-2.807482e+01	-1.414404e+03
5.000000e-07	-3.838073e-06	-2.143010e-08	-2.734075e+01	-1.405535e+03
5.100000e-07	-3.733652e-06	-2.130179e-08	-2.659690e+01	-1.396851e+03
5.200000e-07	-3.627783e-06	-2.117031e-08	-2.584274e+01	-1.388468e+03
5.300000e-07	-3.520449e-06	-2.102878e-08	-2.507814e+01	-1.380318e+03
5.400000e-07	-3.411874e-06	-2.088688e-08	-2.430469e+01	-1.372163e+03
5.500000e-07	-3.302148e-06	-2.074564e-08	-2.352305e+01	-1.363660e+03
5.600000e-07	-3.191251e-06	-2.059989e-08	-2.273307e+01	-1.354459e+03
5.700000e-07	-3.079186e-06	-2.043944e-08	-2.193477e+01	-1.344313e+03
5.800000e-07	-2.965848e-06	-2.026980e-08	-2.112740e+01	-1.333155e+03
5.900000e-07	-2.851117e-06	-2.009466e-08	-2.031011e+01	-1.321124e+03
6.000000e-07	-2.735115e-06	-1.991370e-08	-1.948376e+01	-1.308523e+03
6.100000e-07	-2.618104e-06	-1.973024e-08	-1.865023e+01	-1.295724e+03
6.200000e-07	-2.500187e-06	-1.954515e-08	-1.781023e+01	-1.283045e+03
6.300000e-07	-2.381326e-06	-1.935400e-08	-1.696352e+01	-1.270641e+03
6.400000e-07	-2.261549e-06	-1.915215e-08	-1.611029e+01	-1.258431e+03
6.500000e-07	-2.141076e-06	-1.894281e-08	-1.525208e+01	-1.246110e+03
6.600000e-07	-2.020008e-06	-1.872499e-08	-1.438965e+01	-1.233221e+03
6.700000e-07	-1.898089e-06	-1.849801e-08	-1.352115e+01	-1.219281e+03
6.800000e-07	-1.775201e-06	-1.826257e-08	-1.264575e+01	-1.203929e+03
6.900000e-07	-1.651565e-06	-1.801763e-08	-1.176502e+01	-1.187031e+03
7.000000e-07	-1.527423e-06	-1.775967e-08	-1.088069e+01	-1.168724e+03
7.100000e-07	-1.402910e-06	-1.748572e-08	-9.993718e+00	-1.149369e+03
7.200000e-07	-1.278039e-06	-1.719732e-08	-9.104192e+00	-1.129428e+03
7.300000e-07	-1.152796e-06	-1.689482e-08	-8.212013e+00	-1.109292e+03
7.400000e-07	-1.027156e-06	-1.657812e-08	-7.317009e+00	-1.089117e+03
7.500000e-07	-9.011685e-07	-1.624586e-08	-6.419529e+00	-1.068720e+03
7.600000e-07	-7.748743e-07	-1.589633e-08	-5.519865e+00	-1.047573e+03
7.700000e-07	-6.483103e-07	-1.552244e-08	-4.618278e+00	-1.024902e+03
7.800000e-07	-5.215624e-07	-1.512194e-08	-3.715381e+00	-9.998737e+02
7.900000e-07	-3.946524e-07	-1.469615e-08	-2.811330e+00	-9.718135e+02
8.000000e-07	-2.675800e-07	-1.423926e-08	-1.906122e+00	-9.403830e+02
8.100000e-07	-1.403341e-07	-1.374613e-08	-9.996784e-01	-9.056547e+02
8.200000e-07	-1.298725e-08	-1.321324e-08	-9.251547e-02	-8.680384e+02
8.300000e-07	1.143549e-07	-1.263282e-08	8.146139e-01	-8.280591e+02
8.400000e-07	2.416469e-07	-1.199453e-08	1.721386e+00	-7.860297e+02
8.500000e-07	3.689124e-07	-1.129142e-08	2.627970e+00	-7.417001e+02
8.600000e-07	4.961041e-07	-1.051209e-08	3.534028e+00	-6.939865e+02
8.700000e-07	6.231357e-07	-9.641435e-09	4.438945e+00	-6.408754e+02
8.800000e-07	7.500229e-07	-8.661421e-09	5.342834e+00	-5.795667e+02
8.900000e-07	8.766601e-07	-7.544193e-09	6.244942e+00	-5.068642e+02
9.000000e-07	1.002965e-06	-6.250867e-09	7.144681e+00	-4.197596e+02
9.100000e-07	1.128962e-06	-4.737069e-09	8.042229e+00	-3.161045e+02
9.200000e-07	1.254604e-06	-2.960345e-09	8.937245e+00	-1.952264e+02
9.300000e-07	1.379764e-06	-8.958833e-10	9.828837e+00	-5.834938e+01
9.400000e-07	1.504443e-06	1.413219e-09	1.071699e+01	9.129176e+01
9.500000e-07	1.628752e-06	3.844950e-09	1.160251e+01	2.486928e+02
9.600000e-07	1.752640e-06	6.298564e-09	1.248504e+01	4.076510e+02
9.700000e-07	1.875956e-06	8.699004e-09	1.336349e+01	5.615694e+02
9.800000e-07	1.998482e-06	1.090328e-08	1.423631e+01	7.043446e+02
9.900000e-07	2.120034e-06	1.278826e-08	1.510219e+01	8.311708e+02
1.000000e-06	2.240635e-06	1.433550e-08	1.596130e+01	9.391091e+02
1.010000e-06	2.360391e-06	1.558332e-08	1.681439e+01	1.027323e+03
1.020000e-06	2.479260e-06	1.658806e-08	1.766116e+01	1.096950e+03
1.030000e-06	2.597245e-06	1.740239e-08	1.850163e+01	1.150659e+03
1.040000e-06	2.714321e-06	1.806887e-08	1.933563e+01	1.192008e+03
1.050000e-06	2.830388e-06	1.862043e-08	2.016244e+01	1.224730e+03
1.060000e-06	2.945303e-06	1.908208e-08	2.098105e+01	1.252115e+03
1.070000e-06	3.058824e-06	1.947748e-08	2.178972e+01	1.276586e+03
1.080000e-06	3.171071e-06	1.982486e-08	2.258931e+01	1.299533e+03
1.090000e-06	3.282222e-06	2.013481e-08	2.338111e+01	1.321397e+03
1.100000e-06	3.392242e-06	2.041146e-08	2.416485e+01	1.341945e+03
1.110000e-06	3.501189e-06	2.065923e-08	2.494094e+01	1.360641e+03
1.120000e-06	3.609081e-06	2.088451e-08	2.570951e+01	1.377001e+03
1.130000e-06	3.715734e-06	2.109085e-08	2.646926e+01	1.390846e+03
1.140000e-06	3.820959e-06	2.127963e-08	2.721884e+01	1.402401e+03
1.150000e-06	3.924722e-06	2.145558e-08	2.795800e+01	1.412247e+03
1.160000e-06	4.027070e-06	2.162375e-08	2.868708e+01	1.421152e+03
1.170000e-06	4.128091e-06	2.178307e-08	2.940671e+01	1.429852e+03
1.180000e-06	4.227814e-06	2.193339e-08	3.011709e+01	1.438860e+03
1.190000e-06	4.325920e-06	2.207462e-08	3.081596e+01	1.448347e+03
1.200000e-06	4.422250e-06	2.220574e-08	3.150217e+01	1.458142e+03
1.210000e-06	4.517008e-06	2.232512e-08	3.217719e+01	1.467825e+03
1.220000e-06	4.610249e-06	2.243711e-08	3.284139e+01	1.476888e+03
1.230000e-06	4.702058e-06	2.254521e-08	3.349540e+01	1.484911e+03
1.240000e-06	4.792227e-06	2.264857e-08	3.413772e+01	1.491694e+03
1.250000e-06	4.880513e-06	2.274832e-08	3.476663e+01	1.497315e+03
1.260000e-06	4.967002e-06	2.284443e-08	3.538274e+01	1.502099e+03
1.270000e-06	5.051764e-06	2.293571e-08	3.598655e+01	1.506509e+03
1.280000e-06	5.134844e-06	2.302085e-08	3.657838e+01	1.511009e+03
1.290000e-06	5.216036e-06	2.310171e-08	3.715675e+01	1.515926e+03
1.300000e-06	5.295246e-06	2.317941e-08	3.772101e+01	1.521366e+03
1.310000e-06	5.372575e-06	2.325362e-08	3.827187e+01	1.527199e+03
1.320000e-06	5.447888e-06	2.332508e-08	3.880836e+01	1.533118e+03
1.330000e-06	5.521007e-06	2.339416e-08	3.932923e+01	1.538745e+03
1.340000e-06	5.592016e-06	2.346168e-08	3.983507e+01	1.543755e+03
1.350000e-06	5.661095e-06	2.352735e-08	4.032716e+01	1.547975e+03
1.360000e-06	5.728242e-06	2.359022e-08	4.080548e+01	1.551432e+03
1.370000e-06	5.793209e-06	2.364983e-08	4.126828e+01	1.554334e+03
1.380000e-06	5.856029e-06	2.370679e-08	4.171578e+01	1.557001e+03
1.390000e-06	5.916986e-06	2.376125e-08	4.215001e+01	1.559757e+03
1.400000e-06	5.976024e-06	2.381275e-08	4.257057e+01	1.562832e+03
1.410000e-06	6.032879e-06	2.386022e-08	4.297559e+01	1.566291e+03
1.420000e-06	6.087513e-06	2.390429e-08	4.336477e+01	1.570020e+03
1.430000e-06	6.139897e-06	2.394545e-08	4.373793e+01	1.573771e+03
1.440000e-06	6.189703e-06	2.398366e-08	4.409272e+01	1.577238e+03
1.450000e-06	6.237021e-06	2.402076e-08	4.442980e+01	1.580162e+03
1.460000e-06	6.282217e-06	2.405758e-08	4.475176e+01	1.582406e+03
1.470000e-06	6.325368e-06	2.409073e-08	4.505914e+01	1.583996e+03
1.480000e-06	6.366166e-06	2.411966e-08	4.534977e+01	1.585112e+03
1.490000e-06	6.404580e-06	2.414769e-08	4.562341e+01	1.586027e+03
1.500000e-06	6.440961e-06	2.417504e-08	4.588258e+01	1.587022e+03
1.510000e-06	6.475086e-06	2.420022e-08	4.612567e+01	1.588300e+03
1.520000e-06	6.506775e-06	2.422118e-08	4.635141e+01	1.589923e+03
1.530000e-06	6.536264e-06	2.423954e-08	4.656148e+01	1.591805e+03
1.540000e-06	6.563572e-06	2.425569e-08	4.675600e+01	1.593735e+03
1.550000e-06	6.588390e-06	2.426953e-08	4.693280e+01	1.595454e+03
1.560000e-06	6.610705e-06	2.428354e-08	4.709176e+01	1.596735e+03
1.570000e-06	6.630819e-06	2.429790e-08	4.723504e+01	1.597455e+03
1.580000e-06	6.648571e-06	2.431297e-08	4.736150e+01	1.597635e+03
1.590000e-06	6.663806e-06	2.432651e-08	4.747003e+01	1.597428e+03
1.600000e-06	6.676605e-06	2.433619e-08	4.756121e+01	1.597072e+03
1.610000e-06	6.686789e-06	2.434215e-08	4.763375e+01	1.596812e+03
1.620000e-06	6.694366e-06	2.434509e-08	4.768773e+01	1.596826e+03
1.630000e-06	6.699650e-06	2.434788e-08	4.772537e+01	1.597166e+03
1.640000e-06	6.702660e-06	2.435113e-08	4.774681e+01	1.597746e+03
1.650000e-06	6.703213e-06	2.435454e-08	4.775075e+01	1.598367e+03
1.660000e-06	6.701470e-06	2.434994e-08	4.773833e+01	1.598779e+03
1.670000e-06	6.697654e-06	2.434197e-08	4.771115e+01	1.598764e+03
1.680000e-06	6.691512e-06	2.433654e-08	4.766739e+01	1.598198e+03
1.690000e-06	6.683064e-06	2.432757e-08	4.760722e+01	1.597090e+03
1.700000e-06	6.672614e-06	2.431672e-08	4.753278e+01	1.595584e+03
1.710000e-06	6.659976e-06	2.430769e-08	4.744274e+01	1.593909e+03
1.720000e-06	6.644962e-06	2.430435e-08	4.733579e+01	1.592312e+03
1.730000e-06	6.627809e-06	2.426422e-08	4.721361e+01	1.590984e+03
1.740000e-06	6.608497e-06	2.416178e-08	4.707604e+01	1.590003e+03
1.750000e-06	6.586289e-06	2.415554e-08	4.691783e+01	1.589316e+03
1.760000e-06	6.560860e-06	2.418473e-08	4.673669e+01	1.588753e+03
1.770000e-06	6.532896e-06	2.417072e-08	4.653748e+01	1.588087e+03
1.780000e-06	6.502881e-06	2.424798e-08	4.632367e+01	1.587101e+03
1.790000e-06	6.471200e-06	2.423118e-08	4.609799e+01	1.585652e+03
1.800000e-06	6.438067e-06	2.406976e-08	4.586196e+01	1.583710e+03
1.810000e-06	6.402820e-06	2.412895e-08	4.561088e+01	1.581365e+03
1.820000e-06	6.365185e-06	2.408477e-08	4.534278e+01	1.578783e+03
1.830000e-06	6.325333e-06	2.401846e-08	4.505890e+01	1.576155e+03
1.840000e-06	6.283251e-06	2.410682e-08	4.475912e+01	1.573629e+03
1.850000e-06	6.239146e-06	2.394866e-08	4.444494e+01	1.571258e+03
1.860000e-06	6.192792e-06	2.395319e-08	4.411473e+01	1.568990e+03
1.870000e-06	6.144040e-06	2.395980e-08	4.376744e+01	1.566681e+03
1.880000e-06	6.093116e-06	2.381533e-08	4.340468e+01	1.564145e+03
1.890000e-06	6.039549e-06	2.382383e-08	4.302310e+01	1.561223e+03
1.900000e-06	5.983436e-06	2.369930e-08	4.262337e+01	1.557832e+03
1.910000e-06	5.925199e-06	2.367497e-08	4.220852e+01	1.553999e+03
1.920000e-06	5.864848e-06	2.370512e-08	4.177860e+01	1.549853e+03
1.930000e-06	5.802428e-06	2.360144e-08	4.133395e+01	1.545588e+03
1.940000e-06	5.737724e-06	2.356588e-08	4.087303e+01	1.541393e+03
1.950000e-06	5.670826e-06	2.344982e-08	4.039648e+01	1.537392e+03
1.960000e-06	5.601780e-06	2.341863e-08	3.990462e+01	1.533600e+03
1.970000e-06	5.530482e-06	2.334232e-08	3.939673e+01	1.529908e+03
1.980000e-06	5.457135e-06	2.325852e-08	3.887423e+01	1.526115e+03
1.990000e-06	5.381835e-06	2.324241e-08	3.833783e+01	1.521989e+03
2.000000e-06	5.304468e-06	2.312159e-08	3.778671e+01	1.517340e+03
2.010000e-06	5.224918e-06	2.305691e-08	3.722002e+01	1.512079e+03
2.020000e-06	5.143427e-06	2.295847e-08	3.663952e+01	1.506254e+03
2.030000e-06	5.060283e-06	2.289290e-08	3.604723e+01	1.500039e+03
2.040000e-06	4.975494e-06	2.284160e-08	3.544324e+01	1.493677e+03
2.050000e-06	4.888836e-06	2.273944e-08	3.482592e+01	1.487411e+03
2.060000e-06	4.800312e-06	2.265507e-08	3.419532e+01	1.481403e+03
2.070000e-06	4.710241e-06	2.254299e-08	3.355369e+01	1.475677e+03
2.080000e-06	4.618618e-06	2.245145e-08	3.290100e+01	1.470106e+03
2.090000e-06	4.525426e-06	2.233447e-08	3.223715e+01	1.464448e+03
2.100000e-06	4.430530e-06	2.222976e-08	3.156115e+01	1.458416e+03
2.110000e-06	4.334022e-06	2.213592e-08	3.087367e+01	1.451762e+03
2.120000e-06	4.236165e-06	2.203277e-08	3.017658e+01	1.444361e+03
2.130000e-06	4.136873e-06	2.192655e-08	2.946927e+01	1.436250e+03
2.140000e-06	4.036077e-06	2.179889e-08	2.875124e+01	1.427618e+03
2.150000e-06	3.933622e-06	2.167843e-08	2.802140e+01	1.418751e+03
2.160000e-06	3.829570e-06	2.155458e-08	2.728018e+01	1.409939e+03
2.170000e-06	3.724224e-06	2.143852e-08	2.652974e+01	1.401383e+03
2.180000e-06	3.617714e-06	2.130517e-08	2.577100e+01	1.393121e+03
2.190000e-06	3.509985e-06	2.116242e-08	2.500359e+01	1.385009e+03
2.200000e-06	3.401055e-06	2.101434e-08	2.422762e+01	1.376752e+03
2.210000e-06	3.290783e-06	2.086733e-08	2.344210e+01	1.367991e+03
2.220000e-06	3.179110e-06	2.072093e-08	2.264658e+01	1.358408e+03
2.230000e-06	3.066247e-06	2.057140e-08	2.184260e+01	1.347826e+03
2.240000e-06	2.952198e-06	2.041974e-08	2.103016e+01	1.336268e+03
2.250000e-06	2.837027e-06	2.025340e-08	2.020973e+01	1.323952e+03
2.260000e-06	2.720800e-06	2.007292e-08	1.938178e+01	1.311223e+03
2.270000e-06	2.603441e-06	1.988375e-08	1.854577e+01	1.298446e+03
2.280000e-06	2.484851e-06	1.969642e-08	1.770099e+01	1.285881e+03
2.290000e-06	2.365149e-06	1.950098e-08	1.684828e+01	1.273586e+03
2.300000e-06	2.244659e-06	1.930006e-08	1.598996e+01	1.261380e+03
2.310000e-06	2.123550e-06	1.909221e-08	1.512724e+01	1.248879e+03
2.320000e-06	2.001774e-06	1.887655e-08	1.425976e+01	1.235596e+03
2.330000e-06	1.879320e-06	1.864745e-08	1.338745e+01	1.221087e+03
2.340000e-06	1.756222e-06	1.840485e-08	1.251056e+01	1.205075e+03
2.350000e-06	1.632478e-06	1.815451e-08	1.162906e+01	1.187543e+03
2.360000e-06	1.508253e-06	1.789487e-08	1.074413e+01	1.168736e+03
2.370000e-06	1.383675e-06	1.762237e-08	9.856690e+00	1.149076e+03
2.380000e-06	1.258731e-06	1.733177e-08	8.966646e+00	1.129016e+03
2.390000e-06	1.133420e-06	1.702546e-08	8.073987e+00	1.108864e+03
2.400000e-06	1.007647e-06	1.669935e-08	7.178032e+00	1.088640e+03
2.410000e-06	8.813532e-07	1.635808e-08	6.278373e+00	1.068007e+03
2.420000e-06	7.546763e-07	1.600126e-08	5.375983e+00	1.046312e+03
2.430000e-06	6.277346e-07	1.562312e-08	4.471706e+00	1.022731e+03
2.440000e-06	5.004841e-07	1.521773e-08	3.565229e+00	9.964715e+02
2.450000e-06	3.729445e-07	1.477908e-08	2.656693e+00	9.669868e+02
2.460000e-06	2.452383e-07	1.430448e-08	1.746970e+00	9.341133e+02
2.470000e-06	1.174124e-07	1.378964e-08	8.363946e-01	8.980861e+02
2.480000e-06	-1.046015e-08	1.323449e-08	-7.451349e-02	8.593992e+02
2.490000e-06	-1.383565e-07	1.262996e-08	-9.855906e-01	8.185305e+02
2.500000e-06	-2.662147e-07	1.196610e-08	-1.896397e+00	7.755921e+02
2.510000e-06	-3.939807e-07	1.123805e-08	-2.806546e+00	7.300017e+02
2.520000e-06	-5.216889e-07	1.043229e-08	-3.716283e+00	6.802757e+02
2.530000e-06	-6.492238e-07	9.528560e-09	-4.624785e+00	6.240311e+02
2.540000e-06	-7.765185e-07	8.501622e-09	-5.531577e+00	5.582370e+02
2.550000e-06	-9.034399e-07	7.321976e-09	-6.435709e+00	4.796982e+02
2.560000e-06	-1.029821e-06	5.952950e-09	-7.335994e+00	3.856924e+02
2.570000e-06	-1.155702e-06	4.347554e-09	-8.232714e+00	2.746367e+02
2.580000e-06	-1.281076e-06	2.465119e-09	-9.125820e+00	1.466358e+02
2.590000e-06	-1.405949e-06	2.933089e-10	-1.001537e+01	3.781987e+00
2.600000e-06	-1.530402e-06	-2.105066e-09	-1.090191e+01	-1.498815e+02
2.610000e-06	-1.654388e-06	-4.604104e-09	-1.178513e+01	-3.087502e+02
2.620000e-06	-1.777746e-06	-7.102240e-09	-1.266389e+01	-4.663454e+02
2.630000e-06	-1.900375e-06	-9.479841e-09	-1.353744e+01	-6.161740e+02
2.640000e-06	-2.022196e-06	-1.159131e-08	-1.440524e+01	-7.526008e+02
2.650000e-06	-2.143227e-06	-1.336601e-08	-1.526741e+01	-8.715686e+02
2.660000e-06	-2.263627e-06	-1.481457e-08	-1.612509e+01	-9.710318e+02
2.670000e-06	-2.383411e-06	-1.598184e-08	-1.697837e+01	-1.051036e+03
2.680000e-06	-2.502175e-06	-1.692104e-08	-1.782440e+01	-1.113444e+03
2.690000e-06	-2.619669e-06	-1.768286e-08	-1.866138e+01	-1.161392e+03
2.700000e-06	-2.736028e-06	-1.830811e-08	-1.949026e+01	-1.198597e+03
2.710000e-06	-2.851269e-06	-1.882779e-08	-2.031119e+01	-1.228670e+03
2.720000e-06	-2.965387e-06	-1.926498e-08	-2.112412e+01	-1.254567e+03
2.730000e-06	-3.078209e-06	-1.964072e-08	-2.192781e+01	-1.278272e+03
2.740000e-06	-3.189742e-06	-1.996952e-08	-2.272232e+01	-1.300746e+03
2.750000e-06	-3.300107e-06	-2.026186e-08	-2.350851e+01	-1.322098e+03
2.760000e-06	-3.409242e-06	-2.052439e-08	-2.428594e+01	-1.341920e+03
2.770000e-06	-3.517307e-06	-2.076364e-08	-2.505575e+01	-1.359659e+03
2.780000e-06	-3.624339e-06	-2.098451e-08	-2.581820e+01	-1.374938e+03
2.790000e-06	-3.730159e-06	-2.118608e-08	-2.657201e+01	-1.387747e+03
2.800000e-06	-3.834688e-06	-2.136796e-08	-2.731663e+01	-1.398481e+03
2.810000e-06	-3.937804e-06	-2.153471e-08	-2.805118e+01	-1.407825e+03
2.820000e-06	-4.039352e-06	-2.169210e-08	-2.877457e+01	-1.416559e+03
2.830000e-06	-4.139436e-06	-2.184068e-08	-2.948752e+01	-1.425344e+03
2.840000e-06	-4.238179e-06	-2.198277e-08	-3.019093e+01	-1.434555e+03
2.850000e-06	-4.335494e-06	-2.212010e-08	-3.088416e+01	-1.444210e+03
2.860000e-06	-4.431365e-06	-2.225139e-08	-3.156710e+01	-1.454016e+03
2.870000e-06	-4.525547e-06	-2.237433e-08	-3.223801e+01	-1.463492e+03
2.880000e-06	-4.617991e-06	-2.248837e-08	-3.289654e+01	-1.472147e+03
2.890000e-06	-4.708853e-06	-2.259395e-08	-3.354380e+01	-1.479645e+03
2.900000e-06	-4.798045e-06	-2.269144e-08	-3.417917e+01	-1.485902e+03
2.910000e-06	-4.885509e-06	-2.278302e-08	-3.480222e+01	-1.491111e+03
2.920000e-06	-4.971074e-06	-2.287019e-08	-3.541175e+01	-1.495673e+03
2.930000e-06	-5.054828e-06	-2.295369e-08	-3.600838e+01	-1.500068e+03
2.940000e-06	-5.136908e-06	-2.303514e-08	-3.659308e+01	-1.504716e+03
