# Temperatura_=_56.18
# Concentracion g/m^3_=_41000.0
# C_Vs_to_Am_M_A/Vsm_=_65563218390.804596
# pendiente_HvsI_1/m_=_3716.3
# ordenada_HvsI_A/m_=_1297.0
# frecuencia_Hz_=_302011.5127781572

Tiempo_(s)	Campo_(V.s)	Magnetizacion_(V.s)	Campo_(kA/m)	Magnetizacion_(A/m)
0.000000e+00	-6.730198e-06	-2.579915e-08	-4.746324e+01	-1.689961e+03
1.000000e-08	-6.727106e-06	-2.579361e-08	-4.744143e+01	-1.690254e+03
2.000000e-08	-6.721811e-06	-2.578451e-08	-4.740409e+01	-1.690254e+03
3.000000e-08	-6.714451e-06	-2.577611e-08	-4.735219e+01	-1.689818e+03
4.000000e-08	-6.704804e-06	-2.576509e-08	-4.728415e+01	-1.688911e+03
5.000000e-08	-6.692682e-06	-2.575223e-08	-4.719866e+01	-1.687614e+03
6.000000e-08	-6.678083e-06	-2.573667e-08	-4.709571e+01	-1.686100e+03
7.000000e-08	-6.661106e-06	-2.572132e-08	-4.697598e+01	-1.684586e+03
8.000000e-08	-6.641957e-06	-2.574499e-08	-4.684094e+01	-1.683263e+03
9.000000e-08	-6.620441e-06	-2.578156e-08	-4.668920e+01	-1.682238e+03
1.000000e-07	-6.596237e-06	-2.573192e-08	-4.651851e+01	-1.681508e+03
1.100000e-07	-6.569347e-06	-2.566830e-08	-4.632887e+01	-1.680952e+03
1.200000e-07	-6.540110e-06	-2.564395e-08	-4.612269e+01	-1.680376e+03
1.300000e-07	-6.509010e-06	-2.556210e-08	-4.590336e+01	-1.679568e+03
1.400000e-07	-6.476173e-06	-2.548841e-08	-4.567179e+01	-1.678357e+03
1.500000e-07	-6.441357e-06	-2.559378e-08	-4.542625e+01	-1.676667e+03
1.600000e-07	-6.404457e-06	-2.555659e-08	-4.516603e+01	-1.674533e+03
1.700000e-07	-6.365606e-06	-2.547806e-08	-4.489204e+01	-1.672082e+03
1.800000e-07	-6.324522e-06	-2.554843e-08	-4.460230e+01	-1.669495e+03
1.900000e-07	-6.280910e-06	-2.544430e-08	-4.429474e+01	-1.666943e+03
2.000000e-07	-6.235007e-06	-2.539963e-08	-4.397101e+01	-1.664537e+03
2.100000e-07	-6.186707e-06	-2.539058e-08	-4.363039e+01	-1.662291e+03
2.200000e-07	-6.135703e-06	-2.529855e-08	-4.327069e+01	-1.660123e+03
2.300000e-07	-6.082161e-06	-2.526471e-08	-4.289310e+01	-1.657884e+03
2.400000e-07	-6.026352e-06	-2.521905e-08	-4.249952e+01	-1.655407e+03
2.500000e-07	-5.968303e-06	-2.518779e-08	-4.209014e+01	-1.652564e+03
2.600000e-07	-5.907999e-06	-2.516190e-08	-4.166486e+01	-1.649307e+03
2.700000e-07	-5.845534e-06	-2.510242e-08	-4.122434e+01	-1.645681e+03
2.800000e-07	-5.780933e-06	-2.503865e-08	-4.076876e+01	-1.641812e+03
2.900000e-07	-5.714125e-06	-2.497816e-08	-4.029761e+01	-1.637860e+03
3.000000e-07	-5.645146e-06	-2.494229e-08	-3.981115e+01	-1.633965e+03
3.100000e-07	-5.574060e-06	-2.486987e-08	-3.930983e+01	-1.630200e+03
3.200000e-07	-5.500966e-06	-2.481540e-08	-3.879435e+01	-1.626541e+03
3.300000e-07	-5.425702e-06	-2.475421e-08	-3.826357e+01	-1.622870e+03
3.400000e-07	-5.348088e-06	-2.466029e-08	-3.771621e+01	-1.619016e+03
3.500000e-07	-5.268270e-06	-2.460353e-08	-3.715331e+01	-1.614804e+03
3.600000e-07	-5.186491e-06	-2.453295e-08	-3.657658e+01	-1.610112e+03
3.700000e-07	-5.103046e-06	-2.446067e-08	-3.598811e+01	-1.604917e+03
3.800000e-07	-5.017963e-06	-2.438125e-08	-3.538808e+01	-1.599298e+03
3.900000e-07	-4.931277e-06	-2.429113e-08	-3.477675e+01	-1.593419e+03
4.000000e-07	-4.842948e-06	-2.419546e-08	-3.415382e+01	-1.587473e+03
4.100000e-07	-4.752776e-06	-2.410958e-08	-3.351791e+01	-1.581621e+03
4.200000e-07	-4.660869e-06	-2.403061e-08	-3.286975e+01	-1.575934e+03
4.300000e-07	-4.567364e-06	-2.393583e-08	-3.221033e+01	-1.570367e+03
4.400000e-07	-4.472311e-06	-2.384416e-08	-3.153999e+01	-1.564766e+03
4.500000e-07	-4.375663e-06	-2.374934e-08	-3.085840e+01	-1.558909e+03
4.600000e-07	-4.277314e-06	-2.364295e-08	-3.016482e+01	-1.552576e+03
4.700000e-07	-4.177396e-06	-2.352868e-08	-2.946017e+01	-1.545611e+03
4.800000e-07	-4.076115e-06	-2.341397e-08	-2.874590e+01	-1.537979e+03
4.900000e-07	-3.973460e-06	-2.329759e-08	-2.802195e+01	-1.529771e+03
5.000000e-07	-3.869302e-06	-2.317370e-08	-2.728740e+01	-1.521182e+03
5.100000e-07	-3.763674e-06	-2.304856e-08	-2.654249e+01	-1.512443e+03
5.200000e-07	-3.656608e-06	-2.292028e-08	-2.578742e+01	-1.503752e+03
5.300000e-07	-3.548152e-06	-2.278187e-08	-2.502256e+01	-1.495195e+03
5.400000e-07	-3.438460e-06	-2.263841e-08	-2.424898e+01	-1.486719e+03
5.500000e-07	-3.327597e-06	-2.249711e-08	-2.346715e+01	-1.478131e+03
5.600000e-07	-3.215458e-06	-2.235219e-08	-2.267631e+01	-1.469154e+03
5.700000e-07	-3.102001e-06	-2.219504e-08	-2.187618e+01	-1.459504e+03
5.800000e-07	-2.987210e-06	-2.202646e-08	-2.106664e+01	-1.448976e+03
5.900000e-07	-2.871070e-06	-2.185130e-08	-2.024759e+01	-1.437511e+03
6.000000e-07	-2.753811e-06	-2.166931e-08	-1.942064e+01	-1.425211e+03
6.100000e-07	-2.635617e-06	-2.148346e-08	-1.858711e+01	-1.412308e+03
6.200000e-07	-2.516531e-06	-2.129369e-08	-1.774728e+01	-1.399090e+03
6.300000e-07	-2.396460e-06	-2.109640e-08	-1.690051e+01	-1.385800e+03
6.400000e-07	-2.275405e-06	-2.088913e-08	-1.604680e+01	-1.372549e+03
6.500000e-07	-2.153575e-06	-2.067255e-08	-1.518762e+01	-1.359258e+03
6.600000e-07	-2.031028e-06	-2.044588e-08	-1.432338e+01	-1.345669e+03
6.700000e-07	-1.907633e-06	-2.020831e-08	-1.345316e+01	-1.331402e+03
6.800000e-07	-1.783462e-06	-1.996255e-08	-1.257747e+01	-1.316059e+03
6.900000e-07	-1.658716e-06	-1.970789e-08	-1.169773e+01	-1.299342e+03
7.000000e-07	-1.533482e-06	-1.944213e-08	-1.081454e+01	-1.281134e+03
7.100000e-07	-1.407833e-06	-1.915888e-08	-9.928434e+00	-1.261537e+03
7.200000e-07	-1.281806e-06	-1.885780e-08	-9.039653e+00	-1.240824e+03
7.300000e-07	-1.155418e-06	-1.854013e-08	-8.148331e+00	-1.219346e+03
7.400000e-07	-1.028638e-06	-1.820726e-08	-7.254241e+00	-1.197381e+03
7.500000e-07	-9.014764e-07	-1.786002e-08	-6.357464e+00	-1.175014e+03
7.600000e-07	-7.739930e-07	-1.749365e-08	-5.458415e+00	-1.152046e+03
7.700000e-07	-6.461824e-07	-1.710199e-08	-4.557059e+00	-1.128000e+03
7.800000e-07	-5.180745e-07	-1.668433e-08	-3.653607e+00	-1.102202e+03
7.900000e-07	-3.897530e-07	-1.623969e-08	-2.748647e+00	-1.073944e+03
8.000000e-07	-2.612360e-07	-1.576450e-08	-1.842309e+00	-1.042652e+03
8.100000e-07	-1.325762e-07	-1.525486e-08	-9.349647e-01	-1.008033e+03
8.200000e-07	-3.890698e-09	-1.470567e-08	-2.743829e-02	-9.701223e+02
8.300000e-07	1.248023e-07	-1.411241e-08	8.801409e-01	-9.292086e+02
8.400000e-07	2.535242e-07	-1.346660e-08	1.787924e+00	-8.856356e+02
8.500000e-07	3.821907e-07	-1.276098e-08	2.695316e+00	-8.395196e+02
8.600000e-07	5.107211e-07	-1.198564e-08	3.601748e+00	-7.904543e+02
8.700000e-07	6.390876e-07	-1.112873e-08	4.507025e+00	-7.372913e+02
8.800000e-07	7.672838e-07	-1.017902e-08	5.411100e+00	-6.780768e+02
8.900000e-07	8.951995e-07	-9.113463e-09	6.313197e+00	-6.101984e+02
9.000000e-07	1.022701e-06	-7.900347e-09	7.212374e+00	-5.307449e+02
9.100000e-07	1.149795e-06	-6.502902e-09	8.108677e+00	-4.370337e+02
9.200000e-07	1.276473e-06	-4.875211e-09	9.002044e+00	-3.272090e+02
9.300000e-07	1.402731e-06	-2.974467e-09	9.892450e+00	-2.007867e+02
9.400000e-07	1.528594e-06	-7.900237e-10	1.078007e+01	-5.902424e+01
9.500000e-07	1.654017e-06	1.593952e-09	1.166459e+01	9.498297e+01
9.600000e-07	1.778935e-06	4.045034e-09	1.254555e+01	2.565195e+02
9.700000e-07	1.903285e-06	6.503130e-09	1.342250e+01	4.197620e+02
9.800000e-07	2.026923e-06	8.942343e-09	1.429443e+01	5.785002e+02
9.900000e-07	2.149677e-06	1.124456e-08	1.516012e+01	7.269369e+02
1.000000e-06	2.271521e-06	1.325792e-08	1.601940e+01	8.604184e+02
1.010000e-06	2.392557e-06	1.493747e-08	1.687298e+01	9.759637e+02
1.020000e-06	2.512701e-06	1.631826e-08	1.772027e+01	1.072500e+03
1.030000e-06	2.631814e-06	1.745090e-08	1.856029e+01	1.150777e+03
1.040000e-06	2.749923e-06	1.838306e-08	1.939323e+01	1.212999e+03
1.050000e-06	2.867014e-06	1.915151e-08	2.021898e+01	1.262267e+03
1.060000e-06	2.983013e-06	1.979068e-08	2.103704e+01	1.301952e+03
1.070000e-06	3.097779e-06	2.033077e-08	2.184640e+01	1.335132e+03
1.080000e-06	3.211261e-06	2.079412e-08	2.264671e+01	1.364195e+03
1.090000e-06	3.323590e-06	2.119655e-08	2.343888e+01	1.390654e+03
1.100000e-06	3.434708e-06	2.155078e-08	2.422252e+01	1.415186e+03
1.110000e-06	3.544611e-06	2.186487e-08	2.499759e+01	1.437846e+03
1.120000e-06	3.653445e-06	2.214571e-08	2.576512e+01	1.458366e+03
1.130000e-06	3.761127e-06	2.240056e-08	2.652452e+01	1.476456e+03
1.140000e-06	3.867392e-06	2.263347e-08	2.727393e+01	1.492032e+03
1.150000e-06	3.972222e-06	2.284780e-08	2.801322e+01	1.505315e+03
1.160000e-06	4.075585e-06	2.304593e-08	2.874216e+01	1.516806e+03
1.170000e-06	4.177473e-06	2.322879e-08	2.946071e+01	1.527163e+03
1.180000e-06	4.277992e-06	2.339833e-08	3.016960e+01	1.537023e+03
1.190000e-06	4.376954e-06	2.355668e-08	3.086750e+01	1.546845e+03
1.200000e-06	4.474263e-06	2.370470e-08	3.155375e+01	1.556813e+03
1.210000e-06	4.569878e-06	2.384290e-08	3.222806e+01	1.566826e+03
1.220000e-06	4.663844e-06	2.397274e-08	3.289073e+01	1.576572e+03
1.230000e-06	4.756294e-06	2.409500e-08	3.354272e+01	1.585659e+03
1.240000e-06	4.847116e-06	2.420894e-08	3.418322e+01	1.593756e+03
1.250000e-06	4.936186e-06	2.431546e-08	3.481137e+01	1.600709e+03
1.260000e-06	5.023434e-06	2.441385e-08	3.542666e+01	1.606587e+03
1.270000e-06	5.108878e-06	2.450639e-08	3.602924e+01	1.611660e+03
1.280000e-06	5.192631e-06	2.459306e-08	3.661989e+01	1.616319e+03
1.290000e-06	5.274543e-06	2.467745e-08	3.719755e+01	1.620954e+03
1.300000e-06	5.354432e-06	2.475815e-08	3.776095e+01	1.625848e+03
1.310000e-06	5.432310e-06	2.483499e-08	3.831017e+01	1.631102e+03
1.320000e-06	5.508144e-06	2.490969e-08	3.884497e+01	1.636622e+03
1.330000e-06	5.581882e-06	2.498076e-08	3.936499e+01	1.642165e+03
1.340000e-06	5.653470e-06	2.504887e-08	3.986985e+01	1.647425e+03
1.350000e-06	5.723006e-06	2.511230e-08	4.036024e+01	1.652137e+03
1.360000e-06	5.790561e-06	2.517275e-08	4.083666e+01	1.656154e+03
1.370000e-06	5.855966e-06	2.523020e-08	4.129791e+01	1.659494e+03
1.380000e-06	5.919273e-06	2.528533e-08	4.174437e+01	1.662324e+03
1.390000e-06	5.980644e-06	2.533860e-08	4.217718e+01	1.664903e+03
1.400000e-06	6.039991e-06	2.538953e-08	4.259570e+01	1.667496e+03
1.410000e-06	6.097191e-06	2.543727e-08	4.299910e+01	1.670293e+03
1.420000e-06	6.152209e-06	2.548074e-08	4.338710e+01	1.673351e+03
1.430000e-06	6.204942e-06	2.552217e-08	4.375899e+01	1.676583e+03
1.440000e-06	6.255160e-06	2.556078e-08	4.411314e+01	1.679791e+03
1.450000e-06	6.302852e-06	2.559543e-08	4.444948e+01	1.682732e+03
1.460000e-06	6.348341e-06	2.562711e-08	4.477028e+01	1.685202e+03
1.470000e-06	6.391752e-06	2.565525e-08	4.507642e+01	1.687096e+03
1.480000e-06	6.432865e-06	2.568204e-08	4.536636e+01	1.688443e+03
1.490000e-06	6.471632e-06	2.570877e-08	4.563976e+01	1.689397e+03
1.500000e-06	6.508232e-06	2.573408e-08	4.589787e+01	1.690185e+03
1.510000e-06	6.542509e-06	2.575667e-08	4.613960e+01	1.691040e+03
1.520000e-06	6.574351e-06	2.577583e-08	4.636416e+01	1.692125e+03
1.530000e-06	6.603983e-06	2.579320e-08	4.657314e+01	1.693488e+03
1.540000e-06	6.631398e-06	2.581059e-08	4.676647e+01	1.695052e+03
1.550000e-06	6.656313e-06	2.582708e-08	4.694218e+01	1.696637e+03
1.560000e-06	6.678758e-06	2.584147e-08	4.710047e+01	1.698027e+03
1.570000e-06	6.699035e-06	2.585380e-08	4.724347e+01	1.699034e+03
1.580000e-06	6.716940e-06	2.586484e-08	4.736974e+01	1.699558e+03
1.590000e-06	6.732242e-06	2.587478e-08	4.747765e+01	1.699619e+03
1.600000e-06	6.745044e-06	2.588362e-08	4.756794e+01	1.699350e+03
1.610000e-06	6.755192e-06	2.589043e-08	4.763950e+01	1.698951e+03
1.620000e-06	6.762685e-06	2.589500e-08	4.769235e+01	1.698628e+03
1.630000e-06	6.767788e-06	2.589827e-08	4.772833e+01	1.698529e+03
1.640000e-06	6.770577e-06	2.589994e-08	4.774800e+01	1.698694e+03
1.650000e-06	6.770966e-06	2.590131e-08	4.775075e+01	1.699046e+03
1.660000e-06	6.769027e-06	2.589472e-08	4.773707e+01	1.699417e+03
1.670000e-06	6.764970e-06	2.588747e-08	4.770846e+01	1.699599e+03
1.680000e-06	6.758608e-06	2.588078e-08	4.766359e+01	1.699410e+03
1.690000e-06	6.749936e-06	2.587301e-08	4.760244e+01	1.698755e+03
1.700000e-06	6.739198e-06	2.586538e-08	4.752671e+01	1.697652e+03
1.710000e-06	6.726210e-06	2.585883e-08	4.743511e+01	1.696231e+03
1.720000e-06	6.710864e-06	2.585539e-08	4.732689e+01	1.694693e+03
1.730000e-06	6.693416e-06	2.579535e-08	4.720384e+01	1.693250e+03
1.740000e-06	6.673736e-06	2.571422e-08	4.706506e+01	1.692060e+03
1.750000e-06	6.651037e-06	2.573517e-08	4.690497e+01	1.691183e+03
1.760000e-06	6.625174e-06	2.575143e-08	4.672258e+01	1.690556e+03
1.770000e-06	6.596800e-06	2.573910e-08	4.652248e+01	1.690020e+03
1.780000e-06	6.566296e-06	2.582383e-08	4.630735e+01	1.689364e+03
1.790000e-06	6.534177e-06	2.577647e-08	4.608084e+01	1.688387e+03
1.800000e-06	6.500594e-06	2.566084e-08	4.584400e+01	1.686959e+03
1.810000e-06	6.464726e-06	2.571443e-08	4.559106e+01	1.685054e+03
1.820000e-06	6.426383e-06	2.564340e-08	4.532065e+01	1.682755e+03
1.830000e-06	6.385909e-06	2.563932e-08	4.503522e+01	1.680220e+03
1.840000e-06	6.343289e-06	2.565301e-08	4.473465e+01	1.677633e+03
1.850000e-06	6.298625e-06	2.549398e-08	4.441966e+01	1.675142e+03
1.860000e-06	6.251648e-06	2.553559e-08	4.408837e+01	1.672817e+03
1.870000e-06	6.202247e-06	2.549413e-08	4.373998e+01	1.670625e+03
1.880000e-06	6.150557e-06	2.543059e-08	4.337545e+01	1.668447e+03
1.890000e-06	6.096172e-06	2.543679e-08	4.299191e+01	1.666119e+03
1.900000e-06	6.039356e-06	2.530556e-08	4.259123e+01	1.663487e+03
1.910000e-06	5.980389e-06	2.531557e-08	4.217538e+01	1.660454e+03
1.920000e-06	5.919229e-06	2.528437e-08	4.174406e+01	1.657016e+03
1.930000e-06	5.855925e-06	2.522383e-08	4.129763e+01	1.653261e+03
1.940000e-06	5.790403e-06	2.519751e-08	4.083554e+01	1.649335e+03
1.950000e-06	5.722801e-06	2.510478e-08	4.035879e+01	1.645398e+03
1.960000e-06	5.652966e-06	2.507602e-08	3.986630e+01	1.641563e+03
1.970000e-06	5.580894e-06	2.496421e-08	3.935803e+01	1.637858e+03
1.980000e-06	5.506745e-06	2.492224e-08	3.883511e+01	1.634214e+03
1.990000e-06	5.430422e-06	2.488819e-08	3.829685e+01	1.630484e+03
2.000000e-06	5.351983e-06	2.480105e-08	3.774368e+01	1.626485e+03
2.010000e-06	5.271500e-06	2.474918e-08	3.717609e+01	1.622062e+03
2.020000e-06	5.189135e-06	2.464153e-08	3.659523e+01	1.617136e+03
2.030000e-06	5.105025e-06	2.458466e-08	3.600207e+01	1.611730e+03
2.040000e-06	5.019116e-06	2.451167e-08	3.539621e+01	1.605969e+03
2.050000e-06	4.931358e-06	2.443822e-08	3.477732e+01	1.600038e+03
2.060000e-06	4.841909e-06	2.435816e-08	3.414650e+01	1.594122e+03
2.070000e-06	4.750931e-06	2.426660e-08	3.350490e+01	1.588347e+03
2.080000e-06	4.658308e-06	2.418259e-08	3.285169e+01	1.582730e+03
2.090000e-06	4.563955e-06	2.407154e-08	3.218629e+01	1.577174e+03
2.100000e-06	4.467898e-06	2.397815e-08	3.150886e+01	1.571486e+03
2.110000e-06	4.370347e-06	2.388084e-08	3.082091e+01	1.565435e+03
2.120000e-06	4.271411e-06	2.378842e-08	3.012319e+01	1.558824e+03
2.130000e-06	4.170924e-06	2.367807e-08	2.941452e+01	1.551548e+03
2.140000e-06	4.068798e-06	2.356026e-08	2.869430e+01	1.543632e+03
2.150000e-06	3.965079e-06	2.343898e-08	2.796285e+01	1.535221e+03
2.160000e-06	3.860009e-06	2.331896e-08	2.722186e+01	1.526536e+03
2.170000e-06	3.753691e-06	2.320597e-08	2.647208e+01	1.517803e+03
2.180000e-06	3.646115e-06	2.308202e-08	2.571342e+01	1.509173e+03
2.190000e-06	3.537267e-06	2.294968e-08	2.494580e+01	1.500672e+03
2.200000e-06	3.427133e-06	2.280416e-08	2.416910e+01	1.492177e+03
2.210000e-06	3.315606e-06	2.265833e-08	2.338258e+01	1.483448e+03
2.220000e-06	3.202764e-06	2.250559e-08	2.258679e+01	1.474193e+03
2.230000e-06	3.088745e-06	2.235119e-08	2.178270e+01	1.464155e+03
2.240000e-06	2.973442e-06	2.219337e-08	2.096954e+01	1.453192e+03
2.250000e-06	2.856891e-06	2.202953e-08	2.014760e+01	1.441319e+03
2.260000e-06	2.739189e-06	2.185215e-08	1.931753e+01	1.428707e+03
2.270000e-06	2.620428e-06	2.166705e-08	1.847999e+01	1.415625e+03
2.280000e-06	2.500563e-06	2.147690e-08	1.763467e+01	1.402352e+03
2.290000e-06	2.379674e-06	2.127663e-08	1.678212e+01	1.389079e+03
2.300000e-06	2.258019e-06	2.106808e-08	1.592418e+01	1.375833e+03
2.310000e-06	2.135746e-06	2.085115e-08	1.506188e+01	1.362447e+03
2.320000e-06	2.012836e-06	2.062760e-08	1.419508e+01	1.348597e+03
2.330000e-06	1.889197e-06	2.039001e-08	1.332315e+01	1.333878e+03
2.340000e-06	1.764795e-06	2.013889e-08	1.244583e+01	1.317928e+03
2.350000e-06	1.639671e-06	1.987568e-08	1.156342e+01	1.300522e+03
2.360000e-06	1.514034e-06	1.960583e-08	1.067739e+01	1.281646e+03
2.370000e-06	1.388074e-06	1.932413e-08	9.789089e+00	1.261492e+03
2.380000e-06	1.261727e-06	1.902463e-08	8.898054e+00	1.240383e+03
2.390000e-06	1.134919e-06	1.870580e-08	8.003768e+00	1.218655e+03
2.400000e-06	1.007654e-06	1.836213e-08	7.106261e+00	1.196512e+03
2.410000e-06	8.799738e-07	1.800040e-08	6.205821e+00	1.173911e+03
2.420000e-06	7.519643e-07	1.762393e-08	5.303063e+00	1.150519e+03
2.430000e-06	6.236843e-07	1.722880e-08	4.398396e+00	1.125751e+03
2.440000e-06	4.952135e-07	1.680689e-08	3.492384e+00	1.098898e+03
2.450000e-06	3.666119e-07	1.635341e-08	2.585450e+00	1.069289e+03
2.460000e-06	2.378350e-07	1.586442e-08	1.677279e+00	1.036471e+03
2.470000e-06	1.088952e-07	1.533387e-08	7.679594e-01	1.000303e+03
2.480000e-06	-2.014605e-08	1.476327e-08	-1.420756e-01	9.609557e+02
2.490000e-06	-1.492044e-07	1.414765e-08	-1.052231e+00	9.187735e+02
2.500000e-06	-2.781764e-07	1.347819e-08	-1.961778e+00	8.740328e+02
2.510000e-06	-4.070182e-07	1.274801e-08	-2.870406e+00	8.266416e+02
2.520000e-06	-5.357455e-07	1.194656e-08	-3.778227e+00	7.758685e+02
2.530000e-06	-6.643585e-07	1.105932e-08	-4.685242e+00	7.201871e+02
2.540000e-06	-7.927683e-07	1.006769e-08	-5.590824e+00	6.573060e+02
2.550000e-06	-9.208274e-07	8.948871e-09	-6.493933e+00	5.844174e+02
2.560000e-06	-1.048483e-06	7.671403e-09	-7.394197e+00	4.986440e+02
2.570000e-06	-1.175718e-06	6.194861e-09	-8.291493e+00	3.976125e+02
2.580000e-06	-1.302496e-06	4.474930e-09	-9.185563e+00	2.800444e+02
2.590000e-06	-1.428815e-06	2.469820e-09	-1.007640e+01	1.462328e+02
2.600000e-06	-1.554673e-06	1.819379e-10	-1.096399e+01	-1.704521e+00
2.610000e-06	-1.679993e-06	-2.284234e-09	-1.184778e+01	-1.598738e+02
2.620000e-06	-1.804655e-06	-4.801162e-09	-1.272693e+01	-3.229662e+02
2.630000e-06	-1.928528e-06	-7.318418e-09	-1.360052e+01	-4.848811e+02
2.640000e-06	-2.051481e-06	-9.770296e-09	-1.446762e+01	-6.395010e+02
2.650000e-06	-2.173603e-06	-1.200654e-08	-1.532886e+01	-7.814785e+02
2.660000e-06	-2.295021e-06	-1.391631e-08	-1.618513e+01	-9.068870e+02
2.670000e-06	-2.415680e-06	-1.549760e-08	-1.703605e+01	-1.013622e+03
2.680000e-06	-2.535427e-06	-1.679298e-08	-1.788054e+01	-1.101485e+03
2.690000e-06	-2.654102e-06	-1.785213e-08	-1.871747e+01	-1.171963e+03
2.700000e-06	-2.771739e-06	-1.872201e-08	-1.954708e+01	-1.227752e+03
2.710000e-06	-2.888318e-06	-1.944456e-08	-2.036922e+01	-1.272155e+03
2.720000e-06	-3.003625e-06	-2.005201e-08	-2.118240e+01	-1.308470e+03
2.730000e-06	-3.117637e-06	-2.056650e-08	-2.198645e+01	-1.339491e+03
2.740000e-06	-3.230416e-06	-2.100468e-08	-2.278180e+01	-1.367208e+03
2.750000e-06	-3.341949e-06	-2.138465e-08	-2.356836e+01	-1.392730e+03
2.760000e-06	-3.452205e-06	-2.171999e-08	-2.434592e+01	-1.416411e+03
2.770000e-06	-3.561261e-06	-2.201998e-08	-2.511501e+01	-1.438117e+03
2.780000e-06	-3.669183e-06	-2.229174e-08	-2.587610e+01	-1.457534e+03
2.790000e-06	-3.775922e-06	-2.253737e-08	-2.662886e+01	-1.474447e+03
2.800000e-06	-3.881421e-06	-2.276147e-08	-2.737287e+01	-1.488910e+03
2.810000e-06	-3.985500e-06	-2.296576e-08	-2.810686e+01	-1.501283e+03
2.820000e-06	-4.087988e-06	-2.315127e-08	-2.882963e+01	-1.512161e+03
2.830000e-06	-4.188958e-06	-2.332227e-08	-2.954171e+01	-1.522213e+03
2.840000e-06	-4.288458e-06	-2.348302e-08	-3.024341e+01	-1.532011e+03
2.850000e-06	-4.386563e-06	-2.363594e-08	-3.093527e+01	-1.541894e+03
2.860000e-06	-4.483242e-06	-2.378117e-08	-3.161708e+01	-1.551909e+03
2.870000e-06	-4.578260e-06	-2.391743e-08	-3.228717e+01	-1.561843e+03
2.880000e-06	-4.671590e-06	-2.404462e-08	-3.294536e+01	-1.571329e+03
2.890000e-06	-4.763242e-06	-2.416138e-08	-3.359172e+01	-1.579987e+03
2.900000e-06	-4.853229e-06	-2.426736e-08	-3.422633e+01	-1.587556e+03
2.910000e-06	-4.941462e-06	-2.436544e-08	-3.484857e+01	-1.593985e+03
2.920000e-06	-5.027797e-06	-2.445846e-08	-3.545743e+01	-1.599444e+03
2.930000e-06	-5.112264e-06	-2.454685e-08	-3.605312e+01	-1.604271e+03
2.940000e-06	-5.194961e-06	-2.463180e-08	-3.663632e+01	-1.608873e+03
