# Temperatura_=_76.28
# Concentracion g/m^3_=_41000.0
# C_Vs_to_Am_M_A/Vsm_=_65563218390.804596
# pendiente_HvsI_1/m_=_3716.3
# ordenada_HvsI_A/m_=_1297.0
# frecuencia_Hz_=_302010.68333507644

Tiempo_(s)	Campo_(V.s)	Magnetizacion_(V.s)	Campo_(kA/m)	Magnetizacion_(A/m)
0.000000e+00	-6.674749e-06	-2.319931e-08	-4.746083e+01	-1.520727e+03
1.000000e-08	-6.671065e-06	-2.319570e-08	-4.743464e+01	-1.520819e+03
2.000000e-08	-6.665257e-06	-2.318667e-08	-4.739335e+01	-1.520380e+03
3.000000e-08	-6.657351e-06	-2.317767e-08	-4.733712e+01	-1.519400e+03
4.000000e-08	-6.647154e-06	-2.316524e-08	-4.726462e+01	-1.518005e+03
5.000000e-08	-6.634496e-06	-2.315060e-08	-4.717461e+01	-1.516417e+03
6.000000e-08	-6.619350e-06	-2.313013e-08	-4.706692e+01	-1.514891e+03
7.000000e-08	-6.601879e-06	-2.310986e-08	-4.694270e+01	-1.513631e+03
8.000000e-08	-6.582259e-06	-2.315558e-08	-4.680318e+01	-1.512734e+03
9.000000e-08	-6.560273e-06	-2.320179e-08	-4.664686e+01	-1.512160e+03
1.000000e-07	-6.535560e-06	-2.312838e-08	-4.647113e+01	-1.511750e+03
1.100000e-07	-6.508240e-06	-2.306531e-08	-4.627687e+01	-1.511275e+03
1.200000e-07	-6.478777e-06	-2.304658e-08	-4.606738e+01	-1.510506e+03
1.300000e-07	-6.447550e-06	-2.292762e-08	-4.584534e+01	-1.509288e+03
1.400000e-07	-6.414584e-06	-2.288880e-08	-4.561093e+01	-1.507581e+03
1.500000e-07	-6.379540e-06	-2.305982e-08	-4.536175e+01	-1.505466e+03
1.600000e-07	-6.342396e-06	-2.294510e-08	-4.509764e+01	-1.503118e+03
1.700000e-07	-6.303238e-06	-2.289915e-08	-4.481921e+01	-1.500743e+03
1.800000e-07	-6.261682e-06	-2.298599e-08	-4.452372e+01	-1.498506e+03
1.900000e-07	-6.217690e-06	-2.279915e-08	-4.421092e+01	-1.496481e+03
2.000000e-07	-6.171546e-06	-2.279718e-08	-4.388281e+01	-1.494624e+03
2.100000e-07	-6.123022e-06	-2.278813e-08	-4.353778e+01	-1.492785e+03
2.200000e-07	-6.071885e-06	-2.269258e-08	-4.317417e+01	-1.490761e+03
2.300000e-07	-6.018222e-06	-2.269150e-08	-4.279260e+01	-1.488359e+03
2.400000e-07	-5.962225e-06	-2.264209e-08	-4.239443e+01	-1.485461e+03
2.500000e-07	-5.903992e-06	-2.260016e-08	-4.198036e+01	-1.482063e+03
2.600000e-07	-5.843544e-06	-2.255417e-08	-4.155055e+01	-1.478280e+03
2.700000e-07	-5.781008e-06	-2.250353e-08	-4.110588e+01	-1.474306e+03
2.800000e-07	-5.716399e-06	-2.245314e-08	-4.064648e+01	-1.470355e+03
2.900000e-07	-5.649581e-06	-2.239336e-08	-4.017137e+01	-1.466587e+03
3.000000e-07	-5.580547e-06	-2.236312e-08	-3.968051e+01	-1.463058e+03
3.100000e-07	-5.509469e-06	-2.227063e-08	-3.917511e+01	-1.459694e+03
3.200000e-07	-5.436367e-06	-2.220827e-08	-3.865531e+01	-1.456315e+03
3.300000e-07	-5.361106e-06	-2.214486e-08	-3.812017e+01	-1.452687e+03
3.400000e-07	-5.283669e-06	-2.206237e-08	-3.756955e+01	-1.448599e+03
3.500000e-07	-5.204059e-06	-2.201677e-08	-3.700348e+01	-1.443930e+03
3.600000e-07	-5.122452e-06	-2.193667e-08	-3.642322e+01	-1.438691e+03
3.700000e-07	-5.039159e-06	-2.185952e-08	-3.583097e+01	-1.433025e+03
3.800000e-07	-4.954279e-06	-2.177046e-08	-3.522743e+01	-1.427165e+03
3.900000e-07	-4.867780e-06	-2.168575e-08	-3.461237e+01	-1.421359e+03
4.000000e-07	-4.779618e-06	-2.160286e-08	-3.398549e+01	-1.415794e+03
4.100000e-07	-4.689688e-06	-2.152554e-08	-3.334605e+01	-1.410527e+03
4.200000e-07	-4.598054e-06	-2.144747e-08	-3.269449e+01	-1.405465e+03
4.300000e-07	-4.504865e-06	-2.134917e-08	-3.203187e+01	-1.400385e+03
4.400000e-07	-4.410146e-06	-2.125839e-08	-3.135836e+01	-1.394999e+03
4.500000e-07	-4.313803e-06	-2.116010e-08	-3.067332e+01	-1.389045e+03
4.600000e-07	-4.215801e-06	-2.105491e-08	-2.997648e+01	-1.382364e+03
4.700000e-07	-4.116340e-06	-2.094587e-08	-2.926926e+01	-1.374955e+03
4.800000e-07	-4.015481e-06	-2.083794e-08	-2.855210e+01	-1.366980e+03
4.900000e-07	-3.913174e-06	-2.072468e-08	-2.782464e+01	-1.358712e+03
5.000000e-07	-3.809495e-06	-2.060600e-08	-2.708743e+01	-1.350453e+03
5.100000e-07	-3.704387e-06	-2.048657e-08	-2.634006e+01	-1.342434e+03
5.200000e-07	-3.597777e-06	-2.036093e-08	-2.558201e+01	-1.334737e+03
5.300000e-07	-3.489836e-06	-2.023247e-08	-2.481450e+01	-1.327257e+03
5.400000e-07	-3.380727e-06	-2.010198e-08	-2.403867e+01	-1.319729e+03
5.500000e-07	-3.270449e-06	-1.997099e-08	-2.325454e+01	-1.311798e+03
5.600000e-07	-3.158996e-06	-1.983003e-08	-2.246205e+01	-1.303126e+03
5.700000e-07	-3.046345e-06	-1.967655e-08	-2.166105e+01	-1.293494e+03
5.800000e-07	-2.932346e-06	-1.951523e-08	-2.085046e+01	-1.282875e+03
5.900000e-07	-2.816943e-06	-1.935293e-08	-2.002989e+01	-1.271440e+03
6.000000e-07	-2.700328e-06	-1.918860e-08	-1.920070e+01	-1.259509e+03
6.100000e-07	-2.582749e-06	-1.902029e-08	-1.836465e+01	-1.247449e+03
6.200000e-07	-2.464292e-06	-1.884363e-08	-1.752236e+01	-1.235545e+03
6.300000e-07	-2.344958e-06	-1.865563e-08	-1.667383e+01	-1.223904e+03
6.400000e-07	-2.224804e-06	-1.845997e-08	-1.581948e+01	-1.212399e+03
6.500000e-07	-2.103886e-06	-1.826004e-08	-1.495970e+01	-1.200687e+03
6.600000e-07	-1.982134e-06	-1.805418e-08	-1.409397e+01	-1.188304e+03
6.700000e-07	-1.859531e-06	-1.783867e-08	-1.322220e+01	-1.174793e+03
6.800000e-07	-1.736213e-06	-1.761260e-08	-1.234535e+01	-1.159842e+03
6.900000e-07	-1.612282e-06	-1.737418e-08	-1.146414e+01	-1.143383e+03
7.000000e-07	-1.487877e-06	-1.712388e-08	-1.057956e+01	-1.125609e+03
7.100000e-07	-1.363038e-06	-1.686192e-08	-9.691890e+00	-1.106916e+03
7.200000e-07	-1.237796e-06	-1.658922e-08	-8.801354e+00	-1.087758e+03
7.300000e-07	-1.112215e-06	-1.630081e-08	-7.908411e+00	-1.068480e+03
7.400000e-07	-9.863267e-07	-1.599241e-08	-7.013281e+00	-1.049166e+03
7.500000e-07	-8.600875e-07	-1.566549e-08	-6.115657e+00	-1.029550e+03
7.600000e-07	-7.334542e-07	-1.531840e-08	-5.215230e+00	-1.009040e+03
7.700000e-07	-6.065376e-07	-1.494865e-08	-4.312789e+00	-9.868387e+02
7.800000e-07	-4.794376e-07	-1.455768e-08	-3.409043e+00	-9.621392e+02
7.900000e-07	-3.521612e-07	-1.414410e-08	-2.504044e+00	-9.343394e+02
8.000000e-07	-2.247316e-07	-1.369818e-08	-1.597955e+00	-9.031996e+02
8.100000e-07	-9.722976e-08	-1.321284e-08	-6.913527e-01	-8.688848e+02
8.200000e-07	3.036652e-08	-1.268521e-08	2.159213e-01	-8.318576e+02
8.300000e-07	1.580054e-07	-1.210866e-08	1.123498e+00	-7.926305e+02
8.400000e-07	2.855813e-07	-1.147557e-08	2.030627e+00	-7.514305e+02
8.500000e-07	4.130509e-07	-1.077731e-08	2.937000e+00	-7.078632e+02
8.600000e-07	5.404368e-07	-1.000068e-08	3.842779e+00	-6.606801e+02
8.700000e-07	6.677218e-07	-9.130601e-09	4.747840e+00	-6.077350e+02
8.800000e-07	7.947877e-07	-8.148988e-09	5.651342e+00	-5.461823e+02
8.900000e-07	9.216038e-07	-7.026661e-09	6.553068e+00	-4.729108e+02
9.000000e-07	1.048085e-06	-5.727517e-09	7.452415e+00	-3.851451e+02
9.100000e-07	1.174166e-06	-4.211343e-09	8.348912e+00	-2.811006e+02
9.200000e-07	1.299880e-06	-2.440313e-09	9.242803e+00	-1.605487e+02
9.300000e-07	1.425170e-06	-3.971249e-10	1.013368e+01	-2.516008e+01
9.400000e-07	1.549980e-06	1.881174e-09	1.102114e+01	1.214699e+02
9.500000e-07	1.674341e-06	4.289624e-09	1.190541e+01	2.741434e+02
9.600000e-07	1.798281e-06	6.702345e-09	1.278669e+01	4.266845e+02
9.700000e-07	1.921604e-06	8.980755e-09	1.366358e+01	5.727583e+02
9.800000e-07	2.043985e-06	1.100070e-08	1.453377e+01	7.067272e+02
9.900000e-07	2.165337e-06	1.270762e-08	1.539664e+01	8.243847e+02
1.000000e-06	2.285839e-06	1.410758e-08	1.625347e+01	9.234276e+02
1.010000e-06	2.405582e-06	1.524091e-08	1.710491e+01	1.003588e+03
1.020000e-06	2.524453e-06	1.615673e-08	1.795014e+01	1.066421e+03
1.030000e-06	2.642374e-06	1.690133e-08	1.878862e+01	1.114801e+03
1.040000e-06	2.759339e-06	1.751377e-08	1.962029e+01	1.152273e+03
1.050000e-06	2.875277e-06	1.802270e-08	2.044467e+01	1.182365e+03
1.060000e-06	2.989926e-06	1.845161e-08	2.125988e+01	1.208040e+03
1.070000e-06	3.103210e-06	1.882020e-08	2.206539e+01	1.231344e+03
1.080000e-06	3.215422e-06	1.914339e-08	2.286328e+01	1.253329e+03
1.090000e-06	3.326567e-06	1.942950e-08	2.365357e+01	1.274189e+03
1.100000e-06	3.436496e-06	1.968415e-08	2.443522e+01	1.293575e+03
1.110000e-06	3.545299e-06	1.991309e-08	2.520887e+01	1.310952e+03
1.120000e-06	3.653065e-06	2.012317e-08	2.597514e+01	1.325929e+03
1.130000e-06	3.759477e-06	2.031648e-08	2.673178e+01	1.338457e+03
1.140000e-06	3.864354e-06	2.049590e-08	2.747751e+01	1.348885e+03
1.150000e-06	3.967867e-06	2.066464e-08	2.821354e+01	1.357861e+03
1.160000e-06	4.069993e-06	2.082228e-08	2.893971e+01	1.366153e+03
1.170000e-06	4.170742e-06	2.096736e-08	2.965609e+01	1.374428e+03
1.180000e-06	4.270054e-06	2.110157e-08	3.036224e+01	1.383088e+03
1.190000e-06	4.367711e-06	2.122745e-08	3.105663e+01	1.392187e+03
1.200000e-06	4.463722e-06	2.134608e-08	3.173931e+01	1.401464e+03
1.210000e-06	4.558203e-06	2.145860e-08	3.241113e+01	1.410460e+03
1.220000e-06	4.651186e-06	2.156402e-08	3.307228e+01	1.418690e+03
1.230000e-06	4.742624e-06	2.166370e-08	3.372245e+01	1.425807e+03
1.240000e-06	4.832271e-06	2.175718e-08	3.435988e+01	1.431708e+03
1.250000e-06	4.920077e-06	2.184612e-08	3.498423e+01	1.436567e+03
1.260000e-06	5.006152e-06	2.193053e-08	3.559627e+01	1.440768e+03
1.270000e-06	5.090534e-06	2.201058e-08	3.619627e+01	1.444790e+03
1.280000e-06	5.173107e-06	2.208743e-08	3.678341e+01	1.449058e+03
1.290000e-06	5.253726e-06	2.216244e-08	3.735664e+01	1.453828e+03
1.300000e-06	5.332390e-06	2.223513e-08	3.791598e+01	1.459118e+03
1.310000e-06	5.409099e-06	2.230497e-08	3.846143e+01	1.464722e+03
1.320000e-06	5.483702e-06	2.237196e-08	3.899189e+01	1.470291e+03
1.330000e-06	5.556148e-06	2.243555e-08	3.950702e+01	1.475447e+03
1.340000e-06	5.626587e-06	2.249590e-08	4.000787e+01	1.479903e+03
1.350000e-06	5.695087e-06	2.255271e-08	4.049494e+01	1.483552e+03
1.360000e-06	5.761543e-06	2.260787e-08	4.096748e+01	1.486489e+03
1.370000e-06	5.825873e-06	2.266108e-08	4.142490e+01	1.488974e+03
1.380000e-06	5.888218e-06	2.271211e-08	4.186820e+01	1.491346e+03
1.390000e-06	5.948677e-06	2.276113e-08	4.229809e+01	1.493913e+03
1.400000e-06	6.007044e-06	2.280727e-08	4.271312e+01	1.496858e+03
1.410000e-06	6.063145e-06	2.285184e-08	4.311202e+01	1.500185e+03
1.420000e-06	6.117080e-06	2.289353e-08	4.349553e+01	1.503728e+03
1.430000e-06	6.168618e-06	2.293132e-08	4.386199e+01	1.507204e+03
1.440000e-06	6.217542e-06	2.296623e-08	4.420987e+01	1.510309e+03
1.450000e-06	6.264186e-06	2.299920e-08	4.454152e+01	1.512814e+03
1.460000e-06	6.308837e-06	2.302904e-08	4.485901e+01	1.514633e+03
1.470000e-06	6.351312e-06	2.305551e-08	4.516104e+01	1.515852e+03
1.480000e-06	6.391365e-06	2.308113e-08	4.544584e+01	1.516695e+03
1.490000e-06	6.429125e-06	2.310758e-08	4.571432e+01	1.517454e+03
1.500000e-06	6.464757e-06	2.313296e-08	4.596769e+01	1.518398e+03
1.510000e-06	6.498094e-06	2.315425e-08	4.620473e+01	1.519693e+03
1.520000e-06	6.529071e-06	2.317228e-08	4.642499e+01	1.521350e+03
1.530000e-06	6.557834e-06	2.318893e-08	4.662951e+01	1.523230e+03
1.540000e-06	6.584309e-06	2.320450e-08	4.681776e+01	1.525089e+03
1.550000e-06	6.608308e-06	2.321852e-08	4.698841e+01	1.526660e+03
1.560000e-06	6.629928e-06	2.323245e-08	4.714213e+01	1.527733e+03
1.570000e-06	6.649343e-06	2.324464e-08	4.728019e+01	1.528225e+03
1.580000e-06	6.666381e-06	2.325500e-08	4.740133e+01	1.528201e+03
1.590000e-06	6.680906e-06	2.326444e-08	4.750462e+01	1.527852e+03
1.600000e-06	6.692870e-06	2.327141e-08	4.758969e+01	1.527433e+03
1.610000e-06	6.702119e-06	2.327712e-08	4.765545e+01	1.527186e+03
1.620000e-06	6.708858e-06	2.328126e-08	4.770337e+01	1.527259e+03
1.630000e-06	6.713371e-06	2.328401e-08	4.773546e+01	1.527664e+03
1.640000e-06	6.715522e-06	2.328589e-08	4.775075e+01	1.528276e+03
1.650000e-06	6.715285e-06	2.328558e-08	4.774907e+01	1.528871e+03
1.660000e-06	6.712841e-06	2.327606e-08	4.773169e+01	1.529197e+03
1.670000e-06	6.708233e-06	2.327104e-08	4.769892e+01	1.529054e+03
1.680000e-06	6.701336e-06	2.326634e-08	4.764988e+01	1.528359e+03
1.690000e-06	6.692205e-06	2.325697e-08	4.758496e+01	1.527165e+03
1.700000e-06	6.680967e-06	2.324881e-08	4.750505e+01	1.525651e+03
1.710000e-06	6.667425e-06	2.324654e-08	4.740876e+01	1.524064e+03
1.720000e-06	6.651610e-06	2.324628e-08	4.729631e+01	1.522644e+03
1.730000e-06	6.633753e-06	2.315074e-08	4.716933e+01	1.521550e+03
1.740000e-06	6.613514e-06	2.306473e-08	4.702542e+01	1.520818e+03
1.750000e-06	6.590169e-06	2.311642e-08	4.685943e+01	1.520348e+03
1.760000e-06	6.563769e-06	2.312571e-08	4.667171e+01	1.519939e+03
1.770000e-06	6.535013e-06	2.313450e-08	4.646724e+01	1.519355e+03
1.780000e-06	6.504320e-06	2.325172e-08	4.624900e+01	1.518393e+03
1.790000e-06	6.472142e-06	2.310602e-08	4.602020e+01	1.516947e+03
1.800000e-06	6.438316e-06	2.299857e-08	4.577968e+01	1.515036e+03
1.810000e-06	6.402116e-06	2.308328e-08	4.552228e+01	1.512790e+03
1.820000e-06	6.363549e-06	2.293820e-08	4.524805e+01	1.510406e+03
1.830000e-06	6.322832e-06	2.304716e-08	4.495853e+01	1.508080e+03
1.840000e-06	6.279999e-06	2.307185e-08	4.465397e+01	1.505942e+03
1.850000e-06	6.235080e-06	2.288239e-08	4.433457e+01	1.504010e+03
1.860000e-06	6.187809e-06	2.297756e-08	4.399844e+01	1.502187e+03
1.870000e-06	6.138255e-06	2.286368e-08	4.364609e+01	1.500290e+03
1.880000e-06	6.086379e-06	2.281512e-08	4.327723e+01	1.498113e+03
1.890000e-06	6.031798e-06	2.280966e-08	4.288913e+01	1.495491e+03
1.900000e-06	5.974848e-06	2.267980e-08	4.248418e+01	1.492356e+03
1.910000e-06	5.915797e-06	2.275589e-08	4.206430e+01	1.488761e+03
1.920000e-06	5.854577e-06	2.266678e-08	4.162900e+01	1.484864e+03
1.930000e-06	5.791184e-06	2.261173e-08	4.117824e+01	1.480878e+03
1.940000e-06	5.725628e-06	2.255108e-08	4.071211e+01	1.476999e+03
1.950000e-06	5.658013e-06	2.245706e-08	4.023133e+01	1.473345e+03
1.960000e-06	5.588114e-06	2.247650e-08	3.973431e+01	1.469911e+03
1.970000e-06	5.515966e-06	2.234356e-08	3.922130e+01	1.466569e+03
1.980000e-06	5.441874e-06	2.232210e-08	3.869447e+01	1.463106e+03
1.990000e-06	5.365723e-06	2.225243e-08	3.815300e+01	1.459289e+03
2.000000e-06	5.287418e-06	2.215463e-08	3.759621e+01	1.454941e+03
2.010000e-06	5.207055e-06	2.210491e-08	3.702479e+01	1.449999e+03
2.020000e-06	5.124910e-06	2.200591e-08	3.644070e+01	1.444539e+03
2.030000e-06	5.041069e-06	2.198554e-08	3.584455e+01	1.438753e+03
2.040000e-06	4.955393e-06	2.189122e-08	3.523535e+01	1.432891e+03
2.050000e-06	4.867832e-06	2.181017e-08	3.461274e+01	1.427183e+03
2.060000e-06	4.778597e-06	2.171459e-08	3.397824e+01	1.421760e+03
2.070000e-06	4.687909e-06	2.162681e-08	3.333340e+01	1.416611e+03
2.080000e-06	4.595638e-06	2.154376e-08	3.267731e+01	1.411576e+03
2.090000e-06	4.501620e-06	2.143050e-08	3.200879e+01	1.406392e+03
2.100000e-06	4.405906e-06	2.134996e-08	3.132822e+01	1.400773e+03
2.110000e-06	4.308753e-06	2.124989e-08	3.063741e+01	1.394493e+03
2.120000e-06	4.210261e-06	2.115715e-08	2.993708e+01	1.387466e+03
2.130000e-06	4.110311e-06	2.104215e-08	2.922639e+01	1.379768e+03
2.140000e-06	4.008738e-06	2.093526e-08	2.850415e+01	1.371621e+03
2.150000e-06	3.905553e-06	2.082542e-08	2.777045e+01	1.363324e+03
2.160000e-06	3.800934e-06	2.071537e-08	2.702656e+01	1.355157e+03
2.170000e-06	3.695036e-06	2.059926e-08	2.627357e+01	1.347290e+03
2.180000e-06	3.587946e-06	2.046853e-08	2.551211e+01	1.339720e+03
2.190000e-06	3.479632e-06	2.033757e-08	2.474194e+01	1.332260e+03
2.200000e-06	3.370067e-06	2.019982e-08	2.396288e+01	1.324593e+03
2.210000e-06	3.259129e-06	2.006896e-08	2.317405e+01	1.316357e+03
2.220000e-06	3.146835e-06	1.993374e-08	2.237558e+01	1.307258e+03
2.230000e-06	3.033312e-06	1.979611e-08	2.156838e+01	1.297160e+03
2.240000e-06	2.918644e-06	1.964255e-08	2.075303e+01	1.286132e+03
2.250000e-06	2.802893e-06	1.947999e-08	1.992998e+01	1.274423e+03
2.260000e-06	2.686004e-06	1.930957e-08	1.909885e+01	1.262391e+03
2.270000e-06	2.567904e-06	1.914017e-08	1.825909e+01	1.250378e+03
2.280000e-06	2.448636e-06	1.896420e-08	1.741104e+01	1.238599e+03
2.290000e-06	2.328462e-06	1.877744e-08	1.655654e+01	1.227054e+03
2.300000e-06	2.207594e-06	1.858285e-08	1.569711e+01	1.215507e+03
2.310000e-06	2.086032e-06	1.837959e-08	1.483274e+01	1.203547e+03
2.320000e-06	1.963800e-06	1.816987e-08	1.396361e+01	1.190693e+03
2.330000e-06	1.840940e-06	1.794858e-08	1.309001e+01	1.176541e+03
2.340000e-06	1.717455e-06	1.771933e-08	1.221197e+01	1.160883e+03
2.350000e-06	1.593433e-06	1.747957e-08	1.133011e+01	1.143777e+03
2.360000e-06	1.468978e-06	1.722798e-08	1.044518e+01	1.125522e+03
2.370000e-06	1.344097e-06	1.696034e-08	9.557208e+00	1.106560e+03
2.380000e-06	1.218764e-06	1.667885e-08	8.666027e+00	1.087319e+03
2.390000e-06	1.092939e-06	1.638313e-08	7.771348e+00	1.068036e+03
2.400000e-06	9.666010e-07	1.606994e-08	6.873021e+00	1.048638e+03
2.410000e-06	8.398085e-07	1.574122e-08	5.971462e+00	1.028700e+03
2.420000e-06	7.126473e-07	1.539217e-08	5.067282e+00	1.007511e+03
2.430000e-06	5.852159e-07	1.501831e-08	4.161180e+00	9.842445e+02
2.440000e-06	4.575557e-07	1.461622e-08	3.253452e+00	9.581630e+02
2.450000e-06	3.297055e-07	1.418422e-08	2.344373e+00	9.288191e+02
2.460000e-06	2.017575e-07	1.372173e-08	1.434598e+00	8.961643e+02
2.470000e-06	7.375069e-08	1.322109e-08	5.244046e-01	8.605244e+02
2.480000e-06	-5.431932e-08	1.267452e-08	-3.862378e-01	8.224231e+02
2.490000e-06	-1.824008e-07	1.207428e-08	-1.296962e+00	7.822843e+02
2.500000e-06	-3.104215e-07	1.141480e-08	-2.207254e+00	7.400844e+02
2.510000e-06	-4.384220e-07	1.068966e-08	-3.117402e+00	6.950518e+02
2.520000e-06	-5.663641e-07	9.885335e-09	-4.027135e+00	6.455123e+02
2.530000e-06	-6.941312e-07	8.981279e-09	-4.935623e+00	5.889553e+02
2.540000e-06	-8.216822e-07	7.951412e-09	-5.842575e+00	5.223455e+02
2.550000e-06	-9.488203e-07	6.765948e-09	-6.746592e+00	4.426465e+02
2.560000e-06	-1.075453e-06	5.387501e-09	-7.647011e+00	3.474634e+02
2.570000e-06	-1.201494e-06	3.776561e-09	-8.543228e+00	2.356745e+02
2.580000e-06	-1.326888e-06	1.903102e-09	-9.434841e+00	1.079081e+02
2.590000e-06	-1.451800e-06	-2.358328e-10	-1.032303e+01	-3.325352e+01
2.600000e-06	-1.576277e-06	-2.587869e-09	-1.120813e+01	-1.834107e+02
2.610000e-06	-1.700246e-06	-5.037987e-09	-1.208961e+01	-3.368187e+02
2.620000e-06	-1.823556e-06	-7.439428e-09	-1.296640e+01	-4.871200e+02
2.630000e-06	-1.946140e-06	-9.649652e-09	-1.383804e+01	-6.282006e+02
2.640000e-06	-2.067946e-06	-1.157431e-08	-1.470414e+01	-7.550093e+02
2.650000e-06	-2.188956e-06	-1.318309e-08	-1.556458e+01	-8.641842e+02
2.660000e-06	-2.309301e-06	-1.449435e-08	-1.642030e+01	-9.543724e+02
2.670000e-06	-2.428958e-06	-1.555339e-08	-1.727112e+01	-1.026198e+03
2.680000e-06	-2.547568e-06	-1.641077e-08	-1.811450e+01	-1.081904e+03
2.690000e-06	-2.664918e-06	-1.711153e-08	-1.894891e+01	-1.124763e+03
2.700000e-06	-2.781176e-06	-1.768886e-08	-1.977557e+01	-1.158391e+03
2.710000e-06	-2.896366e-06	-1.816827e-08	-2.059463e+01	-1.186113e+03
2.720000e-06	-3.010379e-06	-1.857302e-08	-2.140531e+01	-1.210492e+03
2.730000e-06	-3.123002e-06	-1.892180e-08	-2.220612e+01	-1.233108e+03
2.740000e-06	-3.234264e-06	-1.922682e-08	-2.299725e+01	-1.254586e+03
2.750000e-06	-3.344362e-06	-1.949730e-08	-2.378010e+01	-1.274823e+03
2.760000e-06	-3.453312e-06	-1.974178e-08	-2.455479e+01	-1.293338e+03
2.770000e-06	-3.561252e-06	-1.996670e-08	-2.532230e+01	-1.309630e+03
2.780000e-06	-3.668116e-06	-2.017189e-08	-2.608215e+01	-1.323450e+03
2.790000e-06	-3.773661e-06	-2.035694e-08	-2.683263e+01	-1.334936e+03
2.800000e-06	-3.877927e-06	-2.052556e-08	-2.757402e+01	-1.344595e+03
2.810000e-06	-3.980749e-06	-2.068256e-08	-2.830513e+01	-1.353157e+03
2.820000e-06	-4.081930e-06	-2.083133e-08	-2.902459e+01	-1.361369e+03
2.830000e-06	-4.181684e-06	-2.097309e-08	-2.973388e+01	-1.369792e+03
2.840000e-06	-4.280047e-06	-2.110710e-08	-3.043330e+01	-1.378668e+03
2.850000e-06	-4.377003e-06	-2.123345e-08	-3.112270e+01	-1.387895e+03
2.860000e-06	-4.472475e-06	-2.135256e-08	-3.180156e+01	-1.397102e+03
2.870000e-06	-4.566245e-06	-2.146420e-08	-3.246831e+01	-1.405796e+03
2.880000e-06	-4.658408e-06	-2.156844e-08	-3.312363e+01	-1.413537e+03
2.890000e-06	-4.748988e-06	-2.166511e-08	-3.376770e+01	-1.420084e+03
2.900000e-06	-4.837860e-06	-2.175355e-08	-3.439963e+01	-1.425462e+03
2.910000e-06	-4.924876e-06	-2.183686e-08	-3.501836e+01	-1.429957e+03
2.920000e-06	-5.009961e-06	-2.191795e-08	-3.562335e+01	-1.434013e+03
2.930000e-06	-5.093270e-06	-2.199645e-08	-3.621572e+01	-1.438103e+03
2.940000e-06	-5.174840e-06	-2.207331e-08	-3.679572e+01	-1.442584e+03
