# Temperatura_=_66.21
# Concentracion g/m^3_=_41000.0
# C_Vs_to_Am_M_A/Vsm_=_65563218390.804596
# pendiente_HvsI_1/m_=_3716.3
# ordenada_HvsI_A/m_=_1297.0
# frecuencia_Hz_=_302004.3847091569

Tiempo_(s)	Campo_(V.s)	Magnetizacion_(V.s)	Campo_(kA/m)	Magnetizacion_(A/m)
0.000000e+00	-6.723765e-06	-2.124746e-08	-4.746679e+01	-1.392323e+03
1.000000e-08	-6.720321e-06	-2.124497e-08	-4.744248e+01	-1.392404e+03
2.000000e-08	-6.714730e-06	-2.123822e-08	-4.740301e+01	-1.392007e+03
3.000000e-08	-6.707043e-06	-2.123112e-08	-4.734874e+01	-1.391135e+03
4.000000e-08	-6.697023e-06	-2.122093e-08	-4.727801e+01	-1.389910e+03
5.000000e-08	-6.684524e-06	-2.120771e-08	-4.718977e+01	-1.388532e+03
6.000000e-08	-6.669639e-06	-2.118526e-08	-4.708468e+01	-1.387220e+03
7.000000e-08	-6.652420e-06	-2.115760e-08	-4.696313e+01	-1.386143e+03
8.000000e-08	-6.633019e-06	-2.118793e-08	-4.682616e+01	-1.385364e+03
9.000000e-08	-6.611270e-06	-2.123116e-08	-4.667263e+01	-1.384832e+03
1.000000e-07	-6.586721e-06	-2.117432e-08	-4.649932e+01	-1.384389e+03
1.100000e-07	-6.559506e-06	-2.112008e-08	-4.630719e+01	-1.383831e+03
1.200000e-07	-6.530100e-06	-2.110759e-08	-4.609960e+01	-1.382968e+03
1.300000e-07	-6.498800e-06	-2.100835e-08	-4.587864e+01	-1.381687e+03
1.400000e-07	-6.465680e-06	-2.095925e-08	-4.564482e+01	-1.379986e+03
1.500000e-07	-6.430594e-06	-2.109712e-08	-4.539713e+01	-1.377973e+03
1.600000e-07	-6.393468e-06	-2.097968e-08	-4.513504e+01	-1.375831e+03
1.700000e-07	-6.354341e-06	-2.092892e-08	-4.485882e+01	-1.373758e+03
1.800000e-07	-6.312871e-06	-2.099983e-08	-4.456606e+01	-1.371898e+03
1.900000e-07	-6.268881e-06	-2.086034e-08	-4.425551e+01	-1.370294e+03
2.000000e-07	-6.222665e-06	-2.090778e-08	-4.392925e+01	-1.368869e+03
2.100000e-07	-6.174034e-06	-2.089999e-08	-4.358593e+01	-1.367448e+03
2.200000e-07	-6.122741e-06	-2.079873e-08	-4.322383e+01	-1.365808e+03
2.300000e-07	-6.068958e-06	-2.078279e-08	-4.284414e+01	-1.363749e+03
2.400000e-07	-6.012841e-06	-2.072920e-08	-4.244798e+01	-1.361155e+03
2.500000e-07	-5.954407e-06	-2.069833e-08	-4.203546e+01	-1.358031e+03
2.600000e-07	-5.893754e-06	-2.066116e-08	-4.160729e+01	-1.354503e+03
2.700000e-07	-5.831052e-06	-2.060671e-08	-4.116463e+01	-1.350781e+03
2.800000e-07	-5.766217e-06	-2.054590e-08	-4.070693e+01	-1.347094e+03
2.900000e-07	-5.699135e-06	-2.047913e-08	-4.023336e+01	-1.343618e+03
3.000000e-07	-5.629930e-06	-2.047020e-08	-3.974480e+01	-1.340420e+03
3.100000e-07	-5.558624e-06	-2.041328e-08	-3.924141e+01	-1.337439e+03
3.200000e-07	-5.485142e-06	-2.035383e-08	-3.872266e+01	-1.334500e+03
3.300000e-07	-5.409472e-06	-2.028050e-08	-3.818847e+01	-1.331370e+03
3.400000e-07	-5.331656e-06	-2.020765e-08	-3.763912e+01	-1.327828e+03
3.500000e-07	-5.251696e-06	-2.016529e-08	-3.707464e+01	-1.323739e+03
3.600000e-07	-5.169738e-06	-2.009027e-08	-3.649605e+01	-1.319092e+03
3.700000e-07	-5.086093e-06	-2.003935e-08	-3.590555e+01	-1.314008e+03
3.800000e-07	-5.000834e-06	-1.996772e-08	-3.530366e+01	-1.308699e+03
3.900000e-07	-4.913969e-06	-1.988167e-08	-3.469044e+01	-1.303405e+03
4.000000e-07	-4.825449e-06	-1.980079e-08	-3.406553e+01	-1.298313e+03
4.100000e-07	-4.735089e-06	-1.973643e-08	-3.342762e+01	-1.293499e+03
4.200000e-07	-4.643059e-06	-1.966787e-08	-3.277793e+01	-1.288895e+03
4.300000e-07	-4.549507e-06	-1.957409e-08	-3.211750e+01	-1.284312e+03
4.400000e-07	-4.454406e-06	-1.948952e-08	-3.144612e+01	-1.279494e+03
4.500000e-07	-4.357609e-06	-1.939764e-08	-3.076278e+01	-1.274195e+03
4.600000e-07	-4.259041e-06	-1.930480e-08	-3.006693e+01	-1.268258e+03
4.700000e-07	-4.159030e-06	-1.921429e-08	-2.936090e+01	-1.261666e+03
4.800000e-07	-4.057654e-06	-1.912500e-08	-2.864523e+01	-1.254548e+03
4.900000e-07	-3.954817e-06	-1.902317e-08	-2.791925e+01	-1.247136e+03
5.000000e-07	-3.850578e-06	-1.891187e-08	-2.718337e+01	-1.239698e+03
5.100000e-07	-3.744809e-06	-1.880327e-08	-2.643669e+01	-1.232441e+03
5.200000e-07	-3.637515e-06	-1.868834e-08	-2.567924e+01	-1.225448e+03
5.300000e-07	-3.528964e-06	-1.856845e-08	-2.491291e+01	-1.218634e+03
5.400000e-07	-3.419237e-06	-1.844611e-08	-2.413829e+01	-1.211773e+03
5.500000e-07	-3.308313e-06	-1.832551e-08	-2.335522e+01	-1.204554e+03
5.600000e-07	-3.196151e-06	-1.819981e-08	-2.256340e+01	-1.196680e+03
5.700000e-07	-3.082575e-06	-1.806912e-08	-2.176161e+01	-1.187953e+03
5.800000e-07	-2.967497e-06	-1.793151e-08	-2.094921e+01	-1.178343e+03
5.900000e-07	-2.851156e-06	-1.778734e-08	-2.012790e+01	-1.167995e+03
6.000000e-07	-2.733829e-06	-1.763480e-08	-1.929962e+01	-1.157186e+03
6.100000e-07	-2.615567e-06	-1.747707e-08	-1.846474e+01	-1.146231e+03
6.200000e-07	-2.496380e-06	-1.731477e-08	-1.762334e+01	-1.135379e+03
6.300000e-07	-2.376323e-06	-1.714504e-08	-1.677579e+01	-1.124719e+03
6.400000e-07	-2.255383e-06	-1.696845e-08	-1.592200e+01	-1.114134e+03
6.500000e-07	-2.133511e-06	-1.678221e-08	-1.506164e+01	-1.103321e+03
6.600000e-07	-2.010780e-06	-1.658719e-08	-1.419521e+01	-1.091867e+03
6.700000e-07	-1.887311e-06	-1.638488e-08	-1.332358e+01	-1.079371e+03
6.800000e-07	-1.763195e-06	-1.617590e-08	-1.244737e+01	-1.065564e+03
6.900000e-07	-1.638535e-06	-1.595690e-08	-1.156733e+01	-1.050391e+03
7.000000e-07	-1.513362e-06	-1.572747e-08	-1.068366e+01	-1.034032e+03
7.100000e-07	-1.387655e-06	-1.548665e-08	-9.796226e+00	-1.016842e+03
7.200000e-07	-1.261528e-06	-1.523411e-08	-8.905826e+00	-9.992245e+02
7.300000e-07	-1.135077e-06	-1.496783e-08	-8.013136e+00	-9.814822e+02
7.400000e-07	-1.008280e-06	-1.468514e-08	-7.118011e+00	-9.636785e+02
7.500000e-07	-8.811886e-07	-1.438491e-08	-6.220799e+00	-9.455652e+02
7.600000e-07	-7.538314e-07	-1.406339e-08	-5.321714e+00	-9.266008e+02
7.700000e-07	-6.261818e-07	-1.372304e-08	-4.420565e+00	-9.060620e+02
7.800000e-07	-4.982512e-07	-1.336538e-08	-3.517432e+00	-8.832214e+02
7.900000e-07	-3.701278e-07	-1.298244e-08	-2.612938e+00	-8.575376e+02
8.000000e-07	-2.418469e-07	-1.256818e-08	-1.707331e+00	-8.287961e+02
8.100000e-07	-1.134331e-07	-1.211915e-08	-8.007873e-01	-7.971449e+02
8.200000e-07	1.503259e-08	-1.163073e-08	1.061234e-01	-7.629968e+02
8.300000e-07	1.435569e-07	-1.109790e-08	1.013448e+00	-7.268049e+02
8.400000e-07	2.720887e-07	-1.051475e-08	1.920825e+00	-6.887619e+02
8.500000e-07	4.004837e-07	-9.872561e-09	2.827237e+00	-6.485000e+02
8.600000e-07	5.287122e-07	-9.159204e-09	3.732473e+00	-6.048837e+02
8.700000e-07	6.568447e-07	-8.357988e-09	4.637031e+00	-5.559748e+02
8.800000e-07	7.847713e-07	-7.452800e-09	5.540137e+00	-4.992142e+02
8.900000e-07	9.124220e-07	-6.420062e-09	6.441294e+00	-4.318126e+02
9.000000e-07	1.039792e-06	-5.227898e-09	7.340467e+00	-3.512933e+02
9.100000e-07	1.166761e-06	-3.839727e-09	8.236813e+00	-2.560777e+02
9.200000e-07	1.293310e-06	-2.221890e-09	9.130196e+00	-1.459913e+02
9.300000e-07	1.419461e-06	-3.611378e-10	1.002076e+01	-2.256672e+01
9.400000e-07	1.545188e-06	1.714978e-09	1.090834e+01	1.109379e+02
9.500000e-07	1.670416e-06	3.919102e-09	1.179240e+01	2.498317e+02
9.600000e-07	1.795094e-06	6.122810e-09	1.267257e+01	3.885547e+02
9.700000e-07	1.919220e-06	8.191052e-09	1.354884e+01	5.214127e+02
9.800000e-07	2.042670e-06	1.002461e-08	1.442034e+01	6.433452e+02
9.900000e-07	2.165217e-06	1.157997e-08	1.528547e+01	7.505803e+02
1.000000e-06	2.286806e-06	1.286033e-08	1.614383e+01	8.410545e+02
1.010000e-06	2.407536e-06	1.390129e-08	1.699613e+01	9.145285e+02
1.020000e-06	2.527365e-06	1.474639e-08	1.784207e+01	9.723919e+02
1.030000e-06	2.646200e-06	1.543591e-08	1.868099e+01	1.017217e+03
1.040000e-06	2.764076e-06	1.600391e-08	1.951315e+01	1.052169e+03
1.050000e-06	2.880983e-06	1.647630e-08	2.033846e+01	1.080401e+03
1.060000e-06	2.996817e-06	1.687657e-08	2.115619e+01	1.104560e+03
1.070000e-06	3.111374e-06	1.722263e-08	2.196491e+01	1.126477e+03
1.080000e-06	3.224609e-06	1.752625e-08	2.276430e+01	1.147097e+03
1.090000e-06	3.336666e-06	1.779259e-08	2.355538e+01	1.166606e+03
1.100000e-06	3.447518e-06	1.803097e-08	2.433795e+01	1.184701e+03
1.110000e-06	3.557132e-06	1.824734e-08	2.511177e+01	1.200922e+03
1.120000e-06	3.665660e-06	1.844338e-08	2.587793e+01	1.214929e+03
1.130000e-06	3.773043e-06	1.862420e-08	2.663601e+01	1.226686e+03
1.140000e-06	3.878978e-06	1.879251e-08	2.738386e+01	1.236508e+03
1.150000e-06	3.983438e-06	1.894895e-08	2.812130e+01	1.244972e+03
1.160000e-06	4.086483e-06	1.909368e-08	2.884876e+01	1.252758e+03
1.170000e-06	4.188075e-06	1.922663e-08	2.956595e+01	1.260460e+03
1.180000e-06	4.288301e-06	1.935100e-08	3.027350e+01	1.268434e+03
1.190000e-06	4.387019e-06	1.946836e-08	3.097040e+01	1.276737e+03
1.200000e-06	4.484022e-06	1.957975e-08	3.165520e+01	1.285148e+03
1.210000e-06	4.579365e-06	1.968239e-08	3.232828e+01	1.293278e+03
1.220000e-06	4.673086e-06	1.977680e-08	3.298991e+01	1.300717e+03
1.230000e-06	4.765298e-06	1.986723e-08	3.364089e+01	1.307177e+03
1.240000e-06	4.855885e-06	1.995190e-08	3.428039e+01	1.312584e+03
1.250000e-06	4.944622e-06	2.003316e-08	3.490683e+01	1.317102e+03
1.260000e-06	5.031507e-06	2.011275e-08	3.552020e+01	1.321070e+03
1.270000e-06	5.116612e-06	2.019092e-08	3.612101e+01	1.324903e+03
1.280000e-06	5.199990e-06	2.026512e-08	3.670962e+01	1.328963e+03
1.290000e-06	5.281448e-06	2.033522e-08	3.728468e+01	1.333451e+03
1.300000e-06	5.360883e-06	2.040110e-08	3.784545e+01	1.338364e+03
1.310000e-06	5.438390e-06	2.046328e-08	3.839262e+01	1.343504e+03
1.320000e-06	5.513907e-06	2.052103e-08	3.892573e+01	1.348553e+03
1.330000e-06	5.587222e-06	2.057565e-08	3.944331e+01	1.353176e+03
1.340000e-06	5.658394e-06	2.062826e-08	3.994575e+01	1.357130e+03
1.350000e-06	5.727625e-06	2.067914e-08	4.043449e+01	1.360333e+03
1.360000e-06	5.794844e-06	2.073050e-08	4.090903e+01	1.362886e+03
1.370000e-06	5.859869e-06	2.077852e-08	4.136807e+01	1.365032e+03
1.380000e-06	5.922796e-06	2.082184e-08	4.181231e+01	1.367080e+03
1.390000e-06	5.983811e-06	2.086310e-08	4.224305e+01	1.369307e+03
1.400000e-06	6.042818e-06	2.090269e-08	4.265961e+01	1.371872e+03
1.410000e-06	6.099676e-06	2.093995e-08	4.306100e+01	1.374776e+03
1.420000e-06	6.154376e-06	2.097356e-08	4.344716e+01	1.377865e+03
1.430000e-06	6.206771e-06	2.100457e-08	4.381704e+01	1.380888e+03
1.440000e-06	6.256547e-06	2.103498e-08	4.416844e+01	1.383578e+03
1.450000e-06	6.303825e-06	2.106364e-08	4.450220e+01	1.385735e+03
1.460000e-06	6.348975e-06	2.109058e-08	4.482094e+01	1.387291e+03
1.470000e-06	6.392006e-06	2.111596e-08	4.512472e+01	1.388328e+03
1.480000e-06	6.432674e-06	2.113947e-08	4.541182e+01	1.389047e+03
1.490000e-06	6.470981e-06	2.115988e-08	4.568225e+01	1.389706e+03
1.500000e-06	6.507165e-06	2.117909e-08	4.593769e+01	1.390536e+03
1.510000e-06	6.541079e-06	2.119820e-08	4.617711e+01	1.391675e+03
1.520000e-06	6.572581e-06	2.121563e-08	4.639950e+01	1.393125e+03
1.530000e-06	6.601868e-06	2.123197e-08	4.660625e+01	1.394755e+03
1.540000e-06	6.628873e-06	2.124581e-08	4.679690e+01	1.396350e+03
1.550000e-06	6.653362e-06	2.125628e-08	4.696978e+01	1.397676e+03
1.560000e-06	6.675437e-06	2.126585e-08	4.712562e+01	1.398560e+03
1.570000e-06	6.695260e-06	2.127554e-08	4.726556e+01	1.398941e+03
1.580000e-06	6.712661e-06	2.128586e-08	4.738841e+01	1.398887e+03
1.590000e-06	6.727545e-06	2.129541e-08	4.749348e+01	1.398577e+03
1.600000e-06	6.739885e-06	2.130351e-08	4.758059e+01	1.398236e+03
1.610000e-06	6.749543e-06	2.130987e-08	4.764877e+01	1.398072e+03
1.620000e-06	6.756641e-06	2.131291e-08	4.769888e+01	1.398204e+03
1.630000e-06	6.761455e-06	2.131418e-08	4.773287e+01	1.398629e+03
1.640000e-06	6.763943e-06	2.131478e-08	4.775043e+01	1.399223e+03
1.650000e-06	6.763988e-06	2.131570e-08	4.775075e+01	1.399780e+03
1.660000e-06	6.761785e-06	2.130757e-08	4.773519e+01	1.400077e+03
1.670000e-06	6.757445e-06	2.130383e-08	4.770456e+01	1.399946e+03
1.680000e-06	6.750787e-06	2.130148e-08	4.765755e+01	1.399322e+03
1.690000e-06	6.741887e-06	2.129477e-08	4.759473e+01	1.398267e+03
1.700000e-06	6.730869e-06	2.128902e-08	4.751694e+01	1.396945e+03
1.710000e-06	6.717534e-06	2.128844e-08	4.742280e+01	1.395574e+03
1.720000e-06	6.701864e-06	2.129897e-08	4.731218e+01	1.394357e+03
1.730000e-06	6.684089e-06	2.122825e-08	4.718669e+01	1.393419e+03
1.740000e-06	6.664001e-06	2.114085e-08	4.704489e+01	1.392770e+03
1.750000e-06	6.640853e-06	2.116778e-08	4.688147e+01	1.392305e+03
1.760000e-06	6.614647e-06	2.117105e-08	4.669647e+01	1.391837e+03
1.770000e-06	6.586030e-06	2.116530e-08	4.649444e+01	1.391159e+03
1.780000e-06	6.555338e-06	2.127770e-08	4.627777e+01	1.390112e+03
1.790000e-06	6.523118e-06	2.115962e-08	4.605032e+01	1.388631e+03
1.800000e-06	6.489333e-06	2.106821e-08	4.581181e+01	1.386767e+03
1.810000e-06	6.453234e-06	2.118789e-08	4.555696e+01	1.384671e+03
1.820000e-06	6.414811e-06	2.106133e-08	4.528572e+01	1.382541e+03
1.830000e-06	6.374176e-06	2.112273e-08	4.499885e+01	1.380556e+03
1.840000e-06	6.331359e-06	2.111696e-08	4.469658e+01	1.378818e+03
1.850000e-06	6.286448e-06	2.090905e-08	4.437953e+01	1.377315e+03
1.860000e-06	6.239147e-06	2.101003e-08	4.404560e+01	1.375920e+03
1.870000e-06	6.189527e-06	2.095127e-08	4.369531e+01	1.374427e+03
1.880000e-06	6.137576e-06	2.093525e-08	4.332856e+01	1.372616e+03
1.890000e-06	6.082943e-06	2.093290e-08	4.294287e+01	1.370318e+03
1.900000e-06	6.025903e-06	2.076906e-08	4.254020e+01	1.367471e+03
1.910000e-06	5.966708e-06	2.082351e-08	4.212231e+01	1.364139e+03
1.920000e-06	5.905339e-06	2.076089e-08	4.168907e+01	1.360493e+03
1.930000e-06	5.841754e-06	2.072762e-08	4.124019e+01	1.356763e+03
1.940000e-06	5.775949e-06	2.067616e-08	4.077563e+01	1.353159e+03
1.950000e-06	5.708099e-06	2.056626e-08	4.029664e+01	1.349813e+03
1.960000e-06	5.638021e-06	2.059087e-08	3.980192e+01	1.346734e+03
1.970000e-06	5.565674e-06	2.047161e-08	3.929118e+01	1.343801e+03
1.980000e-06	5.491233e-06	2.045315e-08	3.876566e+01	1.340805e+03
1.990000e-06	5.414628e-06	2.041250e-08	3.822486e+01	1.337509e+03
2.000000e-06	5.335884e-06	2.033261e-08	3.766897e+01	1.333725e+03
2.010000e-06	5.255166e-06	2.027811e-08	3.709914e+01	1.329371e+03
2.020000e-06	5.172688e-06	2.015880e-08	3.651688e+01	1.324501e+03
2.030000e-06	5.088481e-06	2.014060e-08	3.592242e+01	1.319285e+03
2.040000e-06	5.002369e-06	2.006440e-08	3.531450e+01	1.313956e+03
2.050000e-06	4.914385e-06	1.999071e-08	3.469337e+01	1.308740e+03
2.060000e-06	4.824780e-06	1.990911e-08	3.406080e+01	1.303778e+03
2.070000e-06	4.733659e-06	1.983872e-08	3.341753e+01	1.299079e+03
2.080000e-06	4.640926e-06	1.977057e-08	3.276287e+01	1.294516e+03
2.090000e-06	4.546448e-06	1.966292e-08	3.209590e+01	1.289859e+03
2.100000e-06	4.450280e-06	1.958769e-08	3.141700e+01	1.284846e+03
2.110000e-06	4.352627e-06	1.949205e-08	3.072761e+01	1.279265e+03
2.120000e-06	4.253574e-06	1.940942e-08	3.002834e+01	1.273019e+03
2.130000e-06	4.153124e-06	1.930946e-08	2.931921e+01	1.266161e+03
2.140000e-06	4.051037e-06	1.921498e-08	2.859852e+01	1.258875e+03
2.150000e-06	3.947229e-06	1.911224e-08	2.786569e+01	1.251421e+03
2.160000e-06	3.842002e-06	1.901202e-08	2.712283e+01	1.244049e+03
2.170000e-06	3.735546e-06	1.891388e-08	2.637129e+01	1.236916e+03
2.180000e-06	3.627939e-06	1.879971e-08	2.561163e+01	1.230028e+03
2.190000e-06	3.519073e-06	1.868416e-08	2.484309e+01	1.223229e+03
2.200000e-06	3.408820e-06	1.855718e-08	2.406475e+01	1.216244e+03
2.210000e-06	3.297119e-06	1.843521e-08	2.327619e+01	1.208755e+03
2.220000e-06	3.184128e-06	1.830206e-08	2.247853e+01	1.200502e+03
2.230000e-06	3.069993e-06	1.817030e-08	2.167279e+01	1.191360e+03
2.240000e-06	2.954690e-06	1.803180e-08	2.085880e+01	1.181382e+03
2.250000e-06	2.838173e-06	1.788800e-08	2.003624e+01	1.170782e+03
2.260000e-06	2.720376e-06	1.773406e-08	1.920464e+01	1.159869e+03
2.270000e-06	2.601401e-06	1.757930e-08	1.836473e+01	1.148941e+03
2.280000e-06	2.481375e-06	1.742101e-08	1.751740e+01	1.138181e+03
2.290000e-06	2.360515e-06	1.724894e-08	1.666418e+01	1.127585e+03
2.300000e-06	2.238929e-06	1.706783e-08	1.580585e+01	1.116942e+03
2.310000e-06	2.116595e-06	1.688001e-08	1.494222e+01	1.105887e+03
2.320000e-06	1.993603e-06	1.669090e-08	1.407395e+01	1.093996e+03
2.330000e-06	1.870017e-06	1.648968e-08	1.320149e+01	1.080915e+03
2.340000e-06	1.745808e-06	1.627669e-08	1.232463e+01	1.066467e+03
2.350000e-06	1.620978e-06	1.605199e-08	1.144338e+01	1.050711e+03
2.360000e-06	1.495568e-06	1.581909e-08	1.055805e+01	1.033917e+03
2.370000e-06	1.369623e-06	1.557522e-08	9.668933e+00	1.016482e+03
2.380000e-06	1.243188e-06	1.531759e-08	8.776354e+00	9.987828e+02
2.390000e-06	1.116257e-06	1.504379e-08	7.880280e+00	9.810241e+02
2.400000e-06	9.888732e-07	1.475204e-08	6.981005e+00	9.631287e+02
2.410000e-06	8.611452e-07	1.444480e-08	6.079302e+00	9.447040e+02
2.420000e-06	7.331304e-07	1.412139e-08	5.175575e+00	9.251052e+02
2.430000e-06	6.048244e-07	1.377875e-08	4.269791e+00	9.035829e+02
2.440000e-06	4.763359e-07	1.340915e-08	3.362720e+00	8.794738e+02
2.450000e-06	3.477426e-07	1.300947e-08	2.454908e+00	8.523761e+02
2.460000e-06	2.189974e-07	1.257907e-08	1.546024e+00	8.222472e+02
2.470000e-06	9.015840e-08	1.211713e-08	6.364782e-01	7.893782e+02
2.480000e-06	-3.869674e-08	1.161782e-08	-2.731818e-01	7.542350e+02
2.490000e-06	-1.675183e-07	1.106549e-08	-1.182604e+00	7.171892e+02
2.500000e-06	-2.963222e-07	1.045468e-08	-2.091903e+00	6.782069e+02
2.510000e-06	-4.250671e-07	9.782046e-09	-3.000785e+00	6.365809e+02
2.520000e-06	-5.536898e-07	9.035835e-09	-3.908804e+00	5.907947e+02
2.530000e-06	-6.822199e-07	8.200610e-09	-4.816170e+00	5.385856e+02
2.540000e-06	-8.105655e-07	7.251459e-09	-5.722232e+00	4.772280e+02
2.550000e-06	-9.386427e-07	6.162433e-09	-6.626400e+00	4.040047e+02
2.560000e-06	-1.066330e-06	4.900732e-09	-7.527814e+00	3.167849e+02
2.570000e-06	-1.193550e-06	3.429985e-09	-8.425932e+00	2.145890e+02
2.580000e-06	-1.320304e-06	1.722669e-09	-9.320760e+00	9.801316e+01
2.590000e-06	-1.446480e-06	-2.245344e-10	-1.021151e+01	-3.059215e+01
2.600000e-06	-1.572083e-06	-2.364668e-09	-1.109821e+01	-1.672489e+02
2.610000e-06	-1.697079e-06	-4.593790e-09	-1.198062e+01	-3.067794e+02
2.620000e-06	-1.821357e-06	-6.775479e-09	-1.285797e+01	-4.434645e+02
2.630000e-06	-1.944932e-06	-8.782198e-09	-1.373036e+01	-5.718124e+02
2.640000e-06	-2.067695e-06	-1.053127e-08	-1.459700e+01	-6.872912e+02
2.650000e-06	-2.189616e-06	-1.199847e-08	-1.545772e+01	-7.868875e+02
2.660000e-06	-2.310819e-06	-1.320168e-08	-1.631335e+01	-8.693900e+02
2.670000e-06	-2.431338e-06	-1.417789e-08	-1.716416e+01	-9.353572e+02
2.680000e-06	-2.550945e-06	-1.497013e-08	-1.800854e+01	-9.867948e+02
2.690000e-06	-2.669347e-06	-1.561841e-08	-1.884441e+01	-1.026628e+03
2.700000e-06	-2.786561e-06	-1.615454e-08	-1.967188e+01	-1.058087e+03
2.710000e-06	-2.902718e-06	-1.660448e-08	-2.049190e+01	-1.084142e+03
2.720000e-06	-3.017786e-06	-1.698813e-08	-2.130423e+01	-1.107085e+03
2.730000e-06	-3.131579e-06	-1.731872e-08	-2.210755e+01	-1.128332e+03
2.740000e-06	-3.244009e-06	-1.760606e-08	-2.290126e+01	-1.148448e+03
2.750000e-06	-3.355152e-06	-1.786024e-08	-2.368588e+01	-1.167354e+03
2.760000e-06	-3.465055e-06	-1.808921e-08	-2.446175e+01	-1.184633e+03
2.770000e-06	-3.573805e-06	-1.829714e-08	-2.522947e+01	-1.199850e+03
2.780000e-06	-3.681472e-06	-1.848672e-08	-2.598956e+01	-1.212793e+03
2.790000e-06	-3.787950e-06	-1.866082e-08	-2.674125e+01	-1.223592e+03
2.800000e-06	-3.893169e-06	-1.882220e-08	-2.748404e+01	-1.232699e+03
2.810000e-06	-3.996972e-06	-1.897263e-08	-2.821684e+01	-1.240763e+03
2.820000e-06	-4.099151e-06	-1.911215e-08	-2.893819e+01	-1.248446e+03
2.830000e-06	-4.199773e-06	-1.924148e-08	-2.964853e+01	-1.256246e+03
2.840000e-06	-4.298963e-06	-1.936298e-08	-3.034877e+01	-1.264383e+03
2.850000e-06	-4.396781e-06	-1.947517e-08	-3.103932e+01	-1.272775e+03
2.860000e-06	-4.493175e-06	-1.957957e-08	-3.171982e+01	-1.281107e+03
2.870000e-06	-4.587899e-06	-1.967825e-08	-3.238852e+01	-1.288961e+03
2.880000e-06	-4.680903e-06	-1.977144e-08	-3.304510e+01	-1.295967e+03
2.890000e-06	-4.772273e-06	-1.986098e-08	-3.369013e+01	-1.301931e+03
2.900000e-06	-4.861948e-06	-1.994516e-08	-3.432319e+01	-1.306891e+03
2.910000e-06	-4.949853e-06	-2.002536e-08	-3.494376e+01	-1.311102e+03
2.920000e-06	-5.035820e-06	-2.010312e-08	-3.555065e+01	-1.314954e+03
2.930000e-06	-5.119908e-06	-2.017724e-08	-3.614428e+01	-1.318854e+03
2.940000e-06	-5.202257e-06	-2.024815e-08	-3.672562e+01	-1.323097e+03
