# Temperatura_=_75.59
# Concentracion g/m^3_=_41000.0
# C_Vs_to_Am_M_A/Vsm_=_65563218390.804596
# pendiente_HvsI_1/m_=_3716.3
# ordenada_HvsI_A/m_=_1297.0
# frecuencia_Hz_=_302002.73248253466

Tiempo_(s)	Campo_(V.s)	Magnetizacion_(V.s)	Campo_(kA/m)	Magnetizacion_(A/m)
0.000000e+00	-6.731398e-06	-2.296175e-08	-4.746521e+01	-1.504594e+03
1.000000e-08	-6.727967e-06	-2.296080e-08	-4.744102e+01	-1.504734e+03
2.000000e-08	-6.722320e-06	-2.295045e-08	-4.740120e+01	-1.504307e+03
3.000000e-08	-6.714609e-06	-2.293999e-08	-4.734683e+01	-1.503306e+03
4.000000e-08	-6.704641e-06	-2.292684e-08	-4.727654e+01	-1.501873e+03
5.000000e-08	-6.692208e-06	-2.291076e-08	-4.718887e+01	-1.500249e+03
6.000000e-08	-6.677287e-06	-2.288692e-08	-4.708366e+01	-1.498702e+03
7.000000e-08	-6.659965e-06	-2.285265e-08	-4.696151e+01	-1.497445e+03
8.000000e-08	-6.640484e-06	-2.288161e-08	-4.682415e+01	-1.496572e+03
9.000000e-08	-6.618644e-06	-2.295497e-08	-4.667015e+01	-1.496028e+03
1.000000e-07	-6.594028e-06	-2.289084e-08	-4.649657e+01	-1.495635e+03
1.100000e-07	-6.566743e-06	-2.281336e-08	-4.630418e+01	-1.495144e+03
1.200000e-07	-6.537240e-06	-2.280869e-08	-4.609614e+01	-1.494318e+03
1.300000e-07	-6.505901e-06	-2.270656e-08	-4.587516e+01	-1.493003e+03
1.400000e-07	-6.472824e-06	-2.260862e-08	-4.564192e+01	-1.491178e+03
1.500000e-07	-6.437772e-06	-2.280626e-08	-4.539476e+01	-1.488954e+03
1.600000e-07	-6.400634e-06	-2.272169e-08	-4.513289e+01	-1.486540e+03
1.700000e-07	-6.361452e-06	-2.259430e-08	-4.485661e+01	-1.484169e+03
1.800000e-07	-6.319907e-06	-2.272899e-08	-4.456366e+01	-1.482025e+03
1.900000e-07	-6.275874e-06	-2.254952e-08	-4.425317e+01	-1.480176e+03
2.000000e-07	-6.229621e-06	-2.254384e-08	-4.392702e+01	-1.478554e+03
2.100000e-07	-6.180905e-06	-2.256130e-08	-4.358351e+01	-1.476972e+03
2.200000e-07	-6.129517e-06	-2.242765e-08	-4.322116e+01	-1.475181e+03
2.300000e-07	-6.075693e-06	-2.244672e-08	-4.284163e+01	-1.472949e+03
2.400000e-07	-6.019551e-06	-2.240423e-08	-4.244576e+01	-1.470137e+03
2.500000e-07	-5.961085e-06	-2.235716e-08	-4.203349e+01	-1.466740e+03
2.600000e-07	-5.900400e-06	-2.231862e-08	-4.160558e+01	-1.462892e+03
2.700000e-07	-5.837677e-06	-2.223726e-08	-4.116330e+01	-1.458827e+03
2.800000e-07	-5.772803e-06	-2.217971e-08	-4.070585e+01	-1.454803e+03
2.900000e-07	-5.705662e-06	-2.211427e-08	-4.023243e+01	-1.451021e+03
3.000000e-07	-5.636393e-06	-2.211802e-08	-3.974398e+01	-1.447561e+03
3.100000e-07	-5.565024e-06	-2.205486e-08	-3.924074e+01	-1.444353e+03
3.200000e-07	-5.491481e-06	-2.197440e-08	-3.872217e+01	-1.441197e+03
3.300000e-07	-5.415737e-06	-2.189352e-08	-3.818807e+01	-1.437827e+03
3.400000e-07	-5.337838e-06	-2.180308e-08	-3.763878e+01	-1.433990e+03
3.500000e-07	-5.257835e-06	-2.177609e-08	-3.707465e+01	-1.429529e+03
3.600000e-07	-5.175826e-06	-2.169778e-08	-3.649638e+01	-1.424435e+03
3.700000e-07	-5.092069e-06	-2.163366e-08	-3.590579e+01	-1.418848e+03
3.800000e-07	-5.006669e-06	-2.155604e-08	-3.530360e+01	-1.413019e+03
3.900000e-07	-4.919635e-06	-2.145487e-08	-3.468990e+01	-1.407229e+03
4.000000e-07	-4.830927e-06	-2.136827e-08	-3.406439e+01	-1.401696e+03
4.100000e-07	-4.740474e-06	-2.130143e-08	-3.342658e+01	-1.396508e+03
4.200000e-07	-4.648349e-06	-2.123469e-08	-3.277697e+01	-1.391586e+03
4.300000e-07	-4.554609e-06	-2.113278e-08	-3.211598e+01	-1.386704e+03
4.400000e-07	-4.459343e-06	-2.103550e-08	-3.144423e+01	-1.381559e+03
4.500000e-07	-4.362426e-06	-2.093590e-08	-3.076084e+01	-1.375859e+03
4.600000e-07	-4.263774e-06	-2.083585e-08	-3.006522e+01	-1.369420e+03
4.700000e-07	-4.163594e-06	-2.074260e-08	-2.935882e+01	-1.362222e+03
4.800000e-07	-4.062063e-06	-2.064457e-08	-2.864289e+01	-1.354420e+03
4.900000e-07	-3.959169e-06	-2.053347e-08	-2.791735e+01	-1.346296e+03
5.000000e-07	-3.854770e-06	-2.041134e-08	-2.718120e+01	-1.338171e+03
5.100000e-07	-3.748901e-06	-2.029219e-08	-2.643469e+01	-1.330298e+03
5.200000e-07	-3.641648e-06	-2.016773e-08	-2.567841e+01	-1.322778e+03
5.300000e-07	-3.533092e-06	-2.003921e-08	-2.491295e+01	-1.315515e+03
5.400000e-07	-3.423293e-06	-1.991294e-08	-2.413872e+01	-1.308239e+03
5.500000e-07	-3.312267e-06	-1.978584e-08	-2.335584e+01	-1.300579e+03
5.600000e-07	-3.199999e-06	-1.964877e-08	-2.256420e+01	-1.292177e+03
5.700000e-07	-3.086307e-06	-1.950162e-08	-2.176252e+01	-1.282797e+03
5.800000e-07	-2.971154e-06	-1.934878e-08	-2.095055e+01	-1.272399e+03
5.900000e-07	-2.854764e-06	-1.918964e-08	-2.012984e+01	-1.261162e+03
6.000000e-07	-2.737347e-06	-1.902603e-08	-1.930190e+01	-1.249422e+03
6.100000e-07	-2.619021e-06	-1.886058e-08	-1.846754e+01	-1.237569e+03
6.200000e-07	-2.499744e-06	-1.868945e-08	-1.762648e+01	-1.225915e+03
6.300000e-07	-2.379474e-06	-1.850818e-08	-1.677842e+01	-1.214584e+03
6.400000e-07	-2.258341e-06	-1.831711e-08	-1.592427e+01	-1.203450e+03
6.500000e-07	-2.136449e-06	-1.811951e-08	-1.506478e+01	-1.192158e+03
6.600000e-07	-2.013723e-06	-1.791439e-08	-1.419940e+01	-1.180216e+03
6.700000e-07	-1.890180e-06	-1.770376e-08	-1.332825e+01	-1.167138e+03
6.800000e-07	-1.765995e-06	-1.748687e-08	-1.245259e+01	-1.152591e+03
6.900000e-07	-1.641244e-06	-1.725649e-08	-1.157293e+01	-1.136499e+03
7.000000e-07	-1.515956e-06	-1.701142e-08	-1.068948e+01	-1.119070e+03
7.100000e-07	-1.390219e-06	-1.675306e-08	-9.802873e+00	-1.100730e+03
7.200000e-07	-1.264107e-06	-1.648437e-08	-8.913619e+00	-1.081978e+03
7.300000e-07	-1.137619e-06	-1.620411e-08	-8.021708e+00	-1.063200e+03
7.400000e-07	-1.010736e-06	-1.590980e-08	-7.127017e+00	-1.044507e+03
7.500000e-07	-8.835249e-07	-1.559698e-08	-6.230013e+00	-1.025639e+03
7.600000e-07	-7.559939e-07	-1.526095e-08	-5.330752e+00	-1.005981e+03
7.700000e-07	-6.281199e-07	-1.490226e-08	-4.429072e+00	-9.846932e+02
7.800000e-07	-5.000119e-07	-1.452229e-08	-3.525742e+00	-9.609175e+02
7.900000e-07	-3.717040e-07	-1.411764e-08	-2.621002e+00	-9.340108e+02
8.000000e-07	-2.432317e-07	-1.368330e-08	-1.715103e+00	-9.037166e+02
8.100000e-07	-1.146852e-07	-1.321320e-08	-8.086818e-01	-8.702186e+02
8.200000e-07	1.395025e-08	-1.270102e-08	9.836762e-02	-8.340328e+02
8.300000e-07	1.426393e-07	-1.214086e-08	1.005794e+00	-7.957486e+02
8.400000e-07	2.712970e-07	-1.152611e-08	1.913000e+00	-7.556717e+02
8.500000e-07	3.998813e-07	-1.085006e-08	2.819689e+00	-7.134622e+02
8.600000e-07	5.283296e-07	-1.009843e-08	3.725419e+00	-6.678769e+02
8.700000e-07	6.566491e-07	-9.252930e-09	4.630240e+00	-6.167099e+02
8.800000e-07	7.848026e-07	-8.295275e-09	5.533891e+00	-5.569897e+02
8.900000e-07	9.126464e-07	-7.196109e-09	6.435357e+00	-4.854269e+02
9.000000e-07	1.040125e-06	-5.918702e-09	7.334249e+00	-3.990457e+02
9.100000e-07	1.167201e-06	-4.419419e-09	8.230299e+00	-2.958768e+02
9.200000e-07	1.293870e-06	-2.656343e-09	9.123483e+00	-1.755619e+02
9.300000e-07	1.420128e-06	-6.085886e-10	1.001377e+01	-3.972800e+01
9.400000e-07	1.545950e-06	1.684744e-09	1.090098e+01	1.079723e+02
9.500000e-07	1.671312e-06	4.109987e-09	1.178495e+01	2.621873e+02
9.600000e-07	1.796123e-06	6.545803e-09	1.266503e+01	4.165153e+02
9.700000e-07	1.920363e-06	8.859252e-09	1.354108e+01	5.643622e+02
9.800000e-07	2.043968e-06	1.091081e-08	1.441266e+01	6.998442e+02
9.900000e-07	2.166756e-06	1.263214e-08	1.527848e+01	8.185632e+02
1.000000e-06	2.288598e-06	1.403193e-08	1.613763e+01	9.181103e+02
1.010000e-06	2.409489e-06	1.515623e-08	1.699006e+01	9.982106e+02
1.020000e-06	2.529418e-06	1.605788e-08	1.783572e+01	1.060500e+03
1.030000e-06	2.648415e-06	1.678632e-08	1.867481e+01	1.108006e+03
1.040000e-06	2.766483e-06	1.738163e-08	1.950734e+01	1.144449e+03
1.050000e-06	2.883544e-06	1.787658e-08	2.033278e+01	1.173532e+03
1.060000e-06	2.999500e-06	1.829547e-08	2.115042e+01	1.198346e+03
1.070000e-06	3.114165e-06	1.865696e-08	2.195896e+01	1.221014e+03
1.080000e-06	3.227510e-06	1.897345e-08	2.275819e+01	1.242596e+03
1.090000e-06	3.339643e-06	1.925161e-08	2.354888e+01	1.263244e+03
1.100000e-06	3.450542e-06	1.950146e-08	2.433086e+01	1.282533e+03
1.110000e-06	3.560232e-06	1.972639e-08	2.510432e+01	1.299846e+03
1.120000e-06	3.668848e-06	1.993131e-08	2.587020e+01	1.314725e+03
1.130000e-06	3.776356e-06	2.012157e-08	2.662828e+01	1.327082e+03
1.140000e-06	3.882488e-06	2.029837e-08	2.737665e+01	1.337263e+03
1.150000e-06	3.987096e-06	2.046277e-08	2.811427e+01	1.345940e+03
1.160000e-06	4.090238e-06	2.061622e-08	2.884156e+01	1.353922e+03
1.170000e-06	4.191955e-06	2.075975e-08	2.955880e+01	1.361918e+03
1.180000e-06	4.292292e-06	2.089490e-08	3.026631e+01	1.370358e+03
1.190000e-06	4.391123e-06	2.102182e-08	3.096319e+01	1.379307e+03
1.200000e-06	4.488233e-06	2.114100e-08	3.164794e+01	1.388493e+03
1.210000e-06	4.583625e-06	2.125036e-08	3.232058e+01	1.397434e+03
1.220000e-06	4.677435e-06	2.135256e-08	3.298207e+01	1.405617e+03
1.230000e-06	4.769775e-06	2.145047e-08	3.363319e+01	1.412668e+03
1.240000e-06	4.860487e-06	2.154082e-08	3.427283e+01	1.418476e+03
1.250000e-06	4.949253e-06	2.162586e-08	3.489875e+01	1.423215e+03
1.260000e-06	5.036144e-06	2.171001e-08	3.551144e+01	1.427288e+03
1.270000e-06	5.121389e-06	2.179497e-08	3.611253e+01	1.431193e+03
1.280000e-06	5.204948e-06	2.187680e-08	3.670173e+01	1.435373e+03
1.290000e-06	5.286512e-06	2.195360e-08	3.727687e+01	1.440092e+03
1.300000e-06	5.366000e-06	2.202493e-08	3.783736e+01	1.445363e+03
1.310000e-06	5.443580e-06	2.209166e-08	3.838440e+01	1.450963e+03
1.320000e-06	5.519146e-06	2.215351e-08	3.891724e+01	1.456519e+03
1.330000e-06	5.592466e-06	2.221223e-08	3.943424e+01	1.461628e+03
1.340000e-06	5.663692e-06	2.226909e-08	3.993648e+01	1.465987e+03
1.350000e-06	5.733024e-06	2.232400e-08	4.042536e+01	1.469485e+03
1.360000e-06	5.800381e-06	2.237728e-08	4.090032e+01	1.472226e+03
1.370000e-06	5.865597e-06	2.242896e-08	4.136017e+01	1.474490e+03
1.380000e-06	5.928704e-06	2.247887e-08	4.180516e+01	1.476642e+03
1.390000e-06	5.989849e-06	2.252705e-08	4.223631e+01	1.479011e+03
1.400000e-06	6.048993e-06	2.257155e-08	4.265336e+01	1.481794e+03
1.410000e-06	6.105919e-06	2.261150e-08	4.305476e+01	1.485000e+03
1.420000e-06	6.160652e-06	2.264787e-08	4.344070e+01	1.488451e+03
1.430000e-06	6.213128e-06	2.268082e-08	4.381073e+01	1.491851e+03
1.440000e-06	6.262977e-06	2.271224e-08	4.416223e+01	1.494878e+03
1.450000e-06	6.310334e-06	2.274286e-08	4.449615e+01	1.497289e+03
1.460000e-06	6.355574e-06	2.277265e-08	4.481515e+01	1.498995e+03
1.470000e-06	6.398694e-06	2.280119e-08	4.511921e+01	1.500086e+03
1.480000e-06	6.439401e-06	2.282708e-08	4.540625e+01	1.500799e+03
1.490000e-06	6.477782e-06	2.285065e-08	4.567689e+01	1.501439e+03
1.500000e-06	6.514113e-06	2.287308e-08	4.593307e+01	1.502290e+03
1.510000e-06	6.548144e-06	2.289308e-08	4.617303e+01	1.503520e+03
1.520000e-06	6.579741e-06	2.291084e-08	4.639583e+01	1.505138e+03
1.530000e-06	6.609121e-06	2.292698e-08	4.660300e+01	1.506994e+03
1.540000e-06	6.636309e-06	2.294115e-08	4.679471e+01	1.508829e+03
1.550000e-06	6.660946e-06	2.295467e-08	4.696844e+01	1.510363e+03
1.560000e-06	6.682972e-06	2.296755e-08	4.712375e+01	1.511380e+03
1.570000e-06	6.702778e-06	2.297845e-08	4.726340e+01	1.511799e+03
1.580000e-06	6.720227e-06	2.298901e-08	4.738644e+01	1.511696e+03
1.590000e-06	6.735122e-06	2.299961e-08	4.749147e+01	1.511279e+03
1.600000e-06	6.747542e-06	2.300824e-08	4.757904e+01	1.510822e+03
1.610000e-06	6.757307e-06	2.301506e-08	4.764791e+01	1.510577e+03
1.620000e-06	6.764481e-06	2.301897e-08	4.769849e+01	1.510695e+03
1.630000e-06	6.769382e-06	2.302057e-08	4.773305e+01	1.511180e+03
1.640000e-06	6.771892e-06	2.302185e-08	4.775075e+01	1.511889e+03
1.650000e-06	6.771875e-06	2.302387e-08	4.775062e+01	1.512575e+03
1.660000e-06	6.769594e-06	2.301303e-08	4.773455e+01	1.512968e+03
1.670000e-06	6.765274e-06	2.300595e-08	4.770408e+01	1.512858e+03
1.680000e-06	6.758660e-06	2.300213e-08	4.765744e+01	1.512158e+03
1.690000e-06	6.749740e-06	2.299482e-08	4.759454e+01	1.510934e+03
1.700000e-06	6.738733e-06	2.298924e-08	4.751693e+01	1.509380e+03
1.710000e-06	6.725358e-06	2.298956e-08	4.742262e+01	1.507763e+03
1.720000e-06	6.709580e-06	2.300765e-08	4.731137e+01	1.506332e+03
1.730000e-06	6.691791e-06	2.293570e-08	4.718593e+01	1.505253e+03
1.740000e-06	6.671795e-06	2.280696e-08	4.704493e+01	1.504550e+03
1.750000e-06	6.648674e-06	2.284645e-08	4.688190e+01	1.504107e+03
1.760000e-06	6.622385e-06	2.286852e-08	4.669652e+01	1.503703e+03
1.770000e-06	6.593732e-06	2.284194e-08	4.649448e+01	1.503085e+03
1.780000e-06	6.563081e-06	2.298984e-08	4.627836e+01	1.502046e+03
1.790000e-06	6.530889e-06	2.288216e-08	4.605136e+01	1.500491e+03
1.800000e-06	6.497081e-06	2.270779e-08	4.581297e+01	1.498462e+03
1.810000e-06	6.460889e-06	2.287523e-08	4.555777e+01	1.496123e+03
1.820000e-06	6.422327e-06	2.270555e-08	4.528586e+01	1.493703e+03
1.830000e-06	6.381592e-06	2.273878e-08	4.499862e+01	1.491423e+03
1.840000e-06	6.338642e-06	2.286105e-08	4.469577e+01	1.489418e+03
1.850000e-06	6.293601e-06	2.259111e-08	4.437816e+01	1.487693e+03
1.860000e-06	6.246256e-06	2.271566e-08	4.404432e+01	1.486121e+03
1.870000e-06	6.196583e-06	2.265049e-08	4.369406e+01	1.484476e+03
1.880000e-06	6.144592e-06	2.256093e-08	4.332746e+01	1.482508e+03
1.890000e-06	6.089948e-06	2.261612e-08	4.294214e+01	1.480019e+03
1.900000e-06	6.032858e-06	2.240718e-08	4.253959e+01	1.476929e+03
1.910000e-06	5.973595e-06	2.249576e-08	4.212170e+01	1.473301e+03
1.920000e-06	5.912180e-06	2.247268e-08	4.168864e+01	1.469322e+03
1.930000e-06	5.848516e-06	2.238867e-08	4.123973e+01	1.465248e+03
1.940000e-06	5.782559e-06	2.235022e-08	4.077465e+01	1.461320e+03
1.950000e-06	5.714578e-06	2.218371e-08	4.029529e+01	1.457689e+03
1.960000e-06	5.644330e-06	2.224311e-08	3.979995e+01	1.454365e+03
1.970000e-06	5.571797e-06	2.212196e-08	3.928850e+01	1.451215e+03
1.980000e-06	5.497237e-06	2.209018e-08	3.876275e+01	1.447996e+03
1.990000e-06	5.420535e-06	2.206350e-08	3.822191e+01	1.444439e+03
2.000000e-06	5.341729e-06	2.194237e-08	3.766622e+01	1.440326e+03
2.010000e-06	5.260930e-06	2.190632e-08	3.709648e+01	1.435565e+03
2.020000e-06	5.178359e-06	2.176707e-08	3.651424e+01	1.430219e+03
2.030000e-06	5.094084e-06	2.176526e-08	3.591999e+01	1.424487e+03
2.040000e-06	5.007916e-06	2.169233e-08	3.531240e+01	1.418645e+03
2.050000e-06	4.919852e-06	2.159641e-08	3.469143e+01	1.412956e+03
2.060000e-06	4.830167e-06	2.150727e-08	3.405903e+01	1.407584e+03
2.070000e-06	4.739028e-06	2.141396e-08	3.341638e+01	1.402542e+03
2.080000e-06	4.646236e-06	2.135297e-08	3.276208e+01	1.397676e+03
2.090000e-06	4.551663e-06	2.123425e-08	3.209521e+01	1.392713e+03
2.100000e-06	4.455440e-06	2.116192e-08	3.141672e+01	1.387345e+03
2.110000e-06	4.357735e-06	2.106117e-08	3.072776e+01	1.381318e+03
2.120000e-06	4.258643e-06	2.097131e-08	3.002903e+01	1.374520e+03
2.130000e-06	4.158052e-06	2.085883e-08	2.931973e+01	1.367016e+03
2.140000e-06	4.055748e-06	2.074637e-08	2.859836e+01	1.359026e+03
2.150000e-06	3.951836e-06	2.064052e-08	2.786564e+01	1.350866e+03
2.160000e-06	3.846563e-06	2.053375e-08	2.712333e+01	1.342836e+03
2.170000e-06	3.740079e-06	2.043284e-08	2.637247e+01	1.335129e+03
2.180000e-06	3.632355e-06	2.030387e-08	2.561288e+01	1.327754e+03
2.190000e-06	3.523244e-06	2.017871e-08	2.484350e+01	1.320529e+03
2.200000e-06	3.412791e-06	2.004156e-08	2.406467e+01	1.313126e+03
2.210000e-06	3.300964e-06	1.991667e-08	2.327614e+01	1.305164e+03
2.220000e-06	3.187851e-06	1.977964e-08	2.247854e+01	1.296328e+03
2.230000e-06	3.073564e-06	1.964290e-08	2.167267e+01	1.286469e+03
2.240000e-06	2.958093e-06	1.949334e-08	2.085845e+01	1.275650e+03
2.250000e-06	2.841399e-06	1.933129e-08	2.003560e+01	1.264134e+03
2.260000e-06	2.723506e-06	1.916137e-08	1.920430e+01	1.252297e+03
2.270000e-06	2.604485e-06	1.899518e-08	1.836504e+01	1.240509e+03
2.280000e-06	2.484383e-06	1.883200e-08	1.751817e+01	1.229007e+03
2.290000e-06	2.363409e-06	1.865316e-08	1.666515e+01	1.217801e+03
2.300000e-06	2.241667e-06	1.846440e-08	1.580670e+01	1.206651e+03
2.310000e-06	2.119225e-06	1.826445e-08	1.494332e+01	1.195123e+03
2.320000e-06	1.996141e-06	1.806220e-08	1.407542e+01	1.182711e+03
2.330000e-06	1.872414e-06	1.784468e-08	1.320298e+01	1.168981e+03
2.340000e-06	1.747983e-06	1.761666e-08	1.232558e+01	1.153711e+03
2.350000e-06	1.622902e-06	1.737994e-08	1.144360e+01	1.136959e+03
2.360000e-06	1.497297e-06	1.713758e-08	1.055791e+01	1.119048e+03
2.370000e-06	1.371241e-06	1.688313e-08	9.669051e+00	1.100459e+03
2.380000e-06	1.244704e-06	1.661104e-08	8.776802e+00	1.081663e+03
2.390000e-06	1.117682e-06	1.632212e-08	7.881132e+00	1.062935e+03
2.400000e-06	9.902399e-07	1.601472e-08	6.982494e+00	1.044218e+03
2.410000e-06	8.624076e-07	1.569513e-08	6.081108e+00	1.025080e+03
2.420000e-06	7.342679e-07	1.535865e-08	5.177554e+00	1.004779e+03
2.430000e-06	6.058935e-07	1.499904e-08	4.272347e+00	9.824368e+02
2.440000e-06	4.773352e-07	1.461010e-08	3.365841e+00	9.572692e+02
2.450000e-06	3.486297e-07	1.418835e-08	2.458298e+00	9.287967e+02
2.460000e-06	2.197794e-07	1.373574e-08	1.549734e+00	8.969700e+02
2.470000e-06	9.082724e-08	1.325190e-08	6.404515e-01	8.621503e+02
2.480000e-06	-3.811829e-08	1.272915e-08	-2.687841e-01	8.249276e+02
2.490000e-06	-1.670458e-07	1.215247e-08	-1.177893e+00	7.858068e+02
2.500000e-06	-2.959790e-07	1.151416e-08	-2.087041e+00	7.448351e+02
2.510000e-06	-4.248547e-07	1.080702e-08	-2.995784e+00	7.012751e+02
2.520000e-06	-5.536031e-07	1.001797e-08	-3.903630e+00	6.534291e+02
2.530000e-06	-6.821828e-07	9.131860e-09	-4.810286e+00	5.986952e+02
2.540000e-06	-8.105773e-07	8.124170e-09	-5.715636e+00	5.338852e+02
2.550000e-06	-9.387315e-07	6.964389e-09	-6.619292e+00	4.557697e+02
2.560000e-06	-1.066526e-06	5.611515e-09	-7.520413e+00	3.617557e+02
2.570000e-06	-1.193855e-06	4.021073e-09	-8.418246e+00	2.505578e+02
2.580000e-06	-1.320658e-06	2.155678e-09	-9.312374e+00	1.227114e+02
2.590000e-06	-1.446887e-06	4.561585e-12	-1.020246e+01	-1.919864e+01
2.600000e-06	-1.572581e-06	-2.374492e-09	-1.108877e+01	-1.706688e+02
2.610000e-06	-1.697721e-06	-4.859920e-09	-1.197117e+01	-3.257630e+02
2.620000e-06	-1.822204e-06	-7.304901e-09	-1.284894e+01	-4.778770e+02
2.630000e-06	-1.945930e-06	-9.556937e-09	-1.372137e+01	-6.206377e+02
2.640000e-06	-2.068783e-06	-1.150562e-08	-1.458764e+01	-7.487685e+02
2.650000e-06	-2.190841e-06	-1.312066e-08	-1.544831e+01	-8.587530e+02
2.660000e-06	-2.312201e-06	-1.442750e-08	-1.630406e+01	-9.491780e+02
2.670000e-06	-2.432848e-06	-1.547515e-08	-1.715478e+01	-1.020704e+03
2.680000e-06	-2.552599e-06	-1.631682e-08	-1.799918e+01	-1.075692e+03
2.690000e-06	-2.671187e-06	-1.700045e-08	-1.883538e+01	-1.117581e+03
2.700000e-06	-2.788644e-06	-1.756310e-08	-1.966361e+01	-1.150170e+03
2.710000e-06	-2.904988e-06	-1.803447e-08	-2.048399e+01	-1.176937e+03
2.720000e-06	-3.020139e-06	-1.843773e-08	-2.129595e+01	-1.200554e+03
2.730000e-06	-3.134071e-06	-1.878452e-08	-2.209932e+01	-1.222645e+03
2.740000e-06	-3.246689e-06	-1.908739e-08	-2.289343e+01	-1.243816e+03
2.750000e-06	-3.358022e-06	-1.935566e-08	-2.367847e+01	-1.263904e+03
2.760000e-06	-3.468090e-06	-1.959503e-08	-2.445459e+01	-1.282348e+03
2.770000e-06	-3.576969e-06	-1.981346e-08	-2.522233e+01	-1.298566e+03
2.780000e-06	-3.684762e-06	-2.001222e-08	-2.598242e+01	-1.312256e+03
2.790000e-06	-3.791383e-06	-2.019134e-08	-2.673424e+01	-1.323533e+03
2.800000e-06	-3.896711e-06	-2.035527e-08	-2.747694e+01	-1.332916e+03
2.810000e-06	-4.000632e-06	-2.051092e-08	-2.820972e+01	-1.341169e+03
2.820000e-06	-4.102952e-06	-2.066019e-08	-2.893121e+01	-1.349080e+03
2.830000e-06	-4.203694e-06	-2.080138e-08	-2.964158e+01	-1.357248e+03
2.840000e-06	-4.303020e-06	-2.093405e-08	-3.034195e+01	-1.365936e+03
2.850000e-06	-4.400937e-06	-2.105615e-08	-3.103240e+01	-1.375043e+03
2.860000e-06	-4.497411e-06	-2.116857e-08	-3.171266e+01	-1.384180e+03
2.870000e-06	-4.592227e-06	-2.127306e-08	-3.238124e+01	-1.392825e+03
2.880000e-06	-4.685310e-06	-2.137164e-08	-3.303760e+01	-1.400512e+03
2.890000e-06	-4.776782e-06	-2.146642e-08	-3.368260e+01	-1.406980e+03
2.900000e-06	-4.866588e-06	-2.155542e-08	-3.431585e+01	-1.412252e+03
2.910000e-06	-4.954673e-06	-2.164004e-08	-3.493697e+01	-1.416620e+03
2.920000e-06	-5.040823e-06	-2.172292e-08	-3.554443e+01	-1.420550e+03
2.930000e-06	-5.124977e-06	-2.180309e-08	-3.613783e+01	-1.424534e+03
2.940000e-06	-5.207371e-06	-2.188018e-08	-3.671882e+01	-1.428944e+03
