# Temperatura_=_51.26
# Concentracion g/m^3_=_41000.0
# C_Vs_to_Am_M_A/Vsm_=_65563218390.804596
# pendiente_HvsI_1/m_=_3716.3
# ordenada_HvsI_A/m_=_1297.0
# frecuencia_Hz_=_302008.938598058

Tiempo_(s)	Campo_(V.s)	Magnetizacion_(V.s)	Campo_(kA/m)	Magnetizacion_(A/m)
0.000000e+00	-6.726305e-06	-2.583382e-08	-4.746373e+01	-1.690744e+03
1.000000e-08	-6.722973e-06	-2.583112e-08	-4.744022e+01	-1.691069e+03
2.000000e-08	-6.717467e-06	-2.582294e-08	-4.740136e+01	-1.691106e+03
3.000000e-08	-6.709829e-06	-2.581537e-08	-4.734747e+01	-1.690704e+03
4.000000e-08	-6.699851e-06	-2.580397e-08	-4.727706e+01	-1.689818e+03
5.000000e-08	-6.687436e-06	-2.578721e-08	-4.718945e+01	-1.688519e+03
6.000000e-08	-6.672622e-06	-2.576304e-08	-4.708492e+01	-1.686976e+03
7.000000e-08	-6.655477e-06	-2.573032e-08	-4.696394e+01	-1.685400e+03
8.000000e-08	-6.636191e-06	-2.574920e-08	-4.682785e+01	-1.683983e+03
9.000000e-08	-6.614535e-06	-2.580492e-08	-4.667503e+01	-1.682838e+03
1.000000e-07	-6.590135e-06	-2.574424e-08	-4.650286e+01	-1.681968e+03
1.100000e-07	-6.563062e-06	-2.567679e-08	-4.631181e+01	-1.681264e+03
1.200000e-07	-6.533697e-06	-2.566971e-08	-4.610460e+01	-1.680546e+03
1.300000e-07	-6.502465e-06	-2.557966e-08	-4.588422e+01	-1.679615e+03
1.400000e-07	-6.469470e-06	-2.550258e-08	-4.565139e+01	-1.678316e+03
1.500000e-07	-6.434448e-06	-2.565649e-08	-4.540426e+01	-1.676590e+03
1.600000e-07	-6.397320e-06	-2.555942e-08	-4.514227e+01	-1.674480e+03
1.700000e-07	-6.358168e-06	-2.545667e-08	-4.486600e+01	-1.672123e+03
1.800000e-07	-6.316684e-06	-2.556006e-08	-4.457327e+01	-1.669697e+03
1.900000e-07	-6.272780e-06	-2.539626e-08	-4.426346e+01	-1.667361e+03
2.000000e-07	-6.226668e-06	-2.541704e-08	-4.393808e+01	-1.665204e+03
2.100000e-07	-6.178104e-06	-2.543232e-08	-4.359538e+01	-1.663208e+03
2.200000e-07	-6.126889e-06	-2.529848e-08	-4.323399e+01	-1.661257e+03
2.300000e-07	-6.073195e-06	-2.530626e-08	-4.285510e+01	-1.659167e+03
2.400000e-07	-6.017190e-06	-2.525853e-08	-4.245991e+01	-1.656745e+03
2.500000e-07	-5.958841e-06	-2.519743e-08	-4.204817e+01	-1.653852e+03
2.600000e-07	-5.898225e-06	-2.516598e-08	-4.162043e+01	-1.650443e+03
2.700000e-07	-5.835554e-06	-2.509857e-08	-4.117820e+01	-1.646591e+03
2.800000e-07	-5.770755e-06	-2.502572e-08	-4.072095e+01	-1.642455e+03
2.900000e-07	-5.703718e-06	-2.495893e-08	-4.024791e+01	-1.638241e+03
3.000000e-07	-5.634554e-06	-2.495529e-08	-3.975986e+01	-1.634131e+03
3.100000e-07	-5.563317e-06	-2.488372e-08	-3.925718e+01	-1.630227e+03
3.200000e-07	-5.489960e-06	-2.481144e-08	-3.873955e+01	-1.626517e+03
3.300000e-07	-5.414398e-06	-2.473725e-08	-3.820635e+01	-1.622876e+03
3.400000e-07	-5.336657e-06	-2.463842e-08	-3.765777e+01	-1.619106e+03
3.500000e-07	-5.256766e-06	-2.459870e-08	-3.709403e+01	-1.614994e+03
3.600000e-07	-5.174883e-06	-2.452037e-08	-3.651622e+01	-1.610380e+03
3.700000e-07	-5.091349e-06	-2.445350e-08	-3.592677e+01	-1.605207e+03
3.800000e-07	-5.006172e-06	-2.437736e-08	-3.532573e+01	-1.599537e+03
3.900000e-07	-4.919365e-06	-2.427673e-08	-3.471318e+01	-1.593537e+03
4.000000e-07	-4.830887e-06	-2.417998e-08	-3.408884e+01	-1.587419e+03
4.100000e-07	-4.740574e-06	-2.410425e-08	-3.345155e+01	-1.581375e+03
4.200000e-07	-4.648565e-06	-2.403118e-08	-3.280230e+01	-1.575512e+03
4.300000e-07	-4.555003e-06	-2.392597e-08	-3.214208e+01	-1.569815e+03
4.400000e-07	-4.459917e-06	-2.382548e-08	-3.147111e+01	-1.564145e+03
4.500000e-07	-4.363202e-06	-2.371897e-08	-3.078865e+01	-1.558280e+03
4.600000e-07	-4.264723e-06	-2.360873e-08	-3.009374e+01	-1.551982e+03
4.700000e-07	-4.164674e-06	-2.350609e-08	-2.938775e+01	-1.545072e+03
4.800000e-07	-4.063235e-06	-2.340124e-08	-2.867195e+01	-1.537484e+03
4.900000e-07	-3.960417e-06	-2.328568e-08	-2.794643e+01	-1.529289e+03
5.000000e-07	-3.856215e-06	-2.315877e-08	-2.721112e+01	-1.520671e+03
5.100000e-07	-3.750505e-06	-2.303140e-08	-2.646519e+01	-1.511866e+03
5.200000e-07	-3.643272e-06	-2.289929e-08	-2.570851e+01	-1.503088e+03
5.300000e-07	-3.534749e-06	-2.276205e-08	-2.494272e+01	-1.494447e+03
5.400000e-07	-3.425017e-06	-2.262117e-08	-2.416841e+01	-1.485910e+03
5.500000e-07	-3.314087e-06	-2.247769e-08	-2.338563e+01	-1.477300e+03
5.600000e-07	-3.201948e-06	-2.232595e-08	-2.259433e+01	-1.468339e+03
5.700000e-07	-3.088419e-06	-2.216549e-08	-2.179322e+01	-1.458732e+03
5.800000e-07	-2.973467e-06	-2.200165e-08	-2.098208e+01	-1.448254e+03
5.900000e-07	-2.857264e-06	-2.183145e-08	-2.016210e+01	-1.436822e+03
6.000000e-07	-2.739968e-06	-2.165181e-08	-1.933441e+01	-1.424519e+03
6.100000e-07	-2.621734e-06	-2.146771e-08	-1.850009e+01	-1.411571e+03
6.200000e-07	-2.502595e-06	-2.127841e-08	-1.765940e+01	-1.398271e+03
6.300000e-07	-2.382493e-06	-2.107683e-08	-1.681191e+01	-1.384881e+03
6.400000e-07	-2.261478e-06	-2.086483e-08	-1.595797e+01	-1.371533e+03
6.500000e-07	-2.139649e-06	-2.064663e-08	-1.509829e+01	-1.358174e+03
6.600000e-07	-2.017043e-06	-2.041863e-08	-1.423313e+01	-1.344558e+03
6.700000e-07	-1.893664e-06	-2.018187e-08	-1.336251e+01	-1.330307e+03
6.800000e-07	-1.769599e-06	-1.993632e-08	-1.248706e+01	-1.315010e+03
6.900000e-07	-1.644933e-06	-1.967783e-08	-1.160736e+01	-1.298348e+03
7.000000e-07	-1.519794e-06	-1.940936e-08	-1.072432e+01	-1.280182e+03
7.100000e-07	-1.394239e-06	-1.912762e-08	-9.838353e+00	-1.260595e+03
7.200000e-07	-1.268193e-06	-1.883113e-08	-8.948923e+00	-1.239863e+03
7.300000e-07	-1.141690e-06	-1.851911e-08	-8.056259e+00	-1.218346e+03
7.400000e-07	-1.014868e-06	-1.818841e-08	-7.161352e+00	-1.196355e+03
7.500000e-07	-8.877595e-07	-1.783887e-08	-6.264416e+00	-1.174006e+03
7.600000e-07	-7.602681e-07	-1.746818e-08	-5.364782e+00	-1.151133e+03
7.700000e-07	-6.324448e-07	-1.707434e-08	-4.462805e+00	-1.127271e+03
7.800000e-07	-5.044431e-07	-1.666031e-08	-3.559570e+00	-1.101745e+03
7.900000e-07	-3.762936e-07	-1.622416e-08	-2.655291e+00	-1.073817e+03
8.000000e-07	-2.479311e-07	-1.575587e-08	-1.749510e+00	-1.042877e+03
8.100000e-07	-1.193939e-07	-1.524946e-08	-8.424951e-01	-1.008595e+03
8.200000e-07	9.191032e-09	-1.470251e-08	6.485591e-02	-9.709857e+02
8.300000e-07	1.377714e-07	-1.411185e-08	9.721749e-01	-9.303485e+02
8.400000e-07	2.663423e-07	-1.347203e-08	1.879427e+00	-8.870793e+02
8.500000e-07	3.948021e-07	-1.277585e-08	2.785895e+00	-8.413834e+02
8.600000e-07	5.230964e-07	-1.201517e-08	3.691195e+00	-7.929685e+02
8.700000e-07	6.512865e-07	-1.117654e-08	4.595761e+00	-7.408015e+02
8.800000e-07	7.793474e-07	-1.024623e-08	5.499413e+00	-6.830180e+02
8.900000e-07	9.071019e-07	-9.202974e-09	6.400905e+00	-6.170418e+02
9.000000e-07	1.034441e-06	-8.018949e-09	7.299466e+00	-5.399258e+02
9.100000e-07	1.161418e-06	-6.658431e-09	8.195470e+00	-4.488727e+02
9.200000e-07	1.288048e-06	-5.077862e-09	9.089023e+00	-3.418419e+02
9.300000e-07	1.414284e-06	-3.230513e-09	9.979805e+00	-2.181187e+02
9.400000e-07	1.540033e-06	-1.093801e-09	1.086714e+01	-7.871772e+01
9.500000e-07	1.665274e-06	1.266526e-09	1.175089e+01	7.348225e+01
9.600000e-07	1.790048e-06	3.716880e-09	1.263136e+01	2.339219e+02
9.700000e-07	1.914296e-06	6.179013e-09	1.350810e+01	3.968500e+02
9.800000e-07	2.037865e-06	8.626410e-09	1.438006e+01	5.560354e+02
9.900000e-07	2.160608e-06	1.094364e-08	1.524619e+01	7.055760e+02
1.000000e-06	2.282422e-06	1.298195e-08	1.610576e+01	8.406516e+02
1.010000e-06	2.403297e-06	1.469206e-08	1.695871e+01	9.580844e+02
1.020000e-06	2.523179e-06	1.609884e-08	1.780465e+01	1.056609e+03
1.030000e-06	2.642040e-06	1.725359e-08	1.864338e+01	1.136815e+03
1.040000e-06	2.759969e-06	1.820621e-08	1.947554e+01	1.200800e+03
1.050000e-06	2.876917e-06	1.899795e-08	2.030078e+01	1.251615e+03
1.060000e-06	2.992755e-06	1.966021e-08	2.111818e+01	1.292633e+03
1.070000e-06	3.107405e-06	2.022158e-08	2.192720e+01	1.326970e+03
1.080000e-06	3.220755e-06	2.070244e-08	2.272705e+01	1.357064e+03
1.090000e-06	3.332799e-06	2.111673e-08	2.351768e+01	1.384478e+03
1.100000e-06	3.443662e-06	2.148246e-08	2.429997e+01	1.409921e+03
1.110000e-06	3.553430e-06	2.180800e-08	2.507454e+01	1.433454e+03
1.120000e-06	3.662083e-06	2.209927e-08	2.584125e+01	1.454794e+03
1.130000e-06	3.769542e-06	2.236287e-08	2.659952e+01	1.473627e+03
1.140000e-06	3.875627e-06	2.260387e-08	2.734811e+01	1.489841e+03
1.150000e-06	3.980190e-06	2.282461e-08	2.808595e+01	1.503640e+03
1.160000e-06	4.083291e-06	2.302622e-08	2.881347e+01	1.515526e+03
1.170000e-06	4.185017e-06	2.321287e-08	2.953130e+01	1.526171e+03
1.180000e-06	4.285339e-06	2.338745e-08	3.023921e+01	1.536244e+03
1.190000e-06	4.384140e-06	2.354951e-08	3.093640e+01	1.546238e+03
1.200000e-06	4.481240e-06	2.370176e-08	3.162158e+01	1.556369e+03
1.210000e-06	4.576610e-06	2.384213e-08	3.229455e+01	1.566554e+03
1.220000e-06	4.670403e-06	2.397393e-08	3.295639e+01	1.576486e+03
1.230000e-06	4.762694e-06	2.409748e-08	3.360764e+01	1.585765e+03
1.240000e-06	4.853383e-06	2.421101e-08	3.424758e+01	1.594044e+03
1.250000e-06	4.942272e-06	2.431527e-08	3.487482e+01	1.601148e+03
1.260000e-06	5.029304e-06	2.441332e-08	3.548895e+01	1.607135e+03
1.270000e-06	5.114529e-06	2.450998e-08	3.609034e+01	1.612274e+03
1.280000e-06	5.198012e-06	2.460191e-08	3.667943e+01	1.616962e+03
1.290000e-06	5.279633e-06	2.468838e-08	3.725538e+01	1.621606e+03
1.300000e-06	5.359215e-06	2.476817e-08	3.781695e+01	1.626510e+03
1.310000e-06	5.436824e-06	2.484369e-08	3.836459e+01	1.631789e+03
1.320000e-06	5.512463e-06	2.491602e-08	3.889833e+01	1.637359e+03
1.330000e-06	5.585924e-06	2.498593e-08	3.941671e+01	1.642973e+03
1.340000e-06	5.657226e-06	2.505276e-08	3.991984e+01	1.648311e+03
1.350000e-06	5.726539e-06	2.511580e-08	4.040895e+01	1.653090e+03
1.360000e-06	5.793848e-06	2.517620e-08	4.088391e+01	1.657144e+03
1.370000e-06	5.859018e-06	2.523360e-08	4.134378e+01	1.660478e+03
1.380000e-06	5.922113e-06	2.528885e-08	4.178900e+01	1.663257e+03
1.390000e-06	5.983276e-06	2.534107e-08	4.222059e+01	1.665747e+03
1.400000e-06	6.042394e-06	2.538909e-08	4.263776e+01	1.668233e+03
1.410000e-06	6.099327e-06	2.543346e-08	4.303950e+01	1.670925e+03
1.420000e-06	6.154144e-06	2.547397e-08	4.342632e+01	1.673903e+03
1.430000e-06	6.206718e-06	2.551228e-08	4.379730e+01	1.677093e+03
1.440000e-06	6.256650e-06	2.554884e-08	4.414964e+01	1.680303e+03
1.450000e-06	6.304024e-06	2.558264e-08	4.448394e+01	1.683284e+03
1.460000e-06	6.349227e-06	2.561423e-08	4.480291e+01	1.685814e+03
1.470000e-06	6.392348e-06	2.564364e-08	4.510718e+01	1.687771e+03
1.480000e-06	6.433086e-06	2.567186e-08	4.539465e+01	1.689166e+03
1.490000e-06	6.471485e-06	2.569837e-08	4.566561e+01	1.690140e+03
1.500000e-06	6.507820e-06	2.572293e-08	4.592200e+01	1.690918e+03
1.510000e-06	6.541839e-06	2.574445e-08	4.616206e+01	1.691737e+03
1.520000e-06	6.573451e-06	2.576348e-08	4.638512e+01	1.692772e+03
1.530000e-06	6.602890e-06	2.578174e-08	4.659286e+01	1.694087e+03
1.540000e-06	6.630097e-06	2.579752e-08	4.678485e+01	1.695615e+03
1.550000e-06	6.654825e-06	2.581096e-08	4.695934e+01	1.697187e+03
1.560000e-06	6.677057e-06	2.582304e-08	4.711621e+01	1.698586e+03
1.570000e-06	6.697032e-06	2.583378e-08	4.725717e+01	1.699620e+03
1.580000e-06	6.714628e-06	2.584534e-08	4.738133e+01	1.700182e+03
1.590000e-06	6.729641e-06	2.585763e-08	4.748727e+01	1.700281e+03
1.600000e-06	6.742156e-06	2.586883e-08	4.757558e+01	1.700042e+03
1.610000e-06	6.752031e-06	2.587677e-08	4.764526e+01	1.699664e+03
1.620000e-06	6.759307e-06	2.588072e-08	4.769661e+01	1.699353e+03
1.630000e-06	6.764261e-06	2.588274e-08	4.773156e+01	1.699262e+03
1.640000e-06	6.766848e-06	2.588374e-08	4.774982e+01	1.699437e+03
1.650000e-06	6.766980e-06	2.588596e-08	4.775075e+01	1.699807e+03
1.660000e-06	6.764887e-06	2.587746e-08	4.773598e+01	1.700205e+03
1.670000e-06	6.760712e-06	2.587178e-08	4.770652e+01	1.700422e+03
1.680000e-06	6.754156e-06	2.586915e-08	4.766026e+01	1.700271e+03
1.690000e-06	6.745256e-06	2.586225e-08	4.759746e+01	1.699645e+03
1.700000e-06	6.734296e-06	2.585516e-08	4.752012e+01	1.698554e+03
1.710000e-06	6.721051e-06	2.585358e-08	4.742666e+01	1.697119e+03
1.720000e-06	6.705446e-06	2.586836e-08	4.731654e+01	1.695536e+03
1.730000e-06	6.687773e-06	2.580807e-08	4.719183e+01	1.694016e+03
1.740000e-06	6.667848e-06	2.569691e-08	4.705123e+01	1.692720e+03
1.750000e-06	6.644833e-06	2.572809e-08	4.688883e+01	1.691712e+03
1.760000e-06	6.618644e-06	2.574451e-08	4.670403e+01	1.690941e+03
1.770000e-06	6.590115e-06	2.571738e-08	4.650271e+01	1.690258e+03
1.780000e-06	6.559564e-06	2.583616e-08	4.628713e+01	1.689467e+03
1.790000e-06	6.527404e-06	2.573891e-08	4.606020e+01	1.688382e+03
1.800000e-06	6.493701e-06	2.559495e-08	4.582237e+01	1.686888e+03
1.810000e-06	6.457663e-06	2.573556e-08	4.556808e+01	1.684974e+03
1.820000e-06	6.419282e-06	2.558980e-08	4.529724e+01	1.682731e+03
1.830000e-06	6.378764e-06	2.561634e-08	4.501133e+01	1.680322e+03
1.840000e-06	6.335993e-06	2.569913e-08	4.470952e+01	1.677923e+03
1.850000e-06	6.291066e-06	2.544799e-08	4.439250e+01	1.675668e+03
1.860000e-06	6.243799e-06	2.555769e-08	4.405896e+01	1.673596e+03
1.870000e-06	6.194242e-06	2.551136e-08	4.370927e+01	1.671644e+03
1.880000e-06	6.142392e-06	2.542788e-08	4.334338e+01	1.669655e+03
1.890000e-06	6.087792e-06	2.547067e-08	4.295811e+01	1.667436e+03
1.900000e-06	6.030779e-06	2.528322e-08	4.255579e+01	1.664810e+03
1.910000e-06	5.971637e-06	2.533560e-08	4.213846e+01	1.661678e+03
1.920000e-06	5.910280e-06	2.531101e-08	4.170550e+01	1.658050e+03
1.930000e-06	5.846745e-06	2.524302e-08	4.125717e+01	1.654045e+03
1.940000e-06	5.780980e-06	2.519852e-08	4.079311e+01	1.649850e+03
1.950000e-06	5.713107e-06	2.505044e-08	4.031416e+01	1.645667e+03
1.960000e-06	5.642949e-06	2.509455e-08	3.981910e+01	1.641649e+03
1.970000e-06	5.570573e-06	2.497271e-08	3.930838e+01	1.637846e+03
1.980000e-06	5.496213e-06	2.493833e-08	3.878367e+01	1.634192e+03
1.990000e-06	5.419718e-06	2.491275e-08	3.824389e+01	1.630521e+03
2.000000e-06	5.341077e-06	2.479453e-08	3.768896e+01	1.626619e+03
2.010000e-06	5.260457e-06	2.474887e-08	3.712007e+01	1.622291e+03
2.020000e-06	5.178044e-06	2.461234e-08	3.653853e+01	1.617419e+03
2.030000e-06	5.093872e-06	2.459509e-08	3.594457e+01	1.612003e+03
2.040000e-06	5.007794e-06	2.452463e-08	3.533717e+01	1.606157e+03
2.050000e-06	4.919827e-06	2.443434e-08	3.471644e+01	1.600078e+03
2.060000e-06	4.830195e-06	2.434654e-08	3.408396e+01	1.593976e+03
2.070000e-06	4.739056e-06	2.425337e-08	3.344084e+01	1.588013e+03
2.080000e-06	4.646349e-06	2.418332e-08	3.278665e+01	1.582239e+03
2.090000e-06	4.551863e-06	2.406157e-08	3.211993e+01	1.576581e+03
2.100000e-06	4.455673e-06	2.397947e-08	3.144117e+01	1.570853e+03
2.110000e-06	4.358047e-06	2.386995e-08	3.075228e+01	1.564817e+03
2.120000e-06	4.259054e-06	2.377312e-08	3.005374e+01	1.558254e+03
2.130000e-06	4.158584e-06	2.365818e-08	2.934477e+01	1.551031e+03
2.140000e-06	4.056419e-06	2.354362e-08	2.862386e+01	1.543147e+03
2.150000e-06	3.952631e-06	2.343133e-08	2.789148e+01	1.534730e+03
2.160000e-06	3.847529e-06	2.331597e-08	2.714983e+01	1.525998e+03
2.170000e-06	3.741156e-06	2.320546e-08	2.639922e+01	1.517186e+03
2.180000e-06	3.633552e-06	2.306935e-08	2.563992e+01	1.508468e+03
2.190000e-06	3.524638e-06	2.293554e-08	2.487137e+01	1.499891e+03
2.200000e-06	3.414315e-06	2.278665e-08	2.409289e+01	1.491353e+03
2.210000e-06	3.302573e-06	2.264918e-08	2.330439e+01	1.482619e+03
2.220000e-06	3.189566e-06	2.249897e-08	2.250697e+01	1.473395e+03
2.230000e-06	3.075382e-06	2.234551e-08	2.170123e+01	1.463407e+03
2.240000e-06	2.960041e-06	2.218367e-08	2.088734e+01	1.452489e+03
2.250000e-06	2.843575e-06	2.201388e-08	2.006550e+01	1.440635e+03
2.260000e-06	2.725905e-06	2.183373e-08	1.923517e+01	1.428001e+03
2.270000e-06	2.607026e-06	2.165007e-08	1.839631e+01	1.414855e+03
2.280000e-06	2.487010e-06	2.146694e-08	1.754942e+01	1.401488e+03
2.290000e-06	2.366124e-06	2.126863e-08	1.669640e+01	1.388114e+03
2.300000e-06	2.244531e-06	2.106059e-08	1.583838e+01	1.374782e+03
2.310000e-06	2.122244e-06	2.084012e-08	1.497548e+01	1.361347e+03
2.320000e-06	1.999292e-06	2.061606e-08	1.410787e+01	1.347490e+03
2.330000e-06	1.875657e-06	2.037846e-08	1.323545e+01	1.332804e+03
2.340000e-06	1.751358e-06	2.012975e-08	1.235834e+01	1.316907e+03
2.350000e-06	1.626476e-06	1.986982e-08	1.147712e+01	1.299552e+03
2.360000e-06	1.501079e-06	1.960009e-08	1.059227e+01	1.280705e+03
2.370000e-06	1.375189e-06	1.931738e-08	9.703928e+00	1.260547e+03
2.380000e-06	1.248807e-06	1.901782e-08	8.812126e+00	1.239407e+03
2.390000e-06	1.121965e-06	1.870017e-08	7.917073e+00	1.217643e+03
2.400000e-06	9.946623e-07	1.836052e-08	7.018769e+00	1.195489e+03
2.410000e-06	8.669525e-07	1.800451e-08	6.117593e+00	1.172939e+03
2.420000e-06	7.389505e-07	1.763035e-08	5.214356e+00	1.149683e+03
2.430000e-06	6.107371e-07	1.723496e-08	4.309626e+00	1.125143e+03
2.440000e-06	4.822802e-07	1.681277e-08	3.403179e+00	1.098592e+03
2.450000e-06	3.535947e-07	1.635931e-08	2.495118e+00	1.069330e+03
2.460000e-06	2.247657e-07	1.587300e-08	1.586044e+00	1.036861e+03
2.470000e-06	9.586387e-08	1.535329e-08	6.764571e-01	1.001014e+03
2.480000e-06	-3.304430e-08	1.479672e-08	-2.331749e-01	9.619526e+02
2.490000e-06	-1.619501e-07	1.419023e-08	-1.142790e+00	9.200508e+02
2.500000e-06	-2.908244e-07	1.352691e-08	-2.052184e+00	8.756551e+02
2.510000e-06	-4.195912e-07	1.280286e-08	-2.960818e+00	8.287762e+02
2.520000e-06	-5.482461e-07	1.201089e-08	-3.868662e+00	7.788007e+02
2.530000e-06	-6.767644e-07	1.113924e-08	-4.775544e+00	7.243089e+02
2.540000e-06	-8.050931e-07	1.016758e-08	-5.681087e+00	6.630773e+02
2.550000e-06	-9.331418e-07	9.073985e-09	-6.584654e+00	5.923025e+02
2.560000e-06	-1.060814e-06	7.829893e-09	-7.485566e+00	5.090344e+02
2.570000e-06	-1.188023e-06	6.395876e-09	-8.383207e+00	4.107507e+02
2.580000e-06	-1.314724e-06	4.726353e-09	-9.277266e+00	2.959629e+02
2.590000e-06	-1.440947e-06	2.776432e-09	-1.016795e+01	1.647234e+02
2.600000e-06	-1.566650e-06	5.349564e-10	-1.105496e+01	1.891433e+01
2.610000e-06	-1.691741e-06	-1.912671e-09	-1.193766e+01	-1.377627e+02
2.620000e-06	-1.816106e-06	-4.433300e-09	-1.281523e+01	-3.001181e+02
2.630000e-06	-1.939724e-06	-6.959265e-09	-1.368754e+01	-4.620800e+02
2.640000e-06	-2.062603e-06	-9.424556e-09	-1.455462e+01	-6.174694e+02
2.650000e-06	-2.184678e-06	-1.168019e-08	-1.541604e+01	-7.608015e+02
2.660000e-06	-2.305954e-06	-1.361424e-08	-1.627181e+01	-8.879651e+02
2.670000e-06	-2.426475e-06	-1.522231e-08	-1.712226e+01	-9.966563e+02
2.680000e-06	-2.546124e-06	-1.654263e-08	-1.796655e+01	-1.086497e+03
2.690000e-06	-2.664745e-06	-1.762657e-08	-1.880360e+01	-1.158837e+03
2.700000e-06	-2.782238e-06	-1.852393e-08	-1.963268e+01	-1.216291e+03
2.710000e-06	-2.898515e-06	-1.927282e-08	-2.045318e+01	-1.262139e+03
2.720000e-06	-3.013678e-06	-1.990355e-08	-2.126582e+01	-1.299699e+03
2.730000e-06	-3.127656e-06	-2.043866e-08	-2.207010e+01	-1.331811e+03
2.740000e-06	-3.240325e-06	-2.089582e-08	-2.286514e+01	-1.360520e+03
2.750000e-06	-3.351646e-06	-2.129252e-08	-2.365067e+01	-1.386974e+03
2.760000e-06	-3.461676e-06	-2.164053e-08	-2.442709e+01	-1.411548e+03
2.770000e-06	-3.570567e-06	-2.195089e-08	-2.519547e+01	-1.434104e+03
2.780000e-06	-3.678305e-06	-2.223139e-08	-2.595572e+01	-1.454310e+03
2.790000e-06	-3.784872e-06	-2.248473e-08	-2.670770e+01	-1.471920e+03
2.800000e-06	-3.890184e-06	-2.271565e-08	-2.745083e+01	-1.486965e+03
2.810000e-06	-3.994078e-06	-2.292929e-08	-2.818395e+01	-1.499796e+03
2.820000e-06	-4.096437e-06	-2.312629e-08	-2.890624e+01	-1.511016e+03
2.830000e-06	-4.197210e-06	-2.330601e-08	-2.961734e+01	-1.521317e+03
2.840000e-06	-4.296449e-06	-2.347240e-08	-3.031761e+01	-1.531306e+03
2.850000e-06	-4.394277e-06	-2.362810e-08	-3.100793e+01	-1.541353e+03
2.860000e-06	-4.490654e-06	-2.377380e-08	-3.168800e+01	-1.551532e+03
2.870000e-06	-4.585433e-06	-2.391007e-08	-3.235681e+01	-1.561645e+03
2.880000e-06	-4.678493e-06	-2.403751e-08	-3.301348e+01	-1.571322e+03
2.890000e-06	-4.769934e-06	-2.415731e-08	-3.365873e+01	-1.580168e+03
2.900000e-06	-4.859732e-06	-2.426720e-08	-3.429238e+01	-1.587907e+03
2.910000e-06	-4.947747e-06	-2.436820e-08	-3.491345e+01	-1.594469e+03
2.920000e-06	-5.033874e-06	-2.446414e-08	-3.552120e+01	-1.600017e+03
2.930000e-06	-5.118118e-06	-2.455461e-08	-3.611567e+01	-1.604891e+03
2.940000e-06	-5.200619e-06	-2.464002e-08	-3.669782e+01	-1.609509e+03
