# Temperatura_=_62.99
# Concentracion g/m^3_=_41000.0
# C_Vs_to_Am_M_A/Vsm_=_65563218390.804596
# pendiente_HvsI_1/m_=_3716.3
# ordenada_HvsI_A/m_=_1297.0
# frecuencia_Hz_=_302002.2354911138

Tiempo_(s)	Campo_(V.s)	Magnetizacion_(V.s)	Campo_(kA/m)	Magnetizacion_(A/m)
0.000000e+00	-6.688588e-06	-2.383552e-08	-4.746270e+01	-1.560429e+03
1.000000e-08	-6.684786e-06	-2.382889e-08	-4.743572e+01	-1.560690e+03
2.000000e-08	-6.678797e-06	-2.381765e-08	-4.739322e+01	-1.560467e+03
3.000000e-08	-6.670760e-06	-2.380763e-08	-4.733619e+01	-1.559699e+03
4.000000e-08	-6.660470e-06	-2.379507e-08	-4.726317e+01	-1.558462e+03
5.000000e-08	-6.647704e-06	-2.378011e-08	-4.717259e+01	-1.556953e+03
6.000000e-08	-6.632478e-06	-2.375437e-08	-4.706454e+01	-1.555420e+03
7.000000e-08	-6.614953e-06	-2.372819e-08	-4.694019e+01	-1.554093e+03
8.000000e-08	-6.595306e-06	-2.377375e-08	-4.680076e+01	-1.553110e+03
9.000000e-08	-6.573272e-06	-2.379927e-08	-4.664441e+01	-1.552477e+03
1.000000e-07	-6.548486e-06	-2.373179e-08	-4.646853e+01	-1.552069e+03
1.100000e-07	-6.521098e-06	-2.369213e-08	-4.627418e+01	-1.551668e+03
1.200000e-07	-6.491533e-06	-2.367398e-08	-4.606438e+01	-1.551036e+03
1.300000e-07	-6.460139e-06	-2.355322e-08	-4.584161e+01	-1.549980e+03
1.400000e-07	-6.426948e-06	-2.355298e-08	-4.560608e+01	-1.548418e+03
1.500000e-07	-6.391751e-06	-2.368781e-08	-4.535632e+01	-1.546396e+03
1.600000e-07	-6.354518e-06	-2.353360e-08	-4.509212e+01	-1.544070e+03
1.700000e-07	-6.315275e-06	-2.354593e-08	-4.481364e+01	-1.541653e+03
1.800000e-07	-6.273649e-06	-2.358031e-08	-4.451827e+01	-1.539346e+03
1.900000e-07	-6.229572e-06	-2.341672e-08	-4.420549e+01	-1.537270e+03
2.000000e-07	-6.183279e-06	-2.346141e-08	-4.387699e+01	-1.535430e+03
2.100000e-07	-6.134522e-06	-2.339268e-08	-4.353101e+01	-1.533710e+03
2.200000e-07	-6.083144e-06	-2.330926e-08	-4.316643e+01	-1.531910e+03
2.300000e-07	-6.029262e-06	-2.332457e-08	-4.278408e+01	-1.529815e+03
2.400000e-07	-5.973054e-06	-2.328093e-08	-4.238522e+01	-1.527260e+03
2.500000e-07	-5.914615e-06	-2.325413e-08	-4.197053e+01	-1.524184e+03
2.600000e-07	-5.853959e-06	-2.319595e-08	-4.154011e+01	-1.520655e+03
2.700000e-07	-5.791220e-06	-2.312550e-08	-4.109491e+01	-1.516840e+03
2.800000e-07	-5.726379e-06	-2.305344e-08	-4.063480e+01	-1.512962e+03
2.900000e-07	-5.659323e-06	-2.301618e-08	-4.015896e+01	-1.509217e+03
3.000000e-07	-5.590082e-06	-2.301850e-08	-3.966762e+01	-1.505717e+03
3.100000e-07	-5.518831e-06	-2.294512e-08	-3.916202e+01	-1.502446e+03
3.200000e-07	-5.445548e-06	-2.287182e-08	-3.864200e+01	-1.499267e+03
3.300000e-07	-5.370067e-06	-2.277435e-08	-3.810638e+01	-1.495956e+03
3.400000e-07	-5.292430e-06	-2.270615e-08	-3.755546e+01	-1.492279e+03
3.500000e-07	-5.212645e-06	-2.266583e-08	-3.698930e+01	-1.488061e+03
3.600000e-07	-5.130810e-06	-2.259098e-08	-3.640860e+01	-1.483246e+03
3.700000e-07	-5.047271e-06	-2.253508e-08	-3.581579e+01	-1.477917e+03
3.800000e-07	-4.962167e-06	-2.244568e-08	-3.521189e+01	-1.472270e+03
3.900000e-07	-4.875448e-06	-2.234537e-08	-3.459653e+01	-1.466554e+03
4.000000e-07	-4.787075e-06	-2.226117e-08	-3.396943e+01	-1.460994e+03
4.100000e-07	-4.696920e-06	-2.220227e-08	-3.332968e+01	-1.455709e+03
4.200000e-07	-4.605074e-06	-2.212926e-08	-3.267794e+01	-1.450676e+03
4.300000e-07	-4.511698e-06	-2.203216e-08	-3.201533e+01	-1.445728e+03
4.400000e-07	-4.416745e-06	-2.194359e-08	-3.134154e+01	-1.440601e+03
4.500000e-07	-4.320143e-06	-2.184137e-08	-3.065604e+01	-1.435014e+03
4.600000e-07	-4.221889e-06	-2.173957e-08	-2.995883e+01	-1.428754e+03
4.700000e-07	-4.122180e-06	-2.163910e-08	-2.925129e+01	-1.421746e+03
4.800000e-07	-4.021039e-06	-2.153911e-08	-2.853359e+01	-1.414079e+03
4.900000e-07	-3.918442e-06	-2.142616e-08	-2.780555e+01	-1.405976e+03
5.000000e-07	-3.814549e-06	-2.130589e-08	-2.706831e+01	-1.397728e+03
5.100000e-07	-3.709250e-06	-2.118758e-08	-2.632111e+01	-1.389599e+03
5.200000e-07	-3.602430e-06	-2.106200e-08	-2.556310e+01	-1.381735e+03
5.300000e-07	-3.494253e-06	-2.093383e-08	-2.479547e+01	-1.374110e+03
5.400000e-07	-3.384844e-06	-2.080525e-08	-2.401909e+01	-1.366525e+03
5.500000e-07	-3.274257e-06	-2.067617e-08	-2.323437e+01	-1.358658e+03
5.600000e-07	-3.162508e-06	-2.053400e-08	-2.244139e+01	-1.350159e+03
5.700000e-07	-3.049488e-06	-2.038226e-08	-2.163938e+01	-1.340757e+03
5.800000e-07	-2.935102e-06	-2.022291e-08	-2.082770e+01	-1.330342e+03
5.900000e-07	-2.819376e-06	-2.005713e-08	-2.000650e+01	-1.319007e+03
6.000000e-07	-2.702527e-06	-1.988693e-08	-1.917733e+01	-1.307013e+03
6.100000e-07	-2.584713e-06	-1.971614e-08	-1.834131e+01	-1.294711e+03
6.200000e-07	-2.466021e-06	-1.954130e-08	-1.749906e+01	-1.282426e+03
6.300000e-07	-2.346474e-06	-1.935514e-08	-1.665075e+01	-1.270339e+03
6.400000e-07	-2.226079e-06	-1.915688e-08	-1.579642e+01	-1.258413e+03
6.500000e-07	-2.104925e-06	-1.894790e-08	-1.493670e+01	-1.246389e+03
6.600000e-07	-1.982943e-06	-1.873371e-08	-1.407111e+01	-1.233840e+03
6.700000e-07	-1.860096e-06	-1.851393e-08	-1.319937e+01	-1.220295e+03
6.800000e-07	-1.736503e-06	-1.828561e-08	-1.232235e+01	-1.205375e+03
6.900000e-07	-1.612307e-06	-1.804267e-08	-1.144105e+01	-1.188909e+03
7.000000e-07	-1.487677e-06	-1.778644e-08	-1.055666e+01	-1.170987e+03
7.100000e-07	-1.362680e-06	-1.751806e-08	-9.669674e+00	-1.151930e+03
7.200000e-07	-1.237277e-06	-1.723678e-08	-8.779809e+00	-1.132180e+03
7.300000e-07	-1.111472e-06	-1.694136e-08	-7.887086e+00	-1.112137e+03
7.400000e-07	-9.852760e-07	-1.662972e-08	-6.991589e+00	-1.091992e+03
7.500000e-07	-8.587196e-07	-1.629926e-08	-6.093536e+00	-1.071618e+03
7.600000e-07	-7.318643e-07	-1.594357e-08	-5.193362e+00	-1.050541e+03
7.700000e-07	-6.047505e-07	-1.556399e-08	-4.291353e+00	-1.028025e+03
7.800000e-07	-4.774422e-07	-1.516210e-08	-3.387964e+00	-1.003245e+03
7.900000e-07	-3.499629e-07	-1.473782e-08	-2.483362e+00	-9.754995e+02
8.000000e-07	-2.223248e-07	-1.428432e-08	-1.577633e+00	-9.443982e+02
8.100000e-07	-9.459487e-08	-1.379338e-08	-6.712520e-01	-9.099547e+02
8.200000e-07	3.320149e-08	-1.326089e-08	2.356001e-01	-8.725414e+02
8.300000e-07	1.610208e-07	-1.268108e-08	1.142615e+00	-8.326947e+02
8.400000e-07	2.887991e-07	-1.204845e-08	2.049339e+00	-7.908066e+02
8.500000e-07	4.165134e-07	-1.135505e-08	2.955609e+00	-7.467781e+02
8.600000e-07	5.441452e-07	-1.059027e-08	3.861293e+00	-6.997330e+02
8.700000e-07	6.715989e-07	-9.738189e-09	4.765714e+00	-6.478886e+02
8.800000e-07	7.988320e-07	-8.783098e-09	5.668569e+00	-5.886514e+02
8.900000e-07	9.258136e-07	-7.700032e-09	6.569640e+00	-5.189573e+02
9.000000e-07	1.052455e-06	-6.454217e-09	7.468294e+00	-4.358128e+02
9.100000e-07	1.178733e-06	-5.006773e-09	8.364371e+00	-3.369415e+02
9.200000e-07	1.304620e-06	-3.314715e-09	9.257674e+00	-2.214006e+02
9.300000e-07	1.430073e-06	-1.347760e-09	1.014790e+01	-9.002816e+01
9.400000e-07	1.555055e-06	8.783365e-10	1.103478e+01	5.439140e+01
9.500000e-07	1.679588e-06	3.271464e-09	1.191848e+01	2.073039e+02
9.600000e-07	1.803674e-06	5.714495e-09	1.279900e+01	3.628892e+02
9.700000e-07	1.927214e-06	8.091481e-09	1.367565e+01	5.148081e+02
9.800000e-07	2.049993e-06	1.026999e-08	1.454690e+01	6.570559e+02
9.900000e-07	2.171769e-06	1.215482e-08	1.541103e+01	7.847578e+02
1.000000e-06	2.292542e-06	1.372767e-08	1.626804e+01	8.947589e+02
1.010000e-06	2.412474e-06	1.501724e-08	1.711909e+01	9.859016e+02
1.020000e-06	2.531541e-06	1.606863e-08	1.796400e+01	1.058955e+03
1.030000e-06	2.649686e-06	1.692930e-08	1.880236e+01	1.116232e+03
1.040000e-06	2.766895e-06	1.763851e-08	1.963409e+01	1.160989e+03
1.050000e-06	2.883072e-06	1.822712e-08	2.045848e+01	1.196753e+03
1.060000e-06	2.998069e-06	1.872378e-08	2.127451e+01	1.226707e+03
1.070000e-06	3.111655e-06	1.915060e-08	2.208053e+01	1.253262e+03
1.080000e-06	3.223925e-06	1.952420e-08	2.287720e+01	1.277861e+03
1.090000e-06	3.335132e-06	1.985241e-08	2.366634e+01	1.301037e+03
1.100000e-06	3.445243e-06	2.014315e-08	2.444769e+01	1.322654e+03
1.110000e-06	3.554198e-06	2.040241e-08	2.522085e+01	1.342254e+03
1.120000e-06	3.662015e-06	2.063689e-08	2.598592e+01	1.359399e+03
1.130000e-06	3.768591e-06	2.085109e-08	2.674219e+01	1.373923e+03
1.140000e-06	3.873730e-06	2.104724e-08	2.748827e+01	1.386043e+03
1.150000e-06	3.977444e-06	2.122930e-08	2.822423e+01	1.396318e+03
1.160000e-06	4.079801e-06	2.139917e-08	2.895056e+01	1.405498e+03
1.170000e-06	4.180761e-06	2.155849e-08	2.966698e+01	1.414315e+03
1.180000e-06	4.280286e-06	2.170587e-08	3.037322e+01	1.423292e+03
1.190000e-06	4.378198e-06	2.184263e-08	3.106800e+01	1.432631e+03
1.200000e-06	4.474387e-06	2.196993e-08	3.175057e+01	1.442198e+03
1.210000e-06	4.568935e-06	2.208786e-08	3.242149e+01	1.451610e+03
1.220000e-06	4.661968e-06	2.219855e-08	3.308166e+01	1.460389e+03
1.230000e-06	4.753542e-06	2.230397e-08	3.373148e+01	1.468134e+03
1.240000e-06	4.843361e-06	2.240133e-08	3.436884e+01	1.474650e+03
1.250000e-06	4.931281e-06	2.249192e-08	3.499272e+01	1.480013e+03
1.260000e-06	5.017469e-06	2.257895e-08	3.560432e+01	1.484535e+03
1.270000e-06	5.101986e-06	2.266469e-08	3.620406e+01	1.488672e+03
1.280000e-06	5.184767e-06	2.274771e-08	3.679148e+01	1.492879e+03
1.290000e-06	5.265562e-06	2.282644e-08	3.736480e+01	1.497483e+03
1.300000e-06	5.344328e-06	2.289941e-08	3.792374e+01	1.502591e+03
1.310000e-06	5.421218e-06	2.296775e-08	3.846936e+01	1.508077e+03
1.320000e-06	5.496002e-06	2.303210e-08	3.900002e+01	1.513636e+03
1.330000e-06	5.568522e-06	2.309375e-08	3.951463e+01	1.518888e+03
1.340000e-06	5.639016e-06	2.315275e-08	4.001486e+01	1.523502e+03
1.350000e-06	5.707624e-06	2.320879e-08	4.050171e+01	1.527297e+03
1.360000e-06	5.774212e-06	2.326272e-08	4.097422e+01	1.530294e+03
1.370000e-06	5.838623e-06	2.331271e-08	4.143129e+01	1.532697e+03
1.380000e-06	5.901021e-06	2.335950e-08	4.187407e+01	1.534831e+03
1.390000e-06	5.961552e-06	2.340438e-08	4.230360e+01	1.537029e+03
1.400000e-06	6.019972e-06	2.344607e-08	4.271815e+01	1.539536e+03
1.410000e-06	6.076157e-06	2.348455e-08	4.311684e+01	1.542435e+03
1.420000e-06	6.130182e-06	2.352091e-08	4.350021e+01	1.545628e+03
1.430000e-06	6.181830e-06	2.355526e-08	4.386671e+01	1.548878e+03
1.440000e-06	6.230913e-06	2.358820e-08	4.421501e+01	1.551885e+03
1.450000e-06	6.277669e-06	2.361875e-08	4.454679e+01	1.554388e+03
1.460000e-06	6.322349e-06	2.364815e-08	4.486385e+01	1.556243e+03
1.470000e-06	6.364827e-06	2.367569e-08	4.516527e+01	1.557469e+03
1.480000e-06	6.404909e-06	2.369994e-08	4.544969e+01	1.558241e+03
1.490000e-06	6.442759e-06	2.372050e-08	4.571828e+01	1.558827e+03
1.500000e-06	6.478455e-06	2.373894e-08	4.597158e+01	1.559512e+03
1.510000e-06	6.511845e-06	2.375677e-08	4.620852e+01	1.560502e+03
1.520000e-06	6.542923e-06	2.377449e-08	4.642905e+01	1.561865e+03
1.530000e-06	6.571754e-06	2.379246e-08	4.663364e+01	1.563518e+03
1.540000e-06	6.598178e-06	2.380880e-08	4.682115e+01	1.565252e+03
1.550000e-06	6.622094e-06	2.382323e-08	4.699086e+01	1.566800e+03
1.560000e-06	6.643741e-06	2.383474e-08	4.714446e+01	1.567931e+03
1.570000e-06	6.663183e-06	2.384265e-08	4.728243e+01	1.568511e+03
1.580000e-06	6.680180e-06	2.385051e-08	4.740304e+01	1.568554e+03
1.590000e-06	6.694662e-06	2.386011e-08	4.750580e+01	1.568209e+03
1.600000e-06	6.706579e-06	2.386926e-08	4.759037e+01	1.567719e+03
1.610000e-06	6.715826e-06	2.387608e-08	4.765598e+01	1.567334e+03
1.620000e-06	6.722548e-06	2.387999e-08	4.770368e+01	1.567244e+03
1.630000e-06	6.727020e-06	2.388246e-08	4.773541e+01	1.567510e+03
1.640000e-06	6.729181e-06	2.388513e-08	4.775075e+01	1.568053e+03
1.650000e-06	6.728887e-06	2.388451e-08	4.774866e+01	1.568677e+03
1.660000e-06	6.726374e-06	2.387599e-08	4.773084e+01	1.569131e+03
1.670000e-06	6.721726e-06	2.387258e-08	4.769785e+01	1.569186e+03
1.680000e-06	6.714797e-06	2.386872e-08	4.764868e+01	1.568712e+03
1.690000e-06	6.705670e-06	2.386151e-08	4.758392e+01	1.567711e+03
1.700000e-06	6.694406e-06	2.385624e-08	4.750398e+01	1.566321e+03
1.710000e-06	6.680751e-06	2.386101e-08	4.740709e+01	1.564772e+03
1.720000e-06	6.664828e-06	2.387075e-08	4.729410e+01	1.563313e+03
1.730000e-06	6.646887e-06	2.377988e-08	4.716679e+01	1.562139e+03
1.740000e-06	6.626468e-06	2.371702e-08	4.702190e+01	1.561328e+03
1.750000e-06	6.602952e-06	2.375466e-08	4.685503e+01	1.560825e+03
1.760000e-06	6.576503e-06	2.373945e-08	4.666734e+01	1.560453e+03
1.770000e-06	6.547688e-06	2.376210e-08	4.646287e+01	1.559976e+03
1.780000e-06	6.516905e-06	2.385598e-08	4.624443e+01	1.559168e+03
1.790000e-06	6.484677e-06	2.369442e-08	4.601573e+01	1.557883e+03
1.800000e-06	6.450725e-06	2.367099e-08	4.577481e+01	1.556097e+03
1.810000e-06	6.414349e-06	2.372519e-08	4.551668e+01	1.553911e+03
1.820000e-06	6.375707e-06	2.354895e-08	4.524248e+01	1.551518e+03
1.830000e-06	6.334880e-06	2.367921e-08	4.495277e+01	1.549133e+03
1.840000e-06	6.291916e-06	2.362721e-08	4.464789e+01	1.546928e+03
1.850000e-06	6.246886e-06	2.348322e-08	4.432835e+01	1.544972e+03
1.860000e-06	6.199486e-06	2.359233e-08	4.399200e+01	1.543211e+03
1.870000e-06	6.149833e-06	2.347397e-08	4.363966e+01	1.541484e+03
1.880000e-06	6.097812e-06	2.347430e-08	4.327051e+01	1.539575e+03
1.890000e-06	6.043121e-06	2.340784e-08	4.288242e+01	1.537284e+03
1.900000e-06	5.986074e-06	2.327519e-08	4.247761e+01	1.534490e+03
1.910000e-06	5.926904e-06	2.337218e-08	4.205774e+01	1.531191e+03
1.920000e-06	5.865556e-06	2.331192e-08	4.162241e+01	1.527506e+03
1.930000e-06	5.802005e-06	2.329215e-08	4.117144e+01	1.523637e+03
1.940000e-06	5.736301e-06	2.317319e-08	4.070521e+01	1.519802e+03
1.950000e-06	5.668487e-06	2.308932e-08	4.022399e+01	1.516167e+03
1.960000e-06	5.598374e-06	2.310407e-08	3.972647e+01	1.512786e+03
1.970000e-06	5.526046e-06	2.298938e-08	3.921322e+01	1.509584e+03
1.980000e-06	5.451750e-06	2.299514e-08	3.868601e+01	1.506377e+03
1.990000e-06	5.375339e-06	2.292354e-08	3.814379e+01	1.502926e+03
2.000000e-06	5.296758e-06	2.285182e-08	3.758618e+01	1.499016e+03
2.010000e-06	5.216177e-06	2.276695e-08	3.701436e+01	1.494522e+03
2.020000e-06	5.133859e-06	2.266701e-08	3.643023e+01	1.489453e+03
2.030000e-06	5.049856e-06	2.266411e-08	3.583414e+01	1.483949e+03
2.040000e-06	4.963973e-06	2.258501e-08	3.522471e+01	1.478242e+03
2.050000e-06	4.876178e-06	2.250780e-08	3.460171e+01	1.472578e+03
2.060000e-06	4.786732e-06	2.240574e-08	3.396699e+01	1.467141e+03
2.070000e-06	4.695817e-06	2.233426e-08	3.332185e+01	1.461988e+03
2.080000e-06	4.603308e-06	2.224633e-08	3.266541e+01	1.457025e+03
2.090000e-06	4.509063e-06	2.214095e-08	3.199663e+01	1.452033e+03
2.100000e-06	4.413175e-06	2.206224e-08	3.131620e+01	1.446728e+03
2.110000e-06	4.315873e-06	2.196771e-08	3.062574e+01	1.440850e+03
2.120000e-06	4.217221e-06	2.188112e-08	2.992571e+01	1.434245e+03
2.130000e-06	4.117067e-06	2.176659e-08	2.921501e+01	1.426914e+03
2.140000e-06	4.015210e-06	2.165967e-08	2.849222e+01	1.419013e+03
2.150000e-06	3.911729e-06	2.154404e-08	2.775791e+01	1.410809e+03
2.160000e-06	3.806834e-06	2.144372e-08	2.701357e+01	1.402591e+03
2.170000e-06	3.700664e-06	2.133528e-08	2.626018e+01	1.394579e+03
2.180000e-06	3.593339e-06	2.121005e-08	2.549859e+01	1.386843e+03
2.190000e-06	3.484794e-06	2.107662e-08	2.472835e+01	1.379274e+03
2.200000e-06	3.374874e-06	2.093897e-08	2.394835e+01	1.371604e+03
2.210000e-06	3.263558e-06	2.080759e-08	2.315844e+01	1.363488e+03
2.220000e-06	3.150981e-06	2.066680e-08	2.235959e+01	1.354598e+03
2.230000e-06	3.037239e-06	2.052629e-08	2.155247e+01	1.344730e+03
2.240000e-06	2.922393e-06	2.037520e-08	2.073751e+01	1.333868e+03
2.250000e-06	2.806418e-06	2.021318e-08	1.991454e+01	1.322188e+03
2.260000e-06	2.689239e-06	2.003836e-08	1.908304e+01	1.310009e+03
2.270000e-06	2.570826e-06	1.986770e-08	1.824277e+01	1.297684e+03
2.280000e-06	2.451292e-06	1.969232e-08	1.739454e+01	1.285483e+03
2.290000e-06	2.330900e-06	1.950466e-08	1.654023e+01	1.273493e+03
2.300000e-06	2.209755e-06	1.930497e-08	1.568058e+01	1.261569e+03
2.310000e-06	2.087907e-06	1.909943e-08	1.481594e+01	1.249362e+03
2.320000e-06	1.965396e-06	1.888665e-08	1.394659e+01	1.236410e+03
2.330000e-06	1.842247e-06	1.865853e-08	1.307272e+01	1.222266e+03
2.340000e-06	1.718487e-06	1.842059e-08	1.219451e+01	1.206636e+03
2.350000e-06	1.594172e-06	1.817604e-08	1.131236e+01	1.189470e+03
2.360000e-06	1.469381e-06	1.792523e-08	1.042683e+01	1.170973e+03
2.370000e-06	1.344154e-06	1.765762e-08	9.538213e+00	1.151541e+03
2.380000e-06	1.218466e-06	1.737057e-08	8.646324e+00	1.131617e+03
2.390000e-06	1.092248e-06	1.706213e-08	7.750669e+00	1.111523e+03
2.400000e-06	9.655690e-07	1.673670e-08	6.851747e+00	1.091312e+03
2.410000e-06	8.384676e-07	1.639963e-08	5.949826e+00	1.070692e+03
2.420000e-06	7.110245e-07	1.604681e-08	5.045481e+00	1.049051e+03
2.430000e-06	5.833385e-07	1.567184e-08	4.139412e+00	1.025587e+03
2.440000e-06	4.553964e-07	1.526608e-08	3.231526e+00	9.995047e+02
2.450000e-06	3.273099e-07	1.482453e-08	2.322615e+00	9.702288e+02
2.460000e-06	1.991901e-07	1.435025e-08	1.413467e+00	9.375522e+02
2.470000e-06	7.098858e-08	1.384485e-08	5.037401e-01	9.016702e+02
2.480000e-06	-5.728533e-08	1.329978e-08	-4.065008e-01	8.630638e+02
2.490000e-06	-1.855573e-07	1.270256e-08	-1.316728e+00	8.222451e+02
2.500000e-06	-3.137883e-07	1.204636e-08	-2.226664e+00	7.794201e+02
2.510000e-06	-4.419386e-07	1.132503e-08	-3.136028e+00	7.341572e+02
2.520000e-06	-5.699948e-07	1.052820e-08	-4.044724e+00	6.851625e+02
2.530000e-06	-6.978973e-07	9.640526e-09	-4.952330e+00	6.302501e+02
2.540000e-06	-8.255672e-07	8.639093e-09	-5.858284e+00	5.665518e+02
2.550000e-06	-9.529418e-07	7.498834e-09	-6.762144e+00	4.909598e+02
2.560000e-06	-1.079923e-06	6.185210e-09	-7.663208e+00	4.007315e+02
2.570000e-06	-1.206377e-06	4.655268e-09	-8.560539e+00	2.941402e+02
2.580000e-06	-1.332177e-06	2.867550e-09	-9.453225e+00	1.710293e+02
2.590000e-06	-1.457331e-06	7.998113e-10	-1.034132e+01	3.314017e+01
2.600000e-06	-1.582013e-06	-1.515344e-09	-1.122608e+01	-1.158782e+02
2.610000e-06	-1.706224e-06	-3.977993e-09	-1.210749e+01	-2.708036e+02
2.620000e-06	-1.829763e-06	-6.455545e-09	-1.298413e+01	-4.254720e+02
2.630000e-06	-1.952528e-06	-8.804883e-09	-1.385528e+01	-5.735931e+02
2.640000e-06	-2.074499e-06	-1.090092e-08	-1.472079e+01	-7.095971e+02
2.650000e-06	-2.195650e-06	-1.268663e-08	-1.558049e+01	-8.293516e+02
2.660000e-06	-2.316123e-06	-1.416691e-08	-1.643538e+01	-9.306157e+02
2.670000e-06	-2.435973e-06	-1.537632e-08	-1.728584e+01	-1.013156e+03
2.680000e-06	-2.554872e-06	-1.636040e-08	-1.812955e+01	-1.078522e+03
2.690000e-06	-2.672539e-06	-1.716737e-08	-1.896453e+01	-1.129546e+03
2.700000e-06	-2.788986e-06	-1.783937e-08	-1.979085e+01	-1.169694e+03
2.710000e-06	-2.904342e-06	-1.840436e-08	-2.060942e+01	-1.202401e+03
2.720000e-06	-3.018606e-06	-1.888135e-08	-2.142025e+01	-1.230532e+03
2.730000e-06	-3.131589e-06	-1.928785e-08	-2.222198e+01	-1.256056e+03
2.740000e-06	-3.243245e-06	-1.964016e-08	-2.301430e+01	-1.279973e+03
2.750000e-06	-3.353610e-06	-1.995016e-08	-2.379746e+01	-1.302468e+03
2.760000e-06	-3.462747e-06	-2.022607e-08	-2.457190e+01	-1.323208e+03
2.770000e-06	-3.570852e-06	-2.047666e-08	-2.533902e+01	-1.341708e+03
2.780000e-06	-3.677884e-06	-2.070620e-08	-2.609853e+01	-1.357632e+03
2.790000e-06	-3.783676e-06	-2.091530e-08	-2.684924e+01	-1.370987e+03
2.800000e-06	-3.888166e-06	-2.110418e-08	-2.759071e+01	-1.382162e+03
2.810000e-06	-3.991166e-06	-2.127741e-08	-2.832160e+01	-1.391829e+03
2.820000e-06	-4.092556e-06	-2.143983e-08	-2.904107e+01	-1.400755e+03
2.830000e-06	-4.192485e-06	-2.159296e-08	-2.975018e+01	-1.409596e+03
2.840000e-06	-4.291020e-06	-2.173760e-08	-3.044939e+01	-1.418736e+03
2.850000e-06	-4.388144e-06	-2.187282e-08	-3.113858e+01	-1.428213e+03
2.860000e-06	-4.483799e-06	-2.199881e-08	-3.181736e+01	-1.437762e+03
2.870000e-06	-4.577757e-06	-2.211559e-08	-3.248409e+01	-1.446936e+03
2.880000e-06	-4.669993e-06	-2.222364e-08	-3.313861e+01	-1.455272e+03
2.890000e-06	-4.760638e-06	-2.232413e-08	-3.378183e+01	-1.462452e+03
2.900000e-06	-4.849604e-06	-2.241702e-08	-3.441314e+01	-1.468404e+03
2.910000e-06	-4.936701e-06	-2.250547e-08	-3.503119e+01	-1.473323e+03
2.920000e-06	-5.021901e-06	-2.259136e-08	-3.563577e+01	-1.477604e+03
2.930000e-06	-5.105380e-06	-2.267363e-08	-3.622815e+01	-1.481719e+03
2.940000e-06	-5.187206e-06	-2.275307e-08	-3.680879e+01	-1.486079e+03
