# Temperatura_=_90.8
# Concentracion g/m^3_=_41000.0
# C_Vs_to_Am_M_A/Vsm_=_65563218390.804596
# pendiente_HvsI_1/m_=_3716.3
# ordenada_HvsI_A/m_=_1297.0
# frecuencia_Hz_=_301998.6947995232

Tiempo_(s)	Campo_(V.s)	Magnetizacion_(V.s)	Campo_(kA/m)	Magnetizacion_(A/m)
0.000000e+00	-6.719747e-06	-2.357711e-08	-4.747041e+01	-1.544953e+03
1.000000e-08	-6.716487e-06	-2.357575e-08	-4.744739e+01	-1.544993e+03
2.000000e-08	-6.710999e-06	-2.356818e-08	-4.740861e+01	-1.544453e+03
3.000000e-08	-6.703402e-06	-2.355849e-08	-4.735495e+01	-1.543350e+03
4.000000e-08	-6.693537e-06	-2.354541e-08	-4.728526e+01	-1.541836e+03
5.000000e-08	-6.681264e-06	-2.352717e-08	-4.719856e+01	-1.540162e+03
6.000000e-08	-6.666535e-06	-2.350231e-08	-4.709451e+01	-1.538587e+03
7.000000e-08	-6.649463e-06	-2.347002e-08	-4.697390e+01	-1.537309e+03
8.000000e-08	-6.630181e-06	-2.347690e-08	-4.683769e+01	-1.536397e+03
9.000000e-08	-6.608502e-06	-2.352288e-08	-4.668454e+01	-1.535777e+03
1.000000e-07	-6.584146e-06	-2.348847e-08	-4.651249e+01	-1.535256e+03
1.100000e-07	-6.557147e-06	-2.342443e-08	-4.632175e+01	-1.534582e+03
1.200000e-07	-6.527858e-06	-2.340406e-08	-4.611485e+01	-1.533533e+03
1.300000e-07	-6.496665e-06	-2.333630e-08	-4.589449e+01	-1.531979e+03
1.400000e-07	-6.463671e-06	-2.324940e-08	-4.566141e+01	-1.529929e+03
1.500000e-07	-6.428655e-06	-2.333486e-08	-4.541405e+01	-1.527522e+03
1.600000e-07	-6.391564e-06	-2.329225e-08	-4.515203e+01	-1.524986e+03
1.700000e-07	-6.352500e-06	-2.317900e-08	-4.487606e+01	-1.522558e+03
1.800000e-07	-6.311160e-06	-2.324423e-08	-4.458402e+01	-1.520409e+03
1.900000e-07	-6.267392e-06	-2.316042e-08	-4.427484e+01	-1.518582e+03
2.000000e-07	-6.221371e-06	-2.314726e-08	-4.394973e+01	-1.516974e+03
2.100000e-07	-6.172860e-06	-2.317733e-08	-4.360703e+01	-1.515365e+03
2.200000e-07	-6.121717e-06	-2.306513e-08	-4.324574e+01	-1.513482e+03
2.300000e-07	-6.068131e-06	-2.300782e-08	-4.286719e+01	-1.511081e+03
2.400000e-07	-6.012154e-06	-2.294873e-08	-4.247175e+01	-1.508025e+03
2.500000e-07	-5.953828e-06	-2.289583e-08	-4.205972e+01	-1.504327e+03
2.600000e-07	-5.893309e-06	-2.286407e-08	-4.163219e+01	-1.500146e+03
2.700000e-07	-5.830745e-06	-2.280664e-08	-4.119022e+01	-1.495740e+03
2.800000e-07	-5.766103e-06	-2.274169e-08	-4.073357e+01	-1.491390e+03
2.900000e-07	-5.699203e-06	-2.265692e-08	-4.026097e+01	-1.487305e+03
3.000000e-07	-5.630058e-06	-2.262076e-08	-3.977251e+01	-1.483568e+03
3.100000e-07	-5.558905e-06	-2.257012e-08	-3.926986e+01	-1.480097e+03
3.200000e-07	-5.485723e-06	-2.250258e-08	-3.875288e+01	-1.476681e+03
3.300000e-07	-5.410305e-06	-2.243346e-08	-3.822010e+01	-1.473038e+03
3.400000e-07	-5.332696e-06	-2.234173e-08	-3.767184e+01	-1.468905e+03
3.500000e-07	-5.252916e-06	-2.227663e-08	-3.710826e+01	-1.464123e+03
3.600000e-07	-5.171094e-06	-2.219789e-08	-3.653024e+01	-1.458686e+03
3.700000e-07	-5.087573e-06	-2.213312e-08	-3.594022e+01	-1.452743e+03
3.800000e-07	-5.002453e-06	-2.206386e-08	-3.533891e+01	-1.446553e+03
3.900000e-07	-4.915744e-06	-2.196556e-08	-3.472637e+01	-1.440404e+03
4.000000e-07	-4.827371e-06	-2.186839e-08	-3.410207e+01	-1.434518e+03
4.100000e-07	-4.737182e-06	-2.178382e-08	-3.346495e+01	-1.428978e+03
4.200000e-07	-4.645317e-06	-2.170088e-08	-3.281599e+01	-1.423700e+03
4.300000e-07	-4.551899e-06	-2.159697e-08	-3.215605e+01	-1.418451e+03
4.400000e-07	-4.456918e-06	-2.149571e-08	-3.148507e+01	-1.412923e+03
4.500000e-07	-4.360297e-06	-2.139514e-08	-3.080251e+01	-1.406823e+03
4.600000e-07	-4.261982e-06	-2.128910e-08	-3.010799e+01	-1.399972e+03
4.700000e-07	-4.162165e-06	-2.118596e-08	-2.940285e+01	-1.392356e+03
4.800000e-07	-4.060913e-06	-2.108104e-08	-2.868757e+01	-1.384138e+03
4.900000e-07	-3.958230e-06	-2.096509e-08	-2.796219e+01	-1.375605e+03
5.000000e-07	-3.854177e-06	-2.083633e-08	-2.722712e+01	-1.367078e+03
5.100000e-07	-3.748616e-06	-2.070990e-08	-2.648141e+01	-1.358805e+03
5.200000e-07	-3.641605e-06	-2.058199e-08	-2.572545e+01	-1.350875e+03
5.300000e-07	-3.533290e-06	-2.044811e-08	-2.496027e+01	-1.343185e+03
5.400000e-07	-3.423670e-06	-2.031197e-08	-2.418589e+01	-1.335455e+03
5.500000e-07	-3.312820e-06	-2.017250e-08	-2.340281e+01	-1.327315e+03
5.600000e-07	-3.200808e-06	-2.002704e-08	-2.261152e+01	-1.318411e+03
5.700000e-07	-3.087474e-06	-1.987629e-08	-2.181089e+01	-1.308519e+03
5.800000e-07	-2.972675e-06	-1.972236e-08	-2.099992e+01	-1.297617e+03
5.900000e-07	-2.856591e-06	-1.956092e-08	-2.017986e+01	-1.285897e+03
6.000000e-07	-2.739416e-06	-1.939017e-08	-1.935210e+01	-1.273701e+03
6.100000e-07	-2.621275e-06	-1.921260e-08	-1.851752e+01	-1.261419e+03
6.200000e-07	-2.502228e-06	-1.902971e-08	-1.767653e+01	-1.249351e+03
6.300000e-07	-2.382320e-06	-1.884058e-08	-1.682946e+01	-1.237602e+03
6.400000e-07	-2.261508e-06	-1.864505e-08	-1.597601e+01	-1.226027e+03
6.500000e-07	-2.139803e-06	-1.844287e-08	-1.511625e+01	-1.214258e+03
6.600000e-07	-2.017290e-06	-1.823101e-08	-1.425077e+01	-1.201799e+03
6.700000e-07	-1.894007e-06	-1.801025e-08	-1.337986e+01	-1.188174e+03
6.800000e-07	-1.770050e-06	-1.778016e-08	-1.250419e+01	-1.173069e+03
6.900000e-07	-1.645445e-06	-1.753994e-08	-1.162394e+01	-1.156435e+03
7.000000e-07	-1.520310e-06	-1.729002e-08	-1.073995e+01	-1.138503e+03
7.100000e-07	-1.394793e-06	-1.702946e-08	-9.853257e+00	-1.119712e+03
7.200000e-07	-1.268870e-06	-1.675699e-08	-8.963696e+00	-1.100556e+03
7.300000e-07	-1.142527e-06	-1.646833e-08	-8.071169e+00	-1.081401e+03
7.400000e-07	-1.015831e-06	-1.616175e-08	-7.176154e+00	-1.062324e+03
7.500000e-07	-8.888560e-07	-1.583750e-08	-6.279159e+00	-1.043027e+03
7.600000e-07	-7.615673e-07	-1.549424e-08	-5.379951e+00	-1.022864e+03
7.700000e-07	-6.340090e-07	-1.513281e-08	-4.478840e+00	-1.000981e+03
7.800000e-07	-5.062561e-07	-1.474974e-08	-3.576353e+00	-9.765309e+02
7.900000e-07	-3.782873e-07	-1.433838e-08	-2.672341e+00	-9.489030e+02
8.000000e-07	-2.501912e-07	-1.389361e-08	-1.767429e+00	-9.178864e+02
8.100000e-07	-1.219418e-07	-1.340963e-08	-8.614353e-01	-8.837081e+02
8.200000e-07	6.468174e-09	-1.288415e-08	4.569322e-02	-8.469066e+02
8.300000e-07	1.348820e-07	-1.231154e-08	9.528491e-01	-8.080557e+02
8.400000e-07	2.632085e-07	-1.168549e-08	1.859388e+00	-7.673976e+02
8.500000e-07	3.914529e-07	-1.099776e-08	2.765347e+00	-7.244810e+02
8.600000e-07	5.196430e-07	-1.023088e-08	3.670922e+00	-6.779162e+02
8.700000e-07	6.477159e-07	-9.366546e-09	4.575669e+00	-6.253397e+02
8.800000e-07	7.755642e-07	-8.385820e-09	5.478830e+00	-5.636411e+02
8.900000e-07	9.031405e-07	-7.257094e-09	6.380069e+00	-4.894428e+02
9.000000e-07	1.030382e-06	-5.938594e-09	7.278945e+00	-3.997565e+02
9.100000e-07	1.157226e-06	-4.383093e-09	8.175009e+00	-2.926896e+02
9.200000e-07	1.283705e-06	-2.546020e-09	9.068498e+00	-1.680475e+02
9.300000e-07	1.409771e-06	-4.104584e-10	9.959064e+00	-2.768875e+01
9.400000e-07	1.535397e-06	1.950386e-09	1.084653e+01	1.244654e+02
9.500000e-07	1.660600e-06	4.399209e-09	1.173100e+01	2.827967e+02
9.600000e-07	1.785277e-06	6.846882e-09	1.261176e+01	4.406776e+02
9.700000e-07	1.909375e-06	9.196711e-09	1.348843e+01	5.913596e+02
9.800000e-07	2.032766e-06	1.129449e-08	1.436010e+01	7.288938e+02
9.900000e-07	2.155300e-06	1.304724e-08	1.522572e+01	8.489084e+02
1.000000e-06	2.276948e-06	1.446340e-08	1.608508e+01	9.490982e+02
1.010000e-06	2.397657e-06	1.559434e-08	1.693781e+01	1.029344e+03
1.020000e-06	2.517396e-06	1.649850e-08	1.778368e+01	1.091460e+03
1.030000e-06	2.636176e-06	1.722791e-08	1.862278e+01	1.138640e+03
1.040000e-06	2.754070e-06	1.782525e-08	1.945562e+01	1.174740e+03
1.050000e-06	2.871034e-06	1.832182e-08	2.028189e+01	1.203553e+03
1.060000e-06	2.986834e-06	1.874059e-08	2.109994e+01	1.228210e+03
1.070000e-06	3.101315e-06	1.910069e-08	2.190867e+01	1.250835e+03
1.080000e-06	3.214509e-06	1.941636e-08	2.270831e+01	1.272460e+03
1.090000e-06	3.326488e-06	1.969618e-08	2.349936e+01	1.293204e+03
1.100000e-06	3.437280e-06	1.994799e-08	2.428203e+01	1.312610e+03
1.110000e-06	3.546954e-06	2.017648e-08	2.505680e+01	1.330044e+03
1.120000e-06	3.655541e-06	2.038612e-08	2.582389e+01	1.345046e+03
1.130000e-06	3.762910e-06	2.058246e-08	2.658238e+01	1.357541e+03
1.140000e-06	3.868924e-06	2.076524e-08	2.733130e+01	1.367889e+03
1.150000e-06	3.973454e-06	2.093356e-08	2.806973e+01	1.376778e+03
1.160000e-06	4.076465e-06	2.108887e-08	2.879744e+01	1.385023e+03
1.170000e-06	4.178092e-06	2.123375e-08	2.951536e+01	1.393327e+03
1.180000e-06	4.278321e-06	2.137159e-08	3.022341e+01	1.402107e+03
1.190000e-06	4.377045e-06	2.150278e-08	3.092083e+01	1.411408e+03
1.200000e-06	4.474097e-06	2.162656e-08	3.160643e+01	1.420937e+03
1.210000e-06	4.569419e-06	2.174179e-08	3.227982e+01	1.430199e+03
1.220000e-06	4.663174e-06	2.184974e-08	3.294214e+01	1.438674e+03
1.230000e-06	4.755457e-06	2.195159e-08	3.359405e+01	1.445993e+03
1.240000e-06	4.846147e-06	2.204726e-08	3.423471e+01	1.452054e+03
1.250000e-06	4.934951e-06	2.213812e-08	3.486205e+01	1.457044e+03
1.260000e-06	5.021845e-06	2.222631e-08	3.547590e+01	1.461375e+03
1.270000e-06	5.106985e-06	2.231292e-08	3.607735e+01	1.465551e+03
1.280000e-06	5.190402e-06	2.239648e-08	3.666664e+01	1.470014e+03
1.290000e-06	5.271924e-06	2.247600e-08	3.724254e+01	1.475021e+03
1.300000e-06	5.351440e-06	2.255148e-08	3.780426e+01	1.480575e+03
1.310000e-06	5.429014e-06	2.262308e-08	3.835227e+01	1.486446e+03
1.320000e-06	5.504564e-06	2.269038e-08	3.888598e+01	1.492256e+03
1.330000e-06	5.577947e-06	2.275424e-08	3.940438e+01	1.497603e+03
1.340000e-06	5.649200e-06	2.281621e-08	3.990773e+01	1.502190e+03
1.350000e-06	5.718473e-06	2.287730e-08	4.039710e+01	1.505912e+03
1.360000e-06	5.785778e-06	2.293535e-08	4.087256e+01	1.508883e+03
1.370000e-06	5.850998e-06	2.298975e-08	4.133330e+01	1.511386e+03
1.380000e-06	5.914116e-06	2.304206e-08	4.177918e+01	1.513784e+03
1.390000e-06	5.975246e-06	2.309227e-08	4.221102e+01	1.516401e+03
1.400000e-06	6.034400e-06	2.314030e-08	4.262891e+01	1.519427e+03
1.410000e-06	6.091388e-06	2.318481e-08	4.303148e+01	1.522859e+03
1.420000e-06	6.146128e-06	2.322510e-08	4.341818e+01	1.526516e+03
1.430000e-06	6.198562e-06	2.326275e-08	4.378859e+01	1.530099e+03
1.440000e-06	6.248457e-06	2.329951e-08	4.414107e+01	1.533292e+03
1.450000e-06	6.295875e-06	2.333529e-08	4.447605e+01	1.535860e+03
1.460000e-06	6.341113e-06	2.336893e-08	4.479562e+01	1.537725e+03
1.470000e-06	6.384246e-06	2.339899e-08	4.510033e+01	1.538983e+03
1.480000e-06	6.425053e-06	2.342571e-08	4.538860e+01	1.539872e+03
1.490000e-06	6.463547e-06	2.345008e-08	4.566053e+01	1.540697e+03
1.500000e-06	6.499924e-06	2.347456e-08	4.591751e+01	1.541729e+03
1.510000e-06	6.534039e-06	2.349848e-08	4.615851e+01	1.543124e+03
1.520000e-06	6.565693e-06	2.351828e-08	4.638212e+01	1.544877e+03
1.530000e-06	6.595034e-06	2.353623e-08	4.658940e+01	1.546831e+03
1.540000e-06	6.622147e-06	2.355252e-08	4.678094e+01	1.548724e+03
1.550000e-06	6.646811e-06	2.356609e-08	4.695517e+01	1.550283e+03
1.560000e-06	6.669053e-06	2.357783e-08	4.711230e+01	1.551302e+03
1.570000e-06	6.689075e-06	2.358764e-08	4.725373e+01	1.551716e+03
1.580000e-06	6.706743e-06	2.359824e-08	4.737855e+01	1.551614e+03
1.590000e-06	6.721856e-06	2.360908e-08	4.748531e+01	1.551212e+03
1.600000e-06	6.734384e-06	2.361908e-08	4.757382e+01	1.550784e+03
1.610000e-06	6.744237e-06	2.362695e-08	4.764342e+01	1.550576e+03
1.620000e-06	6.751548e-06	2.363133e-08	4.769506e+01	1.550726e+03
1.630000e-06	6.756561e-06	2.363374e-08	4.773048e+01	1.551226e+03
1.640000e-06	6.759217e-06	2.363497e-08	4.774924e+01	1.551921e+03
1.650000e-06	6.759430e-06	2.363548e-08	4.775075e+01	1.552562e+03
1.660000e-06	6.757370e-06	2.362689e-08	4.773619e+01	1.552884e+03
1.670000e-06	6.753188e-06	2.361831e-08	4.770665e+01	1.552686e+03
1.680000e-06	6.746721e-06	2.361276e-08	4.766097e+01	1.551895e+03
1.690000e-06	6.738019e-06	2.360441e-08	4.759949e+01	1.550592e+03
1.700000e-06	6.727235e-06	2.359610e-08	4.752331e+01	1.548978e+03
1.710000e-06	6.714159e-06	2.359178e-08	4.743094e+01	1.547318e+03
1.720000e-06	6.698697e-06	2.359879e-08	4.732171e+01	1.545855e+03
1.730000e-06	6.681119e-06	2.355136e-08	4.719753e+01	1.544736e+03
1.740000e-06	6.661230e-06	2.345235e-08	4.705703e+01	1.543968e+03
1.750000e-06	6.638284e-06	2.345413e-08	4.689493e+01	1.543421e+03
1.760000e-06	6.612256e-06	2.347022e-08	4.671106e+01	1.542867e+03
1.770000e-06	6.583762e-06	2.344736e-08	4.650977e+01	1.542058e+03
1.780000e-06	6.553238e-06	2.352114e-08	4.629414e+01	1.540802e+03
1.790000e-06	6.521170e-06	2.347561e-08	4.606760e+01	1.539028e+03
1.800000e-06	6.487517e-06	2.335167e-08	4.582987e+01	1.536803e+03
1.810000e-06	6.451520e-06	2.343635e-08	4.557557e+01	1.534312e+03
1.820000e-06	6.413140e-06	2.335714e-08	4.530445e+01	1.531797e+03
1.830000e-06	6.372641e-06	2.333178e-08	4.501834e+01	1.529476e+03
1.840000e-06	6.329965e-06	2.338843e-08	4.471687e+01	1.527470e+03
1.850000e-06	6.285162e-06	2.319655e-08	4.440037e+01	1.525759e+03
1.860000e-06	6.238025e-06	2.321753e-08	4.406738e+01	1.524185e+03
1.870000e-06	6.188557e-06	2.321512e-08	4.371792e+01	1.522494e+03
1.880000e-06	6.136803e-06	2.316823e-08	4.335231e+01	1.520415e+03
1.890000e-06	6.082451e-06	2.320198e-08	4.296836e+01	1.517744e+03
1.900000e-06	6.025681e-06	2.304560e-08	4.256732e+01	1.514404e+03
1.910000e-06	5.966704e-06	2.302403e-08	4.215068e+01	1.510474e+03
1.920000e-06	5.905513e-06	2.300186e-08	4.171840e+01	1.506164e+03
1.930000e-06	5.842115e-06	2.293783e-08	4.127054e+01	1.501752e+03
1.940000e-06	5.776483e-06	2.291343e-08	4.080690e+01	1.497498e+03
1.950000e-06	5.708763e-06	2.279228e-08	4.032850e+01	1.493563e+03
1.960000e-06	5.638794e-06	2.278397e-08	3.983422e+01	1.489960e+03
1.970000e-06	5.566557e-06	2.268644e-08	3.932392e+01	1.486547e+03
1.980000e-06	5.492295e-06	2.261557e-08	3.879931e+01	1.483071e+03
1.990000e-06	5.415974e-06	2.258626e-08	3.826015e+01	1.479247e+03
2.000000e-06	5.337512e-06	2.249174e-08	3.770587e+01	1.474849e+03
2.010000e-06	5.256988e-06	2.243414e-08	3.713702e+01	1.469780e+03
2.020000e-06	5.174680e-06	2.231159e-08	3.655558e+01	1.464101e+03
2.030000e-06	5.090686e-06	2.225835e-08	3.596221e+01	1.458019e+03
2.040000e-06	5.004804e-06	2.219075e-08	3.535551e+01	1.451815e+03
2.050000e-06	4.917000e-06	2.209733e-08	3.473524e+01	1.445760e+03
2.060000e-06	4.827546e-06	2.201388e-08	3.410331e+01	1.440023e+03
2.070000e-06	4.736592e-06	2.192275e-08	3.346078e+01	1.434617e+03
2.080000e-06	4.644021e-06	2.184767e-08	3.280683e+01	1.429388e+03
2.090000e-06	4.549658e-06	2.173414e-08	3.214022e+01	1.424061e+03
2.100000e-06	4.453625e-06	2.163919e-08	3.146181e+01	1.418321e+03
2.110000e-06	4.356163e-06	2.153338e-08	3.077331e+01	1.411914e+03
2.120000e-06	4.257312e-06	2.143143e-08	3.007499e+01	1.404728e+03
2.130000e-06	4.156984e-06	2.132451e-08	2.936625e+01	1.396827e+03
2.140000e-06	4.055017e-06	2.121250e-08	2.864592e+01	1.388436e+03
2.150000e-06	3.951416e-06	2.109663e-08	2.791405e+01	1.379870e+03
2.160000e-06	3.846411e-06	2.097616e-08	2.717226e+01	1.371431e+03
2.170000e-06	3.740166e-06	2.086468e-08	2.642171e+01	1.363307e+03
2.180000e-06	3.632665e-06	2.073842e-08	2.566229e+01	1.355506e+03
2.190000e-06	3.523819e-06	2.060920e-08	2.489337e+01	1.347842e+03
2.200000e-06	3.413649e-06	2.046902e-08	2.411509e+01	1.339985e+03
2.210000e-06	3.302103e-06	2.033072e-08	2.332710e+01	1.331557e+03
2.220000e-06	3.189238e-06	2.018028e-08	2.252979e+01	1.322248e+03
2.230000e-06	3.075216e-06	2.002746e-08	2.172430e+01	1.311915e+03
2.240000e-06	2.960022e-06	1.987352e-08	2.091053e+01	1.300630e+03
2.250000e-06	2.843562e-06	1.971376e-08	2.008782e+01	1.288660e+03
2.260000e-06	2.725844e-06	1.954554e-08	1.925622e+01	1.276384e+03
2.270000e-06	2.607034e-06	1.937311e-08	1.841691e+01	1.264168e+03
2.280000e-06	2.487221e-06	1.919866e-08	1.757051e+01	1.252240e+03
2.290000e-06	2.366501e-06	1.900905e-08	1.671771e+01	1.240600e+03
2.300000e-06	2.245020e-06	1.880839e-08	1.585953e+01	1.228998e+03
2.310000e-06	2.122814e-06	1.860069e-08	1.499623e+01	1.216998e+03
2.320000e-06	1.999948e-06	1.839304e-08	1.412826e+01	1.204093e+03
2.330000e-06	1.876455e-06	1.817544e-08	1.325587e+01	1.189861e+03
2.340000e-06	1.752305e-06	1.794407e-08	1.237884e+01	1.174091e+03
2.350000e-06	1.627519e-06	1.769949e-08	1.149731e+01	1.156860e+03
2.360000e-06	1.502156e-06	1.744579e-08	1.061170e+01	1.138500e+03
2.370000e-06	1.376283e-06	1.718344e-08	9.722497e+00	1.119497e+03
2.380000e-06	1.249962e-06	1.690853e-08	8.830126e+00	1.100312e+03
2.390000e-06	1.123225e-06	1.661644e-08	7.934818e+00	1.081205e+03
2.400000e-06	9.960252e-07	1.630171e-08	7.036236e+00	1.062094e+03
2.410000e-06	8.684587e-07	1.596825e-08	6.135067e+00	1.042523e+03
2.420000e-06	7.406046e-07	1.561788e-08	5.231865e+00	1.021734e+03
2.430000e-06	6.124652e-07	1.524920e-08	4.326647e+00	9.988476e+02
2.440000e-06	4.841388e-07	1.485702e-08	3.420109e+00	9.730916e+02
2.450000e-06	3.556367e-07	1.443392e-08	2.512330e+00	9.440125e+02
2.460000e-06	2.269869e-07	1.397629e-08	1.603507e+00	9.115920e+02
2.470000e-06	9.829753e-08	1.348280e-08	6.944048e-01	8.762156e+02
2.480000e-06	-3.041561e-08	1.294792e-08	-2.148654e-01	8.384778e+02
2.490000e-06	-1.591504e-07	1.235906e-08	-1.124289e+00	7.988574e+02
2.500000e-06	-2.878431e-07	1.170714e-08	-2.033414e+00	7.573395e+02
2.510000e-06	-4.164400e-07	1.098463e-08	-2.941863e+00	7.130902e+02
2.520000e-06	-5.449424e-07	1.017918e-08	-3.849645e+00	6.642919e+02
2.530000e-06	-6.733515e-07	9.273751e-09	-4.756767e+00	6.082177e+02
2.540000e-06	-8.015807e-07	8.242241e-09	-5.662619e+00	5.415710e+02
2.550000e-06	-9.294975e-07	7.049492e-09	-6.566263e+00	4.610546e+02
2.560000e-06	-1.056978e-06	5.652459e-09	-7.466829e+00	3.640657e+02
2.570000e-06	-1.184006e-06	4.003431e-09	-8.364191e+00	2.493771e+02
2.580000e-06	-1.310579e-06	2.060306e-09	-9.258346e+00	1.176492e+02
2.590000e-06	-1.436685e-06	-1.787045e-10	-1.014920e+01	-2.835439e+01
2.600000e-06	-1.562270e-06	-2.622507e-09	-1.103637e+01	-1.839196e+02
2.610000e-06	-1.687186e-06	-5.137151e-09	-1.191881e+01	-3.428963e+02
2.620000e-06	-1.811379e-06	-7.618476e-09	-1.279615e+01	-4.984901e+02
2.630000e-06	-1.934821e-06	-9.928474e-09	-1.366819e+01	-6.441872e+02
2.640000e-06	-2.057482e-06	-1.192576e-08	-1.453470e+01	-7.746333e+02
2.650000e-06	-2.179417e-06	-1.356729e-08	-1.539609e+01	-8.863029e+02
2.660000e-06	-2.300641e-06	-1.488637e-08	-1.625245e+01	-9.778358e+02
2.670000e-06	-2.421087e-06	-1.593966e-08	-1.710332e+01	-1.049992e+03
2.680000e-06	-2.540588e-06	-1.678344e-08	-1.794752e+01	-1.105258e+03
2.690000e-06	-2.659058e-06	-1.746789e-08	-1.878443e+01	-1.147203e+03
2.700000e-06	-2.776468e-06	-1.803224e-08	-1.961384e+01	-1.179742e+03
2.710000e-06	-2.892704e-06	-1.850413e-08	-2.043497e+01	-1.206442e+03
2.720000e-06	-3.007703e-06	-1.890484e-08	-2.124737e+01	-1.230031e+03
2.730000e-06	-3.121472e-06	-1.925075e-08	-2.205106e+01	-1.252159e+03
2.740000e-06	-3.233984e-06	-1.955442e-08	-2.284588e+01	-1.273433e+03
2.750000e-06	-3.345174e-06	-1.982305e-08	-2.363136e+01	-1.293676e+03
2.760000e-06	-3.455133e-06	-2.006304e-08	-2.440815e+01	-1.312310e+03
2.770000e-06	-3.563924e-06	-2.028291e-08	-2.517668e+01	-1.328737e+03
2.780000e-06	-3.671541e-06	-2.048588e-08	-2.593692e+01	-1.342646e+03
2.790000e-06	-3.778037e-06	-2.067186e-08	-2.668924e+01	-1.354151e+03
2.800000e-06	-3.883286e-06	-2.084332e-08	-2.743276e+01	-1.363775e+03
2.810000e-06	-3.987063e-06	-2.100477e-08	-2.816587e+01	-1.372288e+03
2.820000e-06	-4.089306e-06	-2.115684e-08	-2.888815e+01	-1.380484e+03
2.830000e-06	-4.189975e-06	-2.129923e-08	-2.959931e+01	-1.388961e+03
2.840000e-06	-4.289183e-06	-2.143338e-08	-3.030014e+01	-1.397978e+03
2.850000e-06	-4.387055e-06	-2.155909e-08	-3.099154e+01	-1.407427e+03
2.860000e-06	-4.483449e-06	-2.167782e-08	-3.167250e+01	-1.416906e+03
2.870000e-06	-4.578234e-06	-2.179111e-08	-3.234209e+01	-1.425887e+03
2.880000e-06	-4.671313e-06	-2.189800e-08	-3.299963e+01	-1.433897e+03
2.890000e-06	-4.762690e-06	-2.199814e-08	-3.364515e+01	-1.440670e+03
2.900000e-06	-4.852426e-06	-2.209104e-08	-3.427907e+01	-1.446231e+03
2.910000e-06	-4.940387e-06	-2.217894e-08	-3.490045e+01	-1.450878e+03
2.920000e-06	-5.026448e-06	-2.226448e-08	-3.550841e+01	-1.455079e+03
2.930000e-06	-5.110592e-06	-2.234672e-08	-3.610283e+01	-1.459330e+03
2.940000e-06	-5.192975e-06	-2.242604e-08	-3.668481e+01	-1.464007e+03
