# Temperatura_=_65.12
# Concentracion g/m^3_=_41000.0
# C_Vs_to_Am_M_A/Vsm_=_65563218390.804596
# pendiente_HvsI_1/m_=_3716.3
# ordenada_HvsI_A/m_=_1297.0
# frecuencia_Hz_=_302004.1269489131

Tiempo_(s)	Campo_(V.s)	Magnetizacion_(V.s)	Campo_(kA/m)	Magnetizacion_(A/m)
0.000000e+00	-6.744360e-06	-2.061119e-08	-4.746521e+01	-1.350293e+03
1.000000e-08	-6.740940e-06	-2.061080e-08	-4.744114e+01	-1.350327e+03
2.000000e-08	-6.735357e-06	-2.060176e-08	-4.740184e+01	-1.349872e+03
3.000000e-08	-6.727702e-06	-2.059327e-08	-4.734797e+01	-1.348956e+03
4.000000e-08	-6.717676e-06	-2.058312e-08	-4.727741e+01	-1.347716e+03
5.000000e-08	-6.705199e-06	-2.056909e-08	-4.718960e+01	-1.346362e+03
6.000000e-08	-6.690274e-06	-2.054778e-08	-4.708456e+01	-1.345109e+03
7.000000e-08	-6.673022e-06	-2.051964e-08	-4.696314e+01	-1.344111e+03
8.000000e-08	-6.653642e-06	-2.054744e-08	-4.682675e+01	-1.343417e+03
9.000000e-08	-6.631810e-06	-2.060455e-08	-4.667310e+01	-1.342958e+03
1.000000e-07	-6.607153e-06	-2.054780e-08	-4.649957e+01	-1.342572e+03
1.100000e-07	-6.579868e-06	-2.048272e-08	-4.630755e+01	-1.342057e+03
1.200000e-07	-6.550402e-06	-2.047531e-08	-4.610017e+01	-1.341235e+03
1.300000e-07	-6.519085e-06	-2.038291e-08	-4.587977e+01	-1.340008e+03
1.400000e-07	-6.485933e-06	-2.030534e-08	-4.564645e+01	-1.338387e+03
1.500000e-07	-6.450767e-06	-2.046279e-08	-4.539897e+01	-1.336483e+03
1.600000e-07	-6.413559e-06	-2.038757e-08	-4.513710e+01	-1.334472e+03
1.700000e-07	-6.374368e-06	-2.029239e-08	-4.486129e+01	-1.332532e+03
1.800000e-07	-6.332849e-06	-2.038745e-08	-4.456909e+01	-1.330783e+03
1.900000e-07	-6.288792e-06	-2.025009e-08	-4.425902e+01	-1.329248e+03
2.000000e-07	-6.242465e-06	-2.025830e-08	-4.393298e+01	-1.327837e+03
2.100000e-07	-6.193727e-06	-2.025998e-08	-4.358998e+01	-1.326381e+03
2.200000e-07	-6.142325e-06	-2.014518e-08	-4.322822e+01	-1.324678e+03
2.300000e-07	-6.088399e-06	-2.014094e-08	-4.284871e+01	-1.322561e+03
2.400000e-07	-6.032137e-06	-2.010118e-08	-4.245275e+01	-1.319952e+03
2.500000e-07	-5.973556e-06	-2.007744e-08	-4.204047e+01	-1.316886e+03
2.600000e-07	-5.912739e-06	-2.004727e-08	-4.161245e+01	-1.313507e+03
2.700000e-07	-5.849899e-06	-1.998119e-08	-4.117020e+01	-1.310019e+03
2.800000e-07	-5.784934e-06	-1.992915e-08	-4.071299e+01	-1.306625e+03
2.900000e-07	-5.717675e-06	-1.986522e-08	-4.023964e+01	-1.303461e+03
3.000000e-07	-5.648263e-06	-1.985572e-08	-3.975114e+01	-1.300553e+03
3.100000e-07	-5.576779e-06	-1.980484e-08	-3.924805e+01	-1.297803e+03
3.200000e-07	-5.503183e-06	-1.974470e-08	-3.873009e+01	-1.295019e+03
3.300000e-07	-5.427335e-06	-1.967210e-08	-3.819629e+01	-1.291973e+03
3.400000e-07	-5.349271e-06	-1.959432e-08	-3.764690e+01	-1.288475e+03
3.500000e-07	-5.269126e-06	-1.956152e-08	-3.708286e+01	-1.284425e+03
3.600000e-07	-5.187045e-06	-1.949269e-08	-3.650519e+01	-1.279856e+03
3.700000e-07	-5.103256e-06	-1.944190e-08	-3.591550e+01	-1.274918e+03
3.800000e-07	-5.017794e-06	-1.937280e-08	-3.531404e+01	-1.269835e+03
3.900000e-07	-4.930706e-06	-1.928305e-08	-3.470113e+01	-1.264832e+03
4.000000e-07	-4.841895e-06	-1.920612e-08	-3.407611e+01	-1.260065e+03
4.100000e-07	-4.751251e-06	-1.914528e-08	-3.343818e+01	-1.255568e+03
4.200000e-07	-4.659002e-06	-1.908059e-08	-3.278895e+01	-1.251237e+03
4.300000e-07	-4.565206e-06	-1.899142e-08	-3.212884e+01	-1.246856e+03
4.400000e-07	-4.469779e-06	-1.891139e-08	-3.145724e+01	-1.242169e+03
4.500000e-07	-4.372589e-06	-1.882634e-08	-3.077324e+01	-1.236951e+03
4.600000e-07	-4.273707e-06	-1.873579e-08	-3.007734e+01	-1.231083e+03
4.700000e-07	-4.173361e-06	-1.864695e-08	-2.937112e+01	-1.224590e+03
4.800000e-07	-4.071624e-06	-1.855851e-08	-2.865513e+01	-1.217634e+03
4.900000e-07	-3.968514e-06	-1.845959e-08	-2.792946e+01	-1.210467e+03
5.000000e-07	-3.863946e-06	-1.835104e-08	-2.719353e+01	-1.203347e+03
5.100000e-07	-3.757860e-06	-1.824624e-08	-2.644692e+01	-1.196454e+03
5.200000e-07	-3.650366e-06	-1.813669e-08	-2.569041e+01	-1.189826e+03
5.300000e-07	-3.541565e-06	-1.802156e-08	-2.492469e+01	-1.183340e+03
5.400000e-07	-3.431589e-06	-1.790547e-08	-2.415071e+01	-1.176741e+03
5.500000e-07	-3.320405e-06	-1.778921e-08	-2.336822e+01	-1.169714e+03
5.600000e-07	-3.207850e-06	-1.766640e-08	-2.257609e+01	-1.161979e+03
5.700000e-07	-3.093891e-06	-1.753822e-08	-2.177407e+01	-1.153379e+03
5.800000e-07	-2.978557e-06	-1.740426e-08	-2.096238e+01	-1.143929e+03
5.900000e-07	-2.861978e-06	-1.726159e-08	-2.014192e+01	-1.133810e+03
6.000000e-07	-2.744367e-06	-1.711129e-08	-1.931420e+01	-1.123316e+03
6.100000e-07	-2.625820e-06	-1.695938e-08	-1.847990e+01	-1.112755e+03
6.200000e-07	-2.506286e-06	-1.680313e-08	-1.763865e+01	-1.102338e+03
6.300000e-07	-2.385809e-06	-1.663789e-08	-1.679076e+01	-1.092107e+03
6.400000e-07	-2.264489e-06	-1.646427e-08	-1.593694e+01	-1.081894e+03
6.500000e-07	-2.142333e-06	-1.628303e-08	-1.507723e+01	-1.071364e+03
6.600000e-07	-2.019301e-06	-1.609351e-08	-1.421136e+01	-1.060099e+03
6.700000e-07	-1.895530e-06	-1.589717e-08	-1.334029e+01	-1.047725e+03
6.800000e-07	-1.771062e-06	-1.569413e-08	-1.246431e+01	-1.034025e+03
6.900000e-07	-1.646005e-06	-1.547965e-08	-1.158419e+01	-1.019004e+03
7.000000e-07	-1.520497e-06	-1.525364e-08	-1.070090e+01	-1.002898e+03
7.100000e-07	-1.394555e-06	-1.501547e-08	-9.814550e+00	-9.860857e+02
7.200000e-07	-1.268209e-06	-1.476488e-08	-8.925351e+00	-9.689638e+02
7.300000e-07	-1.141475e-06	-1.450216e-08	-8.033429e+00	-9.517887e+02
7.400000e-07	-1.014386e-06	-1.422806e-08	-7.139005e+00	-9.345548e+02
7.500000e-07	-8.869329e-07	-1.393959e-08	-6.242023e+00	-9.169421e+02
7.600000e-07	-7.591115e-07	-1.362879e-08	-5.342446e+00	-8.983570e+02
7.700000e-07	-6.310029e-07	-1.329409e-08	-4.440849e+00	-8.780637e+02
7.800000e-07	-5.026648e-07	-1.293855e-08	-3.537636e+00	-8.553689e+02
7.900000e-07	-3.741653e-07	-1.255803e-08	-2.633286e+00	-8.298057e+02
8.000000e-07	-2.455517e-07	-1.214789e-08	-1.728134e+00	-8.012542e+02
8.100000e-07	-1.168195e-07	-1.170542e-08	-8.221481e-01	-7.699475e+02
8.200000e-07	1.201707e-08	-1.122523e-08	8.457328e-02	-7.363436e+02
8.300000e-07	1.409141e-07	-1.070080e-08	9.917201e-01	-7.008800e+02
8.400000e-07	2.698066e-07	-1.012553e-08	1.898835e+00	-6.636666e+02
8.500000e-07	3.986332e-07	-9.490157e-09	2.805485e+00	-6.242007e+02
8.600000e-07	5.273255e-07	-8.782221e-09	3.711192e+00	-5.811928e+02
8.700000e-07	6.558506e-07	-7.986911e-09	4.615721e+00	-5.325774e+02
8.800000e-07	7.841634e-07	-7.087837e-09	5.518756e+00	-4.757403e+02
8.900000e-07	9.122296e-07	-6.059520e-09	6.420056e+00	-4.079452e+02
9.000000e-07	1.039931e-06	-4.867990e-09	7.318789e+00	-3.268888e+02
9.100000e-07	1.167241e-06	-3.476094e-09	8.214765e+00	-2.312724e+02
9.200000e-07	1.294150e-06	-1.854192e-09	9.107922e+00	-1.212655e+02
9.300000e-07	1.420603e-06	5.210261e-12	9.997869e+00	1.252794e+00
9.400000e-07	1.546604e-06	2.063697e-09	1.088463e+01	1.327444e+02
9.500000e-07	1.672146e-06	4.223634e-09	1.176816e+01	2.683664e+02
9.600000e-07	1.797192e-06	6.352186e-09	1.264821e+01	4.025748e+02
9.700000e-07	1.921654e-06	8.320236e-09	1.352414e+01	5.298672e+02
9.800000e-07	2.045423e-06	1.004307e-08	1.439520e+01	6.455255e+02
9.900000e-07	2.168356e-06	1.149034e-08	1.526038e+01	7.462157e+02
1.000000e-06	2.290401e-06	1.267712e-08	1.611930e+01	8.303359e+02
1.010000e-06	2.411576e-06	1.364199e-08	1.697210e+01	8.980568e+02
1.020000e-06	2.531803e-06	1.442430e-08	1.781823e+01	9.510645e+02
1.030000e-06	2.651045e-06	1.506367e-08	1.865742e+01	9.920775e+02
1.040000e-06	2.769322e-06	1.559209e-08	1.948983e+01	1.024251e+03
1.050000e-06	2.886603e-06	1.603577e-08	2.031522e+01	1.050596e+03
1.060000e-06	3.002763e-06	1.641418e-08	2.113273e+01	1.073530e+03
1.070000e-06	3.117718e-06	1.674197e-08	2.194176e+01	1.094631e+03
1.080000e-06	3.231445e-06	1.702925e-08	2.274214e+01	1.114611e+03
1.090000e-06	3.343858e-06	1.728169e-08	2.353328e+01	1.133491e+03
1.100000e-06	3.454960e-06	1.750878e-08	2.431519e+01	1.150889e+03
1.110000e-06	3.564873e-06	1.771436e-08	2.508873e+01	1.166337e+03
1.120000e-06	3.673721e-06	1.790333e-08	2.585478e+01	1.179552e+03
1.130000e-06	3.781461e-06	1.807923e-08	2.661303e+01	1.190575e+03
1.140000e-06	3.887850e-06	1.824246e-08	2.736177e+01	1.199790e+03
1.150000e-06	3.992723e-06	1.839245e-08	2.809983e+01	1.207811e+03
1.160000e-06	4.096077e-06	1.853032e-08	2.882722e+01	1.215314e+03
1.170000e-06	4.197977e-06	1.865867e-08	2.954436e+01	1.222847e+03
1.180000e-06	4.298505e-06	1.877924e-08	3.025186e+01	1.230704e+03
1.190000e-06	4.397578e-06	1.889216e-08	3.094911e+01	1.238874e+03
1.200000e-06	4.494962e-06	1.899709e-08	3.163447e+01	1.247089e+03
1.210000e-06	4.590638e-06	1.909425e-08	3.230782e+01	1.254944e+03
1.220000e-06	4.684713e-06	1.918663e-08	3.296989e+01	1.262044e+03
1.230000e-06	4.777236e-06	1.927558e-08	3.362105e+01	1.268143e+03
1.240000e-06	4.868100e-06	1.935939e-08	3.426053e+01	1.273215e+03
1.250000e-06	4.957093e-06	1.943867e-08	3.488684e+01	1.277463e+03
1.260000e-06	5.044197e-06	1.951382e-08	3.549986e+01	1.281250e+03
1.270000e-06	5.129536e-06	1.958706e-08	3.610046e+01	1.284984e+03
1.280000e-06	5.213177e-06	1.965800e-08	3.668910e+01	1.288995e+03
1.290000e-06	5.294947e-06	1.972555e-08	3.726458e+01	1.293443e+03
1.300000e-06	5.374683e-06	1.978834e-08	3.782574e+01	1.298284e+03
1.310000e-06	5.452473e-06	1.984658e-08	3.837321e+01	1.303290e+03
1.320000e-06	5.528314e-06	1.990168e-08	3.890696e+01	1.308139e+03
1.330000e-06	5.601965e-06	1.995434e-08	3.942530e+01	1.312513e+03
1.340000e-06	5.673466e-06	2.000467e-08	3.992851e+01	1.316203e+03
1.350000e-06	5.742968e-06	2.005363e-08	4.041764e+01	1.319169e+03
1.360000e-06	5.810473e-06	2.010210e-08	4.089273e+01	1.321543e+03
1.370000e-06	5.875863e-06	2.014835e-08	4.135293e+01	1.323587e+03
1.380000e-06	5.939098e-06	2.019124e-08	4.179796e+01	1.325603e+03
1.390000e-06	6.000390e-06	2.023193e-08	4.222932e+01	1.327842e+03
1.400000e-06	6.059719e-06	2.026997e-08	4.264686e+01	1.330426e+03
1.410000e-06	6.116827e-06	2.030322e-08	4.304877e+01	1.333321e+03
1.420000e-06	6.171713e-06	2.033319e-08	4.343505e+01	1.336347e+03
1.430000e-06	6.224331e-06	2.036195e-08	4.380536e+01	1.339247e+03
1.440000e-06	6.274329e-06	2.039048e-08	4.415724e+01	1.341768e+03
1.450000e-06	6.321825e-06	2.041809e-08	4.449150e+01	1.343738e+03
1.460000e-06	6.367163e-06	2.044515e-08	4.481058e+01	1.345126e+03
1.470000e-06	6.410343e-06	2.047142e-08	4.511447e+01	1.346043e+03
1.480000e-06	6.451201e-06	2.049509e-08	4.540202e+01	1.346708e+03
1.490000e-06	6.489717e-06	2.051501e-08	4.567309e+01	1.347375e+03
1.500000e-06	6.526079e-06	2.053395e-08	4.592900e+01	1.348259e+03
1.510000e-06	6.560204e-06	2.055279e-08	4.616916e+01	1.349464e+03
1.520000e-06	6.591900e-06	2.056918e-08	4.639222e+01	1.350962e+03
1.530000e-06	6.621303e-06	2.058271e-08	4.659916e+01	1.352597e+03
1.540000e-06	6.648445e-06	2.059368e-08	4.679017e+01	1.354146e+03
1.550000e-06	6.673082e-06	2.060457e-08	4.696356e+01	1.355383e+03
1.560000e-06	6.695253e-06	2.061633e-08	4.711960e+01	1.356158e+03
1.570000e-06	6.715186e-06	2.062706e-08	4.725988e+01	1.356438e+03
1.580000e-06	6.732737e-06	2.063734e-08	4.738340e+01	1.356319e+03
1.590000e-06	6.747763e-06	2.064688e-08	4.748915e+01	1.355995e+03
1.600000e-06	6.760280e-06	2.065436e-08	4.757724e+01	1.355695e+03
1.610000e-06	6.770088e-06	2.066034e-08	4.764627e+01	1.355609e+03
1.620000e-06	6.777272e-06	2.066364e-08	4.769683e+01	1.355835e+03
1.630000e-06	6.782185e-06	2.066534e-08	4.773141e+01	1.356341e+03
1.640000e-06	6.784796e-06	2.066687e-08	4.774979e+01	1.356983e+03
1.650000e-06	6.784933e-06	2.066921e-08	4.775075e+01	1.357544e+03
1.660000e-06	6.782768e-06	2.066110e-08	4.773551e+01	1.357808e+03
1.670000e-06	6.778495e-06	2.065584e-08	4.770544e+01	1.357622e+03
1.680000e-06	6.771896e-06	2.065435e-08	4.765899e+01	1.356944e+03
1.690000e-06	6.763021e-06	2.064903e-08	4.759653e+01	1.355856e+03
1.700000e-06	6.752023e-06	2.064254e-08	4.751913e+01	1.354537e+03
1.710000e-06	6.738654e-06	2.064188e-08	4.742505e+01	1.353207e+03
1.720000e-06	6.722978e-06	2.065686e-08	4.731472e+01	1.352060e+03
1.730000e-06	6.705267e-06	2.059277e-08	4.719007e+01	1.351206e+03
1.740000e-06	6.685255e-06	2.048600e-08	4.704923e+01	1.350638e+03
1.750000e-06	6.662132e-06	2.051730e-08	4.688650e+01	1.350238e+03
1.760000e-06	6.635842e-06	2.053502e-08	4.670148e+01	1.349819e+03
1.770000e-06	6.607148e-06	2.051709e-08	4.649953e+01	1.349182e+03
1.780000e-06	6.576460e-06	2.064301e-08	4.628356e+01	1.348180e+03
1.790000e-06	6.544277e-06	2.055710e-08	4.605706e+01	1.346763e+03
1.800000e-06	6.510508e-06	2.041648e-08	4.581941e+01	1.344993e+03
1.810000e-06	6.474322e-06	2.054747e-08	4.556474e+01	1.343018e+03
1.820000e-06	6.435729e-06	2.041608e-08	4.529313e+01	1.341021e+03
1.830000e-06	6.394990e-06	2.043553e-08	4.500642e+01	1.339162e+03
1.840000e-06	6.352066e-06	2.050007e-08	4.470433e+01	1.337518e+03
1.850000e-06	6.307031e-06	2.027274e-08	4.438739e+01	1.336059e+03
1.860000e-06	6.259608e-06	2.037690e-08	4.405363e+01	1.334654e+03
1.870000e-06	6.209878e-06	2.033950e-08	4.370365e+01	1.333109e+03
1.880000e-06	6.157894e-06	2.028032e-08	4.333779e+01	1.331232e+03
1.890000e-06	6.103187e-06	2.030266e-08	4.295278e+01	1.328891e+03
1.900000e-06	6.046069e-06	2.012065e-08	4.255080e+01	1.326060e+03
1.910000e-06	5.986818e-06	2.018181e-08	4.213380e+01	1.322827e+03
1.920000e-06	5.925292e-06	2.014886e-08	4.170080e+01	1.319372e+03
1.930000e-06	5.861541e-06	2.009169e-08	4.125213e+01	1.315906e+03
1.940000e-06	5.795544e-06	2.006505e-08	4.078766e+01	1.312610e+03
1.950000e-06	5.727408e-06	1.993799e-08	4.030814e+01	1.309571e+03
1.960000e-06	5.657060e-06	1.997268e-08	3.981305e+01	1.306757e+03
1.970000e-06	5.584516e-06	1.985955e-08	3.930250e+01	1.304020e+03
1.980000e-06	5.509953e-06	1.983409e-08	3.877774e+01	1.301144e+03
1.990000e-06	5.433161e-06	1.981050e-08	3.823730e+01	1.297909e+03
2.000000e-06	5.354156e-06	1.971522e-08	3.768127e+01	1.294161e+03
2.010000e-06	5.273222e-06	1.967283e-08	3.711168e+01	1.289860e+03
2.020000e-06	5.190596e-06	1.955553e-08	3.653018e+01	1.285097e+03
2.030000e-06	5.106199e-06	1.954695e-08	3.593622e+01	1.280063e+03
2.040000e-06	5.019850e-06	1.947763e-08	3.532851e+01	1.274993e+03
2.050000e-06	4.931659e-06	1.939845e-08	3.470784e+01	1.270089e+03
2.060000e-06	4.841796e-06	1.932303e-08	3.407541e+01	1.265454e+03
2.070000e-06	4.750421e-06	1.924980e-08	3.343233e+01	1.261056e+03
2.080000e-06	4.657383e-06	1.918846e-08	3.277755e+01	1.256734e+03
2.090000e-06	4.562531e-06	1.907818e-08	3.211001e+01	1.252245e+03
2.100000e-06	4.466070e-06	1.900522e-08	3.143114e+01	1.247336e+03
2.110000e-06	4.368187e-06	1.891494e-08	3.074226e+01	1.241824e+03
2.120000e-06	4.268904e-06	1.883790e-08	3.004353e+01	1.235655e+03
2.130000e-06	4.168101e-06	1.874201e-08	2.933410e+01	1.228921e+03
2.140000e-06	4.065655e-06	1.864958e-08	2.861311e+01	1.221836e+03
2.150000e-06	3.961645e-06	1.855349e-08	2.788112e+01	1.214663e+03
2.160000e-06	3.856209e-06	1.845585e-08	2.713908e+01	1.207635e+03
2.170000e-06	3.749466e-06	1.836113e-08	2.638785e+01	1.200871e+03
2.180000e-06	3.641563e-06	1.824671e-08	2.562845e+01	1.194336e+03
2.190000e-06	3.532353e-06	1.813357e-08	2.485986e+01	1.187836e+03
2.200000e-06	3.421738e-06	1.800954e-08	2.408138e+01	1.181079e+03
2.210000e-06	3.309706e-06	1.789493e-08	2.329292e+01	1.173754e+03
2.220000e-06	3.196374e-06	1.776934e-08	2.249532e+01	1.165629e+03
2.230000e-06	3.081840e-06	1.764590e-08	2.168926e+01	1.156623e+03
2.240000e-06	2.966076e-06	1.751443e-08	2.087454e+01	1.146833e+03
2.250000e-06	2.849140e-06	1.737361e-08	2.005157e+01	1.136502e+03
2.260000e-06	2.731001e-06	1.722225e-08	1.922013e+01	1.125943e+03
2.270000e-06	2.611680e-06	1.706936e-08	1.838038e+01	1.115433e+03
2.280000e-06	2.491294e-06	1.691342e-08	1.753313e+01	1.105112e+03
2.290000e-06	2.370060e-06	1.674420e-08	1.667992e+01	1.094923e+03
2.300000e-06	2.248118e-06	1.656894e-08	1.582172e+01	1.084614e+03
2.310000e-06	2.125500e-06	1.638816e-08	1.495876e+01	1.073796e+03
2.320000e-06	2.002191e-06	1.620449e-08	1.409094e+01	1.062058e+03
2.330000e-06	1.878178e-06	1.600649e-08	1.321817e+01	1.049084e+03
2.340000e-06	1.753493e-06	1.579750e-08	1.234067e+01	1.034757e+03
2.350000e-06	1.628212e-06	1.557717e-08	1.145897e+01	1.019193e+03
2.360000e-06	1.502401e-06	1.534999e-08	1.057354e+01	1.002708e+03
2.370000e-06	1.376111e-06	1.511189e-08	9.684741e+00	9.857100e+02
2.380000e-06	1.249346e-06	1.485865e-08	8.792601e+00	9.685468e+02
2.390000e-06	1.122075e-06	1.459035e-08	7.896898e+00	9.513656e+02
2.400000e-06	9.943870e-07	1.430410e-08	6.998260e+00	9.340159e+02
2.410000e-06	8.663420e-07	1.400340e-08	6.097109e+00	9.160397e+02
2.420000e-06	7.379615e-07	1.368778e-08	5.193598e+00	8.967566e+02
2.430000e-06	6.093417e-07	1.335241e-08	4.288402e+00	8.754262e+02
2.440000e-06	4.805766e-07	1.298848e-08	3.382184e+00	8.514400e+02
2.450000e-06	3.516529e-07	1.259237e-08	2.474850e+00	8.244831e+02
2.460000e-06	2.225371e-07	1.216595e-08	1.566163e+00	7.946067e+02
2.470000e-06	9.330183e-08	1.171100e-08	6.566361e-01	7.621725e+02
2.480000e-06	-3.595052e-08	1.122016e-08	-2.530112e-01	7.276650e+02
2.490000e-06	-1.651263e-07	1.067558e-08	-1.162120e+00	6.914083e+02
2.500000e-06	-2.942723e-07	1.007136e-08	-2.071019e+00	6.532587e+02
2.510000e-06	-4.234007e-07	9.404965e-09	-2.979793e+00	6.123601e+02
2.520000e-06	-5.524130e-07	8.665320e-09	-3.887752e+00	5.670483e+02
2.530000e-06	-6.813294e-07	7.833202e-09	-4.795035e+00	5.149616e+02
2.540000e-06	-8.100420e-07	6.886073e-09	-5.700883e+00	4.533663e+02
2.550000e-06	-9.384348e-07	5.799141e-09	-6.604481e+00	3.796539e+02
2.560000e-06	-1.066445e-06	4.538308e-09	-7.505385e+00	2.919202e+02
2.570000e-06	-1.193971e-06	3.066133e-09	-8.402885e+00	1.895017e+02
2.580000e-06	-1.321019e-06	1.356467e-09	-9.297016e+00	7.334836e+01
2.590000e-06	-1.447518e-06	-5.854362e-10	-1.018729e+01	-5.386524e+01
2.600000e-06	-1.573499e-06	-2.702715e-09	-1.107391e+01	-1.879341e+02
2.610000e-06	-1.698934e-06	-4.880543e-09	-1.195669e+01	-3.236031e+02
2.620000e-06	-1.823625e-06	-6.978763e-09	-1.283424e+01	-4.552519e+02
2.630000e-06	-1.947568e-06	-8.878037e-09	-1.370652e+01	-5.776555e+02
2.640000e-06	-2.070763e-06	-1.051221e-08	-1.457354e+01	-6.866769e+02
2.650000e-06	-2.193151e-06	-1.187281e-08	-1.543487e+01	-7.797612e+02
2.660000e-06	-2.314761e-06	-1.298597e-08	-1.629074e+01	-8.561436e+02
2.670000e-06	-2.435584e-06	-1.388955e-08	-1.714106e+01	-9.167462e+02
2.680000e-06	-2.555526e-06	-1.462317e-08	-1.798519e+01	-9.638045e+02
2.690000e-06	-2.674451e-06	-1.522537e-08	-1.882215e+01	-1.000316e+03
2.700000e-06	-2.792298e-06	-1.572776e-08	-1.965153e+01	-1.029434e+03
2.710000e-06	-2.908968e-06	-1.615264e-08	-2.047263e+01	-1.053942e+03
2.720000e-06	-3.024386e-06	-1.651463e-08	-2.128491e+01	-1.075881e+03
2.730000e-06	-3.138614e-06	-1.682637e-08	-2.208882e+01	-1.096419e+03
2.740000e-06	-3.251604e-06	-1.710016e-08	-2.288401e+01	-1.115917e+03
2.750000e-06	-3.363233e-06	-1.734468e-08	-2.366963e+01	-1.134167e+03
2.760000e-06	-3.473501e-06	-1.756554e-08	-2.444567e+01	-1.150710e+03
2.770000e-06	-3.582598e-06	-1.776526e-08	-2.521347e+01	-1.165137e+03
2.780000e-06	-3.690588e-06	-1.794718e-08	-2.597348e+01	-1.177305e+03
2.790000e-06	-3.797397e-06	-1.811325e-08	-2.672518e+01	-1.187422e+03
2.800000e-06	-3.902916e-06	-1.826651e-08	-2.746779e+01	-1.195996e+03
2.810000e-06	-4.006998e-06	-1.841120e-08	-2.820030e+01	-1.203695e+03
2.820000e-06	-4.109575e-06	-1.854722e-08	-2.892221e+01	-1.211155e+03
2.830000e-06	-4.210665e-06	-1.867309e-08	-2.963366e+01	-1.218819e+03
2.840000e-06	-4.310285e-06	-1.878859e-08	-3.033477e+01	-1.226839e+03
2.850000e-06	-4.408415e-06	-1.889570e-08	-3.102538e+01	-1.235073e+03
2.860000e-06	-4.505069e-06	-1.899604e-08	-3.170560e+01	-1.243173e+03
2.870000e-06	-4.600162e-06	-1.909121e-08	-3.237485e+01	-1.250718e+03
2.880000e-06	-4.693475e-06	-1.918149e-08	-3.303156e+01	-1.257371e+03
2.890000e-06	-4.785055e-06	-1.926724e-08	-3.367608e+01	-1.262979e+03
2.900000e-06	-4.875036e-06	-1.934906e-08	-3.430935e+01	-1.267630e+03
2.910000e-06	-4.963258e-06	-1.942699e-08	-3.493023e+01	-1.271612e+03
2.920000e-06	-5.049545e-06	-1.950290e-08	-3.553750e+01	-1.275324e+03
2.930000e-06	-5.133911e-06	-1.957625e-08	-3.613125e+01	-1.279152e+03
2.940000e-06	-5.216513e-06	-1.964586e-08	-3.671258e+01	-1.283357e+03
