# Temperatura_=_47.85
# Concentracion g/m^3_=_41000.0
# C_Vs_to_Am_M_A/Vsm_=_65563218390.804596
# pendiente_HvsI_1/m_=_3716.3
# ordenada_HvsI_A/m_=_1297.0
# frecuencia_Hz_=_302004.2544013423

Tiempo_(s)	Campo_(V.s)	Magnetizacion_(V.s)	Campo_(kA/m)	Magnetizacion_(A/m)
0.000000e+00	-6.747026e-06	-2.551597e-08	-4.746104e+01	-1.669617e+03
1.000000e-08	-6.743326e-06	-2.551398e-08	-4.743501e+01	-1.669979e+03
2.000000e-08	-6.737448e-06	-2.550512e-08	-4.739366e+01	-1.670021e+03
3.000000e-08	-6.729487e-06	-2.549793e-08	-4.733766e+01	-1.669598e+03
4.000000e-08	-6.719225e-06	-2.548561e-08	-4.726547e+01	-1.668679e+03
5.000000e-08	-6.706467e-06	-2.546747e-08	-4.717573e+01	-1.667353e+03
6.000000e-08	-6.691197e-06	-2.543636e-08	-4.706832e+01	-1.665806e+03
7.000000e-08	-6.673602e-06	-2.539888e-08	-4.694454e+01	-1.664257e+03
8.000000e-08	-6.653903e-06	-2.545608e-08	-4.680598e+01	-1.662899e+03
9.000000e-08	-6.631798e-06	-2.552497e-08	-4.665049e+01	-1.661831e+03
1.000000e-07	-6.606871e-06	-2.542360e-08	-4.647514e+01	-1.661037e+03
1.100000e-07	-6.579281e-06	-2.535418e-08	-4.628106e+01	-1.660391e+03
1.200000e-07	-6.549556e-06	-2.536292e-08	-4.607196e+01	-1.659697e+03
1.300000e-07	-6.518042e-06	-2.522215e-08	-4.585028e+01	-1.658754e+03
1.400000e-07	-6.484687e-06	-2.516028e-08	-4.561565e+01	-1.657418e+03
1.500000e-07	-6.449262e-06	-2.540668e-08	-4.536646e+01	-1.655649e+03
1.600000e-07	-6.411759e-06	-2.520996e-08	-4.510265e+01	-1.653517e+03
1.700000e-07	-6.372244e-06	-2.513231e-08	-4.482469e+01	-1.651179e+03
1.800000e-07	-6.330307e-06	-2.527011e-08	-4.452968e+01	-1.648826e+03
1.900000e-07	-6.285907e-06	-2.503251e-08	-4.421736e+01	-1.646615e+03
2.000000e-07	-6.239401e-06	-2.512204e-08	-4.389022e+01	-1.644617e+03
2.100000e-07	-6.190383e-06	-2.511224e-08	-4.354541e+01	-1.642789e+03
2.200000e-07	-6.138630e-06	-2.497890e-08	-4.318136e+01	-1.640983e+03
2.300000e-07	-6.084379e-06	-2.500752e-08	-4.279974e+01	-1.638990e+03
2.400000e-07	-6.027780e-06	-2.492323e-08	-4.240160e+01	-1.636606e+03
2.500000e-07	-5.968868e-06	-2.488473e-08	-4.198719e+01	-1.633692e+03
2.600000e-07	-5.907710e-06	-2.484522e-08	-4.155698e+01	-1.630226e+03
2.700000e-07	-5.844529e-06	-2.477971e-08	-4.111254e+01	-1.626305e+03
2.800000e-07	-5.779201e-06	-2.471931e-08	-4.065300e+01	-1.622123e+03
2.900000e-07	-5.711615e-06	-2.464764e-08	-4.017758e+01	-1.617907e+03
3.000000e-07	-5.641898e-06	-2.465172e-08	-3.968717e+01	-1.613850e+03
3.100000e-07	-5.570103e-06	-2.456385e-08	-3.918213e+01	-1.610048e+03
3.200000e-07	-5.496167e-06	-2.450436e-08	-3.866204e+01	-1.606468e+03
3.300000e-07	-5.420010e-06	-2.442177e-08	-3.812633e+01	-1.602957e+03
3.400000e-07	-5.341651e-06	-2.433481e-08	-3.757512e+01	-1.599288e+03
3.500000e-07	-5.261132e-06	-2.430648e-08	-3.700872e+01	-1.595229e+03
3.600000e-07	-5.178730e-06	-2.420603e-08	-3.642907e+01	-1.590615e+03
3.700000e-07	-5.094712e-06	-2.414740e-08	-3.583806e+01	-1.585399e+03
3.800000e-07	-5.009044e-06	-2.406529e-08	-3.523544e+01	-1.579671e+03
3.900000e-07	-4.921695e-06	-2.396904e-08	-3.462099e+01	-1.573624e+03
4.000000e-07	-4.832610e-06	-2.387652e-08	-3.399434e+01	-1.567499e+03
4.100000e-07	-4.741718e-06	-2.380632e-08	-3.335497e+01	-1.561504e+03
4.200000e-07	-4.649190e-06	-2.373373e-08	-3.270410e+01	-1.555746e+03
4.300000e-07	-4.555074e-06	-2.362344e-08	-3.204205e+01	-1.550194e+03
4.400000e-07	-4.459347e-06	-2.352828e-08	-3.136867e+01	-1.544683e+03
4.500000e-07	-4.361974e-06	-2.341963e-08	-3.068371e+01	-1.538964e+03
4.600000e-07	-4.262971e-06	-2.331348e-08	-2.998729e+01	-1.532776e+03
4.700000e-07	-4.162466e-06	-2.321048e-08	-2.928030e+01	-1.525927e+03
4.800000e-07	-4.060563e-06	-2.310660e-08	-2.856348e+01	-1.518358e+03
4.900000e-07	-3.957296e-06	-2.298818e-08	-2.783706e+01	-1.510157e+03
5.000000e-07	-3.852605e-06	-2.286122e-08	-2.710062e+01	-1.501533e+03
5.100000e-07	-3.746412e-06	-2.273754e-08	-2.635363e+01	-1.492751e+03
5.200000e-07	-3.638715e-06	-2.260637e-08	-2.559605e+01	-1.484039e+03
5.300000e-07	-3.529685e-06	-2.247259e-08	-2.482909e+01	-1.475512e+03
5.400000e-07	-3.419507e-06	-2.233495e-08	-2.405406e+01	-1.467126e+03
5.500000e-07	-3.308175e-06	-2.219432e-08	-2.327091e+01	-1.458682e+03
5.600000e-07	-3.195482e-06	-2.204024e-08	-2.247818e+01	-1.449879e+03
5.700000e-07	-3.081311e-06	-2.188114e-08	-2.167506e+01	-1.440400e+03
5.800000e-07	-2.965772e-06	-2.171860e-08	-2.086232e+01	-1.430014e+03
5.900000e-07	-2.849030e-06	-2.155114e-08	-2.004112e+01	-1.418642e+03
6.000000e-07	-2.731246e-06	-2.137488e-08	-1.921258e+01	-1.406387e+03
6.100000e-07	-2.612581e-06	-2.119357e-08	-1.837785e+01	-1.393502e+03
6.200000e-07	-2.493000e-06	-2.100590e-08	-1.753667e+01	-1.380305e+03
6.300000e-07	-2.372341e-06	-2.080733e-08	-1.668791e+01	-1.367073e+03
6.400000e-07	-2.250747e-06	-2.060021e-08	-1.583257e+01	-1.353938e+03
6.500000e-07	-2.128371e-06	-2.038499e-08	-1.497173e+01	-1.340830e+03
6.600000e-07	-2.005200e-06	-2.015994e-08	-1.410531e+01	-1.327476e+03
6.700000e-07	-1.881289e-06	-1.992618e-08	-1.323367e+01	-1.313464e+03
6.800000e-07	-1.756732e-06	-1.968408e-08	-1.235749e+01	-1.298361e+03
6.900000e-07	-1.631583e-06	-1.942862e-08	-1.147715e+01	-1.281834e+03
7.000000e-07	-1.505934e-06	-1.916279e-08	-1.059329e+01	-1.263755e+03
7.100000e-07	-1.379926e-06	-1.888229e-08	-9.706900e+00	-1.244233e+03
7.200000e-07	-1.253546e-06	-1.859010e-08	-8.817899e+00	-1.223579e+03
7.300000e-07	-1.126713e-06	-1.828152e-08	-7.925709e+00	-1.202191e+03
7.400000e-07	-9.994678e-07	-1.795316e-08	-7.030620e+00	-1.180403e+03
7.500000e-07	-8.718872e-07	-1.760885e-08	-6.133172e+00	-1.158336e+03
7.600000e-07	-7.439442e-07	-1.724305e-08	-5.233174e+00	-1.135807e+03
7.700000e-07	-6.156679e-07	-1.685388e-08	-4.330832e+00	-1.112317e+03
7.800000e-07	-4.871637e-07	-1.644292e-08	-3.426887e+00	-1.087150e+03
7.900000e-07	-3.585254e-07	-1.601070e-08	-2.521998e+00	-1.059536e+03
8.000000e-07	-2.297688e-07	-1.554764e-08	-1.616277e+00	-1.028850e+03
8.100000e-07	-1.008441e-07	-1.504730e-08	-7.093738e-01	-9.947729e+02
8.200000e-07	2.816866e-08	-1.450647e-08	1.981486e-01	-9.573571e+02
8.300000e-07	1.571558e-07	-1.392130e-08	1.105491e+00	-9.169569e+02
8.400000e-07	2.861103e-07	-1.328926e-08	2.012604e+00	-8.740234e+02
8.500000e-07	4.149873e-07	-1.260205e-08	2.919172e+00	-8.288018e+02
8.600000e-07	5.437291e-07	-1.184868e-08	3.824788e+00	-7.810095e+02
8.700000e-07	6.723429e-07	-1.101644e-08	4.729505e+00	-7.295860e+02
8.800000e-07	8.008115e-07	-1.009307e-08	5.633200e+00	-6.726063e+02
8.900000e-07	9.290261e-07	-9.056957e-09	6.535108e+00	-6.074137e+02
9.000000e-07	1.056802e-06	-7.881338e-09	7.433928e+00	-5.309834e+02
9.100000e-07	1.184117e-06	-6.531987e-09	8.329511e+00	-4.404668e+02
9.200000e-07	1.311004e-06	-4.965679e-09	9.222078e+00	-3.338181e+02
9.300000e-07	1.437462e-06	-3.134246e-09	1.011163e+01	-2.103737e+02
9.400000e-07	1.563495e-06	-1.010431e-09	1.099820e+01	-7.125215e+01
9.500000e-07	1.689072e-06	1.345803e-09	1.188155e+01	8.052836e+01
9.600000e-07	1.814156e-06	3.797201e-09	1.276143e+01	2.402619e+02
9.700000e-07	1.938623e-06	6.259710e-09	1.363698e+01	4.020757e+02
9.800000e-07	2.062401e-06	8.698843e-09	1.450768e+01	5.596719e+02
9.900000e-07	2.185374e-06	1.098011e-08	1.537272e+01	7.071557e+02
1.000000e-06	2.307430e-06	1.296151e-08	1.623131e+01	8.397925e+02
1.010000e-06	2.428601e-06	1.461682e-08	1.708367e+01	9.545559e+02
1.020000e-06	2.548813e-06	1.597878e-08	1.792928e+01	1.050371e+03
1.030000e-06	2.667971e-06	1.709830e-08	1.876748e+01	1.128026e+03
1.040000e-06	2.786150e-06	1.802337e-08	1.959879e+01	1.189782e+03
1.050000e-06	2.903380e-06	1.879314e-08	2.042344e+01	1.238800e+03
1.060000e-06	3.019484e-06	1.943870e-08	2.124015e+01	1.278488e+03
1.070000e-06	3.134343e-06	1.998793e-08	2.204811e+01	1.311927e+03
1.080000e-06	3.247903e-06	2.046029e-08	2.284694e+01	1.341465e+03
1.090000e-06	3.360113e-06	2.086836e-08	2.363626e+01	1.368541e+03
1.100000e-06	3.471087e-06	2.122805e-08	2.441689e+01	1.393742e+03
1.110000e-06	3.580972e-06	2.154660e-08	2.518986e+01	1.417030e+03
1.120000e-06	3.689776e-06	2.183132e-08	2.595523e+01	1.438066e+03
1.130000e-06	3.797407e-06	2.208752e-08	2.671235e+01	1.456521e+03
1.140000e-06	3.903621e-06	2.232230e-08	2.745949e+01	1.472309e+03
1.150000e-06	4.008353e-06	2.253886e-08	2.819622e+01	1.485683e+03
1.160000e-06	4.111643e-06	2.273813e-08	2.892280e+01	1.497197e+03
1.170000e-06	4.213462e-06	2.292209e-08	2.963902e+01	1.507561e+03
1.180000e-06	4.313893e-06	2.309267e-08	3.034549e+01	1.517456e+03
1.190000e-06	4.412775e-06	2.325229e-08	3.104106e+01	1.527363e+03
1.200000e-06	4.509940e-06	2.340332e-08	3.172456e+01	1.537464e+03
1.210000e-06	4.605427e-06	2.354420e-08	3.239625e+01	1.547634e+03
1.220000e-06	4.699292e-06	2.367569e-08	3.305653e+01	1.557527e+03
1.230000e-06	4.791602e-06	2.379725e-08	3.370588e+01	1.566720e+03
1.240000e-06	4.882250e-06	2.390765e-08	3.434353e+01	1.574864e+03
1.250000e-06	4.971123e-06	2.401046e-08	3.496869e+01	1.581801e+03
1.260000e-06	5.058171e-06	2.410837e-08	3.558102e+01	1.587618e+03
1.270000e-06	5.143402e-06	2.420421e-08	3.618056e+01	1.592613e+03
1.280000e-06	5.226851e-06	2.429392e-08	3.676757e+01	1.597203e+03
1.290000e-06	5.308402e-06	2.437885e-08	3.734123e+01	1.601804e+03
1.300000e-06	5.387950e-06	2.445820e-08	3.790080e+01	1.606705e+03
1.310000e-06	5.465512e-06	2.453328e-08	3.844640e+01	1.611998e+03
1.320000e-06	5.541049e-06	2.460435e-08	3.897775e+01	1.617567e+03
1.330000e-06	5.614422e-06	2.467136e-08	3.949389e+01	1.623140e+03
1.340000e-06	5.685677e-06	2.473476e-08	3.999512e+01	1.628384e+03
1.350000e-06	5.754923e-06	2.479433e-08	4.048223e+01	1.633017e+03
1.360000e-06	5.822107e-06	2.485200e-08	4.095482e+01	1.636893e+03
1.370000e-06	5.887173e-06	2.490742e-08	4.141252e+01	1.640044e+03
1.380000e-06	5.950166e-06	2.496150e-08	4.185564e+01	1.642663e+03
1.390000e-06	6.011217e-06	2.501299e-08	4.228509e+01	1.645041e+03
1.400000e-06	6.070231e-06	2.506029e-08	4.270021e+01	1.647468e+03
1.410000e-06	6.127030e-06	2.510481e-08	4.309976e+01	1.650151e+03
1.420000e-06	6.181651e-06	2.514552e-08	4.348398e+01	1.653149e+03
1.430000e-06	6.233939e-06	2.518357e-08	4.385180e+01	1.656363e+03
1.440000e-06	6.283635e-06	2.521978e-08	4.420137e+01	1.659576e+03
1.450000e-06	6.330874e-06	2.525279e-08	4.453367e+01	1.662523e+03
1.460000e-06	6.375976e-06	2.528390e-08	4.485093e+01	1.664982e+03
1.470000e-06	6.418932e-06	2.531374e-08	4.515311e+01	1.666839e+03
1.480000e-06	6.459527e-06	2.534145e-08	4.543867e+01	1.668126e+03
1.490000e-06	6.497793e-06	2.536593e-08	4.570785e+01	1.669007e+03
1.500000e-06	6.533977e-06	2.538805e-08	4.596237e+01	1.669723e+03
1.510000e-06	6.567871e-06	2.540825e-08	4.620080e+01	1.670519e+03
1.520000e-06	6.599206e-06	2.542685e-08	4.642122e+01	1.671565e+03
1.530000e-06	6.628258e-06	2.544498e-08	4.662558e+01	1.672909e+03
1.540000e-06	6.655107e-06	2.546244e-08	4.681445e+01	1.674464e+03
1.550000e-06	6.679465e-06	2.547720e-08	4.698579e+01	1.676042e+03
1.560000e-06	6.701353e-06	2.548914e-08	4.713976e+01	1.677415e+03
1.570000e-06	6.721016e-06	2.549914e-08	4.727808e+01	1.678389e+03
1.580000e-06	6.738275e-06	2.550836e-08	4.739948e+01	1.678869e+03
1.590000e-06	6.752965e-06	2.551936e-08	4.750281e+01	1.678884e+03
1.600000e-06	6.765085e-06	2.553043e-08	4.758807e+01	1.678579e+03
1.610000e-06	6.774489e-06	2.553873e-08	4.765422e+01	1.678170e+03
1.620000e-06	6.781353e-06	2.554292e-08	4.770251e+01	1.677869e+03
1.630000e-06	6.785986e-06	2.554544e-08	4.773510e+01	1.677823e+03
1.640000e-06	6.788211e-06	2.554819e-08	4.775075e+01	1.678066e+03
1.650000e-06	6.787964e-06	2.555105e-08	4.774901e+01	1.678505e+03
1.660000e-06	6.785530e-06	2.553897e-08	4.773189e+01	1.678955e+03
1.670000e-06	6.780992e-06	2.553491e-08	4.769997e+01	1.679195e+03
1.680000e-06	6.774121e-06	2.553205e-08	4.765163e+01	1.679036e+03
1.690000e-06	6.764936e-06	2.552378e-08	4.758702e+01	1.678382e+03
1.700000e-06	6.753609e-06	2.551831e-08	4.750734e+01	1.677259e+03
1.710000e-06	6.739846e-06	2.552323e-08	4.741053e+01	1.675806e+03
1.720000e-06	6.723805e-06	2.554835e-08	4.729769e+01	1.674233e+03
1.730000e-06	6.705871e-06	2.544122e-08	4.717154e+01	1.672756e+03
1.740000e-06	6.685572e-06	2.532651e-08	4.702875e+01	1.671530e+03
1.750000e-06	6.662041e-06	2.540344e-08	4.686323e+01	1.670601e+03
1.760000e-06	6.635386e-06	2.540454e-08	4.667572e+01	1.669900e+03
1.770000e-06	6.606303e-06	2.538997e-08	4.647114e+01	1.669261e+03
1.780000e-06	6.575248e-06	2.557104e-08	4.625269e+01	1.668476e+03
1.790000e-06	6.542820e-06	2.536689e-08	4.602458e+01	1.667366e+03
1.800000e-06	6.508789e-06	2.523667e-08	4.578519e+01	1.665830e+03
1.810000e-06	6.472264e-06	2.543981e-08	4.552826e+01	1.663880e+03
1.820000e-06	6.433335e-06	2.520805e-08	4.525442e+01	1.661632e+03
1.830000e-06	6.392263e-06	2.536345e-08	4.496550e+01	1.659267e+03
1.840000e-06	6.349049e-06	2.539981e-08	4.466153e+01	1.656966e+03
1.850000e-06	6.303684e-06	2.509600e-08	4.434241e+01	1.654855e+03
1.860000e-06	6.255860e-06	2.530941e-08	4.400600e+01	1.652951e+03
1.870000e-06	6.205810e-06	2.516314e-08	4.365393e+01	1.651159e+03
1.880000e-06	6.153464e-06	2.515276e-08	4.328571e+01	1.649297e+03
1.890000e-06	6.098393e-06	2.518650e-08	4.289832e+01	1.647148e+03
1.900000e-06	6.040956e-06	2.494506e-08	4.249428e+01	1.644531e+03
1.910000e-06	5.981336e-06	2.508917e-08	4.207490e+01	1.641359e+03
1.920000e-06	5.919512e-06	2.498302e-08	4.164000e+01	1.637665e+03
1.930000e-06	5.855472e-06	2.494799e-08	4.118952e+01	1.633598e+03
1.940000e-06	5.789185e-06	2.488507e-08	4.072324e+01	1.629375e+03
1.950000e-06	5.720844e-06	2.474243e-08	4.024250e+01	1.625216e+03
1.960000e-06	5.650205e-06	2.482614e-08	3.974560e+01	1.621276e+03
1.970000e-06	5.577341e-06	2.464653e-08	3.923304e+01	1.617592e+03
1.980000e-06	5.502458e-06	2.466605e-08	3.870630e+01	1.614072e+03
1.990000e-06	5.425376e-06	2.460013e-08	3.816407e+01	1.610520e+03
2.000000e-06	5.346162e-06	2.449718e-08	3.760685e+01	1.606699e+03
2.010000e-06	5.264994e-06	2.445941e-08	3.703589e+01	1.602399e+03
2.020000e-06	5.182081e-06	2.430883e-08	3.645265e+01	1.597506e+03
2.030000e-06	5.097371e-06	2.433005e-08	3.585676e+01	1.592036e+03
2.040000e-06	5.010720e-06	2.422159e-08	3.524723e+01	1.586134e+03
2.050000e-06	4.922220e-06	2.414377e-08	3.462469e+01	1.580024e+03
2.060000e-06	4.832122e-06	2.404201e-08	3.399090e+01	1.573941e+03
2.070000e-06	4.740504e-06	2.396497e-08	3.334643e+01	1.568053e+03
2.080000e-06	4.647152e-06	2.389686e-08	3.268976e+01	1.562406e+03
2.090000e-06	4.552022e-06	2.376711e-08	3.202058e+01	1.556903e+03
2.100000e-06	4.455312e-06	2.369538e-08	3.134028e+01	1.551332e+03
2.110000e-06	4.357238e-06	2.357935e-08	3.065040e+01	1.545428e+03
2.120000e-06	4.257794e-06	2.349458e-08	2.995087e+01	1.538952e+03
2.130000e-06	4.156772e-06	2.337307e-08	2.924025e+01	1.531770e+03
2.140000e-06	4.054006e-06	2.326869e-08	2.851736e+01	1.523891e+03
2.150000e-06	3.949661e-06	2.315234e-08	2.778335e+01	1.515465e+03
2.160000e-06	3.844003e-06	2.304023e-08	2.704012e+01	1.506738e+03
2.170000e-06	3.737132e-06	2.292703e-08	2.628835e+01	1.497967e+03
2.180000e-06	3.629035e-06	2.279173e-08	2.552796e+01	1.489338e+03
2.190000e-06	3.519527e-06	2.266049e-08	2.475764e+01	1.480895e+03
2.200000e-06	3.408600e-06	2.251338e-08	2.397733e+01	1.472518e+03
2.210000e-06	3.296277e-06	2.238089e-08	2.318722e+01	1.463951e+03
2.220000e-06	3.182727e-06	2.222919e-08	2.238846e+01	1.454873e+03
2.230000e-06	3.068033e-06	2.208118e-08	2.158166e+01	1.444997e+03
2.240000e-06	2.952127e-06	2.191760e-08	2.076634e+01	1.434154e+03
2.250000e-06	2.834947e-06	2.174796e-08	1.994205e+01	1.422351e+03
2.260000e-06	2.716490e-06	2.156705e-08	1.910878e+01	1.409769e+03
2.270000e-06	2.596911e-06	2.139096e-08	1.826762e+01	1.396702e+03
2.280000e-06	2.476355e-06	2.121053e-08	1.741958e+01	1.383464e+03
2.290000e-06	2.354984e-06	2.101340e-08	1.656581e+01	1.370274e+03
2.300000e-06	2.232886e-06	2.080564e-08	1.570693e+01	1.357177e+03
2.310000e-06	2.110133e-06	2.058691e-08	1.484345e+01	1.344002e+03
2.320000e-06	1.986747e-06	2.036517e-08	1.397550e+01	1.330400e+03
2.330000e-06	1.862660e-06	2.012683e-08	1.310263e+01	1.315935e+03
2.340000e-06	1.737835e-06	1.987956e-08	1.222456e+01	1.300204e+03
2.350000e-06	1.612375e-06	1.962104e-08	1.134203e+01	1.282961e+03
2.360000e-06	1.486420e-06	1.935506e-08	1.045602e+01	1.264187e+03
2.370000e-06	1.359986e-06	1.907451e-08	9.566638e+00	1.244095e+03
2.380000e-06	1.233076e-06	1.877783e-08	8.673909e+00	1.223053e+03
2.390000e-06	1.105707e-06	1.846334e-08	7.777948e+00	1.201450e+03
2.400000e-06	9.778637e-07	1.812653e-08	6.878650e+00	1.179538e+03
2.410000e-06	8.496923e-07	1.777278e-08	5.977045e+00	1.157302e+03
2.420000e-06	7.212920e-07	1.740154e-08	5.073831e+00	1.134408e+03
2.430000e-06	5.926285e-07	1.701002e-08	4.168764e+00	1.110239e+03
2.440000e-06	4.637524e-07	1.659076e-08	3.262203e+00	1.084030e+03
2.450000e-06	3.347477e-07	1.613987e-08	2.354738e+00	1.055054e+03
2.460000e-06	2.056327e-07	1.565918e-08	1.446495e+00	1.022814e+03
2.470000e-06	7.643192e-08	1.514689e-08	5.376499e-01	9.871612e+02
2.480000e-06	-5.279125e-08	1.459676e-08	-3.713529e-01	9.483064e+02
2.490000e-06	-1.819994e-07	1.399561e-08	-1.280250e+00	9.066814e+02
2.500000e-06	-3.111780e-07	1.333837e-08	-2.188939e+00	8.626826e+02
2.510000e-06	-4.402784e-07	1.262175e-08	-3.097079e+00	8.163482e+02
2.520000e-06	-5.692660e-07	1.183872e-08	-4.004424e+00	7.670574e+02
2.530000e-06	-6.981026e-07	1.097636e-08	-4.910708e+00	7.133465e+02
2.540000e-06	-8.267511e-07	1.001323e-08	-5.815669e+00	6.529200e+02
2.550000e-06	-9.551118e-07	8.929802e-09	-6.718604e+00	5.828923e+02
2.560000e-06	-1.083075e-06	7.696095e-09	-7.618742e+00	5.002449e+02
2.570000e-06	-1.210643e-06	6.272671e-09	-8.516105e+00	4.024236e+02
2.580000e-06	-1.337711e-06	4.614583e-09	-9.409950e+00	2.879604e+02
2.590000e-06	-1.464181e-06	2.676309e-09	-1.029958e+01	1.569846e+02
2.600000e-06	-1.590080e-06	4.446200e-10	-1.118520e+01	1.150184e+01
2.610000e-06	-1.715430e-06	-2.000236e-09	-1.206696e+01	-1.446398e+02
2.620000e-06	-1.840140e-06	-4.522635e-09	-1.294421e+01	-3.061116e+02
2.630000e-06	-1.964108e-06	-7.046908e-09	-1.381625e+01	-4.667426e+02
2.640000e-06	-2.087264e-06	-9.488639e-09	-1.468257e+01	-6.203196e+02
2.650000e-06	-2.209547e-06	-1.169512e-08	-1.554276e+01	-7.614021e+02
2.660000e-06	-2.331032e-06	-1.357523e-08	-1.639733e+01	-8.859976e+02
2.670000e-06	-2.451724e-06	-1.513426e-08	-1.724632e+01	-9.919759e+02
2.680000e-06	-2.571561e-06	-1.641311e-08	-1.808929e+01	-1.079157e+03
2.690000e-06	-2.690399e-06	-1.746481e-08	-1.892525e+01	-1.149077e+03
2.700000e-06	-2.808095e-06	-1.833841e-08	-1.975316e+01	-1.204494e+03
2.710000e-06	-2.924646e-06	-1.906989e-08	-2.057303e+01	-1.248761e+03
2.720000e-06	-3.040030e-06	-1.968608e-08	-2.138468e+01	-1.285200e+03
2.730000e-06	-3.154202e-06	-2.020727e-08	-2.218781e+01	-1.316587e+03
2.740000e-06	-3.266983e-06	-2.065278e-08	-2.298115e+01	-1.344855e+03
2.750000e-06	-3.378443e-06	-2.104184e-08	-2.376520e+01	-1.371030e+03
2.760000e-06	-3.488717e-06	-2.138472e-08	-2.454091e+01	-1.395371e+03
2.770000e-06	-3.597766e-06	-2.168979e-08	-2.530799e+01	-1.417659e+03
2.780000e-06	-3.705633e-06	-2.196457e-08	-2.606677e+01	-1.437523e+03
2.790000e-06	-3.812339e-06	-2.221250e-08	-2.681738e+01	-1.454728e+03
2.800000e-06	-3.917809e-06	-2.244007e-08	-2.755929e+01	-1.469341e+03
2.810000e-06	-4.021855e-06	-2.265122e-08	-2.829119e+01	-1.481766e+03
2.820000e-06	-4.124278e-06	-2.284434e-08	-2.901167e+01	-1.492652e+03
2.830000e-06	-4.225115e-06	-2.302116e-08	-2.972100e+01	-1.502720e+03
2.840000e-06	-4.324508e-06	-2.318586e-08	-3.042017e+01	-1.512576e+03
2.850000e-06	-4.422460e-06	-2.333933e-08	-3.110920e+01	-1.522567e+03
2.860000e-06	-4.518927e-06	-2.348264e-08	-3.178778e+01	-1.532729e+03
2.870000e-06	-4.613715e-06	-2.361678e-08	-3.245455e+01	-1.542819e+03
2.880000e-06	-4.706773e-06	-2.374105e-08	-3.310915e+01	-1.552436e+03
2.890000e-06	-4.798184e-06	-2.385693e-08	-3.375217e+01	-1.561173e+03
2.900000e-06	-4.887942e-06	-2.396423e-08	-3.438356e+01	-1.568759e+03
2.910000e-06	-4.975949e-06	-2.406463e-08	-3.500264e+01	-1.575148e+03
2.920000e-06	-5.062036e-06	-2.416088e-08	-3.560820e+01	-1.580533e+03
2.930000e-06	-5.146237e-06	-2.425184e-08	-3.620050e+01	-1.585283e+03
2.940000e-06	-5.228660e-06	-2.433784e-08	-3.678030e+01	-1.589830e+03
