# Temperatura_=_35.87
# Concentracion g/m^3_=_41000.0
# C_Vs_to_Am_M_A/Vsm_=_65563218390.804596
# pendiente_HvsI_1/m_=_3716.3
# ordenada_HvsI_A/m_=_1297.0
# frecuencia_Hz_=_302007.398557509

Tiempo_(s)	Campo_(V.s)	Magnetizacion_(V.s)	Campo_(kA/m)	Magnetizacion_(A/m)
0.000000e+00	-6.743268e-06	-2.514915e-08	-4.746449e+01	-1.645176e+03
1.000000e-08	-6.739835e-06	-2.514725e-08	-4.744032e+01	-1.645603e+03
2.000000e-08	-6.734209e-06	-2.513740e-08	-4.740072e+01	-1.645814e+03
3.000000e-08	-6.726488e-06	-2.512781e-08	-4.734637e+01	-1.645605e+03
4.000000e-08	-6.716483e-06	-2.511558e-08	-4.727595e+01	-1.644869e+03
5.000000e-08	-6.704009e-06	-2.509849e-08	-4.718815e+01	-1.643631e+03
6.000000e-08	-6.689051e-06	-2.507333e-08	-4.708286e+01	-1.642042e+03
7.000000e-08	-6.671742e-06	-2.504235e-08	-4.696102e+01	-1.640329e+03
8.000000e-08	-6.652270e-06	-2.507683e-08	-4.682396e+01	-1.638730e+03
9.000000e-08	-6.630384e-06	-2.513939e-08	-4.666992e+01	-1.637421e+03
1.000000e-07	-6.605717e-06	-2.506466e-08	-4.649629e+01	-1.636465e+03
1.100000e-07	-6.578380e-06	-2.499679e-08	-4.630387e+01	-1.635796e+03
1.200000e-07	-6.548821e-06	-2.498931e-08	-4.609581e+01	-1.635241e+03
1.300000e-07	-6.517419e-06	-2.486451e-08	-4.587478e+01	-1.634575e+03
1.400000e-07	-6.484260e-06	-2.477494e-08	-4.564138e+01	-1.633591e+03
1.500000e-07	-6.449070e-06	-2.498635e-08	-4.539368e+01	-1.632159e+03
1.600000e-07	-6.411780e-06	-2.488748e-08	-4.513121e+01	-1.630266e+03
1.700000e-07	-6.372534e-06	-2.480094e-08	-4.485496e+01	-1.628007e+03
1.800000e-07	-6.330920e-06	-2.493310e-08	-4.456205e+01	-1.625557e+03
1.900000e-07	-6.286799e-06	-2.470630e-08	-4.425149e+01	-1.623101e+03
2.000000e-07	-6.240418e-06	-2.468955e-08	-4.392503e+01	-1.620780e+03
2.100000e-07	-6.191584e-06	-2.470387e-08	-4.358129e+01	-1.618635e+03
2.200000e-07	-6.140113e-06	-2.462557e-08	-4.321900e+01	-1.616598e+03
2.300000e-07	-6.086147e-06	-2.466169e-08	-4.283914e+01	-1.614514e+03
2.400000e-07	-6.029838e-06	-2.458204e-08	-4.244280e+01	-1.612187e+03
2.500000e-07	-5.971213e-06	-2.452671e-08	-4.203014e+01	-1.609449e+03
2.600000e-07	-5.910345e-06	-2.447951e-08	-4.160171e+01	-1.606214e+03
2.700000e-07	-5.847392e-06	-2.439958e-08	-4.115860e+01	-1.602509e+03
2.800000e-07	-5.782366e-06	-2.436566e-08	-4.070089e+01	-1.598466e+03
2.900000e-07	-5.715092e-06	-2.431904e-08	-4.022736e+01	-1.594283e+03
3.000000e-07	-5.645650e-06	-2.429231e-08	-3.973858e+01	-1.590159e+03
3.100000e-07	-5.574154e-06	-2.419054e-08	-3.923533e+01	-1.586232e+03
3.200000e-07	-5.500557e-06	-2.413661e-08	-3.871730e+01	-1.582530e+03
3.300000e-07	-5.424722e-06	-2.407439e-08	-3.818351e+01	-1.578958e+03
3.400000e-07	-5.346638e-06	-2.397491e-08	-3.763389e+01	-1.575331e+03
3.500000e-07	-5.266476e-06	-2.394528e-08	-3.706965e+01	-1.571421e+03
3.600000e-07	-5.184383e-06	-2.386250e-08	-3.649181e+01	-1.567037e+03
3.700000e-07	-5.100538e-06	-2.378968e-08	-3.590164e+01	-1.562080e+03
3.800000e-07	-5.015020e-06	-2.371165e-08	-3.529970e+01	-1.556579e+03
3.900000e-07	-4.927865e-06	-2.362770e-08	-3.468623e+01	-1.550681e+03
4.000000e-07	-4.839031e-06	-2.353579e-08	-3.406095e+01	-1.544607e+03
4.100000e-07	-4.748401e-06	-2.344878e-08	-3.342303e+01	-1.538580e+03
4.200000e-07	-4.656085e-06	-2.337818e-08	-3.277323e+01	-1.532754e+03
4.300000e-07	-4.562226e-06	-2.328633e-08	-3.211257e+01	-1.527156e+03
4.400000e-07	-4.466774e-06	-2.319322e-08	-3.144071e+01	-1.521677e+03
4.500000e-07	-4.369656e-06	-2.308645e-08	-3.075711e+01	-1.516100e+03
4.600000e-07	-4.270828e-06	-2.297823e-08	-3.006149e+01	-1.510160e+03
4.700000e-07	-4.170488e-06	-2.287185e-08	-2.935521e+01	-1.503629e+03
4.800000e-07	-4.068833e-06	-2.276424e-08	-2.863969e+01	-1.496388e+03
4.900000e-07	-3.965752e-06	-2.265620e-08	-2.791412e+01	-1.488461e+03
5.000000e-07	-3.861216e-06	-2.254115e-08	-2.717831e+01	-1.480012e+03
5.100000e-07	-3.755256e-06	-2.241672e-08	-2.643248e+01	-1.471291e+03
5.200000e-07	-3.647805e-06	-2.228309e-08	-2.567615e+01	-1.462554e+03
5.300000e-07	-3.538959e-06	-2.214981e-08	-2.491001e+01	-1.453973e+03
5.400000e-07	-3.428932e-06	-2.201731e-08	-2.413555e+01	-1.445579e+03
5.500000e-07	-3.317667e-06	-2.188310e-08	-2.335238e+01	-1.437235e+03
5.600000e-07	-3.205060e-06	-2.173816e-08	-2.255976e+01	-1.428672e+03
5.700000e-07	-3.091075e-06	-2.158072e-08	-2.175744e+01	-1.419567e+03
5.800000e-07	-2.975736e-06	-2.141408e-08	-2.094560e+01	-1.409638e+03
5.900000e-07	-2.859178e-06	-2.124422e-08	-2.012517e+01	-1.398731e+03
6.000000e-07	-2.741624e-06	-2.107247e-08	-1.929773e+01	-1.386871e+03
6.100000e-07	-2.623158e-06	-2.089777e-08	-1.846387e+01	-1.374258e+03
6.200000e-07	-2.503618e-06	-2.071648e-08	-1.762246e+01	-1.361198e+03
6.300000e-07	-2.383024e-06	-2.052430e-08	-1.677362e+01	-1.348009e+03
6.400000e-07	-2.261665e-06	-2.032016e-08	-1.591940e+01	-1.334903e+03
6.500000e-07	-2.139584e-06	-2.010953e-08	-1.506009e+01	-1.321907e+03
6.600000e-07	-2.016606e-06	-1.989378e-08	-1.419448e+01	-1.308829e+03
6.700000e-07	-1.892802e-06	-1.966952e-08	-1.332305e+01	-1.295302e+03
6.800000e-07	-1.768329e-06	-1.943363e-08	-1.244691e+01	-1.280878e+03
6.900000e-07	-1.643291e-06	-1.918286e-08	-1.156679e+01	-1.265155e+03
7.000000e-07	-1.517773e-06	-1.892149e-08	-1.068329e+01	-1.247900e+03
7.100000e-07	-1.391880e-06	-1.864811e-08	-9.797157e+00	-1.229117e+03
7.200000e-07	-1.265628e-06	-1.836560e-08	-8.908495e+00	-1.209048e+03
7.300000e-07	-1.138934e-06	-1.807218e-08	-8.016727e+00	-1.188085e+03
7.400000e-07	-1.011857e-06	-1.776044e-08	-7.122252e+00	-1.166632e+03
7.500000e-07	-8.843845e-07	-1.742812e-08	-6.225002e+00	-1.144942e+03
7.600000e-07	-7.564684e-07	-1.707412e-08	-5.324627e+00	-1.122989e+03
7.700000e-07	-6.282083e-07	-1.669889e-08	-4.421830e+00	-1.100413e+03
7.800000e-07	-4.997526e-07	-1.630397e-08	-3.517656e+00	-1.076573e+03
7.900000e-07	-3.711801e-07	-1.588859e-08	-2.612661e+00	-1.050680e+03
8.000000e-07	-2.424877e-07	-1.544640e-08	-1.706821e+00	-1.021998e+03
8.100000e-07	-1.136581e-07	-1.497028e-08	-8.000165e-01	-9.900362e+02
8.200000e-07	1.532843e-08	-1.445726e-08	1.078937e-01	-9.546722e+02
8.300000e-07	1.443323e-07	-1.390434e-08	1.015926e+00	-9.161524e+02
8.400000e-07	2.732737e-07	-1.330576e-08	1.923517e+00	-8.749501e+02
8.500000e-07	4.021465e-07	-1.265692e-08	2.830627e+00	-8.314984e+02
8.600000e-07	5.308917e-07	-1.195067e-08	3.736838e+00	-7.858596e+02
8.700000e-07	6.594906e-07	-1.117295e-08	4.642019e+00	-7.374209e+02
8.800000e-07	7.879016e-07	-1.031227e-08	5.545879e+00	-6.847116e+02
8.900000e-07	9.160275e-07	-9.354268e-09	6.447731e+00	-6.254204e+02
9.000000e-07	1.043726e-06	-8.276211e-09	7.346571e+00	-5.566472e+02
9.100000e-07	1.170964e-06	-7.045697e-09	8.242174e+00	-4.753704e+02
9.200000e-07	1.297759e-06	-5.625074e-09	9.134657e+00	-3.790513e+02
9.300000e-07	1.424111e-06	-3.971764e-09	1.002402e+01	-2.662586e+02
9.400000e-07	1.550047e-06	-2.047916e-09	1.091046e+01	-1.371738e+02
9.500000e-07	1.675575e-06	1.485930e-10	1.179403e+01	6.141347e+00
9.600000e-07	1.800629e-06	2.534022e-09	1.267426e+01	1.597953e+02
9.700000e-07	1.925042e-06	4.987235e-09	1.354998e+01	3.184459e+02
9.800000e-07	2.048725e-06	7.434944e-09	1.442055e+01	4.759526e+02
9.900000e-07	2.171606e-06	9.764785e-09	1.528549e+01	6.261825e+02
1.000000e-06	2.293693e-06	1.183825e-08	1.614483e+01	7.638218e+02
1.010000e-06	2.414989e-06	1.359971e-08	1.699862e+01	8.850375e+02
1.020000e-06	2.535288e-06	1.506321e-08	1.784537e+01	9.878698e+02
1.030000e-06	2.654424e-06	1.627125e-08	1.868395e+01	1.072295e+03
1.040000e-06	2.772578e-06	1.727008e-08	1.951561e+01	1.139965e+03
1.050000e-06	2.889814e-06	1.810153e-08	2.034081e+01	1.193700e+03
1.060000e-06	3.005923e-06	1.879812e-08	2.115808e+01	1.236848e+03
1.070000e-06	3.120879e-06	1.939005e-08	2.196723e+01	1.272666e+03
1.080000e-06	3.234635e-06	1.989912e-08	2.276793e+01	1.303821e+03
1.090000e-06	3.346985e-06	2.033698e-08	2.355874e+01	1.332111e+03
1.100000e-06	3.458007e-06	2.071735e-08	2.434020e+01	1.358427e+03
1.110000e-06	3.567904e-06	2.105144e-08	2.511374e+01	1.382918e+03
1.120000e-06	3.676732e-06	2.135033e-08	2.587976e+01	1.405293e+03
1.130000e-06	3.784371e-06	2.162326e-08	2.663741e+01	1.425150e+03
1.140000e-06	3.890630e-06	2.187460e-08	2.738535e+01	1.442263e+03
1.150000e-06	3.995413e-06	2.210370e-08	2.812289e+01	1.456735e+03
1.160000e-06	4.098679e-06	2.231288e-08	2.884976e+01	1.469017e+03
1.170000e-06	4.200543e-06	2.250473e-08	2.956676e+01	1.479800e+03
1.180000e-06	4.301052e-06	2.268190e-08	3.027423e+01	1.489828e+03
1.190000e-06	4.400035e-06	2.284786e-08	3.097095e+01	1.499709e+03
1.200000e-06	4.497372e-06	2.300350e-08	3.165608e+01	1.509771e+03
1.210000e-06	4.592986e-06	2.314578e-08	3.232909e+01	1.520017e+03
1.220000e-06	4.686907e-06	2.327773e-08	3.299018e+01	1.530168e+03
1.230000e-06	4.779258e-06	2.340163e-08	3.364022e+01	1.539796e+03
1.240000e-06	4.869996e-06	2.351673e-08	3.427891e+01	1.548482e+03
1.250000e-06	4.958961e-06	2.362400e-08	3.490511e+01	1.555961e+03
1.260000e-06	5.046087e-06	2.372526e-08	3.551837e+01	1.562210e+03
1.270000e-06	5.131500e-06	2.382258e-08	3.611958e+01	1.567452e+03
1.280000e-06	5.215204e-06	2.391294e-08	3.670876e+01	1.572085e+03
1.290000e-06	5.296991e-06	2.399808e-08	3.728443e+01	1.576563e+03
1.300000e-06	5.376708e-06	2.407779e-08	3.784555e+01	1.581261e+03
1.310000e-06	5.454445e-06	2.415340e-08	3.839272e+01	1.586376e+03
1.320000e-06	5.530176e-06	2.422522e-08	3.892578e+01	1.591880e+03
1.330000e-06	5.603708e-06	2.429329e-08	3.944335e+01	1.597547e+03
1.340000e-06	5.675074e-06	2.435935e-08	3.994569e+01	1.603041e+03
1.350000e-06	5.744465e-06	2.442309e-08	4.043411e+01	1.608022e+03
1.360000e-06	5.811904e-06	2.448414e-08	4.090880e+01	1.612259e+03
1.370000e-06	5.877173e-06	2.454109e-08	4.136822e+01	1.615697e+03
1.380000e-06	5.940316e-06	2.459413e-08	4.181267e+01	1.618466e+03
1.390000e-06	6.001537e-06	2.464481e-08	4.224359e+01	1.620834e+03
1.400000e-06	6.060746e-06	2.469305e-08	4.266035e+01	1.623122e+03
1.410000e-06	6.117723e-06	2.473818e-08	4.306140e+01	1.625601e+03
1.420000e-06	6.172474e-06	2.477978e-08	4.344678e+01	1.628409e+03
1.430000e-06	6.224942e-06	2.481850e-08	4.381609e+01	1.631520e+03
1.440000e-06	6.274856e-06	2.485585e-08	4.416743e+01	1.634756e+03
1.450000e-06	6.322274e-06	2.489023e-08	4.450120e+01	1.637849e+03
1.460000e-06	6.367519e-06	2.492133e-08	4.481966e+01	1.640535e+03
1.470000e-06	6.410670e-06	2.495010e-08	4.512339e+01	1.642632e+03
1.480000e-06	6.451438e-06	2.497609e-08	4.541035e+01	1.644102e+03
1.490000e-06	6.489882e-06	2.499966e-08	4.568095e+01	1.645057e+03
1.500000e-06	6.526241e-06	2.502297e-08	4.593687e+01	1.645727e+03
1.510000e-06	6.560264e-06	2.504500e-08	4.617635e+01	1.646381e+03
1.520000e-06	6.591853e-06	2.506466e-08	4.639870e+01	1.647248e+03
1.530000e-06	6.621213e-06	2.508282e-08	4.660537e+01	1.648444e+03
1.540000e-06	6.648374e-06	2.509939e-08	4.679655e+01	1.649942e+03
1.550000e-06	6.673040e-06	2.511451e-08	4.697017e+01	1.651582e+03
1.560000e-06	6.695156e-06	2.512686e-08	4.712583e+01	1.653127e+03
1.570000e-06	6.715028e-06	2.513649e-08	4.726571e+01	1.654337e+03
1.580000e-06	6.732525e-06	2.514607e-08	4.738887e+01	1.655047e+03
1.590000e-06	6.747483e-06	2.515564e-08	4.749415e+01	1.655217e+03
1.600000e-06	6.759928e-06	2.516477e-08	4.758175e+01	1.654945e+03
1.610000e-06	6.769645e-06	2.517324e-08	4.765015e+01	1.654433e+03
1.620000e-06	6.776716e-06	2.517842e-08	4.769992e+01	1.653923e+03
1.630000e-06	6.781495e-06	2.518018e-08	4.773356e+01	1.653623e+03
1.640000e-06	6.783936e-06	2.518022e-08	4.775074e+01	1.653640e+03
1.650000e-06	6.783938e-06	2.518205e-08	4.775075e+01	1.653947e+03
1.660000e-06	6.781677e-06	2.517194e-08	4.773484e+01	1.654394e+03
1.670000e-06	6.777288e-06	2.516683e-08	4.770395e+01	1.654753e+03
1.680000e-06	6.770602e-06	2.516370e-08	4.765688e+01	1.654792e+03
1.690000e-06	6.761669e-06	2.515520e-08	4.759400e+01	1.654346e+03
1.700000e-06	6.750610e-06	2.514923e-08	4.751616e+01	1.653369e+03
1.710000e-06	6.737169e-06	2.515242e-08	4.742155e+01	1.651946e+03
1.720000e-06	6.721360e-06	2.517181e-08	4.731028e+01	1.650271e+03
1.730000e-06	6.703506e-06	2.509420e-08	4.718461e+01	1.648586e+03
1.740000e-06	6.683386e-06	2.497853e-08	4.704298e+01	1.647108e+03
1.750000e-06	6.660151e-06	2.502526e-08	4.687944e+01	1.645966e+03
1.760000e-06	6.633793e-06	2.503078e-08	4.669391e+01	1.645162e+03
1.770000e-06	6.605056e-06	2.500879e-08	4.649164e+01	1.644574e+03
1.780000e-06	6.574259e-06	2.517625e-08	4.627486e+01	1.643999e+03
1.790000e-06	6.541943e-06	2.505567e-08	4.604740e+01	1.643210e+03
1.800000e-06	6.508098e-06	2.488837e-08	4.580917e+01	1.642031e+03
1.810000e-06	6.471863e-06	2.504952e-08	4.555412e+01	1.640382e+03
1.820000e-06	6.433244e-06	2.487758e-08	4.528229e+01	1.638304e+03
1.830000e-06	6.392474e-06	2.494917e-08	4.499532e+01	1.635935e+03
1.840000e-06	6.349453e-06	2.505907e-08	4.469250e+01	1.633463e+03
1.850000e-06	6.304333e-06	2.482550e-08	4.437491e+01	1.631060e+03
1.860000e-06	6.256803e-06	2.495148e-08	4.404036e+01	1.628825e+03
1.870000e-06	6.206936e-06	2.480755e-08	4.368935e+01	1.626747e+03
1.880000e-06	6.154841e-06	2.472675e-08	4.332266e+01	1.624714e+03
1.890000e-06	6.100013e-06	2.478334e-08	4.293674e+01	1.622544e+03
1.900000e-06	6.042751e-06	2.461382e-08	4.253369e+01	1.620046e+03
1.910000e-06	5.983306e-06	2.473291e-08	4.211527e+01	1.617085e+03
1.920000e-06	5.921645e-06	2.464078e-08	4.168125e+01	1.613624e+03
1.930000e-06	5.857851e-06	2.454690e-08	4.123222e+01	1.609743e+03
1.940000e-06	5.791894e-06	2.451529e-08	4.076796e+01	1.605611e+03
1.950000e-06	5.723788e-06	2.438408e-08	4.028857e+01	1.601436e+03
1.960000e-06	5.653332e-06	2.444209e-08	3.979265e+01	1.597395e+03
1.970000e-06	5.580731e-06	2.430098e-08	3.928162e+01	1.593579e+03
1.980000e-06	5.506125e-06	2.429877e-08	3.875649e+01	1.589958e+03
1.990000e-06	5.429325e-06	2.424747e-08	3.821591e+01	1.586391e+03
2.000000e-06	5.350390e-06	2.412962e-08	3.766030e+01	1.582663e+03
2.010000e-06	5.269437e-06	2.410319e-08	3.709049e+01	1.578555e+03
2.020000e-06	5.186762e-06	2.396384e-08	3.650855e+01	1.573912e+03
2.030000e-06	5.102339e-06	2.395034e-08	3.591432e+01	1.568693e+03
2.040000e-06	5.015968e-06	2.385772e-08	3.530637e+01	1.562986e+03
2.050000e-06	4.927714e-06	2.379212e-08	3.468517e+01	1.556980e+03
2.060000e-06	4.837848e-06	2.370703e-08	3.405262e+01	1.550906e+03
2.070000e-06	4.746449e-06	2.360752e-08	3.340928e+01	1.544962e+03
2.080000e-06	4.653387e-06	2.353671e-08	3.275424e+01	1.539250e+03
2.090000e-06	4.558590e-06	2.341433e-08	3.208698e+01	1.533731e+03
2.100000e-06	4.462134e-06	2.334342e-08	3.140805e+01	1.528241e+03
2.110000e-06	4.364264e-06	2.323935e-08	3.071917e+01	1.522530e+03
2.120000e-06	4.264988e-06	2.315627e-08	3.002038e+01	1.516342e+03
2.130000e-06	4.164215e-06	2.303922e-08	2.931106e+01	1.509491e+03
2.140000e-06	4.061791e-06	2.292369e-08	2.859012e+01	1.501922e+03
2.150000e-06	3.957716e-06	2.281407e-08	2.785755e+01	1.493728e+03
2.160000e-06	3.852318e-06	2.270098e-08	2.711568e+01	1.485121e+03
2.170000e-06	3.745660e-06	2.258829e-08	2.636494e+01	1.476367e+03
2.180000e-06	3.637694e-06	2.245542e-08	2.560499e+01	1.467691e+03
2.190000e-06	3.528431e-06	2.232846e-08	2.483590e+01	1.459207e+03
2.200000e-06	3.417793e-06	2.218143e-08	2.405714e+01	1.450865e+03
2.210000e-06	3.305704e-06	2.204388e-08	2.326818e+01	1.442460e+03
2.220000e-06	3.192338e-06	2.189950e-08	2.247021e+01	1.433689e+03
2.230000e-06	3.077767e-06	2.175958e-08	2.166377e+01	1.424233e+03
2.240000e-06	2.961923e-06	2.160306e-08	2.084837e+01	1.413861e+03
2.250000e-06	2.844943e-06	2.143651e-08	2.002497e+01	1.402500e+03
2.260000e-06	2.726878e-06	2.125879e-08	1.919393e+01	1.390259e+03
2.270000e-06	2.607586e-06	2.107858e-08	1.835427e+01	1.377400e+03
2.280000e-06	2.487184e-06	2.089892e-08	1.750678e+01	1.364248e+03
2.290000e-06	2.365981e-06	2.070911e-08	1.665366e+01	1.351083e+03
2.300000e-06	2.244102e-06	2.051284e-08	1.579577e+01	1.338041e+03
2.310000e-06	2.121556e-06	2.030023e-08	1.493320e+01	1.325045e+03
2.320000e-06	1.998299e-06	2.007923e-08	1.406562e+01	1.311815e+03
2.330000e-06	1.874298e-06	1.984631e-08	1.319280e+01	1.297931e+03
2.340000e-06	1.749588e-06	1.960801e-08	1.231499e+01	1.282948e+03
2.350000e-06	1.624306e-06	1.936027e-08	1.143316e+01	1.266532e+03
2.360000e-06	1.498552e-06	1.910091e-08	1.054800e+01	1.248554e+03
2.370000e-06	1.372348e-06	1.882409e-08	9.659680e+00	1.229135e+03
2.380000e-06	1.245634e-06	1.853240e-08	8.767762e+00	1.208600e+03
2.390000e-06	1.118388e-06	1.822748e-08	7.872107e+00	1.187368e+03
2.400000e-06	9.907287e-07	1.790433e-08	6.973537e+00	1.165791e+03
2.410000e-06	8.627619e-07	1.756796e-08	6.072805e+00	1.144004e+03
2.420000e-06	7.345108e-07	1.721377e-08	5.170072e+00	1.121829e+03
2.430000e-06	6.059873e-07	1.683651e-08	4.265421e+00	1.098762e+03
2.440000e-06	4.772714e-07	1.643309e-08	3.359416e+00	1.074070e+03
2.450000e-06	3.483857e-07	1.600211e-08	2.452216e+00	1.046966e+03
2.460000e-06	2.193145e-07	1.554344e-08	1.543710e+00	1.016804e+03
2.470000e-06	9.008763e-08	1.505576e-08	6.341084e-01	9.832569e+02
2.480000e-06	-3.919272e-08	1.453344e-08	-2.758696e-01	9.463810e+02
2.490000e-06	-1.684394e-07	1.396546e-08	-1.185611e+00	9.065547e+02
2.500000e-06	-2.975854e-07	1.334911e-08	-2.094643e+00	8.642715e+02
2.510000e-06	-4.266154e-07	1.267883e-08	-3.002858e+00	8.198341e+02
2.520000e-06	-5.555526e-07	1.194473e-08	-3.910421e+00	7.730240e+02
2.530000e-06	-6.843170e-07	1.113685e-08	-4.816768e+00	7.228421e+02
2.540000e-06	-8.128161e-07	1.024104e-08	-5.721246e+00	6.674114e+02
2.550000e-06	-9.410672e-07	9.240087e-09	-6.623980e+00	6.041015e+02
2.560000e-06	-1.068966e-06	8.108918e-09	-7.524235e+00	5.298872e+02
2.570000e-06	-1.196339e-06	6.813066e-09	-8.420788e+00	4.418914e+02
2.580000e-06	-1.323230e-06	5.310288e-09	-9.313946e+00	3.380162e+02
2.590000e-06	-1.449691e-06	3.559215e-09	-1.020408e+01	2.175281e+02
2.600000e-06	-1.575711e-06	1.529895e-09	-1.109111e+01	8.146650e+01
2.610000e-06	-1.701218e-06	-7.638391e-10	-1.197453e+01	-6.723055e+01
2.620000e-06	-1.826038e-06	-3.230570e-09	-1.285311e+01	-2.239322e+02
2.630000e-06	-1.950050e-06	-5.752654e-09	-1.372600e+01	-3.828318e+02
2.640000e-06	-2.073187e-06	-8.219072e-09	-1.459274e+01	-5.376882e+02
2.650000e-06	-2.195492e-06	-1.049105e-08	-1.545362e+01	-6.826536e+02
2.660000e-06	-2.317082e-06	-1.246655e-08	-1.630947e+01	-8.130334e+02
2.670000e-06	-2.437802e-06	-1.412944e-08	-1.715919e+01	-9.258350e+02
2.680000e-06	-2.557544e-06	-1.550799e-08	-1.800203e+01	-1.020010e+03
2.690000e-06	-2.676381e-06	-1.664554e-08	-1.883850e+01	-1.096364e+03
2.700000e-06	-2.794216e-06	-1.758811e-08	-1.966791e+01	-1.157163e+03
2.710000e-06	-2.910891e-06	-1.837493e-08	-2.048916e+01	-1.205555e+03
2.720000e-06	-3.026325e-06	-1.903793e-08	-2.130168e+01	-1.244919e+03
2.730000e-06	-3.140490e-06	-1.960077e-08	-2.210527e+01	-1.278286e+03
2.740000e-06	-3.253349e-06	-2.008125e-08	-2.289966e+01	-1.307941e+03
2.750000e-06	-3.364896e-06	-2.049746e-08	-2.368481e+01	-1.335252e+03
2.760000e-06	-3.475170e-06	-2.086203e-08	-2.446101e+01	-1.360735e+03
2.770000e-06	-3.584224e-06	-2.118551e-08	-2.522862e+01	-1.384291e+03
2.780000e-06	-3.692077e-06	-2.147670e-08	-2.598777e+01	-1.405539e+03
2.790000e-06	-3.798749e-06	-2.173831e-08	-2.673862e+01	-1.424130e+03
2.800000e-06	-3.904233e-06	-2.197490e-08	-2.748110e+01	-1.439979e+03
2.810000e-06	-4.008352e-06	-2.219396e-08	-2.821397e+01	-1.453357e+03
2.820000e-06	-4.110938e-06	-2.239619e-08	-2.893605e+01	-1.464847e+03
2.830000e-06	-4.211921e-06	-2.258075e-08	-2.964685e+01	-1.475188e+03
2.840000e-06	-4.311360e-06	-2.275156e-08	-3.034678e+01	-1.485084e+03
2.850000e-06	-4.409412e-06	-2.291052e-08	-3.103695e+01	-1.495025e+03
2.860000e-06	-4.506025e-06	-2.305920e-08	-3.171699e+01	-1.505189e+03
2.870000e-06	-4.601006e-06	-2.319902e-08	-3.238554e+01	-1.515435e+03
2.880000e-06	-4.694250e-06	-2.332960e-08	-3.304186e+01	-1.525397e+03
2.890000e-06	-4.785776e-06	-2.345184e-08	-3.368610e+01	-1.534631e+03
2.900000e-06	-4.875710e-06	-2.356344e-08	-3.431912e+01	-1.542774e+03
2.910000e-06	-4.963969e-06	-2.366649e-08	-3.494036e+01	-1.549666e+03
2.920000e-06	-5.050306e-06	-2.376427e-08	-3.554807e+01	-1.555404e+03
2.930000e-06	-5.134677e-06	-2.385788e-08	-3.614194e+01	-1.560304e+03
2.940000e-06	-5.217232e-06	-2.394724e-08	-3.672303e+01	-1.564808e+03
