# Temperatura_=_70.55
# Concentracion g/m^3_=_28200.0
# C_Vs_to_Am_M_A/Vsm_=_65563218390.804596
# pendiente_HvsI_1/m_=_3716.3
# ordenada_HvsI_A/m_=_1297.0
# frecuencia_Hz_=_301957.2992011447

Tiempo_(s)	Campo_(V.s)	Magnetizacion_(V.s)	Campo_(kA/m)	Magnetizacion_(A/m)
0.000000e+00	-5.866968e-06	-2.319401e-08	-4.194154e+01	-1.518218e+03
1.000000e-08	-5.865508e-06	-2.319352e-08	-4.193111e+01	-1.517944e+03
2.000000e-08	-5.861956e-06	-2.318953e-08	-4.190572e+01	-1.517508e+03
3.000000e-08	-5.856498e-06	-2.317788e-08	-4.186670e+01	-1.516902e+03
4.000000e-08	-5.849277e-06	-2.316598e-08	-4.181508e+01	-1.516116e+03
5.000000e-08	-5.840200e-06	-2.314759e-08	-4.175019e+01	-1.515142e+03
6.000000e-08	-5.828973e-06	-2.312322e-08	-4.166993e+01	-1.513974e+03
7.000000e-08	-5.815584e-06	-2.309851e-08	-4.157422e+01	-1.512612e+03
8.000000e-08	-5.800026e-06	-2.306536e-08	-4.146299e+01	-1.511065e+03
9.000000e-08	-5.782256e-06	-2.305899e-08	-4.133596e+01	-1.509343e+03
1.000000e-07	-5.762384e-06	-2.310238e-08	-4.119390e+01	-1.507467e+03
1.100000e-07	-5.740333e-06	-2.304082e-08	-4.103626e+01	-1.505459e+03
1.200000e-07	-5.716101e-06	-2.295243e-08	-4.086303e+01	-1.503343e+03
1.300000e-07	-5.689719e-06	-2.293237e-08	-4.067443e+01	-1.501138e+03
1.400000e-07	-5.661621e-06	-2.282199e-08	-4.047357e+01	-1.498858e+03
1.500000e-07	-5.632175e-06	-2.276779e-08	-4.026307e+01	-1.496503e+03
1.600000e-07	-5.601048e-06	-2.291897e-08	-4.004054e+01	-1.494061e+03
1.700000e-07	-5.568112e-06	-2.275527e-08	-3.980509e+01	-1.491504e+03
1.800000e-07	-5.533319e-06	-2.269194e-08	-3.955637e+01	-1.488795e+03
1.900000e-07	-5.496486e-06	-2.277971e-08	-3.929306e+01	-1.485889e+03
2.000000e-07	-5.457704e-06	-2.254331e-08	-3.901582e+01	-1.482743e+03
2.100000e-07	-5.417088e-06	-2.256179e-08	-3.872546e+01	-1.479319e+03
2.200000e-07	-5.374395e-06	-2.257618e-08	-3.842026e+01	-1.475594e+03
2.300000e-07	-5.329683e-06	-2.241050e-08	-3.810063e+01	-1.471560e+03
2.400000e-07	-5.283017e-06	-2.239050e-08	-3.776702e+01	-1.467227e+03
2.500000e-07	-5.234103e-06	-2.232795e-08	-3.741734e+01	-1.462616e+03
2.600000e-07	-5.182833e-06	-2.222467e-08	-3.705083e+01	-1.457753e+03
2.700000e-07	-5.129305e-06	-2.216481e-08	-3.666817e+01	-1.452667e+03
2.800000e-07	-5.073918e-06	-2.207016e-08	-3.627222e+01	-1.447375e+03
2.900000e-07	-5.016721e-06	-2.199519e-08	-3.586333e+01	-1.441886e+03
3.000000e-07	-4.957518e-06	-2.188217e-08	-3.544011e+01	-1.436193e+03
3.100000e-07	-4.896479e-06	-2.182630e-08	-3.500375e+01	-1.430279e+03
3.200000e-07	-4.833718e-06	-2.173346e-08	-3.455509e+01	-1.424121e+03
3.300000e-07	-4.769121e-06	-2.160664e-08	-3.409330e+01	-1.417694e+03
3.400000e-07	-4.702668e-06	-2.152285e-08	-3.361824e+01	-1.410981e+03
3.500000e-07	-4.634467e-06	-2.138589e-08	-3.313069e+01	-1.403970e+03
3.600000e-07	-4.564643e-06	-2.128802e-08	-3.263154e+01	-1.396659e+03
3.700000e-07	-4.493383e-06	-2.117569e-08	-3.212212e+01	-1.389055e+03
3.800000e-07	-4.420509e-06	-2.106052e-08	-3.160115e+01	-1.381163e+03
3.900000e-07	-4.345705e-06	-2.093399e-08	-3.106640e+01	-1.372986e+03
4.000000e-07	-4.269105e-06	-2.078631e-08	-3.051880e+01	-1.364520e+03
4.100000e-07	-4.190845e-06	-2.066567e-08	-2.995935e+01	-1.355748e+03
4.200000e-07	-4.110924e-06	-2.052991e-08	-2.938801e+01	-1.346648e+03
4.300000e-07	-4.029446e-06	-2.038745e-08	-2.880554e+01	-1.337190e+03
4.400000e-07	-3.946657e-06	-2.022683e-08	-2.821370e+01	-1.327346e+03
4.500000e-07	-3.862704e-06	-2.006522e-08	-2.761354e+01	-1.317094e+03
4.600000e-07	-3.777583e-06	-1.990250e-08	-2.700503e+01	-1.306418e+03
4.700000e-07	-3.691268e-06	-1.973015e-08	-2.638799e+01	-1.295314e+03
4.800000e-07	-3.603797e-06	-1.956615e-08	-2.576268e+01	-1.283784e+03
4.900000e-07	-3.515046e-06	-1.938689e-08	-2.512822e+01	-1.271830e+03
5.000000e-07	-3.424834e-06	-1.918830e-08	-2.448332e+01	-1.259451e+03
5.100000e-07	-3.333267e-06	-1.898605e-08	-2.382873e+01	-1.246633e+03
5.200000e-07	-3.240460e-06	-1.878365e-08	-2.316527e+01	-1.233350e+03
5.300000e-07	-3.146513e-06	-1.857160e-08	-2.249367e+01	-1.219561e+03
5.400000e-07	-3.051562e-06	-1.835060e-08	-2.181488e+01	-1.205218e+03
5.500000e-07	-2.955536e-06	-1.812279e-08	-2.112842e+01	-1.190269e+03
5.600000e-07	-2.858228e-06	-1.788113e-08	-2.043278e+01	-1.174666e+03
5.700000e-07	-2.759698e-06	-1.762728e-08	-1.972842e+01	-1.158369e+03
5.800000e-07	-2.660081e-06	-1.736726e-08	-1.901628e+01	-1.141347e+03
5.900000e-07	-2.559427e-06	-1.709603e-08	-1.829673e+01	-1.123578e+03
6.000000e-07	-2.457899e-06	-1.681408e-08	-1.757093e+01	-1.105039e+03
6.100000e-07	-2.355611e-06	-1.651795e-08	-1.683969e+01	-1.085702e+03
6.200000e-07	-2.252543e-06	-1.620922e-08	-1.610289e+01	-1.065527e+03
6.300000e-07	-2.148641e-06	-1.588549e-08	-1.536012e+01	-1.044454e+03
6.400000e-07	-2.043868e-06	-1.554572e-08	-1.461112e+01	-1.022405e+03
6.500000e-07	-1.938224e-06	-1.518981e-08	-1.385590e+01	-9.992856e+02
6.600000e-07	-1.831815e-06	-1.481535e-08	-1.309520e+01	-9.749929e+02
6.700000e-07	-1.724708e-06	-1.442373e-08	-1.232953e+01	-9.494203e+02
6.800000e-07	-1.616936e-06	-1.401200e-08	-1.155908e+01	-9.224638e+02
6.900000e-07	-1.508655e-06	-1.357958e-08	-1.078501e+01	-8.940240e+02
7.000000e-07	-1.399971e-06	-1.312075e-08	-1.000806e+01	-8.640044e+02
7.100000e-07	-1.290842e-06	-1.263446e-08	-9.227921e+00	-8.323068e+02
7.200000e-07	-1.181271e-06	-1.211987e-08	-8.444623e+00	-7.988275e+02
7.300000e-07	-1.071353e-06	-1.157783e-08	-7.658844e+00	-7.634554e+02
7.400000e-07	-9.611190e-07	-1.100843e-08	-6.870809e+00	-7.260773e+02
7.500000e-07	-8.506086e-07	-1.040795e-08	-6.080797e+00	-6.865899e+02
7.600000e-07	-7.398809e-07	-9.770279e-09	-5.289231e+00	-6.449196e+02
7.700000e-07	-6.289119e-07	-9.095539e-09	-4.495940e+00	-6.010452e+02
7.800000e-07	-5.176838e-07	-8.392501e-09	-3.700797e+00	-5.550200e+02
7.900000e-07	-4.062816e-07	-7.662442e-09	-2.904409e+00	-5.069850e+02
8.000000e-07	-2.947465e-07	-6.906510e-09	-2.107072e+00	-4.571699e+02
8.100000e-07	-1.830796e-07	-6.124115e-09	-1.308792e+00	-4.058762e+02
8.200000e-07	-7.132046e-08	-5.322500e-09	-5.098528e-01	-3.534449e+02
8.300000e-07	4.051348e-08	-4.510144e-09	2.896212e-01	-3.002105e+02
8.400000e-07	1.523668e-07	-3.691063e-09	1.089234e+00	-2.464519e+02
8.500000e-07	2.641932e-07	-2.869581e-09	1.888654e+00	-1.923481e+02
8.600000e-07	3.759533e-07	-2.044420e-09	2.687600e+00	-1.379496e+02
8.700000e-07	4.875027e-07	-1.211915e-09	3.485040e+00	-8.317390e+01
8.800000e-07	5.988784e-07	-3.674966e-10	4.281238e+00	-2.782721e+01
8.900000e-07	7.101119e-07	4.896563e-10	5.076420e+00	2.834758e+01
9.000000e-07	8.210987e-07	1.361690e-09	5.869837e+00	8.560576e+01
9.100000e-07	9.318556e-07	2.250570e-09	6.661612e+00	1.441291e+02
9.200000e-07	1.042392e-06	3.158013e-09	7.451811e+00	2.039610e+02
9.300000e-07	1.152637e-06	4.083183e-09	8.239928e+00	2.649623e+02
9.400000e-07	1.262481e-06	5.023348e-09	9.025171e+00	3.267950e+02
9.500000e-07	1.371884e-06	5.973252e-09	9.807270e+00	3.889395e+02
9.600000e-07	1.480833e-06	6.917358e-09	1.058612e+01	4.507420e+02
9.700000e-07	1.589312e-06	7.842629e-09	1.136161e+01	5.114832e+02
9.800000e-07	1.697305e-06	8.740489e-09	1.213363e+01	5.704571e+02
9.900000e-07	1.804714e-06	9.600226e-09	1.290147e+01	6.270454e+02
1.000000e-06	1.911333e-06	1.041586e-08	1.366366e+01	6.807757e+02
1.010000e-06	2.017103e-06	1.118232e-08	1.441979e+01	7.313541e+02
1.020000e-06	2.122099e-06	1.189711e-08	1.517037e+01	7.786702e+02
1.030000e-06	2.226169e-06	1.256526e-08	1.591435e+01	8.227763e+02
1.040000e-06	2.329329e-06	1.318664e-08	1.665181e+01	8.638468e+02
1.050000e-06	2.431669e-06	1.376634e-08	1.738342e+01	9.021295e+02
1.060000e-06	2.533157e-06	1.430917e-08	1.810893e+01	9.378974e+02
1.070000e-06	2.633841e-06	1.481799e-08	1.882870e+01	9.714098e+02
1.080000e-06	2.733708e-06	1.529570e-08	1.954262e+01	1.002888e+03
1.090000e-06	2.832648e-06	1.574599e-08	2.024992e+01	1.032508e+03
1.100000e-06	2.930418e-06	1.617078e-08	2.094885e+01	1.060405e+03
1.110000e-06	3.026880e-06	1.657035e-08	2.163844e+01	1.086684e+03
1.120000e-06	3.122186e-06	1.694542e-08	2.231976e+01	1.111441e+03
1.130000e-06	3.216489e-06	1.729936e-08	2.299391e+01	1.134772e+03
1.140000e-06	3.309757e-06	1.763555e-08	2.366066e+01	1.156779e+03
1.150000e-06	3.402010e-06	1.795414e-08	2.432015e+01	1.177572e+03
1.160000e-06	3.493208e-06	1.825503e-08	2.497210e+01	1.197260e+03
1.170000e-06	3.583025e-06	1.853900e-08	2.561419e+01	1.215944e+03
1.180000e-06	3.671354e-06	1.880934e-08	2.624563e+01	1.233708e+03
1.190000e-06	3.758404e-06	1.906574e-08	2.686793e+01	1.250616e+03
1.200000e-06	3.844252e-06	1.930986e-08	2.748164e+01	1.266711e+03
1.210000e-06	3.928864e-06	1.954219e-08	2.808651e+01	1.282021e+03
1.220000e-06	4.012267e-06	1.976275e-08	2.868273e+01	1.296567e+03
1.230000e-06	4.094282e-06	1.997025e-08	2.926904e+01	1.310372e+03
1.240000e-06	4.174673e-06	2.016539e-08	2.984374e+01	1.323470e+03
1.250000e-06	4.253475e-06	2.035099e-08	3.040707e+01	1.335904e+03
1.260000e-06	4.330788e-06	2.053067e-08	3.095976e+01	1.347725e+03
1.270000e-06	4.406578e-06	2.070372e-08	3.150157e+01	1.358988e+03
1.280000e-06	4.480553e-06	2.086894e-08	3.203040e+01	1.369742e+03
1.290000e-06	4.552647e-06	2.102673e-08	3.254578e+01	1.380025e+03
1.300000e-06	4.623060e-06	2.117815e-08	3.304914e+01	1.389860e+03
1.310000e-06	4.691843e-06	2.132231e-08	3.354086e+01	1.399250e+03
1.320000e-06	4.759031e-06	2.145831e-08	3.402117e+01	1.408190e+03
1.330000e-06	4.824383e-06	2.158625e-08	3.448836e+01	1.416668e+03
1.340000e-06	4.887871e-06	2.170574e-08	3.494222e+01	1.424675e+03
1.350000e-06	4.949746e-06	2.181942e-08	3.538454e+01	1.432213e+03
1.360000e-06	5.010095e-06	2.192792e-08	3.581597e+01	1.439298e+03
1.370000e-06	5.068772e-06	2.203033e-08	3.623544e+01	1.445959e+03
1.380000e-06	5.125456e-06	2.212673e-08	3.664066e+01	1.452238e+03
1.390000e-06	5.180236e-06	2.221701e-08	3.703226e+01	1.458178e+03
1.400000e-06	5.233197e-06	2.230130e-08	3.741087e+01	1.463822e+03
1.410000e-06	5.283939e-06	2.238095e-08	3.777361e+01	1.469204e+03
1.420000e-06	5.332329e-06	2.245767e-08	3.811954e+01	1.474344e+03
1.430000e-06	5.378774e-06	2.253269e-08	3.845157e+01	1.479250e+03
1.440000e-06	5.423536e-06	2.260397e-08	3.877155e+01	1.483919e+03
1.450000e-06	5.466525e-06	2.267042e-08	3.907888e+01	1.488339e+03
1.460000e-06	5.507419e-06	2.273323e-08	3.937122e+01	1.492499e+03
1.470000e-06	5.546273e-06	2.279338e-08	3.964898e+01	1.496389e+03
1.480000e-06	5.583371e-06	2.284991e-08	3.991418e+01	1.500006e+03
1.490000e-06	5.618606e-06	2.290034e-08	4.016606e+01	1.503352e+03
1.500000e-06	5.651740e-06	2.294556e-08	4.040293e+01	1.506432e+03
1.510000e-06	5.682807e-06	2.298801e-08	4.062502e+01	1.509257e+03
1.520000e-06	5.712041e-06	2.302831e-08	4.083401e+01	1.511835e+03
1.530000e-06	5.739414e-06	2.306424e-08	4.102969e+01	1.514175e+03
1.540000e-06	5.764524e-06	2.309448e-08	4.120920e+01	1.516281e+03
1.550000e-06	5.787340e-06	2.312131e-08	4.137230e+01	1.518156e+03
1.560000e-06	5.808215e-06	2.314545e-08	4.152154e+01	1.519801e+03
1.570000e-06	5.827119e-06	2.316755e-08	4.165667e+01	1.521221e+03
1.580000e-06	5.843834e-06	2.318717e-08	4.177617e+01	1.522420e+03
1.590000e-06	5.858387e-06	2.320249e-08	4.188020e+01	1.523407e+03
1.600000e-06	5.870837e-06	2.321372e-08	4.196920e+01	1.524195e+03
1.610000e-06	5.880890e-06	2.322207e-08	4.204107e+01	1.524798e+03
1.620000e-06	5.888612e-06	2.322796e-08	4.209627e+01	1.525228e+03
1.630000e-06	5.894363e-06	2.323306e-08	4.213738e+01	1.525498e+03
1.640000e-06	5.898188e-06	2.323847e-08	4.216473e+01	1.525615e+03
1.650000e-06	5.899807e-06	2.324290e-08	4.217630e+01	1.525584e+03
1.660000e-06	5.899264e-06	2.324355e-08	4.217242e+01	1.525403e+03
1.670000e-06	5.896870e-06	2.323204e-08	4.215531e+01	1.525065e+03
1.680000e-06	5.892562e-06	2.322236e-08	4.212451e+01	1.524563e+03
1.690000e-06	5.886140e-06	2.321298e-08	4.207860e+01	1.523887e+03
1.700000e-06	5.877805e-06	2.320085e-08	4.201901e+01	1.523027e+03
1.710000e-06	5.867722e-06	2.318885e-08	4.194694e+01	1.521975e+03
1.720000e-06	5.855704e-06	2.317596e-08	4.186102e+01	1.520730e+03
1.730000e-06	5.841552e-06	2.317232e-08	4.175985e+01	1.519294e+03
1.740000e-06	5.825391e-06	2.312354e-08	4.164432e+01	1.517675e+03
1.750000e-06	5.807176e-06	2.301138e-08	4.151411e+01	1.515890e+03
1.760000e-06	5.786184e-06	2.303052e-08	4.136404e+01	1.513958e+03
1.770000e-06	5.762360e-06	2.304703e-08	4.119373e+01	1.511904e+03
1.780000e-06	5.736399e-06	2.300986e-08	4.100814e+01	1.509750e+03
1.790000e-06	5.709116e-06	2.310090e-08	4.081310e+01	1.507514e+03
1.800000e-06	5.681002e-06	2.290068e-08	4.061212e+01	1.505204e+03
1.810000e-06	5.651107e-06	2.278860e-08	4.039841e+01	1.502816e+03
1.820000e-06	5.618688e-06	2.295477e-08	4.016665e+01	1.500332e+03
1.830000e-06	5.584520e-06	2.276326e-08	3.992239e+01	1.497720e+03
1.840000e-06	5.548574e-06	2.281041e-08	3.966542e+01	1.494938e+03
1.850000e-06	5.510398e-06	2.287518e-08	3.939251e+01	1.491942e+03
1.860000e-06	5.470261e-06	2.257093e-08	3.910558e+01	1.488689e+03
1.870000e-06	5.428189e-06	2.264642e-08	3.880482e+01	1.485148e+03
1.880000e-06	5.384403e-06	2.257970e-08	3.849180e+01	1.481301e+03
1.890000e-06	5.338827e-06	2.244266e-08	3.816599e+01	1.477147e+03
1.900000e-06	5.290954e-06	2.252058e-08	3.782376e+01	1.472701e+03
1.910000e-06	5.241004e-06	2.231163e-08	3.746668e+01	1.467986e+03
1.920000e-06	5.188861e-06	2.231771e-08	3.709392e+01	1.463032e+03
1.930000e-06	5.134486e-06	2.226945e-08	3.670521e+01	1.457862e+03
1.940000e-06	5.078267e-06	2.210070e-08	3.630331e+01	1.452492e+03
1.950000e-06	5.020214e-06	2.209670e-08	3.588830e+01	1.446923e+03
1.960000e-06	4.960458e-06	2.191724e-08	3.546112e+01	1.441145e+03
1.970000e-06	4.898764e-06	2.191333e-08	3.502009e+01	1.435138e+03
1.980000e-06	4.835104e-06	2.179017e-08	3.456499e+01	1.428876e+03
1.990000e-06	4.769736e-06	2.163953e-08	3.409770e+01	1.422338e+03
2.000000e-06	4.702756e-06	2.163901e-08	3.361887e+01	1.415507e+03
2.010000e-06	4.634181e-06	2.145266e-08	3.312865e+01	1.408377e+03
2.020000e-06	4.563657e-06	2.137698e-08	3.262449e+01	1.400950e+03
2.030000e-06	4.491347e-06	2.123039e-08	3.210756e+01	1.393231e+03
2.040000e-06	4.417500e-06	2.113011e-08	3.157965e+01	1.385226e+03
2.050000e-06	4.342045e-06	2.104707e-08	3.104023e+01	1.376936e+03
2.060000e-06	4.264891e-06	2.085223e-08	3.048868e+01	1.368351e+03
2.070000e-06	4.185995e-06	2.074997e-08	2.992467e+01	1.359452e+03
2.080000e-06	4.105581e-06	2.057814e-08	2.934981e+01	1.350214e+03
2.090000e-06	4.023719e-06	2.045225e-08	2.876460e+01	1.340607e+03
2.100000e-06	3.940541e-06	2.029771e-08	2.816998e+01	1.330604e+03
2.110000e-06	3.856042e-06	2.014135e-08	2.756592e+01	1.320186e+03
2.120000e-06	3.770081e-06	1.999290e-08	2.695140e+01	1.309341e+03
2.130000e-06	3.682754e-06	1.979536e-08	2.632713e+01	1.298068e+03
2.140000e-06	3.594130e-06	1.963646e-08	2.569357e+01	1.286371e+03
2.150000e-06	3.504326e-06	1.944070e-08	2.505159e+01	1.274250e+03
2.160000e-06	3.413370e-06	1.926240e-08	2.440136e+01	1.261700e+03
2.170000e-06	3.321251e-06	1.906278e-08	2.374283e+01	1.248702e+03
2.180000e-06	3.227897e-06	1.886017e-08	2.307546e+01	1.235225e+03
2.190000e-06	3.133235e-06	1.864163e-08	2.239874e+01	1.221224e+03
2.200000e-06	3.037358e-06	1.841730e-08	2.171334e+01	1.206648e+03
2.210000e-06	2.940397e-06	1.819791e-08	2.102019e+01	1.191447e+03
2.220000e-06	2.842424e-06	1.795364e-08	2.031981e+01	1.175575e+03
2.230000e-06	2.743509e-06	1.770575e-08	1.961269e+01	1.158995e+03
2.240000e-06	2.643696e-06	1.743874e-08	1.889915e+01	1.141681e+03
2.250000e-06	2.542900e-06	1.716876e-08	1.817858e+01	1.123611e+03
2.260000e-06	2.441068e-06	1.687975e-08	1.745061e+01	1.104762e+03
2.270000e-06	2.338237e-06	1.657957e-08	1.671550e+01	1.085101e+03
2.280000e-06	2.234427e-06	1.626845e-08	1.597338e+01	1.064580e+03
2.290000e-06	2.129755e-06	1.594591e-08	1.522511e+01	1.043133e+03
2.300000e-06	2.024351e-06	1.560495e-08	1.447160e+01	1.020675e+03
2.310000e-06	1.918244e-06	1.524377e-08	1.371307e+01	9.971062e+02
2.320000e-06	1.811584e-06	1.486722e-08	1.295058e+01	9.723225e+02
2.330000e-06	1.704477e-06	1.447035e-08	1.218489e+01	9.462175e+02
2.340000e-06	1.596869e-06	1.405570e-08	1.141563e+01	9.186891e+02
2.350000e-06	1.488753e-06	1.361609e-08	1.064274e+01	8.896393e+02
2.360000e-06	1.380105e-06	1.315398e-08	9.866041e+00	8.589715e+02
2.370000e-06	1.271025e-06	1.266184e-08	9.086255e+00	8.265859e+02
2.380000e-06	1.161652e-06	1.213847e-08	8.304369e+00	7.923757e+02
2.390000e-06	1.051953e-06	1.158231e-08	7.520161e+00	7.562280e+02
2.400000e-06	9.419036e-07	1.099737e-08	6.733442e+00	7.180315e+02
2.410000e-06	8.314660e-07	1.038606e-08	5.943950e+00	6.776921e+02
2.420000e-06	7.206100e-07	9.741601e-09	5.151468e+00	6.351539e+02
2.430000e-06	6.094514e-07	9.063432e-09	4.356822e+00	5.904227e+02
2.440000e-06	4.981350e-07	8.351295e-09	3.561048e+00	5.435852e+02
2.450000e-06	3.866199e-07	7.607939e-09	2.763853e+00	4.948181e+02
2.460000e-06	2.749119e-07	6.834058e-09	1.965279e+00	4.443822e+02
2.470000e-06	1.630540e-07	6.038321e-09	1.165634e+00	3.925994e+02
2.480000e-06	5.116548e-08	5.233611e-09	3.657697e-01	3.398137e+02
2.490000e-06	-6.072885e-08	4.421852e-09	-4.341359e-01	2.863440e+02
2.500000e-06	-1.726205e-07	3.600674e-09	-1.234022e+00	2.324343e+02
2.510000e-06	-2.844244e-07	2.772344e-09	-2.033282e+00	1.782154e+02
2.520000e-06	-3.961566e-07	1.938597e-09	-2.832028e+00	1.236846e+02
2.530000e-06	-5.077674e-07	1.095256e-09	-3.629907e+00	6.871165e+01
2.540000e-06	-6.192387e-07	2.406479e-10	-4.426789e+00	1.307093e+01
2.550000e-06	-7.304454e-07	-6.262161e-10	-5.221778e+00	-4.350238e+01
2.560000e-06	-8.412418e-07	-1.507270e-09	-6.013836e+00	-1.012431e+02
2.570000e-06	-9.515971e-07	-2.406488e-09	-6.802739e+00	-1.602856e+02
2.580000e-06	-1.061504e-06	-3.326782e-09	-7.588434e+00	-2.206054e+02
2.590000e-06	-1.171034e-06	-4.263868e-09	-8.371439e+00	-2.819852e+02
2.600000e-06	-1.280185e-06	-5.212255e-09	-9.151732e+00	-3.440120e+02
2.610000e-06	-1.388981e-06	-6.161804e-09	-9.929494e+00	-4.061063e+02
2.620000e-06	-1.497407e-06	-7.102724e-09	-1.070460e+01	-4.675796e+02
2.630000e-06	-1.605212e-06	-8.024251e-09	-1.147528e+01	-5.277082e+02
2.640000e-06	-1.712402e-06	-8.914055e-09	-1.224155e+01	-5.858125e+02
2.650000e-06	-1.819101e-06	-9.765169e-09	-1.300432e+01	-6.413257e+02
2.660000e-06	-1.925196e-06	-1.057030e-08	-1.376277e+01	-6.938433e+02
2.670000e-06	-2.030604e-06	-1.132579e-08	-1.451630e+01	-7.431444e+02
2.680000e-06	-2.135323e-06	-1.203004e-08	-1.526491e+01	-7.891863e+02
2.690000e-06	-2.239263e-06	-1.268466e-08	-1.600795e+01	-8.320746e+02
2.700000e-06	-2.342215e-06	-1.329748e-08	-1.674394e+01	-8.720188e+02
2.710000e-06	-2.444128e-06	-1.387393e-08	-1.747248e+01	-9.092819e+02
2.720000e-06	-2.545072e-06	-1.441484e-08	-1.819411e+01	-9.441354e+02
2.730000e-06	-2.645074e-06	-1.491726e-08	-1.890900e+01	-9.768257e+02
2.740000e-06	-2.744189e-06	-1.538648e-08	-1.961755e+01	-1.007556e+03
2.750000e-06	-2.842364e-06	-1.582725e-08	-2.031938e+01	-1.036486e+03
2.760000e-06	-2.939536e-06	-1.624119e-08	-2.101404e+01	-1.063736e+03
2.770000e-06	-3.035827e-06	-1.663379e-08	-2.170240e+01	-1.089407e+03
2.780000e-06	-3.131223e-06	-1.700495e-08	-2.238436e+01	-1.113594e+03
2.790000e-06	-3.225517e-06	-1.735212e-08	-2.305845e+01	-1.136393e+03
2.800000e-06	-3.318469e-06	-1.767607e-08	-2.372294e+01	-1.157910e+03
2.810000e-06	-3.410127e-06	-1.798421e-08	-2.437818e+01	-1.178257e+03
2.820000e-06	-3.500633e-06	-1.828182e-08	-2.502519e+01	-1.197540e+03
2.830000e-06	-3.589919e-06	-1.856596e-08	-2.566347e+01	-1.215855e+03
2.840000e-06	-3.677975e-06	-1.883334e-08	-2.629296e+01	-1.233277e+03
2.850000e-06	-3.764740e-06	-1.908638e-08	-2.691322e+01	-1.249862e+03
2.860000e-06	-3.850018e-06	-1.932781e-08	-2.752286e+01	-1.265647e+03
2.870000e-06	-3.933850e-06	-1.955926e-08	-2.812215e+01	-1.280655e+03
2.880000e-06	-4.016380e-06	-1.977853e-08	-2.871213e+01	-1.294907e+03
2.890000e-06	-4.097555e-06	-1.998557e-08	-2.929244e+01	-1.308432e+03
2.900000e-06	-4.177314e-06	-2.018437e-08	-2.986262e+01	-1.321264e+03
2.910000e-06	-4.255418e-06	-2.037363e-08	-3.042096e+01	-1.333451e+03
2.920000e-06	-4.331693e-06	-2.055227e-08	-3.096623e+01	-1.345047e+03
2.930000e-06	-4.406278e-06	-2.072184e-08	-3.149943e+01	-1.356105e+03
2.940000e-06	-4.479316e-06	-2.088385e-08	-3.202155e+01	-1.366672e+03
