# Temperatura_=_53.54
# Concentracion g/m^3_=_28200.0
# C_Vs_to_Am_M_A/Vsm_=_65563218390.804596
# pendiente_HvsI_1/m_=_3716.3
# ordenada_HvsI_A/m_=_1297.0
# frecuencia_Hz_=_301954.8708906481

Tiempo_(s)	Campo_(V.s)	Magnetizacion_(V.s)	Campo_(kA/m)	Magnetizacion_(A/m)
0.000000e+00	-5.850037e-06	-2.166594e-08	-4.194567e+01	-1.418176e+03
1.000000e-08	-5.848498e-06	-2.166494e-08	-4.193463e+01	-1.417922e+03
2.000000e-08	-5.844841e-06	-2.165913e-08	-4.190841e+01	-1.417542e+03
3.000000e-08	-5.839391e-06	-2.164723e-08	-4.186933e+01	-1.417024e+03
4.000000e-08	-5.832233e-06	-2.163722e-08	-4.181801e+01	-1.416356e+03
5.000000e-08	-5.823227e-06	-2.162210e-08	-4.175344e+01	-1.415520e+03
6.000000e-08	-5.811992e-06	-2.160265e-08	-4.167287e+01	-1.414504e+03
7.000000e-08	-5.798600e-06	-2.158054e-08	-4.157686e+01	-1.413304e+03
8.000000e-08	-5.783032e-06	-2.154432e-08	-4.146523e+01	-1.411925e+03
9.000000e-08	-5.765242e-06	-2.155525e-08	-4.133767e+01	-1.410381e+03
1.000000e-07	-5.745410e-06	-2.161532e-08	-4.119547e+01	-1.408699e+03
1.100000e-07	-5.723398e-06	-2.153847e-08	-4.103764e+01	-1.406906e+03
1.200000e-07	-5.699227e-06	-2.145391e-08	-4.086433e+01	-1.405028e+03
1.300000e-07	-5.672930e-06	-2.144671e-08	-4.067578e+01	-1.403082e+03
1.400000e-07	-5.644943e-06	-2.129111e-08	-4.047511e+01	-1.401069e+03
1.500000e-07	-5.615600e-06	-2.126394e-08	-4.026472e+01	-1.398978e+03
1.600000e-07	-5.584546e-06	-2.144747e-08	-4.004205e+01	-1.396778e+03
1.700000e-07	-5.551716e-06	-2.123287e-08	-3.980666e+01	-1.394431e+03
1.800000e-07	-5.517004e-06	-2.126273e-08	-3.955776e+01	-1.391891e+03
1.900000e-07	-5.480255e-06	-2.135276e-08	-3.929427e+01	-1.389120e+03
2.000000e-07	-5.441576e-06	-2.101632e-08	-3.901694e+01	-1.386089e+03
2.100000e-07	-5.401054e-06	-2.105071e-08	-3.872639e+01	-1.382786e+03
2.200000e-07	-5.358418e-06	-2.103951e-08	-3.842068e+01	-1.379215e+03
2.300000e-07	-5.313669e-06	-2.091315e-08	-3.809983e+01	-1.375397e+03
2.400000e-07	-5.266991e-06	-2.096547e-08	-3.776513e+01	-1.371360e+03
2.500000e-07	-5.218139e-06	-2.086260e-08	-3.741486e+01	-1.367133e+03
2.600000e-07	-5.166942e-06	-2.075516e-08	-3.704777e+01	-1.362738e+03
2.700000e-07	-5.113490e-06	-2.070647e-08	-3.666451e+01	-1.358184e+03
2.800000e-07	-5.058165e-06	-2.061900e-08	-3.626782e+01	-1.353464e+03
2.900000e-07	-5.001059e-06	-2.058749e-08	-3.585836e+01	-1.348558e+03
3.000000e-07	-4.941986e-06	-2.048978e-08	-3.543480e+01	-1.343434e+03
3.100000e-07	-4.881040e-06	-2.039264e-08	-3.499781e+01	-1.338062e+03
3.200000e-07	-4.818379e-06	-2.027312e-08	-3.454852e+01	-1.332414e+03
3.300000e-07	-4.754053e-06	-2.020010e-08	-3.408729e+01	-1.326475e+03
3.400000e-07	-4.687844e-06	-2.014039e-08	-3.361256e+01	-1.320244e+03
3.500000e-07	-4.619791e-06	-2.000956e-08	-3.312461e+01	-1.313732e+03
3.600000e-07	-4.550166e-06	-1.994570e-08	-3.262539e+01	-1.306958e+03
3.700000e-07	-4.479007e-06	-1.980566e-08	-3.211517e+01	-1.299942e+03
3.800000e-07	-4.406368e-06	-1.967239e-08	-3.159433e+01	-1.292696e+03
3.900000e-07	-4.331902e-06	-1.958577e-08	-3.106040e+01	-1.285220e+03
4.000000e-07	-4.255521e-06	-1.947393e-08	-3.051274e+01	-1.277499e+03
4.100000e-07	-4.177541e-06	-1.936014e-08	-2.995361e+01	-1.269505e+03
4.200000e-07	-4.097893e-06	-1.920866e-08	-2.938252e+01	-1.261201e+03
4.300000e-07	-4.016624e-06	-1.906985e-08	-2.879981e+01	-1.252549e+03
4.400000e-07	-3.934046e-06	-1.892282e-08	-2.820771e+01	-1.243515e+03
4.500000e-07	-3.850307e-06	-1.879354e-08	-2.760730e+01	-1.234079e+03
4.600000e-07	-3.765387e-06	-1.866218e-08	-2.699840e+01	-1.224231e+03
4.700000e-07	-3.679298e-06	-1.849531e-08	-2.638113e+01	-1.213975e+03
4.800000e-07	-3.592033e-06	-1.832049e-08	-2.575543e+01	-1.203319e+03
4.900000e-07	-3.503443e-06	-1.813667e-08	-2.512023e+01	-1.192272e+03
5.000000e-07	-3.413456e-06	-1.796551e-08	-2.447500e+01	-1.180831e+03
5.100000e-07	-3.322090e-06	-1.779229e-08	-2.381989e+01	-1.168982e+03
5.200000e-07	-3.229524e-06	-1.760850e-08	-2.315618e+01	-1.156695e+03
5.300000e-07	-3.135917e-06	-1.740953e-08	-2.248500e+01	-1.143926e+03
5.400000e-07	-3.041209e-06	-1.719893e-08	-2.180594e+01	-1.130624e+03
5.500000e-07	-2.945365e-06	-1.698149e-08	-2.111872e+01	-1.116736e+03
5.600000e-07	-2.848390e-06	-1.676392e-08	-2.042339e+01	-1.102215e+03
5.700000e-07	-2.750231e-06	-1.653934e-08	-1.971958e+01	-1.087025e+03
5.800000e-07	-2.650870e-06	-1.629350e-08	-1.900715e+01	-1.071137e+03
5.900000e-07	-2.550523e-06	-1.602700e-08	-1.828764e+01	-1.054533e+03
6.000000e-07	-2.449361e-06	-1.575320e-08	-1.756230e+01	-1.037192e+03
6.100000e-07	-2.347331e-06	-1.547675e-08	-1.683072e+01	-1.019088e+03
6.200000e-07	-2.244432e-06	-1.519531e-08	-1.609292e+01	-1.000182e+03
6.300000e-07	-2.140689e-06	-1.489939e-08	-1.534907e+01	-9.804166e+02
6.400000e-07	-2.036124e-06	-1.458228e-08	-1.459932e+01	-9.597179e+02
6.500000e-07	-1.930841e-06	-1.424588e-08	-1.384443e+01	-9.379979e+02
6.600000e-07	-1.824866e-06	-1.389306e-08	-1.308457e+01	-9.151599e+02
6.700000e-07	-1.718125e-06	-1.352703e-08	-1.231922e+01	-8.911045e+02
6.800000e-07	-1.610658e-06	-1.313973e-08	-1.154867e+01	-8.657335e+02
6.900000e-07	-1.502625e-06	-1.272766e-08	-1.077405e+01	-8.389523e+02
7.000000e-07	-1.394140e-06	-1.229099e-08	-9.996198e+00	-8.106679e+02
7.100000e-07	-1.285240e-06	-1.183105e-08	-9.215368e+00	-7.807868e+02
7.200000e-07	-1.175942e-06	-1.134889e-08	-8.431686e+00	-7.492127e+02
7.300000e-07	-1.066327e-06	-1.084468e-08	-7.645730e+00	-7.158478e+02
7.400000e-07	-9.563916e-07	-1.031286e-08	-6.857474e+00	-6.805990e+02
7.500000e-07	-8.461167e-07	-9.746217e-09	-6.066787e+00	-6.433907e+02
7.600000e-07	-7.356214e-07	-9.144925e-09	-5.274518e+00	-6.041819e+02
7.700000e-07	-6.249029e-07	-8.511539e-09	-4.480650e+00	-5.629856e+02
7.800000e-07	-5.139870e-07	-7.852964e-09	-3.685366e+00	-5.198852e+02
7.900000e-07	-4.029502e-07	-7.172623e-09	-2.889215e+00	-4.750426e+02
8.000000e-07	-2.917794e-07	-6.471089e-09	-2.092103e+00	-4.286951e+02
8.100000e-07	-1.804768e-07	-5.748125e-09	-1.294046e+00	-3.811370e+02
8.200000e-07	-6.903480e-08	-5.009134e-09	-4.949901e-01	-3.326885e+02
8.300000e-07	4.246935e-08	-4.264134e-09	3.045118e-01	-2.836548e+02
8.400000e-07	1.539525e-07	-3.515296e-09	1.103863e+00	-2.342831e+02
8.500000e-07	2.653343e-07	-2.763702e-09	1.902488e+00	-1.847247e+02
8.600000e-07	3.766534e-07	-2.009114e-09	2.700663e+00	-1.350122e+02
8.700000e-07	4.878669e-07	-1.249502e-09	3.498081e+00	-8.505574e+01
8.800000e-07	5.988868e-07	-4.802280e-10	4.294110e+00	-3.466328e+01
8.900000e-07	7.098054e-07	3.006492e-10	5.089414e+00	1.641875e+01
9.000000e-07	8.205725e-07	1.092535e-09	5.883631e+00	6.844917e+01
9.100000e-07	9.310663e-07	1.899022e-09	6.675888e+00	1.216299e+02
9.200000e-07	1.041230e-06	2.724101e-09	7.465782e+00	1.760489e+02
9.300000e-07	1.151098e-06	3.568106e-09	8.253552e+00	2.316386e+02
9.400000e-07	1.260641e-06	4.426520e-09	9.038992e+00	2.881572e+02
9.500000e-07	1.369774e-06	5.294341e-09	9.821488e+00	3.451969e+02
9.600000e-07	1.478462e-06	6.162028e-09	1.060080e+01	4.022178e+02
9.700000e-07	1.586703e-06	7.019836e-09	1.137690e+01	4.586014e+02
9.800000e-07	1.694391e-06	7.859991e-09	1.214904e+01	5.137146e+02
9.900000e-07	1.801398e-06	8.671425e-09	1.291630e+01	5.669737e+02
1.000000e-06	1.907671e-06	9.443487e-09	1.367830e+01	6.178982e+02
1.010000e-06	2.013064e-06	1.017109e-08	1.443398e+01	6.661469e+02
1.020000e-06	2.117548e-06	1.085640e-08	1.518315e+01	7.115324e+02
1.030000e-06	2.221206e-06	1.150040e-08	1.592639e+01	7.540133e+02
1.040000e-06	2.324084e-06	1.209998e-08	1.666404e+01	7.936704e+02
1.050000e-06	2.426154e-06	1.266191e-08	1.739590e+01	8.306707e+02
1.060000e-06	2.527385e-06	1.318725e-08	1.812174e+01	8.652284e+02
1.070000e-06	2.627843e-06	1.367783e-08	1.884204e+01	8.975700e+02
1.080000e-06	2.727451e-06	1.413771e-08	1.955624e+01	9.279077e+02
1.090000e-06	2.826073e-06	1.457192e-08	2.026338e+01	9.564242e+02
1.100000e-06	2.923515e-06	1.498243e-08	2.096205e+01	9.832689e+02
1.110000e-06	3.019659e-06	1.536753e-08	2.165142e+01	1.008562e+03
1.120000e-06	3.114718e-06	1.572819e-08	2.233301e+01	1.032403e+03
1.130000e-06	3.208778e-06	1.606797e-08	2.300743e+01	1.054883e+03
1.140000e-06	3.301788e-06	1.639115e-08	2.367433e+01	1.076091e+03
1.150000e-06	3.393799e-06	1.669882e-08	2.433406e+01	1.096116e+03
1.160000e-06	3.484708e-06	1.698841e-08	2.498589e+01	1.115051e+03
1.170000e-06	3.574207e-06	1.725975e-08	2.562762e+01	1.132984e+03
1.180000e-06	3.662270e-06	1.751803e-08	2.625904e+01	1.149998e+03
1.190000e-06	3.749125e-06	1.776292e-08	2.688180e+01	1.166164e+03
1.200000e-06	3.834791e-06	1.799721e-08	2.749604e+01	1.181537e+03
1.210000e-06	3.919200e-06	1.821956e-08	2.810127e+01	1.196160e+03
1.220000e-06	4.002335e-06	1.843055e-08	2.869736e+01	1.210066e+03
1.230000e-06	4.084033e-06	1.862882e-08	2.928314e+01	1.223282e+03
1.240000e-06	4.164132e-06	1.881543e-08	2.985746e+01	1.235835e+03
1.250000e-06	4.242646e-06	1.899432e-08	3.042042e+01	1.247751e+03
1.260000e-06	4.319636e-06	1.916813e-08	3.097245e+01	1.259065e+03
1.270000e-06	4.395046e-06	1.933432e-08	3.151316e+01	1.269809e+03
1.280000e-06	4.468640e-06	1.949102e-08	3.204084e+01	1.280019e+03
1.290000e-06	4.540408e-06	1.963925e-08	3.255542e+01	1.289725e+03
1.300000e-06	4.610559e-06	1.977928e-08	3.305841e+01	1.298953e+03
1.310000e-06	4.679205e-06	1.991185e-08	3.355062e+01	1.307719e+03
1.320000e-06	4.746229e-06	2.003780e-08	3.403119e+01	1.316036e+03
1.330000e-06	4.811353e-06	2.015875e-08	3.449814e+01	1.323909e+03
1.340000e-06	4.874667e-06	2.027153e-08	3.495211e+01	1.331347e+03
1.350000e-06	4.936346e-06	2.037606e-08	3.539436e+01	1.338358e+03
1.360000e-06	4.996485e-06	2.047514e-08	3.582556e+01	1.344962e+03
1.370000e-06	5.054885e-06	2.057036e-08	3.624430e+01	1.351182e+03
1.380000e-06	5.111302e-06	2.066017e-08	3.664882e+01	1.357051e+03
1.390000e-06	5.165849e-06	2.074323e-08	3.703993e+01	1.362604e+03
1.400000e-06	5.218513e-06	2.082165e-08	3.741754e+01	1.367876e+03
1.410000e-06	5.269011e-06	2.089751e-08	3.777962e+01	1.372896e+03
1.420000e-06	5.317219e-06	2.097116e-08	3.812528e+01	1.377685e+03
1.430000e-06	5.363470e-06	2.104204e-08	3.845690e+01	1.382253e+03
1.440000e-06	5.408080e-06	2.110928e-08	3.877677e+01	1.386600e+03
1.450000e-06	5.450908e-06	2.117129e-08	3.908385e+01	1.390717e+03
1.460000e-06	5.491626e-06	2.122807e-08	3.937580e+01	1.394590e+03
1.470000e-06	5.530355e-06	2.128167e-08	3.965349e+01	1.398206e+03
1.480000e-06	5.567308e-06	2.133227e-08	3.991846e+01	1.401556e+03
1.490000e-06	5.602401e-06	2.137915e-08	4.017007e+01	1.404636e+03
1.500000e-06	5.635379e-06	2.142155e-08	4.040653e+01	1.407451e+03
1.510000e-06	5.666278e-06	2.146085e-08	4.062808e+01	1.410014e+03
1.520000e-06	5.695358e-06	2.149791e-08	4.083659e+01	1.412340e+03
1.530000e-06	5.722493e-06	2.153062e-08	4.103115e+01	1.414448e+03
1.540000e-06	5.747419e-06	2.155891e-08	4.120988e+01	1.416351e+03
1.550000e-06	5.770149e-06	2.158315e-08	4.137285e+01	1.418063e+03
1.560000e-06	5.790956e-06	2.160440e-08	4.152205e+01	1.419588e+03
1.570000e-06	5.809915e-06	2.162300e-08	4.165799e+01	1.420927e+03
1.580000e-06	5.826698e-06	2.163873e-08	4.177832e+01	1.422079e+03
1.590000e-06	5.841227e-06	2.165190e-08	4.188249e+01	1.423040e+03
1.600000e-06	5.853610e-06	2.166263e-08	4.197128e+01	1.423809e+03
1.610000e-06	5.863579e-06	2.167194e-08	4.204276e+01	1.424391e+03
1.620000e-06	5.871241e-06	2.167996e-08	4.209770e+01	1.424794e+03
1.630000e-06	5.876875e-06	2.168690e-08	4.213809e+01	1.425032e+03
1.640000e-06	5.880593e-06	2.169285e-08	4.216476e+01	1.425118e+03
1.650000e-06	5.882203e-06	2.169771e-08	4.217630e+01	1.425068e+03
1.660000e-06	5.881615e-06	2.169808e-08	4.217209e+01	1.424889e+03
1.670000e-06	5.879139e-06	2.168365e-08	4.215433e+01	1.424586e+03
1.680000e-06	5.874904e-06	2.167484e-08	4.212396e+01	1.424152e+03
1.690000e-06	5.868636e-06	2.166636e-08	4.207902e+01	1.423577e+03
1.700000e-06	5.860268e-06	2.165426e-08	4.201902e+01	1.422843e+03
1.710000e-06	5.850181e-06	2.164461e-08	4.194670e+01	1.421937e+03
1.720000e-06	5.838236e-06	2.163839e-08	4.186105e+01	1.420848e+03
1.730000e-06	5.824079e-06	2.165324e-08	4.175954e+01	1.419575e+03
1.740000e-06	5.807979e-06	2.158998e-08	4.164410e+01	1.418128e+03
1.750000e-06	5.789861e-06	2.146601e-08	4.151419e+01	1.416526e+03
1.760000e-06	5.768937e-06	2.150620e-08	4.136417e+01	1.414797e+03
1.770000e-06	5.745173e-06	2.150865e-08	4.119377e+01	1.412967e+03
1.780000e-06	5.719270e-06	2.148045e-08	4.100804e+01	1.411059e+03
1.790000e-06	5.692029e-06	2.160902e-08	4.081272e+01	1.409087e+03
1.800000e-06	5.663976e-06	2.135799e-08	4.061158e+01	1.407045e+03
1.810000e-06	5.634162e-06	2.130733e-08	4.039780e+01	1.404914e+03
1.820000e-06	5.601808e-06	2.147968e-08	4.016583e+01	1.402661e+03
1.830000e-06	5.567754e-06	2.118154e-08	3.992165e+01	1.400242e+03
1.840000e-06	5.531893e-06	2.132572e-08	3.966453e+01	1.397615e+03
1.850000e-06	5.493680e-06	2.141162e-08	3.939053e+01	1.394744e+03
1.860000e-06	5.453501e-06	2.110453e-08	3.910244e+01	1.391606e+03
1.870000e-06	5.411436e-06	2.125876e-08	3.880083e+01	1.388195e+03
1.880000e-06	5.367708e-06	2.108925e-08	3.848729e+01	1.384523e+03
1.890000e-06	5.322243e-06	2.094636e-08	3.816130e+01	1.380615e+03
1.900000e-06	5.274446e-06	2.107030e-08	3.781859e+01	1.376499e+03
1.910000e-06	5.224590e-06	2.084362e-08	3.746111e+01	1.372203e+03
1.920000e-06	5.172620e-06	2.093537e-08	3.708848e+01	1.367744e+03
1.930000e-06	5.118394e-06	2.082844e-08	3.669967e+01	1.363126e+03
1.940000e-06	5.062334e-06	2.064284e-08	3.629771e+01	1.358335e+03
1.950000e-06	5.004466e-06	2.069377e-08	3.588279e+01	1.353346e+03
1.960000e-06	4.944865e-06	2.051213e-08	3.545544e+01	1.348128e+03
1.970000e-06	4.883401e-06	2.054344e-08	3.501473e+01	1.342649e+03
1.980000e-06	4.820003e-06	2.039803e-08	3.456016e+01	1.336887e+03
1.990000e-06	4.754881e-06	2.026654e-08	3.409323e+01	1.330832e+03
2.000000e-06	4.688078e-06	2.023581e-08	3.361424e+01	1.324488e+03
2.010000e-06	4.619745e-06	2.004011e-08	3.312428e+01	1.317870e+03
2.020000e-06	4.549475e-06	2.006496e-08	3.262043e+01	1.310998e+03
2.030000e-06	4.477370e-06	1.989804e-08	3.210343e+01	1.303889e+03
2.040000e-06	4.403771e-06	1.978694e-08	3.157571e+01	1.296553e+03
2.050000e-06	4.328535e-06	1.969431e-08	3.103626e+01	1.288982e+03
2.060000e-06	4.251623e-06	1.951226e-08	3.048479e+01	1.281158e+03
2.070000e-06	4.172912e-06	1.945260e-08	2.992042e+01	1.273046e+03
2.080000e-06	4.092678e-06	1.928727e-08	2.934513e+01	1.264609e+03
2.090000e-06	4.011047e-06	1.919792e-08	2.875982e+01	1.255809e+03
2.100000e-06	3.928068e-06	1.901968e-08	2.816485e+01	1.246618e+03
2.110000e-06	3.843880e-06	1.886069e-08	2.756121e+01	1.237019e+03
2.120000e-06	3.758289e-06	1.873996e-08	2.694751e+01	1.227010e+03
2.130000e-06	3.671180e-06	1.857798e-08	2.632293e+01	1.216595e+03
2.140000e-06	3.582750e-06	1.844844e-08	2.568887e+01	1.205784e+03
2.150000e-06	3.493152e-06	1.824684e-08	2.504643e+01	1.194581e+03
2.160000e-06	3.402329e-06	1.808353e-08	2.439522e+01	1.182982e+03
2.170000e-06	3.310397e-06	1.788092e-08	2.373605e+01	1.170965e+03
2.180000e-06	3.217315e-06	1.769230e-08	2.306865e+01	1.158493e+03
2.190000e-06	3.122918e-06	1.750629e-08	2.239180e+01	1.145520e+03
2.200000e-06	3.027249e-06	1.730737e-08	2.170584e+01	1.131993e+03
2.210000e-06	2.930477e-06	1.709255e-08	2.101197e+01	1.117861e+03
2.220000e-06	2.832700e-06	1.684899e-08	2.031089e+01	1.103080e+03
2.230000e-06	2.733963e-06	1.662822e-08	1.960293e+01	1.087618e+03
2.240000e-06	2.634364e-06	1.639120e-08	1.888880e+01	1.071450e+03
2.250000e-06	2.533910e-06	1.614691e-08	1.816852e+01	1.054558e+03
2.260000e-06	2.432489e-06	1.587242e-08	1.744132e+01	1.036921e+03
2.270000e-06	2.329978e-06	1.558606e-08	1.670630e+01	1.018506e+03
2.280000e-06	2.226402e-06	1.528437e-08	1.596364e+01	9.992693e+02
2.290000e-06	2.121978e-06	1.497663e-08	1.521491e+01	9.791460e+02
2.300000e-06	2.016889e-06	1.466059e-08	1.446140e+01	9.580564e+02
2.310000e-06	1.911163e-06	1.432976e-08	1.370334e+01	9.359081e+02
2.320000e-06	1.804824e-06	1.398014e-08	1.294086e+01	9.126029e+02
2.330000e-06	1.697924e-06	1.360091e-08	1.217438e+01	8.880413e+02
2.340000e-06	1.590510e-06	1.320693e-08	1.140420e+01	8.621266e+02
2.350000e-06	1.482596e-06	1.279204e-08	1.063044e+01	8.347651e+02
2.360000e-06	1.374219e-06	1.235837e-08	9.853362e+00	8.058638e+02
2.370000e-06	1.265476e-06	1.189260e-08	9.073656e+00	7.753284e+02
2.380000e-06	1.156401e-06	1.139884e-08	8.291573e+00	7.430616e+02
2.390000e-06	1.046969e-06	1.087624e-08	7.506927e+00	7.089662e+02
2.400000e-06	9.371152e-07	1.032602e-08	6.719260e+00	6.729543e+02
2.410000e-06	8.269058e-07	9.749325e-09	5.929042e+00	6.349616e+02
2.420000e-06	7.164304e-07	9.142229e-09	5.136916e+00	5.949660e+02
2.430000e-06	6.056506e-07	8.503152e-09	4.342608e+00	5.530066e+02
2.440000e-06	4.946969e-07	7.829462e-09	3.547053e+00	5.091971e+02
2.450000e-06	3.835699e-07	7.131596e-09	2.750255e+00	4.637305e+02
2.460000e-06	2.722504e-07	6.416330e-09	1.952077e+00	4.168692e+02
2.470000e-06	1.608391e-07	5.686094e-09	1.153241e+00	3.689221e+02
2.480000e-06	4.931017e-08	4.940340e-09	3.535615e-01	3.202088e+02
2.490000e-06	-6.229769e-08	4.187214e-09	-4.466840e-01	2.710166e+02
2.500000e-06	-1.738322e-07	3.430134e-09	-1.246404e+00	2.215589e+02
2.510000e-06	-2.852450e-07	2.670446e-09	-2.045250e+00	1.719421e+02
2.520000e-06	-3.965778e-07	1.910650e-09	-2.843523e+00	1.221500e+02
2.530000e-06	-5.077913e-07	1.146294e-09	-3.640942e+00	7.204885e+01
2.540000e-06	-6.188214e-07	3.714880e-10	-4.437045e+00	2.141654e+01
2.550000e-06	-7.296166e-07	-4.190254e-10	-5.231463e+00	-3.000983e+01
2.560000e-06	-8.400453e-07	-1.222660e-09	-6.023254e+00	-8.247407e+01
2.570000e-06	-9.500341e-07	-2.040277e-09	-6.811891e+00	-1.361395e+02
2.580000e-06	-1.059635e-06	-2.878159e-09	-7.597745e+00	-1.910369e+02
2.590000e-06	-1.168900e-06	-3.732590e-09	-8.381194e+00	-2.470308e+02
2.600000e-06	-1.277812e-06	-4.599960e-09	-9.162108e+00	-3.038119e+02
2.610000e-06	-1.386327e-06	-5.474029e-09	-9.940177e+00	-3.609152e+02
2.620000e-06	-1.494381e-06	-6.345276e-09	-1.071494e+01	-4.177626e+02
2.630000e-06	-1.601895e-06	-7.203801e-09	-1.148583e+01	-4.737221e+02
2.640000e-06	-1.708870e-06	-8.038143e-09	-1.225286e+01	-5.281727e+02
2.650000e-06	-1.815314e-06	-8.840953e-09	-1.301608e+01	-5.805656e+02
2.660000e-06	-1.921133e-06	-9.606437e-09	-1.377482e+01	-6.304720e+02
2.670000e-06	-2.026199e-06	-1.033043e-08	-1.452816e+01	-6.776106e+02
2.680000e-06	-2.130521e-06	-1.100875e-08	-1.527616e+01	-7.218533e+02
2.690000e-06	-2.234033e-06	-1.164055e-08	-1.601836e+01	-7.632105e+02
2.700000e-06	-2.336665e-06	-1.223277e-08	-1.675425e+01	-8.018013e+02
2.710000e-06	-2.438295e-06	-1.278937e-08	-1.748295e+01	-8.378159e+02
2.720000e-06	-2.538919e-06	-1.330833e-08	-1.820444e+01	-8.714771e+02
2.730000e-06	-2.638643e-06	-1.379018e-08	-1.891947e+01	-9.030084e+02
2.740000e-06	-2.737453e-06	-1.424024e-08	-1.962796e+01	-9.326116e+02
2.750000e-06	-2.835353e-06	-1.466445e-08	-2.032992e+01	-9.604562e+02
2.760000e-06	-2.932319e-06	-1.506648e-08	-2.102518e+01	-9.866791e+02
2.770000e-06	-3.028361e-06	-1.544946e-08	-2.171382e+01	-1.011391e+03
2.780000e-06	-3.123416e-06	-1.580788e-08	-2.239537e+01	-1.034688e+03
2.790000e-06	-3.217337e-06	-1.614016e-08	-2.306880e+01	-1.056659e+03
2.800000e-06	-3.310028e-06	-1.645221e-08	-2.373341e+01	-1.077392e+03
2.810000e-06	-3.401507e-06	-1.674904e-08	-2.438933e+01	-1.096978e+03
2.820000e-06	-3.491740e-06	-1.703348e-08	-2.503632e+01	-1.115510e+03
2.830000e-06	-3.580762e-06	-1.730263e-08	-2.567461e+01	-1.133074e+03
2.840000e-06	-3.668574e-06	-1.755707e-08	-2.630424e+01	-1.149748e+03
2.850000e-06	-3.755037e-06	-1.780113e-08	-2.692419e+01	-1.165597e+03
2.860000e-06	-3.840039e-06	-1.803558e-08	-2.753367e+01	-1.180672e+03
2.870000e-06	-3.923625e-06	-1.825991e-08	-2.813299e+01	-1.195011e+03
2.880000e-06	-4.005929e-06	-1.847267e-08	-2.872313e+01	-1.208643e+03
2.890000e-06	-4.086924e-06	-1.867283e-08	-2.930387e+01	-1.221597e+03
2.900000e-06	-4.166431e-06	-1.885970e-08	-2.987395e+01	-1.233897e+03
2.910000e-06	-4.244179e-06	-1.903428e-08	-3.043142e+01	-1.245573e+03
2.920000e-06	-4.320180e-06	-1.920053e-08	-3.097636e+01	-1.256660e+03
2.930000e-06	-4.394563e-06	-1.936058e-08	-3.150969e+01	-1.267191e+03
2.940000e-06	-4.467397e-06	-1.951487e-08	-3.203192e+01	-1.277200e+03
