# Temperatura_=_34.88
# Concentracion g/m^3_=_28200.0
# C_Vs_to_Am_M_A/Vsm_=_65563218390.804596
# pendiente_HvsI_1/m_=_3716.3
# ordenada_HvsI_A/m_=_1297.0
# frecuencia_Hz_=_301961.4949658557

Tiempo_(s)	Campo_(V.s)	Magnetizacion_(V.s)	Campo_(kA/m)	Magnetizacion_(A/m)
0.000000e+00	-5.852012e-06	-2.152829e-08	-4.192382e+01	-1.406870e+03
1.000000e-08	-5.848584e-06	-2.152393e-08	-4.189926e+01	-1.406531e+03
2.000000e-08	-5.843322e-06	-2.151266e-08	-4.186156e+01	-1.406072e+03
3.000000e-08	-5.836320e-06	-2.150288e-08	-4.181140e+01	-1.405469e+03
4.000000e-08	-5.827363e-06	-2.148995e-08	-4.174724e+01	-1.404692e+03
5.000000e-08	-5.816189e-06	-2.147057e-08	-4.166718e+01	-1.403719e+03
6.000000e-08	-5.802922e-06	-2.144835e-08	-4.157214e+01	-1.402538e+03
7.000000e-08	-5.787503e-06	-2.141483e-08	-4.146168e+01	-1.401153e+03
8.000000e-08	-5.769901e-06	-2.140958e-08	-4.133557e+01	-1.399590e+03
9.000000e-08	-5.750249e-06	-2.146065e-08	-4.119479e+01	-1.397888e+03
1.000000e-07	-5.728399e-06	-2.140634e-08	-4.103825e+01	-1.396096e+03
1.100000e-07	-5.704319e-06	-2.132502e-08	-4.086574e+01	-1.394259e+03
1.200000e-07	-5.678059e-06	-2.131703e-08	-4.067762e+01	-1.392412e+03
1.300000e-07	-5.650068e-06	-2.119399e-08	-4.047709e+01	-1.390564e+03
1.400000e-07	-5.620754e-06	-2.111498e-08	-4.026708e+01	-1.388701e+03
1.500000e-07	-5.589824e-06	-2.127305e-08	-4.004550e+01	-1.386782e+03
1.600000e-07	-5.557060e-06	-2.112310e-08	-3.981078e+01	-1.384748e+03
1.700000e-07	-5.522452e-06	-2.109489e-08	-3.956285e+01	-1.382531e+03
1.800000e-07	-5.485826e-06	-2.121631e-08	-3.930046e+01	-1.380067e+03
1.900000e-07	-5.447250e-06	-2.094491e-08	-3.902411e+01	-1.377311e+03
2.000000e-07	-5.406812e-06	-2.090160e-08	-3.873440e+01	-1.374238e+03
2.100000e-07	-5.364249e-06	-2.090732e-08	-3.842948e+01	-1.370850e+03
2.200000e-07	-5.319671e-06	-2.079804e-08	-3.811013e+01	-1.367174e+03
2.300000e-07	-5.273124e-06	-2.082262e-08	-3.777667e+01	-1.363250e+03
2.400000e-07	-5.224373e-06	-2.075397e-08	-3.742741e+01	-1.359122e+03
2.500000e-07	-5.173293e-06	-2.065264e-08	-3.706147e+01	-1.354829e+03
2.600000e-07	-5.119906e-06	-2.058402e-08	-3.667901e+01	-1.350391e+03
2.700000e-07	-5.064655e-06	-2.047938e-08	-3.628319e+01	-1.345810e+03
2.800000e-07	-5.007639e-06	-2.045660e-08	-3.587473e+01	-1.341070e+03
2.900000e-07	-4.948654e-06	-2.037184e-08	-3.545216e+01	-1.336139e+03
3.000000e-07	-4.887831e-06	-2.028694e-08	-3.501642e+01	-1.330981e+03
3.100000e-07	-4.825224e-06	-2.019901e-08	-3.456791e+01	-1.325564e+03
3.200000e-07	-4.760842e-06	-2.010769e-08	-3.410667e+01	-1.319867e+03
3.300000e-07	-4.694652e-06	-2.003322e-08	-3.363249e+01	-1.313881e+03
3.400000e-07	-4.626667e-06	-1.990965e-08	-3.314545e+01	-1.307614e+03
3.500000e-07	-4.557040e-06	-1.983939e-08	-3.264664e+01	-1.301082e+03
3.600000e-07	-4.485932e-06	-1.971898e-08	-3.213722e+01	-1.294301e+03
3.700000e-07	-4.413307e-06	-1.959803e-08	-3.161693e+01	-1.287282e+03
3.800000e-07	-4.338794e-06	-1.951270e-08	-3.108312e+01	-1.280026e+03
3.900000e-07	-4.262414e-06	-1.939900e-08	-3.053594e+01	-1.272517e+03
4.000000e-07	-4.184370e-06	-1.927863e-08	-2.997683e+01	-1.264728e+03
4.100000e-07	-4.104609e-06	-1.913419e-08	-2.940542e+01	-1.256624e+03
4.200000e-07	-4.023336e-06	-1.900103e-08	-2.882318e+01	-1.248169e+03
4.300000e-07	-3.940793e-06	-1.886478e-08	-2.823185e+01	-1.239331e+03
4.400000e-07	-3.857054e-06	-1.873221e-08	-2.763194e+01	-1.230092e+03
4.500000e-07	-3.772175e-06	-1.859820e-08	-2.702387e+01	-1.220443e+03
4.600000e-07	-3.686076e-06	-1.843134e-08	-2.640705e+01	-1.210385e+03
4.700000e-07	-3.598757e-06	-1.825622e-08	-2.578149e+01	-1.199927e+03
4.800000e-07	-3.510168e-06	-1.808367e-08	-2.514685e+01	-1.189073e+03
4.900000e-07	-3.420184e-06	-1.792093e-08	-2.450220e+01	-1.177820e+03
5.000000e-07	-3.328878e-06	-1.775615e-08	-2.384809e+01	-1.166152e+03
5.100000e-07	-3.236379e-06	-1.757584e-08	-2.318542e+01	-1.154039e+03
5.200000e-07	-3.142755e-06	-1.737479e-08	-2.251470e+01	-1.141440e+03
5.300000e-07	-3.048044e-06	-1.715676e-08	-2.183619e+01	-1.128306e+03
5.400000e-07	-2.952224e-06	-1.693642e-08	-2.114974e+01	-1.114590e+03
5.500000e-07	-2.855274e-06	-1.672174e-08	-2.045519e+01	-1.100248e+03
5.600000e-07	-2.757098e-06	-1.650398e-08	-1.975185e+01	-1.085242e+03
5.700000e-07	-2.657719e-06	-1.626839e-08	-1.903990e+01	-1.069546e+03
5.800000e-07	-2.557380e-06	-1.600864e-08	-1.832107e+01	-1.053134e+03
5.900000e-07	-2.456195e-06	-1.573647e-08	-1.759619e+01	-1.035980e+03
6.000000e-07	-2.354170e-06	-1.546000e-08	-1.686528e+01	-1.018053e+03
6.100000e-07	-2.251324e-06	-1.518009e-08	-1.612849e+01	-9.993069e+02
6.200000e-07	-2.147685e-06	-1.488732e-08	-1.538602e+01	-9.796838e+02
6.300000e-07	-2.043238e-06	-1.457343e-08	-1.463776e+01	-9.591104e+02
6.400000e-07	-1.938007e-06	-1.423552e-08	-1.388388e+01	-9.375030e+02
6.500000e-07	-1.831894e-06	-1.387789e-08	-1.312369e+01	-9.147714e+02
6.600000e-07	-1.724935e-06	-1.350913e-08	-1.235743e+01	-8.908230e+02
6.700000e-07	-1.617402e-06	-1.312412e-08	-1.158707e+01	-8.655655e+02
6.800000e-07	-1.509354e-06	-1.271916e-08	-1.081301e+01	-8.389071e+02
6.900000e-07	-1.400821e-06	-1.229092e-08	-1.003548e+01	-8.107552e+02
7.000000e-07	-1.291901e-06	-1.183526e-08	-9.255177e+00	-7.810141e+02
7.100000e-07	-1.182601e-06	-1.134998e-08	-8.472154e+00	-7.495847e+02
7.200000e-07	-1.072939e-06	-1.083973e-08	-7.686539e+00	-7.163675e+02
7.300000e-07	-9.629723e-07	-1.030501e-08	-6.898734e+00	-6.812720e+02
7.400000e-07	-8.526937e-07	-9.741096e-09	-6.108698e+00	-6.442297e+02
7.500000e-07	-7.421303e-07	-9.146307e-09	-5.316622e+00	-6.052123e+02
7.600000e-07	-6.312924e-07	-8.520544e-09	-4.522579e+00	-5.642500e+02
7.700000e-07	-5.202355e-07	-7.866754e-09	-3.726967e+00	-5.214459e+02
7.800000e-07	-4.090988e-07	-7.188808e-09	-2.930784e+00	-4.769817e+02
7.900000e-07	-2.978517e-07	-6.492418e-09	-2.133810e+00	-4.311120e+02
8.000000e-07	-1.864195e-07	-5.777751e-09	-1.335509e+00	-3.841448e+02
8.100000e-07	-7.488847e-08	-5.049597e-09	-5.365011e-01	-3.364099e+02
8.200000e-07	3.665826e-08	-4.315944e-09	2.626198e-01	-2.882186e+02
8.300000e-07	1.481932e-07	-3.580996e-09	1.061656e+00	-2.398219e+02
8.400000e-07	2.597103e-07	-2.844542e-09	1.860565e+00	-1.913743e+02
8.500000e-07	3.711757e-07	-2.104105e-09	2.659103e+00	-1.429114e+02
8.600000e-07	4.824908e-07	-1.363014e-09	3.456564e+00	-9.434502e+01
8.700000e-07	5.936751e-07	-6.181410e-10	4.253089e+00	-4.548118e+01
8.800000e-07	7.047230e-07	1.324284e-10	5.048636e+00	3.943124e+00
8.900000e-07	8.154920e-07	8.935848e-10	5.842185e+00	5.420768e+01
9.000000e-07	9.259778e-07	1.673566e-09	6.633706e+00	1.055503e+02
9.100000e-07	1.036238e-06	2.475603e-09	7.423611e+00	1.581112e+02
9.200000e-07	1.146225e-06	3.296565e-09	8.211555e+00	2.118892e+02
9.300000e-07	1.255816e-06	4.129118e-09	8.996670e+00	2.667189e+02
9.400000e-07	1.364986e-06	4.971580e-09	9.778759e+00	3.222708e+02
9.500000e-07	1.473727e-06	5.818274e-09	1.055778e+01	3.780756e+02
9.600000e-07	1.581984e-06	6.661769e-09	1.133334e+01	4.335686e+02
9.700000e-07	1.689757e-06	7.492976e-09	1.210542e+01	4.881461e+02
9.800000e-07	1.796963e-06	8.301498e-09	1.287344e+01	5.412253e+02
9.900000e-07	1.903426e-06	9.076298e-09	1.363614e+01	5.922986e+02
1.000000e-06	2.009028e-06	9.810465e-09	1.439268e+01	6.409735e+02
1.010000e-06	2.113714e-06	1.050382e-08	1.514265e+01	6.869957e+02
1.020000e-06	2.217489e-06	1.115704e-08	1.588609e+01	7.302512e+02
1.030000e-06	2.320457e-06	1.176830e-08	1.662376e+01	7.707522e+02
1.040000e-06	2.422634e-06	1.234085e-08	1.735575e+01	8.086090e+02
1.050000e-06	2.523946e-06	1.287805e-08	1.808155e+01	8.439962e+02
1.060000e-06	2.624380e-06	1.338114e-08	1.880106e+01	8.771190e+02
1.070000e-06	2.724051e-06	1.385086e-08	1.951511e+01	9.081835e+02
1.080000e-06	2.822866e-06	1.429161e-08	2.022301e+01	9.373775e+02
1.090000e-06	2.920481e-06	1.470873e-08	2.092233e+01	9.648601e+02
1.100000e-06	3.016765e-06	1.510211e-08	2.161211e+01	9.907606e+02
1.110000e-06	3.111876e-06	1.547253e-08	2.229348e+01	1.015185e+03
1.120000e-06	3.205964e-06	1.582059e-08	2.296753e+01	1.038222e+03
1.130000e-06	3.299052e-06	1.615133e-08	2.363441e+01	1.059957e+03
1.140000e-06	3.391179e-06	1.646555e-08	2.429441e+01	1.080473e+03
1.150000e-06	3.482255e-06	1.676048e-08	2.494688e+01	1.099856e+03
1.160000e-06	3.571928e-06	1.703832e-08	2.558929e+01	1.118192e+03
1.170000e-06	3.660114e-06	1.730260e-08	2.622106e+01	1.135566e+03
1.180000e-06	3.747070e-06	1.755258e-08	2.684401e+01	1.152054e+03
1.190000e-06	3.832812e-06	1.778962e-08	2.745827e+01	1.167721e+03
1.200000e-06	3.917311e-06	1.801431e-08	2.806362e+01	1.182621e+03
1.210000e-06	4.000670e-06	1.822744e-08	2.866080e+01	1.196792e+03
1.220000e-06	4.082656e-06	1.842990e-08	2.924815e+01	1.210265e+03
1.230000e-06	4.162960e-06	1.862170e-08	2.982345e+01	1.223065e+03
1.240000e-06	4.241614e-06	1.880361e-08	3.038692e+01	1.235215e+03
1.250000e-06	4.318770e-06	1.897990e-08	3.093967e+01	1.246741e+03
1.260000e-06	4.394429e-06	1.914867e-08	3.148169e+01	1.257675e+03
1.270000e-06	4.468302e-06	1.930626e-08	3.201092e+01	1.268047e+03
1.280000e-06	4.540287e-06	1.945495e-08	3.252662e+01	1.277892e+03
1.290000e-06	4.610581e-06	1.959460e-08	3.303021e+01	1.287241e+03
1.300000e-06	4.679308e-06	1.972778e-08	3.352257e+01	1.296119e+03
1.310000e-06	4.746497e-06	1.985499e-08	3.400391e+01	1.304544e+03
1.320000e-06	4.811842e-06	1.997591e-08	3.447204e+01	1.312529e+03
1.330000e-06	4.875266e-06	2.009175e-08	3.492641e+01	1.320081e+03
1.340000e-06	4.937061e-06	2.020074e-08	3.536911e+01	1.327210e+03
1.350000e-06	4.997355e-06	2.030481e-08	3.580105e+01	1.333925e+03
1.360000e-06	5.055982e-06	2.040325e-08	3.622106e+01	1.340247e+03
1.370000e-06	5.112594e-06	2.049346e-08	3.662663e+01	1.346200e+03
1.380000e-06	5.167245e-06	2.057536e-08	3.701815e+01	1.351818e+03
1.390000e-06	5.220058e-06	2.065121e-08	3.739650e+01	1.357136e+03
1.400000e-06	5.270736e-06	2.072432e-08	3.775956e+01	1.362191e+03
1.410000e-06	5.319161e-06	2.079574e-08	3.810647e+01	1.367010e+03
1.420000e-06	5.365637e-06	2.086791e-08	3.843943e+01	1.371610e+03
1.430000e-06	5.410365e-06	2.093867e-08	3.875986e+01	1.375996e+03
1.440000e-06	5.453319e-06	2.100407e-08	3.906758e+01	1.380161e+03
1.450000e-06	5.494202e-06	2.106296e-08	3.936046e+01	1.384087e+03
1.460000e-06	5.533033e-06	2.111767e-08	3.963865e+01	1.387754e+03
1.470000e-06	5.570092e-06	2.116768e-08	3.990414e+01	1.391145e+03
1.480000e-06	5.605354e-06	2.121062e-08	4.015676e+01	1.394250e+03
1.490000e-06	5.638489e-06	2.124903e-08	4.039414e+01	1.397069e+03
1.500000e-06	5.669481e-06	2.128640e-08	4.061616e+01	1.399616e+03
1.510000e-06	5.698662e-06	2.132200e-08	4.082522e+01	1.401911e+03
1.520000e-06	5.725981e-06	2.135414e-08	4.102093e+01	1.403982e+03
1.530000e-06	5.751079e-06	2.138306e-08	4.120073e+01	1.405853e+03
1.540000e-06	5.773940e-06	2.140938e-08	4.136451e+01	1.407544e+03
1.550000e-06	5.794866e-06	2.143321e-08	4.151443e+01	1.409066e+03
1.560000e-06	5.813914e-06	2.145247e-08	4.165088e+01	1.410418e+03
1.570000e-06	5.830862e-06	2.146702e-08	4.177230e+01	1.411593e+03
1.580000e-06	5.845545e-06	2.147766e-08	4.187749e+01	1.412580e+03
1.590000e-06	5.858011e-06	2.148627e-08	4.196680e+01	1.413370e+03
1.600000e-06	5.868105e-06	2.149443e-08	4.203911e+01	1.413960e+03
1.610000e-06	5.875887e-06	2.150249e-08	4.209486e+01	1.414359e+03
1.620000e-06	5.881647e-06	2.151103e-08	4.213612e+01	1.414581e+03
1.630000e-06	5.885523e-06	2.151764e-08	4.216389e+01	1.414651e+03
1.640000e-06	5.887255e-06	2.152083e-08	4.217630e+01	1.414590e+03
1.650000e-06	5.886771e-06	2.152028e-08	4.217283e+01	1.414418e+03
1.660000e-06	5.884383e-06	2.150785e-08	4.215573e+01	1.414140e+03
1.670000e-06	5.880245e-06	2.149888e-08	4.212608e+01	1.413751e+03
1.680000e-06	5.874113e-06	2.149089e-08	4.208215e+01	1.413231e+03
1.690000e-06	5.865867e-06	2.147858e-08	4.202308e+01	1.412556e+03
1.700000e-06	5.855864e-06	2.146827e-08	4.195141e+01	1.411696e+03
1.710000e-06	5.844034e-06	2.146063e-08	4.186666e+01	1.410633e+03
1.720000e-06	5.830019e-06	2.146825e-08	4.176626e+01	1.409361e+03
1.730000e-06	5.813962e-06	2.142634e-08	4.165123e+01	1.407894e+03
1.740000e-06	5.795874e-06	2.131121e-08	4.152165e+01	1.406264e+03
1.750000e-06	5.775090e-06	2.133158e-08	4.137275e+01	1.404516e+03
1.760000e-06	5.751379e-06	2.134183e-08	4.120289e+01	1.402699e+03
1.770000e-06	5.725469e-06	2.129544e-08	4.101727e+01	1.400853e+03
1.780000e-06	5.698236e-06	2.141368e-08	4.082217e+01	1.399004e+03
1.790000e-06	5.670157e-06	2.123830e-08	4.062101e+01	1.397152e+03
1.800000e-06	5.640452e-06	2.114021e-08	4.040820e+01	1.395270e+03
1.810000e-06	5.608268e-06	2.132005e-08	4.017764e+01	1.393308e+03
1.820000e-06	5.574289e-06	2.109401e-08	3.993421e+01	1.391202e+03
1.830000e-06	5.538497e-06	2.113200e-08	3.967780e+01	1.388885e+03
1.840000e-06	5.500389e-06	2.126048e-08	3.940479e+01	1.386300e+03
1.850000e-06	5.460294e-06	2.101784e-08	3.911755e+01	1.383407e+03
1.860000e-06	5.418280e-06	2.110873e-08	3.881656e+01	1.380196e+03
1.870000e-06	5.374589e-06	2.099667e-08	3.850356e+01	1.376679e+03
1.880000e-06	5.329200e-06	2.081924e-08	3.817840e+01	1.372890e+03
1.890000e-06	5.281549e-06	2.090874e-08	3.783702e+01	1.368872e+03
1.900000e-06	5.231833e-06	2.072953e-08	3.748085e+01	1.364668e+03
1.910000e-06	5.179924e-06	2.079067e-08	3.710898e+01	1.360310e+03
1.920000e-06	5.125741e-06	2.074683e-08	3.672081e+01	1.355810e+03
1.930000e-06	5.069702e-06	2.054932e-08	3.631935e+01	1.351163e+03
1.940000e-06	5.011794e-06	2.057708e-08	3.590449e+01	1.346344e+03
1.950000e-06	4.952123e-06	2.040536e-08	3.547702e+01	1.341319e+03
1.960000e-06	4.890622e-06	2.039628e-08	3.503642e+01	1.336052e+03
1.970000e-06	4.827185e-06	2.030676e-08	3.458196e+01	1.330515e+03
1.980000e-06	4.761966e-06	2.016799e-08	3.411473e+01	1.324692e+03
1.990000e-06	4.695094e-06	2.014389e-08	3.363566e+01	1.318583e+03
2.000000e-06	4.626691e-06	1.996786e-08	3.314562e+01	1.312199e+03
2.010000e-06	4.556456e-06	1.995029e-08	3.264246e+01	1.305556e+03
2.020000e-06	4.484410e-06	1.980767e-08	3.212632e+01	1.298671e+03
2.030000e-06	4.410807e-06	1.968536e-08	3.159903e+01	1.291550e+03
2.040000e-06	4.335595e-06	1.961874e-08	3.106021e+01	1.284187e+03
2.050000e-06	4.258705e-06	1.945418e-08	3.050936e+01	1.276561e+03
2.060000e-06	4.180029e-06	1.938272e-08	2.994573e+01	1.268640e+03
2.070000e-06	4.099806e-06	1.922471e-08	2.937102e+01	1.260388e+03
2.080000e-06	4.018175e-06	1.911523e-08	2.878621e+01	1.251771e+03
2.090000e-06	3.935176e-06	1.895470e-08	2.819160e+01	1.242761e+03
2.100000e-06	3.850900e-06	1.879470e-08	2.758785e+01	1.233345e+03
2.110000e-06	3.765248e-06	1.868585e-08	2.697424e+01	1.223519e+03
2.120000e-06	3.678178e-06	1.853169e-08	2.635047e+01	1.213288e+03
2.130000e-06	3.589738e-06	1.839592e-08	2.571689e+01	1.202658e+03
2.140000e-06	3.500081e-06	1.819675e-08	2.507458e+01	1.191633e+03
2.150000e-06	3.409278e-06	1.802330e-08	2.442407e+01	1.180203e+03
2.160000e-06	3.317374e-06	1.783118e-08	2.376567e+01	1.168348e+03
2.170000e-06	3.224257e-06	1.764749e-08	2.309858e+01	1.156030e+03
2.180000e-06	3.129767e-06	1.746981e-08	2.242166e+01	1.143206e+03
2.190000e-06	3.034055e-06	1.727187e-08	2.173597e+01	1.129828e+03
2.200000e-06	2.937290e-06	1.706029e-08	2.104275e+01	1.115847e+03
2.210000e-06	2.839547e-06	1.682010e-08	2.034252e+01	1.101223e+03
2.220000e-06	2.740826e-06	1.659596e-08	1.963528e+01	1.085923e+03
2.230000e-06	2.641183e-06	1.636233e-08	1.892144e+01	1.069921e+03
2.240000e-06	2.540604e-06	1.612029e-08	1.820089e+01	1.053193e+03
2.250000e-06	2.439012e-06	1.585213e-08	1.747309e+01	1.035711e+03
2.260000e-06	2.336393e-06	1.556763e-08	1.673792e+01	1.017438e+03
2.270000e-06	2.232760e-06	1.526935e-08	1.599549e+01	9.983227e+02
2.280000e-06	2.128236e-06	1.496272e-08	1.524668e+01	9.783005e+02
2.290000e-06	2.022980e-06	1.464916e-08	1.449263e+01	9.572933e+02
2.300000e-06	1.917116e-06	1.432185e-08	1.373422e+01	9.352139e+02
2.310000e-06	1.810686e-06	1.397573e-08	1.297176e+01	9.119708e+02
2.320000e-06	1.703697e-06	1.359834e-08	1.220528e+01	8.874711e+02
2.330000e-06	1.596201e-06	1.320278e-08	1.143519e+01	8.616231e+02
2.340000e-06	1.488253e-06	1.278736e-08	1.066184e+01	8.343347e+02
2.350000e-06	1.379860e-06	1.235532e-08	9.885317e+00	8.055122e+02
2.360000e-06	1.271057e-06	1.189583e-08	9.105850e+00	7.750584e+02
2.370000e-06	1.161928e-06	1.140676e-08	8.324053e+00	7.428733e+02
2.380000e-06	1.052494e-06	1.088622e-08	7.540067e+00	7.088599e+02
2.390000e-06	9.426896e-07	1.033352e-08	6.753429e+00	6.729350e+02
2.400000e-06	8.325045e-07	9.753394e-09	5.964063e+00	6.350453e+02
2.410000e-06	7.219437e-07	9.146294e-09	5.172005e+00	5.951853e+02
2.420000e-06	6.111055e-07	8.513346e-09	4.377961e+00	5.534150e+02
2.430000e-06	5.001104e-07	7.849045e-09	3.582791e+00	5.098712e+02
2.440000e-06	3.889314e-07	7.160033e-09	2.786305e+00	4.647683e+02
2.450000e-06	2.776216e-07	6.451600e-09	1.988881e+00	4.183870e+02
2.460000e-06	1.661521e-07	5.728590e-09	1.190314e+00	3.710491e+02
2.470000e-06	5.454749e-08	4.994393e-09	3.907782e-01	3.230817e+02
2.480000e-06	-5.706435e-08	4.256495e-09	-4.088091e-01	2.747751e+02
2.490000e-06	-1.686574e-07	3.519900e-09	-1.208262e+00	2.263428e+02
2.500000e-06	-2.800938e-07	2.782425e-09	-2.006592e+00	1.778902e+02
2.510000e-06	-3.914155e-07	2.042776e-09	-2.804101e+00	1.293991e+02
2.520000e-06	-5.026780e-07	1.296584e-09	-3.601186e+00	8.073270e+01
2.530000e-06	-6.136862e-07	5.417098e-10	-4.396448e+00	3.166172e+01
2.540000e-06	-7.243777e-07	-2.240220e-10	-5.189442e+00	-1.809094e+01
2.550000e-06	-8.347729e-07	-9.991739e-10	-5.980313e+00	-6.879435e+01
2.560000e-06	-9.448762e-07	-1.786295e-09	-6.769094e+00	-1.206508e+02
2.570000e-06	-1.054614e-06	-2.592719e-09	-7.555256e+00	-1.737441e+02
2.580000e-06	-1.163928e-06	-3.419391e-09	-8.338382e+00	-2.280044e+02
2.590000e-06	-1.272898e-06	-4.264535e-09	-9.119045e+00	-2.831944e+02
2.600000e-06	-1.381519e-06	-5.120941e-09	-9.897205e+00	-3.389203e+02
2.610000e-06	-1.489699e-06	-5.978053e-09	-1.067220e+01	-3.946657e+02
2.620000e-06	-1.597370e-06	-6.824575e-09	-1.144356e+01	-4.498418e+02
2.630000e-06	-1.704518e-06	-7.650381e-09	-1.221117e+01	-5.038467e+02
2.640000e-06	-1.811131e-06	-8.451184e-09	-1.297495e+01	-5.561239e+02
2.650000e-06	-1.917081e-06	-9.220668e-09	-1.373397e+01	-6.062110e+02
2.660000e-06	-2.022293e-06	-9.952380e-09	-1.448771e+01	-6.537733e+02
2.670000e-06	-2.126773e-06	-1.064042e-08	-1.523620e+01	-6.986173e+02
2.680000e-06	-2.230493e-06	-1.128352e-08	-1.597925e+01	-7.406858e+02
2.690000e-06	-2.333335e-06	-1.188670e-08	-1.671601e+01	-7.800368e+02
2.700000e-06	-2.435096e-06	-1.245410e-08	-1.744503e+01	-8.168128e+02
2.710000e-06	-2.535797e-06	-1.298709e-08	-1.816645e+01	-8.512052e+02
2.720000e-06	-2.635605e-06	-1.348309e-08	-1.888148e+01	-8.834228e+02
2.730000e-06	-2.734587e-06	-1.394672e-08	-1.959058e+01	-9.136657e+02
2.740000e-06	-2.832653e-06	-1.438232e-08	-2.029313e+01	-9.421099e+02
2.750000e-06	-2.929749e-06	-1.479133e-08	-2.098872e+01	-9.689016e+02
2.760000e-06	-3.025917e-06	-1.517830e-08	-2.167767e+01	-9.941590e+02
2.770000e-06	-3.121139e-06	-1.554355e-08	-2.235984e+01	-1.017980e+03
2.780000e-06	-3.215216e-06	-1.588546e-08	-2.303381e+01	-1.040450e+03
2.790000e-06	-3.308029e-06	-1.620524e-08	-2.369872e+01	-1.061654e+03
2.800000e-06	-3.399645e-06	-1.650792e-08	-2.435506e+01	-1.081675e+03
2.810000e-06	-3.490016e-06	-1.679862e-08	-2.500248e+01	-1.100600e+03
2.820000e-06	-3.579074e-06	-1.707580e-08	-2.564049e+01	-1.118515e+03
2.830000e-06	-3.666986e-06	-1.733672e-08	-2.627029e+01	-1.135502e+03
2.840000e-06	-3.753623e-06	-1.758359e-08	-2.689096e+01	-1.151632e+03
2.850000e-06	-3.838736e-06	-1.781972e-08	-2.750071e+01	-1.166967e+03
2.860000e-06	-3.922509e-06	-1.804713e-08	-2.810086e+01	-1.181552e+03
2.870000e-06	-4.005009e-06	-1.826331e-08	-2.869189e+01	-1.195422e+03
2.880000e-06	-4.086136e-06	-1.846563e-08	-2.927308e+01	-1.208605e+03
2.890000e-06	-4.165832e-06	-1.865641e-08	-2.984402e+01	-1.221124e+03
2.900000e-06	-4.243738e-06	-1.883716e-08	-3.040214e+01	-1.233005e+03
2.910000e-06	-4.319822e-06	-1.900837e-08	-3.094721e+01	-1.244275e+03
2.920000e-06	-4.394391e-06	-1.917177e-08	-3.148142e+01	-1.254965e+03
2.930000e-06	-4.467421e-06	-1.932933e-08	-3.200461e+01	-1.265109e+03
2.940000e-06	-4.538831e-06	-1.948072e-08	-3.251619e+01	-1.274740e+03
