# Temperatura_=_45.67
# Concentracion g/m^3_=_28200.0
# C_Vs_to_Am_M_A/Vsm_=_65563218390.804596
# pendiente_HvsI_1/m_=_3716.3
# ordenada_HvsI_A/m_=_1297.0
# frecuencia_Hz_=_301953.93151855405

Tiempo_(s)	Campo_(V.s)	Magnetizacion_(V.s)	Campo_(kA/m)	Magnetizacion_(A/m)
0.000000e+00	-5.868348e-06	-2.157346e-08	-4.194361e+01	-1.411635e+03
1.000000e-08	-5.866859e-06	-2.157125e-08	-4.193297e+01	-1.411371e+03
2.000000e-08	-5.863325e-06	-2.156540e-08	-4.190771e+01	-1.410990e+03
3.000000e-08	-5.857931e-06	-2.155320e-08	-4.186916e+01	-1.410481e+03
4.000000e-08	-5.850728e-06	-2.154283e-08	-4.181767e+01	-1.409828e+03
5.000000e-08	-5.841661e-06	-2.152789e-08	-4.175287e+01	-1.409011e+03
6.000000e-08	-5.830419e-06	-2.150761e-08	-4.167252e+01	-1.408014e+03
7.000000e-08	-5.817029e-06	-2.148524e-08	-4.157681e+01	-1.406827e+03
8.000000e-08	-5.801499e-06	-2.145086e-08	-4.146581e+01	-1.405455e+03
9.000000e-08	-5.783780e-06	-2.145829e-08	-4.133917e+01	-1.403913e+03
1.000000e-07	-5.763945e-06	-2.151969e-08	-4.119740e+01	-1.402229e+03
1.100000e-07	-5.741932e-06	-2.145304e-08	-4.104006e+01	-1.400435e+03
1.200000e-07	-5.717749e-06	-2.136760e-08	-4.086722e+01	-1.398564e+03
1.300000e-07	-5.691420e-06	-2.135911e-08	-4.067903e+01	-1.396640e+03
1.400000e-07	-5.663425e-06	-2.121656e-08	-4.047893e+01	-1.394669e+03
1.500000e-07	-5.634047e-06	-2.114991e-08	-4.026896e+01	-1.392641e+03
1.600000e-07	-5.602969e-06	-2.133191e-08	-4.004683e+01	-1.390526e+03
1.700000e-07	-5.570049e-06	-2.116386e-08	-3.981154e+01	-1.388283e+03
1.800000e-07	-5.535271e-06	-2.115286e-08	-3.956297e+01	-1.385860e+03
1.900000e-07	-5.498505e-06	-2.126438e-08	-3.930018e+01	-1.383210e+03
2.000000e-07	-5.459836e-06	-2.095885e-08	-3.902380e+01	-1.380299e+03
2.100000e-07	-5.419327e-06	-2.094401e-08	-3.873426e+01	-1.377107e+03
2.200000e-07	-5.376682e-06	-2.094196e-08	-3.842946e+01	-1.373638e+03
2.300000e-07	-5.331945e-06	-2.082009e-08	-3.810971e+01	-1.369909e+03
2.400000e-07	-5.285254e-06	-2.086468e-08	-3.777599e+01	-1.365953e+03
2.500000e-07	-5.236238e-06	-2.078857e-08	-3.742565e+01	-1.361803e+03
2.600000e-07	-5.184805e-06	-2.068190e-08	-3.705803e+01	-1.357486e+03
2.700000e-07	-5.131231e-06	-2.062363e-08	-3.667512e+01	-1.353018e+03
2.800000e-07	-5.075845e-06	-2.052710e-08	-3.627925e+01	-1.348396e+03
2.900000e-07	-5.018608e-06	-2.049884e-08	-3.587015e+01	-1.343602e+03
3.000000e-07	-4.959391e-06	-2.041789e-08	-3.544690e+01	-1.338605e+03
3.100000e-07	-4.898405e-06	-2.033818e-08	-3.501101e+01	-1.333373e+03
3.200000e-07	-4.835686e-06	-2.022311e-08	-3.456273e+01	-1.327874e+03
3.300000e-07	-4.771100e-06	-2.012333e-08	-3.410111e+01	-1.322090e+03
3.400000e-07	-4.704623e-06	-2.005642e-08	-3.362596e+01	-1.316016e+03
3.500000e-07	-4.636449e-06	-1.993597e-08	-3.313869e+01	-1.309659e+03
3.600000e-07	-4.566645e-06	-1.987213e-08	-3.263978e+01	-1.303039e+03
3.700000e-07	-4.495360e-06	-1.974955e-08	-3.213028e+01	-1.296172e+03
3.800000e-07	-4.422470e-06	-1.962549e-08	-3.160930e+01	-1.289073e+03
3.900000e-07	-4.347675e-06	-1.952972e-08	-3.107471e+01	-1.281742e+03
4.000000e-07	-4.271124e-06	-1.940938e-08	-3.052756e+01	-1.274164e+03
4.100000e-07	-4.192879e-06	-1.929574e-08	-2.996831e+01	-1.266312e+03
4.200000e-07	-4.112918e-06	-1.915870e-08	-2.939679e+01	-1.258149e+03
4.300000e-07	-4.031437e-06	-1.902724e-08	-2.881441e+01	-1.249633e+03
4.400000e-07	-3.948683e-06	-1.888456e-08	-2.822293e+01	-1.240733e+03
4.500000e-07	-3.864754e-06	-1.875163e-08	-2.762306e+01	-1.231424e+03
4.600000e-07	-3.779591e-06	-1.861752e-08	-2.701437e+01	-1.221700e+03
4.700000e-07	-3.693245e-06	-1.845355e-08	-2.639721e+01	-1.211563e+03
4.800000e-07	-3.605816e-06	-1.828344e-08	-2.577232e+01	-1.201025e+03
4.900000e-07	-3.517059e-06	-1.810651e-08	-2.513794e+01	-1.190096e+03
5.000000e-07	-3.426826e-06	-1.793652e-08	-2.449300e+01	-1.178779e+03
5.100000e-07	-3.335225e-06	-1.776364e-08	-2.383829e+01	-1.167063e+03
5.200000e-07	-3.242484e-06	-1.758009e-08	-2.317543e+01	-1.154918e+03
5.300000e-07	-3.148659e-06	-1.738382e-08	-2.250482e+01	-1.142301e+03
5.400000e-07	-3.053720e-06	-1.717534e-08	-2.182625e+01	-1.129161e+03
5.500000e-07	-2.957669e-06	-1.696176e-08	-2.113973e+01	-1.115439e+03
5.600000e-07	-2.860394e-06	-1.674524e-08	-2.044447e+01	-1.101085e+03
5.700000e-07	-2.761928e-06	-1.652080e-08	-1.974069e+01	-1.086055e+03
5.800000e-07	-2.662344e-06	-1.628014e-08	-1.902892e+01	-1.070318e+03
5.900000e-07	-2.561738e-06	-1.601807e-08	-1.830985e+01	-1.053847e+03
6.000000e-07	-2.460224e-06	-1.574625e-08	-1.758428e+01	-1.036623e+03
6.100000e-07	-2.357854e-06	-1.546967e-08	-1.685260e+01	-1.018619e+03
6.200000e-07	-2.254691e-06	-1.518882e-08	-1.611525e+01	-9.997982e+02
6.300000e-07	-2.150736e-06	-1.489506e-08	-1.537224e+01	-9.801086e+02
6.400000e-07	-2.045930e-06	-1.457987e-08	-1.462314e+01	-9.594822e+02
6.500000e-07	-1.940312e-06	-1.424390e-08	-1.386825e+01	-9.378364e+02
6.600000e-07	-1.833955e-06	-1.388964e-08	-1.310807e+01	-9.150789e+02
6.700000e-07	-1.726895e-06	-1.352323e-08	-1.234286e+01	-8.911122e+02
6.800000e-07	-1.619156e-06	-1.313921e-08	-1.157280e+01	-8.658379e+02
6.900000e-07	-1.510841e-06	-1.273287e-08	-1.079863e+01	-8.391583e+02
7.000000e-07	-1.402083e-06	-1.230219e-08	-1.002129e+01	-8.109759e+02
7.100000e-07	-1.292894e-06	-1.184542e-08	-9.240872e+00	-7.811917e+02
7.200000e-07	-1.183322e-06	-1.136124e-08	-8.457712e+00	-7.497044e+02
7.300000e-07	-1.073415e-06	-1.085374e-08	-7.672158e+00	-7.164130e+02
7.400000e-07	-9.632108e-07	-1.032056e-08	-6.884482e+00	-6.812237e+02
7.500000e-07	-8.527083e-07	-9.756380e-09	-6.094673e+00	-6.440636e+02
7.600000e-07	-7.418854e-07	-9.159458e-09	-5.302574e+00	-6.048970e+02
7.700000e-07	-6.308303e-07	-8.528113e-09	-4.508816e+00	-5.637453e+02
7.800000e-07	-5.195594e-07	-7.868962e-09	-3.713515e+00	-5.207012e+02
7.900000e-07	-4.080892e-07	-7.186735e-09	-2.916789e+00	-4.759373e+02
8.000000e-07	-2.964846e-07	-6.485870e-09	-2.119103e+00	-4.297006e+02
8.100000e-07	-1.847505e-07	-5.766784e-09	-1.320491e+00	-3.822944e+02
8.200000e-07	-7.293792e-08	-5.032236e-09	-5.213187e-01	-3.340462e+02
8.300000e-07	3.889952e-08	-4.290266e-09	2.780316e-01	-2.852669e+02
8.400000e-07	1.507255e-07	-3.544888e-09	1.077300e+00	-2.362076e+02
8.500000e-07	2.624637e-07	-2.797744e-09	1.875941e+00	-1.870220e+02
8.600000e-07	3.740775e-07	-2.047471e-09	2.673693e+00	-1.377429e+02
8.700000e-07	4.856069e-07	-1.295646e-09	3.470841e+00	-8.827822e+01
8.800000e-07	5.970653e-07	-5.379850e-10	4.267483e+00	-3.843088e+01
8.900000e-07	7.084329e-07	2.305401e-10	5.063475e+00	1.206163e+01
9.000000e-07	8.195433e-07	1.012609e-09	5.857629e+00	6.347129e+01
9.100000e-07	9.302912e-07	1.811745e-09	6.649192e+00	1.160176e+02
9.200000e-07	1.040770e-06	2.629767e-09	7.438829e+00	1.698098e+02
9.300000e-07	1.150961e-06	3.465991e-09	8.226416e+00	2.248043e+02
9.400000e-07	1.260785e-06	4.315668e-09	9.011375e+00	2.807833e+02
9.500000e-07	1.370227e-06	5.174760e-09	9.793602e+00	3.373612e+02
9.600000e-07	1.479252e-06	6.035468e-09	1.057285e+01	3.940154e+02
9.700000e-07	1.587744e-06	6.889238e-09	1.134829e+01	4.501378e+02
9.800000e-07	1.695689e-06	7.726042e-09	1.211982e+01	5.050973e+02
9.900000e-07	1.803044e-06	8.536333e-09	1.288713e+01	5.583037e+02
1.000000e-06	1.909702e-06	9.311117e-09	1.364947e+01	6.092625e+02
1.010000e-06	2.015560e-06	1.004226e-08	1.440608e+01	6.576132e+02
1.020000e-06	2.120509e-06	1.072989e-08	1.515619e+01	7.031463e+02
1.030000e-06	2.224567e-06	1.137588e-08	1.589994e+01	7.457998e+02
1.040000e-06	2.327774e-06	1.197808e-08	1.663760e+01	7.856367e+02
1.050000e-06	2.430186e-06	1.254284e-08	1.736959e+01	8.228117e+02
1.060000e-06	2.531752e-06	1.307024e-08	1.809552e+01	8.575332e+02
1.070000e-06	2.632477e-06	1.356228e-08	1.881544e+01	8.900271e+02
1.080000e-06	2.732369e-06	1.402378e-08	1.952941e+01	9.205091e+02
1.090000e-06	2.831311e-06	1.445943e-08	2.023660e+01	9.491674e+02
1.100000e-06	2.929115e-06	1.487249e-08	2.093565e+01	9.761560e+02
1.110000e-06	3.025648e-06	1.526143e-08	2.162561e+01	1.001597e+03
1.120000e-06	3.121008e-06	1.562640e-08	2.230719e+01	1.025590e+03
1.130000e-06	3.215334e-06	1.596843e-08	2.298138e+01	1.048219e+03
1.140000e-06	3.308650e-06	1.629301e-08	2.364835e+01	1.069567e+03
1.150000e-06	3.400912e-06	1.660152e-08	2.430778e+01	1.089715e+03
1.160000e-06	3.492102e-06	1.689178e-08	2.495956e+01	1.108746e+03
1.170000e-06	3.581996e-06	1.716333e-08	2.560207e+01	1.126747e+03
1.180000e-06	3.670437e-06	1.742054e-08	2.623419e+01	1.143796e+03
1.190000e-06	3.757579e-06	1.766453e-08	2.685703e+01	1.159968e+03
1.200000e-06	3.843497e-06	1.789932e-08	2.747112e+01	1.175326e+03
1.210000e-06	3.928169e-06	1.812263e-08	2.807632e+01	1.189921e+03
1.220000e-06	4.011615e-06	1.833374e-08	2.867274e+01	1.203795e+03
1.230000e-06	4.093617e-06	1.853106e-08	2.925884e+01	1.216983e+03
1.240000e-06	4.174052e-06	1.871721e-08	2.983375e+01	1.229517e+03
1.250000e-06	4.253007e-06	1.889650e-08	3.039807e+01	1.241429e+03
1.260000e-06	4.330385e-06	1.906920e-08	3.095112e+01	1.252749e+03
1.270000e-06	4.406147e-06	1.923424e-08	3.149263e+01	1.263510e+03
1.280000e-06	4.480129e-06	1.939083e-08	3.202141e+01	1.273741e+03
1.290000e-06	4.552251e-06	1.953949e-08	3.253690e+01	1.283468e+03
1.300000e-06	4.622690e-06	1.968004e-08	3.304036e+01	1.292714e+03
1.310000e-06	4.691495e-06	1.981366e-08	3.353213e+01	1.301493e+03
1.320000e-06	4.758718e-06	1.994054e-08	3.401261e+01	1.309815e+03
1.330000e-06	4.824169e-06	2.006149e-08	3.448041e+01	1.317688e+03
1.340000e-06	4.887801e-06	2.017276e-08	3.493522e+01	1.325121e+03
1.350000e-06	4.949784e-06	2.027635e-08	3.537824e+01	1.332125e+03
1.360000e-06	5.010143e-06	2.037492e-08	3.580965e+01	1.338720e+03
1.370000e-06	5.068736e-06	2.046879e-08	3.622844e+01	1.344931e+03
1.380000e-06	5.125376e-06	2.055777e-08	3.663327e+01	1.350791e+03
1.390000e-06	5.180128e-06	2.064168e-08	3.702461e+01	1.356336e+03
1.400000e-06	5.233019e-06	2.072172e-08	3.740264e+01	1.361599e+03
1.410000e-06	5.283759e-06	2.079771e-08	3.776530e+01	1.366611e+03
1.420000e-06	5.332214e-06	2.086997e-08	3.811163e+01	1.371392e+03
1.430000e-06	5.378685e-06	2.094037e-08	3.844378e+01	1.375952e+03
1.440000e-06	5.423427e-06	2.100788e-08	3.876357e+01	1.380291e+03
1.450000e-06	5.466431e-06	2.106908e-08	3.907093e+01	1.384400e+03
1.460000e-06	5.507371e-06	2.112473e-08	3.936356e+01	1.388266e+03
1.470000e-06	5.546256e-06	2.117900e-08	3.964148e+01	1.391876e+03
1.480000e-06	5.583383e-06	2.123048e-08	3.990684e+01	1.395219e+03
1.490000e-06	5.618702e-06	2.127465e-08	4.015928e+01	1.398292e+03
1.500000e-06	5.651913e-06	2.131398e-08	4.039665e+01	1.401099e+03
1.510000e-06	5.683008e-06	2.135180e-08	4.061890e+01	1.403653e+03
1.520000e-06	5.712218e-06	2.138817e-08	4.082768e+01	1.405969e+03
1.530000e-06	5.739551e-06	2.142072e-08	4.102304e+01	1.408067e+03
1.540000e-06	5.764715e-06	2.144910e-08	4.120290e+01	1.409961e+03
1.550000e-06	5.787633e-06	2.147467e-08	4.136670e+01	1.411666e+03
1.560000e-06	5.808605e-06	2.149720e-08	4.151660e+01	1.413184e+03
1.570000e-06	5.827688e-06	2.151669e-08	4.165299e+01	1.414518e+03
1.580000e-06	5.844641e-06	2.153292e-08	4.177416e+01	1.415663e+03
1.590000e-06	5.859340e-06	2.154553e-08	4.187922e+01	1.416614e+03
1.600000e-06	5.871859e-06	2.155577e-08	4.196870e+01	1.417370e+03
1.610000e-06	5.882005e-06	2.156559e-08	4.204122e+01	1.417933e+03
1.620000e-06	5.889809e-06	2.157389e-08	4.209700e+01	1.418313e+03
1.630000e-06	5.895523e-06	2.157974e-08	4.213784e+01	1.418525e+03
1.640000e-06	5.899287e-06	2.158460e-08	4.216475e+01	1.418586e+03
1.650000e-06	5.900904e-06	2.158884e-08	4.217630e+01	1.418513e+03
1.660000e-06	5.900344e-06	2.158943e-08	4.217230e+01	1.418319e+03
1.670000e-06	5.897962e-06	2.157584e-08	4.215528e+01	1.418009e+03
1.680000e-06	5.893761e-06	2.156738e-08	4.212525e+01	1.417578e+03
1.690000e-06	5.887448e-06	2.156063e-08	4.208013e+01	1.417014e+03
1.700000e-06	5.879097e-06	2.154852e-08	4.202044e+01	1.416298e+03
1.710000e-06	5.869032e-06	2.153814e-08	4.194850e+01	1.415411e+03
1.720000e-06	5.857084e-06	2.153164e-08	4.186310e+01	1.414338e+03
1.730000e-06	5.842909e-06	2.154454e-08	4.176179e+01	1.413077e+03
1.740000e-06	5.826790e-06	2.148764e-08	4.164658e+01	1.411634e+03
1.750000e-06	5.808677e-06	2.136467e-08	4.151712e+01	1.410032e+03
1.760000e-06	5.787772e-06	2.139977e-08	4.136770e+01	1.408300e+03
1.770000e-06	5.763984e-06	2.140677e-08	4.119767e+01	1.406471e+03
1.780000e-06	5.738003e-06	2.137065e-08	4.101198e+01	1.404576e+03
1.790000e-06	5.710699e-06	2.150051e-08	4.081683e+01	1.402633e+03
1.800000e-06	5.682601e-06	2.128477e-08	4.061600e+01	1.400641e+03
1.810000e-06	5.652765e-06	2.119284e-08	4.040275e+01	1.398582e+03
1.820000e-06	5.620381e-06	2.136562e-08	4.017129e+01	1.396422e+03
1.830000e-06	5.586257e-06	2.111196e-08	3.992738e+01	1.394113e+03
1.840000e-06	5.550330e-06	2.121711e-08	3.967060e+01	1.391605e+03
1.850000e-06	5.512128e-06	2.133031e-08	3.939755e+01	1.388855e+03
1.860000e-06	5.471991e-06	2.105063e-08	3.911068e+01	1.385834e+03
1.870000e-06	5.429897e-06	2.118154e-08	3.880982e+01	1.382531e+03
1.880000e-06	5.386118e-06	2.103672e-08	3.849690e+01	1.378956e+03
1.890000e-06	5.340644e-06	2.086921e-08	3.817188e+01	1.375133e+03
1.900000e-06	5.292859e-06	2.097227e-08	3.783035e+01	1.371095e+03
1.910000e-06	5.242921e-06	2.076663e-08	3.747342e+01	1.366876e+03
1.920000e-06	5.190823e-06	2.084884e-08	3.710105e+01	1.362498e+03
1.930000e-06	5.136524e-06	2.077451e-08	3.671295e+01	1.357970e+03
1.940000e-06	5.080393e-06	2.058304e-08	3.631176e+01	1.353283e+03
1.950000e-06	5.022396e-06	2.060561e-08	3.589723e+01	1.348412e+03
1.960000e-06	4.962669e-06	2.042589e-08	3.547033e+01	1.343326e+03
1.970000e-06	4.901084e-06	2.045814e-08	3.503016e+01	1.337991e+03
1.980000e-06	4.837506e-06	2.033552e-08	3.457574e+01	1.332380e+03
1.990000e-06	4.772172e-06	2.020462e-08	3.410877e+01	1.326481e+03
2.000000e-06	4.705204e-06	2.018565e-08	3.363012e+01	1.320294e+03
2.010000e-06	4.636664e-06	1.999251e-08	3.314023e+01	1.313830e+03
2.020000e-06	4.566229e-06	1.998489e-08	3.263681e+01	1.307110e+03
2.030000e-06	4.493982e-06	1.983250e-08	3.212043e+01	1.300150e+03
2.040000e-06	4.420154e-06	1.973577e-08	3.159274e+01	1.292959e+03
2.050000e-06	4.344739e-06	1.965498e-08	3.105372e+01	1.285533e+03
2.060000e-06	4.267561e-06	1.947581e-08	3.050209e+01	1.277851e+03
2.070000e-06	4.188634e-06	1.940387e-08	2.993797e+01	1.269880e+03
2.080000e-06	4.108248e-06	1.924180e-08	2.936341e+01	1.261582e+03
2.090000e-06	4.026403e-06	1.914298e-08	2.877844e+01	1.252918e+03
2.100000e-06	3.943275e-06	1.897537e-08	2.818428e+01	1.243858e+03
2.110000e-06	3.858810e-06	1.882412e-08	2.758058e+01	1.234386e+03
2.120000e-06	3.772791e-06	1.870084e-08	2.696576e+01	1.224497e+03
2.130000e-06	3.685373e-06	1.854008e-08	2.634095e+01	1.214200e+03
2.140000e-06	3.596707e-06	1.840825e-08	2.570722e+01	1.203507e+03
2.150000e-06	3.506877e-06	1.821370e-08	2.506516e+01	1.192425e+03
2.160000e-06	3.415919e-06	1.804818e-08	2.441504e+01	1.180953e+03
2.170000e-06	3.323848e-06	1.785116e-08	2.375697e+01	1.169071e+03
2.180000e-06	3.230481e-06	1.766823e-08	2.308964e+01	1.156746e+03
2.190000e-06	3.135793e-06	1.747946e-08	2.241286e+01	1.143929e+03
2.200000e-06	3.039910e-06	1.728043e-08	2.172755e+01	1.130566e+03
2.210000e-06	2.942911e-06	1.707176e-08	2.103425e+01	1.116601e+03
2.220000e-06	2.844925e-06	1.683693e-08	2.033390e+01	1.101985e+03
2.230000e-06	2.746030e-06	1.661581e-08	1.962706e+01	1.086680e+03
2.240000e-06	2.646257e-06	1.637869e-08	1.891394e+01	1.070656e+03
2.250000e-06	2.545429e-06	1.613555e-08	1.819328e+01	1.053891e+03
2.260000e-06	2.443482e-06	1.586308e-08	1.746462e+01	1.036363e+03
2.270000e-06	2.340597e-06	1.557834e-08	1.672925e+01	1.018043e+03
2.280000e-06	2.236767e-06	1.528106e-08	1.598714e+01	9.988866e+02
2.290000e-06	2.132023e-06	1.497775e-08	1.523849e+01	9.788371e+02
2.300000e-06	2.026564e-06	1.466302e-08	1.448473e+01	9.578198e+02
2.310000e-06	1.920452e-06	1.433306e-08	1.372630e+01	9.357477e+02
2.320000e-06	1.813795e-06	1.398408e-08	1.296398e+01	9.125259e+02
2.330000e-06	1.706663e-06	1.360569e-08	1.219825e+01	8.880563e+02
2.340000e-06	1.599046e-06	1.321107e-08	1.142907e+01	8.622407e+02
2.350000e-06	1.490877e-06	1.279739e-08	1.065594e+01	8.349814e+02
2.360000e-06	1.382177e-06	1.236657e-08	9.879011e+00	8.061808e+02
2.370000e-06	1.273058e-06	1.190495e-08	9.099096e+00	7.757387e+02
2.380000e-06	1.163586e-06	1.141347e-08	8.316652e+00	7.435536e+02
2.390000e-06	1.053780e-06	1.089028e-08	7.531817e+00	7.095261e+02
2.400000e-06	9.436403e-07	1.033880e-08	6.744603e+00	6.735687e+02
2.410000e-06	8.331519e-07	9.761665e-09	5.954896e+00	6.356209e+02
2.420000e-06	7.222794e-07	9.154960e-09	5.162442e+00	5.956673e+02
2.430000e-06	6.111300e-07	8.518366e-09	4.368009e+00	5.537558e+02
2.440000e-06	4.998509e-07	7.848967e-09	3.572650e+00	5.100102e+02
2.450000e-06	3.883991e-07	7.153927e-09	2.776056e+00	4.646336e+02
2.460000e-06	2.767174e-07	6.440022e-09	1.977819e+00	4.178982e+02
2.470000e-06	1.648605e-07	5.710971e-09	1.178329e+00	3.701212e+02
2.480000e-06	5.294560e-08	4.967570e-09	3.784250e-01	3.216287e+02
2.490000e-06	-5.899553e-08	4.218405e-09	-4.216664e-01	2.727133e+02
2.500000e-06	-1.709269e-07	3.466676e-09	-1.221688e+00	2.235915e+02
2.510000e-06	-2.827245e-07	2.714401e-09	-2.020754e+00	1.743714e+02
2.520000e-06	-3.944010e-07	1.963720e-09	-2.818954e+00	1.250359e+02
2.530000e-06	-5.059915e-07	1.206336e-09	-3.616539e+00	7.544818e+01
2.540000e-06	-6.173877e-07	4.373200e-10	-4.412736e+00	2.537964e+01
2.550000e-06	-7.285228e-07	-3.452233e-10	-5.207066e+00	-2.544318e+01
2.560000e-06	-8.392844e-07	-1.139203e-09	-5.998727e+00	-7.727905e+01
2.570000e-06	-9.495509e-07	-1.947153e-09	-6.786849e+00	-1.303104e+02
2.580000e-06	-1.059408e-06	-2.774337e-09	-7.572044e+00	-1.845906e+02
2.590000e-06	-1.168974e-06	-3.619137e-09	-8.355163e+00	-2.400084e+02
2.600000e-06	-1.278235e-06	-4.480502e-09	-9.136099e+00	-2.962781e+02
2.610000e-06	-1.387073e-06	-5.351302e-09	-9.914005e+00	-3.529553e+02
2.620000e-06	-1.495428e-06	-6.219637e-09	-1.068847e+01	-4.094767e+02
2.630000e-06	-1.603293e-06	-7.073683e-09	-1.145943e+01	-4.652176e+02
2.640000e-06	-1.710652e-06	-7.903290e-09	-1.222677e+01	-5.195555e+02
2.650000e-06	-1.817418e-06	-8.704366e-09	-1.298987e+01	-5.719320e+02
2.660000e-06	-1.923538e-06	-9.471539e-09	-1.374836e+01	-6.219018e+02
2.670000e-06	-2.028979e-06	-1.019906e-08	-1.450199e+01	-6.691631e+02
2.680000e-06	-2.133699e-06	-1.088071e-08	-1.525046e+01	-7.135657e+02
2.690000e-06	-2.237611e-06	-1.151646e-08	-1.599317e+01	-7.551001e+02
2.700000e-06	-2.340613e-06	-1.211106e-08	-1.672937e+01	-7.938699e+02
2.710000e-06	-2.442703e-06	-1.266785e-08	-1.745905e+01	-8.300554e+02
2.720000e-06	-2.543762e-06	-1.318837e-08	-1.818137e+01	-8.638758e+02
2.730000e-06	-2.643762e-06	-1.367329e-08	-1.889610e+01	-8.955557e+02
2.740000e-06	-2.742825e-06	-1.412822e-08	-1.960415e+01	-9.253017e+02
2.750000e-06	-2.841008e-06	-1.455531e-08	-2.030591e+01	-9.532885e+02
2.760000e-06	-2.938288e-06	-1.495781e-08	-2.100121e+01	-9.796570e+02
2.770000e-06	-3.034587e-06	-1.533966e-08	-2.168950e+01	-1.004519e+03
2.780000e-06	-3.129933e-06	-1.569969e-08	-2.237098e+01	-1.027967e+03
2.790000e-06	-3.224206e-06	-1.603616e-08	-2.304479e+01	-1.050085e+03
2.800000e-06	-3.317165e-06	-1.635159e-08	-2.370921e+01	-1.070952e+03
2.810000e-06	-3.408882e-06	-1.665111e-08	-2.436475e+01	-1.090652e+03
2.820000e-06	-3.499425e-06	-1.693639e-08	-2.501190e+01	-1.109269e+03
2.830000e-06	-3.588687e-06	-1.720617e-08	-2.564989e+01	-1.126888e+03
2.840000e-06	-3.676712e-06	-1.746063e-08	-2.627905e+01	-1.143585e+03
2.850000e-06	-3.763538e-06	-1.770444e-08	-2.689963e+01	-1.159432e+03
2.860000e-06	-3.848970e-06	-1.793802e-08	-2.751024e+01	-1.174485e+03
2.870000e-06	-3.932937e-06	-1.816126e-08	-2.811039e+01	-1.188793e+03
2.880000e-06	-4.015566e-06	-1.837284e-08	-2.870098e+01	-1.202394e+03
2.890000e-06	-4.096849e-06	-1.857097e-08	-2.928195e+01	-1.215323e+03
2.900000e-06	-4.176707e-06	-1.875827e-08	-2.985272e+01	-1.227610e+03
2.910000e-06	-4.254898e-06	-1.893495e-08	-3.041159e+01	-1.239286e+03
2.920000e-06	-4.331274e-06	-1.910242e-08	-3.095748e+01	-1.250384e+03
2.930000e-06	-4.405952e-06	-1.926257e-08	-3.149124e+01	-1.260934e+03
2.940000e-06	-4.479028e-06	-1.941650e-08	-3.201354e+01	-1.270965e+03
