# Temperatura_=_47.89
# Concentracion g/m^3_=_28200.0
# C_Vs_to_Am_M_A/Vsm_=_65563218390.804596
# pendiente_HvsI_1/m_=_3716.3
# ordenada_HvsI_A/m_=_1297.0
# frecuencia_Hz_=_301953.74459613

Tiempo_(s)	Campo_(V.s)	Magnetizacion_(V.s)	Campo_(kA/m)	Magnetizacion_(A/m)
0.000000e+00	-5.854971e-06	-2.163502e-08	-4.193868e+01	-1.415263e+03
1.000000e-08	-5.853542e-06	-2.163343e-08	-4.192845e+01	-1.415020e+03
2.000000e-08	-5.850040e-06	-2.162709e-08	-4.190336e+01	-1.414658e+03
3.000000e-08	-5.844651e-06	-2.161468e-08	-4.186477e+01	-1.414164e+03
4.000000e-08	-5.837575e-06	-2.160213e-08	-4.181408e+01	-1.413519e+03
5.000000e-08	-5.828677e-06	-2.158540e-08	-4.175034e+01	-1.412701e+03
6.000000e-08	-5.817546e-06	-2.156521e-08	-4.167061e+01	-1.411693e+03
7.000000e-08	-5.804231e-06	-2.154340e-08	-4.157524e+01	-1.410491e+03
8.000000e-08	-5.788714e-06	-2.151495e-08	-4.146409e+01	-1.409100e+03
9.000000e-08	-5.771018e-06	-2.151893e-08	-4.133734e+01	-1.407543e+03
1.000000e-07	-5.751254e-06	-2.155211e-08	-4.119577e+01	-1.405852e+03
1.100000e-07	-5.729307e-06	-2.150124e-08	-4.103856e+01	-1.404064e+03
1.200000e-07	-5.705147e-06	-2.143372e-08	-4.086551e+01	-1.402214e+03
1.300000e-07	-5.678846e-06	-2.141046e-08	-4.067712e+01	-1.400323e+03
1.400000e-07	-5.650867e-06	-2.129466e-08	-4.047670e+01	-1.398396e+03
1.500000e-07	-5.621568e-06	-2.124490e-08	-4.026683e+01	-1.396419e+03
1.600000e-07	-5.590597e-06	-2.135361e-08	-4.004499e+01	-1.394356e+03
1.700000e-07	-5.557831e-06	-2.123955e-08	-3.981030e+01	-1.392158e+03
1.800000e-07	-5.523241e-06	-2.123059e-08	-3.956253e+01	-1.389774e+03
1.900000e-07	-5.486575e-06	-2.128403e-08	-3.929989e+01	-1.387154e+03
2.000000e-07	-5.447998e-06	-2.105743e-08	-3.902357e+01	-1.384263e+03
2.100000e-07	-5.407581e-06	-2.099171e-08	-3.873407e+01	-1.381086e+03
2.200000e-07	-5.365060e-06	-2.096507e-08	-3.842949e+01	-1.377628e+03
2.300000e-07	-5.320451e-06	-2.089252e-08	-3.810996e+01	-1.373909e+03
2.400000e-07	-5.273843e-06	-2.090464e-08	-3.777611e+01	-1.369963e+03
2.500000e-07	-5.225047e-06	-2.083916e-08	-3.742659e+01	-1.365823e+03
2.600000e-07	-5.173872e-06	-2.075043e-08	-3.706003e+01	-1.361515e+03
2.700000e-07	-5.120419e-06	-2.065869e-08	-3.667714e+01	-1.357050e+03
2.800000e-07	-5.065096e-06	-2.057041e-08	-3.628087e+01	-1.352423e+03
2.900000e-07	-5.007997e-06	-2.055302e-08	-3.587187e+01	-1.347613e+03
3.000000e-07	-4.948942e-06	-2.047502e-08	-3.544887e+01	-1.342588e+03
3.100000e-07	-4.888073e-06	-2.037939e-08	-3.501287e+01	-1.337315e+03
3.200000e-07	-4.825496e-06	-2.027701e-08	-3.456464e+01	-1.331766e+03
3.300000e-07	-4.761168e-06	-2.017988e-08	-3.410386e+01	-1.325924e+03
3.400000e-07	-4.694954e-06	-2.009395e-08	-3.362958e+01	-1.319788e+03
3.500000e-07	-4.626954e-06	-1.998724e-08	-3.314249e+01	-1.313367e+03
3.600000e-07	-4.557354e-06	-1.991368e-08	-3.264396e+01	-1.306680e+03
3.700000e-07	-4.486205e-06	-1.979524e-08	-3.213432e+01	-1.299745e+03
3.800000e-07	-4.413477e-06	-1.967139e-08	-3.161338e+01	-1.292575e+03
3.900000e-07	-4.338922e-06	-1.956757e-08	-3.107935e+01	-1.285168e+03
4.000000e-07	-4.262542e-06	-1.945389e-08	-3.053224e+01	-1.277509e+03
4.100000e-07	-4.184485e-06	-1.933995e-08	-2.997313e+01	-1.269570e+03
4.200000e-07	-4.104731e-06	-1.919870e-08	-2.940185e+01	-1.261314e+03
4.300000e-07	-4.023403e-06	-1.906029e-08	-2.881931e+01	-1.252704e+03
4.400000e-07	-3.940805e-06	-1.891936e-08	-2.822767e+01	-1.243710e+03
4.500000e-07	-3.857102e-06	-1.878763e-08	-2.762811e+01	-1.234311e+03
4.600000e-07	-3.772212e-06	-1.865336e-08	-2.702005e+01	-1.224500e+03
4.700000e-07	-3.686083e-06	-1.849052e-08	-2.640311e+01	-1.214280e+03
4.800000e-07	-3.598818e-06	-1.831434e-08	-2.577805e+01	-1.203661e+03
4.900000e-07	-3.510273e-06	-1.813520e-08	-2.514380e+01	-1.192647e+03
5.000000e-07	-3.420256e-06	-1.796446e-08	-2.449902e+01	-1.181237e+03
5.100000e-07	-3.328860e-06	-1.779151e-08	-2.384435e+01	-1.169415e+03
5.200000e-07	-3.236266e-06	-1.760993e-08	-2.318111e+01	-1.157149e+03
5.300000e-07	-3.142588e-06	-1.741146e-08	-2.251010e+01	-1.144397e+03
5.400000e-07	-3.047839e-06	-1.719829e-08	-2.183142e+01	-1.131110e+03
5.500000e-07	-2.951974e-06	-1.697989e-08	-2.114475e+01	-1.117236e+03
5.600000e-07	-2.854943e-06	-1.676341e-08	-2.044972e+01	-1.102731e+03
5.700000e-07	-2.756736e-06	-1.654263e-08	-1.974628e+01	-1.087561e+03
5.800000e-07	-2.657406e-06	-1.630194e-08	-1.903478e+01	-1.071699e+03
5.900000e-07	-2.557094e-06	-1.603657e-08	-1.831626e+01	-1.055124e+03
6.000000e-07	-2.455913e-06	-1.575927e-08	-1.759151e+01	-1.037814e+03
6.100000e-07	-2.353903e-06	-1.548090e-08	-1.686082e+01	-1.019741e+03
6.200000e-07	-2.251061e-06	-1.520062e-08	-1.612417e+01	-1.000862e+03
6.300000e-07	-2.147363e-06	-1.490766e-08	-1.538139e+01	-9.811196e+02
6.400000e-07	-2.042824e-06	-1.459358e-08	-1.463259e+01	-9.604387e+02
6.500000e-07	-1.937475e-06	-1.425629e-08	-1.387798e+01	-9.387324e+02
6.600000e-07	-1.831325e-06	-1.390041e-08	-1.311763e+01	-9.159064e+02
6.700000e-07	-1.724408e-06	-1.353271e-08	-1.235180e+01	-8.918641e+02
6.800000e-07	-1.616835e-06	-1.314870e-08	-1.158126e+01	-8.665102e+02
6.900000e-07	-1.508742e-06	-1.274286e-08	-1.080700e+01	-8.397518e+02
7.000000e-07	-1.400204e-06	-1.231185e-08	-1.002955e+01	-8.114965e+02
7.100000e-07	-1.291254e-06	-1.185241e-08	-9.249144e+00	-7.816501e+02
7.200000e-07	-1.181912e-06	-1.136505e-08	-8.465938e+00	-7.501147e+02
7.300000e-07	-1.072212e-06	-1.085495e-08	-7.680171e+00	-7.167907e+02
7.400000e-07	-9.621825e-07	-1.032141e-08	-6.892035e+00	-6.815845e+02
7.500000e-07	-8.518613e-07	-9.758275e-09	-6.101814e+00	-6.444214e+02
7.600000e-07	-7.413068e-07	-9.162534e-09	-5.309921e+00	-6.052635e+02
7.700000e-07	-6.305279e-07	-8.533747e-09	-4.516420e+00	-5.641287e+02
7.800000e-07	-5.195314e-07	-7.876387e-09	-3.721361e+00	-5.211067e+02
7.900000e-07	-4.083925e-07	-7.194634e-09	-2.925282e+00	-4.763661e+02
8.000000e-07	-2.971472e-07	-6.491322e-09	-2.128442e+00	-4.301499e+02
8.100000e-07	-1.857510e-07	-5.770180e-09	-1.330519e+00	-3.827567e+02
8.200000e-07	-7.421975e-08	-5.036690e-09	-5.316300e-01	-3.345093e+02
8.300000e-07	3.736937e-08	-4.297187e-09	2.676738e-01	-2.857134e+02
8.400000e-07	1.489633e-07	-3.553443e-09	1.067012e+00	-2.366156e+02
8.500000e-07	2.605296e-07	-2.806423e-09	1.866153e+00	-1.873661e+02
8.600000e-07	3.719761e-07	-2.055035e-09	2.664435e+00	-1.379964e+02
8.700000e-07	4.832388e-07	-1.300091e-09	3.461401e+00	-8.841614e+01
8.800000e-07	5.943617e-07	-5.387372e-10	4.257365e+00	-3.843235e+01
8.900000e-07	7.053384e-07	2.326676e-10	5.052282e+00	1.221029e+01
9.000000e-07	8.161251e-07	1.016548e-09	5.845838e+00	6.377465e+01
9.100000e-07	9.267048e-07	1.817284e-09	6.637911e+00	1.164703e+02
9.200000e-07	1.037015e-06	2.637205e-09	7.428058e+00	1.703974e+02
9.300000e-07	1.146937e-06	3.474054e-09	8.215417e+00	2.255048e+02
9.400000e-07	1.256462e-06	4.323253e-09	8.999939e+00	2.815707e+02
9.500000e-07	1.365605e-06	5.182252e-09	9.781721e+00	3.382090e+02
9.600000e-07	1.474335e-06	6.043100e-09	1.056054e+01	3.948999e+02
9.700000e-07	1.582652e-06	6.896754e-09	1.133641e+01	4.510411e+02
9.800000e-07	1.690511e-06	7.734080e-09	1.210899e+01	5.060091e+02
9.900000e-07	1.797712e-06	8.545305e-09	1.287686e+01	5.592216e+02
1.000000e-06	1.904051e-06	9.320432e-09	1.363856e+01	6.101916e+02
1.010000e-06	2.009556e-06	1.005053e-08	1.439429e+01	6.585639e+02
1.020000e-06	2.114284e-06	1.073566e-08	1.514445e+01	7.041321e+02
1.030000e-06	2.218155e-06	1.137967e-08	1.588847e+01	7.468348e+02
1.040000e-06	2.321144e-06	1.198275e-08	1.662617e+01	7.867334e+02
1.050000e-06	2.423325e-06	1.254842e-08	1.735808e+01	8.239795e+02
1.060000e-06	2.524645e-06	1.307737e-08	1.808383e+01	8.587772e+02
1.070000e-06	2.625161e-06	1.357078e-08	1.880381e+01	8.913483e+02
1.080000e-06	2.724898e-06	1.403421e-08	1.951823e+01	9.219050e+02
1.090000e-06	2.823615e-06	1.447135e-08	2.022532e+01	9.506329e+02
1.100000e-06	2.921144e-06	1.488429e-08	2.092392e+01	9.776850e+02
1.110000e-06	3.017494e-06	1.527367e-08	2.161407e+01	1.003184e+03
1.120000e-06	3.112710e-06	1.563751e-08	2.229609e+01	1.027230e+03
1.130000e-06	3.206877e-06	1.597897e-08	2.297060e+01	1.049913e+03
1.140000e-06	3.300044e-06	1.630383e-08	2.363795e+01	1.071316e+03
1.150000e-06	3.392235e-06	1.661258e-08	2.429830e+01	1.091526e+03
1.160000e-06	3.483278e-06	1.690330e-08	2.495044e+01	1.110630e+03
1.170000e-06	3.572890e-06	1.717707e-08	2.559232e+01	1.128717e+03
1.180000e-06	3.661108e-06	1.743753e-08	2.622422e+01	1.145867e+03
1.190000e-06	3.748110e-06	1.768531e-08	2.684741e+01	1.162153e+03
1.200000e-06	3.833924e-06	1.792177e-08	2.746209e+01	1.177636e+03
1.210000e-06	3.918489e-06	1.814590e-08	2.806782e+01	1.192363e+03
1.220000e-06	4.001851e-06	1.835774e-08	2.866494e+01	1.206369e+03
1.230000e-06	4.083776e-06	1.855692e-08	2.925176e+01	1.219685e+03
1.240000e-06	4.164088e-06	1.874471e-08	2.982703e+01	1.232336e+03
1.250000e-06	4.242840e-06	1.892465e-08	3.039112e+01	1.244349e+03
1.260000e-06	4.320012e-06	1.909825e-08	3.094390e+01	1.255753e+03
1.270000e-06	4.395620e-06	1.926526e-08	3.148547e+01	1.266580e+03
1.280000e-06	4.469463e-06	1.942349e-08	3.201440e+01	1.276864e+03
1.290000e-06	4.541447e-06	1.957208e-08	3.253002e+01	1.286633e+03
1.300000e-06	4.611722e-06	1.971337e-08	3.303339e+01	1.295915e+03
1.310000e-06	4.680405e-06	1.984833e-08	3.352536e+01	1.304729e+03
1.320000e-06	4.747479e-06	1.997539e-08	3.400581e+01	1.313089e+03
1.330000e-06	4.812748e-06	2.009525e-08	3.447333e+01	1.321005e+03
1.340000e-06	4.876232e-06	2.020761e-08	3.492805e+01	1.328486e+03
1.350000e-06	4.938081e-06	2.031234e-08	3.537107e+01	1.335542e+03
1.360000e-06	4.998398e-06	2.041107e-08	3.580312e+01	1.342190e+03
1.370000e-06	5.056957e-06	2.050649e-08	3.622258e+01	1.348455e+03
1.380000e-06	5.113476e-06	2.059775e-08	3.662742e+01	1.354366e+03
1.390000e-06	5.168157e-06	2.068280e-08	3.701909e+01	1.359956e+03
1.400000e-06	5.221034e-06	2.076310e-08	3.739784e+01	1.365261e+03
1.410000e-06	5.271724e-06	2.083936e-08	3.776093e+01	1.370309e+03
1.420000e-06	5.320131e-06	2.091233e-08	3.810767e+01	1.375121e+03
1.430000e-06	5.366549e-06	2.098244e-08	3.844016e+01	1.379709e+03
1.440000e-06	5.411261e-06	2.104881e-08	3.876043e+01	1.384072e+03
1.450000e-06	5.454257e-06	2.111123e-08	3.906840e+01	1.388201e+03
1.460000e-06	5.495183e-06	2.116992e-08	3.936155e+01	1.392082e+03
1.470000e-06	5.534077e-06	2.122524e-08	3.964015e+01	1.395699e+03
1.480000e-06	5.571201e-06	2.127590e-08	3.990606e+01	1.399043e+03
1.490000e-06	5.606449e-06	2.132050e-08	4.015854e+01	1.402108e+03
1.500000e-06	5.639592e-06	2.136162e-08	4.039594e+01	1.404900e+03
1.510000e-06	5.670655e-06	2.140061e-08	4.061844e+01	1.407432e+03
1.520000e-06	5.699845e-06	2.143729e-08	4.082753e+01	1.409723e+03
1.530000e-06	5.727120e-06	2.146977e-08	4.102290e+01	1.411793e+03
1.540000e-06	5.752162e-06	2.149691e-08	4.120227e+01	1.413661e+03
1.550000e-06	5.774956e-06	2.152059e-08	4.136554e+01	1.415341e+03
1.560000e-06	5.795838e-06	2.154309e-08	4.151512e+01	1.416838e+03
1.570000e-06	5.814884e-06	2.156379e-08	4.165154e+01	1.418153e+03
1.580000e-06	5.831828e-06	2.158021e-08	4.177291e+01	1.419283e+03
1.590000e-06	5.846522e-06	2.159239e-08	4.187816e+01	1.420223e+03
1.600000e-06	5.859018e-06	2.160213e-08	4.196767e+01	1.420970e+03
1.610000e-06	5.869163e-06	2.161106e-08	4.204034e+01	1.421528e+03
1.620000e-06	5.876961e-06	2.161872e-08	4.209620e+01	1.421908e+03
1.630000e-06	5.882691e-06	2.162465e-08	4.213724e+01	1.422124e+03
1.640000e-06	5.886472e-06	2.163018e-08	4.216432e+01	1.422195e+03
1.650000e-06	5.888144e-06	2.163459e-08	4.217630e+01	1.422138e+03
1.660000e-06	5.887623e-06	2.163383e-08	4.217257e+01	1.421964e+03
1.670000e-06	5.885170e-06	2.162290e-08	4.215500e+01	1.421675e+03
1.680000e-06	5.880954e-06	2.161562e-08	4.212480e+01	1.421262e+03
1.690000e-06	5.874735e-06	2.160949e-08	4.208025e+01	1.420711e+03
1.700000e-06	5.866457e-06	2.159936e-08	4.202096e+01	1.419999e+03
1.710000e-06	5.856439e-06	2.158883e-08	4.194920e+01	1.419107e+03
1.720000e-06	5.844487e-06	2.157956e-08	4.186359e+01	1.418022e+03
1.730000e-06	5.830349e-06	2.158006e-08	4.176232e+01	1.416743e+03
1.740000e-06	5.814303e-06	2.152647e-08	4.164738e+01	1.415283e+03
1.750000e-06	5.796201e-06	2.143981e-08	4.151772e+01	1.413668e+03
1.760000e-06	5.775352e-06	2.145443e-08	4.136838e+01	1.411934e+03
1.770000e-06	5.751665e-06	2.145087e-08	4.119871e+01	1.410117e+03
1.780000e-06	5.725834e-06	2.143061e-08	4.101368e+01	1.408248e+03
1.790000e-06	5.698626e-06	2.149886e-08	4.081880e+01	1.406343e+03
1.800000e-06	5.670489e-06	2.133897e-08	4.061725e+01	1.404399e+03
1.810000e-06	5.640672e-06	2.128036e-08	4.040368e+01	1.402392e+03
1.820000e-06	5.608464e-06	2.137408e-08	4.017297e+01	1.400281e+03
1.830000e-06	5.574470e-06	2.119879e-08	3.992948e+01	1.398016e+03
1.840000e-06	5.538644e-06	2.126512e-08	3.967286e+01	1.395543e+03
1.850000e-06	5.500573e-06	2.133853e-08	3.940016e+01	1.392819e+03
1.860000e-06	5.460487e-06	2.117644e-08	3.911302e+01	1.389816e+03
1.870000e-06	5.418498e-06	2.123405e-08	3.881226e+01	1.386526e+03
1.880000e-06	5.374824e-06	2.110596e-08	3.849943e+01	1.382961e+03
1.890000e-06	5.329396e-06	2.096857e-08	3.817403e+01	1.379148e+03
1.900000e-06	5.281745e-06	2.099203e-08	3.783271e+01	1.375121e+03
1.910000e-06	5.231971e-06	2.087654e-08	3.747619e+01	1.370912e+03
1.920000e-06	5.180022e-06	2.093717e-08	3.710408e+01	1.366541e+03
1.930000e-06	5.125913e-06	2.084152e-08	3.671650e+01	1.362013e+03
1.940000e-06	5.069922e-06	2.068878e-08	3.631544e+01	1.357317e+03
1.950000e-06	5.011989e-06	2.067571e-08	3.590048e+01	1.352425e+03
1.960000e-06	4.952290e-06	2.052756e-08	3.547285e+01	1.347306e+03
1.970000e-06	4.890765e-06	2.051026e-08	3.503216e+01	1.341927e+03
1.980000e-06	4.827335e-06	2.041569e-08	3.457781e+01	1.336263e+03
1.990000e-06	4.762111e-06	2.030874e-08	3.411062e+01	1.330304e+03
2.000000e-06	4.695245e-06	2.024570e-08	3.363166e+01	1.324053e+03
2.010000e-06	4.626838e-06	2.008822e-08	3.314167e+01	1.317525e+03
2.020000e-06	4.556537e-06	2.005034e-08	3.263811e+01	1.310738e+03
2.030000e-06	4.484415e-06	1.992303e-08	3.212150e+01	1.303709e+03
2.040000e-06	4.410750e-06	1.981740e-08	3.159385e+01	1.296446e+03
2.050000e-06	4.335473e-06	1.971511e-08	3.105464e+01	1.288942e+03
2.060000e-06	4.258482e-06	1.956325e-08	3.050316e+01	1.281176e+03
2.070000e-06	4.179771e-06	1.947342e-08	2.993936e+01	1.273116e+03
2.080000e-06	4.099525e-06	1.932246e-08	2.936456e+01	1.264724e+03
2.090000e-06	4.017837e-06	1.920663e-08	2.877944e+01	1.255966e+03
2.100000e-06	3.934836e-06	1.904588e-08	2.818492e+01	1.246813e+03
2.110000e-06	3.850560e-06	1.889205e-08	2.758125e+01	1.237251e+03
2.120000e-06	3.764837e-06	1.876391e-08	2.696723e+01	1.227278e+03
2.130000e-06	3.677670e-06	1.861380e-08	2.634285e+01	1.216900e+03
2.140000e-06	3.589197e-06	1.847194e-08	2.570913e+01	1.206124e+03
2.150000e-06	3.499563e-06	1.828433e-08	2.506709e+01	1.194955e+03
2.160000e-06	3.408791e-06	1.810834e-08	2.441690e+01	1.183385e+03
2.170000e-06	3.316911e-06	1.791150e-08	2.375877e+01	1.171392e+03
2.180000e-06	3.223769e-06	1.772115e-08	2.309160e+01	1.158940e+03
2.190000e-06	3.129254e-06	1.753359e-08	2.241459e+01	1.145983e+03
2.200000e-06	3.033514e-06	1.733515e-08	2.172882e+01	1.132470e+03
2.210000e-06	2.936709e-06	1.712026e-08	2.103541e+01	1.118353e+03
2.220000e-06	2.838922e-06	1.688064e-08	2.033497e+01	1.103590e+03
2.230000e-06	2.740170e-06	1.664941e-08	1.962762e+01	1.088149e+03
2.240000e-06	2.640505e-06	1.641422e-08	1.891372e+01	1.072009e+03
2.250000e-06	2.539926e-06	1.617018e-08	1.819328e+01	1.055147e+03
2.260000e-06	2.438366e-06	1.590015e-08	1.746582e+01	1.037540e+03
2.270000e-06	2.335824e-06	1.561479e-08	1.673132e+01	1.019156e+03
2.280000e-06	2.232317e-06	1.531537e-08	1.598991e+01	9.999448e+02
2.290000e-06	2.127901e-06	1.500587e-08	1.524198e+01	9.798424e+02
2.300000e-06	2.022700e-06	1.468615e-08	1.448844e+01	9.587688e+02
2.310000e-06	1.916842e-06	1.435412e-08	1.373019e+01	9.366333e+02
2.320000e-06	1.810396e-06	1.400503e-08	1.296772e+01	9.133401e+02
2.330000e-06	1.703409e-06	1.362795e-08	1.220138e+01	8.887929e+02
2.340000e-06	1.595948e-06	1.323007e-08	1.143165e+01	8.628974e+02
2.350000e-06	1.487983e-06	1.281342e-08	1.065830e+01	8.355612e+02
2.360000e-06	1.379492e-06	1.237987e-08	9.881193e+00	8.066914e+02
2.370000e-06	1.270590e-06	1.191957e-08	9.101133e+00	7.761925e+02
2.380000e-06	1.161365e-06	1.142929e-08	8.318762e+00	7.439654e+02
2.390000e-06	1.051815e-06	1.090604e-08	7.534069e+00	7.099117e+02
2.400000e-06	9.419273e-07	1.035174e-08	6.746949e+00	6.739432e+02
2.410000e-06	8.316897e-07	9.770875e-09	5.957326e+00	6.359974e+02
2.420000e-06	7.211380e-07	9.163862e-09	5.165453e+00	5.960562e+02
2.430000e-06	6.102959e-07	8.529634e-09	4.371500e+00	5.541642e+02
2.440000e-06	4.992203e-07	7.864043e-09	3.575875e+00	5.104417e+02
2.450000e-06	3.879599e-07	7.171226e-09	2.778925e+00	4.650879e+02
2.460000e-06	2.765551e-07	6.455981e-09	1.980942e+00	4.183707e+02
2.470000e-06	1.650429e-07	5.723592e-09	1.182189e+00	3.706026e+02
2.480000e-06	5.349968e-08	4.977957e-09	3.832139e-01	3.221048e+02
2.490000e-06	-5.808833e-08	4.227370e-09	-4.160820e-01	2.731647e+02
2.500000e-06	-1.696444e-07	3.475932e-09	-1.215149e+00	2.239948e+02
2.510000e-06	-2.810586e-07	2.723678e-09	-2.013200e+00	1.747004e+02
2.520000e-06	-3.924291e-07	1.970900e-09	-2.810938e+00	1.252643e+02
2.530000e-06	-5.037050e-07	1.211665e-09	-3.607999e+00	7.555224e+01
2.540000e-06	-6.147794e-07	4.404956e-10	-4.403615e+00	2.534099e+01
2.550000e-06	-7.256067e-07	-3.448735e-10	-5.197462e+00	-2.563482e+01
2.560000e-06	-8.361184e-07	-1.142022e-09	-5.989048e+00	-7.762437e+01
2.570000e-06	-9.462412e-07	-1.952717e-09	-6.777849e+00	-1.308003e+02
2.580000e-06	-1.055916e-06	-2.782417e-09	-7.563441e+00	-1.852073e+02
2.590000e-06	-1.165164e-06	-3.630881e-09	-8.345972e+00	-2.407281e+02
2.600000e-06	-1.274093e-06	-4.493383e-09	-9.126223e+00	-2.970741e+02
2.610000e-06	-1.382746e-06	-5.362643e-09	-9.904498e+00	-3.538017e+02
2.620000e-06	-1.491002e-06	-6.229470e-09	-1.067993e+01	-4.103519e+02
2.630000e-06	-1.598693e-06	-7.084328e-09	-1.145131e+01	-4.661064e+02
2.640000e-06	-1.705786e-06	-7.916867e-09	-1.221841e+01	-5.204508e+02
2.650000e-06	-1.812355e-06	-8.719815e-09	-1.298175e+01	-5.728346e+02
2.660000e-06	-1.918311e-06	-9.486883e-09	-1.374071e+01	-6.228191e+02
2.670000e-06	-2.023511e-06	-1.021382e-08	-1.449425e+01	-6.701069e+02
2.680000e-06	-2.127995e-06	-1.089717e-08	-1.524265e+01	-7.145502e+02
2.690000e-06	-2.231704e-06	-1.153392e-08	-1.598551e+01	-7.561389e+02
2.700000e-06	-2.334423e-06	-1.212930e-08	-1.672129e+01	-7.949745e+02
2.710000e-06	-2.436172e-06	-1.268814e-08	-1.745011e+01	-8.312334e+02
2.720000e-06	-2.536969e-06	-1.321111e-08	-1.817210e+01	-8.651308e+02
2.730000e-06	-2.636754e-06	-1.369783e-08	-1.888686e+01	-8.968873e+02
2.740000e-06	-2.735647e-06	-1.415290e-08	-1.959522e+01	-9.267060e+02
2.750000e-06	-2.833660e-06	-1.458069e-08	-2.029728e+01	-9.547599e+02
2.760000e-06	-2.930756e-06	-1.498444e-08	-2.099277e+01	-9.811894e+02
2.770000e-06	-3.026954e-06	-1.536855e-08	-2.168183e+01	-1.006107e+03
2.780000e-06	-3.122123e-06	-1.573103e-08	-2.236352e+01	-1.029609e+03
2.790000e-06	-3.216097e-06	-1.606995e-08	-2.303664e+01	-1.051779e+03
2.800000e-06	-3.308855e-06	-1.638594e-08	-2.370106e+01	-1.072704e+03
2.810000e-06	-3.400398e-06	-1.668281e-08	-2.435678e+01	-1.092470e+03
2.820000e-06	-3.490700e-06	-1.696762e-08	-2.500360e+01	-1.111165e+03
2.830000e-06	-3.579776e-06	-1.724043e-08	-2.564165e+01	-1.128875e+03
2.840000e-06	-3.667666e-06	-1.749881e-08	-2.627120e+01	-1.145679e+03
2.850000e-06	-3.754271e-06	-1.774512e-08	-2.689154e+01	-1.161644e+03
2.860000e-06	-3.839450e-06	-1.798104e-08	-2.750167e+01	-1.176825e+03
2.870000e-06	-3.923208e-06	-1.820671e-08	-2.810162e+01	-1.191266e+03
2.880000e-06	-4.005606e-06	-1.841918e-08	-2.869183e+01	-1.204999e+03
2.890000e-06	-4.086648e-06	-1.861806e-08	-2.927233e+01	-1.218051e+03
2.900000e-06	-4.166310e-06	-1.880609e-08	-2.984294e+01	-1.230449e+03
2.910000e-06	-4.244287e-06	-1.898467e-08	-3.040148e+01	-1.242220e+03
2.920000e-06	-4.320436e-06	-1.915428e-08	-3.094693e+01	-1.253395e+03
2.930000e-06	-4.394958e-06	-1.931670e-08	-3.148073e+01	-1.264005e+03
2.940000e-06	-4.467877e-06	-1.947358e-08	-3.200304e+01	-1.274084e+03
