# Temperatura_=_69.3
# Concentracion g/m^3_=_28200.0
# C_Vs_to_Am_M_A/Vsm_=_65563218390.804596
# pendiente_HvsI_1/m_=_3716.3
# ordenada_HvsI_A/m_=_1297.0
# frecuencia_Hz_=_301956.9357598587

Tiempo_(s)	Campo_(V.s)	Magnetizacion_(V.s)	Campo_(kA/m)	Magnetizacion_(A/m)
0.000000e+00	-5.862954e-06	-2.313179e-08	-4.194079e+01	-1.514532e+03
1.000000e-08	-5.861514e-06	-2.313193e-08	-4.193049e+01	-1.514210e+03
2.000000e-08	-5.857962e-06	-2.312814e-08	-4.190508e+01	-1.513735e+03
3.000000e-08	-5.852538e-06	-2.311727e-08	-4.186628e+01	-1.513103e+03
4.000000e-08	-5.845372e-06	-2.310497e-08	-4.181502e+01	-1.512309e+03
5.000000e-08	-5.836326e-06	-2.308682e-08	-4.175031e+01	-1.511342e+03
6.000000e-08	-5.825058e-06	-2.306408e-08	-4.166970e+01	-1.510197e+03
7.000000e-08	-5.811633e-06	-2.303982e-08	-4.157367e+01	-1.508870e+03
8.000000e-08	-5.796067e-06	-2.300837e-08	-4.146231e+01	-1.507361e+03
9.000000e-08	-5.778315e-06	-2.300849e-08	-4.133533e+01	-1.505681e+03
1.000000e-07	-5.758482e-06	-2.304587e-08	-4.119345e+01	-1.503845e+03
1.100000e-07	-5.736470e-06	-2.298340e-08	-4.103599e+01	-1.501874e+03
1.200000e-07	-5.712226e-06	-2.290236e-08	-4.086255e+01	-1.499791e+03
1.300000e-07	-5.685796e-06	-2.287773e-08	-4.067349e+01	-1.497617e+03
1.400000e-07	-5.657673e-06	-2.277294e-08	-4.047231e+01	-1.495363e+03
1.500000e-07	-5.628206e-06	-2.273330e-08	-4.026151e+01	-1.493029e+03
1.600000e-07	-5.597173e-06	-2.284784e-08	-4.003952e+01	-1.490602e+03
1.700000e-07	-5.564363e-06	-2.269130e-08	-3.980481e+01	-1.488055e+03
1.800000e-07	-5.529583e-06	-2.264979e-08	-3.955601e+01	-1.485351e+03
1.900000e-07	-5.492724e-06	-2.270463e-08	-3.929234e+01	-1.482449e+03
2.000000e-07	-5.453993e-06	-2.250088e-08	-3.901528e+01	-1.479311e+03
2.100000e-07	-5.413418e-06	-2.254043e-08	-3.872503e+01	-1.475907e+03
2.200000e-07	-5.370704e-06	-2.252453e-08	-3.841947e+01	-1.472219e+03
2.300000e-07	-5.325939e-06	-2.235565e-08	-3.809924e+01	-1.468247e+03
2.400000e-07	-5.279197e-06	-2.232579e-08	-3.776487e+01	-1.464001e+03
2.500000e-07	-5.230112e-06	-2.224767e-08	-3.741374e+01	-1.459500e+03
2.600000e-07	-5.178604e-06	-2.217267e-08	-3.704528e+01	-1.454766e+03
2.700000e-07	-5.124989e-06	-2.213464e-08	-3.666174e+01	-1.449816e+03
2.800000e-07	-5.069612e-06	-2.202847e-08	-3.626560e+01	-1.444656e+03
2.900000e-07	-5.012345e-06	-2.193889e-08	-3.585594e+01	-1.439281e+03
3.000000e-07	-4.953070e-06	-2.183571e-08	-3.543191e+01	-1.433675e+03
3.100000e-07	-4.892028e-06	-2.177149e-08	-3.499525e+01	-1.427816e+03
3.200000e-07	-4.829283e-06	-2.167531e-08	-3.454640e+01	-1.421680e+03
3.300000e-07	-4.764741e-06	-2.157075e-08	-3.408470e+01	-1.415249e+03
3.400000e-07	-4.698315e-06	-2.148570e-08	-3.360952e+01	-1.408513e+03
3.500000e-07	-4.630175e-06	-2.134193e-08	-3.312208e+01	-1.401473e+03
3.600000e-07	-4.560394e-06	-2.123909e-08	-3.262289e+01	-1.394140e+03
3.700000e-07	-4.489120e-06	-2.112691e-08	-3.211304e+01	-1.386527e+03
3.800000e-07	-4.416314e-06	-2.102088e-08	-3.159222e+01	-1.378646e+03
3.900000e-07	-4.341570e-06	-2.089902e-08	-3.105753e+01	-1.370501e+03
4.000000e-07	-4.264947e-06	-2.074410e-08	-3.050941e+01	-1.362084e+03
4.100000e-07	-4.186659e-06	-2.061825e-08	-2.994937e+01	-1.353374e+03
4.200000e-07	-4.106719e-06	-2.048768e-08	-2.937752e+01	-1.344340e+03
4.300000e-07	-4.025295e-06	-2.034844e-08	-2.879505e+01	-1.334948e+03
4.400000e-07	-3.942637e-06	-2.018816e-08	-2.820376e+01	-1.325164e+03
4.500000e-07	-3.858805e-06	-2.002782e-08	-2.760406e+01	-1.314964e+03
4.600000e-07	-3.773737e-06	-1.986406e-08	-2.699553e+01	-1.304334e+03
4.700000e-07	-3.687444e-06	-1.969349e-08	-2.637822e+01	-1.293272e+03
4.800000e-07	-3.600010e-06	-1.953326e-08	-2.575276e+01	-1.281781e+03
4.900000e-07	-3.511307e-06	-1.935517e-08	-2.511822e+01	-1.269866e+03
5.000000e-07	-3.421087e-06	-1.915935e-08	-2.447284e+01	-1.257526e+03
5.100000e-07	-3.329452e-06	-1.895742e-08	-2.381732e+01	-1.244746e+03
5.200000e-07	-3.236703e-06	-1.875413e-08	-2.315384e+01	-1.231498e+03
5.300000e-07	-3.142850e-06	-1.854356e-08	-2.248246e+01	-1.217740e+03
5.400000e-07	-3.047956e-06	-1.832504e-08	-2.180364e+01	-1.203423e+03
5.500000e-07	-2.952016e-06	-1.809640e-08	-2.111732e+01	-1.188494e+03
5.600000e-07	-2.854816e-06	-1.785080e-08	-2.042200e+01	-1.172905e+03
5.700000e-07	-2.756337e-06	-1.759495e-08	-1.971753e+01	-1.156619e+03
5.800000e-07	-2.656751e-06	-1.733749e-08	-1.900513e+01	-1.139607e+03
5.900000e-07	-2.556272e-06	-1.707322e-08	-1.828635e+01	-1.121849e+03
6.000000e-07	-2.454898e-06	-1.679428e-08	-1.756118e+01	-1.103325e+03
6.100000e-07	-2.352641e-06	-1.649687e-08	-1.682968e+01	-1.084007e+03
6.200000e-07	-2.249578e-06	-1.618711e-08	-1.609241e+01	-1.063853e+03
6.300000e-07	-2.145721e-06	-1.586381e-08	-1.534947e+01	-1.042803e+03
6.400000e-07	-2.041075e-06	-1.552542e-08	-1.460088e+01	-1.020775e+03
6.500000e-07	-1.935554e-06	-1.517195e-08	-1.384604e+01	-9.976746e+02
6.600000e-07	-1.829160e-06	-1.479816e-08	-1.308494e+01	-9.733972e+02
6.700000e-07	-1.722027e-06	-1.440397e-08	-1.231856e+01	-9.478366e+02
6.800000e-07	-1.614266e-06	-1.398941e-08	-1.154770e+01	-9.208900e+02
6.900000e-07	-1.506031e-06	-1.355679e-08	-1.077343e+01	-8.924598e+02
7.000000e-07	-1.397371e-06	-1.310178e-08	-9.996133e+00	-8.624515e+02
7.100000e-07	-1.288286e-06	-1.262067e-08	-9.215786e+00	-8.307689e+02
7.200000e-07	-1.178774e-06	-1.210927e-08	-8.432388e+00	-7.973095e+02
7.300000e-07	-1.068868e-06	-1.156700e-08	-7.646178e+00	-7.619635e+02
7.400000e-07	-9.586774e-07	-1.099593e-08	-6.857923e+00	-7.246182e+02
7.500000e-07	-8.482185e-07	-1.039429e-08	-6.067753e+00	-6.851715e+02
7.600000e-07	-7.375087e-07	-9.757025e-09	-5.275787e+00	-6.435508e+02
7.700000e-07	-6.265837e-07	-9.084569e-09	-4.482283e+00	-5.997368e+02
7.800000e-07	-5.154846e-07	-8.383588e-09	-3.687533e+00	-5.537845e+02
7.900000e-07	-4.042533e-07	-7.655927e-09	-2.891836e+00	-5.058368e+02
8.000000e-07	-2.928692e-07	-6.902637e-09	-2.095047e+00	-4.561244e+02
8.100000e-07	-1.813220e-07	-6.122246e-09	-1.297092e+00	-4.049493e+02
8.200000e-07	-6.970792e-08	-5.322408e-09	-4.986574e-01	-3.526515e+02
8.300000e-07	4.195851e-08	-4.512331e-09	3.001513e-01	-2.995640e+02
8.400000e-07	1.536855e-07	-3.695359e-09	1.099393e+00	-2.459634e+02
8.500000e-07	2.653839e-07	-2.875101e-09	1.898431e+00	-1.920267e+02
8.600000e-07	3.769942e-07	-2.052068e-09	2.696838e+00	-1.378028e+02
8.700000e-07	4.885118e-07	-1.222590e-09	3.494582e+00	-8.320838e+01
8.800000e-07	5.998784e-07	-3.814892e-10	4.291246e+00	-2.804984e+01
8.900000e-07	7.110547e-07	4.704622e-10	5.086548e+00	2.792964e+01
9.000000e-07	8.220231e-07	1.336980e-09	5.880364e+00	8.498551e+01
9.100000e-07	9.327389e-07	2.222187e-09	6.672372e+00	1.433009e+02
9.200000e-07	1.043199e-06	3.127384e-09	7.462551e+00	2.029227e+02
9.300000e-07	1.153288e-06	4.050804e-09	8.250075e+00	2.637166e+02
9.400000e-07	1.262963e-06	4.988951e-09	9.034639e+00	3.253514e+02
9.500000e-07	1.372263e-06	5.935712e-09	9.816521e+00	3.873145e+02
9.600000e-07	1.481065e-06	6.875720e-09	1.059484e+01	4.489580e+02
9.700000e-07	1.589389e-06	7.797505e-09	1.136973e+01	5.095663e+02
9.800000e-07	1.697272e-06	8.691551e-09	1.214148e+01	5.684341e+02
9.900000e-07	1.804562e-06	9.549872e-09	1.290898e+01	6.249401e+02
1.000000e-06	1.911111e-06	1.036551e-08	1.367118e+01	6.786060e+02
1.010000e-06	2.016889e-06	1.113207e-08	1.442787e+01	7.291308e+02
1.020000e-06	2.121883e-06	1.184724e-08	1.517895e+01	7.763970e+02
1.030000e-06	2.225889e-06	1.251290e-08	1.592296e+01	8.204514e+02
1.040000e-06	2.328966e-06	1.313165e-08	1.666032e+01	8.614663e+02
1.050000e-06	2.431275e-06	1.371045e-08	1.739219e+01	8.996908e+02
1.060000e-06	2.532737e-06	1.425367e-08	1.811800e+01	9.354017e+02
1.070000e-06	2.633333e-06	1.476373e-08	1.883761e+01	9.688637e+02
1.080000e-06	2.733063e-06	1.524125e-08	1.955103e+01	1.000303e+03
1.090000e-06	2.831857e-06	1.569100e-08	2.025776e+01	1.029899e+03
1.100000e-06	2.929561e-06	1.611429e-08	2.095669e+01	1.057785e+03
1.110000e-06	3.026023e-06	1.651169e-08	2.164673e+01	1.084062e+03
1.120000e-06	3.121310e-06	1.688659e-08	2.232837e+01	1.108820e+03
1.130000e-06	3.215534e-06	1.724030e-08	2.300241e+01	1.132146e+03
1.140000e-06	3.308724e-06	1.757593e-08	2.366904e+01	1.154135e+03
1.150000e-06	3.400929e-06	1.789390e-08	2.432864e+01	1.174892e+03
1.160000e-06	3.492041e-06	1.819474e-08	2.498040e+01	1.194529e+03
1.170000e-06	3.581829e-06	1.847853e-08	2.562271e+01	1.213151e+03
1.180000e-06	3.670156e-06	1.874813e-08	2.625456e+01	1.230852e+03
1.190000e-06	3.757194e-06	1.900426e-08	2.687718e+01	1.247706e+03
1.200000e-06	3.843043e-06	1.924878e-08	2.749131e+01	1.263766e+03
1.210000e-06	3.927625e-06	1.948044e-08	2.809637e+01	1.279064e+03
1.220000e-06	4.010992e-06	1.969990e-08	2.869273e+01	1.293624e+03
1.230000e-06	4.092936e-06	1.990663e-08	2.927892e+01	1.307463e+03
1.240000e-06	4.173241e-06	2.010127e-08	2.985339e+01	1.320605e+03
1.250000e-06	4.251969e-06	2.028815e-08	3.041657e+01	1.333081e+03
1.260000e-06	4.329174e-06	2.046992e-08	3.096886e+01	1.344930e+03
1.270000e-06	4.404804e-06	2.064441e-08	3.150988e+01	1.356201e+03
1.280000e-06	4.478654e-06	2.080918e-08	3.203817e+01	1.366938e+03
1.290000e-06	4.550648e-06	2.096528e-08	3.255318e+01	1.377182e+03
1.300000e-06	4.620963e-06	2.111366e-08	3.305618e+01	1.386963e+03
1.310000e-06	4.689710e-06	2.125493e-08	3.354796e+01	1.396295e+03
1.320000e-06	4.756858e-06	2.139023e-08	3.402830e+01	1.405182e+03
1.330000e-06	4.822150e-06	2.151973e-08	3.449538e+01	1.413622e+03
1.340000e-06	4.885583e-06	2.164129e-08	3.494914e+01	1.421609e+03
1.350000e-06	4.947397e-06	2.175574e-08	3.539133e+01	1.429143e+03
1.360000e-06	5.007646e-06	2.186323e-08	3.582233e+01	1.436235e+03
1.370000e-06	5.066225e-06	2.196418e-08	3.624137e+01	1.442904e+03
1.380000e-06	5.122856e-06	2.205903e-08	3.664648e+01	1.449183e+03
1.390000e-06	5.177537e-06	2.214837e-08	3.703765e+01	1.455109e+03
1.400000e-06	5.230292e-06	2.223251e-08	3.741503e+01	1.460722e+03
1.410000e-06	5.280919e-06	2.231240e-08	3.777719e+01	1.466056e+03
1.420000e-06	5.329329e-06	2.238986e-08	3.812349e+01	1.471137e+03
1.430000e-06	5.375702e-06	2.246458e-08	3.845522e+01	1.475979e+03
1.440000e-06	5.420384e-06	2.253517e-08	3.877485e+01	1.480588e+03
1.450000e-06	5.463299e-06	2.260055e-08	3.908185e+01	1.484959e+03
1.460000e-06	5.504118e-06	2.266173e-08	3.937385e+01	1.489081e+03
1.470000e-06	5.542963e-06	2.272180e-08	3.965173e+01	1.492946e+03
1.480000e-06	5.580068e-06	2.277906e-08	3.991716e+01	1.496544e+03
1.490000e-06	5.615322e-06	2.282961e-08	4.016935e+01	1.499872e+03
1.500000e-06	5.648392e-06	2.287474e-08	4.040592e+01	1.502932e+03
1.510000e-06	5.679341e-06	2.291672e-08	4.062731e+01	1.505731e+03
1.520000e-06	5.708488e-06	2.295653e-08	4.083582e+01	1.508278e+03
1.530000e-06	5.735798e-06	2.299276e-08	4.103118e+01	1.510584e+03
1.540000e-06	5.760910e-06	2.302369e-08	4.121082e+01	1.512659e+03
1.550000e-06	5.783728e-06	2.305129e-08	4.137405e+01	1.514512e+03
1.560000e-06	5.804591e-06	2.307542e-08	4.152329e+01	1.516149e+03
1.570000e-06	5.823559e-06	2.309553e-08	4.165898e+01	1.517574e+03
1.580000e-06	5.840390e-06	2.311218e-08	4.177938e+01	1.518791e+03
1.590000e-06	5.854970e-06	2.312614e-08	4.188368e+01	1.519804e+03
1.600000e-06	5.867329e-06	2.313965e-08	4.197209e+01	1.520616e+03
1.610000e-06	5.877280e-06	2.315161e-08	4.204327e+01	1.521235e+03
1.620000e-06	5.884949e-06	2.316037e-08	4.209813e+01	1.521667e+03
1.630000e-06	5.890604e-06	2.316637e-08	4.213858e+01	1.521921e+03
1.640000e-06	5.894299e-06	2.316954e-08	4.216502e+01	1.522006e+03
1.650000e-06	5.895876e-06	2.317121e-08	4.217630e+01	1.521930e+03
1.660000e-06	5.895253e-06	2.316992e-08	4.217185e+01	1.521700e+03
1.670000e-06	5.892722e-06	2.315811e-08	4.215374e+01	1.521317e+03
1.680000e-06	5.888438e-06	2.315040e-08	4.212309e+01	1.520780e+03
1.690000e-06	5.882107e-06	2.314295e-08	4.207781e+01	1.520084e+03
1.700000e-06	5.873714e-06	2.312995e-08	4.201777e+01	1.519221e+03
1.710000e-06	5.863604e-06	2.311552e-08	4.194544e+01	1.518185e+03
1.720000e-06	5.851595e-06	2.310202e-08	4.185954e+01	1.516967e+03
1.730000e-06	5.837395e-06	2.310049e-08	4.175795e+01	1.515567e+03
1.740000e-06	5.821230e-06	2.304720e-08	4.164232e+01	1.513988e+03
1.750000e-06	5.803012e-06	2.294366e-08	4.151200e+01	1.512243e+03
1.760000e-06	5.781986e-06	2.296136e-08	4.136159e+01	1.510350e+03
1.770000e-06	5.758109e-06	2.297002e-08	4.119078e+01	1.508332e+03
1.780000e-06	5.732132e-06	2.294236e-08	4.100495e+01	1.506210e+03
1.790000e-06	5.704830e-06	2.301368e-08	4.080965e+01	1.504002e+03
1.800000e-06	5.676650e-06	2.282607e-08	4.060806e+01	1.501717e+03
1.810000e-06	5.646754e-06	2.274636e-08	4.039420e+01	1.499347e+03
1.820000e-06	5.614400e-06	2.288090e-08	4.016275e+01	1.496876e+03
1.830000e-06	5.580270e-06	2.270407e-08	3.991861e+01	1.494271e+03
1.840000e-06	5.544350e-06	2.277042e-08	3.966165e+01	1.491493e+03
1.850000e-06	5.506105e-06	2.279578e-08	3.938806e+01	1.488502e+03
1.860000e-06	5.465871e-06	2.251534e-08	3.910025e+01	1.485261e+03
1.870000e-06	5.423753e-06	2.260531e-08	3.879895e+01	1.481745e+03
1.880000e-06	5.379949e-06	2.253367e-08	3.848560e+01	1.477944e+03
1.890000e-06	5.334417e-06	2.243120e-08	3.815989e+01	1.473861e+03
1.900000e-06	5.286569e-06	2.249100e-08	3.781761e+01	1.469512e+03
1.910000e-06	5.236672e-06	2.226289e-08	3.746067e+01	1.464916e+03
1.920000e-06	5.184672e-06	2.227928e-08	3.708868e+01	1.460094e+03
1.930000e-06	5.130377e-06	2.224449e-08	3.670028e+01	1.455060e+03
1.940000e-06	5.074187e-06	2.209391e-08	3.629833e+01	1.449816e+03
1.950000e-06	5.016187e-06	2.208069e-08	3.588342e+01	1.444351e+03
1.960000e-06	4.956396e-06	2.192030e-08	3.545570e+01	1.438648e+03
1.970000e-06	4.894685e-06	2.190213e-08	3.501426e+01	1.432682e+03
1.980000e-06	4.831074e-06	2.175152e-08	3.455921e+01	1.426431e+03
1.990000e-06	4.765718e-06	2.162251e-08	3.409169e+01	1.419879e+03
2.000000e-06	4.698733e-06	2.162207e-08	3.361251e+01	1.413022e+03
2.010000e-06	4.630148e-06	2.144636e-08	3.312188e+01	1.405864e+03
2.020000e-06	4.559627e-06	2.136392e-08	3.261741e+01	1.398418e+03
2.030000e-06	4.487357e-06	2.119850e-08	3.210042e+01	1.390698e+03
2.040000e-06	4.413578e-06	2.110415e-08	3.157264e+01	1.382712e+03
2.050000e-06	4.338183e-06	2.101977e-08	3.103330e+01	1.374461e+03
2.060000e-06	4.260983e-06	2.083636e-08	3.048105e+01	1.365931e+03
2.070000e-06	4.182001e-06	2.073792e-08	2.991605e+01	1.357097e+03
2.080000e-06	4.101587e-06	2.056719e-08	2.934081e+01	1.347925e+03
2.090000e-06	4.019782e-06	2.043981e-08	2.875561e+01	1.338382e+03
2.100000e-06	3.936643e-06	2.028394e-08	2.816088e+01	1.328436e+03
2.110000e-06	3.852228e-06	2.013231e-08	2.755701e+01	1.318067e+03
2.120000e-06	3.766346e-06	1.997627e-08	2.694265e+01	1.307266e+03
2.130000e-06	3.679037e-06	1.977965e-08	2.631808e+01	1.296033e+03
2.140000e-06	3.590440e-06	1.962058e-08	2.568431e+01	1.284374e+03
2.150000e-06	3.500608e-06	1.942716e-08	2.504169e+01	1.272292e+03
2.160000e-06	3.409620e-06	1.925252e-08	2.439080e+01	1.259780e+03
2.170000e-06	3.317582e-06	1.905700e-08	2.373241e+01	1.246819e+03
2.180000e-06	3.224256e-06	1.885716e-08	2.306480e+01	1.233376e+03
2.190000e-06	3.129545e-06	1.863437e-08	2.238728e+01	1.219403e+03
2.200000e-06	3.033659e-06	1.840816e-08	2.170136e+01	1.204851e+03
2.210000e-06	2.936743e-06	1.819044e-08	2.100807e+01	1.189666e+03
2.220000e-06	2.838817e-06	1.795007e-08	2.030755e+01	1.173807e+03
2.230000e-06	2.739912e-06	1.769726e-08	1.960003e+01	1.157237e+03
2.240000e-06	2.640132e-06	1.742365e-08	1.888625e+01	1.139933e+03
2.250000e-06	2.539424e-06	1.715657e-08	1.816583e+01	1.121876e+03
2.260000e-06	2.437657e-06	1.687367e-08	1.743784e+01	1.103043e+03
2.270000e-06	2.334813e-06	1.657749e-08	1.670214e+01	1.083402e+03
2.280000e-06	2.230975e-06	1.626678e-08	1.595934e+01	1.062903e+03
2.290000e-06	2.126306e-06	1.594108e-08	1.521058e+01	1.041478e+03
2.300000e-06	2.020941e-06	1.559532e-08	1.445686e+01	1.019040e+03
2.310000e-06	1.914877e-06	1.523245e-08	1.369812e+01	9.954884e+02
2.320000e-06	1.808236e-06	1.485934e-08	1.293526e+01	9.707183e+02
2.330000e-06	1.701103e-06	1.446778e-08	1.216888e+01	9.446241e+02
2.340000e-06	1.593471e-06	1.405339e-08	1.139893e+01	9.171050e+02
2.350000e-06	1.485364e-06	1.360768e-08	1.062559e+01	8.880650e+02
2.360000e-06	1.376816e-06	1.314076e-08	9.849090e+00	8.574096e+02
2.370000e-06	1.267900e-06	1.265091e-08	9.069952e+00	8.250405e+02
2.380000e-06	1.158632e-06	1.213490e-08	8.288305e+00	7.908523e+02
2.390000e-06	1.048974e-06	1.158276e-08	7.503860e+00	7.547329e+02
2.400000e-06	9.389322e-07	1.099647e-08	6.716676e+00	7.165720e+02
2.410000e-06	8.285179e-07	1.038169e-08	5.926824e+00	6.762764e+02
2.420000e-06	7.177454e-07	9.733384e-09	5.134410e+00	6.337916e+02
2.430000e-06	6.067628e-07	9.052141e-09	4.340494e+00	5.891252e+02
2.440000e-06	4.956322e-07	8.340978e-09	3.545518e+00	5.423658e+02
2.450000e-06	3.842426e-07	7.602629e-09	2.748689e+00	4.936917e+02
2.460000e-06	2.726086e-07	6.833860e-09	1.950113e+00	4.433646e+02
2.470000e-06	1.608164e-07	6.042962e-09	1.150404e+00	3.917061e+02
2.480000e-06	4.902146e-08	5.240205e-09	3.506763e-01	3.390593e+02
2.490000e-06	-6.273902e-08	4.428851e-09	-4.488052e-01	2.857408e+02
2.500000e-06	-1.745189e-07	3.607691e-09	-1.248426e+00	2.319927e+02
2.510000e-06	-2.861985e-07	2.778094e-09	-2.047328e+00	1.779437e+02
2.520000e-06	-3.977106e-07	1.945504e-09	-2.845033e+00	1.235900e+02
2.530000e-06	-5.090896e-07	1.107267e-09	-3.641786e+00	6.880073e+01
2.540000e-06	-6.203033e-07	2.576649e-10	-4.437356e+00	1.335071e+01
2.550000e-06	-7.312324e-07	-6.054086e-10	-5.230890e+00	-4.302471e+01
2.560000e-06	-8.417966e-07	-1.484009e-09	-6.021814e+00	-1.005609e+02
2.570000e-06	-9.520286e-07	-2.381885e-09	-6.810361e+00	-1.593944e+02
2.580000e-06	-1.061911e-06	-3.300646e-09	-7.596405e+00	-2.195046e+02
2.590000e-06	-1.171422e-06	-4.234804e-09	-8.379798e+00	-2.806802e+02
2.600000e-06	-1.280594e-06	-5.179004e-09	-9.160765e+00	-3.425150e+02
2.610000e-06	-1.389383e-06	-6.127944e-09	-9.938987e+00	-4.044363e+02
2.620000e-06	-1.497693e-06	-7.068823e-09	-1.071379e+01	-4.657607e+02
2.630000e-06	-1.605447e-06	-7.988579e-09	-1.148460e+01	-5.257674e+02
2.640000e-06	-1.712643e-06	-8.876159e-09	-1.225143e+01	-5.837756e+02
2.650000e-06	-1.819274e-06	-9.724833e-09	-1.301422e+01	-6.392147e+02
2.660000e-06	-1.925297e-06	-1.052764e-08	-1.377266e+01	-6.916733e+02
2.670000e-06	-2.030604e-06	-1.128219e-08	-1.452598e+01	-7.409232e+02
2.680000e-06	-2.135202e-06	-1.198876e-08	-1.527422e+01	-7.869151e+02
2.690000e-06	-2.238985e-06	-1.264600e-08	-1.601663e+01	-8.297506e+02
2.700000e-06	-2.341812e-06	-1.325796e-08	-1.675221e+01	-8.696381e+02
2.710000e-06	-2.443723e-06	-1.383050e-08	-1.748123e+01	-9.068431e+02
2.720000e-06	-2.544625e-06	-1.436810e-08	-1.820304e+01	-9.416418e+02
2.730000e-06	-2.644532e-06	-1.486973e-08	-1.891773e+01	-9.742860e+02
2.740000e-06	-2.743554e-06	-1.533960e-08	-1.962609e+01	-1.004984e+03
2.750000e-06	-2.841640e-06	-1.578219e-08	-2.032774e+01	-1.033895e+03
2.760000e-06	-2.938807e-06	-1.619687e-08	-2.102283e+01	-1.061139e+03
2.770000e-06	-3.035059e-06	-1.658892e-08	-2.171137e+01	-1.086811e+03
2.780000e-06	-3.130283e-06	-1.696037e-08	-2.239256e+01	-1.110996e+03
2.790000e-06	-3.224392e-06	-1.730837e-08	-2.306577e+01	-1.133785e+03
2.800000e-06	-3.317261e-06	-1.763347e-08	-2.373011e+01	-1.155279e+03
2.810000e-06	-3.408873e-06	-1.794087e-08	-2.438546e+01	-1.175584e+03
2.820000e-06	-3.499276e-06	-1.823572e-08	-2.503216e+01	-1.194811e+03
2.830000e-06	-3.588475e-06	-1.851680e-08	-2.567025e+01	-1.213062e+03
2.840000e-06	-3.676446e-06	-1.878276e-08	-2.629955e+01	-1.230424e+03
2.850000e-06	-3.763104e-06	-1.903640e-08	-2.691946e+01	-1.246962e+03
2.860000e-06	-3.848283e-06	-1.927835e-08	-2.752879e+01	-1.262720e+03
2.870000e-06	-3.932042e-06	-1.950996e-08	-2.812796e+01	-1.277727e+03
2.880000e-06	-4.014509e-06	-1.973131e-08	-2.871790e+01	-1.292002e+03
2.890000e-06	-4.095647e-06	-1.994074e-08	-2.929832e+01	-1.305566e+03
2.900000e-06	-4.175329e-06	-2.013828e-08	-2.986832e+01	-1.318443e+03
2.910000e-06	-4.253311e-06	-2.032511e-08	-3.042617e+01	-1.330668e+03
2.920000e-06	-4.329510e-06	-2.050329e-08	-3.097126e+01	-1.342286e+03
2.930000e-06	-4.404008e-06	-2.067214e-08	-3.150418e+01	-1.353343e+03
2.940000e-06	-4.476923e-06	-2.083416e-08	-3.202578e+01	-1.363883e+03
