# Temperatura_=_64.45
# Concentracion g/m^3_=_28200.0
# C_Vs_to_Am_M_A/Vsm_=_65563218390.804596
# pendiente_HvsI_1/m_=_3716.3
# ordenada_HvsI_A/m_=_1297.0
# frecuencia_Hz_=_301954.4045691378

Tiempo_(s)	Campo_(V.s)	Magnetizacion_(V.s)	Campo_(kA/m)	Magnetizacion_(A/m)
0.000000e+00	-5.855188e-06	-2.260316e-08	-4.194494e+01	-1.480016e+03
1.000000e-08	-5.853707e-06	-2.260015e-08	-4.193433e+01	-1.479770e+03
2.000000e-08	-5.850116e-06	-2.259445e-08	-4.190861e+01	-1.479376e+03
3.000000e-08	-5.844713e-06	-2.258295e-08	-4.186990e+01	-1.478821e+03
4.000000e-08	-5.837573e-06	-2.257098e-08	-4.181875e+01	-1.478091e+03
5.000000e-08	-5.828508e-06	-2.255422e-08	-4.175381e+01	-1.477179e+03
6.000000e-08	-5.817166e-06	-2.253424e-08	-4.167256e+01	-1.476081e+03
7.000000e-08	-5.803636e-06	-2.251432e-08	-4.157564e+01	-1.474804e+03
8.000000e-08	-5.787991e-06	-2.248364e-08	-4.146356e+01	-1.473359e+03
9.000000e-08	-5.770215e-06	-2.248172e-08	-4.133622e+01	-1.471762e+03
1.000000e-07	-5.750352e-06	-2.252738e-08	-4.119393e+01	-1.470028e+03
1.100000e-07	-5.728307e-06	-2.246289e-08	-4.103600e+01	-1.468171e+03
1.200000e-07	-5.704104e-06	-2.237460e-08	-4.086262e+01	-1.466196e+03
1.300000e-07	-5.677743e-06	-2.235324e-08	-4.067377e+01	-1.464102e+03
1.400000e-07	-5.649662e-06	-2.223552e-08	-4.047261e+01	-1.461877e+03
1.500000e-07	-5.620234e-06	-2.219556e-08	-4.026180e+01	-1.459503e+03
1.600000e-07	-5.589147e-06	-2.235338e-08	-4.003909e+01	-1.456959e+03
1.700000e-07	-5.556228e-06	-2.217853e-08	-3.980327e+01	-1.454224e+03
1.800000e-07	-5.521455e-06	-2.213550e-08	-3.955417e+01	-1.451280e+03
1.900000e-07	-5.484681e-06	-2.221299e-08	-3.929073e+01	-1.448118e+03
2.000000e-07	-5.445942e-06	-2.196571e-08	-3.901322e+01	-1.444737e+03
2.100000e-07	-5.405355e-06	-2.200143e-08	-3.872247e+01	-1.441143e+03
2.200000e-07	-5.362686e-06	-2.199028e-08	-3.841679e+01	-1.437350e+03
2.300000e-07	-5.317896e-06	-2.181318e-08	-3.809593e+01	-1.433370e+03
2.400000e-07	-5.271078e-06	-2.180896e-08	-3.776054e+01	-1.429215e+03
2.500000e-07	-5.222052e-06	-2.174597e-08	-3.740933e+01	-1.424888e+03
2.600000e-07	-5.170794e-06	-2.166391e-08	-3.704213e+01	-1.420384e+03
2.700000e-07	-5.117366e-06	-2.162421e-08	-3.665939e+01	-1.415686e+03
2.800000e-07	-5.062013e-06	-2.151807e-08	-3.626286e+01	-1.410771e+03
2.900000e-07	-5.004880e-06	-2.144092e-08	-3.585357e+01	-1.405610e+03
3.000000e-07	-4.945816e-06	-2.134420e-08	-3.543045e+01	-1.400176e+03
3.100000e-07	-4.884920e-06	-2.128558e-08	-3.499421e+01	-1.394449e+03
3.200000e-07	-4.822314e-06	-2.118221e-08	-3.454572e+01	-1.388418e+03
3.300000e-07	-4.757898e-06	-2.106338e-08	-3.408426e+01	-1.382083e+03
3.400000e-07	-4.691610e-06	-2.097963e-08	-3.360939e+01	-1.375456e+03
3.500000e-07	-4.623576e-06	-2.084342e-08	-3.312202e+01	-1.368554e+03
3.600000e-07	-4.553922e-06	-2.075945e-08	-3.262304e+01	-1.361397e+03
3.700000e-07	-4.482678e-06	-2.065216e-08	-3.211266e+01	-1.353998e+03
3.800000e-07	-4.409919e-06	-2.053786e-08	-3.159143e+01	-1.346363e+03
3.900000e-07	-4.335341e-06	-2.041043e-08	-3.105718e+01	-1.338482e+03
4.000000e-07	-4.258884e-06	-2.025733e-08	-3.050946e+01	-1.330333e+03
4.100000e-07	-4.180782e-06	-2.014383e-08	-2.994996e+01	-1.321886e+03
4.200000e-07	-4.100940e-06	-2.002193e-08	-2.937799e+01	-1.313105e+03
4.300000e-07	-4.019548e-06	-1.988839e-08	-2.879492e+01	-1.303957e+03
4.400000e-07	-3.936937e-06	-1.973061e-08	-2.820312e+01	-1.294415e+03
4.500000e-07	-3.853167e-06	-1.957319e-08	-2.760302e+01	-1.284463e+03
4.600000e-07	-3.768228e-06	-1.941525e-08	-2.699454e+01	-1.274099e+03
4.700000e-07	-3.682116e-06	-1.924846e-08	-2.637766e+01	-1.263325e+03
4.800000e-07	-3.594832e-06	-1.909030e-08	-2.575238e+01	-1.252148e+03
4.900000e-07	-3.506282e-06	-1.891325e-08	-2.511803e+01	-1.240571e+03
5.000000e-07	-3.416275e-06	-1.871824e-08	-2.447325e+01	-1.228588e+03
5.100000e-07	-3.324837e-06	-1.852015e-08	-2.381821e+01	-1.216178e+03
5.200000e-07	-3.232218e-06	-1.832358e-08	-2.315471e+01	-1.203308e+03
5.300000e-07	-3.138544e-06	-1.812088e-08	-2.248366e+01	-1.189934e+03
5.400000e-07	-3.043777e-06	-1.791145e-08	-2.180477e+01	-1.176006e+03
5.500000e-07	-2.947850e-06	-1.769119e-08	-2.111758e+01	-1.161475e+03
5.600000e-07	-2.850816e-06	-1.745373e-08	-2.042245e+01	-1.146299e+03
5.700000e-07	-2.752627e-06	-1.720338e-08	-1.971905e+01	-1.130442e+03
5.800000e-07	-2.653178e-06	-1.694929e-08	-1.900663e+01	-1.113877e+03
5.900000e-07	-2.552754e-06	-1.668578e-08	-1.828722e+01	-1.096582e+03
6.000000e-07	-2.451544e-06	-1.640878e-08	-1.756218e+01	-1.078532e+03
6.100000e-07	-2.349468e-06	-1.611800e-08	-1.683093e+01	-1.059696e+03
6.200000e-07	-2.246529e-06	-1.581696e-08	-1.609351e+01	-1.040025e+03
6.300000e-07	-2.142739e-06	-1.550337e-08	-1.534998e+01	-1.019459e+03
6.400000e-07	-2.038135e-06	-1.517481e-08	-1.460063e+01	-9.979178e+02
6.500000e-07	-1.932808e-06	-1.482957e-08	-1.384610e+01	-9.753139e+02
6.600000e-07	-1.826737e-06	-1.446288e-08	-1.308623e+01	-9.515516e+02
6.700000e-07	-1.719876e-06	-1.407788e-08	-1.232071e+01	-9.265345e+02
6.800000e-07	-1.612288e-06	-1.367307e-08	-1.154998e+01	-9.001683e+02
6.900000e-07	-1.504156e-06	-1.324908e-08	-1.077535e+01	-8.723605e+02
7.000000e-07	-1.395612e-06	-1.280143e-08	-9.997775e+00	-8.430177e+02
7.100000e-07	-1.286633e-06	-1.232660e-08	-9.217081e+00	-8.120413e+02
7.200000e-07	-1.177254e-06	-1.182373e-08	-8.433519e+00	-7.793248e+02
7.300000e-07	-1.067544e-06	-1.129379e-08	-7.647588e+00	-7.447550e+02
7.400000e-07	-9.574960e-07	-1.073743e-08	-6.859236e+00	-7.082195e+02
7.500000e-07	-8.471373e-07	-1.015190e-08	-6.068656e+00	-6.696206e+02
7.600000e-07	-7.365476e-07	-9.531666e-09	-5.276423e+00	-6.288956e+02
7.700000e-07	-6.257374e-07	-8.873455e-09	-4.482609e+00	-5.860381e+02
7.800000e-07	-5.147240e-07	-8.184103e-09	-3.687340e+00	-5.411169e+02
7.900000e-07	-4.035519e-07	-7.468782e-09	-2.890934e+00	-4.942866e+02
8.000000e-07	-2.922603e-07	-6.733440e-09	-2.093672e+00	-4.457839e+02
8.100000e-07	-1.808360e-07	-5.977473e-09	-1.295459e+00	-3.959102e+02
8.200000e-07	-6.928583e-08	-5.204632e-09	-4.963445e-01	-3.449978e+02
8.300000e-07	4.230531e-08	-4.419108e-09	3.030635e-01	-2.933675e+02
8.400000e-07	1.539370e-07	-3.622051e-09	1.102762e+00	-2.412818e+02
8.500000e-07	2.655199e-07	-2.820965e-09	1.902111e+00	-1.889059e+02
8.600000e-07	3.769688e-07	-2.017182e-09	2.700500e+00	-1.362821e+02
8.700000e-07	4.882835e-07	-1.210792e-09	3.497928e+00	-8.332708e+01
8.800000e-07	5.994254e-07	-3.955772e-10	4.294117e+00	-2.985323e+01
8.900000e-07	7.103778e-07	4.324489e-10	5.088949e+00	2.438759e+01
9.000000e-07	8.211366e-07	1.274697e-09	5.882394e+00	7.964391e+01
9.100000e-07	9.316943e-07	2.134385e-09	6.674399e+00	1.360989e+02
9.200000e-07	1.042029e-06	3.011046e-09	7.464810e+00	1.938104e+02
9.300000e-07	1.152079e-06	3.903082e-09	8.253171e+00	2.526691e+02
9.400000e-07	1.261719e-06	4.808061e-09	9.038606e+00	3.123809e+02
9.500000e-07	1.370886e-06	5.722031e-09	9.820649e+00	3.724800e+02
9.600000e-07	1.479614e-06	6.632472e-09	1.059954e+01	4.323682e+02
9.700000e-07	1.587890e-06	7.529881e-09	1.137521e+01	4.913758e+02
9.800000e-07	1.695592e-06	8.405520e-09	1.214675e+01	5.488324e+02
9.900000e-07	1.802626e-06	9.246976e-09	1.291351e+01	6.041353e+02
1.000000e-06	1.908959e-06	1.004548e-08	1.367525e+01	6.568064e+02
1.010000e-06	2.014557e-06	1.079731e-08	1.443173e+01	7.065265e+02
1.020000e-06	2.119260e-06	1.150376e-08	1.518179e+01	7.531465e+02
1.030000e-06	2.223017e-06	1.216448e-08	1.592508e+01	7.966732e+02
1.040000e-06	2.325938e-06	1.277735e-08	1.666238e+01	8.372381e+02
1.050000e-06	2.428029e-06	1.334962e-08	1.739373e+01	8.750541e+02
1.060000e-06	2.529279e-06	1.388536e-08	1.811905e+01	9.103720e+02
1.070000e-06	2.629678e-06	1.438775e-08	1.883829e+01	9.434418e+02
1.080000e-06	2.729266e-06	1.486020e-08	1.955170e+01	9.744870e+02
1.090000e-06	2.827922e-06	1.530677e-08	2.025845e+01	1.003691e+03
1.100000e-06	2.925431e-06	1.572758e-08	2.095698e+01	1.031198e+03
1.110000e-06	3.021740e-06	1.612202e-08	2.164690e+01	1.057120e+03
1.120000e-06	3.116914e-06	1.649222e-08	2.232871e+01	1.081554e+03
1.130000e-06	3.211014e-06	1.684071e-08	2.300281e+01	1.104588e+03
1.140000e-06	3.304082e-06	1.717080e-08	2.366953e+01	1.126315e+03
1.150000e-06	3.396167e-06	1.748377e-08	2.432920e+01	1.146833e+03
1.160000e-06	3.487168e-06	1.778027e-08	2.498110e+01	1.166243e+03
1.170000e-06	3.576770e-06	1.806019e-08	2.562299e+01	1.184641e+03
1.180000e-06	3.664874e-06	1.832462e-08	2.625414e+01	1.202114e+03
1.190000e-06	3.751767e-06	1.857590e-08	2.687661e+01	1.218730e+03
1.200000e-06	3.837545e-06	1.881804e-08	2.749111e+01	1.234541e+03
1.210000e-06	3.922111e-06	1.904694e-08	2.809691e+01	1.249584e+03
1.220000e-06	4.005405e-06	1.926294e-08	2.869361e+01	1.263886e+03
1.230000e-06	4.087252e-06	1.946618e-08	2.927994e+01	1.277472e+03
1.240000e-06	4.167427e-06	1.965928e-08	2.985429e+01	1.290368e+03
1.250000e-06	4.245998e-06	1.984358e-08	3.041715e+01	1.302608e+03
1.260000e-06	4.323118e-06	2.002053e-08	3.096962e+01	1.314233e+03
1.270000e-06	4.398673e-06	2.019094e-08	3.151087e+01	1.325289e+03
1.280000e-06	4.472393e-06	2.035341e-08	3.203898e+01	1.335817e+03
1.290000e-06	4.544267e-06	2.050834e-08	3.255387e+01	1.345855e+03
1.300000e-06	4.614515e-06	2.065559e-08	3.305711e+01	1.355427e+03
1.310000e-06	4.683189e-06	2.079578e-08	3.354907e+01	1.364545e+03
1.320000e-06	4.750220e-06	2.092646e-08	3.402926e+01	1.373214e+03
1.330000e-06	4.815407e-06	2.105019e-08	3.449624e+01	1.381431e+03
1.340000e-06	4.878762e-06	2.116721e-08	3.495010e+01	1.389194e+03
1.350000e-06	4.940508e-06	2.127749e-08	3.539243e+01	1.396508e+03
1.360000e-06	5.000691e-06	2.138284e-08	3.582356e+01	1.403390e+03
1.370000e-06	5.059101e-06	2.148271e-08	3.624200e+01	1.409867e+03
1.380000e-06	5.115528e-06	2.157607e-08	3.664622e+01	1.415976e+03
1.390000e-06	5.170099e-06	2.166320e-08	3.703715e+01	1.421758e+03
1.400000e-06	5.222809e-06	2.174685e-08	3.741475e+01	1.427252e+03
1.410000e-06	5.273293e-06	2.182650e-08	3.777641e+01	1.432491e+03
1.420000e-06	5.321566e-06	2.190272e-08	3.812222e+01	1.437493e+03
1.430000e-06	5.367960e-06	2.197630e-08	3.845457e+01	1.442267e+03
1.440000e-06	5.412584e-06	2.204555e-08	3.877425e+01	1.446808e+03
1.450000e-06	5.455390e-06	2.210893e-08	3.908090e+01	1.451106e+03
1.460000e-06	5.496156e-06	2.216858e-08	3.937294e+01	1.455147e+03
1.470000e-06	5.534961e-06	2.222723e-08	3.965092e+01	1.458919e+03
1.480000e-06	5.571979e-06	2.228239e-08	3.991611e+01	1.462418e+03
1.490000e-06	5.607165e-06	2.233278e-08	4.016818e+01	1.465648e+03
1.500000e-06	5.640245e-06	2.237790e-08	4.040515e+01	1.468616e+03
1.510000e-06	5.671196e-06	2.242047e-08	4.062687e+01	1.471336e+03
1.520000e-06	5.700321e-06	2.245927e-08	4.083552e+01	1.473822e+03
1.530000e-06	5.727571e-06	2.249188e-08	4.103073e+01	1.476086e+03
1.540000e-06	5.752591e-06	2.252150e-08	4.120997e+01	1.478133e+03
1.550000e-06	5.775359e-06	2.254831e-08	4.137307e+01	1.479965e+03
1.560000e-06	5.796189e-06	2.257250e-08	4.152229e+01	1.481582e+03
1.570000e-06	5.815150e-06	2.259340e-08	4.165812e+01	1.482980e+03
1.580000e-06	5.831963e-06	2.261112e-08	4.177856e+01	1.484160e+03
1.590000e-06	5.846513e-06	2.262600e-08	4.188280e+01	1.485125e+03
1.600000e-06	5.858928e-06	2.263725e-08	4.197173e+01	1.485887e+03
1.610000e-06	5.868925e-06	2.264594e-08	4.204335e+01	1.486460e+03
1.620000e-06	5.876568e-06	2.265356e-08	4.209810e+01	1.486860e+03
1.630000e-06	5.882188e-06	2.265974e-08	4.213836e+01	1.487107e+03
1.640000e-06	5.885908e-06	2.266393e-08	4.216501e+01	1.487212e+03
1.650000e-06	5.887484e-06	2.266698e-08	4.217630e+01	1.487184e+03
1.660000e-06	5.886884e-06	2.266784e-08	4.217200e+01	1.487022e+03
1.670000e-06	5.884464e-06	2.265660e-08	4.215467e+01	1.486718e+03
1.680000e-06	5.880209e-06	2.264844e-08	4.212418e+01	1.486261e+03
1.690000e-06	5.873899e-06	2.264100e-08	4.207898e+01	1.485638e+03
1.700000e-06	5.865580e-06	2.263001e-08	4.201939e+01	1.484837e+03
1.710000e-06	5.855465e-06	2.261887e-08	4.194693e+01	1.483851e+03
1.720000e-06	5.843415e-06	2.260764e-08	4.186060e+01	1.482681e+03
1.730000e-06	5.829188e-06	2.260930e-08	4.175869e+01	1.481335e+03
1.740000e-06	5.813019e-06	2.255850e-08	4.164286e+01	1.479828e+03
1.750000e-06	5.794851e-06	2.244592e-08	4.151270e+01	1.478174e+03
1.760000e-06	5.773947e-06	2.246708e-08	4.136295e+01	1.476390e+03
1.770000e-06	5.750184e-06	2.247870e-08	4.119272e+01	1.474486e+03
1.780000e-06	5.724241e-06	2.244700e-08	4.100688e+01	1.472464e+03
1.790000e-06	5.696988e-06	2.254717e-08	4.081164e+01	1.470319e+03
1.800000e-06	5.668862e-06	2.233969e-08	4.061015e+01	1.468037e+03
1.810000e-06	5.638971e-06	2.224938e-08	4.039603e+01	1.465599e+03
1.820000e-06	5.606655e-06	2.240225e-08	4.016452e+01	1.462981e+03
1.830000e-06	5.572588e-06	2.216696e-08	3.992048e+01	1.460165e+03
1.840000e-06	5.536656e-06	2.222151e-08	3.966307e+01	1.457135e+03
1.850000e-06	5.498473e-06	2.226548e-08	3.938953e+01	1.453886e+03
1.860000e-06	5.458342e-06	2.195731e-08	3.910205e+01	1.450420e+03
1.870000e-06	5.416240e-06	2.206992e-08	3.880044e+01	1.446745e+03
1.880000e-06	5.372458e-06	2.199981e-08	3.848680e+01	1.442876e+03
1.890000e-06	5.326965e-06	2.187225e-08	3.816090e+01	1.438826e+03
1.900000e-06	5.279146e-06	2.194163e-08	3.781833e+01	1.434603e+03
1.910000e-06	5.229202e-06	2.170362e-08	3.746055e+01	1.430206e+03
1.920000e-06	5.177139e-06	2.174157e-08	3.708759e+01	1.425628e+03
1.930000e-06	5.122956e-06	2.170799e-08	3.669943e+01	1.420847e+03
1.940000e-06	5.066941e-06	2.153808e-08	3.629816e+01	1.415838e+03
1.950000e-06	5.009028e-06	2.153992e-08	3.588329e+01	1.410572e+03
1.960000e-06	4.949335e-06	2.136518e-08	3.545566e+01	1.405024e+03
1.970000e-06	4.887767e-06	2.136357e-08	3.501460e+01	1.399178e+03
1.980000e-06	4.824250e-06	2.122976e-08	3.455959e+01	1.393026e+03
1.990000e-06	4.758969e-06	2.109619e-08	3.409193e+01	1.386573e+03
2.000000e-06	4.692050e-06	2.110229e-08	3.361254e+01	1.379835e+03
2.010000e-06	4.623587e-06	2.090527e-08	3.312209e+01	1.372830e+03
2.020000e-06	4.553212e-06	2.083082e-08	3.261794e+01	1.365576e+03
2.030000e-06	4.481025e-06	2.068157e-08	3.210082e+01	1.358084e+03
2.040000e-06	4.407328e-06	2.060069e-08	3.157288e+01	1.350353e+03
2.050000e-06	4.332051e-06	2.052701e-08	3.103361e+01	1.342369e+03
2.060000e-06	4.255081e-06	2.032906e-08	3.048222e+01	1.334107e+03
2.070000e-06	4.176372e-06	2.022990e-08	2.991837e+01	1.325532e+03
2.080000e-06	4.096147e-06	2.005512e-08	2.934366e+01	1.316610e+03
2.090000e-06	4.014479e-06	1.993677e-08	2.875861e+01	1.307308e+03
2.100000e-06	3.931469e-06	1.978794e-08	2.816396e+01	1.297606e+03
2.110000e-06	3.847159e-06	1.963691e-08	2.755998e+01	1.287491e+03
2.120000e-06	3.761452e-06	1.949110e-08	2.694599e+01	1.276964e+03
2.130000e-06	3.674289e-06	1.929789e-08	2.632158e+01	1.266031e+03
2.140000e-06	3.585775e-06	1.915129e-08	2.568750e+01	1.254696e+03
2.150000e-06	3.496106e-06	1.896260e-08	2.504514e+01	1.242960e+03
2.160000e-06	3.405270e-06	1.879215e-08	2.439441e+01	1.230812e+03
2.170000e-06	3.313268e-06	1.859721e-08	2.373533e+01	1.218225e+03
2.180000e-06	3.220042e-06	1.839585e-08	2.306749e+01	1.205162e+03
2.190000e-06	3.125521e-06	1.817830e-08	2.239037e+01	1.191576e+03
2.200000e-06	3.029814e-06	1.796032e-08	2.170475e+01	1.177416e+03
2.210000e-06	2.933047e-06	1.775540e-08	2.101153e+01	1.162635e+03
2.220000e-06	2.835247e-06	1.752135e-08	2.031092e+01	1.147194e+03
2.230000e-06	2.736425e-06	1.727741e-08	1.960299e+01	1.131061e+03
2.240000e-06	2.636620e-06	1.701545e-08	1.888801e+01	1.114211e+03
2.250000e-06	2.535925e-06	1.675784e-08	1.816666e+01	1.096622e+03
2.260000e-06	2.434414e-06	1.647843e-08	1.743947e+01	1.078268e+03
2.270000e-06	2.331846e-06	1.618428e-08	1.670470e+01	1.059109e+03
2.280000e-06	2.228161e-06	1.587767e-08	1.596193e+01	1.039094e+03
2.290000e-06	2.123618e-06	1.555866e-08	1.521301e+01	1.018154e+03
2.300000e-06	2.018388e-06	1.522338e-08	1.445917e+01	9.962059e+02
2.310000e-06	1.912528e-06	1.487092e-08	1.370082e+01	9.731576e+02
2.320000e-06	1.806049e-06	1.450779e-08	1.293803e+01	9.489130e+02
2.330000e-06	1.699032e-06	1.412289e-08	1.217139e+01	9.233763e+02
2.340000e-06	1.591517e-06	1.371485e-08	1.140119e+01	8.964540e+02
2.350000e-06	1.483479e-06	1.327989e-08	1.062723e+01	8.680538e+02
2.360000e-06	1.374974e-06	1.282694e-08	9.849931e+00	8.380806e+02
2.370000e-06	1.266096e-06	1.234922e-08	9.069960e+00	8.064329e+02
2.380000e-06	1.156906e-06	1.184222e-08	8.287753e+00	7.730013e+02
2.390000e-06	1.047426e-06	1.129919e-08	7.503466e+00	7.376715e+02
2.400000e-06	9.375776e-07	1.072585e-08	6.716546e+00	7.003348e+02
2.410000e-06	8.273700e-07	1.012712e-08	5.927049e+00	6.609047e+02
2.420000e-06	7.167984e-07	9.496928e-09	5.134945e+00	6.193381e+02
2.430000e-06	6.058621e-07	8.833240e-09	4.340228e+00	5.756563e+02
2.440000e-06	4.947606e-07	8.136575e-09	3.544327e+00	5.299611e+02
2.450000e-06	3.834921e-07	7.412235e-09	2.747231e+00	4.824406e+02
2.460000e-06	2.720794e-07	6.659609e-09	1.949101e+00	4.333600e+02
2.470000e-06	1.605206e-07	5.887663e-09	1.149925e+00	3.830375e+02
2.480000e-06	4.880739e-08	5.105498e-09	3.496426e-01	3.318063e+02
2.490000e-06	-6.280148e-08	4.315777e-09	-4.498924e-01	2.799696e+02
2.500000e-06	-1.743213e-07	3.518307e-09	-1.248790e+00	2.277559e+02
2.510000e-06	-2.857736e-07	2.716715e-09	-2.047202e+00	1.752839e+02
2.520000e-06	-3.971259e-07	1.915188e-09	-2.844900e+00	1.225457e+02
2.530000e-06	-5.083495e-07	1.106125e-09	-3.641675e+00	6.941304e+01
2.540000e-06	-6.194114e-07	2.865953e-10	-4.437291e+00	1.566818e+01
2.550000e-06	-7.302452e-07	-5.475999e-10	-5.231274e+00	-3.894488e+01
2.560000e-06	-8.407383e-07	-1.400412e-09	-6.022816e+00	-9.465675e+01
2.570000e-06	-9.508964e-07	-2.271982e-09	-6.811958e+00	-1.516078e+02
2.580000e-06	-1.060655e-06	-3.162605e-09	-7.598241e+00	-2.097940e+02
2.590000e-06	-1.170032e-06	-4.067893e-09	-8.381782e+00	-2.690338e+02
2.600000e-06	-1.279021e-06	-4.986597e-09	-9.162554e+00	-3.289625e+02
2.610000e-06	-1.387590e-06	-5.908079e-09	-9.940309e+00	-3.890563e+02
2.620000e-06	-1.495719e-06	-6.819828e-09	-1.071491e+01	-4.486808e+02
2.630000e-06	-1.603305e-06	-7.713676e-09	-1.148563e+01	-5.071575e+02
2.640000e-06	-1.710351e-06	-8.581449e-09	-1.225248e+01	-5.638348e+02
2.650000e-06	-1.816828e-06	-9.414598e-09	-1.301525e+01	-6.181533e+02
2.660000e-06	-1.922658e-06	-1.020465e-08	-1.377339e+01	-6.696944e+02
2.670000e-06	-2.027813e-06	-1.095016e-08	-1.452669e+01	-7.182060e+02
2.680000e-06	-2.132232e-06	-1.164829e-08	-1.527472e+01	-7.636030e+02
2.690000e-06	-2.235854e-06	-1.229702e-08	-1.601704e+01	-8.059457e+02
2.700000e-06	-2.338594e-06	-1.290117e-08	-1.675304e+01	-8.454030e+02
2.710000e-06	-2.440314e-06	-1.346728e-08	-1.748173e+01	-8.822077e+02
2.720000e-06	-2.540975e-06	-1.399717e-08	-1.820284e+01	-9.166144e+02
2.730000e-06	-2.640707e-06	-1.449110e-08	-1.891729e+01	-9.488651e+02
2.740000e-06	-2.739591e-06	-1.495384e-08	-1.962567e+01	-9.791681e+02
2.750000e-06	-2.837569e-06	-1.538880e-08	-2.032755e+01	-1.007691e+03
2.760000e-06	-2.934591e-06	-1.579916e-08	-2.102259e+01	-1.034564e+03
2.770000e-06	-3.030710e-06	-1.618885e-08	-2.171117e+01	-1.059891e+03
2.780000e-06	-3.125837e-06	-1.655665e-08	-2.239263e+01	-1.083765e+03
2.790000e-06	-3.219786e-06	-1.689961e-08	-2.306566e+01	-1.106275e+03
2.800000e-06	-3.312469e-06	-1.721961e-08	-2.372961e+01	-1.127516e+03
2.810000e-06	-3.403920e-06	-1.752329e-08	-2.438474e+01	-1.147588e+03
2.820000e-06	-3.494203e-06	-1.781399e-08	-2.503150e+01	-1.166590e+03
2.830000e-06	-3.583289e-06	-1.809191e-08	-2.566969e+01	-1.184616e+03
2.840000e-06	-3.671185e-06	-1.835499e-08	-2.629935e+01	-1.201745e+03
2.850000e-06	-3.757768e-06	-1.860671e-08	-2.691961e+01	-1.218040e+03
2.860000e-06	-3.842831e-06	-1.884830e-08	-2.752898e+01	-1.233547e+03
2.870000e-06	-3.926524e-06	-1.907749e-08	-2.812853e+01	-1.248297e+03
2.880000e-06	-4.008964e-06	-1.929379e-08	-2.871911e+01	-1.262316e+03
2.890000e-06	-4.090025e-06	-1.949564e-08	-2.929980e+01	-1.275627e+03
2.900000e-06	-4.169644e-06	-1.968782e-08	-2.987017e+01	-1.288262e+03
2.910000e-06	-4.247597e-06	-1.987006e-08	-3.042860e+01	-1.300256e+03
2.920000e-06	-4.323760e-06	-2.004388e-08	-3.097421e+01	-1.311653e+03
2.930000e-06	-4.398245e-06	-2.021014e-08	-3.150780e+01	-1.322497e+03
2.940000e-06	-4.471115e-06	-2.036769e-08	-3.202982e+01	-1.332830e+03
