# Temperatura_=_33.14
# Concentracion g/m^3_=_28200.0
# C_Vs_to_Am_M_A/Vsm_=_65563218390.804596
# pendiente_HvsI_1/m_=_3716.3
# ordenada_HvsI_A/m_=_1297.0
# frecuencia_Hz_=_301958.3654592605

Tiempo_(s)	Campo_(V.s)	Magnetizacion_(V.s)	Campo_(kA/m)	Magnetizacion_(A/m)
0.000000e+00	-5.874842e-06	-2.155825e-08	-4.192819e+01	-1.409626e+03
1.000000e-08	-5.871473e-06	-2.155641e-08	-4.190414e+01	-1.409323e+03
2.000000e-08	-5.866230e-06	-2.154620e-08	-4.186673e+01	-1.408892e+03
3.000000e-08	-5.859186e-06	-2.153801e-08	-4.181645e+01	-1.408309e+03
4.000000e-08	-5.850280e-06	-2.152466e-08	-4.175290e+01	-1.407549e+03
5.000000e-08	-5.839207e-06	-2.150416e-08	-4.167387e+01	-1.406593e+03
6.000000e-08	-5.825980e-06	-2.147904e-08	-4.157947e+01	-1.405432e+03
7.000000e-08	-5.810554e-06	-2.143463e-08	-4.146938e+01	-1.404073e+03
8.000000e-08	-5.792875e-06	-2.143786e-08	-4.134320e+01	-1.402538e+03
9.000000e-08	-5.773162e-06	-2.152459e-08	-4.120251e+01	-1.400860e+03
1.000000e-07	-5.751290e-06	-2.144512e-08	-4.104641e+01	-1.399078e+03
1.100000e-07	-5.727213e-06	-2.134270e-08	-4.087458e+01	-1.397228e+03
1.200000e-07	-5.700922e-06	-2.136183e-08	-4.068694e+01	-1.395331e+03
1.300000e-07	-5.672933e-06	-2.120269e-08	-4.048719e+01	-1.393393e+03
1.400000e-07	-5.643628e-06	-2.111530e-08	-4.027804e+01	-1.391400e+03
1.500000e-07	-5.612660e-06	-2.136721e-08	-4.005702e+01	-1.389317e+03
1.600000e-07	-5.579912e-06	-2.112758e-08	-3.982330e+01	-1.387097e+03
1.700000e-07	-5.545237e-06	-2.110443e-08	-3.957583e+01	-1.384687e+03
1.800000e-07	-5.508524e-06	-2.129566e-08	-3.931381e+01	-1.382041e+03
1.900000e-07	-5.469910e-06	-2.091381e-08	-3.903823e+01	-1.379123e+03
2.000000e-07	-5.429519e-06	-2.093753e-08	-3.874996e+01	-1.375917e+03
2.100000e-07	-5.387011e-06	-2.097214e-08	-3.844659e+01	-1.372428e+03
2.200000e-07	-5.342356e-06	-2.080916e-08	-3.812789e+01	-1.368676e+03
2.300000e-07	-5.295703e-06	-2.086901e-08	-3.779493e+01	-1.364693e+03
2.400000e-07	-5.246711e-06	-2.077300e-08	-3.744528e+01	-1.360515e+03
2.500000e-07	-5.195384e-06	-2.064403e-08	-3.707896e+01	-1.356170e+03
2.600000e-07	-5.141846e-06	-2.060867e-08	-3.669686e+01	-1.351675e+03
2.700000e-07	-5.086469e-06	-2.051360e-08	-3.630165e+01	-1.347032e+03
2.800000e-07	-5.029316e-06	-2.049058e-08	-3.589375e+01	-1.342227e+03
2.900000e-07	-4.970172e-06	-2.039067e-08	-3.547165e+01	-1.337237e+03
3.000000e-07	-4.909188e-06	-2.031187e-08	-3.503641e+01	-1.332031e+03
3.100000e-07	-4.846433e-06	-2.020026e-08	-3.458853e+01	-1.326583e+03
3.200000e-07	-4.781923e-06	-2.011475e-08	-3.412813e+01	-1.320874e+03
3.300000e-07	-4.715496e-06	-2.006897e-08	-3.365405e+01	-1.314892e+03
3.400000e-07	-4.647301e-06	-1.992729e-08	-3.316735e+01	-1.308639e+03
3.500000e-07	-4.577511e-06	-1.987001e-08	-3.266926e+01	-1.302121e+03
3.600000e-07	-4.506213e-06	-1.973247e-08	-3.216042e+01	-1.295349e+03
3.700000e-07	-4.433434e-06	-1.960141e-08	-3.164100e+01	-1.288328e+03
3.800000e-07	-4.358727e-06	-1.953079e-08	-3.110782e+01	-1.281056e+03
3.900000e-07	-4.282081e-06	-1.942569e-08	-3.056081e+01	-1.273520e+03
4.000000e-07	-4.203715e-06	-1.931240e-08	-3.000152e+01	-1.265699e+03
4.100000e-07	-4.123692e-06	-1.915623e-08	-2.943040e+01	-1.257566e+03
4.200000e-07	-4.042182e-06	-1.901900e-08	-2.884867e+01	-1.249090e+03
4.300000e-07	-3.959361e-06	-1.887377e-08	-2.825758e+01	-1.240247e+03
4.400000e-07	-3.875425e-06	-1.874411e-08	-2.765854e+01	-1.231018e+03
4.500000e-07	-3.790327e-06	-1.861788e-08	-2.705121e+01	-1.221392e+03
4.600000e-07	-3.703939e-06	-1.845271e-08	-2.643466e+01	-1.211369e+03
4.700000e-07	-3.616415e-06	-1.828092e-08	-2.581001e+01	-1.200948e+03
4.800000e-07	-3.527569e-06	-1.810155e-08	-2.517593e+01	-1.190130e+03
4.900000e-07	-3.437171e-06	-1.793546e-08	-2.453077e+01	-1.178908e+03
5.000000e-07	-3.345444e-06	-1.777152e-08	-2.387611e+01	-1.167267e+03
5.100000e-07	-3.252533e-06	-1.759320e-08	-2.321302e+01	-1.155178e+03
5.200000e-07	-3.158516e-06	-1.739533e-08	-2.254203e+01	-1.142605e+03
5.300000e-07	-3.063478e-06	-1.718138e-08	-2.186375e+01	-1.129502e+03
5.400000e-07	-2.967420e-06	-1.696141e-08	-2.117820e+01	-1.115825e+03
5.500000e-07	-2.870175e-06	-1.674459e-08	-2.048417e+01	-1.101527e+03
5.600000e-07	-2.771619e-06	-1.652467e-08	-1.978078e+01	-1.086570e+03
5.700000e-07	-2.671913e-06	-1.628781e-08	-1.906919e+01	-1.070919e+03
5.800000e-07	-2.571254e-06	-1.602734e-08	-1.835080e+01	-1.054543e+03
5.900000e-07	-2.469699e-06	-1.575846e-08	-1.762601e+01	-1.037410e+03
6.000000e-07	-2.367308e-06	-1.548370e-08	-1.689525e+01	-1.019483e+03
6.100000e-07	-2.264131e-06	-1.520280e-08	-1.615889e+01	-1.000716e+03
6.200000e-07	-2.160150e-06	-1.490851e-08	-1.541678e+01	-9.810548e+02
6.300000e-07	-2.055323e-06	-1.459160e-08	-1.466864e+01	-9.604306e+02
6.400000e-07	-1.949579e-06	-1.425415e-08	-1.391396e+01	-9.387674e+02
6.500000e-07	-1.842964e-06	-1.390023e-08	-1.315306e+01	-9.159825e+02
6.600000e-07	-1.735635e-06	-1.353380e-08	-1.238706e+01	-8.919891e+02
6.700000e-07	-1.627724e-06	-1.314760e-08	-1.161691e+01	-8.666982e+02
6.800000e-07	-1.519335e-06	-1.273911e-08	-1.084335e+01	-8.400185e+02
6.900000e-07	-1.410477e-06	-1.230628e-08	-1.006644e+01	-8.118547e+02
7.000000e-07	-1.301167e-06	-1.184934e-08	-9.286304e+00	-7.821070e+02
7.100000e-07	-1.191454e-06	-1.136673e-08	-8.503297e+00	-7.506712e+02
7.200000e-07	-1.081363e-06	-1.086194e-08	-7.717582e+00	-7.174435e+02
7.300000e-07	-9.709753e-07	-1.032975e-08	-6.929758e+00	-6.823296e+02
7.400000e-07	-8.602992e-07	-9.762180e-09	-6.139874e+00	-6.452595e+02
7.500000e-07	-7.493505e-07	-9.162960e-09	-5.348044e+00	-6.062046e+02
7.600000e-07	-6.381969e-07	-8.534808e-09	-4.554751e+00	-5.651965e+02
7.700000e-07	-5.268420e-07	-7.882208e-09	-3.760021e+00	-5.223406e+02
7.800000e-07	-4.153448e-07	-7.207231e-09	-2.964276e+00	-4.778222e+02
7.900000e-07	-3.036862e-07	-6.511940e-09	-2.167379e+00	-4.319001e+02
8.000000e-07	-1.918920e-07	-5.796131e-09	-1.369515e+00	-3.848879e+02
8.100000e-07	-8.001092e-08	-5.066572e-09	-5.710303e-01	-3.371218e+02
8.200000e-07	3.192686e-08	-4.331989e-09	2.278590e-01	-2.889205e+02
8.300000e-07	1.438748e-07	-3.596730e-09	1.026821e+00	-2.405424e+02
8.400000e-07	2.557852e-07	-2.862083e-09	1.825514e+00	-1.921490e+02
8.500000e-07	3.676180e-07	-2.124054e-09	2.623655e+00	-1.437800e+02
8.600000e-07	4.793608e-07	-1.384439e-09	3.421153e+00	-9.534843e+01
8.700000e-07	5.909850e-07	-6.415725e-10	4.217804e+00	-4.665648e+01
8.800000e-07	7.024333e-07	1.066163e-10	5.013200e+00	2.567578e+00
8.900000e-07	8.136596e-07	8.647294e-10	5.807012e+00	5.261689e+01
9.000000e-07	9.246519e-07	1.641220e-09	6.599153e+00	1.037459e+02
9.100000e-07	1.035381e-06	2.439780e-09	7.389414e+00	1.561123e+02
9.200000e-07	1.145758e-06	3.257897e-09	8.177167e+00	2.097317e+02
9.300000e-07	1.255710e-06	4.088025e-09	8.961886e+00	2.644517e+02
9.400000e-07	1.365270e-06	4.929654e-09	9.743802e+00	3.199507e+02
9.500000e-07	1.474408e-06	5.776735e-09	1.052271e+01	3.757619e+02
9.600000e-07	1.583085e-06	6.621082e-09	1.129833e+01	4.313174e+02
9.700000e-07	1.691209e-06	7.454484e-09	1.206999e+01	4.860063e+02
9.800000e-07	1.798722e-06	8.265681e-09	1.283731e+01	5.392362e+02
9.900000e-07	1.905662e-06	9.044098e-09	1.360053e+01	5.904891e+02
1.000000e-06	2.011861e-06	9.782059e-09	1.435846e+01	6.393632e+02
1.010000e-06	2.117085e-06	1.047941e-08	1.510944e+01	6.855962e+02
1.020000e-06	2.221299e-06	1.113728e-08	1.585320e+01	7.290684e+02
1.030000e-06	2.324675e-06	1.175326e-08	1.659098e+01	7.697872e+02
1.040000e-06	2.427257e-06	1.233084e-08	1.732310e+01	8.078592e+02
1.050000e-06	2.528992e-06	1.286980e-08	1.804918e+01	8.434552e+02
1.060000e-06	2.629893e-06	1.337445e-08	1.876930e+01	8.767761e+02
1.070000e-06	2.729980e-06	1.384776e-08	1.948361e+01	9.080242e+02
1.080000e-06	2.829194e-06	1.429387e-08	2.019169e+01	9.373838e+02
1.090000e-06	2.927278e-06	1.471410e-08	2.089170e+01	9.650120e+02
1.100000e-06	3.024028e-06	1.510914e-08	2.158220e+01	9.910387e+02
1.110000e-06	3.119591e-06	1.548116e-08	2.226423e+01	1.015572e+03
1.120000e-06	3.214139e-06	1.583091e-08	2.293901e+01	1.038708e+03
1.130000e-06	3.307614e-06	1.616298e-08	2.360613e+01	1.060536e+03
1.140000e-06	3.400078e-06	1.647800e-08	2.426603e+01	1.081145e+03
1.150000e-06	3.491542e-06	1.677522e-08	2.491880e+01	1.100626e+03
1.160000e-06	3.581702e-06	1.705378e-08	2.556227e+01	1.119066e+03
1.170000e-06	3.670358e-06	1.731917e-08	2.619500e+01	1.136548e+03
1.180000e-06	3.757710e-06	1.757068e-08	2.681842e+01	1.153143e+03
1.190000e-06	3.843893e-06	1.781116e-08	2.743350e+01	1.168911e+03
1.200000e-06	3.928823e-06	1.803932e-08	2.803963e+01	1.183897e+03
1.210000e-06	4.012500e-06	1.825500e-08	2.863683e+01	1.198136e+03
1.220000e-06	4.094807e-06	1.845652e-08	2.922425e+01	1.211657e+03
1.230000e-06	4.175539e-06	1.864672e-08	2.980042e+01	1.224488e+03
1.240000e-06	4.254681e-06	1.882924e-08	3.036525e+01	1.236657e+03
1.250000e-06	4.332226e-06	1.900487e-08	3.091869e+01	1.248198e+03
1.260000e-06	4.408180e-06	1.917402e-08	3.146076e+01	1.259148e+03
1.270000e-06	4.482394e-06	1.933451e-08	3.199042e+01	1.269546e+03
1.280000e-06	4.554740e-06	1.948539e-08	3.250675e+01	1.279427e+03
1.290000e-06	4.625360e-06	1.962750e-08	3.301076e+01	1.288820e+03
1.300000e-06	4.694353e-06	1.976349e-08	3.350315e+01	1.297748e+03
1.310000e-06	4.761800e-06	1.989330e-08	3.398452e+01	1.306221e+03
1.320000e-06	4.827425e-06	2.001749e-08	3.445287e+01	1.314249e+03
1.330000e-06	4.891149e-06	2.013269e-08	3.490767e+01	1.321834e+03
1.340000e-06	4.953245e-06	2.023880e-08	3.535084e+01	1.328987e+03
1.350000e-06	5.013784e-06	2.033794e-08	3.578290e+01	1.335720e+03
1.360000e-06	5.072757e-06	2.043316e-08	3.620379e+01	1.342059e+03
1.370000e-06	5.129794e-06	2.052482e-08	3.661086e+01	1.348034e+03
1.380000e-06	5.184794e-06	2.061124e-08	3.700338e+01	1.353685e+03
1.390000e-06	5.237902e-06	2.069341e-08	3.738241e+01	1.359048e+03
1.400000e-06	5.288875e-06	2.077144e-08	3.774620e+01	1.364159e+03
1.410000e-06	5.337560e-06	2.084549e-08	3.809366e+01	1.369039e+03
1.420000e-06	5.384237e-06	2.091662e-08	3.842679e+01	1.373699e+03
1.430000e-06	5.429207e-06	2.098354e-08	3.874773e+01	1.378137e+03
1.440000e-06	5.472390e-06	2.104553e-08	3.905593e+01	1.382340e+03
1.450000e-06	5.513414e-06	2.110549e-08	3.934871e+01	1.386288e+03
1.460000e-06	5.552405e-06	2.116181e-08	3.962699e+01	1.389964e+03
1.470000e-06	5.589678e-06	2.121373e-08	3.989300e+01	1.393356e+03
1.480000e-06	5.625183e-06	2.125927e-08	4.014640e+01	1.396461e+03
1.490000e-06	5.658531e-06	2.130002e-08	4.038440e+01	1.399287e+03
1.500000e-06	5.689699e-06	2.133864e-08	4.060685e+01	1.401855e+03
1.510000e-06	5.719083e-06	2.137403e-08	4.081655e+01	1.404186e+03
1.520000e-06	5.746654e-06	2.140704e-08	4.101333e+01	1.406307e+03
1.530000e-06	5.771932e-06	2.143687e-08	4.119373e+01	1.408236e+03
1.540000e-06	5.794891e-06	2.146351e-08	4.135759e+01	1.409986e+03
1.550000e-06	5.816007e-06	2.148759e-08	4.150829e+01	1.411560e+03
1.560000e-06	5.835233e-06	2.150939e-08	4.164551e+01	1.412952e+03
1.570000e-06	5.852314e-06	2.152807e-08	4.176741e+01	1.414153e+03
1.580000e-06	5.867128e-06	2.154209e-08	4.187314e+01	1.415155e+03
1.590000e-06	5.879774e-06	2.155306e-08	4.196339e+01	1.415952e+03
1.600000e-06	5.890023e-06	2.156134e-08	4.203653e+01	1.416549e+03
1.610000e-06	5.897924e-06	2.156790e-08	4.209293e+01	1.416960e+03
1.620000e-06	5.903812e-06	2.157493e-08	4.213494e+01	1.417203e+03
1.630000e-06	5.907792e-06	2.158156e-08	4.216335e+01	1.417303e+03
1.640000e-06	5.909606e-06	2.158755e-08	4.217630e+01	1.417281e+03
1.650000e-06	5.909199e-06	2.159203e-08	4.217339e+01	1.417149e+03
1.660000e-06	5.906867e-06	2.157902e-08	4.215675e+01	1.416909e+03
1.670000e-06	5.902774e-06	2.157097e-08	4.212754e+01	1.416553e+03
1.680000e-06	5.896649e-06	2.156319e-08	4.208382e+01	1.416058e+03
1.690000e-06	5.888406e-06	2.155044e-08	4.202500e+01	1.415401e+03
1.700000e-06	5.878385e-06	2.154130e-08	4.195348e+01	1.414558e+03
1.710000e-06	5.866441e-06	2.153528e-08	4.186824e+01	1.413513e+03
1.720000e-06	5.852319e-06	2.155707e-08	4.176745e+01	1.412264e+03
1.730000e-06	5.836275e-06	2.150726e-08	4.165294e+01	1.410825e+03
1.740000e-06	5.818275e-06	2.134976e-08	4.152448e+01	1.409223e+03
1.750000e-06	5.797478e-06	2.140030e-08	4.137605e+01	1.407495e+03
1.760000e-06	5.773785e-06	2.142339e-08	4.120696e+01	1.405679e+03
1.770000e-06	5.747919e-06	2.135315e-08	4.102235e+01	1.403805e+03
1.780000e-06	5.720677e-06	2.154730e-08	4.082793e+01	1.401890e+03
1.790000e-06	5.692660e-06	2.129848e-08	4.062798e+01	1.399930e+03
1.800000e-06	5.662950e-06	2.118191e-08	4.041594e+01	1.397903e+03
1.810000e-06	5.630619e-06	2.145527e-08	4.018519e+01	1.395766e+03
1.820000e-06	5.596583e-06	2.108678e-08	3.994228e+01	1.393470e+03
1.830000e-06	5.560831e-06	2.116355e-08	3.968712e+01	1.390963e+03
1.840000e-06	5.522737e-06	2.134074e-08	3.941525e+01	1.388202e+03
1.850000e-06	5.482645e-06	2.095599e-08	3.912912e+01	1.385160e+03
1.860000e-06	5.440611e-06	2.114854e-08	3.882912e+01	1.381830e+03
1.870000e-06	5.396882e-06	2.101929e-08	3.851704e+01	1.378223e+03
1.880000e-06	5.351422e-06	2.081593e-08	3.819259e+01	1.374367e+03
1.890000e-06	5.303635e-06	2.099941e-08	3.785154e+01	1.370295e+03
1.900000e-06	5.253787e-06	2.071638e-08	3.749578e+01	1.366041e+03
1.910000e-06	5.201751e-06	2.080753e-08	3.712440e+01	1.361629e+03
1.920000e-06	5.147411e-06	2.075255e-08	3.673659e+01	1.357071e+03
1.930000e-06	5.091273e-06	2.052422e-08	3.633593e+01	1.352359e+03
1.940000e-06	5.033288e-06	2.061176e-08	3.592210e+01	1.347477e+03
1.950000e-06	4.973555e-06	2.039193e-08	3.549579e+01	1.342397e+03
1.960000e-06	4.911904e-06	2.044910e-08	3.505579e+01	1.337090e+03
1.970000e-06	4.848323e-06	2.031702e-08	3.460202e+01	1.331530e+03
1.980000e-06	4.783054e-06	2.014808e-08	3.413620e+01	1.325703e+03
1.990000e-06	4.716104e-06	2.016725e-08	3.365839e+01	1.319603e+03
2.000000e-06	4.647639e-06	1.995106e-08	3.316976e+01	1.313234e+03
2.010000e-06	4.577213e-06	1.999590e-08	3.266714e+01	1.306606e+03
2.020000e-06	4.504939e-06	1.981850e-08	3.215132e+01	1.299725e+03
2.030000e-06	4.431170e-06	1.968883e-08	3.162484e+01	1.292596e+03
2.040000e-06	4.355754e-06	1.962229e-08	3.108660e+01	1.285212e+03
2.050000e-06	4.278599e-06	1.942531e-08	3.053595e+01	1.277556e+03
2.060000e-06	4.199597e-06	1.939091e-08	2.997213e+01	1.269603e+03
2.070000e-06	4.119133e-06	1.922559e-08	2.939786e+01	1.261326e+03
2.080000e-06	4.037289e-06	1.914656e-08	2.881375e+01	1.252694e+03
2.090000e-06	3.954071e-06	1.896630e-08	2.821983e+01	1.243686e+03
2.100000e-06	3.869572e-06	1.879639e-08	2.761677e+01	1.234286e+03
2.110000e-06	3.783542e-06	1.868844e-08	2.700278e+01	1.224489e+03
2.120000e-06	3.696100e-06	1.852552e-08	2.637872e+01	1.214294e+03
2.130000e-06	3.607430e-06	1.841069e-08	2.574588e+01	1.203702e+03
2.140000e-06	3.517539e-06	1.820451e-08	2.510434e+01	1.192711e+03
2.150000e-06	3.426505e-06	1.804327e-08	2.445464e+01	1.181311e+03
2.160000e-06	3.334351e-06	1.784063e-08	2.379695e+01	1.169481e+03
2.170000e-06	3.240903e-06	1.765575e-08	2.313002e+01	1.157188e+03
2.180000e-06	3.146077e-06	1.747836e-08	2.245325e+01	1.144392e+03
2.190000e-06	3.050038e-06	1.728422e-08	2.176783e+01	1.131048e+03
2.200000e-06	2.952970e-06	1.707456e-08	2.107507e+01	1.117108e+03
2.210000e-06	2.854869e-06	1.682821e-08	2.037493e+01	1.102531e+03
2.220000e-06	2.755780e-06	1.660957e-08	1.966774e+01	1.087279e+03
2.230000e-06	2.655874e-06	1.637391e-08	1.895472e+01	1.071320e+03
2.240000e-06	2.555019e-06	1.613323e-08	1.823493e+01	1.054623e+03
2.250000e-06	2.453043e-06	1.586195e-08	1.750714e+01	1.037153e+03
2.260000e-06	2.349974e-06	1.558003e-08	1.677154e+01	1.018871e+03
2.270000e-06	2.245967e-06	1.528065e-08	1.602926e+01	9.997275e+02
2.280000e-06	2.141190e-06	1.497372e-08	1.528147e+01	9.796609e+02
2.290000e-06	2.035682e-06	1.465923e-08	1.452847e+01	9.586000e+02
2.300000e-06	1.929479e-06	1.432876e-08	1.377051e+01	9.364653e+02
2.310000e-06	1.822729e-06	1.398065e-08	1.300864e+01	9.131720e+02
2.320000e-06	1.715483e-06	1.360202e-08	1.224324e+01	8.886323e+02
2.330000e-06	1.607715e-06	1.321043e-08	1.147411e+01	8.627564e+02
2.340000e-06	1.499454e-06	1.279800e-08	1.070146e+01	8.354513e+02
2.350000e-06	1.390648e-06	1.236510e-08	9.924920e+00	8.066200e+02
2.360000e-06	1.281388e-06	1.189936e-08	9.145145e+00	7.761605e+02
2.370000e-06	1.171806e-06	1.140718e-08	8.363070e+00	7.439680e+02
2.380000e-06	1.061924e-06	1.088791e-08	7.578851e+00	7.099412e+02
2.390000e-06	9.516397e-07	1.034047e-08	6.791763e+00	6.739943e+02
2.400000e-06	8.409539e-07	9.764292e-09	6.001808e+00	6.360727e+02
2.410000e-06	7.299781e-07	9.158759e-09	5.209785e+00	5.961716e+02
2.420000e-06	6.186872e-07	8.522770e-09	4.415512e+00	5.543528e+02
2.430000e-06	5.071681e-07	7.851607e-09	3.619611e+00	5.107559e+02
2.440000e-06	3.955535e-07	7.158729e-09	2.823028e+00	4.655991e+02
2.450000e-06	2.838158e-07	6.450028e-09	2.025567e+00	4.191681e+02
2.460000e-06	1.718800e-07	5.729506e-09	1.226691e+00	3.717905e+02
2.470000e-06	5.981101e-08	4.994627e-09	4.268655e-01	3.238002e+02
2.480000e-06	-5.231157e-08	4.254755e-09	-3.733427e-01	2.754951e+02
2.490000e-06	-1.644009e-07	3.516089e-09	-1.173314e+00	2.270962e+02
2.500000e-06	-2.763424e-07	2.777745e-09	-1.972230e+00	1.787146e+02
2.510000e-06	-3.881712e-07	2.042959e-09	-2.770341e+00	1.303353e+02
2.520000e-06	-4.999288e-07	1.304034e-09	-3.567944e+00	8.182054e+01
2.530000e-06	-6.114528e-07	5.554417e-10	-4.363880e+00	3.293518e+01
2.540000e-06	-7.227008e-07	-2.084803e-10	-5.157847e+00	-1.660875e+01
2.550000e-06	-8.336735e-07	-9.855358e-10	-5.949849e+00	-6.709524e+01
2.560000e-06	-9.442752e-07	-1.774586e-09	-6.739203e+00	-1.187439e+02
2.570000e-06	-1.054444e-06	-2.580832e-09	-7.525467e+00	-1.716561e+02
2.580000e-06	-1.164219e-06	-3.404226e-09	-8.308924e+00	-2.257772e+02
2.590000e-06	-1.273605e-06	-4.244704e-09	-9.089601e+00	-2.808810e+02
2.600000e-06	-1.382519e-06	-5.096525e-09	-9.866905e+00	-3.365792e+02
2.610000e-06	-1.490977e-06	-5.952733e-09	-1.064096e+01	-3.923555e+02
2.620000e-06	-1.598943e-06	-6.802435e-09	-1.141150e+01	-4.476160e+02
2.630000e-06	-1.706394e-06	-7.631779e-09	-1.217838e+01	-5.017502e+02
2.640000e-06	-1.813300e-06	-8.435088e-09	-1.294135e+01	-5.541915e+02
2.650000e-06	-1.919637e-06	-9.207374e-09	-1.370026e+01	-6.044674e+02
2.660000e-06	-2.025302e-06	-9.942293e-09	-1.445439e+01	-6.522345e+02
2.670000e-06	-2.130191e-06	-1.063356e-08	-1.520297e+01	-6.972923e+02
2.680000e-06	-2.234294e-06	-1.127972e-08	-1.594594e+01	-7.395782e+02
2.690000e-06	-2.337534e-06	-1.188551e-08	-1.668276e+01	-7.791463e+02
2.700000e-06	-2.439836e-06	-1.245374e-08	-1.741288e+01	-8.161349e+02
2.710000e-06	-2.541125e-06	-1.298636e-08	-1.813577e+01	-8.507319e+02
2.720000e-06	-2.641377e-06	-1.348345e-08	-1.885126e+01	-8.831417e+02
2.730000e-06	-2.740684e-06	-1.395025e-08	-1.956000e+01	-9.135606e+02
2.740000e-06	-2.839096e-06	-1.439042e-08	-2.026236e+01	-9.421618e+02
2.750000e-06	-2.936570e-06	-1.480350e-08	-2.095802e+01	-9.690904e+02
2.760000e-06	-3.033110e-06	-1.519325e-08	-2.164702e+01	-9.944660e+02
2.770000e-06	-3.128714e-06	-1.556000e-08	-2.232934e+01	-1.018390e+03
2.780000e-06	-3.223205e-06	-1.590237e-08	-2.300371e+01	-1.040956e+03
2.790000e-06	-3.316397e-06	-1.622281e-08	-2.366881e+01	-1.062252e+03
2.800000e-06	-3.408364e-06	-1.652815e-08	-2.432517e+01	-1.082367e+03
2.810000e-06	-3.499150e-06	-1.682125e-08	-2.497310e+01	-1.101393e+03
2.820000e-06	-3.588666e-06	-1.709922e-08	-2.561197e+01	-1.119414e+03
2.830000e-06	-3.676925e-06	-1.736119e-08	-2.624187e+01	-1.136510e+03
2.840000e-06	-3.763944e-06	-1.761086e-08	-2.686291e+01	-1.152745e+03
2.850000e-06	-3.849547e-06	-1.785032e-08	-2.747385e+01	-1.168174e+03
2.860000e-06	-3.933672e-06	-1.807887e-08	-2.807425e+01	-1.182837e+03
2.870000e-06	-4.016516e-06	-1.829526e-08	-2.866550e+01	-1.196767e+03
2.880000e-06	-4.098007e-06	-1.849884e-08	-2.924709e+01	-1.209990e+03
2.890000e-06	-4.178072e-06	-1.869080e-08	-2.981850e+01	-1.222534e+03
2.900000e-06	-4.256510e-06	-1.887034e-08	-3.037831e+01	-1.234431e+03
2.910000e-06	-4.333086e-06	-1.904070e-08	-3.092482e+01	-1.245715e+03
2.920000e-06	-4.408000e-06	-1.920451e-08	-3.145948e+01	-1.256425e+03
2.930000e-06	-4.481316e-06	-1.936150e-08	-3.198273e+01	-1.266599e+03
2.940000e-06	-4.553011e-06	-1.951239e-08	-3.249441e+01	-1.276269e+03
