# Temperatura_=_67.72
# Concentracion g/m^3_=_28200.0
# C_Vs_to_Am_M_A/Vsm_=_65563218390.804596
# pendiente_HvsI_1/m_=_3716.3
# ordenada_HvsI_A/m_=_1297.0
# frecuencia_Hz_=_301953.16384220717

Tiempo_(s)	Campo_(V.s)	Magnetizacion_(V.s)	Campo_(kA/m)	Magnetizacion_(A/m)
0.000000e+00	-5.870497e-06	-2.283846e-08	-4.192835e+01	-1.494272e+03
1.000000e-08	-5.867213e-06	-2.283423e-08	-4.190490e+01	-1.493853e+03
2.000000e-08	-5.862062e-06	-2.282327e-08	-4.186811e+01	-1.493285e+03
3.000000e-08	-5.855116e-06	-2.281017e-08	-4.181850e+01	-1.492563e+03
4.000000e-08	-5.846280e-06	-2.279390e-08	-4.175539e+01	-1.491675e+03
5.000000e-08	-5.835253e-06	-2.277476e-08	-4.167664e+01	-1.490613e+03
6.000000e-08	-5.822057e-06	-2.275613e-08	-4.158239e+01	-1.489366e+03
7.000000e-08	-5.806694e-06	-2.273172e-08	-4.147266e+01	-1.487934e+03
8.000000e-08	-5.789149e-06	-2.271335e-08	-4.134735e+01	-1.486323e+03
9.000000e-08	-5.769545e-06	-2.273345e-08	-4.120733e+01	-1.484546e+03
1.000000e-07	-5.747748e-06	-2.269803e-08	-4.105166e+01	-1.482626e+03
1.100000e-07	-5.723758e-06	-2.262190e-08	-4.088031e+01	-1.480588e+03
1.200000e-07	-5.697707e-06	-2.259033e-08	-4.069425e+01	-1.478454e+03
1.300000e-07	-5.669894e-06	-2.252067e-08	-4.049560e+01	-1.476241e+03
1.400000e-07	-5.640618e-06	-2.244634e-08	-4.028651e+01	-1.473954e+03
1.500000e-07	-5.609710e-06	-2.252634e-08	-4.006576e+01	-1.471581e+03
1.600000e-07	-5.577030e-06	-2.244295e-08	-3.983235e+01	-1.469099e+03
1.700000e-07	-5.542484e-06	-2.234592e-08	-3.958561e+01	-1.466468e+03
1.800000e-07	-5.505891e-06	-2.240447e-08	-3.932426e+01	-1.463648e+03
1.900000e-07	-5.467355e-06	-2.226716e-08	-3.904902e+01	-1.460596e+03
2.000000e-07	-5.426999e-06	-2.222333e-08	-3.876079e+01	-1.457278e+03
2.100000e-07	-5.384540e-06	-2.224384e-08	-3.845754e+01	-1.453675e+03
2.200000e-07	-5.339958e-06	-2.211434e-08	-3.813913e+01	-1.449784e+03
2.300000e-07	-5.293377e-06	-2.204723e-08	-3.780644e+01	-1.445614e+03
2.400000e-07	-5.244544e-06	-2.199440e-08	-3.745766e+01	-1.441187e+03
2.500000e-07	-5.193367e-06	-2.190875e-08	-3.709214e+01	-1.436529e+03
2.600000e-07	-5.140025e-06	-2.185121e-08	-3.671117e+01	-1.431659e+03
2.700000e-07	-5.084792e-06	-2.175325e-08	-3.631668e+01	-1.426591e+03
2.800000e-07	-5.027711e-06	-2.167131e-08	-3.590900e+01	-1.421323e+03
2.900000e-07	-4.968635e-06	-2.157408e-08	-3.548706e+01	-1.415842e+03
3.000000e-07	-4.907747e-06	-2.150872e-08	-3.505219e+01	-1.410126e+03
3.100000e-07	-4.845150e-06	-2.143183e-08	-3.460511e+01	-1.404149e+03
3.200000e-07	-4.780754e-06	-2.130786e-08	-3.414518e+01	-1.397888e+03
3.300000e-07	-4.714517e-06	-2.121980e-08	-3.367209e+01	-1.391328e+03
3.400000e-07	-4.646498e-06	-2.110163e-08	-3.318629e+01	-1.384462e+03
3.500000e-07	-4.576819e-06	-2.098744e-08	-3.268863e+01	-1.377297e+03
3.600000e-07	-4.505573e-06	-2.088256e-08	-3.217977e+01	-1.369842e+03
3.700000e-07	-4.432840e-06	-2.077751e-08	-3.166030e+01	-1.362110e+03
3.800000e-07	-4.358313e-06	-2.065737e-08	-3.112801e+01	-1.354108e+03
3.900000e-07	-4.281882e-06	-2.050734e-08	-3.058212e+01	-1.345832e+03
4.000000e-07	-4.203754e-06	-2.037993e-08	-3.002412e+01	-1.337269e+03
4.100000e-07	-4.123932e-06	-2.025420e-08	-2.945401e+01	-1.328396e+03
4.200000e-07	-4.042544e-06	-2.011248e-08	-2.887272e+01	-1.319183e+03
4.300000e-07	-3.959839e-06	-1.995875e-08	-2.828202e+01	-1.309601e+03
4.400000e-07	-3.875986e-06	-1.979608e-08	-2.768313e+01	-1.299624e+03
4.500000e-07	-3.791025e-06	-1.963654e-08	-2.707632e+01	-1.289236e+03
4.600000e-07	-3.704854e-06	-1.947078e-08	-2.646087e+01	-1.278429e+03
4.700000e-07	-3.617423e-06	-1.931081e-08	-2.583641e+01	-1.267202e+03
4.800000e-07	-3.528689e-06	-1.914207e-08	-2.520266e+01	-1.255553e+03
4.900000e-07	-3.438570e-06	-1.895121e-08	-2.455901e+01	-1.243480e+03
5.000000e-07	-3.347018e-06	-1.875263e-08	-2.390513e+01	-1.230969e+03
5.100000e-07	-3.254261e-06	-1.855026e-08	-2.324263e+01	-1.217996e+03
5.200000e-07	-3.160450e-06	-1.834189e-08	-2.257262e+01	-1.204524e+03
5.300000e-07	-3.065511e-06	-1.812385e-08	-2.189454e+01	-1.190509e+03
5.400000e-07	-2.969460e-06	-1.790081e-08	-2.120852e+01	-1.175904e+03
5.500000e-07	-2.872281e-06	-1.766213e-08	-2.051445e+01	-1.160665e+03
5.600000e-07	-2.773899e-06	-1.741147e-08	-1.981178e+01	-1.144752e+03
5.700000e-07	-2.674327e-06	-1.716112e-08	-1.910062e+01	-1.128134e+03
5.800000e-07	-2.573766e-06	-1.690365e-08	-1.838239e+01	-1.110785e+03
5.900000e-07	-2.472330e-06	-1.663121e-08	-1.765791e+01	-1.092677e+03
6.000000e-07	-2.370036e-06	-1.633871e-08	-1.692731e+01	-1.073778e+03
6.100000e-07	-2.266941e-06	-1.603235e-08	-1.619098e+01	-1.054045e+03
6.200000e-07	-2.163040e-06	-1.571192e-08	-1.544890e+01	-1.033418e+03
6.300000e-07	-2.058296e-06	-1.537906e-08	-1.470079e+01	-1.011822e+03
6.400000e-07	-1.952671e-06	-1.503240e-08	-1.394640e+01	-9.891704e+02
6.500000e-07	-1.846205e-06	-1.466554e-08	-1.318600e+01	-9.653685e+02
6.600000e-07	-1.739056e-06	-1.427947e-08	-1.242071e+01	-9.403190e+02
6.700000e-07	-1.631336e-06	-1.387327e-08	-1.165135e+01	-9.139255e+02
6.800000e-07	-1.523109e-06	-1.344946e-08	-1.087837e+01	-8.860934e+02
6.900000e-07	-1.414440e-06	-1.300386e-08	-1.010224e+01	-8.567278e+02
7.000000e-07	-1.305313e-06	-1.253142e-08	-9.322825e+00	-8.257291e+02
7.100000e-07	-1.195733e-06	-1.202798e-08	-8.540183e+00	-7.929901e+02
7.200000e-07	-1.085754e-06	-1.149480e-08	-7.754689e+00	-7.583956e+02
7.300000e-07	-9.754396e-07	-1.093434e-08	-6.966800e+00	-7.218293e+02
7.400000e-07	-8.648410e-07	-1.034451e-08	-6.176881e+00	-6.831862e+02
7.500000e-07	-7.539796e-07	-9.722091e-09	-5.385085e+00	-6.423922e+02
7.600000e-07	-6.429184e-07	-9.063525e-09	-4.591862e+00	-5.994266e+02
7.700000e-07	-5.317118e-07	-8.372803e-09	-3.797600e+00	-5.543419e+02
7.800000e-07	-4.203204e-07	-7.655326e-09	-3.002019e+00	-5.072767e+02
7.900000e-07	-3.087537e-07	-6.914330e-09	-2.205185e+00	-4.584553e+02
8.000000e-07	-1.970419e-07	-6.149649e-09	-1.407316e+00	-4.081721e+02
8.100000e-07	-8.520729e-08	-5.365886e-09	-6.085689e-01	-3.567603e+02
8.200000e-07	2.667176e-08	-4.567887e-09	1.904954e-01	-3.045490e+02
8.300000e-07	1.385665e-07	-3.760471e-09	9.896721e-01	-2.518165e+02
8.400000e-07	2.504042e-07	-2.950440e-09	1.788440e+00	-1.987479e+02
8.500000e-07	3.622026e-07	-2.139428e-09	2.586929e+00	-1.454071e+02
8.600000e-07	4.738978e-07	-1.325243e-09	3.384681e+00	-9.173008e+01
8.700000e-07	5.853996e-07	-5.010616e-10	4.181050e+00	-3.754331e+01
8.800000e-07	6.967327e-07	3.359093e-10	4.976215e+00	1.739443e+01
8.900000e-07	8.078761e-07	1.187233e-09	5.770025e+00	7.333260e+01
9.000000e-07	9.187815e-07	2.055790e-09	6.562136e+00	1.304621e+02
9.100000e-07	1.029427e-06	2.943619e-09	7.352387e+00	1.888534e+02
9.200000e-07	1.139768e-06	3.848428e-09	8.140466e+00	2.484110e+02
9.300000e-07	1.249712e-06	4.766903e-09	8.925710e+00	3.088531e+02
9.400000e-07	1.359198e-06	5.694164e-09	9.707689e+00	3.697215e+02
9.500000e-07	1.468225e-06	6.617811e-09	1.048638e+01	4.304195e+02
9.600000e-07	1.576785e-06	7.527007e-09	1.126174e+01	4.902715e+02
9.700000e-07	1.684864e-06	8.412141e-09	1.203366e+01	5.485944e+02
9.800000e-07	1.792421e-06	9.264576e-09	1.280186e+01	6.047688e+02
9.900000e-07	1.899354e-06	1.007564e-08	1.356560e+01	6.582970e+02
1.000000e-06	2.005514e-06	1.084076e-08	1.432382e+01	7.088411e+02
1.010000e-06	2.110678e-06	1.155815e-08	1.507491e+01	7.562359e+02
1.020000e-06	2.214842e-06	1.222715e-08	1.581888e+01	8.004771e+02
1.030000e-06	2.318172e-06	1.284924e-08	1.655688e+01	8.416908e+02
1.040000e-06	2.420693e-06	1.342857e-08	1.728911e+01	8.800902e+02
1.050000e-06	2.522401e-06	1.397172e-08	1.801553e+01	9.159313e+02
1.060000e-06	2.623271e-06	1.448106e-08	1.873597e+01	9.494725e+02
1.070000e-06	2.723304e-06	1.495788e-08	1.945042e+01	9.809471e+02
1.080000e-06	2.822510e-06	1.540615e-08	2.015897e+01	1.010548e+03
1.090000e-06	2.920594e-06	1.582866e-08	2.085951e+01	1.038428e+03
1.100000e-06	3.017335e-06	1.622770e-08	2.155046e+01	1.064705e+03
1.110000e-06	3.112893e-06	1.660317e-08	2.223295e+01	1.089477e+03
1.120000e-06	3.207411e-06	1.695664e-08	2.290802e+01	1.112834e+03
1.130000e-06	3.300922e-06	1.729124e-08	2.357590e+01	1.134869e+03
1.140000e-06	3.393411e-06	1.760888e-08	2.423647e+01	1.155679e+03
1.150000e-06	3.484863e-06	1.790940e-08	2.488964e+01	1.175365e+03
1.160000e-06	3.575020e-06	1.819339e-08	2.553356e+01	1.194023e+03
1.170000e-06	3.663666e-06	1.846240e-08	2.616669e+01	1.211743e+03
1.180000e-06	3.750934e-06	1.871848e-08	2.678998e+01	1.228598e+03
1.190000e-06	3.836975e-06	1.896266e-08	2.740450e+01	1.244643e+03
1.200000e-06	3.921844e-06	1.919369e-08	2.801066e+01	1.259920e+03
1.210000e-06	4.005523e-06	1.941292e-08	2.860831e+01	1.274455e+03
1.220000e-06	4.087796e-06	1.962134e-08	2.919592e+01	1.288272e+03
1.230000e-06	4.168478e-06	1.981678e-08	2.977217e+01	1.301397e+03
1.240000e-06	4.247624e-06	2.000078e-08	3.033744e+01	1.313859e+03
1.250000e-06	4.325195e-06	2.017816e-08	3.089148e+01	1.325694e+03
1.260000e-06	4.401173e-06	2.034948e-08	3.143413e+01	1.336945e+03
1.270000e-06	4.475404e-06	2.051399e-08	3.196430e+01	1.347652e+03
1.280000e-06	4.547750e-06	2.067123e-08	3.248101e+01	1.357853e+03
1.290000e-06	4.618393e-06	2.082226e-08	3.298556e+01	1.367578e+03
1.300000e-06	4.687410e-06	2.096457e-08	3.347849e+01	1.376844e+03
1.310000e-06	4.754812e-06	2.109694e-08	3.395989e+01	1.385662e+03
1.320000e-06	4.820488e-06	2.122210e-08	3.442896e+01	1.394033e+03
1.330000e-06	4.884363e-06	2.134095e-08	3.488517e+01	1.401958e+03
1.340000e-06	4.946545e-06	2.145306e-08	3.532929e+01	1.409441e+03
1.350000e-06	5.007120e-06	2.156019e-08	3.576193e+01	1.416494e+03
1.360000e-06	5.066020e-06	2.166268e-08	3.618260e+01	1.423135e+03
1.370000e-06	5.122994e-06	2.175822e-08	3.658953e+01	1.429396e+03
1.380000e-06	5.178056e-06	2.184774e-08	3.698279e+01	1.435312e+03
1.390000e-06	5.231284e-06	2.193306e-08	3.736296e+01	1.440919e+03
1.400000e-06	5.282377e-06	2.201353e-08	3.772788e+01	1.446251e+03
1.410000e-06	5.331155e-06	2.209051e-08	3.807626e+01	1.451334e+03
1.420000e-06	5.377878e-06	2.216512e-08	3.840996e+01	1.456185e+03
1.430000e-06	5.422834e-06	2.223527e-08	3.873105e+01	1.460809e+03
1.440000e-06	5.466052e-06	2.230013e-08	3.903972e+01	1.465201e+03
1.450000e-06	5.507224e-06	2.236244e-08	3.933378e+01	1.469353e+03
1.460000e-06	5.546357e-06	2.242297e-08	3.961328e+01	1.473250e+03
1.470000e-06	5.583694e-06	2.247963e-08	3.987995e+01	1.476883e+03
1.480000e-06	5.619228e-06	2.253005e-08	4.013374e+01	1.480242e+03
1.490000e-06	5.652711e-06	2.257516e-08	4.037288e+01	1.483328e+03
1.500000e-06	5.684095e-06	2.261657e-08	4.059703e+01	1.486142e+03
1.510000e-06	5.713559e-06	2.265604e-08	4.080747e+01	1.488695e+03
1.520000e-06	5.741089e-06	2.269217e-08	4.100409e+01	1.490999e+03
1.530000e-06	5.766464e-06	2.272289e-08	4.118533e+01	1.493066e+03
1.540000e-06	5.789601e-06	2.274894e-08	4.135058e+01	1.494909e+03
1.550000e-06	5.810758e-06	2.277181e-08	4.150169e+01	1.496539e+03
1.560000e-06	5.830023e-06	2.279312e-08	4.163928e+01	1.497963e+03
1.570000e-06	5.847191e-06	2.281181e-08	4.176190e+01	1.499188e+03
1.580000e-06	5.862098e-06	2.282649e-08	4.186837e+01	1.500215e+03
1.590000e-06	5.874800e-06	2.283728e-08	4.195909e+01	1.501050e+03
1.600000e-06	5.885199e-06	2.284634e-08	4.203336e+01	1.501695e+03
1.610000e-06	5.893320e-06	2.285384e-08	4.209136e+01	1.502157e+03
1.620000e-06	5.899360e-06	2.285958e-08	4.213450e+01	1.502442e+03
1.630000e-06	5.903351e-06	2.286467e-08	4.216301e+01	1.502560e+03
1.640000e-06	5.905212e-06	2.286861e-08	4.217630e+01	1.502519e+03
1.650000e-06	5.904931e-06	2.286900e-08	4.217429e+01	1.502328e+03
1.660000e-06	5.902716e-06	2.286015e-08	4.215847e+01	1.501990e+03
1.670000e-06	5.898716e-06	2.284880e-08	4.212990e+01	1.501506e+03
1.680000e-06	5.892735e-06	2.283824e-08	4.208718e+01	1.500871e+03
1.690000e-06	5.884665e-06	2.282666e-08	4.202954e+01	1.500078e+03
1.700000e-06	5.874723e-06	2.281459e-08	4.195854e+01	1.499115e+03
1.710000e-06	5.862898e-06	2.280270e-08	4.187408e+01	1.497972e+03
1.720000e-06	5.848972e-06	2.279381e-08	4.177462e+01	1.496644e+03
1.730000e-06	5.833041e-06	2.276563e-08	4.166083e+01	1.495133e+03
1.740000e-06	5.815052e-06	2.268036e-08	4.153236e+01	1.493446e+03
1.750000e-06	5.794451e-06	2.266755e-08	4.138522e+01	1.491604e+03
1.760000e-06	5.770980e-06	2.267775e-08	4.121758e+01	1.489628e+03
1.770000e-06	5.745219e-06	2.264079e-08	4.103359e+01	1.487544e+03
1.780000e-06	5.718073e-06	2.268651e-08	4.083971e+01	1.485373e+03
1.790000e-06	5.689985e-06	2.257768e-08	4.063910e+01	1.483127e+03
1.800000e-06	5.660300e-06	2.245635e-08	4.042708e+01	1.480804e+03
1.810000e-06	5.628234e-06	2.255786e-08	4.019806e+01	1.478387e+03
1.820000e-06	5.594250e-06	2.246764e-08	3.995534e+01	1.475844e+03
1.830000e-06	5.558535e-06	2.244380e-08	3.970026e+01	1.473136e+03
1.840000e-06	5.520571e-06	2.249886e-08	3.942910e+01	1.470219e+03
1.850000e-06	5.480489e-06	2.227867e-08	3.914283e+01	1.467055e+03
1.860000e-06	5.438536e-06	2.226521e-08	3.884320e+01	1.463615e+03
1.870000e-06	5.394873e-06	2.226333e-08	3.853135e+01	1.459886e+03
1.880000e-06	5.349439e-06	2.213851e-08	3.820685e+01	1.455871e+03
1.890000e-06	5.301827e-06	2.216176e-08	3.786679e+01	1.451587e+03
1.900000e-06	5.252107e-06	2.202410e-08	3.751168e+01	1.447056e+03
1.910000e-06	5.200234e-06	2.197153e-08	3.714119e+01	1.442303e+03
1.920000e-06	5.146120e-06	2.196320e-08	3.675470e+01	1.437346e+03
1.930000e-06	5.090078e-06	2.182383e-08	3.635443e+01	1.432191e+03
1.940000e-06	5.032186e-06	2.178747e-08	3.594096e+01	1.426832e+03
1.950000e-06	4.972494e-06	2.164701e-08	3.551462e+01	1.421252e+03
1.960000e-06	4.911012e-06	2.158931e-08	3.507551e+01	1.415426e+03
1.970000e-06	4.847606e-06	2.150168e-08	3.462265e+01	1.409328e+03
1.980000e-06	4.782360e-06	2.134636e-08	3.415665e+01	1.402938e+03
1.990000e-06	4.715523e-06	2.133090e-08	3.367928e+01	1.396245e+03
2.000000e-06	4.647129e-06	2.119072e-08	3.319079e+01	1.389248e+03
2.010000e-06	4.576833e-06	2.107358e-08	3.268873e+01	1.381955e+03
2.020000e-06	4.504688e-06	2.095201e-08	3.217345e+01	1.374379e+03
2.030000e-06	4.430976e-06	2.083551e-08	3.164698e+01	1.366529e+03
2.040000e-06	4.355674e-06	2.075867e-08	3.110916e+01	1.358409e+03
2.050000e-06	4.278706e-06	2.058584e-08	3.055944e+01	1.350010e+03
2.060000e-06	4.199948e-06	2.046655e-08	2.999693e+01	1.341316e+03
2.070000e-06	4.119597e-06	2.031601e-08	2.942305e+01	1.332299e+03
2.080000e-06	4.037875e-06	2.017705e-08	2.883937e+01	1.322930e+03
2.090000e-06	3.954765e-06	2.004643e-08	2.824578e+01	1.313179e+03
2.100000e-06	3.870317e-06	1.989100e-08	2.764264e+01	1.303026e+03
2.110000e-06	3.784514e-06	1.974216e-08	2.702981e+01	1.292457e+03
2.120000e-06	3.697253e-06	1.954850e-08	2.640658e+01	1.281468e+03
2.130000e-06	3.608678e-06	1.938365e-08	2.577395e+01	1.270059e+03
2.140000e-06	3.518963e-06	1.920290e-08	2.513320e+01	1.258228e+03
2.150000e-06	3.428026e-06	1.902169e-08	2.448370e+01	1.245968e+03
2.160000e-06	3.335923e-06	1.883614e-08	2.382588e+01	1.233261e+03
2.170000e-06	3.242655e-06	1.863636e-08	2.315974e+01	1.220077e+03
2.180000e-06	3.148026e-06	1.842323e-08	2.248388e+01	1.206376e+03
2.190000e-06	3.052088e-06	1.819939e-08	2.179867e+01	1.192112e+03
2.200000e-06	2.955059e-06	1.798977e-08	2.110567e+01	1.177239e+03
2.210000e-06	2.857063e-06	1.776015e-08	2.040576e+01	1.161714e+03
2.220000e-06	2.758118e-06	1.751275e-08	1.969907e+01	1.145500e+03
2.230000e-06	2.658276e-06	1.724703e-08	1.898598e+01	1.128570e+03
2.240000e-06	2.557502e-06	1.697802e-08	1.826623e+01	1.110897e+03
2.250000e-06	2.455695e-06	1.669832e-08	1.753910e+01	1.092454e+03
2.260000e-06	2.352838e-06	1.640471e-08	1.680447e+01	1.073202e+03
2.270000e-06	2.248963e-06	1.610288e-08	1.606257e+01	1.053092e+03
2.280000e-06	2.144239e-06	1.578605e-08	1.531462e+01	1.032058e+03
2.290000e-06	2.038777e-06	1.545193e-08	1.456138e+01	1.010019e+03
2.300000e-06	1.932628e-06	1.509884e-08	1.380325e+01	9.868845e+02
2.310000e-06	1.825913e-06	1.473279e-08	1.304107e+01	9.625581e+02
2.320000e-06	1.718692e-06	1.434612e-08	1.227527e+01	9.369425e+02
2.330000e-06	1.611004e-06	1.393755e-08	1.150614e+01	9.099423e+02
2.340000e-06	1.502810e-06	1.350324e-08	1.073340e+01	8.814630e+02
2.350000e-06	1.394096e-06	1.304702e-08	9.956932e+00	8.514084e+02
2.360000e-06	1.284963e-06	1.256789e-08	9.177482e+00	8.196757e+02
2.370000e-06	1.175495e-06	1.206061e-08	8.395639e+00	7.861541e+02
2.380000e-06	1.065682e-06	1.152011e-08	7.611330e+00	7.507268e+02
2.390000e-06	9.555288e-07	1.094527e-08	6.824593e+00	7.132802e+02
2.400000e-06	8.450350e-07	1.034253e-08	6.035422e+00	6.737201e+02
2.410000e-06	7.341944e-07	9.708998e-09	5.243774e+00	6.319923e+02
2.420000e-06	6.230215e-07	9.042493e-09	4.449754e+00	5.881055e+02
2.430000e-06	5.116632e-07	8.343393e-09	3.654409e+00	5.421481e+02
2.440000e-06	4.001585e-07	7.615129e-09	2.858018e+00	4.942964e+02
2.450000e-06	2.884364e-07	6.857925e-09	2.060075e+00	4.448076e+02
2.460000e-06	1.765022e-07	6.078387e-09	1.260617e+00	3.939974e+02
2.470000e-06	6.446206e-08	5.288322e-09	4.604019e-01	3.422028e+02
2.480000e-06	-4.750452e-08	4.492226e-09	-3.392875e-01	2.897369e+02
2.490000e-06	-1.593947e-07	3.687234e-09	-1.138431e+00	2.368426e+02
2.500000e-06	-2.712375e-07	2.874275e-09	-1.937237e+00	1.836553e+02
2.510000e-06	-3.829924e-07	2.056835e-09	-2.735414e+00	1.301836e+02
2.520000e-06	-4.945577e-07	1.231339e-09	-3.532238e+00	7.631279e+01
2.530000e-06	-6.059003e-07	3.968095e-10	-4.327471e+00	2.183395e+01
2.540000e-06	-7.170465e-07	-4.495971e-10	-5.121301e+00	-3.350562e+01
2.550000e-06	-8.278995e-07	-1.311491e-09	-5.913036e+00	-8.993846e+01
2.560000e-06	-9.383818e-07	-2.191898e-09	-6.702125e+00	-1.476108e+02
2.570000e-06	-1.048514e-06	-3.092521e-09	-7.488711e+00	-2.065260e+02
2.580000e-06	-1.158246e-06	-4.008518e-09	-8.272441e+00	-2.665097e+02
2.590000e-06	-1.267559e-06	-4.936038e-09	-9.053177e+00	-3.272016e+02
2.600000e-06	-1.376412e-06	-5.868456e-09	-9.830634e+00	-3.880780e+02
2.610000e-06	-1.484791e-06	-6.795303e-09	-1.060470e+01	-4.485000e+02
2.620000e-06	-1.592751e-06	-7.705262e-09	-1.137577e+01	-5.077799e+02
2.630000e-06	-1.700232e-06	-8.586811e-09	-1.214342e+01	-5.652537e+02
2.640000e-06	-1.807137e-06	-9.431806e-09	-1.290696e+01	-6.203479e+02
2.650000e-06	-1.913412e-06	-1.023353e-08	-1.366600e+01	-6.726303e+02
2.660000e-06	-2.019012e-06	-1.098802e-08	-1.442022e+01	-7.218367e+02
2.670000e-06	-2.123872e-06	-1.169412e-08	-1.516915e+01	-7.678738e+02
2.680000e-06	-2.227957e-06	-1.235107e-08	-1.591255e+01	-8.107977e+02
2.690000e-06	-2.331221e-06	-1.296387e-08	-1.665008e+01	-8.507774e+02
2.700000e-06	-2.433520e-06	-1.353903e-08	-1.738073e+01	-8.880498e+02
2.710000e-06	-2.534722e-06	-1.407802e-08	-1.810353e+01	-9.228763e+02
2.720000e-06	-2.634923e-06	-1.457908e-08	-1.881919e+01	-9.555071e+02
2.730000e-06	-2.734252e-06	-1.504694e-08	-1.952862e+01	-9.861595e+02
2.740000e-06	-2.832638e-06	-1.548781e-08	-2.023131e+01	-1.015008e+03
2.750000e-06	-2.930057e-06	-1.590373e-08	-2.092710e+01	-1.042190e+03
2.760000e-06	-3.026589e-06	-1.629815e-08	-2.161655e+01	-1.067812e+03
2.770000e-06	-3.122214e-06	-1.667131e-08	-2.229953e+01	-1.091969e+03
2.780000e-06	-3.216695e-06	-1.701978e-08	-2.297433e+01	-1.114750e+03
2.790000e-06	-3.309883e-06	-1.734421e-08	-2.363990e+01	-1.136249e+03
2.800000e-06	-3.401842e-06	-1.765072e-08	-2.429669e+01	-1.156566e+03
2.810000e-06	-3.492615e-06	-1.794424e-08	-2.494501e+01	-1.175802e+03
2.820000e-06	-3.582123e-06	-1.822547e-08	-2.558430e+01	-1.194050e+03
2.830000e-06	-3.670438e-06	-1.849176e-08	-2.621506e+01	-1.211393e+03
2.840000e-06	-3.757502e-06	-1.874461e-08	-2.683689e+01	-1.227897e+03
2.850000e-06	-3.843073e-06	-1.898637e-08	-2.744805e+01	-1.243610e+03
2.860000e-06	-3.927248e-06	-1.921835e-08	-2.804925e+01	-1.258567e+03
2.870000e-06	-4.010147e-06	-1.943948e-08	-2.864133e+01	-1.272794e+03
2.880000e-06	-4.091643e-06	-1.964800e-08	-2.922340e+01	-1.286313e+03
2.890000e-06	-4.171707e-06	-1.984573e-08	-2.979523e+01	-1.299151e+03
2.900000e-06	-4.250109e-06	-2.003279e-08	-3.035519e+01	-1.311342e+03
2.910000e-06	-4.326714e-06	-2.020967e-08	-3.090232e+01	-1.322923e+03
2.920000e-06	-4.401641e-06	-2.037872e-08	-3.143747e+01	-1.333937e+03
2.930000e-06	-4.474955e-06	-2.054043e-08	-3.196109e+01	-1.344425e+03
2.940000e-06	-4.546682e-06	-2.069495e-08	-3.247338e+01	-1.354421e+03
