# Temperatura_=_81.0
# Concentracion g/m^3_=_28200.0
# C_Vs_to_Am_M_A/Vsm_=_65563218390.804596
# pendiente_HvsI_1/m_=_3716.3
# ordenada_HvsI_A/m_=_1297.0
# frecuencia_Hz_=_301958.62930215616

Tiempo_(s)	Campo_(V.s)	Magnetizacion_(V.s)	Campo_(kA/m)	Magnetizacion_(A/m)
0.000000e+00	-5.876886e-06	-2.513811e-08	-4.192494e+01	-1.645575e+03
1.000000e-08	-5.873436e-06	-2.513317e-08	-4.190033e+01	-1.645095e+03
2.000000e-08	-5.868055e-06	-2.511962e-08	-4.186194e+01	-1.644427e+03
3.000000e-08	-5.860940e-06	-2.510690e-08	-4.181118e+01	-1.643568e+03
4.000000e-08	-5.852036e-06	-2.508851e-08	-4.174766e+01	-1.642515e+03
5.000000e-08	-5.840907e-06	-2.506439e-08	-4.166827e+01	-1.641266e+03
6.000000e-08	-5.827612e-06	-2.503809e-08	-4.157343e+01	-1.639819e+03
7.000000e-08	-5.812142e-06	-2.499938e-08	-4.146306e+01	-1.638177e+03
8.000000e-08	-5.794419e-06	-2.500347e-08	-4.133663e+01	-1.636346e+03
9.000000e-08	-5.774639e-06	-2.505486e-08	-4.119552e+01	-1.634338e+03
1.000000e-07	-5.752683e-06	-2.497819e-08	-4.103890e+01	-1.632172e+03
1.100000e-07	-5.728490e-06	-2.488292e-08	-4.086630e+01	-1.629868e+03
1.200000e-07	-5.702106e-06	-2.486561e-08	-4.067808e+01	-1.627446e+03
1.300000e-07	-5.674056e-06	-2.472940e-08	-4.047798e+01	-1.624920e+03
1.400000e-07	-5.644648e-06	-2.469329e-08	-4.026819e+01	-1.622293e+03
1.500000e-07	-5.613576e-06	-2.485955e-08	-4.004652e+01	-1.619553e+03
1.600000e-07	-5.580726e-06	-2.464528e-08	-3.981218e+01	-1.616675e+03
1.700000e-07	-5.546001e-06	-2.461255e-08	-3.956445e+01	-1.613618e+03
1.800000e-07	-5.509196e-06	-2.468882e-08	-3.930189e+01	-1.610340e+03
1.900000e-07	-5.470410e-06	-2.441658e-08	-3.902519e+01	-1.606795e+03
2.000000e-07	-5.429770e-06	-2.447751e-08	-3.873527e+01	-1.602949e+03
2.100000e-07	-5.387013e-06	-2.445423e-08	-3.843025e+01	-1.598784e+03
2.200000e-07	-5.342168e-06	-2.426977e-08	-3.811033e+01	-1.594299e+03
2.300000e-07	-5.295372e-06	-2.427218e-08	-3.777650e+01	-1.589511e+03
2.400000e-07	-5.246343e-06	-2.418100e-08	-3.742673e+01	-1.584447e+03
2.500000e-07	-5.194954e-06	-2.408349e-08	-3.706013e+01	-1.579138e+03
2.600000e-07	-5.141330e-06	-2.403028e-08	-3.667758e+01	-1.573609e+03
2.700000e-07	-5.085823e-06	-2.391164e-08	-3.628160e+01	-1.567872e+03
2.800000e-07	-5.028484e-06	-2.381860e-08	-3.587255e+01	-1.561920e+03
2.900000e-07	-4.969192e-06	-2.370972e-08	-3.544957e+01	-1.555735e+03
3.000000e-07	-4.908147e-06	-2.364857e-08	-3.501408e+01	-1.549285e+03
3.100000e-07	-4.845371e-06	-2.353576e-08	-3.456625e+01	-1.542535e+03
3.200000e-07	-4.780806e-06	-2.341575e-08	-3.410565e+01	-1.535459e+03
3.300000e-07	-4.714350e-06	-2.331356e-08	-3.363156e+01	-1.528041e+03
3.400000e-07	-4.646075e-06	-2.315265e-08	-3.314450e+01	-1.520282e+03
3.500000e-07	-4.576143e-06	-2.305966e-08	-3.264561e+01	-1.512194e+03
3.600000e-07	-4.504783e-06	-2.293411e-08	-3.213654e+01	-1.503798e+03
3.700000e-07	-4.431853e-06	-2.281156e-08	-3.161626e+01	-1.495112e+03
3.800000e-07	-4.356939e-06	-2.267508e-08	-3.108184e+01	-1.486147e+03
3.900000e-07	-4.280279e-06	-2.250175e-08	-3.053496e+01	-1.476896e+03
4.000000e-07	-4.202058e-06	-2.236564e-08	-2.997693e+01	-1.467337e+03
4.100000e-07	-4.122060e-06	-2.222250e-08	-2.940624e+01	-1.457434e+03
4.200000e-07	-4.040500e-06	-2.207355e-08	-2.882440e+01	-1.447148e+03
4.300000e-07	-3.957714e-06	-2.189521e-08	-2.823382e+01	-1.436439e+03
4.400000e-07	-3.873733e-06	-2.172210e-08	-2.763471e+01	-1.425281e+03
4.500000e-07	-3.788585e-06	-2.154080e-08	-2.702727e+01	-1.413659e+03
4.600000e-07	-3.702211e-06	-2.134957e-08	-2.641109e+01	-1.401576e+03
4.700000e-07	-3.614729e-06	-2.117505e-08	-2.578700e+01	-1.389041e+03
4.800000e-07	-3.526001e-06	-2.098311e-08	-2.515403e+01	-1.376066e+03
4.900000e-07	-3.435653e-06	-2.077347e-08	-2.450950e+01	-1.362651e+03
5.000000e-07	-3.343924e-06	-2.055279e-08	-2.385512e+01	-1.348784e+03
5.100000e-07	-3.251120e-06	-2.033095e-08	-2.319307e+01	-1.334429e+03
5.200000e-07	-3.157149e-06	-2.009968e-08	-2.252269e+01	-1.319536e+03
5.300000e-07	-3.062102e-06	-1.986019e-08	-2.184464e+01	-1.304045e+03
5.400000e-07	-2.966001e-06	-1.961104e-08	-2.115906e+01	-1.287894e+03
5.500000e-07	-2.868568e-06	-1.934940e-08	-2.046399e+01	-1.271031e+03
5.600000e-07	-2.769810e-06	-1.907657e-08	-1.975946e+01	-1.253417e+03
5.700000e-07	-2.669990e-06	-1.879683e-08	-1.904736e+01	-1.235027e+03
5.800000e-07	-2.569274e-06	-1.850794e-08	-1.832887e+01	-1.215848e+03
5.900000e-07	-2.467645e-06	-1.820466e-08	-1.760386e+01	-1.195864e+03
6.000000e-07	-2.365119e-06	-1.788216e-08	-1.687245e+01	-1.175052e+03
6.100000e-07	-2.261826e-06	-1.754660e-08	-1.613557e+01	-1.153365e+03
6.200000e-07	-2.157799e-06	-1.719915e-08	-1.539346e+01	-1.130734e+03
6.300000e-07	-2.052916e-06	-1.683427e-08	-1.464524e+01	-1.107062e+03
6.400000e-07	-1.947035e-06	-1.645210e-08	-1.388989e+01	-1.082236e+03
6.500000e-07	-1.840240e-06	-1.605057e-08	-1.312803e+01	-1.056136e+03
6.600000e-07	-1.732799e-06	-1.563123e-08	-1.236156e+01	-1.028643e+03
6.700000e-07	-1.624852e-06	-1.519041e-08	-1.159149e+01	-9.996469e+02
6.800000e-07	-1.516419e-06	-1.472547e-08	-1.081794e+01	-9.690486e+02
6.900000e-07	-1.407544e-06	-1.423237e-08	-1.004124e+01	-9.367537e+02
7.000000e-07	-1.298209e-06	-1.370916e-08	-9.261254e+00	-9.026641e+02
7.100000e-07	-1.188442e-06	-1.315478e-08	-8.478193e+00	-8.666689e+02
7.200000e-07	-1.078380e-06	-1.256956e-08	-7.693026e+00	-8.286399e+02
7.300000e-07	-9.679908e-07	-1.195475e-08	-6.905521e+00	-7.884360e+02
7.400000e-07	-8.572577e-07	-1.130758e-08	-6.115565e+00	-7.459188e+02
7.500000e-07	-7.462744e-07	-1.062309e-08	-5.323825e+00	-7.009781e+02
7.600000e-07	-6.350513e-07	-9.897698e-09	-4.530373e+00	-6.535628e+02
7.700000e-07	-5.235671e-07	-9.135660e-09	-3.735060e+00	-6.037094e+02
7.800000e-07	-4.119448e-07	-8.338754e-09	-2.938761e+00	-5.515614e+02
7.900000e-07	-3.003028e-07	-7.511842e-09	-2.142321e+00	-4.973706e+02
8.000000e-07	-1.885631e-07	-6.661360e-09	-1.345184e+00	-4.414766e+02
8.100000e-07	-7.666401e-08	-5.790170e-09	-5.469111e-01	-3.842668e+02
8.200000e-07	3.528594e-08	-4.904298e-09	2.517253e-01	-3.261200e+02
8.300000e-07	1.472595e-07	-4.008846e-09	1.050530e+00	-2.673471e+02
8.400000e-07	2.592055e-07	-3.108037e-09	1.849138e+00	-2.081385e+02
8.500000e-07	3.710671e-07	-2.202172e-09	2.647145e+00	-1.485337e+02
8.600000e-07	4.828374e-07	-1.289353e-09	3.444499e+00	-8.841911e+01
8.700000e-07	5.944655e-07	-3.627226e-10	4.240840e+00	-2.755980e+01
8.800000e-07	7.059467e-07	5.817740e-10	5.036132e+00	3.434023e+01
8.900000e-07	8.172656e-07	1.544971e-09	5.830267e+00	9.755826e+01
9.000000e-07	9.283160e-07	2.528657e-09	6.622485e+00	1.622688e+02
9.100000e-07	1.038993e-06	3.535673e-09	7.412043e+00	2.284720e+02
9.200000e-07	1.149387e-06	4.562610e-09	8.199579e+00	2.959478e+02
9.300000e-07	1.259452e-06	5.601798e-09	8.984764e+00	3.642481e+02
9.400000e-07	1.369100e-06	6.646259e-09	9.766984e+00	4.327260e+02
9.500000e-07	1.478281e-06	7.680953e-09	1.054587e+01	5.005997e+02
9.600000e-07	1.586898e-06	8.692820e-09	1.132073e+01	5.670388e+02
9.700000e-07	1.695011e-06	9.668996e-09	1.209199e+01	6.312564e+02
9.800000e-07	1.802637e-06	1.059665e-08	1.285978e+01	6.925919e+02
9.900000e-07	1.909639e-06	1.147054e-08	1.362311e+01	7.505706e+02
1.000000e-06	2.015824e-06	1.229056e-08	1.438063e+01	8.049313e+02
1.010000e-06	2.121085e-06	1.305627e-08	1.513155e+01	8.556207e+02
1.020000e-06	2.225396e-06	1.377043e-08	1.587569e+01	9.027597e+02
1.030000e-06	2.328828e-06	1.443505e-08	1.661356e+01	9.465906e+02
1.040000e-06	2.431474e-06	1.505554e-08	1.734582e+01	9.874182e+02
1.050000e-06	2.533253e-06	1.563476e-08	1.807190e+01	1.025556e+03
1.060000e-06	2.634090e-06	1.617784e-08	1.879125e+01	1.061287e+03
1.070000e-06	2.734111e-06	1.668747e-08	1.950480e+01	1.094843e+03
1.080000e-06	2.833347e-06	1.716591e-08	2.021273e+01	1.126402e+03
1.090000e-06	2.931468e-06	1.761519e-08	2.091271e+01	1.156099e+03
1.100000e-06	3.028231e-06	1.803788e-08	2.160301e+01	1.184044e+03
1.110000e-06	3.123807e-06	1.843642e-08	2.228484e+01	1.210342e+03
1.120000e-06	3.218344e-06	1.881314e-08	2.295924e+01	1.235107e+03
1.130000e-06	3.311800e-06	1.917029e-08	2.362595e+01	1.258462e+03
1.140000e-06	3.404220e-06	1.950778e-08	2.428527e+01	1.280537e+03
1.150000e-06	3.495613e-06	1.982804e-08	2.493725e+01	1.301459e+03
1.160000e-06	3.585711e-06	2.013026e-08	2.558000e+01	1.321341e+03
1.170000e-06	3.674286e-06	2.041899e-08	2.621188e+01	1.340271e+03
1.180000e-06	3.761525e-06	2.069386e-08	2.683423e+01	1.358310e+03
1.190000e-06	3.847632e-06	2.095429e-08	2.744850e+01	1.375496e+03
1.200000e-06	3.932506e-06	2.120051e-08	2.805398e+01	1.391847e+03
1.210000e-06	4.016144e-06	2.143569e-08	2.865065e+01	1.407380e+03
1.220000e-06	4.098434e-06	2.165793e-08	2.923770e+01	1.422116e+03
1.230000e-06	4.179057e-06	2.186746e-08	2.981285e+01	1.436090e+03
1.240000e-06	4.258041e-06	2.206774e-08	3.037631e+01	1.449352e+03
1.250000e-06	4.335538e-06	2.225968e-08	3.092917e+01	1.461962e+03
1.260000e-06	4.411493e-06	2.244343e-08	3.147102e+01	1.473985e+03
1.270000e-06	4.485658e-06	2.261861e-08	3.200010e+01	1.485480e+03
1.280000e-06	4.557964e-06	2.278736e-08	3.251592e+01	1.496491e+03
1.290000e-06	4.628572e-06	2.294860e-08	3.301963e+01	1.507043e+03
1.300000e-06	4.697531e-06	2.310206e-08	3.351158e+01	1.517143e+03
1.310000e-06	4.764903e-06	2.324857e-08	3.399220e+01	1.526785e+03
1.320000e-06	4.830523e-06	2.338936e-08	3.446032e+01	1.535954e+03
1.330000e-06	4.894297e-06	2.352249e-08	3.491528e+01	1.544638e+03
1.340000e-06	4.956405e-06	2.364683e-08	3.535835e+01	1.552835e+03
1.350000e-06	5.016927e-06	2.376379e-08	3.579010e+01	1.560555e+03
1.360000e-06	5.075806e-06	2.387438e-08	3.621014e+01	1.567821e+03
1.370000e-06	5.132740e-06	2.397738e-08	3.661630e+01	1.574668e+03
1.380000e-06	5.187713e-06	2.407353e-08	3.700847e+01	1.581134e+03
1.390000e-06	5.240864e-06	2.416640e-08	3.738764e+01	1.587258e+03
1.400000e-06	5.291836e-06	2.425498e-08	3.775127e+01	1.593073e+03
1.410000e-06	5.340500e-06	2.433882e-08	3.809843e+01	1.598603e+03
1.420000e-06	5.387191e-06	2.441868e-08	3.843152e+01	1.603863e+03
1.430000e-06	5.432138e-06	2.449453e-08	3.875217e+01	1.608858e+03
1.440000e-06	5.475317e-06	2.456590e-08	3.906020e+01	1.613591e+03
1.450000e-06	5.516398e-06	2.463412e-08	3.935327e+01	1.618061e+03
1.460000e-06	5.555398e-06	2.470058e-08	3.963148e+01	1.622267e+03
1.470000e-06	5.592631e-06	2.476334e-08	3.989710e+01	1.626206e+03
1.480000e-06	5.628094e-06	2.481840e-08	4.015009e+01	1.629880e+03
1.490000e-06	5.661491e-06	2.486871e-08	4.038834e+01	1.633288e+03
1.500000e-06	5.692767e-06	2.491809e-08	4.061146e+01	1.636428e+03
1.510000e-06	5.722164e-06	2.496390e-08	4.082118e+01	1.639299e+03
1.520000e-06	5.749669e-06	2.500413e-08	4.101739e+01	1.641900e+03
1.530000e-06	5.774950e-06	2.503827e-08	4.119774e+01	1.644230e+03
1.540000e-06	5.797968e-06	2.506802e-08	4.136195e+01	1.646292e+03
1.550000e-06	5.819024e-06	2.509418e-08	4.151216e+01	1.648092e+03
1.560000e-06	5.838161e-06	2.511696e-08	4.164868e+01	1.649642e+03
1.570000e-06	5.855193e-06	2.513693e-08	4.177019e+01	1.650956e+03
1.580000e-06	5.870037e-06	2.515314e-08	4.187608e+01	1.652049e+03
1.590000e-06	5.882686e-06	2.516659e-08	4.196632e+01	1.652938e+03
1.600000e-06	5.892867e-06	2.517785e-08	4.203895e+01	1.653636e+03
1.610000e-06	5.900744e-06	2.518769e-08	4.209514e+01	1.654151e+03
1.620000e-06	5.906573e-06	2.519572e-08	4.213673e+01	1.654490e+03
1.630000e-06	5.910418e-06	2.520153e-08	4.216415e+01	1.654654e+03
1.640000e-06	5.912121e-06	2.520593e-08	4.217630e+01	1.654640e+03
1.650000e-06	5.911636e-06	2.520630e-08	4.217285e+01	1.654447e+03
1.660000e-06	5.909293e-06	2.519222e-08	4.215613e+01	1.654071e+03
1.670000e-06	5.905156e-06	2.518206e-08	4.212662e+01	1.653509e+03
1.680000e-06	5.898954e-06	2.517274e-08	4.208237e+01	1.652757e+03
1.690000e-06	5.890719e-06	2.515949e-08	4.202362e+01	1.651814e+03
1.700000e-06	5.880726e-06	2.514677e-08	4.195233e+01	1.650675e+03
1.710000e-06	5.868769e-06	2.513400e-08	4.186704e+01	1.649340e+03
1.720000e-06	5.854579e-06	2.513892e-08	4.176581e+01	1.647806e+03
1.730000e-06	5.838434e-06	2.507254e-08	4.165063e+01	1.646080e+03
1.740000e-06	5.820308e-06	2.494502e-08	4.152132e+01	1.644170e+03
1.750000e-06	5.799452e-06	2.497324e-08	4.137254e+01	1.642090e+03
1.760000e-06	5.775700e-06	2.498276e-08	4.120309e+01	1.639860e+03
1.770000e-06	5.749708e-06	2.495126e-08	4.101767e+01	1.637502e+03
1.780000e-06	5.722388e-06	2.506118e-08	4.082277e+01	1.635032e+03
1.790000e-06	5.694290e-06	2.481327e-08	4.062232e+01	1.632461e+03
1.800000e-06	5.664513e-06	2.472201e-08	4.040990e+01	1.629786e+03
1.810000e-06	5.632221e-06	2.489232e-08	4.017954e+01	1.626989e+03
1.820000e-06	5.598179e-06	2.464274e-08	3.993668e+01	1.624037e+03
1.830000e-06	5.562321e-06	2.475431e-08	3.968088e+01	1.620889e+03
1.840000e-06	5.524103e-06	2.479657e-08	3.940823e+01	1.617500e+03
1.850000e-06	5.483846e-06	2.445018e-08	3.912104e+01	1.613827e+03
1.860000e-06	5.441639e-06	2.457668e-08	3.881995e+01	1.609844e+03
1.870000e-06	5.397810e-06	2.446279e-08	3.850728e+01	1.605539e+03
1.880000e-06	5.352255e-06	2.434557e-08	3.818229e+01	1.600920e+03
1.890000e-06	5.304394e-06	2.442935e-08	3.784086e+01	1.596007e+03
1.900000e-06	5.254499e-06	2.414884e-08	3.748492e+01	1.590833e+03
1.910000e-06	5.202413e-06	2.420233e-08	3.711334e+01	1.585425e+03
1.920000e-06	5.148034e-06	2.414257e-08	3.672540e+01	1.579804e+03
1.930000e-06	5.091806e-06	2.396305e-08	3.632428e+01	1.573975e+03
1.940000e-06	5.033694e-06	2.395498e-08	3.590971e+01	1.567925e+03
1.950000e-06	4.973853e-06	2.375566e-08	3.548282e+01	1.561628e+03
1.960000e-06	4.912177e-06	2.376211e-08	3.504283e+01	1.555051e+03
1.970000e-06	4.848517e-06	2.359183e-08	3.458869e+01	1.548163e+03
1.980000e-06	4.783062e-06	2.345779e-08	3.412174e+01	1.540939e+03
1.990000e-06	4.715981e-06	2.345595e-08	3.364319e+01	1.533372e+03
2.000000e-06	4.647325e-06	2.324274e-08	3.315342e+01	1.525468e+03
2.010000e-06	4.576714e-06	2.316768e-08	3.264968e+01	1.517244e+03
2.020000e-06	4.504327e-06	2.297690e-08	3.213328e+01	1.508720e+03
2.030000e-06	4.430341e-06	2.288704e-08	3.160547e+01	1.499912e+03
2.040000e-06	4.354769e-06	2.279164e-08	3.106635e+01	1.490824e+03
2.050000e-06	4.277507e-06	2.258011e-08	3.051518e+01	1.481442e+03
2.060000e-06	4.198433e-06	2.247454e-08	2.995108e+01	1.471739e+03
2.070000e-06	4.117940e-06	2.228058e-08	2.937685e+01	1.461675e+03
2.080000e-06	4.036076e-06	2.214941e-08	2.879284e+01	1.451210e+03
2.090000e-06	3.952858e-06	2.196962e-08	2.819917e+01	1.440309e+03
2.100000e-06	3.868302e-06	2.181237e-08	2.759596e+01	1.428951e+03
2.110000e-06	3.782212e-06	2.164739e-08	2.698181e+01	1.417129e+03
2.120000e-06	3.694752e-06	2.143138e-08	2.635788e+01	1.404848e+03
2.130000e-06	3.606004e-06	2.125775e-08	2.572477e+01	1.392122e+03
2.140000e-06	3.515967e-06	2.104004e-08	2.508245e+01	1.378957e+03
2.150000e-06	3.424792e-06	2.085171e-08	2.443202e+01	1.365349e+03
2.160000e-06	3.332588e-06	2.063253e-08	2.377425e+01	1.351276e+03
2.170000e-06	3.239062e-06	2.041770e-08	2.310705e+01	1.336696e+03
2.180000e-06	3.144109e-06	2.017956e-08	2.242966e+01	1.321552e+03
2.190000e-06	3.048018e-06	1.993777e-08	2.174417e+01	1.305784e+03
2.200000e-06	2.950901e-06	1.970093e-08	2.105135e+01	1.289332e+03
2.210000e-06	2.852791e-06	1.944037e-08	2.035144e+01	1.272149e+03
2.220000e-06	2.753723e-06	1.917368e-08	1.964470e+01	1.254202e+03
2.230000e-06	2.653777e-06	1.888182e-08	1.893170e+01	1.235473e+03
2.240000e-06	2.552831e-06	1.859139e-08	1.821156e+01	1.215950e+03
2.250000e-06	2.450782e-06	1.827788e-08	1.748356e+01	1.195613e+03
2.260000e-06	2.347641e-06	1.795469e-08	1.674777e+01	1.174431e+03
2.270000e-06	2.243528e-06	1.761950e-08	1.600504e+01	1.152348e+03
2.280000e-06	2.138633e-06	1.727377e-08	1.525673e+01	1.129281e+03
2.290000e-06	2.033029e-06	1.690646e-08	1.450336e+01	1.105127e+03
2.300000e-06	1.926743e-06	1.651790e-08	1.374513e+01	1.079769e+03
2.310000e-06	1.819856e-06	1.611426e-08	1.298262e+01	1.053084e+03
2.320000e-06	1.712522e-06	1.568856e-08	1.221691e+01	1.024957e+03
2.330000e-06	1.604738e-06	1.523994e-08	1.144800e+01	9.952846e+02
2.340000e-06	1.496462e-06	1.476080e-08	1.067556e+01	9.639688e+02
2.350000e-06	1.387748e-06	1.426015e-08	9.900012e+00	9.309154e+02
2.360000e-06	1.278626e-06	1.372941e-08	9.121554e+00	8.960217e+02
2.370000e-06	1.169086e-06	1.316873e-08	8.340107e+00	8.591696e+02
2.380000e-06	1.059072e-06	1.257370e-08	7.555281e+00	8.202241e+02
2.390000e-06	9.486375e-07	1.194495e-08	6.767456e+00	7.790429e+02
2.400000e-06	8.378951e-07	1.128216e-08	5.977435e+00	7.354959e+02
2.410000e-06	7.268389e-07	1.058247e-08	5.185174e+00	6.894945e+02
2.420000e-06	6.155512e-07	9.845744e-09	4.391262e+00	6.410219e+02
2.430000e-06	5.040013e-07	9.072104e-09	3.595480e+00	5.901591e+02
2.440000e-06	3.922144e-07	8.265622e-09	2.798007e+00	5.370970e+02
2.450000e-06	2.803629e-07	7.424487e-09	2.000073e+00	4.821288e+02
2.460000e-06	1.684145e-07	6.558772e-09	1.201447e+00	4.256206e+02
2.470000e-06	5.635080e-08	5.678903e-09	4.019993e-01	3.679635e+02
2.480000e-06	-5.576013e-08	4.788958e-09	-3.977855e-01	3.095144e+02
2.490000e-06	-1.678868e-07	3.888143e-09	-1.197682e+00	2.505379e+02
2.500000e-06	-2.798871e-07	2.978523e-09	-1.996678e+00	1.911620e+02
2.510000e-06	-3.916944e-07	2.063048e-09	-2.794297e+00	1.313588e+02
2.520000e-06	-5.034028e-07	1.136526e-09	-3.591210e+00	7.095717e+01
2.530000e-06	-6.149765e-07	1.976948e-10	-4.387162e+00	9.686997e+00
2.540000e-06	-7.263517e-07	-7.566804e-10	-5.181698e+00	-5.275000e+01
2.550000e-06	-8.373858e-07	-1.728577e-09	-5.973801e+00	-1.165970e+02
2.560000e-06	-9.480422e-07	-2.723685e-09	-6.763210e+00	-1.819613e+02
2.570000e-06	-1.058287e-06	-3.743536e-09	-7.549681e+00	-2.487523e+02
2.580000e-06	-1.168095e-06	-4.778172e-09	-8.333041e+00	-3.166511e+02
2.590000e-06	-1.277491e-06	-5.823639e-09	-9.113457e+00	-3.851182e+02
2.600000e-06	-1.386477e-06	-6.870171e-09	-9.890943e+00	-4.534398e+02
2.610000e-06	-1.495022e-06	-7.904525e-09	-1.066529e+01	-5.208019e+02
2.620000e-06	-1.603040e-06	-8.912490e-09	-1.143588e+01	-5.863815e+02
2.630000e-06	-1.710535e-06	-9.879267e-09	-1.220274e+01	-6.494369e+02
2.640000e-06	-1.817512e-06	-1.079765e-08	-1.296590e+01	-7.093817e+02
2.650000e-06	-1.923897e-06	-1.166323e-08	-1.372483e+01	-7.658311e+02
2.660000e-06	-2.029554e-06	-1.247365e-08	-1.447858e+01	-8.186157e+02
2.670000e-06	-2.134431e-06	-1.322745e-08	-1.522675e+01	-8.677622e+02
2.680000e-06	-2.238574e-06	-1.392689e-08	-1.596970e+01	-9.134507e+02
2.690000e-06	-2.341923e-06	-1.457873e-08	-1.670697e+01	-9.559574e+02
2.700000e-06	-2.444254e-06	-1.518944e-08	-1.743699e+01	-9.955969e+02
2.710000e-06	-2.545481e-06	-1.576367e-08	-1.815913e+01	-1.032673e+03
2.720000e-06	-2.645685e-06	-1.630040e-08	-1.887397e+01	-1.067449e+03
2.730000e-06	-2.745019e-06	-1.679894e-08	-1.958261e+01	-1.100133e+03
2.740000e-06	-2.843485e-06	-1.726617e-08	-2.028505e+01	-1.130880e+03
2.750000e-06	-2.940980e-06	-1.770458e-08	-2.098057e+01	-1.159815e+03
2.760000e-06	-3.037564e-06	-1.811826e-08	-2.166959e+01	-1.187044e+03
2.770000e-06	-3.133267e-06	-1.851224e-08	-2.235232e+01	-1.212672e+03
2.780000e-06	-3.227849e-06	-1.888387e-08	-2.302705e+01	-1.236819e+03
2.790000e-06	-3.321110e-06	-1.923111e-08	-2.369237e+01	-1.259611e+03
2.800000e-06	-3.413069e-06	-1.955875e-08	-2.434839e+01	-1.281179e+03
2.810000e-06	-3.503832e-06	-1.987230e-08	-2.499588e+01	-1.301644e+03
2.820000e-06	-3.593372e-06	-2.017233e-08	-2.563465e+01	-1.321111e+03
2.830000e-06	-3.681676e-06	-2.045688e-08	-2.626460e+01	-1.339656e+03
2.840000e-06	-3.768757e-06	-2.072639e-08	-2.688582e+01	-1.357328e+03
2.850000e-06	-3.854347e-06	-2.098248e-08	-2.749641e+01	-1.374156e+03
2.860000e-06	-3.938434e-06	-2.122693e-08	-2.809627e+01	-1.390156e+03
2.870000e-06	-4.021219e-06	-2.146073e-08	-2.868685e+01	-1.405347e+03
2.880000e-06	-4.102643e-06	-2.168260e-08	-2.926772e+01	-1.419753e+03
2.890000e-06	-4.182649e-06	-2.189331e-08	-2.983847e+01	-1.433417e+03
2.900000e-06	-4.261005e-06	-2.209451e-08	-3.039746e+01	-1.446393e+03
2.910000e-06	-4.337520e-06	-2.228710e-08	-3.094330e+01	-1.458746e+03
2.920000e-06	-4.412366e-06	-2.246950e-08	-3.147725e+01	-1.470538e+03
2.930000e-06	-4.485645e-06	-2.264093e-08	-3.200001e+01	-1.481823e+03
2.940000e-06	-4.557319e-06	-2.280362e-08	-3.251132e+01	-1.492637e+03
