# Temperatura_=_56.94
# Concentracion g/m^3_=_28200.0
# C_Vs_to_Am_M_A/Vsm_=_65563218390.804596
# pendiente_HvsI_1/m_=_3716.3
# ordenada_HvsI_A/m_=_1297.0
# frecuencia_Hz_=_301956.0684704009

Tiempo_(s)	Campo_(V.s)	Magnetizacion_(V.s)	Campo_(kA/m)	Magnetizacion_(A/m)
0.000000e+00	-5.864085e-06	-2.178196e-08	-4.194402e+01	-1.425859e+03
1.000000e-08	-5.862621e-06	-2.178190e-08	-4.193355e+01	-1.425621e+03
2.000000e-08	-5.859110e-06	-2.177883e-08	-4.190844e+01	-1.425246e+03
3.000000e-08	-5.853761e-06	-2.176785e-08	-4.187018e+01	-1.424727e+03
4.000000e-08	-5.846694e-06	-2.175605e-08	-4.181963e+01	-1.424051e+03
5.000000e-08	-5.837731e-06	-2.173828e-08	-4.175552e+01	-1.423206e+03
6.000000e-08	-5.826518e-06	-2.171672e-08	-4.167532e+01	-1.422182e+03
7.000000e-08	-5.813171e-06	-2.169397e-08	-4.157985e+01	-1.420972e+03
8.000000e-08	-5.797634e-06	-2.166184e-08	-4.146872e+01	-1.419580e+03
9.000000e-08	-5.779879e-06	-2.167404e-08	-4.134172e+01	-1.418015e+03
1.000000e-07	-5.760052e-06	-2.171798e-08	-4.119990e+01	-1.416294e+03
1.100000e-07	-5.738020e-06	-2.164962e-08	-4.104232e+01	-1.414437e+03
1.200000e-07	-5.713781e-06	-2.157430e-08	-4.086894e+01	-1.412466e+03
1.300000e-07	-5.687406e-06	-2.156049e-08	-4.068029e+01	-1.410398e+03
1.400000e-07	-5.659343e-06	-2.142605e-08	-4.047957e+01	-1.408240e+03
1.500000e-07	-5.629894e-06	-2.139771e-08	-4.026893e+01	-1.405989e+03
1.600000e-07	-5.598793e-06	-2.152924e-08	-4.004647e+01	-1.403630e+03
1.700000e-07	-5.565937e-06	-2.134654e-08	-3.981146e+01	-1.401138e+03
1.800000e-07	-5.531227e-06	-2.136004e-08	-3.956319e+01	-1.398483e+03
1.900000e-07	-5.494484e-06	-2.142052e-08	-3.930038e+01	-1.395630e+03
2.000000e-07	-5.455745e-06	-2.116736e-08	-3.902329e+01	-1.392553e+03
2.100000e-07	-5.415151e-06	-2.119537e-08	-3.873293e+01	-1.389233e+03
2.200000e-07	-5.372489e-06	-2.116490e-08	-3.842779e+01	-1.385662e+03
2.300000e-07	-5.327798e-06	-2.104510e-08	-3.810812e+01	-1.381846e+03
2.400000e-07	-5.281153e-06	-2.105919e-08	-3.777449e+01	-1.377799e+03
2.500000e-07	-5.232250e-06	-2.095550e-08	-3.742470e+01	-1.373539e+03
2.600000e-07	-5.180940e-06	-2.087225e-08	-3.705769e+01	-1.369084e+03
2.700000e-07	-5.127420e-06	-2.082207e-08	-3.667488e+01	-1.364446e+03
2.800000e-07	-5.072101e-06	-2.072839e-08	-3.627920e+01	-1.359626e+03
2.900000e-07	-5.014914e-06	-2.067580e-08	-3.587016e+01	-1.354615e+03
3.000000e-07	-4.955699e-06	-2.058018e-08	-3.544661e+01	-1.349397e+03
3.100000e-07	-4.894667e-06	-2.049417e-08	-3.501007e+01	-1.343949e+03
3.200000e-07	-4.831932e-06	-2.039569e-08	-3.456134e+01	-1.338252e+03
3.300000e-07	-4.767441e-06	-2.032111e-08	-3.410006e+01	-1.332291e+03
3.400000e-07	-4.701085e-06	-2.023746e-08	-3.362544e+01	-1.326057e+03
3.500000e-07	-4.632972e-06	-2.010365e-08	-3.313824e+01	-1.319554e+03
3.600000e-07	-4.563174e-06	-2.002392e-08	-3.263900e+01	-1.312787e+03
3.700000e-07	-4.491832e-06	-1.989518e-08	-3.212871e+01	-1.305766e+03
3.800000e-07	-4.418963e-06	-1.978528e-08	-3.160750e+01	-1.298497e+03
3.900000e-07	-4.344195e-06	-1.969926e-08	-3.107271e+01	-1.290976e+03
4.000000e-07	-4.267589e-06	-1.957457e-08	-3.052477e+01	-1.283192e+03
4.100000e-07	-4.189312e-06	-1.944744e-08	-2.996488e+01	-1.275122e+03
4.200000e-07	-4.109319e-06	-1.929955e-08	-2.939271e+01	-1.266737e+03
4.300000e-07	-4.027838e-06	-1.916552e-08	-2.880991e+01	-1.258006e+03
4.400000e-07	-3.945127e-06	-1.902166e-08	-2.821830e+01	-1.248902e+03
4.500000e-07	-3.861283e-06	-1.888615e-08	-2.761859e+01	-1.239405e+03
4.600000e-07	-3.776269e-06	-1.874232e-08	-2.701051e+01	-1.229507e+03
4.700000e-07	-3.689983e-06	-1.857381e-08	-2.639333e+01	-1.219206e+03
4.800000e-07	-3.602525e-06	-1.840553e-08	-2.576777e+01	-1.208506e+03
4.900000e-07	-3.513796e-06	-1.823281e-08	-2.513312e+01	-1.197410e+03
5.000000e-07	-3.423565e-06	-1.806523e-08	-2.448772e+01	-1.185912e+03
5.100000e-07	-3.331986e-06	-1.788659e-08	-2.383268e+01	-1.173998e+03
5.200000e-07	-3.239282e-06	-1.769661e-08	-2.316961e+01	-1.161637e+03
5.300000e-07	-3.145468e-06	-1.749025e-08	-2.249858e+01	-1.148789e+03
5.400000e-07	-3.050539e-06	-1.727454e-08	-2.181958e+01	-1.135407e+03
5.500000e-07	-2.954558e-06	-1.705622e-08	-2.113306e+01	-1.121441e+03
5.600000e-07	-2.857400e-06	-1.683749e-08	-2.043812e+01	-1.106847e+03
5.700000e-07	-2.758907e-06	-1.661003e-08	-1.973362e+01	-1.091588e+03
5.800000e-07	-2.659299e-06	-1.636453e-08	-1.902116e+01	-1.075634e+03
5.900000e-07	-2.558802e-06	-1.610466e-08	-1.830233e+01	-1.058962e+03
6.000000e-07	-2.457455e-06	-1.583560e-08	-1.757743e+01	-1.041549e+03
6.100000e-07	-2.355214e-06	-1.555840e-08	-1.684613e+01	-1.023364e+03
6.200000e-07	-2.252145e-06	-1.527070e-08	-1.610891e+01	-1.004366e+03
6.300000e-07	-2.148356e-06	-1.496830e-08	-1.536654e+01	-9.844986e+02
6.400000e-07	-2.043751e-06	-1.464658e-08	-1.461833e+01	-9.636889e+02
6.500000e-07	-1.938241e-06	-1.430691e-08	-1.386365e+01	-9.418525e+02
6.600000e-07	-1.831870e-06	-1.395238e-08	-1.310281e+01	-9.188974e+02
6.700000e-07	-1.724724e-06	-1.358516e-08	-1.233643e+01	-8.947288e+02
6.800000e-07	-1.617014e-06	-1.319802e-08	-1.156601e+01	-8.692527e+02
6.900000e-07	-1.508895e-06	-1.278627e-08	-1.079267e+01	-8.423769e+02
7.000000e-07	-1.400268e-06	-1.235151e-08	-1.001569e+01	-8.140086e+02
7.100000e-07	-1.291157e-06	-1.189338e-08	-9.235258e+00	-7.840520e+02
7.200000e-07	-1.181677e-06	-1.141002e-08	-8.452174e+00	-7.524056e+02
7.300000e-07	-1.071813e-06	-1.090011e-08	-7.666353e+00	-7.189645e+02
7.400000e-07	-9.615846e-07	-1.036111e-08	-6.877924e+00	-6.836267e+02
7.500000e-07	-8.510853e-07	-9.790184e-09	-6.087555e+00	-6.463072e+02
7.600000e-07	-7.403381e-07	-9.188562e-09	-5.295414e+00	-6.069562e+02
7.700000e-07	-6.293508e-07	-8.556960e-09	-4.501555e+00	-5.655795e+02
7.800000e-07	-5.182004e-07	-7.898015e-09	-3.706530e+00	-5.222557e+02
7.900000e-07	-4.069191e-07	-7.213030e-09	-2.910569e+00	-4.771455e+02
8.000000e-07	-2.954935e-07	-6.503667e-09	-2.113576e+00	-4.304877e+02
8.100000e-07	-1.839215e-07	-5.773416e-09	-1.315535e+00	-3.825811e+02
8.200000e-07	-7.224707e-08	-5.028629e-09	-5.167614e-01	-3.337522e+02
8.300000e-07	3.946327e-08	-4.277729e-09	2.822688e-01	-2.843127e+02
8.400000e-07	1.511870e-07	-3.522343e-09	1.081395e+00	-2.345149e+02
8.500000e-07	2.629247e-07	-2.762854e-09	1.880621e+00	-1.845135e+02
8.600000e-07	3.745922e-07	-1.999379e-09	2.679344e+00	-1.343411e+02
8.700000e-07	4.861222e-07	-1.232829e-09	3.477085e+00	-8.390587e+01
8.800000e-07	5.974495e-07	-4.575821e-10	4.273375e+00	-3.301221e+01
8.900000e-07	7.085694e-07	3.303670e-10	5.068182e+00	1.859645e+01
9.000000e-07	8.195618e-07	1.131151e-09	5.862077e+00	7.117928e+01
9.100000e-07	9.303119e-07	1.947685e-09	6.654239e+00	1.249340e+02
9.200000e-07	1.040756e-06	2.783215e-09	7.444215e+00	1.799388e+02
9.300000e-07	1.150946e-06	3.637241e-09	8.232366e+00	2.361102e+02
9.400000e-07	1.260778e-06	4.505315e-09	9.017962e+00	2.931862e+02
9.500000e-07	1.370090e-06	5.382673e-09	9.799839e+00	3.507363e+02
9.600000e-07	1.478904e-06	6.258112e-09	1.057815e+01	4.081988e+02
9.700000e-07	1.587287e-06	7.122077e-09	1.135338e+01	4.649375e+02
9.800000e-07	1.695184e-06	7.965441e-09	1.212514e+01	5.203084e+02
9.900000e-07	1.802459e-06	8.777602e-09	1.289244e+01	5.737255e+02
1.000000e-06	1.909028e-06	9.550299e-09	1.365470e+01	6.247151e+02
1.010000e-06	2.014837e-06	1.027878e-08	1.441152e+01	6.729502e+02
1.020000e-06	2.119764e-06	1.096395e-08	1.516203e+01	7.182629e+02
1.030000e-06	2.223767e-06	1.160559e-08	1.590593e+01	7.606338e+02
1.040000e-06	2.326912e-06	1.220252e-08	1.664370e+01	8.001643e+02
1.050000e-06	2.429254e-06	1.276182e-08	1.737572e+01	8.370384e+02
1.060000e-06	2.530735e-06	1.328567e-08	1.810158e+01	8.714823e+02
1.070000e-06	2.631390e-06	1.377610e-08	1.882153e+01	9.037287e+02
1.080000e-06	2.731273e-06	1.423595e-08	1.953597e+01	9.339912e+02
1.090000e-06	2.830195e-06	1.466881e-08	2.024353e+01	9.624506e+02
1.100000e-06	2.927889e-06	1.507750e-08	2.094230e+01	9.892528e+02
1.110000e-06	3.024342e-06	1.546250e-08	2.163220e+01	1.014514e+03
1.120000e-06	3.119698e-06	1.582415e-08	2.231426e+01	1.038332e+03
1.130000e-06	3.213963e-06	1.616515e-08	2.298850e+01	1.060797e+03
1.140000e-06	3.307132e-06	1.648904e-08	2.365491e+01	1.081996e+03
1.150000e-06	3.399318e-06	1.679461e-08	2.431429e+01	1.102020e+03
1.160000e-06	3.490485e-06	1.708284e-08	2.496638e+01	1.120960e+03
1.170000e-06	3.580317e-06	1.735440e-08	2.560893e+01	1.138904e+03
1.180000e-06	3.668676e-06	1.761249e-08	2.624093e+01	1.155931e+03
1.190000e-06	3.755731e-06	1.785819e-08	2.686361e+01	1.172109e+03
1.200000e-06	3.841572e-06	1.809363e-08	2.747760e+01	1.187492e+03
1.210000e-06	3.926207e-06	1.831701e-08	2.808297e+01	1.202122e+03
1.220000e-06	4.009589e-06	1.852636e-08	2.867938e+01	1.216031e+03
1.230000e-06	4.091513e-06	1.872255e-08	2.926535e+01	1.229248e+03
1.240000e-06	4.171871e-06	1.890891e-08	2.984013e+01	1.241804e+03
1.250000e-06	4.250728e-06	1.908848e-08	3.040417e+01	1.253731e+03
1.260000e-06	4.328057e-06	1.926189e-08	3.095728e+01	1.265063e+03
1.270000e-06	4.403776e-06	1.942790e-08	3.149888e+01	1.275836e+03
1.280000e-06	4.477687e-06	1.958583e-08	3.202754e+01	1.286083e+03
1.290000e-06	4.549792e-06	1.973465e-08	3.254328e+01	1.295832e+03
1.300000e-06	4.620211e-06	1.987397e-08	3.304697e+01	1.305104e+03
1.310000e-06	4.688990e-06	2.000715e-08	3.353892e+01	1.313912e+03
1.320000e-06	4.756169e-06	2.013501e-08	3.401944e+01	1.322264e+03
1.330000e-06	4.821555e-06	2.025593e-08	3.448712e+01	1.330168e+03
1.340000e-06	4.885090e-06	2.036796e-08	3.494157e+01	1.337634e+03
1.350000e-06	4.946892e-06	2.047222e-08	3.538362e+01	1.344679e+03
1.360000e-06	5.007171e-06	2.057124e-08	3.581478e+01	1.351325e+03
1.370000e-06	5.065826e-06	2.066666e-08	3.623432e+01	1.357603e+03
1.380000e-06	5.122566e-06	2.075826e-08	3.664016e+01	1.363550e+03
1.390000e-06	5.177368e-06	2.084527e-08	3.703214e+01	1.369200e+03
1.400000e-06	5.230206e-06	2.092658e-08	3.741008e+01	1.374584e+03
1.410000e-06	5.280820e-06	2.100239e-08	3.777210e+01	1.379725e+03
1.420000e-06	5.329189e-06	2.107543e-08	3.811808e+01	1.384634e+03
1.430000e-06	5.375645e-06	2.114698e-08	3.845036e+01	1.389313e+03
1.440000e-06	5.420394e-06	2.121568e-08	3.877043e+01	1.393756e+03
1.450000e-06	5.463314e-06	2.127948e-08	3.907743e+01	1.397950e+03
1.460000e-06	5.504167e-06	2.133866e-08	3.936964e+01	1.401881e+03
1.470000e-06	5.543040e-06	2.139482e-08	3.964769e+01	1.405542e+03
1.480000e-06	5.580141e-06	2.144632e-08	3.991306e+01	1.408927e+03
1.490000e-06	5.615380e-06	2.149209e-08	4.016511e+01	1.412040e+03
1.500000e-06	5.648496e-06	2.153339e-08	4.040198e+01	1.414890e+03
1.510000e-06	5.679526e-06	2.157216e-08	4.062393e+01	1.417492e+03
1.520000e-06	5.708672e-06	2.160851e-08	4.083240e+01	1.419859e+03
1.530000e-06	5.735909e-06	2.164112e-08	4.102722e+01	1.422007e+03
1.540000e-06	5.760973e-06	2.167002e-08	4.120649e+01	1.423946e+03
1.550000e-06	5.783812e-06	2.169621e-08	4.136985e+01	1.425683e+03
1.560000e-06	5.804704e-06	2.171958e-08	4.151929e+01	1.427223e+03
1.570000e-06	5.823695e-06	2.174082e-08	4.165513e+01	1.428566e+03
1.580000e-06	5.840512e-06	2.175970e-08	4.177541e+01	1.429713e+03
1.590000e-06	5.855176e-06	2.177358e-08	4.188030e+01	1.430666e+03
1.600000e-06	5.867700e-06	2.178365e-08	4.196988e+01	1.431431e+03
1.610000e-06	5.877757e-06	2.179286e-08	4.204181e+01	1.432015e+03
1.620000e-06	5.885470e-06	2.180110e-08	4.209698e+01	1.432429e+03
1.630000e-06	5.891126e-06	2.180730e-08	4.213744e+01	1.432685e+03
1.640000e-06	5.894877e-06	2.181215e-08	4.216427e+01	1.432795e+03
1.650000e-06	5.896559e-06	2.181718e-08	4.217630e+01	1.432768e+03
1.660000e-06	5.896046e-06	2.181865e-08	4.217263e+01	1.432608e+03
1.670000e-06	5.893627e-06	2.180735e-08	4.215533e+01	1.432316e+03
1.680000e-06	5.889474e-06	2.179940e-08	4.212562e+01	1.431886e+03
1.690000e-06	5.883264e-06	2.179228e-08	4.208121e+01	1.431306e+03
1.700000e-06	5.874952e-06	2.178147e-08	4.202175e+01	1.430564e+03
1.710000e-06	5.864926e-06	2.177001e-08	4.195004e+01	1.429649e+03
1.720000e-06	5.852977e-06	2.175907e-08	4.186457e+01	1.428551e+03
1.730000e-06	5.838756e-06	2.176675e-08	4.176285e+01	1.427268e+03
1.740000e-06	5.822537e-06	2.170298e-08	4.164684e+01	1.425806e+03
1.750000e-06	5.804334e-06	2.159831e-08	4.151664e+01	1.424176e+03
1.760000e-06	5.783432e-06	2.162854e-08	4.136713e+01	1.422399e+03
1.770000e-06	5.759638e-06	2.162702e-08	4.119694e+01	1.420494e+03
1.780000e-06	5.733669e-06	2.160489e-08	4.101119e+01	1.418483e+03
1.790000e-06	5.706386e-06	2.169434e-08	4.081605e+01	1.416378e+03
1.800000e-06	5.678265e-06	2.148171e-08	4.061491e+01	1.414184e+03
1.810000e-06	5.648399e-06	2.143542e-08	4.040129e+01	1.411892e+03
1.820000e-06	5.616064e-06	2.154773e-08	4.017000e+01	1.409484e+03
1.830000e-06	5.582002e-06	2.130348e-08	3.992637e+01	1.406931e+03
1.840000e-06	5.546158e-06	2.142478e-08	3.966999e+01	1.404201e+03
1.850000e-06	5.508050e-06	2.147294e-08	3.939741e+01	1.401262e+03
1.860000e-06	5.467910e-06	2.122374e-08	3.911030e+01	1.398090e+03
1.870000e-06	5.425805e-06	2.133531e-08	3.880914e+01	1.394671e+03
1.880000e-06	5.382065e-06	2.119107e-08	3.849628e+01	1.391002e+03
1.890000e-06	5.336567e-06	2.108711e-08	3.817085e+01	1.387092e+03
1.900000e-06	5.288706e-06	2.115342e-08	3.782851e+01	1.382959e+03
1.910000e-06	5.238797e-06	2.093744e-08	3.747152e+01	1.378620e+03
1.920000e-06	5.186794e-06	2.100105e-08	3.709957e+01	1.374092e+03
1.930000e-06	5.132541e-06	2.091682e-08	3.671151e+01	1.369381e+03
1.940000e-06	5.076386e-06	2.077404e-08	3.630985e+01	1.364487e+03
1.950000e-06	5.018375e-06	2.078300e-08	3.589492e+01	1.359396e+03
1.960000e-06	4.958633e-06	2.061928e-08	3.546760e+01	1.354090e+03
1.970000e-06	4.897047e-06	2.062249e-08	3.502709e+01	1.348546e+03
1.980000e-06	4.833510e-06	2.047433e-08	3.457263e+01	1.342745e+03
1.990000e-06	4.768226e-06	2.035806e-08	3.410568e+01	1.336677e+03
2.000000e-06	4.701288e-06	2.032440e-08	3.362689e+01	1.330336e+03
2.010000e-06	4.632810e-06	2.016621e-08	3.313709e+01	1.323727e+03
2.020000e-06	4.562414e-06	2.014576e-08	3.263357e+01	1.316859e+03
2.030000e-06	4.490184e-06	1.996920e-08	3.211693e+01	1.309739e+03
2.040000e-06	4.416401e-06	1.986503e-08	3.158918e+01	1.302371e+03
2.050000e-06	4.340987e-06	1.977552e-08	3.104977e+01	1.294749e+03
2.060000e-06	4.263875e-06	1.961806e-08	3.049821e+01	1.286855e+03
2.070000e-06	4.184972e-06	1.954235e-08	2.993383e+01	1.278664e+03
2.080000e-06	4.104578e-06	1.938192e-08	2.935880e+01	1.270146e+03
2.090000e-06	4.022780e-06	1.927417e-08	2.877372e+01	1.261270e+03
2.100000e-06	3.939637e-06	1.909998e-08	2.817903e+01	1.252013e+03
2.110000e-06	3.855281e-06	1.895187e-08	2.757566e+01	1.242358e+03
2.120000e-06	3.769439e-06	1.882354e-08	2.696165e+01	1.232301e+03
2.130000e-06	3.682079e-06	1.865974e-08	2.633679e+01	1.221842e+03
2.140000e-06	3.593446e-06	1.851427e-08	2.570283e+01	1.210985e+03
2.150000e-06	3.503614e-06	1.831773e-08	2.506029e+01	1.199732e+03
2.160000e-06	3.412598e-06	1.815289e-08	2.440928e+01	1.188072e+03
2.170000e-06	3.320521e-06	1.796017e-08	2.375068e+01	1.175986e+03
2.180000e-06	3.227191e-06	1.777787e-08	2.308312e+01	1.163438e+03
2.190000e-06	3.132399e-06	1.758613e-08	2.240510e+01	1.150385e+03
2.200000e-06	3.036435e-06	1.737999e-08	2.171870e+01	1.136779e+03
2.210000e-06	2.939495e-06	1.716363e-08	2.102532e+01	1.122571e+03
2.220000e-06	2.841522e-06	1.692887e-08	2.032455e+01	1.107718e+03
2.230000e-06	2.742519e-06	1.670398e-08	1.961641e+01	1.092188e+03
2.240000e-06	2.642649e-06	1.646026e-08	1.890207e+01	1.075954e+03
2.250000e-06	2.541976e-06	1.620999e-08	1.818199e+01	1.058994e+03
2.260000e-06	2.440300e-06	1.593581e-08	1.745472e+01	1.041281e+03
2.270000e-06	2.337430e-06	1.565211e-08	1.671893e+01	1.022782e+03
2.280000e-06	2.233570e-06	1.535531e-08	1.597605e+01	1.003449e+03
2.290000e-06	2.128939e-06	1.505042e-08	1.522766e+01	9.832200e+02
2.300000e-06	2.023566e-06	1.473074e-08	1.447395e+01	9.620168e+02
2.310000e-06	1.917529e-06	1.439230e-08	1.371550e+01	9.397514e+02
2.320000e-06	1.810944e-06	1.403736e-08	1.295313e+01	9.163301e+02
2.330000e-06	1.703844e-06	1.366065e-08	1.218708e+01	8.916582e+02
2.340000e-06	1.596206e-06	1.326890e-08	1.141718e+01	8.656425e+02
2.350000e-06	1.488142e-06	1.285305e-08	1.064423e+01	8.381907e+02
2.360000e-06	1.379653e-06	1.241572e-08	9.868239e+00	8.092094e+02
2.370000e-06	1.270704e-06	1.194863e-08	9.088961e+00	7.786006e+02
2.380000e-06	1.161361e-06	1.145495e-08	8.306864e+00	7.462610e+02
2.390000e-06	1.051583e-06	1.093261e-08	7.521657e+00	7.120856e+02
2.400000e-06	9.414244e-07	1.038136e-08	6.733724e+00	6.759771e+02
2.410000e-06	8.309474e-07	9.801582e-09	5.943515e+00	6.378621e+02
2.420000e-06	7.201324e-07	9.189934e-09	5.150889e+00	5.977101e+02
2.430000e-06	6.091122e-07	8.546289e-09	4.356795e+00	5.555539e+02
2.440000e-06	4.979767e-07	7.871854e-09	3.561877e+00	5.115038e+02
2.450000e-06	3.866543e-07	7.174477e-09	2.765621e+00	4.657525e+02
2.460000e-06	2.751343e-07	6.455153e-09	1.967952e+00	4.185653e+02
2.470000e-06	1.634615e-07	5.717681e-09	1.169191e+00	3.702566e+02
2.480000e-06	5.172514e-08	4.964685e-09	3.699743e-01	3.211522e+02
2.490000e-06	-5.999292e-08	4.205354e-09	-4.291112e-01	2.715457e+02
2.500000e-06	-1.716469e-07	3.442159e-09	-1.227738e+00	2.216551e+02
2.510000e-06	-2.833036e-07	2.674575e-09	-2.026385e+00	1.715890e+02
2.520000e-06	-3.948830e-07	1.906480e-09	-2.824478e+00	1.213300e+02
2.530000e-06	-5.063139e-07	1.132740e-09	-3.621510e+00	7.074180e+01
2.540000e-06	-6.175374e-07	3.489461e-10	-4.417058e+00	1.959864e+01
2.550000e-06	-7.284360e-07	-4.477217e-10	-5.210282e+00	-3.236456e+01
2.560000e-06	-8.390626e-07	-1.257647e-09	-6.001560e+00	-8.539041e+01
2.570000e-06	-9.493597e-07	-2.084915e-09	-6.790482e+00	-1.396359e+02
2.580000e-06	-1.059271e-06	-2.932696e-09	-7.576645e+00	-1.951195e+02
2.590000e-06	-1.168817e-06	-3.795271e-09	-8.360191e+00	-2.516882e+02
2.600000e-06	-1.277964e-06	-4.670065e-09	-9.140886e+00	-3.090108e+02
2.610000e-06	-1.386672e-06	-5.551987e-09	-9.918443e+00	-3.665998e+02
2.620000e-06	-1.494962e-06	-6.430620e-09	-1.069301e+01	-4.238566e+02
2.630000e-06	-1.602781e-06	-7.295450e-09	-1.146421e+01	-4.801337e+02
2.640000e-06	-1.710035e-06	-8.134021e-09	-1.223136e+01	-5.348024e+02
2.650000e-06	-1.816685e-06	-8.938129e-09	-1.299420e+01	-5.873155e+02
2.660000e-06	-1.922718e-06	-9.703415e-09	-1.375262e+01	-6.372539e+02
2.670000e-06	-2.028083e-06	-1.042619e-08	-1.450626e+01	-6.843530e+02
2.680000e-06	-2.132709e-06	-1.110335e-08	-1.525462e+01	-7.285056e+02
2.690000e-06	-2.236576e-06	-1.173516e-08	-1.599755e+01	-7.697438e+02
2.700000e-06	-2.339622e-06	-1.232676e-08	-1.673461e+01	-8.082063e+02
2.710000e-06	-2.441620e-06	-1.288112e-08	-1.746417e+01	-8.440985e+02
2.720000e-06	-2.542498e-06	-1.339747e-08	-1.818572e+01	-8.776527e+02
2.730000e-06	-2.642392e-06	-1.387862e-08	-1.890023e+01	-9.090966e+02
2.740000e-06	-2.741451e-06	-1.432949e-08	-1.960877e+01	-9.386319e+02
2.750000e-06	-2.839633e-06	-1.475354e-08	-2.031103e+01	-9.664255e+02
2.760000e-06	-2.936828e-06	-1.515398e-08	-2.100624e+01	-9.926104e+02
2.770000e-06	-3.033105e-06	-1.553242e-08	-2.169488e+01	-1.017295e+03
2.780000e-06	-3.128461e-06	-1.588935e-08	-2.237693e+01	-1.040571e+03
2.790000e-06	-3.222698e-06	-1.622361e-08	-2.305098e+01	-1.062529e+03
2.800000e-06	-3.315603e-06	-1.653762e-08	-2.371550e+01	-1.083256e+03
2.810000e-06	-3.407239e-06	-1.683611e-08	-2.437095e+01	-1.102844e+03
2.820000e-06	-3.497710e-06	-1.712070e-08	-2.501806e+01	-1.121383e+03
2.830000e-06	-3.586969e-06	-1.739062e-08	-2.565650e+01	-1.138959e+03
2.840000e-06	-3.675041e-06	-1.764574e-08	-2.628645e+01	-1.155646e+03
2.850000e-06	-3.761760e-06	-1.788910e-08	-2.690673e+01	-1.171507e+03
2.860000e-06	-3.846976e-06	-1.812241e-08	-2.751625e+01	-1.186591e+03
2.870000e-06	-3.930834e-06	-1.834704e-08	-2.811607e+01	-1.200934e+03
2.880000e-06	-4.013359e-06	-1.856000e-08	-2.870634e+01	-1.214569e+03
2.890000e-06	-4.094472e-06	-1.875868e-08	-2.928652e+01	-1.227523e+03
2.900000e-06	-4.174185e-06	-1.894549e-08	-2.985668e+01	-1.239829e+03
2.910000e-06	-4.252192e-06	-1.912303e-08	-3.041464e+01	-1.251519e+03
2.920000e-06	-4.328407e-06	-1.929306e-08	-3.095978e+01	-1.262628e+03
2.930000e-06	-4.403056e-06	-1.945500e-08	-3.149373e+01	-1.273191e+03
2.940000e-06	-4.476125e-06	-1.961023e-08	-3.201637e+01	-1.283240e+03
