# Temperatura_=_50.9
# Concentracion g/m^3_=_28200.0
# C_Vs_to_Am_M_A/Vsm_=_65563218390.804596
# pendiente_HvsI_1/m_=_3716.3
# ordenada_HvsI_A/m_=_1297.0
# frecuencia_Hz_=_301951.67885671766

Tiempo_(s)	Campo_(V.s)	Magnetizacion_(V.s)	Campo_(kA/m)	Magnetizacion_(A/m)
0.000000e+00	-5.858634e-06	-2.169923e-08	-4.194139e+01	-1.419371e+03
1.000000e-08	-5.857215e-06	-2.169850e-08	-4.193123e+01	-1.419140e+03
2.000000e-08	-5.853692e-06	-2.169275e-08	-4.190601e+01	-1.418784e+03
3.000000e-08	-5.848318e-06	-2.168142e-08	-4.186754e+01	-1.418292e+03
4.000000e-08	-5.841193e-06	-2.167114e-08	-4.181653e+01	-1.417649e+03
5.000000e-08	-5.832241e-06	-2.165595e-08	-4.175244e+01	-1.416840e+03
6.000000e-08	-5.821131e-06	-2.163501e-08	-4.167291e+01	-1.415850e+03
7.000000e-08	-5.807845e-06	-2.161221e-08	-4.157779e+01	-1.414673e+03
8.000000e-08	-5.792433e-06	-2.158089e-08	-4.146746e+01	-1.413312e+03
9.000000e-08	-5.774793e-06	-2.158196e-08	-4.134118e+01	-1.411781e+03
1.000000e-07	-5.754987e-06	-2.161962e-08	-4.119939e+01	-1.410102e+03
1.100000e-07	-5.732964e-06	-2.156474e-08	-4.104173e+01	-1.408305e+03
1.200000e-07	-5.708700e-06	-2.149500e-08	-4.086803e+01	-1.406418e+03
1.300000e-07	-5.682342e-06	-2.147720e-08	-4.067933e+01	-1.404461e+03
1.400000e-07	-5.654334e-06	-2.135701e-08	-4.047882e+01	-1.402445e+03
1.500000e-07	-5.624923e-06	-2.130461e-08	-4.026828e+01	-1.400362e+03
1.600000e-07	-5.593887e-06	-2.142444e-08	-4.004609e+01	-1.398191e+03
1.700000e-07	-5.561094e-06	-2.128182e-08	-3.981133e+01	-1.395895e+03
1.800000e-07	-5.526403e-06	-2.127018e-08	-3.956298e+01	-1.393432e+03
1.900000e-07	-5.489674e-06	-2.133809e-08	-3.930004e+01	-1.390756e+03
2.000000e-07	-5.451008e-06	-2.109802e-08	-3.902323e+01	-1.387831e+03
2.100000e-07	-5.410464e-06	-2.107917e-08	-3.873299e+01	-1.384633e+03
2.200000e-07	-5.367862e-06	-2.107344e-08	-3.842800e+01	-1.381156e+03
2.300000e-07	-5.323227e-06	-2.097929e-08	-3.810846e+01	-1.377407e+03
2.400000e-07	-5.276624e-06	-2.099458e-08	-3.777484e+01	-1.373410e+03
2.500000e-07	-5.227803e-06	-2.089875e-08	-3.742533e+01	-1.369192e+03
2.600000e-07	-5.176609e-06	-2.077442e-08	-3.705884e+01	-1.364779e+03
2.700000e-07	-5.123185e-06	-2.071162e-08	-3.667638e+01	-1.360191e+03
2.800000e-07	-5.067935e-06	-2.064629e-08	-3.628086e+01	-1.355434e+03
2.900000e-07	-5.010864e-06	-2.062023e-08	-3.587229e+01	-1.350500e+03
3.000000e-07	-4.951766e-06	-2.053505e-08	-3.544921e+01	-1.345371e+03
3.100000e-07	-4.890842e-06	-2.042814e-08	-3.501306e+01	-1.340020e+03
3.200000e-07	-4.828226e-06	-2.030642e-08	-3.456480e+01	-1.334421e+03
3.300000e-07	-4.763824e-06	-2.022521e-08	-3.410376e+01	-1.328552e+03
3.400000e-07	-4.697569e-06	-2.016212e-08	-3.362944e+01	-1.322402e+03
3.500000e-07	-4.629528e-06	-2.004717e-08	-3.314234e+01	-1.315970e+03
3.600000e-07	-4.559824e-06	-1.997416e-08	-3.264334e+01	-1.309261e+03
3.700000e-07	-4.488641e-06	-1.984521e-08	-3.213374e+01	-1.302287e+03
3.800000e-07	-4.415942e-06	-1.970615e-08	-3.161330e+01	-1.295057e+03
3.900000e-07	-4.341439e-06	-1.961396e-08	-3.107994e+01	-1.287574e+03
4.000000e-07	-4.265075e-06	-1.951699e-08	-3.053326e+01	-1.279829e+03
4.100000e-07	-4.186957e-06	-1.940272e-08	-2.997402e+01	-1.271803e+03
4.200000e-07	-4.107125e-06	-1.925063e-08	-2.940250e+01	-1.263472e+03
4.300000e-07	-4.025746e-06	-1.910232e-08	-2.881992e+01	-1.254804e+03
4.400000e-07	-3.943140e-06	-1.895541e-08	-2.822855e+01	-1.245772e+03
4.500000e-07	-3.859391e-06	-1.882316e-08	-2.762901e+01	-1.236355e+03
4.600000e-07	-3.774418e-06	-1.869097e-08	-2.702069e+01	-1.226541e+03
4.700000e-07	-3.688237e-06	-1.852958e-08	-2.640373e+01	-1.216327e+03
4.800000e-07	-3.600842e-06	-1.835413e-08	-2.577808e+01	-1.205713e+03
4.900000e-07	-3.512124e-06	-1.817317e-08	-2.514295e+01	-1.194699e+03
5.000000e-07	-3.422018e-06	-1.800286e-08	-2.449790e+01	-1.183282e+03
5.100000e-07	-3.330556e-06	-1.783280e-08	-2.384313e+01	-1.171444e+03
5.200000e-07	-3.237867e-06	-1.765036e-08	-2.317958e+01	-1.159157e+03
5.300000e-07	-3.144093e-06	-1.745033e-08	-2.250826e+01	-1.146381e+03
5.400000e-07	-3.049285e-06	-1.723462e-08	-2.182954e+01	-1.133069e+03
5.500000e-07	-2.953370e-06	-1.701175e-08	-2.114289e+01	-1.119174e+03
5.600000e-07	-2.856278e-06	-1.679228e-08	-2.044782e+01	-1.104649e+03
5.700000e-07	-2.758011e-06	-1.657160e-08	-1.974433e+01	-1.089459e+03
5.800000e-07	-2.658606e-06	-1.633164e-08	-1.903270e+01	-1.073574e+03
5.900000e-07	-2.558214e-06	-1.606839e-08	-1.831401e+01	-1.056970e+03
6.000000e-07	-2.456929e-06	-1.579521e-08	-1.758892e+01	-1.039625e+03
6.100000e-07	-2.354806e-06	-1.551794e-08	-1.685783e+01	-1.021511e+03
6.200000e-07	-2.251843e-06	-1.523478e-08	-1.612073e+01	-1.002587e+03
6.300000e-07	-2.148042e-06	-1.493754e-08	-1.537762e+01	-9.827991e+02
6.400000e-07	-2.043458e-06	-1.461939e-08	-1.462892e+01	-9.620765e+02
6.500000e-07	-1.938114e-06	-1.428048e-08	-1.387477e+01	-9.403351e+02
6.600000e-07	-1.832022e-06	-1.392593e-08	-1.311527e+01	-9.174821e+02
6.700000e-07	-1.725153e-06	-1.356014e-08	-1.235020e+01	-8.934205e+02
6.800000e-07	-1.617533e-06	-1.317589e-08	-1.157976e+01	-8.680528e+02
6.900000e-07	-1.509326e-06	-1.276705e-08	-1.080512e+01	-8.412824e+02
7.000000e-07	-1.400677e-06	-1.233166e-08	-1.002731e+01	-8.130134e+02
7.100000e-07	-1.291655e-06	-1.186998e-08	-9.246833e+00	-7.831480e+02
7.200000e-07	-1.182246e-06	-1.138503e-08	-8.463581e+00	-7.515857e+02
7.300000e-07	-1.072421e-06	-1.087829e-08	-7.677358e+00	-7.182253e+02
7.400000e-07	-9.622487e-07	-1.034431e-08	-6.888645e+00	-6.829718e+02
7.500000e-07	-8.518194e-07	-9.777193e-09	-6.098092e+00	-6.457490e+02
7.600000e-07	-7.412031e-07	-9.175720e-09	-5.306201e+00	-6.065171e+02
7.700000e-07	-6.304190e-07	-8.542931e-09	-4.513108e+00	-5.652912e+02
7.800000e-07	-5.194265e-07	-7.885609e-09	-3.718524e+00	-5.221572e+02
7.900000e-07	-4.082416e-07	-7.205473e-09	-2.922562e+00	-4.772803e+02
8.000000e-07	-2.969173e-07	-6.503898e-09	-2.125602e+00	-4.309006e+02
8.100000e-07	-1.854844e-07	-5.780948e-09	-1.327864e+00	-3.833156e+02
8.200000e-07	-7.391455e-08	-5.041182e-09	-5.291471e-01	-3.348487e+02
8.300000e-07	3.771381e-08	-4.293522e-09	2.699895e-01	-2.858087e+02
8.400000e-07	1.493309e-07	-3.543059e-09	1.069045e+00	-2.364461e+02
8.500000e-07	2.609282e-07	-2.791890e-09	1.867960e+00	-1.869158e+02
8.600000e-07	3.724299e-07	-2.038176e-09	2.666189e+00	-1.372526e+02
8.700000e-07	4.837974e-07	-1.280718e-09	3.463458e+00	-8.736808e+01
8.800000e-07	5.950374e-07	-5.145378e-10	4.259815e+00	-3.706894e+01
8.900000e-07	7.061367e-07	2.628395e-10	5.055164e+00	1.390179e+01
9.000000e-07	8.170483e-07	1.053019e-09	5.849169e+00	6.580876e+01
9.100000e-07	9.277285e-07	1.859023e-09	6.641518e+00	1.188618e+02
9.200000e-07	1.038146e-06	2.684125e-09	7.431989e+00	1.731577e+02
9.300000e-07	1.148254e-06	3.527283e-09	8.220238e+00	2.286380e+02
9.400000e-07	1.257935e-06	4.383013e-09	9.005431e+00	2.850685e+02
9.500000e-07	1.367169e-06	5.248524e-09	9.787427e+00	3.420473e+02
9.600000e-07	1.475984e-06	6.116638e-09	1.056642e+01	3.990377e+02
9.700000e-07	1.584326e-06	6.975904e-09	1.134204e+01	4.554220e+02
9.800000e-07	1.692118e-06	7.815910e-09	1.211371e+01	5.105654e+02
9.900000e-07	1.799346e-06	8.628022e-09	1.288134e+01	5.638814e+02
1.000000e-06	1.905894e-06	9.402935e-09	1.364411e+01	6.148861e+02
1.010000e-06	2.011575e-06	1.013356e-08	1.440067e+01	6.632348e+02
1.020000e-06	2.116341e-06	1.081958e-08	1.515068e+01	7.087368e+02
1.030000e-06	2.220213e-06	1.146413e-08	1.589429e+01	7.513486e+02
1.040000e-06	2.323275e-06	1.206706e-08	1.663210e+01	7.911486e+02
1.050000e-06	2.425578e-06	1.263255e-08	1.736448e+01	8.283014e+02
1.060000e-06	2.527008e-06	1.316075e-08	1.809060e+01	8.630186e+02
1.070000e-06	2.627595e-06	1.365326e-08	1.881070e+01	8.955232e+02
1.080000e-06	2.727438e-06	1.411447e-08	1.952546e+01	9.260234e+02
1.090000e-06	2.826321e-06	1.454857e-08	2.023336e+01	9.546982e+02
1.100000e-06	2.923994e-06	1.495995e-08	2.093259e+01	9.816932e+02
1.110000e-06	3.020379e-06	1.534885e-08	2.162260e+01	1.007126e+03
1.120000e-06	3.115586e-06	1.571421e-08	2.230417e+01	1.031096e+03
1.130000e-06	3.209747e-06	1.605640e-08	2.297827e+01	1.053695e+03
1.140000e-06	3.302867e-06	1.638045e-08	2.364490e+01	1.075012e+03
1.150000e-06	3.395046e-06	1.668739e-08	2.430480e+01	1.095142e+03
1.160000e-06	3.486226e-06	1.697493e-08	2.495755e+01	1.114180e+03
1.170000e-06	3.575974e-06	1.724592e-08	2.560005e+01	1.132216e+03
1.180000e-06	3.664219e-06	1.750457e-08	2.623178e+01	1.149334e+03
1.190000e-06	3.751259e-06	1.775164e-08	2.685490e+01	1.165604e+03
1.200000e-06	3.837087e-06	1.798894e-08	2.746933e+01	1.181079e+03
1.210000e-06	3.921647e-06	1.821500e-08	2.807469e+01	1.195801e+03
1.220000e-06	4.005015e-06	1.842893e-08	2.867151e+01	1.209798e+03
1.230000e-06	4.086952e-06	1.862788e-08	2.925809e+01	1.223095e+03
1.240000e-06	4.167251e-06	1.881303e-08	2.983294e+01	1.235717e+03
1.250000e-06	4.245983e-06	1.898978e-08	3.039658e+01	1.247691e+03
1.260000e-06	4.323185e-06	1.916226e-08	3.094926e+01	1.259051e+03
1.270000e-06	4.398808e-06	1.932900e-08	3.149064e+01	1.269833e+03
1.280000e-06	4.472631e-06	1.948713e-08	3.201913e+01	1.280075e+03
1.290000e-06	4.544636e-06	1.963713e-08	3.253460e+01	1.289811e+03
1.300000e-06	4.615006e-06	1.977967e-08	3.303838e+01	1.299067e+03
1.310000e-06	4.683800e-06	1.991457e-08	3.353087e+01	1.307864e+03
1.320000e-06	4.750913e-06	2.004064e-08	3.401132e+01	1.316215e+03
1.330000e-06	4.816124e-06	2.016032e-08	3.447816e+01	1.324126e+03
1.340000e-06	4.879566e-06	2.027311e-08	3.493234e+01	1.331605e+03
1.350000e-06	4.941430e-06	2.037667e-08	3.537521e+01	1.338665e+03
1.360000e-06	5.001761e-06	2.047376e-08	3.580712e+01	1.345320e+03
1.370000e-06	5.060411e-06	2.056888e-08	3.622699e+01	1.351598e+03
1.380000e-06	5.117086e-06	2.066083e-08	3.663272e+01	1.357527e+03
1.390000e-06	5.171845e-06	2.074729e-08	3.702474e+01	1.363141e+03
1.400000e-06	5.224675e-06	2.082858e-08	3.740294e+01	1.368473e+03
1.410000e-06	5.275252e-06	2.090609e-08	3.776501e+01	1.373550e+03
1.420000e-06	5.323620e-06	2.097963e-08	3.811128e+01	1.378388e+03
1.430000e-06	5.370124e-06	2.104875e-08	3.844420e+01	1.382996e+03
1.440000e-06	5.414899e-06	2.111340e-08	3.876474e+01	1.387372e+03
1.450000e-06	5.457868e-06	2.117328e-08	3.907235e+01	1.391507e+03
1.460000e-06	5.498746e-06	2.123038e-08	3.936499e+01	1.395390e+03
1.470000e-06	5.537597e-06	2.128482e-08	3.964312e+01	1.399010e+03
1.480000e-06	5.574682e-06	2.133702e-08	3.990861e+01	1.402362e+03
1.490000e-06	5.609911e-06	2.138455e-08	4.016081e+01	1.405446e+03
1.500000e-06	5.643062e-06	2.142677e-08	4.039813e+01	1.408272e+03
1.510000e-06	5.674151e-06	2.146536e-08	4.062069e+01	1.410852e+03
1.520000e-06	5.703350e-06	2.150107e-08	4.082973e+01	1.413202e+03
1.530000e-06	5.730615e-06	2.153385e-08	4.102491e+01	1.415341e+03
1.540000e-06	5.755686e-06	2.156257e-08	4.120440e+01	1.417279e+03
1.550000e-06	5.778555e-06	2.158853e-08	4.136811e+01	1.419027e+03
1.560000e-06	5.799511e-06	2.161192e-08	4.151813e+01	1.420586e+03
1.570000e-06	5.818586e-06	2.163266e-08	4.165469e+01	1.421955e+03
1.580000e-06	5.835510e-06	2.165031e-08	4.177585e+01	1.423132e+03
1.590000e-06	5.850164e-06	2.166350e-08	4.188076e+01	1.424114e+03
1.600000e-06	5.862555e-06	2.167381e-08	4.196946e+01	1.424901e+03
1.610000e-06	5.872569e-06	2.168380e-08	4.204115e+01	1.425499e+03
1.620000e-06	5.880321e-06	2.169327e-08	4.209665e+01	1.425918e+03
1.630000e-06	5.886061e-06	2.170039e-08	4.213774e+01	1.426172e+03
1.640000e-06	5.889828e-06	2.170468e-08	4.216471e+01	1.426277e+03
1.650000e-06	5.891448e-06	2.170811e-08	4.217630e+01	1.426247e+03
1.660000e-06	5.890912e-06	2.170814e-08	4.217246e+01	1.426091e+03
1.670000e-06	5.888514e-06	2.169712e-08	4.215530e+01	1.425811e+03
1.680000e-06	5.884335e-06	2.168974e-08	4.212538e+01	1.425401e+03
1.690000e-06	5.878129e-06	2.168402e-08	4.208095e+01	1.424851e+03
1.700000e-06	5.869858e-06	2.167459e-08	4.202174e+01	1.424145e+03
1.710000e-06	5.859780e-06	2.166430e-08	4.194960e+01	1.423265e+03
1.720000e-06	5.847825e-06	2.165534e-08	4.186401e+01	1.422201e+03
1.730000e-06	5.833711e-06	2.166069e-08	4.176297e+01	1.420950e+03
1.740000e-06	5.817619e-06	2.161047e-08	4.164777e+01	1.419519e+03
1.750000e-06	5.799488e-06	2.151290e-08	4.151797e+01	1.417926e+03
1.760000e-06	5.778650e-06	2.153017e-08	4.136879e+01	1.416197e+03
1.770000e-06	5.754965e-06	2.152827e-08	4.119923e+01	1.414360e+03
1.780000e-06	5.729084e-06	2.150018e-08	4.101395e+01	1.412443e+03
1.790000e-06	5.701865e-06	2.158556e-08	4.081910e+01	1.410462e+03
1.800000e-06	5.673747e-06	2.141397e-08	4.061780e+01	1.408420e+03
1.810000e-06	5.643879e-06	2.135571e-08	4.040398e+01	1.406306e+03
1.820000e-06	5.611575e-06	2.147889e-08	4.017272e+01	1.404090e+03
1.830000e-06	5.577508e-06	2.127070e-08	3.992884e+01	1.401733e+03
1.840000e-06	5.541612e-06	2.133076e-08	3.967186e+01	1.399190e+03
1.850000e-06	5.503451e-06	2.139228e-08	3.939867e+01	1.396420e+03
1.860000e-06	5.463340e-06	2.117431e-08	3.911152e+01	1.393389e+03
1.870000e-06	5.421326e-06	2.124872e-08	3.881075e+01	1.390080e+03
1.880000e-06	5.377634e-06	2.111975e-08	3.849796e+01	1.386494e+03
1.890000e-06	5.332154e-06	2.099093e-08	3.817237e+01	1.382644e+03
1.900000e-06	5.284386e-06	2.106948e-08	3.783040e+01	1.378555e+03
1.910000e-06	5.234601e-06	2.092238e-08	3.747400e+01	1.374257e+03
1.920000e-06	5.182624e-06	2.095196e-08	3.710190e+01	1.369773e+03
1.930000e-06	5.128418e-06	2.084975e-08	3.671385e+01	1.365118e+03
1.940000e-06	5.072338e-06	2.068306e-08	3.631237e+01	1.360292e+03
1.950000e-06	5.014405e-06	2.069693e-08	3.589764e+01	1.355284e+03
1.960000e-06	4.954744e-06	2.056913e-08	3.547053e+01	1.350070e+03
1.970000e-06	4.893240e-06	2.056232e-08	3.503023e+01	1.344624e+03
1.980000e-06	4.829820e-06	2.044727e-08	3.457621e+01	1.338920e+03
1.990000e-06	4.764607e-06	2.031901e-08	3.410935e+01	1.332941e+03
2.000000e-06	4.697786e-06	2.024883e-08	3.363099e+01	1.326679e+03
2.010000e-06	4.629380e-06	2.008517e-08	3.314128e+01	1.320136e+03
2.020000e-06	4.559064e-06	2.008002e-08	3.263789e+01	1.313321e+03
2.030000e-06	4.486935e-06	1.995274e-08	3.212153e+01	1.306245e+03
2.040000e-06	4.413232e-06	1.982789e-08	3.159390e+01	1.298915e+03
2.050000e-06	4.337919e-06	1.971735e-08	3.105474e+01	1.291330e+03
2.060000e-06	4.260911e-06	1.955613e-08	3.050345e+01	1.283476e+03
2.070000e-06	4.182135e-06	1.947684e-08	2.993949e+01	1.275334e+03
2.080000e-06	4.101822e-06	1.933326e-08	2.936455e+01	1.266873e+03
2.090000e-06	4.020129e-06	1.922727e-08	2.877971e+01	1.258064e+03
2.100000e-06	3.937098e-06	1.906275e-08	2.818530e+01	1.248882e+03
2.110000e-06	3.852698e-06	1.890164e-08	2.758109e+01	1.239310e+03
2.120000e-06	3.766863e-06	1.877294e-08	2.696661e+01	1.229338e+03
2.130000e-06	3.679617e-06	1.862109e-08	2.634202e+01	1.218965e+03
2.140000e-06	3.591070e-06	1.848260e-08	2.570812e+01	1.208194e+03
2.150000e-06	3.501353e-06	1.829242e-08	2.506585e+01	1.197022e+03
2.160000e-06	3.410484e-06	1.811760e-08	2.441533e+01	1.185441e+03
2.170000e-06	3.318437e-06	1.791927e-08	2.375636e+01	1.173430e+03
2.180000e-06	3.225139e-06	1.772878e-08	2.308845e+01	1.160955e+03
2.190000e-06	3.130617e-06	1.754573e-08	2.241178e+01	1.147974e+03
2.200000e-06	3.034870e-06	1.734985e-08	2.172634e+01	1.134438e+03
2.210000e-06	2.938020e-06	1.713377e-08	2.103300e+01	1.120300e+03
2.220000e-06	2.840202e-06	1.689357e-08	2.033273e+01	1.105517e+03
2.230000e-06	2.741448e-06	1.666577e-08	1.962576e+01	1.090056e+03
2.240000e-06	2.641813e-06	1.642852e-08	1.891248e+01	1.073890e+03
2.250000e-06	2.541207e-06	1.617981e-08	1.819225e+01	1.056998e+03
2.260000e-06	2.439614e-06	1.590712e-08	1.746496e+01	1.039354e+03
2.270000e-06	2.337049e-06	1.562157e-08	1.673070e+01	1.020926e+03
2.280000e-06	2.233465e-06	1.532384e-08	1.598916e+01	1.001669e+03
2.290000e-06	2.128945e-06	1.501850e-08	1.524091e+01	9.815228e+02
2.300000e-06	2.023617e-06	1.470356e-08	1.448688e+01	9.604098e+02
2.310000e-06	1.917652e-06	1.437163e-08	1.372828e+01	9.382424e+02
2.320000e-06	1.811195e-06	1.401787e-08	1.296617e+01	9.149255e+02
2.330000e-06	1.704233e-06	1.363840e-08	1.220044e+01	8.903616e+02
2.340000e-06	1.596677e-06	1.324449e-08	1.143045e+01	8.644535e+02
2.350000e-06	1.488571e-06	1.283236e-08	1.065653e+01	8.371052e+02
2.360000e-06	1.380049e-06	1.239894e-08	9.879636e+00	8.082200e+02
2.370000e-06	1.271157e-06	1.193447e-08	9.100088e+00	7.776994e+02
2.380000e-06	1.161925e-06	1.144105e-08	8.318105e+00	7.454419e+02
2.390000e-06	1.052381e-06	1.091992e-08	7.533895e+00	7.113477e+02
2.400000e-06	9.424674e-07	1.037082e-08	6.747033e+00	6.753272e+02
2.410000e-06	8.321713e-07	9.794457e-09	5.957433e+00	6.373165e+02
2.420000e-06	7.215297e-07	9.188401e-09	5.165361e+00	5.972951e+02
2.430000e-06	6.105372e-07	8.548473e-09	4.370777e+00	5.553043e+02
2.440000e-06	4.992925e-07	7.873120e-09	3.574387e+00	5.114608e+02
2.450000e-06	3.879684e-07	7.173053e-09	2.777428e+00	4.659604e+02
2.460000e-06	2.765347e-07	6.456026e-09	1.979685e+00	4.190687e+02
2.470000e-06	1.648975e-07	5.726151e-09	1.180485e+00	3.710978e+02
2.480000e-06	5.311665e-08	4.982205e-09	3.802569e-01	3.223705e+02
2.490000e-06	-5.861250e-08	4.230553e-09	-4.196012e-01	2.731777e+02
2.500000e-06	-1.702314e-07	3.475979e-09	-1.218670e+00	2.237363e+02
2.510000e-06	-2.818132e-07	2.717349e-09	-2.017473e+00	1.741559e+02
2.520000e-06	-3.933233e-07	1.956647e-09	-2.815763e+00	1.244220e+02
2.530000e-06	-5.046711e-07	1.190384e-09	-3.612891e+00	7.440153e+01
2.540000e-06	-6.157846e-07	4.146133e-10	-4.408342e+00	2.387026e+01
2.550000e-06	-7.266451e-07	-3.744817e-10	-5.201982e+00	-2.743910e+01
2.560000e-06	-8.371930e-07	-1.174878e-09	-5.993383e+00	-7.977710e+01
2.570000e-06	-9.474024e-07	-1.989379e-09	-6.782361e+00	-1.333155e+02
2.580000e-06	-1.057181e-06	-2.824620e-09	-7.568254e+00	-1.880940e+02
2.590000e-06	-1.166541e-06	-3.677652e-09	-8.351153e+00	-2.439859e+02
2.600000e-06	-1.275576e-06	-4.544644e-09	-9.131725e+00	-3.006890e+02
2.610000e-06	-1.384243e-06	-5.418228e-09	-9.909659e+00	-3.577429e+02
2.620000e-06	-1.492414e-06	-6.289703e-09	-1.068404e+01	-4.145721e+02
2.630000e-06	-1.600069e-06	-7.147759e-09	-1.145474e+01	-4.705440e+02
2.640000e-06	-1.707251e-06	-7.982276e-09	-1.222204e+01	-5.250356e+02
2.650000e-06	-1.813884e-06	-8.787053e-09	-1.298542e+01	-5.774949e+02
2.660000e-06	-1.919859e-06	-9.555257e-09	-1.374409e+01	-6.274896e+02
2.670000e-06	-2.025080e-06	-1.028123e-08	-1.449735e+01	-6.747349e+02
2.680000e-06	-2.129574e-06	-1.095988e-08	-1.524541e+01	-7.190999e+02
2.690000e-06	-2.233336e-06	-1.159283e-08	-1.598823e+01	-7.605929e+02
2.700000e-06	-2.336194e-06	-1.218693e-08	-1.672459e+01	-7.993305e+02
2.710000e-06	-2.438065e-06	-1.274488e-08	-1.745387e+01	-8.355007e+02
2.720000e-06	-2.538928e-06	-1.326627e-08	-1.817594e+01	-8.693231e+02
2.730000e-06	-2.638813e-06	-1.375222e-08	-1.889100e+01	-9.010176e+02
2.740000e-06	-2.737814e-06	-1.420812e-08	-1.959974e+01	-9.307819e+02
2.750000e-06	-2.835932e-06	-1.463691e-08	-2.030216e+01	-9.587819e+02
2.760000e-06	-2.933098e-06	-1.504041e-08	-2.099776e+01	-9.851511e+02
2.770000e-06	-3.029290e-06	-1.542273e-08	-2.168639e+01	-1.009999e+03
2.780000e-06	-3.124498e-06	-1.578311e-08	-2.236798e+01	-1.033420e+03
2.790000e-06	-3.218573e-06	-1.611860e-08	-2.304145e+01	-1.055505e+03
2.800000e-06	-3.311371e-06	-1.643154e-08	-2.370578e+01	-1.076346e+03
2.810000e-06	-3.402984e-06	-1.672946e-08	-2.436163e+01	-1.096036e+03
2.820000e-06	-3.493404e-06	-1.701647e-08	-2.500894e+01	-1.114670e+03
2.830000e-06	-3.582525e-06	-1.729105e-08	-2.564695e+01	-1.132337e+03
2.840000e-06	-3.670417e-06	-1.754972e-08	-2.627616e+01	-1.149115e+03
2.850000e-06	-3.757025e-06	-1.779422e-08	-2.689618e+01	-1.165068e+03
2.860000e-06	-3.842178e-06	-1.802850e-08	-2.750578e+01	-1.180244e+03
2.870000e-06	-3.925927e-06	-1.825359e-08	-2.810533e+01	-1.194679e+03
2.880000e-06	-4.008385e-06	-1.846699e-08	-2.869564e+01	-1.208399e+03
2.890000e-06	-4.089516e-06	-1.866763e-08	-2.927645e+01	-1.221429e+03
2.900000e-06	-4.169186e-06	-1.885647e-08	-2.984680e+01	-1.233793e+03
2.910000e-06	-4.247135e-06	-1.903302e-08	-3.040483e+01	-1.245522e+03
2.920000e-06	-4.323301e-06	-1.920039e-08	-3.095009e+01	-1.256652e+03
2.930000e-06	-4.397870e-06	-1.936190e-08	-3.148392e+01	-1.267218e+03
2.940000e-06	-4.470871e-06	-1.951763e-08	-3.200653e+01	-1.277258e+03
