# Temperatura_=_91.2
# Concentracion g/m^3_=_28200.0
# C_Vs_to_Am_M_A/Vsm_=_65563218390.804596
# pendiente_HvsI_1/m_=_3716.3
# ordenada_HvsI_A/m_=_1297.0
# frecuencia_Hz_=_301954.7511711296

Tiempo_(s)	Campo_(V.s)	Magnetizacion_(V.s)	Campo_(kA/m)	Magnetizacion_(A/m)
0.000000e+00	-5.862492e-06	-2.634107e-08	-4.194321e+01	-1.725239e+03
1.000000e-08	-5.860977e-06	-2.633963e-08	-4.193237e+01	-1.724872e+03
2.000000e-08	-5.857354e-06	-2.633248e-08	-4.190645e+01	-1.724305e+03
3.000000e-08	-5.851903e-06	-2.631711e-08	-4.186745e+01	-1.723535e+03
4.000000e-08	-5.844757e-06	-2.630274e-08	-4.181632e+01	-1.722561e+03
5.000000e-08	-5.835718e-06	-2.628242e-08	-4.175165e+01	-1.721384e+03
6.000000e-08	-5.824433e-06	-2.625832e-08	-4.167091e+01	-1.720007e+03
7.000000e-08	-5.811000e-06	-2.623052e-08	-4.157481e+01	-1.718433e+03
8.000000e-08	-5.795392e-06	-2.618509e-08	-4.146314e+01	-1.716669e+03
9.000000e-08	-5.777594e-06	-2.619499e-08	-4.133581e+01	-1.714720e+03
1.000000e-07	-5.757710e-06	-2.625638e-08	-4.119354e+01	-1.712593e+03
1.100000e-07	-5.735644e-06	-2.616352e-08	-4.103568e+01	-1.710294e+03
1.200000e-07	-5.711423e-06	-2.606092e-08	-4.086239e+01	-1.707829e+03
1.300000e-07	-5.685042e-06	-2.604454e-08	-4.067364e+01	-1.705203e+03
1.400000e-07	-5.656950e-06	-2.586765e-08	-4.047266e+01	-1.702414e+03
1.500000e-07	-5.627537e-06	-2.585040e-08	-4.026222e+01	-1.699458e+03
1.600000e-07	-5.596480e-06	-2.605905e-08	-4.004003e+01	-1.696323e+03
1.700000e-07	-5.563596e-06	-2.578922e-08	-3.980476e+01	-1.692994e+03
1.800000e-07	-5.528828e-06	-2.579411e-08	-3.955601e+01	-1.689452e+03
1.900000e-07	-5.491961e-06	-2.587602e-08	-3.929224e+01	-1.685677e+03
2.000000e-07	-5.453161e-06	-2.552659e-08	-3.901465e+01	-1.681653e+03
2.100000e-07	-5.412614e-06	-2.560101e-08	-3.872455e+01	-1.677373e+03
2.200000e-07	-5.369943e-06	-2.554938e-08	-3.841926e+01	-1.672834e+03
2.300000e-07	-5.325154e-06	-2.535533e-08	-3.809882e+01	-1.668042e+03
2.400000e-07	-5.278378e-06	-2.539744e-08	-3.776417e+01	-1.663006e+03
2.500000e-07	-5.229349e-06	-2.530543e-08	-3.741338e+01	-1.657736e+03
2.600000e-07	-5.177982e-06	-2.521387e-08	-3.704588e+01	-1.652234e+03
2.700000e-07	-5.124423e-06	-2.514234e-08	-3.666269e+01	-1.646494e+03
2.800000e-07	-5.069032e-06	-2.499266e-08	-3.626640e+01	-1.640499e+03
2.900000e-07	-5.011809e-06	-2.490291e-08	-3.585699e+01	-1.634224e+03
3.000000e-07	-4.952568e-06	-2.480375e-08	-3.543316e+01	-1.627638e+03
3.100000e-07	-4.891515e-06	-2.475086e-08	-3.499635e+01	-1.620714e+03
3.200000e-07	-4.828839e-06	-2.461516e-08	-3.454794e+01	-1.613432e+03
3.300000e-07	-4.764422e-06	-2.447202e-08	-3.408706e+01	-1.605786e+03
3.400000e-07	-4.698088e-06	-2.435866e-08	-3.361248e+01	-1.597784e+03
3.500000e-07	-4.629966e-06	-2.418994e-08	-3.312510e+01	-1.589449e+03
3.600000e-07	-4.560178e-06	-2.410355e-08	-3.262580e+01	-1.580808e+03
3.700000e-07	-4.488852e-06	-2.397094e-08	-3.211550e+01	-1.571884e+03
3.800000e-07	-4.415996e-06	-2.383818e-08	-3.159425e+01	-1.562691e+03
3.900000e-07	-4.341292e-06	-2.367545e-08	-3.105978e+01	-1.553225e+03
4.000000e-07	-4.264732e-06	-2.347999e-08	-3.051203e+01	-1.543463e+03
4.100000e-07	-4.186510e-06	-2.334830e-08	-2.995239e+01	-1.533365e+03
4.200000e-07	-4.106610e-06	-2.320496e-08	-2.938075e+01	-1.522881e+03
4.300000e-07	-4.025170e-06	-2.305380e-08	-2.879809e+01	-1.511965e+03
4.400000e-07	-3.942446e-06	-2.286498e-08	-2.820624e+01	-1.500578e+03
4.500000e-07	-3.858527e-06	-2.268104e-08	-2.760584e+01	-1.488700e+03
4.600000e-07	-3.773386e-06	-2.248852e-08	-2.699670e+01	-1.476331e+03
4.700000e-07	-3.687093e-06	-2.228880e-08	-2.637931e+01	-1.463482e+03
4.800000e-07	-3.599673e-06	-2.210126e-08	-2.575387e+01	-1.450174e+03
4.900000e-07	-3.510970e-06	-2.188601e-08	-2.511924e+01	-1.436420e+03
5.000000e-07	-3.420860e-06	-2.165867e-08	-2.447455e+01	-1.422223e+03
5.100000e-07	-3.329275e-06	-2.142735e-08	-2.381930e+01	-1.407561e+03
5.200000e-07	-3.236494e-06	-2.119902e-08	-2.315550e+01	-1.392390e+03
5.300000e-07	-3.142689e-06	-2.095821e-08	-2.248437e+01	-1.376651e+03
5.400000e-07	-3.047829e-06	-2.071109e-08	-2.180570e+01	-1.360276e+03
5.500000e-07	-2.951828e-06	-2.045120e-08	-2.111886e+01	-1.343199e+03
5.600000e-07	-2.854615e-06	-2.017423e-08	-2.042335e+01	-1.325371e+03
5.700000e-07	-2.756215e-06	-1.988503e-08	-1.971934e+01	-1.306756e+03
5.800000e-07	-2.656642e-06	-1.958985e-08	-1.900695e+01	-1.287340e+03
5.900000e-07	-2.556119e-06	-1.928225e-08	-1.828775e+01	-1.267113e+03
6.000000e-07	-2.454711e-06	-1.895530e-08	-1.756224e+01	-1.246068e+03
6.100000e-07	-2.352481e-06	-1.861370e-08	-1.683083e+01	-1.224178e+03
6.200000e-07	-2.249449e-06	-1.826668e-08	-1.609369e+01	-1.201395e+03
6.300000e-07	-2.145573e-06	-1.790966e-08	-1.535051e+01	-1.177639e+03
6.400000e-07	-2.040900e-06	-1.753133e-08	-1.460162e+01	-1.152803e+03
6.500000e-07	-1.935431e-06	-1.713260e-08	-1.384704e+01	-1.126763e+03
6.600000e-07	-1.829201e-06	-1.670990e-08	-1.308702e+01	-1.099387e+03
6.700000e-07	-1.722207e-06	-1.626758e-08	-1.232153e+01	-1.070548e+03
6.800000e-07	-1.614488e-06	-1.580422e-08	-1.155085e+01	-1.040132e+03
6.900000e-07	-1.506191e-06	-1.531837e-08	-1.077605e+01	-1.008036e+03
7.000000e-07	-1.397483e-06	-1.480334e-08	-9.998293e+00	-9.741662e+02
7.100000e-07	-1.288366e-06	-1.425346e-08	-9.217616e+00	-9.384233e+02
7.200000e-07	-1.178832e-06	-1.367197e-08	-8.433952e+00	-9.006951e+02
7.300000e-07	-1.069008e-06	-1.306200e-08	-7.648222e+00	-8.608504e+02
7.400000e-07	-9.589081e-07	-1.242245e-08	-6.860510e+00	-8.187432e+02
7.500000e-07	-8.484972e-07	-1.174612e-08	-6.070574e+00	-7.742297e+02
7.600000e-07	-7.378178e-07	-1.102752e-08	-5.278719e+00	-7.271941e+02
7.700000e-07	-6.269134e-07	-1.026415e-08	-4.485253e+00	-6.775811e+02
7.800000e-07	-5.157985e-07	-9.463082e-09	-3.690281e+00	-6.254253e+02
7.900000e-07	-4.045196e-07	-8.628284e-09	-2.894136e+00	-5.708701e+02
8.000000e-07	-2.930842e-07	-7.764305e-09	-2.096871e+00	-5.141684e+02
8.100000e-07	-1.814943e-07	-6.876150e-09	-1.298501e+00	-4.556612e+02
8.200000e-07	-6.982076e-08	-5.967047e-09	-4.995327e-01	-3.957354e+02
8.300000e-07	4.193969e-08	-5.041465e-09	3.000576e-01	-3.347671e+02
8.400000e-07	1.536962e-07	-4.100065e-09	1.099620e+00	-2.730609e+02
8.500000e-07	2.653718e-07	-3.149246e-09	1.898603e+00	-2.107992e+02
8.600000e-07	3.769671e-07	-2.191906e-09	2.697012e+00	-1.480129e+02
8.700000e-07	4.884445e-07	-1.223919e-09	3.494577e+00	-8.458328e+01
8.800000e-07	5.997863e-07	-2.409979e-10	4.291172e+00	-2.027628e+01
8.900000e-07	7.109409e-07	7.574261e-10	5.086428e+00	4.519317e+01
9.000000e-07	8.218738e-07	1.774008e-09	5.880097e+00	1.120793e+02
9.100000e-07	9.325552e-07	2.812472e-09	6.671967e+00	1.805207e+02
9.200000e-07	1.042989e-06	3.872976e-09	7.462065e+00	2.504696e+02
9.300000e-07	1.153096e-06	4.953161e-09	8.249827e+00	3.216500e+02
9.400000e-07	1.262802e-06	6.046344e-09	9.034717e+00	3.935533e+02
9.500000e-07	1.372100e-06	7.144073e-09	9.816689e+00	4.654740e+02
9.600000e-07	1.480960e-06	8.229007e-09	1.059553e+01	5.365791e+02
9.700000e-07	1.589345e-06	9.286874e-09	1.137097e+01	6.059989e+02
9.800000e-07	1.697244e-06	1.030561e-08	1.214293e+01	6.729229e+02
9.900000e-07	1.804563e-06	1.127154e-08	1.291075e+01	7.366841e+02
1.000000e-06	1.911136e-06	1.217980e-08	1.367323e+01	7.968172e+02
1.010000e-06	2.016899e-06	1.303046e-08	1.442991e+01	8.530843e+02
1.020000e-06	2.121782e-06	1.382390e-08	1.518029e+01	9.054654e+02
1.030000e-06	2.225671e-06	1.456162e-08	1.592356e+01	9.541194e+02
1.040000e-06	2.328677e-06	1.524597e-08	1.666052e+01	9.993270e+02
1.050000e-06	2.430875e-06	1.588486e-08	1.739170e+01	1.041428e+03
1.060000e-06	2.532210e-06	1.648085e-08	1.811670e+01	1.080764e+03
1.070000e-06	2.632764e-06	1.704091e-08	1.883611e+01	1.117639e+03
1.080000e-06	2.732519e-06	1.756937e-08	1.954981e+01	1.152295e+03
1.090000e-06	2.831310e-06	1.806621e-08	2.025661e+01	1.184917e+03
1.100000e-06	2.928908e-06	1.853156e-08	2.095488e+01	1.215638e+03
1.110000e-06	3.025226e-06	1.896859e-08	2.164398e+01	1.244567e+03
1.120000e-06	3.120453e-06	1.938049e-08	2.232529e+01	1.271806e+03
1.130000e-06	3.214696e-06	1.976834e-08	2.299955e+01	1.297465e+03
1.140000e-06	3.307907e-06	2.013694e-08	2.366643e+01	1.321667e+03
1.150000e-06	3.400100e-06	2.048851e-08	2.432602e+01	1.344545e+03
1.160000e-06	3.491177e-06	2.082397e-08	2.497763e+01	1.366232e+03
1.170000e-06	3.580927e-06	2.114115e-08	2.561975e+01	1.386848e+03
1.180000e-06	3.669250e-06	2.144139e-08	2.625166e+01	1.406486e+03
1.190000e-06	3.756282e-06	2.172434e-08	2.687432e+01	1.425215e+03
1.200000e-06	3.842092e-06	2.199237e-08	2.748825e+01	1.443073e+03
1.210000e-06	3.926684e-06	2.224814e-08	2.809347e+01	1.460085e+03
1.220000e-06	4.010131e-06	2.249299e-08	2.869049e+01	1.476263e+03
1.230000e-06	4.092160e-06	2.272421e-08	2.927736e+01	1.491628e+03
1.240000e-06	4.172483e-06	2.294410e-08	2.985204e+01	1.506210e+03
1.250000e-06	4.251232e-06	2.315299e-08	3.041544e+01	1.520055e+03
1.260000e-06	4.328490e-06	2.335219e-08	3.096819e+01	1.533220e+03
1.270000e-06	4.404131e-06	2.354257e-08	3.150936e+01	1.545767e+03
1.280000e-06	4.477906e-06	2.372386e-08	3.203718e+01	1.557756e+03
1.290000e-06	4.549824e-06	2.389950e-08	3.255172e+01	1.569232e+03
1.300000e-06	4.620110e-06	2.406749e-08	3.305458e+01	1.580224e+03
1.310000e-06	4.688853e-06	2.422743e-08	3.354641e+01	1.590742e+03
1.320000e-06	4.756032e-06	2.437969e-08	3.402704e+01	1.600785e+03
1.330000e-06	4.821403e-06	2.452439e-08	3.449473e+01	1.610342e+03
1.340000e-06	4.884887e-06	2.466252e-08	3.494893e+01	1.619403e+03
1.350000e-06	4.946665e-06	2.479382e-08	3.539092e+01	1.627966e+03
1.360000e-06	5.006910e-06	2.491896e-08	3.582195e+01	1.636042e+03
1.370000e-06	5.065463e-06	2.503684e-08	3.624086e+01	1.643651e+03
1.380000e-06	5.122052e-06	2.514589e-08	3.664573e+01	1.650824e+03
1.390000e-06	5.176759e-06	2.524756e-08	3.703713e+01	1.657598e+03
1.400000e-06	5.229576e-06	2.534411e-08	3.741501e+01	1.664007e+03
1.410000e-06	5.280164e-06	2.543568e-08	3.777694e+01	1.670082e+03
1.420000e-06	5.328484e-06	2.552184e-08	3.812265e+01	1.675845e+03
1.430000e-06	5.374877e-06	2.560526e-08	3.845456e+01	1.681312e+03
1.440000e-06	5.419587e-06	2.568508e-08	3.877445e+01	1.686492e+03
1.450000e-06	5.462529e-06	2.575936e-08	3.908167e+01	1.691390e+03
1.460000e-06	5.503356e-06	2.582907e-08	3.937377e+01	1.696010e+03
1.470000e-06	5.542144e-06	2.589653e-08	3.965128e+01	1.700355e+03
1.480000e-06	5.579150e-06	2.596099e-08	3.991604e+01	1.704429e+03
1.490000e-06	5.614366e-06	2.601894e-08	4.016799e+01	1.708235e+03
1.500000e-06	5.647464e-06	2.607127e-08	4.040479e+01	1.711774e+03
1.510000e-06	5.678450e-06	2.612105e-08	4.062648e+01	1.715045e+03
1.520000e-06	5.707622e-06	2.616819e-08	4.083519e+01	1.718044e+03
1.530000e-06	5.734902e-06	2.621089e-08	4.103036e+01	1.720764e+03
1.540000e-06	5.759937e-06	2.624834e-08	4.120948e+01	1.723201e+03
1.550000e-06	5.782759e-06	2.628127e-08	4.137276e+01	1.725352e+03
1.560000e-06	5.803651e-06	2.630909e-08	4.152223e+01	1.727221e+03
1.570000e-06	5.822611e-06	2.633216e-08	4.165788e+01	1.728817e+03
1.580000e-06	5.839444e-06	2.635125e-08	4.177831e+01	1.730154e+03
1.590000e-06	5.854003e-06	2.636687e-08	4.188248e+01	1.731251e+03
1.600000e-06	5.866455e-06	2.638024e-08	4.197156e+01	1.732128e+03
1.610000e-06	5.876523e-06	2.639205e-08	4.204359e+01	1.732802e+03
1.620000e-06	5.884188e-06	2.640170e-08	4.209843e+01	1.733287e+03
1.630000e-06	5.889825e-06	2.640938e-08	4.213877e+01	1.733590e+03
1.640000e-06	5.893535e-06	2.641476e-08	4.216530e+01	1.733713e+03
1.650000e-06	5.895072e-06	2.641852e-08	4.217630e+01	1.733652e+03
1.660000e-06	5.894454e-06	2.641796e-08	4.217188e+01	1.733401e+03
1.670000e-06	5.891985e-06	2.640082e-08	4.215421e+01	1.732955e+03
1.680000e-06	5.887776e-06	2.638963e-08	4.212410e+01	1.732307e+03
1.690000e-06	5.881542e-06	2.637822e-08	4.207950e+01	1.731456e+03
1.700000e-06	5.873224e-06	2.636301e-08	4.201999e+01	1.730401e+03
1.710000e-06	5.863157e-06	2.634956e-08	4.194797e+01	1.729144e+03
1.720000e-06	5.851204e-06	2.633841e-08	4.186244e+01	1.727687e+03
1.730000e-06	5.837065e-06	2.635059e-08	4.176129e+01	1.726037e+03
1.740000e-06	5.820911e-06	2.626984e-08	4.164572e+01	1.724199e+03
1.750000e-06	5.802706e-06	2.612582e-08	4.151547e+01	1.722178e+03
1.760000e-06	5.781645e-06	2.616519e-08	4.136479e+01	1.719981e+03
1.770000e-06	5.757725e-06	2.616541e-08	4.119365e+01	1.717615e+03
1.780000e-06	5.731744e-06	2.613765e-08	4.100777e+01	1.715086e+03
1.790000e-06	5.704468e-06	2.627838e-08	4.081263e+01	1.712394e+03
1.800000e-06	5.676402e-06	2.596908e-08	4.061183e+01	1.709539e+03
1.810000e-06	5.646564e-06	2.590127e-08	4.039835e+01	1.706513e+03
1.820000e-06	5.614119e-06	2.607959e-08	4.016622e+01	1.703303e+03
1.830000e-06	5.579958e-06	2.573270e-08	3.992182e+01	1.699892e+03
1.840000e-06	5.544046e-06	2.590331e-08	3.966489e+01	1.696259e+03
1.850000e-06	5.505852e-06	2.594809e-08	3.939163e+01	1.692387e+03
1.860000e-06	5.465676e-06	2.555729e-08	3.910419e+01	1.688262e+03
1.870000e-06	5.423516e-06	2.574382e-08	3.880256e+01	1.683879e+03
1.880000e-06	5.379700e-06	2.558736e-08	3.848907e+01	1.679238e+03
1.890000e-06	5.334142e-06	2.545409e-08	3.816312e+01	1.674348e+03
1.900000e-06	5.286240e-06	2.553784e-08	3.782041e+01	1.669218e+03
1.910000e-06	5.236262e-06	2.521405e-08	3.746284e+01	1.663855e+03
1.920000e-06	5.184111e-06	2.534104e-08	3.708973e+01	1.658260e+03
1.930000e-06	5.129813e-06	2.527441e-08	3.670126e+01	1.652421e+03
1.940000e-06	5.073703e-06	2.506583e-08	3.629981e+01	1.646319e+03
1.950000e-06	5.015676e-06	2.504722e-08	3.588466e+01	1.639924e+03
1.960000e-06	4.955933e-06	2.481491e-08	3.545723e+01	1.633207e+03
1.970000e-06	4.894263e-06	2.485012e-08	3.501602e+01	1.626143e+03
1.980000e-06	4.830557e-06	2.465083e-08	3.456023e+01	1.618716e+03
1.990000e-06	4.765136e-06	2.452437e-08	3.409217e+01	1.610928e+03
2.000000e-06	4.698153e-06	2.453921e-08	3.361294e+01	1.602791e+03
2.010000e-06	4.629632e-06	2.428180e-08	3.312271e+01	1.594331e+03
2.020000e-06	4.559152e-06	2.420197e-08	3.261846e+01	1.585575e+03
2.030000e-06	4.486834e-06	2.399777e-08	3.210106e+01	1.576544e+03
2.040000e-06	4.413003e-06	2.393468e-08	3.157283e+01	1.567244e+03
2.050000e-06	4.337575e-06	2.383792e-08	3.103319e+01	1.557664e+03
2.060000e-06	4.260374e-06	2.359621e-08	3.048085e+01	1.547774e+03
2.070000e-06	4.181466e-06	2.348199e-08	2.991631e+01	1.537529e+03
2.080000e-06	4.101121e-06	2.326103e-08	2.934148e+01	1.526880e+03
2.090000e-06	4.019330e-06	2.313267e-08	2.875630e+01	1.515781e+03
2.100000e-06	3.936204e-06	2.294420e-08	2.816158e+01	1.504202e+03
2.110000e-06	3.851803e-06	2.277913e-08	2.755773e+01	1.492129e+03
2.120000e-06	3.765970e-06	2.260269e-08	2.694364e+01	1.479568e+03
2.130000e-06	3.678714e-06	2.237111e-08	2.631937e+01	1.466535e+03
2.140000e-06	3.590153e-06	2.219147e-08	2.568576e+01	1.453049e+03
2.150000e-06	3.500345e-06	2.195551e-08	2.504322e+01	1.439122e+03
2.160000e-06	3.409404e-06	2.176320e-08	2.439258e+01	1.424744e+03
2.170000e-06	3.317331e-06	2.153334e-08	2.373385e+01	1.409887e+03
2.180000e-06	3.223989e-06	2.130229e-08	2.306603e+01	1.394500e+03
2.190000e-06	3.129373e-06	2.104139e-08	2.238910e+01	1.378518e+03
2.200000e-06	3.033547e-06	2.078500e-08	2.170351e+01	1.361873e+03
2.210000e-06	2.936662e-06	2.053897e-08	2.101035e+01	1.344505e+03
2.220000e-06	2.838780e-06	2.025919e-08	2.031006e+01	1.326370e+03
2.230000e-06	2.739887e-06	1.997715e-08	1.960252e+01	1.307440e+03
2.240000e-06	2.640040e-06	1.967483e-08	1.888817e+01	1.287705e+03
2.250000e-06	2.539267e-06	1.937798e-08	1.816719e+01	1.267157e+03
2.260000e-06	2.437518e-06	1.904629e-08	1.743923e+01	1.245783e+03
2.270000e-06	2.334748e-06	1.870220e-08	1.670396e+01	1.223549e+03
2.280000e-06	2.230977e-06	1.834567e-08	1.596153e+01	1.200394e+03
2.290000e-06	2.126354e-06	1.797985e-08	1.521300e+01	1.176226e+03
2.300000e-06	2.021006e-06	1.759614e-08	1.445929e+01	1.150932e+03
2.310000e-06	1.915005e-06	1.719299e-08	1.370090e+01	1.124381e+03
2.320000e-06	1.808432e-06	1.677356e-08	1.293843e+01	1.096444e+03
2.330000e-06	1.701373e-06	1.632475e-08	1.217247e+01	1.066997e+03
2.340000e-06	1.593809e-06	1.584917e-08	1.140291e+01	1.035931e+03
2.350000e-06	1.485683e-06	1.534341e-08	1.062932e+01	1.003149e+03
2.360000e-06	1.377108e-06	1.482179e-08	9.852523e+00	9.685540e+02
2.370000e-06	1.268119e-06	1.427187e-08	9.072761e+00	9.320444e+02
2.380000e-06	1.158773e-06	1.368571e-08	8.290442e+00	8.935002e+02
2.390000e-06	1.049140e-06	1.305726e-08	7.506077e+00	8.527832e+02
2.400000e-06	9.391233e-07	1.239668e-08	6.718959e+00	8.097458e+02
2.410000e-06	8.287884e-07	1.170632e-08	5.929568e+00	7.642515e+02
2.420000e-06	7.180811e-07	1.097931e-08	5.137512e+00	7.162044e+02
2.430000e-06	6.070088e-07	1.021278e-08	4.342845e+00	6.655814e+02
2.440000e-06	4.957546e-07	9.405549e-09	3.546877e+00	6.124584e+02
2.450000e-06	3.843079e-07	8.561639e-09	2.749532e+00	5.570229e+02
2.460000e-06	2.727459e-07	7.679728e-09	1.951361e+00	4.995664e+02
2.470000e-06	1.610813e-07	6.772521e-09	1.152456e+00	4.404538e+02
2.480000e-06	4.935725e-08	5.851466e-09	3.531265e-01	3.800751e+02
2.490000e-06	-6.239680e-08	4.920481e-09	-4.464180e-01	3.187852e+02
2.500000e-06	-1.741291e-07	3.975389e-09	-1.245807e+00	2.568459e+02
2.510000e-06	-2.857641e-07	3.019872e-09	-2.044500e+00	1.943819e+02
2.520000e-06	-3.973094e-07	2.057912e-09	-2.842551e+00	1.313634e+02
2.530000e-06	-5.086967e-07	1.082736e-09	-3.639472e+00	6.762029e+01
2.540000e-06	-6.198865e-07	9.225670e-11	-4.434979e+00	2.889663e+00
2.550000e-06	-7.308335e-07	-9.170604e-10	-5.228749e+00	-6.311178e+01
2.560000e-06	-8.414738e-07	-1.946706e-09	-6.020326e+00	-1.306025e+02
2.570000e-06	-9.516882e-07	-2.998666e-09	-6.808855e+00	-1.996551e+02
2.580000e-06	-1.061455e-06	-4.073956e-09	-7.594181e+00	-2.701352e+02
2.590000e-06	-1.170890e-06	-5.165436e-09	-8.377135e+00	-3.416735e+02
2.600000e-06	-1.280009e-06	-6.268260e-09	-9.157825e+00	-4.136779e+02
2.610000e-06	-1.388719e-06	-7.370079e-09	-9.935595e+00	-4.853829e+02
2.620000e-06	-1.496896e-06	-8.453379e-09	-1.070955e+01	-5.559296e+02
2.630000e-06	-1.604556e-06	-9.504370e-09	-1.147980e+01	-6.244604e+02
2.640000e-06	-1.711744e-06	-1.051063e-08	-1.224667e+01	-6.902124e+02
2.650000e-06	-1.818360e-06	-1.146361e-08	-1.300946e+01	-7.525925e+02
2.660000e-06	-1.924355e-06	-1.236033e-08	-1.376780e+01	-8.112238e+02
2.670000e-06	-2.029660e-06	-1.319965e-08	-1.452120e+01	-8.659568e+02
2.680000e-06	-2.134249e-06	-1.397958e-08	-1.526949e+01	-9.168478e+02
2.690000e-06	-2.238079e-06	-1.470277e-08	-1.601234e+01	-9.641108e+02
2.700000e-06	-2.340984e-06	-1.537698e-08	-1.674857e+01	-1.008057e+03
2.710000e-06	-2.442821e-06	-1.600829e-08	-1.747717e+01	-1.049034e+03
2.720000e-06	-2.543626e-06	-1.660163e-08	-1.819838e+01	-1.087371e+03
2.730000e-06	-2.643540e-06	-1.715777e-08	-1.891321e+01	-1.123350e+03
2.740000e-06	-2.742579e-06	-1.767525e-08	-1.962178e+01	-1.157190e+03
2.750000e-06	-2.840658e-06	-1.815925e-08	-2.032349e+01	-1.189052e+03
2.760000e-06	-2.937799e-06	-1.861539e-08	-2.101849e+01	-1.219058e+03
2.770000e-06	-3.034095e-06	-1.904611e-08	-2.170744e+01	-1.247312e+03
2.780000e-06	-3.129494e-06	-1.945284e-08	-2.238997e+01	-1.273917e+03
2.790000e-06	-3.223686e-06	-1.983763e-08	-2.306387e+01	-1.298989e+03
2.800000e-06	-3.316554e-06	-2.019907e-08	-2.372829e+01	-1.322656e+03
2.810000e-06	-3.408202e-06	-2.053889e-08	-2.438399e+01	-1.345053e+03
2.820000e-06	-3.498614e-06	-2.086142e-08	-2.503084e+01	-1.366307e+03
2.830000e-06	-3.587777e-06	-2.116983e-08	-2.566876e+01	-1.386530e+03
2.840000e-06	-3.675802e-06	-2.146729e-08	-2.629853e+01	-1.405806e+03
2.850000e-06	-3.762598e-06	-2.175241e-08	-2.691951e+01	-1.424190e+03
2.860000e-06	-3.847836e-06	-2.202212e-08	-2.752935e+01	-1.441715e+03
2.870000e-06	-3.931590e-06	-2.227816e-08	-2.812857e+01	-1.458399e+03
2.880000e-06	-4.014033e-06	-2.252020e-08	-2.871841e+01	-1.474256e+03
2.890000e-06	-4.095139e-06	-2.274915e-08	-2.929868e+01	-1.489310e+03
2.900000e-06	-4.174891e-06	-2.296832e-08	-2.986927e+01	-1.503597e+03
2.910000e-06	-4.252924e-06	-2.318005e-08	-3.042755e+01	-1.517169e+03
2.920000e-06	-4.329089e-06	-2.338305e-08	-3.097247e+01	-1.530085e+03
2.930000e-06	-4.403626e-06	-2.357499e-08	-3.150575e+01	-1.542408e+03
2.940000e-06	-4.476615e-06	-2.375601e-08	-3.202795e+01	-1.554191e+03
