# Temperatura_=_58.4
# Concentracion g/m^3_=_28200.0
# C_Vs_to_Am_M_A/Vsm_=_65563218390.804596
# pendiente_HvsI_1/m_=_3716.3
# ordenada_HvsI_A/m_=_1297.0
# frecuencia_Hz_=_301953.5311160775

Tiempo_(s)	Campo_(V.s)	Magnetizacion_(V.s)	Campo_(kA/m)	Magnetizacion_(A/m)
0.000000e+00	-5.872159e-06	-2.220736e-08	-4.194408e+01	-1.454079e+03
1.000000e-08	-5.870656e-06	-2.220679e-08	-4.193335e+01	-1.453818e+03
2.000000e-08	-5.867086e-06	-2.220325e-08	-4.190785e+01	-1.453407e+03
3.000000e-08	-5.861708e-06	-2.219173e-08	-4.186943e+01	-1.452835e+03
4.000000e-08	-5.854544e-06	-2.218047e-08	-4.181826e+01	-1.452092e+03
5.000000e-08	-5.845545e-06	-2.216449e-08	-4.175398e+01	-1.451171e+03
6.000000e-08	-5.834366e-06	-2.214381e-08	-4.167413e+01	-1.450074e+03
7.000000e-08	-5.820992e-06	-2.212088e-08	-4.157860e+01	-1.448809e+03
8.000000e-08	-5.805420e-06	-2.208236e-08	-4.146737e+01	-1.447389e+03
9.000000e-08	-5.787603e-06	-2.208820e-08	-4.134011e+01	-1.445830e+03
1.000000e-07	-5.767737e-06	-2.215367e-08	-4.119821e+01	-1.444148e+03
1.100000e-07	-5.745705e-06	-2.207192e-08	-4.104084e+01	-1.442354e+03
1.200000e-07	-5.721467e-06	-2.197432e-08	-4.086771e+01	-1.440453e+03
1.300000e-07	-5.695022e-06	-2.197168e-08	-4.067882e+01	-1.438439e+03
1.400000e-07	-5.666866e-06	-2.183376e-08	-4.047770e+01	-1.436301e+03
1.500000e-07	-5.637409e-06	-2.178963e-08	-4.026729e+01	-1.434023e+03
1.600000e-07	-5.606326e-06	-2.199612e-08	-4.004527e+01	-1.431583e+03
1.700000e-07	-5.573406e-06	-2.177350e-08	-3.981012e+01	-1.428962e+03
1.800000e-07	-5.538580e-06	-2.174622e-08	-3.956137e+01	-1.426145e+03
1.900000e-07	-5.501742e-06	-2.185581e-08	-3.929824e+01	-1.423120e+03
2.000000e-07	-5.462943e-06	-2.154500e-08	-3.902110e+01	-1.419885e+03
2.100000e-07	-5.422330e-06	-2.161404e-08	-3.873101e+01	-1.416443e+03
2.200000e-07	-5.379612e-06	-2.161281e-08	-3.842588e+01	-1.412800e+03
2.300000e-07	-5.334785e-06	-2.143961e-08	-3.810569e+01	-1.408966e+03
2.400000e-07	-5.288012e-06	-2.147074e-08	-3.777159e+01	-1.404945e+03
2.500000e-07	-5.239023e-06	-2.137668e-08	-3.742167e+01	-1.400742e+03
2.600000e-07	-5.187638e-06	-2.128734e-08	-3.705463e+01	-1.396352e+03
2.700000e-07	-5.133997e-06	-2.126189e-08	-3.667148e+01	-1.391763e+03
2.800000e-07	-5.078562e-06	-2.114288e-08	-3.627552e+01	-1.386962e+03
2.900000e-07	-5.021267e-06	-2.107729e-08	-3.586627e+01	-1.381929e+03
3.000000e-07	-4.961943e-06	-2.098453e-08	-3.544253e+01	-1.376646e+03
3.100000e-07	-4.900795e-06	-2.092479e-08	-3.500575e+01	-1.371098e+03
3.200000e-07	-4.837948e-06	-2.082183e-08	-3.455684e+01	-1.365277e+03
3.300000e-07	-4.773390e-06	-2.072100e-08	-3.409572e+01	-1.359180e+03
3.400000e-07	-4.706909e-06	-2.064138e-08	-3.362085e+01	-1.352811e+03
3.500000e-07	-4.638651e-06	-2.049796e-08	-3.313329e+01	-1.346176e+03
3.600000e-07	-4.568777e-06	-2.043154e-08	-3.263419e+01	-1.339284e+03
3.700000e-07	-4.497400e-06	-2.031038e-08	-3.212435e+01	-1.332138e+03
3.800000e-07	-4.424499e-06	-2.019855e-08	-3.160363e+01	-1.324738e+03
3.900000e-07	-4.349617e-06	-2.008924e-08	-3.106876e+01	-1.317073e+03
4.000000e-07	-4.272860e-06	-1.993640e-08	-3.052050e+01	-1.309126e+03
4.100000e-07	-4.194481e-06	-1.982234e-08	-2.996064e+01	-1.300874e+03
4.200000e-07	-4.114432e-06	-1.969760e-08	-2.938886e+01	-1.292292e+03
4.300000e-07	-4.032871e-06	-1.956987e-08	-2.880628e+01	-1.283356e+03
4.400000e-07	-3.950045e-06	-1.941579e-08	-2.821467e+01	-1.274048e+03
4.500000e-07	-3.866072e-06	-1.926687e-08	-2.761486e+01	-1.264357e+03
4.600000e-07	-3.780897e-06	-1.911305e-08	-2.700647e+01	-1.254275e+03
4.700000e-07	-3.694538e-06	-1.894606e-08	-2.638961e+01	-1.243801e+03
4.800000e-07	-3.607045e-06	-1.879260e-08	-2.576466e+01	-1.232933e+03
4.900000e-07	-3.518185e-06	-1.862073e-08	-2.512995e+01	-1.221665e+03
5.000000e-07	-3.427812e-06	-1.843549e-08	-2.448443e+01	-1.209980e+03
5.100000e-07	-3.336102e-06	-1.824198e-08	-2.382935e+01	-1.197854e+03
5.200000e-07	-3.243255e-06	-1.804670e-08	-2.316616e+01	-1.185253e+03
5.300000e-07	-3.149304e-06	-1.784444e-08	-2.249508e+01	-1.172134e+03
5.400000e-07	-3.054264e-06	-1.763580e-08	-2.181622e+01	-1.158454e+03
5.500000e-07	-2.958202e-06	-1.742010e-08	-2.113006e+01	-1.144172e+03
5.600000e-07	-2.860939e-06	-1.719235e-08	-2.043532e+01	-1.129252e+03
5.700000e-07	-2.762378e-06	-1.694898e-08	-1.973132e+01	-1.113665e+03
5.800000e-07	-2.662682e-06	-1.669610e-08	-1.901920e+01	-1.097389e+03
5.900000e-07	-2.562032e-06	-1.643435e-08	-1.830027e+01	-1.080402e+03
6.000000e-07	-2.460458e-06	-1.616210e-08	-1.757474e+01	-1.062678e+03
6.100000e-07	-2.358055e-06	-1.587754e-08	-1.684328e+01	-1.044184e+03
6.200000e-07	-2.254907e-06	-1.558443e-08	-1.610651e+01	-1.024868e+03
6.300000e-07	-2.150895e-06	-1.527848e-08	-1.536357e+01	-1.004667e+03
6.400000e-07	-2.045987e-06	-1.495496e-08	-1.461422e+01	-9.834992e+02
6.500000e-07	-1.940206e-06	-1.461546e-08	-1.385865e+01	-9.612761e+02
6.600000e-07	-1.833667e-06	-1.425498e-08	-1.309765e+01	-9.379019e+02
6.700000e-07	-1.726454e-06	-1.387497e-08	-1.233184e+01	-9.132807e+02
6.800000e-07	-1.618601e-06	-1.347377e-08	-1.156146e+01	-8.873190e+02
6.900000e-07	-1.510250e-06	-1.305339e-08	-1.078752e+01	-8.599255e+02
7.000000e-07	-1.401466e-06	-1.261235e-08	-1.001049e+01	-8.310083e+02
7.100000e-07	-1.292208e-06	-1.214726e-08	-9.230078e+00	-8.004712e+02
7.200000e-07	-1.182516e-06	-1.165399e-08	-8.446559e+00	-7.682111e+02
7.300000e-07	-1.072488e-06	-1.113257e-08	-7.660646e+00	-7.341198e+02
7.400000e-07	-9.621498e-07	-1.058206e-08	-6.872513e+00	-6.980905e+02
7.500000e-07	-8.515304e-07	-1.000067e-08	-6.082373e+00	-6.600325e+02
7.600000e-07	-7.406910e-07	-9.386762e-09	-5.290661e+00	-6.198898e+02
7.700000e-07	-6.296274e-07	-8.738830e-09	-4.497348e+00	-5.776621e+02
7.800000e-07	-5.183053e-07	-8.063178e-09	-3.702189e+00	-5.334231e+02
7.900000e-07	-4.068292e-07	-7.361561e-09	-2.905929e+00	-4.873299e+02
8.000000e-07	-2.953044e-07	-6.638963e-09	-2.109321e+00	-4.396209e+02
8.100000e-07	-1.836363e-07	-5.896726e-09	-1.311691e+00	-3.905973e+02
8.200000e-07	-7.183732e-08	-5.137332e-09	-5.131248e-01	-3.405912e+02
8.300000e-07	4.003516e-08	-4.366034e-09	2.859661e-01	-2.899234e+02
8.400000e-07	1.520017e-07	-3.584783e-09	1.085728e+00	-2.388575e+02
8.500000e-07	2.638900e-07	-2.800935e-09	1.884933e+00	-1.875606e+02
8.600000e-07	3.755920e-07	-2.016645e-09	2.682806e+00	-1.360771e+02
8.700000e-07	4.871903e-07	-1.230632e-09	3.479938e+00	-8.432474e+01
8.800000e-07	5.986832e-07	-4.335567e-10	4.276318e+00	-3.211402e+01
8.900000e-07	7.100341e-07	3.767919e-10	5.071683e+00	2.080946e+01
9.000000e-07	8.211705e-07	1.197476e-09	5.865516e+00	7.470621e+01
9.100000e-07	9.320252e-07	2.035407e-09	6.657337e+00	1.297774e+02
9.200000e-07	1.042590e-06	2.893147e-09	7.447089e+00	1.861045e+02
9.300000e-07	1.152870e-06	3.766954e-09	8.234804e+00	2.436049e+02
9.400000e-07	1.262785e-06	4.653936e-09	9.019915e+00	3.020130e+02
9.500000e-07	1.372256e-06	5.551133e-09	9.801847e+00	3.608888e+02
9.600000e-07	1.481292e-06	6.446650e-09	1.058068e+01	4.196557e+02
9.700000e-07	1.589866e-06	7.329969e-09	1.135621e+01	4.776584e+02
9.800000e-07	1.697923e-06	8.191880e-09	1.212805e+01	5.342323e+02
9.900000e-07	1.805362e-06	9.020319e-09	1.289547e+01	5.887727e+02
1.000000e-06	1.912084e-06	9.807480e-09	1.365777e+01	6.407918e+02
1.010000e-06	2.018051e-06	1.054954e-08	1.441468e+01	6.899561e+02
1.020000e-06	2.123137e-06	1.124841e-08	1.516530e+01	7.360989e+02
1.030000e-06	2.227222e-06	1.190478e-08	1.590876e+01	7.792095e+02
1.040000e-06	2.330454e-06	1.251224e-08	1.664613e+01	8.194032e+02
1.050000e-06	2.432937e-06	1.307855e-08	1.737815e+01	8.568802e+02
1.060000e-06	2.534550e-06	1.360779e-08	1.810397e+01	8.918817e+02
1.070000e-06	2.635293e-06	1.410473e-08	1.882356e+01	9.246519e+02
1.080000e-06	2.735246e-06	1.457297e-08	1.953751e+01	9.554106e+02
1.090000e-06	2.834293e-06	1.501499e-08	2.024499e+01	9.843399e+02
1.100000e-06	2.932195e-06	1.543301e-08	2.094429e+01	1.011583e+03
1.110000e-06	3.028760e-06	1.582409e-08	2.163405e+01	1.037252e+03
1.120000e-06	3.124098e-06	1.618983e-08	2.231503e+01	1.061441e+03
1.130000e-06	3.218444e-06	1.653434e-08	2.298893e+01	1.084240e+03
1.140000e-06	3.311825e-06	1.686299e-08	2.365594e+01	1.105739e+03
1.150000e-06	3.404174e-06	1.717441e-08	2.431558e+01	1.126037e+03
1.160000e-06	3.495402e-06	1.746707e-08	2.496721e+01	1.145233e+03
1.170000e-06	3.585310e-06	1.774224e-08	2.560941e+01	1.163425e+03
1.180000e-06	3.673804e-06	1.800436e-08	2.624151e+01	1.180699e+03
1.190000e-06	3.761054e-06	1.825377e-08	2.686473e+01	1.197126e+03
1.200000e-06	3.847074e-06	1.849293e-08	2.747916e+01	1.212759e+03
1.210000e-06	3.931801e-06	1.871943e-08	2.808435e+01	1.227637e+03
1.220000e-06	4.015263e-06	1.893401e-08	2.868051e+01	1.241787e+03
1.230000e-06	4.097321e-06	1.913584e-08	2.926664e+01	1.255233e+03
1.240000e-06	4.177765e-06	1.932603e-08	2.984124e+01	1.268002e+03
1.250000e-06	4.256587e-06	1.950754e-08	3.040426e+01	1.280127e+03
1.260000e-06	4.333878e-06	1.968310e-08	3.095634e+01	1.291646e+03
1.270000e-06	4.409657e-06	1.985219e-08	3.149761e+01	1.302601e+03
1.280000e-06	4.483718e-06	2.001285e-08	3.202662e+01	1.313030e+03
1.290000e-06	4.555883e-06	2.016625e-08	3.254209e+01	1.322965e+03
1.300000e-06	4.626336e-06	2.031084e-08	3.304533e+01	1.332428e+03
1.310000e-06	4.695212e-06	2.044682e-08	3.353730e+01	1.341429e+03
1.320000e-06	4.762515e-06	2.057559e-08	3.401804e+01	1.349968e+03
1.330000e-06	4.828013e-06	2.070008e-08	3.448588e+01	1.358043e+03
1.340000e-06	4.891654e-06	2.081770e-08	3.494046e+01	1.365654e+03
1.350000e-06	4.953650e-06	2.092610e-08	3.538329e+01	1.372812e+03
1.360000e-06	5.013999e-06	2.102626e-08	3.581435e+01	1.379537e+03
1.370000e-06	5.072662e-06	2.112024e-08	3.623338e+01	1.385862e+03
1.380000e-06	5.129387e-06	2.120941e-08	3.663855e+01	1.391831e+03
1.390000e-06	5.184169e-06	2.129487e-08	3.702986e+01	1.397489e+03
1.400000e-06	5.237116e-06	2.137784e-08	3.740805e+01	1.402877e+03
1.410000e-06	5.287866e-06	2.145760e-08	3.777055e+01	1.408025e+03
1.420000e-06	5.336336e-06	2.153342e-08	3.811676e+01	1.412950e+03
1.430000e-06	5.382853e-06	2.160594e-08	3.844903e+01	1.417655e+03
1.440000e-06	5.427640e-06	2.167369e-08	3.876894e+01	1.422128e+03
1.450000e-06	5.470689e-06	2.173609e-08	3.907644e+01	1.426351e+03
1.460000e-06	5.511656e-06	2.179472e-08	3.936906e+01	1.430308e+03
1.470000e-06	5.550581e-06	2.185166e-08	3.964709e+01	1.433984e+03
1.480000e-06	5.587697e-06	2.190465e-08	3.991221e+01	1.437374e+03
1.490000e-06	5.622921e-06	2.195092e-08	4.016381e+01	1.440484e+03
1.500000e-06	5.656036e-06	2.199324e-08	4.040034e+01	1.443328e+03
1.510000e-06	5.687082e-06	2.203385e-08	4.062210e+01	1.445925e+03
1.520000e-06	5.716289e-06	2.207159e-08	4.083072e+01	1.448295e+03
1.530000e-06	5.743646e-06	2.210468e-08	4.102613e+01	1.450453e+03
1.540000e-06	5.768772e-06	2.213252e-08	4.120560e+01	1.452409e+03
1.550000e-06	5.791627e-06	2.215753e-08	4.136885e+01	1.454167e+03
1.560000e-06	5.812541e-06	2.217962e-08	4.151824e+01	1.455724e+03
1.570000e-06	5.831526e-06	2.219928e-08	4.165385e+01	1.457077e+03
1.580000e-06	5.848440e-06	2.221760e-08	4.177466e+01	1.458222e+03
1.590000e-06	5.863128e-06	2.223260e-08	4.187957e+01	1.459162e+03
1.600000e-06	5.875617e-06	2.224453e-08	4.196878e+01	1.459904e+03
1.610000e-06	5.885713e-06	2.225342e-08	4.204090e+01	1.460462e+03
1.620000e-06	5.893479e-06	2.226035e-08	4.209637e+01	1.460850e+03
1.630000e-06	5.899219e-06	2.226535e-08	4.213737e+01	1.461085e+03
1.640000e-06	5.903036e-06	2.226877e-08	4.216463e+01	1.461179e+03
1.650000e-06	5.904670e-06	2.227291e-08	4.217630e+01	1.461138e+03
1.660000e-06	5.904069e-06	2.227473e-08	4.217201e+01	1.460961e+03
1.670000e-06	5.901579e-06	2.226029e-08	4.215422e+01	1.460642e+03
1.680000e-06	5.897338e-06	2.225184e-08	4.212393e+01	1.460168e+03
1.690000e-06	5.891080e-06	2.224486e-08	4.207923e+01	1.459529e+03
1.700000e-06	5.882757e-06	2.223313e-08	4.201978e+01	1.458715e+03
1.710000e-06	5.872630e-06	2.222250e-08	4.194745e+01	1.457724e+03
1.720000e-06	5.860576e-06	2.221321e-08	4.186134e+01	1.456559e+03
1.730000e-06	5.846364e-06	2.222398e-08	4.175983e+01	1.455230e+03
1.740000e-06	5.830227e-06	2.216378e-08	4.164457e+01	1.453753e+03
1.750000e-06	5.812097e-06	2.202830e-08	4.151507e+01	1.452143e+03
1.760000e-06	5.791161e-06	2.207257e-08	4.136553e+01	1.450416e+03
1.770000e-06	5.767320e-06	2.209182e-08	4.119523e+01	1.448579e+03
1.780000e-06	5.741307e-06	2.205225e-08	4.100942e+01	1.446633e+03
1.790000e-06	5.713953e-06	2.219690e-08	4.081404e+01	1.444571e+03
1.800000e-06	5.685807e-06	2.194165e-08	4.061299e+01	1.442380e+03
1.810000e-06	5.655917e-06	2.184675e-08	4.039949e+01	1.440040e+03
1.820000e-06	5.623472e-06	2.204972e-08	4.016774e+01	1.437530e+03
1.830000e-06	5.589305e-06	2.174017e-08	3.992369e+01	1.434833e+03
1.840000e-06	5.553396e-06	2.184502e-08	3.966720e+01	1.431934e+03
1.850000e-06	5.515175e-06	2.192372e-08	3.939419e+01	1.428826e+03
1.860000e-06	5.474933e-06	2.155061e-08	3.910675e+01	1.425508e+03
1.870000e-06	5.432762e-06	2.172156e-08	3.880552e+01	1.421985e+03
1.880000e-06	5.388945e-06	2.160675e-08	3.849255e+01	1.418266e+03
1.890000e-06	5.343350e-06	2.146936e-08	3.816687e+01	1.414357e+03
1.900000e-06	5.295404e-06	2.159499e-08	3.782440e+01	1.410264e+03
1.910000e-06	5.245462e-06	2.129575e-08	3.746767e+01	1.405987e+03
1.920000e-06	5.193374e-06	2.138390e-08	3.709561e+01	1.401519e+03
1.930000e-06	5.139020e-06	2.134349e-08	3.670736e+01	1.396849e+03
1.940000e-06	5.082839e-06	2.114317e-08	3.630607e+01	1.391958e+03
1.950000e-06	5.024799e-06	2.118487e-08	3.589150e+01	1.386828e+03
1.960000e-06	4.965036e-06	2.098764e-08	3.546462e+01	1.381441e+03
1.970000e-06	4.903423e-06	2.101930e-08	3.502453e+01	1.375786e+03
1.980000e-06	4.839795e-06	2.086160e-08	3.457004e+01	1.369856e+03
1.990000e-06	4.774374e-06	2.072488e-08	3.410274e+01	1.363650e+03
2.000000e-06	4.707365e-06	2.075291e-08	3.362411e+01	1.357175e+03
2.010000e-06	4.638806e-06	2.053938e-08	3.313440e+01	1.350437e+03
2.020000e-06	4.568219e-06	2.050636e-08	3.263020e+01	1.343444e+03
2.030000e-06	4.495780e-06	2.033094e-08	3.211278e+01	1.336199e+03
2.040000e-06	4.421864e-06	2.025842e-08	3.158481e+01	1.328695e+03
2.050000e-06	4.346358e-06	2.019357e-08	3.104548e+01	1.320921e+03
2.060000e-06	4.269075e-06	1.998423e-08	3.049345e+01	1.312856e+03
2.070000e-06	4.190041e-06	1.990847e-08	2.992893e+01	1.304477e+03
2.080000e-06	4.109571e-06	1.972734e-08	2.935414e+01	1.295757e+03
2.090000e-06	4.027680e-06	1.962508e-08	2.876920e+01	1.286677e+03
2.100000e-06	3.944471e-06	1.946439e-08	2.817485e+01	1.277218e+03
2.110000e-06	3.859984e-06	1.932189e-08	2.757137e+01	1.267373e+03
2.120000e-06	3.774000e-06	1.918861e-08	2.695720e+01	1.257136e+03
2.130000e-06	3.686576e-06	1.899475e-08	2.633274e+01	1.246507e+03
2.140000e-06	3.597867e-06	1.885273e-08	2.569911e+01	1.235483e+03
2.150000e-06	3.507974e-06	1.865662e-08	2.505701e+01	1.224052e+03
2.160000e-06	3.416962e-06	1.850157e-08	2.440692e+01	1.212197e+03
2.170000e-06	3.324855e-06	1.830872e-08	2.374902e+01	1.199888e+03
2.180000e-06	3.231439e-06	1.811749e-08	2.308176e+01	1.187087e+03
2.190000e-06	3.136607e-06	1.790566e-08	2.240439e+01	1.173753e+03
2.200000e-06	3.040555e-06	1.768971e-08	2.171829e+01	1.159840e+03
2.210000e-06	2.943498e-06	1.748302e-08	2.102503e+01	1.145311e+03
2.220000e-06	2.845472e-06	1.725073e-08	2.032484e+01	1.130131e+03
2.230000e-06	2.746479e-06	1.701931e-08	1.961775e+01	1.114275e+03
2.240000e-06	2.646606e-06	1.676239e-08	1.890437e+01	1.097721e+03
2.250000e-06	2.545732e-06	1.650901e-08	1.818384e+01	1.080447e+03
2.260000e-06	2.443747e-06	1.622954e-08	1.745537e+01	1.062425e+03
2.270000e-06	2.340720e-06	1.594122e-08	1.671947e+01	1.043614e+03
2.280000e-06	2.236756e-06	1.564056e-08	1.597686e+01	1.023958e+03
2.290000e-06	2.131949e-06	1.533007e-08	1.522824e+01	1.003386e+03
2.300000e-06	2.026411e-06	1.500140e-08	1.447439e+01	9.818143e+02
2.310000e-06	1.920244e-06	1.465433e-08	1.371606e+01	9.591496e+02
2.320000e-06	1.813503e-06	1.429633e-08	1.295362e+01	9.352960e+02
2.330000e-06	1.706293e-06	1.391633e-08	1.218783e+01	9.101583e+02
2.340000e-06	1.598611e-06	1.351730e-08	1.141868e+01	8.836442e+02
2.350000e-06	1.490391e-06	1.308952e-08	1.064567e+01	8.556624e+02
2.360000e-06	1.381670e-06	1.264238e-08	9.869093e+00	8.261198e+02
2.370000e-06	1.272493e-06	1.216807e-08	9.089253e+00	7.949176e+02
2.380000e-06	1.162938e-06	1.166664e-08	8.306714e+00	7.619503e+02
2.390000e-06	1.053014e-06	1.113342e-08	7.521547e+00	7.271090e+02
2.400000e-06	9.428114e-07	1.057173e-08	6.734381e+00	6.902913e+02
2.410000e-06	8.323293e-07	9.982711e-09	5.945222e+00	6.514175e+02
2.420000e-06	7.214903e-07	9.361253e-09	5.153513e+00	6.104512e+02
2.430000e-06	6.102998e-07	8.705563e-09	4.359294e+00	5.674192e+02
2.440000e-06	4.989270e-07	8.017229e-09	3.563772e+00	5.224275e+02
2.450000e-06	3.874124e-07	7.303942e-09	2.767237e+00	4.756662e+02
2.460000e-06	2.756859e-07	6.563447e-09	1.969189e+00	4.274015e+02
2.470000e-06	1.637040e-07	5.803778e-09	1.169317e+00	3.779510e+02
2.480000e-06	5.161846e-08	5.033564e-09	3.687041e-01	3.276481e+02
2.490000e-06	-6.039925e-08	4.258600e-09	-4.314241e-01	2.767962e+02
2.500000e-06	-1.723864e-07	3.478082e-09	-1.231334e+00	2.256252e+02
2.510000e-06	-2.842750e-07	2.694124e-09	-2.030540e+00	1.742560e+02
2.520000e-06	-3.960633e-07	1.909312e-09	-2.829029e+00	1.226825e+02
2.530000e-06	-5.076842e-07	1.117607e-09	-3.626323e+00	7.077660e+01
2.540000e-06	-6.190606e-07	3.166275e-10	-4.421870e+00	1.831714e+01
2.550000e-06	-7.302075e-07	-4.971709e-10	-5.215779e+00	-3.496028e+01
2.560000e-06	-8.410453e-07	-1.327490e-09	-6.007479e+00	-8.930067e+01
2.570000e-06	-9.514485e-07	-2.176969e-09	-6.796075e+00	-1.448647e+02
2.580000e-06	-1.061477e-06	-3.045450e-09	-7.581995e+00	-2.016734e+02
2.590000e-06	-1.171142e-06	-3.927956e-09	-8.365315e+00	-2.595731e+02
2.600000e-06	-1.280386e-06	-4.824367e-09	-9.145635e+00	-3.182269e+02
2.610000e-06	-1.389267e-06	-5.724993e-09	-9.923353e+00	-3.771354e+02
2.620000e-06	-1.497680e-06	-6.617924e-09	-1.069773e+01	-4.356831e+02
2.630000e-06	-1.605519e-06	-7.497597e-09	-1.146802e+01	-4.932027e+02
2.640000e-06	-1.712821e-06	-8.354652e-09	-1.223446e+01	-5.490453e+02
2.650000e-06	-1.819590e-06	-9.178272e-09	-1.299710e+01	-6.026462e+02
2.660000e-06	-1.925787e-06	-9.959806e-09	-1.375565e+01	-6.535752e+02
2.670000e-06	-2.031291e-06	-1.069718e-08	-1.450925e+01	-7.015641e+02
2.680000e-06	-2.136052e-06	-1.138847e-08	-1.525754e+01	-7.465099e+02
2.690000e-06	-2.240000e-06	-1.203115e-08	-1.600003e+01	-7.884560e+02
2.700000e-06	-2.343079e-06	-1.262957e-08	-1.673632e+01	-8.275562e+02
2.710000e-06	-2.445247e-06	-1.319206e-08	-1.746609e+01	-8.640318e+02
2.720000e-06	-2.546365e-06	-1.371883e-08	-1.818836e+01	-8.981293e+02
2.730000e-06	-2.646438e-06	-1.420706e-08	-1.890317e+01	-9.300858e+02
2.740000e-06	-2.745617e-06	-1.466299e-08	-1.961159e+01	-9.601072e+02
2.750000e-06	-2.843889e-06	-1.509260e-08	-2.031354e+01	-9.883597e+02
2.760000e-06	-2.941219e-06	-1.549938e-08	-2.100875e+01	-1.014973e+03
2.770000e-06	-3.037633e-06	-1.588573e-08	-2.169743e+01	-1.040051e+03
2.780000e-06	-3.133055e-06	-1.625056e-08	-2.237901e+01	-1.063684e+03
2.790000e-06	-3.227349e-06	-1.659043e-08	-2.305254e+01	-1.085962e+03
2.800000e-06	-3.320396e-06	-1.690548e-08	-2.371716e+01	-1.106978e+03
2.810000e-06	-3.412187e-06	-1.720386e-08	-2.437281e+01	-1.126832e+03
2.820000e-06	-3.502772e-06	-1.749063e-08	-2.501985e+01	-1.145623e+03
2.830000e-06	-3.592102e-06	-1.776509e-08	-2.565792e+01	-1.163446e+03
2.840000e-06	-3.680190e-06	-1.802461e-08	-2.628713e+01	-1.180380e+03
2.850000e-06	-3.767032e-06	-1.827267e-08	-2.690743e+01	-1.196491e+03
2.860000e-06	-3.852410e-06	-1.851040e-08	-2.751727e+01	-1.211824e+03
2.870000e-06	-3.936308e-06	-1.873643e-08	-2.811655e+01	-1.226414e+03
2.880000e-06	-4.018878e-06	-1.895077e-08	-2.870633e+01	-1.240285e+03
2.890000e-06	-4.100117e-06	-1.915384e-08	-2.928661e+01	-1.253463e+03
2.900000e-06	-4.179947e-06	-1.934538e-08	-2.985683e+01	-1.265976e+03
2.910000e-06	-4.258170e-06	-1.952431e-08	-3.041556e+01	-1.277859e+03
2.920000e-06	-4.334572e-06	-1.969497e-08	-3.096129e+01	-1.289152e+03
2.930000e-06	-4.409297e-06	-1.985894e-08	-3.149505e+01	-1.299897e+03
2.940000e-06	-4.482443e-06	-2.001670e-08	-3.201752e+01	-1.310129e+03
