# Temperatura_=_37.24
# Concentracion g/m^3_=_28200.0
# C_Vs_to_Am_M_A/Vsm_=_65563218390.804596
# pendiente_HvsI_1/m_=_3716.3
# ordenada_HvsI_A/m_=_1297.0
# frecuencia_Hz_=_301956.91018755897

Tiempo_(s)	Campo_(V.s)	Magnetizacion_(V.s)	Campo_(kA/m)	Magnetizacion_(A/m)
0.000000e+00	-5.839835e-06	-2.149138e-08	-4.194034e+01	-1.405478e+03
1.000000e-08	-5.838411e-06	-2.148974e-08	-4.193012e+01	-1.405266e+03
2.000000e-08	-5.834962e-06	-2.148561e-08	-4.190535e+01	-1.404958e+03
3.000000e-08	-5.829685e-06	-2.147519e-08	-4.186745e+01	-1.404537e+03
4.000000e-08	-5.822694e-06	-2.146661e-08	-4.181724e+01	-1.403974e+03
5.000000e-08	-5.813844e-06	-2.145445e-08	-4.175368e+01	-1.403237e+03
6.000000e-08	-5.802770e-06	-2.143517e-08	-4.167415e+01	-1.402301e+03
7.000000e-08	-5.789515e-06	-2.141318e-08	-4.157896e+01	-1.401151e+03
8.000000e-08	-5.774112e-06	-2.138004e-08	-4.146834e+01	-1.399793e+03
9.000000e-08	-5.756471e-06	-2.137323e-08	-4.134165e+01	-1.398251e+03
1.000000e-07	-5.736753e-06	-2.142580e-08	-4.120003e+01	-1.396567e+03
1.100000e-07	-5.714908e-06	-2.137404e-08	-4.104315e+01	-1.394789e+03
1.200000e-07	-5.690867e-06	-2.129333e-08	-4.087049e+01	-1.392962e+03
1.300000e-07	-5.664658e-06	-2.128150e-08	-4.068227e+01	-1.391119e+03
1.400000e-07	-5.636806e-06	-2.116001e-08	-4.048224e+01	-1.389267e+03
1.500000e-07	-5.607617e-06	-2.108250e-08	-4.027261e+01	-1.387391e+03
1.600000e-07	-5.576742e-06	-2.123282e-08	-4.005088e+01	-1.385449e+03
1.700000e-07	-5.544123e-06	-2.109759e-08	-3.981661e+01	-1.383380e+03
1.800000e-07	-5.509608e-06	-2.108523e-08	-3.956873e+01	-1.381120e+03
1.900000e-07	-5.473005e-06	-2.119903e-08	-3.930586e+01	-1.378608e+03
2.000000e-07	-5.434496e-06	-2.091252e-08	-3.902929e+01	-1.375801e+03
2.100000e-07	-5.394168e-06	-2.085144e-08	-3.873967e+01	-1.372682e+03
2.200000e-07	-5.351724e-06	-2.085043e-08	-3.843485e+01	-1.369258e+03
2.300000e-07	-5.307214e-06	-2.075639e-08	-3.811518e+01	-1.365558e+03
2.400000e-07	-5.260786e-06	-2.080786e-08	-3.778175e+01	-1.361625e+03
2.500000e-07	-5.212174e-06	-2.074323e-08	-3.743263e+01	-1.357501e+03
2.600000e-07	-5.161216e-06	-2.062588e-08	-3.706666e+01	-1.353222e+03
2.700000e-07	-5.107990e-06	-2.054623e-08	-3.668440e+01	-1.348801e+03
2.800000e-07	-5.052908e-06	-2.043458e-08	-3.628882e+01	-1.344236e+03
2.900000e-07	-4.996008e-06	-2.042331e-08	-3.588018e+01	-1.339501e+03
3.000000e-07	-4.937109e-06	-2.035716e-08	-3.545718e+01	-1.334561e+03
3.100000e-07	-4.876421e-06	-2.027069e-08	-3.502133e+01	-1.329378e+03
3.200000e-07	-4.813984e-06	-2.016608e-08	-3.457292e+01	-1.323919e+03
3.300000e-07	-4.749795e-06	-2.006266e-08	-3.411193e+01	-1.318168e+03
3.400000e-07	-4.683822e-06	-1.998885e-08	-3.363812e+01	-1.312123e+03
3.500000e-07	-4.616054e-06	-1.987107e-08	-3.315143e+01	-1.305798e+03
3.600000e-07	-4.546599e-06	-1.981065e-08	-3.265262e+01	-1.299215e+03
3.700000e-07	-4.475599e-06	-1.969234e-08	-3.214272e+01	-1.292396e+03
3.800000e-07	-4.403154e-06	-1.956157e-08	-3.162243e+01	-1.285354e+03
3.900000e-07	-4.328875e-06	-1.947112e-08	-3.108898e+01	-1.278089e+03
4.000000e-07	-4.252689e-06	-1.935814e-08	-3.054183e+01	-1.270582e+03
4.100000e-07	-4.174845e-06	-1.924221e-08	-2.998277e+01	-1.262801e+03
4.200000e-07	-4.095330e-06	-1.909953e-08	-2.941172e+01	-1.254704e+03
4.300000e-07	-4.014219e-06	-1.896410e-08	-2.882919e+01	-1.246252e+03
4.400000e-07	-3.931781e-06	-1.882795e-08	-2.823714e+01	-1.237410e+03
4.500000e-07	-3.848195e-06	-1.869833e-08	-2.763685e+01	-1.228159e+03
4.600000e-07	-3.763480e-06	-1.856957e-08	-2.702844e+01	-1.218491e+03
4.700000e-07	-3.677544e-06	-1.840474e-08	-2.641127e+01	-1.208414e+03
4.800000e-07	-3.590419e-06	-1.822687e-08	-2.578556e+01	-1.197936e+03
4.900000e-07	-3.502140e-06	-1.804662e-08	-2.515156e+01	-1.187067e+03
5.000000e-07	-3.412431e-06	-1.788064e-08	-2.450729e+01	-1.175805e+03
5.100000e-07	-3.321260e-06	-1.771886e-08	-2.385252e+01	-1.164132e+03
5.200000e-07	-3.228893e-06	-1.754137e-08	-2.318916e+01	-1.152018e+03
5.300000e-07	-3.135440e-06	-1.734341e-08	-2.251800e+01	-1.139417e+03
5.400000e-07	-3.040932e-06	-1.712513e-08	-2.183927e+01	-1.126278e+03
5.500000e-07	-2.945418e-06	-1.690455e-08	-2.115331e+01	-1.112549e+03
5.600000e-07	-2.848787e-06	-1.669030e-08	-2.045933e+01	-1.098187e+03
5.700000e-07	-2.750839e-06	-1.647477e-08	-1.975589e+01	-1.083157e+03
5.800000e-07	-2.651680e-06	-1.623963e-08	-1.904375e+01	-1.067431e+03
5.900000e-07	-2.551603e-06	-1.597607e-08	-1.832503e+01	-1.050991e+03
6.000000e-07	-2.450727e-06	-1.569900e-08	-1.760056e+01	-1.033814e+03
6.100000e-07	-2.348931e-06	-1.541775e-08	-1.686948e+01	-1.015871e+03
6.200000e-07	-2.246253e-06	-1.513879e-08	-1.613207e+01	-9.971178e+02
6.300000e-07	-2.142815e-06	-1.485116e-08	-1.538920e+01	-9.774944e+02
6.400000e-07	-2.038659e-06	-1.454130e-08	-1.464118e+01	-9.569253e+02
6.500000e-07	-1.933711e-06	-1.420477e-08	-1.388746e+01	-9.353235e+02
6.600000e-07	-1.827883e-06	-1.384715e-08	-1.312743e+01	-9.125955e+02
6.700000e-07	-1.721240e-06	-1.347810e-08	-1.236155e+01	-8.886473e+02
6.800000e-07	-1.613927e-06	-1.309412e-08	-1.159085e+01	-8.633869e+02
6.900000e-07	-1.506092e-06	-1.269062e-08	-1.081640e+01	-8.367255e+02
7.000000e-07	-1.397779e-06	-1.226285e-08	-1.003853e+01	-8.085749e+02
7.100000e-07	-1.289080e-06	-1.180727e-08	-9.257872e+00	-7.788446e+02
7.200000e-07	-1.180012e-06	-1.132171e-08	-8.474576e+00	-7.474404e+02
7.300000e-07	-1.070591e-06	-1.081362e-08	-7.688738e+00	-7.142660e+02
7.400000e-07	-9.608363e-07	-1.028229e-08	-6.900505e+00	-6.792314e+02
7.500000e-07	-8.507422e-07	-9.721496e-09	-6.109834e+00	-6.422661e+02
7.600000e-07	-7.403636e-07	-9.129519e-09	-5.317120e+00	-6.033376e+02
7.700000e-07	-6.298091e-07	-8.504284e-09	-4.523143e+00	-5.624704e+02
7.800000e-07	-5.191201e-07	-7.850271e-09	-3.728200e+00	-5.197619e+02
7.900000e-07	-4.082525e-07	-7.172367e-09	-2.931975e+00	-4.753897e+02
8.000000e-07	-2.972355e-07	-6.475616e-09	-2.134676e+00	-4.296060e+02
8.100000e-07	-1.860672e-07	-5.762361e-09	-1.336292e+00	-3.827189e+02
8.200000e-07	-7.480803e-08	-5.037455e-09	-5.372540e-01	-3.350600e+02
8.300000e-07	3.645526e-08	-4.306828e-09	2.618133e-01	-2.869436e+02
8.400000e-07	1.477298e-07	-3.572920e-09	1.060961e+00	-2.386237e+02
8.500000e-07	2.590014e-07	-2.837210e-09	1.860088e+00	-1.902570e+02
8.600000e-07	3.701988e-07	-2.099035e-09	2.658682e+00	-1.418790e+02
8.700000e-07	4.813140e-07	-1.359591e-09	3.456686e+00	-9.340010e+01
8.800000e-07	5.923148e-07	-6.166963e-10	4.253868e+00	-4.462330e+01
8.900000e-07	7.031595e-07	1.325080e-10	5.049929e+00	4.717796e+00
9.000000e-07	8.138504e-07	8.920483e-10	5.844885e+00	5.490578e+01
9.100000e-07	9.242632e-07	1.669366e-09	6.637845e+00	1.061797e+02
9.200000e-07	1.034301e-06	2.469065e-09	7.428108e+00	1.586789e+02
9.300000e-07	1.143948e-06	3.287961e-09	8.215568e+00	2.123995e+02
9.400000e-07	1.253198e-06	4.119742e-09	9.000179e+00	2.671718e+02
9.500000e-07	1.362076e-06	4.961913e-09	9.782113e+00	3.226617e+02
9.600000e-07	1.470594e-06	5.806771e-09	1.056147e+01	3.783962e+02
9.700000e-07	1.578691e-06	6.647607e-09	1.133779e+01	4.338087e+02
9.800000e-07	1.686285e-06	7.478052e-09	1.211051e+01	4.882960e+02
9.900000e-07	1.793257e-06	8.287163e-09	1.287876e+01	5.412783e+02
1.000000e-06	1.899436e-06	9.062874e-09	1.364131e+01	5.922522e+02
1.010000e-06	2.004719e-06	9.796952e-09	1.439743e+01	6.408306e+02
1.020000e-06	2.109105e-06	1.048968e-08	1.514711e+01	6.867639e+02
1.030000e-06	2.212636e-06	1.114372e-08	1.589064e+01	7.299413e+02
1.040000e-06	2.315383e-06	1.175498e-08	1.662855e+01	7.703759e+02
1.050000e-06	2.417347e-06	1.232741e-08	1.736082e+01	8.081770e+02
1.060000e-06	2.518440e-06	1.286360e-08	1.808686e+01	8.435168e+02
1.070000e-06	2.618712e-06	1.336609e-08	1.880698e+01	8.765968e+02
1.080000e-06	2.718175e-06	1.383713e-08	1.952130e+01	9.076204e+02
1.090000e-06	2.816608e-06	1.427891e-08	2.022823e+01	9.367733e+02
1.100000e-06	2.913765e-06	1.469531e-08	2.092599e+01	9.642142e+02
1.110000e-06	3.009746e-06	1.508831e-08	2.161530e+01	9.900737e+02
1.120000e-06	3.104686e-06	1.545811e-08	2.229714e+01	1.014459e+03
1.130000e-06	3.198536e-06	1.580696e-08	2.297114e+01	1.037463e+03
1.140000e-06	3.291384e-06	1.613759e-08	2.363796e+01	1.059170e+03
1.150000e-06	3.383344e-06	1.645083e-08	2.429839e+01	1.079664e+03
1.160000e-06	3.474199e-06	1.674562e-08	2.495090e+01	1.099028e+03
1.170000e-06	3.563616e-06	1.702217e-08	2.559307e+01	1.117348e+03
1.180000e-06	3.651629e-06	1.728665e-08	2.622515e+01	1.134704e+03
1.190000e-06	3.738436e-06	1.753915e-08	2.684858e+01	1.151170e+03
1.200000e-06	3.824055e-06	1.777929e-08	2.746348e+01	1.166811e+03
1.210000e-06	3.908457e-06	1.800531e-08	2.806964e+01	1.181677e+03
1.220000e-06	3.991587e-06	1.821789e-08	2.866666e+01	1.195812e+03
1.230000e-06	4.073218e-06	1.841628e-08	2.925291e+01	1.209248e+03
1.240000e-06	4.153246e-06	1.860471e-08	2.982765e+01	1.222014e+03
1.250000e-06	4.231748e-06	1.878638e-08	3.039144e+01	1.234136e+03
1.260000e-06	4.308720e-06	1.896335e-08	3.094423e+01	1.245643e+03
1.270000e-06	4.384146e-06	1.913193e-08	3.148593e+01	1.256563e+03
1.280000e-06	4.457749e-06	1.928985e-08	3.201452e+01	1.266928e+03
1.290000e-06	4.529510e-06	1.944012e-08	3.252989e+01	1.276766e+03
1.300000e-06	4.599640e-06	1.958371e-08	3.303355e+01	1.286104e+03
1.310000e-06	4.668213e-06	1.971936e-08	3.352602e+01	1.294963e+03
1.320000e-06	4.735193e-06	1.984656e-08	3.400706e+01	1.303361e+03
1.330000e-06	4.800305e-06	1.996590e-08	3.447468e+01	1.311309e+03
1.340000e-06	4.863644e-06	2.007662e-08	3.492957e+01	1.318819e+03
1.350000e-06	4.925363e-06	2.018118e-08	3.537282e+01	1.325901e+03
1.360000e-06	4.985494e-06	2.028183e-08	3.580466e+01	1.332572e+03
1.370000e-06	5.043858e-06	2.037947e-08	3.622382e+01	1.338853e+03
1.380000e-06	5.100208e-06	2.047169e-08	3.662852e+01	1.344772e+03
1.390000e-06	5.154689e-06	2.055733e-08	3.701979e+01	1.350362e+03
1.400000e-06	5.207338e-06	2.063741e-08	3.739789e+01	1.355657e+03
1.410000e-06	5.257803e-06	2.071284e-08	3.776033e+01	1.360687e+03
1.420000e-06	5.306077e-06	2.078436e-08	3.810702e+01	1.365475e+03
1.430000e-06	5.352481e-06	2.085356e-08	3.844028e+01	1.370036e+03
1.440000e-06	5.397143e-06	2.092007e-08	3.876104e+01	1.374371e+03
1.450000e-06	5.439973e-06	2.098130e-08	3.906863e+01	1.378473e+03
1.460000e-06	5.480708e-06	2.103761e-08	3.936118e+01	1.382328e+03
1.470000e-06	5.519395e-06	2.109216e-08	3.963902e+01	1.385922e+03
1.480000e-06	5.556324e-06	2.114432e-08	3.990424e+01	1.389244e+03
1.490000e-06	5.591417e-06	2.118989e-08	4.015626e+01	1.392289e+03
1.500000e-06	5.624451e-06	2.123066e-08	4.039351e+01	1.395062e+03
1.510000e-06	5.655471e-06	2.126788e-08	4.061628e+01	1.397579e+03
1.520000e-06	5.684595e-06	2.130087e-08	4.082544e+01	1.399860e+03
1.530000e-06	5.711811e-06	2.133006e-08	4.102090e+01	1.401928e+03
1.540000e-06	5.736851e-06	2.135591e-08	4.120074e+01	1.403803e+03
1.550000e-06	5.759645e-06	2.138063e-08	4.136444e+01	1.405497e+03
1.560000e-06	5.780497e-06	2.140468e-08	4.151419e+01	1.407016e+03
1.570000e-06	5.799482e-06	2.142645e-08	4.165054e+01	1.408355e+03
1.580000e-06	5.816350e-06	2.144414e-08	4.177168e+01	1.409506e+03
1.590000e-06	5.831019e-06	2.145760e-08	4.187703e+01	1.410457e+03
1.600000e-06	5.843511e-06	2.146710e-08	4.196675e+01	1.411205e+03
1.610000e-06	5.853629e-06	2.147414e-08	4.203941e+01	1.411752e+03
1.620000e-06	5.861444e-06	2.147968e-08	4.209554e+01	1.412110e+03
1.630000e-06	5.867186e-06	2.148487e-08	4.213678e+01	1.412303e+03
1.640000e-06	5.870967e-06	2.148933e-08	4.216393e+01	1.412356e+03
1.650000e-06	5.872690e-06	2.149199e-08	4.217630e+01	1.412294e+03
1.660000e-06	5.872234e-06	2.149318e-08	4.217303e+01	1.412136e+03
1.670000e-06	5.869850e-06	2.148280e-08	4.215591e+01	1.411887e+03
1.680000e-06	5.865696e-06	2.147507e-08	4.212608e+01	1.411536e+03
1.690000e-06	5.859444e-06	2.146817e-08	4.208117e+01	1.411062e+03
1.700000e-06	5.851121e-06	2.145714e-08	4.202140e+01	1.410434e+03
1.710000e-06	5.841077e-06	2.144702e-08	4.194927e+01	1.409621e+03
1.720000e-06	5.829186e-06	2.143863e-08	4.186387e+01	1.408600e+03
1.730000e-06	5.815149e-06	2.144491e-08	4.176306e+01	1.407366e+03
1.740000e-06	5.799112e-06	2.140672e-08	4.164788e+01	1.405931e+03
1.750000e-06	5.781036e-06	2.128862e-08	4.151806e+01	1.404328e+03
1.760000e-06	5.760206e-06	2.130620e-08	4.136847e+01	1.402600e+03
1.770000e-06	5.736525e-06	2.131910e-08	4.119840e+01	1.400797e+03
1.780000e-06	5.710728e-06	2.127305e-08	4.101313e+01	1.398960e+03
1.790000e-06	5.683558e-06	2.138963e-08	4.081800e+01	1.397113e+03
1.800000e-06	5.655542e-06	2.122677e-08	4.061680e+01	1.395255e+03
1.810000e-06	5.625915e-06	2.112605e-08	4.040402e+01	1.393358e+03
1.820000e-06	5.593809e-06	2.128419e-08	4.017344e+01	1.391373e+03
1.830000e-06	5.559861e-06	2.105102e-08	3.992964e+01	1.389236e+03
1.840000e-06	5.524101e-06	2.108985e-08	3.967281e+01	1.386883e+03
1.850000e-06	5.486102e-06	2.124012e-08	3.939992e+01	1.384258e+03
1.860000e-06	5.446137e-06	2.101261e-08	3.911290e+01	1.381329e+03
1.870000e-06	5.404228e-06	2.111232e-08	3.881192e+01	1.378087e+03
1.880000e-06	5.360611e-06	2.098998e-08	3.849867e+01	1.374549e+03
1.890000e-06	5.315319e-06	2.077487e-08	3.817339e+01	1.370751e+03
1.900000e-06	5.267762e-06	2.086299e-08	3.783185e+01	1.366738e+03
1.910000e-06	5.218114e-06	2.070301e-08	3.747529e+01	1.362549e+03
1.920000e-06	5.166389e-06	2.078149e-08	3.710381e+01	1.358212e+03
1.930000e-06	5.112380e-06	2.073757e-08	3.671593e+01	1.353736e+03
1.940000e-06	5.056444e-06	2.051457e-08	3.631421e+01	1.349107e+03
1.950000e-06	4.998628e-06	2.054411e-08	3.589899e+01	1.344296e+03
1.960000e-06	4.939112e-06	2.036842e-08	3.547156e+01	1.339264e+03
1.970000e-06	4.877824e-06	2.036653e-08	3.503140e+01	1.333974e+03
1.980000e-06	4.814545e-06	2.029375e-08	3.457695e+01	1.328401e+03
1.990000e-06	4.749500e-06	2.015174e-08	3.410981e+01	1.322533e+03
2.000000e-06	4.682822e-06	2.012847e-08	3.363095e+01	1.316375e+03
2.010000e-06	4.614703e-06	1.993230e-08	3.314173e+01	1.309945e+03
2.020000e-06	4.544716e-06	1.991958e-08	3.263910e+01	1.303266e+03
2.030000e-06	4.472800e-06	1.978739e-08	3.212262e+01	1.296358e+03
2.040000e-06	4.399326e-06	1.966004e-08	3.159494e+01	1.289229e+03
2.050000e-06	4.324271e-06	1.959352e-08	3.105592e+01	1.281871e+03
2.060000e-06	4.247586e-06	1.941942e-08	3.050518e+01	1.274260e+03
2.070000e-06	4.169116e-06	1.935446e-08	2.994163e+01	1.266359e+03
2.080000e-06	4.089105e-06	1.919826e-08	2.936701e+01	1.258127e+03
2.090000e-06	4.007734e-06	1.909158e-08	2.878262e+01	1.249524e+03
2.100000e-06	3.924962e-06	1.892936e-08	2.818817e+01	1.240522e+03
2.110000e-06	3.840962e-06	1.876116e-08	2.758490e+01	1.231107e+03
2.120000e-06	3.755607e-06	1.865376e-08	2.697190e+01	1.221276e+03
2.130000e-06	3.668696e-06	1.849888e-08	2.634772e+01	1.211040e+03
2.140000e-06	3.580450e-06	1.836873e-08	2.571396e+01	1.200407e+03
2.150000e-06	3.491094e-06	1.816967e-08	2.507223e+01	1.189384e+03
2.160000e-06	3.400542e-06	1.799766e-08	2.442191e+01	1.177962e+03
2.170000e-06	3.308860e-06	1.780088e-08	2.376347e+01	1.166120e+03
2.180000e-06	3.216011e-06	1.761312e-08	2.309665e+01	1.153820e+03
2.190000e-06	3.121750e-06	1.743953e-08	2.241969e+01	1.141013e+03
2.200000e-06	3.026244e-06	1.724528e-08	2.173379e+01	1.127647e+03
2.210000e-06	2.929770e-06	1.703340e-08	2.104093e+01	1.113674e+03
2.220000e-06	2.832267e-06	1.678499e-08	2.034069e+01	1.099052e+03
2.230000e-06	2.733684e-06	1.656022e-08	1.963269e+01	1.083751e+03
2.240000e-06	2.634214e-06	1.632816e-08	1.891832e+01	1.067746e+03
2.250000e-06	2.533925e-06	1.609009e-08	1.819806e+01	1.051019e+03
2.260000e-06	2.432674e-06	1.582426e-08	1.747091e+01	1.033544e+03
2.270000e-06	2.330376e-06	1.554014e-08	1.673622e+01	1.015288e+03
2.280000e-06	2.227004e-06	1.524005e-08	1.599383e+01	9.962001e+02
2.290000e-06	2.122714e-06	1.492985e-08	1.524484e+01	9.762142e+02
2.300000e-06	2.017747e-06	1.461675e-08	1.449099e+01	9.552495e+02
2.310000e-06	1.912168e-06	1.429044e-08	1.373275e+01	9.332158e+02
2.320000e-06	1.805957e-06	1.394490e-08	1.296996e+01	9.100188e+02
2.330000e-06	1.699179e-06	1.356508e-08	1.220311e+01	8.855651e+02
2.340000e-06	1.591928e-06	1.316830e-08	1.143286e+01	8.597641e+02
2.350000e-06	1.484246e-06	1.275441e-08	1.065951e+01	8.325274e+02
2.360000e-06	1.376144e-06	1.232509e-08	9.883145e+00	8.037665e+02
2.370000e-06	1.267662e-06	1.186661e-08	9.104057e+00	7.733893e+02
2.380000e-06	1.158813e-06	1.137665e-08	8.322327e+00	7.413003e+02
2.390000e-06	1.049571e-06	1.085543e-08	7.537776e+00	7.074044e+02
2.400000e-06	9.399884e-07	1.030328e-08	6.750780e+00	6.716173e+02
2.410000e-06	8.301332e-07	9.725411e-09	5.961825e+00	6.338811e+02
2.420000e-06	7.199414e-07	9.123288e-09	5.170453e+00	5.941835e+02
2.430000e-06	6.093892e-07	8.495445e-09	4.376492e+00	5.525762e+02
2.440000e-06	4.987031e-07	7.833778e-09	3.581570e+00	5.091878e+02
2.450000e-06	3.878880e-07	7.145172e-09	2.785722e+00	4.642266e+02
2.460000e-06	2.768696e-07	6.436338e-09	1.988414e+00	4.179697e+02
2.470000e-06	1.657503e-07	5.714310e-09	1.190381e+00	3.707391e+02
2.480000e-06	5.457879e-08	4.980630e-09	3.919722e-01	3.228647e+02
2.490000e-06	-5.664826e-08	4.243020e-09	-4.068347e-01	2.746420e+02
2.500000e-06	-1.678071e-07	3.507539e-09	-1.205152e+00	2.262906e+02
2.510000e-06	-2.788324e-07	2.771880e-09	-2.002510e+00	1.779216e+02
2.520000e-06	-3.898191e-07	2.034027e-09	-2.799591e+00	1.295204e+02
2.530000e-06	-5.007346e-07	1.289669e-09	-3.596160e+00	8.095212e+01
2.540000e-06	-6.114573e-07	5.368174e-10	-4.391345e+00	3.198684e+01
2.550000e-06	-7.219140e-07	-2.284838e-10	-5.184620e+00	-1.765508e+01
2.560000e-06	-8.320617e-07	-1.005099e-09	-5.975675e+00	-6.824630e+01
2.570000e-06	-9.418600e-07	-1.793196e-09	-6.764221e+00	-1.199929e+02
2.580000e-06	-1.051293e-06	-2.598489e-09	-7.550141e+00	-1.729821e+02
2.590000e-06	-1.160332e-06	-3.423200e-09	-8.333239e+00	-2.271462e+02
2.600000e-06	-1.269007e-06	-4.267170e-09	-9.113717e+00	-2.822495e+02
2.610000e-06	-1.377341e-06	-5.122420e-09	-9.891746e+00	-3.378990e+02
2.620000e-06	-1.485246e-06	-5.978143e-09	-1.066669e+01	-3.935787e+02
2.630000e-06	-1.592707e-06	-6.823561e-09	-1.143845e+01	-4.487004e+02
2.640000e-06	-1.699669e-06	-7.648321e-09	-1.220663e+01	-5.026632e+02
2.650000e-06	-1.805944e-06	-8.447419e-09	-1.296987e+01	-5.549115e+02
2.660000e-06	-1.911523e-06	-9.215493e-09	-1.372812e+01	-6.049839e+02
2.670000e-06	-2.016487e-06	-9.946595e-09	-1.448194e+01	-6.525459e+02
2.680000e-06	-2.120772e-06	-1.063478e-08	-1.523090e+01	-6.974031e+02
2.690000e-06	-2.224303e-06	-1.127647e-08	-1.597443e+01	-7.394961e+02
2.700000e-06	-2.326842e-06	-1.187753e-08	-1.671085e+01	-7.788796e+02
2.710000e-06	-2.428249e-06	-1.244454e-08	-1.743912e+01	-8.156916e+02
2.720000e-06	-2.528713e-06	-1.297812e-08	-1.816063e+01	-8.501197e+02
2.730000e-06	-2.628354e-06	-1.347446e-08	-1.887623e+01	-8.823690e+02
2.740000e-06	-2.727149e-06	-1.393787e-08	-1.958575e+01	-9.126376e+02
2.750000e-06	-2.825006e-06	-1.437346e-08	-2.028854e+01	-9.411014e+02
2.760000e-06	-2.921951e-06	-1.478219e-08	-2.098477e+01	-9.679077e+02
2.770000e-06	-3.018005e-06	-1.516934e-08	-2.167461e+01	-9.931771e+02
2.780000e-06	-3.113007e-06	-1.553575e-08	-2.235690e+01	-1.017010e+03
2.790000e-06	-3.206690e-06	-1.587903e-08	-2.302971e+01	-1.039495e+03
2.800000e-06	-3.299155e-06	-1.619807e-08	-2.369377e+01	-1.060716e+03
2.810000e-06	-3.390544e-06	-1.649957e-08	-2.435010e+01	-1.080757e+03
2.820000e-06	-3.480665e-06	-1.679114e-08	-2.499733e+01	-1.099702e+03
2.830000e-06	-3.569540e-06	-1.706942e-08	-2.563561e+01	-1.117635e+03
2.840000e-06	-3.657297e-06	-1.732976e-08	-2.626586e+01	-1.134634e+03
2.850000e-06	-3.743729e-06	-1.757676e-08	-2.688660e+01	-1.150769e+03
2.860000e-06	-3.828632e-06	-1.781366e-08	-2.749635e+01	-1.166100e+03
2.870000e-06	-3.912202e-06	-1.803930e-08	-2.809653e+01	-1.180676e+03
2.880000e-06	-3.994502e-06	-1.825387e-08	-2.868759e+01	-1.194533e+03
2.890000e-06	-4.075453e-06	-1.845637e-08	-2.926896e+01	-1.207703e+03
2.900000e-06	-4.154934e-06	-1.864741e-08	-2.983978e+01	-1.220214e+03
2.910000e-06	-4.232644e-06	-1.882934e-08	-3.039787e+01	-1.232092e+03
2.920000e-06	-4.308599e-06	-1.900297e-08	-3.094336e+01	-1.243365e+03
2.930000e-06	-4.382966e-06	-1.916761e-08	-3.147745e+01	-1.254064e+03
2.940000e-06	-4.455762e-06	-1.932414e-08	-3.200025e+01	-1.264219e+03
