# Temperatura_=_81.56
# Concentracion g/m^3_=_28200.0
# C_Vs_to_Am_M_A/Vsm_=_65563218390.804596
# pendiente_HvsI_1/m_=_3716.3
# ordenada_HvsI_A/m_=_1297.0
# frecuencia_Hz_=_301953.7519104062

Tiempo_(s)	Campo_(V.s)	Magnetizacion_(V.s)	Campo_(kA/m)	Magnetizacion_(A/m)
0.000000e+00	-5.866190e-06	-2.512183e-08	-4.192493e+01	-1.644095e+03
1.000000e-08	-5.862721e-06	-2.511729e-08	-4.190013e+01	-1.643563e+03
2.000000e-08	-5.857365e-06	-2.510579e-08	-4.186186e+01	-1.642859e+03
3.000000e-08	-5.850346e-06	-2.509181e-08	-4.181169e+01	-1.641982e+03
4.000000e-08	-5.841486e-06	-2.507356e-08	-4.174837e+01	-1.640926e+03
5.000000e-08	-5.830428e-06	-2.505076e-08	-4.166935e+01	-1.639686e+03
6.000000e-08	-5.817156e-06	-2.502589e-08	-4.157449e+01	-1.638251e+03
7.000000e-08	-5.801753e-06	-2.499030e-08	-4.146440e+01	-1.636616e+03
8.000000e-08	-5.784188e-06	-2.497772e-08	-4.133887e+01	-1.634780e+03
9.000000e-08	-5.764522e-06	-2.501900e-08	-4.119832e+01	-1.632753e+03
1.000000e-07	-5.742686e-06	-2.496306e-08	-4.104226e+01	-1.630554e+03
1.100000e-07	-5.718650e-06	-2.486770e-08	-4.087048e+01	-1.628211e+03
1.200000e-07	-5.692437e-06	-2.484062e-08	-4.068314e+01	-1.625755e+03
1.300000e-07	-5.664443e-06	-2.474062e-08	-4.048307e+01	-1.623213e+03
1.400000e-07	-5.635082e-06	-2.466931e-08	-4.027323e+01	-1.620602e+03
1.500000e-07	-5.604112e-06	-2.480208e-08	-4.005189e+01	-1.617920e+03
1.600000e-07	-5.571408e-06	-2.466142e-08	-3.981816e+01	-1.615146e+03
1.700000e-07	-5.536858e-06	-2.456387e-08	-3.957123e+01	-1.612237e+03
1.800000e-07	-5.500213e-06	-2.464482e-08	-3.930933e+01	-1.609138e+03
1.900000e-07	-5.461589e-06	-2.443654e-08	-3.903330e+01	-1.605789e+03
2.000000e-07	-5.421142e-06	-2.443296e-08	-3.874422e+01	-1.602136e+03
2.100000e-07	-5.378623e-06	-2.446324e-08	-3.844035e+01	-1.598142e+03
2.200000e-07	-5.334019e-06	-2.430042e-08	-3.812157e+01	-1.593791e+03
2.300000e-07	-5.287444e-06	-2.425254e-08	-3.778870e+01	-1.589089e+03
2.400000e-07	-5.238643e-06	-2.417134e-08	-3.743993e+01	-1.584064e+03
2.500000e-07	-5.187450e-06	-2.405968e-08	-3.707406e+01	-1.578753e+03
2.600000e-07	-5.133969e-06	-2.400260e-08	-3.669183e+01	-1.573191e+03
2.700000e-07	-5.078633e-06	-2.389498e-08	-3.629636e+01	-1.567406e+03
2.800000e-07	-5.021473e-06	-2.381180e-08	-3.588784e+01	-1.561408e+03
2.900000e-07	-4.962331e-06	-2.369530e-08	-3.546516e+01	-1.555190e+03
3.000000e-07	-4.901402e-06	-2.361642e-08	-3.502971e+01	-1.548727e+03
3.100000e-07	-4.838768e-06	-2.351470e-08	-3.458207e+01	-1.541988e+03
3.200000e-07	-4.774367e-06	-2.338547e-08	-3.412181e+01	-1.534942e+03
3.300000e-07	-4.708098e-06	-2.330072e-08	-3.364819e+01	-1.527568e+03
3.400000e-07	-4.640017e-06	-2.315809e-08	-3.316162e+01	-1.519856e+03
3.500000e-07	-4.570309e-06	-2.303805e-08	-3.266342e+01	-1.511810e+03
3.600000e-07	-4.499117e-06	-2.291095e-08	-3.215462e+01	-1.503446e+03
3.700000e-07	-4.426376e-06	-2.278578e-08	-3.163476e+01	-1.494779e+03
3.800000e-07	-4.351775e-06	-2.265509e-08	-3.110159e+01	-1.485819e+03
3.900000e-07	-4.275291e-06	-2.249372e-08	-3.055497e+01	-1.476565e+03
4.000000e-07	-4.197139e-06	-2.235762e-08	-2.999643e+01	-1.466998e+03
4.100000e-07	-4.117292e-06	-2.221217e-08	-2.942578e+01	-1.457088e+03
4.200000e-07	-4.035883e-06	-2.205359e-08	-2.884395e+01	-1.446798e+03
4.300000e-07	-3.953232e-06	-2.187939e-08	-2.825326e+01	-1.436091e+03
4.400000e-07	-3.869424e-06	-2.170016e-08	-2.765429e+01	-1.424940e+03
4.500000e-07	-3.784430e-06	-2.152346e-08	-2.704685e+01	-1.413328e+03
4.600000e-07	-3.698225e-06	-2.133594e-08	-2.643075e+01	-1.401254e+03
4.700000e-07	-3.610825e-06	-2.115872e-08	-2.580612e+01	-1.388727e+03
4.800000e-07	-3.522168e-06	-2.096940e-08	-2.517249e+01	-1.375755e+03
4.900000e-07	-3.432053e-06	-2.075890e-08	-2.452845e+01	-1.362339e+03
5.000000e-07	-3.340510e-06	-2.054189e-08	-2.387421e+01	-1.348468e+03
5.100000e-07	-3.247778e-06	-2.031841e-08	-2.321146e+01	-1.334108e+03
5.200000e-07	-3.153976e-06	-2.008766e-08	-2.254107e+01	-1.319212e+03
5.300000e-07	-3.059105e-06	-1.984731e-08	-2.186304e+01	-1.303721e+03
5.400000e-07	-2.963183e-06	-1.960022e-08	-2.117750e+01	-1.287575e+03
5.500000e-07	-2.866089e-06	-1.933797e-08	-2.048358e+01	-1.270720e+03
5.600000e-07	-2.767694e-06	-1.906352e-08	-1.978037e+01	-1.253118e+03
5.700000e-07	-2.668124e-06	-1.878453e-08	-1.906875e+01	-1.234743e+03
5.800000e-07	-2.567580e-06	-1.849577e-08	-1.835017e+01	-1.215580e+03
5.900000e-07	-2.466174e-06	-1.819519e-08	-1.762544e+01	-1.195614e+03
6.000000e-07	-2.363884e-06	-1.787770e-08	-1.689438e+01	-1.174823e+03
6.100000e-07	-2.260779e-06	-1.754482e-08	-1.615751e+01	-1.153162e+03
6.200000e-07	-2.156900e-06	-1.719350e-08	-1.541510e+01	-1.130563e+03
6.300000e-07	-2.052148e-06	-1.682560e-08	-1.466645e+01	-1.106933e+03
6.400000e-07	-1.946524e-06	-1.644302e-08	-1.391157e+01	-1.082159e+03
6.500000e-07	-1.840084e-06	-1.604412e-08	-1.315085e+01	-1.056123e+03
6.600000e-07	-1.732935e-06	-1.562748e-08	-1.238507e+01	-1.028704e+03
6.700000e-07	-1.625189e-06	-1.518833e-08	-1.161502e+01	-9.997906e+02
6.800000e-07	-1.516959e-06	-1.472491e-08	-1.084151e+01	-9.692827e+02
6.900000e-07	-1.408288e-06	-1.423292e-08	-1.006486e+01	-9.370844e+02
7.000000e-07	-1.299150e-06	-1.371326e-08	-9.284866e+00	-9.030972e+02
7.100000e-07	-1.189582e-06	-1.316278e-08	-8.501797e+00	-8.672111e+02
7.200000e-07	-1.079630e-06	-1.258144e-08	-7.715983e+00	-8.292993e+02
7.300000e-07	-9.693506e-07	-1.196735e-08	-6.927828e+00	-7.892231e+02
7.400000e-07	-8.588163e-07	-1.131972e-08	-6.137853e+00	-7.468456e+02
7.500000e-07	-7.480439e-07	-1.063698e-08	-5.346177e+00	-7.020573e+02
7.600000e-07	-6.369915e-07	-9.914091e-09	-4.552499e+00	-6.548051e+02
7.700000e-07	-5.256298e-07	-9.154734e-09	-3.756611e+00	-6.051219e+02
7.800000e-07	-4.141220e-07	-8.361234e-09	-2.959678e+00	-5.531453e+02
7.900000e-07	-3.025736e-07	-7.538661e-09	-2.162456e+00	-4.991193e+02
8.000000e-07	-1.909493e-07	-6.690746e-09	-1.364690e+00	-4.433761e+02
8.100000e-07	-7.923841e-08	-5.821705e-09	-5.663071e-01	-3.862962e+02
8.200000e-07	3.254501e-08	-4.937519e-09	2.325951e-01	-3.282538e+02
8.300000e-07	1.443267e-07	-4.043286e-09	1.031485e+00	-2.695582e+02
8.400000e-07	2.561250e-07	-3.143817e-09	1.830493e+00	-2.104018e+02
8.500000e-07	3.678668e-07	-2.239263e-09	2.629098e+00	-1.508290e+02
8.600000e-07	4.794917e-07	-1.326257e-09	3.426868e+00	-9.073360e+01
8.700000e-07	5.910069e-07	-4.003427e-10	4.223852e+00	-2.988882e+01
8.800000e-07	7.023555e-07	5.431761e-10	5.019647e+00	3.199353e+01
8.900000e-07	8.134667e-07	1.506494e-09	5.813745e+00	9.518475e+01
9.000000e-07	9.242948e-07	2.489989e-09	6.605819e+00	1.598562e+02
9.100000e-07	1.034814e-06	3.495877e-09	7.395683e+00	2.260079e+02
9.200000e-07	1.144989e-06	4.520909e-09	8.183096e+00	2.934231e+02
9.300000e-07	1.254824e-06	5.559135e-09	8.968068e+00	3.616590e+02
9.400000e-07	1.364262e-06	6.602369e-09	9.750214e+00	4.300754e+02
9.500000e-07	1.473226e-06	7.635816e-09	1.052896e+01	4.978971e+02
9.600000e-07	1.581682e-06	8.647053e-09	1.130409e+01	5.642992e+02
9.700000e-07	1.689658e-06	9.622857e-09	1.207577e+01	6.284981e+02
9.800000e-07	1.797067e-06	1.055055e-08	1.284341e+01	6.898342e+02
9.900000e-07	1.903759e-06	1.142444e-08	1.360593e+01	7.478309e+02
1.000000e-06	2.009670e-06	1.224664e-08	1.436286e+01	8.022234e+02
1.010000e-06	2.114678e-06	1.301653e-08	1.511334e+01	8.529537e+02
1.020000e-06	2.218773e-06	1.373222e-08	1.585729e+01	9.001375e+02
1.030000e-06	2.322045e-06	1.439605e-08	1.659537e+01	9.440129e+02
1.040000e-06	2.424451e-06	1.501497e-08	1.732725e+01	9.848816e+02
1.050000e-06	2.526039e-06	1.559438e-08	1.805328e+01	1.023056e+03
1.060000e-06	2.626829e-06	1.613810e-08	1.877362e+01	1.058820e+03
1.070000e-06	2.726766e-06	1.664692e-08	1.948786e+01	1.092406e+03
1.080000e-06	2.825762e-06	1.712458e-08	2.019537e+01	1.123994e+03
1.090000e-06	2.923657e-06	1.757254e-08	2.089501e+01	1.153721e+03
1.100000e-06	3.020294e-06	1.799296e-08	2.158566e+01	1.181701e+03
1.110000e-06	3.115763e-06	1.839060e-08	2.226797e+01	1.208038e+03
1.120000e-06	3.210212e-06	1.876808e-08	2.294298e+01	1.232844e+03
1.130000e-06	3.303596e-06	1.912566e-08	2.361039e+01	1.256242e+03
1.140000e-06	3.395932e-06	1.946482e-08	2.427030e+01	1.278360e+03
1.150000e-06	3.487258e-06	1.978568e-08	2.492300e+01	1.299324e+03
1.160000e-06	3.577314e-06	2.008782e-08	2.556662e+01	1.319245e+03
1.170000e-06	3.665898e-06	2.037506e-08	2.619972e+01	1.338212e+03
1.180000e-06	3.753129e-06	2.064830e-08	2.682315e+01	1.356287e+03
1.190000e-06	3.839128e-06	2.090874e-08	2.743777e+01	1.373509e+03
1.200000e-06	3.923957e-06	2.115646e-08	2.804403e+01	1.389899e+03
1.210000e-06	4.007547e-06	2.139214e-08	2.864144e+01	1.405476e+03
1.220000e-06	4.089653e-06	2.161453e-08	2.922824e+01	1.420261e+03
1.230000e-06	4.170186e-06	2.182614e-08	2.980380e+01	1.434289e+03
1.240000e-06	4.249144e-06	2.202690e-08	3.036810e+01	1.447607e+03
1.250000e-06	4.326537e-06	2.221770e-08	3.092122e+01	1.460274e+03
1.260000e-06	4.402406e-06	2.240027e-08	3.146345e+01	1.472350e+03
1.270000e-06	4.476531e-06	2.257526e-08	3.199321e+01	1.483892e+03
1.280000e-06	4.548802e-06	2.274330e-08	3.250972e+01	1.494942e+03
1.290000e-06	4.619317e-06	2.290510e-08	3.301368e+01	1.505526e+03
1.300000e-06	4.688239e-06	2.305950e-08	3.350626e+01	1.515651e+03
1.310000e-06	4.755573e-06	2.320667e-08	3.398748e+01	1.525313e+03
1.320000e-06	4.821074e-06	2.334717e-08	3.445562e+01	1.534502e+03
1.330000e-06	4.884721e-06	2.347978e-08	3.491049e+01	1.543208e+03
1.340000e-06	4.946681e-06	2.360542e-08	3.535332e+01	1.551432e+03
1.350000e-06	5.007067e-06	2.372380e-08	3.578488e+01	1.559185e+03
1.360000e-06	5.065746e-06	2.383542e-08	3.620426e+01	1.566487e+03
1.370000e-06	5.122498e-06	2.393913e-08	3.660985e+01	1.573372e+03
1.380000e-06	5.177391e-06	2.403613e-08	3.700217e+01	1.579873e+03
1.390000e-06	5.230404e-06	2.412814e-08	3.738104e+01	1.586025e+03
1.400000e-06	5.281311e-06	2.421683e-08	3.774487e+01	1.591856e+03
1.410000e-06	5.330047e-06	2.430192e-08	3.809318e+01	1.597389e+03
1.420000e-06	5.376728e-06	2.438328e-08	3.842681e+01	1.602638e+03
1.430000e-06	5.421569e-06	2.445881e-08	3.874728e+01	1.607611e+03
1.440000e-06	5.464631e-06	2.452824e-08	3.905503e+01	1.612314e+03
1.450000e-06	5.505665e-06	2.459447e-08	3.934830e+01	1.616749e+03
1.460000e-06	5.544683e-06	2.465847e-08	3.962716e+01	1.620919e+03
1.470000e-06	5.581888e-06	2.472131e-08	3.989306e+01	1.624830e+03
1.480000e-06	5.617299e-06	2.477703e-08	4.014614e+01	1.628482e+03
1.490000e-06	5.650647e-06	2.482577e-08	4.038447e+01	1.631879e+03
1.500000e-06	5.681884e-06	2.487186e-08	4.060772e+01	1.635019e+03
1.510000e-06	5.711268e-06	2.491485e-08	4.081772e+01	1.637900e+03
1.520000e-06	5.738757e-06	2.495480e-08	4.101418e+01	1.640521e+03
1.530000e-06	5.764002e-06	2.499100e-08	4.119461e+01	1.642878e+03
1.540000e-06	5.787003e-06	2.502399e-08	4.135899e+01	1.644973e+03
1.550000e-06	5.808022e-06	2.505246e-08	4.150921e+01	1.646809e+03
1.560000e-06	5.827155e-06	2.507621e-08	4.164595e+01	1.648394e+03
1.570000e-06	5.844249e-06	2.509746e-08	4.176812e+01	1.649738e+03
1.580000e-06	5.859053e-06	2.511390e-08	4.187392e+01	1.650855e+03
1.590000e-06	5.871610e-06	2.512637e-08	4.196366e+01	1.651754e+03
1.600000e-06	5.881862e-06	2.513643e-08	4.203694e+01	1.652447e+03
1.610000e-06	5.889790e-06	2.514433e-08	4.209359e+01	1.652941e+03
1.620000e-06	5.895631e-06	2.515093e-08	4.213534e+01	1.653241e+03
1.630000e-06	5.899559e-06	2.515687e-08	4.216342e+01	1.653351e+03
1.640000e-06	5.901362e-06	2.516088e-08	4.217630e+01	1.653276e+03
1.650000e-06	5.900982e-06	2.516068e-08	4.217358e+01	1.653019e+03
1.660000e-06	5.898676e-06	2.514763e-08	4.215710e+01	1.652585e+03
1.670000e-06	5.894555e-06	2.513459e-08	4.212765e+01	1.651977e+03
1.680000e-06	5.888461e-06	2.512466e-08	4.208410e+01	1.651197e+03
1.690000e-06	5.880334e-06	2.511263e-08	4.202601e+01	1.650241e+03
1.700000e-06	5.870404e-06	2.509964e-08	4.195504e+01	1.649105e+03
1.710000e-06	5.858567e-06	2.508552e-08	4.187045e+01	1.647780e+03
1.720000e-06	5.844542e-06	2.508024e-08	4.177022e+01	1.646258e+03
1.730000e-06	5.828545e-06	2.503443e-08	4.165589e+01	1.644534e+03
1.740000e-06	5.810523e-06	2.491565e-08	4.152708e+01	1.642612e+03
1.750000e-06	5.789784e-06	2.492192e-08	4.137886e+01	1.640506e+03
1.760000e-06	5.766124e-06	2.494110e-08	4.120977e+01	1.638240e+03
1.770000e-06	5.740205e-06	2.490141e-08	4.102453e+01	1.635842e+03
1.780000e-06	5.712948e-06	2.497715e-08	4.082973e+01	1.633344e+03
1.790000e-06	5.684838e-06	2.480053e-08	4.062883e+01	1.630770e+03
1.800000e-06	5.655041e-06	2.467062e-08	4.041587e+01	1.628127e+03
1.810000e-06	5.622753e-06	2.483065e-08	4.018511e+01	1.625408e+03
1.820000e-06	5.588664e-06	2.467887e-08	3.994148e+01	1.622579e+03
1.830000e-06	5.552858e-06	2.470855e-08	3.968558e+01	1.619594e+03
1.840000e-06	5.514814e-06	2.478650e-08	3.941369e+01	1.616393e+03
1.850000e-06	5.474749e-06	2.447714e-08	3.912735e+01	1.612917e+03
1.860000e-06	5.432763e-06	2.451568e-08	3.882728e+01	1.609119e+03
1.870000e-06	5.389058e-06	2.447860e-08	3.851492e+01	1.604970e+03
1.880000e-06	5.343593e-06	2.433915e-08	3.818999e+01	1.600465e+03
1.890000e-06	5.295838e-06	2.441779e-08	3.784869e+01	1.595618e+03
1.900000e-06	5.245989e-06	2.421508e-08	3.749243e+01	1.590464e+03
1.910000e-06	5.194028e-06	2.418851e-08	3.712107e+01	1.585038e+03
1.920000e-06	5.139783e-06	2.415398e-08	3.673339e+01	1.579376e+03
1.930000e-06	5.083640e-06	2.396755e-08	3.633214e+01	1.573498e+03
1.940000e-06	5.025688e-06	2.396473e-08	3.591797e+01	1.567405e+03
1.950000e-06	4.966026e-06	2.379596e-08	3.549157e+01	1.561083e+03
1.960000e-06	4.904514e-06	2.376127e-08	3.505195e+01	1.554504e+03
1.970000e-06	4.840992e-06	2.363676e-08	3.459796e+01	1.547635e+03
1.980000e-06	4.775685e-06	2.346109e-08	3.413123e+01	1.540448e+03
1.990000e-06	4.708762e-06	2.345604e-08	3.365293e+01	1.532927e+03
2.000000e-06	4.640255e-06	2.326886e-08	3.316332e+01	1.525068e+03
2.010000e-06	4.569811e-06	2.317081e-08	3.265987e+01	1.516882e+03
2.020000e-06	4.497542e-06	2.301933e-08	3.214337e+01	1.508384e+03
2.030000e-06	4.423745e-06	2.289275e-08	3.161595e+01	1.499589e+03
2.040000e-06	4.348373e-06	2.280085e-08	3.107728e+01	1.490501e+03
2.050000e-06	4.271317e-06	2.259232e-08	3.052657e+01	1.481114e+03
2.060000e-06	4.192507e-06	2.248149e-08	2.996332e+01	1.471402e+03
2.070000e-06	4.112177e-06	2.230601e-08	2.938921e+01	1.461332e+03
2.080000e-06	4.030465e-06	2.216244e-08	2.880523e+01	1.450865e+03
2.090000e-06	3.947422e-06	2.200175e-08	2.821173e+01	1.439968e+03
2.100000e-06	3.863064e-06	2.182689e-08	2.760883e+01	1.428618e+03
2.110000e-06	3.777158e-06	2.166307e-08	2.699487e+01	1.416805e+03
2.120000e-06	3.689795e-06	2.144354e-08	2.637050e+01	1.404534e+03
2.130000e-06	3.601227e-06	2.126713e-08	2.573752e+01	1.391813e+03
2.140000e-06	3.511466e-06	2.105782e-08	2.509601e+01	1.378649e+03
2.150000e-06	3.420538e-06	2.086348e-08	2.444616e+01	1.365039e+03
2.160000e-06	3.328516e-06	2.065266e-08	2.378849e+01	1.350961e+03
2.170000e-06	3.235313e-06	2.043289e-08	2.312238e+01	1.336376e+03
2.180000e-06	3.140738e-06	2.019786e-08	2.244646e+01	1.321230e+03
2.190000e-06	3.044894e-06	1.995070e-08	2.176148e+01	1.305463e+03
2.200000e-06	2.947997e-06	1.971457e-08	2.106897e+01	1.289017e+03
2.210000e-06	2.850081e-06	1.945416e-08	2.036917e+01	1.271843e+03
2.220000e-06	2.751189e-06	1.918488e-08	1.966241e+01	1.253910e+03
2.230000e-06	2.651429e-06	1.889412e-08	1.894943e+01	1.235196e+03
2.240000e-06	2.550758e-06	1.860034e-08	1.822995e+01	1.215689e+03
2.250000e-06	2.448996e-06	1.828974e-08	1.750267e+01	1.195372e+03
2.260000e-06	2.346134e-06	1.796923e-08	1.676753e+01	1.174212e+03
2.270000e-06	2.242318e-06	1.763808e-08	1.602556e+01	1.152157e+03
2.280000e-06	2.137678e-06	1.729081e-08	1.527772e+01	1.129126e+03
2.290000e-06	2.032297e-06	1.692342e-08	1.452457e+01	1.105018e+03
2.300000e-06	1.926242e-06	1.653262e-08	1.376661e+01	1.079716e+03
2.310000e-06	1.819602e-06	1.612708e-08	1.300447e+01	1.053099e+03
2.320000e-06	1.712454e-06	1.570281e-08	1.223870e+01	1.025050e+03
2.330000e-06	1.604797e-06	1.525836e-08	1.146928e+01	9.954633e+02
2.340000e-06	1.496642e-06	1.478377e-08	1.069631e+01	9.642404e+02
2.350000e-06	1.388055e-06	1.428403e-08	9.920256e+00	9.312857e+02
2.360000e-06	1.279064e-06	1.375451e-08	9.141311e+00	8.964969e+02
2.370000e-06	1.169655e-06	1.319364e-08	8.359382e+00	8.597568e+02
2.380000e-06	1.059866e-06	1.259888e-08	7.574727e+00	8.209325e+02
2.390000e-06	9.497146e-07	1.197168e-08	6.787492e+00	7.798836e+02
2.400000e-06	8.391842e-07	1.131264e-08	5.997545e+00	7.364815e+02
2.410000e-06	7.283770e-07	1.061595e-08	5.205620e+00	6.906371e+02
2.420000e-06	6.173315e-07	9.881722e-09	4.411991e+00	6.423310e+02
2.430000e-06	5.060232e-07	9.109646e-09	3.616484e+00	5.916394e+02
2.440000e-06	3.944931e-07	8.303277e-09	2.819393e+00	5.387465e+02
2.450000e-06	2.828365e-07	7.464834e-09	2.021397e+00	4.839378e+02
2.460000e-06	1.710548e-07	6.603118e-09	1.222507e+00	4.275719e+02
2.470000e-06	5.916105e-08	5.726263e-09	4.228166e-01	3.700338e+02
2.480000e-06	-5.280486e-08	4.836953e-09	-3.773897e-01	3.116772e+02
2.490000e-06	-1.647651e-07	3.935054e-09	-1.177556e+00	2.527665e+02
2.500000e-06	-2.765632e-07	3.024008e-09	-1.976563e+00	1.934331e+02
2.510000e-06	-3.882551e-07	2.107539e-09	-2.774811e+00	1.336551e+02
2.520000e-06	-4.997945e-07	1.182909e-09	-3.571969e+00	7.326933e+01
2.530000e-06	-6.110957e-07	2.467216e-10	-4.367425e+00	1.201387e+01
2.540000e-06	-7.221937e-07	-7.040475e-10	-5.161428e+00	-5.040243e+01
2.550000e-06	-8.330498e-07	-1.675396e-09	-5.953703e+00	-1.142179e+02
2.560000e-06	-9.435420e-07	-2.671635e-09	-6.743377e+00	-1.795379e+02
2.570000e-06	-1.053598e-06	-3.691041e-09	-7.529936e+00	-2.462733e+02
2.580000e-06	-1.163245e-06	-4.726558e-09	-8.313565e+00	-3.141093e+02
2.590000e-06	-1.272483e-06	-5.771761e-09	-9.094279e+00	-3.825128e+02
2.600000e-06	-1.381324e-06	-6.817916e-09	-9.872150e+00	-4.507764e+02
2.610000e-06	-1.489703e-06	-7.852070e-09	-1.064672e+01	-5.180927e+02
2.620000e-06	-1.597574e-06	-8.859879e-09	-1.141767e+01	-5.836432e+02
2.630000e-06	-1.704911e-06	-9.825989e-09	-1.218479e+01	-6.466886e+02
2.640000e-06	-1.811661e-06	-1.074224e-08	-1.294771e+01	-7.066420e+02
2.650000e-06	-1.917829e-06	-1.160593e-08	-1.370649e+01	-7.631162e+02
2.660000e-06	-2.023366e-06	-1.241586e-08	-1.446075e+01	-8.159374e+02
2.670000e-06	-2.128147e-06	-1.317194e-08	-1.520960e+01	-8.651274e+02
2.680000e-06	-2.232111e-06	-1.387538e-08	-1.595262e+01	-9.108613e+02
2.690000e-06	-2.335184e-06	-1.453079e-08	-1.668927e+01	-9.534117e+02
2.700000e-06	-2.437220e-06	-1.514205e-08	-1.741851e+01	-9.930907e+02
2.710000e-06	-2.538236e-06	-1.571327e-08	-1.814045e+01	-1.030202e+03
2.720000e-06	-2.638355e-06	-1.624793e-08	-1.885599e+01	-1.065009e+03
2.730000e-06	-2.737563e-06	-1.674856e-08	-1.956502e+01	-1.097722e+03
2.740000e-06	-2.835843e-06	-1.721952e-08	-2.026741e+01	-1.128500e+03
2.750000e-06	-2.933176e-06	-1.766285e-08	-2.096304e+01	-1.157468e+03
2.760000e-06	-3.029587e-06	-1.808017e-08	-2.165208e+01	-1.184733e+03
2.770000e-06	-3.125075e-06	-1.847542e-08	-2.233452e+01	-1.210401e+03
2.780000e-06	-3.219401e-06	-1.884823e-08	-2.300866e+01	-1.234591e+03
2.790000e-06	-3.312495e-06	-1.919657e-08	-2.367399e+01	-1.257427e+03
2.800000e-06	-3.404359e-06	-1.952468e-08	-2.433053e+01	-1.279037e+03
2.810000e-06	-3.494960e-06	-1.983626e-08	-2.497805e+01	-1.299544e+03
2.820000e-06	-3.584355e-06	-2.013524e-08	-2.561694e+01	-1.319049e+03
2.830000e-06	-3.672583e-06	-2.042093e-08	-2.624749e+01	-1.337630e+03
2.840000e-06	-3.759493e-06	-2.069336e-08	-2.686863e+01	-1.355338e+03
2.850000e-06	-3.844881e-06	-2.095304e-08	-2.747889e+01	-1.372204e+03
2.860000e-06	-3.928876e-06	-2.119867e-08	-2.807919e+01	-1.388246e+03
2.870000e-06	-4.011582e-06	-2.143217e-08	-2.867028e+01	-1.403482e+03
2.880000e-06	-4.092945e-06	-2.165522e-08	-2.925177e+01	-1.417940e+03
2.890000e-06	-4.172883e-06	-2.186857e-08	-2.982307e+01	-1.431659e+03
2.900000e-06	-4.251134e-06	-2.207062e-08	-3.038233e+01	-1.444693e+03
2.910000e-06	-4.327565e-06	-2.226168e-08	-3.092857e+01	-1.457101e+03
2.920000e-06	-4.402340e-06	-2.244241e-08	-3.146298e+01	-1.468945e+03
2.930000e-06	-4.475513e-06	-2.261574e-08	-3.198593e+01	-1.480274e+03
2.940000e-06	-4.547092e-06	-2.278256e-08	-3.249750e+01	-1.491124e+03
