# Temperatura_=_27.04
# Concentracion g/m^3_=_28200.0
# C_Vs_to_Am_M_A/Vsm_=_65563218390.804596
# pendiente_HvsI_1/m_=_3716.3
# ordenada_HvsI_A/m_=_1297.0
# frecuencia_Hz_=_301959.2705087556

Tiempo_(s)	Campo_(V.s)	Magnetizacion_(V.s)	Campo_(kA/m)	Magnetizacion_(A/m)
0.000000e+00	-5.860867e-06	-2.150413e-08	-4.192399e+01	-1.406203e+03
1.000000e-08	-5.857443e-06	-2.150005e-08	-4.189950e+01	-1.405837e+03
2.000000e-08	-5.852143e-06	-2.148901e-08	-4.186159e+01	-1.405345e+03
3.000000e-08	-5.845133e-06	-2.147740e-08	-4.181144e+01	-1.404707e+03
4.000000e-08	-5.836275e-06	-2.146107e-08	-4.174808e+01	-1.403902e+03
5.000000e-08	-5.825203e-06	-2.144142e-08	-4.166887e+01	-1.402912e+03
6.000000e-08	-5.811941e-06	-2.142201e-08	-4.157401e+01	-1.401728e+03
7.000000e-08	-5.796464e-06	-2.139296e-08	-4.146330e+01	-1.400356e+03
8.000000e-08	-5.778756e-06	-2.139511e-08	-4.133663e+01	-1.398814e+03
9.000000e-08	-5.759011e-06	-2.143644e-08	-4.119540e+01	-1.397136e+03
1.000000e-07	-5.737102e-06	-2.137948e-08	-4.103867e+01	-1.395360e+03
1.100000e-07	-5.713041e-06	-2.130279e-08	-4.086656e+01	-1.393524e+03
1.200000e-07	-5.686846e-06	-2.128282e-08	-4.067918e+01	-1.391656e+03
1.300000e-07	-5.658923e-06	-2.116659e-08	-4.047944e+01	-1.389765e+03
1.400000e-07	-5.629615e-06	-2.112375e-08	-4.026980e+01	-1.387840e+03
1.500000e-07	-5.598652e-06	-2.125202e-08	-4.004831e+01	-1.385849e+03
1.600000e-07	-5.565859e-06	-2.111660e-08	-3.981373e+01	-1.383744e+03
1.700000e-07	-5.531133e-06	-2.110705e-08	-3.956533e+01	-1.381471e+03
1.800000e-07	-5.494410e-06	-2.117220e-08	-3.930265e+01	-1.378975e+03
1.900000e-07	-5.455777e-06	-2.092933e-08	-3.902629e+01	-1.376215e+03
2.000000e-07	-5.415290e-06	-2.090521e-08	-3.873668e+01	-1.373166e+03
2.100000e-07	-5.372692e-06	-2.089345e-08	-3.843197e+01	-1.369826e+03
2.200000e-07	-5.328036e-06	-2.080508e-08	-3.811254e+01	-1.366209e+03
2.300000e-07	-5.281382e-06	-2.082781e-08	-3.777882e+01	-1.362343e+03
2.400000e-07	-5.232441e-06	-2.074888e-08	-3.742873e+01	-1.358262e+03
2.500000e-07	-5.181142e-06	-2.065315e-08	-3.706177e+01	-1.353993e+03
2.600000e-07	-5.127622e-06	-2.057578e-08	-3.667894e+01	-1.349557e+03
2.700000e-07	-5.072289e-06	-2.048181e-08	-3.628313e+01	-1.344955e+03
2.800000e-07	-5.015167e-06	-2.045999e-08	-3.587452e+01	-1.340178e+03
2.900000e-07	-4.956060e-06	-2.038015e-08	-3.545172e+01	-1.335204e+03
3.000000e-07	-4.895143e-06	-2.028649e-08	-3.501597e+01	-1.330006e+03
3.100000e-07	-4.832511e-06	-2.018561e-08	-3.456794e+01	-1.324558e+03
3.200000e-07	-4.768125e-06	-2.009942e-08	-3.410738e+01	-1.318843e+03
3.300000e-07	-4.701887e-06	-2.002179e-08	-3.363357e+01	-1.312852e+03
3.400000e-07	-4.633850e-06	-1.990510e-08	-3.314689e+01	-1.306587e+03
3.500000e-07	-4.564153e-06	-1.983687e-08	-3.264833e+01	-1.300056e+03
3.600000e-07	-4.492952e-06	-1.971677e-08	-3.213901e+01	-1.293268e+03
3.700000e-07	-4.420203e-06	-1.959182e-08	-3.161862e+01	-1.286229e+03
3.800000e-07	-4.345555e-06	-1.949557e-08	-3.108465e+01	-1.278936e+03
3.900000e-07	-4.269072e-06	-1.938359e-08	-3.053755e+01	-1.271376e+03
4.000000e-07	-4.190899e-06	-1.927235e-08	-2.997837e+01	-1.263527e+03
4.100000e-07	-4.111000e-06	-1.913232e-08	-2.940683e+01	-1.255362e+03
4.200000e-07	-4.029615e-06	-1.899765e-08	-2.882467e+01	-1.246853e+03
4.300000e-07	-3.946986e-06	-1.885753e-08	-2.823360e+01	-1.237974e+03
4.400000e-07	-3.863174e-06	-1.872240e-08	-2.763408e+01	-1.228709e+03
4.500000e-07	-3.778168e-06	-1.858426e-08	-2.702601e+01	-1.219049e+03
4.600000e-07	-3.691916e-06	-1.842074e-08	-2.640904e+01	-1.208993e+03
4.700000e-07	-3.604507e-06	-1.825221e-08	-2.578378e+01	-1.198540e+03
4.800000e-07	-3.515889e-06	-1.807991e-08	-2.514988e+01	-1.187690e+03
4.900000e-07	-3.425764e-06	-1.791649e-08	-2.450520e+01	-1.176432e+03
5.000000e-07	-3.334248e-06	-1.774803e-08	-2.385056e+01	-1.164746e+03
5.100000e-07	-3.241580e-06	-1.756418e-08	-2.318769e+01	-1.152603e+03
5.200000e-07	-3.147769e-06	-1.736247e-08	-2.251664e+01	-1.139962e+03
5.300000e-07	-3.052892e-06	-1.714773e-08	-2.183796e+01	-1.126777e+03
5.400000e-07	-2.956970e-06	-1.693112e-08	-2.115181e+01	-1.113005e+03
5.500000e-07	-2.859824e-06	-1.671457e-08	-2.045691e+01	-1.098602e+03
5.600000e-07	-2.761393e-06	-1.649225e-08	-1.975281e+01	-1.083534e+03
5.700000e-07	-2.661885e-06	-1.625153e-08	-1.904101e+01	-1.067772e+03
5.800000e-07	-2.561449e-06	-1.598933e-08	-1.832257e+01	-1.051287e+03
5.900000e-07	-2.460104e-06	-1.571726e-08	-1.759763e+01	-1.034052e+03
6.000000e-07	-2.357795e-06	-1.544271e-08	-1.686580e+01	-1.016033e+03
6.100000e-07	-2.254666e-06	-1.516319e-08	-1.612809e+01	-9.971842e+02
6.200000e-07	-2.150889e-06	-1.486727e-08	-1.538575e+01	-9.774472e+02
6.300000e-07	-2.046350e-06	-1.454805e-08	-1.463796e+01	-9.567521e+02
6.400000e-07	-1.940839e-06	-1.420681e-08	-1.388322e+01	-9.350183e+02
6.500000e-07	-1.834414e-06	-1.385025e-08	-1.312194e+01	-9.121588e+02
6.600000e-07	-1.727289e-06	-1.348375e-08	-1.235565e+01	-8.880830e+02
6.700000e-07	-1.619607e-06	-1.310004e-08	-1.158539e+01	-8.626991e+02
6.800000e-07	-1.511441e-06	-1.269112e-08	-1.081165e+01	-8.359147e+02
6.900000e-07	-1.402797e-06	-1.225579e-08	-1.003449e+01	-8.076357e+02
7.000000e-07	-1.293706e-06	-1.179435e-08	-9.254147e+00	-7.777659e+02
7.100000e-07	-1.184230e-06	-1.130800e-08	-8.471041e+00	-7.462076e+02
7.200000e-07	-1.074415e-06	-1.079951e-08	-7.685515e+00	-7.128663e+02
7.300000e-07	-9.642417e-07	-1.026561e-08	-6.897420e+00	-6.776596e+02
7.400000e-07	-8.537189e-07	-9.701290e-09	-6.106827e+00	-6.405309e+02
7.500000e-07	-7.429151e-07	-9.103755e-09	-5.314225e+00	-6.014661e+02
7.600000e-07	-6.318747e-07	-8.475735e-09	-4.519930e+00	-5.605098e+02
7.700000e-07	-5.206911e-07	-7.822622e-09	-3.724610e+00	-5.177785e+02
7.800000e-07	-4.094129e-07	-7.148074e-09	-2.928615e+00	-4.734645e+02
7.900000e-07	-2.980199e-07	-6.455756e-09	-2.131798e+00	-4.278298e+02
8.000000e-07	-1.864859e-07	-5.745431e-09	-1.333972e+00	-3.811861e+02
8.100000e-07	-7.486898e-08	-5.022910e-09	-5.355532e-01	-3.338645e+02
8.200000e-07	3.675244e-08	-4.297493e-09	2.628978e-01	-2.861766e+02
8.300000e-07	1.483949e-07	-3.572800e-09	1.061499e+00	-2.383740e+02
8.400000e-07	2.600151e-07	-2.848415e-09	1.859942e+00	-1.906131e+02
8.500000e-07	3.715825e-07	-2.122730e-09	2.658006e+00	-1.429324e+02
8.600000e-07	4.830194e-07	-1.396285e-09	3.455137e+00	-9.524669e+01
8.700000e-07	5.942869e-07	-6.655192e-10	4.251057e+00	-4.736255e+01
8.800000e-07	7.054420e-07	7.295496e-11	5.046172e+00	9.877101e-01
8.900000e-07	8.164451e-07	8.196281e-10	5.840200e+00	5.009661e+01
9.000000e-07	9.271773e-07	1.580747e-09	6.632290e+00	1.002248e+02
9.100000e-07	1.037615e-06	2.363236e-09	7.422276e+00	1.515459e+02
9.200000e-07	1.147720e-06	3.165454e-09	8.209877e+00	2.041018e+02
9.300000e-07	1.257429e-06	3.981993e-09	8.994646e+00	2.577761e+02
9.400000e-07	1.366727e-06	4.808780e-09	9.776483e+00	3.122897e+02
9.500000e-07	1.475584e-06	5.640086e-09	1.055515e+01	3.672198e+02
9.600000e-07	1.583955e-06	6.472573e-09	1.133036e+01	4.220386e+02
9.700000e-07	1.691801e-06	7.299006e-09	1.210180e+01	4.761650e+02
9.800000e-07	1.799076e-06	8.105560e-09	1.286916e+01	5.290223e+02
9.900000e-07	1.905747e-06	8.880959e-09	1.363220e+01	5.800919e+02
1.000000e-06	2.011665e-06	9.619868e-09	1.438985e+01	6.289553e+02
1.010000e-06	2.116610e-06	1.031989e-08	1.514055e+01	6.753210e+02
1.020000e-06	2.220594e-06	1.098015e-08	1.588436e+01	7.190321e+02
1.030000e-06	2.323735e-06	1.159894e-08	1.662216e+01	7.600573e+02
1.040000e-06	2.426044e-06	1.217914e-08	1.735399e+01	7.984685e+02
1.050000e-06	2.527463e-06	1.272313e-08	1.807946e+01	8.344100e+02
1.060000e-06	2.628043e-06	1.323351e-08	1.879893e+01	8.680668e+02
1.070000e-06	2.727860e-06	1.371170e-08	1.951294e+01	8.996352e+02
1.080000e-06	2.826760e-06	1.416150e-08	2.022040e+01	9.293017e+02
1.090000e-06	2.924473e-06	1.458698e-08	2.091936e+01	9.572295e+02
1.100000e-06	3.020908e-06	1.498686e-08	2.160918e+01	9.835552e+02
1.110000e-06	3.116249e-06	1.536167e-08	2.229117e+01	1.008391e+03
1.120000e-06	3.210555e-06	1.571566e-08	2.296576e+01	1.031830e+03
1.130000e-06	3.303814e-06	1.605142e-08	2.363286e+01	1.053958e+03
1.140000e-06	3.396094e-06	1.636961e-08	2.429296e+01	1.074855e+03
1.150000e-06	3.487263e-06	1.666894e-08	2.494511e+01	1.094602e+03
1.160000e-06	3.577108e-06	1.695096e-08	2.558779e+01	1.113278e+03
1.170000e-06	3.665523e-06	1.722066e-08	2.622024e+01	1.130965e+03
1.180000e-06	3.752634e-06	1.747511e-08	2.684337e+01	1.147736e+03
1.190000e-06	3.838546e-06	1.771692e-08	2.745791e+01	1.163657e+03
1.200000e-06	3.923234e-06	1.794590e-08	2.806370e+01	1.178784e+03
1.210000e-06	4.006631e-06	1.816365e-08	2.866026e+01	1.193163e+03
1.220000e-06	4.088607e-06	1.836891e-08	2.924665e+01	1.206829e+03
1.230000e-06	4.169050e-06	1.856179e-08	2.982207e+01	1.219814e+03
1.240000e-06	4.247912e-06	1.874551e-08	3.038619e+01	1.232146e+03
1.250000e-06	4.325223e-06	1.892140e-08	3.093921e+01	1.243854e+03
1.260000e-06	4.400973e-06	1.909080e-08	3.148107e+01	1.254965e+03
1.270000e-06	4.474961e-06	1.925270e-08	3.201032e+01	1.265511e+03
1.280000e-06	4.547057e-06	1.940731e-08	3.252604e+01	1.275520e+03
1.290000e-06	4.617448e-06	1.955470e-08	3.302956e+01	1.285019e+03
1.300000e-06	4.686256e-06	1.969366e-08	3.352176e+01	1.294032e+03
1.310000e-06	4.753425e-06	1.982254e-08	3.400223e+01	1.302575e+03
1.320000e-06	4.818811e-06	1.994274e-08	3.446994e+01	1.310663e+03
1.330000e-06	4.882356e-06	2.005524e-08	3.492450e+01	1.318308e+03
1.340000e-06	4.944209e-06	2.016252e-08	3.536694e+01	1.325521e+03
1.350000e-06	5.004502e-06	2.026512e-08	3.579823e+01	1.332319e+03
1.360000e-06	5.063076e-06	2.036341e-08	3.621723e+01	1.338724e+03
1.370000e-06	5.119761e-06	2.045555e-08	3.662271e+01	1.344762e+03
1.380000e-06	5.174601e-06	2.054161e-08	3.701499e+01	1.350466e+03
1.390000e-06	5.227550e-06	2.062349e-08	3.739374e+01	1.355869e+03
1.400000e-06	5.278303e-06	2.069995e-08	3.775679e+01	1.361003e+03
1.410000e-06	5.326806e-06	2.077302e-08	3.810374e+01	1.365892e+03
1.420000e-06	5.373363e-06	2.084427e-08	3.843678e+01	1.370551e+03
1.430000e-06	5.418191e-06	2.091134e-08	3.875744e+01	1.374985e+03
1.440000e-06	5.461240e-06	2.097303e-08	3.906537e+01	1.379186e+03
1.450000e-06	5.502243e-06	2.103219e-08	3.935868e+01	1.383141e+03
1.460000e-06	5.541221e-06	2.109033e-08	3.963750e+01	1.386835e+03
1.470000e-06	5.578354e-06	2.114304e-08	3.990312e+01	1.390254e+03
1.480000e-06	5.613611e-06	2.118902e-08	4.015531e+01	1.393390e+03
1.490000e-06	5.646758e-06	2.123085e-08	4.039242e+01	1.396245e+03
1.500000e-06	5.677867e-06	2.126903e-08	4.061495e+01	1.398831e+03
1.510000e-06	5.707169e-06	2.130374e-08	4.082456e+01	1.401166e+03
1.520000e-06	5.734534e-06	2.133460e-08	4.102030e+01	1.403274e+03
1.530000e-06	5.759676e-06	2.136270e-08	4.120015e+01	1.405176e+03
1.540000e-06	5.782622e-06	2.138827e-08	4.136429e+01	1.406889e+03
1.550000e-06	5.803622e-06	2.141089e-08	4.151450e+01	1.408421e+03
1.560000e-06	5.822724e-06	2.143124e-08	4.165115e+01	1.409776e+03
1.570000e-06	5.839710e-06	2.144884e-08	4.177265e+01	1.410948e+03
1.580000e-06	5.854396e-06	2.146297e-08	4.187770e+01	1.411930e+03
1.590000e-06	5.866922e-06	2.147338e-08	4.196730e+01	1.412718e+03
1.600000e-06	5.877087e-06	2.148078e-08	4.204001e+01	1.413309e+03
1.610000e-06	5.884875e-06	2.148629e-08	4.209572e+01	1.413713e+03
1.620000e-06	5.890615e-06	2.149078e-08	4.213678e+01	1.413942e+03
1.630000e-06	5.894434e-06	2.149496e-08	4.216410e+01	1.414015e+03
1.640000e-06	5.896139e-06	2.149908e-08	4.217630e+01	1.413952e+03
1.650000e-06	5.895632e-06	2.150025e-08	4.217267e+01	1.413768e+03
1.660000e-06	5.893152e-06	2.149003e-08	4.215493e+01	1.413468e+03
1.670000e-06	5.888855e-06	2.148161e-08	4.212419e+01	1.413048e+03
1.680000e-06	5.882589e-06	2.147364e-08	4.207937e+01	1.412495e+03
1.690000e-06	5.874350e-06	2.146280e-08	4.202044e+01	1.411786e+03
1.700000e-06	5.864361e-06	2.145170e-08	4.194898e+01	1.410902e+03
1.710000e-06	5.852439e-06	2.144092e-08	4.186370e+01	1.409828e+03
1.720000e-06	5.838310e-06	2.144541e-08	4.176264e+01	1.408560e+03
1.730000e-06	5.822188e-06	2.139631e-08	4.164731e+01	1.407110e+03
1.740000e-06	5.804062e-06	2.129190e-08	4.151765e+01	1.405504e+03
1.750000e-06	5.783235e-06	2.131016e-08	4.136867e+01	1.403778e+03
1.760000e-06	5.759552e-06	2.131802e-08	4.119926e+01	1.401971e+03
1.770000e-06	5.733663e-06	2.129219e-08	4.101407e+01	1.400117e+03
1.780000e-06	5.706384e-06	2.138360e-08	4.081894e+01	1.398237e+03
1.790000e-06	5.678239e-06	2.120991e-08	4.061762e+01	1.396333e+03
1.800000e-06	5.648416e-06	2.112714e-08	4.040428e+01	1.394383e+03
1.810000e-06	5.616165e-06	2.125230e-08	4.017358e+01	1.392348e+03
1.820000e-06	5.582151e-06	2.106422e-08	3.993028e+01	1.390177e+03
1.830000e-06	5.546313e-06	2.115025e-08	3.967392e+01	1.387812e+03
1.840000e-06	5.508122e-06	2.124926e-08	3.940073e+01	1.385206e+03
1.850000e-06	5.467916e-06	2.103329e-08	3.911313e+01	1.382322e+03
1.860000e-06	5.425841e-06	2.110628e-08	3.881216e+01	1.379147e+03
1.870000e-06	5.382112e-06	2.097464e-08	3.849936e+01	1.375683e+03
1.880000e-06	5.336671e-06	2.083229e-08	3.817430e+01	1.371954e+03
1.890000e-06	5.288938e-06	2.089959e-08	3.783287e+01	1.367990e+03
1.900000e-06	5.239094e-06	2.074320e-08	3.747632e+01	1.363824e+03
1.910000e-06	5.187158e-06	2.081304e-08	3.710481e+01	1.359481e+03
1.920000e-06	5.132988e-06	2.072514e-08	3.671732e+01	1.354972e+03
1.930000e-06	5.076879e-06	2.054226e-08	3.631596e+01	1.350296e+03
1.940000e-06	5.018901e-06	2.056686e-08	3.590123e+01	1.345436e+03
1.950000e-06	4.959180e-06	2.040812e-08	3.547404e+01	1.340368e+03
1.960000e-06	4.897642e-06	2.039995e-08	3.503384e+01	1.335064e+03
1.970000e-06	4.834163e-06	2.030609e-08	3.457976e+01	1.329502e+03
1.980000e-06	4.768882e-06	2.018801e-08	3.411280e+01	1.323668e+03
1.990000e-06	4.701964e-06	2.014266e-08	3.363412e+01	1.317557e+03
2.000000e-06	4.633532e-06	1.997005e-08	3.314461e+01	1.311175e+03
2.010000e-06	4.563188e-06	1.995392e-08	3.264142e+01	1.304532e+03
2.020000e-06	4.490978e-06	1.981593e-08	3.212489e+01	1.297634e+03
2.030000e-06	4.417237e-06	1.970327e-08	3.159741e+01	1.290485e+03
2.040000e-06	4.341963e-06	1.961334e-08	3.105896e+01	1.283079e+03
2.050000e-06	4.264998e-06	1.945133e-08	3.050841e+01	1.275396e+03
2.060000e-06	4.186188e-06	1.937501e-08	2.994466e+01	1.267414e+03
2.070000e-06	4.105840e-06	1.921835e-08	2.936992e+01	1.259103e+03
2.080000e-06	4.024106e-06	1.911609e-08	2.878526e+01	1.250437e+03
2.090000e-06	3.941040e-06	1.895632e-08	2.819107e+01	1.241392e+03
2.100000e-06	3.856720e-06	1.880049e-08	2.758791e+01	1.231957e+03
2.110000e-06	3.770905e-06	1.867907e-08	2.697406e+01	1.222126e+03
2.120000e-06	3.683597e-06	1.852167e-08	2.634953e+01	1.211898e+03
2.130000e-06	3.595055e-06	1.838200e-08	2.571617e+01	1.201274e+03
2.140000e-06	3.505351e-06	1.818765e-08	2.507450e+01	1.190249e+03
2.150000e-06	3.414440e-06	1.802056e-08	2.442419e+01	1.178809e+03
2.160000e-06	3.322413e-06	1.782971e-08	2.376590e+01	1.166930e+03
2.170000e-06	3.229098e-06	1.764604e-08	2.309840e+01	1.154577e+03
2.180000e-06	3.134354e-06	1.746065e-08	2.242068e+01	1.141708e+03
2.190000e-06	3.038445e-06	1.726086e-08	2.173462e+01	1.128275e+03
2.200000e-06	2.941532e-06	1.704851e-08	2.104138e+01	1.114236e+03
2.210000e-06	2.843609e-06	1.680924e-08	2.034092e+01	1.099550e+03
2.220000e-06	2.744714e-06	1.658447e-08	1.963351e+01	1.084187e+03
2.230000e-06	2.644969e-06	1.635040e-08	1.892001e+01	1.068116e+03
2.240000e-06	2.544345e-06	1.610694e-08	1.820023e+01	1.051312e+03
2.250000e-06	2.442608e-06	1.583286e-08	1.747248e+01	1.033745e+03
2.260000e-06	2.339768e-06	1.554612e-08	1.673685e+01	1.015375e+03
2.270000e-06	2.236017e-06	1.524902e-08	1.599469e+01	9.961514e+02
2.280000e-06	2.131469e-06	1.494283e-08	1.524684e+01	9.760115e+02
2.290000e-06	2.026158e-06	1.462600e-08	1.449352e+01	9.548800e+02
2.300000e-06	1.920116e-06	1.429497e-08	1.373498e+01	9.326731e+02
2.310000e-06	1.813468e-06	1.394432e-08	1.297211e+01	9.093020e+02
2.320000e-06	1.706315e-06	1.356335e-08	1.220562e+01	8.846753e+02
2.330000e-06	1.598719e-06	1.316569e-08	1.143597e+01	8.587011e+02
2.340000e-06	1.490648e-06	1.275148e-08	1.066291e+01	8.312863e+02
2.350000e-06	1.382158e-06	1.231972e-08	9.886859e+00	8.023359e+02
2.360000e-06	1.273285e-06	1.185584e-08	9.108066e+00	7.717528e+02
2.370000e-06	1.163996e-06	1.136246e-08	8.326301e+00	7.394399e+02
2.380000e-06	1.054342e-06	1.083894e-08	7.541924e+00	7.053065e+02
2.390000e-06	9.443213e-07	1.028669e-08	6.754925e+00	6.692794e+02
2.400000e-06	8.339366e-07	9.708061e-09	5.965320e+00	6.313181e+02
2.410000e-06	7.232871e-07	9.102210e-09	5.173821e+00	5.914317e+02
2.420000e-06	6.123811e-07	8.469429e-09	4.380488e+00	5.496945e+02
2.430000e-06	5.012083e-07	7.806376e-09	3.585246e+00	5.062554e+02
2.440000e-06	3.898446e-07	7.118317e-09	2.788639e+00	4.613383e+02
2.450000e-06	2.783511e-07	6.410985e-09	1.991103e+00	4.152295e+02
2.460000e-06	1.667286e-07	5.693586e-09	1.192644e+00	3.682534e+02
2.470000e-06	5.503525e-08	4.967132e-09	3.936785e-01	3.207377e+02
2.480000e-06	-5.671681e-08	4.236147e-09	-4.057070e-01	2.729731e+02
2.490000e-06	-1.684302e-07	3.506619e-09	-1.204816e+00	2.251742e+02
2.500000e-06	-2.800102e-07	2.778622e-09	-2.002971e+00	1.774488e+02
2.510000e-06	-3.915321e-07	2.051897e-09	-2.800710e+00	1.297817e+02
2.520000e-06	-5.028845e-07	1.322471e-09	-3.597237e+00	8.203841e+01
2.530000e-06	-6.140216e-07	5.861479e-10	-4.392223e+00	3.398844e+01
2.540000e-06	-7.249555e-07	-1.603120e-10	-5.185756e+00	-1.465320e+01
2.550000e-06	-8.355825e-07	-9.180872e-10	-5.977094e+00	-6.417246e+01
2.560000e-06	-9.458140e-07	-1.689656e-09	-6.765602e+00	-1.147990e+02
2.570000e-06	-1.055667e-06	-2.477789e-09	-7.551406e+00	-1.666546e+02
2.580000e-06	-1.165182e-06	-3.285104e-09	-8.334784e+00	-2.197153e+02
2.590000e-06	-1.274295e-06	-4.112075e-09	-9.115294e+00	-2.737940e+02
2.600000e-06	-1.382973e-06	-4.951452e-09	-9.892688e+00	-3.285466e+02
2.610000e-06	-1.491245e-06	-5.794857e-09	-1.066718e+01	-3.834996e+02
2.620000e-06	-1.599051e-06	-6.631120e-09	-1.143834e+01	-4.380953e+02
2.630000e-06	-1.706357e-06	-7.452117e-09	-1.220592e+01	-4.917478e+02
2.640000e-06	-1.813117e-06	-8.251928e-09	-1.296960e+01	-5.438990e+02
2.650000e-06	-1.919215e-06	-9.022608e-09	-1.372854e+01	-5.940688e+02
2.660000e-06	-2.024572e-06	-9.757777e-09	-1.448218e+01	-6.418911e+02
2.670000e-06	-2.129158e-06	-1.045107e-08	-1.523030e+01	-6.871322e+02
2.680000e-06	-2.232935e-06	-1.110206e-08	-1.597264e+01	-7.296909e+02
2.690000e-06	-2.335841e-06	-1.171303e-08	-1.670875e+01	-7.695836e+02
2.700000e-06	-2.437775e-06	-1.228838e-08	-1.743791e+01	-8.069171e+02
2.710000e-06	-2.538723e-06	-1.282874e-08	-1.816001e+01	-8.418571e+02
2.720000e-06	-2.638717e-06	-1.333174e-08	-1.887528e+01	-8.745966e+02
2.730000e-06	-2.737802e-06	-1.380259e-08	-1.958406e+01	-9.053297e+02
2.740000e-06	-2.835996e-06	-1.424538e-08	-2.028646e+01	-9.342342e+02
2.750000e-06	-2.933266e-06	-1.466335e-08	-2.098226e+01	-9.614618e+02
2.760000e-06	-3.029640e-06	-1.505980e-08	-2.167164e+01	-9.871379e+02
2.770000e-06	-3.125050e-06	-1.543437e-08	-2.235413e+01	-1.011366e+03
2.780000e-06	-3.219320e-06	-1.578394e-08	-2.302846e+01	-1.034235e+03
2.790000e-06	-3.312309e-06	-1.610955e-08	-2.369363e+01	-1.055827e+03
2.800000e-06	-3.404044e-06	-1.641754e-08	-2.434983e+01	-1.076222e+03
2.810000e-06	-3.494531e-06	-1.671281e-08	-2.499710e+01	-1.095502e+03
2.820000e-06	-3.583811e-06	-1.699417e-08	-2.563574e+01	-1.113747e+03
2.830000e-06	-3.671905e-06	-1.726086e-08	-2.626589e+01	-1.131034e+03
2.840000e-06	-3.758665e-06	-1.751474e-08	-2.688651e+01	-1.147435e+03
2.850000e-06	-3.843961e-06	-1.775541e-08	-2.749665e+01	-1.163011e+03
2.860000e-06	-3.927872e-06	-1.798561e-08	-2.809688e+01	-1.177813e+03
2.870000e-06	-4.010485e-06	-1.820475e-08	-2.868782e+01	-1.191884e+03
2.880000e-06	-4.091712e-06	-1.841043e-08	-2.926886e+01	-1.205256e+03
2.890000e-06	-4.171492e-06	-1.860342e-08	-2.983954e+01	-1.217960e+03
2.900000e-06	-4.249594e-06	-1.878582e-08	-3.039822e+01	-1.230023e+03
2.910000e-06	-4.325889e-06	-1.896112e-08	-3.094398e+01	-1.241472e+03
2.920000e-06	-4.400543e-06	-1.912817e-08	-3.147799e+01	-1.252339e+03
2.930000e-06	-4.473634e-06	-1.928669e-08	-3.200082e+01	-1.262653e+03
2.940000e-06	-4.545100e-06	-1.943910e-08	-3.251203e+01	-1.272442e+03
