# Temperatura_=_79.39
# Concentracion g/m^3_=_28200.0
# C_Vs_to_Am_M_A/Vsm_=_65563218390.804596
# pendiente_HvsI_1/m_=_3716.3
# ordenada_HvsI_A/m_=_1297.0
# frecuencia_Hz_=_301956.8159787557

Tiempo_(s)	Campo_(V.s)	Magnetizacion_(V.s)	Campo_(kA/m)	Magnetizacion_(A/m)
0.000000e+00	-5.861734e-06	-2.502803e-08	-4.194188e+01	-1.639274e+03
1.000000e-08	-5.860257e-06	-2.502378e-08	-4.193131e+01	-1.638929e+03
2.000000e-08	-5.856649e-06	-2.501560e-08	-4.190550e+01	-1.638400e+03
3.000000e-08	-5.851232e-06	-2.500294e-08	-4.186674e+01	-1.637687e+03
4.000000e-08	-5.844081e-06	-2.498974e-08	-4.181557e+01	-1.636790e+03
5.000000e-08	-5.835000e-06	-2.497036e-08	-4.175059e+01	-1.635709e+03
6.000000e-08	-5.823719e-06	-2.494672e-08	-4.166988e+01	-1.634440e+03
7.000000e-08	-5.810314e-06	-2.492346e-08	-4.157396e+01	-1.632984e+03
8.000000e-08	-5.794804e-06	-2.489348e-08	-4.146298e+01	-1.631341e+03
9.000000e-08	-5.777102e-06	-2.489464e-08	-4.133632e+01	-1.629515e+03
1.000000e-07	-5.757266e-06	-2.491296e-08	-4.119440e+01	-1.627515e+03
1.100000e-07	-5.735261e-06	-2.485305e-08	-4.103694e+01	-1.625354e+03
1.200000e-07	-5.711081e-06	-2.477859e-08	-4.086393e+01	-1.623049e+03
1.300000e-07	-5.684756e-06	-2.473744e-08	-4.067557e+01	-1.620616e+03
1.400000e-07	-5.656764e-06	-2.462987e-08	-4.047528e+01	-1.618065e+03
1.500000e-07	-5.627403e-06	-2.461842e-08	-4.026520e+01	-1.615398e+03
1.600000e-07	-5.596353e-06	-2.469377e-08	-4.004303e+01	-1.612607e+03
1.700000e-07	-5.563516e-06	-2.455360e-08	-3.980807e+01	-1.609670e+03
1.800000e-07	-5.528792e-06	-2.453209e-08	-3.955961e+01	-1.606556e+03
1.900000e-07	-5.491998e-06	-2.452929e-08	-3.929635e+01	-1.603230e+03
2.000000e-07	-5.453249e-06	-2.434681e-08	-3.901909e+01	-1.599658e+03
2.100000e-07	-5.412657e-06	-2.434165e-08	-3.872865e+01	-1.595812e+03
2.200000e-07	-5.370000e-06	-2.427936e-08	-3.842343e+01	-1.591680e+03
2.300000e-07	-5.325278e-06	-2.415523e-08	-3.810344e+01	-1.587258e+03
2.400000e-07	-5.278581e-06	-2.414313e-08	-3.776930e+01	-1.582557e+03
2.500000e-07	-5.229652e-06	-2.407409e-08	-3.741921e+01	-1.577594e+03
2.600000e-07	-5.178346e-06	-2.399560e-08	-3.705210e+01	-1.572385e+03
2.700000e-07	-5.124827e-06	-2.390767e-08	-3.666917e+01	-1.566940e+03
2.800000e-07	-5.069467e-06	-2.379035e-08	-3.627305e+01	-1.561259e+03
2.900000e-07	-5.012329e-06	-2.370405e-08	-3.586422e+01	-1.555330e+03
3.000000e-07	-4.953245e-06	-2.361313e-08	-3.544146e+01	-1.549131e+03
3.100000e-07	-4.892271e-06	-2.353909e-08	-3.500518e+01	-1.542638e+03
3.200000e-07	-4.829569e-06	-2.342740e-08	-3.455653e+01	-1.535829e+03
3.300000e-07	-4.765137e-06	-2.330444e-08	-3.409551e+01	-1.528692e+03
3.400000e-07	-4.698831e-06	-2.318873e-08	-3.362108e+01	-1.521225e+03
3.500000e-07	-4.630763e-06	-2.305185e-08	-3.313404e+01	-1.513440e+03
3.600000e-07	-4.561066e-06	-2.294519e-08	-3.263534e+01	-1.505357e+03
3.700000e-07	-4.489817e-06	-2.282510e-08	-3.212554e+01	-1.496994e+03
3.800000e-07	-4.417008e-06	-2.270111e-08	-3.160458e+01	-1.488363e+03
3.900000e-07	-4.342362e-06	-2.255186e-08	-3.107047e+01	-1.479462e+03
4.000000e-07	-4.265874e-06	-2.238769e-08	-3.052318e+01	-1.470273e+03
4.100000e-07	-4.187660e-06	-2.225936e-08	-2.996354e+01	-1.460762e+03
4.200000e-07	-4.107735e-06	-2.212115e-08	-2.939167e+01	-1.450886e+03
4.300000e-07	-4.026391e-06	-2.196576e-08	-2.880964e+01	-1.440604e+03
4.400000e-07	-3.943817e-06	-2.179026e-08	-2.821880e+01	-1.429882e+03
4.500000e-07	-3.860068e-06	-2.161723e-08	-2.761956e+01	-1.418698e+03
4.600000e-07	-3.775102e-06	-2.143805e-08	-2.701161e+01	-1.407051e+03
4.700000e-07	-3.688860e-06	-2.125368e-08	-2.639453e+01	-1.394950e+03
4.800000e-07	-3.601472e-06	-2.107343e-08	-2.576926e+01	-1.382411e+03
4.900000e-07	-3.512796e-06	-2.087305e-08	-2.513476e+01	-1.369448e+03
5.000000e-07	-3.422628e-06	-2.066132e-08	-2.448959e+01	-1.356058e+03
5.100000e-07	-3.331129e-06	-2.044576e-08	-2.383489e+01	-1.342222e+03
5.200000e-07	-3.238471e-06	-2.022842e-08	-2.317191e+01	-1.327899e+03
5.300000e-07	-3.144654e-06	-1.999899e-08	-2.250063e+01	-1.313032e+03
5.400000e-07	-3.049760e-06	-1.976056e-08	-2.182164e+01	-1.297559e+03
5.500000e-07	-2.953823e-06	-1.951239e-08	-2.113520e+01	-1.281417e+03
5.600000e-07	-2.856703e-06	-1.925135e-08	-2.044029e+01	-1.264559e+03
5.700000e-07	-2.758263e-06	-1.898202e-08	-1.973593e+01	-1.246951e+03
5.800000e-07	-2.658646e-06	-1.870469e-08	-1.902315e+01	-1.228576e+03
5.900000e-07	-2.558109e-06	-1.841387e-08	-1.830378e+01	-1.209426e+03
6.000000e-07	-2.456692e-06	-1.810280e-08	-1.757813e+01	-1.189489e+03
6.100000e-07	-2.354443e-06	-1.777888e-08	-1.684651e+01	-1.168738e+03
6.200000e-07	-2.251435e-06	-1.744873e-08	-1.610947e+01	-1.147126e+03
6.300000e-07	-2.147624e-06	-1.710594e-08	-1.536668e+01	-1.124574e+03
6.400000e-07	-2.043001e-06	-1.674492e-08	-1.461808e+01	-1.100982e+03
6.500000e-07	-1.937592e-06	-1.636414e-08	-1.386386e+01	-1.076229e+03
6.600000e-07	-1.831371e-06	-1.596283e-08	-1.310383e+01	-1.050192e+03
6.700000e-07	-1.724357e-06	-1.554333e-08	-1.233812e+01	-1.022751e+03
6.800000e-07	-1.616689e-06	-1.510467e-08	-1.156774e+01	-9.937965e+02
6.900000e-07	-1.508496e-06	-1.464194e-08	-1.079359e+01	-9.632322e+02
7.000000e-07	-1.399847e-06	-1.415172e-08	-1.001618e+01	-9.309679e+02
7.100000e-07	-1.290763e-06	-1.362891e-08	-9.235668e+00	-8.969093e+02
7.200000e-07	-1.181288e-06	-1.307413e-08	-8.452356e+00	-8.609496e+02
7.300000e-07	-1.071485e-06	-1.249030e-08	-7.666692e+00	-8.229647e+02
7.400000e-07	-9.613488e-07	-1.187849e-08	-6.878644e+00	-7.828178e+02
7.500000e-07	-8.509448e-07	-1.123594e-08	-6.088681e+00	-7.403762e+02
7.600000e-07	-7.403211e-07	-1.055511e-08	-5.297146e+00	-6.955361e+02
7.700000e-07	-6.294502e-07	-9.831630e-09	-4.503842e+00	-6.482537e+02
7.800000e-07	-5.183103e-07	-9.070373e-09	-3.708614e+00	-5.985729e+02
7.900000e-07	-4.069654e-07	-8.276230e-09	-2.911919e+00	-5.466430e+02
8.000000e-07	-2.955163e-07	-7.453237e-09	-2.114478e+00	-4.927185e+02
8.100000e-07	-1.839138e-07	-6.608037e-09	-1.315940e+00	-4.371380e+02
8.200000e-07	-7.216954e-08	-5.744645e-09	-5.163876e-01	-3.802832e+02
8.300000e-07	3.967495e-08	-4.866395e-09	2.838823e-01	-3.225239e+02
8.400000e-07	1.515345e-07	-3.976778e-09	1.084260e+00	-2.641595e+02
8.500000e-07	2.633315e-07	-3.081725e-09	1.884190e+00	-2.053697e+02
8.600000e-07	3.749927e-07	-2.181948e-09	2.683148e+00	-1.461855e+02
8.700000e-07	4.864618e-07	-1.274275e-09	3.480732e+00	-8.649000e+01
8.800000e-07	5.977807e-07	-3.524235e-10	4.277241e+00	-2.604986e+01
8.900000e-07	7.088826e-07	5.864247e-10	5.072198e+00	3.542425e+01
9.000000e-07	8.197677e-07	1.541687e-09	5.865603e+00	9.820018e+01
9.100000e-07	9.304009e-07	2.516728e-09	6.657205e+00	1.624433e+02
9.200000e-07	1.040746e-06	3.513955e-09	7.446749e+00	2.281476e+02
9.300000e-07	1.150852e-06	4.531151e-09	8.234577e+00	2.950938e+02
9.400000e-07	1.260570e-06	5.561424e-09	9.019631e+00	3.628410e+02
9.500000e-07	1.369859e-06	6.597098e-09	9.801620e+00	4.307572e+02
9.600000e-07	1.478746e-06	7.623712e-09	1.058073e+01	4.980808e+02
9.700000e-07	1.587167e-06	8.627079e-09	1.135650e+01	5.640030e+02
9.800000e-07	1.695106e-06	9.596670e-09	1.212882e+01	6.277565e+02
9.900000e-07	1.802354e-06	1.051940e-08	1.289621e+01	6.886951e+02
1.000000e-06	1.908746e-06	1.139078e-08	1.365746e+01	7.463502e+02
1.010000e-06	2.014385e-06	1.220906e-08	1.441333e+01	8.004582e+02
1.020000e-06	2.119285e-06	1.297247e-08	1.516391e+01	8.509563e+02
1.030000e-06	2.223273e-06	1.368386e-08	1.590796e+01	8.979510e+02
1.040000e-06	2.326349e-06	1.434640e-08	1.664550e+01	9.416690e+02
1.050000e-06	2.428617e-06	1.496539e-08	1.737724e+01	9.824017e+02
1.060000e-06	2.530044e-06	1.554427e-08	1.810297e+01	1.020454e+03
1.070000e-06	2.630651e-06	1.608639e-08	1.882283e+01	1.056105e+03
1.080000e-06	2.730409e-06	1.659410e-08	1.953662e+01	1.089587e+03
1.090000e-06	2.829168e-06	1.707176e-08	2.024327e+01	1.121084e+03
1.100000e-06	2.926796e-06	1.752107e-08	2.094181e+01	1.150734e+03
1.110000e-06	3.023197e-06	1.794241e-08	2.163158e+01	1.178651e+03
1.120000e-06	3.118437e-06	1.834057e-08	2.231304e+01	1.204939e+03
1.130000e-06	3.212654e-06	1.871710e-08	2.298718e+01	1.229704e+03
1.140000e-06	3.305868e-06	1.907450e-08	2.365415e+01	1.253060e+03
1.150000e-06	3.398088e-06	1.941335e-08	2.431400e+01	1.275129e+03
1.160000e-06	3.489192e-06	1.973375e-08	2.496587e+01	1.296028e+03
1.170000e-06	3.578956e-06	2.003694e-08	2.560815e+01	1.315866e+03
1.180000e-06	3.667319e-06	2.032467e-08	2.624041e+01	1.334731e+03
1.190000e-06	3.754369e-06	2.059695e-08	2.686326e+01	1.352689e+03
1.200000e-06	3.840158e-06	2.085415e-08	2.747710e+01	1.369788e+03
1.210000e-06	3.924737e-06	2.109941e-08	2.808228e+01	1.386057e+03
1.220000e-06	4.008117e-06	2.133405e-08	2.867889e+01	1.401524e+03
1.230000e-06	4.090038e-06	2.155560e-08	2.926504e+01	1.416215e+03
1.240000e-06	4.170309e-06	2.176507e-08	2.983940e+01	1.430166e+03
1.250000e-06	4.248991e-06	2.196489e-08	3.040238e+01	1.443422e+03
1.260000e-06	4.326194e-06	2.215793e-08	3.095479e+01	1.456036e+03
1.270000e-06	4.401827e-06	2.234290e-08	3.149595e+01	1.468062e+03
1.280000e-06	4.475694e-06	2.251787e-08	3.202449e+01	1.479546e+03
1.290000e-06	4.547749e-06	2.268496e-08	3.254006e+01	1.490528e+03
1.300000e-06	4.618059e-06	2.284507e-08	3.304314e+01	1.501029e+03
1.310000e-06	4.686791e-06	2.299858e-08	3.353493e+01	1.511058e+03
1.320000e-06	4.753960e-06	2.314469e-08	3.401554e+01	1.520616e+03
1.330000e-06	4.819289e-06	2.328409e-08	3.448298e+01	1.529698e+03
1.340000e-06	4.882799e-06	2.341560e-08	3.493740e+01	1.538299e+03
1.350000e-06	4.944677e-06	2.353760e-08	3.538016e+01	1.546425e+03
1.360000e-06	5.004936e-06	2.365247e-08	3.581132e+01	1.554088e+03
1.370000e-06	5.063435e-06	2.376333e-08	3.622989e+01	1.561313e+03
1.380000e-06	5.120024e-06	2.386809e-08	3.663480e+01	1.568128e+03
1.390000e-06	5.174779e-06	2.396602e-08	3.702658e+01	1.574568e+03
1.400000e-06	5.227679e-06	2.405871e-08	3.740509e+01	1.580664e+03
1.410000e-06	5.278398e-06	2.414595e-08	3.776800e+01	1.586443e+03
1.420000e-06	5.326823e-06	2.422890e-08	3.811449e+01	1.591926e+03
1.430000e-06	5.373262e-06	2.430846e-08	3.844677e+01	1.597128e+03
1.440000e-06	5.417973e-06	2.438328e-08	3.876668e+01	1.602057e+03
1.450000e-06	5.460851e-06	2.445343e-08	3.907349e+01	1.606719e+03
1.460000e-06	5.501643e-06	2.452088e-08	3.936536e+01	1.611119e+03
1.470000e-06	5.540479e-06	2.458544e-08	3.964324e+01	1.615258e+03
1.480000e-06	5.577551e-06	2.464599e-08	3.990850e+01	1.619138e+03
1.490000e-06	5.612767e-06	2.470079e-08	4.016047e+01	1.622762e+03
1.500000e-06	5.645872e-06	2.475062e-08	4.039735e+01	1.626128e+03
1.510000e-06	5.676893e-06	2.479822e-08	4.061931e+01	1.629235e+03
1.520000e-06	5.706068e-06	2.484363e-08	4.082806e+01	1.632079e+03
1.530000e-06	5.733376e-06	2.488340e-08	4.102346e+01	1.634659e+03
1.540000e-06	5.758521e-06	2.491692e-08	4.120337e+01	1.636973e+03
1.550000e-06	5.781425e-06	2.494703e-08	4.136726e+01	1.639023e+03
1.560000e-06	5.802377e-06	2.497428e-08	4.151717e+01	1.640818e+03
1.570000e-06	5.821351e-06	2.499804e-08	4.165294e+01	1.642365e+03
1.580000e-06	5.838201e-06	2.501684e-08	4.177350e+01	1.643679e+03
1.590000e-06	5.852924e-06	2.503135e-08	4.187884e+01	1.644774e+03
1.600000e-06	5.865416e-06	2.504359e-08	4.196823e+01	1.645662e+03
1.610000e-06	5.875501e-06	2.505473e-08	4.204039e+01	1.646355e+03
1.620000e-06	5.883267e-06	2.506590e-08	4.209596e+01	1.646859e+03
1.630000e-06	5.889000e-06	2.507401e-08	4.213698e+01	1.647178e+03
1.640000e-06	5.892808e-06	2.507920e-08	4.216422e+01	1.647313e+03
1.650000e-06	5.894496e-06	2.508214e-08	4.217630e+01	1.647263e+03
1.660000e-06	5.894034e-06	2.507964e-08	4.217299e+01	1.647029e+03
1.670000e-06	5.891658e-06	2.506804e-08	4.215599e+01	1.646611e+03
1.680000e-06	5.887408e-06	2.505738e-08	4.212559e+01	1.646009e+03
1.690000e-06	5.881113e-06	2.504672e-08	4.208055e+01	1.645222e+03
1.700000e-06	5.872811e-06	2.503401e-08	4.202114e+01	1.644252e+03
1.710000e-06	5.862739e-06	2.502162e-08	4.194907e+01	1.643096e+03
1.720000e-06	5.850769e-06	2.500743e-08	4.186343e+01	1.641753e+03
1.730000e-06	5.836697e-06	2.500058e-08	4.176274e+01	1.640222e+03
1.740000e-06	5.820642e-06	2.493439e-08	4.164786e+01	1.638505e+03
1.750000e-06	5.802478e-06	2.484606e-08	4.151789e+01	1.636608e+03
1.760000e-06	5.781582e-06	2.485344e-08	4.136838e+01	1.634542e+03
1.770000e-06	5.757852e-06	2.484938e-08	4.119859e+01	1.632322e+03
1.780000e-06	5.731950e-06	2.484508e-08	4.101326e+01	1.629963e+03
1.790000e-06	5.704687e-06	2.487712e-08	4.081818e+01	1.627482e+03
1.800000e-06	5.676544e-06	2.468667e-08	4.061681e+01	1.624884e+03
1.810000e-06	5.646645e-06	2.463141e-08	4.040288e+01	1.622170e+03
1.820000e-06	5.614308e-06	2.469462e-08	4.017150e+01	1.619323e+03
1.830000e-06	5.580218e-06	2.455019e-08	3.992758e+01	1.616320e+03
1.840000e-06	5.544280e-06	2.464225e-08	3.967044e+01	1.613126e+03
1.850000e-06	5.506120e-06	2.463434e-08	3.939739e+01	1.609706e+03
1.860000e-06	5.465982e-06	2.443270e-08	3.911020e+01	1.606027e+03
1.870000e-06	5.423887e-06	2.448771e-08	3.880900e+01	1.602069e+03
1.880000e-06	5.380111e-06	2.437173e-08	3.849577e+01	1.597821e+03
1.890000e-06	5.334528e-06	2.427739e-08	3.816962e+01	1.593287e+03
1.900000e-06	5.286693e-06	2.427280e-08	3.782735e+01	1.588480e+03
1.910000e-06	5.236835e-06	2.409225e-08	3.747061e+01	1.583418e+03
1.920000e-06	5.184844e-06	2.412059e-08	3.709860e+01	1.578114e+03
1.930000e-06	5.130645e-06	2.404531e-08	3.671079e+01	1.572576e+03
1.940000e-06	5.074507e-06	2.390551e-08	3.630912e+01	1.566798e+03
1.950000e-06	5.016493e-06	2.384280e-08	3.589402e+01	1.560765e+03
1.960000e-06	4.956768e-06	2.369054e-08	3.546667e+01	1.554452e+03
1.970000e-06	4.895170e-06	2.365092e-08	3.502593e+01	1.547836e+03
1.980000e-06	4.831633e-06	2.350072e-08	3.457130e+01	1.540898e+03
1.990000e-06	4.766346e-06	2.339398e-08	3.410416e+01	1.533629e+03
2.000000e-06	4.699392e-06	2.334404e-08	3.362510e+01	1.526035e+03
2.010000e-06	4.630855e-06	2.316673e-08	3.313470e+01	1.518129e+03
2.020000e-06	4.560383e-06	2.305823e-08	3.263045e+01	1.509933e+03
2.030000e-06	4.488112e-06	2.290362e-08	3.211334e+01	1.501463e+03
2.040000e-06	4.414374e-06	2.281641e-08	3.158574e+01	1.492726e+03
2.050000e-06	4.339053e-06	2.269641e-08	3.104680e+01	1.483714e+03
2.060000e-06	4.261983e-06	2.250913e-08	3.049534e+01	1.474402e+03
2.070000e-06	4.183102e-06	2.237876e-08	2.993093e+01	1.464751e+03
2.080000e-06	4.102723e-06	2.220043e-08	2.935581e+01	1.454720e+03
2.090000e-06	4.021015e-06	2.205668e-08	2.877117e+01	1.444267e+03
2.100000e-06	3.937982e-06	2.188764e-08	2.817705e+01	1.433364e+03
2.110000e-06	3.853608e-06	2.172565e-08	2.757334e+01	1.421996e+03
2.120000e-06	3.767738e-06	2.154898e-08	2.695892e+01	1.410168e+03
2.130000e-06	3.680439e-06	2.134828e-08	2.633428e+01	1.397892e+03
2.140000e-06	3.591877e-06	2.116951e-08	2.570060e+01	1.385185e+03
2.150000e-06	3.502118e-06	2.096449e-08	2.505836e+01	1.372054e+03
2.160000e-06	3.411224e-06	2.076847e-08	2.440800e+01	1.358491e+03
2.170000e-06	3.319205e-06	2.055208e-08	2.374958e+01	1.344468e+03
2.180000e-06	3.225964e-06	2.032979e-08	2.308242e+01	1.329938e+03
2.190000e-06	3.131433e-06	2.008825e-08	2.240603e+01	1.314840e+03
2.200000e-06	3.035686e-06	1.984875e-08	2.172094e+01	1.299109e+03
2.210000e-06	2.938840e-06	1.961225e-08	2.102799e+01	1.282690e+03
2.220000e-06	2.840950e-06	1.935264e-08	2.032756e+01	1.265539e+03
2.230000e-06	2.742084e-06	1.907904e-08	1.962016e+01	1.247630e+03
2.240000e-06	2.642338e-06	1.879410e-08	1.890646e+01	1.228951e+03
2.250000e-06	2.541687e-06	1.851060e-08	1.818628e+01	1.209492e+03
2.260000e-06	2.440002e-06	1.820234e-08	1.745870e+01	1.189238e+03
2.270000e-06	2.337203e-06	1.787678e-08	1.672316e+01	1.168156e+03
2.280000e-06	2.233400e-06	1.753880e-08	1.598042e+01	1.146184e+03
2.290000e-06	2.128775e-06	1.718959e-08	1.523182e+01	1.123235e+03
2.300000e-06	2.023456e-06	1.682214e-08	1.447824e+01	1.099201e+03
2.310000e-06	1.917439e-06	1.643895e-08	1.371966e+01	1.073958e+03
2.320000e-06	1.810823e-06	1.604089e-08	1.295680e+01	1.047382e+03
2.330000e-06	1.703731e-06	1.561717e-08	1.219054e+01	1.019357e+03
2.340000e-06	1.596118e-06	1.516531e-08	1.142055e+01	9.897799e+02
2.350000e-06	1.488003e-06	1.468546e-08	1.064696e+01	9.585574e+02
2.360000e-06	1.379424e-06	1.418769e-08	9.870057e+00	9.255988e+02
2.370000e-06	1.270453e-06	1.366190e-08	9.090348e+00	8.908060e+02
2.380000e-06	1.161123e-06	1.310147e-08	8.308069e+00	8.540653e+02
2.390000e-06	1.051487e-06	1.250459e-08	7.523598e+00	8.152465e+02
2.400000e-06	9.415161e-07	1.187529e-08	6.736737e+00	7.742119e+02
2.410000e-06	8.311301e-07	1.121454e-08	5.946903e+00	7.308367e+02
2.420000e-06	7.203938e-07	1.051784e-08	5.154562e+00	6.850369e+02
2.430000e-06	6.093730e-07	9.786693e-09	4.360186e+00	6.368004e+02
2.440000e-06	4.980692e-07	9.019886e-09	3.563785e+00	5.862110e+02
2.450000e-06	3.865661e-07	8.217401e-09	2.765958e+00	5.334607e+02
2.460000e-06	2.749558e-07	7.379486e-09	1.967364e+00	4.788406e+02
2.470000e-06	1.631860e-07	6.517437e-09	1.167629e+00	4.227122e+02
2.480000e-06	5.136717e-08	5.643467e-09	3.675424e-01	3.654595e+02
2.490000e-06	-6.040409e-08	4.759439e-09	-4.322034e-01	3.074314e+02
2.500000e-06	-1.722135e-07	3.864743e-09	-1.232222e+00	2.488852e+02
2.510000e-06	-2.840214e-07	2.962790e-09	-2.032230e+00	1.899442e+02
2.520000e-06	-3.956748e-07	2.056147e-09	-2.831133e+00	1.305795e+02
2.530000e-06	-5.071154e-07	1.139573e-09	-3.628512e+00	7.062285e+01
2.540000e-06	-6.183285e-07	2.080293e-10	-4.424265e+00	9.810553e+00
2.550000e-06	-7.292832e-07	-7.404918e-10	-5.218168e+00	-5.214808e+01
2.560000e-06	-8.399482e-07	-1.706754e-09	-6.009998e+00	-1.154900e+02
2.570000e-06	-9.501657e-07	-2.695980e-09	-6.798626e+00	-1.803202e+02
2.580000e-06	-1.059974e-06	-3.707498e-09	-7.584328e+00	-2.465521e+02
2.590000e-06	-1.169446e-06	-4.734818e-09	-8.367619e+00	-3.138783e+02
2.600000e-06	-1.278526e-06	-5.772428e-09	-9.148113e+00	-3.817772e+02
2.610000e-06	-1.387266e-06	-6.811048e-09	-9.926163e+00	-4.495571e+02
2.620000e-06	-1.495611e-06	-7.839433e-09	-1.070140e+01	-5.164274e+02
2.630000e-06	-1.603356e-06	-8.841055e-09	-1.147233e+01	-5.815851e+02
2.640000e-06	-1.710474e-06	-9.800708e-09	-1.223879e+01	-6.443020e+02
2.650000e-06	-1.817097e-06	-1.071338e-08	-1.300170e+01	-7.039966e+02
2.660000e-06	-1.923098e-06	-1.157631e-08	-1.376015e+01	-7.602792e+02
2.670000e-06	-2.028374e-06	-1.238571e-08	-1.451342e+01	-8.129673e+02
2.680000e-06	-2.132968e-06	-1.313938e-08	-1.526182e+01	-8.620696e+02
2.690000e-06	-2.236775e-06	-1.383860e-08	-1.600458e+01	-9.077462e+02
2.700000e-06	-2.339589e-06	-1.449105e-08	-1.674023e+01	-9.502560e+02
2.710000e-06	-2.441399e-06	-1.510331e-08	-1.746870e+01	-9.899010e+02
2.720000e-06	-2.542300e-06	-1.567710e-08	-1.819067e+01	-1.026980e+03
2.730000e-06	-2.642218e-06	-1.621208e-08	-1.890560e+01	-1.061755e+03
2.740000e-06	-2.741152e-06	-1.671173e-08	-1.961349e+01	-1.094440e+03
2.750000e-06	-2.839150e-06	-1.718102e-08	-2.031469e+01	-1.125197e+03
2.760000e-06	-2.936238e-06	-1.762094e-08	-2.100938e+01	-1.154155e+03
2.770000e-06	-3.032515e-06	-1.803562e-08	-2.169826e+01	-1.181421e+03
2.780000e-06	-3.127834e-06	-1.843047e-08	-2.238028e+01	-1.207098e+03
2.790000e-06	-3.221945e-06	-1.880351e-08	-2.305366e+01	-1.231297e+03
2.800000e-06	-3.314764e-06	-1.915124e-08	-2.371780e+01	-1.254134e+03
2.810000e-06	-3.406348e-06	-1.947719e-08	-2.437310e+01	-1.275730e+03
2.820000e-06	-3.496736e-06	-1.978847e-08	-2.501985e+01	-1.296202e+03
2.830000e-06	-3.585929e-06	-2.008808e-08	-2.565804e+01	-1.315649e+03
2.840000e-06	-3.673928e-06	-2.037321e-08	-2.628769e+01	-1.334152e+03
2.850000e-06	-3.760590e-06	-2.064427e-08	-2.690777e+01	-1.351770e+03
2.860000e-06	-3.845771e-06	-2.090056e-08	-2.751727e+01	-1.368540e+03
2.870000e-06	-3.929514e-06	-2.114359e-08	-2.811646e+01	-1.384493e+03
2.880000e-06	-4.011931e-06	-2.137629e-08	-2.870617e+01	-1.399652e+03
2.890000e-06	-4.093068e-06	-2.159877e-08	-2.928672e+01	-1.414048e+03
2.900000e-06	-4.172791e-06	-2.181170e-08	-2.985715e+01	-1.427722e+03
2.910000e-06	-4.250734e-06	-2.201291e-08	-3.041486e+01	-1.440720e+03
2.920000e-06	-4.326885e-06	-2.220320e-08	-3.095973e+01	-1.453098e+03
2.930000e-06	-4.401435e-06	-2.238391e-08	-3.149315e+01	-1.464907e+03
2.940000e-06	-4.474403e-06	-2.255652e-08	-3.201525e+01	-1.476191e+03
