# Temperatura_=_39.02
# Concentracion g/m^3_=_28200.0
# C_Vs_to_Am_M_A/Vsm_=_65563218390.804596
# pendiente_HvsI_1/m_=_3716.3
# ordenada_HvsI_A/m_=_1297.0
# frecuencia_Hz_=_301957.43938873534

Tiempo_(s)	Campo_(V.s)	Magnetizacion_(V.s)	Campo_(kA/m)	Magnetizacion_(A/m)
0.000000e+00	-5.877951e-06	-2.155445e-08	-4.193060e+01	-1.408837e+03
1.000000e-08	-5.874575e-06	-2.154848e-08	-4.190651e+01	-1.408477e+03
2.000000e-08	-5.869351e-06	-2.153719e-08	-4.186924e+01	-1.407996e+03
3.000000e-08	-5.862364e-06	-2.152779e-08	-4.181941e+01	-1.407376e+03
4.000000e-08	-5.853513e-06	-2.151396e-08	-4.175627e+01	-1.406594e+03
5.000000e-08	-5.842455e-06	-2.149433e-08	-4.167738e+01	-1.405631e+03
6.000000e-08	-5.829184e-06	-2.147214e-08	-4.158272e+01	-1.404477e+03
7.000000e-08	-5.813698e-06	-2.143985e-08	-4.147225e+01	-1.403136e+03
8.000000e-08	-5.796053e-06	-2.144433e-08	-4.134637e+01	-1.401628e+03
9.000000e-08	-5.776392e-06	-2.149253e-08	-4.120612e+01	-1.399983e+03
1.000000e-07	-5.754554e-06	-2.143201e-08	-4.105034e+01	-1.398237e+03
1.100000e-07	-5.730405e-06	-2.135677e-08	-4.087807e+01	-1.396424e+03
1.200000e-07	-5.704095e-06	-2.134757e-08	-4.069039e+01	-1.394563e+03
1.300000e-07	-5.676146e-06	-2.121201e-08	-4.049101e+01	-1.392656e+03
1.400000e-07	-5.646787e-06	-2.114325e-08	-4.028158e+01	-1.390684e+03
1.500000e-07	-5.615759e-06	-2.130305e-08	-4.006024e+01	-1.388610e+03
1.600000e-07	-5.582895e-06	-2.115295e-08	-3.982580e+01	-1.386382e+03
1.700000e-07	-5.548195e-06	-2.114958e-08	-3.957826e+01	-1.383949e+03
1.800000e-07	-5.511521e-06	-2.124762e-08	-3.931665e+01	-1.381264e+03
1.900000e-07	-5.472891e-06	-2.095914e-08	-3.904109e+01	-1.378301e+03
2.000000e-07	-5.432351e-06	-2.091774e-08	-3.875189e+01	-1.375053e+03
2.100000e-07	-5.389705e-06	-2.089917e-08	-3.844767e+01	-1.371535e+03
2.200000e-07	-5.345061e-06	-2.079686e-08	-3.812921e+01	-1.367781e+03
2.300000e-07	-5.298429e-06	-2.084065e-08	-3.779655e+01	-1.363829e+03
2.400000e-07	-5.249456e-06	-2.077200e-08	-3.744720e+01	-1.359717e+03
2.500000e-07	-5.198117e-06	-2.066135e-08	-3.708097e+01	-1.355469e+03
2.600000e-07	-5.144665e-06	-2.059293e-08	-3.669967e+01	-1.351090e+03
2.700000e-07	-5.089335e-06	-2.051234e-08	-3.630497e+01	-1.346568e+03
2.800000e-07	-5.032104e-06	-2.049077e-08	-3.589671e+01	-1.341869e+03
2.900000e-07	-4.972894e-06	-2.041061e-08	-3.547433e+01	-1.336956e+03
3.000000e-07	-4.911885e-06	-2.031234e-08	-3.503912e+01	-1.331788e+03
3.100000e-07	-4.849170e-06	-2.018908e-08	-3.459175e+01	-1.326336e+03
3.200000e-07	-4.784578e-06	-2.010630e-08	-3.413098e+01	-1.320585e+03
3.300000e-07	-4.718139e-06	-2.004681e-08	-3.365703e+01	-1.314538e+03
3.400000e-07	-4.649994e-06	-1.993166e-08	-3.317091e+01	-1.308213e+03
3.500000e-07	-4.580171e-06	-1.986545e-08	-3.267283e+01	-1.301634e+03
3.600000e-07	-4.508829e-06	-1.973733e-08	-3.216391e+01	-1.294824e+03
3.700000e-07	-4.435802e-06	-1.960369e-08	-3.164297e+01	-1.287797e+03
3.800000e-07	-4.360896e-06	-1.951212e-08	-3.110862e+01	-1.280552e+03
3.900000e-07	-4.284230e-06	-1.941413e-08	-3.056172e+01	-1.273069e+03
4.000000e-07	-4.205834e-06	-1.930480e-08	-3.000248e+01	-1.265315e+03
4.100000e-07	-4.125777e-06	-1.915723e-08	-2.943139e+01	-1.257251e+03
4.200000e-07	-4.044243e-06	-1.901241e-08	-2.884976e+01	-1.248837e+03
4.300000e-07	-3.961477e-06	-1.886775e-08	-2.825935e+01	-1.240039e+03
4.400000e-07	-3.877550e-06	-1.874471e-08	-2.766065e+01	-1.230841e+03
4.500000e-07	-3.792343e-06	-1.862077e-08	-2.705283e+01	-1.221236e+03
4.600000e-07	-3.705957e-06	-1.846215e-08	-2.643659e+01	-1.211230e+03
4.700000e-07	-3.618349e-06	-1.828388e-08	-2.581164e+01	-1.200833e+03
4.800000e-07	-3.529318e-06	-1.809807e-08	-2.517653e+01	-1.190051e+03
4.900000e-07	-3.438933e-06	-1.792739e-08	-2.453176e+01	-1.178879e+03
5.000000e-07	-3.347280e-06	-1.776216e-08	-2.387795e+01	-1.167298e+03
5.100000e-07	-3.254408e-06	-1.758898e-08	-2.321544e+01	-1.155271e+03
5.200000e-07	-3.160451e-06	-1.739667e-08	-2.254520e+01	-1.142753e+03
5.300000e-07	-3.065485e-06	-1.718558e-08	-2.186776e+01	-1.129689e+03
5.400000e-07	-2.969328e-06	-1.696595e-08	-2.118182e+01	-1.116028e+03
5.500000e-07	-2.871851e-06	-1.674981e-08	-2.048646e+01	-1.101725e+03
5.600000e-07	-2.773255e-06	-1.653235e-08	-1.978312e+01	-1.086746e+03
5.700000e-07	-2.673617e-06	-1.629621e-08	-1.907235e+01	-1.071066e+03
5.800000e-07	-2.572957e-06	-1.603395e-08	-1.835429e+01	-1.054666e+03
5.900000e-07	-2.471343e-06	-1.575764e-08	-1.762942e+01	-1.037528e+03
6.000000e-07	-2.368901e-06	-1.547668e-08	-1.689865e+01	-1.019622e+03
6.100000e-07	-2.265712e-06	-1.519410e-08	-1.616254e+01	-1.000908e+03
6.200000e-07	-2.161573e-06	-1.490252e-08	-1.541967e+01	-9.813265e+02
6.300000e-07	-2.056412e-06	-1.459252e-08	-1.466950e+01	-9.608044e+02
6.400000e-07	-1.950513e-06	-1.426059e-08	-1.391406e+01	-9.392559e+02
6.500000e-07	-1.844058e-06	-1.390789e-08	-1.315466e+01	-9.165884e+02
6.600000e-07	-1.736912e-06	-1.354097e-08	-1.239033e+01	-8.927080e+02
6.700000e-07	-1.629052e-06	-1.315559e-08	-1.162091e+01	-8.675218e+02
6.800000e-07	-1.520617e-06	-1.274705e-08	-1.084738e+01	-8.409383e+02
6.900000e-07	-1.411730e-06	-1.231425e-08	-1.007063e+01	-8.128654e+02
7.000000e-07	-1.302420e-06	-1.185665e-08	-9.290867e+00	-7.832073e+02
7.100000e-07	-1.192694e-06	-1.137474e-08	-8.508127e+00	-7.518628e+02
7.200000e-07	-1.082608e-06	-1.087074e-08	-7.722828e+00	-7.187281e+02
7.300000e-07	-9.722339e-07	-1.034050e-08	-6.935469e+00	-6.837054e+02
7.400000e-07	-8.615989e-07	-9.777845e-09	-6.146249e+00	-6.467170e+02
7.500000e-07	-7.507173e-07	-9.181378e-09	-5.355271e+00	-6.077240e+02
7.600000e-07	-6.396164e-07	-8.552541e-09	-4.562728e+00	-5.667465e+02
7.700000e-07	-5.283095e-07	-7.897412e-09	-3.768717e+00	-5.238794e+02
7.800000e-07	-4.168295e-07	-7.218967e-09	-2.973470e+00	-4.792995e+02
7.900000e-07	-3.051632e-07	-6.520013e-09	-2.176894e+00	-4.332606e+02
8.000000e-07	-1.932912e-07	-5.801502e-09	-1.378850e+00	-3.860736e+02
8.100000e-07	-8.128202e-08	-5.068631e-09	-5.798285e-01	-3.380745e+02
8.200000e-07	3.079854e-08	-4.330726e-09	2.197026e-01	-2.895820e+02
8.300000e-07	1.429095e-07	-3.592648e-09	1.019451e+00	-2.408550e+02
8.400000e-07	2.549177e-07	-2.854287e-09	1.818465e+00	-1.920541e+02
8.500000e-07	3.667939e-07	-2.111927e-09	2.616539e+00	-1.432186e+02
8.600000e-07	4.785222e-07	-1.365805e-09	3.413557e+00	-9.426165e+01
8.700000e-07	5.901021e-07	-6.135654e-10	4.209516e+00	-4.498836e+01
8.800000e-07	7.015008e-07	1.467274e-10	5.004184e+00	4.865554e+00
8.900000e-07	8.126298e-07	9.174353e-10	5.796927e+00	5.558020e+01
9.000000e-07	9.235494e-07	1.703539e-09	6.588176e+00	1.073912e+02
9.100000e-07	1.034265e-06	2.509357e-09	7.377968e+00	1.604328e+02
9.200000e-07	1.144691e-06	3.333929e-09	8.165699e+00	2.146942e+02
9.300000e-07	1.254742e-06	4.173024e-09	8.950749e+00	2.699969e+02
9.400000e-07	1.364365e-06	5.022543e-09	9.732748e+00	3.259960e+02
9.500000e-07	1.473557e-06	5.875275e-09	1.051168e+01	3.822073e+02
9.600000e-07	1.582290e-06	6.722815e-09	1.128733e+01	4.380525e+02
9.700000e-07	1.690473e-06	7.557488e-09	1.205906e+01	4.929182e+02
9.800000e-07	1.798008e-06	8.370359e-09	1.282616e+01	5.462166e+02
9.900000e-07	1.904915e-06	9.149617e-09	1.358879e+01	5.974398e+02
1.000000e-06	2.011121e-06	9.886669e-09	1.434641e+01	6.462003e+02
1.010000e-06	2.116466e-06	1.058056e-08	1.509790e+01	6.922519e+02
1.020000e-06	2.220869e-06	1.123447e-08	1.584266e+01	7.354912e+02
1.030000e-06	2.324351e-06	1.184536e-08	1.658085e+01	7.759415e+02
1.040000e-06	2.426944e-06	1.241630e-08	1.731270e+01	8.137236e+02
1.050000e-06	2.528662e-06	1.295040e-08	1.803831e+01	8.490214e+02
1.060000e-06	2.629602e-06	1.345004e-08	1.875837e+01	8.820468e+02
1.070000e-06	2.729804e-06	1.391885e-08	1.947316e+01	9.130111e+02
1.080000e-06	2.829071e-06	1.435944e-08	2.018129e+01	9.421051e+02
1.090000e-06	2.927226e-06	1.477723e-08	2.088148e+01	9.694897e+02
1.100000e-06	3.024113e-06	1.517129e-08	2.157263e+01	9.952950e+02
1.110000e-06	3.119709e-06	1.554065e-08	2.225457e+01	1.019626e+03
1.120000e-06	3.214189e-06	1.588685e-08	2.292854e+01	1.042574e+03
1.130000e-06	3.307673e-06	1.621573e-08	2.359541e+01	1.064219e+03
1.140000e-06	3.400150e-06	1.652783e-08	2.425511e+01	1.084646e+03
1.150000e-06	3.491539e-06	1.681998e-08	2.490703e+01	1.103938e+03
1.160000e-06	3.581797e-06	1.709486e-08	2.555089e+01	1.122181e+03
1.170000e-06	3.670675e-06	1.735735e-08	2.618491e+01	1.139459e+03
1.180000e-06	3.758099e-06	1.760814e-08	2.680855e+01	1.155848e+03
1.190000e-06	3.844247e-06	1.784574e-08	2.742309e+01	1.171415e+03
1.200000e-06	3.929170e-06	1.806934e-08	2.802889e+01	1.186215e+03
1.210000e-06	4.012866e-06	1.828134e-08	2.862594e+01	1.200288e+03
1.220000e-06	4.095246e-06	1.848170e-08	2.921360e+01	1.213668e+03
1.230000e-06	4.176035e-06	1.867049e-08	2.978991e+01	1.226381e+03
1.240000e-06	4.255147e-06	1.885115e-08	3.035426e+01	1.238453e+03
1.250000e-06	4.332726e-06	1.902595e-08	3.090767e+01	1.249908e+03
1.260000e-06	4.408739e-06	1.919359e-08	3.144992e+01	1.260776e+03
1.270000e-06	4.483032e-06	1.935140e-08	3.197989e+01	1.271087e+03
1.280000e-06	4.555442e-06	1.949963e-08	3.249642e+01	1.280871e+03
1.290000e-06	4.626123e-06	1.964056e-08	3.300063e+01	1.290157e+03
1.300000e-06	4.695241e-06	1.977589e-08	3.349369e+01	1.298970e+03
1.310000e-06	4.762763e-06	1.990418e-08	3.397535e+01	1.307328e+03
1.320000e-06	4.828521e-06	2.002514e-08	3.444444e+01	1.315245e+03
1.330000e-06	4.892372e-06	2.013716e-08	3.489993e+01	1.322734e+03
1.340000e-06	4.954500e-06	2.024069e-08	3.534312e+01	1.329807e+03
1.350000e-06	5.015031e-06	2.033889e-08	3.577492e+01	1.336478e+03
1.360000e-06	5.073927e-06	2.043379e-08	3.619506e+01	1.342768e+03
1.370000e-06	5.130891e-06	2.052497e-08	3.660142e+01	1.348702e+03
1.380000e-06	5.185903e-06	2.061102e-08	3.699384e+01	1.354311e+03
1.390000e-06	5.239105e-06	2.069207e-08	3.737336e+01	1.359628e+03
1.400000e-06	5.290240e-06	2.076870e-08	3.773814e+01	1.364681e+03
1.410000e-06	5.339045e-06	2.084256e-08	3.808629e+01	1.369493e+03
1.420000e-06	5.385749e-06	2.091392e-08	3.841945e+01	1.374077e+03
1.430000e-06	5.430710e-06	2.098049e-08	3.874019e+01	1.378435e+03
1.440000e-06	5.473980e-06	2.104062e-08	3.904885e+01	1.382557e+03
1.450000e-06	5.515215e-06	2.109648e-08	3.934300e+01	1.386431e+03
1.460000e-06	5.554318e-06	2.114973e-08	3.962195e+01	1.390039e+03
1.470000e-06	5.591588e-06	2.119968e-08	3.988782e+01	1.393369e+03
1.480000e-06	5.627086e-06	2.124396e-08	4.014104e+01	1.396416e+03
1.490000e-06	5.660514e-06	2.128291e-08	4.037950e+01	1.399184e+03
1.500000e-06	5.691796e-06	2.132108e-08	4.060265e+01	1.401690e+03
1.510000e-06	5.721223e-06	2.135767e-08	4.081257e+01	1.403956e+03
1.520000e-06	5.748784e-06	2.139034e-08	4.100918e+01	1.406006e+03
1.530000e-06	5.774131e-06	2.141843e-08	4.118999e+01	1.407866e+03
1.540000e-06	5.797188e-06	2.144167e-08	4.135447e+01	1.409551e+03
1.550000e-06	5.818266e-06	2.146212e-08	4.150483e+01	1.411071e+03
1.560000e-06	5.837479e-06	2.148097e-08	4.164189e+01	1.412423e+03
1.570000e-06	5.854641e-06	2.149670e-08	4.176431e+01	1.413599e+03
1.580000e-06	5.869538e-06	2.151016e-08	4.187058e+01	1.414588e+03
1.590000e-06	5.882226e-06	2.152302e-08	4.196109e+01	1.415382e+03
1.600000e-06	5.892557e-06	2.153490e-08	4.203479e+01	1.415977e+03
1.610000e-06	5.900523e-06	2.154450e-08	4.209161e+01	1.416379e+03
1.620000e-06	5.906440e-06	2.155239e-08	4.213382e+01	1.416603e+03
1.630000e-06	5.910472e-06	2.155791e-08	4.216258e+01	1.416670e+03
1.640000e-06	5.912395e-06	2.156025e-08	4.217630e+01	1.416601e+03
1.650000e-06	5.912100e-06	2.155942e-08	4.217419e+01	1.416414e+03
1.660000e-06	5.909844e-06	2.154571e-08	4.215811e+01	1.416117e+03
1.670000e-06	5.905805e-06	2.153673e-08	4.212929e+01	1.415705e+03
1.680000e-06	5.899720e-06	2.153012e-08	4.208588e+01	1.415166e+03
1.690000e-06	5.891546e-06	2.152059e-08	4.202758e+01	1.414478e+03
1.700000e-06	5.881632e-06	2.151245e-08	4.195685e+01	1.413618e+03
1.710000e-06	5.869793e-06	2.150480e-08	4.187240e+01	1.412572e+03
1.720000e-06	5.855743e-06	2.151308e-08	4.177218e+01	1.411335e+03
1.730000e-06	5.839737e-06	2.146141e-08	4.165799e+01	1.409918e+03
1.740000e-06	5.821697e-06	2.135228e-08	4.152931e+01	1.408345e+03
1.750000e-06	5.800906e-06	2.137715e-08	4.138099e+01	1.406651e+03
1.760000e-06	5.777222e-06	2.137723e-08	4.121204e+01	1.404872e+03
1.770000e-06	5.751341e-06	2.133631e-08	4.102742e+01	1.403035e+03
1.780000e-06	5.724068e-06	2.146036e-08	4.083287e+01	1.401153e+03
1.790000e-06	5.695934e-06	2.127997e-08	4.063217e+01	1.399221e+03
1.800000e-06	5.666207e-06	2.119202e-08	4.042011e+01	1.397209e+03
1.810000e-06	5.634001e-06	2.134162e-08	4.019036e+01	1.395074e+03
1.820000e-06	5.599961e-06	2.109752e-08	3.994754e+01	1.392763e+03
1.830000e-06	5.564138e-06	2.116033e-08	3.969200e+01	1.390225e+03
1.840000e-06	5.526044e-06	2.126125e-08	3.942025e+01	1.387422e+03
1.850000e-06	5.485947e-06	2.103579e-08	3.913422e+01	1.384334e+03
1.860000e-06	5.443871e-06	2.115354e-08	3.883407e+01	1.380966e+03
1.870000e-06	5.400093e-06	2.101233e-08	3.852177e+01	1.377341e+03
1.880000e-06	5.354625e-06	2.084351e-08	3.819743e+01	1.373495e+03
1.890000e-06	5.306920e-06	2.092038e-08	3.785712e+01	1.369469e+03
1.900000e-06	5.257123e-06	2.074960e-08	3.750189e+01	1.365295e+03
1.910000e-06	5.205173e-06	2.082011e-08	3.713131e+01	1.360990e+03
1.920000e-06	5.150956e-06	2.073704e-08	3.674455e+01	1.356551e+03
1.930000e-06	5.094791e-06	2.055473e-08	3.634389e+01	1.351956e+03
1.940000e-06	5.036748e-06	2.056959e-08	3.592984e+01	1.347170e+03
1.950000e-06	4.976982e-06	2.042285e-08	3.550350e+01	1.342150e+03
1.960000e-06	4.915364e-06	2.043736e-08	3.506394e+01	1.336862e+03
1.970000e-06	4.851785e-06	2.031525e-08	3.461040e+01	1.331281e+03
1.980000e-06	4.786421e-06	2.018932e-08	3.414412e+01	1.325400e+03
1.990000e-06	4.719419e-06	2.014294e-08	3.366616e+01	1.319229e+03
2.000000e-06	4.650828e-06	1.996844e-08	3.317687e+01	1.312791e+03
2.010000e-06	4.580319e-06	1.996786e-08	3.267388e+01	1.306109e+03
2.020000e-06	4.507998e-06	1.983075e-08	3.215798e+01	1.299204e+03
2.030000e-06	4.434112e-06	1.972078e-08	3.163091e+01	1.292083e+03
2.040000e-06	4.358612e-06	1.961892e-08	3.109233e+01	1.284737e+03
2.050000e-06	4.281420e-06	1.945076e-08	3.054168e+01	1.277142e+03
2.060000e-06	4.202545e-06	1.937956e-08	2.997902e+01	1.269259e+03
2.070000e-06	4.122142e-06	1.924000e-08	2.940546e+01	1.261047e+03
2.080000e-06	4.040268e-06	1.914217e-08	2.882141e+01	1.252471e+03
2.090000e-06	3.957011e-06	1.896741e-08	2.822749e+01	1.243501e+03
2.100000e-06	3.872354e-06	1.880751e-08	2.762359e+01	1.234127e+03
2.110000e-06	3.786288e-06	1.868515e-08	2.700963e+01	1.224347e+03
2.120000e-06	3.698875e-06	1.854355e-08	2.638607e+01	1.214171e+03
2.130000e-06	3.610125e-06	1.841542e-08	2.575297e+01	1.203607e+03
2.140000e-06	3.520157e-06	1.822909e-08	2.511118e+01	1.192658e+03
2.150000e-06	3.429083e-06	1.805924e-08	2.446150e+01	1.181312e+03
2.160000e-06	3.336879e-06	1.785579e-08	2.380376e+01	1.169544e+03
2.170000e-06	3.243332e-06	1.766766e-08	2.313644e+01	1.157312e+03
2.180000e-06	3.148544e-06	1.748776e-08	2.246026e+01	1.144565e+03
2.190000e-06	3.052595e-06	1.730269e-08	2.177581e+01	1.131250e+03
2.200000e-06	2.955487e-06	1.709056e-08	2.108308e+01	1.117317e+03
2.210000e-06	2.857357e-06	1.684595e-08	2.038307e+01	1.102726e+03
2.220000e-06	2.758290e-06	1.661733e-08	1.967637e+01	1.087447e+03
2.230000e-06	2.658320e-06	1.638448e-08	1.896323e+01	1.071459e+03
2.240000e-06	2.557285e-06	1.614689e-08	1.824249e+01	1.054744e+03
2.250000e-06	2.455184e-06	1.588169e-08	1.751415e+01	1.037280e+03
2.260000e-06	2.352161e-06	1.560205e-08	1.677923e+01	1.019032e+03
2.270000e-06	2.248208e-06	1.530464e-08	1.603768e+01	9.999527e+02
2.280000e-06	2.143364e-06	1.499633e-08	1.528977e+01	9.799765e+02
2.290000e-06	2.037717e-06	1.467905e-08	1.453613e+01	9.590240e+02
2.300000e-06	1.931403e-06	1.435216e-08	1.377774e+01	9.370059e+02
2.310000e-06	1.824534e-06	1.400710e-08	1.301539e+01	9.138285e+02
2.320000e-06	1.717214e-06	1.363061e-08	1.224981e+01	8.893982e+02
2.330000e-06	1.609457e-06	1.323564e-08	1.148112e+01	8.636228e+02
2.340000e-06	1.501167e-06	1.282265e-08	1.070863e+01	8.364109e+02
2.350000e-06	1.392349e-06	1.239301e-08	9.932379e+00	8.076692e+02
2.360000e-06	1.283049e-06	1.193442e-08	9.152682e+00	7.772994e+02
2.370000e-06	1.173380e-06	1.144603e-08	8.370349e+00	7.451988e+02
2.380000e-06	1.063449e-06	1.092779e-08	7.586155e+00	7.112647e+02
2.390000e-06	9.532649e-07	1.037852e-08	6.800152e+00	6.754057e+02
2.400000e-06	8.427045e-07	9.799228e-09	6.011465e+00	6.375584e+02
2.410000e-06	7.318189e-07	9.192146e-09	5.220459e+00	5.977068e+02
2.420000e-06	6.206479e-07	8.558069e-09	4.427416e+00	5.559016e+02
2.430000e-06	5.091571e-07	7.891309e-09	3.632092e+00	5.122725e+02
2.440000e-06	3.974581e-07	7.198682e-09	2.835283e+00	4.670308e+02
2.450000e-06	2.855660e-07	6.488832e-09	2.037096e+00	4.204579e+02
2.460000e-06	1.734933e-07	5.763981e-09	1.237621e+00	3.728802e+02
2.470000e-06	6.128930e-08	5.023703e-09	4.372096e-01	3.246316e+02
2.480000e-06	-5.093889e-08	4.277007e-09	-3.633746e-01	2.760103e+02
2.490000e-06	-1.631308e-07	3.529663e-09	-1.163700e+00	2.272372e+02
2.500000e-06	-2.752312e-07	2.783483e-09	-1.963373e+00	1.784227e+02
2.510000e-06	-3.871516e-07	2.039808e-09	-2.761761e+00	1.295512e+02
2.520000e-06	-4.989446e-07	1.292760e-09	-3.559241e+00	8.048608e+01
2.530000e-06	-6.105152e-07	5.351414e-10	-4.355134e+00	3.099706e+01
2.540000e-06	-7.217170e-07	-2.387468e-10	-5.148397e+00	-1.919417e+01
2.550000e-06	-8.326249e-07	-1.025881e-09	-5.939562e+00	-7.035608e+01
2.560000e-06	-9.431589e-07	-1.824697e-09	-6.728061e+00	-1.226872e+02
2.570000e-06	-1.053307e-06	-2.640730e-09	-7.513806e+00	-1.762640e+02
2.580000e-06	-1.163150e-06	-3.474529e-09	-8.297374e+00	-2.310051e+02
2.590000e-06	-1.272630e-06	-4.323431e-09	-9.078359e+00	-2.866589e+02
2.600000e-06	-1.381691e-06	-5.183270e-09	-9.856344e+00	-3.428166e+02
2.610000e-06	-1.490254e-06	-6.046722e-09	-1.063079e+01	-3.989467e+02
2.620000e-06	-1.598318e-06	-6.901407e-09	-1.140167e+01	-4.544487e+02
2.630000e-06	-1.705865e-06	-7.732505e-09	-1.216885e+01	-5.087126e+02
2.640000e-06	-1.812881e-06	-8.534693e-09	-1.293226e+01	-5.611791e+02
2.650000e-06	-1.919262e-06	-9.305268e-09	-1.369113e+01	-6.113879e+02
2.660000e-06	-2.024919e-06	-1.003773e-08	-1.444484e+01	-6.590106e+02
2.670000e-06	-2.129877e-06	-1.072550e-08	-1.519356e+01	-7.038632e+02
2.680000e-06	-2.234051e-06	-1.136798e-08	-1.593669e+01	-7.458994e+02
2.690000e-06	-2.337348e-06	-1.197115e-08	-1.667357e+01	-7.851884e+02
2.700000e-06	-2.439684e-06	-1.253712e-08	-1.740358e+01	-8.218825e+02
2.710000e-06	-2.540950e-06	-1.306642e-08	-1.812596e+01	-8.561814e+02
2.720000e-06	-2.641185e-06	-1.355959e-08	-1.884100e+01	-8.883000e+02
2.730000e-06	-2.740550e-06	-1.402290e-08	-1.954982e+01	-9.184425e+02
2.740000e-06	-2.839032e-06	-1.445905e-08	-2.025234e+01	-9.467877e+02
2.750000e-06	-2.936592e-06	-1.486774e-08	-2.094830e+01	-9.734826e+02
2.760000e-06	-3.033230e-06	-1.525358e-08	-2.163767e+01	-9.986460e+02
2.770000e-06	-3.128896e-06	-1.561728e-08	-2.232010e+01	-1.022375e+03
2.780000e-06	-3.223503e-06	-1.595821e-08	-2.299499e+01	-1.044756e+03
2.790000e-06	-3.316815e-06	-1.627674e-08	-2.366063e+01	-1.065871e+03
2.800000e-06	-3.408825e-06	-1.657852e-08	-2.431699e+01	-1.085802e+03
2.810000e-06	-3.499635e-06	-1.686752e-08	-2.496478e+01	-1.104636e+03
2.820000e-06	-3.589209e-06	-1.714117e-08	-2.560376e+01	-1.122457e+03
2.830000e-06	-3.677575e-06	-1.739972e-08	-2.623413e+01	-1.139346e+03
2.840000e-06	-3.764713e-06	-1.764751e-08	-2.685573e+01	-1.155377e+03
2.850000e-06	-3.850431e-06	-1.788512e-08	-2.746720e+01	-1.170611e+03
2.860000e-06	-3.934698e-06	-1.811134e-08	-2.806832e+01	-1.185096e+03
2.870000e-06	-4.017596e-06	-1.832525e-08	-2.865968e+01	-1.198871e+03
2.880000e-06	-4.099137e-06	-1.852524e-08	-2.924136e+01	-1.211963e+03
2.890000e-06	-4.179300e-06	-1.871384e-08	-2.981320e+01	-1.224400e+03
2.900000e-06	-4.257763e-06	-1.889220e-08	-3.037292e+01	-1.236206e+03
2.910000e-06	-4.334376e-06	-1.906127e-08	-3.091944e+01	-1.247408e+03
2.920000e-06	-4.409337e-06	-1.922379e-08	-3.145418e+01	-1.258034e+03
2.930000e-06	-4.482722e-06	-1.938012e-08	-3.197768e+01	-1.268117e+03
2.940000e-06	-4.554498e-06	-1.953026e-08	-3.248969e+01	-1.277686e+03
