# Temperatura_=_44.98
# Concentracion g/m^3_=_28200.0
# C_Vs_to_Am_M_A/Vsm_=_65563218390.804596
# pendiente_HvsI_1/m_=_3716.3
# ordenada_HvsI_A/m_=_1297.0
# frecuencia_Hz_=_301954.8723341252

Tiempo_(s)	Campo_(V.s)	Magnetizacion_(V.s)	Campo_(kA/m)	Magnetizacion_(A/m)
0.000000e+00	-5.861762e-06	-2.155700e-08	-4.193869e+01	-1.410766e+03
1.000000e-08	-5.860253e-06	-2.155656e-08	-4.192789e+01	-1.410496e+03
2.000000e-08	-5.856657e-06	-2.155154e-08	-4.190216e+01	-1.410103e+03
3.000000e-08	-5.851245e-06	-2.154016e-08	-4.186344e+01	-1.409578e+03
4.000000e-08	-5.844101e-06	-2.153002e-08	-4.181233e+01	-1.408907e+03
5.000000e-08	-5.835060e-06	-2.151384e-08	-4.174764e+01	-1.408075e+03
6.000000e-08	-5.823770e-06	-2.149202e-08	-4.166687e+01	-1.407067e+03
7.000000e-08	-5.810327e-06	-2.146789e-08	-4.157069e+01	-1.405878e+03
8.000000e-08	-5.794706e-06	-2.142897e-08	-4.145893e+01	-1.404510e+03
9.000000e-08	-5.776883e-06	-2.143802e-08	-4.133141e+01	-1.402980e+03
1.000000e-07	-5.757032e-06	-2.150414e-08	-4.118938e+01	-1.401311e+03
1.100000e-07	-5.734986e-06	-2.143267e-08	-4.103166e+01	-1.399531e+03
1.200000e-07	-5.710678e-06	-2.134852e-08	-4.085774e+01	-1.397668e+03
1.300000e-07	-5.684206e-06	-2.134791e-08	-4.066835e+01	-1.395741e+03
1.400000e-07	-5.656129e-06	-2.118775e-08	-4.046747e+01	-1.393756e+03
1.500000e-07	-5.626724e-06	-2.113200e-08	-4.025708e+01	-1.391702e+03
1.600000e-07	-5.595619e-06	-2.132970e-08	-4.003454e+01	-1.389552e+03
1.700000e-07	-5.562743e-06	-2.112535e-08	-3.979932e+01	-1.387269e+03
1.800000e-07	-5.528033e-06	-2.114319e-08	-3.955098e+01	-1.384808e+03
1.900000e-07	-5.491276e-06	-2.126462e-08	-3.928800e+01	-1.382126e+03
2.000000e-07	-5.452550e-06	-2.092366e-08	-3.901093e+01	-1.379191e+03
2.100000e-07	-5.411951e-06	-2.091857e-08	-3.872046e+01	-1.375987e+03
2.200000e-07	-5.369239e-06	-2.091528e-08	-3.841488e+01	-1.372513e+03
2.300000e-07	-5.324457e-06	-2.081275e-08	-3.809448e+01	-1.368786e+03
2.400000e-07	-5.277727e-06	-2.086748e-08	-3.776014e+01	-1.364832e+03
2.500000e-07	-5.228801e-06	-2.077786e-08	-3.741010e+01	-1.360681e+03
2.600000e-07	-5.177480e-06	-2.067539e-08	-3.704291e+01	-1.356359e+03
2.700000e-07	-5.123859e-06	-2.059469e-08	-3.665927e+01	-1.351879e+03
2.800000e-07	-5.068458e-06	-2.049474e-08	-3.626290e+01	-1.347241e+03
2.900000e-07	-5.011225e-06	-2.049140e-08	-3.585342e+01	-1.342431e+03
3.000000e-07	-4.951969e-06	-2.040080e-08	-3.542946e+01	-1.337425e+03
3.100000e-07	-4.890975e-06	-2.031521e-08	-3.499308e+01	-1.332191e+03
3.200000e-07	-4.828251e-06	-2.021213e-08	-3.454431e+01	-1.326704e+03
3.300000e-07	-4.763696e-06	-2.011509e-08	-3.408244e+01	-1.320943e+03
3.400000e-07	-4.697262e-06	-2.004108e-08	-3.360713e+01	-1.314900e+03
3.500000e-07	-4.629075e-06	-1.992441e-08	-3.311928e+01	-1.308579e+03
3.600000e-07	-4.559288e-06	-1.986838e-08	-3.261998e+01	-1.301990e+03
3.700000e-07	-4.488023e-06	-1.973205e-08	-3.211011e+01	-1.295147e+03
3.800000e-07	-4.415284e-06	-1.960670e-08	-3.158969e+01	-1.288058e+03
3.900000e-07	-4.340629e-06	-1.951587e-08	-3.105556e+01	-1.280725e+03
4.000000e-07	-4.264062e-06	-1.939805e-08	-3.050775e+01	-1.273135e+03
4.100000e-07	-4.185835e-06	-1.928715e-08	-2.994807e+01	-1.265265e+03
4.200000e-07	-4.105879e-06	-1.914292e-08	-2.937601e+01	-1.257084e+03
4.300000e-07	-4.024443e-06	-1.901237e-08	-2.879337e+01	-1.248561e+03
4.400000e-07	-3.941794e-06	-1.886949e-08	-2.820204e+01	-1.239665e+03
4.500000e-07	-3.857952e-06	-1.873939e-08	-2.760219e+01	-1.230375e+03
4.600000e-07	-3.772846e-06	-1.860747e-08	-2.699329e+01	-1.220680e+03
4.700000e-07	-3.686459e-06	-1.844119e-08	-2.637522e+01	-1.210578e+03
4.800000e-07	-3.598967e-06	-1.826520e-08	-2.574925e+01	-1.200070e+03
4.900000e-07	-3.510240e-06	-1.808657e-08	-2.511444e+01	-1.189157e+03
5.000000e-07	-3.420014e-06	-1.792279e-08	-2.446891e+01	-1.177835e+03
5.100000e-07	-3.328400e-06	-1.775562e-08	-2.381344e+01	-1.166087e+03
5.200000e-07	-3.235648e-06	-1.757789e-08	-2.314983e+01	-1.153885e+03
5.300000e-07	-3.141820e-06	-1.737885e-08	-2.247854e+01	-1.141190e+03
5.400000e-07	-3.046915e-06	-1.716354e-08	-2.179952e+01	-1.127958e+03
5.500000e-07	-2.950934e-06	-1.694372e-08	-2.111281e+01	-1.114142e+03
5.600000e-07	-2.853767e-06	-1.672632e-08	-2.041762e+01	-1.099701e+03
5.700000e-07	-2.755344e-06	-1.650498e-08	-1.971344e+01	-1.084600e+03
5.800000e-07	-2.655776e-06	-1.626572e-08	-1.900107e+01	-1.068809e+03
5.900000e-07	-2.555305e-06	-1.600235e-08	-1.828224e+01	-1.052305e+03
6.000000e-07	-2.453947e-06	-1.572810e-08	-1.755706e+01	-1.035062e+03
6.100000e-07	-2.351673e-06	-1.545137e-08	-1.682533e+01	-1.017046e+03
6.200000e-07	-2.248637e-06	-1.517153e-08	-1.608815e+01	-9.982113e+02
6.300000e-07	-2.144799e-06	-1.487801e-08	-1.534522e+01	-9.784985e+02
6.400000e-07	-2.040123e-06	-1.456171e-08	-1.459631e+01	-9.578334e+02
6.500000e-07	-1.934592e-06	-1.422370e-08	-1.384128e+01	-9.361312e+02
6.600000e-07	-1.828267e-06	-1.386782e-08	-1.308056e+01	-9.133009e+02
6.700000e-07	-1.721250e-06	-1.349888e-08	-1.231489e+01	-8.892497e+02
6.800000e-07	-1.613561e-06	-1.311169e-08	-1.154442e+01	-8.638859e+02
6.900000e-07	-1.505312e-06	-1.270444e-08	-1.076994e+01	-8.371191e+02
7.000000e-07	-1.396634e-06	-1.227218e-08	-9.992385e+00	-8.088583e+02
7.100000e-07	-1.287611e-06	-1.181296e-08	-9.212369e+00	-7.790089e+02
7.200000e-07	-1.178141e-06	-1.132982e-08	-8.429157e+00	-7.474719e+02
7.300000e-07	-1.068257e-06	-1.082355e-08	-7.642971e+00	-7.141456e+02
7.400000e-07	-9.580293e-07	-1.028927e-08	-6.854338e+00	-6.789342e+02
7.500000e-07	-8.475030e-07	-9.721596e-09	-6.063564e+00	-6.417616e+02
7.600000e-07	-7.367391e-07	-9.121665e-09	-5.271089e+00	-6.025896e+02
7.700000e-07	-6.257860e-07	-8.490342e-09	-4.477262e+00	-5.614378e+02
7.800000e-07	-5.146732e-07	-7.832237e-09	-3.682292e+00	-5.183994e+02
7.900000e-07	-4.034266e-07	-7.150196e-09	-2.886365e+00	-4.736484e+02
8.000000e-07	-2.920314e-07	-6.447189e-09	-2.089374e+00	-4.274350e+02
8.100000e-07	-1.805133e-07	-5.725966e-09	-1.291505e+00	-3.800661e+02
8.200000e-07	-6.897357e-08	-4.991860e-09	-4.934798e-01	-3.318720e+02
8.300000e-07	4.261221e-08	-4.253073e-09	3.048742e-01	-2.831656e+02
8.400000e-07	1.541885e-07	-3.511050e-09	1.103160e+00	-2.341976e+02
8.500000e-07	2.657312e-07	-2.765519e-09	1.901206e+00	-1.851196e+02
8.600000e-07	3.772658e-07	-2.015847e-09	2.699194e+00	-1.359606e+02
8.700000e-07	4.886719e-07	-1.263509e-09	3.496262e+00	-8.662389e+01
8.800000e-07	5.998911e-07	-5.049162e-10	4.291994e+00	-3.690736e+01
8.900000e-07	7.109951e-07	2.626453e-10	5.086901e+00	1.345576e+01
9.000000e-07	8.219471e-07	1.041008e-09	5.880721e+00	6.474034e+01
9.100000e-07	9.326811e-07	1.836184e-09	6.672981e+00	1.171671e+02
9.200000e-07	1.043180e-06	2.651403e-09	7.463557e+00	1.708449e+02
9.300000e-07	1.153316e-06	3.485450e-09	8.251541e+00	2.257283e+02
9.400000e-07	1.262994e-06	4.333183e-09	9.036241e+00	2.815975e+02
9.500000e-07	1.372251e-06	5.190226e-09	9.817935e+00	3.380649e+02
9.600000e-07	1.481077e-06	6.048998e-09	1.059654e+01	3.946070e+02
9.700000e-07	1.589462e-06	6.901971e-09	1.137200e+01	4.506163e+02
9.800000e-07	1.697372e-06	7.739779e-09	1.214405e+01	5.054636e+02
9.900000e-07	1.804737e-06	8.550378e-09	1.291221e+01	5.585624e+02
1.000000e-06	1.911370e-06	9.323105e-09	1.367513e+01	6.094224e+02
1.010000e-06	2.017063e-06	1.005135e-08	1.443133e+01	6.576871e+02
1.020000e-06	2.121808e-06	1.073710e-08	1.518074e+01	7.031502e+02
1.030000e-06	2.225640e-06	1.138174e-08	1.592361e+01	7.457511e+02
1.040000e-06	2.328700e-06	1.198399e-08	1.666097e+01	7.855518e+02
1.050000e-06	2.431013e-06	1.254906e-08	1.739298e+01	8.227043e+02
1.060000e-06	2.532438e-06	1.307722e-08	1.811864e+01	8.574118e+02
1.070000e-06	2.633021e-06	1.357212e-08	1.883827e+01	8.898948e+02
1.080000e-06	2.732797e-06	1.403459e-08	1.955213e+01	9.203632e+02
1.090000e-06	2.831636e-06	1.446855e-08	2.025929e+01	9.490008e+02
1.100000e-06	2.929287e-06	1.487808e-08	2.095794e+01	9.759589e+02
1.110000e-06	3.025632e-06	1.526405e-08	2.164726e+01	1.001360e+03
1.120000e-06	3.120854e-06	1.562761e-08	2.232853e+01	1.025306e+03
1.130000e-06	3.215046e-06	1.596961e-08	2.300244e+01	1.047887e+03
1.140000e-06	3.308190e-06	1.629523e-08	2.366885e+01	1.069190e+03
1.150000e-06	3.400329e-06	1.660399e-08	2.432807e+01	1.089304e+03
1.160000e-06	3.491397e-06	1.689298e-08	2.497962e+01	1.108316e+03
1.170000e-06	3.581108e-06	1.716372e-08	2.562147e+01	1.126316e+03
1.180000e-06	3.669375e-06	1.742242e-08	2.625299e+01	1.143383e+03
1.190000e-06	3.756382e-06	1.766874e-08	2.687549e+01	1.159590e+03
1.200000e-06	3.842194e-06	1.790308e-08	2.748944e+01	1.174994e+03
1.210000e-06	3.926779e-06	1.812494e-08	2.809462e+01	1.189641e+03
1.220000e-06	4.010152e-06	1.833573e-08	2.869112e+01	1.203568e+03
1.230000e-06	4.092104e-06	1.853326e-08	2.927746e+01	1.216802e+03
1.240000e-06	4.172431e-06	1.872000e-08	2.985217e+01	1.229373e+03
1.250000e-06	4.251185e-06	1.889942e-08	3.041562e+01	1.241309e+03
1.260000e-06	4.328396e-06	1.907378e-08	3.096804e+01	1.252642e+03
1.270000e-06	4.404040e-06	1.924000e-08	3.150924e+01	1.263406e+03
1.280000e-06	4.477865e-06	1.939601e-08	3.203743e+01	1.273633e+03
1.290000e-06	4.549828e-06	1.954300e-08	3.255230e+01	1.283353e+03
1.300000e-06	4.620155e-06	1.968210e-08	3.305546e+01	1.292591e+03
1.310000e-06	4.688884e-06	1.981615e-08	3.354719e+01	1.301365e+03
1.320000e-06	4.756031e-06	1.994449e-08	3.402760e+01	1.309685e+03
1.330000e-06	4.821400e-06	2.006754e-08	3.449529e+01	1.317560e+03
1.340000e-06	4.884920e-06	2.018100e-08	3.494975e+01	1.324997e+03
1.350000e-06	4.946752e-06	2.028432e-08	3.539214e+01	1.332007e+03
1.360000e-06	5.007045e-06	2.038156e-08	3.582351e+01	1.338607e+03
1.370000e-06	5.065596e-06	2.047455e-08	3.624242e+01	1.344822e+03
1.380000e-06	5.122112e-06	2.056344e-08	3.664677e+01	1.350684e+03
1.390000e-06	5.176760e-06	2.064778e-08	3.703776e+01	1.356228e+03
1.400000e-06	5.229541e-06	2.072833e-08	3.741539e+01	1.361487e+03
1.410000e-06	5.280102e-06	2.080502e-08	3.777713e+01	1.366492e+03
1.420000e-06	5.328388e-06	2.087769e-08	3.812260e+01	1.371262e+03
1.430000e-06	5.374763e-06	2.094777e-08	3.845439e+01	1.375809e+03
1.440000e-06	5.419476e-06	2.101372e-08	3.877430e+01	1.380132e+03
1.450000e-06	5.462351e-06	2.107422e-08	3.908105e+01	1.384221e+03
1.460000e-06	5.503111e-06	2.113073e-08	3.937268e+01	1.388064e+03
1.470000e-06	5.541937e-06	2.118544e-08	3.965047e+01	1.391645e+03
1.480000e-06	5.579016e-06	2.123686e-08	3.991575e+01	1.394955e+03
1.490000e-06	5.614230e-06	2.128248e-08	4.016769e+01	1.397990e+03
1.500000e-06	5.647317e-06	2.132344e-08	4.040442e+01	1.400754e+03
1.510000e-06	5.678332e-06	2.136226e-08	4.062631e+01	1.403259e+03
1.520000e-06	5.707517e-06	2.139889e-08	4.083512e+01	1.405522e+03
1.530000e-06	5.734793e-06	2.143050e-08	4.103028e+01	1.407562e+03
1.540000e-06	5.759829e-06	2.145702e-08	4.120940e+01	1.409398e+03
1.550000e-06	5.782590e-06	2.147990e-08	4.137225e+01	1.411042e+03
1.560000e-06	5.803423e-06	2.149953e-08	4.152130e+01	1.412503e+03
1.570000e-06	5.822359e-06	2.151725e-08	4.165678e+01	1.413784e+03
1.580000e-06	5.839174e-06	2.153382e-08	4.177708e+01	1.414882e+03
1.590000e-06	5.853801e-06	2.154810e-08	4.188173e+01	1.415796e+03
1.600000e-06	5.866240e-06	2.155989e-08	4.197073e+01	1.416526e+03
1.610000e-06	5.876240e-06	2.157000e-08	4.204227e+01	1.417072e+03
1.620000e-06	5.883962e-06	2.157745e-08	4.209752e+01	1.417445e+03
1.630000e-06	5.889704e-06	2.158152e-08	4.213861e+01	1.417654e+03
1.640000e-06	5.893441e-06	2.158481e-08	4.216534e+01	1.417716e+03
1.650000e-06	5.894973e-06	2.158872e-08	4.217630e+01	1.417643e+03
1.660000e-06	5.894317e-06	2.158900e-08	4.217161e+01	1.417445e+03
1.670000e-06	5.891804e-06	2.157501e-08	4.215363e+01	1.417126e+03
1.680000e-06	5.887524e-06	2.156740e-08	4.212300e+01	1.416682e+03
1.690000e-06	5.881199e-06	2.156194e-08	4.207776e+01	1.416101e+03
1.700000e-06	5.872871e-06	2.155223e-08	4.201817e+01	1.415368e+03
1.710000e-06	5.862835e-06	2.154164e-08	4.194637e+01	1.414467e+03
1.720000e-06	5.850799e-06	2.153387e-08	4.186025e+01	1.413387e+03
1.730000e-06	5.836502e-06	2.154910e-08	4.175796e+01	1.412125e+03
1.740000e-06	5.820324e-06	2.148575e-08	4.164222e+01	1.410691e+03
1.750000e-06	5.802135e-06	2.135805e-08	4.151208e+01	1.409102e+03
1.760000e-06	5.781126e-06	2.139891e-08	4.136177e+01	1.407385e+03
1.770000e-06	5.757226e-06	2.140091e-08	4.119077e+01	1.405569e+03
1.780000e-06	5.731169e-06	2.136662e-08	4.100435e+01	1.403678e+03
1.790000e-06	5.703868e-06	2.151521e-08	4.080901e+01	1.401727e+03
1.800000e-06	5.675786e-06	2.127424e-08	4.060810e+01	1.399716e+03
1.810000e-06	5.645908e-06	2.121053e-08	4.039434e+01	1.397627e+03
1.820000e-06	5.613463e-06	2.138507e-08	4.016220e+01	1.395430e+03
1.830000e-06	5.579331e-06	2.106650e-08	3.991800e+01	1.393081e+03
1.840000e-06	5.543415e-06	2.119273e-08	3.966104e+01	1.390536e+03
1.850000e-06	5.505201e-06	2.130395e-08	3.938763e+01	1.387757e+03
1.860000e-06	5.465017e-06	2.102012e-08	3.910013e+01	1.384717e+03
1.870000e-06	5.422899e-06	2.117810e-08	3.879879e+01	1.381405e+03
1.880000e-06	5.379155e-06	2.099692e-08	3.848582e+01	1.377828e+03
1.890000e-06	5.333639e-06	2.083985e-08	3.816017e+01	1.374007e+03
1.900000e-06	5.285795e-06	2.094695e-08	3.781786e+01	1.369971e+03
1.910000e-06	5.235883e-06	2.072359e-08	3.746076e+01	1.365750e+03
1.920000e-06	5.183748e-06	2.084971e-08	3.708776e+01	1.361363e+03
1.930000e-06	5.129360e-06	2.074299e-08	3.669863e+01	1.356821e+03
1.940000e-06	5.073141e-06	2.054692e-08	3.629640e+01	1.352118e+03
1.950000e-06	5.015074e-06	2.059233e-08	3.588096e+01	1.347233e+03
1.960000e-06	4.955295e-06	2.038907e-08	3.545326e+01	1.342140e+03
1.970000e-06	4.893646e-06	2.043576e-08	3.501218e+01	1.336809e+03
1.980000e-06	4.830005e-06	2.031414e-08	3.455686e+01	1.331215e+03
1.990000e-06	4.764638e-06	2.018551e-08	3.408919e+01	1.325342e+03
2.000000e-06	4.697665e-06	2.015838e-08	3.361002e+01	1.319189e+03
2.010000e-06	4.629159e-06	1.995791e-08	3.311988e+01	1.312760e+03
2.020000e-06	4.558734e-06	1.997274e-08	3.261602e+01	1.306069e+03
2.030000e-06	4.486517e-06	1.980287e-08	3.209933e+01	1.299127e+03
2.040000e-06	4.412751e-06	1.970682e-08	3.157157e+01	1.291942e+03
2.050000e-06	4.337340e-06	1.962612e-08	3.103203e+01	1.284509e+03
2.060000e-06	4.260220e-06	1.944758e-08	3.048027e+01	1.276811e+03
2.070000e-06	4.181321e-06	1.938537e-08	2.991577e+01	1.268822e+03
2.080000e-06	4.100928e-06	1.921654e-08	2.934059e+01	1.260510e+03
2.090000e-06	4.019143e-06	1.912705e-08	2.875545e+01	1.251843e+03
2.100000e-06	3.936037e-06	1.894930e-08	2.816086e+01	1.242793e+03
2.110000e-06	3.851658e-06	1.879695e-08	2.755716e+01	1.233344e+03
2.120000e-06	3.765811e-06	1.868042e-08	2.694295e+01	1.223488e+03
2.130000e-06	3.678460e-06	1.852113e-08	2.631799e+01	1.213225e+03
2.140000e-06	3.589835e-06	1.838977e-08	2.568391e+01	1.202557e+03
2.150000e-06	3.500012e-06	1.818887e-08	2.504126e+01	1.191484e+03
2.160000e-06	3.409044e-06	1.802424e-08	2.439042e+01	1.179996e+03
2.170000e-06	3.317059e-06	1.782014e-08	2.373231e+01	1.168073e+03
2.180000e-06	3.223744e-06	1.763952e-08	2.306467e+01	1.155681e+03
2.190000e-06	3.128985e-06	1.745686e-08	2.238670e+01	1.142780e+03
2.200000e-06	3.033061e-06	1.725997e-08	2.170040e+01	1.129323e+03
2.210000e-06	2.936075e-06	1.704585e-08	2.100651e+01	1.115265e+03
2.220000e-06	2.838095e-06	1.680173e-08	2.030550e+01	1.100567e+03
2.230000e-06	2.739175e-06	1.657888e-08	1.959776e+01	1.085197e+03
2.240000e-06	2.639345e-06	1.634150e-08	1.888352e+01	1.069129e+03
2.250000e-06	2.538576e-06	1.610161e-08	1.816255e+01	1.052337e+03
2.260000e-06	2.436754e-06	1.583101e-08	1.743405e+01	1.034793e+03
2.270000e-06	2.333931e-06	1.554768e-08	1.669839e+01	1.016461e+03
2.280000e-06	2.230168e-06	1.524699e-08	1.595601e+01	9.972884e+02
2.290000e-06	2.125517e-06	1.494099e-08	1.520727e+01	9.772100e+02
2.300000e-06	2.020123e-06	1.462762e-08	1.445321e+01	9.561471e+02
2.310000e-06	1.914062e-06	1.429899e-08	1.369439e+01	9.340118e+02
2.320000e-06	1.807452e-06	1.394819e-08	1.293163e+01	9.107120e+02
2.330000e-06	1.700376e-06	1.356557e-08	1.216555e+01	8.861551e+02
2.340000e-06	1.592814e-06	1.316880e-08	1.139598e+01	8.602499e+02
2.350000e-06	1.484729e-06	1.275345e-08	1.062268e+01	8.329062e+02
2.360000e-06	1.376148e-06	1.232187e-08	9.845820e+00	8.040319e+02
2.370000e-06	1.267205e-06	1.185888e-08	9.066374e+00	7.735306e+02
2.380000e-06	1.157901e-06	1.136898e-08	8.284345e+00	7.413018e+02
2.390000e-06	1.048211e-06	1.084780e-08	7.499554e+00	7.072447e+02
2.400000e-06	9.382217e-07	1.029513e-08	6.712621e+00	6.712693e+02
2.410000e-06	8.278657e-07	9.715445e-09	5.923066e+00	6.333121e+02
2.420000e-06	7.170979e-07	9.108347e-09	5.130564e+00	5.933553e+02
2.430000e-06	6.060258e-07	8.472944e-09	4.335886e+00	5.514458e+02
2.440000e-06	4.947775e-07	7.805233e-09	3.539946e+00	5.077084e+02
2.450000e-06	3.834291e-07	7.113112e-09	2.743290e+00	4.623484e+02
2.460000e-06	2.719699e-07	6.399664e-09	1.945841e+00	4.156414e+02
2.470000e-06	1.602995e-07	5.670468e-09	1.146882e+00	3.679079e+02
2.480000e-06	4.851296e-08	4.927825e-09	3.470919e-01	3.194768e+02
2.490000e-06	-6.323222e-08	4.181201e-09	-4.524026e-01	2.706415e+02
2.500000e-06	-1.749242e-07	3.432919e-09	-1.251517e+00	2.216178e+02
2.510000e-06	-2.865317e-07	2.681956e-09	-2.050026e+00	1.725107e+02
2.520000e-06	-3.980889e-07	1.931528e-09	-2.848176e+00	1.232990e+02
2.530000e-06	-5.095117e-07	1.174319e-09	-3.645364e+00	7.384097e+01
2.540000e-06	-6.207150e-07	4.067245e-10	-4.440981e+00	2.390311e+01
2.550000e-06	-7.316896e-07	-3.732897e-10	-5.234962e+00	-2.679178e+01
2.560000e-06	-8.423054e-07	-1.164079e-09	-6.026377e+00	-7.850470e+01
2.570000e-06	-9.525143e-07	-1.968190e-09	-6.814879e+00	-1.314187e+02
2.580000e-06	-1.062330e-06	-2.793854e-09	-7.600568e+00	-1.855860e+02
2.590000e-06	-1.171743e-06	-3.639029e-09	-8.383375e+00	-2.408935e+02
2.600000e-06	-1.280824e-06	-4.499701e-09	-9.163808e+00	-2.970534e+02
2.610000e-06	-1.389512e-06	-5.368722e-09	-9.941432e+00	-3.536195e+02
2.620000e-06	-1.497668e-06	-6.234892e-09	-1.071525e+01	-4.100283e+02
2.630000e-06	-1.605313e-06	-7.086134e-09	-1.148541e+01	-4.656560e+02
2.640000e-06	-1.712491e-06	-7.913431e-09	-1.225223e+01	-5.198831e+02
2.650000e-06	-1.819139e-06	-8.713030e-09	-1.301525e+01	-5.721549e+02
2.660000e-06	-1.925149e-06	-9.478857e-09	-1.377372e+01	-6.220306e+02
2.670000e-06	-2.030437e-06	-1.020468e-08	-1.452701e+01	-6.692118e+02
2.680000e-06	-2.134991e-06	-1.088514e-08	-1.527505e+01	-7.135512e+02
2.690000e-06	-2.238784e-06	-1.151829e-08	-1.601765e+01	-7.550398e+02
2.700000e-06	-2.341661e-06	-1.210943e-08	-1.675370e+01	-7.937793e+02
2.710000e-06	-2.443521e-06	-1.266525e-08	-1.748247e+01	-8.299463e+02
2.720000e-06	-2.544338e-06	-1.318676e-08	-1.820378e+01	-8.637546e+02
2.730000e-06	-2.644132e-06	-1.367385e-08	-1.891776e+01	-8.954233e+02
2.740000e-06	-2.743051e-06	-1.413030e-08	-1.962549e+01	-9.251532e+02
2.750000e-06	-2.841168e-06	-1.455789e-08	-2.032748e+01	-9.531156e+02
2.760000e-06	-2.938346e-06	-1.496110e-08	-2.102276e+01	-9.794498e+02
2.770000e-06	-3.034582e-06	-1.534209e-08	-2.171129e+01	-1.004269e+03
2.780000e-06	-3.129931e-06	-1.569972e-08	-2.239347e+01	-1.027669e+03
2.790000e-06	-3.224146e-06	-1.603356e-08	-2.306755e+01	-1.049739e+03
2.800000e-06	-3.316960e-06	-1.634714e-08	-2.373160e+01	-1.070565e+03
2.810000e-06	-3.408471e-06	-1.664584e-08	-2.438632e+01	-1.090236e+03
2.820000e-06	-3.498807e-06	-1.693182e-08	-2.503264e+01	-1.108841e+03
2.830000e-06	-3.587904e-06	-1.720471e-08	-2.567009e+01	-1.126466e+03
2.840000e-06	-3.675826e-06	-1.746293e-08	-2.629915e+01	-1.143189e+03
2.850000e-06	-3.762524e-06	-1.770773e-08	-2.691943e+01	-1.159075e+03
2.860000e-06	-3.847716e-06	-1.794041e-08	-2.752895e+01	-1.174178e+03
2.870000e-06	-3.931480e-06	-1.816344e-08	-2.812826e+01	-1.188539e+03
2.880000e-06	-4.013945e-06	-1.837424e-08	-2.871826e+01	-1.202191e+03
2.890000e-06	-4.095034e-06	-1.857223e-08	-2.929842e+01	-1.215163e+03
2.900000e-06	-4.174727e-06	-1.875967e-08	-2.986859e+01	-1.227482e+03
2.910000e-06	-4.252785e-06	-1.893734e-08	-3.042707e+01	-1.239178e+03
2.920000e-06	-4.329080e-06	-1.910661e-08	-3.097293e+01	-1.250284e+03
2.930000e-06	-4.403711e-06	-1.926802e-08	-3.150688e+01	-1.260834e+03
2.940000e-06	-4.476717e-06	-1.942193e-08	-3.202922e+01	-1.270859e+03
