# Temperatura_=_75.01
# Concentracion g/m^3_=_28200.0
# C_Vs_to_Am_M_A/Vsm_=_65563218390.804596
# pendiente_HvsI_1/m_=_3716.3
# ordenada_HvsI_A/m_=_1297.0
# frecuencia_Hz_=_301956.35576035857

Tiempo_(s)	Campo_(V.s)	Magnetizacion_(V.s)	Campo_(kA/m)	Magnetizacion_(A/m)
0.000000e+00	-5.862247e-06	-2.343536e-08	-4.192933e+01	-1.533449e+03
1.000000e-08	-5.858941e-06	-2.343291e-08	-4.190568e+01	-1.533006e+03
2.000000e-08	-5.853786e-06	-2.342059e-08	-4.186881e+01	-1.532403e+03
3.000000e-08	-5.846812e-06	-2.340651e-08	-4.181893e+01	-1.531628e+03
4.000000e-08	-5.837973e-06	-2.338926e-08	-4.175571e+01	-1.530668e+03
5.000000e-08	-5.827023e-06	-2.336684e-08	-4.167739e+01	-1.529514e+03
6.000000e-08	-5.813920e-06	-2.334354e-08	-4.158367e+01	-1.528162e+03
7.000000e-08	-5.798692e-06	-2.331065e-08	-4.147476e+01	-1.526614e+03
8.000000e-08	-5.781234e-06	-2.329785e-08	-4.134989e+01	-1.524882e+03
9.000000e-08	-5.761671e-06	-2.334586e-08	-4.120997e+01	-1.522987e+03
1.000000e-07	-5.739953e-06	-2.329581e-08	-4.105463e+01	-1.520956e+03
1.100000e-07	-5.715987e-06	-2.319773e-08	-4.088321e+01	-1.518817e+03
1.200000e-07	-5.689852e-06	-2.317356e-08	-4.069628e+01	-1.516597e+03
1.300000e-07	-5.662003e-06	-2.308534e-08	-4.049710e+01	-1.514314e+03
1.400000e-07	-5.632790e-06	-2.300854e-08	-4.028815e+01	-1.511972e+03
1.500000e-07	-5.601982e-06	-2.314912e-08	-4.006780e+01	-1.509559e+03
1.600000e-07	-5.569385e-06	-2.301766e-08	-3.983465e+01	-1.507047e+03
1.700000e-07	-5.534868e-06	-2.290916e-08	-3.958777e+01	-1.504393e+03
1.800000e-07	-5.498264e-06	-2.300684e-08	-3.932596e+01	-1.501549e+03
1.900000e-07	-5.459694e-06	-2.280604e-08	-3.905009e+01	-1.498463e+03
2.000000e-07	-5.419333e-06	-2.279722e-08	-3.876141e+01	-1.495095e+03
2.100000e-07	-5.376904e-06	-2.283369e-08	-3.845794e+01	-1.491416e+03
2.200000e-07	-5.332318e-06	-2.266916e-08	-3.813905e+01	-1.487417e+03
2.300000e-07	-5.285773e-06	-2.263276e-08	-3.780613e+01	-1.483106e+03
2.400000e-07	-5.237057e-06	-2.256274e-08	-3.745769e+01	-1.478504e+03
2.500000e-07	-5.185979e-06	-2.245957e-08	-3.709236e+01	-1.473639e+03
2.600000e-07	-5.132664e-06	-2.242479e-08	-3.671103e+01	-1.468540e+03
2.700000e-07	-5.077434e-06	-2.231050e-08	-3.631601e+01	-1.463224e+03
2.800000e-07	-5.020433e-06	-2.222850e-08	-3.590831e+01	-1.457698e+03
2.900000e-07	-4.961513e-06	-2.212477e-08	-3.548689e+01	-1.451956e+03
3.000000e-07	-4.900773e-06	-2.204699e-08	-3.505245e+01	-1.445979e+03
3.100000e-07	-4.838315e-06	-2.196217e-08	-3.460572e+01	-1.439743e+03
3.200000e-07	-4.774058e-06	-2.184909e-08	-3.414613e+01	-1.433223e+03
3.300000e-07	-4.707909e-06	-2.176441e-08	-3.367300e+01	-1.426403e+03
3.400000e-07	-4.639931e-06	-2.162740e-08	-3.318679e+01	-1.419275e+03
3.500000e-07	-4.570313e-06	-2.152480e-08	-3.268886e+01	-1.411839e+03
3.600000e-07	-4.499204e-06	-2.140627e-08	-3.218025e+01	-1.404106e+03
3.700000e-07	-4.426579e-06	-2.128790e-08	-3.166081e+01	-1.396084e+03
3.800000e-07	-4.352082e-06	-2.117350e-08	-3.112797e+01	-1.387779e+03
3.900000e-07	-4.275705e-06	-2.101650e-08	-3.058169e+01	-1.379188e+03
4.000000e-07	-4.197664e-06	-2.088423e-08	-3.002351e+01	-1.370296e+03
4.100000e-07	-4.117928e-06	-2.075557e-08	-2.945320e+01	-1.361078e+03
4.200000e-07	-4.036651e-06	-2.061139e-08	-2.887187e+01	-1.351506e+03
4.300000e-07	-3.954136e-06	-2.045062e-08	-2.828169e+01	-1.341549e+03
4.400000e-07	-3.870473e-06	-2.028196e-08	-2.768330e+01	-1.331184e+03
4.500000e-07	-3.785586e-06	-2.011487e-08	-2.707615e+01	-1.320398e+03
4.600000e-07	-3.699454e-06	-1.993788e-08	-2.646010e+01	-1.309187e+03
4.700000e-07	-3.612188e-06	-1.977589e-08	-2.583593e+01	-1.297552e+03
4.800000e-07	-3.523660e-06	-1.960414e-08	-2.520274e+01	-1.285499e+03
4.900000e-07	-3.433584e-06	-1.940831e-08	-2.455847e+01	-1.273023e+03
5.000000e-07	-3.342118e-06	-1.920360e-08	-2.390427e+01	-1.260112e+03
5.100000e-07	-3.249519e-06	-1.899309e-08	-2.324197e+01	-1.246735e+03
5.200000e-07	-3.155801e-06	-1.877996e-08	-2.257165e+01	-1.232849e+03
5.300000e-07	-3.061028e-06	-1.855564e-08	-2.189380e+01	-1.218404e+03
5.400000e-07	-2.965243e-06	-1.832519e-08	-2.120870e+01	-1.203344e+03
5.500000e-07	-2.868276e-06	-1.808017e-08	-2.051515e+01	-1.187620e+03
5.600000e-07	-2.769969e-06	-1.782115e-08	-1.981202e+01	-1.171192e+03
5.700000e-07	-2.670483e-06	-1.755777e-08	-1.910045e+01	-1.154033e+03
5.800000e-07	-2.570072e-06	-1.728877e-08	-1.838227e+01	-1.136124e+03
5.900000e-07	-2.468731e-06	-1.700972e-08	-1.765743e+01	-1.117447e+03
6.000000e-07	-2.366498e-06	-1.671205e-08	-1.692622e+01	-1.097981e+03
6.100000e-07	-2.263505e-06	-1.640132e-08	-1.618957e+01	-1.077686e+03
6.200000e-07	-2.159796e-06	-1.607468e-08	-1.544780e+01	-1.056505e+03
6.300000e-07	-2.055282e-06	-1.573152e-08	-1.470027e+01	-1.034359e+03
6.400000e-07	-1.949836e-06	-1.537280e-08	-1.394607e+01	-1.011153e+03
6.500000e-07	-1.843523e-06	-1.499724e-08	-1.318567e+01	-9.867798e+02
6.600000e-07	-1.736411e-06	-1.460425e-08	-1.241956e+01	-9.611284e+02
6.700000e-07	-1.628682e-06	-1.418993e-08	-1.164904e+01	-9.340929e+02
6.800000e-07	-1.520552e-06	-1.375435e-08	-1.087565e+01	-9.055729e+02
6.900000e-07	-1.412041e-06	-1.329489e-08	-1.009953e+01	-8.754730e+02
7.000000e-07	-1.303081e-06	-1.280988e-08	-9.320196e+00	-8.436976e+02
7.100000e-07	-1.193657e-06	-1.229499e-08	-8.537553e+00	-8.101456e+02
7.200000e-07	-1.083850e-06	-1.175228e-08	-7.752164e+00	-7.747076e+02
7.300000e-07	-9.737159e-07	-1.118015e-08	-6.964438e+00	-7.372690e+02
7.400000e-07	-8.632736e-07	-1.057741e-08	-6.174506e+00	-6.977211e+02
7.500000e-07	-7.525635e-07	-9.939149e-09	-5.382659e+00	-6.559805e+02
7.600000e-07	-6.416676e-07	-9.263660e-09	-4.589484e+00	-6.120125e+02
7.700000e-07	-5.306133e-07	-8.557260e-09	-3.795176e+00	-5.658542e+02
7.800000e-07	-4.193706e-07	-7.821572e-09	-2.999520e+00	-5.176308e+02
7.900000e-07	-3.079727e-07	-7.060313e-09	-2.202754e+00	-4.675586e+02
8.000000e-07	-1.964400e-07	-6.271773e-09	-1.405024e+00	-4.159311e+02
8.100000e-07	-8.481985e-08	-5.464186e-09	-6.066683e-01	-3.630880e+02
8.200000e-07	2.680882e-08	-4.645066e-09	1.917483e-01	-3.093702e+02
8.300000e-07	1.384914e-07	-3.818766e-09	9.905504e-01	-2.550693e+02
8.400000e-07	2.501884e-07	-2.989512e-09	1.789456e+00	-2.003814e+02
8.500000e-07	3.618036e-07	-2.155524e-09	2.587776e+00	-1.453752e+02
8.600000e-07	4.733220e-07	-1.315840e-09	3.385404e+00	-8.998409e+01
8.700000e-07	5.846924e-07	-4.613994e-10	4.181973e+00	-3.402520e+01
8.800000e-07	6.959215e-07	4.068127e-10	4.977532e+00	2.275514e+01
8.900000e-07	8.069879e-07	1.288385e-09	5.771926e+00	8.061644e+01
9.000000e-07	9.178260e-07	2.187051e-09	6.564688e+00	1.397512e+02
9.100000e-07	1.028341e-06	3.104135e-09	7.355139e+00	2.002176e+02
9.200000e-07	1.138503e-06	4.039950e-09	8.143068e+00	2.618913e+02
9.300000e-07	1.248327e-06	4.991461e-09	8.928571e+00	3.244460e+02
9.400000e-07	1.357735e-06	5.954528e-09	9.711106e+00	3.873674e+02
9.500000e-07	1.466698e-06	6.911845e-09	1.049046e+01	4.499982e+02
9.600000e-07	1.575188e-06	7.849976e-09	1.126643e+01	5.116069e+02
9.700000e-07	1.683110e-06	8.758957e-09	1.203833e+01	5.714682e+02
9.800000e-07	1.790456e-06	9.629311e-09	1.280611e+01	6.289401e+02
9.900000e-07	1.897233e-06	1.045485e-08	1.356983e+01	6.835255e+02
1.000000e-06	2.003256e-06	1.123143e-08	1.432816e+01	7.349089e+02
1.010000e-06	2.108301e-06	1.195786e-08	1.507948e+01	7.829646e+02
1.020000e-06	2.212330e-06	1.263532e-08	1.582354e+01	8.277372e+02
1.030000e-06	2.315489e-06	1.326361e-08	1.656138e+01	8.694019e+02
1.040000e-06	2.417851e-06	1.384921e-08	1.729352e+01	9.082142e+02
1.050000e-06	2.519374e-06	1.439788e-08	1.801965e+01	9.444593e+02
1.060000e-06	2.620049e-06	1.491323e-08	1.873973e+01	9.784105e+02
1.070000e-06	2.719931e-06	1.539682e-08	1.945412e+01	1.010302e+03
1.080000e-06	2.819005e-06	1.585317e-08	2.016275e+01	1.040320e+03
1.090000e-06	2.916923e-06	1.628300e-08	2.086309e+01	1.068603e+03
1.100000e-06	3.013501e-06	1.668690e-08	2.155386e+01	1.095259e+03
1.110000e-06	3.108922e-06	1.706606e-08	2.223635e+01	1.120380e+03
1.120000e-06	3.203283e-06	1.742354e-08	2.291127e+01	1.144059e+03
1.130000e-06	3.296598e-06	1.776328e-08	2.357869e+01	1.166395e+03
1.140000e-06	3.388873e-06	1.808599e-08	2.423869e+01	1.187495e+03
1.150000e-06	3.480141e-06	1.839078e-08	2.489147e+01	1.207471e+03
1.160000e-06	3.570137e-06	1.867832e-08	2.553517e+01	1.226427e+03
1.170000e-06	3.658570e-06	1.895260e-08	2.616768e+01	1.244453e+03
1.180000e-06	3.745683e-06	1.921278e-08	2.679074e+01	1.261619e+03
1.190000e-06	3.831676e-06	1.946155e-08	2.740580e+01	1.277972e+03
1.200000e-06	3.916444e-06	1.969819e-08	2.801210e+01	1.293543e+03
1.210000e-06	4.000020e-06	1.992362e-08	2.860987e+01	1.308352e+03
1.220000e-06	4.082156e-06	2.013460e-08	2.919734e+01	1.322420e+03
1.230000e-06	4.162671e-06	2.033191e-08	2.977323e+01	1.335775e+03
1.240000e-06	4.241632e-06	2.052014e-08	3.033798e+01	1.348454e+03
1.250000e-06	4.319084e-06	2.070236e-08	3.089196e+01	1.360505e+03
1.260000e-06	4.395018e-06	2.087747e-08	3.143507e+01	1.371980e+03
1.270000e-06	4.469168e-06	2.104562e-08	3.196542e+01	1.382930e+03
1.280000e-06	4.541404e-06	2.120677e-08	3.248209e+01	1.393394e+03
1.290000e-06	4.611901e-06	2.136033e-08	3.298631e+01	1.403399e+03
1.300000e-06	4.680821e-06	2.150621e-08	3.347926e+01	1.412954e+03
1.310000e-06	4.748169e-06	2.164410e-08	3.396096e+01	1.422058e+03
1.320000e-06	4.813738e-06	2.177522e-08	3.442993e+01	1.430701e+03
1.330000e-06	4.877468e-06	2.189825e-08	3.488576e+01	1.438875e+03
1.340000e-06	4.939552e-06	2.201385e-08	3.532981e+01	1.446580e+03
1.350000e-06	5.000089e-06	2.212328e-08	3.576280e+01	1.453827e+03
1.360000e-06	5.058978e-06	2.222718e-08	3.618400e+01	1.460644e+03
1.370000e-06	5.115869e-06	2.232564e-08	3.659091e+01	1.467065e+03
1.380000e-06	5.170805e-06	2.241881e-08	3.698383e+01	1.473135e+03
1.390000e-06	5.223934e-06	2.250594e-08	3.736384e+01	1.478894e+03
1.400000e-06	5.274956e-06	2.258717e-08	3.772877e+01	1.484377e+03
1.410000e-06	5.323688e-06	2.266476e-08	3.807732e+01	1.489607e+03
1.420000e-06	5.370400e-06	2.273992e-08	3.841142e+01	1.494596e+03
1.430000e-06	5.415358e-06	2.281183e-08	3.873298e+01	1.499341e+03
1.440000e-06	5.458527e-06	2.287913e-08	3.904175e+01	1.503836e+03
1.450000e-06	5.499679e-06	2.294374e-08	3.933609e+01	1.508069e+03
1.460000e-06	5.538797e-06	2.300548e-08	3.961587e+01	1.512031e+03
1.470000e-06	5.576068e-06	2.306179e-08	3.988245e+01	1.515718e+03
1.480000e-06	5.611538e-06	2.311189e-08	4.013615e+01	1.519129e+03
1.490000e-06	5.644923e-06	2.315875e-08	4.037493e+01	1.522273e+03
1.500000e-06	5.676147e-06	2.320306e-08	4.059826e+01	1.525159e+03
1.510000e-06	5.705577e-06	2.324276e-08	4.080876e+01	1.527797e+03
1.520000e-06	5.733188e-06	2.327920e-08	4.100624e+01	1.530197e+03
1.530000e-06	5.758517e-06	2.331259e-08	4.118740e+01	1.532364e+03
1.540000e-06	5.781595e-06	2.334240e-08	4.135247e+01	1.534301e+03
1.550000e-06	5.802725e-06	2.336827e-08	4.150360e+01	1.536010e+03
1.560000e-06	5.821969e-06	2.339090e-08	4.164124e+01	1.537490e+03
1.570000e-06	5.839106e-06	2.341015e-08	4.176381e+01	1.538744e+03
1.580000e-06	5.853971e-06	2.342452e-08	4.187014e+01	1.539776e+03
1.590000e-06	5.866655e-06	2.343487e-08	4.196086e+01	1.540594e+03
1.600000e-06	5.876952e-06	2.344394e-08	4.203451e+01	1.541212e+03
1.610000e-06	5.884937e-06	2.345240e-08	4.209162e+01	1.541641e+03
1.620000e-06	5.890908e-06	2.345949e-08	4.213432e+01	1.541896e+03
1.630000e-06	5.894925e-06	2.346544e-08	4.216306e+01	1.541990e+03
1.640000e-06	5.896777e-06	2.346886e-08	4.217630e+01	1.541931e+03
1.650000e-06	5.896473e-06	2.346927e-08	4.217413e+01	1.541725e+03
1.660000e-06	5.894290e-06	2.345721e-08	4.215851e+01	1.541368e+03
1.670000e-06	5.890260e-06	2.344483e-08	4.212969e+01	1.540856e+03
1.680000e-06	5.884167e-06	2.343534e-08	4.208611e+01	1.540179e+03
1.690000e-06	5.876072e-06	2.342288e-08	4.202821e+01	1.539324e+03
1.700000e-06	5.866218e-06	2.341039e-08	4.195773e+01	1.538280e+03
1.710000e-06	5.854466e-06	2.339791e-08	4.187367e+01	1.537040e+03
1.720000e-06	5.840517e-06	2.339556e-08	4.177391e+01	1.535601e+03
1.730000e-06	5.824557e-06	2.335829e-08	4.165975e+01	1.533970e+03
1.740000e-06	5.806581e-06	2.323385e-08	4.153118e+01	1.532164e+03
1.750000e-06	5.785968e-06	2.323684e-08	4.138375e+01	1.530205e+03
1.760000e-06	5.762493e-06	2.326382e-08	4.121584e+01	1.528122e+03
1.770000e-06	5.736746e-06	2.322311e-08	4.103169e+01	1.525944e+03
1.780000e-06	5.709576e-06	2.330945e-08	4.083736e+01	1.523694e+03
1.790000e-06	5.681504e-06	2.314426e-08	4.063657e+01	1.521384e+03
1.800000e-06	5.651919e-06	2.299171e-08	4.042497e+01	1.519012e+03
1.810000e-06	5.619888e-06	2.316393e-08	4.019587e+01	1.516559e+03
1.820000e-06	5.585965e-06	2.301197e-08	3.995324e+01	1.513990e+03
1.830000e-06	5.550341e-06	2.302990e-08	3.969844e+01	1.511260e+03
1.840000e-06	5.512448e-06	2.315379e-08	3.942742e+01	1.508316e+03
1.850000e-06	5.472489e-06	2.284330e-08	3.914161e+01	1.505111e+03
1.860000e-06	5.430599e-06	2.287489e-08	3.884200e+01	1.501610e+03
1.870000e-06	5.386964e-06	2.285146e-08	3.852990e+01	1.497793e+03
1.880000e-06	5.341642e-06	2.269518e-08	3.820573e+01	1.493656e+03
1.890000e-06	5.294106e-06	2.279472e-08	3.786574e+01	1.489215e+03
1.900000e-06	5.244440e-06	2.258818e-08	3.751051e+01	1.484496e+03
1.910000e-06	5.192678e-06	2.255037e-08	3.714028e+01	1.479525e+03
1.920000e-06	5.138638e-06	2.255697e-08	3.675376e+01	1.474330e+03
1.930000e-06	5.082714e-06	2.236113e-08	3.635377e+01	1.468922e+03
1.940000e-06	5.024966e-06	2.236952e-08	3.594073e+01	1.463304e+03
1.950000e-06	4.965457e-06	2.221093e-08	3.551510e+01	1.457462e+03
1.960000e-06	4.904121e-06	2.216948e-08	3.507640e+01	1.451375e+03
1.970000e-06	4.840775e-06	2.206850e-08	3.462332e+01	1.445018e+03
1.980000e-06	4.775613e-06	2.188664e-08	3.415725e+01	1.438369e+03
1.990000e-06	4.708756e-06	2.188976e-08	3.367906e+01	1.431416e+03
2.000000e-06	4.640390e-06	2.171690e-08	3.319008e+01	1.424153e+03
2.010000e-06	4.570234e-06	2.163085e-08	3.268829e+01	1.416587e+03
2.020000e-06	4.498217e-06	2.148983e-08	3.217320e+01	1.408727e+03
2.030000e-06	4.424641e-06	2.136140e-08	3.164694e+01	1.400582e+03
2.040000e-06	4.349458e-06	2.129586e-08	3.110921e+01	1.392153e+03
2.050000e-06	4.272531e-06	2.109427e-08	3.055899e+01	1.383434e+03
2.060000e-06	4.193796e-06	2.098925e-08	2.999584e+01	1.374404e+03
2.070000e-06	4.113570e-06	2.082584e-08	2.942204e+01	1.365036e+03
2.080000e-06	4.031952e-06	2.068815e-08	2.883826e+01	1.355300e+03
2.090000e-06	3.948934e-06	2.054343e-08	2.824448e+01	1.345169e+03
2.100000e-06	3.864686e-06	2.037951e-08	2.764190e+01	1.334623e+03
2.110000e-06	3.778980e-06	2.023589e-08	2.702890e+01	1.323653e+03
2.120000e-06	3.691735e-06	2.002818e-08	2.640489e+01	1.312258e+03
2.130000e-06	3.603213e-06	1.986101e-08	2.577174e+01	1.300442e+03
2.140000e-06	3.513540e-06	1.966250e-08	2.513036e+01	1.288207e+03
2.150000e-06	3.422712e-06	1.948039e-08	2.448072e+01	1.275545e+03
2.160000e-06	3.330811e-06	1.928489e-08	2.382340e+01	1.262436e+03
2.170000e-06	3.237733e-06	1.908056e-08	2.315767e+01	1.248846e+03
2.180000e-06	3.143179e-06	1.886791e-08	2.248138e+01	1.234725e+03
2.190000e-06	3.047323e-06	1.863842e-08	2.179577e+01	1.220021e+03
2.200000e-06	2.950532e-06	1.842042e-08	2.110348e+01	1.204680e+03
2.210000e-06	2.852728e-06	1.817956e-08	2.040395e+01	1.188657e+03
2.220000e-06	2.753884e-06	1.793035e-08	1.969697e+01	1.171917e+03
2.230000e-06	2.654164e-06	1.765543e-08	1.898373e+01	1.154436e+03
2.240000e-06	2.553554e-06	1.737557e-08	1.826413e+01	1.136199e+03
2.250000e-06	2.451927e-06	1.708196e-08	1.753724e+01	1.117185e+03
2.260000e-06	2.349182e-06	1.677949e-08	1.680236e+01	1.097367e+03
2.270000e-06	2.245430e-06	1.647104e-08	1.606029e+01	1.076699e+03
2.280000e-06	2.140869e-06	1.614792e-08	1.531242e+01	1.055114e+03
2.290000e-06	2.035580e-06	1.580603e-08	1.455935e+01	1.032525e+03
2.300000e-06	1.929638e-06	1.544195e-08	1.380161e+01	1.008830e+03
2.310000e-06	1.823138e-06	1.506574e-08	1.303987e+01	9.839202e+02
2.320000e-06	1.716063e-06	1.466975e-08	1.227402e+01	9.576864e+02
2.330000e-06	1.608488e-06	1.425387e-08	1.150460e+01	9.300248e+02
2.340000e-06	1.500489e-06	1.380965e-08	1.073215e+01	9.008374e+02
2.350000e-06	1.392033e-06	1.334124e-08	9.956425e+00	8.700296e+02
2.360000e-06	1.283189e-06	1.284588e-08	9.177922e+00	8.375038e+02
2.370000e-06	1.173963e-06	1.232340e-08	8.396692e+00	8.031556e+02
2.380000e-06	1.064269e-06	1.177027e-08	7.612111e+00	7.668724e+02
2.390000e-06	9.541498e-07	1.118538e-08	6.824492e+00	7.285402e+02
2.400000e-06	8.436956e-07	1.057058e-08	6.034476e+00	6.880587e+02
2.410000e-06	7.329721e-07	9.920697e-09	5.242533e+00	6.453623e+02
2.420000e-06	6.220012e-07	9.236277e-09	4.448822e+00	6.004443e+02
2.430000e-06	5.108012e-07	8.518486e-09	3.653471e+00	5.533784e+02
2.440000e-06	3.994127e-07	7.771690e-09	2.856773e+00	5.043293e+02
2.450000e-06	2.878219e-07	6.995250e-09	2.058627e+00	4.535492e+02
2.460000e-06	1.760939e-07	6.197690e-09	1.259500e+00	4.013561e+02
2.470000e-06	6.434425e-08	5.386809e-09	4.602179e-01	3.480963e+02
2.480000e-06	-4.741866e-08	4.567065e-09	-3.391587e-01	2.940957e+02
2.490000e-06	-1.591404e-07	3.735967e-09	-1.138241e+00	2.396100e+02
2.500000e-06	-2.708092e-07	2.893364e-09	-1.936944e+00	1.847834e+02
2.510000e-06	-3.823988e-07	2.045936e-09	-2.735082e+00	1.296261e+02
2.520000e-06	-4.938274e-07	1.193183e-09	-3.532067e+00	7.401766e+01
2.530000e-06	-6.050575e-07	3.315472e-10	-4.327633e+00	1.773793e+01
2.540000e-06	-7.160587e-07	-5.433031e-10	-5.121561e+00	-3.947797e+01
2.550000e-06	-8.267881e-07	-1.433940e-09	-5.913546e+00	-9.786973e+01
2.560000e-06	-9.371533e-07	-2.344253e-09	-6.702925e+00	-1.575797e+02
2.570000e-06	-1.047145e-06	-3.275979e-09	-7.489631e+00	-2.185923e+02
2.580000e-06	-1.156746e-06	-4.223005e-09	-8.273551e+00	-2.806970e+02
2.590000e-06	-1.265963e-06	-5.180096e-09	-9.054716e+00	-3.434834e+02
2.600000e-06	-1.374745e-06	-6.140847e-09	-9.832769e+00	-4.063686e+02
2.610000e-06	-1.483030e-06	-7.093990e-09	-1.060727e+01	-4.686543e+02
2.620000e-06	-1.590832e-06	-8.029509e-09	-1.137832e+01	-5.296016e+02
2.630000e-06	-1.698139e-06	-8.933972e-09	-1.214583e+01	-5.885120e+02
2.640000e-06	-1.804887e-06	-9.797527e-09	-1.290934e+01	-6.447995e+02
2.650000e-06	-1.910969e-06	-1.061343e-08	-1.366808e+01	-6.980418e+02
2.660000e-06	-2.016370e-06	-1.137860e-08	-1.442195e+01	-7.480056e+02
2.670000e-06	-2.121068e-06	-1.209433e-08	-1.517080e+01	-7.946420e+02
2.680000e-06	-2.225028e-06	-1.275994e-08	-1.591436e+01	-8.380571e+02
2.690000e-06	-2.328177e-06	-1.338108e-08	-1.665213e+01	-8.784670e+02
2.700000e-06	-2.430298e-06	-1.396283e-08	-1.738255e+01	-9.161459e+02
2.710000e-06	-2.531289e-06	-1.450778e-08	-1.810487e+01	-9.513781e+02
2.720000e-06	-2.631287e-06	-1.501562e-08	-1.882010e+01	-9.844226e+02
2.730000e-06	-2.730431e-06	-1.548991e-08	-1.952922e+01	-1.015493e+03
2.740000e-06	-2.828688e-06	-1.593713e-08	-2.023200e+01	-1.044754e+03
2.750000e-06	-2.925975e-06	-1.635812e-08	-2.092784e+01	-1.072330e+03
2.760000e-06	-3.022305e-06	-1.675690e-08	-2.161683e+01	-1.098319e+03
2.770000e-06	-3.117765e-06	-1.713514e-08	-2.229960e+01	-1.122813e+03
2.780000e-06	-3.212188e-06	-1.748892e-08	-2.297496e+01	-1.145905e+03
2.790000e-06	-3.305269e-06	-1.781791e-08	-2.364071e+01	-1.167699e+03
2.800000e-06	-3.397077e-06	-1.812869e-08	-2.429736e+01	-1.188306e+03
2.810000e-06	-3.487707e-06	-1.842738e-08	-2.494559e+01	-1.207835e+03
2.820000e-06	-3.577073e-06	-1.871463e-08	-2.558477e+01	-1.226384e+03
2.830000e-06	-3.665210e-06	-1.898586e-08	-2.621516e+01	-1.244037e+03
2.840000e-06	-3.752139e-06	-1.924221e-08	-2.683692e+01	-1.260851e+03
2.850000e-06	-3.837610e-06	-1.948732e-08	-2.744825e+01	-1.276868e+03
2.860000e-06	-3.921586e-06	-1.972137e-08	-2.804888e+01	-1.292111e+03
2.870000e-06	-4.004223e-06	-1.994498e-08	-2.863993e+01	-1.306602e+03
2.880000e-06	-4.085488e-06	-2.015766e-08	-2.922118e+01	-1.320362e+03
2.890000e-06	-4.165404e-06	-2.036043e-08	-2.979277e+01	-1.333424e+03
2.900000e-06	-4.243704e-06	-2.055207e-08	-3.035280e+01	-1.345829e+03
2.910000e-06	-4.320189e-06	-2.073352e-08	-3.089986e+01	-1.357629e+03
2.920000e-06	-4.395045e-06	-2.090672e-08	-3.143526e+01	-1.368875e+03
2.930000e-06	-4.468275e-06	-2.107121e-08	-3.195903e+01	-1.379615e+03
2.940000e-06	-4.539872e-06	-2.122844e-08	-3.247113e+01	-1.389881e+03
