# Temperatura_=_82.55
# Concentracion g/m^3_=_56400.0
# C_Vs_to_Am_M_A/Vsm_=_65563218390.804596
# pendiente_HvsI_1/m_=_3716.3
# ordenada_HvsI_A/m_=_1297.0
# frecuencia_Hz_=_302442.9997667082

Tiempo_(s)	Campo_(V.s)	Magnetizacion_(V.s)	Campo_(kA/m)	Magnetizacion_(A/m)
0.000000e+00	-7.971638e-06	-5.963871e-08	-5.688003e+01	-3.904592e+03
1.000000e-08	-7.968552e-06	-5.963088e-08	-5.685800e+01	-3.904172e+03
2.000000e-08	-7.962849e-06	-5.961192e-08	-5.681731e+01	-3.903504e+03
3.000000e-08	-7.954616e-06	-5.958673e-08	-5.675857e+01	-3.902471e+03
4.000000e-08	-7.943633e-06	-5.955863e-08	-5.668020e+01	-3.900975e+03
5.000000e-08	-7.929746e-06	-5.952290e-08	-5.658112e+01	-3.898970e+03
6.000000e-08	-7.913008e-06	-5.947778e-08	-5.646168e+01	-3.896472e+03
7.000000e-08	-7.893829e-06	-5.943114e-08	-5.632484e+01	-3.893559e+03
8.000000e-08	-7.872419e-06	-5.938879e-08	-5.617206e+01	-3.890349e+03
9.000000e-08	-7.848196e-06	-5.941251e-08	-5.599923e+01	-3.886973e+03
1.000000e-07	-7.820742e-06	-5.937642e-08	-5.580333e+01	-3.883538e+03
1.100000e-07	-7.790235e-06	-5.925055e-08	-5.558566e+01	-3.880106e+03
1.200000e-07	-7.756862e-06	-5.917024e-08	-5.534753e+01	-3.876681e+03
1.300000e-07	-7.720778e-06	-5.910985e-08	-5.509006e+01	-3.873214e+03
1.400000e-07	-7.682260e-06	-5.900515e-08	-5.481523e+01	-3.869618e+03
1.500000e-07	-7.641493e-06	-5.887333e-08	-5.452434e+01	-3.865797e+03
1.600000e-07	-7.598424e-06	-5.888214e-08	-5.421703e+01	-3.861660e+03
1.700000e-07	-7.552786e-06	-5.883164e-08	-5.389139e+01	-3.857145e+03
1.800000e-07	-7.504428e-06	-5.862052e-08	-5.354634e+01	-3.852216e+03
1.900000e-07	-7.453118e-06	-5.860600e-08	-5.318023e+01	-3.846855e+03
2.000000e-07	-7.398832e-06	-5.849849e-08	-5.279288e+01	-3.841054e+03
2.100000e-07	-7.341848e-06	-5.834686e-08	-5.238629e+01	-3.834792e+03
2.200000e-07	-7.282222e-06	-5.828242e-08	-5.196083e+01	-3.828031e+03
2.300000e-07	-7.219987e-06	-5.813308e-08	-5.151677e+01	-3.820715e+03
2.400000e-07	-7.155029e-06	-5.801290e-08	-5.105327e+01	-3.812784e+03
2.500000e-07	-7.087312e-06	-5.783181e-08	-5.057010e+01	-3.804186e+03
2.600000e-07	-7.016920e-06	-5.771277e-08	-5.006783e+01	-3.794902e+03
2.700000e-07	-6.943714e-06	-5.755876e-08	-4.954548e+01	-3.784950e+03
2.800000e-07	-6.867709e-06	-5.739704e-08	-4.900316e+01	-3.774392e+03
2.900000e-07	-6.789000e-06	-5.725202e-08	-4.844155e+01	-3.763310e+03
3.000000e-07	-6.707592e-06	-5.706633e-08	-4.786068e+01	-3.751792e+03
3.100000e-07	-6.623807e-06	-5.689500e-08	-4.726285e+01	-3.739895e+03
3.200000e-07	-6.537810e-06	-5.667929e-08	-4.664923e+01	-3.727629e+03
3.300000e-07	-6.449506e-06	-5.648946e-08	-4.601916e+01	-3.714940e+03
3.400000e-07	-6.358799e-06	-5.627366e-08	-4.537194e+01	-3.701722e+03
3.500000e-07	-6.265742e-06	-5.604242e-08	-4.470795e+01	-3.687833e+03
3.600000e-07	-6.170524e-06	-5.582391e-08	-4.402854e+01	-3.673133e+03
3.700000e-07	-6.073061e-06	-5.558431e-08	-4.333311e+01	-3.657514e+03
3.800000e-07	-5.973366e-06	-5.532834e-08	-4.262176e+01	-3.640926e+03
3.900000e-07	-5.871532e-06	-5.505857e-08	-4.189514e+01	-3.623382e+03
4.000000e-07	-5.767549e-06	-5.479104e-08	-4.115319e+01	-3.604951e+03
4.100000e-07	-5.661544e-06	-5.449363e-08	-4.039681e+01	-3.585723e+03
4.200000e-07	-5.553571e-06	-5.418672e-08	-3.962640e+01	-3.565774e+03
4.300000e-07	-5.443584e-06	-5.387267e-08	-3.884160e+01	-3.545128e+03
4.400000e-07	-5.331601e-06	-5.353879e-08	-3.804257e+01	-3.523736e+03
4.500000e-07	-5.217619e-06	-5.318042e-08	-3.722927e+01	-3.501471e+03
4.600000e-07	-5.101625e-06	-5.281146e-08	-3.640162e+01	-3.478148e+03
4.700000e-07	-4.983717e-06	-5.243020e-08	-3.556031e+01	-3.453563e+03
4.800000e-07	-4.864021e-06	-5.202621e-08	-3.470624e+01	-3.427535e+03
4.900000e-07	-4.742616e-06	-5.160539e-08	-3.383998e+01	-3.399939e+03
5.000000e-07	-4.619460e-06	-5.116647e-08	-3.296123e+01	-3.370732e+03
5.100000e-07	-4.494604e-06	-5.070407e-08	-3.207034e+01	-3.339938e+03
5.200000e-07	-4.368147e-06	-5.021134e-08	-3.116803e+01	-3.307622e+03
5.300000e-07	-4.240078e-06	-4.969733e-08	-3.025423e+01	-3.273845e+03
5.400000e-07	-4.110443e-06	-4.915665e-08	-2.932924e+01	-3.238607e+03
5.500000e-07	-3.979247e-06	-4.858790e-08	-2.839312e+01	-3.201816e+03
5.600000e-07	-3.846507e-06	-4.798365e-08	-2.744598e+01	-3.163271e+03
5.700000e-07	-3.712294e-06	-4.734979e-08	-2.648833e+01	-3.122676e+03
5.800000e-07	-3.576742e-06	-4.668153e-08	-2.552113e+01	-3.079688e+03
5.900000e-07	-3.439849e-06	-4.597803e-08	-2.454435e+01	-3.033965e+03
6.000000e-07	-3.301564e-06	-4.523463e-08	-2.355765e+01	-2.985230e+03
6.100000e-07	-3.161859e-06	-4.444591e-08	-2.256081e+01	-2.933299e+03
6.200000e-07	-3.020742e-06	-4.361059e-08	-2.155390e+01	-2.878090e+03
6.300000e-07	-2.878417e-06	-4.272108e-08	-2.053836e+01	-2.819582e+03
6.400000e-07	-2.734999e-06	-4.178023e-08	-1.951504e+01	-2.757751e+03
6.500000e-07	-2.590559e-06	-4.078124e-08	-1.848442e+01	-2.692481e+03
6.600000e-07	-2.445192e-06	-3.972110e-08	-1.744718e+01	-2.623483e+03
6.700000e-07	-2.298959e-06	-3.858813e-08	-1.640376e+01	-2.550242e+03
6.800000e-07	-2.151954e-06	-3.737199e-08	-1.535483e+01	-2.472000e+03
6.900000e-07	-2.004310e-06	-3.606483e-08	-1.430136e+01	-2.387809e+03
7.000000e-07	-1.856063e-06	-3.465876e-08	-1.324357e+01	-2.296618e+03
7.100000e-07	-1.707179e-06	-3.314471e-08	-1.218123e+01	-2.197409e+03
7.200000e-07	-1.557762e-06	-3.151253e-08	-1.111510e+01	-2.089344e+03
7.300000e-07	-1.407925e-06	-2.975000e-08	-1.004596e+01	-1.971898e+03
7.400000e-07	-1.257621e-06	-2.784009e-08	-8.973505e+00	-1.844961e+03
7.500000e-07	-1.106838e-06	-2.577527e-08	-7.897617e+00	-1.708880e+03
7.600000e-07	-9.556210e-07	-2.355227e-08	-6.818642e+00	-1.564447e+03
7.700000e-07	-8.040634e-07	-2.119084e-08	-5.737233e+00	-1.412828e+03
7.800000e-07	-6.522384e-07	-1.875562e-08	-4.653916e+00	-1.255448e+03
7.900000e-07	-5.001790e-07	-1.630375e-08	-3.568927e+00	-1.093857e+03
8.000000e-07	-3.479003e-07	-1.384554e-08	-2.482373e+00	-9.295845e+02
8.100000e-07	-1.954351e-07	-1.138291e-08	-1.394488e+00	-7.640141e+02
8.200000e-07	-4.287543e-08	-8.920266e-09	-3.059290e-01	-5.982782e+02
8.300000e-07	1.097677e-07	-6.457598e-09	7.832254e-01	-4.331909e+02
8.400000e-07	2.623862e-07	-3.995001e-09	1.872204e+00	-2.692154e+02
8.500000e-07	4.148838e-07	-1.534871e-09	2.960320e+00	-1.064677e+02
8.600000e-07	5.672353e-07	9.235207e-10	4.047394e+00	5.524562e+01
8.700000e-07	7.193978e-07	3.384180e-09	5.133119e+00	2.163580e+02
8.800000e-07	8.713915e-07	5.845533e-09	6.217639e+00	3.774455e+02
8.900000e-07	1.023192e-06	8.303028e-09	7.300779e+00	5.391071e+02
9.000000e-07	1.174679e-06	1.075812e-08	8.381688e+00	7.018317e+02
9.100000e-07	1.325685e-06	1.321284e-08	9.459160e+00	8.658643e+02
9.200000e-07	1.476101e-06	1.566682e-08	1.053243e+01	1.031090e+03
9.300000e-07	1.625914e-06	1.812052e-08	1.160138e+01	1.196955e+03
9.400000e-07	1.775135e-06	2.057506e-08	1.266612e+01	1.362439e+03
9.500000e-07	1.923755e-06	2.302978e-08	1.372656e+01	1.526100e+03
9.600000e-07	2.071678e-06	2.547990e-08	1.478204e+01	1.686181e+03
9.700000e-07	2.218815e-06	2.789199e-08	1.583191e+01	1.840781e+03
9.800000e-07	2.365102e-06	3.017931e-08	1.687571e+01	1.988055e+03
9.900000e-07	2.510498e-06	3.227375e-08	1.791315e+01	2.126428e+03
1.000000e-06	2.655003e-06	3.418036e-08	1.894424e+01	2.254770e+03
1.010000e-06	2.798509e-06	3.592216e-08	1.996820e+01	2.372518e+03
1.020000e-06	2.940934e-06	3.751775e-08	2.098444e+01	2.479704e+03
1.030000e-06	3.082225e-06	3.898426e-08	2.199260e+01	2.576912e+03
1.040000e-06	3.222242e-06	4.033550e-08	2.299166e+01	2.665140e+03
1.050000e-06	3.360954e-06	4.158330e-08	2.398142e+01	2.745625e+03
1.060000e-06	3.498381e-06	4.273363e-08	2.496200e+01	2.819647e+03
1.070000e-06	3.634428e-06	4.379712e-08	2.593273e+01	2.888354e+03
1.080000e-06	3.769081e-06	4.478529e-08	2.689352e+01	2.952641e+03
1.090000e-06	3.902478e-06	4.570574e-08	2.784535e+01	3.013098e+03
1.100000e-06	4.034544e-06	4.656343e-08	2.878768e+01	3.070027e+03
1.110000e-06	4.165084e-06	4.736447e-08	2.971912e+01	3.123521e+03
1.120000e-06	4.294150e-06	4.811289e-08	3.064005e+01	3.173568e+03
1.130000e-06	4.421710e-06	4.881239e-08	3.155022e+01	3.220159e+03
1.140000e-06	4.547692e-06	4.946784e-08	3.244915e+01	3.263375e+03
1.150000e-06	4.672169e-06	5.008209e-08	3.333733e+01	3.303424e+03
1.160000e-06	4.795007e-06	5.065953e-08	3.421381e+01	3.340632e+03
1.170000e-06	4.916148e-06	5.120303e-08	3.507819e+01	3.375402e+03
1.180000e-06	5.035536e-06	5.171292e-08	3.593006e+01	3.408135e+03
1.190000e-06	5.153075e-06	5.219296e-08	3.676873e+01	3.439174e+03
1.200000e-06	5.268743e-06	5.264485e-08	3.759406e+01	3.468743e+03
1.210000e-06	5.382411e-06	5.307021e-08	3.840511e+01	3.496942e+03
1.220000e-06	5.494011e-06	5.347321e-08	3.920142e+01	3.523762e+03
1.230000e-06	5.603579e-06	5.385503e-08	3.998322e+01	3.549132e+03
1.240000e-06	5.711105e-06	5.421572e-08	4.075045e+01	3.572979e+03
1.250000e-06	5.816563e-06	5.455662e-08	4.150292e+01	3.595277e+03
1.260000e-06	5.919882e-06	5.488038e-08	4.224013e+01	3.616085e+03
1.270000e-06	6.021041e-06	5.518836e-08	4.296193e+01	3.635544e+03
1.280000e-06	6.120017e-06	5.547861e-08	4.366816e+01	3.653853e+03
1.290000e-06	6.216620e-06	5.575074e-08	4.435744e+01	3.671231e+03
1.300000e-06	6.310918e-06	5.600869e-08	4.503029e+01	3.687863e+03
1.310000e-06	6.403018e-06	5.625392e-08	4.568745e+01	3.703865e+03
1.320000e-06	6.492871e-06	5.648926e-08	4.632858e+01	3.719268e+03
1.330000e-06	6.580463e-06	5.671499e-08	4.695357e+01	3.734026e+03
1.340000e-06	6.665766e-06	5.692986e-08	4.756224e+01	3.748047e+03
1.350000e-06	6.748675e-06	5.713171e-08	4.815382e+01	3.761235e+03
1.360000e-06	6.829055e-06	5.731975e-08	4.872736e+01	3.773531e+03
1.370000e-06	6.906940e-06	5.749673e-08	4.928308e+01	3.784941e+03
1.380000e-06	6.982258e-06	5.766431e-08	4.982050e+01	3.795538e+03
1.390000e-06	7.054881e-06	5.782439e-08	5.033869e+01	3.805452e+03
1.400000e-06	7.124994e-06	5.797740e-08	5.083897e+01	3.814830e+03
1.410000e-06	7.192671e-06	5.812449e-08	5.132186e+01	3.823802e+03
1.420000e-06	7.257700e-06	5.826520e-08	5.178587e+01	3.832443e+03
1.430000e-06	7.320151e-06	5.839797e-08	5.223147e+01	3.840762e+03
1.440000e-06	7.380178e-06	5.851872e-08	5.265978e+01	3.848702e+03
1.450000e-06	7.437622e-06	5.863065e-08	5.306966e+01	3.856166e+03
1.460000e-06	7.492376e-06	5.873651e-08	5.346035e+01	3.863054e+03
1.470000e-06	7.544220e-06	5.883449e-08	5.383027e+01	3.869297e+03
1.480000e-06	7.592961e-06	5.892476e-08	5.417805e+01	3.874884e+03
1.490000e-06	7.638895e-06	5.900741e-08	5.450580e+01	3.879870e+03
1.500000e-06	7.682182e-06	5.908451e-08	5.481467e+01	3.884362e+03
1.510000e-06	7.722681e-06	5.915602e-08	5.510364e+01	3.888491e+03
1.520000e-06	7.760438e-06	5.922297e-08	5.537305e+01	3.892375e+03
1.530000e-06	7.795591e-06	5.928608e-08	5.562388e+01	3.896088e+03
1.540000e-06	7.827961e-06	5.934417e-08	5.585484e+01	3.899635e+03
1.550000e-06	7.857473e-06	5.939595e-08	5.606542e+01	3.902961e+03
1.560000e-06	7.884221e-06	5.944220e-08	5.625628e+01	3.905962e+03
1.570000e-06	7.908055e-06	5.948234e-08	5.642634e+01	3.908526e+03
1.580000e-06	7.929058e-06	5.951573e-08	5.657621e+01	3.910562e+03
1.590000e-06	7.947317e-06	5.954237e-08	5.670649e+01	3.912032e+03
1.600000e-06	7.962655e-06	5.956253e-08	5.681593e+01	3.912967e+03
1.610000e-06	7.974943e-06	5.957873e-08	5.690361e+01	3.913454e+03
1.620000e-06	7.984093e-06	5.959168e-08	5.696889e+01	3.913616e+03
1.630000e-06	7.990275e-06	5.960197e-08	5.701300e+01	3.913575e+03
1.640000e-06	7.993695e-06	5.961008e-08	5.703741e+01	3.913419e+03
1.650000e-06	7.994269e-06	5.961273e-08	5.704150e+01	3.913177e+03
1.660000e-06	7.992090e-06	5.960091e-08	5.702595e+01	3.912814e+03
1.670000e-06	7.987301e-06	5.958487e-08	5.699178e+01	3.912238e+03
1.680000e-06	7.979799e-06	5.957096e-08	5.693825e+01	3.911333e+03
1.690000e-06	7.969625e-06	5.955134e-08	5.686566e+01	3.909994e+03
1.700000e-06	7.956693e-06	5.952640e-08	5.677339e+01	3.908153e+03
1.710000e-06	7.941014e-06	5.950539e-08	5.666151e+01	3.905807e+03
1.720000e-06	7.922918e-06	5.948483e-08	5.653239e+01	3.903015e+03
1.730000e-06	7.902537e-06	5.943041e-08	5.638697e+01	3.899886e+03
1.740000e-06	7.879374e-06	5.929159e-08	5.622169e+01	3.896550e+03
1.750000e-06	7.852632e-06	5.927321e-08	5.603088e+01	3.893124e+03
1.760000e-06	7.822183e-06	5.928427e-08	5.581362e+01	3.889687e+03
1.770000e-06	7.788733e-06	5.921391e-08	5.557494e+01	3.886262e+03
1.780000e-06	7.753007e-06	5.916842e-08	5.532003e+01	3.882816e+03
1.790000e-06	7.715017e-06	5.921208e-08	5.504895e+01	3.879271e+03
1.800000e-06	7.674958e-06	5.910645e-08	5.476312e+01	3.875532e+03
1.810000e-06	7.632837e-06	5.897440e-08	5.446258e+01	3.871505e+03
1.820000e-06	7.588062e-06	5.908001e-08	5.414310e+01	3.867116e+03
1.830000e-06	7.540624e-06	5.894921e-08	5.380461e+01	3.862321e+03
1.840000e-06	7.490396e-06	5.894959e-08	5.344622e+01	3.857100e+03
1.850000e-06	7.437056e-06	5.890974e-08	5.306562e+01	3.851441e+03
1.860000e-06	7.380787e-06	5.875332e-08	5.266412e+01	3.845330e+03
1.870000e-06	7.321902e-06	5.873532e-08	5.224396e+01	3.838734e+03
1.880000e-06	7.260511e-06	5.853068e-08	5.180592e+01	3.831603e+03
1.890000e-06	7.196316e-06	5.849158e-08	5.134787e+01	3.823875e+03
1.900000e-06	7.129256e-06	5.835836e-08	5.086937e+01	3.815495e+03
1.910000e-06	7.059473e-06	5.818744e-08	5.037146e+01	3.806430e+03
1.920000e-06	6.986900e-06	5.809954e-08	4.985362e+01	3.796688e+03
1.930000e-06	6.911622e-06	5.787402e-08	4.931650e+01	3.786316e+03
1.940000e-06	6.833613e-06	5.776841e-08	4.875988e+01	3.775392e+03
1.950000e-06	6.752993e-06	5.757184e-08	4.818463e+01	3.764005e+03
1.960000e-06	6.669930e-06	5.741895e-08	4.759195e+01	3.752226e+03
1.970000e-06	6.584373e-06	5.724664e-08	4.698147e+01	3.740080e+03
1.980000e-06	6.496381e-06	5.703500e-08	4.635363e+01	3.727536e+03
1.990000e-06	6.406041e-06	5.687063e-08	4.570902e+01	3.714502e+03
2.000000e-06	6.313502e-06	5.661705e-08	4.504873e+01	3.700844e+03
2.010000e-06	6.218700e-06	5.641689e-08	4.437229e+01	3.686418e+03
2.020000e-06	6.121640e-06	5.616933e-08	4.367973e+01	3.671103e+03
2.030000e-06	6.022455e-06	5.594093e-08	4.297202e+01	3.654826e+03
2.040000e-06	5.921167e-06	5.567593e-08	4.224930e+01	3.637584e+03
2.050000e-06	5.817744e-06	5.541328e-08	4.151135e+01	3.619428e+03
2.060000e-06	5.712202e-06	5.514147e-08	4.075827e+01	3.600445e+03
2.070000e-06	5.604745e-06	5.483060e-08	3.999153e+01	3.580722e+03
2.080000e-06	5.495406e-06	5.452945e-08	3.921137e+01	3.560301e+03
2.090000e-06	5.384076e-06	5.420199e-08	3.841699e+01	3.539159e+03
2.100000e-06	5.270631e-06	5.388014e-08	3.760753e+01	3.517192e+03
2.110000e-06	5.155164e-06	5.351919e-08	3.678364e+01	3.494231e+03
2.120000e-06	5.037748e-06	5.315859e-08	3.594584e+01	3.470072e+03
2.130000e-06	4.918364e-06	5.276402e-08	3.509400e+01	3.444524e+03
2.140000e-06	4.797167e-06	5.235466e-08	3.422923e+01	3.417440e+03
2.150000e-06	4.674261e-06	5.192063e-08	3.335225e+01	3.388750e+03
2.160000e-06	4.549638e-06	5.147155e-08	3.246303e+01	3.358460e+03
2.170000e-06	4.423347e-06	5.100044e-08	3.156191e+01	3.326625e+03
2.180000e-06	4.295448e-06	5.049931e-08	3.064931e+01	3.293313e+03
2.190000e-06	4.165993e-06	4.997392e-08	2.972561e+01	3.258549e+03
2.200000e-06	4.035002e-06	4.942070e-08	2.879095e+01	3.222274e+03
2.210000e-06	3.902518e-06	4.884379e-08	2.784564e+01	3.184320e+03
2.220000e-06	3.768598e-06	4.822787e-08	2.689007e+01	3.144420e+03
2.230000e-06	3.633234e-06	4.758380e-08	2.592422e+01	3.102238e+03
2.240000e-06	3.496382e-06	4.689742e-08	2.494773e+01	3.057428e+03
2.250000e-06	3.358166e-06	4.617271e-08	2.396152e+01	3.009686e+03
2.260000e-06	3.218748e-06	4.540347e-08	2.296673e+01	2.958795e+03
2.270000e-06	3.078094e-06	4.459405e-08	2.196312e+01	2.904643e+03
2.280000e-06	2.936261e-06	4.373698e-08	2.095110e+01	2.847196e+03
2.290000e-06	2.793287e-06	4.282704e-08	1.993094e+01	2.786439e+03
2.300000e-06	2.649261e-06	4.185674e-08	1.890327e+01	2.722295e+03
2.310000e-06	2.504315e-06	4.082230e-08	1.786904e+01	2.654540e+03
2.320000e-06	2.358538e-06	3.971918e-08	1.682887e+01	2.582733e+03
2.330000e-06	2.211974e-06	3.854014e-08	1.578310e+01	2.506194e+03
2.340000e-06	2.064607e-06	3.727640e-08	1.473159e+01	2.424027e+03
2.350000e-06	1.916502e-06	3.591558e-08	1.367482e+01	2.335200e+03
2.360000e-06	1.767761e-06	3.444812e-08	1.261350e+01	2.238671e+03
2.370000e-06	1.618469e-06	3.286236e-08	1.154826e+01	2.133526e+03
2.380000e-06	1.468677e-06	3.114769e-08	1.047945e+01	2.019129e+03
2.390000e-06	1.318452e-06	2.929401e-08	9.407553e+00	1.895226e+03
2.400000e-06	1.167839e-06	2.729331e-08	8.332880e+00	1.762018e+03
2.410000e-06	1.016807e-06	2.513674e-08	7.255225e+00	1.620158e+03
2.420000e-06	8.654155e-07	2.282262e-08	6.174999e+00	1.470702e+03
2.430000e-06	7.137323e-07	2.037566e-08	5.092694e+00	1.315007e+03
2.440000e-06	5.617958e-07	1.786399e-08	4.008581e+00	1.154598e+03
2.450000e-06	4.096612e-07	1.534380e-08	2.923055e+00	9.910271e+02
2.460000e-06	2.573388e-07	1.282412e-08	1.836190e+00	8.257361e+02
2.470000e-06	1.048473e-07	1.030529e-08	7.481168e-01	6.599477e+02
2.480000e-06	-4.770475e-08	7.787225e-09	-3.403877e-01	4.945837e+02
2.490000e-06	-2.001959e-07	5.265155e-09	-1.428458e+00	3.302214e+02
2.500000e-06	-3.525660e-07	2.743454e-09	-2.515664e+00	1.670858e+02
2.510000e-06	-5.048758e-07	2.291886e-10	-3.602440e+00	5.076779e+00
2.520000e-06	-6.570441e-07	-2.278608e-09	-4.688206e+00	-1.561712e+02
2.530000e-06	-8.089487e-07	-4.788674e-09	-5.772091e+00	-3.172004e+02
2.540000e-06	-9.605473e-07	-7.304150e-09	-6.853793e+00	-4.786168e+02
2.550000e-06	-1.111790e-06	-9.822076e-09	-7.932954e+00	-6.409593e+02
2.560000e-06	-1.262662e-06	-1.234279e-08	-9.009468e+00	-8.045653e+02
2.570000e-06	-1.413039e-06	-1.486312e-08	-1.008246e+01	-9.694464e+02
2.580000e-06	-1.562927e-06	-1.737811e-08	-1.115196e+01	-1.135195e+03
2.590000e-06	-1.712356e-06	-1.989099e-08	-1.221817e+01	-1.300941e+03
2.600000e-06	-1.861150e-06	-2.240716e-08	-1.327986e+01	-1.465368e+03
2.610000e-06	-2.009192e-06	-2.492375e-08	-1.433618e+01	-1.626805e+03
2.620000e-06	-2.156394e-06	-2.741093e-08	-1.538651e+01	-1.783375e+03
2.630000e-06	-2.302790e-06	-2.978146e-08	-1.643110e+01	-1.933193e+03
2.640000e-06	-2.448479e-06	-3.196045e-08	-1.747063e+01	-2.074576e+03
2.650000e-06	-2.593315e-06	-3.394389e-08	-1.850408e+01	-2.206233e+03
2.660000e-06	-2.737103e-06	-3.575267e-08	-1.953005e+01	-2.327411e+03
2.670000e-06	-2.879755e-06	-3.740796e-08	-2.054792e+01	-2.437954e+03
2.680000e-06	-3.021270e-06	-3.892520e-08	-2.155767e+01	-2.538277e+03
2.690000e-06	-3.161557e-06	-4.031890e-08	-2.255865e+01	-2.629265e+03
2.700000e-06	-3.300498e-06	-4.160303e-08	-2.355004e+01	-2.712098e+03
2.710000e-06	-3.438205e-06	-4.278909e-08	-2.453262e+01	-2.788064e+03
2.720000e-06	-3.574666e-06	-4.388599e-08	-2.550631e+01	-2.858368e+03
2.730000e-06	-3.709731e-06	-4.490103e-08	-2.647004e+01	-2.923997e+03
2.740000e-06	-3.843524e-06	-4.584276e-08	-2.742470e+01	-2.985640e+03
2.750000e-06	-3.975987e-06	-4.672096e-08	-2.836986e+01	-3.043686e+03
2.760000e-06	-4.106968e-06	-4.754131e-08	-2.930445e+01	-3.098283e+03
2.770000e-06	-4.236600e-06	-4.830669e-08	-3.022941e+01	-3.149442e+03
2.780000e-06	-4.364787e-06	-4.902342e-08	-3.114406e+01	-3.197141e+03
2.790000e-06	-4.491443e-06	-4.969464e-08	-3.204779e+01	-3.241426e+03
2.800000e-06	-4.616555e-06	-5.032261e-08	-3.294050e+01	-3.282463e+03
2.810000e-06	-4.739993e-06	-5.091049e-08	-3.382127e+01	-3.320543e+03
2.820000e-06	-4.861793e-06	-5.146388e-08	-3.469035e+01	-3.356052e+03
2.830000e-06	-4.981866e-06	-5.198369e-08	-3.554710e+01	-3.389399e+03
2.840000e-06	-5.100035e-06	-5.246816e-08	-3.639028e+01	-3.420952e+03
2.850000e-06	-5.216132e-06	-5.292500e-08	-3.721867e+01	-3.450977e+03
2.860000e-06	-5.330085e-06	-5.335571e-08	-3.803175e+01	-3.479614e+03
2.870000e-06	-5.441923e-06	-5.376152e-08	-3.882975e+01	-3.506884e+03
2.880000e-06	-5.551710e-06	-5.414463e-08	-3.961311e+01	-3.532730e+03
2.890000e-06	-5.659571e-06	-5.450657e-08	-4.038273e+01	-3.557073e+03
2.900000e-06	-5.765538e-06	-5.484876e-08	-4.113884e+01	-3.579867e+03
2.910000e-06	-5.869423e-06	-5.516984e-08	-4.188009e+01	-3.601144e+03
2.920000e-06	-5.971028e-06	-5.547428e-08	-4.260507e+01	-3.621017e+03
2.930000e-06	-6.070428e-06	-5.576439e-08	-4.331432e+01	-3.639672e+03
2.940000e-06	-6.167739e-06	-5.603879e-08	-4.400866e+01	-3.657327e+03
