# Temperatura_=_65.62
# Concentracion g/m^3_=_26700.0
# C_Vs_to_Am_M_A/Vsm_=_65563218390.804596
# pendiente_HvsI_1/m_=_3716.3
# ordenada_HvsI_A/m_=_1297.0
# frecuencia_Hz_=_302182.6210723674

Tiempo_(s)	Campo_(V.s)	Magnetizacion_(V.s)	Campo_(kA/m)	Magnetizacion_(A/m)
0.000000e+00	-6.604712e-06	-2.640357e-08	-4.770660e+01	-1.727294e+03
1.000000e-08	-6.602670e-06	-2.640228e-08	-4.769186e+01	-1.727240e+03
2.000000e-08	-6.598358e-06	-2.639639e-08	-4.766071e+01	-1.727013e+03
3.000000e-08	-6.591972e-06	-2.638783e-08	-4.761459e+01	-1.726604e+03
4.000000e-08	-6.583428e-06	-2.638038e-08	-4.755287e+01	-1.726002e+03
5.000000e-08	-6.572528e-06	-2.636932e-08	-4.747414e+01	-1.725202e+03
6.000000e-08	-6.559181e-06	-2.635139e-08	-4.737773e+01	-1.724207e+03
7.000000e-08	-6.543452e-06	-2.632674e-08	-4.726412e+01	-1.723029e+03
8.000000e-08	-6.525562e-06	-2.630098e-08	-4.713490e+01	-1.721690e+03
9.000000e-08	-6.505574e-06	-2.629257e-08	-4.699052e+01	-1.720219e+03
1.000000e-07	-6.483179e-06	-2.631275e-08	-4.682876e+01	-1.718648e+03
1.100000e-07	-6.458079e-06	-2.627864e-08	-4.664746e+01	-1.717003e+03
1.200000e-07	-6.430450e-06	-2.621568e-08	-4.644789e+01	-1.715302e+03
1.300000e-07	-6.400705e-06	-2.617133e-08	-4.623304e+01	-1.713547e+03
1.400000e-07	-6.369133e-06	-2.610112e-08	-4.600499e+01	-1.711725e+03
1.500000e-07	-6.335774e-06	-2.603535e-08	-4.576403e+01	-1.709805e+03
1.600000e-07	-6.300480e-06	-2.606681e-08	-4.550911e+01	-1.707750e+03
1.700000e-07	-6.263158e-06	-2.607755e-08	-4.523952e+01	-1.705514e+03
1.800000e-07	-6.223877e-06	-2.598016e-08	-4.495579e+01	-1.703060e+03
1.900000e-07	-6.182362e-06	-2.597785e-08	-4.465593e+01	-1.700358e+03
2.000000e-07	-6.138395e-06	-2.588666e-08	-4.433835e+01	-1.697396e+03
2.100000e-07	-6.092239e-06	-2.575038e-08	-4.400495e+01	-1.694179e+03
2.200000e-07	-6.043709e-06	-2.577653e-08	-4.365442e+01	-1.690726e+03
2.300000e-07	-5.992568e-06	-2.577463e-08	-4.328502e+01	-1.687070e+03
2.400000e-07	-5.938961e-06	-2.571334e-08	-4.289781e+01	-1.683245e+03
2.500000e-07	-5.883137e-06	-2.562400e-08	-4.249459e+01	-1.679283e+03
2.600000e-07	-5.825107e-06	-2.554468e-08	-4.207543e+01	-1.675205e+03
2.700000e-07	-5.764860e-06	-2.547209e-08	-4.164025e+01	-1.671021e+03
2.800000e-07	-5.702545e-06	-2.539239e-08	-4.119015e+01	-1.666725e+03
2.900000e-07	-5.638167e-06	-2.537005e-08	-4.072514e+01	-1.662299e+03
3.000000e-07	-5.571615e-06	-2.531965e-08	-4.024442e+01	-1.657722e+03
3.100000e-07	-5.502932e-06	-2.520937e-08	-3.974832e+01	-1.652967e+03
3.200000e-07	-5.432210e-06	-2.510954e-08	-3.923749e+01	-1.648016e+03
3.300000e-07	-5.359456e-06	-2.503747e-08	-3.871198e+01	-1.642858e+03
3.400000e-07	-5.284612e-06	-2.498583e-08	-3.817137e+01	-1.637491e+03
3.500000e-07	-5.207627e-06	-2.489044e-08	-3.761530e+01	-1.631924e+03
3.600000e-07	-5.128470e-06	-2.480068e-08	-3.704354e+01	-1.626167e+03
3.700000e-07	-5.047254e-06	-2.471547e-08	-3.645690e+01	-1.620235e+03
3.800000e-07	-4.964374e-06	-2.460661e-08	-3.585825e+01	-1.614136e+03
3.900000e-07	-4.879951e-06	-2.451037e-08	-3.524846e+01	-1.607873e+03
4.000000e-07	-4.793985e-06	-2.441868e-08	-3.462751e+01	-1.601438e+03
4.100000e-07	-4.706499e-06	-2.432119e-08	-3.399559e+01	-1.594821e+03
4.200000e-07	-4.617376e-06	-2.419814e-08	-3.335185e+01	-1.588004e+03
4.300000e-07	-4.526560e-06	-2.409137e-08	-3.269587e+01	-1.580973e+03
4.400000e-07	-4.434111e-06	-2.399333e-08	-3.202810e+01	-1.573717e+03
4.500000e-07	-4.340119e-06	-2.387891e-08	-3.134918e+01	-1.566230e+03
4.600000e-07	-4.244539e-06	-2.375780e-08	-3.065880e+01	-1.558516e+03
4.700000e-07	-4.147359e-06	-2.362988e-08	-2.995686e+01	-1.550581e+03
4.800000e-07	-4.048657e-06	-2.350069e-08	-2.924392e+01	-1.542436e+03
4.900000e-07	-3.948516e-06	-2.336831e-08	-2.852059e+01	-1.534087e+03
5.000000e-07	-3.847029e-06	-2.324547e-08	-2.778754e+01	-1.525535e+03
5.100000e-07	-3.744210e-06	-2.311844e-08	-2.704487e+01	-1.516773e+03
5.200000e-07	-3.640062e-06	-2.297841e-08	-2.629259e+01	-1.507784e+03
5.300000e-07	-3.534552e-06	-2.283055e-08	-2.553049e+01	-1.498546e+03
5.400000e-07	-3.427641e-06	-2.268250e-08	-2.475825e+01	-1.489035e+03
5.500000e-07	-3.319438e-06	-2.253427e-08	-2.397669e+01	-1.479228e+03
5.600000e-07	-3.210077e-06	-2.238006e-08	-2.318676e+01	-1.469106e+03
5.700000e-07	-3.099587e-06	-2.222038e-08	-2.238868e+01	-1.458660e+03
5.800000e-07	-2.987893e-06	-2.204983e-08	-2.158190e+01	-1.447888e+03
5.900000e-07	-2.875011e-06	-2.187296e-08	-2.076654e+01	-1.436794e+03
6.000000e-07	-2.760926e-06	-2.169422e-08	-1.994249e+01	-1.425387e+03
6.100000e-07	-2.645616e-06	-2.151668e-08	-1.910959e+01	-1.413670e+03
6.200000e-07	-2.529221e-06	-2.133400e-08	-1.826886e+01	-1.401646e+03
6.300000e-07	-2.411813e-06	-2.114492e-08	-1.742081e+01	-1.389305e+03
6.400000e-07	-2.293594e-06	-2.094999e-08	-1.656690e+01	-1.376633e+03
6.500000e-07	-2.174633e-06	-2.074761e-08	-1.570763e+01	-1.363610e+03
6.600000e-07	-2.054789e-06	-2.054103e-08	-1.484198e+01	-1.350211e+03
6.700000e-07	-1.934187e-06	-2.033166e-08	-1.397086e+01	-1.336413e+03
6.800000e-07	-1.813023e-06	-2.011629e-08	-1.309567e+01	-1.322199e+03
6.900000e-07	-1.691296e-06	-1.989067e-08	-1.221643e+01	-1.307554e+03
7.000000e-07	-1.568913e-06	-1.965760e-08	-1.133245e+01	-1.292471e+03
7.100000e-07	-1.445838e-06	-1.941794e-08	-1.044346e+01	-1.276944e+03
7.200000e-07	-1.322140e-06	-1.917364e-08	-9.549968e+00	-1.260967e+03
7.300000e-07	-1.198004e-06	-1.892487e-08	-8.653324e+00	-1.244526e+03
7.400000e-07	-1.073602e-06	-1.867090e-08	-7.754753e+00	-1.227600e+03
7.500000e-07	-9.489297e-07	-1.840919e-08	-6.854230e+00	-1.210160e+03
7.600000e-07	-8.239744e-07	-1.813657e-08	-5.951663e+00	-1.192164e+03
7.700000e-07	-6.987865e-07	-1.785210e-08	-5.047416e+00	-1.173567e+03
7.800000e-07	-5.733915e-07	-1.755578e-08	-4.141674e+00	-1.154319e+03
7.900000e-07	-4.477751e-07	-1.724965e-08	-3.234332e+00	-1.134376e+03
8.000000e-07	-3.219865e-07	-1.693333e-08	-2.325746e+00	-1.113692e+03
8.100000e-07	-1.961571e-07	-1.660765e-08	-1.416865e+00	-1.092229e+03
8.200000e-07	-7.028403e-08	-1.627060e-08	-5.076698e-01	-1.069950e+03
8.300000e-07	5.566875e-08	-1.591913e-08	4.021019e-01	-1.046814e+03
8.400000e-07	1.816505e-07	-1.555293e-08	1.312083e+00	-1.022773e+03
8.500000e-07	3.076005e-07	-1.517120e-08	2.221834e+00	-9.977629e+02
8.600000e-07	4.335206e-07	-1.477231e-08	3.131370e+00	-9.717001e+02
8.700000e-07	5.593227e-07	-1.435744e-08	4.040053e+00	-9.444819e+02
8.800000e-07	6.849295e-07	-1.392609e-08	4.947326e+00	-9.159854e+02
8.900000e-07	8.103325e-07	-1.347158e-08	5.853127e+00	-8.860715e+02
9.000000e-07	9.354594e-07	-1.299019e-08	6.756933e+00	-8.545883e+02
9.100000e-07	1.060275e-06	-1.248381e-08	7.658490e+00	-8.213739e+02
9.200000e-07	1.184808e-06	-1.195029e-08	8.558004e+00	-7.862575e+02
9.300000e-07	1.309030e-06	-1.138519e-08	9.455274e+00	-7.490563e+02
9.400000e-07	1.432828e-06	-1.078541e-08	1.034948e+01	-7.095697e+02
9.500000e-07	1.556045e-06	-1.014485e-08	1.123950e+01	-6.675734e+02
9.600000e-07	1.678522e-06	-9.459147e-09	1.212416e+01	-6.228125e+02
9.700000e-07	1.800290e-06	-8.727613e-09	1.300371e+01	-5.750015e+02
9.800000e-07	1.921468e-06	-7.946127e-09	1.387899e+01	-5.238296e+02
9.900000e-07	2.042001e-06	-7.108636e-09	1.474961e+01	-4.689771e+02
1.000000e-06	2.161689e-06	-6.209713e-09	1.561413e+01	-4.101407e+02
1.010000e-06	2.280500e-06	-5.247706e-09	1.647232e+01	-3.470686e+02
1.020000e-06	2.398502e-06	-4.219204e-09	1.732466e+01	-2.795996e+02
1.030000e-06	2.515601e-06	-3.122428e-09	1.817048e+01	-2.077030e+02
1.040000e-06	2.631710e-06	-1.958010e-09	1.900915e+01	-1.315119e+02
1.050000e-06	2.746696e-06	-7.319143e-10	1.983971e+01	-5.134593e+01
1.060000e-06	2.860420e-06	5.472947e-10	2.066115e+01	3.228326e+01
1.070000e-06	2.973001e-06	1.869146e-09	2.147434e+01	1.186842e+02
1.080000e-06	3.084527e-06	3.219625e-09	2.227990e+01	2.070164e+02
1.090000e-06	3.194995e-06	4.581657e-09	2.307782e+01	2.963357e+02
1.100000e-06	3.304385e-06	5.940241e-09	2.386796e+01	3.856507e+02
1.110000e-06	3.412736e-06	7.283357e-09	2.465059e+01	4.739816e+02
1.120000e-06	3.519943e-06	8.597385e-09	2.542496e+01	5.604161e+02
1.130000e-06	3.625763e-06	9.868666e-09	2.618931e+01	6.441553e+02
1.140000e-06	3.730186e-06	1.108941e-08	2.694357e+01	7.245460e+02
1.150000e-06	3.833232e-06	1.225584e-08	2.768788e+01	8.010965e+02
1.160000e-06	3.934934e-06	1.335745e-08	2.842249e+01	8.734767e+02
1.170000e-06	4.035339e-06	1.438971e-08	2.914772e+01	9.415045e+02
1.180000e-06	4.134376e-06	1.535461e-08	2.986308e+01	1.005124e+03
1.190000e-06	4.231865e-06	1.625256e-08	3.056725e+01	1.064376e+03
1.200000e-06	4.327726e-06	1.708386e-08	3.125967e+01	1.119375e+03
1.210000e-06	4.422026e-06	1.785335e-08	3.194081e+01	1.170280e+03
1.220000e-06	4.514875e-06	1.856483e-08	3.261147e+01	1.217278e+03
1.230000e-06	4.606276e-06	1.922103e-08	3.327167e+01	1.260574e+03
1.240000e-06	4.695915e-06	1.982217e-08	3.391914e+01	1.300381e+03
1.250000e-06	4.783677e-06	2.037351e-08	3.455306e+01	1.336916e+03
1.260000e-06	4.869710e-06	2.088026e-08	3.517448e+01	1.370404e+03
1.270000e-06	4.954165e-06	2.134407e-08	3.578451e+01	1.401072e+03
1.280000e-06	5.037004e-06	2.176793e-08	3.638287e+01	1.429149e+03
1.290000e-06	5.117912e-06	2.215588e-08	3.696727e+01	1.454863e+03
1.300000e-06	5.196809e-06	2.251195e-08	3.753716e+01	1.478436e+03
1.310000e-06	5.273865e-06	2.284000e-08	3.809375e+01	1.500075e+03
1.320000e-06	5.348908e-06	2.314335e-08	3.863579e+01	1.519973e+03
1.330000e-06	5.421743e-06	2.342123e-08	3.916188e+01	1.538299e+03
1.340000e-06	5.492535e-06	2.367586e-08	3.967322e+01	1.555200e+03
1.350000e-06	5.561449e-06	2.391107e-08	4.017099e+01	1.570800e+03
1.360000e-06	5.628437e-06	2.412909e-08	4.065485e+01	1.585202e+03
1.370000e-06	5.693323e-06	2.433032e-08	4.112354e+01	1.598496e+03
1.380000e-06	5.756156e-06	2.451413e-08	4.157739e+01	1.610757e+03
1.390000e-06	5.817071e-06	2.468324e-08	4.201738e+01	1.622052e+03
1.400000e-06	5.876014e-06	2.484080e-08	4.244314e+01	1.632447e+03
1.410000e-06	5.932831e-06	2.498738e-08	4.285353e+01	1.642002e+03
1.420000e-06	5.987463e-06	2.512329e-08	4.324814e+01	1.650777e+03
1.430000e-06	6.039796e-06	2.524892e-08	4.362615e+01	1.658830e+03
1.440000e-06	6.089596e-06	2.536284e-08	4.398587e+01	1.666218e+03
1.450000e-06	6.136990e-06	2.546478e-08	4.432820e+01	1.672993e+03
1.460000e-06	6.182325e-06	2.555634e-08	4.465566e+01	1.679208e+03
1.470000e-06	6.225569e-06	2.564141e-08	4.496801e+01	1.684908e+03
1.480000e-06	6.266500e-06	2.572073e-08	4.526366e+01	1.690137e+03
1.490000e-06	6.305145e-06	2.579397e-08	4.554280e+01	1.694933e+03
1.500000e-06	6.341687e-06	2.586270e-08	4.580675e+01	1.699329e+03
1.510000e-06	6.375997e-06	2.592451e-08	4.605457e+01	1.703354e+03
1.520000e-06	6.407953e-06	2.598028e-08	4.628539e+01	1.707030e+03
1.530000e-06	6.437761e-06	2.603149e-08	4.650070e+01	1.710373e+03
1.540000e-06	6.465431e-06	2.607788e-08	4.670056e+01	1.713395e+03
1.550000e-06	6.490646e-06	2.612099e-08	4.688269e+01	1.716103e+03
1.560000e-06	6.513342e-06	2.615837e-08	4.704663e+01	1.718502e+03
1.570000e-06	6.533827e-06	2.618990e-08	4.719459e+01	1.720597e+03
1.580000e-06	6.552103e-06	2.621672e-08	4.732660e+01	1.722394e+03
1.590000e-06	6.567927e-06	2.623890e-08	4.744090e+01	1.723904e+03
1.600000e-06	6.581265e-06	2.625661e-08	4.753725e+01	1.725143e+03
1.610000e-06	6.592059e-06	2.626995e-08	4.761521e+01	1.726131e+03
1.620000e-06	6.600226e-06	2.628265e-08	4.767420e+01	1.726890e+03
1.630000e-06	6.606012e-06	2.629431e-08	4.771599e+01	1.727443e+03
1.640000e-06	6.609590e-06	2.630270e-08	4.774184e+01	1.727810e+03
1.650000e-06	6.610823e-06	2.630855e-08	4.775075e+01	1.728003e+03
1.660000e-06	6.609698e-06	2.631052e-08	4.774262e+01	1.728028e+03
1.670000e-06	6.606400e-06	2.630388e-08	4.771880e+01	1.727882e+03
1.680000e-06	6.600914e-06	2.629846e-08	4.767917e+01	1.727559e+03
1.690000e-06	6.593153e-06	2.629156e-08	4.762311e+01	1.727048e+03
1.700000e-06	6.583304e-06	2.628137e-08	4.755198e+01	1.726340e+03
1.710000e-06	6.571342e-06	2.627314e-08	4.746557e+01	1.725435e+03
1.720000e-06	6.557015e-06	2.626707e-08	4.736208e+01	1.724339e+03
1.730000e-06	6.540485e-06	2.625764e-08	4.724269e+01	1.723072e+03
1.740000e-06	6.521956e-06	2.621214e-08	4.710885e+01	1.721658e+03
1.750000e-06	6.500914e-06	2.614398e-08	4.695686e+01	1.720130e+03
1.760000e-06	6.476719e-06	2.614301e-08	4.678210e+01	1.718517e+03
1.770000e-06	6.449706e-06	2.613512e-08	4.658698e+01	1.716841e+03
1.780000e-06	6.420517e-06	2.611783e-08	4.637614e+01	1.715112e+03
1.790000e-06	6.389452e-06	2.614975e-08	4.615176e+01	1.713323e+03
1.800000e-06	6.356876e-06	2.611307e-08	4.591646e+01	1.711453e+03
1.810000e-06	6.322537e-06	2.601812e-08	4.566842e+01	1.709466e+03
1.820000e-06	6.285924e-06	2.604040e-08	4.540396e+01	1.707320e+03
1.830000e-06	6.247060e-06	2.598491e-08	4.512325e+01	1.704971e+03
1.840000e-06	6.206014e-06	2.594194e-08	4.482677e+01	1.702387e+03
1.850000e-06	6.162852e-06	2.601004e-08	4.451500e+01	1.699546e+03
1.860000e-06	6.117671e-06	2.590553e-08	4.418865e+01	1.696446e+03
1.870000e-06	6.070212e-06	2.582146e-08	4.384585e+01	1.693099e+03
1.880000e-06	6.020421e-06	2.572492e-08	4.348620e+01	1.689533e+03
1.890000e-06	5.968293e-06	2.563609e-08	4.310967e+01	1.685782e+03
1.900000e-06	5.913589e-06	2.566161e-08	4.271454e+01	1.681880e+03
1.910000e-06	5.856548e-06	2.561074e-08	4.230253e+01	1.677855e+03
1.920000e-06	5.797365e-06	2.558814e-08	4.187504e+01	1.673720e+03
1.930000e-06	5.736052e-06	2.548177e-08	4.143218e+01	1.669477e+03
1.940000e-06	5.672583e-06	2.534119e-08	4.097373e+01	1.665115e+03
1.950000e-06	5.606964e-06	2.533164e-08	4.049976e+01	1.660611e+03
1.960000e-06	5.539308e-06	2.525010e-08	4.001107e+01	1.655941e+03
1.970000e-06	5.469459e-06	2.520299e-08	3.950654e+01	1.651083e+03
1.980000e-06	5.397419e-06	2.511651e-08	3.898619e+01	1.646022e+03
1.990000e-06	5.323399e-06	2.502633e-08	3.845153e+01	1.640752e+03
2.000000e-06	5.247451e-06	2.495042e-08	3.790295e+01	1.635276e+03
2.010000e-06	5.169455e-06	2.482900e-08	3.733958e+01	1.629606e+03
2.020000e-06	5.089368e-06	2.478466e-08	3.676110e+01	1.623754e+03
2.030000e-06	5.007463e-06	2.469225e-08	3.616949e+01	1.617732e+03
2.040000e-06	4.923885e-06	2.459349e-08	3.556580e+01	1.611545e+03
2.050000e-06	4.838554e-06	2.448866e-08	3.494944e+01	1.605191e+03
2.060000e-06	4.751435e-06	2.439184e-08	3.432017e+01	1.598661e+03
2.070000e-06	4.662677e-06	2.430270e-08	3.367906e+01	1.591939e+03
2.080000e-06	4.572378e-06	2.417103e-08	3.302682e+01	1.585009e+03
2.090000e-06	4.480543e-06	2.407157e-08	3.236348e+01	1.577858e+03
2.100000e-06	4.387123e-06	2.396086e-08	3.168870e+01	1.570478e+03
2.110000e-06	4.291960e-06	2.385924e-08	3.100133e+01	1.562869e+03
2.120000e-06	4.195257e-06	2.374223e-08	3.030283e+01	1.555036e+03
2.130000e-06	4.097304e-06	2.361838e-08	2.959530e+01	1.546988e+03
2.140000e-06	3.997998e-06	2.349034e-08	2.887801e+01	1.538733e+03
2.150000e-06	3.897193e-06	2.335261e-08	2.814988e+01	1.530276e+03
2.160000e-06	3.794853e-06	2.322711e-08	2.741067e+01	1.521612e+03
2.170000e-06	3.690946e-06	2.308835e-08	2.666014e+01	1.512731e+03
2.180000e-06	3.585697e-06	2.295291e-08	2.589991e+01	1.503612e+03
2.190000e-06	3.479269e-06	2.280907e-08	2.513117e+01	1.494231e+03
2.200000e-06	3.371601e-06	2.266699e-08	2.435347e+01	1.484564e+03
2.210000e-06	3.262736e-06	2.251346e-08	2.356712e+01	1.474589e+03
2.220000e-06	3.152645e-06	2.235858e-08	2.277192e+01	1.464295e+03
2.230000e-06	3.041263e-06	2.220493e-08	2.196740e+01	1.453674e+03
2.240000e-06	2.928729e-06	2.204375e-08	2.115455e+01	1.442729e+03
2.250000e-06	2.815182e-06	2.187070e-08	2.033439e+01	1.431466e+03
2.260000e-06	2.700570e-06	2.168985e-08	1.950653e+01	1.419893e+03
2.270000e-06	2.584787e-06	2.150789e-08	1.867022e+01	1.408012e+03
2.280000e-06	2.467871e-06	2.132102e-08	1.782572e+01	1.395819e+03
2.290000e-06	2.349971e-06	2.113654e-08	1.697412e+01	1.383304e+03
2.300000e-06	2.231105e-06	2.094713e-08	1.611553e+01	1.370447e+03
2.310000e-06	2.111327e-06	2.075101e-08	1.525036e+01	1.357225e+03
2.320000e-06	1.990800e-06	2.053945e-08	1.437978e+01	1.343615e+03
2.330000e-06	1.869673e-06	2.031947e-08	1.350486e+01	1.329596e+03
2.340000e-06	1.747998e-06	2.009869e-08	1.262600e+01	1.315153e+03
2.350000e-06	1.625785e-06	1.987957e-08	1.174324e+01	1.300274e+03
2.360000e-06	1.503056e-06	1.965245e-08	1.085675e+01	1.284954e+03
2.370000e-06	1.379795e-06	1.940951e-08	9.966418e+00	1.269187e+03
2.380000e-06	1.256067e-06	1.915592e-08	9.072715e+00	1.252963e+03
2.390000e-06	1.131876e-06	1.889651e-08	8.175676e+00	1.236266e+03
2.400000e-06	1.007220e-06	1.863450e-08	7.275268e+00	1.219069e+03
2.410000e-06	8.822085e-07	1.836497e-08	6.372295e+00	1.201336e+03
2.420000e-06	7.569476e-07	1.808796e-08	5.467521e+00	1.183024e+03
2.430000e-06	6.314899e-07	1.780079e-08	4.561325e+00	1.164085e+03
2.440000e-06	5.058990e-07	1.749958e-08	3.654167e+00	1.144470e+03
2.450000e-06	3.802242e-07	1.718433e-08	2.746404e+00	1.124135e+03
2.460000e-06	2.544018e-07	1.686061e-08	1.837574e+00	1.103038e+03
2.470000e-06	1.284333e-07	1.652894e-08	9.276888e-01	1.081143e+03
2.480000e-06	2.400895e-09	1.618397e-08	1.734195e-02	1.058411e+03
2.490000e-06	-1.236801e-07	1.582474e-08	-8.933555e-01	1.034797e+03
2.500000e-06	-2.497373e-07	1.545085e-08	-1.803882e+00	1.010246e+03
2.510000e-06	-3.756985e-07	1.506149e-08	-2.713714e+00	9.846834e+02
2.520000e-06	-5.015652e-07	1.465257e-08	-3.622864e+00	9.580158e+02
2.530000e-06	-6.273192e-07	1.422350e-08	-4.531200e+00	9.301293e+02
2.540000e-06	-7.529119e-07	1.377815e-08	-5.438371e+00	9.008917e+02
2.550000e-06	-8.783143e-07	1.331086e-08	-6.344167e+00	8.701567e+02
2.560000e-06	-1.003497e-06	1.281644e-08	-7.248379e+00	8.377668e+02
2.570000e-06	-1.128371e-06	1.229335e-08	-8.150354e+00	8.035555e+02
2.580000e-06	-1.252788e-06	1.173720e-08	-9.049032e+00	7.673459e+02
2.590000e-06	-1.376628e-06	1.114737e-08	-9.943548e+00	7.289468e+02
2.600000e-06	-1.499899e-06	1.052446e-08	-1.083395e+01	6.881455e+02
2.610000e-06	-1.622610e-06	9.866461e-09	-1.172030e+01	6.447019e+02
2.620000e-06	-1.744695e-06	9.164961e-09	-1.260213e+01	5.983444e+02
2.630000e-06	-1.866167e-06	8.410014e-09	-1.347954e+01	5.487727e+02
2.640000e-06	-1.987099e-06	7.597219e-09	-1.435305e+01	4.956685e+02
2.650000e-06	-2.107391e-06	6.726010e-09	-1.522193e+01	4.387172e+02
2.660000e-06	-2.226772e-06	5.794206e-09	-1.608423e+01	3.776382e+02
2.670000e-06	-2.345100e-06	4.799753e-09	-1.693893e+01	3.122233e+02
2.680000e-06	-2.462450e-06	3.737393e-09	-1.778656e+01	2.423764e+02
2.690000e-06	-2.578770e-06	2.607178e-09	-1.862675e+01	1.681512e+02
2.700000e-06	-2.694002e-06	1.413608e-09	-1.945909e+01	8.977870e+01
2.710000e-06	-2.808127e-06	1.635289e-10	-2.028343e+01	7.681890e+00
2.720000e-06	-2.921011e-06	-1.131963e-09	-2.109880e+01	-7.752853e+01
2.730000e-06	-3.032741e-06	-2.465100e-09	-2.190584e+01	-1.650763e+02
2.740000e-06	-3.143300e-06	-3.822817e-09	-2.270442e+01	-2.540591e+02
2.750000e-06	-3.252701e-06	-5.190378e-09	-2.349464e+01	-3.435000e+02
2.760000e-06	-3.361110e-06	-6.550581e-09	-2.427769e+01	-4.324065e+02
2.770000e-06	-3.468454e-06	-7.888333e-09	-2.505305e+01	-5.198286e+02
2.780000e-06	-3.574627e-06	-9.189609e-09	-2.581994e+01	-6.049097e+02
2.790000e-06	-3.679595e-06	-1.044371e-08	-2.657814e+01	-6.869262e+02
2.800000e-06	-3.783309e-06	-1.164393e-08	-2.732728e+01	-7.653103e+02
2.810000e-06	-3.885614e-06	-1.278295e-08	-2.806625e+01	-8.396578e+02
2.820000e-06	-3.986456e-06	-1.385619e-08	-2.879464e+01	-9.097204e+02
2.830000e-06	-4.085907e-06	-1.486284e-08	-2.951298e+01	-9.753864e+02
2.840000e-06	-4.184017e-06	-1.580368e-08	-3.022165e+01	-1.036656e+03
2.850000e-06	-4.280763e-06	-1.667954e-08	-3.092045e+01	-1.093612e+03
2.860000e-06	-4.375963e-06	-1.749143e-08	-3.160809e+01	-1.146396e+03
2.870000e-06	-4.469522e-06	-1.823972e-08	-3.228388e+01	-1.195183e+03
2.880000e-06	-4.561487e-06	-1.893027e-08	-3.294815e+01	-1.240172e+03
2.890000e-06	-4.651843e-06	-1.956770e-08	-3.360080e+01	-1.281572e+03
2.900000e-06	-4.740536e-06	-2.015576e-08	-3.424145e+01	-1.319598e+03
2.910000e-06	-4.827460e-06	-2.069555e-08	-3.486931e+01	-1.354473e+03
2.920000e-06	-4.912555e-06	-2.118604e-08	-3.548396e+01	-1.386421e+03
2.930000e-06	-4.995924e-06	-2.163238e-08	-3.608615e+01	-1.415673e+03
2.940000e-06	-5.077625e-06	-2.204241e-08	-3.667628e+01	-1.442456e+03
