# Temperatura_=_34.29
# Concentracion g/m^3_=_26700.0
# C_Vs_to_Am_M_A/Vsm_=_65563218390.804596
# pendiente_HvsI_1/m_=_3716.3
# ordenada_HvsI_A/m_=_1297.0
# frecuencia_Hz_=_302192.5654841515

Tiempo_(s)	Campo_(V.s)	Magnetizacion_(V.s)	Campo_(kA/m)	Magnetizacion_(A/m)
0.000000e+00	-6.642890e-06	-2.426327e-08	-4.770370e+01	-1.587796e+03
1.000000e-08	-6.641139e-06	-2.426401e-08	-4.769113e+01	-1.587774e+03
2.000000e-08	-6.637103e-06	-2.426116e-08	-4.766214e+01	-1.587566e+03
3.000000e-08	-6.630985e-06	-2.425305e-08	-4.761821e+01	-1.587168e+03
4.000000e-08	-6.622795e-06	-2.424468e-08	-4.755939e+01	-1.586577e+03
5.000000e-08	-6.612252e-06	-2.423274e-08	-4.748369e+01	-1.585792e+03
6.000000e-08	-6.599192e-06	-2.421682e-08	-4.738990e+01	-1.584816e+03
7.000000e-08	-6.583650e-06	-2.419254e-08	-4.727829e+01	-1.583657e+03
8.000000e-08	-6.565874e-06	-2.416010e-08	-4.715064e+01	-1.582331e+03
9.000000e-08	-6.546145e-06	-2.415045e-08	-4.700896e+01	-1.580858e+03
1.000000e-07	-6.524109e-06	-2.419530e-08	-4.685072e+01	-1.579256e+03
1.100000e-07	-6.499331e-06	-2.414592e-08	-4.667278e+01	-1.577546e+03
1.200000e-07	-6.471931e-06	-2.406352e-08	-4.647602e+01	-1.575740e+03
1.300000e-07	-6.442362e-06	-2.404361e-08	-4.626368e+01	-1.573844e+03
1.400000e-07	-6.410910e-06	-2.399616e-08	-4.603782e+01	-1.571857e+03
1.500000e-07	-6.377654e-06	-2.388236e-08	-4.579900e+01	-1.569768e+03
1.600000e-07	-6.342484e-06	-2.394930e-08	-4.554644e+01	-1.567560e+03
1.700000e-07	-6.305282e-06	-2.397233e-08	-4.527928e+01	-1.565214e+03
1.800000e-07	-6.266111e-06	-2.376684e-08	-4.499799e+01	-1.562707e+03
1.900000e-07	-6.224691e-06	-2.382239e-08	-4.470054e+01	-1.560021e+03
2.000000e-07	-6.180806e-06	-2.375945e-08	-4.438540e+01	-1.557140e+03
2.100000e-07	-6.134651e-06	-2.364615e-08	-4.405395e+01	-1.554055e+03
2.200000e-07	-6.086099e-06	-2.369755e-08	-4.370529e+01	-1.550764e+03
2.300000e-07	-6.034948e-06	-2.361052e-08	-4.333797e+01	-1.547270e+03
2.400000e-07	-5.981401e-06	-2.356360e-08	-4.295344e+01	-1.543579e+03
2.500000e-07	-5.925607e-06	-2.350005e-08	-4.255277e+01	-1.539704e+03
2.600000e-07	-5.867558e-06	-2.341048e-08	-4.213591e+01	-1.535655e+03
2.700000e-07	-5.807366e-06	-2.335000e-08	-4.170367e+01	-1.531444e+03
2.800000e-07	-5.745096e-06	-2.326559e-08	-4.125650e+01	-1.527078e+03
2.900000e-07	-5.680733e-06	-2.322459e-08	-4.079429e+01	-1.522562e+03
3.000000e-07	-5.614121e-06	-2.314766e-08	-4.031594e+01	-1.517899e+03
3.100000e-07	-5.545353e-06	-2.307791e-08	-3.982211e+01	-1.513086e+03
3.200000e-07	-5.474553e-06	-2.301004e-08	-3.931368e+01	-1.508119e+03
3.300000e-07	-5.401693e-06	-2.290882e-08	-3.879046e+01	-1.502990e+03
3.400000e-07	-5.326673e-06	-2.283646e-08	-3.825173e+01	-1.497690e+03
3.500000e-07	-5.249400e-06	-2.274084e-08	-3.769682e+01	-1.492213e+03
3.600000e-07	-5.170013e-06	-2.267508e-08	-3.712673e+01	-1.486551e+03
3.700000e-07	-5.088658e-06	-2.258857e-08	-3.654251e+01	-1.480699e+03
3.800000e-07	-5.005612e-06	-2.247968e-08	-3.594614e+01	-1.474655e+03
3.900000e-07	-4.920995e-06	-2.238823e-08	-3.533849e+01	-1.468419e+03
4.000000e-07	-4.834791e-06	-2.227758e-08	-3.471944e+01	-1.461991e+03
4.100000e-07	-4.747021e-06	-2.217979e-08	-3.408915e+01	-1.455376e+03
4.200000e-07	-4.657604e-06	-2.207767e-08	-3.344703e+01	-1.448574e+03
4.300000e-07	-4.566479e-06	-2.198223e-08	-3.279265e+01	-1.441587e+03
4.400000e-07	-4.473752e-06	-2.187074e-08	-3.212676e+01	-1.434417e+03
4.500000e-07	-4.379505e-06	-2.174633e-08	-3.144995e+01	-1.427061e+03
4.600000e-07	-4.283659e-06	-2.162705e-08	-3.076167e+01	-1.419515e+03
4.700000e-07	-4.186229e-06	-2.150188e-08	-3.006201e+01	-1.411775e+03
4.800000e-07	-4.087233e-06	-2.138810e-08	-2.935110e+01	-1.403832e+03
4.900000e-07	-3.986773e-06	-2.127016e-08	-2.862968e+01	-1.395679e+03
5.000000e-07	-3.884929e-06	-2.114946e-08	-2.789832e+01	-1.387306e+03
5.100000e-07	-3.781701e-06	-2.101401e-08	-2.715703e+01	-1.378703e+03
5.200000e-07	-3.677143e-06	-2.087427e-08	-2.640618e+01	-1.369861e+03
5.300000e-07	-3.571215e-06	-2.073316e-08	-2.564549e+01	-1.360769e+03
5.400000e-07	-3.463861e-06	-2.058637e-08	-2.487457e+01	-1.351419e+03
5.500000e-07	-3.355228e-06	-2.043877e-08	-2.409445e+01	-1.341800e+03
5.600000e-07	-3.245509e-06	-2.028380e-08	-2.330654e+01	-1.331905e+03
5.700000e-07	-3.134626e-06	-2.012622e-08	-2.251027e+01	-1.321727e+03
5.800000e-07	-3.022458e-06	-1.996173e-08	-2.170477e+01	-1.311261e+03
5.900000e-07	-2.909018e-06	-1.979701e-08	-2.089014e+01	-1.300503e+03
6.000000e-07	-2.794281e-06	-1.962900e-08	-2.006620e+01	-1.289449e+03
6.100000e-07	-2.678334e-06	-1.946021e-08	-1.923357e+01	-1.278096e+03
6.200000e-07	-2.561406e-06	-1.928501e-08	-1.839388e+01	-1.266439e+03
6.300000e-07	-2.443590e-06	-1.909919e-08	-1.754783e+01	-1.254474e+03
6.400000e-07	-2.324893e-06	-1.890523e-08	-1.669545e+01	-1.242191e+03
6.500000e-07	-2.205365e-06	-1.870537e-08	-1.583709e+01	-1.229579e+03
6.600000e-07	-2.085055e-06	-1.850552e-08	-1.497313e+01	-1.216625e+03
6.700000e-07	-1.963980e-06	-1.830157e-08	-1.410367e+01	-1.203314e+03
6.800000e-07	-1.842189e-06	-1.809393e-08	-1.322906e+01	-1.189632e+03
6.900000e-07	-1.719715e-06	-1.787993e-08	-1.234956e+01	-1.175566e+03
7.000000e-07	-1.596556e-06	-1.765902e-08	-1.146513e+01	-1.161103e+03
7.100000e-07	-1.472795e-06	-1.743022e-08	-1.057638e+01	-1.146234e+03
7.200000e-07	-1.348570e-06	-1.719712e-08	-9.684308e+00	-1.130949e+03
7.300000e-07	-1.223922e-06	-1.696009e-08	-8.789187e+00	-1.115241e+03
7.400000e-07	-1.098898e-06	-1.671519e-08	-7.891367e+00	-1.099098e+03
7.500000e-07	-9.735948e-07	-1.646308e-08	-6.991547e+00	-1.082502e+03
7.600000e-07	-8.480574e-07	-1.620262e-08	-6.090042e+00	-1.065434e+03
7.700000e-07	-7.222737e-07	-1.593440e-08	-5.186768e+00	-1.047863e+03
7.800000e-07	-5.962610e-07	-1.565647e-08	-4.281850e+00	-1.029756e+03
7.900000e-07	-4.700563e-07	-1.537244e-08	-3.375553e+00	-1.011074e+03
8.000000e-07	-3.437207e-07	-1.508190e-08	-2.468316e+00	-9.917751e+02
8.100000e-07	-2.172960e-07	-1.478043e-08	-1.560439e+00	-9.718171e+02
8.200000e-07	-9.074140e-08	-1.446629e-08	-6.516292e-01	-9.511577e+02
8.300000e-07	3.592930e-08	-1.413815e-08	2.580143e-01	-9.297551e+02
8.400000e-07	1.625930e-07	-1.379763e-08	1.167607e+00	-9.075660e+02
8.500000e-07	2.891412e-07	-1.344558e-08	2.076371e+00	-8.845437e+02
8.600000e-07	4.156294e-07	-1.308299e-08	2.984704e+00	-8.606340e+02
8.700000e-07	5.420856e-07	-1.270660e-08	3.892807e+00	-8.357725e+02
8.800000e-07	6.683791e-07	-1.231366e-08	4.799742e+00	-8.098814e+02
8.900000e-07	7.944458e-07	-1.190345e-08	5.705048e+00	-7.828684e+02
9.000000e-07	9.202834e-07	-1.147479e-08	6.608709e+00	-7.546261e+02
9.100000e-07	1.045858e-06	-1.102496e-08	7.510479e+00	-7.250328e+02
9.200000e-07	1.171151e-06	-1.055056e-08	8.410234e+00	-6.939540e+02
9.300000e-07	1.296064e-06	-1.005200e-08	9.307250e+00	-6.612431e+02
9.400000e-07	1.420519e-06	-9.526429e-09	1.020098e+01	-6.267418e+02
9.500000e-07	1.544496e-06	-8.969122e-09	1.109128e+01	-5.902795e+02
9.600000e-07	1.667923e-06	-8.379153e-09	1.197763e+01	-5.516726e+02
9.700000e-07	1.790767e-06	-7.755937e-09	1.285980e+01	-5.107235e+02
9.800000e-07	1.912912e-06	-7.095364e-09	1.373694e+01	-4.672237e+02
9.900000e-07	2.034242e-06	-6.392020e-09	1.460823e+01	-4.209585e+02
1.000000e-06	2.154698e-06	-5.640459e-09	1.547325e+01	-3.717189e+02
1.010000e-06	2.274289e-06	-4.840241e-09	1.633205e+01	-3.193177e+02
1.020000e-06	2.393069e-06	-3.988847e-09	1.718503e+01	-2.636111e+02
1.030000e-06	2.510984e-06	-3.085365e-09	1.803179e+01	-2.045233e+02
1.040000e-06	2.628002e-06	-2.130786e-09	1.887212e+01	-1.420714e+02
1.050000e-06	2.744015e-06	-1.128038e-09	1.970523e+01	-7.638646e+01
1.060000e-06	2.858835e-06	-8.021226e-11	2.052977e+01	-7.727175e+00
1.070000e-06	2.972406e-06	1.005401e-09	2.134535e+01	6.351598e+01
1.080000e-06	3.084710e-06	2.122736e-09	2.215182e+01	1.368292e+02
1.090000e-06	3.195870e-06	3.263293e-09	2.295007e+01	2.115958e+02
1.100000e-06	3.306007e-06	4.415326e-09	2.374099e+01	2.871264e+02
1.110000e-06	3.415062e-06	5.567425e-09	2.452413e+01	3.626970e+02
1.120000e-06	3.522976e-06	6.708346e-09	2.529908e+01	4.375887e+02
1.130000e-06	3.629729e-06	7.827132e-09	2.606569e+01	5.111259e+02
1.140000e-06	3.735152e-06	8.915568e-09	2.682275e+01	5.827082e+02
1.150000e-06	3.839074e-06	9.968209e-09	2.756903e+01	6.518331e+02
1.160000e-06	3.941574e-06	1.097736e-08	2.830510e+01	7.181072e+02
1.170000e-06	4.042743e-06	1.193898e-08	2.903161e+01	7.812477e+02
1.180000e-06	4.142606e-06	1.284827e-08	2.974875e+01	8.410749e+02
1.190000e-06	4.241057e-06	1.370428e-08	3.045574e+01	8.974980e+02
1.200000e-06	4.337826e-06	1.450639e-08	3.115065e+01	9.504985e+02
1.210000e-06	4.432906e-06	1.525643e-08	3.183344e+01	1.000113e+03
1.220000e-06	4.526468e-06	1.595665e-08	3.250532e+01	1.046419e+03
1.230000e-06	4.618560e-06	1.660986e-08	3.316665e+01	1.089523e+03
1.240000e-06	4.709110e-06	1.721466e-08	3.381690e+01	1.129552e+03
1.250000e-06	4.797763e-06	1.777563e-08	3.445354e+01	1.166651e+03
1.260000e-06	4.884516e-06	1.829732e-08	3.507653e+01	1.200975e+03
1.270000e-06	4.969625e-06	1.877870e-08	3.568771e+01	1.232693e+03
1.280000e-06	5.053179e-06	1.921974e-08	3.628772e+01	1.261979e+03
1.290000e-06	5.134975e-06	1.962531e-08	3.687511e+01	1.289011e+03
1.300000e-06	5.214682e-06	2.000242e-08	3.744750e+01	1.313968e+03
1.310000e-06	5.292438e-06	2.035265e-08	3.800588e+01	1.337021e+03
1.320000e-06	5.368319e-06	2.067789e-08	3.855080e+01	1.358332e+03
1.330000e-06	5.442063e-06	2.097865e-08	3.908036e+01	1.378050e+03
1.340000e-06	5.513681e-06	2.125523e-08	3.959466e+01	1.396306e+03
1.350000e-06	5.583369e-06	2.151032e-08	4.009511e+01	1.413218e+03
1.360000e-06	5.651111e-06	2.174727e-08	4.058157e+01	1.428887e+03
1.370000e-06	5.716711e-06	2.196690e-08	4.105266e+01	1.443402e+03
1.380000e-06	5.780184e-06	2.216820e-08	4.150847e+01	1.456840e+03
1.390000e-06	5.841717e-06	2.235299e-08	4.195035e+01	1.469273e+03
1.400000e-06	5.901365e-06	2.252481e-08	4.237869e+01	1.480766e+03
1.410000e-06	5.958882e-06	2.268590e-08	4.279172e+01	1.491379e+03
1.420000e-06	6.014127e-06	2.283709e-08	4.318845e+01	1.501168e+03
1.430000e-06	6.067219e-06	2.297868e-08	4.356971e+01	1.510189e+03
1.440000e-06	6.117906e-06	2.310860e-08	4.393370e+01	1.518492e+03
1.450000e-06	6.166004e-06	2.322473e-08	4.427910e+01	1.526128e+03
1.460000e-06	6.211812e-06	2.332886e-08	4.460806e+01	1.533143e+03
1.470000e-06	6.255580e-06	2.342515e-08	4.492237e+01	1.539582e+03
1.480000e-06	6.297056e-06	2.351385e-08	4.522021e+01	1.545488e+03
1.490000e-06	6.336198e-06	2.359528e-08	4.550129e+01	1.550902e+03
1.500000e-06	6.373239e-06	2.367214e-08	4.576729e+01	1.555861e+03
1.510000e-06	6.408139e-06	2.374335e-08	4.601792e+01	1.560395e+03
1.520000e-06	6.440691e-06	2.380843e-08	4.625168e+01	1.564533e+03
1.530000e-06	6.470928e-06	2.386633e-08	4.646881e+01	1.568294e+03
1.540000e-06	6.499082e-06	2.391835e-08	4.667100e+01	1.571694e+03
1.550000e-06	6.524870e-06	2.396425e-08	4.685618e+01	1.574742e+03
1.560000e-06	6.548079e-06	2.400362e-08	4.702285e+01	1.577447e+03
1.570000e-06	6.568995e-06	2.403838e-08	4.717305e+01	1.579815e+03
1.580000e-06	6.587721e-06	2.406837e-08	4.730753e+01	1.581855e+03
1.590000e-06	6.604060e-06	2.409496e-08	4.742486e+01	1.583581e+03
1.600000e-06	6.617881e-06	2.411789e-08	4.752411e+01	1.585009e+03
1.610000e-06	6.629120e-06	2.413624e-08	4.760482e+01	1.586159e+03
1.620000e-06	6.637730e-06	2.415117e-08	4.766665e+01	1.587055e+03
1.630000e-06	6.643942e-06	2.416377e-08	4.771126e+01	1.587718e+03
1.640000e-06	6.647907e-06	2.417287e-08	4.773973e+01	1.588169e+03
1.650000e-06	6.649441e-06	2.417812e-08	4.775075e+01	1.588423e+03
1.660000e-06	6.648601e-06	2.418125e-08	4.774472e+01	1.588487e+03
1.670000e-06	6.645660e-06	2.417317e-08	4.772360e+01	1.588366e+03
1.680000e-06	6.640577e-06	2.417029e-08	4.768709e+01	1.588057e+03
1.690000e-06	6.633205e-06	2.416603e-08	4.763415e+01	1.587556e+03
1.700000e-06	6.623608e-06	2.415629e-08	4.756524e+01	1.586861e+03
1.710000e-06	6.611891e-06	2.414863e-08	4.748109e+01	1.585972e+03
1.720000e-06	6.597862e-06	2.414208e-08	4.738035e+01	1.584897e+03
1.730000e-06	6.581576e-06	2.414492e-08	4.726340e+01	1.583647e+03
1.740000e-06	6.563302e-06	2.408965e-08	4.713217e+01	1.582239e+03
1.750000e-06	6.542650e-06	2.398767e-08	4.698386e+01	1.580695e+03
1.760000e-06	6.518864e-06	2.401045e-08	4.681305e+01	1.579033e+03
1.770000e-06	6.492075e-06	2.401858e-08	4.662068e+01	1.577270e+03
1.780000e-06	6.462999e-06	2.396065e-08	4.641188e+01	1.575416e+03
1.790000e-06	6.431943e-06	2.403266e-08	4.618886e+01	1.573472e+03
1.800000e-06	6.399400e-06	2.399040e-08	4.595516e+01	1.571432e+03
1.810000e-06	6.365311e-06	2.380949e-08	4.571036e+01	1.569282e+03
1.820000e-06	6.328883e-06	2.393838e-08	4.544876e+01	1.567003e+03
1.830000e-06	6.290142e-06	2.385299e-08	4.517056e+01	1.564573e+03
1.840000e-06	6.249262e-06	2.378143e-08	4.487699e+01	1.561973e+03
1.850000e-06	6.206163e-06	2.389735e-08	4.456749e+01	1.559184e+03
1.860000e-06	6.161032e-06	2.366145e-08	4.424340e+01	1.556194e+03
1.870000e-06	6.113669e-06	2.367621e-08	4.390328e+01	1.552999e+03
1.880000e-06	6.063979e-06	2.363370e-08	4.354645e+01	1.549598e+03
1.890000e-06	6.011961e-06	2.350767e-08	4.317290e+01	1.545998e+03
1.900000e-06	5.957311e-06	2.357952e-08	4.278044e+01	1.542207e+03
1.910000e-06	5.900283e-06	2.343061e-08	4.237092e+01	1.538238e+03
1.920000e-06	5.841118e-06	2.342821e-08	4.194604e+01	1.534100e+03
1.930000e-06	5.779840e-06	2.337424e-08	4.150599e+01	1.529805e+03
1.940000e-06	5.716421e-06	2.323055e-08	4.105058e+01	1.525359e+03
1.950000e-06	5.650800e-06	2.322152e-08	4.057934e+01	1.520764e+03
1.960000e-06	5.583074e-06	2.307004e-08	4.009299e+01	1.516022e+03
1.970000e-06	5.513121e-06	2.307777e-08	3.959064e+01	1.511127e+03
1.980000e-06	5.440977e-06	2.298769e-08	3.907256e+01	1.506074e+03
1.990000e-06	5.366853e-06	2.289718e-08	3.854027e+01	1.500854e+03
2.000000e-06	5.290756e-06	2.284520e-08	3.799380e+01	1.495461e+03
2.010000e-06	5.212553e-06	2.269356e-08	3.743222e+01	1.489885e+03
2.020000e-06	5.132277e-06	2.265486e-08	3.685574e+01	1.484122e+03
2.030000e-06	5.050228e-06	2.253359e-08	3.626653e+01	1.478167e+03
2.040000e-06	4.966431e-06	2.247414e-08	3.566477e+01	1.472020e+03
2.050000e-06	4.880841e-06	2.238329e-08	3.505013e+01	1.465682e+03
2.060000e-06	4.793440e-06	2.226220e-08	3.442249e+01	1.459153e+03
2.070000e-06	4.704325e-06	2.216426e-08	3.378255e+01	1.452437e+03
2.080000e-06	4.613738e-06	2.203998e-08	3.313202e+01	1.445536e+03
2.090000e-06	4.521616e-06	2.196516e-08	3.247048e+01	1.438452e+03
2.100000e-06	4.427889e-06	2.184544e-08	3.179741e+01	1.431182e+03
2.110000e-06	4.332489e-06	2.174840e-08	3.111233e+01	1.423725e+03
2.120000e-06	4.235590e-06	2.162797e-08	3.041648e+01	1.416076e+03
2.130000e-06	4.137357e-06	2.150140e-08	2.971105e+01	1.408229e+03
2.140000e-06	4.037695e-06	2.136878e-08	2.899536e+01	1.400174e+03
2.150000e-06	3.936567e-06	2.123405e-08	2.826914e+01	1.391904e+03
2.160000e-06	3.833882e-06	2.111539e-08	2.753174e+01	1.383410e+03
2.170000e-06	3.729627e-06	2.098197e-08	2.678307e+01	1.374680e+03
2.180000e-06	3.624030e-06	2.085741e-08	2.602476e+01	1.365705e+03
2.190000e-06	3.517275e-06	2.071351e-08	2.525814e+01	1.356476e+03
2.200000e-06	3.409321e-06	2.057472e-08	2.448290e+01	1.346983e+03
2.210000e-06	3.300116e-06	2.042402e-08	2.369868e+01	1.337217e+03
2.220000e-06	3.189591e-06	2.027836e-08	2.290498e+01	1.327172e+03
2.230000e-06	3.077778e-06	2.012292e-08	2.210204e+01	1.316840e+03
2.240000e-06	2.964756e-06	1.996046e-08	2.129041e+01	1.306218e+03
2.250000e-06	2.850625e-06	1.978809e-08	2.047082e+01	1.295302e+03
2.260000e-06	2.735452e-06	1.960984e-08	1.964374e+01	1.284088e+03
2.270000e-06	2.619113e-06	1.943652e-08	1.880829e+01	1.272573e+03
2.280000e-06	2.501602e-06	1.926530e-08	1.796442e+01	1.260752e+03
2.290000e-06	2.383013e-06	1.909671e-08	1.711281e+01	1.248618e+03
2.300000e-06	2.263459e-06	1.891072e-08	1.625428e+01	1.236160e+03
2.310000e-06	2.143101e-06	1.871382e-08	1.538997e+01	1.223367e+03
2.320000e-06	2.021987e-06	1.850334e-08	1.452023e+01	1.210224e+03
2.330000e-06	1.900196e-06	1.829281e-08	1.364562e+01	1.196716e+03
2.340000e-06	1.777895e-06	1.808144e-08	1.276736e+01	1.182830e+03
2.350000e-06	1.655069e-06	1.787167e-08	1.188533e+01	1.168552e+03
2.360000e-06	1.531710e-06	1.765628e-08	1.099946e+01	1.153873e+03
2.370000e-06	1.407857e-06	1.742761e-08	1.011006e+01	1.138782e+03
2.380000e-06	1.283577e-06	1.718703e-08	9.217584e+00	1.123273e+03
2.390000e-06	1.158889e-06	1.693842e-08	8.322173e+00	1.107333e+03
2.400000e-06	1.033754e-06	1.668795e-08	7.423562e+00	1.090950e+03
2.410000e-06	9.081566e-07	1.643083e-08	6.521625e+00	1.074104e+03
2.420000e-06	7.822068e-07	1.616761e-08	5.617158e+00	1.056770e+03
2.430000e-06	6.559905e-07	1.589453e-08	4.710777e+00	1.038917e+03
2.440000e-06	5.295258e-07	1.561090e-08	3.802613e+00	1.020507e+03
2.450000e-06	4.028849e-07	1.531575e-08	2.893184e+00	1.001500e+03
2.460000e-06	2.760596e-07	1.501250e-08	1.982430e+00	9.818533e+02
2.470000e-06	1.490701e-07	1.470623e-08	1.070497e+00	9.615248e+02
2.480000e-06	2.199590e-08	1.439216e-08	1.579562e-01	9.404726e+02
2.490000e-06	-1.050837e-07	1.406634e-08	-7.546234e-01	9.186542e+02
2.500000e-06	-2.321348e-07	1.371986e-08	-1.666998e+00	8.960250e+02
2.510000e-06	-3.591136e-07	1.335258e-08	-2.578855e+00	8.725347e+02
2.520000e-06	-4.860396e-07	1.297156e-08	-3.490331e+00	8.481240e+02
2.530000e-06	-6.128516e-07	1.257886e-08	-4.400990e+00	8.227216e+02
2.540000e-06	-7.394428e-07	1.217592e-08	-5.310062e+00	7.962420e+02
2.550000e-06	-8.657686e-07	1.175669e-08	-6.217229e+00	7.685848e+02
2.560000e-06	-9.917631e-07	1.131835e-08	-7.122016e+00	7.396348e+02
2.570000e-06	-1.117347e-06	1.085836e-08	-8.023856e+00	7.092633e+02
2.580000e-06	-1.242452e-06	1.037066e-08	-8.922255e+00	6.773292e+02
2.590000e-06	-1.367042e-06	9.853933e-09	-9.816958e+00	6.436796e+02
2.600000e-06	-1.491058e-06	9.308644e-09	-1.070754e+01	6.081499e+02
2.610000e-06	-1.614526e-06	8.733066e-09	-1.159418e+01	5.705625e+02
2.620000e-06	-1.737412e-06	8.124804e-09	-1.247664e+01	5.307263e+02
2.630000e-06	-1.859665e-06	7.478890e-09	-1.335457e+01	4.884373e+02
2.640000e-06	-1.981298e-06	6.792868e-09	-1.422803e+01	4.434828e+02
2.650000e-06	-2.102232e-06	6.064089e-09	-1.509648e+01	3.956493e+02
2.660000e-06	-2.222401e-06	5.288617e-09	-1.595943e+01	3.447371e+02
2.670000e-06	-2.341762e-06	4.465603e-09	-1.681659e+01	2.905793e+02
2.680000e-06	-2.460198e-06	3.590303e-09	-1.766709e+01	2.330655e+02
2.690000e-06	-2.577505e-06	2.662605e-09	-1.850950e+01	1.721667e+02
2.700000e-06	-2.693607e-06	1.683119e-09	-1.934324e+01	1.079587e+02
2.710000e-06	-2.808542e-06	6.537429e-10	-2.016861e+01	4.063975e+01
2.720000e-06	-2.922401e-06	-4.162045e-10	-2.098625e+01	-2.946042e+01
2.730000e-06	-3.035108e-06	-1.518399e-09	-2.179562e+01	-1.018836e+02
2.740000e-06	-3.146453e-06	-2.647162e-09	-2.259521e+01	-1.760574e+02
2.750000e-06	-3.256560e-06	-3.795250e-09	-2.338590e+01	-2.513221e+02
2.760000e-06	-3.365614e-06	-4.952001e-09	-2.416904e+01	-3.269647e+02
2.770000e-06	-3.473626e-06	-6.104056e-09	-2.494469e+01	-4.022590e+02
2.780000e-06	-3.580593e-06	-7.238158e-09	-2.571283e+01	-4.765049e+02
2.790000e-06	-3.686419e-06	-8.343779e-09	-2.647279e+01	-5.490636e+02
2.800000e-06	-3.790943e-06	-9.416294e-09	-2.722339e+01	-6.193851e+02
2.810000e-06	-3.894023e-06	-1.045114e-08	-2.796363e+01	-6.870245e+02
2.820000e-06	-3.995559e-06	-1.144213e-08	-2.869277e+01	-7.516481e+02
2.830000e-06	-4.095620e-06	-1.238361e-08	-2.941133e+01	-8.130299e+02
2.840000e-06	-4.194366e-06	-1.327269e-08	-3.012044e+01	-8.710397e+02
2.850000e-06	-4.291784e-06	-1.410994e-08	-3.082002e+01	-9.256276e+02
2.860000e-06	-4.387820e-06	-1.489398e-08	-3.150967e+01	-9.768066e+02
2.870000e-06	-4.482267e-06	-1.562553e-08	-3.218791e+01	-1.024637e+03
2.880000e-06	-4.574980e-06	-1.630907e-08	-3.285370e+01	-1.069213e+03
2.890000e-06	-4.666097e-06	-1.694829e-08	-3.350802e+01	-1.110652e+03
2.900000e-06	-4.755585e-06	-1.754356e-08	-3.415065e+01	-1.149093e+03
2.910000e-06	-4.843347e-06	-1.809466e-08	-3.478088e+01	-1.184685e+03
2.920000e-06	-4.929224e-06	-1.860131e-08	-3.539758e+01	-1.217592e+03
2.930000e-06	-5.013250e-06	-1.906521e-08	-3.600098e+01	-1.247984e+03
2.940000e-06	-5.095608e-06	-1.949202e-08	-3.659241e+01	-1.276041e+03
