# Temperatura_=_82.44
# Concentracion g/m^3_=_26700.0
# C_Vs_to_Am_M_A/Vsm_=_65563218390.804596
# pendiente_HvsI_1/m_=_3716.3
# ordenada_HvsI_A/m_=_1297.0
# frecuencia_Hz_=_302184.8650691557

Tiempo_(s)	Campo_(V.s)	Magnetizacion_(V.s)	Campo_(kA/m)	Magnetizacion_(A/m)
0.000000e+00	-6.597411e-06	-2.509919e-08	-4.770601e+01	-1.642997e+03
1.000000e-08	-6.595607e-06	-2.510626e-08	-4.769296e+01	-1.642879e+03
2.000000e-08	-6.591486e-06	-2.510239e-08	-4.766316e+01	-1.642581e+03
3.000000e-08	-6.585319e-06	-2.509276e-08	-4.761857e+01	-1.642110e+03
4.000000e-08	-6.577059e-06	-2.508481e-08	-4.755883e+01	-1.641473e+03
5.000000e-08	-6.566415e-06	-2.506975e-08	-4.748187e+01	-1.640685e+03
6.000000e-08	-6.553301e-06	-2.505184e-08	-4.738704e+01	-1.639764e+03
7.000000e-08	-6.537822e-06	-2.502403e-08	-4.727511e+01	-1.638727e+03
8.000000e-08	-6.520171e-06	-2.498325e-08	-4.714748e+01	-1.637586e+03
9.000000e-08	-6.500537e-06	-2.500058e-08	-4.700550e+01	-1.636351e+03
1.000000e-07	-6.478600e-06	-2.508565e-08	-4.684688e+01	-1.635026e+03
1.100000e-07	-6.453913e-06	-2.501116e-08	-4.666836e+01	-1.633611e+03
1.200000e-07	-6.426541e-06	-2.491484e-08	-4.647044e+01	-1.632099e+03
1.300000e-07	-6.397030e-06	-2.491340e-08	-4.625705e+01	-1.630484e+03
1.400000e-07	-6.365770e-06	-2.482872e-08	-4.603100e+01	-1.628754e+03
1.500000e-07	-6.332743e-06	-2.467920e-08	-4.579219e+01	-1.626900e+03
1.600000e-07	-6.297757e-06	-2.487456e-08	-4.553920e+01	-1.624910e+03
1.700000e-07	-6.260700e-06	-2.486210e-08	-4.527124e+01	-1.622774e+03
1.800000e-07	-6.221698e-06	-2.461311e-08	-4.498922e+01	-1.620480e+03
1.900000e-07	-6.180520e-06	-2.478316e-08	-4.469146e+01	-1.618019e+03
2.000000e-07	-6.136882e-06	-2.462729e-08	-4.437591e+01	-1.615383e+03
2.100000e-07	-6.091048e-06	-2.453640e-08	-4.404449e+01	-1.612569e+03
2.200000e-07	-6.042888e-06	-2.463589e-08	-4.369624e+01	-1.609576e+03
2.300000e-07	-5.992114e-06	-2.447857e-08	-4.332909e+01	-1.606410e+03
2.400000e-07	-5.938833e-06	-2.446790e-08	-4.294381e+01	-1.603080e+03
2.500000e-07	-5.883212e-06	-2.441835e-08	-4.254162e+01	-1.599598e+03
2.600000e-07	-5.825307e-06	-2.433338e-08	-4.212290e+01	-1.595977e+03
2.700000e-07	-5.765278e-06	-2.430509e-08	-4.168883e+01	-1.592228e+03
2.800000e-07	-5.703263e-06	-2.422676e-08	-4.124040e+01	-1.588354e+03
2.900000e-07	-5.639225e-06	-2.417971e-08	-4.077734e+01	-1.584356e+03
3.000000e-07	-5.572964e-06	-2.409258e-08	-4.029821e+01	-1.580227e+03
3.100000e-07	-5.504567e-06	-2.405935e-08	-3.980363e+01	-1.575953e+03
3.200000e-07	-5.434198e-06	-2.398714e-08	-3.929479e+01	-1.571522e+03
3.300000e-07	-5.361800e-06	-2.389540e-08	-3.877127e+01	-1.566920e+03
3.400000e-07	-5.287230e-06	-2.384620e-08	-3.823206e+01	-1.562140e+03
3.500000e-07	-5.210451e-06	-2.373195e-08	-3.767687e+01	-1.557179e+03
3.600000e-07	-5.131613e-06	-2.368324e-08	-3.710679e+01	-1.552041e+03
3.700000e-07	-5.050731e-06	-2.360375e-08	-3.652193e+01	-1.546735e+03
3.800000e-07	-4.968085e-06	-2.350275e-08	-3.592432e+01	-1.541273e+03
3.900000e-07	-4.883906e-06	-2.342356e-08	-3.531561e+01	-1.535660e+03
4.000000e-07	-4.798171e-06	-2.332245e-08	-3.469567e+01	-1.529902e+03
4.100000e-07	-4.710852e-06	-2.323230e-08	-3.406426e+01	-1.523994e+03
4.200000e-07	-4.621973e-06	-2.313892e-08	-3.342157e+01	-1.517925e+03
4.300000e-07	-4.531449e-06	-2.306151e-08	-3.276699e+01	-1.511680e+03
4.400000e-07	-4.439249e-06	-2.295880e-08	-3.210029e+01	-1.505243e+03
4.500000e-07	-4.345524e-06	-2.284669e-08	-3.142257e+01	-1.498600e+03
4.600000e-07	-4.250272e-06	-2.274153e-08	-3.073380e+01	-1.491742e+03
4.700000e-07	-4.153458e-06	-2.262500e-08	-3.003373e+01	-1.484667e+03
4.800000e-07	-4.055095e-06	-2.252175e-08	-2.932247e+01	-1.477380e+03
4.900000e-07	-3.955262e-06	-2.241265e-08	-2.860057e+01	-1.469888e+03
5.000000e-07	-3.854086e-06	-2.230124e-08	-2.786897e+01	-1.462198e+03
5.100000e-07	-3.751589e-06	-2.217466e-08	-2.712781e+01	-1.454312e+03
5.200000e-07	-3.647748e-06	-2.204367e-08	-2.637693e+01	-1.446225e+03
5.300000e-07	-3.542588e-06	-2.191162e-08	-2.561652e+01	-1.437923e+03
5.400000e-07	-3.436003e-06	-2.177747e-08	-2.484581e+01	-1.429389e+03
5.500000e-07	-3.328029e-06	-2.164621e-08	-2.406504e+01	-1.420599e+03
5.600000e-07	-3.218904e-06	-2.150759e-08	-2.327595e+01	-1.411533e+03
5.700000e-07	-3.108655e-06	-2.136570e-08	-2.247874e+01	-1.402175e+03
5.800000e-07	-2.997245e-06	-2.121089e-08	-2.167313e+01	-1.392518e+03
5.900000e-07	-2.884685e-06	-2.105529e-08	-2.085921e+01	-1.382561e+03
6.000000e-07	-2.770987e-06	-2.089797e-08	-2.003706e+01	-1.372310e+03
6.100000e-07	-2.655991e-06	-2.073731e-08	-1.920552e+01	-1.361771e+03
6.200000e-07	-2.539798e-06	-2.057231e-08	-1.836532e+01	-1.350945e+03
6.300000e-07	-2.422693e-06	-2.040145e-08	-1.751854e+01	-1.339829e+03
6.400000e-07	-2.304728e-06	-2.022574e-08	-1.666553e+01	-1.328406e+03
6.500000e-07	-2.185969e-06	-2.004174e-08	-1.580678e+01	-1.316655e+03
6.600000e-07	-2.066435e-06	-1.985552e-08	-1.494243e+01	-1.304547e+03
6.700000e-07	-1.946134e-06	-1.966251e-08	-1.407253e+01	-1.292053e+03
6.800000e-07	-1.825199e-06	-1.946451e-08	-1.319805e+01	-1.279150e+03
6.900000e-07	-1.703695e-06	-1.926190e-08	-1.231945e+01	-1.265822e+03
7.000000e-07	-1.581559e-06	-1.905372e-08	-1.143628e+01	-1.252062e+03
7.100000e-07	-1.458726e-06	-1.883684e-08	-1.054807e+01	-1.237869e+03
7.200000e-07	-1.335274e-06	-1.861278e-08	-9.655388e+00	-1.223244e+03
7.300000e-07	-1.211354e-06	-1.838359e-08	-8.759323e+00	-1.208186e+03
7.400000e-07	-1.087070e-06	-1.814617e-08	-7.860624e+00	-1.192682e+03
7.500000e-07	-9.625409e-07	-1.790397e-08	-6.960151e+00	-1.176707e+03
7.600000e-07	-8.377986e-07	-1.765238e-08	-6.058137e+00	-1.160222e+03
7.700000e-07	-7.127821e-07	-1.739134e-08	-5.154141e+00	-1.143176e+03
7.800000e-07	-5.875303e-07	-1.711990e-08	-4.248443e+00	-1.125516e+03
7.900000e-07	-4.620869e-07	-1.684095e-08	-3.341359e+00	-1.107184e+03
8.000000e-07	-3.364819e-07	-1.655398e-08	-2.433107e+00	-1.088130e+03
8.100000e-07	-2.107823e-07	-1.625446e-08	-1.524171e+00	-1.068309e+03
8.200000e-07	-8.498508e-08	-1.594058e-08	-6.145287e-01	-1.047681e+03
8.300000e-07	4.087882e-08	-1.561094e-08	2.955955e-01	-1.026203e+03
8.400000e-07	1.667948e-07	-1.526862e-08	1.206096e+00	-1.003824e+03
8.500000e-07	2.926936e-07	-1.491241e-08	2.116473e+00	-9.804758e+02
8.600000e-07	4.184573e-07	-1.454188e-08	3.025873e+00	-9.560655e+02
8.700000e-07	5.440504e-07	-1.415305e-08	3.934039e+00	-9.304758e+02
8.800000e-07	6.695143e-07	-1.374372e-08	4.841270e+00	-9.035640e+02
8.900000e-07	7.948118e-07	-1.331179e-08	5.747299e+00	-8.751677e+02
9.000000e-07	9.198691e-07	-1.285289e-08	6.651591e+00	-8.451090e+02
9.100000e-07	1.044673e-06	-1.236667e-08	7.554047e+00	-8.131992e+02
9.200000e-07	1.169162e-06	-1.184860e-08	8.454231e+00	-7.792380e+02
9.300000e-07	1.293333e-06	-1.129763e-08	9.352117e+00	-7.430086e+02
9.400000e-07	1.417107e-06	-1.070902e-08	1.024713e+01	-7.042676e+02
9.500000e-07	1.540330e-06	-1.007390e-08	1.113815e+01	-6.627338e+02
9.600000e-07	1.662813e-06	-9.388802e-09	1.202383e+01	-6.180793e+02
9.700000e-07	1.784506e-06	-8.652461e-09	1.290379e+01	-5.699282e+02
9.800000e-07	1.905562e-06	-7.857111e-09	1.377916e+01	-5.178683e+02
9.900000e-07	2.025950e-06	-6.996538e-09	1.464968e+01	-4.614774e+02
1.000000e-06	2.145496e-06	-6.064563e-09	1.551412e+01	-4.003648e+02
1.010000e-06	2.264196e-06	-5.056172e-09	1.637244e+01	-3.342251e+02
1.020000e-06	2.382147e-06	-3.966450e-09	1.722535e+01	-2.628963e+02
1.030000e-06	2.499220e-06	-2.796302e-09	1.807191e+01	-1.864145e+02
1.040000e-06	2.615301e-06	-1.551829e-09	1.891129e+01	-1.050554e+02
1.050000e-06	2.730299e-06	-2.418965e-10	1.974285e+01	-1.935372e+01
1.060000e-06	2.844071e-06	1.123283e-09	2.056553e+01	6.990335e+01
1.070000e-06	2.956683e-06	2.524803e-09	2.137983e+01	1.617117e+02
1.080000e-06	3.068169e-06	3.946167e-09	2.218599e+01	2.549104e+02
1.090000e-06	3.178586e-06	5.367729e-09	2.298441e+01	3.482589e+02
1.100000e-06	3.287968e-06	6.771814e-09	2.377536e+01	4.405226e+02
1.110000e-06	3.396323e-06	8.140937e-09	2.455888e+01	5.305537e+02
1.120000e-06	3.503564e-06	9.459549e-09	2.533434e+01	6.173592e+02
1.130000e-06	3.609476e-06	1.071463e-08	2.610019e+01	7.001470e+02
1.140000e-06	3.713981e-06	1.190013e-08	2.685587e+01	7.783481e+02
1.150000e-06	3.817051e-06	1.301483e-08	2.760117e+01	8.516133e+02
1.160000e-06	3.918785e-06	1.405146e-08	2.833681e+01	9.197914e+02
1.170000e-06	4.019324e-06	1.501144e-08	2.906381e+01	9.828923e+02
1.180000e-06	4.118532e-06	1.589359e-08	2.978118e+01	1.041046e+03
1.190000e-06	4.216082e-06	1.670283e-08	3.048657e+01	1.094459e+03
1.200000e-06	4.311908e-06	1.743961e-08	3.117949e+01	1.143386e+03
1.210000e-06	4.406218e-06	1.811195e-08	3.186145e+01	1.188098e+03
1.220000e-06	4.499106e-06	1.872736e-08	3.253312e+01	1.228873e+03
1.230000e-06	4.590540e-06	1.928983e-08	3.319428e+01	1.265990e+03
1.240000e-06	4.680304e-06	1.979998e-08	3.384337e+01	1.299722e+03
1.250000e-06	4.768235e-06	2.026176e-08	3.447920e+01	1.330344e+03
1.260000e-06	4.854430e-06	2.068230e-08	3.510247e+01	1.358129e+03
1.270000e-06	4.939036e-06	2.106648e-08	3.571426e+01	1.383349e+03
1.280000e-06	5.022012e-06	2.141459e-08	3.631426e+01	1.406266e+03
1.290000e-06	5.103067e-06	2.172952e-08	3.690038e+01	1.427131e+03
1.300000e-06	5.182141e-06	2.201561e-08	3.747216e+01	1.446175e+03
1.310000e-06	5.259334e-06	2.227680e-08	3.803035e+01	1.463600e+03
1.320000e-06	5.334540e-06	2.251967e-08	3.857416e+01	1.479582e+03
1.330000e-06	5.407576e-06	2.274461e-08	3.910228e+01	1.494266e+03
1.340000e-06	5.478510e-06	2.295023e-08	3.961521e+01	1.507770e+03
1.350000e-06	5.547501e-06	2.313638e-08	4.011409e+01	1.520191e+03
1.360000e-06	5.614562e-06	2.330724e-08	4.059900e+01	1.531609e+03
1.370000e-06	5.679502e-06	2.346671e-08	4.106859e+01	1.542096e+03
1.380000e-06	5.742379e-06	2.361342e-08	4.152325e+01	1.551717e+03
1.390000e-06	5.803416e-06	2.374889e-08	4.196461e+01	1.560536e+03
1.400000e-06	5.862579e-06	2.387492e-08	4.239242e+01	1.568619e+03
1.410000e-06	5.919591e-06	2.398857e-08	4.280468e+01	1.576028e+03
1.420000e-06	5.974366e-06	2.409131e-08	4.320076e+01	1.582828e+03
1.430000e-06	6.026918e-06	2.418561e-08	4.358076e+01	1.589080e+03
1.440000e-06	6.076932e-06	2.427221e-08	4.394241e+01	1.594840e+03
1.450000e-06	6.124495e-06	2.435220e-08	4.428634e+01	1.600160e+03
1.460000e-06	6.169958e-06	2.442642e-08	4.461508e+01	1.605082e+03
1.470000e-06	6.213436e-06	2.449622e-08	4.492947e+01	1.609641e+03
1.480000e-06	6.254626e-06	2.456121e-08	4.522732e+01	1.613862e+03
1.490000e-06	6.293474e-06	2.462152e-08	4.550823e+01	1.617762e+03
1.500000e-06	6.330287e-06	2.467760e-08	4.577443e+01	1.621349e+03
1.510000e-06	6.364948e-06	2.472800e-08	4.602506e+01	1.624629e+03
1.520000e-06	6.397216e-06	2.477376e-08	4.625839e+01	1.627601e+03
1.530000e-06	6.427205e-06	2.481424e-08	4.647524e+01	1.630268e+03
1.540000e-06	6.455097e-06	2.484862e-08	4.667693e+01	1.632634e+03
1.550000e-06	6.480608e-06	2.487943e-08	4.686140e+01	1.634709e+03
1.560000e-06	6.503606e-06	2.490679e-08	4.702770e+01	1.636509e+03
1.570000e-06	6.524388e-06	2.493017e-08	4.717798e+01	1.638055e+03
1.580000e-06	6.542977e-06	2.495002e-08	4.731239e+01	1.639373e+03
1.590000e-06	6.559102e-06	2.496701e-08	4.742899e+01	1.640487e+03
1.600000e-06	6.572747e-06	2.498146e-08	4.752766e+01	1.641419e+03
1.610000e-06	6.583850e-06	2.499302e-08	4.760794e+01	1.642188e+03
1.620000e-06	6.592286e-06	2.500341e-08	4.766894e+01	1.642801e+03
1.630000e-06	6.598295e-06	2.501335e-08	4.771240e+01	1.643261e+03
1.640000e-06	6.602131e-06	2.502041e-08	4.774013e+01	1.643563e+03
1.650000e-06	6.603599e-06	2.502616e-08	4.775075e+01	1.643700e+03
1.660000e-06	6.602640e-06	2.502740e-08	4.774381e+01	1.643663e+03
1.670000e-06	6.599594e-06	2.501236e-08	4.772179e+01	1.643449e+03
1.680000e-06	6.594403e-06	2.500801e-08	4.768425e+01	1.643057e+03
1.690000e-06	6.586892e-06	2.500300e-08	4.762994e+01	1.642495e+03
1.700000e-06	6.577236e-06	2.499327e-08	4.756012e+01	1.641776e+03
1.710000e-06	6.565517e-06	2.498776e-08	4.747538e+01	1.640915e+03
1.720000e-06	6.551450e-06	2.498982e-08	4.737366e+01	1.639930e+03
1.730000e-06	6.535133e-06	2.501152e-08	4.725567e+01	1.638835e+03
1.740000e-06	6.516891e-06	2.491704e-08	4.712376e+01	1.637643e+03
1.750000e-06	6.496282e-06	2.479267e-08	4.697474e+01	1.636360e+03
1.760000e-06	6.472540e-06	2.486325e-08	4.680306e+01	1.634987e+03
1.770000e-06	6.445825e-06	2.487181e-08	4.660988e+01	1.633521e+03
1.780000e-06	6.416860e-06	2.481153e-08	4.640043e+01	1.631955e+03
1.790000e-06	6.385930e-06	2.497759e-08	4.617678e+01	1.630280e+03
1.800000e-06	6.353524e-06	2.485528e-08	4.594245e+01	1.628485e+03
1.810000e-06	6.319585e-06	2.463207e-08	4.569704e+01	1.626560e+03
1.820000e-06	6.283343e-06	2.486710e-08	4.543497e+01	1.624493e+03
1.830000e-06	6.244832e-06	2.465915e-08	4.515649e+01	1.622273e+03
1.840000e-06	6.204183e-06	2.467715e-08	4.486257e+01	1.619891e+03
1.850000e-06	6.161314e-06	2.483747e-08	4.455258e+01	1.617337e+03
1.860000e-06	6.116442e-06	2.446801e-08	4.422811e+01	1.614606e+03
1.870000e-06	6.069278e-06	2.461172e-08	4.388706e+01	1.611695e+03
1.880000e-06	6.019813e-06	2.453511e-08	4.352938e+01	1.608609e+03
1.890000e-06	5.968106e-06	2.442060e-08	4.315549e+01	1.605354e+03
1.900000e-06	5.913645e-06	2.453340e-08	4.276168e+01	1.601941e+03
1.910000e-06	5.856832e-06	2.428092e-08	4.235086e+01	1.598383e+03
1.920000e-06	5.797963e-06	2.436442e-08	4.192518e+01	1.594692e+03
1.930000e-06	5.737027e-06	2.429853e-08	4.148455e+01	1.590876e+03
1.940000e-06	5.674025e-06	2.417324e-08	4.102898e+01	1.586936e+03
1.950000e-06	5.608786e-06	2.418085e-08	4.055723e+01	1.582869e+03
1.960000e-06	5.541498e-06	2.399281e-08	4.007067e+01	1.578664e+03
1.970000e-06	5.472030e-06	2.407213e-08	3.956835e+01	1.574308e+03
1.980000e-06	5.400339e-06	2.391995e-08	3.904995e+01	1.569787e+03
1.990000e-06	5.326619e-06	2.386755e-08	3.851688e+01	1.565090e+03
2.000000e-06	5.250967e-06	2.384345e-08	3.796984e+01	1.560212e+03
2.010000e-06	5.173286e-06	2.368305e-08	3.740813e+01	1.555156e+03
2.020000e-06	5.093478e-06	2.367636e-08	3.683103e+01	1.549927e+03
2.030000e-06	5.011846e-06	2.351922e-08	3.624076e+01	1.544536e+03
2.040000e-06	4.928504e-06	2.350390e-08	3.563810e+01	1.538993e+03
2.050000e-06	4.843477e-06	2.341321e-08	3.502327e+01	1.533302e+03
2.060000e-06	4.756670e-06	2.330480e-08	3.439557e+01	1.527465e+03
2.070000e-06	4.668123e-06	2.322016e-08	3.375528e+01	1.521472e+03
2.080000e-06	4.578084e-06	2.310654e-08	3.310421e+01	1.515311e+03
2.090000e-06	4.486492e-06	2.305044e-08	3.244191e+01	1.508965e+03
2.100000e-06	4.393378e-06	2.291281e-08	3.176860e+01	1.502419e+03
2.110000e-06	4.298606e-06	2.283301e-08	3.108330e+01	1.495661e+03
2.120000e-06	4.202251e-06	2.271826e-08	3.038655e+01	1.488687e+03
2.130000e-06	4.104557e-06	2.261374e-08	2.968013e+01	1.481498e+03
2.140000e-06	4.005454e-06	2.249299e-08	2.896351e+01	1.474100e+03
2.150000e-06	3.904898e-06	2.237191e-08	2.823639e+01	1.466501e+03
2.160000e-06	3.802864e-06	2.226725e-08	2.749858e+01	1.458706e+03
2.170000e-06	3.699260e-06	2.214445e-08	2.674942e+01	1.450714e+03
2.180000e-06	3.594248e-06	2.203272e-08	2.599007e+01	1.442514e+03
2.190000e-06	3.488084e-06	2.189335e-08	2.522240e+01	1.434090e+03
2.200000e-06	3.380705e-06	2.176738e-08	2.444594e+01	1.425422e+03
2.210000e-06	3.272122e-06	2.162155e-08	2.366077e+01	1.416486e+03
2.220000e-06	3.162336e-06	2.148844e-08	2.286691e+01	1.407265e+03
2.230000e-06	3.051273e-06	2.134729e-08	2.206382e+01	1.397748e+03
2.240000e-06	2.938953e-06	2.120602e-08	2.125163e+01	1.387930e+03
2.250000e-06	2.825558e-06	2.105116e-08	2.043167e+01	1.377815e+03
2.260000e-06	2.711154e-06	2.088747e-08	1.960440e+01	1.367408e+03
2.270000e-06	2.595650e-06	2.072498e-08	1.876919e+01	1.356716e+03
2.280000e-06	2.479063e-06	2.056136e-08	1.792615e+01	1.345736e+03
2.290000e-06	2.361446e-06	2.039981e-08	1.707566e+01	1.334458e+03
2.300000e-06	2.242926e-06	2.022180e-08	1.621864e+01	1.322862e+03
2.310000e-06	2.123447e-06	2.003975e-08	1.535469e+01	1.310924e+03
2.320000e-06	2.003044e-06	1.984677e-08	1.448405e+01	1.298612e+03
2.330000e-06	1.882030e-06	1.965495e-08	1.360899e+01	1.285902e+03
2.340000e-06	1.760516e-06	1.945420e-08	1.273033e+01	1.272773e+03
2.350000e-06	1.638425e-06	1.925056e-08	1.184748e+01	1.259213e+03
2.360000e-06	1.515796e-06	1.904113e-08	1.096075e+01	1.245221e+03
2.370000e-06	1.392774e-06	1.882442e-08	1.007118e+01	1.230797e+03
2.380000e-06	1.269297e-06	1.859856e-08	9.178310e+00	1.215941e+03
2.390000e-06	1.145307e-06	1.836144e-08	8.281735e+00	1.200647e+03
2.400000e-06	1.020950e-06	1.811917e-08	7.382510e+00	1.184894e+03
2.410000e-06	8.962305e-07	1.786681e-08	6.480659e+00	1.168651e+03
2.420000e-06	7.711363e-07	1.761076e-08	5.576101e+00	1.151873e+03
2.430000e-06	6.457956e-07	1.734841e-08	4.669760e+00	1.134505e+03
2.440000e-06	5.202870e-07	1.707631e-08	3.762205e+00	1.116491e+03
2.450000e-06	3.946197e-07	1.678963e-08	2.853502e+00	1.097778e+03
2.460000e-06	2.688458e-07	1.648964e-08	1.944029e+00	1.078319e+03
2.470000e-06	1.429602e-07	1.618173e-08	1.033748e+00	1.058071e+03
2.480000e-06	1.695268e-08	1.586383e-08	1.225851e-01	1.036993e+03
2.490000e-06	-1.090894e-07	1.553291e-08	-7.888278e-01	1.015040e+03
2.500000e-06	-2.350938e-07	1.518021e-08	-1.699967e+00	9.921514e+02
2.510000e-06	-3.610167e-07	1.480785e-08	-2.610518e+00	9.682471e+02
2.520000e-06	-4.868467e-07	1.442177e-08	-3.520398e+00	9.432213e+02
2.530000e-06	-6.125907e-07	1.402236e-08	-4.429655e+00	9.169425e+02
2.540000e-06	-7.382253e-07	1.360467e-08	-5.338121e+00	8.892568e+02
2.550000e-06	-8.636811e-07	1.316073e-08	-6.245294e+00	8.599927e+02
2.560000e-06	-9.888415e-07	1.268901e-08	-7.150332e+00	8.289665e+02
2.570000e-06	-1.113575e-06	1.218564e-08	-8.052283e+00	7.959836e+02
2.580000e-06	-1.237812e-06	1.164697e-08	-8.950640e+00	7.608357e+02
2.590000e-06	-1.361541e-06	1.107281e-08	-9.845331e+00	7.232933e+02
2.600000e-06	-1.484745e-06	1.045996e-08	-1.073622e+01	6.830940e+02
2.610000e-06	-1.607417e-06	9.803203e-09	-1.162326e+01	6.399323e+02
2.620000e-06	-1.729525e-06	9.096825e-09	-1.250623e+01	5.934541e+02
2.630000e-06	-1.851001e-06	8.333280e-09	-1.338463e+01	5.432618e+02
2.640000e-06	-1.971931e-06	7.505379e-09	-1.425907e+01	4.889333e+02
2.650000e-06	-2.092195e-06	6.606405e-09	-1.512870e+01	4.300575e+02
2.660000e-06	-2.211482e-06	5.633571e-09	-1.599127e+01	3.662820e+02
2.670000e-06	-2.329792e-06	4.585855e-09	-1.684677e+01	2.973712e+02
2.680000e-06	-2.447139e-06	3.461328e-09	-1.769531e+01	2.232629e+02
2.690000e-06	-2.563374e-06	2.259498e-09	-1.853581e+01	1.441176e+02
2.700000e-06	-2.678537e-06	9.841043e-10	-1.936855e+01	6.034906e+01
2.710000e-06	-2.792632e-06	-3.543070e-10	-2.019358e+01	-2.737010e+01
2.720000e-06	-2.905490e-06	-1.739520e-09	-2.100965e+01	-1.181304e+02
2.730000e-06	-3.017220e-06	-3.154029e-09	-2.181758e+01	-2.108350e+02
2.740000e-06	-3.127849e-06	-4.580004e-09	-2.261754e+01	-3.042698e+02
2.750000e-06	-3.237302e-06	-5.999559e-09	-2.340900e+01	-3.971869e+02
2.760000e-06	-3.345674e-06	-7.393028e-09	-2.419263e+01	-4.883888e+02
2.770000e-06	-3.453004e-06	-8.745200e-09	-2.496874e+01	-5.768033e+02
2.780000e-06	-3.559251e-06	-1.004320e-08	-2.573701e+01	-6.615410e+02
2.790000e-06	-3.664331e-06	-1.127426e-08	-2.649684e+01	-7.419281e+02
2.800000e-06	-3.768047e-06	-1.243138e-08	-2.724682e+01	-8.175150e+02
2.810000e-06	-3.870292e-06	-1.351273e-08	-2.798615e+01	-8.880626e+02
2.820000e-06	-3.971068e-06	-1.451882e-08	-2.871486e+01	-9.535109e+02
2.830000e-06	-4.070445e-06	-1.544766e-08	-2.943347e+01	-1.013939e+03
2.840000e-06	-4.168545e-06	-1.630298e-08	-3.014283e+01	-1.069524e+03
2.850000e-06	-4.265342e-06	-1.708831e-08	-3.084277e+01	-1.120500e+03
2.860000e-06	-4.360644e-06	-1.780559e-08	-3.153190e+01	-1.167135e+03
2.870000e-06	-4.454269e-06	-1.845944e-08	-3.220890e+01	-1.209704e+03
2.880000e-06	-4.546271e-06	-1.905628e-08	-3.287417e+01	-1.248485e+03
2.890000e-06	-4.636675e-06	-1.960020e-08	-3.352788e+01	-1.283754e+03
2.900000e-06	-4.725445e-06	-2.009309e-08	-3.416978e+01	-1.315786e+03
2.910000e-06	-4.812499e-06	-2.054079e-08	-3.479927e+01	-1.344854e+03
2.920000e-06	-4.897686e-06	-2.094726e-08	-3.541526e+01	-1.371231e+03
2.930000e-06	-4.981123e-06	-2.131547e-08	-3.601860e+01	-1.395185e+03
2.940000e-06	-5.062928e-06	-2.164862e-08	-3.661012e+01	-1.416973e+03
