# Temperatura_=_87.59
# Concentracion g/m^3_=_28200.0
# C_Vs_to_Am_M_A/Vsm_=_65563218390.804596
# pendiente_HvsI_1/m_=_3716.3
# ordenada_HvsI_A/m_=_1297.0
# frecuencia_Hz_=_301942.81311875756

Tiempo_(s)	Campo_(V.s)	Magnetizacion_(V.s)	Campo_(kA/m)	Magnetizacion_(A/m)
0.000000e+00	-5.825779e-06	-2.569470e-08	-4.194329e+01	-1.683531e+03
1.000000e-08	-5.824323e-06	-2.569383e-08	-4.193281e+01	-1.683141e+03
2.000000e-08	-5.820811e-06	-2.568638e-08	-4.190752e+01	-1.682570e+03
3.000000e-08	-5.815474e-06	-2.567169e-08	-4.186909e+01	-1.681811e+03
4.000000e-08	-5.808403e-06	-2.565683e-08	-4.181819e+01	-1.680852e+03
5.000000e-08	-5.799446e-06	-2.563486e-08	-4.175370e+01	-1.679679e+03
6.000000e-08	-5.788240e-06	-2.560744e-08	-4.167302e+01	-1.678277e+03
7.000000e-08	-5.774895e-06	-2.557862e-08	-4.157695e+01	-1.676639e+03
8.000000e-08	-5.759442e-06	-2.554326e-08	-4.146569e+01	-1.674767e+03
9.000000e-08	-5.741871e-06	-2.554834e-08	-4.133919e+01	-1.672674e+03
1.000000e-07	-5.722297e-06	-2.558522e-08	-4.119826e+01	-1.670385e+03
1.100000e-07	-5.700570e-06	-2.551161e-08	-4.104183e+01	-1.667934e+03
1.200000e-07	-5.676641e-06	-2.541957e-08	-4.086955e+01	-1.665356e+03
1.300000e-07	-5.650515e-06	-2.537648e-08	-4.068146e+01	-1.662681e+03
1.400000e-07	-5.622646e-06	-2.524587e-08	-4.048082e+01	-1.659924e+03
1.500000e-07	-5.593410e-06	-2.520612e-08	-4.027032e+01	-1.657081e+03
1.600000e-07	-5.562583e-06	-2.533708e-08	-4.004838e+01	-1.654128e+03
1.700000e-07	-5.529944e-06	-2.517442e-08	-3.981340e+01	-1.651021e+03
1.800000e-07	-5.495427e-06	-2.511274e-08	-3.956489e+01	-1.647705e+03
1.900000e-07	-5.458971e-06	-2.516576e-08	-3.930242e+01	-1.644120e+03
2.000000e-07	-5.420565e-06	-2.493204e-08	-3.902591e+01	-1.640219e+03
2.100000e-07	-5.380342e-06	-2.492131e-08	-3.873632e+01	-1.635967e+03
2.200000e-07	-5.338079e-06	-2.491439e-08	-3.843205e+01	-1.631354e+03
2.300000e-07	-5.293725e-06	-2.476484e-08	-3.811271e+01	-1.626393e+03
2.400000e-07	-5.247424e-06	-2.473419e-08	-3.777936e+01	-1.621116e+03
2.500000e-07	-5.198950e-06	-2.464141e-08	-3.743037e+01	-1.615563e+03
2.600000e-07	-5.148120e-06	-2.453761e-08	-3.706442e+01	-1.609775e+03
2.700000e-07	-5.095035e-06	-2.446577e-08	-3.668222e+01	-1.603782e+03
2.800000e-07	-5.040101e-06	-2.433373e-08	-3.628672e+01	-1.597596e+03
2.900000e-07	-4.983345e-06	-2.425295e-08	-3.587810e+01	-1.591207e+03
3.000000e-07	-4.924604e-06	-2.415791e-08	-3.545519e+01	-1.584589e+03
3.100000e-07	-4.864051e-06	-2.407033e-08	-3.501923e+01	-1.577705e+03
3.200000e-07	-4.801773e-06	-2.395513e-08	-3.457085e+01	-1.570513e+03
3.300000e-07	-4.737825e-06	-2.382384e-08	-3.411046e+01	-1.562981e+03
3.400000e-07	-4.672038e-06	-2.370502e-08	-3.363681e+01	-1.555089e+03
3.500000e-07	-4.604380e-06	-2.355250e-08	-3.314970e+01	-1.546833e+03
3.600000e-07	-4.535095e-06	-2.344337e-08	-3.265088e+01	-1.538224e+03
3.700000e-07	-4.464327e-06	-2.330943e-08	-3.214137e+01	-1.529280e+03
3.800000e-07	-4.392066e-06	-2.317445e-08	-3.162112e+01	-1.520017e+03
3.900000e-07	-4.318017e-06	-2.303264e-08	-3.108801e+01	-1.510444e+03
4.000000e-07	-4.242100e-06	-2.285233e-08	-3.054143e+01	-1.500558e+03
4.100000e-07	-4.164544e-06	-2.269704e-08	-2.998306e+01	-1.490338e+03
4.200000e-07	-4.085311e-06	-2.254626e-08	-2.941262e+01	-1.479753e+03
4.300000e-07	-4.004456e-06	-2.238850e-08	-2.883049e+01	-1.468765e+03
4.400000e-07	-3.922293e-06	-2.220794e-08	-2.823895e+01	-1.457341e+03
4.500000e-07	-3.838957e-06	-2.201970e-08	-2.763896e+01	-1.445452e+03
4.600000e-07	-3.754475e-06	-2.183338e-08	-2.703073e+01	-1.433085e+03
4.700000e-07	-3.668777e-06	-2.163298e-08	-2.641374e+01	-1.420238e+03
4.800000e-07	-3.581905e-06	-2.143668e-08	-2.578829e+01	-1.406919e+03
4.900000e-07	-3.493852e-06	-2.123247e-08	-2.515434e+01	-1.393134e+03
5.000000e-07	-3.404374e-06	-2.101307e-08	-2.451014e+01	-1.378883e+03
5.100000e-07	-3.313506e-06	-2.078045e-08	-2.385592e+01	-1.364154e+03
5.200000e-07	-3.221460e-06	-2.054007e-08	-2.319323e+01	-1.348914e+03
5.300000e-07	-3.128275e-06	-2.029718e-08	-2.252234e+01	-1.333118e+03
5.400000e-07	-3.033969e-06	-2.004817e-08	-2.184337e+01	-1.316707e+03
5.500000e-07	-2.938622e-06	-1.979243e-08	-2.115691e+01	-1.299622e+03
5.600000e-07	-2.842203e-06	-1.952166e-08	-2.046273e+01	-1.281806e+03
5.700000e-07	-2.744544e-06	-1.923427e-08	-1.975962e+01	-1.263213e+03
5.800000e-07	-2.645621e-06	-1.893421e-08	-1.904742e+01	-1.243808e+03
5.900000e-07	-2.545728e-06	-1.862352e-08	-1.832823e+01	-1.223566e+03
6.000000e-07	-2.445068e-06	-1.830185e-08	-1.760352e+01	-1.202463e+03
6.100000e-07	-2.343508e-06	-1.796423e-08	-1.687232e+01	-1.180472e+03
6.200000e-07	-2.241059e-06	-1.761586e-08	-1.613473e+01	-1.157550e+03
6.300000e-07	-2.137842e-06	-1.725224e-08	-1.539161e+01	-1.133634e+03
6.400000e-07	-2.033918e-06	-1.686875e-08	-1.464340e+01	-1.108643e+03
6.500000e-07	-1.929241e-06	-1.646644e-08	-1.388977e+01	-1.082477e+03
6.600000e-07	-1.823759e-06	-1.604581e-08	-1.313034e+01	-1.055027e+03
6.700000e-07	-1.717498e-06	-1.560580e-08	-1.236530e+01	-1.026177e+03
6.800000e-07	-1.610501e-06	-1.514362e-08	-1.159497e+01	-9.958179e+02
6.900000e-07	-1.502907e-06	-1.465655e-08	-1.082033e+01	-9.638450e+02
7.000000e-07	-1.394832e-06	-1.414118e-08	-1.004224e+01	-9.301602e+02
7.100000e-07	-1.286377e-06	-1.359669e-08	-9.261405e+00	-8.946691e+02
7.200000e-07	-1.177563e-06	-1.302175e-08	-8.477987e+00	-8.572771e+02
7.300000e-07	-1.068381e-06	-1.241944e-08	-7.691918e+00	-8.178897e+02
7.400000e-07	-9.588726e-07	-1.178996e-08	-6.903501e+00	-7.764165e+02
7.500000e-07	-8.490286e-07	-1.112908e-08	-6.112668e+00	-7.327828e+02
7.600000e-07	-7.389221e-07	-1.043227e-08	-5.319945e+00	-6.869469e+02
7.700000e-07	-6.285971e-07	-9.697285e-09	-4.525649e+00	-6.389210e+02
7.800000e-07	-5.180620e-07	-8.926755e-09	-3.729840e+00	-5.887891e+02
7.900000e-07	-4.073754e-07	-8.128213e-09	-2.932940e+00	-5.367192e+02
8.000000e-07	-2.965612e-07	-7.309807e-09	-2.135122e+00	-4.829617e+02
8.100000e-07	-1.856162e-07	-6.473634e-09	-1.336363e+00	-4.278324e+02
8.200000e-07	-7.456692e-08	-5.621927e-09	-5.368521e-01	-3.716803e+02
8.300000e-07	3.654686e-08	-4.758824e-09	2.631229e-01	-3.148439e+02
8.400000e-07	1.476980e-07	-3.889048e-09	1.063367e+00	-2.576025e+02
8.500000e-07	2.588270e-07	-3.014905e-09	1.863452e+00	-2.001330e+02
8.600000e-07	3.698224e-07	-2.135388e-09	2.662574e+00	-1.424809e+02
8.700000e-07	4.806519e-07	-1.252135e-09	3.460502e+00	-8.455356e+01
8.800000e-07	5.913784e-07	-3.617098e-10	4.257689e+00	-2.613900e+01
8.900000e-07	7.019546e-07	5.403531e-10	5.053794e+00	3.305025e+01
9.000000e-07	8.122901e-07	1.461450e-09	5.848165e+00	9.331470e+01
9.100000e-07	9.223929e-07	2.402111e-09	6.640861e+00	1.548970e+02
9.200000e-07	1.032242e-06	3.360457e-09	7.431731e+00	2.179151e+02
9.300000e-07	1.141732e-06	4.337437e-09	8.220019e+00	2.823116e+02
9.400000e-07	1.250811e-06	5.330372e-09	9.005344e+00	3.478286e+02
9.500000e-07	1.359497e-06	6.336684e-09	9.787837e+00	4.140135e+02
9.600000e-07	1.467830e-06	7.346179e-09	1.056779e+01	4.802548e+02
9.700000e-07	1.575707e-06	8.347422e-09	1.134446e+01	5.458421e+02
9.800000e-07	1.683024e-06	9.328061e-09	1.211710e+01	6.100392e+02
9.900000e-07	1.789663e-06	1.027347e-08	1.288486e+01	6.721595e+02
1.000000e-06	1.895448e-06	1.117304e-08	1.364647e+01	7.316309e+02
1.010000e-06	2.000403e-06	1.202513e-08	1.440211e+01	7.880399e+02
1.020000e-06	2.104620e-06	1.283054e-08	1.515243e+01	8.411517e+02
1.030000e-06	2.208009e-06	1.358460e-08	1.589679e+01	8.909041e+02
1.040000e-06	2.310532e-06	1.428876e-08	1.663491e+01	9.373806e+02
1.050000e-06	2.412198e-06	1.494704e-08	1.736687e+01	9.807692e+02
1.060000e-06	2.513004e-06	1.556222e-08	1.809263e+01	1.021316e+03
1.070000e-06	2.613110e-06	1.613923e-08	1.881335e+01	1.059285e+03
1.080000e-06	2.712361e-06	1.668386e-08	1.952792e+01	1.094921e+03
1.090000e-06	2.810417e-06	1.719573e-08	2.023389e+01	1.128436e+03
1.100000e-06	2.907348e-06	1.767653e-08	2.093175e+01	1.160000e+03
1.110000e-06	3.003232e-06	1.812794e-08	2.162207e+01	1.189748e+03
1.120000e-06	3.097987e-06	1.855146e-08	2.230427e+01	1.217790e+03
1.130000e-06	3.191662e-06	1.894916e-08	2.297869e+01	1.244226e+03
1.140000e-06	3.284382e-06	1.932582e-08	2.364624e+01	1.269156e+03
1.150000e-06	3.376191e-06	1.968471e-08	2.430723e+01	1.292688e+03
1.160000e-06	3.466780e-06	2.002484e-08	2.495943e+01	1.314932e+03
1.170000e-06	3.555915e-06	2.034821e-08	2.560117e+01	1.336001e+03
1.180000e-06	3.643692e-06	2.065502e-08	2.623314e+01	1.356002e+03
1.190000e-06	3.730233e-06	2.094563e-08	2.685619e+01	1.375026e+03
1.200000e-06	3.815591e-06	2.121948e-08	2.747074e+01	1.393149e+03
1.210000e-06	3.899776e-06	2.147809e-08	2.807684e+01	1.410425e+03
1.220000e-06	3.982678e-06	2.172411e-08	2.867369e+01	1.426893e+03
1.230000e-06	4.064092e-06	2.196051e-08	2.925985e+01	1.442583e+03
1.240000e-06	4.143940e-06	2.218682e-08	2.983472e+01	1.457518e+03
1.250000e-06	4.222223e-06	2.240309e-08	3.039833e+01	1.471726e+03
1.260000e-06	4.299015e-06	2.260882e-08	3.095120e+01	1.485240e+03
1.270000e-06	4.374223e-06	2.280394e-08	3.149267e+01	1.498100e+03
1.280000e-06	4.447668e-06	2.298893e-08	3.202144e+01	1.510353e+03
1.290000e-06	4.519320e-06	2.316603e-08	3.253730e+01	1.522046e+03
1.300000e-06	4.589240e-06	2.333615e-08	3.304070e+01	1.533220e+03
1.310000e-06	4.657579e-06	2.349870e-08	3.353272e+01	1.543909e+03
1.320000e-06	4.724381e-06	2.365458e-08	3.401366e+01	1.554135e+03
1.330000e-06	4.789355e-06	2.380386e-08	3.448145e+01	1.563910e+03
1.340000e-06	4.852474e-06	2.394652e-08	3.493588e+01	1.573233e+03
1.350000e-06	4.913975e-06	2.408372e-08	3.537866e+01	1.582101e+03
1.360000e-06	4.973939e-06	2.421407e-08	3.581038e+01	1.590509e+03
1.370000e-06	5.032170e-06	2.433556e-08	3.622962e+01	1.598456e+03
1.380000e-06	5.088423e-06	2.444903e-08	3.663462e+01	1.605949e+03
1.390000e-06	5.142826e-06	2.455645e-08	3.702630e+01	1.613004e+03
1.400000e-06	5.195348e-06	2.465758e-08	3.740443e+01	1.619648e+03
1.410000e-06	5.245648e-06	2.475254e-08	3.776658e+01	1.625909e+03
1.420000e-06	5.293730e-06	2.484333e-08	3.811275e+01	1.631823e+03
1.430000e-06	5.339922e-06	2.492851e-08	3.844532e+01	1.637419e+03
1.440000e-06	5.384400e-06	2.500744e-08	3.876554e+01	1.642725e+03
1.450000e-06	5.427072e-06	2.508260e-08	3.907276e+01	1.647759e+03
1.460000e-06	5.467695e-06	2.515598e-08	3.936523e+01	1.652529e+03
1.470000e-06	5.506331e-06	2.522719e-08	3.964339e+01	1.657036e+03
1.480000e-06	5.543215e-06	2.529315e-08	3.990894e+01	1.661276e+03
1.490000e-06	5.578289e-06	2.535327e-08	4.016146e+01	1.665238e+03
1.500000e-06	5.611248e-06	2.540946e-08	4.039875e+01	1.668914e+03
1.510000e-06	5.642156e-06	2.546326e-08	4.062128e+01	1.672298e+03
1.520000e-06	5.671189e-06	2.551219e-08	4.083031e+01	1.675386e+03
1.530000e-06	5.698284e-06	2.555583e-08	4.102537e+01	1.678180e+03
1.540000e-06	5.723208e-06	2.559490e-08	4.120482e+01	1.680688e+03
1.550000e-06	5.745951e-06	2.562786e-08	4.136856e+01	1.682917e+03
1.560000e-06	5.766743e-06	2.565607e-08	4.151825e+01	1.684878e+03
1.570000e-06	5.785555e-06	2.568148e-08	4.165370e+01	1.686581e+03
1.580000e-06	5.802256e-06	2.570462e-08	4.177393e+01	1.688033e+03
1.590000e-06	5.816775e-06	2.572427e-08	4.187847e+01	1.689243e+03
1.600000e-06	5.829172e-06	2.573932e-08	4.196772e+01	1.690215e+03
1.610000e-06	5.839239e-06	2.574939e-08	4.204020e+01	1.690955e+03
1.620000e-06	5.846998e-06	2.575809e-08	4.209606e+01	1.691472e+03
1.630000e-06	5.852730e-06	2.576643e-08	4.213733e+01	1.691775e+03
1.640000e-06	5.856515e-06	2.577200e-08	4.216458e+01	1.691873e+03
1.650000e-06	5.858143e-06	2.577552e-08	4.217630e+01	1.691777e+03
1.660000e-06	5.857647e-06	2.577443e-08	4.217273e+01	1.691497e+03
1.670000e-06	5.855267e-06	2.576204e-08	4.215559e+01	1.691035e+03
1.680000e-06	5.851032e-06	2.575004e-08	4.212510e+01	1.690389e+03
1.690000e-06	5.844792e-06	2.573799e-08	4.208018e+01	1.689552e+03
1.700000e-06	5.836545e-06	2.572340e-08	4.202080e+01	1.688509e+03
1.710000e-06	5.826512e-06	2.570867e-08	4.194856e+01	1.687247e+03
1.720000e-06	5.814593e-06	2.569509e-08	4.186276e+01	1.685752e+03
1.730000e-06	5.800536e-06	2.568941e-08	4.176155e+01	1.684019e+03
1.740000e-06	5.784515e-06	2.561893e-08	4.164621e+01	1.682057e+03
1.750000e-06	5.766530e-06	2.549771e-08	4.151672e+01	1.679881e+03
1.760000e-06	5.745895e-06	2.550514e-08	4.136815e+01	1.677523e+03
1.770000e-06	5.722398e-06	2.550916e-08	4.119899e+01	1.675017e+03
1.780000e-06	5.696661e-06	2.549698e-08	4.101370e+01	1.672397e+03
1.790000e-06	5.669514e-06	2.557584e-08	4.081824e+01	1.669687e+03
1.800000e-06	5.641496e-06	2.537615e-08	4.061652e+01	1.666897e+03
1.810000e-06	5.611973e-06	2.525792e-08	4.040397e+01	1.664014e+03
1.820000e-06	5.580023e-06	2.537104e-08	4.017394e+01	1.661005e+03
1.830000e-06	5.546150e-06	2.519536e-08	3.993008e+01	1.657821e+03
1.840000e-06	5.510575e-06	2.526100e-08	3.967395e+01	1.654405e+03
1.850000e-06	5.472775e-06	2.531763e-08	3.940180e+01	1.650700e+03
1.860000e-06	5.432922e-06	2.502965e-08	3.911487e+01	1.646662e+03
1.870000e-06	5.391138e-06	2.506657e-08	3.881405e+01	1.642267e+03
1.880000e-06	5.347601e-06	2.498076e-08	3.850060e+01	1.637513e+03
1.890000e-06	5.302421e-06	2.484324e-08	3.817532e+01	1.632422e+03
1.900000e-06	5.255048e-06	2.487838e-08	3.783425e+01	1.627030e+03
1.910000e-06	5.205552e-06	2.466973e-08	3.747790e+01	1.621379e+03
1.920000e-06	5.154065e-06	2.467679e-08	3.710721e+01	1.615507e+03
1.930000e-06	5.100302e-06	2.461786e-08	3.672015e+01	1.609436e+03
1.940000e-06	5.044552e-06	2.441791e-08	3.631877e+01	1.603171e+03
1.950000e-06	4.986990e-06	2.439336e-08	3.590434e+01	1.596695e+03
1.960000e-06	4.927717e-06	2.422094e-08	3.547760e+01	1.589976e+03
1.970000e-06	4.866631e-06	2.416699e-08	3.503781e+01	1.582974e+03
1.980000e-06	4.803523e-06	2.403986e-08	3.458345e+01	1.575651e+03
1.990000e-06	4.738624e-06	2.389580e-08	3.411621e+01	1.567977e+03
2.000000e-06	4.672071e-06	2.386091e-08	3.363705e+01	1.559941e+03
2.010000e-06	4.604030e-06	2.366312e-08	3.314718e+01	1.551543e+03
2.020000e-06	4.534195e-06	2.355172e-08	3.264440e+01	1.542799e+03
2.030000e-06	4.462505e-06	2.338191e-08	3.212826e+01	1.533726e+03
2.040000e-06	4.389280e-06	2.325873e-08	3.160107e+01	1.524340e+03
2.050000e-06	4.314424e-06	2.316018e-08	3.106213e+01	1.514644e+03
2.060000e-06	4.237873e-06	2.295431e-08	3.051100e+01	1.504628e+03
2.070000e-06	4.159534e-06	2.282291e-08	2.994699e+01	1.494268e+03
2.080000e-06	4.079615e-06	2.263446e-08	2.937160e+01	1.483528e+03
2.090000e-06	3.998337e-06	2.247587e-08	2.878643e+01	1.472371e+03
2.100000e-06	3.915698e-06	2.229606e-08	2.819146e+01	1.460765e+03
2.110000e-06	3.831936e-06	2.211666e-08	2.758841e+01	1.448688e+03
2.120000e-06	3.746964e-06	2.194872e-08	2.697665e+01	1.436131e+03
2.130000e-06	3.660514e-06	2.171995e-08	2.635425e+01	1.423097e+03
2.140000e-06	3.572611e-06	2.151744e-08	2.572138e+01	1.409592e+03
2.150000e-06	3.483390e-06	2.129574e-08	2.507902e+01	1.395624e+03
2.160000e-06	3.392968e-06	2.109386e-08	2.442802e+01	1.381186e+03
2.170000e-06	3.301498e-06	2.087249e-08	2.376947e+01	1.366259e+03
2.180000e-06	3.208982e-06	2.064156e-08	2.310339e+01	1.350806e+03
2.190000e-06	3.115147e-06	2.039697e-08	2.242782e+01	1.334774e+03
2.200000e-06	3.019994e-06	2.013391e-08	2.174275e+01	1.318105e+03
2.210000e-06	2.923738e-06	1.987300e-08	2.104975e+01	1.300738e+03
2.220000e-06	2.826480e-06	1.959520e-08	2.034953e+01	1.282620e+03
2.230000e-06	2.728213e-06	1.931382e-08	1.964205e+01	1.263710e+03
2.240000e-06	2.629001e-06	1.901096e-08	1.892776e+01	1.243977e+03
2.250000e-06	2.528934e-06	1.870149e-08	1.820732e+01	1.223398e+03
2.260000e-06	2.427936e-06	1.837386e-08	1.748018e+01	1.201949e+03
2.270000e-06	2.325934e-06	1.803187e-08	1.674580e+01	1.179597e+03
2.280000e-06	2.222885e-06	1.767846e-08	1.600389e+01	1.156292e+03
2.290000e-06	2.118919e-06	1.731230e-08	1.525537e+01	1.131963e+03
2.300000e-06	2.014211e-06	1.692869e-08	1.450152e+01	1.106522e+03
2.310000e-06	1.908780e-06	1.652105e-08	1.374245e+01	1.079864e+03
2.320000e-06	1.802765e-06	1.609334e-08	1.297919e+01	1.051876e+03
2.330000e-06	1.696254e-06	1.564070e-08	1.221236e+01	1.022445e+03
2.340000e-06	1.589204e-06	1.516821e-08	1.144164e+01	9.914622e+02
2.350000e-06	1.481673e-06	1.467172e-08	1.066746e+01	9.588269e+02
2.360000e-06	1.373724e-06	1.415364e-08	9.890268e+00	9.244424e+02
2.370000e-06	1.265374e-06	1.360779e-08	9.110187e+00	8.882144e+02
2.380000e-06	1.156642e-06	1.302796e-08	8.327363e+00	8.500484e+02
2.390000e-06	1.047619e-06	1.241153e-08	7.542440e+00	8.098505e+02
2.400000e-06	9.383109e-07	1.176117e-08	6.755465e+00	7.675347e+02
2.410000e-06	8.286249e-07	1.108194e-08	5.965769e+00	7.230370e+02
2.420000e-06	7.185985e-07	1.037158e-08	5.173623e+00	6.763344e+02
2.430000e-06	6.083129e-07	9.628148e-09	4.379611e+00	6.274652e+02
2.440000e-06	4.978180e-07	8.852460e-09	3.584091e+00	5.765459e+02
2.450000e-06	3.871225e-07	8.048710e-09	2.787128e+00	5.237777e+02
2.460000e-06	2.762516e-07	7.216854e-09	1.988902e+00	4.694395e+02
2.470000e-06	1.652211e-07	6.365359e-09	1.189526e+00	4.138649e+02
2.480000e-06	5.409573e-08	5.503573e-09	3.894677e-01	3.574046e+02
2.490000e-06	-5.699994e-08	4.635294e-09	-4.103769e-01	3.003792e+02
2.500000e-06	-1.680609e-07	3.760069e-09	-1.209972e+00	2.430326e+02
2.510000e-06	-2.790357e-07	2.878530e-09	-2.008946e+00	1.854924e+02
2.520000e-06	-3.899076e-07	1.994099e-09	-2.807180e+00	1.277492e+02
2.530000e-06	-5.006540e-07	1.103921e-09	-3.604510e+00	6.965979e+01
2.540000e-06	-6.111738e-07	2.052057e-10	-4.400208e+00	1.097610e+01
2.550000e-06	-7.215104e-07	-7.047267e-10	-5.194588e+00	-4.860265e+01
2.560000e-06	-8.315393e-07	-1.630322e-09	-5.986752e+00	-1.093628e+02
2.570000e-06	-9.411618e-07	-2.576799e-09	-6.775990e+00	-1.715052e+02
2.580000e-06	-1.050385e-06	-3.547993e-09	-7.562352e+00	-2.350839e+02
2.590000e-06	-1.159263e-06	-4.538270e-09	-8.346232e+00	-2.999639e+02
2.600000e-06	-1.267907e-06	-5.541087e-09	-9.128428e+00	-3.658084e+02
2.610000e-06	-1.376161e-06	-6.553538e-09	-9.907813e+00	-4.320968e+02
2.620000e-06	-1.483846e-06	-7.567524e-09	-1.068310e+01	-4.981704e+02
2.630000e-06	-1.590964e-06	-8.570568e-09	-1.145431e+01	-5.632994e+02
2.640000e-06	-1.697557e-06	-9.546387e-09	-1.222173e+01	-6.267588e+02
2.650000e-06	-1.803579e-06	-1.048196e-08	-1.298505e+01	-6.879000e+02
2.660000e-06	-1.908940e-06	-1.137122e-08	-1.374360e+01	-7.462092e+02
2.670000e-06	-2.013659e-06	-1.221233e-08	-1.449754e+01	-8.013423e+02
2.680000e-06	-2.117711e-06	-1.300424e-08	-1.524668e+01	-8.531342e+02
2.690000e-06	-2.220863e-06	-1.374582e-08	-1.598933e+01	-9.015842e+02
2.700000e-06	-2.322984e-06	-1.444021e-08	-1.672456e+01	-9.468223e+02
2.710000e-06	-2.424097e-06	-1.509037e-08	-1.745253e+01	-9.890648e+02
2.720000e-06	-2.524285e-06	-1.569812e-08	-1.817385e+01	-1.028569e+03
2.730000e-06	-2.623613e-06	-1.626785e-08	-1.888897e+01	-1.065595e+03
2.740000e-06	-2.722080e-06	-1.680280e-08	-1.959789e+01	-1.100377e+03
2.750000e-06	-2.819641e-06	-1.730342e-08	-2.030030e+01	-1.133108e+03
2.760000e-06	-2.916325e-06	-1.777165e-08	-2.099638e+01	-1.163946e+03
2.770000e-06	-3.012127e-06	-1.821243e-08	-2.168612e+01	-1.193012e+03
2.780000e-06	-3.106846e-06	-1.862934e-08	-2.236805e+01	-1.220413e+03
2.790000e-06	-3.200331e-06	-1.902339e-08	-2.304111e+01	-1.246246e+03
2.800000e-06	-3.292573e-06	-1.939715e-08	-2.370522e+01	-1.270616e+03
2.810000e-06	-3.383615e-06	-1.975192e-08	-2.436068e+01	-1.293629e+03
2.820000e-06	-3.473454e-06	-2.008518e-08	-2.500748e+01	-1.315400e+03
2.830000e-06	-3.562144e-06	-2.040036e-08	-2.564602e+01	-1.336038e+03
2.840000e-06	-3.649622e-06	-2.070167e-08	-2.627583e+01	-1.355647e+03
2.850000e-06	-3.735728e-06	-2.098916e-08	-2.689575e+01	-1.374310e+03
2.860000e-06	-3.820453e-06	-2.126332e-08	-2.750574e+01	-1.392096e+03
2.870000e-06	-3.903838e-06	-2.152159e-08	-2.810608e+01	-1.409053e+03
2.880000e-06	-3.985894e-06	-2.176651e-08	-2.869685e+01	-1.425213e+03
2.890000e-06	-4.066621e-06	-2.200087e-08	-2.927805e+01	-1.440605e+03
2.900000e-06	-4.145873e-06	-2.222554e-08	-2.984863e+01	-1.455252e+03
2.910000e-06	-4.223389e-06	-2.244198e-08	-3.040672e+01	-1.469184e+03
2.920000e-06	-4.299155e-06	-2.264810e-08	-3.095221e+01	-1.482437e+03
2.930000e-06	-4.373319e-06	-2.284352e-08	-3.148616e+01	-1.495055e+03
2.940000e-06	-4.445964e-06	-2.302728e-08	-3.200917e+01	-1.507084e+03
