# Temperatura_=_55.51
# Concentracion g/m^3_=_28200.0
# C_Vs_to_Am_M_A/Vsm_=_65563218390.804596
# pendiente_HvsI_1/m_=_3716.3
# ordenada_HvsI_A/m_=_1297.0
# frecuencia_Hz_=_301949.4128376654

Tiempo_(s)	Campo_(V.s)	Magnetizacion_(V.s)	Campo_(kA/m)	Magnetizacion_(A/m)
0.000000e+00	-5.830303e-06	-2.004982e-08	-4.194334e+01	-1.313591e+03
1.000000e-08	-5.828569e-06	-2.004759e-08	-4.193087e+01	-1.313333e+03
2.000000e-08	-5.824758e-06	-2.004050e-08	-4.190345e+01	-1.312958e+03
3.000000e-08	-5.819212e-06	-2.003109e-08	-4.186356e+01	-1.312452e+03
4.000000e-08	-5.811946e-06	-2.002087e-08	-4.181128e+01	-1.311795e+03
5.000000e-08	-5.802723e-06	-2.000594e-08	-4.174493e+01	-1.310969e+03
6.000000e-08	-5.791294e-06	-1.998887e-08	-4.166271e+01	-1.309961e+03
7.000000e-08	-5.777710e-06	-1.996898e-08	-4.156499e+01	-1.308764e+03
8.000000e-08	-5.761995e-06	-1.995221e-08	-4.145193e+01	-1.307386e+03
9.000000e-08	-5.744175e-06	-1.996815e-08	-4.132373e+01	-1.305843e+03
1.000000e-07	-5.724300e-06	-1.995556e-08	-4.118075e+01	-1.304157e+03
1.100000e-07	-5.702239e-06	-1.989947e-08	-4.102205e+01	-1.302352e+03
1.200000e-07	-5.677922e-06	-1.985706e-08	-4.084711e+01	-1.300445e+03
1.300000e-07	-5.651496e-06	-1.980582e-08	-4.065700e+01	-1.298448e+03
1.400000e-07	-5.623388e-06	-1.971659e-08	-4.045479e+01	-1.296357e+03
1.500000e-07	-5.593866e-06	-1.974352e-08	-4.024241e+01	-1.294160e+03
1.600000e-07	-5.562751e-06	-1.975617e-08	-4.001857e+01	-1.291832e+03
1.700000e-07	-5.529888e-06	-1.965430e-08	-3.978215e+01	-1.289347e+03
1.800000e-07	-5.495212e-06	-1.967584e-08	-3.953269e+01	-1.286677e+03
1.900000e-07	-5.458508e-06	-1.961251e-08	-3.926864e+01	-1.283800e+03
2.000000e-07	-5.419853e-06	-1.951023e-08	-3.899055e+01	-1.280703e+03
2.100000e-07	-5.379364e-06	-1.950269e-08	-3.869928e+01	-1.277384e+03
2.200000e-07	-5.336863e-06	-1.940738e-08	-3.839352e+01	-1.273848e+03
2.300000e-07	-5.292292e-06	-1.935506e-08	-3.807288e+01	-1.270109e+03
2.400000e-07	-5.245629e-06	-1.933385e-08	-3.773718e+01	-1.266181e+03
2.500000e-07	-5.196727e-06	-1.925330e-08	-3.738538e+01	-1.262075e+03
2.600000e-07	-5.145567e-06	-1.921679e-08	-3.701733e+01	-1.257797e+03
2.700000e-07	-5.092247e-06	-1.913888e-08	-3.663375e+01	-1.253348e+03
2.800000e-07	-5.037037e-06	-1.902909e-08	-3.623657e+01	-1.248719e+03
2.900000e-07	-4.980004e-06	-1.896031e-08	-3.582627e+01	-1.243897e+03
3.000000e-07	-4.921039e-06	-1.890405e-08	-3.540207e+01	-1.238866e+03
3.100000e-07	-4.860281e-06	-1.882594e-08	-3.496498e+01	-1.233612e+03
3.200000e-07	-4.797810e-06	-1.874027e-08	-3.451557e+01	-1.228122e+03
3.300000e-07	-4.733498e-06	-1.866338e-08	-3.405290e+01	-1.222390e+03
3.400000e-07	-4.667336e-06	-1.853983e-08	-3.357693e+01	-1.216413e+03
3.500000e-07	-4.599483e-06	-1.843794e-08	-3.308879e+01	-1.210191e+03
3.600000e-07	-4.529968e-06	-1.835770e-08	-3.258870e+01	-1.203725e+03
3.700000e-07	-4.458902e-06	-1.825232e-08	-3.207745e+01	-1.197013e+03
3.800000e-07	-4.386267e-06	-1.815823e-08	-3.155491e+01	-1.190051e+03
3.900000e-07	-4.311828e-06	-1.803949e-08	-3.101940e+01	-1.182828e+03
4.000000e-07	-4.235628e-06	-1.790197e-08	-3.047121e+01	-1.175329e+03
4.100000e-07	-4.157755e-06	-1.778255e-08	-2.991099e+01	-1.167536e+03
4.200000e-07	-4.078197e-06	-1.766791e-08	-2.933865e+01	-1.159429e+03
4.300000e-07	-3.997145e-06	-1.754343e-08	-2.875556e+01	-1.150990e+03
4.400000e-07	-3.914832e-06	-1.740610e-08	-2.816340e+01	-1.142202e+03
4.500000e-07	-3.831310e-06	-1.727018e-08	-2.756254e+01	-1.133055e+03
4.600000e-07	-3.746552e-06	-1.712137e-08	-2.695278e+01	-1.123541e+03
4.700000e-07	-3.660640e-06	-1.697030e-08	-2.633473e+01	-1.113655e+03
4.800000e-07	-3.573588e-06	-1.681666e-08	-2.570848e+01	-1.103393e+03
4.900000e-07	-3.485230e-06	-1.665249e-08	-2.507283e+01	-1.092747e+03
5.000000e-07	-3.395515e-06	-1.648038e-08	-2.442741e+01	-1.081705e+03
5.100000e-07	-3.304421e-06	-1.629627e-08	-2.377208e+01	-1.070250e+03
5.200000e-07	-3.212089e-06	-1.611298e-08	-2.310785e+01	-1.058356e+03
5.300000e-07	-3.118717e-06	-1.592458e-08	-2.243612e+01	-1.045995e+03
5.400000e-07	-3.024325e-06	-1.572825e-08	-2.175707e+01	-1.033132e+03
5.500000e-07	-2.928843e-06	-1.552357e-08	-2.107017e+01	-1.019730e+03
5.600000e-07	-2.832149e-06	-1.531112e-08	-2.037455e+01	-1.005752e+03
5.700000e-07	-2.734243e-06	-1.508681e-08	-1.967021e+01	-9.911653e+02
5.800000e-07	-2.635169e-06	-1.485223e-08	-1.895747e+01	-9.759345e+02
5.900000e-07	-2.535133e-06	-1.460945e-08	-1.823781e+01	-9.600270e+02
6.000000e-07	-2.434217e-06	-1.435231e-08	-1.751182e+01	-9.434089e+02
6.100000e-07	-2.332421e-06	-1.408357e-08	-1.677950e+01	-9.260435e+02
6.200000e-07	-2.229814e-06	-1.380642e-08	-1.604133e+01	-9.078889e+02
6.300000e-07	-2.126390e-06	-1.351959e-08	-1.529730e+01	-8.888966e+02
6.400000e-07	-2.022182e-06	-1.321949e-08	-1.454763e+01	-8.690107e+02
6.500000e-07	-1.917241e-06	-1.290226e-08	-1.379268e+01	-8.481680e+02
6.600000e-07	-1.811566e-06	-1.256538e-08	-1.303245e+01	-8.262980e+02
6.700000e-07	-1.705184e-06	-1.221230e-08	-1.226713e+01	-8.033248e+02
6.800000e-07	-1.598145e-06	-1.184270e-08	-1.149709e+01	-7.791676e+02
6.900000e-07	-1.490441e-06	-1.145228e-08	-1.072227e+01	-7.537425e+02
7.000000e-07	-1.382233e-06	-1.104116e-08	-9.943820e+00	-7.269639e+02
7.100000e-07	-1.273695e-06	-1.060695e-08	-9.162996e+00	-6.987474e+02
7.200000e-07	-1.164793e-06	-1.014958e-08	-8.379549e+00	-6.690132e+02
7.300000e-07	-1.055538e-06	-9.671254e-09	-7.593567e+00	-6.376922e+02
7.400000e-07	-9.459176e-07	-9.172503e-09	-6.804954e+00	-6.047339e+02
7.500000e-07	-8.359426e-07	-8.650748e-09	-6.013792e+00	-5.701156e+02
7.600000e-07	-7.256851e-07	-8.101146e-09	-5.220596e+00	-5.338529e+02
7.700000e-07	-6.152306e-07	-7.521431e-09	-4.425984e+00	-4.960082e+02
7.800000e-07	-5.046360e-07	-6.915755e-09	-3.630364e+00	-4.566969e+02
7.900000e-07	-3.939264e-07	-6.292224e-09	-2.833916e+00	-4.160873e+02
8.000000e-07	-2.831183e-07	-5.656648e-09	-2.036760e+00	-3.743930e+02
8.100000e-07	-1.721957e-07	-5.011880e-09	-1.238780e+00	-3.318584e+02
8.200000e-07	-6.116733e-08	-4.359079e-09	-4.400393e-01	-2.887361e+02
8.300000e-07	4.991484e-08	-3.701264e-09	3.590886e-01	-2.452596e+02
8.400000e-07	1.609856e-07	-3.040693e-09	1.158134e+00	-2.016155e+02
8.500000e-07	2.720166e-07	-2.377363e-09	1.956894e+00	-1.579183e+02
8.600000e-07	3.830083e-07	-1.711382e-09	2.755371e+00	-1.141947e+02
8.700000e-07	4.938998e-07	-1.044294e-09	3.553127e+00	-7.037924e+01
8.800000e-07	6.046178e-07	-3.751275e-10	4.349635e+00	-2.632507e+01
8.900000e-07	7.152094e-07	3.011854e-10	5.145234e+00	1.817095e+01
9.000000e-07	8.256461e-07	9.892269e-10	5.939718e+00	6.333154e+01
9.100000e-07	9.358575e-07	1.688414e-09	6.732582e+00	1.093554e+02
9.200000e-07	1.045754e-06	2.399985e-09	7.523180e+00	1.563735e+02
9.300000e-07	1.155268e-06	3.126516e-09	8.311030e+00	2.044122e+02
9.400000e-07	1.264393e-06	3.867723e-09	9.096071e+00	2.533694e+02
9.500000e-07	1.373143e-06	4.623550e-09	9.878421e+00	3.030085e+02
9.600000e-07	1.481495e-06	5.387468e-09	1.065791e+01	3.529704e+02
9.700000e-07	1.589339e-06	6.151154e-09	1.143375e+01	4.028038e+02
9.800000e-07	1.696559e-06	6.903194e-09	1.220508e+01	4.520068e+02
9.900000e-07	1.803119e-06	7.632133e-09	1.297168e+01	5.000759e+02
1.000000e-06	1.908929e-06	8.334874e-09	1.373288e+01	5.465531e+02
1.010000e-06	2.013913e-06	9.007822e-09	1.448814e+01	5.910646e+02
1.020000e-06	2.118031e-06	9.649815e-09	1.523717e+01	6.333463e+02
1.030000e-06	2.221322e-06	1.025686e-08	1.598024e+01	6.732534e+02
1.040000e-06	2.323823e-06	1.082627e-08	1.671764e+01	7.107539e+02
1.050000e-06	2.425476e-06	1.135984e-08	1.744893e+01	7.459098e+02
1.060000e-06	2.526316e-06	1.185842e-08	1.817438e+01	7.788494e+02
1.070000e-06	2.626380e-06	1.232608e-08	1.889424e+01	8.097377e+02
1.080000e-06	2.725573e-06	1.276684e-08	1.960784e+01	8.387497e+02
1.090000e-06	2.823699e-06	1.318453e-08	2.031376e+01	8.660491e+02
1.100000e-06	2.920581e-06	1.357848e-08	2.101073e+01	8.917774e+02
1.110000e-06	3.016233e-06	1.394995e-08	2.169886e+01	9.160502e+02
1.120000e-06	3.110901e-06	1.429943e-08	2.237990e+01	9.389608e+02
1.130000e-06	3.204588e-06	1.462725e-08	2.305389e+01	9.605880e+02
1.140000e-06	3.297220e-06	1.493510e-08	2.372028e+01	9.810043e+02
1.150000e-06	3.388850e-06	1.522612e-08	2.437947e+01	1.000283e+03
1.160000e-06	3.479361e-06	1.550411e-08	2.503061e+01	1.018500e+03
1.170000e-06	3.568469e-06	1.576893e-08	2.567166e+01	1.035735e+03
1.180000e-06	3.656155e-06	1.602024e-08	2.630247e+01	1.052069e+03
1.190000e-06	3.742610e-06	1.625906e-08	2.692443e+01	1.067576e+03
1.200000e-06	3.827888e-06	1.648423e-08	2.753792e+01	1.082320e+03
1.210000e-06	3.911953e-06	1.669557e-08	2.814269e+01	1.096356e+03
1.220000e-06	3.994717e-06	1.689551e-08	2.873809e+01	1.109725e+03
1.230000e-06	4.076001e-06	1.708679e-08	2.932285e+01	1.122458e+03
1.240000e-06	4.155731e-06	1.727045e-08	2.989643e+01	1.134581e+03
1.250000e-06	4.233953e-06	1.744507e-08	3.045916e+01	1.146117e+03
1.260000e-06	4.310666e-06	1.761232e-08	3.101104e+01	1.157089e+03
1.270000e-06	4.385757e-06	1.777290e-08	3.155125e+01	1.167525e+03
1.280000e-06	4.459005e-06	1.792615e-08	3.207819e+01	1.177452e+03
1.290000e-06	4.530444e-06	1.807087e-08	3.259213e+01	1.186897e+03
1.300000e-06	4.600253e-06	1.820813e-08	3.309433e+01	1.195883e+03
1.310000e-06	4.668501e-06	1.833931e-08	3.358531e+01	1.204429e+03
1.320000e-06	4.735116e-06	1.846438e-08	3.406454e+01	1.212547e+03
1.330000e-06	4.799881e-06	1.858125e-08	3.453046e+01	1.220245e+03
1.340000e-06	4.862866e-06	1.869076e-08	3.498357e+01	1.227529e+03
1.350000e-06	4.924245e-06	1.879469e-08	3.542514e+01	1.234405e+03
1.360000e-06	4.984049e-06	1.889231e-08	3.585537e+01	1.240887e+03
1.370000e-06	5.042100e-06	1.898672e-08	3.627299e+01	1.246996e+03
1.380000e-06	5.098194e-06	1.907638e-08	3.667653e+01	1.252760e+03
1.390000e-06	5.152429e-06	1.916031e-08	3.706670e+01	1.258212e+03
1.400000e-06	5.204758e-06	1.923965e-08	3.744316e+01	1.263389e+03
1.410000e-06	5.254875e-06	1.931373e-08	3.780370e+01	1.268321e+03
1.420000e-06	5.302802e-06	1.938518e-08	3.814849e+01	1.273031e+03
1.430000e-06	5.348843e-06	1.945312e-08	3.847971e+01	1.277531e+03
1.440000e-06	5.393193e-06	1.951765e-08	3.879876e+01	1.281821e+03
1.450000e-06	5.435748e-06	1.958037e-08	3.910491e+01	1.285890e+03
1.460000e-06	5.476214e-06	1.964071e-08	3.939602e+01	1.289722e+03
1.470000e-06	5.514697e-06	1.969768e-08	3.967287e+01	1.293302e+03
1.480000e-06	5.551410e-06	1.974915e-08	3.993698e+01	1.296619e+03
1.490000e-06	5.586222e-06	1.979503e-08	4.018742e+01	1.299669e+03
1.500000e-06	5.618950e-06	1.983723e-08	4.042287e+01	1.302461e+03
1.510000e-06	5.649662e-06	1.987581e-08	4.064381e+01	1.305008e+03
1.520000e-06	5.678531e-06	1.991067e-08	4.085149e+01	1.307331e+03
1.530000e-06	5.705489e-06	1.994270e-08	4.104542e+01	1.309448e+03
1.540000e-06	5.730234e-06	1.997135e-08	4.122344e+01	1.311374e+03
1.550000e-06	5.752744e-06	1.999641e-08	4.138538e+01	1.313116e+03
1.560000e-06	5.773316e-06	2.001950e-08	4.153337e+01	1.314675e+03
1.570000e-06	5.791967e-06	2.004116e-08	4.166755e+01	1.316043e+03
1.580000e-06	5.808513e-06	2.006043e-08	4.178658e+01	1.317211e+03
1.590000e-06	5.822902e-06	2.007636e-08	4.189010e+01	1.318171e+03
1.600000e-06	5.835128e-06	2.008849e-08	4.197806e+01	1.318923e+03
1.610000e-06	5.844936e-06	2.009759e-08	4.204861e+01	1.319472e+03
1.620000e-06	5.852391e-06	2.010492e-08	4.210224e+01	1.319833e+03
1.630000e-06	5.857832e-06	2.010999e-08	4.214139e+01	1.320027e+03
1.640000e-06	5.861319e-06	2.011282e-08	4.216647e+01	1.320077e+03
1.650000e-06	5.862685e-06	2.011611e-08	4.217630e+01	1.320001e+03
1.660000e-06	5.861947e-06	2.011373e-08	4.217099e+01	1.319810e+03
1.670000e-06	5.859366e-06	2.010633e-08	4.215242e+01	1.319506e+03
1.680000e-06	5.854987e-06	2.009951e-08	4.212092e+01	1.319081e+03
1.690000e-06	5.848575e-06	2.009270e-08	4.207479e+01	1.318517e+03
1.700000e-06	5.840124e-06	2.008464e-08	4.201400e+01	1.317795e+03
1.710000e-06	5.829877e-06	2.007498e-08	4.194027e+01	1.316898e+03
1.720000e-06	5.817770e-06	2.006570e-08	4.185318e+01	1.315814e+03
1.730000e-06	5.803535e-06	2.005010e-08	4.175077e+01	1.314544e+03
1.740000e-06	5.787266e-06	1.997984e-08	4.163374e+01	1.313099e+03
1.750000e-06	5.768928e-06	1.993576e-08	4.150181e+01	1.311496e+03
1.760000e-06	5.747899e-06	1.993809e-08	4.135052e+01	1.309759e+03
1.770000e-06	5.724096e-06	1.991949e-08	4.117929e+01	1.307911e+03
1.780000e-06	5.698132e-06	1.994473e-08	4.099250e+01	1.305967e+03
1.790000e-06	5.670821e-06	1.994025e-08	4.079603e+01	1.303933e+03
1.800000e-06	5.642600e-06	1.980760e-08	4.059300e+01	1.301802e+03
1.810000e-06	5.612715e-06	1.979981e-08	4.037801e+01	1.299556e+03
1.820000e-06	5.580510e-06	1.977522e-08	4.014633e+01	1.297169e+03
1.830000e-06	5.546450e-06	1.968648e-08	3.990129e+01	1.294613e+03
1.840000e-06	5.510573e-06	1.974940e-08	3.964320e+01	1.291863e+03
1.850000e-06	5.472505e-06	1.966802e-08	3.936934e+01	1.288900e+03
1.860000e-06	5.432402e-06	1.958713e-08	3.908083e+01	1.285714e+03
1.870000e-06	5.390379e-06	1.959486e-08	3.877852e+01	1.282308e+03
1.880000e-06	5.346674e-06	1.947958e-08	3.846410e+01	1.278690e+03
1.890000e-06	5.301186e-06	1.944770e-08	3.813686e+01	1.274874e+03
1.900000e-06	5.253456e-06	1.936985e-08	3.779349e+01	1.270873e+03
1.910000e-06	5.203655e-06	1.926649e-08	3.743522e+01	1.266699e+03
1.920000e-06	5.151774e-06	1.929488e-08	3.706199e+01	1.262354e+03
1.930000e-06	5.097784e-06	1.920607e-08	3.667358e+01	1.257834e+03
1.940000e-06	5.041855e-06	1.912302e-08	3.627123e+01	1.253130e+03
1.950000e-06	4.984025e-06	1.904323e-08	3.585520e+01	1.248227e+03
1.960000e-06	4.924415e-06	1.895292e-08	3.542636e+01	1.243109e+03
1.970000e-06	4.862966e-06	1.887835e-08	3.498430e+01	1.237763e+03
1.980000e-06	4.799605e-06	1.876595e-08	3.452847e+01	1.232178e+03
1.990000e-06	4.734473e-06	1.872772e-08	3.405992e+01	1.226349e+03
2.000000e-06	4.667753e-06	1.863874e-08	3.357993e+01	1.220274e+03
2.010000e-06	4.599420e-06	1.852626e-08	3.308834e+01	1.213955e+03
2.020000e-06	4.529273e-06	1.841961e-08	3.258370e+01	1.207392e+03
2.030000e-06	4.457345e-06	1.829798e-08	3.206625e+01	1.200582e+03
2.040000e-06	4.383774e-06	1.823066e-08	3.153697e+01	1.193518e+03
2.050000e-06	4.308647e-06	1.811499e-08	3.099651e+01	1.186187e+03
2.060000e-06	4.231893e-06	1.799777e-08	3.044434e+01	1.178575e+03
2.070000e-06	4.153418e-06	1.787532e-08	2.987979e+01	1.170660e+03
2.080000e-06	4.073336e-06	1.774094e-08	2.930368e+01	1.162423e+03
2.090000e-06	3.991824e-06	1.761123e-08	2.871728e+01	1.153848e+03
2.100000e-06	3.909025e-06	1.747124e-08	2.812162e+01	1.144919e+03
2.110000e-06	3.824923e-06	1.734773e-08	2.751659e+01	1.135628e+03
2.120000e-06	3.739472e-06	1.719622e-08	2.690185e+01	1.125967e+03
2.130000e-06	3.652688e-06	1.704121e-08	2.627752e+01	1.115933e+03
2.140000e-06	3.564567e-06	1.687756e-08	2.564358e+01	1.105520e+03
2.150000e-06	3.475173e-06	1.671597e-08	2.500048e+01	1.094719e+03
2.160000e-06	3.384596e-06	1.655213e-08	2.434887e+01	1.083517e+03
2.170000e-06	3.292937e-06	1.637750e-08	2.368947e+01	1.071892e+03
2.180000e-06	3.200086e-06	1.620059e-08	2.302150e+01	1.059818e+03
2.190000e-06	3.105940e-06	1.600852e-08	2.234421e+01	1.047263e+03
2.200000e-06	3.010572e-06	1.581118e-08	2.165813e+01	1.034191e+03
2.210000e-06	2.914051e-06	1.560223e-08	2.096376e+01	1.020566e+03
2.220000e-06	2.816534e-06	1.538879e-08	2.026222e+01	1.006353e+03
2.230000e-06	2.718080e-06	1.515945e-08	1.955393e+01	9.915159e+02
2.240000e-06	2.618684e-06	1.492314e-08	1.883888e+01	9.760223e+02
2.250000e-06	2.518340e-06	1.468388e-08	1.811700e+01	9.598388e+02
2.260000e-06	2.417063e-06	1.442870e-08	1.738841e+01	9.429309e+02
2.270000e-06	2.314871e-06	1.415640e-08	1.665324e+01	9.252599e+02
2.280000e-06	2.211674e-06	1.387172e-08	1.591083e+01	9.067815e+02
2.290000e-06	2.107535e-06	1.357887e-08	1.516166e+01	8.874443e+02
2.300000e-06	2.002624e-06	1.327271e-08	1.440692e+01	8.671896e+02
2.310000e-06	1.897068e-06	1.295229e-08	1.364756e+01	8.459511e+02
2.320000e-06	1.790922e-06	1.261384e-08	1.288393e+01	8.236562e+02
2.330000e-06	1.684235e-06	1.225698e-08	1.211643e+01	8.002268e+02
2.340000e-06	1.577101e-06	1.187957e-08	1.134570e+01	7.755807e+02
2.350000e-06	1.469547e-06	1.148388e-08	1.057196e+01	7.496332e+02
2.360000e-06	1.361493e-06	1.107201e-08	9.794615e+00	7.222987e+02
2.370000e-06	1.252959e-06	1.063980e-08	9.013815e+00	6.934941e+02
2.380000e-06	1.144109e-06	1.018050e-08	8.230745e+00	6.631431e+02
2.390000e-06	1.035000e-06	9.691865e-09	7.445816e+00	6.311827e+02
2.400000e-06	9.256038e-07	9.175974e-09	6.658816e+00	5.975721e+02
2.410000e-06	8.158502e-07	8.635220e-09	5.869246e+00	5.623026e+02
2.420000e-06	7.058034e-07	8.071561e-09	5.077567e+00	5.254072e+02
2.430000e-06	5.955261e-07	7.485199e-09	4.284229e+00	4.869687e+02
2.440000e-06	4.850679e-07	6.877871e-09	3.489590e+00	4.471236e+02
2.450000e-06	3.744724e-07	6.251620e-09	2.693964e+00	4.060594e+02
2.460000e-06	2.636892e-07	5.608218e-09	1.896987e+00	3.640039e+02
2.470000e-06	1.526455e-07	4.951871e-09	1.098135e+00	3.212078e+02
2.480000e-06	4.149805e-08	4.288835e-09	2.985380e-01	2.779196e+02
2.490000e-06	-6.961795e-08	3.623921e-09	-5.008333e-01	2.343577e+02
2.500000e-06	-1.807408e-07	2.956155e-09	-1.300254e+00	1.906827e+02
2.510000e-06	-2.918008e-07	2.286370e-09	-2.099222e+00	1.469763e+02
2.520000e-06	-4.026812e-07	1.616046e-09	-2.896899e+00	1.032284e+02
2.530000e-06	-5.133883e-07	9.420760e-10	-3.693328e+00	5.933954e+01
2.540000e-06	-6.239737e-07	2.624682e-10	-4.488882e+00	1.513712e+01
2.550000e-06	-7.343823e-07	-4.249466e-10	-5.283164e+00	-2.959465e+01
2.560000e-06	-8.444012e-07	-1.122804e-09	-6.074643e+00	-7.507440e+01
2.570000e-06	-9.540354e-07	-1.832614e-09	-6.863354e+00	-1.214792e+02
2.580000e-06	-1.063362e-06	-2.556163e-09	-7.649852e+00	-1.689028e+02
2.590000e-06	-1.172322e-06	-3.294545e-09	-8.433713e+00	-2.173229e+02
2.600000e-06	-1.280972e-06	-4.045626e-09	-9.215345e+00	-2.665844e+02
2.610000e-06	-1.389227e-06	-4.806997e-09	-9.994136e+00	-3.164000e+02
2.620000e-06	-1.496959e-06	-5.574068e-09	-1.076916e+01	-3.663700e+02
2.630000e-06	-1.604140e-06	-6.337358e-09	-1.154022e+01	-4.160176e+02
2.640000e-06	-1.710809e-06	-7.086137e-09	-1.230760e+01	-4.648345e+02
2.650000e-06	-1.816834e-06	-7.811548e-09	-1.307035e+01	-5.123299e+02
2.660000e-06	-1.922184e-06	-8.508879e-09	-1.382824e+01	-5.580747e+02
2.670000e-06	-2.026917e-06	-9.175305e-09	-1.458169e+01	-6.017360e+02
2.680000e-06	-2.130896e-06	-9.808546e-09	-1.532972e+01	-6.430965e+02
2.690000e-06	-2.234023e-06	-1.040628e-08	-1.607162e+01	-6.820571e+02
2.700000e-06	-2.336214e-06	-1.096844e-08	-1.680678e+01	-7.186257e+02
2.710000e-06	-2.437429e-06	-1.149538e-08	-1.753492e+01	-7.528938e+02
2.720000e-06	-2.537653e-06	-1.198783e-08	-1.825593e+01	-7.850076e+02
2.730000e-06	-2.636949e-06	-1.244970e-08	-1.897028e+01	-8.151391e+02
2.740000e-06	-2.735411e-06	-1.288349e-08	-1.967861e+01	-8.434607e+02
2.750000e-06	-2.832985e-06	-1.329100e-08	-2.038056e+01	-8.701284e+02
2.760000e-06	-2.929657e-06	-1.367614e-08	-2.107602e+01	-8.952734e+02
2.770000e-06	-3.025408e-06	-1.404095e-08	-2.176486e+01	-9.190018e+02
2.780000e-06	-3.120084e-06	-1.438285e-08	-2.244596e+01	-9.414002e+02
2.790000e-06	-3.213488e-06	-1.470229e-08	-2.311791e+01	-9.625441e+02
2.800000e-06	-3.305680e-06	-1.500430e-08	-2.378115e+01	-9.825054e+02
2.810000e-06	-3.396792e-06	-1.529158e-08	-2.443660e+01	-1.001358e+03
2.820000e-06	-3.486675e-06	-1.556360e-08	-2.508322e+01	-1.019181e+03
2.830000e-06	-3.575311e-06	-1.582139e-08	-2.572087e+01	-1.036054e+03
2.840000e-06	-3.662776e-06	-1.606746e-08	-2.635010e+01	-1.052055e+03
2.850000e-06	-3.748826e-06	-1.630261e-08	-2.696915e+01	-1.067256e+03
2.860000e-06	-3.833366e-06	-1.652679e-08	-2.757733e+01	-1.081717e+03
2.870000e-06	-3.916618e-06	-1.673898e-08	-2.817624e+01	-1.095488e+03
2.880000e-06	-3.998626e-06	-1.694045e-08	-2.876621e+01	-1.108604e+03
2.890000e-06	-4.079302e-06	-1.713046e-08	-2.934660e+01	-1.121096e+03
2.900000e-06	-4.158525e-06	-1.731054e-08	-2.991653e+01	-1.132986e+03
2.910000e-06	-4.235938e-06	-1.748256e-08	-3.047344e+01	-1.144299e+03
2.920000e-06	-4.311552e-06	-1.764619e-08	-3.101741e+01	-1.155059e+03
2.930000e-06	-4.385603e-06	-1.780414e-08	-3.155013e+01	-1.165292e+03
2.940000e-06	-4.458065e-06	-1.795326e-08	-3.207143e+01	-1.175027e+03
