# Temperatura_=_42.17
# Concentracion g/m^3_=_28200.0
# C_Vs_to_Am_M_A/Vsm_=_65563218390.804596
# pendiente_HvsI_1/m_=_3716.3
# ordenada_HvsI_A/m_=_1297.0
# frecuencia_Hz_=_301953.0171768863

Tiempo_(s)	Campo_(V.s)	Magnetizacion_(V.s)	Campo_(kA/m)	Magnetizacion_(A/m)
0.000000e+00	-5.851304e-06	-1.891677e-08	-4.192707e+01	-1.238054e+03
1.000000e-08	-5.848024e-06	-1.891391e-08	-4.190357e+01	-1.237717e+03
2.000000e-08	-5.842927e-06	-1.890331e-08	-4.186704e+01	-1.237263e+03
3.000000e-08	-5.836107e-06	-1.889464e-08	-4.181818e+01	-1.236678e+03
4.000000e-08	-5.827352e-06	-1.888144e-08	-4.175545e+01	-1.235947e+03
5.000000e-08	-5.816366e-06	-1.886341e-08	-4.167672e+01	-1.235052e+03
6.000000e-08	-5.803275e-06	-1.884509e-08	-4.158293e+01	-1.233983e+03
7.000000e-08	-5.788054e-06	-1.881554e-08	-4.147386e+01	-1.232737e+03
8.000000e-08	-5.770653e-06	-1.881192e-08	-4.134917e+01	-1.231322e+03
9.000000e-08	-5.751257e-06	-1.887025e-08	-4.121019e+01	-1.229758e+03
1.000000e-07	-5.729743e-06	-1.881852e-08	-4.105603e+01	-1.228072e+03
1.100000e-07	-5.705999e-06	-1.872753e-08	-4.088590e+01	-1.226293e+03
1.200000e-07	-5.680026e-06	-1.871381e-08	-4.069979e+01	-1.224444e+03
1.300000e-07	-5.652222e-06	-1.861654e-08	-4.050056e+01	-1.222541e+03
1.400000e-07	-5.623056e-06	-1.851318e-08	-4.029157e+01	-1.220584e+03
1.500000e-07	-5.592338e-06	-1.869961e-08	-4.007147e+01	-1.218556e+03
1.600000e-07	-5.559729e-06	-1.860392e-08	-3.983781e+01	-1.216430e+03
1.700000e-07	-5.525281e-06	-1.846651e-08	-3.959098e+01	-1.214169e+03
1.800000e-07	-5.488950e-06	-1.860118e-08	-3.933065e+01	-1.211733e+03
1.900000e-07	-5.450626e-06	-1.839816e-08	-3.905604e+01	-1.209086e+03
2.000000e-07	-5.410469e-06	-1.835076e-08	-3.876830e+01	-1.206206e+03
2.100000e-07	-5.368273e-06	-1.842951e-08	-3.846595e+01	-1.203081e+03
2.200000e-07	-5.323992e-06	-1.830151e-08	-3.814866e+01	-1.199715e+03
2.300000e-07	-5.277751e-06	-1.826543e-08	-3.781732e+01	-1.196123e+03
2.400000e-07	-5.229237e-06	-1.820215e-08	-3.746970e+01	-1.192328e+03
2.500000e-07	-5.178360e-06	-1.811666e-08	-3.710514e+01	-1.188352e+03
2.600000e-07	-5.125310e-06	-1.809651e-08	-3.672502e+01	-1.184213e+03
2.700000e-07	-5.070389e-06	-1.799068e-08	-3.633148e+01	-1.179922e+03
2.800000e-07	-5.013650e-06	-1.794789e-08	-3.592493e+01	-1.175477e+03
2.900000e-07	-4.954929e-06	-1.787020e-08	-3.550416e+01	-1.170868e+03
3.000000e-07	-4.894325e-06	-1.778664e-08	-3.506991e+01	-1.166078e+03
3.100000e-07	-4.831987e-06	-1.771860e-08	-3.462324e+01	-1.161089e+03
3.200000e-07	-4.767933e-06	-1.763399e-08	-3.416426e+01	-1.155880e+03
3.300000e-07	-4.702055e-06	-1.756830e-08	-3.369221e+01	-1.150438e+03
3.400000e-07	-4.634370e-06	-1.745059e-08	-3.320722e+01	-1.144754e+03
3.500000e-07	-4.565002e-06	-1.737036e-08	-3.271017e+01	-1.138824e+03
3.600000e-07	-4.494092e-06	-1.726822e-08	-3.220207e+01	-1.132647e+03
3.700000e-07	-4.421621e-06	-1.716660e-08	-3.168278e+01	-1.126223e+03
3.800000e-07	-4.347331e-06	-1.708821e-08	-3.115047e+01	-1.119548e+03
3.900000e-07	-4.271213e-06	-1.696515e-08	-3.060505e+01	-1.112615e+03
4.000000e-07	-4.193447e-06	-1.685114e-08	-3.004782e+01	-1.105412e+03
4.100000e-07	-4.114042e-06	-1.674182e-08	-2.947885e+01	-1.097925e+03
4.200000e-07	-4.033058e-06	-1.662692e-08	-2.889857e+01	-1.090135e+03
4.300000e-07	-3.950748e-06	-1.650180e-08	-2.830878e+01	-1.082028e+03
4.400000e-07	-3.867269e-06	-1.636432e-08	-2.771062e+01	-1.073590e+03
4.500000e-07	-3.782601e-06	-1.623652e-08	-2.710394e+01	-1.064810e+03
4.600000e-07	-3.696723e-06	-1.608919e-08	-2.648859e+01	-1.055682e+03
4.700000e-07	-3.609669e-06	-1.594155e-08	-2.586480e+01	-1.046202e+03
4.800000e-07	-3.521333e-06	-1.579698e-08	-2.523184e+01	-1.036360e+03
4.900000e-07	-3.431603e-06	-1.564265e-08	-2.458889e+01	-1.026146e+03
5.000000e-07	-3.340491e-06	-1.547879e-08	-2.393604e+01	-1.015543e+03
5.100000e-07	-3.248084e-06	-1.530197e-08	-2.327389e+01	-1.004524e+03
5.200000e-07	-3.154577e-06	-1.512512e-08	-2.260388e+01	-9.930579e+02
5.300000e-07	-3.060058e-06	-1.493788e-08	-2.192661e+01	-9.811094e+02
5.400000e-07	-2.964380e-06	-1.474847e-08	-2.124104e+01	-9.686404e+02
5.500000e-07	-2.867491e-06	-1.455056e-08	-2.054679e+01	-9.556143e+02
5.600000e-07	-2.769495e-06	-1.433941e-08	-1.984460e+01	-9.419978e+02
5.700000e-07	-2.670323e-06	-1.411924e-08	-1.913400e+01	-9.277611e+02
5.800000e-07	-2.570070e-06	-1.388962e-08	-1.841564e+01	-9.128774e+02
5.900000e-07	-2.468916e-06	-1.365404e-08	-1.769083e+01	-8.973205e+02
6.000000e-07	-2.366950e-06	-1.340499e-08	-1.696020e+01	-8.810616e+02
6.100000e-07	-2.264211e-06	-1.314665e-08	-1.622403e+01	-8.640669e+02
6.200000e-07	-2.160616e-06	-1.287371e-08	-1.548173e+01	-8.462946e+02
6.300000e-07	-2.056158e-06	-1.258798e-08	-1.473324e+01	-8.276939e+02
6.400000e-07	-1.950846e-06	-1.228889e-08	-1.397864e+01	-8.082051e+02
6.500000e-07	-1.844789e-06	-1.197648e-08	-1.321870e+01	-7.877608e+02
6.600000e-07	-1.738109e-06	-1.164904e-08	-1.245429e+01	-7.662874e+02
6.700000e-07	-1.630741e-06	-1.130114e-08	-1.168495e+01	-7.437074e+02
6.800000e-07	-1.522741e-06	-1.093580e-08	-1.091108e+01	-7.199409e+02
6.900000e-07	-1.414301e-06	-1.054932e-08	-1.013407e+01	-6.949079e+02
7.000000e-07	-1.305456e-06	-1.014383e-08	-9.354148e+00	-6.685297e+02
7.100000e-07	-1.196195e-06	-9.717547e-09	-8.571246e+00	-6.407327e+02
7.200000e-07	-1.086585e-06	-9.271645e-09	-7.785845e+00	-6.114526e+02
7.300000e-07	-9.766542e-07	-8.803377e-09	-6.998141e+00	-5.806413e+02
7.400000e-07	-8.664389e-07	-8.309511e-09	-6.208401e+00	-5.482753e+02
7.500000e-07	-7.559879e-07	-7.793001e-09	-5.416974e+00	-5.143657e+02
7.600000e-07	-6.453130e-07	-7.253236e-09	-4.623941e+00	-4.789669e+02
7.700000e-07	-5.344640e-07	-6.692555e-09	-3.829661e+00	-4.421830e+02
7.800000e-07	-4.234526e-07	-6.113366e-09	-3.034217e+00	-4.041693e+02
7.900000e-07	-3.123024e-07	-5.520216e-09	-2.237779e+00	-3.651263e+02
8.000000e-07	-2.010159e-07	-4.914587e-09	-1.440364e+00	-3.252866e+02
8.100000e-07	-8.958505e-08	-4.299080e-09	-6.419148e-01	-2.848946e+02
8.200000e-07	2.191978e-08	-3.679704e-09	1.570645e-01	-2.441812e+02
8.300000e-07	1.334552e-07	-3.059259e-09	9.562631e-01	-2.033360e+02
8.400000e-07	2.449371e-07	-2.437635e-09	1.755078e+00	-1.624836e+02
8.500000e-07	3.562793e-07	-1.813519e-09	2.552892e+00	-1.216660e+02
8.600000e-07	4.675272e-07	-1.189615e-09	3.350031e+00	-8.083681e+01
8.700000e-07	5.786835e-07	-5.645527e-10	4.146513e+00	-3.986798e+01
8.800000e-07	6.896662e-07	6.479955e-11	4.941750e+00	1.429136e+00
8.900000e-07	8.004246e-07	7.036769e-10	5.735381e+00	4.327188e+01
9.000000e-07	9.109490e-07	1.353290e-09	6.527336e+00	8.586705e+01
9.100000e-07	1.021275e-06	2.014583e-09	7.317867e+00	1.293703e+02
9.200000e-07	1.131329e-06	2.688316e-09	8.106454e+00	1.738502e+02
9.300000e-07	1.241041e-06	3.376057e-09	8.892585e+00	2.192629e+02
9.400000e-07	1.350318e-06	4.077962e-09	9.675600e+00	2.654415e+02
9.500000e-07	1.459110e-06	4.788752e-09	1.045514e+01	3.121017e+02
9.600000e-07	1.567435e-06	5.503626e-09	1.123133e+01	3.588628e+02
9.700000e-07	1.675243e-06	6.212553e-09	1.200382e+01	4.052820e+02
9.800000e-07	1.782446e-06	6.905924e-09	1.277198e+01	4.508956e+02
9.900000e-07	1.888972e-06	7.578132e-09	1.353529e+01	4.952608e+02
1.000000e-06	1.994789e-06	8.228155e-09	1.429351e+01	5.379939e+02
1.010000e-06	2.099850e-06	8.849228e-09	1.504632e+01	5.787980e+02
1.020000e-06	2.204017e-06	9.435504e-09	1.579272e+01	6.174785e+02
1.030000e-06	2.307174e-06	9.987917e-09	1.653188e+01	6.539448e+02
1.040000e-06	2.409452e-06	1.050542e-08	1.726474e+01	6.882000e+02
1.050000e-06	2.510953e-06	1.099152e-08	1.799204e+01	7.203216e+02
1.060000e-06	2.611615e-06	1.144731e-08	1.871333e+01	7.504375e+02
1.070000e-06	2.711384e-06	1.187725e-08	1.942821e+01	7.787011e+02
1.080000e-06	2.810198e-06	1.228287e-08	2.013626e+01	8.052701e+02
1.090000e-06	2.907949e-06	1.266672e-08	2.083668e+01	8.302911e+02
1.100000e-06	3.004448e-06	1.302895e-08	2.152814e+01	8.538904e+02
1.110000e-06	3.099707e-06	1.336813e-08	2.221071e+01	8.761728e+02
1.120000e-06	3.193937e-06	1.368613e-08	2.288591e+01	8.972236e+02
1.130000e-06	3.287142e-06	1.398602e-08	2.355376e+01	9.171151e+02
1.140000e-06	3.379337e-06	1.426974e-08	2.421438e+01	9.359129e+02
1.150000e-06	3.470497e-06	1.453736e-08	2.486758e+01	9.536811e+02
1.160000e-06	3.560469e-06	1.479178e-08	2.551227e+01	9.704852e+02
1.170000e-06	3.649030e-06	1.503392e-08	2.614685e+01	9.863927e+02
1.180000e-06	3.736190e-06	1.526421e-08	2.677139e+01	1.001471e+03
1.190000e-06	3.822068e-06	1.548191e-08	2.738674e+01	1.015784e+03
1.200000e-06	3.906654e-06	1.568763e-08	2.799283e+01	1.029391e+03
1.210000e-06	3.990041e-06	1.588148e-08	2.859033e+01	1.042340e+03
1.220000e-06	4.072098e-06	1.606594e-08	2.917830e+01	1.054671e+03
1.230000e-06	4.152606e-06	1.624169e-08	2.975518e+01	1.066416e+03
1.240000e-06	4.231533e-06	1.641103e-08	3.032072e+01	1.077598e+03
1.250000e-06	4.308930e-06	1.657296e-08	3.087531e+01	1.088238e+03
1.260000e-06	4.384746e-06	1.672714e-08	3.141856e+01	1.098352e+03
1.270000e-06	4.458774e-06	1.687443e-08	3.194900e+01	1.107957e+03
1.280000e-06	4.530972e-06	1.701402e-08	3.246633e+01	1.117072e+03
1.290000e-06	4.601484e-06	1.714652e-08	3.297158e+01	1.125714e+03
1.300000e-06	4.670379e-06	1.727114e-08	3.346524e+01	1.133902e+03
1.310000e-06	4.737716e-06	1.738795e-08	3.394774e+01	1.141654e+03
1.320000e-06	4.803340e-06	1.749895e-08	3.441797e+01	1.148989e+03
1.330000e-06	4.867083e-06	1.760378e-08	3.487471e+01	1.155924e+03
1.340000e-06	4.929062e-06	1.770181e-08	3.531881e+01	1.162477e+03
1.350000e-06	4.989437e-06	1.779442e-08	3.575143e+01	1.168670e+03
1.360000e-06	5.048215e-06	1.788259e-08	3.617260e+01	1.174525e+03
1.370000e-06	5.105100e-06	1.796680e-08	3.658020e+01	1.180067e+03
1.380000e-06	5.160009e-06	1.804740e-08	3.697365e+01	1.185325e+03
1.390000e-06	5.213057e-06	1.812441e-08	3.735376e+01	1.190324e+03
1.400000e-06	5.264034e-06	1.819769e-08	3.771903e+01	1.195088e+03
1.410000e-06	5.312746e-06	1.826750e-08	3.806808e+01	1.199636e+03
1.420000e-06	5.359400e-06	1.833298e-08	3.840237e+01	1.203977e+03
1.430000e-06	5.404304e-06	1.839419e-08	3.872413e+01	1.208114e+03
1.440000e-06	5.447541e-06	1.845184e-08	3.903394e+01	1.212039e+03
1.450000e-06	5.488664e-06	1.850836e-08	3.932860e+01	1.215740e+03
1.460000e-06	5.527640e-06	1.856332e-08	3.960788e+01	1.219202e+03
1.470000e-06	5.564865e-06	1.861282e-08	3.987461e+01	1.222412e+03
1.480000e-06	5.600331e-06	1.865654e-08	4.012874e+01	1.225361e+03
1.490000e-06	5.633678e-06	1.869611e-08	4.036769e+01	1.228050e+03
1.500000e-06	5.664885e-06	1.873352e-08	4.059130e+01	1.230485e+03
1.510000e-06	5.694256e-06	1.876809e-08	4.080175e+01	1.232684e+03
1.520000e-06	5.721841e-06	1.879875e-08	4.099941e+01	1.234665e+03
1.530000e-06	5.747285e-06	1.882508e-08	4.118173e+01	1.236448e+03
1.540000e-06	5.770394e-06	1.884710e-08	4.134731e+01	1.238052e+03
1.550000e-06	5.791505e-06	1.886698e-08	4.149859e+01	1.239487e+03
1.560000e-06	5.810746e-06	1.888658e-08	4.163646e+01	1.240759e+03
1.570000e-06	5.827887e-06	1.890511e-08	4.175928e+01	1.241866e+03
1.580000e-06	5.842799e-06	1.892119e-08	4.186613e+01	1.242804e+03
1.590000e-06	5.855576e-06	1.893419e-08	4.195768e+01	1.243568e+03
1.600000e-06	5.865992e-06	1.894269e-08	4.203232e+01	1.244156e+03
1.610000e-06	5.874044e-06	1.894885e-08	4.209001e+01	1.244570e+03
1.620000e-06	5.880026e-06	1.895414e-08	4.213287e+01	1.244819e+03
1.630000e-06	5.884124e-06	1.895874e-08	4.216224e+01	1.244918e+03
1.640000e-06	5.886086e-06	1.896433e-08	4.217630e+01	1.244881e+03
1.650000e-06	5.885814e-06	1.896861e-08	4.217435e+01	1.244722e+03
1.660000e-06	5.883619e-06	1.895937e-08	4.215862e+01	1.244449e+03
1.670000e-06	5.879633e-06	1.894906e-08	4.213006e+01	1.244062e+03
1.680000e-06	5.873660e-06	1.894014e-08	4.208726e+01	1.243552e+03
1.690000e-06	5.865690e-06	1.893052e-08	4.203016e+01	1.242905e+03
1.700000e-06	5.855910e-06	1.892242e-08	4.196008e+01	1.242104e+03
1.710000e-06	5.844237e-06	1.891618e-08	4.187643e+01	1.241135e+03
1.720000e-06	5.830399e-06	1.892054e-08	4.177728e+01	1.239988e+03
1.730000e-06	5.814523e-06	1.887944e-08	4.166352e+01	1.238666e+03
1.740000e-06	5.796722e-06	1.875088e-08	4.153597e+01	1.237183e+03
1.750000e-06	5.776389e-06	1.876542e-08	4.139027e+01	1.235562e+03
1.760000e-06	5.753121e-06	1.879751e-08	4.122355e+01	1.233831e+03
1.770000e-06	5.727449e-06	1.875864e-08	4.103960e+01	1.232018e+03
1.780000e-06	5.700243e-06	1.889177e-08	4.084466e+01	1.230144e+03
1.790000e-06	5.672110e-06	1.874743e-08	4.064307e+01	1.228217e+03
1.800000e-06	5.642666e-06	1.854639e-08	4.043209e+01	1.226231e+03
1.810000e-06	5.610834e-06	1.873236e-08	4.020400e+01	1.224164e+03
1.820000e-06	5.577023e-06	1.857305e-08	3.996173e+01	1.221983e+03
1.830000e-06	5.541633e-06	1.855630e-08	3.970814e+01	1.219650e+03
1.840000e-06	5.503989e-06	1.872769e-08	3.943841e+01	1.217126e+03
1.850000e-06	5.464201e-06	1.842767e-08	3.915331e+01	1.214380e+03
1.860000e-06	5.422492e-06	1.844907e-08	3.885445e+01	1.211394e+03
1.870000e-06	5.379002e-06	1.844276e-08	3.854282e+01	1.208163e+03
1.880000e-06	5.333891e-06	1.827961e-08	3.821959e+01	1.204697e+03
1.890000e-06	5.286620e-06	1.837446e-08	3.788087e+01	1.201014e+03
1.900000e-06	5.237172e-06	1.818477e-08	3.752656e+01	1.197137e+03
1.910000e-06	5.185687e-06	1.818259e-08	3.715765e+01	1.193088e+03
1.920000e-06	5.131958e-06	1.819736e-08	3.677265e+01	1.188882e+03
1.930000e-06	5.076227e-06	1.798243e-08	3.637331e+01	1.184524e+03
1.940000e-06	5.018546e-06	1.803014e-08	3.596001e+01	1.180009e+03
1.950000e-06	4.959104e-06	1.788907e-08	3.553408e+01	1.175323e+03
1.960000e-06	4.897957e-06	1.784093e-08	3.509594e+01	1.170449e+03
1.970000e-06	4.834825e-06	1.778100e-08	3.464357e+01	1.165366e+03
1.980000e-06	4.769833e-06	1.763352e-08	3.417787e+01	1.160058e+03
1.990000e-06	4.703163e-06	1.765712e-08	3.370015e+01	1.154511e+03
2.000000e-06	4.635039e-06	1.750259e-08	3.321202e+01	1.148721e+03
2.010000e-06	4.565148e-06	1.743476e-08	3.271122e+01	1.142683e+03
2.020000e-06	4.493287e-06	1.731683e-08	3.219630e+01	1.136399e+03
2.030000e-06	4.419848e-06	1.720408e-08	3.167008e+01	1.129867e+03
2.040000e-06	4.344862e-06	1.716634e-08	3.113278e+01	1.123081e+03
2.050000e-06	4.268220e-06	1.699933e-08	3.058360e+01	1.116033e+03
2.060000e-06	4.189822e-06	1.692105e-08	3.002185e+01	1.108709e+03
2.070000e-06	4.109822e-06	1.678801e-08	2.944861e+01	1.101092e+03
2.080000e-06	4.028359e-06	1.667454e-08	2.886490e+01	1.093167e+03
2.090000e-06	3.945507e-06	1.654872e-08	2.827123e+01	1.084918e+03
2.100000e-06	3.861437e-06	1.640586e-08	2.766883e+01	1.076333e+03
2.110000e-06	3.775986e-06	1.630402e-08	2.705654e+01	1.067404e+03
2.120000e-06	3.689153e-06	1.613716e-08	2.643434e+01	1.058124e+03
2.130000e-06	3.601003e-06	1.599828e-08	2.580271e+01	1.048488e+03
2.140000e-06	3.511551e-06	1.583578e-08	2.516175e+01	1.038487e+03
2.150000e-06	3.420867e-06	1.569145e-08	2.451196e+01	1.028108e+03
2.160000e-06	3.329086e-06	1.553385e-08	2.385431e+01	1.017328e+03
2.170000e-06	3.236119e-06	1.536593e-08	2.318816e+01	1.006121e+03
2.180000e-06	3.141792e-06	1.519532e-08	2.251227e+01	9.944510e+02
2.190000e-06	3.046278e-06	1.500217e-08	2.182787e+01	9.822826e+02
2.200000e-06	2.949681e-06	1.481151e-08	2.113571e+01	9.695778e+02
2.210000e-06	2.852065e-06	1.460492e-08	2.043626e+01	9.563012e+02
2.220000e-06	2.753427e-06	1.440194e-08	1.972947e+01	9.424209e+02
2.230000e-06	2.653863e-06	1.418258e-08	1.901606e+01	9.279087e+02
2.240000e-06	2.553488e-06	1.395614e-08	1.829682e+01	9.127383e+02
2.250000e-06	2.452148e-06	1.371419e-08	1.757068e+01	8.968829e+02
2.260000e-06	2.349747e-06	1.345857e-08	1.683693e+01	8.803118e+02
2.270000e-06	2.246337e-06	1.319297e-08	1.609596e+01	8.629881e+02
2.280000e-06	2.142030e-06	1.291976e-08	1.534855e+01	8.448661e+02
2.290000e-06	2.036947e-06	1.263696e-08	1.459559e+01	8.258912e+02
2.300000e-06	1.931211e-06	1.233572e-08	1.383794e+01	8.060002e+02
2.310000e-06	1.824857e-06	1.201943e-08	1.307587e+01	7.851227e+02
2.320000e-06	1.717894e-06	1.168220e-08	1.230944e+01	7.631833e+02
2.330000e-06	1.610463e-06	1.132952e-08	1.153965e+01	7.401032e+02
2.340000e-06	1.502602e-06	1.096033e-08	1.076678e+01	7.158023e+02
2.350000e-06	1.394202e-06	1.057705e-08	9.990051e+00	6.902007e+02
2.360000e-06	1.285305e-06	1.017164e-08	9.209753e+00	6.632217e+02
2.370000e-06	1.176069e-06	9.740947e-09	8.427032e+00	6.347948e+02
2.380000e-06	1.066509e-06	9.284310e-09	7.641992e+00	6.048618e+02
2.390000e-06	9.566346e-07	8.802550e-09	6.854692e+00	5.733838e+02
2.400000e-06	8.464781e-07	8.297237e-09	6.065374e+00	5.403511e+02
2.410000e-06	7.360468e-07	7.767123e-09	5.274087e+00	5.057924e+02
2.420000e-06	6.253567e-07	7.216255e-09	4.480946e+00	4.697829e+02
2.430000e-06	5.144108e-07	6.647119e-09	3.685971e+00	4.324487e+02
2.440000e-06	4.033259e-07	6.060736e-09	2.890001e+00	3.939656e+02
2.450000e-06	2.921270e-07	5.455784e-09	2.093214e+00	3.545500e+02
2.460000e-06	1.807761e-07	4.840131e-09	1.295337e+00	3.144425e+02
2.470000e-06	6.924525e-08	4.219671e-09	4.961715e-01	2.738849e+02
2.480000e-06	-4.236774e-08	3.597115e-09	-3.035828e-01	2.330936e+02
2.490000e-06	-1.539355e-07	2.973684e-09	-1.103013e+00	1.922332e+02
2.500000e-06	-2.654239e-07	2.350972e-09	-1.901875e+00	1.513943e+02
2.510000e-06	-3.767564e-07	1.729632e-09	-2.699619e+00	1.105811e+02
2.520000e-06	-4.879411e-07	1.106152e-09	-3.496305e+00	6.971049e+01
2.530000e-06	-5.989863e-07	4.782977e-10	-4.291991e+00	2.862517e+01
2.540000e-06	-7.097725e-07	-1.559154e-10	-5.085821e+00	-1.288025e+01
2.550000e-06	-8.202501e-07	-8.000712e-10	-5.877439e+00	-5.502362e+01
2.560000e-06	-9.304166e-07	-1.458900e-09	-6.666829e+00	-9.799465e+01
2.570000e-06	-1.040267e-06	-2.133258e-09	-7.453950e+00	-1.419156e+02
2.580000e-06	-1.149831e-06	-2.820173e-09	-8.239024e+00	-1.868091e+02
2.590000e-06	-1.259019e-06	-3.517537e-09	-9.021404e+00	-2.325791e+02
2.600000e-06	-1.367790e-06	-4.224873e-09	-9.800792e+00	-2.790066e+02
2.610000e-06	-1.476091e-06	-4.938518e-09	-1.057682e+01	-3.257625e+02
2.620000e-06	-1.583841e-06	-5.652784e-09	-1.134889e+01	-3.724350e+02
2.630000e-06	-1.691078e-06	-6.360317e-09	-1.211729e+01	-4.185669e+02
2.640000e-06	-1.797795e-06	-7.052616e-09	-1.288197e+01	-4.636984e+02
2.650000e-06	-1.903829e-06	-7.722402e-09	-1.364174e+01	-5.074079e+02
2.660000e-06	-2.009102e-06	-8.363804e-09	-1.439607e+01	-5.493463e+02
2.670000e-06	-2.113691e-06	-8.975385e-09	-1.514549e+01	-5.892593e+02
2.680000e-06	-2.217509e-06	-9.554246e-09	-1.588939e+01	-6.269976e+02
2.690000e-06	-2.320430e-06	-1.009931e-08	-1.662686e+01	-6.625124e+02
2.700000e-06	-2.422371e-06	-1.060955e-08	-1.735731e+01	-6.958417e+02
2.710000e-06	-2.523254e-06	-1.108645e-08	-1.808018e+01	-7.270874e+02
2.720000e-06	-2.623154e-06	-1.153698e-08	-1.879601e+01	-7.563914e+02
2.730000e-06	-2.722170e-06	-1.196026e-08	-1.950550e+01	-7.839112e+02
2.740000e-06	-2.820270e-06	-1.235614e-08	-2.020843e+01	-8.098013e+02
2.750000e-06	-2.917491e-06	-1.272932e-08	-2.090506e+01	-8.342002e+02
2.760000e-06	-3.013844e-06	-1.308152e-08	-2.159547e+01	-8.572250e+02
2.770000e-06	-3.109244e-06	-1.341220e-08	-2.227905e+01	-8.789714e+02
2.780000e-06	-3.203486e-06	-1.372325e-08	-2.295433e+01	-8.995185e+02
2.790000e-06	-3.296425e-06	-1.401738e-08	-2.362028e+01	-9.189348e+02
2.800000e-06	-3.388161e-06	-1.429813e-08	-2.427761e+01	-9.372848e+02
2.810000e-06	-3.478679e-06	-1.456469e-08	-2.492621e+01	-9.546331e+02
2.820000e-06	-3.567937e-06	-1.481643e-08	-2.556578e+01	-9.710460e+02
2.830000e-06	-3.656012e-06	-1.505629e-08	-2.619687e+01	-9.865915e+02
2.840000e-06	-3.742783e-06	-1.528482e-08	-2.681862e+01	-1.001336e+03
2.850000e-06	-3.828062e-06	-1.550353e-08	-2.742968e+01	-1.015341e+03
2.860000e-06	-3.912002e-06	-1.571147e-08	-2.803115e+01	-1.028662e+03
2.870000e-06	-3.994688e-06	-1.590740e-08	-2.862363e+01	-1.041343e+03
2.880000e-06	-4.076021e-06	-1.609098e-08	-2.920642e+01	-1.053421e+03
2.890000e-06	-4.155920e-06	-1.626446e-08	-2.977892e+01	-1.064924e+03
2.900000e-06	-4.234104e-06	-1.643042e-08	-3.033915e+01	-1.075872e+03
2.910000e-06	-4.310446e-06	-1.658861e-08	-3.088617e+01	-1.086286e+03
2.920000e-06	-4.385141e-06	-1.673890e-08	-3.142139e+01	-1.096181e+03
2.930000e-06	-4.458320e-06	-1.688157e-08	-3.194575e+01	-1.105576e+03
2.940000e-06	-4.529895e-06	-1.701874e-08	-3.245861e+01	-1.114487e+03
