# Temperatura_=_29.69
# Concentracion g/m^3_=_28200.0
# C_Vs_to_Am_M_A/Vsm_=_65563218390.804596
# pendiente_HvsI_1/m_=_3716.3
# ordenada_HvsI_A/m_=_1297.0
# frecuencia_Hz_=_301954.7422132062

Tiempo_(s)	Campo_(V.s)	Magnetizacion_(V.s)	Campo_(kA/m)	Magnetizacion_(A/m)
0.000000e+00	-5.848167e-06	-1.737521e-08	-4.194103e+01	-1.137965e+03
1.000000e-08	-5.846724e-06	-1.737658e-08	-4.193068e+01	-1.137729e+03
2.000000e-08	-5.843164e-06	-1.736945e-08	-4.190515e+01	-1.137386e+03
3.000000e-08	-5.837669e-06	-1.735981e-08	-4.186575e+01	-1.136935e+03
4.000000e-08	-5.830439e-06	-1.735290e-08	-4.181389e+01	-1.136369e+03
5.000000e-08	-5.821320e-06	-1.733999e-08	-4.174849e+01	-1.135675e+03
6.000000e-08	-5.809930e-06	-1.732330e-08	-4.166681e+01	-1.134842e+03
7.000000e-08	-5.796446e-06	-1.730210e-08	-4.157011e+01	-1.133858e+03
8.000000e-08	-5.780860e-06	-1.727059e-08	-4.145833e+01	-1.132722e+03
9.000000e-08	-5.763112e-06	-1.729275e-08	-4.133105e+01	-1.131439e+03
1.000000e-07	-5.743310e-06	-1.734698e-08	-4.118903e+01	-1.130022e+03
1.100000e-07	-5.721331e-06	-1.727469e-08	-4.103141e+01	-1.128491e+03
1.200000e-07	-5.697141e-06	-1.720725e-08	-4.085793e+01	-1.126864e+03
1.300000e-07	-5.670781e-06	-1.720117e-08	-4.066888e+01	-1.125156e+03
1.400000e-07	-5.642687e-06	-1.704755e-08	-4.046740e+01	-1.123373e+03
1.500000e-07	-5.613218e-06	-1.699669e-08	-4.025606e+01	-1.121507e+03
1.600000e-07	-5.582113e-06	-1.719859e-08	-4.003299e+01	-1.119539e+03
1.700000e-07	-5.549132e-06	-1.701805e-08	-3.979646e+01	-1.117441e+03
1.800000e-07	-5.514319e-06	-1.701321e-08	-3.954679e+01	-1.115182e+03
1.900000e-07	-5.477643e-06	-1.713520e-08	-3.928376e+01	-1.112731e+03
2.000000e-07	-5.438992e-06	-1.684514e-08	-3.900657e+01	-1.110068e+03
2.100000e-07	-5.398475e-06	-1.684168e-08	-3.871600e+01	-1.107182e+03
2.200000e-07	-5.355910e-06	-1.685321e-08	-3.841074e+01	-1.104079e+03
2.300000e-07	-5.311289e-06	-1.676859e-08	-3.809073e+01	-1.100776e+03
2.400000e-07	-5.264710e-06	-1.680270e-08	-3.775668e+01	-1.097297e+03
2.500000e-07	-5.215873e-06	-1.670767e-08	-3.740644e+01	-1.093668e+03
2.600000e-07	-5.164647e-06	-1.662317e-08	-3.703907e+01	-1.089908e+03
2.700000e-07	-5.111167e-06	-1.656669e-08	-3.665553e+01	-1.086029e+03
2.800000e-07	-5.055877e-06	-1.646562e-08	-3.625900e+01	-1.082028e+03
2.900000e-07	-4.998831e-06	-1.646440e-08	-3.584989e+01	-1.077893e+03
3.000000e-07	-4.939795e-06	-1.640475e-08	-3.542650e+01	-1.073602e+03
3.100000e-07	-4.878906e-06	-1.631886e-08	-3.498983e+01	-1.069129e+03
3.200000e-07	-4.816275e-06	-1.622255e-08	-3.454066e+01	-1.064451e+03
3.300000e-07	-4.751930e-06	-1.615793e-08	-3.407920e+01	-1.059550e+03
3.400000e-07	-4.685742e-06	-1.609237e-08	-3.360452e+01	-1.054419e+03
3.500000e-07	-4.617724e-06	-1.597935e-08	-3.311672e+01	-1.049056e+03
3.600000e-07	-4.548087e-06	-1.593788e-08	-3.261731e+01	-1.043466e+03
3.700000e-07	-4.476951e-06	-1.582752e-08	-3.210715e+01	-1.037654e+03
3.800000e-07	-4.404238e-06	-1.571656e-08	-3.158568e+01	-1.031622e+03
3.900000e-07	-4.329667e-06	-1.564318e-08	-3.105088e+01	-1.025366e+03
4.000000e-07	-4.253301e-06	-1.554701e-08	-3.050321e+01	-1.018873e+03
4.100000e-07	-4.175315e-06	-1.544535e-08	-2.994391e+01	-1.012126e+03
4.200000e-07	-4.095694e-06	-1.531743e-08	-2.937290e+01	-1.005101e+03
4.300000e-07	-4.014522e-06	-1.520682e-08	-2.879077e+01	-9.977754e+02
4.400000e-07	-3.931979e-06	-1.508943e-08	-2.819879e+01	-9.901311e+02
4.500000e-07	-3.848262e-06	-1.497345e-08	-2.759840e+01	-9.821571e+02
4.600000e-07	-3.763391e-06	-1.485924e-08	-2.698974e+01	-9.738496e+02
4.700000e-07	-3.677302e-06	-1.471866e-08	-2.637234e+01	-9.652109e+02
4.800000e-07	-3.590008e-06	-1.456767e-08	-2.574630e+01	-9.562453e+02
4.900000e-07	-3.501415e-06	-1.441751e-08	-2.511094e+01	-9.469548e+02
5.000000e-07	-3.411426e-06	-1.428162e-08	-2.446557e+01	-9.373341e+02
5.100000e-07	-3.320118e-06	-1.413852e-08	-2.381074e+01	-9.273679e+02
5.200000e-07	-3.227604e-06	-1.397731e-08	-2.314726e+01	-9.170300e+02
5.300000e-07	-3.133985e-06	-1.380438e-08	-2.247586e+01	-9.062849e+02
5.400000e-07	-3.039327e-06	-1.362397e-08	-2.179700e+01	-8.950910e+02
5.500000e-07	-2.943557e-06	-1.344435e-08	-2.111018e+01	-8.834050e+02
5.600000e-07	-2.846580e-06	-1.326825e-08	-2.041469e+01	-8.711866e+02
5.700000e-07	-2.748401e-06	-1.308348e-08	-1.971058e+01	-8.584010e+02
5.800000e-07	-2.649085e-06	-1.287672e-08	-1.899833e+01	-8.450201e+02
5.900000e-07	-2.548800e-06	-1.264676e-08	-1.827911e+01	-8.310209e+02
6.000000e-07	-2.447634e-06	-1.241022e-08	-1.755359e+01	-8.163827e+02
6.100000e-07	-2.345584e-06	-1.217358e-08	-1.682172e+01	-8.010827e+02
6.200000e-07	-2.242705e-06	-1.193677e-08	-1.608391e+01	-7.850923e+02
6.300000e-07	-2.139057e-06	-1.169026e-08	-1.534058e+01	-7.683743e+02
6.400000e-07	-2.034553e-06	-1.142482e-08	-1.459111e+01	-7.508819e+02
6.500000e-07	-1.929185e-06	-1.114027e-08	-1.383545e+01	-7.325589e+02
6.600000e-07	-1.823160e-06	-1.084216e-08	-1.307508e+01	-7.133424e+02
6.700000e-07	-1.716443e-06	-1.053425e-08	-1.230974e+01	-6.931657e+02
6.800000e-07	-1.609049e-06	-1.021069e-08	-1.153955e+01	-6.719607e+02
6.900000e-07	-1.501105e-06	-9.870813e-09	-1.076541e+01	-6.496610e+02
7.000000e-07	-1.392676e-06	-9.509766e-09	-9.987788e+00	-6.262030e+02
7.100000e-07	-1.283846e-06	-9.126613e-09	-9.207299e+00	-6.015280e+02
7.200000e-07	-1.174607e-06	-8.724892e-09	-8.423873e+00	-5.755834e+02
7.300000e-07	-1.064966e-06	-8.311368e-09	-7.637569e+00	-5.483266e+02
7.400000e-07	-9.550040e-07	-7.884085e-09	-6.848959e+00	-5.197290e+02
7.500000e-07	-8.447619e-07	-7.431765e-09	-6.058341e+00	-4.897838e+02
7.600000e-07	-7.343242e-07	-6.955609e-09	-5.266319e+00	-4.585130e+02
7.700000e-07	-6.237368e-07	-6.457507e-09	-4.473225e+00	-4.259757e+02
7.800000e-07	-5.129862e-07	-5.938930e-09	-3.678960e+00	-3.922730e+02
7.900000e-07	-4.021041e-07	-5.405413e-09	-2.883752e+00	-3.575487e+02
8.000000e-07	-2.910409e-07	-4.864535e-09	-2.087245e+00	-3.219847e+02
8.100000e-07	-1.797895e-07	-4.316684e-09	-1.289388e+00	-2.857882e+02
8.200000e-07	-6.842091e-08	-3.761102e-09	-4.906911e-01	-2.491743e+02
8.300000e-07	4.300270e-08	-3.202374e-09	3.084005e-01	-2.123427e+02
8.400000e-07	1.544459e-07	-2.643503e-09	1.107632e+00	-1.754545e+02
8.500000e-07	2.658450e-07	-2.083194e-09	1.906548e+00	-1.386115e+02
8.600000e-07	3.771180e-07	-1.519392e-09	2.704560e+00	-1.018414e+02
8.700000e-07	4.882038e-07	-9.578748e-10	3.501229e+00	-6.509405e+01
8.800000e-07	5.991393e-07	-3.965628e-10	4.296820e+00	-2.824870e+01
8.900000e-07	7.099933e-07	1.692054e-10	5.091827e+00	8.867217e+00
9.000000e-07	8.207140e-07	7.421687e-10	5.885878e+00	4.644957e+01
9.100000e-07	9.312351e-07	1.322787e-09	6.678497e+00	8.468347e+01
9.200000e-07	1.041510e-06	1.914948e-09	7.469348e+00	1.237084e+02
9.300000e-07	1.151421e-06	2.520106e-09	8.257596e+00	1.635877e+02
9.400000e-07	1.260824e-06	3.136050e-09	9.042196e+00	2.042875e+02
9.500000e-07	1.369758e-06	3.763657e-09	9.823433e+00	2.456679e+02
9.600000e-07	1.478311e-06	4.401029e-09	1.060193e+01	2.874878e+02
9.700000e-07	1.586471e-06	5.044936e-09	1.137762e+01	3.294232e+02
9.800000e-07	1.694133e-06	5.685247e-09	1.214974e+01	3.710955e+02
9.900000e-07	1.801141e-06	6.312161e-09	1.291716e+01	4.121062e+02
1.000000e-06	1.907458e-06	6.918222e-09	1.367963e+01	4.520726e+02
1.010000e-06	2.013002e-06	7.500567e-09	1.443655e+01	4.906595e+02
1.020000e-06	2.117593e-06	8.061499e-09	1.518665e+01	5.276038e+02
1.030000e-06	2.221192e-06	8.596082e-09	1.592962e+01	5.627283e+02
1.040000e-06	2.323998e-06	9.100973e-09	1.666691e+01	5.959440e+02
1.050000e-06	2.426081e-06	9.573776e-09	1.739902e+01	6.272431e+02
1.060000e-06	2.527291e-06	1.001901e-08	1.812486e+01	6.566831e+02
1.070000e-06	2.627658e-06	1.044013e-08	1.884466e+01	6.843667e+02
1.080000e-06	2.727176e-06	1.083825e-08	1.955836e+01	7.104211e+02
1.090000e-06	2.825727e-06	1.121491e-08	2.026514e+01	7.349783e+02
1.100000e-06	2.923173e-06	1.157188e-08	2.096399e+01	7.581615e+02
1.110000e-06	3.019309e-06	1.190843e-08	2.165344e+01	7.800763e+02
1.120000e-06	3.114278e-06	1.222127e-08	2.233453e+01	8.008083e+02
1.130000e-06	3.208247e-06	1.251585e-08	2.300844e+01	8.204254e+02
1.140000e-06	3.301179e-06	1.279645e-08	2.367491e+01	8.389834e+02
1.150000e-06	3.393127e-06	1.306228e-08	2.433434e+01	8.565326e+02
1.160000e-06	3.484049e-06	1.331356e-08	2.498640e+01	8.731240e+02
1.170000e-06	3.573706e-06	1.355364e-08	2.562938e+01	8.888127e+02
1.180000e-06	3.661931e-06	1.378064e-08	2.626210e+01	9.036592e+02
1.190000e-06	3.748791e-06	1.399568e-08	2.688503e+01	9.177275e+02
1.200000e-06	3.834379e-06	1.419914e-08	2.749885e+01	9.310815e+02
1.210000e-06	3.918747e-06	1.439122e-08	2.810390e+01	9.437806e+02
1.220000e-06	4.001889e-06	1.457358e-08	2.870017e+01	9.558751e+02
1.230000e-06	4.083574e-06	1.474695e-08	2.928598e+01	9.674041e+02
1.240000e-06	4.163633e-06	1.491306e-08	2.986013e+01	9.783944e+02
1.250000e-06	4.242145e-06	1.507273e-08	3.042320e+01	9.888624e+02
1.260000e-06	4.319151e-06	1.522494e-08	3.097546e+01	9.988168e+02
1.270000e-06	4.394574e-06	1.537011e-08	3.151637e+01	1.008263e+03
1.280000e-06	4.468157e-06	1.550753e-08	3.204408e+01	1.017207e+03
1.290000e-06	4.539925e-06	1.563770e-08	3.255878e+01	1.025659e+03
1.300000e-06	4.610070e-06	1.575975e-08	3.306183e+01	1.033635e+03
1.310000e-06	4.678629e-06	1.587364e-08	3.355351e+01	1.041159e+03
1.320000e-06	4.745597e-06	1.598199e-08	3.403378e+01	1.048258e+03
1.330000e-06	4.810731e-06	1.608286e-08	3.450090e+01	1.054963e+03
1.340000e-06	4.874023e-06	1.617689e-08	3.495481e+01	1.061307e+03
1.350000e-06	4.935727e-06	1.626626e-08	3.539733e+01	1.067321e+03
1.360000e-06	4.995915e-06	1.635313e-08	3.582898e+01	1.073033e+03
1.370000e-06	5.054307e-06	1.643712e-08	3.624774e+01	1.078466e+03
1.380000e-06	5.110713e-06	1.651640e-08	3.665227e+01	1.083641e+03
1.390000e-06	5.165272e-06	1.659247e-08	3.704355e+01	1.088573e+03
1.400000e-06	5.217961e-06	1.666366e-08	3.742142e+01	1.093275e+03
1.410000e-06	5.268426e-06	1.673038e-08	3.778333e+01	1.097756e+03
1.420000e-06	5.316638e-06	1.679470e-08	3.812909e+01	1.102021e+03
1.430000e-06	5.362964e-06	1.685633e-08	3.846133e+01	1.106073e+03
1.440000e-06	5.407589e-06	1.691471e-08	3.878136e+01	1.109910e+03
1.450000e-06	5.450400e-06	1.696958e-08	3.908838e+01	1.113527e+03
1.460000e-06	5.491137e-06	1.702157e-08	3.938054e+01	1.116919e+03
1.470000e-06	5.529846e-06	1.707062e-08	3.965814e+01	1.120078e+03
1.480000e-06	5.566693e-06	1.711639e-08	3.992240e+01	1.123000e+03
1.490000e-06	5.601778e-06	1.715716e-08	4.017401e+01	1.125682e+03
1.500000e-06	5.634797e-06	1.719228e-08	4.041082e+01	1.128129e+03
1.510000e-06	5.665647e-06	1.722471e-08	4.063206e+01	1.130350e+03
1.520000e-06	5.694633e-06	1.725419e-08	4.083994e+01	1.132357e+03
1.530000e-06	5.721797e-06	1.728114e-08	4.103475e+01	1.134169e+03
1.540000e-06	5.746774e-06	1.730659e-08	4.121388e+01	1.135802e+03
1.550000e-06	5.769451e-06	1.732850e-08	4.137651e+01	1.137271e+03
1.560000e-06	5.790188e-06	1.734831e-08	4.152523e+01	1.138587e+03
1.570000e-06	5.809021e-06	1.736714e-08	4.166029e+01	1.139754e+03
1.580000e-06	5.825727e-06	1.738378e-08	4.178010e+01	1.140772e+03
1.590000e-06	5.840224e-06	1.739605e-08	4.188407e+01	1.141637e+03
1.600000e-06	5.852570e-06	1.740434e-08	4.197261e+01	1.142342e+03
1.610000e-06	5.862499e-06	1.741170e-08	4.204382e+01	1.142885e+03
1.620000e-06	5.870099e-06	1.741843e-08	4.209832e+01	1.143267e+03
1.630000e-06	5.875696e-06	1.742476e-08	4.213846e+01	1.143492e+03
1.640000e-06	5.879411e-06	1.743124e-08	4.216511e+01	1.143573e+03
1.650000e-06	5.880972e-06	1.743827e-08	4.217630e+01	1.143522e+03
1.660000e-06	5.880308e-06	1.743811e-08	4.217154e+01	1.143352e+03
1.670000e-06	5.877785e-06	1.742460e-08	4.215345e+01	1.143072e+03
1.680000e-06	5.873485e-06	1.741591e-08	4.212261e+01	1.142686e+03
1.690000e-06	5.867162e-06	1.740649e-08	4.207726e+01	1.142191e+03
1.700000e-06	5.858761e-06	1.739735e-08	4.201701e+01	1.141575e+03
1.710000e-06	5.848631e-06	1.739143e-08	4.194436e+01	1.140827e+03
1.720000e-06	5.836679e-06	1.738998e-08	4.185865e+01	1.139935e+03
1.730000e-06	5.822514e-06	1.740421e-08	4.175706e+01	1.138890e+03
1.740000e-06	5.806317e-06	1.732864e-08	4.164090e+01	1.137694e+03
1.750000e-06	5.788153e-06	1.722121e-08	4.151063e+01	1.136356e+03
1.760000e-06	5.767275e-06	1.726557e-08	4.136090e+01	1.134891e+03
1.770000e-06	5.743516e-06	1.725972e-08	4.119051e+01	1.133319e+03
1.780000e-06	5.717549e-06	1.724687e-08	4.100429e+01	1.131659e+03
1.790000e-06	5.690168e-06	1.739383e-08	4.080792e+01	1.129920e+03
1.800000e-06	5.661977e-06	1.717191e-08	4.060574e+01	1.128105e+03
1.810000e-06	5.632266e-06	1.710855e-08	4.039267e+01	1.126201e+03
1.820000e-06	5.600061e-06	1.725451e-08	4.016170e+01	1.124185e+03
1.830000e-06	5.565997e-06	1.695996e-08	3.991741e+01	1.122027e+03
1.840000e-06	5.530206e-06	1.707692e-08	3.966072e+01	1.119695e+03
1.850000e-06	5.492118e-06	1.716126e-08	3.938757e+01	1.117162e+03
1.860000e-06	5.452024e-06	1.689902e-08	3.910003e+01	1.114410e+03
1.870000e-06	5.410023e-06	1.702117e-08	3.879882e+01	1.111437e+03
1.880000e-06	5.366312e-06	1.686217e-08	3.848534e+01	1.108253e+03
1.890000e-06	5.320903e-06	1.674869e-08	3.815968e+01	1.104877e+03
1.900000e-06	5.273195e-06	1.682916e-08	3.781754e+01	1.101335e+03
1.910000e-06	5.223377e-06	1.664059e-08	3.746026e+01	1.097651e+03
1.920000e-06	5.171464e-06	1.676840e-08	3.708795e+01	1.093843e+03
1.930000e-06	5.117286e-06	1.665665e-08	3.669941e+01	1.089916e+03
1.940000e-06	5.061245e-06	1.647077e-08	3.629750e+01	1.085864e+03
1.950000e-06	5.003394e-06	1.652404e-08	3.588262e+01	1.081670e+03
1.960000e-06	4.943759e-06	1.636746e-08	3.545493e+01	1.077309e+03
1.970000e-06	4.882270e-06	1.638231e-08	3.501396e+01	1.072757e+03
1.980000e-06	4.818856e-06	1.627542e-08	3.455917e+01	1.067993e+03
1.990000e-06	4.753658e-06	1.619286e-08	3.409159e+01	1.063002e+03
2.000000e-06	4.686774e-06	1.615997e-08	3.361192e+01	1.057779e+03
2.010000e-06	4.618376e-06	1.598324e-08	3.312140e+01	1.052325e+03
2.020000e-06	4.548182e-06	1.599519e-08	3.261799e+01	1.046646e+03
2.030000e-06	4.476134e-06	1.585609e-08	3.210129e+01	1.040746e+03
2.040000e-06	4.402500e-06	1.576767e-08	3.157321e+01	1.034626e+03
2.050000e-06	4.327296e-06	1.568933e-08	3.103387e+01	1.028279e+03
2.060000e-06	4.250386e-06	1.554863e-08	3.048230e+01	1.021688e+03
2.070000e-06	4.171669e-06	1.549651e-08	2.991777e+01	1.014834e+03
2.080000e-06	4.091445e-06	1.535241e-08	2.934243e+01	1.007692e+03
2.090000e-06	4.009844e-06	1.527053e-08	2.875721e+01	1.000242e+03
2.100000e-06	3.926916e-06	1.512039e-08	2.816249e+01	9.924686e+02
2.110000e-06	3.842672e-06	1.499035e-08	2.755832e+01	9.843628e+02
2.120000e-06	3.756994e-06	1.489367e-08	2.694386e+01	9.759239e+02
2.130000e-06	3.669948e-06	1.475840e-08	2.631960e+01	9.671555e+02
2.140000e-06	3.581599e-06	1.463416e-08	2.568599e+01	9.580615e+02
2.150000e-06	3.492007e-06	1.446036e-08	2.504347e+01	9.486416e+02
2.160000e-06	3.401225e-06	1.432557e-08	2.439241e+01	9.388868e+02
2.170000e-06	3.309342e-06	1.416267e-08	2.373346e+01	9.287775e+02
2.180000e-06	3.216271e-06	1.401086e-08	2.306599e+01	9.182835e+02
2.190000e-06	3.121902e-06	1.385949e-08	2.238920e+01	9.073664e+02
2.200000e-06	3.026227e-06	1.368946e-08	2.170306e+01	8.959834e+02
2.210000e-06	2.929441e-06	1.349908e-08	2.100894e+01	8.840920e+02
2.220000e-06	2.831708e-06	1.328963e-08	2.030803e+01	8.716537e+02
2.230000e-06	2.733011e-06	1.310351e-08	1.960021e+01	8.586365e+02
2.240000e-06	2.633464e-06	1.290981e-08	1.888629e+01	8.450144e+02
2.250000e-06	2.532896e-06	1.270521e-08	1.816506e+01	8.307659e+02
2.260000e-06	2.431262e-06	1.247430e-08	1.743617e+01	8.158698e+02
2.270000e-06	2.328688e-06	1.223183e-08	1.670055e+01	8.003016e+02
2.280000e-06	2.225114e-06	1.197737e-08	1.595775e+01	7.840295e+02
2.290000e-06	2.120700e-06	1.171887e-08	1.520892e+01	7.670126e+02
2.300000e-06	2.015598e-06	1.145336e-08	1.445518e+01	7.492002e+02
2.310000e-06	1.909779e-06	1.117673e-08	1.369627e+01	7.305332e+02
2.320000e-06	1.803343e-06	1.088089e-08	1.293296e+01	7.109468e+02
2.330000e-06	1.696444e-06	1.055780e-08	1.216631e+01	6.903733e+02
2.340000e-06	1.589094e-06	1.022424e-08	1.139643e+01	6.687453e+02
2.350000e-06	1.481208e-06	9.881150e-09	1.062271e+01	6.459971e+02
2.360000e-06	1.372802e-06	9.526798e-09	9.845265e+00	6.220669e+02
2.370000e-06	1.263980e-06	9.147176e-09	9.064826e+00	5.968981e+02
2.380000e-06	1.154824e-06	8.741460e-09	8.281996e+00	5.704416e+02
2.390000e-06	1.045375e-06	8.313197e-09	7.497067e+00	5.426596e+02
2.400000e-06	9.355734e-07	7.866628e-09	6.709609e+00	5.135312e+02
2.410000e-06	8.254260e-07	7.403290e-09	5.919670e+00	4.830599e+02
2.420000e-06	7.150190e-07	6.921595e-09	5.127870e+00	4.512815e+02
2.430000e-06	6.043093e-07	6.420251e-09	4.333897e+00	4.182710e+02
2.440000e-06	4.933723e-07	5.896661e-09	3.538296e+00	3.841467e+02
2.450000e-06	3.822599e-07	5.356730e-09	2.741436e+00	3.490683e+02
2.460000e-06	2.709050e-07	4.806256e-09	1.942837e+00	3.132294e+02
2.470000e-06	1.593775e-07	4.250653e-09	1.143000e+00	2.768428e+02
2.480000e-06	4.770343e-08	3.690221e-09	3.421125e-01	2.401203e+02
2.490000e-06	-6.392153e-08	3.127280e-09	-4.584231e-01	2.032494e+02
2.500000e-06	-1.754409e-07	2.564888e-09	-1.258201e+00	1.663699e+02
2.510000e-06	-2.868676e-07	2.003868e-09	-2.057315e+00	1.295557e+02
2.520000e-06	-3.981359e-07	1.444038e-09	-2.855293e+00	9.280392e+01
2.530000e-06	-5.093199e-07	8.807769e-10	-3.652666e+00	5.603508e+01
2.540000e-06	-6.203064e-07	3.146113e-10	-4.448624e+00	1.910521e+01
2.550000e-06	-7.309697e-07	-2.575646e-10	-5.242262e+00	-1.817120e+01
2.560000e-06	-8.413124e-07	-8.382738e-10	-6.033602e+00	-5.599003e+01
2.570000e-06	-9.512988e-07	-1.427995e-09	-6.822386e+00	-9.452247e+01
2.580000e-06	-1.060919e-06	-2.031057e-09	-7.608545e+00	-1.338813e+02
2.590000e-06	-1.170214e-06	-2.645113e-09	-8.392374e+00	-1.740936e+02
2.600000e-06	-1.279196e-06	-3.270088e-09	-9.173954e+00	-2.150842e+02
2.610000e-06	-1.387767e-06	-3.904516e-09	-9.952589e+00	-2.566719e+02
2.620000e-06	-1.495806e-06	-4.544089e-09	-1.072741e+01	-2.985804e+02
2.630000e-06	-1.603269e-06	-5.182625e-09	-1.149809e+01	-3.404603e+02
2.640000e-06	-1.710232e-06	-5.813583e-09	-1.226520e+01	-3.819210e+02
2.650000e-06	-1.816664e-06	-6.434233e-09	-1.302849e+01	-4.225659e+02
2.660000e-06	-1.922428e-06	-7.040140e-09	-1.378699e+01	-4.620275e+02
2.670000e-06	-2.027519e-06	-7.623217e-09	-1.454066e+01	-4.999967e+02
2.680000e-06	-2.131843e-06	-8.179132e-09	-1.528884e+01	-5.362431e+02
2.690000e-06	-2.235246e-06	-8.705013e-09	-1.603041e+01	-5.706244e+02
2.700000e-06	-2.337701e-06	-9.199422e-09	-1.676518e+01	-6.030848e+02
2.710000e-06	-2.439235e-06	-9.665703e-09	-1.749335e+01	-6.336445e+02
2.720000e-06	-2.539810e-06	-1.010620e-08	-1.821464e+01	-6.623813e+02
2.730000e-06	-2.639427e-06	-1.052099e-08	-1.892906e+01	-6.894098e+02
2.740000e-06	-2.738212e-06	-1.091189e-08	-1.963751e+01	-7.148613e+02
2.750000e-06	-2.836112e-06	-1.128117e-08	-2.033962e+01	-7.388657e+02
2.760000e-06	-2.933045e-06	-1.162885e-08	-2.103478e+01	-7.615399e+02
2.770000e-06	-3.029069e-06	-1.195601e-08	-2.172344e+01	-7.829818e+02
2.780000e-06	-3.124105e-06	-1.226473e-08	-2.240500e+01	-8.032693e+02
2.790000e-06	-3.217980e-06	-1.255630e-08	-2.307824e+01	-8.224649e+02
2.800000e-06	-3.310626e-06	-1.283219e-08	-2.374266e+01	-8.406215e+02
2.810000e-06	-3.402042e-06	-1.309402e-08	-2.439827e+01	-8.577890e+02
2.820000e-06	-3.492145e-06	-1.334226e-08	-2.504446e+01	-8.740197e+02
2.830000e-06	-3.581022e-06	-1.357774e-08	-2.568185e+01	-8.893708e+02
2.840000e-06	-3.668830e-06	-1.380290e-08	-2.631158e+01	-9.039047e+02
2.850000e-06	-3.755297e-06	-1.401845e-08	-2.693170e+01	-9.176857e+02
2.860000e-06	-3.840231e-06	-1.422291e-08	-2.754081e+01	-9.307766e+02
2.870000e-06	-3.923812e-06	-1.441453e-08	-2.814022e+01	-9.432335e+02
2.880000e-06	-4.006086e-06	-1.459451e-08	-2.873027e+01	-9.551027e+02
2.890000e-06	-4.087032e-06	-1.476491e-08	-2.931078e+01	-9.664183e+02
2.900000e-06	-4.166525e-06	-1.492637e-08	-2.988088e+01	-9.772029e+02
2.910000e-06	-4.244291e-06	-1.508178e-08	-3.043859e+01	-9.874691e+02
2.920000e-06	-4.320313e-06	-1.523138e-08	-3.098379e+01	-9.972240e+02
2.930000e-06	-4.394729e-06	-1.537470e-08	-3.151748e+01	-1.006473e+03
2.940000e-06	-4.467540e-06	-1.550870e-08	-3.203966e+01	-1.015223e+03
