# Temperatura_=_29.28
# Concentracion g/m^3_=_28200.0
# C_Vs_to_Am_M_A/Vsm_=_65563218390.804596
# pendiente_HvsI_1/m_=_3716.3
# ordenada_HvsI_A/m_=_1297.0
# frecuencia_Hz_=_301953.2338345426

Tiempo_(s)	Campo_(V.s)	Magnetizacion_(V.s)	Campo_(kA/m)	Magnetizacion_(A/m)
0.000000e+00	-5.835361e-06	-1.732406e-08	-4.192881e+01	-1.133866e+03
1.000000e-08	-5.832103e-06	-1.732012e-08	-4.190539e+01	-1.133541e+03
2.000000e-08	-5.826971e-06	-1.730994e-08	-4.186852e+01	-1.133115e+03
3.000000e-08	-5.820071e-06	-1.730102e-08	-4.181894e+01	-1.132577e+03
4.000000e-08	-5.811292e-06	-1.728952e-08	-4.175586e+01	-1.131909e+03
5.000000e-08	-5.800354e-06	-1.727406e-08	-4.167727e+01	-1.131094e+03
6.000000e-08	-5.787255e-06	-1.725828e-08	-4.158315e+01	-1.130115e+03
7.000000e-08	-5.772046e-06	-1.723679e-08	-4.147387e+01	-1.128965e+03
8.000000e-08	-5.754710e-06	-1.721788e-08	-4.134930e+01	-1.127650e+03
9.000000e-08	-5.735329e-06	-1.724838e-08	-4.121004e+01	-1.126188e+03
1.000000e-07	-5.713838e-06	-1.723135e-08	-4.105563e+01	-1.124607e+03
1.100000e-07	-5.690155e-06	-1.716166e-08	-4.088545e+01	-1.122941e+03
1.200000e-07	-5.664240e-06	-1.713132e-08	-4.069925e+01	-1.121222e+03
1.300000e-07	-5.636500e-06	-1.708150e-08	-4.049993e+01	-1.119474e+03
1.400000e-07	-5.607359e-06	-1.697584e-08	-4.029054e+01	-1.117701e+03
1.500000e-07	-5.576656e-06	-1.705894e-08	-4.006993e+01	-1.115895e+03
1.600000e-07	-5.544102e-06	-1.705920e-08	-3.983602e+01	-1.114025e+03
1.700000e-07	-5.509700e-06	-1.691337e-08	-3.958883e+01	-1.112049e+03
1.800000e-07	-5.473473e-06	-1.699768e-08	-3.932853e+01	-1.109921e+03
1.900000e-07	-5.435288e-06	-1.691617e-08	-3.905416e+01	-1.107594e+03
2.000000e-07	-5.395227e-06	-1.680175e-08	-3.876631e+01	-1.105036e+03
2.100000e-07	-5.353141e-06	-1.685376e-08	-3.846391e+01	-1.102230e+03
2.200000e-07	-5.308971e-06	-1.675803e-08	-3.814654e+01	-1.099175e+03
2.300000e-07	-5.262794e-06	-1.669959e-08	-3.781474e+01	-1.095890e+03
2.400000e-07	-5.214393e-06	-1.668321e-08	-3.746696e+01	-1.092403e+03
2.500000e-07	-5.163676e-06	-1.659729e-08	-3.710255e+01	-1.088745e+03
2.600000e-07	-5.110716e-06	-1.656411e-08	-3.672202e+01	-1.084942e+03
2.700000e-07	-5.055831e-06	-1.648586e-08	-3.632765e+01	-1.081010e+03
2.800000e-07	-4.999194e-06	-1.642488e-08	-3.592070e+01	-1.076949e+03
2.900000e-07	-4.940587e-06	-1.636856e-08	-3.549959e+01	-1.072745e+03
3.000000e-07	-4.880096e-06	-1.629534e-08	-3.506494e+01	-1.068374e+03
3.100000e-07	-4.817908e-06	-1.623514e-08	-3.461810e+01	-1.063807e+03
3.200000e-07	-4.753989e-06	-1.615468e-08	-3.415882e+01	-1.059014e+03
3.300000e-07	-4.688251e-06	-1.608504e-08	-3.368648e+01	-1.053975e+03
3.400000e-07	-4.620691e-06	-1.598231e-08	-3.320104e+01	-1.048679e+03
3.500000e-07	-4.551495e-06	-1.589289e-08	-3.270384e+01	-1.043126e+03
3.600000e-07	-4.480809e-06	-1.581846e-08	-3.219595e+01	-1.037324e+03
3.700000e-07	-4.408568e-06	-1.572153e-08	-3.167687e+01	-1.031283e+03
3.800000e-07	-4.334514e-06	-1.564093e-08	-3.114477e+01	-1.025016e+03
3.900000e-07	-4.258604e-06	-1.553507e-08	-3.059934e+01	-1.018524e+03
4.000000e-07	-4.180998e-06	-1.541800e-08	-3.004172e+01	-1.011803e+03
4.100000e-07	-4.101787e-06	-1.531683e-08	-2.947256e+01	-1.004838e+03
4.200000e-07	-4.021013e-06	-1.520903e-08	-2.889217e+01	-9.976078e+02
4.300000e-07	-3.938893e-06	-1.510002e-08	-2.830212e+01	-9.900858e+02
4.400000e-07	-3.855584e-06	-1.497099e-08	-2.770352e+01	-9.822475e+02
4.500000e-07	-3.771028e-06	-1.485074e-08	-2.709596e+01	-9.740728e+02
4.600000e-07	-3.685218e-06	-1.471796e-08	-2.647939e+01	-9.655480e+02
4.700000e-07	-3.598301e-06	-1.457759e-08	-2.585487e+01	-9.566660e+02
4.800000e-07	-3.510229e-06	-1.444079e-08	-2.522204e+01	-9.474240e+02
4.900000e-07	-3.420766e-06	-1.429314e-08	-2.457922e+01	-9.378199e+02
5.000000e-07	-3.329914e-06	-1.413919e-08	-2.392642e+01	-9.278483e+02
5.100000e-07	-3.237791e-06	-1.397263e-08	-2.326449e+01	-9.174973e+02
5.200000e-07	-3.144510e-06	-1.380804e-08	-2.259424e+01	-9.067463e+02
5.300000e-07	-3.050194e-06	-1.363535e-08	-2.191655e+01	-8.955662e+02
5.400000e-07	-2.954835e-06	-1.345943e-08	-2.123137e+01	-8.839214e+02
5.500000e-07	-2.858288e-06	-1.327484e-08	-2.053765e+01	-8.717727e+02
5.600000e-07	-2.760551e-06	-1.308036e-08	-1.983538e+01	-8.590807e+02
5.700000e-07	-2.661688e-06	-1.287617e-08	-1.912502e+01	-8.458086e+02
5.800000e-07	-2.561783e-06	-1.266059e-08	-1.840717e+01	-8.319236e+02
5.900000e-07	-2.460971e-06	-1.243663e-08	-1.768281e+01	-8.173965e+02
6.000000e-07	-2.359305e-06	-1.219917e-08	-1.695231e+01	-8.022004e+02
6.100000e-07	-2.256849e-06	-1.195451e-08	-1.621613e+01	-7.863073e+02
6.200000e-07	-2.153612e-06	-1.170116e-08	-1.547434e+01	-7.696854e+02
6.300000e-07	-2.049457e-06	-1.143889e-08	-1.472596e+01	-7.522965e+02
6.400000e-07	-1.944440e-06	-1.116174e-08	-1.397138e+01	-7.340944e+02
6.500000e-07	-1.838722e-06	-1.087064e-08	-1.321177e+01	-7.150247e+02
6.600000e-07	-1.732328e-06	-1.056476e-08	-1.244729e+01	-6.950257e+02
6.700000e-07	-1.625293e-06	-1.024185e-08	-1.167822e+01	-6.740308e+02
6.800000e-07	-1.517656e-06	-9.904730e-09	-1.090481e+01	-6.519707e+02
6.900000e-07	-1.409483e-06	-9.549232e-09	-1.012755e+01	-6.287764e+02
7.000000e-07	-1.300865e-06	-9.174376e-09	-9.347102e+00	-6.043828e+02
7.100000e-07	-1.191860e-06	-8.778515e-09	-8.563871e+00	-5.787319e+02
7.200000e-07	-1.082486e-06	-8.366979e-09	-7.777985e+00	-5.517776e+02
7.300000e-07	-9.727968e-07	-7.939359e-09	-6.989834e+00	-5.234908e+02
7.400000e-07	-8.628126e-07	-7.491824e-09	-6.199565e+00	-4.938660e+02
7.500000e-07	-7.526016e-07	-7.021863e-09	-5.407667e+00	-4.629278e+02
7.600000e-07	-6.422196e-07	-6.531244e-09	-4.614539e+00	-4.307370e+02
7.700000e-07	-5.316160e-07	-6.020375e-09	-3.819819e+00	-3.973947e+02
7.800000e-07	-4.208726e-07	-5.491617e-09	-3.024095e+00	-3.630425e+02
7.900000e-07	-3.100277e-07	-4.952935e-09	-2.227641e+00	-3.278575e+02
8.000000e-07	-1.990109e-07	-4.407261e-09	-1.429953e+00	-2.920422e+02
8.100000e-07	-8.783846e-08	-3.857014e-09	-6.311454e-01	-2.558078e+02
8.200000e-07	2.339358e-08	-3.304010e-09	1.680898e-01	-2.193538e+02
8.300000e-07	1.346668e-07	-2.752283e-09	9.676208e-01	-1.828463e+02
8.400000e-07	2.459185e-07	-2.200858e-09	1.766998e+00	-1.463974e+02
8.500000e-07	3.570826e-07	-1.648290e-09	2.565745e+00	-1.100504e+02
8.600000e-07	4.680886e-07	-1.094167e-09	3.363356e+00	-7.377263e+01
8.700000e-07	5.789054e-07	-5.376118e-10	4.159607e+00	-3.746002e+01
8.800000e-07	6.895931e-07	2.159139e-11	4.954932e+00	-9.515985e-01
8.900000e-07	8.001278e-07	5.856289e-10	5.749156e+00	3.594548e+01
9.000000e-07	9.104433e-07	1.154943e-09	6.541806e+00	7.342447e+01
9.100000e-07	1.020510e-06	1.733724e-09	7.332666e+00	1.116450e+02
9.200000e-07	1.130272e-06	2.323711e-09	8.121341e+00	1.507016e+02
9.300000e-07	1.239618e-06	2.926975e-09	8.907023e+00	1.905996e+02
9.400000e-07	1.348487e-06	3.543810e-09	9.689281e+00	2.312418e+02
9.500000e-07	1.456881e-06	4.172209e-09	1.046813e+01	2.724285e+02
9.600000e-07	1.564889e-06	4.807064e-09	1.124420e+01	3.138705e+02
9.700000e-07	1.672484e-06	5.440469e-09	1.201730e+01	3.552138e+02
9.800000e-07	1.779507e-06	6.063609e-09	1.278629e+01	3.960713e+02
9.900000e-07	1.885806e-06	6.670018e-09	1.355008e+01	4.360581e+02
1.000000e-06	1.991233e-06	7.258039e-09	1.430760e+01	4.748241e+02
1.010000e-06	2.095703e-06	7.822778e-09	1.505825e+01	5.120815e+02
1.020000e-06	2.199262e-06	8.361069e-09	1.580235e+01	5.476222e+02
1.030000e-06	2.302041e-06	8.869681e-09	1.654085e+01	5.813242e+02
1.040000e-06	2.404066e-06	9.350918e-09	1.727393e+01	6.131484e+02
1.050000e-06	2.505260e-06	9.804725e-09	1.800104e+01	6.431255e+02
1.060000e-06	2.605633e-06	1.023153e-08	1.872225e+01	6.713383e+02
1.070000e-06	2.705193e-06	1.063606e-08	1.943761e+01	6.979011e+02
1.080000e-06	2.803762e-06	1.101953e-08	2.014586e+01	7.229400e+02
1.090000e-06	2.901091e-06	1.138395e-08	2.084520e+01	7.465776e+02
1.100000e-06	2.997204e-06	1.172593e-08	2.153580e+01	7.689227e+02
1.110000e-06	3.092261e-06	1.204649e-08	2.221881e+01	7.900653e+02
1.120000e-06	3.186235e-06	1.234713e-08	2.289405e+01	8.100778e+02
1.130000e-06	3.279128e-06	1.263183e-08	2.356151e+01	8.290188e+02
1.140000e-06	3.371068e-06	1.290191e-08	2.422212e+01	8.469394e+02
1.150000e-06	3.462016e-06	1.315766e-08	2.487562e+01	8.638891e+02
1.160000e-06	3.551671e-06	1.340179e-08	2.551981e+01	8.799202e+02
1.170000e-06	3.639868e-06	1.363302e-08	2.615353e+01	8.950896e+02
1.180000e-06	3.726780e-06	1.385222e-08	2.677802e+01	9.094583e+02
1.190000e-06	3.812474e-06	1.405984e-08	2.739376e+01	9.230889e+02
1.200000e-06	3.896904e-06	1.425558e-08	2.800042e+01	9.360412e+02
1.210000e-06	3.980131e-06	1.443964e-08	2.859843e+01	9.483685e+02
1.220000e-06	4.061942e-06	1.461532e-08	2.918626e+01	9.601146e+02
1.230000e-06	4.142135e-06	1.478504e-08	2.976247e+01	9.713124e+02
1.240000e-06	4.220792e-06	1.494813e-08	3.032764e+01	9.819842e+02
1.250000e-06	4.297910e-06	1.510317e-08	3.088176e+01	9.921437e+02
1.260000e-06	4.373487e-06	1.524925e-08	3.142480e+01	1.001800e+03
1.270000e-06	4.447339e-06	1.538726e-08	3.195545e+01	1.010959e+03
1.280000e-06	4.519296e-06	1.551942e-08	3.247249e+01	1.019629e+03
1.290000e-06	4.589535e-06	1.564386e-08	3.297717e+01	1.027824e+03
1.300000e-06	4.658215e-06	1.576200e-08	3.347066e+01	1.035559e+03
1.310000e-06	4.725355e-06	1.587558e-08	3.395308e+01	1.042857e+03
1.320000e-06	4.790678e-06	1.598250e-08	3.442245e+01	1.049744e+03
1.330000e-06	4.854143e-06	1.608125e-08	3.487846e+01	1.056248e+03
1.340000e-06	4.915995e-06	1.617267e-08	3.532289e+01	1.062399e+03
1.350000e-06	4.976250e-06	1.625882e-08	3.575584e+01	1.068226e+03
1.360000e-06	5.034895e-06	1.634088e-08	3.617721e+01	1.073755e+03
1.370000e-06	5.091608e-06	1.641884e-08	3.658472e+01	1.079010e+03
1.380000e-06	5.146322e-06	1.649488e-08	3.697785e+01	1.084014e+03
1.390000e-06	5.199179e-06	1.656846e-08	3.735764e+01	1.088783e+03
1.400000e-06	5.249945e-06	1.663848e-08	3.772242e+01	1.093331e+03
1.410000e-06	5.298472e-06	1.670438e-08	3.807110e+01	1.097666e+03
1.420000e-06	5.344980e-06	1.676636e-08	3.840527e+01	1.101792e+03
1.430000e-06	5.389718e-06	1.682583e-08	3.872673e+01	1.105708e+03
1.440000e-06	5.432747e-06	1.688080e-08	3.903590e+01	1.109407e+03
1.450000e-06	5.473783e-06	1.693267e-08	3.933076e+01	1.112882e+03
1.460000e-06	5.512750e-06	1.698170e-08	3.961075e+01	1.116123e+03
1.470000e-06	5.549871e-06	1.702684e-08	3.987747e+01	1.119123e+03
1.480000e-06	5.585225e-06	1.706716e-08	4.013150e+01	1.121878e+03
1.490000e-06	5.618525e-06	1.710294e-08	4.037077e+01	1.124391e+03
1.500000e-06	5.649681e-06	1.713662e-08	4.059464e+01	1.126670e+03
1.510000e-06	5.678969e-06	1.716921e-08	4.080508e+01	1.128730e+03
1.520000e-06	5.706379e-06	1.719934e-08	4.100203e+01	1.130588e+03
1.530000e-06	5.731649e-06	1.722539e-08	4.118360e+01	1.132262e+03
1.540000e-06	5.754651e-06	1.724644e-08	4.134888e+01	1.133768e+03
1.550000e-06	5.775626e-06	1.726364e-08	4.149959e+01	1.135117e+03
1.560000e-06	5.794765e-06	1.728037e-08	4.163711e+01	1.136314e+03
1.570000e-06	5.811840e-06	1.729665e-08	4.175980e+01	1.137357e+03
1.580000e-06	5.826655e-06	1.731082e-08	4.186625e+01	1.138242e+03
1.590000e-06	5.839374e-06	1.732156e-08	4.195764e+01	1.138964e+03
1.600000e-06	5.849843e-06	1.732859e-08	4.203286e+01	1.139517e+03
1.610000e-06	5.857943e-06	1.733387e-08	4.209106e+01	1.139903e+03
1.620000e-06	5.863886e-06	1.733987e-08	4.213376e+01	1.140129e+03
1.630000e-06	5.867871e-06	1.734631e-08	4.216240e+01	1.140209e+03
1.640000e-06	5.869806e-06	1.735098e-08	4.217630e+01	1.140158e+03
1.650000e-06	5.869585e-06	1.735233e-08	4.217471e+01	1.139993e+03
1.660000e-06	5.867386e-06	1.734370e-08	4.215891e+01	1.139724e+03
1.670000e-06	5.863381e-06	1.733215e-08	4.213014e+01	1.139355e+03
1.680000e-06	5.857419e-06	1.732321e-08	4.208730e+01	1.138881e+03
1.690000e-06	5.849418e-06	1.731483e-08	4.202980e+01	1.138288e+03
1.700000e-06	5.839607e-06	1.730773e-08	4.195931e+01	1.137558e+03
1.710000e-06	5.828001e-06	1.730078e-08	4.187592e+01	1.136673e+03
1.720000e-06	5.814302e-06	1.729143e-08	4.177749e+01	1.135620e+03
1.730000e-06	5.798476e-06	1.727536e-08	4.166377e+01	1.134396e+03
1.740000e-06	5.780662e-06	1.718239e-08	4.153577e+01	1.133014e+03
1.750000e-06	5.760361e-06	1.715901e-08	4.138990e+01	1.131495e+03
1.760000e-06	5.737133e-06	1.718610e-08	4.122301e+01	1.129872e+03
1.770000e-06	5.711566e-06	1.715607e-08	4.103930e+01	1.128179e+03
1.780000e-06	5.684458e-06	1.721439e-08	4.084452e+01	1.126444e+03
1.790000e-06	5.656357e-06	1.717168e-08	4.064261e+01	1.124684e+03
1.800000e-06	5.627002e-06	1.697894e-08	4.043169e+01	1.122898e+03
1.810000e-06	5.595324e-06	1.707705e-08	4.020407e+01	1.121067e+03
1.820000e-06	5.561542e-06	1.705561e-08	3.996133e+01	1.119156e+03
1.830000e-06	5.526109e-06	1.696129e-08	3.970673e+01	1.117120e+03
1.840000e-06	5.488516e-06	1.711082e-08	3.943662e+01	1.114910e+03
1.850000e-06	5.448833e-06	1.695411e-08	3.915149e+01	1.112486e+03
1.860000e-06	5.407232e-06	1.687788e-08	3.885257e+01	1.109821e+03
1.870000e-06	5.363802e-06	1.692977e-08	3.854051e+01	1.106906e+03
1.880000e-06	5.318764e-06	1.677465e-08	3.821690e+01	1.103748e+03
1.890000e-06	5.271588e-06	1.679894e-08	3.787793e+01	1.100372e+03
1.900000e-06	5.222253e-06	1.672772e-08	3.752344e+01	1.096806e+03
1.910000e-06	5.170936e-06	1.663678e-08	3.715471e+01	1.093082e+03
1.920000e-06	5.117328e-06	1.667564e-08	3.676952e+01	1.089221e+03
1.930000e-06	5.061685e-06	1.651803e-08	3.636971e+01	1.085233e+03
1.940000e-06	5.004226e-06	1.650727e-08	3.595685e+01	1.081112e+03
1.950000e-06	4.945034e-06	1.642754e-08	3.553154e+01	1.076838e+03
1.960000e-06	4.884066e-06	1.632859e-08	3.509347e+01	1.072386e+03
1.970000e-06	4.821101e-06	1.631191e-08	3.464104e+01	1.067723e+03
1.980000e-06	4.756277e-06	1.617977e-08	3.417527e+01	1.062826e+03
1.990000e-06	4.689797e-06	1.616667e-08	3.369759e+01	1.057676e+03
2.000000e-06	4.621748e-06	1.606909e-08	3.320863e+01	1.052268e+03
2.010000e-06	4.551980e-06	1.596378e-08	3.270733e+01	1.046605e+03
2.020000e-06	4.480318e-06	1.589078e-08	3.219242e+01	1.040698e+03
2.030000e-06	4.407028e-06	1.575597e-08	3.166581e+01	1.034558e+03
2.040000e-06	4.332234e-06	1.571003e-08	3.112839e+01	1.028193e+03
2.050000e-06	4.255792e-06	1.558873e-08	3.057913e+01	1.021603e+03
2.060000e-06	4.177587e-06	1.549225e-08	3.001721e+01	1.014778e+03
2.070000e-06	4.097708e-06	1.539070e-08	2.944325e+01	1.007701e+03
2.080000e-06	4.016399e-06	1.526287e-08	2.885902e+01	1.000348e+03
2.090000e-06	3.933780e-06	1.516095e-08	2.826538e+01	9.926916e+02
2.100000e-06	3.849882e-06	1.502085e-08	2.766255e+01	9.847099e+02
2.110000e-06	3.764650e-06	1.491769e-08	2.705013e+01	9.763851e+02
2.120000e-06	3.678072e-06	1.477462e-08	2.642804e+01	9.677063e+02
2.130000e-06	3.590078e-06	1.463508e-08	2.579578e+01	9.586689e+02
2.140000e-06	3.500713e-06	1.449386e-08	2.515366e+01	9.492706e+02
2.150000e-06	3.410140e-06	1.434589e-08	2.450287e+01	9.395086e+02
2.160000e-06	3.318492e-06	1.420645e-08	2.384435e+01	9.293750e+02
2.170000e-06	3.225763e-06	1.404770e-08	2.317806e+01	9.188542e+02
2.180000e-06	3.131826e-06	1.388918e-08	2.250310e+01	9.079219e+02
2.190000e-06	3.036719e-06	1.370758e-08	2.181973e+01	8.965460e+02
2.200000e-06	2.940370e-06	1.352652e-08	2.112743e+01	8.846887e+02
2.210000e-06	2.842938e-06	1.333553e-08	2.042735e+01	8.723105e+02
2.220000e-06	2.744545e-06	1.313938e-08	1.972037e+01	8.593728e+02
2.230000e-06	2.645256e-06	1.293667e-08	1.900695e+01	8.458404e+02
2.240000e-06	2.545166e-06	1.272367e-08	1.828778e+01	8.316822e+02
2.250000e-06	2.444100e-06	1.250513e-08	1.756158e+01	8.168703e+02
2.260000e-06	2.341980e-06	1.226895e-08	1.682783e+01	8.013777e+02
2.270000e-06	2.238860e-06	1.202411e-08	1.608688e+01	7.851751e+02
2.280000e-06	2.134814e-06	1.176730e-08	1.533927e+01	7.682282e+02
2.290000e-06	2.029947e-06	1.150016e-08	1.458577e+01	7.504956e+02
2.300000e-06	1.924432e-06	1.121596e-08	1.382762e+01	7.319273e+02
2.310000e-06	1.818326e-06	1.091754e-08	1.306522e+01	7.124658e+02
2.320000e-06	1.711610e-06	1.060447e-08	1.229843e+01	6.920470e+02
2.330000e-06	1.604418e-06	1.027621e-08	1.152822e+01	6.706028e+02
2.340000e-06	1.496814e-06	9.934086e-09	1.075505e+01	6.480635e+02
2.350000e-06	1.388688e-06	9.576075e-09	9.978138e+00	6.243615e+02
2.360000e-06	1.280131e-06	9.203404e-09	9.198122e+00	5.994342e+02
2.370000e-06	1.171247e-06	8.807554e-09	8.415760e+00	5.732281e+02
2.380000e-06	1.062009e-06	8.386069e-09	7.630850e+00	5.457036e+02
2.390000e-06	9.524672e-07	7.941222e-09	6.843760e+00	5.168411e+02
2.400000e-06	8.426559e-07	7.478501e-09	6.054733e+00	4.866470e+02
2.410000e-06	7.325620e-07	6.998016e-09	5.263676e+00	4.551609e+02
2.420000e-06	6.221238e-07	6.499533e-09	4.470144e+00	4.224604e+02
2.430000e-06	5.114743e-07	5.984463e-09	3.675095e+00	3.886643e+02
2.440000e-06	4.006415e-07	5.454268e-09	2.878728e+00	3.539303e+02
2.450000e-06	2.896043e-07	4.912486e-09	2.080893e+00	3.184481e+02
2.460000e-06	1.784558e-07	4.362171e-09	1.282258e+00	2.824261e+02
2.470000e-06	6.719876e-08	3.806354e-09	4.828431e-01	2.460732e+02
2.480000e-06	-4.406397e-08	3.247613e-09	-3.166127e-01	2.095772e+02
2.490000e-06	-1.552735e-07	2.689034e-09	-1.115686e+00	1.730835e+02
2.500000e-06	-2.664446e-07	2.132385e-09	-1.914484e+00	1.366760e+02
2.510000e-06	-3.774612e-07	1.576982e-09	-2.712171e+00	1.003656e+02
2.520000e-06	-4.883506e-07	1.021611e-09	-3.508945e+00	6.408810e+01
2.530000e-06	-5.991692e-07	4.654183e-10	-4.305209e+00	2.771241e+01
2.540000e-06	-7.097108e-07	-9.450590e-11	-5.099483e+00	-8.939553e+00
2.550000e-06	-8.199091e-07	-6.628483e-10	-5.891291e+00	-4.606493e+01
2.560000e-06	-9.297780e-07	-1.241309e-09	-6.680731e+00	-8.384670e+01
2.570000e-06	-1.039308e-06	-1.832225e-09	-7.467737e+00	-1.224201e+02
2.580000e-06	-1.148527e-06	-2.435695e-09	-8.252507e+00	-1.618439e+02
2.590000e-06	-1.257368e-06	-3.050012e-09	-9.034566e+00	-2.020803e+02
2.600000e-06	-1.365784e-06	-3.674485e-09	-9.813563e+00	-2.429873e+02
2.610000e-06	-1.473791e-06	-4.306068e-09	-1.058963e+01	-2.843246e+02
2.620000e-06	-1.581351e-06	-4.940237e-09	-1.136248e+01	-3.257718e+02
2.630000e-06	-1.688363e-06	-5.568594e-09	-1.213139e+01	-3.669564e+02
2.640000e-06	-1.794726e-06	-6.187131e-09	-1.289564e+01	-4.074879e+02
2.650000e-06	-1.900393e-06	-6.791404e-09	-1.365489e+01	-4.469926e+02
2.660000e-06	-2.005360e-06	-7.376466e-09	-1.440911e+01	-4.851443e+02
2.670000e-06	-2.109621e-06	-7.937939e-09	-1.515826e+01	-5.216879e+02
2.680000e-06	-2.213094e-06	-8.471838e-09	-1.590174e+01	-5.564519e+02
2.690000e-06	-2.315569e-06	-8.975158e-09	-1.663805e+01	-5.893509e+02
2.700000e-06	-2.416943e-06	-9.449029e-09	-1.736645e+01	-6.203776e+02
2.710000e-06	-2.517387e-06	-9.897154e-09	-1.808817e+01	-6.495875e+02
2.720000e-06	-2.617080e-06	-1.031937e-08	-1.880449e+01	-6.770794e+02
2.730000e-06	-2.715919e-06	-1.071723e-08	-1.951468e+01	-7.029749e+02
2.740000e-06	-2.813774e-06	-1.109250e-08	-2.021780e+01	-7.274003e+02
2.750000e-06	-2.910694e-06	-1.144510e-08	-2.091420e+01	-7.504731e+02
2.760000e-06	-3.006744e-06	-1.177575e-08	-2.160435e+01	-7.722943e+02
2.770000e-06	-3.101817e-06	-1.208886e-08	-2.228748e+01	-7.929461e+02
2.780000e-06	-3.195637e-06	-1.238754e-08	-2.296160e+01	-8.124942e+02
2.790000e-06	-3.288229e-06	-1.267142e-08	-2.362690e+01	-8.309932e+02
2.800000e-06	-3.379706e-06	-1.293926e-08	-2.428419e+01	-8.484929e+02
2.810000e-06	-3.469909e-06	-1.319147e-08	-2.493232e+01	-8.650437e+02
2.820000e-06	-3.558786e-06	-1.343064e-08	-2.557094e+01	-8.806995e+02
2.830000e-06	-3.646630e-06	-1.365970e-08	-2.620212e+01	-8.955196e+02
2.840000e-06	-3.733301e-06	-1.387823e-08	-2.682488e+01	-9.095658e+02
2.850000e-06	-3.818381e-06	-1.408629e-08	-2.743620e+01	-9.229000e+02
2.860000e-06	-3.902031e-06	-1.428317e-08	-2.803725e+01	-9.355798e+02
2.870000e-06	-3.984430e-06	-1.446806e-08	-2.862932e+01	-9.476547e+02
2.880000e-06	-4.065481e-06	-1.464277e-08	-2.921169e+01	-9.591638e+02
2.890000e-06	-4.145132e-06	-1.480852e-08	-2.978400e+01	-9.701354e+02
2.900000e-06	-4.223064e-06	-1.496788e-08	-3.034397e+01	-9.805877e+02
2.910000e-06	-4.299185e-06	-1.512046e-08	-3.089093e+01	-9.905319e+02
2.920000e-06	-4.373729e-06	-1.526579e-08	-3.142654e+01	-9.999753e+02
2.930000e-06	-4.446675e-06	-1.540258e-08	-3.195068e+01	-1.008925e+03
2.940000e-06	-4.517999e-06	-1.553029e-08	-3.246316e+01	-1.017391e+03
