# Temperatura_=_29.59
# Concentracion g/m^3_=_28200.0
# C_Vs_to_Am_M_A/Vsm_=_65563218390.804596
# pendiente_HvsI_1/m_=_3716.3
# ordenada_HvsI_A/m_=_1297.0
# frecuencia_Hz_=_301954.10725319904

Tiempo_(s)	Campo_(V.s)	Magnetizacion_(V.s)	Campo_(kA/m)	Magnetizacion_(A/m)
0.000000e+00	-5.815181e-06	-1.734221e-08	-4.192394e+01	-1.133918e+03
1.000000e-08	-5.811935e-06	-1.733616e-08	-4.190054e+01	-1.133640e+03
2.000000e-08	-5.806847e-06	-1.732570e-08	-4.186386e+01	-1.133262e+03
3.000000e-08	-5.800038e-06	-1.731652e-08	-4.181477e+01	-1.132761e+03
4.000000e-08	-5.791346e-06	-1.730392e-08	-4.175210e+01	-1.132110e+03
5.000000e-08	-5.780408e-06	-1.728857e-08	-4.167325e+01	-1.131283e+03
6.000000e-08	-5.767341e-06	-1.727283e-08	-4.157904e+01	-1.130264e+03
7.000000e-08	-5.752241e-06	-1.725103e-08	-4.147018e+01	-1.129053e+03
8.000000e-08	-5.735008e-06	-1.724442e-08	-4.134594e+01	-1.127671e+03
9.000000e-08	-5.715733e-06	-1.726563e-08	-4.120698e+01	-1.126152e+03
1.000000e-07	-5.694281e-06	-1.723459e-08	-4.105232e+01	-1.124543e+03
1.100000e-07	-5.670604e-06	-1.717907e-08	-4.088163e+01	-1.122890e+03
1.200000e-07	-5.644773e-06	-1.714577e-08	-4.069540e+01	-1.121227e+03
1.300000e-07	-5.617173e-06	-1.705718e-08	-4.049642e+01	-1.119570e+03
1.400000e-07	-5.588173e-06	-1.699802e-08	-4.028735e+01	-1.117908e+03
1.500000e-07	-5.557616e-06	-1.707508e-08	-4.006705e+01	-1.116209e+03
1.600000e-07	-5.525262e-06	-1.701870e-08	-3.983380e+01	-1.114419e+03
1.700000e-07	-5.491007e-06	-1.698832e-08	-3.958684e+01	-1.112476e+03
1.800000e-07	-5.454844e-06	-1.703366e-08	-3.932613e+01	-1.110321e+03
1.900000e-07	-5.416765e-06	-1.688011e-08	-3.905160e+01	-1.107910e+03
2.000000e-07	-5.376893e-06	-1.679921e-08	-3.876415e+01	-1.105220e+03
2.100000e-07	-5.334995e-06	-1.678403e-08	-3.846209e+01	-1.102251e+03
2.200000e-07	-5.291027e-06	-1.673553e-08	-3.814510e+01	-1.099028e+03
2.300000e-07	-5.245136e-06	-1.674192e-08	-3.781426e+01	-1.095590e+03
2.400000e-07	-5.197102e-06	-1.668796e-08	-3.746796e+01	-1.091978e+03
2.500000e-07	-5.146701e-06	-1.659958e-08	-3.710460e+01	-1.088231e+03
2.600000e-07	-5.093946e-06	-1.653867e-08	-3.672427e+01	-1.084371e+03
2.700000e-07	-5.039280e-06	-1.645105e-08	-3.633016e+01	-1.080404e+03
2.800000e-07	-4.982905e-06	-1.641729e-08	-3.592373e+01	-1.076319e+03
2.900000e-07	-4.924571e-06	-1.637978e-08	-3.550318e+01	-1.072090e+03
3.000000e-07	-4.864340e-06	-1.629052e-08	-3.506895e+01	-1.067687e+03
3.100000e-07	-4.802378e-06	-1.618998e-08	-3.462224e+01	-1.063080e+03
3.200000e-07	-4.738702e-06	-1.612570e-08	-3.416317e+01	-1.058249e+03
3.300000e-07	-4.673259e-06	-1.606483e-08	-3.369137e+01	-1.053184e+03
3.400000e-07	-4.605956e-06	-1.596403e-08	-3.320616e+01	-1.047887e+03
3.500000e-07	-4.536930e-06	-1.589953e-08	-3.270853e+01	-1.042364e+03
3.600000e-07	-4.466391e-06	-1.581292e-08	-3.219998e+01	-1.036627e+03
3.700000e-07	-4.394395e-06	-1.569648e-08	-3.168093e+01	-1.030680e+03
3.800000e-07	-4.320653e-06	-1.561002e-08	-3.114930e+01	-1.024522e+03
3.900000e-07	-4.245048e-06	-1.552721e-08	-3.060423e+01	-1.018137e+03
4.000000e-07	-4.167816e-06	-1.542529e-08	-3.004743e+01	-1.011505e+03
4.100000e-07	-4.088950e-06	-1.530288e-08	-2.947886e+01	-1.004597e+03
4.200000e-07	-4.008483e-06	-1.518709e-08	-2.889874e+01	-9.973849e+02
4.300000e-07	-3.926642e-06	-1.507735e-08	-2.830872e+01	-9.898464e+02
4.400000e-07	-3.843520e-06	-1.496378e-08	-2.770945e+01	-9.819669e+02
4.500000e-07	-3.759209e-06	-1.485037e-08	-2.710162e+01	-9.737414e+02
4.600000e-07	-3.673705e-06	-1.471696e-08	-2.648519e+01	-9.651726e+02
4.700000e-07	-3.587010e-06	-1.456465e-08	-2.586017e+01	-9.562667e+02
4.800000e-07	-3.499198e-06	-1.441104e-08	-2.522710e+01	-9.470287e+02
4.900000e-07	-3.410131e-06	-1.426959e-08	-2.458498e+01	-9.374569e+02
5.000000e-07	-3.319584e-06	-1.412909e-08	-2.393219e+01	-9.275399e+02
5.100000e-07	-3.227734e-06	-1.397089e-08	-2.327001e+01	-9.172557e+02
5.200000e-07	-3.134797e-06	-1.380240e-08	-2.259999e+01	-9.065722e+02
5.300000e-07	-3.040727e-06	-1.362650e-08	-2.192180e+01	-8.954514e+02
5.400000e-07	-2.945570e-06	-1.344619e-08	-2.123578e+01	-8.838523e+02
5.500000e-07	-2.849396e-06	-1.326670e-08	-2.054242e+01	-8.717359e+02
5.600000e-07	-2.752135e-06	-1.308148e-08	-1.984123e+01	-8.590668e+02
5.700000e-07	-2.653615e-06	-1.287792e-08	-1.913096e+01	-8.458146e+02
5.800000e-07	-2.553962e-06	-1.265281e-08	-1.841252e+01	-8.319527e+02
5.900000e-07	-2.453475e-06	-1.242048e-08	-1.768807e+01	-8.174561e+02
6.000000e-07	-2.352141e-06	-1.218715e-08	-1.695752e+01	-8.022978e+02
6.100000e-07	-2.249900e-06	-1.195161e-08	-1.622042e+01	-7.864469e+02
6.200000e-07	-2.146899e-06	-1.170537e-08	-1.547784e+01	-7.698663e+02
6.300000e-07	-2.043199e-06	-1.144153e-08	-1.473023e+01	-7.525123e+02
6.400000e-07	-1.938818e-06	-1.115881e-08	-1.397770e+01	-7.343355e+02
6.500000e-07	-1.833705e-06	-1.086312e-08	-1.321991e+01	-7.152818e+02
6.600000e-07	-1.727750e-06	-1.055826e-08	-1.245603e+01	-6.952940e+02
6.700000e-07	-1.620985e-06	-1.023879e-08	-1.168632e+01	-6.743128e+02
6.800000e-07	-1.513568e-06	-9.901209e-09	-1.091191e+01	-6.522776e+02
6.900000e-07	-1.405631e-06	-9.543194e-09	-1.013375e+01	-6.291267e+02
7.000000e-07	-1.297303e-06	-9.167017e-09	-9.352773e+00	-6.047986e+02
7.100000e-07	-1.188702e-06	-8.774013e-09	-8.569823e+00	-5.792342e+02
7.200000e-07	-1.079790e-06	-8.366527e-09	-7.784633e+00	-5.523809e+02
7.300000e-07	-9.705059e-07	-7.943306e-09	-6.996761e+00	-5.241995e+02
7.400000e-07	-8.608749e-07	-7.496735e-09	-6.206387e+00	-4.946727e+02
7.500000e-07	-7.509398e-07	-7.025211e-09	-5.413822e+00	-4.638139e+02
7.600000e-07	-6.407629e-07	-6.532814e-09	-4.619513e+00	-4.316762e+02
7.700000e-07	-5.304637e-07	-6.022062e-09	-3.824323e+00	-3.983569e+02
7.800000e-07	-4.200288e-07	-5.495429e-09	-3.028154e+00	-3.639985e+02
7.900000e-07	-3.093957e-07	-4.958444e-09	-2.230556e+00	-3.287821e+02
8.000000e-07	-1.986428e-07	-4.413953e-09	-1.432094e+00	-2.929154e+02
8.100000e-07	-8.784143e-08	-3.861909e-09	-6.332836e-01	-2.566140e+02
8.200000e-07	2.298955e-08	-3.308357e-09	1.657407e-01	-2.200796e+02
8.300000e-07	1.338345e-07	-2.756069e-09	9.648658e-01	-1.834768e+02
8.400000e-07	2.447213e-07	-2.202378e-09	1.764293e+00	-1.469136e+02
8.500000e-07	3.555785e-07	-1.643627e-09	2.563506e+00	-1.104276e+02
8.600000e-07	4.662865e-07	-1.084282e-09	3.361644e+00	-7.398132e+01
8.700000e-07	5.768447e-07	-5.269816e-10	4.158702e+00	-3.746790e+01
8.800000e-07	6.872644e-07	3.385843e-11	4.954761e+00	-7.278287e-01
8.900000e-07	7.975038e-07	5.990670e-10	5.749520e+00	3.642608e+01
9.000000e-07	9.075325e-07	1.170513e-09	6.542760e+00	7.417766e+01
9.100000e-07	1.017280e-06	1.753853e-09	7.333975e+00	1.126749e+02
9.200000e-07	1.126626e-06	2.351484e-09	8.122289e+00	1.520003e+02
9.300000e-07	1.235534e-06	2.962275e-09	8.907450e+00	1.921484e+02
9.400000e-07	1.344018e-06	3.583891e-09	9.689554e+00	2.330139e+02
9.500000e-07	1.452153e-06	4.214696e-09	1.046914e+01	2.743918e+02
9.600000e-07	1.559933e-06	4.852082e-09	1.124617e+01	3.159905e+02
9.700000e-07	1.667212e-06	5.487845e-09	1.201959e+01	3.574549e+02
9.800000e-07	1.773779e-06	6.112756e-09	1.278788e+01	3.983979e+02
9.900000e-07	1.879493e-06	6.720602e-09	1.355001e+01	4.384340e+02
1.000000e-06	1.984426e-06	7.308120e-09	1.430651e+01	4.772132e+02
1.010000e-06	2.088572e-06	7.872938e-09	1.505734e+01	5.144477e+02
1.020000e-06	2.191833e-06	8.410827e-09	1.580179e+01	5.499303e+02
1.030000e-06	2.294299e-06	8.920528e-09	1.654051e+01	5.835427e+02
1.040000e-06	2.395974e-06	9.400483e-09	1.727353e+01	6.152515e+02
1.050000e-06	2.496825e-06	9.851416e-09	1.800060e+01	6.450962e+02
1.060000e-06	2.596929e-06	1.027627e-08	1.872229e+01	6.731696e+02
1.070000e-06	2.696145e-06	1.067767e-08	1.943757e+01	6.995963e+02
1.080000e-06	2.794230e-06	1.105768e-08	2.014471e+01	7.245109e+02
1.090000e-06	2.891144e-06	1.141898e-08	2.084340e+01	7.480415e+02
1.100000e-06	2.986949e-06	1.176104e-08	2.153410e+01	7.702978e+02
1.110000e-06	3.081664e-06	1.208093e-08	2.221694e+01	7.913671e+02
1.120000e-06	3.175270e-06	1.237921e-08	2.289178e+01	8.113158e+02
1.130000e-06	3.267891e-06	1.266225e-08	2.355952e+01	8.301955e+02
1.140000e-06	3.359640e-06	1.293211e-08	2.422097e+01	8.480511e+02
1.150000e-06	3.450272e-06	1.318747e-08	2.487437e+01	8.649282e+02
1.160000e-06	3.539578e-06	1.342975e-08	2.551822e+01	8.808787e+02
1.170000e-06	3.627552e-06	1.366014e-08	2.615246e+01	8.959621e+02
1.180000e-06	3.714217e-06	1.387762e-08	2.677726e+01	9.102443e+02
1.190000e-06	3.799601e-06	1.408312e-08	2.739283e+01	9.237927e+02
1.200000e-06	3.883764e-06	1.427744e-08	2.799959e+01	9.366710e+02
1.210000e-06	3.966699e-06	1.446119e-08	2.859750e+01	9.489335e+02
1.220000e-06	4.048168e-06	1.463708e-08	2.918484e+01	9.606220e+02
1.230000e-06	4.128060e-06	1.480500e-08	2.976082e+01	9.717651e+02
1.240000e-06	4.206454e-06	1.496638e-08	3.032599e+01	9.823801e+02
1.250000e-06	4.283357e-06	1.512056e-08	3.088041e+01	9.924765e+02
1.260000e-06	4.358673e-06	1.526835e-08	3.142340e+01	1.002062e+03
1.270000e-06	4.432196e-06	1.540721e-08	3.195345e+01	1.011144e+03
1.280000e-06	4.503893e-06	1.553646e-08	3.247035e+01	1.019738e+03
1.290000e-06	4.573888e-06	1.565722e-08	3.297497e+01	1.027863e+03
1.300000e-06	4.642353e-06	1.577253e-08	3.346856e+01	1.035544e+03
1.310000e-06	4.709295e-06	1.588430e-08	3.395117e+01	1.042807e+03
1.320000e-06	4.774438e-06	1.599076e-08	3.442081e+01	1.049681e+03
1.330000e-06	4.837743e-06	1.608898e-08	3.487720e+01	1.056191e+03
1.340000e-06	4.899373e-06	1.617961e-08	3.532152e+01	1.062360e+03
1.350000e-06	4.959423e-06	1.626558e-08	3.575444e+01	1.068207e+03
1.360000e-06	5.017765e-06	1.634867e-08	3.617506e+01	1.073749e+03
1.370000e-06	5.074214e-06	1.642881e-08	3.658201e+01	1.079006e+03
1.380000e-06	5.128776e-06	1.650447e-08	3.697537e+01	1.083994e+03
1.390000e-06	5.181421e-06	1.657617e-08	3.735491e+01	1.088735e+03
1.400000e-06	5.231936e-06	1.664388e-08	3.771910e+01	1.093248e+03
1.410000e-06	5.280222e-06	1.670818e-08	3.806721e+01	1.097548e+03
1.420000e-06	5.326589e-06	1.677022e-08	3.840149e+01	1.101648e+03
1.430000e-06	5.371299e-06	1.682947e-08	3.872382e+01	1.105552e+03
1.440000e-06	5.414226e-06	1.688499e-08	3.903329e+01	1.109255e+03
1.450000e-06	5.455117e-06	1.693777e-08	3.932810e+01	1.112745e+03
1.460000e-06	5.494005e-06	1.698793e-08	3.960845e+01	1.116007e+03
1.470000e-06	5.531047e-06	1.703335e-08	3.987550e+01	1.119026e+03
1.480000e-06	5.566266e-06	1.707384e-08	4.012941e+01	1.121791e+03
1.490000e-06	5.599505e-06	1.710982e-08	4.036905e+01	1.124302e+03
1.500000e-06	5.630617e-06	1.714352e-08	4.059334e+01	1.126567e+03
1.510000e-06	5.659806e-06	1.717581e-08	4.080378e+01	1.128604e+03
1.520000e-06	5.687163e-06	1.720502e-08	4.100101e+01	1.130439e+03
1.530000e-06	5.712403e-06	1.723010e-08	4.118297e+01	1.132096e+03
1.540000e-06	5.735416e-06	1.724969e-08	4.134888e+01	1.133597e+03
1.550000e-06	5.756455e-06	1.726716e-08	4.150056e+01	1.134955e+03
1.560000e-06	5.775617e-06	1.728472e-08	4.163871e+01	1.136173e+03
1.570000e-06	5.792660e-06	1.730157e-08	4.176157e+01	1.137245e+03
1.580000e-06	5.807423e-06	1.731724e-08	4.186801e+01	1.138158e+03
1.590000e-06	5.819993e-06	1.732926e-08	4.195863e+01	1.138902e+03
1.600000e-06	5.830304e-06	1.733880e-08	4.203297e+01	1.139468e+03
1.610000e-06	5.838346e-06	1.734598e-08	4.209095e+01	1.139860e+03
1.620000e-06	5.844294e-06	1.735078e-08	4.213383e+01	1.140089e+03
1.630000e-06	5.848268e-06	1.735502e-08	4.216248e+01	1.140174e+03
1.640000e-06	5.850185e-06	1.735943e-08	4.217630e+01	1.140140e+03
1.650000e-06	5.849973e-06	1.736050e-08	4.217477e+01	1.140004e+03
1.660000e-06	5.847809e-06	1.735192e-08	4.215917e+01	1.139777e+03
1.670000e-06	5.843867e-06	1.734306e-08	4.213075e+01	1.139457e+03
1.680000e-06	5.837946e-06	1.733578e-08	4.208807e+01	1.139028e+03
1.690000e-06	5.829943e-06	1.732866e-08	4.203036e+01	1.138465e+03
1.700000e-06	5.820115e-06	1.732206e-08	4.195951e+01	1.137740e+03
1.710000e-06	5.808467e-06	1.731551e-08	4.187553e+01	1.136831e+03
1.720000e-06	5.794711e-06	1.731191e-08	4.177637e+01	1.135727e+03
1.730000e-06	5.778936e-06	1.727456e-08	4.166264e+01	1.134439e+03
1.740000e-06	5.761227e-06	1.719752e-08	4.153496e+01	1.132991e+03
1.750000e-06	5.740995e-06	1.718862e-08	4.138911e+01	1.131427e+03
1.760000e-06	5.717921e-06	1.718849e-08	4.122275e+01	1.129793e+03
1.770000e-06	5.692493e-06	1.717550e-08	4.103943e+01	1.128131e+03
1.780000e-06	5.665452e-06	1.724028e-08	4.084448e+01	1.126468e+03
1.790000e-06	5.637480e-06	1.714447e-08	4.064282e+01	1.124811e+03
1.800000e-06	5.608191e-06	1.705631e-08	4.043167e+01	1.123138e+03
1.810000e-06	5.576577e-06	1.712045e-08	4.020375e+01	1.121406e+03
1.820000e-06	5.542939e-06	1.701541e-08	3.996124e+01	1.119557e+03
1.830000e-06	5.507599e-06	1.701939e-08	3.970646e+01	1.117528e+03
1.840000e-06	5.470113e-06	1.708278e-08	3.943621e+01	1.115267e+03
1.850000e-06	5.430563e-06	1.695716e-08	3.915107e+01	1.112736e+03
1.860000e-06	5.389083e-06	1.696552e-08	3.885203e+01	1.109924e+03
1.870000e-06	5.345783e-06	1.688706e-08	3.853986e+01	1.106841e+03
1.880000e-06	5.300833e-06	1.674173e-08	3.821580e+01	1.103520e+03
1.890000e-06	5.253789e-06	1.675229e-08	3.787664e+01	1.100001e+03
1.900000e-06	5.204598e-06	1.668203e-08	3.752200e+01	1.096326e+03
1.910000e-06	5.153405e-06	1.669922e-08	3.715293e+01	1.092527e+03
1.920000e-06	5.100061e-06	1.665064e-08	3.676836e+01	1.088621e+03
1.930000e-06	5.044691e-06	1.649038e-08	3.636917e+01	1.084605e+03
1.940000e-06	4.987386e-06	1.647492e-08	3.595604e+01	1.080460e+03
1.950000e-06	4.928288e-06	1.639597e-08	3.552998e+01	1.076159e+03
1.960000e-06	4.867460e-06	1.633585e-08	3.509145e+01	1.071671e+03
1.970000e-06	4.804747e-06	1.626937e-08	3.463932e+01	1.066969e+03
1.980000e-06	4.740203e-06	1.619089e-08	3.417400e+01	1.062037e+03
1.990000e-06	4.673969e-06	1.613641e-08	3.369649e+01	1.056870e+03
2.000000e-06	4.606234e-06	1.599749e-08	3.320816e+01	1.051474e+03
2.010000e-06	4.536779e-06	1.595793e-08	3.270743e+01	1.045857e+03
2.020000e-06	4.465372e-06	1.588580e-08	3.219263e+01	1.040029e+03
2.030000e-06	4.392349e-06	1.576743e-08	3.166618e+01	1.033991e+03
2.040000e-06	4.317791e-06	1.567863e-08	3.112867e+01	1.027737e+03
2.050000e-06	4.241598e-06	1.555892e-08	3.057936e+01	1.021248e+03
2.060000e-06	4.163699e-06	1.548155e-08	3.001775e+01	1.014500e+03
2.070000e-06	4.084143e-06	1.536741e-08	2.944420e+01	1.007464e+03
2.080000e-06	4.003136e-06	1.526078e-08	2.886019e+01	1.000113e+03
2.090000e-06	3.920843e-06	1.513861e-08	2.826691e+01	9.924282e+02
2.100000e-06	3.837295e-06	1.499934e-08	2.766458e+01	9.843994e+02
2.110000e-06	3.752483e-06	1.489454e-08	2.705313e+01	9.760249e+02
2.120000e-06	3.666255e-06	1.476904e-08	2.643148e+01	9.673097e+02
2.130000e-06	3.578524e-06	1.464090e-08	2.579899e+01	9.582600e+02
2.140000e-06	3.489576e-06	1.448416e-08	2.515773e+01	9.488785e+02
2.150000e-06	3.399441e-06	1.433388e-08	2.450791e+01	9.391596e+02
2.160000e-06	3.308108e-06	1.418057e-08	2.384946e+01	9.290874e+02
2.170000e-06	3.215698e-06	1.402061e-08	2.318324e+01	9.186353e+02
2.180000e-06	3.122162e-06	1.387101e-08	2.250890e+01	9.077681e+02
2.190000e-06	3.027339e-06	1.370509e-08	2.182528e+01	8.964462e+02
2.200000e-06	2.931234e-06	1.351913e-08	2.113243e+01	8.846288e+02
2.210000e-06	2.834061e-06	1.331666e-08	2.043187e+01	8.722784e+02
2.220000e-06	2.735930e-06	1.312605e-08	1.972440e+01	8.593616e+02
2.230000e-06	2.636914e-06	1.293529e-08	1.901056e+01	8.458501e+02
2.240000e-06	2.536981e-06	1.272792e-08	1.829010e+01	8.317182e+02
2.250000e-06	2.436168e-06	1.250065e-08	1.756330e+01	8.169403e+02
2.260000e-06	2.334508e-06	1.225816e-08	1.683039e+01	8.014881e+02
2.270000e-06	2.231821e-06	1.200699e-08	1.609008e+01	7.853282e+02
2.280000e-06	2.128095e-06	1.175070e-08	1.534228e+01	7.684207e+02
2.290000e-06	2.023546e-06	1.149024e-08	1.458854e+01	7.507193e+02
2.300000e-06	1.918377e-06	1.121676e-08	1.383034e+01	7.321724e+02
2.310000e-06	1.812624e-06	1.092287e-08	1.306793e+01	7.127243e+02
2.320000e-06	1.706280e-06	1.060342e-08	1.230125e+01	6.923170e+02
2.330000e-06	1.599444e-06	1.027136e-08	1.153103e+01	6.708904e+02
2.340000e-06	1.492113e-06	9.932030e-09	1.075724e+01	6.483834e+02
2.350000e-06	1.384291e-06	9.579071e-09	9.979903e+00	6.247343e+02
2.360000e-06	1.276075e-06	9.203860e-09	9.199728e+00	5.998822e+02
2.370000e-06	1.167508e-06	8.804096e-09	8.417027e+00	5.737700e+02
2.380000e-06	1.058670e-06	8.383835e-09	7.632370e+00	5.463501e+02
2.390000e-06	9.495098e-07	7.944848e-09	6.845392e+00	5.175915e+02
2.400000e-06	8.400080e-07	7.486182e-09	6.055950e+00	4.874889e+02
2.410000e-06	7.302239e-07	7.007530e-09	5.264473e+00	4.560718e+02
2.420000e-06	6.201769e-07	6.510107e-09	4.471101e+00	4.234120e+02
2.430000e-06	5.098653e-07	5.992072e-09	3.675821e+00	3.896262e+02
2.440000e-06	3.993269e-07	5.457440e-09	2.878906e+00	3.548748e+02
2.450000e-06	2.887069e-07	4.912991e-09	2.081403e+00	3.193522e+02
2.460000e-06	1.779890e-07	4.363503e-09	1.283193e+00	2.832719e+02
2.470000e-06	6.715459e-08	3.807672e-09	4.841440e-01	2.468465e+02
2.480000e-06	-4.371379e-08	3.247128e-09	-3.151500e-01	2.102643e+02
2.490000e-06	-1.545658e-07	2.688106e-09	-1.114326e+00	1.736680e+02
2.500000e-06	-2.653651e-07	2.131612e-09	-1.913122e+00	1.371365e+02
2.510000e-06	-3.760422e-07	1.575192e-09	-2.711037e+00	1.006753e+02
2.520000e-06	-4.865754e-07	1.016851e-09	-3.507914e+00	6.421568e+01
2.530000e-06	-5.969422e-07	4.561351e-10	-4.303593e+00	2.762576e+01
2.540000e-06	-7.070309e-07	-1.097993e-10	-5.097265e+00	-9.269358e+00
2.550000e-06	-8.168017e-07	-6.828702e-10	-5.888647e+00	-4.665942e+01
2.560000e-06	-9.262931e-07	-1.264743e-09	-6.678013e+00	-8.471682e+01
2.570000e-06	-1.035499e-06	-1.858579e-09	-7.465319e+00	-1.235648e+02
2.580000e-06	-1.144411e-06	-2.464359e-09	-8.250513e+00	-1.632503e+02
2.590000e-06	-1.252999e-06	-3.080819e-09	-9.033365e+00	-2.037258e+02
2.600000e-06	-1.361154e-06	-3.707285e-09	-9.813099e+00	-2.448427e+02
2.610000e-06	-1.468805e-06	-4.342191e-09	-1.058920e+01	-2.863564e+02
2.620000e-06	-1.575984e-06	-4.978757e-09	-1.136189e+01	-3.279449e+02
2.630000e-06	-1.682612e-06	-5.608208e-09	-1.213062e+01	-3.692351e+02
2.640000e-06	-1.788588e-06	-6.226986e-09	-1.289464e+01	-4.098364e+02
2.650000e-06	-1.893914e-06	-6.831652e-09	-1.365397e+01	-4.493748e+02
2.660000e-06	-1.998579e-06	-7.416944e-09	-1.440854e+01	-4.875240e+02
2.670000e-06	-2.102523e-06	-7.977988e-09	-1.515792e+01	-5.240290e+02
2.680000e-06	-2.205528e-06	-8.511231e-09	-1.590053e+01	-5.587207e+02
2.690000e-06	-2.307520e-06	-9.014624e-09	-1.663582e+01	-5.915179e+02
2.700000e-06	-2.408555e-06	-9.488418e-09	-1.736422e+01	-6.224205e+02
2.710000e-06	-2.508711e-06	-9.934939e-09	-1.808629e+01	-6.514935e+02
2.720000e-06	-2.608065e-06	-1.035381e-08	-1.880257e+01	-6.788461e+02
2.730000e-06	-2.706539e-06	-1.074666e-08	-1.951251e+01	-7.046094e+02
2.740000e-06	-2.804061e-06	-1.111871e-08	-2.021558e+01	-7.289173e+02
2.750000e-06	-2.900729e-06	-1.147176e-08	-2.091250e+01	-7.518908e+02
2.760000e-06	-2.996524e-06	-1.180577e-08	-2.160312e+01	-7.736301e+02
2.770000e-06	-3.091221e-06	-1.212108e-08	-2.228584e+01	-7.942132e+02
2.780000e-06	-3.184731e-06	-1.241725e-08	-2.295998e+01	-8.136992e+02
2.790000e-06	-3.277034e-06	-1.269705e-08	-2.362543e+01	-8.321358e+02
2.800000e-06	-3.368116e-06	-1.296274e-08	-2.428208e+01	-8.495674e+02
2.810000e-06	-3.457995e-06	-1.321410e-08	-2.493006e+01	-8.660417e+02
2.820000e-06	-3.546710e-06	-1.345288e-08	-2.556964e+01	-8.816140e+02
2.830000e-06	-3.634221e-06	-1.368230e-08	-2.620054e+01	-8.963469e+02
2.840000e-06	-3.720444e-06	-1.390077e-08	-2.682215e+01	-9.103077e+02
2.850000e-06	-3.805299e-06	-1.410748e-08	-2.743390e+01	-9.235627e+02
2.860000e-06	-3.888782e-06	-1.430207e-08	-2.803577e+01	-9.361722e+02
2.870000e-06	-3.970961e-06	-1.448583e-08	-2.862823e+01	-9.481855e+02
2.880000e-06	-4.051848e-06	-1.466037e-08	-2.921137e+01	-9.596387e+02
2.890000e-06	-4.131181e-06	-1.482481e-08	-2.978331e+01	-9.705551e+02
2.900000e-06	-4.208736e-06	-1.498122e-08	-3.034244e+01	-9.809481e+02
2.910000e-06	-4.284595e-06	-1.513094e-08	-3.088934e+01	-9.908257e+02
2.920000e-06	-4.358836e-06	-1.527496e-08	-3.142457e+01	-1.000195e+03
2.930000e-06	-4.431555e-06	-1.541203e-08	-3.194883e+01	-1.009068e+03
2.940000e-06	-4.502612e-06	-1.554116e-08	-3.246111e+01	-1.017459e+03
