# Temperatura_=_75.61
# Concentracion g/m^3_=_28200.0
# C_Vs_to_Am_M_A/Vsm_=_65563218390.804596
# pendiente_HvsI_1/m_=_3716.3
# ordenada_HvsI_A/m_=_1297.0
# frecuencia_Hz_=_301944.6763496353

Tiempo_(s)	Campo_(V.s)	Magnetizacion_(V.s)	Campo_(kA/m)	Magnetizacion_(A/m)
0.000000e+00	-5.834171e-06	-2.249904e-08	-4.194508e+01	-1.473764e+03
1.000000e-08	-5.832512e-06	-2.249825e-08	-4.193316e+01	-1.473440e+03
2.000000e-08	-5.828842e-06	-2.249142e-08	-4.190677e+01	-1.472972e+03
3.000000e-08	-5.823365e-06	-2.247907e-08	-4.186739e+01	-1.472347e+03
4.000000e-08	-5.816116e-06	-2.246437e-08	-4.181528e+01	-1.471545e+03
5.000000e-08	-5.806891e-06	-2.244416e-08	-4.174895e+01	-1.470544e+03
6.000000e-08	-5.795451e-06	-2.242216e-08	-4.166670e+01	-1.469331e+03
7.000000e-08	-5.781899e-06	-2.239928e-08	-4.156927e+01	-1.467899e+03
8.000000e-08	-5.766227e-06	-2.237261e-08	-4.145660e+01	-1.466257e+03
9.000000e-08	-5.748444e-06	-2.237891e-08	-4.132874e+01	-1.464424e+03
1.000000e-07	-5.728628e-06	-2.239521e-08	-4.118628e+01	-1.462430e+03
1.100000e-07	-5.706670e-06	-2.232960e-08	-4.102841e+01	-1.460309e+03
1.200000e-07	-5.682535e-06	-2.225919e-08	-4.085489e+01	-1.458094e+03
1.300000e-07	-5.656230e-06	-2.221553e-08	-4.066577e+01	-1.455806e+03
1.400000e-07	-5.628185e-06	-2.210544e-08	-4.046414e+01	-1.453452e+03
1.500000e-07	-5.598760e-06	-2.209441e-08	-4.025258e+01	-1.451021e+03
1.600000e-07	-5.567723e-06	-2.217703e-08	-4.002944e+01	-1.448484e+03
1.700000e-07	-5.534879e-06	-2.203619e-08	-3.979331e+01	-1.445801e+03
1.800000e-07	-5.500115e-06	-2.201627e-08	-3.954337e+01	-1.442922e+03
1.900000e-07	-5.463408e-06	-2.202466e-08	-3.927946e+01	-1.439803e+03
2.000000e-07	-5.424828e-06	-2.184514e-08	-3.900209e+01	-1.436406e+03
2.100000e-07	-5.384428e-06	-2.185006e-08	-3.871163e+01	-1.432710e+03
2.200000e-07	-5.341931e-06	-2.181262e-08	-3.840610e+01	-1.428711e+03
2.300000e-07	-5.297291e-06	-2.169921e-08	-3.808516e+01	-1.424423e+03
2.400000e-07	-5.250668e-06	-2.166248e-08	-3.774996e+01	-1.419869e+03
2.500000e-07	-5.201826e-06	-2.156540e-08	-3.739880e+01	-1.415082e+03
2.600000e-07	-5.150640e-06	-2.149846e-08	-3.703080e+01	-1.410089e+03
2.700000e-07	-5.097264e-06	-2.144766e-08	-3.664705e+01	-1.404910e+03
2.800000e-07	-5.042027e-06	-2.133232e-08	-3.624992e+01	-1.399554e+03
2.900000e-07	-4.984971e-06	-2.125633e-08	-3.583971e+01	-1.394014e+03
3.000000e-07	-4.925960e-06	-2.116876e-08	-3.541545e+01	-1.388271e+03
3.100000e-07	-4.865128e-06	-2.107189e-08	-3.497810e+01	-1.382300e+03
3.200000e-07	-4.802621e-06	-2.097444e-08	-3.452870e+01	-1.376072e+03
3.300000e-07	-4.738456e-06	-2.088716e-08	-3.406738e+01	-1.369565e+03
3.400000e-07	-4.672393e-06	-2.078263e-08	-3.359241e+01	-1.362761e+03
3.500000e-07	-4.604480e-06	-2.065253e-08	-3.310415e+01	-1.355654e+03
3.600000e-07	-4.534985e-06	-2.055233e-08	-3.260452e+01	-1.348245e+03
3.700000e-07	-4.463938e-06	-2.042439e-08	-3.209372e+01	-1.340538e+03
3.800000e-07	-4.391358e-06	-2.030868e-08	-3.157190e+01	-1.332539e+03
3.900000e-07	-4.316935e-06	-2.019258e-08	-3.103683e+01	-1.324249e+03
4.000000e-07	-4.240644e-06	-2.004386e-08	-3.048834e+01	-1.315661e+03
4.100000e-07	-4.162776e-06	-1.990936e-08	-2.992850e+01	-1.306760e+03
4.200000e-07	-4.083256e-06	-1.977106e-08	-2.935679e+01	-1.297526e+03
4.300000e-07	-4.002181e-06	-1.962502e-08	-2.877389e+01	-1.287933e+03
4.400000e-07	-3.919790e-06	-1.946823e-08	-2.818154e+01	-1.277959e+03
4.500000e-07	-3.836211e-06	-1.931091e-08	-2.758064e+01	-1.267584e+03
4.600000e-07	-3.751507e-06	-1.915022e-08	-2.697166e+01	-1.256797e+03
4.700000e-07	-3.665604e-06	-1.897696e-08	-2.635406e+01	-1.245591e+03
4.800000e-07	-3.578467e-06	-1.880187e-08	-2.572758e+01	-1.233965e+03
4.900000e-07	-3.490143e-06	-1.861865e-08	-2.509257e+01	-1.221920e+03
5.000000e-07	-3.400434e-06	-1.842701e-08	-2.444760e+01	-1.209448e+03
5.100000e-07	-3.309218e-06	-1.822484e-08	-2.379180e+01	-1.196537e+03
5.200000e-07	-3.216837e-06	-1.801756e-08	-2.312762e+01	-1.183162e+03
5.300000e-07	-3.123391e-06	-1.780591e-08	-2.245578e+01	-1.169288e+03
5.400000e-07	-3.028824e-06	-1.758459e-08	-2.177589e+01	-1.154871e+03
5.500000e-07	-2.933261e-06	-1.735537e-08	-2.108884e+01	-1.139864e+03
5.600000e-07	-2.836664e-06	-1.711800e-08	-2.039434e+01	-1.124218e+03
5.700000e-07	-2.738807e-06	-1.686802e-08	-1.969080e+01	-1.107889e+03
5.800000e-07	-2.639711e-06	-1.660764e-08	-1.897834e+01	-1.090838e+03
5.900000e-07	-2.539637e-06	-1.633640e-08	-1.825886e+01	-1.073033e+03
6.000000e-07	-2.438720e-06	-1.605116e-08	-1.753331e+01	-1.054442e+03
6.100000e-07	-2.336918e-06	-1.575042e-08	-1.680140e+01	-1.035033e+03
6.200000e-07	-2.234237e-06	-1.543911e-08	-1.606316e+01	-1.014767e+03
6.300000e-07	-2.130793e-06	-1.511541e-08	-1.531945e+01	-9.935964e+02
6.400000e-07	-2.026662e-06	-1.477672e-08	-1.457079e+01	-9.714588e+02
6.500000e-07	-1.921781e-06	-1.442401e-08	-1.381674e+01	-9.482815e+02
6.600000e-07	-1.816033e-06	-1.405325e-08	-1.305646e+01	-9.239802e+02
6.700000e-07	-1.709401e-06	-1.366243e-08	-1.228983e+01	-8.984631e+02
6.800000e-07	-1.602073e-06	-1.325063e-08	-1.151819e+01	-8.716340e+02
6.900000e-07	-1.494300e-06	-1.281846e-08	-1.074335e+01	-8.433948e+02
7.000000e-07	-1.386162e-06	-1.236344e-08	-9.965884e+00	-8.136480e+02
7.100000e-07	-1.277634e-06	-1.188394e-08	-9.185619e+00	-7.822985e+02
7.200000e-07	-1.168660e-06	-1.137824e-08	-8.402143e+00	-7.492558e+02
7.300000e-07	-1.059270e-06	-1.084612e-08	-7.615682e+00	-7.144384e+02
7.400000e-07	-9.495812e-07	-1.028830e-08	-6.827065e+00	-6.777807e+02
7.500000e-07	-8.396058e-07	-9.702020e-09	-6.036391e+00	-6.392426e+02
7.600000e-07	-7.293736e-07	-9.087741e-09	-5.243871e+00	-5.988222e+02
7.700000e-07	-6.189135e-07	-8.443481e-09	-4.449712e+00	-5.565670e+02
7.800000e-07	-5.082299e-07	-7.771275e-09	-3.653946e+00	-5.125842e+02
7.900000e-07	-3.974114e-07	-7.076246e-09	-2.857210e+00	-4.670433e+02
8.000000e-07	-2.864885e-07	-6.362520e-09	-2.059724e+00	-4.201711e+02
8.100000e-07	-1.754287e-07	-5.632974e-09	-1.261254e+00	-3.722351e+02
8.200000e-07	-6.426007e-08	-4.890747e-09	-4.620012e-01	-3.235184e+02
8.300000e-07	4.696468e-08	-4.143576e-09	3.376550e-01	-2.742867e+02
8.400000e-07	1.582120e-07	-3.394242e-09	1.137474e+00	-2.247533e+02
8.500000e-07	2.694060e-07	-2.640440e-09	1.936909e+00	-1.750491e+02
8.600000e-07	3.804945e-07	-1.881022e-09	2.735586e+00	-1.252019e+02
8.700000e-07	4.914829e-07	-1.118491e-09	3.533542e+00	-7.513307e+01
8.800000e-07	6.023460e-07	-3.478087e-10	4.330598e+00	-2.467163e+01
8.900000e-07	7.130247e-07	4.335599e-10	5.126329e+00	2.641295e+01
9.000000e-07	8.234709e-07	1.228168e-09	5.920388e+00	7.836402e+01
9.100000e-07	9.336600e-07	2.036323e-09	6.712598e+00	1.313839e+02
9.200000e-07	1.043564e-06	2.857606e-09	7.502761e+00	1.855819e+02
9.300000e-07	1.153154e-06	3.695734e-09	8.290665e+00	2.409329e+02
9.400000e-07	1.262369e-06	4.550532e-09	9.075867e+00	2.972541e+02
9.500000e-07	1.371127e-06	5.417887e-09	9.857789e+00	3.542051e+02
9.600000e-07	1.479430e-06	6.289306e-09	1.063644e+01	4.113106e+02
9.700000e-07	1.587349e-06	7.156124e-09	1.141233e+01	4.680031e+02
9.800000e-07	1.694790e-06	8.005428e-09	1.218479e+01	5.236789e+02
9.900000e-07	1.801529e-06	8.827429e-09	1.295219e+01	5.777574e+02
1.000000e-06	1.907414e-06	9.617034e-09	1.371346e+01	6.297358e+02
1.010000e-06	2.012463e-06	1.036761e-08	1.446871e+01	6.792298e+02
1.020000e-06	2.116698e-06	1.107567e-08	1.521812e+01	7.259960e+02
1.030000e-06	2.220131e-06	1.173956e-08	1.596175e+01	7.699345e+02
1.040000e-06	2.322773e-06	1.235969e-08	1.669970e+01	8.110724e+02
1.050000e-06	2.424534e-06	1.294146e-08	1.743132e+01	8.495352e+02
1.060000e-06	2.525452e-06	1.348996e-08	1.815687e+01	8.855106e+02
1.070000e-06	2.625599e-06	1.400454e-08	1.887688e+01	9.192127e+02
1.080000e-06	2.724908e-06	1.448691e-08	1.959087e+01	9.508530e+02
1.090000e-06	2.823151e-06	1.493951e-08	2.029719e+01	9.806201e+02
1.100000e-06	2.920164e-06	1.536558e-08	2.099468e+01	1.008671e+03
1.110000e-06	3.015970e-06	1.576678e-08	2.168348e+01	1.035131e+03
1.120000e-06	3.110673e-06	1.614494e-08	2.236435e+01	1.060104e+03
1.130000e-06	3.204397e-06	1.650242e-08	2.303818e+01	1.083677e+03
1.140000e-06	3.297122e-06	1.684147e-08	2.370484e+01	1.105935e+03
1.150000e-06	3.388868e-06	1.716249e-08	2.436445e+01	1.126965e+03
1.160000e-06	3.479454e-06	1.746500e-08	2.501572e+01	1.146857e+03
1.170000e-06	3.568623e-06	1.775242e-08	2.565681e+01	1.165700e+03
1.180000e-06	3.656424e-06	1.802626e-08	2.628805e+01	1.183581e+03
1.190000e-06	3.743007e-06	1.828630e-08	2.691055e+01	1.200577e+03
1.200000e-06	3.828381e-06	1.853242e-08	2.752435e+01	1.216751e+03
1.210000e-06	3.912551e-06	1.876549e-08	2.812949e+01	1.232151e+03
1.220000e-06	3.995491e-06	1.898559e-08	2.872580e+01	1.246814e+03
1.230000e-06	4.076884e-06	1.919424e-08	2.931097e+01	1.260770e+03
1.240000e-06	4.156618e-06	1.939187e-08	2.988422e+01	1.274046e+03
1.250000e-06	4.234863e-06	1.958093e-08	3.044678e+01	1.286671e+03
1.260000e-06	4.311662e-06	1.976408e-08	3.099892e+01	1.298681e+03
1.270000e-06	4.386850e-06	1.994041e-08	3.153949e+01	1.310116e+03
1.280000e-06	4.460176e-06	2.010663e-08	3.206667e+01	1.321019e+03
1.290000e-06	4.531725e-06	2.026304e-08	3.258108e+01	1.331430e+03
1.300000e-06	4.601643e-06	2.041277e-08	3.308376e+01	1.341383e+03
1.310000e-06	4.669983e-06	2.055869e-08	3.357509e+01	1.350900e+03
1.320000e-06	4.736642e-06	2.070051e-08	3.405434e+01	1.359991e+03
1.330000e-06	4.801406e-06	2.083593e-08	3.451996e+01	1.368658e+03
1.340000e-06	4.864445e-06	2.096218e-08	3.497319e+01	1.376893e+03
1.350000e-06	4.925912e-06	2.107936e-08	3.541510e+01	1.384690e+03
1.360000e-06	4.985815e-06	2.118975e-08	3.584579e+01	1.392048e+03
1.370000e-06	5.043975e-06	2.129540e-08	3.626393e+01	1.398975e+03
1.380000e-06	5.100169e-06	2.139580e-08	3.666794e+01	1.405491e+03
1.390000e-06	5.154514e-06	2.149043e-08	3.705865e+01	1.411627e+03
1.400000e-06	5.206964e-06	2.157906e-08	3.743574e+01	1.417422e+03
1.410000e-06	5.257146e-06	2.166257e-08	3.779653e+01	1.422916e+03
1.420000e-06	5.305153e-06	2.174208e-08	3.814168e+01	1.428142e+03
1.430000e-06	5.351326e-06	2.181819e-08	3.847365e+01	1.433129e+03
1.440000e-06	5.395744e-06	2.189156e-08	3.879299e+01	1.437889e+03
1.450000e-06	5.438288e-06	2.196117e-08	3.909886e+01	1.442425e+03
1.460000e-06	5.478836e-06	2.202776e-08	3.939039e+01	1.446729e+03
1.470000e-06	5.517447e-06	2.208982e-08	3.966798e+01	1.450786e+03
1.480000e-06	5.554204e-06	2.214767e-08	3.993225e+01	1.454581e+03
1.490000e-06	5.589041e-06	2.220165e-08	4.018271e+01	1.458104e+03
1.500000e-06	5.621784e-06	2.225155e-08	4.041812e+01	1.461347e+03
1.510000e-06	5.652511e-06	2.229705e-08	4.063903e+01	1.464312e+03
1.520000e-06	5.681407e-06	2.233903e-08	4.084678e+01	1.467008e+03
1.530000e-06	5.708410e-06	2.237818e-08	4.104092e+01	1.469444e+03
1.540000e-06	5.733252e-06	2.241208e-08	4.121952e+01	1.471633e+03
1.550000e-06	5.755869e-06	2.244009e-08	4.138212e+01	1.473582e+03
1.560000e-06	5.776518e-06	2.246405e-08	4.153059e+01	1.475298e+03
1.570000e-06	5.795244e-06	2.248563e-08	4.166521e+01	1.476784e+03
1.580000e-06	5.811818e-06	2.250596e-08	4.178438e+01	1.478038e+03
1.590000e-06	5.826209e-06	2.252379e-08	4.188784e+01	1.479064e+03
1.600000e-06	5.838414e-06	2.253663e-08	4.197559e+01	1.479866e+03
1.610000e-06	5.848214e-06	2.254604e-08	4.204605e+01	1.480452e+03
1.620000e-06	5.855726e-06	2.255348e-08	4.210005e+01	1.480839e+03
1.630000e-06	5.861233e-06	2.255853e-08	4.213965e+01	1.481044e+03
1.640000e-06	5.864824e-06	2.256238e-08	4.216547e+01	1.481087e+03
1.650000e-06	5.866331e-06	2.256642e-08	4.217630e+01	1.480983e+03
1.660000e-06	5.865694e-06	2.256538e-08	4.217172e+01	1.480740e+03
1.670000e-06	5.863155e-06	2.255398e-08	4.215347e+01	1.480360e+03
1.680000e-06	5.858776e-06	2.254238e-08	4.212198e+01	1.479831e+03
1.690000e-06	5.852339e-06	2.253211e-08	4.207571e+01	1.479138e+03
1.700000e-06	5.843929e-06	2.252160e-08	4.201524e+01	1.478259e+03
1.710000e-06	5.833827e-06	2.251136e-08	4.194261e+01	1.477175e+03
1.720000e-06	5.821767e-06	2.250099e-08	4.185591e+01	1.475874e+03
1.730000e-06	5.807523e-06	2.249086e-08	4.175350e+01	1.474357e+03
1.740000e-06	5.791327e-06	2.242571e-08	4.163706e+01	1.472636e+03
1.750000e-06	5.773098e-06	2.233928e-08	4.150600e+01	1.470734e+03
1.760000e-06	5.752199e-06	2.234386e-08	4.135574e+01	1.468686e+03
1.770000e-06	5.728451e-06	2.233665e-08	4.118500e+01	1.466523e+03
1.780000e-06	5.702525e-06	2.233525e-08	4.099861e+01	1.464276e+03
1.790000e-06	5.675199e-06	2.238315e-08	4.080215e+01	1.461961e+03
1.800000e-06	5.646919e-06	2.221703e-08	4.059883e+01	1.459578e+03
1.810000e-06	5.617024e-06	2.215342e-08	4.038389e+01	1.457109e+03
1.820000e-06	5.584769e-06	2.222359e-08	4.015199e+01	1.454519e+03
1.830000e-06	5.550705e-06	2.208578e-08	3.990709e+01	1.451763e+03
1.840000e-06	5.514922e-06	2.213602e-08	3.964983e+01	1.448794e+03
1.850000e-06	5.476928e-06	2.212895e-08	3.937667e+01	1.445568e+03
1.860000e-06	5.436854e-06	2.192872e-08	3.908855e+01	1.442054e+03
1.870000e-06	5.394828e-06	2.196223e-08	3.878641e+01	1.438238e+03
1.880000e-06	5.351079e-06	2.187656e-08	3.847187e+01	1.434122e+03
1.890000e-06	5.305648e-06	2.178508e-08	3.814524e+01	1.429724e+03
1.900000e-06	5.258004e-06	2.177391e-08	3.780270e+01	1.425074e+03
1.910000e-06	5.208228e-06	2.160184e-08	3.744483e+01	1.420202e+03
1.920000e-06	5.156426e-06	2.161269e-08	3.707240e+01	1.415133e+03
1.930000e-06	5.102434e-06	2.154145e-08	3.668422e+01	1.409884e+03
1.940000e-06	5.046492e-06	2.139643e-08	3.628202e+01	1.404456e+03
1.950000e-06	4.988722e-06	2.137696e-08	3.586668e+01	1.398837e+03
1.960000e-06	4.929191e-06	2.124032e-08	3.543868e+01	1.393007e+03
1.970000e-06	4.867837e-06	2.116645e-08	3.499757e+01	1.386937e+03
1.980000e-06	4.804463e-06	2.104605e-08	3.454194e+01	1.380601e+03
1.990000e-06	4.739280e-06	2.094118e-08	3.407331e+01	1.373977e+03
2.000000e-06	4.672489e-06	2.089690e-08	3.359311e+01	1.367053e+03
2.010000e-06	4.604155e-06	2.074578e-08	3.310182e+01	1.359826e+03
2.020000e-06	4.533986e-06	2.065023e-08	3.259733e+01	1.352298e+03
2.030000e-06	4.461988e-06	2.050592e-08	3.207970e+01	1.344475e+03
2.040000e-06	4.388497e-06	2.039396e-08	3.155134e+01	1.336361e+03
2.050000e-06	4.313385e-06	2.028952e-08	3.101131e+01	1.327953e+03
2.060000e-06	4.236614e-06	2.012416e-08	3.045936e+01	1.319243e+03
2.070000e-06	4.158086e-06	2.001317e-08	2.989478e+01	1.310213e+03
2.080000e-06	4.077954e-06	1.985653e-08	2.931867e+01	1.300840e+03
2.090000e-06	3.996505e-06	1.971294e-08	2.873309e+01	1.291099e+03
2.100000e-06	3.913708e-06	1.955067e-08	2.813781e+01	1.280968e+03
2.110000e-06	3.829649e-06	1.938859e-08	2.753346e+01	1.270431e+03
2.120000e-06	3.744352e-06	1.923549e-08	2.692022e+01	1.259479e+03
2.130000e-06	3.657586e-06	1.904763e-08	2.629641e+01	1.248107e+03
2.140000e-06	3.569404e-06	1.887726e-08	2.566242e+01	1.236315e+03
2.150000e-06	3.480022e-06	1.869049e-08	2.501981e+01	1.224102e+03
2.160000e-06	3.389390e-06	1.850898e-08	2.436820e+01	1.211459e+03
2.170000e-06	3.297602e-06	1.830895e-08	2.370828e+01	1.198368e+03
2.180000e-06	3.204766e-06	1.810281e-08	2.304083e+01	1.184801e+03
2.190000e-06	3.110688e-06	1.788825e-08	2.236446e+01	1.170718e+03
2.200000e-06	3.015219e-06	1.766107e-08	2.167808e+01	1.156074e+03
2.210000e-06	2.918646e-06	1.743285e-08	2.098376e+01	1.140820e+03
2.220000e-06	2.821123e-06	1.718826e-08	2.028262e+01	1.124910e+03
2.230000e-06	2.722595e-06	1.693709e-08	1.957424e+01	1.108300e+03
2.240000e-06	2.623106e-06	1.667296e-08	1.885896e+01	1.090956e+03
2.250000e-06	2.522756e-06	1.640568e-08	1.813749e+01	1.072844e+03
2.260000e-06	2.421609e-06	1.612135e-08	1.741028e+01	1.053935e+03
2.270000e-06	2.319451e-06	1.581993e-08	1.667582e+01	1.034193e+03
2.280000e-06	2.216132e-06	1.550494e-08	1.593300e+01	1.013577e+03
2.290000e-06	2.111913e-06	1.517588e-08	1.518371e+01	9.920334e+02
2.300000e-06	2.007035e-06	1.483265e-08	1.442968e+01	9.694956e+02
2.310000e-06	1.901516e-06	1.447311e-08	1.367105e+01	9.458861e+02
2.320000e-06	1.795398e-06	1.409955e-08	1.290811e+01	9.211173e+02
2.330000e-06	1.688761e-06	1.370504e-08	1.214144e+01	8.950953e+02
2.340000e-06	1.581583e-06	1.328885e-08	1.137087e+01	8.677227e+02
2.350000e-06	1.473833e-06	1.284987e-08	1.059620e+01	8.389017e+02
2.360000e-06	1.365643e-06	1.239075e-08	9.818362e+00	8.085353e+02
2.370000e-06	1.257131e-06	1.190478e-08	9.038207e+00	7.765299e+02
2.380000e-06	1.148332e-06	1.139049e-08	8.255995e+00	7.427979e+02
2.390000e-06	1.039234e-06	1.084793e-08	7.471628e+00	7.072630e+02
2.400000e-06	9.298069e-07	1.027658e-08	6.684897e+00	6.698683e+02
2.410000e-06	8.200086e-07	9.677333e-09	5.895495e+00	6.305874e+02
2.420000e-06	7.098452e-07	9.048413e-09	5.103470e+00	5.894362e+02
2.430000e-06	5.993620e-07	8.391549e-09	4.309145e+00	5.464849e+02
2.440000e-06	4.886670e-07	7.709683e-09	3.513298e+00	5.018653e+02
2.450000e-06	3.778122e-07	7.007098e-09	2.716301e+00	4.557704e+02
2.460000e-06	2.668236e-07	6.283169e-09	1.918342e+00	4.084457e+02
2.470000e-06	1.556908e-07	5.543063e-09	1.119347e+00	3.601683e+02
2.480000e-06	4.446085e-08	4.794367e-09	3.196537e-01	3.112186e+02
2.490000e-06	-6.673636e-08	4.040524e-09	-4.798046e-01	2.618457e+02
2.500000e-06	-1.779444e-07	3.280401e-09	-1.279341e+00	2.122339e+02
2.510000e-06	-2.891021e-07	2.517309e-09	-2.078515e+00	1.624750e+02
2.520000e-06	-4.001302e-07	1.754788e-09	-2.876757e+00	1.125547e+02
2.530000e-06	-5.110330e-07	9.882040e-10	-3.674099e+00	6.235505e+01
2.540000e-06	-6.217410e-07	2.135590e-10	-4.470040e+00	1.167702e+01
2.550000e-06	-7.321270e-07	-5.724488e-10	-5.263666e+00	-3.972114e+01
2.560000e-06	-8.421779e-07	-1.372736e-09	-6.054883e+00	-9.207319e+01
2.570000e-06	-9.519159e-07	-2.189573e-09	-6.843850e+00	-1.455507e+02
2.580000e-06	-1.061253e-06	-3.024827e-09	-7.629935e+00	-2.002142e+02
2.590000e-06	-1.170223e-06	-3.874816e-09	-8.413379e+00	-2.559783e+02
2.600000e-06	-1.278876e-06	-4.736739e-09	-9.194549e+00	-3.125969e+02
2.610000e-06	-1.387190e-06	-5.608031e-09	-9.973274e+00	-3.696727e+02
2.620000e-06	-1.495078e-06	-6.481480e-09	-1.074895e+01	-4.266881e+02
2.630000e-06	-1.602412e-06	-7.348694e-09	-1.152063e+01	-4.830543e+02
2.640000e-06	-1.709157e-06	-8.196550e-09	-1.228808e+01	-5.381698e+02
2.650000e-06	-1.815314e-06	-9.012263e-09	-1.305130e+01	-5.914785e+02
2.660000e-06	-1.920831e-06	-9.790355e-09	-1.380992e+01	-6.425203e+02
2.670000e-06	-2.025664e-06	-1.052994e-08	-1.456362e+01	-6.909648e+02
2.680000e-06	-2.129773e-06	-1.122947e-08	-1.531212e+01	-7.366256e+02
2.690000e-06	-2.233024e-06	-1.188554e-08	-1.605444e+01	-7.794556e+02
2.700000e-06	-2.335250e-06	-1.250031e-08	-1.678941e+01	-8.195245e+02
2.710000e-06	-2.436459e-06	-1.307773e-08	-1.751705e+01	-8.569866e+02
2.720000e-06	-2.536774e-06	-1.361846e-08	-1.823827e+01	-8.920441e+02
2.730000e-06	-2.636205e-06	-1.412341e-08	-1.895314e+01	-9.249131e+02
2.740000e-06	-2.734747e-06	-1.459644e-08	-1.966161e+01	-9.557979e+02
2.750000e-06	-2.832345e-06	-1.504250e-08	-2.036329e+01	-9.848749e+02
2.760000e-06	-2.929072e-06	-1.546022e-08	-2.105872e+01	-1.012289e+03
2.770000e-06	-3.024949e-06	-1.585329e-08	-2.174803e+01	-1.038154e+03
2.780000e-06	-3.119714e-06	-1.622716e-08	-2.242935e+01	-1.062568e+03
2.790000e-06	-3.213226e-06	-1.657886e-08	-2.310166e+01	-1.085616e+03
2.800000e-06	-3.305499e-06	-1.690936e-08	-2.376506e+01	-1.107382e+03
2.810000e-06	-3.396603e-06	-1.722260e-08	-2.442006e+01	-1.127955e+03
2.820000e-06	-3.486517e-06	-1.752138e-08	-2.506650e+01	-1.147425e+03
2.830000e-06	-3.575270e-06	-1.780601e-08	-2.570459e+01	-1.165882e+03
2.840000e-06	-3.662887e-06	-1.807487e-08	-2.633452e+01	-1.183408e+03
2.850000e-06	-3.749069e-06	-1.832933e-08	-2.695413e+01	-1.200075e+03
2.860000e-06	-3.833759e-06	-1.857154e-08	-2.756302e+01	-1.215941e+03
2.870000e-06	-3.917193e-06	-1.880315e-08	-2.816287e+01	-1.231049e+03
2.880000e-06	-3.999295e-06	-1.902552e-08	-2.875315e+01	-1.245432e+03
2.890000e-06	-4.079991e-06	-1.923793e-08	-2.933332e+01	-1.259119e+03
2.900000e-06	-4.159122e-06	-1.943809e-08	-2.990223e+01	-1.272137e+03
2.910000e-06	-4.236490e-06	-1.962682e-08	-3.045847e+01	-1.284517e+03
2.920000e-06	-4.312143e-06	-1.980755e-08	-3.100238e+01	-1.296297e+03
2.930000e-06	-4.386245e-06	-1.998038e-08	-3.153514e+01	-1.307519e+03
2.940000e-06	-4.458824e-06	-2.014333e-08	-3.205696e+01	-1.318225e+03
