# Temperatura_=_70.75
# Concentracion g/m^3_=_28200.0
# C_Vs_to_Am_M_A/Vsm_=_65563218390.804596
# pendiente_HvsI_1/m_=_3716.3
# ordenada_HvsI_A/m_=_1297.0
# frecuencia_Hz_=_301947.6157895304

Tiempo_(s)	Campo_(V.s)	Magnetizacion_(V.s)	Campo_(kA/m)	Magnetizacion_(A/m)
0.000000e+00	-5.838355e-06	-2.135852e-08	-4.193020e+01	-1.398615e+03
1.000000e-08	-5.835116e-06	-2.135382e-08	-4.190694e+01	-1.398263e+03
2.000000e-08	-5.829978e-06	-2.134483e-08	-4.187004e+01	-1.397769e+03
3.000000e-08	-5.823092e-06	-2.133440e-08	-4.182059e+01	-1.397113e+03
4.000000e-08	-5.814339e-06	-2.131964e-08	-4.175773e+01	-1.396273e+03
5.000000e-08	-5.803399e-06	-2.130018e-08	-4.167915e+01	-1.395227e+03
6.000000e-08	-5.790279e-06	-2.128048e-08	-4.158493e+01	-1.393964e+03
7.000000e-08	-5.775065e-06	-2.126028e-08	-4.147566e+01	-1.392481e+03
8.000000e-08	-5.757694e-06	-2.124537e-08	-4.135091e+01	-1.390792e+03
9.000000e-08	-5.738228e-06	-2.125075e-08	-4.121111e+01	-1.388920e+03
1.000000e-07	-5.716646e-06	-2.121961e-08	-4.105611e+01	-1.386899e+03
1.100000e-07	-5.692880e-06	-2.115363e-08	-4.088543e+01	-1.384763e+03
1.200000e-07	-5.666907e-06	-2.110528e-08	-4.069889e+01	-1.382544e+03
1.300000e-07	-5.639120e-06	-2.104975e-08	-4.049933e+01	-1.380261e+03
1.400000e-07	-5.609942e-06	-2.099057e-08	-4.028978e+01	-1.377919e+03
1.500000e-07	-5.579216e-06	-2.102066e-08	-4.006911e+01	-1.375504e+03
1.600000e-07	-5.546679e-06	-2.098467e-08	-3.983543e+01	-1.372987e+03
1.700000e-07	-5.512235e-06	-2.088372e-08	-3.958806e+01	-1.370326e+03
1.800000e-07	-5.475901e-06	-2.089209e-08	-3.932711e+01	-1.367474e+03
1.900000e-07	-5.437679e-06	-2.081055e-08	-3.905261e+01	-1.364387e+03
2.000000e-07	-5.397572e-06	-2.073071e-08	-3.876457e+01	-1.361029e+03
2.100000e-07	-5.355368e-06	-2.074196e-08	-3.846146e+01	-1.357382e+03
2.200000e-07	-5.311076e-06	-2.066784e-08	-3.814337e+01	-1.353442e+03
2.300000e-07	-5.264909e-06	-2.058978e-08	-3.781180e+01	-1.349222e+03
2.400000e-07	-5.216567e-06	-2.051644e-08	-3.746461e+01	-1.344744e+03
2.500000e-07	-5.165763e-06	-2.042788e-08	-3.709975e+01	-1.340038e+03
2.600000e-07	-5.112747e-06	-2.036987e-08	-3.671899e+01	-1.335129e+03
2.700000e-07	-5.057854e-06	-2.027949e-08	-3.632476e+01	-1.330037e+03
2.800000e-07	-5.001196e-06	-2.020805e-08	-3.591785e+01	-1.324767e+03
2.900000e-07	-4.942624e-06	-2.012923e-08	-3.549720e+01	-1.319313e+03
3.000000e-07	-4.882120e-06	-2.002413e-08	-3.506266e+01	-1.313658e+03
3.100000e-07	-4.819856e-06	-1.993264e-08	-3.461550e+01	-1.307777e+03
3.200000e-07	-4.755868e-06	-1.984223e-08	-3.415594e+01	-1.301646e+03
3.300000e-07	-4.690102e-06	-1.975774e-08	-3.368362e+01	-1.295242e+03
3.400000e-07	-4.622533e-06	-1.965072e-08	-3.319835e+01	-1.288552e+03
3.500000e-07	-4.553245e-06	-1.953702e-08	-3.270073e+01	-1.281568e+03
3.600000e-07	-4.482386e-06	-1.942298e-08	-3.219183e+01	-1.274292e+03
3.700000e-07	-4.410101e-06	-1.930466e-08	-3.167270e+01	-1.266727e+03
3.800000e-07	-4.336071e-06	-1.919508e-08	-3.114103e+01	-1.258877e+03
3.900000e-07	-4.260119e-06	-1.906667e-08	-3.059554e+01	-1.250742e+03
4.000000e-07	-4.182503e-06	-1.893483e-08	-3.003812e+01	-1.242316e+03
4.100000e-07	-4.103250e-06	-1.880549e-08	-2.946893e+01	-1.233583e+03
4.200000e-07	-4.022368e-06	-1.866173e-08	-2.888806e+01	-1.224525e+03
4.300000e-07	-3.940139e-06	-1.851679e-08	-2.829750e+01	-1.215120e+03
4.400000e-07	-3.856783e-06	-1.836372e-08	-2.769884e+01	-1.205348e+03
4.500000e-07	-3.772266e-06	-1.821283e-08	-2.709186e+01	-1.195193e+03
4.600000e-07	-3.686524e-06	-1.805075e-08	-2.647607e+01	-1.184644e+03
4.700000e-07	-3.599597e-06	-1.788124e-08	-2.585177e+01	-1.173694e+03
4.800000e-07	-3.511513e-06	-1.771165e-08	-2.521917e+01	-1.162339e+03
4.900000e-07	-3.422023e-06	-1.753356e-08	-2.457646e+01	-1.150573e+03
5.000000e-07	-3.331027e-06	-1.734608e-08	-2.392295e+01	-1.138384e+03
5.100000e-07	-3.238793e-06	-1.714617e-08	-2.326053e+01	-1.125750e+03
5.200000e-07	-3.145474e-06	-1.694449e-08	-2.259033e+01	-1.112643e+03
5.300000e-07	-3.051098e-06	-1.673400e-08	-2.191254e+01	-1.099023e+03
5.400000e-07	-2.955700e-06	-1.651723e-08	-2.122740e+01	-1.084848e+03
5.500000e-07	-2.859204e-06	-1.629175e-08	-2.053438e+01	-1.070071e+03
5.600000e-07	-2.761433e-06	-1.605416e-08	-1.983221e+01	-1.054652e+03
5.700000e-07	-2.662439e-06	-1.580458e-08	-1.912124e+01	-1.038553e+03
5.800000e-07	-2.562447e-06	-1.554692e-08	-1.840312e+01	-1.021743e+03
5.900000e-07	-2.461620e-06	-1.528366e-08	-1.767899e+01	-1.004193e+03
6.000000e-07	-2.359935e-06	-1.500687e-08	-1.694871e+01	-9.858741e+02
6.100000e-07	-2.257362e-06	-1.471501e-08	-1.621204e+01	-9.667531e+02
6.200000e-07	-2.154027e-06	-1.440538e-08	-1.546990e+01	-9.467868e+02
6.300000e-07	-2.050025e-06	-1.408202e-08	-1.472298e+01	-9.259200e+02
6.400000e-07	-1.945226e-06	-1.374658e-08	-1.397033e+01	-9.040851e+02
6.500000e-07	-1.839456e-06	-1.339760e-08	-1.321071e+01	-8.812031e+02
6.600000e-07	-1.732823e-06	-1.303130e-08	-1.244488e+01	-8.571869e+02
6.700000e-07	-1.625533e-06	-1.264453e-08	-1.167434e+01	-8.319448e+02
6.800000e-07	-1.517752e-06	-1.223561e-08	-1.090027e+01	-8.053840e+02
6.900000e-07	-1.409554e-06	-1.180469e-08	-1.012321e+01	-7.774132e+02
7.000000e-07	-1.300895e-06	-1.135326e-08	-9.342839e+00	-7.479441e+02
7.100000e-07	-1.191857e-06	-1.087878e-08	-8.559738e+00	-7.168936e+02
7.200000e-07	-1.082428e-06	-1.038283e-08	-7.773838e+00	-6.841863e+02
7.300000e-07	-9.726576e-07	-9.860248e-09	-6.985484e+00	-6.497601e+02
7.400000e-07	-8.626614e-07	-9.308119e-09	-6.195507e+00	-6.135743e+02
7.500000e-07	-7.523582e-07	-8.728563e-09	-5.403326e+00	-5.756199e+02
7.600000e-07	-6.417730e-07	-8.122843e-09	-4.609119e+00	-5.359321e+02
7.700000e-07	-5.309810e-07	-7.491401e-09	-3.813428e+00	-4.946000e+02
7.800000e-07	-4.200347e-07	-6.838367e-09	-3.016628e+00	-4.517726e+02
7.900000e-07	-3.090333e-07	-6.169486e-09	-2.219432e+00	-4.076559e+02
8.000000e-07	-1.979292e-07	-5.484278e-09	-1.421499e+00	-3.625008e+02
8.100000e-07	-8.670474e-08	-4.784637e-09	-6.227007e-01	-3.165802e+02
8.200000e-07	2.456829e-08	-4.076662e-09	1.764458e-01	-2.701589e+02
8.300000e-07	1.358093e-07	-3.365996e-09	9.753624e-01	-2.234590e+02
8.400000e-07	2.470205e-07	-2.653403e-09	1.774065e+00	-1.766276e+02
8.500000e-07	3.582104e-07	-1.938384e-09	2.572615e+00	-1.297142e+02
8.600000e-07	4.692961e-07	-1.221433e-09	3.370416e+00	-8.266168e+01
8.700000e-07	5.802713e-07	-5.012455e-10	4.167423e+00	-3.531571e+01
8.800000e-07	6.911312e-07	2.268543e-10	4.963602e+00	1.254699e+01
8.900000e-07	8.017965e-07	9.689568e-10	5.758385e+00	6.117552e+01
9.000000e-07	9.122218e-07	1.726051e-09	6.551443e+00	1.107925e+02
9.100000e-07	1.022352e-06	2.498848e-09	7.342383e+00	1.615413e+02
9.200000e-07	1.132143e-06	3.288418e-09	8.130885e+00	2.134421e+02
9.300000e-07	1.241554e-06	4.092875e-09	8.916660e+00	2.663647e+02
9.400000e-07	1.350545e-06	4.908037e-09	9.699412e+00	3.200229e+02
9.500000e-07	1.459153e-06	5.728801e-09	1.047942e+01	3.739923e+02
9.600000e-07	1.567271e-06	6.547886e-09	1.125591e+01	4.277485e+02
9.700000e-07	1.674805e-06	7.355093e-09	1.202820e+01	4.807197e+02
9.800000e-07	1.781756e-06	8.139382e-09	1.279631e+01	5.323441e+02
9.900000e-07	1.887995e-06	8.893256e-09	1.355930e+01	5.821244e+02
1.000000e-06	1.993357e-06	9.613572e-09	1.431600e+01	6.296695e+02
1.010000e-06	2.097779e-06	1.029636e-08	1.506594e+01	6.747191e+02
1.020000e-06	2.201309e-06	1.093976e-08	1.580948e+01	7.171488e+02
1.030000e-06	2.304126e-06	1.154042e-08	1.654789e+01	7.569569e+02
1.040000e-06	2.406214e-06	1.210243e-08	1.728107e+01	7.942384e+02
1.050000e-06	2.507404e-06	1.263099e-08	1.800780e+01	8.291513e+02
1.060000e-06	2.607740e-06	1.312820e-08	1.872840e+01	8.618830e+02
1.070000e-06	2.707258e-06	1.359719e-08	1.944313e+01	8.926224e+02
1.080000e-06	2.805848e-06	1.403808e-08	2.015119e+01	9.215405e+02
1.090000e-06	2.903282e-06	1.445146e-08	2.085094e+01	9.487819e+02
1.100000e-06	2.999446e-06	1.483887e-08	2.154158e+01	9.744651e+02
1.110000e-06	3.094493e-06	1.520608e-08	2.222419e+01	9.986888e+02
1.120000e-06	3.188518e-06	1.555309e-08	2.289946e+01	1.021541e+03
1.130000e-06	3.281509e-06	1.588141e-08	2.356731e+01	1.043108e+03
1.140000e-06	3.373513e-06	1.619157e-08	2.422807e+01	1.063477e+03
1.150000e-06	3.464508e-06	1.648456e-08	2.488159e+01	1.082739e+03
1.160000e-06	3.554175e-06	1.676180e-08	2.552556e+01	1.100985e+03
1.170000e-06	3.642362e-06	1.702459e-08	2.615891e+01	1.118300e+03
1.180000e-06	3.729277e-06	1.727424e-08	2.678312e+01	1.134761e+03
1.190000e-06	3.815002e-06	1.751250e-08	2.739878e+01	1.150427e+03
1.200000e-06	3.899476e-06	1.773981e-08	2.800546e+01	1.165347e+03
1.210000e-06	3.982722e-06	1.795374e-08	2.860332e+01	1.179557e+03
1.220000e-06	4.064553e-06	1.815672e-08	2.919102e+01	1.193085e+03
1.230000e-06	4.144710e-06	1.834977e-08	2.976670e+01	1.205958e+03
1.240000e-06	4.223285e-06	1.853483e-08	3.033101e+01	1.218204e+03
1.250000e-06	4.300432e-06	1.871222e-08	3.088507e+01	1.229856e+03
1.260000e-06	4.376035e-06	1.888168e-08	3.142804e+01	1.240951e+03
1.270000e-06	4.449843e-06	1.904257e-08	3.195812e+01	1.251525e+03
1.280000e-06	4.521819e-06	1.919563e-08	3.247504e+01	1.261613e+03
1.290000e-06	4.592104e-06	1.934142e-08	3.297982e+01	1.271239e+03
1.300000e-06	4.660833e-06	1.947890e-08	3.347341e+01	1.280421e+03
1.310000e-06	4.727982e-06	1.961175e-08	3.395567e+01	1.289165e+03
1.320000e-06	4.793292e-06	1.974182e-08	3.442471e+01	1.297471e+03
1.330000e-06	4.856768e-06	1.986458e-08	3.488059e+01	1.305336e+03
1.340000e-06	4.918618e-06	1.997790e-08	3.532479e+01	1.312763e+03
1.350000e-06	4.978879e-06	2.008401e-08	3.575757e+01	1.319759e+03
1.360000e-06	5.037448e-06	2.018355e-08	3.617821e+01	1.326344e+03
1.370000e-06	5.094113e-06	2.027620e-08	3.658517e+01	1.332550e+03
1.380000e-06	5.148858e-06	2.036438e-08	3.697834e+01	1.338414e+03
1.390000e-06	5.201716e-06	2.044831e-08	3.735796e+01	1.343978e+03
1.400000e-06	5.252489e-06	2.052740e-08	3.772260e+01	1.349281e+03
1.410000e-06	5.301028e-06	2.060271e-08	3.807120e+01	1.354352e+03
1.420000e-06	5.347571e-06	2.067603e-08	3.840547e+01	1.359208e+03
1.430000e-06	5.392345e-06	2.074787e-08	3.872703e+01	1.363853e+03
1.440000e-06	5.435335e-06	2.081784e-08	3.903578e+01	1.368279e+03
1.450000e-06	5.476341e-06	2.088369e-08	3.933027e+01	1.372471e+03
1.460000e-06	5.515326e-06	2.094448e-08	3.961026e+01	1.376410e+03
1.470000e-06	5.552492e-06	2.099935e-08	3.987718e+01	1.380080e+03
1.480000e-06	5.587865e-06	2.104831e-08	4.013123e+01	1.383474e+03
1.490000e-06	5.621156e-06	2.109472e-08	4.037032e+01	1.386589e+03
1.500000e-06	5.652339e-06	2.114039e-08	4.059427e+01	1.389436e+03
1.510000e-06	5.681685e-06	2.118376e-08	4.080503e+01	1.392026e+03
1.520000e-06	5.709120e-06	2.122037e-08	4.100206e+01	1.394378e+03
1.530000e-06	5.734436e-06	2.125174e-08	4.118387e+01	1.396505e+03
1.540000e-06	5.757517e-06	2.127935e-08	4.134964e+01	1.398417e+03
1.550000e-06	5.778541e-06	2.130247e-08	4.150063e+01	1.400120e+03
1.560000e-06	5.797676e-06	2.132276e-08	4.163806e+01	1.401613e+03
1.570000e-06	5.814716e-06	2.134135e-08	4.176043e+01	1.402893e+03
1.580000e-06	5.829554e-06	2.135789e-08	4.186700e+01	1.403959e+03
1.590000e-06	5.842299e-06	2.137099e-08	4.195853e+01	1.404810e+03
1.600000e-06	5.852738e-06	2.138097e-08	4.203350e+01	1.405455e+03
1.610000e-06	5.860789e-06	2.139033e-08	4.209132e+01	1.405905e+03
1.620000e-06	5.866730e-06	2.139856e-08	4.213399e+01	1.406178e+03
1.630000e-06	5.870723e-06	2.140426e-08	4.216266e+01	1.406294e+03
1.640000e-06	5.872621e-06	2.140688e-08	4.217630e+01	1.406270e+03
1.650000e-06	5.872363e-06	2.140699e-08	4.217444e+01	1.406117e+03
1.660000e-06	5.870177e-06	2.140100e-08	4.215875e+01	1.405839e+03
1.670000e-06	5.866216e-06	2.139093e-08	4.213030e+01	1.405427e+03
1.680000e-06	5.860299e-06	2.138146e-08	4.208780e+01	1.404865e+03
1.690000e-06	5.852303e-06	2.137174e-08	4.203038e+01	1.404131e+03
1.700000e-06	5.842446e-06	2.136172e-08	4.195959e+01	1.403204e+03
1.710000e-06	5.830782e-06	2.135097e-08	4.187582e+01	1.402064e+03
1.720000e-06	5.817021e-06	2.133397e-08	4.177699e+01	1.400705e+03
1.730000e-06	5.801182e-06	2.130211e-08	4.166324e+01	1.399130e+03
1.740000e-06	5.783368e-06	2.122662e-08	4.153529e+01	1.397358e+03
1.750000e-06	5.763086e-06	2.119744e-08	4.138964e+01	1.395416e+03
1.760000e-06	5.739916e-06	2.120352e-08	4.122323e+01	1.393340e+03
1.770000e-06	5.714320e-06	2.118361e-08	4.103941e+01	1.391164e+03
1.780000e-06	5.687168e-06	2.119243e-08	4.084440e+01	1.388914e+03
1.790000e-06	5.659060e-06	2.113477e-08	4.064254e+01	1.386605e+03
1.800000e-06	5.629646e-06	2.100671e-08	4.043129e+01	1.384233e+03
1.810000e-06	5.597915e-06	2.104243e-08	4.020340e+01	1.381777e+03
1.820000e-06	5.564116e-06	2.103177e-08	3.996066e+01	1.379203e+03
1.830000e-06	5.528634e-06	2.098065e-08	3.970583e+01	1.376464e+03
1.840000e-06	5.491015e-06	2.103271e-08	3.943566e+01	1.373515e+03
1.850000e-06	5.451310e-06	2.089777e-08	3.915051e+01	1.370314e+03
1.860000e-06	5.409692e-06	2.080479e-08	3.885161e+01	1.366833e+03
1.870000e-06	5.366271e-06	2.080058e-08	3.853977e+01	1.363058e+03
1.880000e-06	5.321225e-06	2.069255e-08	3.821626e+01	1.358994e+03
1.890000e-06	5.274072e-06	2.067719e-08	3.787761e+01	1.354658e+03
1.900000e-06	5.224660e-06	2.060866e-08	3.752273e+01	1.350078e+03
1.910000e-06	5.173182e-06	2.052512e-08	3.715303e+01	1.345281e+03
1.920000e-06	5.119509e-06	2.049287e-08	3.676756e+01	1.340290e+03
1.930000e-06	5.063852e-06	2.034689e-08	3.636784e+01	1.335121e+03
1.940000e-06	5.006369e-06	2.030874e-08	3.595500e+01	1.329772e+03
1.950000e-06	4.947083e-06	2.023022e-08	3.552922e+01	1.324233e+03
1.960000e-06	4.886009e-06	2.011537e-08	3.509060e+01	1.318483e+03
1.970000e-06	4.822984e-06	2.004713e-08	3.463796e+01	1.312496e+03
1.980000e-06	4.758155e-06	1.991685e-08	3.417237e+01	1.306249e+03
1.990000e-06	4.691699e-06	1.985566e-08	3.369509e+01	1.299722e+03
2.000000e-06	4.623637e-06	1.974531e-08	3.320628e+01	1.292905e+03
2.010000e-06	4.553788e-06	1.962741e-08	3.270464e+01	1.285794e+03
2.020000e-06	4.482066e-06	1.953384e-08	3.218954e+01	1.278392e+03
2.030000e-06	4.408766e-06	1.939517e-08	3.166311e+01	1.270703e+03
2.040000e-06	4.333863e-06	1.929411e-08	3.112516e+01	1.262730e+03
2.050000e-06	4.257297e-06	1.914776e-08	3.057528e+01	1.254470e+03
2.060000e-06	4.179007e-06	1.902444e-08	3.001302e+01	1.245913e+03
2.070000e-06	4.099141e-06	1.889841e-08	2.943943e+01	1.237042e+03
2.080000e-06	4.017883e-06	1.874899e-08	2.885584e+01	1.227837e+03
2.090000e-06	3.935232e-06	1.861667e-08	2.826226e+01	1.218276e+03
2.100000e-06	3.851314e-06	1.845745e-08	2.765957e+01	1.208340e+03
2.110000e-06	3.766122e-06	1.831407e-08	2.704773e+01	1.198015e+03
2.120000e-06	3.679493e-06	1.814012e-08	2.642558e+01	1.187293e+03
2.130000e-06	3.591447e-06	1.796532e-08	2.579324e+01	1.176169e+03
2.140000e-06	3.502113e-06	1.779223e-08	2.515166e+01	1.164638e+03
2.150000e-06	3.411597e-06	1.760937e-08	2.450158e+01	1.152691e+03
2.160000e-06	3.319990e-06	1.742703e-08	2.384368e+01	1.140313e+03
2.170000e-06	3.227233e-06	1.723212e-08	2.317751e+01	1.127479e+03
2.180000e-06	3.133189e-06	1.703769e-08	2.250210e+01	1.114156e+03
2.190000e-06	3.037808e-06	1.682410e-08	2.181709e+01	1.100302e+03
2.200000e-06	2.941325e-06	1.660642e-08	2.112416e+01	1.085873e+03
2.210000e-06	2.843881e-06	1.637916e-08	2.042434e+01	1.070824e+03
2.220000e-06	2.745480e-06	1.614202e-08	1.971763e+01	1.055117e+03
2.230000e-06	2.646147e-06	1.589229e-08	1.900424e+01	1.038715e+03
2.240000e-06	2.545912e-06	1.562908e-08	1.828437e+01	1.021589e+03
2.250000e-06	2.444777e-06	1.535668e-08	1.755803e+01	1.003712e+03
2.260000e-06	2.342573e-06	1.507056e-08	1.682402e+01	9.850529e+02
2.270000e-06	2.239250e-06	1.477783e-08	1.608196e+01	9.655741e+02
2.280000e-06	2.135032e-06	1.447276e-08	1.533348e+01	9.452280e+02
2.290000e-06	2.030112e-06	1.415362e-08	1.457996e+01	9.239539e+02
2.300000e-06	1.924541e-06	1.381402e-08	1.382177e+01	9.016790e+02
2.310000e-06	1.818350e-06	1.345758e-08	1.305912e+01	8.783205e+02
2.320000e-06	1.711614e-06	1.308393e-08	1.229256e+01	8.537888e+02
2.330000e-06	1.604342e-06	1.269179e-08	1.152215e+01	8.279915e+02
2.340000e-06	1.496612e-06	1.228096e-08	1.074845e+01	8.008360e+02
2.350000e-06	1.388515e-06	1.184799e-08	9.972113e+00	7.722322e+02
2.360000e-06	1.280039e-06	1.139167e-08	9.193048e+00	7.420937e+02
2.370000e-06	1.171193e-06	1.090862e-08	8.411334e+00	7.103403e+02
2.380000e-06	1.061986e-06	1.039885e-08	7.627029e+00	6.769016e+02
2.390000e-06	9.524126e-07	9.861894e-09	6.840087e+00	6.417232e+02
2.400000e-06	8.424875e-07	9.297752e-09	6.050621e+00	6.047768e+02
2.410000e-06	7.322613e-07	8.703760e-09	5.258993e+00	5.660708e+02
2.420000e-06	6.217714e-07	8.084081e-09	4.465471e+00	5.256625e+02
2.430000e-06	5.110342e-07	7.443285e-09	3.670173e+00	4.836665e+02
2.440000e-06	4.000861e-07	6.781066e-09	2.873360e+00	4.402568e+02
2.450000e-06	2.890196e-07	6.099561e-09	2.075696e+00	3.956610e+02
2.460000e-06	1.778709e-07	5.404166e-09	1.277442e+00	3.501427e+02
2.470000e-06	6.660053e-08	4.699646e-09	4.783152e-01	3.039754e+02
2.480000e-06	-4.477715e-08	3.987460e-09	-3.215829e-01	2.574097e+02
2.490000e-06	-1.561357e-07	3.271768e-09	-1.121344e+00	2.106393e+02
2.500000e-06	-2.673676e-07	2.555676e-09	-1.920195e+00	1.637716e+02
2.510000e-06	-3.784958e-07	1.838167e-09	-2.718301e+00	1.168102e+02
2.520000e-06	-4.895329e-07	1.116488e-09	-3.515753e+00	6.965421e+01
2.530000e-06	-6.003421e-07	3.889280e-10	-4.311569e+00	2.211533e+01
2.540000e-06	-7.108024e-07	-3.470301e-10	-5.104878e+00	-2.604681e+01
2.550000e-06	-8.209951e-07	-1.096527e-09	-5.896266e+00	-7.507659e+01
2.560000e-06	-9.309087e-07	-1.861433e-09	-6.685649e+00	-1.251688e+02
2.570000e-06	-1.040447e-06	-2.642542e-09	-7.472336e+00	-1.764187e+02
2.580000e-06	-1.149623e-06	-3.440134e-09	-8.256424e+00	-2.287840e+02
2.590000e-06	-1.258434e-06	-4.253298e-09	-9.037889e+00	-2.820671e+02
2.600000e-06	-1.366849e-06	-5.078452e-09	-9.816505e+00	-3.359189e+02
2.610000e-06	-1.474819e-06	-5.906037e-09	-1.059194e+01	-3.898667e+02
2.620000e-06	-1.582317e-06	-6.728719e-09	-1.136397e+01	-4.433586e+02
2.630000e-06	-1.689352e-06	-7.535503e-09	-1.213268e+01	-4.958202e+02
2.640000e-06	-1.795814e-06	-8.314937e-09	-1.289727e+01	-5.467112e+02
2.650000e-06	-1.901574e-06	-9.059900e-09	-1.365682e+01	-5.955756e+02
2.660000e-06	-2.006645e-06	-9.769094e-09	-1.441143e+01	-6.420765e+02
2.670000e-06	-2.111032e-06	-1.044184e-08	-1.516112e+01	-6.860123e+02
2.680000e-06	-2.214588e-06	-1.107517e-08	-1.590484e+01	-7.273137e+02
2.690000e-06	-2.317205e-06	-1.167123e-08	-1.664183e+01	-7.660244e+02
2.700000e-06	-2.418869e-06	-1.223309e-08	-1.737196e+01	-8.022704e+02
2.710000e-06	-2.519497e-06	-1.275877e-08	-1.809466e+01	-8.362263e+02
2.720000e-06	-2.619172e-06	-1.324751e-08	-1.881051e+01	-8.680832e+02
2.730000e-06	-2.718013e-06	-1.370518e-08	-1.952037e+01	-8.980239e+02
2.740000e-06	-2.815970e-06	-1.413543e-08	-2.022388e+01	-9.262088e+02
2.750000e-06	-2.913040e-06	-1.454017e-08	-2.092102e+01	-9.527707e+02
2.760000e-06	-3.009155e-06	-1.492284e-08	-2.161131e+01	-9.778185e+02
2.770000e-06	-3.104287e-06	-1.528460e-08	-2.229453e+01	-1.001445e+03
2.780000e-06	-3.198253e-06	-1.562502e-08	-2.296938e+01	-1.023738e+03
2.790000e-06	-3.290905e-06	-1.594488e-08	-2.363480e+01	-1.044782e+03
2.800000e-06	-3.382398e-06	-1.624825e-08	-2.429188e+01	-1.064666e+03
2.810000e-06	-3.472686e-06	-1.653717e-08	-2.494032e+01	-1.083483e+03
2.820000e-06	-3.561750e-06	-1.681218e-08	-2.557996e+01	-1.101322e+03
2.830000e-06	-3.649666e-06	-1.707357e-08	-2.621137e+01	-1.118264e+03
2.840000e-06	-3.736307e-06	-1.732087e-08	-2.683361e+01	-1.134379e+03
2.850000e-06	-3.821422e-06	-1.755645e-08	-2.744489e+01	-1.149722e+03
2.860000e-06	-3.905078e-06	-1.778087e-08	-2.804569e+01	-1.164335e+03
2.870000e-06	-3.987453e-06	-1.799466e-08	-2.863730e+01	-1.178251e+03
2.880000e-06	-4.068495e-06	-1.819809e-08	-2.921933e+01	-1.191496e+03
2.890000e-06	-4.148102e-06	-1.839120e-08	-2.979106e+01	-1.204098e+03
2.900000e-06	-4.225997e-06	-1.857496e-08	-3.035049e+01	-1.216087e+03
2.910000e-06	-4.302077e-06	-1.875083e-08	-3.089688e+01	-1.227497e+03
2.920000e-06	-4.376560e-06	-1.891950e-08	-3.143181e+01	-1.238366e+03
2.930000e-06	-4.449539e-06	-1.907817e-08	-3.195593e+01	-1.248729e+03
2.940000e-06	-4.520918e-06	-1.922776e-08	-3.246856e+01	-1.258618e+03
