# Temperatura_=_74.98
# Concentracion g/m^3_=_28200.0
# C_Vs_to_Am_M_A/Vsm_=_65563218390.804596
# pendiente_HvsI_1/m_=_3716.3
# ordenada_HvsI_A/m_=_1297.0
# frecuencia_Hz_=_301944.6739212361

Tiempo_(s)	Campo_(V.s)	Magnetizacion_(V.s)	Campo_(kA/m)	Magnetizacion_(A/m)
0.000000e+00	-5.846860e-06	-2.251436e-08	-4.192656e+01	-1.474096e+03
1.000000e-08	-5.843467e-06	-2.251167e-08	-4.190223e+01	-1.473647e+03
2.000000e-08	-5.838218e-06	-2.250120e-08	-4.186460e+01	-1.473045e+03
3.000000e-08	-5.831163e-06	-2.248895e-08	-4.181401e+01	-1.472276e+03
4.000000e-08	-5.822190e-06	-2.247073e-08	-4.174966e+01	-1.471324e+03
5.000000e-08	-5.811039e-06	-2.244925e-08	-4.166970e+01	-1.470173e+03
6.000000e-08	-5.797813e-06	-2.242731e-08	-4.157486e+01	-1.468815e+03
7.000000e-08	-5.782495e-06	-2.239946e-08	-4.146502e+01	-1.467248e+03
8.000000e-08	-5.764978e-06	-2.238964e-08	-4.133941e+01	-1.465483e+03
9.000000e-08	-5.745415e-06	-2.241176e-08	-4.119912e+01	-1.463537e+03
1.000000e-07	-5.723689e-06	-2.236200e-08	-4.104333e+01	-1.461437e+03
1.100000e-07	-5.699725e-06	-2.228616e-08	-4.087149e+01	-1.459209e+03
1.200000e-07	-5.673589e-06	-2.225077e-08	-4.068408e+01	-1.456879e+03
1.300000e-07	-5.645681e-06	-2.216924e-08	-4.048396e+01	-1.454458e+03
1.400000e-07	-5.616416e-06	-2.210356e-08	-4.027410e+01	-1.451948e+03
1.500000e-07	-5.585568e-06	-2.218389e-08	-4.005289e+01	-1.449334e+03
1.600000e-07	-5.552840e-06	-2.208937e-08	-3.981821e+01	-1.446588e+03
1.700000e-07	-5.518209e-06	-2.199438e-08	-3.956988e+01	-1.443670e+03
1.800000e-07	-5.481732e-06	-2.203565e-08	-3.930831e+01	-1.440540e+03
1.900000e-07	-5.443351e-06	-2.189229e-08	-3.903309e+01	-1.437158e+03
2.000000e-07	-5.403109e-06	-2.186797e-08	-3.874453e+01	-1.433497e+03
2.100000e-07	-5.360823e-06	-2.188651e-08	-3.844130e+01	-1.429540e+03
2.200000e-07	-5.316430e-06	-2.176839e-08	-3.812297e+01	-1.425289e+03
2.300000e-07	-5.269999e-06	-2.170081e-08	-3.779002e+01	-1.420758e+03
2.400000e-07	-5.221301e-06	-2.160436e-08	-3.744082e+01	-1.415972e+03
2.500000e-07	-5.170193e-06	-2.150741e-08	-3.707433e+01	-1.410960e+03
2.600000e-07	-5.116882e-06	-2.146525e-08	-3.669205e+01	-1.405747e+03
2.700000e-07	-5.061826e-06	-2.137065e-08	-3.629725e+01	-1.400350e+03
2.800000e-07	-5.004966e-06	-2.129583e-08	-3.588953e+01	-1.394771e+03
2.900000e-07	-4.946140e-06	-2.119417e-08	-3.546770e+01	-1.389004e+03
3.000000e-07	-4.885494e-06	-2.108717e-08	-3.503282e+01	-1.383027e+03
3.100000e-07	-4.823096e-06	-2.099444e-08	-3.458537e+01	-1.376816e+03
3.200000e-07	-4.758890e-06	-2.090904e-08	-3.412497e+01	-1.370341e+03
3.300000e-07	-4.692792e-06	-2.082578e-08	-3.365099e+01	-1.363581e+03
3.400000e-07	-4.624905e-06	-2.069396e-08	-3.316419e+01	-1.356521e+03
3.500000e-07	-4.555363e-06	-2.058012e-08	-3.266552e+01	-1.349152e+03
3.600000e-07	-4.484340e-06	-2.045141e-08	-3.215623e+01	-1.341475e+03
3.700000e-07	-4.411831e-06	-2.032640e-08	-3.163628e+01	-1.333496e+03
3.800000e-07	-4.337481e-06	-2.022027e-08	-3.110313e+01	-1.325219e+03
3.900000e-07	-4.261279e-06	-2.008649e-08	-3.055671e+01	-1.316642e+03
4.000000e-07	-4.183408e-06	-1.994924e-08	-2.999831e+01	-1.307758e+03
4.100000e-07	-4.103846e-06	-1.980492e-08	-2.942779e+01	-1.298551e+03
4.200000e-07	-4.022757e-06	-1.965486e-08	-2.884632e+01	-1.289001e+03
4.300000e-07	-3.940392e-06	-1.949807e-08	-2.825570e+01	-1.279083e+03
4.400000e-07	-3.856823e-06	-1.933516e-08	-2.765644e+01	-1.268775e+03
4.500000e-07	-3.772093e-06	-1.917480e-08	-2.704886e+01	-1.258058e+03
4.600000e-07	-3.686157e-06	-1.899884e-08	-2.643263e+01	-1.246923e+03
4.700000e-07	-3.599044e-06	-1.882199e-08	-2.580796e+01	-1.235364e+03
4.800000e-07	-3.510748e-06	-1.864507e-08	-2.517481e+01	-1.223380e+03
4.900000e-07	-3.420972e-06	-1.845955e-08	-2.453105e+01	-1.210968e+03
5.000000e-07	-3.329745e-06	-1.826116e-08	-2.387688e+01	-1.198119e+03
5.100000e-07	-3.237329e-06	-1.805004e-08	-2.321418e+01	-1.184816e+03
5.200000e-07	-3.143789e-06	-1.783544e-08	-2.254343e+01	-1.171030e+03
5.300000e-07	-3.049179e-06	-1.761276e-08	-2.186500e+01	-1.156720e+03
5.400000e-07	-2.953518e-06	-1.738443e-08	-2.117903e+01	-1.141838e+03
5.500000e-07	-2.856726e-06	-1.714648e-08	-2.048496e+01	-1.126332e+03
5.600000e-07	-2.758668e-06	-1.689652e-08	-1.978181e+01	-1.110151e+03
5.700000e-07	-2.659396e-06	-1.663575e-08	-1.906995e+01	-1.093249e+03
5.800000e-07	-2.559170e-06	-1.636707e-08	-1.835125e+01	-1.075588e+03
5.900000e-07	-2.458066e-06	-1.608989e-08	-1.762626e+01	-1.057133e+03
6.000000e-07	-2.356067e-06	-1.579591e-08	-1.689485e+01	-1.037854e+03
6.100000e-07	-2.253278e-06	-1.548593e-08	-1.615777e+01	-1.017715e+03
6.200000e-07	-2.149781e-06	-1.515877e-08	-1.541561e+01	-9.966774e+02
6.300000e-07	-2.045493e-06	-1.481810e-08	-1.466779e+01	-9.746867e+02
6.400000e-07	-1.940291e-06	-1.446602e-08	-1.391340e+01	-9.516770e+02
6.500000e-07	-1.834224e-06	-1.409997e-08	-1.315282e+01	-9.275680e+02
6.600000e-07	-1.727422e-06	-1.371329e-08	-1.238697e+01	-9.022680e+02
6.700000e-07	-1.620008e-06	-1.330277e-08	-1.161672e+01	-8.756771e+02
6.800000e-07	-1.512095e-06	-1.287133e-08	-1.084290e+01	-8.476914e+02
6.900000e-07	-1.403697e-06	-1.241860e-08	-1.006560e+01	-8.182063e+02
7.000000e-07	-1.294816e-06	-1.194606e-08	-9.284846e+00	-7.871206e+02
7.100000e-07	-1.185550e-06	-1.144628e-08	-8.501325e+00	-7.543396e+02
7.200000e-07	-1.075940e-06	-1.091982e-08	-7.715331e+00	-7.197797e+02
7.300000e-07	-9.659752e-07	-1.036681e-08	-6.926799e+00	-6.833747e+02
7.400000e-07	-8.557294e-07	-9.781855e-09	-6.136250e+00	-6.450840e+02
7.500000e-07	-7.452738e-07	-9.166918e-09	-5.344197e+00	-6.049031e+02
7.600000e-07	-6.346380e-07	-8.522799e-09	-4.550852e+00	-5.628744e+02
7.700000e-07	-5.238152e-07	-7.854664e-09	-3.756165e+00	-5.190965e+02
7.800000e-07	-4.128179e-07	-7.163837e-09	-2.960228e+00	-4.737282e+02
7.900000e-07	-3.017253e-07	-6.452708e-09	-2.163607e+00	-4.269850e+02
8.000000e-07	-1.904934e-07	-5.725275e-09	-1.365987e+00	-3.791264e+02
8.100000e-07	-7.910666e-08	-4.985538e-09	-5.672567e-01	-3.304321e+02
8.200000e-07	3.229527e-08	-4.238407e-09	2.315823e-01	-2.811723e+02
8.300000e-07	1.436449e-07	-3.484916e-09	1.030046e+00	-2.315729e+02
8.400000e-07	2.549881e-07	-2.726334e-09	1.828465e+00	-1.817837e+02
8.500000e-07	3.663291e-07	-1.964860e-09	2.626867e+00	-1.318558e+02
8.600000e-07	4.775475e-07	-1.202387e-09	3.424390e+00	-8.173322e+01
8.700000e-07	5.886043e-07	-4.322090e-10	4.220754e+00	-3.126249e+01
8.800000e-07	6.995438e-07	3.488373e-10	5.016277e+00	1.977814e+01
8.900000e-07	8.103379e-07	1.140690e-09	5.810758e+00	7.163463e+01
9.000000e-07	9.208852e-07	1.944498e-09	6.603468e+00	1.245236e+02
9.100000e-07	1.031094e-06	2.764477e-09	7.393750e+00	1.785781e+02
9.200000e-07	1.140999e-06	3.602306e-09	8.181857e+00	2.338029e+02
9.300000e-07	1.250559e-06	4.457530e-09	8.967488e+00	2.900460e+02
9.400000e-07	1.359642e-06	5.327749e-09	9.749694e+00	3.469933e+02
9.500000e-07	1.468267e-06	6.202826e-09	1.052863e+01	4.041879e+02
9.600000e-07	1.576411e-06	7.073741e-09	1.130410e+01	4.610699e+02
9.700000e-07	1.683977e-06	7.927834e-09	1.207544e+01	5.170319e+02
9.800000e-07	1.791009e-06	8.753951e-09	1.284293e+01	5.714801e+02
9.900000e-07	1.897429e-06	9.547734e-09	1.360605e+01	6.238918e+02
1.000000e-06	2.003108e-06	1.030422e-08	1.436385e+01	6.738596e+02
1.010000e-06	2.107847e-06	1.101811e-08	1.511491e+01	7.211177e+02
1.020000e-06	2.211528e-06	1.168914e-08	1.585839e+01	7.655469e+02
1.030000e-06	2.314390e-06	1.231894e-08	1.659599e+01	8.071597e+02
1.040000e-06	2.416516e-06	1.290883e-08	1.732832e+01	8.460722e+02
1.050000e-06	2.517804e-06	1.346356e-08	1.805463e+01	8.824667e+02
1.060000e-06	2.618230e-06	1.398378e-08	1.877476e+01	9.165550e+02
1.070000e-06	2.717751e-06	1.447202e-08	1.948840e+01	9.485475e+02
1.080000e-06	2.816355e-06	1.492861e-08	2.019547e+01	9.786321e+02
1.090000e-06	2.913943e-06	1.535744e-08	2.089525e+01	1.006965e+03
1.100000e-06	3.010283e-06	1.576035e-08	2.158609e+01	1.033671e+03
1.110000e-06	3.105416e-06	1.614006e-08	2.226827e+01	1.058853e+03
1.120000e-06	3.199531e-06	1.649974e-08	2.294314e+01	1.082601e+03
1.130000e-06	3.292668e-06	1.684116e-08	2.361101e+01	1.105002e+03
1.140000e-06	3.384758e-06	1.716585e-08	2.427137e+01	1.126147e+03
1.150000e-06	3.475716e-06	1.747209e-08	2.492360e+01	1.146133e+03
1.160000e-06	3.565407e-06	1.776133e-08	2.556676e+01	1.165056e+03
1.170000e-06	3.653607e-06	1.803510e-08	2.619922e+01	1.183008e+03
1.180000e-06	3.740467e-06	1.829580e-08	2.682208e+01	1.200070e+03
1.190000e-06	3.826174e-06	1.854277e-08	2.743666e+01	1.216307e+03
1.200000e-06	3.910713e-06	1.877664e-08	2.804287e+01	1.231768e+03
1.210000e-06	3.994031e-06	1.899690e-08	2.864033e+01	1.246490e+03
1.220000e-06	4.075922e-06	1.920599e-08	2.922756e+01	1.260498e+03
1.230000e-06	4.156194e-06	1.940626e-08	2.980316e+01	1.273820e+03
1.240000e-06	4.234849e-06	1.959800e-08	3.036718e+01	1.286483e+03
1.250000e-06	4.312051e-06	1.978217e-08	3.092078e+01	1.298524e+03
1.260000e-06	4.387729e-06	1.995767e-08	3.146345e+01	1.309985e+03
1.270000e-06	4.461700e-06	2.012364e-08	3.199388e+01	1.320910e+03
1.280000e-06	4.533767e-06	2.028115e-08	3.251066e+01	1.331344e+03
1.290000e-06	4.604033e-06	2.043124e-08	3.301452e+01	1.341321e+03
1.300000e-06	4.672704e-06	2.057645e-08	3.350695e+01	1.350863e+03
1.310000e-06	4.739771e-06	2.071538e-08	3.398787e+01	1.359979e+03
1.320000e-06	4.805099e-06	2.084732e-08	3.445632e+01	1.368667e+03
1.330000e-06	4.868595e-06	2.097377e-08	3.491164e+01	1.376918e+03
1.340000e-06	4.930420e-06	2.109407e-08	3.535497e+01	1.384723e+03
1.350000e-06	4.990642e-06	2.120642e-08	3.578681e+01	1.392080e+03
1.360000e-06	5.049160e-06	2.131094e-08	3.620643e+01	1.398998e+03
1.370000e-06	5.105784e-06	2.140903e-08	3.661247e+01	1.405501e+03
1.380000e-06	5.160511e-06	2.150216e-08	3.700491e+01	1.411623e+03
1.390000e-06	5.213387e-06	2.158921e-08	3.738407e+01	1.417408e+03
1.400000e-06	5.264186e-06	2.167163e-08	3.774834e+01	1.422900e+03
1.410000e-06	5.312719e-06	2.175133e-08	3.809636e+01	1.428137e+03
1.420000e-06	5.359204e-06	2.182710e-08	3.842969e+01	1.433148e+03
1.430000e-06	5.403968e-06	2.189873e-08	3.875068e+01	1.437946e+03
1.440000e-06	5.446976e-06	2.196709e-08	3.905908e+01	1.442531e+03
1.450000e-06	5.487917e-06	2.203414e-08	3.935266e+01	1.446890e+03
1.460000e-06	5.526775e-06	2.209857e-08	3.963130e+01	1.451005e+03
1.470000e-06	5.563837e-06	2.215873e-08	3.989707e+01	1.454858e+03
1.480000e-06	5.599091e-06	2.221174e-08	4.014987e+01	1.458434e+03
1.490000e-06	5.632249e-06	2.225923e-08	4.038764e+01	1.461725e+03
1.500000e-06	5.663340e-06	2.230499e-08	4.061058e+01	1.464734e+03
1.510000e-06	5.692600e-06	2.234799e-08	4.082040e+01	1.467470e+03
1.520000e-06	5.719966e-06	2.238793e-08	4.101664e+01	1.469946e+03
1.530000e-06	5.745128e-06	2.242297e-08	4.119707e+01	1.472178e+03
1.540000e-06	5.768037e-06	2.245245e-08	4.136134e+01	1.474177e+03
1.550000e-06	5.788968e-06	2.247674e-08	4.151144e+01	1.475953e+03
1.560000e-06	5.807991e-06	2.249779e-08	4.164784e+01	1.477509e+03
1.570000e-06	5.824913e-06	2.251925e-08	4.176919e+01	1.478845e+03
1.580000e-06	5.839634e-06	2.253799e-08	4.187475e+01	1.479959e+03
1.590000e-06	5.852180e-06	2.255162e-08	4.196471e+01	1.480852e+03
1.600000e-06	5.862400e-06	2.256199e-08	4.203800e+01	1.481528e+03
1.610000e-06	5.870300e-06	2.256981e-08	4.209465e+01	1.481996e+03
1.620000e-06	5.876089e-06	2.257616e-08	4.213616e+01	1.482269e+03
1.630000e-06	5.879936e-06	2.258163e-08	4.216375e+01	1.482364e+03
1.640000e-06	5.881687e-06	2.258637e-08	4.217630e+01	1.482295e+03
1.650000e-06	5.881261e-06	2.258830e-08	4.217324e+01	1.482075e+03
1.660000e-06	5.878930e-06	2.257909e-08	4.215653e+01	1.481709e+03
1.670000e-06	5.874850e-06	2.256815e-08	4.212728e+01	1.481194e+03
1.680000e-06	5.868749e-06	2.255740e-08	4.208353e+01	1.480520e+03
1.690000e-06	5.860531e-06	2.254388e-08	4.202460e+01	1.479673e+03
1.700000e-06	5.850563e-06	2.253092e-08	4.195312e+01	1.478635e+03
1.710000e-06	5.838790e-06	2.251819e-08	4.186869e+01	1.477395e+03
1.720000e-06	5.824858e-06	2.250765e-08	4.176880e+01	1.475945e+03
1.730000e-06	5.808908e-06	2.246378e-08	4.165442e+01	1.474289e+03
1.740000e-06	5.790944e-06	2.236722e-08	4.152560e+01	1.472441e+03
1.750000e-06	5.770376e-06	2.235894e-08	4.137811e+01	1.470424e+03
1.760000e-06	5.746941e-06	2.236715e-08	4.121007e+01	1.468264e+03
1.770000e-06	5.721180e-06	2.233686e-08	4.102534e+01	1.465989e+03
1.780000e-06	5.693915e-06	2.239061e-08	4.082983e+01	1.463617e+03
1.790000e-06	5.665720e-06	2.228137e-08	4.062765e+01	1.461157e+03
1.800000e-06	5.636119e-06	2.215330e-08	4.041539e+01	1.458603e+03
1.810000e-06	5.604149e-06	2.224193e-08	4.018614e+01	1.455934e+03
1.820000e-06	5.570213e-06	2.213916e-08	3.994279e+01	1.453118e+03
1.830000e-06	5.534538e-06	2.211356e-08	3.968697e+01	1.450112e+03
1.840000e-06	5.496601e-06	2.215488e-08	3.941493e+01	1.446877e+03
1.850000e-06	5.456618e-06	2.192259e-08	3.912822e+01	1.443376e+03
1.860000e-06	5.414775e-06	2.190177e-08	3.882818e+01	1.439587e+03
1.870000e-06	5.371203e-06	2.187179e-08	3.851573e+01	1.435501e+03
1.880000e-06	5.325991e-06	2.176214e-08	3.819153e+01	1.431126e+03
1.890000e-06	5.278559e-06	2.180139e-08	3.785141e+01	1.426480e+03
1.900000e-06	5.228941e-06	2.164315e-08	3.749560e+01	1.421592e+03
1.910000e-06	5.177305e-06	2.157813e-08	3.712533e+01	1.416490e+03
1.920000e-06	5.123324e-06	2.153166e-08	3.673825e+01	1.411194e+03
1.930000e-06	5.067335e-06	2.136968e-08	3.633676e+01	1.405718e+03
1.940000e-06	5.009597e-06	2.137595e-08	3.592274e+01	1.400058e+03
1.950000e-06	4.950117e-06	2.126543e-08	3.549621e+01	1.394202e+03
1.960000e-06	4.888798e-06	2.117981e-08	3.505651e+01	1.388126e+03
1.970000e-06	4.825504e-06	2.106942e-08	3.460264e+01	1.381803e+03
1.980000e-06	4.760486e-06	2.092205e-08	3.413641e+01	1.375207e+03
1.990000e-06	4.693778e-06	2.088247e-08	3.365807e+01	1.368318e+03
2.000000e-06	4.625506e-06	2.074222e-08	3.316850e+01	1.361123e+03
2.010000e-06	4.555517e-06	2.065761e-08	3.266663e+01	1.353620e+03
2.020000e-06	4.483660e-06	2.052517e-08	3.215135e+01	1.345812e+03
2.030000e-06	4.410197e-06	2.037998e-08	3.162457e+01	1.337703e+03
2.040000e-06	4.335139e-06	2.028084e-08	3.108634e+01	1.329295e+03
2.050000e-06	4.258374e-06	2.011537e-08	3.053588e+01	1.320586e+03
2.060000e-06	4.179808e-06	2.000934e-08	2.997249e+01	1.311564e+03
2.070000e-06	4.099699e-06	1.986208e-08	2.939805e+01	1.302212e+03
2.080000e-06	4.018184e-06	1.972078e-08	2.881352e+01	1.292505e+03
2.090000e-06	3.935273e-06	1.956867e-08	2.821899e+01	1.282420e+03
2.100000e-06	3.851166e-06	1.940214e-08	2.761588e+01	1.271937e+03
2.110000e-06	3.765705e-06	1.925638e-08	2.700306e+01	1.261040e+03
2.120000e-06	3.678734e-06	1.906577e-08	2.637941e+01	1.249722e+03
2.130000e-06	3.590439e-06	1.888856e-08	2.574626e+01	1.237979e+03
2.140000e-06	3.500919e-06	1.869563e-08	2.510433e+01	1.225810e+03
2.150000e-06	3.410178e-06	1.851296e-08	2.445365e+01	1.213210e+03
2.160000e-06	3.318386e-06	1.831936e-08	2.379543e+01	1.200168e+03
2.170000e-06	3.225521e-06	1.811903e-08	2.312951e+01	1.186660e+03
2.180000e-06	3.131254e-06	1.791385e-08	2.245354e+01	1.172653e+03
2.190000e-06	3.035621e-06	1.768831e-08	2.176778e+01	1.158102e+03
2.200000e-06	2.938941e-06	1.746006e-08	2.107451e+01	1.142957e+03
2.210000e-06	2.841290e-06	1.721963e-08	2.037428e+01	1.127166e+03
2.220000e-06	2.742647e-06	1.697402e-08	1.966693e+01	1.110680e+03
2.230000e-06	2.643138e-06	1.670654e-08	1.895337e+01	1.093455e+03
2.240000e-06	2.542814e-06	1.643100e-08	1.823397e+01	1.075456e+03
2.250000e-06	2.441454e-06	1.614558e-08	1.750714e+01	1.056649e+03
2.260000e-06	2.338961e-06	1.584987e-08	1.677218e+01	1.037004e+03
2.270000e-06	2.235473e-06	1.554302e-08	1.603009e+01	1.016484e+03
2.280000e-06	2.131082e-06	1.522182e-08	1.528153e+01	9.950434e+02
2.290000e-06	2.025940e-06	1.488360e-08	1.452758e+01	9.726231e+02
2.300000e-06	1.920166e-06	1.452485e-08	1.376909e+01	9.491509e+02
2.310000e-06	1.813777e-06	1.414874e-08	1.300620e+01	9.245414e+02
2.320000e-06	1.706813e-06	1.375386e-08	1.223919e+01	8.986988e+02
2.330000e-06	1.599360e-06	1.334280e-08	1.146866e+01	8.715211e+02
2.340000e-06	1.491521e-06	1.290918e-08	1.069537e+01	8.429036e+02
2.350000e-06	1.383304e-06	1.245217e-08	9.919376e+00	8.127428e+02
2.360000e-06	1.274645e-06	1.196697e-08	9.140201e+00	7.809397e+02
2.370000e-06	1.165570e-06	1.145697e-08	8.358051e+00	7.474038e+02
2.380000e-06	1.056093e-06	1.092179e-08	7.573012e+00	7.120581e+02
2.390000e-06	9.462406e-07	1.035744e-08	6.785286e+00	6.748462e+02
2.400000e-06	8.360786e-07	9.762891e-09	5.995338e+00	6.357416e+02
2.410000e-06	7.256435e-07	9.135388e-09	5.203432e+00	5.947586e+02
2.420000e-06	6.149746e-07	8.476866e-09	4.409850e+00	5.519628e+02
2.430000e-06	5.040687e-07	7.791868e-09	3.614567e+00	5.074784e+02
2.440000e-06	3.929894e-07	7.088259e-09	2.818041e+00	4.614897e+02
2.450000e-06	2.817461e-07	6.368353e-09	2.020340e+00	4.142330e+02
2.460000e-06	1.703691e-07	5.634220e-09	1.221680e+00	3.659798e+02
2.470000e-06	5.891441e-08	4.888192e-09	4.224624e-01	3.170100e+02
2.480000e-06	-5.258953e-08	4.133907e-09	-3.771081e-01	2.675789e+02
2.490000e-06	-1.641034e-07	3.373262e-09	-1.176750e+00	2.178833e+02
2.500000e-06	-2.755238e-07	2.609117e-09	-1.975722e+00	1.680328e+02
2.510000e-06	-3.867852e-07	1.843839e-09	-2.773553e+00	1.180326e+02
2.520000e-06	-4.978645e-07	1.073892e-09	-3.570079e+00	6.778249e+01
2.530000e-06	-6.088121e-07	2.971894e-10	-4.365660e+00	1.709536e+01
2.540000e-06	-7.195340e-07	-4.880339e-10	-5.159622e+00	-3.426713e+01
2.550000e-06	-8.299447e-07	-1.285540e-09	-5.951353e+00	-8.654514e+01
2.560000e-06	-9.400235e-07	-2.099686e-09	-6.740705e+00	-1.399258e+02
2.570000e-06	-1.049708e-06	-2.932265e-09	-7.527228e+00	-1.944920e+02
2.580000e-06	-1.159096e-06	-3.779774e-09	-8.311627e+00	-2.501832e+02
2.590000e-06	-1.268101e-06	-4.639029e-09	-9.093276e+00	-3.067775e+02
2.600000e-06	-1.376647e-06	-5.509879e-09	-9.871639e+00	-3.638958e+02
2.610000e-06	-1.484689e-06	-6.385436e-09	-1.064638e+01	-4.210310e+02
2.620000e-06	-1.592228e-06	-7.255578e-09	-1.141752e+01	-4.775955e+02
2.630000e-06	-1.699364e-06	-8.109349e-09	-1.218577e+01	-5.329804e+02
2.640000e-06	-1.805942e-06	-8.933668e-09	-1.295002e+01	-5.866159e+02
2.650000e-06	-1.911815e-06	-9.718598e-09	-1.370921e+01	-6.380240e+02
2.660000e-06	-2.017017e-06	-1.046052e-08	-1.446359e+01	-6.868563e+02
2.670000e-06	-2.121441e-06	-1.116230e-08	-1.521240e+01	-7.329103e+02
2.680000e-06	-2.225046e-06	-1.182480e-08	-1.595532e+01	-7.761260e+02
2.690000e-06	-2.327831e-06	-1.244748e-08	-1.669237e+01	-8.165645e+02
2.700000e-06	-2.429611e-06	-1.303081e-08	-1.742221e+01	-8.543749e+02
2.710000e-06	-2.530291e-06	-1.357656e-08	-1.814417e+01	-8.897564e+02
2.720000e-06	-2.630024e-06	-1.408630e-08	-1.885933e+01	-9.229236e+02
2.730000e-06	-2.728927e-06	-1.456325e-08	-1.956855e+01	-9.540790e+02
2.740000e-06	-2.826909e-06	-1.501276e-08	-2.027115e+01	-9.833975e+02
2.750000e-06	-2.923974e-06	-1.543669e-08	-2.096718e+01	-1.011021e+03
2.760000e-06	-3.020060e-06	-1.583555e-08	-2.165620e+01	-1.037065e+03
2.770000e-06	-3.115140e-06	-1.621125e-08	-2.233800e+01	-1.061623e+03
2.780000e-06	-3.209156e-06	-1.656423e-08	-2.301216e+01	-1.084785e+03
2.790000e-06	-3.301841e-06	-1.689444e-08	-2.367679e+01	-1.106638e+03
2.800000e-06	-3.393296e-06	-1.720701e-08	-2.433259e+01	-1.127277e+03
2.810000e-06	-3.483602e-06	-1.750665e-08	-2.498015e+01	-1.146797e+03
2.820000e-06	-3.572725e-06	-1.779349e-08	-2.561924e+01	-1.165295e+03
2.830000e-06	-3.660678e-06	-1.806510e-08	-2.624993e+01	-1.182858e+03
2.840000e-06	-3.747344e-06	-1.832083e-08	-2.687139e+01	-1.199561e+03
2.850000e-06	-3.832537e-06	-1.856439e-08	-2.748229e+01	-1.215463e+03
2.860000e-06	-3.916320e-06	-1.879565e-08	-2.808308e+01	-1.230605e+03
2.870000e-06	-3.998810e-06	-1.901608e-08	-2.867460e+01	-1.245020e+03
2.880000e-06	-4.079912e-06	-1.922694e-08	-2.925617e+01	-1.258733e+03
2.890000e-06	-4.159542e-06	-1.942766e-08	-2.982717e+01	-1.271770e+03
2.900000e-06	-4.237459e-06	-1.961750e-08	-3.038590e+01	-1.284163e+03
2.910000e-06	-4.313561e-06	-1.979748e-08	-3.093161e+01	-1.295952e+03
2.920000e-06	-4.388050e-06	-1.997115e-08	-3.146575e+01	-1.307180e+03
2.930000e-06	-4.461024e-06	-2.013600e-08	-3.198904e+01	-1.317892e+03
2.940000e-06	-4.532398e-06	-2.029224e-08	-3.250084e+01	-1.328128e+03
