# Temperatura_=_30.32
# Concentracion g/m^3_=_28200.0
# C_Vs_to_Am_M_A/Vsm_=_65563218390.804596
# pendiente_HvsI_1/m_=_3716.3
# ordenada_HvsI_A/m_=_1297.0
# frecuencia_Hz_=_301955.39907133474

Tiempo_(s)	Campo_(V.s)	Magnetizacion_(V.s)	Campo_(kA/m)	Magnetizacion_(A/m)
0.000000e+00	-5.846855e-06	-1.736923e-08	-4.193012e+01	-1.137353e+03
1.000000e-08	-5.843750e-06	-1.736550e-08	-4.190785e+01	-1.137053e+03
2.000000e-08	-5.838757e-06	-1.735609e-08	-4.187204e+01	-1.136639e+03
3.000000e-08	-5.832003e-06	-1.734564e-08	-4.182360e+01	-1.136105e+03
4.000000e-08	-5.823391e-06	-1.733221e-08	-4.176184e+01	-1.135442e+03
5.000000e-08	-5.812619e-06	-1.731710e-08	-4.168459e+01	-1.134641e+03
6.000000e-08	-5.799697e-06	-1.730321e-08	-4.159193e+01	-1.133694e+03
7.000000e-08	-5.784696e-06	-1.728450e-08	-4.148435e+01	-1.132596e+03
8.000000e-08	-5.767521e-06	-1.727591e-08	-4.136118e+01	-1.131351e+03
9.000000e-08	-5.748274e-06	-1.729922e-08	-4.122316e+01	-1.129966e+03
1.000000e-07	-5.726893e-06	-1.727875e-08	-4.106982e+01	-1.128454e+03
1.100000e-07	-5.703285e-06	-1.721412e-08	-4.090052e+01	-1.126828e+03
1.200000e-07	-5.677483e-06	-1.718000e-08	-4.071548e+01	-1.125098e+03
1.300000e-07	-5.649808e-06	-1.711914e-08	-4.051702e+01	-1.123271e+03
1.400000e-07	-5.620712e-06	-1.703515e-08	-4.030835e+01	-1.121344e+03
1.500000e-07	-5.590110e-06	-1.710696e-08	-4.008889e+01	-1.119310e+03
1.600000e-07	-5.557680e-06	-1.710308e-08	-3.985632e+01	-1.117154e+03
1.700000e-07	-5.523360e-06	-1.699473e-08	-3.961021e+01	-1.114859e+03
1.800000e-07	-5.487175e-06	-1.704288e-08	-3.935071e+01	-1.112408e+03
1.900000e-07	-5.449090e-06	-1.695417e-08	-3.907758e+01	-1.109787e+03
2.000000e-07	-5.409148e-06	-1.683336e-08	-3.879115e+01	-1.106990e+03
2.100000e-07	-5.367176e-06	-1.685484e-08	-3.849015e+01	-1.104016e+03
2.200000e-07	-5.323079e-06	-1.680269e-08	-3.817391e+01	-1.100870e+03
2.300000e-07	-5.276947e-06	-1.675894e-08	-3.784308e+01	-1.097562e+03
2.400000e-07	-5.228618e-06	-1.671956e-08	-3.749649e+01	-1.094101e+03
2.500000e-07	-5.177929e-06	-1.663909e-08	-3.713298e+01	-1.090494e+03
2.600000e-07	-5.125001e-06	-1.659019e-08	-3.675341e+01	-1.086741e+03
2.700000e-07	-5.070166e-06	-1.651991e-08	-3.636017e+01	-1.082839e+03
2.800000e-07	-5.013618e-06	-1.647394e-08	-3.595464e+01	-1.078778e+03
2.900000e-07	-4.955188e-06	-1.642169e-08	-3.553562e+01	-1.074542e+03
3.000000e-07	-4.894872e-06	-1.633275e-08	-3.510307e+01	-1.070116e+03
3.100000e-07	-4.832793e-06	-1.625427e-08	-3.465788e+01	-1.065487e+03
3.200000e-07	-4.768887e-06	-1.618204e-08	-3.419958e+01	-1.060644e+03
3.300000e-07	-4.703146e-06	-1.611522e-08	-3.372812e+01	-1.055579e+03
3.400000e-07	-4.635617e-06	-1.602241e-08	-3.324385e+01	-1.050291e+03
3.500000e-07	-4.566413e-06	-1.593868e-08	-3.274756e+01	-1.044781e+03
3.600000e-07	-4.495632e-06	-1.585536e-08	-3.223996e+01	-1.039049e+03
3.700000e-07	-4.423315e-06	-1.574885e-08	-3.172135e+01	-1.033094e+03
3.800000e-07	-4.349215e-06	-1.566297e-08	-3.118994e+01	-1.026912e+03
3.900000e-07	-4.273202e-06	-1.557184e-08	-3.064483e+01	-1.020494e+03
4.000000e-07	-4.195535e-06	-1.546488e-08	-3.008785e+01	-1.013827e+03
4.100000e-07	-4.116254e-06	-1.535316e-08	-2.951929e+01	-1.006895e+03
4.200000e-07	-4.035386e-06	-1.523984e-08	-2.893935e+01	-9.996810e+02
4.300000e-07	-3.953216e-06	-1.512884e-08	-2.835008e+01	-9.921702e+02
4.400000e-07	-3.869827e-06	-1.500788e-08	-2.775206e+01	-9.843491e+02
4.500000e-07	-3.785152e-06	-1.489169e-08	-2.714483e+01	-9.762079e+02
4.600000e-07	-3.699300e-06	-1.476231e-08	-2.652914e+01	-9.677389e+02
4.700000e-07	-3.612264e-06	-1.461943e-08	-2.590498e+01	-9.589359e+02
4.800000e-07	-3.523971e-06	-1.447701e-08	-2.527180e+01	-9.497915e+02
4.900000e-07	-3.434359e-06	-1.433426e-08	-2.462915e+01	-9.402954e+02
5.000000e-07	-3.343355e-06	-1.418584e-08	-2.397652e+01	-9.304328e+02
5.100000e-07	-3.251101e-06	-1.402364e-08	-2.331494e+01	-9.201835e+02
5.200000e-07	-3.157773e-06	-1.385680e-08	-2.264564e+01	-9.095220e+02
5.300000e-07	-3.063372e-06	-1.368277e-08	-2.196866e+01	-8.984193e+02
5.400000e-07	-2.967816e-06	-1.350538e-08	-2.128338e+01	-8.868433e+02
5.500000e-07	-2.871175e-06	-1.332408e-08	-2.059033e+01	-8.747616e+02
5.600000e-07	-2.773400e-06	-1.313611e-08	-1.988915e+01	-8.621418e+02
5.700000e-07	-2.674379e-06	-1.293379e-08	-1.917903e+01	-8.489527e+02
5.800000e-07	-2.574350e-06	-1.271551e-08	-1.846168e+01	-8.351641e+02
5.900000e-07	-2.473430e-06	-1.248834e-08	-1.773795e+01	-8.207455e+02
6.000000e-07	-2.371613e-06	-1.225385e-08	-1.700777e+01	-8.056651e+02
6.100000e-07	-2.268983e-06	-1.201443e-08	-1.627178e+01	-7.898885e+02
6.200000e-07	-2.165511e-06	-1.176556e-08	-1.552974e+01	-7.733774e+02
6.300000e-07	-2.061189e-06	-1.150373e-08	-1.478160e+01	-7.560890e+02
6.400000e-07	-1.956093e-06	-1.122596e-08	-1.402792e+01	-7.379754e+02
6.500000e-07	-1.850260e-06	-1.093567e-08	-1.326895e+01	-7.189843e+02
6.600000e-07	-1.743689e-06	-1.063323e-08	-1.250468e+01	-6.990587e+02
6.700000e-07	-1.636402e-06	-1.031337e-08	-1.173528e+01	-6.781376e+02
6.800000e-07	-1.528521e-06	-9.975273e-09	-1.096163e+01	-6.561566e+02
6.900000e-07	-1.420196e-06	-9.618502e-09	-1.018479e+01	-6.330491e+02
7.000000e-07	-1.311482e-06	-9.243650e-09	-9.405154e+00	-6.087478e+02
7.100000e-07	-1.202353e-06	-8.850607e-09	-8.622551e+00	-5.831885e+02
7.200000e-07	-1.092806e-06	-8.441642e-09	-7.836945e+00	-5.563147e+02
7.300000e-07	-9.828840e-07	-8.014664e-09	-7.048651e+00	-5.280845e+02
7.400000e-07	-8.726505e-07	-7.565474e-09	-6.258123e+00	-4.984790e+02
7.500000e-07	-7.621797e-07	-7.092519e-09	-5.465893e+00	-4.675108e+02
7.600000e-07	-6.515202e-07	-6.599604e-09	-4.672309e+00	-4.352314e+02
7.700000e-07	-5.406886e-07	-6.088226e-09	-3.877492e+00	-4.017368e+02
7.800000e-07	-4.297747e-07	-5.559468e-09	-3.082084e+00	-3.671674e+02
7.900000e-07	-3.187356e-07	-5.018180e-09	-2.285779e+00	-3.317032e+02
8.000000e-07	-2.075334e-07	-4.467165e-09	-1.488304e+00	-2.955513e+02
8.100000e-07	-9.625098e-08	-3.909799e-09	-6.902539e-01	-2.589293e+02
8.200000e-07	1.512088e-08	-3.349110e-09	1.084378e-01	-2.220431e+02
8.300000e-07	1.265626e-07	-2.789202e-09	9.076307e-01	-1.850640e+02
8.400000e-07	2.379441e-07	-2.229767e-09	1.706391e+00	-1.481080e+02
8.500000e-07	3.492077e-07	-1.667915e-09	2.504307e+00	-1.112203e+02
8.600000e-07	4.603749e-07	-1.104576e-09	3.301531e+00	-7.436915e+01
8.700000e-07	5.714366e-07	-5.409072e-10	4.097999e+00	-3.745048e+01
8.800000e-07	6.823757e-07	2.541032e-11	4.893587e+00	-3.037179e-01
8.900000e-07	7.931426e-07	5.971538e-10	5.687940e+00	3.726236e+01
9.000000e-07	9.036586e-07	1.176475e-09	6.480494e+00	7.543709e+01
9.100000e-07	1.013929e-06	1.767622e-09	7.271285e+00	1.143731e+02
9.200000e-07	1.123893e-06	2.372679e-09	8.059883e+00	1.541540e+02
9.300000e-07	1.233401e-06	2.990468e-09	8.845204e+00	1.947704e+02
9.400000e-07	1.342443e-06	3.619000e-09	9.627188e+00	2.361071e+02
9.500000e-07	1.451102e-06	4.256067e-09	1.040643e+01	2.779439e+02
9.600000e-07	1.559380e-06	4.898368e-09	1.118293e+01	3.199705e+02
9.700000e-07	1.667179e-06	5.539761e-09	1.195600e+01	3.618132e+02
9.800000e-07	1.774379e-06	6.169534e-09	1.272477e+01	4.030692e+02
9.900000e-07	1.880894e-06	6.780633e-09	1.348863e+01	4.433435e+02
1.000000e-06	1.986653e-06	7.371299e-09	1.424707e+01	4.822837e+02
1.010000e-06	2.091558e-06	7.938184e-09	1.499939e+01	5.196074e+02
1.020000e-06	2.195479e-06	8.478268e-09	1.574465e+01	5.551190e+02
1.030000e-06	2.298496e-06	8.987542e-09	1.648343e+01	5.887148e+02
1.040000e-06	2.400747e-06	9.466385e-09	1.721671e+01	6.203767e+02
1.050000e-06	2.502179e-06	9.915638e-09	1.794412e+01	6.501563e+02
1.060000e-06	2.602787e-06	1.033794e-08	1.866562e+01	6.781548e+02
1.070000e-06	2.702517e-06	1.073767e-08	1.938082e+01	7.044995e+02
1.080000e-06	2.801323e-06	1.111761e-08	2.008940e+01	7.293243e+02
1.090000e-06	2.899095e-06	1.147851e-08	2.079056e+01	7.527543e+02
1.100000e-06	2.995549e-06	1.181896e-08	2.148227e+01	7.748963e+02
1.110000e-06	3.090782e-06	1.213831e-08	2.216522e+01	7.958375e+02
1.120000e-06	3.185042e-06	1.243649e-08	2.284120e+01	8.156474e+02
1.130000e-06	3.278302e-06	1.271908e-08	2.351000e+01	8.343848e+02
1.140000e-06	3.370502e-06	1.298643e-08	2.417120e+01	8.521037e+02
1.150000e-06	3.461710e-06	1.323848e-08	2.482530e+01	8.688600e+02
1.160000e-06	3.551794e-06	1.347875e-08	2.547132e+01	8.847137e+02
1.170000e-06	3.640327e-06	1.370869e-08	2.610623e+01	8.997294e+02
1.180000e-06	3.727419e-06	1.392614e-08	2.673080e+01	9.139732e+02
1.190000e-06	3.813296e-06	1.413256e-08	2.734666e+01	9.275085e+02
1.200000e-06	3.897894e-06	1.432798e-08	2.795334e+01	9.403910e+02
1.210000e-06	3.981307e-06	1.451136e-08	2.855153e+01	9.526660e+02
1.220000e-06	4.063402e-06	1.468618e-08	2.914027e+01	9.643660e+02
1.230000e-06	4.143886e-06	1.485396e-08	2.971745e+01	9.755123e+02
1.240000e-06	4.222823e-06	1.501541e-08	3.028353e+01	9.861172e+02
1.250000e-06	4.300255e-06	1.516951e-08	3.083883e+01	9.961892e+02
1.260000e-06	4.376122e-06	1.531494e-08	3.138290e+01	1.005736e+03
1.270000e-06	4.450219e-06	1.545179e-08	3.191428e+01	1.014770e+03
1.280000e-06	4.522424e-06	1.558216e-08	3.243210e+01	1.023309e+03
1.290000e-06	4.592958e-06	1.570461e-08	3.293792e+01	1.031374e+03
1.300000e-06	4.661876e-06	1.582004e-08	3.343216e+01	1.038995e+03
1.310000e-06	4.729234e-06	1.592962e-08	3.391521e+01	1.046201e+03
1.320000e-06	4.794851e-06	1.603245e-08	3.438578e+01	1.053022e+03
1.330000e-06	4.858578e-06	1.612983e-08	3.484279e+01	1.059486e+03
1.340000e-06	4.920617e-06	1.622150e-08	3.528770e+01	1.065616e+03
1.350000e-06	4.981050e-06	1.630862e-08	3.572108e+01	1.071435e+03
1.360000e-06	5.039838e-06	1.639274e-08	3.614267e+01	1.076959e+03
1.370000e-06	5.096708e-06	1.647359e-08	3.655051e+01	1.082205e+03
1.380000e-06	5.151649e-06	1.654999e-08	3.694452e+01	1.087190e+03
1.390000e-06	5.204804e-06	1.662141e-08	3.732571e+01	1.091927e+03
1.400000e-06	5.255931e-06	1.668950e-08	3.769236e+01	1.096432e+03
1.410000e-06	5.304777e-06	1.675525e-08	3.804266e+01	1.100717e+03
1.420000e-06	5.351545e-06	1.681798e-08	3.837805e+01	1.104790e+03
1.430000e-06	5.396550e-06	1.687648e-08	3.870080e+01	1.108657e+03
1.440000e-06	5.439814e-06	1.693168e-08	3.901106e+01	1.112317e+03
1.450000e-06	5.481069e-06	1.698401e-08	3.930692e+01	1.115765e+03
1.460000e-06	5.520260e-06	1.703193e-08	3.958797e+01	1.118995e+03
1.470000e-06	5.557630e-06	1.707507e-08	3.985597e+01	1.121999e+03
1.480000e-06	5.593206e-06	1.711530e-08	4.011110e+01	1.124772e+03
1.490000e-06	5.626690e-06	1.715362e-08	4.035123e+01	1.127314e+03
1.500000e-06	5.658095e-06	1.719035e-08	4.057644e+01	1.129629e+03
1.510000e-06	5.687620e-06	1.722418e-08	4.078818e+01	1.131728e+03
1.520000e-06	5.715314e-06	1.725350e-08	4.098678e+01	1.133623e+03
1.530000e-06	5.740910e-06	1.727878e-08	4.117034e+01	1.135331e+03
1.540000e-06	5.764211e-06	1.730089e-08	4.133744e+01	1.136865e+03
1.550000e-06	5.785493e-06	1.732040e-08	4.149007e+01	1.138237e+03
1.560000e-06	5.804895e-06	1.733753e-08	4.162920e+01	1.139452e+03
1.570000e-06	5.822227e-06	1.735341e-08	4.175350e+01	1.140512e+03
1.580000e-06	5.837280e-06	1.736733e-08	4.186145e+01	1.141416e+03
1.590000e-06	5.850128e-06	1.737812e-08	4.195358e+01	1.142162e+03
1.600000e-06	5.860684e-06	1.738755e-08	4.202929e+01	1.142749e+03
1.610000e-06	5.868908e-06	1.739675e-08	4.208827e+01	1.143177e+03
1.620000e-06	5.874990e-06	1.740490e-08	4.213188e+01	1.143453e+03
1.630000e-06	5.879107e-06	1.741057e-08	4.216141e+01	1.143586e+03
1.640000e-06	5.881184e-06	1.741562e-08	4.217630e+01	1.143587e+03
1.650000e-06	5.881123e-06	1.741828e-08	4.217586e+01	1.143465e+03
1.660000e-06	5.879076e-06	1.741109e-08	4.216119e+01	1.143228e+03
1.670000e-06	5.875227e-06	1.740049e-08	4.213358e+01	1.142878e+03
1.680000e-06	5.869417e-06	1.739297e-08	4.209192e+01	1.142412e+03
1.690000e-06	5.861544e-06	1.738560e-08	4.203546e+01	1.141823e+03
1.700000e-06	5.851852e-06	1.737908e-08	4.196595e+01	1.141101e+03
1.710000e-06	5.840377e-06	1.737324e-08	4.188366e+01	1.140237e+03
1.720000e-06	5.826823e-06	1.736748e-08	4.178646e+01	1.139224e+03
1.730000e-06	5.811160e-06	1.733846e-08	4.167413e+01	1.138061e+03
1.740000e-06	5.793498e-06	1.725592e-08	4.154747e+01	1.136754e+03
1.750000e-06	5.773338e-06	1.723688e-08	4.140289e+01	1.135311e+03
1.760000e-06	5.750250e-06	1.725643e-08	4.123732e+01	1.133748e+03
1.770000e-06	5.724759e-06	1.724138e-08	4.105452e+01	1.132075e+03
1.780000e-06	5.697712e-06	1.729155e-08	4.086055e+01	1.130302e+03
1.790000e-06	5.669690e-06	1.723337e-08	4.065960e+01	1.128431e+03
1.800000e-06	5.640384e-06	1.707817e-08	4.044943e+01	1.126459e+03
1.810000e-06	5.608759e-06	1.712565e-08	4.022263e+01	1.124373e+03
1.820000e-06	5.575050e-06	1.706863e-08	3.998089e+01	1.122158e+03
1.830000e-06	5.539670e-06	1.700902e-08	3.972717e+01	1.119797e+03
1.840000e-06	5.502205e-06	1.711757e-08	3.945849e+01	1.117273e+03
1.850000e-06	5.462644e-06	1.700038e-08	3.917479e+01	1.114576e+03
1.860000e-06	5.421108e-06	1.693376e-08	3.887692e+01	1.111701e+03
1.870000e-06	5.377765e-06	1.692539e-08	3.856608e+01	1.108652e+03
1.880000e-06	5.332759e-06	1.679899e-08	3.824333e+01	1.105434e+03
1.890000e-06	5.285666e-06	1.680349e-08	3.790560e+01	1.102058e+03
1.900000e-06	5.236406e-06	1.673695e-08	3.755234e+01	1.098533e+03
1.910000e-06	5.185083e-06	1.668481e-08	3.718429e+01	1.094862e+03
1.920000e-06	5.131509e-06	1.668647e-08	3.680008e+01	1.091045e+03
1.930000e-06	5.075941e-06	1.654375e-08	3.640159e+01	1.087075e+03
1.940000e-06	5.018537e-06	1.652020e-08	3.598992e+01	1.082939e+03
1.950000e-06	4.959290e-06	1.646007e-08	3.556503e+01	1.078623e+03
1.960000e-06	4.898257e-06	1.636808e-08	3.512734e+01	1.074111e+03
1.970000e-06	4.835297e-06	1.631994e-08	3.467583e+01	1.069389e+03
1.980000e-06	4.770503e-06	1.621509e-08	3.421117e+01	1.064450e+03
1.990000e-06	4.704081e-06	1.616856e-08	3.373483e+01	1.059289e+03
2.000000e-06	4.636081e-06	1.607094e-08	3.324717e+01	1.053904e+03
2.010000e-06	4.566345e-06	1.599100e-08	3.274707e+01	1.048298e+03
2.020000e-06	4.494689e-06	1.592112e-08	3.223319e+01	1.042469e+03
2.030000e-06	4.421381e-06	1.580139e-08	3.170747e+01	1.036417e+03
2.040000e-06	4.346561e-06	1.573028e-08	3.117091e+01	1.030134e+03
2.050000e-06	4.270116e-06	1.561870e-08	3.062270e+01	1.023609e+03
2.060000e-06	4.191928e-06	1.552054e-08	3.006198e+01	1.016830e+03
2.070000e-06	4.112052e-06	1.541407e-08	2.948915e+01	1.009778e+03
2.080000e-06	4.030760e-06	1.529323e-08	2.890618e+01	1.002437e+03
2.090000e-06	3.948143e-06	1.518076e-08	2.831370e+01	9.947936e+02
2.100000e-06	3.864179e-06	1.504703e-08	2.771156e+01	9.868351e+02
2.110000e-06	3.778855e-06	1.494207e-08	2.709967e+01	9.785530e+02
2.120000e-06	3.692149e-06	1.481114e-08	2.647786e+01	9.699404e+02
2.130000e-06	3.604065e-06	1.467375e-08	2.584618e+01	9.609909e+02
2.140000e-06	3.514702e-06	1.453187e-08	2.520532e+01	9.516961e+02
2.150000e-06	3.424197e-06	1.438457e-08	2.455628e+01	9.420438e+02
2.160000e-06	3.332562e-06	1.423668e-08	2.389913e+01	9.320170e+02
2.170000e-06	3.239709e-06	1.407534e-08	2.323324e+01	9.215932e+02
2.180000e-06	3.145604e-06	1.392020e-08	2.255837e+01	9.107452e+02
2.190000e-06	3.050239e-06	1.374792e-08	2.187447e+01	8.994424e+02
2.200000e-06	2.953675e-06	1.356554e-08	2.118197e+01	8.876524e+02
2.210000e-06	2.856153e-06	1.337544e-08	2.048261e+01	8.753427e+02
2.220000e-06	2.757707e-06	1.318488e-08	1.977661e+01	8.624815e+02
2.230000e-06	2.658332e-06	1.298896e-08	1.906395e+01	8.490380e+02
2.240000e-06	2.557996e-06	1.277775e-08	1.834441e+01	8.349819e+02
2.250000e-06	2.456665e-06	1.255587e-08	1.761772e+01	8.202825e+02
2.260000e-06	2.354440e-06	1.231828e-08	1.688462e+01	8.049069e+02
2.270000e-06	2.251236e-06	1.207137e-08	1.614450e+01	7.888193e+02
2.280000e-06	2.147064e-06	1.181446e-08	1.539744e+01	7.719793e+02
2.290000e-06	2.042078e-06	1.154860e-08	1.464455e+01	7.543422e+02
2.300000e-06	1.936405e-06	1.127009e-08	1.388673e+01	7.358580e+02
2.310000e-06	1.830134e-06	1.097737e-08	1.312462e+01	7.164723e+02
2.320000e-06	1.723324e-06	1.066677e-08	1.235864e+01	6.961265e+02
2.330000e-06	1.616030e-06	1.033917e-08	1.158919e+01	6.747580e+02
2.340000e-06	1.508244e-06	9.998526e-09	1.081622e+01	6.523013e+02
2.350000e-06	1.399906e-06	9.641335e-09	1.003928e+01	6.286891e+02
2.360000e-06	1.291076e-06	9.265116e-09	9.258816e+00	6.038550e+02
2.370000e-06	1.181903e-06	8.867073e-09	8.475897e+00	5.777374e+02
2.380000e-06	1.072417e-06	8.447860e-09	7.690729e+00	5.502850e+02
2.390000e-06	9.626555e-07	8.008334e-09	6.903584e+00	5.214649e+02
2.400000e-06	8.526357e-07	7.548597e-09	6.114588e+00	4.912704e+02
2.410000e-06	7.423116e-07	7.068988e-09	5.323411e+00	4.597302e+02
2.420000e-06	6.317070e-07	6.569923e-09	4.530222e+00	4.269144e+02
2.430000e-06	5.209280e-07	6.049644e-09	3.735781e+00	3.929383e+02
2.440000e-06	4.099462e-07	5.512864e-09	2.939887e+00	3.579602e+02
2.450000e-06	2.987946e-07	4.964696e-09	2.142775e+00	3.221736e+02
2.460000e-06	1.874992e-07	4.408106e-09	1.344631e+00	2.857925e+02
2.470000e-06	7.600783e-08	3.846465e-09	5.450823e-01	2.490324e+02
2.480000e-06	-3.555088e-08	3.281215e-09	-2.549494e-01	2.120870e+02
2.490000e-06	-1.470727e-07	2.715698e-09	-1.054717e+00	1.751062e+02
2.500000e-06	-2.585132e-07	2.152112e-09	-1.853900e+00	1.381772e+02
2.510000e-06	-3.697871e-07	1.589990e-09	-2.651890e+00	1.013122e+02
2.520000e-06	-4.808727e-07	1.026975e-09	-3.448529e+00	6.444745e+01
2.530000e-06	-5.918587e-07	4.607258e-10	-4.244454e+00	2.745194e+01
2.540000e-06	-7.025775e-07	-1.115311e-10	-5.038462e+00	-9.851646e+00
2.550000e-06	-8.129113e-07	-6.924116e-10	-5.829709e+00	-4.765797e+01
2.560000e-06	-9.229683e-07	-1.282482e-09	-6.618971e+00	-8.614483e+01
2.570000e-06	-1.032754e-06	-1.884625e-09	-7.406289e+00	-1.254389e+02
2.580000e-06	-1.142181e-06	-2.498201e-09	-8.191035e+00	-1.655863e+02
2.590000e-06	-1.251222e-06	-3.121151e-09	-8.973008e+00	-2.065331e+02
2.600000e-06	-1.359852e-06	-3.754022e-09	-9.752034e+00	-2.481180e+02
2.610000e-06	-1.467989e-06	-4.393584e-09	-1.052753e+01	-2.900797e+02
2.620000e-06	-1.575644e-06	-5.035033e-09	-1.129957e+01	-3.320771e+02
2.630000e-06	-1.682861e-06	-5.671824e-09	-1.206846e+01	-3.737193e+02
2.640000e-06	-1.789547e-06	-6.297361e-09	-1.283355e+01	-4.146023e+02
2.650000e-06	-1.895540e-06	-6.905607e-09	-1.359367e+01	-4.543457e+02
2.660000e-06	-2.000786e-06	-7.491970e-09	-1.434843e+01	-4.926241e+02
2.670000e-06	-2.105326e-06	-8.052713e-09	-1.509813e+01	-5.291910e+02
2.680000e-06	-2.209090e-06	-8.585420e-09	-1.584226e+01	-5.638902e+02
2.690000e-06	-2.311968e-06	-9.088252e-09	-1.658004e+01	-5.966562e+02
2.700000e-06	-2.413845e-06	-9.560234e-09	-1.731064e+01	-6.275029e+02
2.710000e-06	-2.514613e-06	-1.000390e-08	-1.803329e+01	-6.565059e+02
2.720000e-06	-2.614421e-06	-1.042072e-08	-1.874905e+01	-6.837805e+02
2.730000e-06	-2.713429e-06	-1.081396e-08	-1.945908e+01	-7.094589e+02
2.740000e-06	-2.811576e-06	-1.118641e-08	-2.016293e+01	-7.336727e+02
2.750000e-06	-2.908814e-06	-1.153803e-08	-2.086026e+01	-7.565400e+02
2.760000e-06	-3.005139e-06	-1.186922e-08	-2.155104e+01	-7.781591e+02
2.770000e-06	-3.100490e-06	-1.218165e-08	-2.223485e+01	-7.986090e+02
2.780000e-06	-3.194721e-06	-1.247596e-08	-2.291061e+01	-8.179537e+02
2.790000e-06	-3.287698e-06	-1.275466e-08	-2.357739e+01	-8.362492e+02
2.800000e-06	-3.379452e-06	-1.301958e-08	-2.423539e+01	-8.535497e+02
2.810000e-06	-3.469946e-06	-1.326817e-08	-2.488436e+01	-8.699128e+02
2.820000e-06	-3.559139e-06	-1.350304e-08	-2.552399e+01	-8.854005e+02
2.830000e-06	-3.647173e-06	-1.372846e-08	-2.615532e+01	-9.000785e+02
2.840000e-06	-3.734023e-06	-1.394516e-08	-2.677816e+01	-9.140125e+02
2.850000e-06	-3.819417e-06	-1.415282e-08	-2.739055e+01	-9.272629e+02
2.860000e-06	-3.903375e-06	-1.434999e-08	-2.799265e+01	-9.398816e+02
2.870000e-06	-3.986013e-06	-1.453646e-08	-2.858528e+01	-9.519081e+02
2.880000e-06	-4.067306e-06	-1.471139e-08	-2.916826e+01	-9.633700e+02
2.890000e-06	-4.147246e-06	-1.487446e-08	-2.974155e+01	-9.742843e+02
2.900000e-06	-4.225483e-06	-1.502888e-08	-3.030262e+01	-9.846611e+02
2.910000e-06	-4.301868e-06	-1.517752e-08	-3.085040e+01	-9.945083e+02
2.920000e-06	-4.376584e-06	-1.532026e-08	-3.138622e+01	-1.003835e+03
2.930000e-06	-4.449715e-06	-1.545506e-08	-3.191067e+01	-1.012655e+03
2.940000e-06	-4.521289e-06	-1.558386e-08	-3.242395e+01	-1.020989e+03
