# Temperatura_=_27.62
# Concentracion g/m^3_=_28200.0
# C_Vs_to_Am_M_A/Vsm_=_65563218390.804596
# pendiente_HvsI_1/m_=_3716.3
# ordenada_HvsI_A/m_=_1297.0
# frecuencia_Hz_=_301951.84211453865

Tiempo_(s)	Campo_(V.s)	Magnetizacion_(V.s)	Campo_(kA/m)	Magnetizacion_(A/m)
0.000000e+00	-5.843820e-06	-1.736753e-08	-4.194284e+01	-1.137037e+03
1.000000e-08	-5.842389e-06	-1.736599e-08	-4.193257e+01	-1.136764e+03
2.000000e-08	-5.838844e-06	-1.736004e-08	-4.190712e+01	-1.136386e+03
3.000000e-08	-5.833493e-06	-1.734931e-08	-4.186872e+01	-1.135902e+03
4.000000e-08	-5.826403e-06	-1.733930e-08	-4.181783e+01	-1.135307e+03
5.000000e-08	-5.817410e-06	-1.732603e-08	-4.175329e+01	-1.134587e+03
6.000000e-08	-5.806215e-06	-1.731052e-08	-4.167293e+01	-1.133729e+03
7.000000e-08	-5.792846e-06	-1.729179e-08	-4.157698e+01	-1.132722e+03
8.000000e-08	-5.777367e-06	-1.726685e-08	-4.146588e+01	-1.131558e+03
9.000000e-08	-5.759751e-06	-1.727116e-08	-4.133945e+01	-1.130241e+03
1.000000e-07	-5.740115e-06	-1.729427e-08	-4.119851e+01	-1.128782e+03
1.100000e-07	-5.718351e-06	-1.725045e-08	-4.104231e+01	-1.127199e+03
1.200000e-07	-5.694343e-06	-1.719387e-08	-4.086999e+01	-1.125514e+03
1.300000e-07	-5.668139e-06	-1.716651e-08	-4.068192e+01	-1.123744e+03
1.400000e-07	-5.640176e-06	-1.707771e-08	-4.048122e+01	-1.121900e+03
1.500000e-07	-5.610814e-06	-1.703677e-08	-4.027049e+01	-1.119985e+03
1.600000e-07	-5.579817e-06	-1.712373e-08	-4.004801e+01	-1.117988e+03
1.700000e-07	-5.547012e-06	-1.703481e-08	-3.981255e+01	-1.115888e+03
1.800000e-07	-5.512387e-06	-1.699013e-08	-3.956404e+01	-1.113658e+03
1.900000e-07	-5.475871e-06	-1.702943e-08	-3.930196e+01	-1.111271e+03
2.000000e-07	-5.437454e-06	-1.689474e-08	-3.902623e+01	-1.108702e+03
2.100000e-07	-5.397195e-06	-1.687867e-08	-3.873728e+01	-1.105936e+03
2.200000e-07	-5.354830e-06	-1.686113e-08	-3.843321e+01	-1.102968e+03
2.300000e-07	-5.310348e-06	-1.675386e-08	-3.811395e+01	-1.099803e+03
2.400000e-07	-5.263865e-06	-1.673459e-08	-3.778033e+01	-1.096454e+03
2.500000e-07	-5.215175e-06	-1.667605e-08	-3.743086e+01	-1.092938e+03
2.600000e-07	-5.164150e-06	-1.661326e-08	-3.706464e+01	-1.089269e+03
2.700000e-07	-5.110873e-06	-1.659285e-08	-3.668226e+01	-1.085456e+03
2.800000e-07	-5.055732e-06	-1.650314e-08	-3.628649e+01	-1.081501e+03
2.900000e-07	-4.998840e-06	-1.643037e-08	-3.587816e+01	-1.077394e+03
3.000000e-07	-4.940006e-06	-1.637632e-08	-3.545589e+01	-1.073119e+03
3.100000e-07	-4.879318e-06	-1.631118e-08	-3.502032e+01	-1.068657e+03
3.200000e-07	-4.816930e-06	-1.623539e-08	-3.457254e+01	-1.063986e+03
3.300000e-07	-4.752778e-06	-1.617057e-08	-3.411210e+01	-1.059091e+03
3.400000e-07	-4.686727e-06	-1.608716e-08	-3.363803e+01	-1.053960e+03
3.500000e-07	-4.618881e-06	-1.597135e-08	-3.315109e+01	-1.048588e+03
3.600000e-07	-4.549453e-06	-1.589780e-08	-3.265278e+01	-1.042978e+03
3.700000e-07	-4.478446e-06	-1.581359e-08	-3.214314e+01	-1.037133e+03
3.800000e-07	-4.405872e-06	-1.572566e-08	-3.162226e+01	-1.031057e+03
3.900000e-07	-4.331554e-06	-1.564244e-08	-3.108886e+01	-1.024751e+03
4.000000e-07	-4.255379e-06	-1.552428e-08	-3.054213e+01	-1.018211e+03
4.100000e-07	-4.177469e-06	-1.540753e-08	-2.998294e+01	-1.011426e+03
4.200000e-07	-4.097873e-06	-1.530293e-08	-2.941166e+01	-1.004382e+03
4.300000e-07	-4.016838e-06	-1.519739e-08	-2.883004e+01	-9.970605e+02
4.400000e-07	-3.934545e-06	-1.508161e-08	-2.823940e+01	-9.894438e+02
4.500000e-07	-3.850967e-06	-1.496091e-08	-2.763954e+01	-9.815152e+02
4.600000e-07	-3.766134e-06	-1.483740e-08	-2.703066e+01	-9.732615e+02
4.700000e-07	-3.680102e-06	-1.470130e-08	-2.641319e+01	-9.646724e+02
4.800000e-07	-3.592973e-06	-1.456634e-08	-2.578784e+01	-9.557398e+02
4.900000e-07	-3.504648e-06	-1.442736e-08	-2.515390e+01	-9.464553e+02
5.000000e-07	-3.414881e-06	-1.427737e-08	-2.450962e+01	-9.368081e+02
5.100000e-07	-3.323648e-06	-1.411575e-08	-2.385481e+01	-9.267834e+02
5.200000e-07	-3.231181e-06	-1.394807e-08	-2.319115e+01	-9.163606e+02
5.300000e-07	-3.137669e-06	-1.378169e-08	-2.251999e+01	-9.055141e+02
5.400000e-07	-3.043113e-06	-1.360938e-08	-2.184133e+01	-8.942136e+02
5.500000e-07	-2.947492e-06	-1.343234e-08	-2.115502e+01	-8.824268e+02
5.600000e-07	-2.850702e-06	-1.324773e-08	-2.046034e+01	-8.701205e+02
5.700000e-07	-2.752669e-06	-1.305015e-08	-1.975672e+01	-8.572628e+02
5.800000e-07	-2.653532e-06	-1.284033e-08	-1.904519e+01	-8.438236e+02
5.900000e-07	-2.553420e-06	-1.262343e-08	-1.832666e+01	-8.297740e+02
6.000000e-07	-2.452407e-06	-1.239823e-08	-1.760166e+01	-8.150859e+02
6.100000e-07	-2.350500e-06	-1.215702e-08	-1.687024e+01	-7.997295e+02
6.200000e-07	-2.247742e-06	-1.190879e-08	-1.613272e+01	-7.836722e+02
6.300000e-07	-2.144195e-06	-1.165613e-08	-1.538953e+01	-7.668765e+02
6.400000e-07	-2.039843e-06	-1.139305e-08	-1.464056e+01	-7.492992e+02
6.500000e-07	-1.934704e-06	-1.111670e-08	-1.388594e+01	-7.308914e+02
6.600000e-07	-1.828758e-06	-1.082371e-08	-1.312554e+01	-7.115989e+02
6.700000e-07	-1.722033e-06	-1.051186e-08	-1.235954e+01	-6.913630e+02
6.800000e-07	-1.614694e-06	-1.018222e-08	-1.158914e+01	-6.701215e+02
6.900000e-07	-1.506853e-06	-9.838939e-09	-1.081513e+01	-6.478108e+02
7.000000e-07	-1.398502e-06	-9.480040e-09	-1.003747e+01	-6.243667e+02
7.100000e-07	-1.289700e-06	-9.101741e-09	-9.256562e+00	-5.997278e+02
7.200000e-07	-1.180519e-06	-8.703622e-09	-8.472934e+00	-5.738381e+02
7.300000e-07	-1.071030e-06	-8.289035e-09	-7.687104e+00	-5.466526e+02
7.400000e-07	-9.612287e-07	-7.857849e-09	-6.899025e+00	-5.181433e+02
7.500000e-07	-8.511032e-07	-7.407660e-09	-6.108621e+00	-4.883068e+02
7.600000e-07	-7.406961e-07	-6.936699e-09	-5.316196e+00	-4.571716e+02
7.700000e-07	-6.300334e-07	-6.443090e-09	-4.521938e+00	-4.248050e+02
7.800000e-07	-5.191657e-07	-5.928655e-09	-3.726207e+00	-3.913162e+02
7.900000e-07	-4.081685e-07	-5.398121e-09	-2.929547e+00	-3.568560e+02
8.000000e-07	-2.970664e-07	-4.859437e-09	-2.132134e+00	-3.216099e+02
8.100000e-07	-1.858233e-07	-4.315594e-09	-1.333709e+00	-2.857864e+02
8.200000e-07	-7.447366e-08	-3.767695e-09	-5.345196e-01	-2.495991e+02
8.300000e-07	3.692907e-08	-3.218704e-09	2.650509e-01	-2.132458e+02
8.400000e-07	1.483207e-07	-2.669574e-09	1.064542e+00	-1.768864e+02
8.500000e-07	2.596850e-07	-2.119949e-09	1.863837e+00	-1.406240e+02
8.600000e-07	3.709562e-07	-1.569203e-09	2.662463e+00	-1.044910e+02
8.700000e-07	4.821212e-07	-1.019590e-09	3.460328e+00	-6.844436e+01
8.800000e-07	5.931993e-07	-4.685532e-10	4.257568e+00	-3.237135e+01
8.900000e-07	7.040775e-07	8.741955e-11	5.053374e+00	3.894721e+00
9.000000e-07	8.147415e-07	6.481707e-10	5.847643e+00	4.054921e+01
9.100000e-07	9.251562e-07	1.214281e-09	6.640122e+00	7.778510e+01
9.200000e-07	1.035242e-06	1.788435e-09	7.430242e+00	1.157601e+02
9.300000e-07	1.145024e-06	2.372662e-09	8.218179e+00	1.545663e+02
9.400000e-07	1.254464e-06	2.970289e-09	9.003659e+00	1.942076e+02
9.500000e-07	1.363439e-06	3.583864e-09	9.785805e+00	2.345874e+02
9.600000e-07	1.471935e-06	4.209647e-09	1.056452e+01	2.755088e+02
9.700000e-07	1.579984e-06	4.841939e-09	1.134002e+01	3.166876e+02
9.800000e-07	1.687565e-06	5.471167e-09	1.211216e+01	3.577762e+02
9.900000e-07	1.794592e-06	6.088987e-09	1.288032e+01	3.983945e+02
1.000000e-06	1.900917e-06	6.691030e-09	1.364345e+01	4.381638e+02
1.010000e-06	2.006355e-06	7.275157e-09	1.440021e+01	4.767390e+02
1.020000e-06	2.110765e-06	7.839052e-09	1.514959e+01	5.138354e+02
1.030000e-06	2.214283e-06	8.376754e-09	1.589257e+01	5.492455e+02
1.040000e-06	2.317037e-06	8.885392e-09	1.663006e+01	5.828463e+02
1.050000e-06	2.419092e-06	9.364685e-09	1.736254e+01	6.145961e+02
1.060000e-06	2.520348e-06	9.816778e-09	1.808929e+01	6.445222e+02
1.070000e-06	2.620668e-06	1.024371e-08	1.880932e+01	6.727036e+02
1.080000e-06	2.720148e-06	1.064830e-08	1.952332e+01	6.992510e+02
1.090000e-06	2.818669e-06	1.103232e-08	2.023043e+01	7.242874e+02
1.100000e-06	2.915998e-06	1.139668e-08	2.092899e+01	7.479332e+02
1.110000e-06	3.012086e-06	1.174073e-08	2.161864e+01	7.702954e+02
1.120000e-06	3.107058e-06	1.206288e-08	2.230028e+01	7.914632e+02
1.130000e-06	3.201022e-06	1.236465e-08	2.297469e+01	8.115085e+02
1.140000e-06	3.293989e-06	1.265003e-08	2.364194e+01	8.304899e+02
1.150000e-06	3.385973e-06	1.292010e-08	2.430214e+01	8.484585e+02
1.160000e-06	3.476896e-06	1.317590e-08	2.495472e+01	8.654635e+02
1.170000e-06	3.566451e-06	1.342088e-08	2.559748e+01	8.815567e+02
1.180000e-06	3.654531e-06	1.365465e-08	2.622966e+01	8.967934e+02
1.190000e-06	3.741320e-06	1.387601e-08	2.685257e+01	9.112327e+02
1.200000e-06	3.826857e-06	1.408393e-08	2.746649e+01	9.249340e+02
1.210000e-06	3.911160e-06	1.427933e-08	2.807156e+01	9.379537e+02
1.220000e-06	3.994271e-06	1.446458e-08	2.866807e+01	9.503420e+02
1.230000e-06	4.075928e-06	1.464154e-08	2.925415e+01	9.621400e+02
1.240000e-06	4.155975e-06	1.481047e-08	2.982867e+01	9.733790e+02
1.250000e-06	4.234492e-06	1.497262e-08	3.039221e+01	9.840814e+02
1.260000e-06	4.311496e-06	1.512748e-08	3.094489e+01	9.942626e+02
1.270000e-06	4.386965e-06	1.527514e-08	3.148655e+01	1.003934e+03
1.280000e-06	4.460650e-06	1.541642e-08	3.201541e+01	1.013107e+03
1.290000e-06	4.532476e-06	1.555044e-08	3.253093e+01	1.021794e+03
1.300000e-06	4.602628e-06	1.567558e-08	3.303443e+01	1.030010e+03
1.310000e-06	4.671250e-06	1.579269e-08	3.352695e+01	1.037774e+03
1.320000e-06	4.738292e-06	1.590317e-08	3.400813e+01	1.045108e+03
1.330000e-06	4.803441e-06	1.600798e-08	3.447573e+01	1.052037e+03
1.340000e-06	4.866722e-06	1.610745e-08	3.492991e+01	1.058586e+03
1.350000e-06	4.928401e-06	1.620011e-08	3.537260e+01	1.064781e+03
1.360000e-06	4.988544e-06	1.628830e-08	3.580427e+01	1.070648e+03
1.370000e-06	5.046973e-06	1.637295e-08	3.622363e+01	1.076211e+03
1.380000e-06	5.103404e-06	1.645309e-08	3.662865e+01	1.081494e+03
1.390000e-06	5.157969e-06	1.652919e-08	3.702028e+01	1.086519e+03
1.400000e-06	5.210752e-06	1.660070e-08	3.739912e+01	1.091305e+03
1.410000e-06	5.261334e-06	1.666920e-08	3.776216e+01	1.095868e+03
1.420000e-06	5.309648e-06	1.673518e-08	3.810893e+01	1.100218e+03
1.430000e-06	5.356049e-06	1.679779e-08	3.844196e+01	1.104360e+03
1.440000e-06	5.400739e-06	1.685695e-08	3.876271e+01	1.108294e+03
1.450000e-06	5.443603e-06	1.691296e-08	3.907036e+01	1.112011e+03
1.460000e-06	5.484393e-06	1.696718e-08	3.936312e+01	1.115503e+03
1.470000e-06	5.523210e-06	1.701640e-08	3.964172e+01	1.118758e+03
1.480000e-06	5.560232e-06	1.706102e-08	3.990744e+01	1.121766e+03
1.490000e-06	5.595374e-06	1.710188e-08	4.015966e+01	1.124524e+03
1.500000e-06	5.628401e-06	1.713940e-08	4.039671e+01	1.127033e+03
1.510000e-06	5.659335e-06	1.717558e-08	4.061873e+01	1.129304e+03
1.520000e-06	5.688450e-06	1.720751e-08	4.082770e+01	1.131353e+03
1.530000e-06	5.715679e-06	1.723558e-08	4.102313e+01	1.133198e+03
1.540000e-06	5.740681e-06	1.726115e-08	4.120258e+01	1.134861e+03
1.550000e-06	5.763504e-06	1.728337e-08	4.136638e+01	1.136358e+03
1.560000e-06	5.784414e-06	1.730213e-08	4.151647e+01	1.137700e+03
1.570000e-06	5.803460e-06	1.731822e-08	4.165316e+01	1.138893e+03
1.580000e-06	5.820378e-06	1.733356e-08	4.177459e+01	1.139933e+03
1.590000e-06	5.835022e-06	1.734720e-08	4.187969e+01	1.140814e+03
1.600000e-06	5.847485e-06	1.735759e-08	4.196914e+01	1.141529e+03
1.610000e-06	5.857592e-06	1.736699e-08	4.204168e+01	1.142073e+03
1.620000e-06	5.865362e-06	1.737618e-08	4.209745e+01	1.142445e+03
1.630000e-06	5.871026e-06	1.738355e-08	4.213810e+01	1.142653e+03
1.640000e-06	5.874764e-06	1.738802e-08	4.216493e+01	1.142707e+03
1.650000e-06	5.876348e-06	1.739153e-08	4.217630e+01	1.142624e+03
1.660000e-06	5.875778e-06	1.739103e-08	4.217221e+01	1.142418e+03
1.670000e-06	5.873363e-06	1.738180e-08	4.215488e+01	1.142103e+03
1.680000e-06	5.869126e-06	1.737263e-08	4.212447e+01	1.141682e+03
1.690000e-06	5.862879e-06	1.736446e-08	4.207963e+01	1.141155e+03
1.700000e-06	5.854615e-06	1.735622e-08	4.202032e+01	1.140511e+03
1.710000e-06	5.844593e-06	1.734945e-08	4.194838e+01	1.139738e+03
1.720000e-06	5.832679e-06	1.734463e-08	4.186287e+01	1.138822e+03
1.730000e-06	5.818588e-06	1.734185e-08	4.176174e+01	1.137752e+03
1.740000e-06	5.802521e-06	1.729058e-08	4.164642e+01	1.136526e+03
1.750000e-06	5.784484e-06	1.721239e-08	4.151696e+01	1.135151e+03
1.760000e-06	5.763810e-06	1.721904e-08	4.136858e+01	1.133640e+03
1.770000e-06	5.740257e-06	1.722177e-08	4.119953e+01	1.132013e+03
1.780000e-06	5.714441e-06	1.721853e-08	4.101424e+01	1.130291e+03
1.790000e-06	5.687204e-06	1.727353e-08	4.081876e+01	1.128491e+03
1.800000e-06	5.659084e-06	1.714475e-08	4.061693e+01	1.126619e+03
1.810000e-06	5.629494e-06	1.705947e-08	4.040455e+01	1.124672e+03
1.820000e-06	5.597450e-06	1.712332e-08	4.017456e+01	1.122637e+03
1.830000e-06	5.563434e-06	1.700811e-08	3.993042e+01	1.120488e+03
1.840000e-06	5.527734e-06	1.704668e-08	3.967419e+01	1.118199e+03
1.850000e-06	5.489827e-06	1.708680e-08	3.940213e+01	1.115741e+03
1.860000e-06	5.449858e-06	1.691650e-08	3.911525e+01	1.113095e+03
1.870000e-06	5.408004e-06	1.694557e-08	3.881485e+01	1.110249e+03
1.880000e-06	5.364419e-06	1.689798e-08	3.850203e+01	1.107201e+03
1.890000e-06	5.319116e-06	1.681126e-08	3.817688e+01	1.103961e+03
1.900000e-06	5.271600e-06	1.682712e-08	3.783585e+01	1.100544e+03
1.910000e-06	5.221935e-06	1.668124e-08	3.747938e+01	1.096965e+03
1.920000e-06	5.170219e-06	1.667271e-08	3.710820e+01	1.093238e+03
1.930000e-06	5.116317e-06	1.666249e-08	3.672133e+01	1.089369e+03
1.940000e-06	5.060467e-06	1.654232e-08	3.632048e+01	1.085354e+03
1.950000e-06	5.002757e-06	1.651649e-08	3.590627e+01	1.081183e+03
1.960000e-06	4.943256e-06	1.642130e-08	3.547922e+01	1.076836e+03
1.970000e-06	4.881918e-06	1.636189e-08	3.503898e+01	1.072293e+03
1.980000e-06	4.818609e-06	1.627368e-08	3.458459e+01	1.067535e+03
1.990000e-06	4.753570e-06	1.619710e-08	3.411779e+01	1.062547e+03
2.000000e-06	4.686926e-06	1.617710e-08	3.363946e+01	1.057321e+03
2.010000e-06	4.618699e-06	1.606134e-08	3.314978e+01	1.051854e+03
2.020000e-06	4.548654e-06	1.597864e-08	3.264704e+01	1.046150e+03
2.030000e-06	4.476718e-06	1.586342e-08	3.213074e+01	1.040213e+03
2.040000e-06	4.403224e-06	1.577571e-08	3.160325e+01	1.034046e+03
2.050000e-06	4.328172e-06	1.571748e-08	3.106458e+01	1.027647e+03
2.060000e-06	4.251433e-06	1.559690e-08	3.051380e+01	1.021012e+03
2.070000e-06	4.172930e-06	1.550459e-08	2.995036e+01	1.014126e+03
2.080000e-06	4.092839e-06	1.538204e-08	2.937552e+01	1.006974e+03
2.090000e-06	4.011349e-06	1.526533e-08	2.879065e+01	9.995380e+02
2.100000e-06	3.928490e-06	1.514621e-08	2.819594e+01	9.917996e+02
2.110000e-06	3.844375e-06	1.502693e-08	2.759222e+01	9.837437e+02
2.120000e-06	3.758939e-06	1.491463e-08	2.697903e+01	9.753583e+02
2.130000e-06	3.672068e-06	1.476897e-08	2.635552e+01	9.666343e+02
2.140000e-06	3.583859e-06	1.463170e-08	2.572242e+01	9.575635e+02
2.150000e-06	3.494405e-06	1.448625e-08	2.508039e+01	9.481370e+02
2.160000e-06	3.403709e-06	1.434673e-08	2.442943e+01	9.383426e+02
2.170000e-06	3.311896e-06	1.419794e-08	2.377046e+01	9.281633e+02
2.180000e-06	3.218969e-06	1.403977e-08	2.310350e+01	9.175764e+02
2.190000e-06	3.124732e-06	1.387437e-08	2.242713e+01	9.065543e+02
2.200000e-06	3.029215e-06	1.369403e-08	2.174158e+01	8.950657e+02
2.210000e-06	2.932622e-06	1.351396e-08	2.104831e+01	8.830777e+02
2.220000e-06	2.835061e-06	1.332574e-08	2.034808e+01	8.705576e+02
2.230000e-06	2.736516e-06	1.312860e-08	1.964079e+01	8.574740e+02
2.240000e-06	2.637012e-06	1.291861e-08	1.892662e+01	8.437973e+02
2.250000e-06	2.536609e-06	1.270531e-08	1.820600e+01	8.294993e+02
2.260000e-06	2.435240e-06	1.248281e-08	1.747844e+01	8.145514e+02
2.270000e-06	2.332854e-06	1.224357e-08	1.674359e+01	7.989228e+02
2.280000e-06	2.229448e-06	1.199392e-08	1.600141e+01	7.825792e+02
2.290000e-06	2.125133e-06	1.173366e-08	1.525271e+01	7.654809e+02
2.300000e-06	2.020122e-06	1.146092e-08	1.449902e+01	7.475825e+02
2.310000e-06	1.914488e-06	1.117547e-08	1.374085e+01	7.288330e+02
2.320000e-06	1.808231e-06	1.087765e-08	1.297821e+01	7.091761e+02
2.330000e-06	1.701380e-06	1.056385e-08	1.221131e+01	6.885516e+02
2.340000e-06	1.594000e-06	1.023312e-08	1.144062e+01	6.668968e+02
2.350000e-06	1.486192e-06	9.885672e-09	1.066684e+01	6.441474e+02
2.360000e-06	1.377987e-06	9.523288e-09	9.890224e+00	6.202400e+02
2.370000e-06	1.269377e-06	9.144040e-09	9.110697e+00	5.951149e+02
2.380000e-06	1.160399e-06	8.744778e-09	8.328529e+00	5.687198e+02
2.390000e-06	1.051078e-06	8.323043e-09	7.543898e+00	5.410154e+02
2.400000e-06	9.414156e-07	7.877916e-09	6.756820e+00	5.119826e+02
2.410000e-06	8.313313e-07	7.413044e-09	5.966713e+00	4.816294e+02
2.420000e-06	7.208957e-07	6.930205e-09	5.174083e+00	4.499992e+02
2.430000e-06	6.102440e-07	6.428434e-09	4.379903e+00	4.171753e+02
2.440000e-06	4.994089e-07	5.909222e-09	3.584407e+00	3.832838e+02
2.450000e-06	3.884416e-07	5.377052e-09	2.787961e+00	3.484901e+02
2.460000e-06	2.773106e-07	4.833402e-09	1.990341e+00	3.129907e+02
2.470000e-06	1.659593e-07	4.282489e-09	1.191139e+00	2.769982e+02
2.480000e-06	5.455895e-08	3.728166e-09	3.915858e-01	2.407228e+02
2.490000e-06	-5.680212e-08	3.172413e-09	-4.076857e-01	2.043498e+02
2.500000e-06	-1.681863e-07	2.617081e-09	-1.207123e+00	1.680189e+02
2.510000e-06	-2.795175e-07	2.062611e-09	-2.006181e+00	1.318066e+02
2.520000e-06	-3.907038e-07	1.509929e-09	-2.804197e+00	9.571581e+01
2.530000e-06	-5.017232e-07	9.582905e-10	-3.601017e+00	5.967474e+01
2.540000e-06	-6.125810e-07	4.069259e-10	-4.396676e+00	2.354701e+01
2.550000e-06	-7.232540e-07	-1.493714e-10	-5.191010e+00	-1.284873e+01
2.560000e-06	-8.335734e-07	-7.142641e-10	-5.982804e+00	-4.971082e+01
2.570000e-06	-9.435362e-07	-1.290606e-09	-6.772040e+00	-8.722225e+01
2.580000e-06	-1.053182e-06	-1.880595e-09	-7.559003e+00	-1.255182e+02
2.590000e-06	-1.162408e-06	-2.479582e-09	-8.342951e+00	-1.646585e+02
2.600000e-06	-1.271226e-06	-3.086872e-09	-9.123969e+00	-2.046082e+02
2.610000e-06	-1.379639e-06	-3.704850e-09	-9.902079e+00	-2.452304e+02
2.620000e-06	-1.487624e-06	-4.331486e-09	-1.067712e+01	-2.862919e+02
2.630000e-06	-1.595089e-06	-4.962820e-09	-1.144843e+01	-3.274803e+02
2.640000e-06	-1.702006e-06	-5.591341e-09	-1.221580e+01	-3.684311e+02
2.650000e-06	-1.808370e-06	-6.208581e-09	-1.297921e+01	-4.087608e+02
2.660000e-06	-1.914079e-06	-6.810014e-09	-1.373792e+01	-4.481003e+02
2.670000e-06	-2.019089e-06	-7.391986e-09	-1.449160e+01	-4.861255e+02
2.680000e-06	-2.123397e-06	-7.952291e-09	-1.524025e+01	-5.225805e+02
2.690000e-06	-2.226891e-06	-8.486475e-09	-1.598306e+01	-5.572908e+02
2.700000e-06	-2.329449e-06	-8.989850e-09	-1.671915e+01	-5.901662e+02
2.710000e-06	-2.430937e-06	-9.463707e-09	-1.744756e+01	-6.211940e+02
2.720000e-06	-2.531460e-06	-9.911033e-09	-1.816904e+01	-6.504240e+02
2.730000e-06	-2.631183e-06	-1.033195e-08	-1.888479e+01	-6.779502e+02
2.740000e-06	-2.730013e-06	-1.072895e-08	-1.959412e+01	-7.038901e+02
2.750000e-06	-2.827894e-06	-1.110486e-08	-2.029664e+01	-7.283674e+02
2.760000e-06	-2.924836e-06	-1.145898e-08	-2.099242e+01	-7.514981e+02
2.770000e-06	-3.020894e-06	-1.179348e-08	-2.168186e+01	-7.733824e+02
2.780000e-06	-3.115935e-06	-1.210985e-08	-2.236400e+01	-7.941025e+02
2.790000e-06	-3.209761e-06	-1.240827e-08	-2.303741e+01	-8.137244e+02
2.800000e-06	-3.302358e-06	-1.269236e-08	-2.370200e+01	-8.323029e+02
2.810000e-06	-3.393763e-06	-1.296183e-08	-2.435805e+01	-8.498880e+02
2.820000e-06	-3.483881e-06	-1.321450e-08	-2.500485e+01	-8.665295e+02
2.830000e-06	-3.572766e-06	-1.345453e-08	-2.564281e+01	-8.822803e+02
2.840000e-06	-3.660623e-06	-1.368520e-08	-2.627338e+01	-8.971976e+02
2.850000e-06	-3.747209e-06	-1.390601e-08	-2.689484e+01	-9.113409e+02
2.860000e-06	-3.832226e-06	-1.411737e-08	-2.750503e+01	-9.247690e+02
2.870000e-06	-3.915850e-06	-1.431652e-08	-2.810522e+01	-9.375361e+02
2.880000e-06	-3.998227e-06	-1.450481e-08	-2.869646e+01	-9.496891e+02
2.890000e-06	-4.079268e-06	-1.468218e-08	-2.927812e+01	-9.612653e+02
2.900000e-06	-4.158889e-06	-1.484821e-08	-2.984959e+01	-9.722922e+02
2.910000e-06	-4.236720e-06	-1.500622e-08	-3.040820e+01	-9.827893e+02
2.920000e-06	-4.312724e-06	-1.515609e-08	-3.095370e+01	-9.927700e+02
2.930000e-06	-4.387138e-06	-1.530063e-08	-3.148779e+01	-1.002246e+03
2.940000e-06	-4.459972e-06	-1.543746e-08	-3.201055e+01	-1.011227e+03
