# Temperatura_=_85.7
# Concentracion g/m^3_=_28200.0
# C_Vs_to_Am_M_A/Vsm_=_65563218390.804596
# pendiente_HvsI_1/m_=_3716.3
# ordenada_HvsI_A/m_=_1297.0
# frecuencia_Hz_=_301945.1106738275

Tiempo_(s)	Campo_(V.s)	Magnetizacion_(V.s)	Campo_(kA/m)	Magnetizacion_(A/m)
0.000000e+00	-5.839941e-06	-2.531114e-08	-4.194330e+01	-1.658570e+03
1.000000e-08	-5.838364e-06	-2.530810e-08	-4.193197e+01	-1.658218e+03
2.000000e-08	-5.834728e-06	-2.530096e-08	-4.190586e+01	-1.657696e+03
3.000000e-08	-5.829249e-06	-2.528898e-08	-4.186651e+01	-1.656998e+03
4.000000e-08	-5.821984e-06	-2.527488e-08	-4.181433e+01	-1.656108e+03
5.000000e-08	-5.812790e-06	-2.525364e-08	-4.174830e+01	-1.655006e+03
6.000000e-08	-5.801431e-06	-2.522924e-08	-4.166671e+01	-1.653676e+03
7.000000e-08	-5.787959e-06	-2.520567e-08	-4.156996e+01	-1.652104e+03
8.000000e-08	-5.772396e-06	-2.518092e-08	-4.145818e+01	-1.650289e+03
9.000000e-08	-5.754680e-06	-2.518061e-08	-4.133094e+01	-1.648244e+03
1.000000e-07	-5.734869e-06	-2.518326e-08	-4.118866e+01	-1.645996e+03
1.100000e-07	-5.712876e-06	-2.511420e-08	-4.103070e+01	-1.643580e+03
1.200000e-07	-5.688676e-06	-2.504065e-08	-4.085689e+01	-1.641037e+03
1.300000e-07	-5.662331e-06	-2.498506e-08	-4.066768e+01	-1.638401e+03
1.400000e-07	-5.634270e-06	-2.488755e-08	-4.046614e+01	-1.635690e+03
1.500000e-07	-5.604829e-06	-2.487605e-08	-4.025469e+01	-1.632904e+03
1.600000e-07	-5.573820e-06	-2.492066e-08	-4.003198e+01	-1.630018e+03
1.700000e-07	-5.541053e-06	-2.480023e-08	-3.979665e+01	-1.626988e+03
1.800000e-07	-5.506372e-06	-2.476767e-08	-3.954756e+01	-1.623755e+03
1.900000e-07	-5.469650e-06	-2.474824e-08	-3.928382e+01	-1.620255e+03
2.000000e-07	-5.430948e-06	-2.459004e-08	-3.900586e+01	-1.616436e+03
2.100000e-07	-5.390434e-06	-2.458484e-08	-3.871487e+01	-1.612259e+03
2.200000e-07	-5.347871e-06	-2.455134e-08	-3.840918e+01	-1.607713e+03
2.300000e-07	-5.303255e-06	-2.443452e-08	-3.808874e+01	-1.602807e+03
2.400000e-07	-5.256696e-06	-2.436814e-08	-3.775435e+01	-1.597576e+03
2.500000e-07	-5.207895e-06	-2.426120e-08	-3.740385e+01	-1.592061e+03
2.600000e-07	-5.156746e-06	-2.416952e-08	-3.703650e+01	-1.586309e+03
2.700000e-07	-5.103367e-06	-2.409843e-08	-3.665312e+01	-1.580353e+03
2.800000e-07	-5.048122e-06	-2.399556e-08	-3.625634e+01	-1.574211e+03
2.900000e-07	-4.991090e-06	-2.391274e-08	-3.584673e+01	-1.567877e+03
3.000000e-07	-4.932126e-06	-2.381330e-08	-3.542324e+01	-1.561330e+03
3.100000e-07	-4.871327e-06	-2.370488e-08	-3.498657e+01	-1.554534e+03
3.200000e-07	-4.808823e-06	-2.357925e-08	-3.453766e+01	-1.547449e+03
3.300000e-07	-4.744612e-06	-2.346393e-08	-3.407649e+01	-1.540045e+03
3.400000e-07	-4.678525e-06	-2.335567e-08	-3.360184e+01	-1.532298e+03
3.500000e-07	-4.610620e-06	-2.321984e-08	-3.311414e+01	-1.524205e+03
3.600000e-07	-4.541041e-06	-2.309967e-08	-3.261441e+01	-1.515770e+03
3.700000e-07	-4.469938e-06	-2.296591e-08	-3.210374e+01	-1.507009e+03
3.800000e-07	-4.397403e-06	-2.283294e-08	-3.158278e+01	-1.497934e+03
3.900000e-07	-4.323093e-06	-2.269110e-08	-3.104908e+01	-1.488552e+03
4.000000e-07	-4.246865e-06	-2.252921e-08	-3.050160e+01	-1.478857e+03
4.100000e-07	-4.168894e-06	-2.237863e-08	-2.994160e+01	-1.468827e+03
4.200000e-07	-4.089269e-06	-2.222236e-08	-2.936972e+01	-1.458432e+03
4.300000e-07	-4.008153e-06	-2.205724e-08	-2.878714e+01	-1.447637e+03
4.400000e-07	-3.925692e-06	-2.187802e-08	-2.819489e+01	-1.436410e+03
4.500000e-07	-3.842047e-06	-2.169715e-08	-2.759414e+01	-1.424728e+03
4.600000e-07	-3.757275e-06	-2.151651e-08	-2.698529e+01	-1.412578e+03
4.700000e-07	-3.671263e-06	-2.132435e-08	-2.636754e+01	-1.399960e+03
4.800000e-07	-3.584108e-06	-2.112882e-08	-2.574159e+01	-1.386883e+03
4.900000e-07	-3.495754e-06	-2.092413e-08	-2.510701e+01	-1.373350e+03
5.000000e-07	-3.405944e-06	-2.070854e-08	-2.446198e+01	-1.359359e+03
5.100000e-07	-3.314683e-06	-2.048082e-08	-2.380653e+01	-1.344892e+03
5.200000e-07	-3.222287e-06	-2.024503e-08	-2.314293e+01	-1.329916e+03
5.300000e-07	-3.128799e-06	-2.000577e-08	-2.247149e+01	-1.314381e+03
5.400000e-07	-3.034168e-06	-1.976139e-08	-2.179183e+01	-1.298227e+03
5.500000e-07	-2.938557e-06	-1.950733e-08	-2.110514e+01	-1.281395e+03
5.600000e-07	-2.841874e-06	-1.923861e-08	-2.041075e+01	-1.263830e+03
5.700000e-07	-2.743889e-06	-1.895672e-08	-1.970701e+01	-1.245488e+03
5.800000e-07	-2.644626e-06	-1.866247e-08	-1.899409e+01	-1.226339e+03
5.900000e-07	-2.544410e-06	-1.835727e-08	-1.827432e+01	-1.206360e+03
6.000000e-07	-2.443340e-06	-1.803998e-08	-1.754842e+01	-1.185531e+03
6.100000e-07	-2.341359e-06	-1.770697e-08	-1.681598e+01	-1.163823e+03
6.200000e-07	-2.238536e-06	-1.736095e-08	-1.607749e+01	-1.141193e+03
6.300000e-07	-2.134967e-06	-1.699815e-08	-1.533364e+01	-1.117578e+03
6.400000e-07	-2.030668e-06	-1.661811e-08	-1.458455e+01	-1.092892e+03
6.500000e-07	-1.925591e-06	-1.622318e-08	-1.382987e+01	-1.067034e+03
6.600000e-07	-1.819771e-06	-1.581032e-08	-1.306986e+01	-1.039893e+03
6.700000e-07	-1.713189e-06	-1.537696e-08	-1.230437e+01	-1.011354e+03
6.800000e-07	-1.605867e-06	-1.491914e-08	-1.153357e+01	-9.813084e+02
6.900000e-07	-1.497964e-06	-1.443503e-08	-1.075860e+01	-9.496539e+02
7.000000e-07	-1.389637e-06	-1.392392e-08	-9.980573e+00	-9.162955e+02
7.100000e-07	-1.280944e-06	-1.338588e-08	-9.199926e+00	-8.811424e+02
7.200000e-07	-1.171847e-06	-1.282143e-08	-8.416375e+00	-8.441038e+02
7.300000e-07	-1.062391e-06	-1.223031e-08	-7.630245e+00	-8.050888e+02
7.400000e-07	-9.526283e-07	-1.160873e-08	-6.841914e+00	-7.640105e+02
7.500000e-07	-8.425181e-07	-1.095178e-08	-6.051087e+00	-7.207974e+02
7.600000e-07	-7.320914e-07	-1.026010e-08	-5.257986e+00	-6.754113e+02
7.700000e-07	-6.214511e-07	-9.533680e-09	-4.463351e+00	-6.278672e+02
7.800000e-07	-5.106418e-07	-8.774577e-09	-3.667503e+00	-5.782519e+02
7.900000e-07	-3.997217e-07	-7.988550e-09	-2.870859e+00	-5.267350e+02
8.000000e-07	-2.886932e-07	-7.180168e-09	-2.073436e+00	-4.735671e+02
8.100000e-07	-1.775173e-07	-6.352764e-09	-1.274955e+00	-4.190621e+02
8.200000e-07	-6.623740e-08	-5.509743e-09	-4.757266e-01	-3.635650e+02
8.300000e-07	4.508470e-08	-4.656169e-09	3.238048e-01	-3.074077e+02
8.400000e-07	1.563657e-07	-3.796070e-09	1.123041e+00	-2.508618e+02
8.500000e-07	2.676079e-07	-2.931567e-09	1.921998e+00	-1.940961e+02
8.600000e-07	3.788434e-07	-2.062879e-09	2.720908e+00	-1.371492e+02
8.700000e-07	4.899607e-07	-1.190127e-09	3.518968e+00	-7.992430e+01
8.800000e-07	6.009128e-07	-3.099568e-10	4.315842e+00	-2.220906e+01
8.900000e-07	7.117351e-07	5.818789e-10	5.111784e+00	3.627971e+01
9.000000e-07	8.223668e-07	1.490576e-09	5.906357e+00	9.583404e+01
9.100000e-07	9.327335e-07	2.418030e-09	6.699027e+00	1.566850e+02
9.200000e-07	1.042804e-06	3.364890e-09	7.489566e+00	2.189379e+02
9.300000e-07	1.152516e-06	4.329999e-09	8.277534e+00	2.825235e+02
9.400000e-07	1.261824e-06	5.310965e-09	9.062600e+00	3.471761e+02
9.500000e-07	1.370726e-06	6.304229e-09	9.844750e+00	4.124403e+02
9.600000e-07	1.479243e-06	7.299764e-09	1.062414e+01	4.777086e+02
9.700000e-07	1.587281e-06	8.286308e-09	1.140008e+01	5.422805e+02
9.800000e-07	1.694756e-06	9.249020e-09	1.217198e+01	6.054352e+02
9.900000e-07	1.801560e-06	1.017464e-08	1.293906e+01	6.665049e+02
1.000000e-06	1.907595e-06	1.105812e-08	1.370062e+01	7.249363e+02
1.010000e-06	2.012807e-06	1.189743e-08	1.445627e+01	7.803336e+02
1.020000e-06	2.117115e-06	1.268999e-08	1.520543e+01	8.324753e+02
1.030000e-06	2.220614e-06	1.343169e-08	1.594877e+01	8.813076e+02
1.040000e-06	2.323355e-06	1.412236e-08	1.668667e+01	9.269168e+02
1.050000e-06	2.425247e-06	1.476571e-08	1.741847e+01	9.694892e+02
1.060000e-06	2.526250e-06	1.536919e-08	1.814389e+01	1.009266e+03
1.070000e-06	2.626453e-06	1.593602e-08	1.886357e+01	1.046505e+03
1.080000e-06	2.725797e-06	1.647025e-08	1.957707e+01	1.081444e+03
1.090000e-06	2.824124e-06	1.697180e-08	2.028327e+01	1.114293e+03
1.100000e-06	2.921310e-06	1.744335e-08	2.098127e+01	1.145218e+03
1.110000e-06	3.017275e-06	1.788547e-08	2.167050e+01	1.174355e+03
1.120000e-06	3.112129e-06	1.830013e-08	2.235176e+01	1.201817e+03
1.130000e-06	3.205985e-06	1.869127e-08	2.302585e+01	1.227708e+03
1.140000e-06	3.298843e-06	1.906260e-08	2.369277e+01	1.252130e+03
1.150000e-06	3.390687e-06	1.941630e-08	2.435240e+01	1.275190e+03
1.160000e-06	3.481369e-06	1.975058e-08	2.500370e+01	1.297001e+03
1.170000e-06	3.570668e-06	2.006821e-08	2.564505e+01	1.317670e+03
1.180000e-06	3.658555e-06	2.036850e-08	2.627627e+01	1.337299e+03
1.190000e-06	3.745144e-06	2.065237e-08	2.689816e+01	1.355974e+03
1.200000e-06	3.830560e-06	2.092175e-08	2.751163e+01	1.373765e+03
1.210000e-06	3.914823e-06	2.117716e-08	2.811683e+01	1.390722e+03
1.220000e-06	3.997821e-06	2.141900e-08	2.871293e+01	1.406880e+03
1.230000e-06	4.079372e-06	2.165144e-08	2.929864e+01	1.422267e+03
1.240000e-06	4.159401e-06	2.187396e-08	2.987342e+01	1.436907e+03
1.250000e-06	4.237852e-06	2.208645e-08	3.043687e+01	1.450830e+03
1.260000e-06	4.314704e-06	2.228616e-08	3.098883e+01	1.464072e+03
1.270000e-06	4.389909e-06	2.247536e-08	3.152896e+01	1.476675e+03
1.280000e-06	4.463331e-06	2.265773e-08	3.205629e+01	1.488685e+03
1.290000e-06	4.534990e-06	2.283189e-08	3.257095e+01	1.500150e+03
1.300000e-06	4.604979e-06	2.299807e-08	3.307362e+01	1.511111e+03
1.310000e-06	4.673387e-06	2.315818e-08	3.356494e+01	1.521597e+03
1.320000e-06	4.740162e-06	2.331146e-08	3.404453e+01	1.531629e+03
1.330000e-06	4.805116e-06	2.345717e-08	3.451104e+01	1.541211e+03
1.340000e-06	4.868310e-06	2.359647e-08	3.496491e+01	1.550343e+03
1.350000e-06	4.929917e-06	2.373097e-08	3.540737e+01	1.559019e+03
1.360000e-06	4.989895e-06	2.385967e-08	3.583815e+01	1.567233e+03
1.370000e-06	5.048068e-06	2.397938e-08	3.625596e+01	1.574985e+03
1.380000e-06	5.104315e-06	2.408931e-08	3.665993e+01	1.582287e+03
1.390000e-06	5.158691e-06	2.419277e-08	3.705046e+01	1.589158e+03
1.400000e-06	5.211105e-06	2.429044e-08	3.742691e+01	1.595628e+03
1.410000e-06	5.261335e-06	2.438256e-08	3.778767e+01	1.601732e+03
1.420000e-06	5.309432e-06	2.447183e-08	3.813311e+01	1.607507e+03
1.430000e-06	5.355619e-06	2.455611e-08	3.846483e+01	1.612985e+03
1.440000e-06	5.400085e-06	2.463429e-08	3.878419e+01	1.618192e+03
1.450000e-06	5.442697e-06	2.470869e-08	3.909023e+01	1.623146e+03
1.460000e-06	5.483266e-06	2.478124e-08	3.938161e+01	1.627852e+03
1.470000e-06	5.521929e-06	2.485150e-08	3.965929e+01	1.632306e+03
1.480000e-06	5.558798e-06	2.491716e-08	3.992409e+01	1.636501e+03
1.490000e-06	5.593758e-06	2.497646e-08	4.017518e+01	1.640423e+03
1.500000e-06	5.626614e-06	2.503134e-08	4.041115e+01	1.644060e+03
1.510000e-06	5.657446e-06	2.508416e-08	4.063260e+01	1.647405e+03
1.520000e-06	5.686467e-06	2.513257e-08	4.084103e+01	1.650455e+03
1.530000e-06	5.713576e-06	2.517565e-08	4.103573e+01	1.653213e+03
1.540000e-06	5.738440e-06	2.521468e-08	4.121430e+01	1.655686e+03
1.550000e-06	5.761094e-06	2.524830e-08	4.137701e+01	1.657885e+03
1.560000e-06	5.781846e-06	2.527632e-08	4.152605e+01	1.659820e+03
1.570000e-06	5.800695e-06	2.530155e-08	4.166143e+01	1.661501e+03
1.580000e-06	5.817417e-06	2.532445e-08	4.178153e+01	1.662936e+03
1.590000e-06	5.831959e-06	2.534338e-08	4.188597e+01	1.664132e+03
1.600000e-06	5.844278e-06	2.535734e-08	4.197445e+01	1.665093e+03
1.610000e-06	5.854153e-06	2.536832e-08	4.204537e+01	1.665826e+03
1.620000e-06	5.861749e-06	2.537888e-08	4.209993e+01	1.666338e+03
1.630000e-06	5.867337e-06	2.538825e-08	4.214006e+01	1.666642e+03
1.640000e-06	5.870931e-06	2.539491e-08	4.216587e+01	1.666748e+03
1.650000e-06	5.872383e-06	2.539825e-08	4.217630e+01	1.666670e+03
1.660000e-06	5.871701e-06	2.539594e-08	4.217140e+01	1.666419e+03
1.670000e-06	5.869141e-06	2.538561e-08	4.215302e+01	1.666000e+03
1.680000e-06	5.864800e-06	2.537478e-08	4.212184e+01	1.665409e+03
1.690000e-06	5.858463e-06	2.536410e-08	4.207633e+01	1.664636e+03
1.700000e-06	5.850119e-06	2.535263e-08	4.201640e+01	1.663664e+03
1.710000e-06	5.839990e-06	2.533992e-08	4.194365e+01	1.662473e+03
1.720000e-06	5.827906e-06	2.532465e-08	4.185686e+01	1.661048e+03
1.730000e-06	5.813668e-06	2.530564e-08	4.175460e+01	1.659379e+03
1.740000e-06	5.797486e-06	2.524350e-08	4.163839e+01	1.657470e+03
1.750000e-06	5.779248e-06	2.516319e-08	4.150740e+01	1.655340e+03
1.760000e-06	5.758311e-06	2.515912e-08	4.135702e+01	1.653020e+03
1.770000e-06	5.734546e-06	2.515051e-08	4.118634e+01	1.650549e+03
1.780000e-06	5.708583e-06	2.514414e-08	4.099987e+01	1.647964e+03
1.790000e-06	5.681250e-06	2.516175e-08	4.080356e+01	1.645296e+03
1.800000e-06	5.653031e-06	2.501673e-08	4.060089e+01	1.642556e+03
1.810000e-06	5.623257e-06	2.495192e-08	4.038704e+01	1.639734e+03
1.820000e-06	5.591092e-06	2.499261e-08	4.015603e+01	1.636796e+03
1.830000e-06	5.557049e-06	2.489094e-08	3.991153e+01	1.633693e+03
1.840000e-06	5.521234e-06	2.492324e-08	3.965430e+01	1.630361e+03
1.850000e-06	5.483101e-06	2.488676e-08	3.938042e+01	1.626741e+03
1.860000e-06	5.442915e-06	2.468465e-08	3.909180e+01	1.622783e+03
1.870000e-06	5.400902e-06	2.468357e-08	3.879006e+01	1.618460e+03
1.880000e-06	5.357200e-06	2.461103e-08	3.847618e+01	1.613768e+03
1.890000e-06	5.311760e-06	2.452158e-08	3.814983e+01	1.608729e+03
1.900000e-06	5.264082e-06	2.449797e-08	3.780740e+01	1.603379e+03
1.910000e-06	5.214282e-06	2.435247e-08	3.744972e+01	1.597765e+03
1.920000e-06	5.162408e-06	2.432136e-08	3.707716e+01	1.591929e+03
1.930000e-06	5.108305e-06	2.421755e-08	3.668859e+01	1.585898e+03
1.940000e-06	5.052318e-06	2.406902e-08	3.628648e+01	1.579681e+03
1.950000e-06	4.994500e-06	2.402716e-08	3.587122e+01	1.573265e+03
1.960000e-06	4.934915e-06	2.390133e-08	3.544327e+01	1.566624e+03
1.970000e-06	4.873514e-06	2.382349e-08	3.500228e+01	1.559717e+03
1.980000e-06	4.810148e-06	2.368803e-08	3.454718e+01	1.552510e+03
1.990000e-06	4.745042e-06	2.356564e-08	3.407958e+01	1.544971e+03
2.000000e-06	4.678327e-06	2.349296e-08	3.360042e+01	1.537087e+03
2.010000e-06	4.610030e-06	2.332150e-08	3.310990e+01	1.528857e+03
2.020000e-06	4.539852e-06	2.320388e-08	3.260588e+01	1.520291e+03
2.030000e-06	4.467827e-06	2.305815e-08	3.208858e+01	1.511404e+03
2.040000e-06	4.394264e-06	2.293509e-08	3.156024e+01	1.502207e+03
2.050000e-06	4.319128e-06	2.280749e-08	3.102060e+01	1.492703e+03
2.060000e-06	4.242274e-06	2.262756e-08	3.046862e+01	1.482878e+03
2.070000e-06	4.163612e-06	2.249063e-08	2.990367e+01	1.472707e+03
2.080000e-06	4.083461e-06	2.231538e-08	2.932801e+01	1.462158e+03
2.090000e-06	4.001961e-06	2.215406e-08	2.874266e+01	1.451196e+03
2.100000e-06	3.919110e-06	2.197876e-08	2.814761e+01	1.439791e+03
2.110000e-06	3.835042e-06	2.180353e-08	2.754382e+01	1.427924e+03
2.120000e-06	3.749586e-06	2.162701e-08	2.693007e+01	1.415589e+03
2.130000e-06	3.662643e-06	2.141498e-08	2.630563e+01	1.402789e+03
2.140000e-06	3.574383e-06	2.121697e-08	2.567174e+01	1.389531e+03
2.150000e-06	3.484919e-06	2.100535e-08	2.502920e+01	1.375818e+03
2.160000e-06	3.394265e-06	2.080189e-08	2.437810e+01	1.361642e+03
2.170000e-06	3.302519e-06	2.058405e-08	2.371917e+01	1.346979e+03
2.180000e-06	3.209606e-06	2.035476e-08	2.305185e+01	1.331789e+03
2.190000e-06	3.115342e-06	2.011152e-08	2.237484e+01	1.316016e+03
2.200000e-06	3.019794e-06	1.985455e-08	2.168860e+01	1.299602e+03
2.210000e-06	2.923195e-06	1.959536e-08	2.099481e+01	1.282487e+03
2.220000e-06	2.825614e-06	1.932380e-08	2.029397e+01	1.264620e+03
2.230000e-06	2.727064e-06	1.904596e-08	1.958617e+01	1.245963e+03
2.240000e-06	2.627612e-06	1.874957e-08	1.887189e+01	1.226489e+03
2.250000e-06	2.527280e-06	1.844453e-08	1.815129e+01	1.206178e+03
2.260000e-06	2.426001e-06	1.812333e-08	1.742389e+01	1.185006e+03
2.270000e-06	2.323622e-06	1.778693e-08	1.668859e+01	1.162941e+03
2.280000e-06	2.220180e-06	1.743833e-08	1.594565e+01	1.139931e+03
2.290000e-06	2.115891e-06	1.707388e-08	1.519664e+01	1.115905e+03
2.300000e-06	2.010948e-06	1.668959e-08	1.444292e+01	1.090771e+03
2.310000e-06	1.905352e-06	1.628393e-08	1.368451e+01	1.064421e+03
2.320000e-06	1.799124e-06	1.586200e-08	1.292157e+01	1.036743e+03
2.330000e-06	1.692328e-06	1.542235e-08	1.215454e+01	1.007624e+03
2.340000e-06	1.585016e-06	1.496053e-08	1.138382e+01	9.769566e+02
2.350000e-06	1.477218e-06	1.447055e-08	1.060959e+01	9.446425e+02
2.360000e-06	1.369003e-06	1.395362e-08	9.832375e+00	9.105886e+02
2.370000e-06	1.260431e-06	1.340631e-08	9.052600e+00	8.747044e+02
2.380000e-06	1.151499e-06	1.282581e-08	8.270229e+00	8.368991e+02
2.390000e-06	1.042228e-06	1.221223e-08	7.485435e+00	7.970821e+02
2.400000e-06	9.326063e-07	1.156991e-08	6.698113e+00	7.551710e+02
2.410000e-06	8.226554e-07	1.089841e-08	5.908430e+00	7.111052e+02
2.420000e-06	7.123911e-07	1.019399e-08	5.116496e+00	6.648647e+02
2.430000e-06	6.018389e-07	9.457406e-09	4.322494e+00	6.164909e+02
2.440000e-06	4.911004e-07	8.689491e-09	3.527154e+00	5.661025e+02
2.450000e-06	3.801476e-07	7.892355e-09	2.730275e+00	5.139018e+02
2.460000e-06	2.690510e-07	7.069337e-09	1.932363e+00	4.601674e+02
2.470000e-06	1.579086e-07	6.229006e-09	1.134123e+00	4.052300e+02
2.480000e-06	4.667161e-08	5.378183e-09	3.352022e-01	3.494350e+02
2.490000e-06	-6.461356e-08	4.518910e-09	-4.640640e-01	2.930963e+02
2.500000e-06	-1.759352e-07	3.652960e-09	-1.263592e+00	2.364496e+02
2.510000e-06	-2.872195e-07	2.782343e-09	-2.062852e+00	1.796146e+02
2.520000e-06	-3.983722e-07	1.908936e-09	-2.861166e+00	1.225759e+02
2.530000e-06	-5.093422e-07	1.031650e-09	-3.658169e+00	6.518766e+01
2.540000e-06	-6.200840e-07	1.474501e-10	-4.453533e+00	7.203128e+00
2.550000e-06	-7.305677e-07	-7.490489e-10	-5.247043e+00	-5.167243e+01
2.560000e-06	-8.407626e-07	-1.665058e-09	-6.038479e+00	-1.117154e+02
2.570000e-06	-9.506139e-07	-2.602812e-09	-6.827446e+00	-1.731146e+02
2.580000e-06	-1.060054e-06	-3.563029e-09	-7.613464e+00	-2.359112e+02
2.590000e-06	-1.169164e-06	-4.541221e-09	-8.397104e+00	-2.999599e+02
2.600000e-06	-1.277919e-06	-5.533389e-09	-9.178198e+00	-3.649177e+02
2.610000e-06	-1.386198e-06	-6.533372e-09	-9.955872e+00	-4.302639e+02
2.620000e-06	-1.494053e-06	-7.530754e-09	-1.073051e+01	-4.953461e+02
2.630000e-06	-1.601468e-06	-8.516041e-09	-1.150198e+01	-5.594470e+02
2.640000e-06	-1.708332e-06	-9.474189e-09	-1.226949e+01	-6.218583e+02
2.650000e-06	-1.814611e-06	-1.039391e-08	-1.303280e+01	-6.819507e+02
2.660000e-06	-1.920219e-06	-1.126920e-08	-1.379129e+01	-7.392290e+02
2.670000e-06	-2.025112e-06	-1.209751e-08	-1.454465e+01	-7.933652e+02
2.680000e-06	-2.129276e-06	-1.287582e-08	-1.529277e+01	-8.442059e+02
2.690000e-06	-2.232652e-06	-1.360352e-08	-1.603523e+01	-8.917563e+02
2.700000e-06	-2.335127e-06	-1.428532e-08	-1.677122e+01	-9.361475e+02
2.710000e-06	-2.436582e-06	-1.492369e-08	-1.749989e+01	-9.775925e+02
2.720000e-06	-2.537037e-06	-1.552070e-08	-1.822136e+01	-1.016343e+03
2.730000e-06	-2.636566e-06	-1.607954e-08	-1.893619e+01	-1.052653e+03
2.740000e-06	-2.735200e-06	-1.660302e-08	-1.964460e+01	-1.086749e+03
2.750000e-06	-2.832927e-06	-1.709330e-08	-2.034649e+01	-1.118825e+03
2.760000e-06	-2.929725e-06	-1.755418e-08	-2.104171e+01	-1.149034e+03
2.770000e-06	-3.025589e-06	-1.798739e-08	-2.173022e+01	-1.177502e+03
2.780000e-06	-3.120463e-06	-1.839426e-08	-2.241162e+01	-1.204336e+03
2.790000e-06	-3.214153e-06	-1.877803e-08	-2.308451e+01	-1.229638e+03
2.800000e-06	-3.306585e-06	-1.914323e-08	-2.374837e+01	-1.253514e+03
2.810000e-06	-3.397816e-06	-1.948913e-08	-2.440360e+01	-1.276071e+03
2.820000e-06	-3.487830e-06	-1.981502e-08	-2.505010e+01	-1.297421e+03
2.830000e-06	-3.576641e-06	-2.012621e-08	-2.568796e+01	-1.317671e+03
2.840000e-06	-3.664322e-06	-2.042434e-08	-2.631769e+01	-1.336918e+03
2.850000e-06	-3.750683e-06	-2.070749e-08	-2.693795e+01	-1.355240e+03
2.860000e-06	-3.835531e-06	-2.097371e-08	-2.754734e+01	-1.372699e+03
2.870000e-06	-3.919025e-06	-2.122526e-08	-2.814701e+01	-1.389340e+03
2.880000e-06	-4.001237e-06	-2.146514e-08	-2.873746e+01	-1.405193e+03
2.890000e-06	-4.082065e-06	-2.169535e-08	-2.931798e+01	-1.420285e+03
2.900000e-06	-4.161402e-06	-2.191750e-08	-2.988779e+01	-1.434641e+03
2.910000e-06	-4.239031e-06	-2.213015e-08	-3.044533e+01	-1.448293e+03
2.920000e-06	-4.314921e-06	-2.233074e-08	-3.099039e+01	-1.461279e+03
2.930000e-06	-4.389179e-06	-2.252179e-08	-3.152372e+01	-1.473644e+03
2.940000e-06	-4.461828e-06	-2.270381e-08	-3.204549e+01	-1.485437e+03
