# Temperatura_=_90.43
# Concentracion g/m^3_=_41000.0
# C_Vs_to_Am_M_A/Vsm_=_65563218390.804596
# pendiente_HvsI_1/m_=_3716.3
# ordenada_HvsI_A/m_=_1297.0
# frecuencia_Hz_=_302011.3266700569

Tiempo_(s)	Campo_(V.s)	Magnetizacion_(V.s)	Campo_(kA/m)	Magnetizacion_(A/m)
0.000000e+00	-6.736305e-06	-2.424396e-08	-4.746621e+01	-1.589730e+03
1.000000e-08	-6.733471e-06	-2.423787e-08	-4.744625e+01	-1.589872e+03
2.000000e-08	-6.728411e-06	-2.422999e-08	-4.741059e+01	-1.589482e+03
3.000000e-08	-6.721318e-06	-2.422237e-08	-4.736061e+01	-1.588527e+03
4.000000e-08	-6.712010e-06	-2.421169e-08	-4.729502e+01	-1.587113e+03
5.000000e-08	-6.700257e-06	-2.419727e-08	-4.721221e+01	-1.585455e+03
6.000000e-08	-6.686042e-06	-2.418290e-08	-4.711204e+01	-1.583804e+03
7.000000e-08	-6.669420e-06	-2.417270e-08	-4.699492e+01	-1.582376e+03
8.000000e-08	-6.650601e-06	-2.418031e-08	-4.686232e+01	-1.581285e+03
9.000000e-08	-6.629489e-06	-2.419398e-08	-4.671355e+01	-1.580511e+03
1.000000e-07	-6.605713e-06	-2.417030e-08	-4.654602e+01	-1.579911e+03
1.100000e-07	-6.579229e-06	-2.411072e-08	-4.635941e+01	-1.579262e+03
1.200000e-07	-6.550324e-06	-2.406079e-08	-4.615573e+01	-1.578336e+03
1.300000e-07	-6.519439e-06	-2.400497e-08	-4.593811e+01	-1.576966e+03
1.400000e-07	-6.486780e-06	-2.394972e-08	-4.570797e+01	-1.575099e+03
1.500000e-07	-6.452160e-06	-2.396519e-08	-4.546404e+01	-1.572805e+03
1.600000e-07	-6.415479e-06	-2.398060e-08	-4.520557e+01	-1.570249e+03
1.700000e-07	-6.376805e-06	-2.391665e-08	-4.493306e+01	-1.567636e+03
1.800000e-07	-6.335923e-06	-2.390313e-08	-4.464499e+01	-1.565142e+03
1.900000e-07	-6.292575e-06	-2.387600e-08	-4.433955e+01	-1.562850e+03
2.000000e-07	-6.246911e-06	-2.378920e-08	-4.401778e+01	-1.560727e+03
2.100000e-07	-6.198889e-06	-2.375658e-08	-4.367941e+01	-1.558630e+03
2.200000e-07	-6.148217e-06	-2.372266e-08	-4.332235e+01	-1.556354e+03
2.300000e-07	-6.094979e-06	-2.367044e-08	-4.294722e+01	-1.553699e+03
2.400000e-07	-6.039442e-06	-2.361987e-08	-4.255588e+01	-1.550533e+03
2.500000e-07	-5.981583e-06	-2.357143e-08	-4.214820e+01	-1.546840e+03
2.600000e-07	-5.921430e-06	-2.352219e-08	-4.172433e+01	-1.542726e+03
2.700000e-07	-5.859160e-06	-2.346195e-08	-4.128556e+01	-1.538386e+03
2.800000e-07	-5.794770e-06	-2.340250e-08	-4.083185e+01	-1.534046e+03
2.900000e-07	-5.728179e-06	-2.334748e-08	-4.036263e+01	-1.529884e+03
3.000000e-07	-5.659472e-06	-2.328256e-08	-3.987849e+01	-1.525978e+03
3.100000e-07	-5.588686e-06	-2.321299e-08	-3.937971e+01	-1.522271e+03
3.200000e-07	-5.515742e-06	-2.315022e-08	-3.886573e+01	-1.518590e+03
3.300000e-07	-5.440569e-06	-2.308571e-08	-3.833603e+01	-1.514697e+03
3.400000e-07	-5.363152e-06	-2.300605e-08	-3.779052e+01	-1.510362e+03
3.500000e-07	-5.283597e-06	-2.292746e-08	-3.722996e+01	-1.505438e+03
3.600000e-07	-5.202063e-06	-2.285143e-08	-3.665544e+01	-1.499906e+03
3.700000e-07	-5.118816e-06	-2.276533e-08	-3.606885e+01	-1.493888e+03
3.800000e-07	-5.033933e-06	-2.267965e-08	-3.547074e+01	-1.487607e+03
3.900000e-07	-4.947388e-06	-2.259319e-08	-3.486092e+01	-1.481320e+03
4.000000e-07	-4.859197e-06	-2.250126e-08	-3.423950e+01	-1.475232e+03
4.100000e-07	-4.769185e-06	-2.240683e-08	-3.360524e+01	-1.469433e+03
4.200000e-07	-4.677420e-06	-2.231270e-08	-3.295863e+01	-1.463860e+03
4.300000e-07	-4.584137e-06	-2.221811e-08	-3.230133e+01	-1.458315e+03
4.400000e-07	-4.489358e-06	-2.211982e-08	-3.163349e+01	-1.452520e+03
4.500000e-07	-4.392898e-06	-2.201512e-08	-3.095380e+01	-1.446202e+03
4.600000e-07	-4.294667e-06	-2.190147e-08	-3.026163e+01	-1.439180e+03
4.700000e-07	-4.194883e-06	-2.178254e-08	-2.955852e+01	-1.431420e+03
4.800000e-07	-4.093696e-06	-2.166523e-08	-2.884553e+01	-1.423051e+03
4.900000e-07	-3.991144e-06	-2.154774e-08	-2.812291e+01	-1.414322e+03
5.000000e-07	-3.887154e-06	-2.142456e-08	-2.739016e+01	-1.405526e+03
5.100000e-07	-3.781578e-06	-2.129759e-08	-2.664624e+01	-1.396902e+03
5.200000e-07	-3.674531e-06	-2.116713e-08	-2.589195e+01	-1.388553e+03
5.300000e-07	-3.566179e-06	-2.102915e-08	-2.512846e+01	-1.380404e+03
5.400000e-07	-3.456617e-06	-2.088408e-08	-2.435646e+01	-1.372217e+03
5.500000e-07	-3.345889e-06	-2.073616e-08	-2.357623e+01	-1.363654e+03
5.600000e-07	-3.233912e-06	-2.058432e-08	-2.278720e+01	-1.354383e+03
5.700000e-07	-3.120471e-06	-2.042400e-08	-2.198786e+01	-1.344176e+03
5.800000e-07	-3.005572e-06	-2.025610e-08	-2.117824e+01	-1.332986e+03
5.900000e-07	-2.889467e-06	-2.008368e-08	-2.036013e+01	-1.320962e+03
6.000000e-07	-2.772262e-06	-1.990877e-08	-1.953426e+01	-1.308409e+03
6.100000e-07	-2.654066e-06	-1.973042e-08	-1.870142e+01	-1.295687e+03
6.200000e-07	-2.534931e-06	-1.954582e-08	-1.786195e+01	-1.283089e+03
6.300000e-07	-2.414832e-06	-1.935181e-08	-1.701570e+01	-1.270740e+03
6.400000e-07	-2.293780e-06	-1.914671e-08	-1.616273e+01	-1.258535e+03
6.500000e-07	-2.171883e-06	-1.893220e-08	-1.530380e+01	-1.246149e+03
6.600000e-07	-2.049237e-06	-1.870995e-08	-1.443960e+01	-1.233127e+03
6.700000e-07	-1.925823e-06	-1.847976e-08	-1.356998e+01	-1.219006e+03
6.800000e-07	-1.801708e-06	-1.824101e-08	-1.269543e+01	-1.203458e+03
6.900000e-07	-1.676977e-06	-1.799494e-08	-1.181653e+01	-1.186390e+03
7.000000e-07	-1.551668e-06	-1.773934e-08	-1.093356e+01	-1.167975e+03
7.100000e-07	-1.425906e-06	-1.746922e-08	-1.004740e+01	-1.148596e+03
7.200000e-07	-1.299782e-06	-1.718319e-08	-9.158692e+00	-1.128709e+03
7.300000e-07	-1.173285e-06	-1.688105e-08	-8.267349e+00	-1.108678e+03
7.400000e-07	-1.046422e-06	-1.656201e-08	-7.373431e+00	-1.088613e+03
7.500000e-07	-9.191867e-07	-1.622527e-08	-6.476891e+00	-1.068279e+03
7.600000e-07	-7.916223e-07	-1.587221e-08	-5.578030e+00	-1.047102e+03
7.700000e-07	-6.638186e-07	-1.549697e-08	-4.677483e+00	-1.024285e+03
7.800000e-07	-5.357903e-07	-1.509580e-08	-3.775354e+00	-9.990003e+02
7.900000e-07	-4.075393e-07	-1.466880e-08	-2.871655e+00	-9.706099e+02
8.000000e-07	-2.790761e-07	-1.420980e-08	-1.966461e+00	-9.388309e+02
8.100000e-07	-1.504307e-07	-1.371350e-08	-1.059984e+00	-9.037927e+02
8.200000e-07	-2.168325e-08	-1.317523e-08	-1.527873e-01	-8.659427e+02
8.300000e-07	1.071314e-07	-1.258923e-08	7.548826e-01	-8.258049e+02
8.400000e-07	2.359634e-07	-1.194617e-08	1.662675e+00	-7.836418e+02
8.500000e-07	3.647252e-07	-1.123616e-08	2.569973e+00	-7.391057e+02
8.600000e-07	4.933585e-07	-1.044809e-08	3.476366e+00	-6.909834e+02
8.700000e-07	6.218400e-07	-9.567076e-09	4.381689e+00	-6.371276e+02
8.800000e-07	7.501379e-07	-8.573353e-09	5.285718e+00	-5.746346e+02
8.900000e-07	8.781374e-07	-7.437213e-09	6.187644e+00	-5.002663e+02
9.000000e-07	1.005764e-06	-6.119115e-09	7.086944e+00	-4.110583e+02
9.100000e-07	1.132978e-06	-4.574030e-09	7.983332e+00	-3.049984e+02
9.200000e-07	1.259777e-06	-2.754867e-09	8.876801e+00	-1.816308e+02
9.300000e-07	1.386199e-06	-6.408696e-10	9.767610e+00	-4.244679e+01
9.400000e-07	1.512238e-06	1.703561e-09	1.065573e+01	1.090446e+02
9.500000e-07	1.637834e-06	4.145688e-09	1.154071e+01	2.676047e+02
9.600000e-07	1.762934e-06	6.597239e-09	1.242221e+01	4.268781e+02
9.700000e-07	1.887461e-06	8.986282e-09	1.329967e+01	5.802244e+02
9.800000e-07	2.011286e-06	1.116666e-08	1.417218e+01	7.216129e+02
9.900000e-07	2.134293e-06	1.301766e-08	1.503893e+01	8.464127e+02
1.000000e-06	2.256428e-06	1.452402e-08	1.589953e+01	9.519289e+02
1.010000e-06	2.377702e-06	1.573186e-08	1.675407e+01	1.037594e+03
1.020000e-06	2.497989e-06	1.670263e-08	1.760165e+01	1.104793e+03
1.030000e-06	2.617194e-06	1.749004e-08	1.844161e+01	1.156386e+03
1.040000e-06	2.735490e-06	1.813678e-08	1.927516e+01	1.196037e+03
1.050000e-06	2.852826e-06	1.867230e-08	2.010195e+01	1.227499e+03
1.060000e-06	2.969051e-06	1.912095e-08	2.092090e+01	1.254010e+03
1.070000e-06	3.084123e-06	1.950502e-08	2.173174e+01	1.277890e+03
1.080000e-06	3.197973e-06	1.984292e-08	2.253397e+01	1.300411e+03
1.090000e-06	3.310519e-06	2.014281e-08	2.332700e+01	1.321910e+03
1.100000e-06	3.421769e-06	2.041056e-08	2.411091e+01	1.342085e+03
1.110000e-06	3.531892e-06	2.065271e-08	2.488687e+01	1.360373e+03
1.120000e-06	3.640891e-06	2.087363e-08	2.565491e+01	1.376306e+03
1.130000e-06	3.748675e-06	2.107698e-08	2.641439e+01	1.389741e+03
1.140000e-06	3.855226e-06	2.126335e-08	2.716518e+01	1.400952e+03
1.150000e-06	3.960418e-06	2.143793e-08	2.790640e+01	1.410557e+03
1.160000e-06	4.064057e-06	2.160424e-08	2.863668e+01	1.419335e+03
1.170000e-06	4.166212e-06	2.176042e-08	2.935649e+01	1.428011e+03
1.180000e-06	4.267031e-06	2.190634e-08	3.006690e+01	1.437062e+03
1.190000e-06	4.366335e-06	2.204323e-08	3.076663e+01	1.446615e+03
1.200000e-06	4.463983e-06	2.217217e-08	3.145469e+01	1.456458e+03
1.210000e-06	4.559930e-06	2.229388e-08	3.213076e+01	1.466142e+03
1.220000e-06	4.654247e-06	2.241021e-08	3.279535e+01	1.475154e+03
1.230000e-06	4.747074e-06	2.252198e-08	3.344944e+01	1.483088e+03
1.240000e-06	4.838268e-06	2.262631e-08	3.409202e+01	1.489771e+03
1.250000e-06	4.927673e-06	2.272426e-08	3.472200e+01	1.495315e+03
1.260000e-06	5.015236e-06	2.281713e-08	3.533899e+01	1.500067e+03
1.270000e-06	5.101038e-06	2.290541e-08	3.594359e+01	1.504502e+03
1.280000e-06	5.185091e-06	2.298850e-08	3.653585e+01	1.509074e+03
1.290000e-06	5.267281e-06	2.306814e-08	3.711498e+01	1.514089e+03
1.300000e-06	5.347460e-06	2.314621e-08	3.767996e+01	1.519622e+03
1.310000e-06	5.425671e-06	2.322210e-08	3.823105e+01	1.525518e+03
1.320000e-06	5.501915e-06	2.329603e-08	3.876830e+01	1.531453e+03
1.330000e-06	5.575976e-06	2.336691e-08	3.929016e+01	1.537049e+03
1.340000e-06	5.647856e-06	2.343456e-08	3.979665e+01	1.541997e+03
1.350000e-06	5.717716e-06	2.349794e-08	4.028890e+01	1.546150e+03
1.360000e-06	5.785612e-06	2.355770e-08	4.076732e+01	1.549563e+03
1.370000e-06	5.851476e-06	2.361590e-08	4.123142e+01	1.552468e+03
1.380000e-06	5.915216e-06	2.367252e-08	4.168055e+01	1.555191e+03
1.390000e-06	5.976902e-06	2.372714e-08	4.211521e+01	1.558052e+03
1.400000e-06	6.036633e-06	2.377986e-08	4.253609e+01	1.561257e+03
1.410000e-06	6.094227e-06	2.383083e-08	4.294192e+01	1.564846e+03
1.420000e-06	6.149634e-06	2.387985e-08	4.333234e+01	1.568676e+03
1.430000e-06	6.202797e-06	2.392479e-08	4.370694e+01	1.572480e+03
1.440000e-06	6.253442e-06	2.396380e-08	4.406380e+01	1.575950e+03
1.450000e-06	6.301516e-06	2.399936e-08	4.440254e+01	1.578837e+03
1.460000e-06	6.347309e-06	2.403375e-08	4.472522e+01	1.581025e+03
1.470000e-06	6.391044e-06	2.406571e-08	4.503339e+01	1.582571e+03
1.480000e-06	6.432537e-06	2.409555e-08	4.532576e+01	1.583677e+03
1.490000e-06	6.471656e-06	2.412517e-08	4.560141e+01	1.584631e+03
1.500000e-06	6.508608e-06	2.415392e-08	4.586179e+01	1.585712e+03
1.510000e-06	6.543285e-06	2.417987e-08	4.610613e+01	1.587109e+03
1.520000e-06	6.575495e-06	2.420243e-08	4.633309e+01	1.588864e+03
1.530000e-06	6.605444e-06	2.422288e-08	4.654412e+01	1.590861e+03
1.540000e-06	6.633183e-06	2.424060e-08	4.673958e+01	1.592871e+03
1.550000e-06	6.658473e-06	2.425550e-08	4.691778e+01	1.594624e+03
1.560000e-06	6.681255e-06	2.427014e-08	4.707831e+01	1.595896e+03
1.570000e-06	6.701772e-06	2.428493e-08	4.722288e+01	1.596579e+03
1.580000e-06	6.720016e-06	2.429830e-08	4.735143e+01	1.596713e+03
1.590000e-06	6.735745e-06	2.431037e-08	4.746226e+01	1.596470e+03
1.600000e-06	6.748920e-06	2.432101e-08	4.755510e+01	1.596101e+03
1.610000e-06	6.759479e-06	2.432870e-08	4.762950e+01	1.595857e+03
1.620000e-06	6.767390e-06	2.433346e-08	4.768525e+01	1.595907e+03
1.630000e-06	6.772892e-06	2.433636e-08	4.772402e+01	1.596288e+03
1.640000e-06	6.776022e-06	2.433725e-08	4.774607e+01	1.596896e+03
1.650000e-06	6.776686e-06	2.433645e-08	4.775075e+01	1.597518e+03
1.660000e-06	6.775071e-06	2.433172e-08	4.773937e+01	1.597902e+03
1.670000e-06	6.771343e-06	2.432241e-08	4.771310e+01	1.597831e+03
1.680000e-06	6.765365e-06	2.431459e-08	4.767098e+01	1.597196e+03
1.690000e-06	6.757096e-06	2.430754e-08	4.761271e+01	1.596026e+03
1.700000e-06	6.746654e-06	2.429962e-08	4.753914e+01	1.594480e+03
1.710000e-06	6.733925e-06	2.429130e-08	4.744944e+01	1.592796e+03
1.720000e-06	6.718853e-06	2.427654e-08	4.734324e+01	1.591221e+03
1.730000e-06	6.701694e-06	2.423099e-08	4.722233e+01	1.589933e+03
1.740000e-06	6.682359e-06	2.416343e-08	4.708609e+01	1.588991e+03
1.750000e-06	6.660092e-06	2.414216e-08	4.692919e+01	1.588317e+03
1.760000e-06	6.634566e-06	2.415635e-08	4.674933e+01	1.587727e+03
1.770000e-06	6.606427e-06	2.415903e-08	4.655105e+01	1.586987e+03
1.780000e-06	6.576204e-06	2.418361e-08	4.633809e+01	1.585888e+03
1.790000e-06	6.544341e-06	2.418810e-08	4.611357e+01	1.584307e+03
1.800000e-06	6.511014e-06	2.410374e-08	4.587874e+01	1.582243e+03
1.810000e-06	6.475487e-06	2.405912e-08	4.562840e+01	1.579814e+03
1.820000e-06	6.437517e-06	2.406656e-08	4.536085e+01	1.577212e+03
1.830000e-06	6.397392e-06	2.403756e-08	4.507812e+01	1.574635e+03
1.840000e-06	6.355071e-06	2.402480e-08	4.477991e+01	1.572226e+03
1.850000e-06	6.310628e-06	2.396114e-08	4.446676e+01	1.570019e+03
1.860000e-06	6.263927e-06	2.390742e-08	4.413768e+01	1.567932e+03
1.870000e-06	6.214818e-06	2.388351e-08	4.379164e+01	1.565787e+03
1.880000e-06	6.163433e-06	2.381044e-08	4.342956e+01	1.563373e+03
1.890000e-06	6.109455e-06	2.377662e-08	4.304922e+01	1.560511e+03
1.900000e-06	6.052949e-06	2.372590e-08	4.265106e+01	1.557115e+03
1.910000e-06	5.994274e-06	2.368201e-08	4.223762e+01	1.553225e+03
1.920000e-06	5.933419e-06	2.364767e-08	4.180881e+01	1.548989e+03
1.930000e-06	5.870412e-06	2.356898e-08	4.136485e+01	1.544625e+03
1.940000e-06	5.805128e-06	2.352159e-08	4.090483e+01	1.540346e+03
1.950000e-06	5.737675e-06	2.346306e-08	4.042954e+01	1.536294e+03
1.960000e-06	5.668018e-06	2.338921e-08	3.993871e+01	1.532490e+03
1.970000e-06	5.596086e-06	2.331369e-08	3.943185e+01	1.528822e+03
1.980000e-06	5.522075e-06	2.324264e-08	3.891035e+01	1.525083e+03
1.990000e-06	5.445899e-06	2.319212e-08	3.837359e+01	1.521028e+03
2.000000e-06	5.367583e-06	2.311541e-08	3.782175e+01	1.516454e+03
2.010000e-06	5.287278e-06	2.303871e-08	3.725589e+01	1.511265e+03
2.020000e-06	5.205176e-06	2.296020e-08	3.667738e+01	1.505505e+03
2.030000e-06	5.121332e-06	2.287302e-08	3.608659e+01	1.499346e+03
2.040000e-06	5.035557e-06	2.279177e-08	3.548219e+01	1.493034e+03
2.050000e-06	4.947910e-06	2.270810e-08	3.486459e+01	1.486814e+03
2.060000e-06	4.858582e-06	2.262804e-08	3.423516e+01	1.480850e+03
2.070000e-06	4.767723e-06	2.253761e-08	3.359494e+01	1.475166e+03
2.080000e-06	4.675214e-06	2.243731e-08	3.294309e+01	1.469638e+03
2.090000e-06	4.580920e-06	2.233331e-08	3.227867e+01	1.464024e+03
2.100000e-06	4.485019e-06	2.222657e-08	3.160291e+01	1.458037e+03
2.110000e-06	4.387615e-06	2.212750e-08	3.091657e+01	1.451434e+03
2.120000e-06	4.288836e-06	2.202456e-08	3.022054e+01	1.444092e+03
2.130000e-06	4.188645e-06	2.191270e-08	2.951456e+01	1.436049e+03
2.140000e-06	4.086772e-06	2.179515e-08	2.879673e+01	1.427492e+03
2.150000e-06	3.983252e-06	2.167255e-08	2.806730e+01	1.418702e+03
2.160000e-06	3.878290e-06	2.155084e-08	2.732770e+01	1.409959e+03
2.170000e-06	3.772023e-06	2.142879e-08	2.657891e+01	1.401452e+03
2.180000e-06	3.664548e-06	2.130311e-08	2.582161e+01	1.393211e+03
2.190000e-06	3.555768e-06	2.116578e-08	2.505511e+01	1.385084e+03
2.200000e-06	3.445623e-06	2.102112e-08	2.427899e+01	1.376782e+03
2.210000e-06	3.334136e-06	2.087256e-08	2.349341e+01	1.367955e+03
2.220000e-06	3.221326e-06	2.072202e-08	2.269852e+01	1.358304e+03
2.230000e-06	3.107210e-06	2.056873e-08	2.189442e+01	1.347671e+03
2.240000e-06	2.991891e-06	2.041159e-08	2.108185e+01	1.336097e+03
2.250000e-06	2.875426e-06	2.024739e-08	2.026119e+01	1.323805e+03
2.260000e-06	2.757719e-06	2.007191e-08	1.943179e+01	1.311139e+03
2.270000e-06	2.638828e-06	1.988992e-08	1.859405e+01	1.298444e+03
2.280000e-06	2.518903e-06	1.970132e-08	1.774902e+01	1.285953e+03
2.290000e-06	2.398093e-06	1.950700e-08	1.689775e+01	1.273694e+03
2.300000e-06	2.276464e-06	1.930549e-08	1.604071e+01	1.261463e+03
2.310000e-06	2.154120e-06	1.909549e-08	1.517864e+01	1.248866e+03
2.320000e-06	2.031202e-06	1.887532e-08	1.431252e+01	1.235427e+03
2.330000e-06	1.907620e-06	1.864445e-08	1.344171e+01	1.220725e+03
2.340000e-06	1.783282e-06	1.840312e-08	1.256559e+01	1.204523e+03
2.350000e-06	1.658321e-06	1.815275e-08	1.168507e+01	1.186845e+03
2.360000e-06	1.532765e-06	1.789292e-08	1.080036e+01	1.167964e+03
2.370000e-06	1.406658e-06	1.762030e-08	9.911773e+00	1.148314e+03
2.380000e-06	1.280141e-06	1.733203e-08	9.020294e+00	1.128335e+03
2.390000e-06	1.153204e-06	1.702729e-08	8.125853e+00	1.108297e+03
2.400000e-06	1.025858e-06	1.670224e-08	7.228534e+00	1.088169e+03
2.410000e-06	8.981537e-07	1.635658e-08	6.328685e+00	1.067563e+03
2.420000e-06	7.701282e-07	1.599389e-08	5.426576e+00	1.045790e+03
2.430000e-06	6.417991e-07	1.561180e-08	4.522327e+00	1.022012e+03
2.440000e-06	5.132170e-07	1.520512e-08	3.616295e+00	9.954589e+02
2.450000e-06	3.844832e-07	1.476788e-08	2.709194e+00	9.656287e+02
2.460000e-06	2.555720e-07	1.429489e-08	1.800844e+00	9.324167e+02
2.470000e-06	1.265671e-07	1.377907e-08	8.918331e-01	8.961094e+02
2.480000e-06	-2.465008e-09	1.321786e-08	-1.736926e-02	8.572237e+02
2.490000e-06	-1.315433e-07	1.260752e-08	-9.268974e-01	8.162161e+02
2.500000e-06	-2.605715e-07	1.193911e-08	-1.836072e+00	7.731270e+02
2.510000e-06	-3.895532e-07	1.120285e-08	-2.744919e+00	7.272601e+02
2.520000e-06	-5.184212e-07	1.038361e-08	-3.652966e+00	6.769967e+02
2.530000e-06	-6.470885e-07	9.463844e-09	-4.559598e+00	6.198287e+02
2.540000e-06	-7.755700e-07	8.420912e-09	-5.464921e+00	5.526443e+02
2.550000e-06	-9.037483e-07	7.221425e-09	-6.368106e+00	4.722411e+02
2.560000e-06	-1.031538e-06	5.824636e-09	-7.268554e+00	3.759807e+02
2.570000e-06	-1.158920e-06	4.184947e-09	-8.166130e+00	2.624534e+02
2.580000e-06	-1.285833e-06	2.259005e-09	-9.060403e+00	1.320069e+02
2.590000e-06	-1.412338e-06	3.806172e-11	-9.951800e+00	-1.299069e+01
2.600000e-06	-1.538422e-06	-2.391981e-09	-1.084023e+01	-1.682331e+02
2.610000e-06	-1.663978e-06	-4.899390e-09	-1.172493e+01	-3.279122e+02
2.620000e-06	-1.788847e-06	-7.395326e-09	-1.260480e+01	-4.854409e+02
2.630000e-06	-1.912848e-06	-9.760481e-09	-1.347856e+01	-6.343330e+02
2.640000e-06	-2.036003e-06	-1.184420e-08	-1.434634e+01	-7.690728e+02
2.650000e-06	-2.158413e-06	-1.358013e-08	-1.520889e+01	-8.858123e+02
2.660000e-06	-2.280109e-06	-1.498762e-08	-1.606639e+01	-9.827664e+02
2.670000e-06	-2.401029e-06	-1.611674e-08	-1.691843e+01	-1.060246e+03
2.680000e-06	-2.521034e-06	-1.702437e-08	-1.776403e+01	-1.120341e+03
2.690000e-06	-2.640023e-06	-1.776157e-08	-1.860247e+01	-1.166344e+03
2.700000e-06	-2.757960e-06	-1.836650e-08	-1.943349e+01	-1.202042e+03
2.710000e-06	-2.874745e-06	-1.886864e-08	-2.025640e+01	-1.231031e+03
2.720000e-06	-2.990287e-06	-1.929290e-08	-2.107054e+01	-1.256189e+03
2.730000e-06	-3.104587e-06	-1.965803e-08	-2.187594e+01	-1.279389e+03
2.740000e-06	-3.217658e-06	-1.997814e-08	-2.267267e+01	-1.301474e+03
2.750000e-06	-3.329475e-06	-2.026156e-08	-2.346057e+01	-1.322464e+03
2.760000e-06	-3.439945e-06	-2.051650e-08	-2.423898e+01	-1.341898e+03
2.770000e-06	-3.549189e-06	-2.075191e-08	-2.500875e+01	-1.359217e+03
2.780000e-06	-3.657293e-06	-2.096927e-08	-2.577048e+01	-1.374070e+03
2.790000e-06	-3.764201e-06	-2.116834e-08	-2.652379e+01	-1.386494e+03
2.800000e-06	-3.869890e-06	-2.134810e-08	-2.726851e+01	-1.396924e+03
2.810000e-06	-3.974179e-06	-2.151328e-08	-2.800337e+01	-1.406076e+03
2.820000e-06	-4.077000e-06	-2.166899e-08	-2.872788e+01	-1.414730e+03
2.830000e-06	-4.178319e-06	-2.181677e-08	-2.944180e+01	-1.423526e+03
2.840000e-06	-4.278093e-06	-2.195787e-08	-3.014485e+01	-1.432795e+03
2.850000e-06	-4.376411e-06	-2.209259e-08	-3.083763e+01	-1.442513e+03
2.860000e-06	-4.473270e-06	-2.222083e-08	-3.152013e+01	-1.452348e+03
2.870000e-06	-4.568527e-06	-2.234287e-08	-3.219134e+01	-1.461803e+03
2.880000e-06	-4.662127e-06	-2.245912e-08	-3.285087e+01	-1.470389e+03
2.890000e-06	-4.754048e-06	-2.256560e-08	-3.349858e+01	-1.477789e+03
2.900000e-06	-4.844355e-06	-2.266294e-08	-3.413491e+01	-1.483953e+03
2.910000e-06	-4.932971e-06	-2.275482e-08	-3.475933e+01	-1.489102e+03
2.920000e-06	-5.019694e-06	-2.284253e-08	-3.537041e+01	-1.493656e+03
2.930000e-06	-5.104502e-06	-2.292707e-08	-3.596799e+01	-1.498098e+03
2.940000e-06	-5.187500e-06	-2.301065e-08	-3.655282e+01	-1.502833e+03
