# Temperatura_=_95.07
# Concentracion g/m^3_=_41000.0
# C_Vs_to_Am_M_A/Vsm_=_65563218390.804596
# pendiente_HvsI_1/m_=_3716.3
# ordenada_HvsI_A/m_=_1297.0
# frecuencia_Hz_=_302014.59416685667

Tiempo_(s)	Campo_(V.s)	Magnetizacion_(V.s)	Campo_(kA/m)	Magnetizacion_(A/m)
0.000000e+00	-6.735989e-06	-2.443226e-08	-4.746710e+01	-1.602178e+03
1.000000e-08	-6.732774e-06	-2.442606e-08	-4.744445e+01	-1.602242e+03
2.000000e-08	-6.727391e-06	-2.441618e-08	-4.740651e+01	-1.601777e+03
3.000000e-08	-6.719944e-06	-2.440644e-08	-4.735403e+01	-1.600768e+03
4.000000e-08	-6.710208e-06	-2.439432e-08	-4.728542e+01	-1.599336e+03
5.000000e-08	-6.697999e-06	-2.438069e-08	-4.719939e+01	-1.597694e+03
6.000000e-08	-6.683318e-06	-2.436759e-08	-4.709594e+01	-1.596089e+03
7.000000e-08	-6.666266e-06	-2.435651e-08	-4.697578e+01	-1.594720e+03
8.000000e-08	-6.647087e-06	-2.437610e-08	-4.684062e+01	-1.593684e+03
9.000000e-08	-6.625647e-06	-2.439564e-08	-4.668954e+01	-1.592945e+03
1.000000e-07	-6.601494e-06	-2.435078e-08	-4.651934e+01	-1.592348e+03
1.100000e-07	-6.574572e-06	-2.428987e-08	-4.632963e+01	-1.591670e+03
1.200000e-07	-6.545331e-06	-2.425104e-08	-4.612358e+01	-1.590688e+03
1.300000e-07	-6.514218e-06	-2.417496e-08	-4.590432e+01	-1.589245e+03
1.400000e-07	-6.481313e-06	-2.411441e-08	-4.567245e+01	-1.587295e+03
1.500000e-07	-6.446467e-06	-2.418206e-08	-4.542690e+01	-1.584914e+03
1.600000e-07	-6.409564e-06	-2.415847e-08	-4.516685e+01	-1.582265e+03
1.700000e-07	-6.370634e-06	-2.408769e-08	-4.489252e+01	-1.579543e+03
1.800000e-07	-6.329366e-06	-2.412313e-08	-4.460171e+01	-1.576912e+03
1.900000e-07	-6.285535e-06	-2.404146e-08	-4.429285e+01	-1.574444e+03
2.000000e-07	-6.239470e-06	-2.396813e-08	-4.396823e+01	-1.572102e+03
2.100000e-07	-6.191012e-06	-2.394427e-08	-4.362676e+01	-1.569749e+03
2.200000e-07	-6.139892e-06	-2.386900e-08	-4.326653e+01	-1.567197e+03
2.300000e-07	-6.086319e-06	-2.382412e-08	-4.288901e+01	-1.564268e+03
2.400000e-07	-6.030453e-06	-2.378258e-08	-4.249534e+01	-1.560859e+03
2.500000e-07	-5.972301e-06	-2.373495e-08	-4.208555e+01	-1.556974e+03
2.600000e-07	-5.911900e-06	-2.368317e-08	-4.165992e+01	-1.552728e+03
2.700000e-07	-5.849362e-06	-2.362334e-08	-4.121922e+01	-1.548313e+03
2.800000e-07	-5.784681e-06	-2.355574e-08	-4.076343e+01	-1.543934e+03
2.900000e-07	-5.717788e-06	-2.349122e-08	-4.029205e+01	-1.539742e+03
3.000000e-07	-5.648717e-06	-2.344491e-08	-3.980532e+01	-1.535781e+03
3.100000e-07	-5.577580e-06	-2.337192e-08	-3.930403e+01	-1.531971e+03
3.200000e-07	-5.504299e-06	-2.329877e-08	-3.878764e+01	-1.528127e+03
3.300000e-07	-5.428755e-06	-2.322292e-08	-3.825530e+01	-1.524016e+03
3.400000e-07	-5.351020e-06	-2.313353e-08	-3.770751e+01	-1.519426e+03
3.500000e-07	-5.271174e-06	-2.306310e-08	-3.714486e+01	-1.514239e+03
3.600000e-07	-5.189378e-06	-2.299016e-08	-3.656845e+01	-1.508468e+03
3.700000e-07	-5.105857e-06	-2.291087e-08	-3.597990e+01	-1.502257e+03
3.800000e-07	-5.020701e-06	-2.282193e-08	-3.537983e+01	-1.495838e+03
3.900000e-07	-4.933890e-06	-2.272311e-08	-3.476809e+01	-1.489458e+03
4.000000e-07	-4.845368e-06	-2.261980e-08	-3.414429e+01	-1.483301e+03
4.100000e-07	-4.755099e-06	-2.252539e-08	-3.350818e+01	-1.477424e+03
4.200000e-07	-4.663171e-06	-2.243530e-08	-3.286038e+01	-1.471734e+03
4.300000e-07	-4.569642e-06	-2.233692e-08	-3.220131e+01	-1.466013e+03
4.400000e-07	-4.474539e-06	-2.223525e-08	-3.153114e+01	-1.459977e+03
4.500000e-07	-4.377732e-06	-2.212866e-08	-3.084896e+01	-1.453367e+03
4.600000e-07	-4.279208e-06	-2.201324e-08	-3.015468e+01	-1.446028e+03
4.700000e-07	-4.179205e-06	-2.189332e-08	-2.944998e+01	-1.437958e+03
4.800000e-07	-4.077803e-06	-2.177420e-08	-2.873542e+01	-1.429314e+03
4.900000e-07	-3.974976e-06	-2.165207e-08	-2.801082e+01	-1.420362e+03
5.000000e-07	-3.870711e-06	-2.152252e-08	-2.727609e+01	-1.411394e+03
5.100000e-07	-3.764997e-06	-2.138967e-08	-2.653114e+01	-1.402634e+03
5.200000e-07	-3.657844e-06	-2.125386e-08	-2.577606e+01	-1.394155e+03
5.300000e-07	-3.549352e-06	-2.111164e-08	-2.501154e+01	-1.385854e+03
5.400000e-07	-3.439638e-06	-2.096595e-08	-2.423841e+01	-1.377467e+03
5.500000e-07	-3.328730e-06	-2.081928e-08	-2.345686e+01	-1.368649e+03
5.600000e-07	-3.216541e-06	-2.066877e-08	-2.266629e+01	-1.359073e+03
5.700000e-07	-3.102964e-06	-2.050705e-08	-2.186594e+01	-1.348535e+03
5.800000e-07	-2.988008e-06	-2.033471e-08	-2.105587e+01	-1.337018e+03
5.900000e-07	-2.871728e-06	-2.015584e-08	-2.023647e+01	-1.324699e+03
6.000000e-07	-2.754325e-06	-1.997239e-08	-1.940915e+01	-1.311900e+03
6.100000e-07	-2.636007e-06	-1.978641e-08	-1.857539e+01	-1.298980e+03
6.200000e-07	-2.516778e-06	-1.959631e-08	-1.773520e+01	-1.286219e+03
6.300000e-07	-2.396573e-06	-1.939888e-08	-1.688815e+01	-1.273710e+03
6.400000e-07	-2.275475e-06	-1.919150e-08	-1.603480e+01	-1.261316e+03
6.500000e-07	-2.153578e-06	-1.897645e-08	-1.517581e+01	-1.248689e+03
6.600000e-07	-2.030822e-06	-1.875334e-08	-1.431077e+01	-1.235362e+03
6.700000e-07	-1.907298e-06	-1.852157e-08	-1.344033e+01	-1.220881e+03
6.800000e-07	-1.783169e-06	-1.828089e-08	-1.256562e+01	-1.204943e+03
6.900000e-07	-1.658445e-06	-1.802876e-08	-1.168672e+01	-1.187488e+03
7.000000e-07	-1.533104e-06	-1.776337e-08	-1.080346e+01	-1.168717e+03
7.100000e-07	-1.407298e-06	-1.748196e-08	-9.916937e+00	-1.149029e+03
7.200000e-07	-1.281174e-06	-1.718714e-08	-9.028161e+00	-1.128876e+03
7.300000e-07	-1.154685e-06	-1.687957e-08	-8.136821e+00	-1.108597e+03
7.400000e-07	-1.027815e-06	-1.655757e-08	-7.242798e+00	-1.088264e+03
7.500000e-07	-9.005120e-07	-1.621924e-08	-6.345719e+00	-1.067599e+03
7.600000e-07	-7.728126e-07	-1.586036e-08	-5.445848e+00	-1.046000e+03
7.700000e-07	-6.448085e-07	-1.547698e-08	-4.543830e+00	-1.022665e+03
7.800000e-07	-5.165664e-07	-1.506820e-08	-3.640135e+00	-9.967867e+02
7.900000e-07	-3.881770e-07	-1.463248e-08	-2.735402e+00	-9.677710e+02
8.000000e-07	-2.596567e-07	-1.416486e-08	-1.829746e+00	-9.353861e+02
8.100000e-07	-1.310412e-07	-1.365832e-08	-9.234198e-01	-8.998016e+02
8.200000e-07	-2.387056e-09	-1.310959e-08	-1.682108e-02	-8.614739e+02
8.300000e-07	1.262618e-07	-1.251192e-08	8.897401e-01	-8.208916e+02
8.400000e-07	2.548788e-07	-1.185510e-08	1.796077e+00	-7.782345e+02
8.500000e-07	3.834887e-07	-1.113200e-08	2.702364e+00	-7.330363e+02
8.600000e-07	5.120666e-07	-1.032839e-08	3.608426e+00	-6.839540e+02
8.700000e-07	6.405340e-07	-9.427579e-09	4.513708e+00	-6.287327e+02
8.800000e-07	7.688723e-07	-8.408209e-09	5.418082e+00	-5.644159e+02
8.900000e-07	8.969679e-07	-7.240209e-09	6.320745e+00	-4.877947e+02
9.000000e-07	1.024649e-06	-5.883523e-09	7.220483e+00	-3.960272e+02
9.100000e-07	1.151890e-06	-4.290656e-09	8.117124e+00	-2.873084e+02
9.200000e-07	1.278692e-06	-2.418542e-09	9.010676e+00	-1.614467e+02
9.300000e-07	1.405022e-06	-2.602392e-10	9.900892e+00	-2.021175e+01
9.400000e-07	1.530925e-06	2.107131e-09	1.078811e+01	1.326439e+02
9.500000e-07	1.656380e-06	4.554855e-09	1.167216e+01	2.917186e+02
9.600000e-07	1.781308e-06	7.002383e-09	1.255250e+01	4.506060e+02
9.700000e-07	1.905657e-06	9.368452e-09	1.342877e+01	6.027370e+02
9.800000e-07	2.029394e-06	1.150431e-08	1.430072e+01	7.422628e+02
9.900000e-07	2.152393e-06	1.330610e-08	1.516746e+01	8.648109e+02
1.000000e-06	2.274440e-06	1.477090e-08	1.602750e+01	9.679748e+02
1.010000e-06	2.395516e-06	1.594662e-08	1.688070e+01	1.051455e+03
1.020000e-06	2.515659e-06	1.689384e-08	1.772732e+01	1.116841e+03
1.030000e-06	2.634778e-06	1.766325e-08	1.856673e+01	1.167109e+03
1.040000e-06	2.752925e-06	1.829544e-08	1.939928e+01	1.205936e+03
1.050000e-06	2.870133e-06	1.882018e-08	2.022523e+01	1.237011e+03
1.060000e-06	2.986296e-06	1.926147e-08	2.104380e+01	1.263446e+03
1.070000e-06	3.101290e-06	1.964127e-08	2.185414e+01	1.287417e+03
1.080000e-06	3.215000e-06	1.997704e-08	2.265543e+01	1.310067e+03
1.090000e-06	3.327394e-06	2.027723e-08	2.344745e+01	1.331643e+03
1.100000e-06	3.438512e-06	2.054618e-08	2.423047e+01	1.351806e+03
1.110000e-06	3.548470e-06	2.078929e-08	2.500532e+01	1.370006e+03
1.120000e-06	3.657272e-06	2.101103e-08	2.577203e+01	1.385818e+03
1.130000e-06	3.764933e-06	2.121439e-08	2.653069e+01	1.399159e+03
1.140000e-06	3.871359e-06	2.140127e-08	2.728065e+01	1.410353e+03
1.150000e-06	3.976327e-06	2.157637e-08	2.802034e+01	1.420039e+03
1.160000e-06	4.079760e-06	2.174373e-08	2.874921e+01	1.428991e+03
1.170000e-06	4.181684e-06	2.190284e-08	2.946745e+01	1.437901e+03
1.180000e-06	4.282202e-06	2.205209e-08	3.017578e+01	1.447199e+03
1.190000e-06	4.381273e-06	2.219303e-08	3.087391e+01	1.456965e+03
1.200000e-06	4.478681e-06	2.232413e-08	3.156033e+01	1.466954e+03
1.210000e-06	4.574325e-06	2.244725e-08	3.223431e+01	1.476711e+03
1.220000e-06	4.668369e-06	2.256393e-08	3.289702e+01	1.485736e+03
1.230000e-06	4.760923e-06	2.267485e-08	3.354923e+01	1.493657e+03
1.240000e-06	4.851919e-06	2.278056e-08	3.419045e+01	1.500341e+03
1.250000e-06	4.941104e-06	2.288036e-08	3.481892e+01	1.505931e+03
1.260000e-06	5.028373e-06	2.297548e-08	3.543389e+01	1.510793e+03
1.270000e-06	5.113853e-06	2.306474e-08	3.603625e+01	1.515398e+03
1.280000e-06	5.197644e-06	2.314964e-08	3.662671e+01	1.520177e+03
1.290000e-06	5.279586e-06	2.323317e-08	3.720414e+01	1.525405e+03
1.300000e-06	5.359462e-06	2.331507e-08	3.776700e+01	1.531123e+03
1.310000e-06	5.437334e-06	2.339306e-08	3.831575e+01	1.537152e+03
1.320000e-06	5.513249e-06	2.346629e-08	3.885071e+01	1.543161e+03
1.330000e-06	5.587050e-06	2.353702e-08	3.937077e+01	1.548782e+03
1.340000e-06	5.658742e-06	2.360487e-08	3.987596e+01	1.553729e+03
1.350000e-06	5.728408e-06	2.367039e-08	4.036689e+01	1.557884e+03
1.360000e-06	5.796021e-06	2.373451e-08	4.084334e+01	1.561328e+03
1.370000e-06	5.861500e-06	2.379674e-08	4.130476e+01	1.564307e+03
1.380000e-06	5.924866e-06	2.385679e-08	4.175129e+01	1.567148e+03
1.390000e-06	5.986262e-06	2.391303e-08	4.218393e+01	1.570156e+03
1.400000e-06	6.045677e-06	2.396500e-08	4.260262e+01	1.573516e+03
1.410000e-06	6.102902e-06	2.401461e-08	4.300587e+01	1.577242e+03
1.420000e-06	6.157897e-06	2.406344e-08	4.339341e+01	1.581178e+03
1.430000e-06	6.210646e-06	2.410997e-08	4.376512e+01	1.585051e+03
1.440000e-06	6.260845e-06	2.415261e-08	4.411886e+01	1.588561e+03
1.450000e-06	6.308509e-06	2.419230e-08	4.445474e+01	1.591477e+03
1.460000e-06	6.353973e-06	2.422995e-08	4.477511e+01	1.593705e+03
1.470000e-06	6.397385e-06	2.426394e-08	4.508103e+01	1.595317e+03
1.480000e-06	6.438459e-06	2.429578e-08	4.537047e+01	1.596522e+03
1.490000e-06	6.477160e-06	2.432784e-08	4.564318e+01	1.597604e+03
1.500000e-06	6.513721e-06	2.435823e-08	4.590083e+01	1.598824e+03
1.510000e-06	6.548013e-06	2.438544e-08	4.614247e+01	1.600349e+03
1.520000e-06	6.579856e-06	2.440832e-08	4.636687e+01	1.602197e+03
1.530000e-06	6.609383e-06	2.442758e-08	4.657493e+01	1.604240e+03
1.540000e-06	6.636708e-06	2.444437e-08	4.676749e+01	1.606246e+03
1.550000e-06	6.661608e-06	2.445959e-08	4.694296e+01	1.607955e+03
1.560000e-06	6.684034e-06	2.447588e-08	4.710098e+01	1.609166e+03
1.570000e-06	6.704212e-06	2.449170e-08	4.724318e+01	1.609792e+03
1.580000e-06	6.722071e-06	2.450567e-08	4.736902e+01	1.609894e+03
1.590000e-06	6.737397e-06	2.451827e-08	4.747702e+01	1.609655e+03
1.600000e-06	6.750201e-06	2.452806e-08	4.756725e+01	1.609322e+03
1.610000e-06	6.760389e-06	2.453441e-08	4.763904e+01	1.609133e+03
1.620000e-06	6.767906e-06	2.453809e-08	4.769201e+01	1.609234e+03
1.630000e-06	6.773032e-06	2.454147e-08	4.772814e+01	1.609642e+03
1.640000e-06	6.775856e-06	2.454355e-08	4.774803e+01	1.610238e+03
1.650000e-06	6.776241e-06	2.454273e-08	4.775075e+01	1.610807e+03
1.660000e-06	6.774348e-06	2.453532e-08	4.773741e+01	1.611105e+03
1.670000e-06	6.770345e-06	2.452580e-08	4.770920e+01	1.610936e+03
1.680000e-06	6.763986e-06	2.451867e-08	4.766439e+01	1.610213e+03
1.690000e-06	6.755301e-06	2.451075e-08	4.760319e+01	1.608987e+03
1.700000e-06	6.744544e-06	2.450236e-08	4.752738e+01	1.607429e+03
1.710000e-06	6.731584e-06	2.449418e-08	4.743606e+01	1.605777e+03
1.720000e-06	6.716251e-06	2.447912e-08	4.732801e+01	1.604264e+03
1.730000e-06	6.698741e-06	2.441814e-08	4.720462e+01	1.603047e+03
1.740000e-06	6.678996e-06	2.435056e-08	4.706548e+01	1.602163e+03
1.750000e-06	6.656277e-06	2.435408e-08	4.690538e+01	1.601516e+03
1.760000e-06	6.630383e-06	2.436095e-08	4.672291e+01	1.600913e+03
1.770000e-06	6.601961e-06	2.435665e-08	4.652263e+01	1.600121e+03
1.780000e-06	6.571496e-06	2.440722e-08	4.630795e+01	1.598940e+03
1.790000e-06	6.539440e-06	2.437736e-08	4.608206e+01	1.597262e+03
1.800000e-06	6.505821e-06	2.429189e-08	4.584516e+01	1.595098e+03
1.810000e-06	6.469930e-06	2.430363e-08	4.559224e+01	1.592570e+03
1.820000e-06	6.431606e-06	2.425446e-08	4.532218e+01	1.589865e+03
1.830000e-06	6.391109e-06	2.422526e-08	4.503680e+01	1.587172e+03
1.840000e-06	6.348425e-06	2.422036e-08	4.473601e+01	1.584616e+03
1.850000e-06	6.303609e-06	2.411928e-08	4.442021e+01	1.582220e+03
1.860000e-06	6.256530e-06	2.410638e-08	4.408846e+01	1.579896e+03
1.870000e-06	6.207110e-06	2.406484e-08	4.374020e+01	1.577476e+03
1.880000e-06	6.155402e-06	2.399486e-08	4.337582e+01	1.574770e+03
1.890000e-06	6.101028e-06	2.396208e-08	4.299266e+01	1.571627e+03
1.900000e-06	6.044146e-06	2.388001e-08	4.259183e+01	1.567990e+03
1.910000e-06	5.985097e-06	2.386264e-08	4.217572e+01	1.563919e+03
1.920000e-06	5.923850e-06	2.381902e-08	4.174412e+01	1.559571e+03
1.930000e-06	5.860468e-06	2.374606e-08	4.129749e+01	1.555151e+03
1.940000e-06	5.794854e-06	2.368690e-08	4.083512e+01	1.550847e+03
1.950000e-06	5.727049e-06	2.360493e-08	4.035731e+01	1.546766e+03
1.960000e-06	5.657013e-06	2.355239e-08	3.986379e+01	1.542895e+03
1.970000e-06	5.584769e-06	2.346848e-08	3.935469e+01	1.539098e+03
1.980000e-06	5.510516e-06	2.340922e-08	3.883145e+01	1.535161e+03
1.990000e-06	5.434142e-06	2.335343e-08	3.829325e+01	1.530851e+03
2.000000e-06	5.355614e-06	2.326513e-08	3.773988e+01	1.525993e+03
2.010000e-06	5.275045e-06	2.317996e-08	3.717213e+01	1.520527e+03
2.020000e-06	5.192629e-06	2.308764e-08	3.659137e+01	1.514529e+03
2.030000e-06	5.108462e-06	2.301492e-08	3.599826e+01	1.508192e+03
2.040000e-06	5.022442e-06	2.293735e-08	3.539209e+01	1.501764e+03
2.050000e-06	4.934574e-06	2.285272e-08	3.477290e+01	1.495473e+03
2.060000e-06	4.844997e-06	2.276125e-08	3.414167e+01	1.489450e+03
2.070000e-06	4.753874e-06	2.266461e-08	3.349955e+01	1.483682e+03
2.080000e-06	4.661146e-06	2.256203e-08	3.284611e+01	1.478012e+03
2.090000e-06	4.566672e-06	2.245412e-08	3.218038e+01	1.472182e+03
2.100000e-06	4.470509e-06	2.234894e-08	3.150274e+01	1.465910e+03
2.110000e-06	4.372894e-06	2.224774e-08	3.081487e+01	1.458973e+03
2.120000e-06	4.273919e-06	2.214175e-08	3.011741e+01	1.451287e+03
2.130000e-06	4.173448e-06	2.202319e-08	2.940941e+01	1.442924e+03
2.140000e-06	4.071372e-06	2.189934e-08	2.869011e+01	1.434102e+03
2.150000e-06	3.967672e-06	2.177164e-08	2.795935e+01	1.425110e+03
2.160000e-06	3.862527e-06	2.164932e-08	2.721842e+01	1.416221e+03
2.170000e-06	3.756074e-06	2.152600e-08	2.646826e+01	1.407594e+03
2.180000e-06	3.648361e-06	2.139461e-08	2.570923e+01	1.399223e+03
2.190000e-06	3.539341e-06	2.125021e-08	2.494099e+01	1.390924e+03
2.200000e-06	3.429008e-06	2.109989e-08	2.416350e+01	1.382383e+03
2.210000e-06	3.317315e-06	2.094884e-08	2.337642e+01	1.373250e+03
2.220000e-06	3.204263e-06	2.079593e-08	2.257977e+01	1.363245e+03
2.230000e-06	3.090005e-06	2.063978e-08	2.177461e+01	1.352244e+03
2.240000e-06	2.974535e-06	2.047856e-08	2.096092e+01	1.340323e+03
2.250000e-06	2.857898e-06	2.030875e-08	2.013901e+01	1.327738e+03
2.260000e-06	2.740105e-06	2.012688e-08	1.930894e+01	1.314842e+03
2.270000e-06	2.621129e-06	1.994074e-08	1.847055e+01	1.301973e+03
2.280000e-06	2.501079e-06	1.975075e-08	1.762458e+01	1.289332e+03
2.290000e-06	2.380125e-06	1.955373e-08	1.677224e+01	1.276910e+03
2.300000e-06	2.258404e-06	1.934680e-08	1.591450e+01	1.264463e+03
2.310000e-06	2.136033e-06	1.913032e-08	1.505218e+01	1.251574e+03
2.320000e-06	2.013025e-06	1.890432e-08	1.418536e+01	1.237763e+03
2.330000e-06	1.889334e-06	1.866829e-08	1.331374e+01	1.222632e+03
2.340000e-06	1.764938e-06	1.842227e-08	1.243715e+01	1.205982e+03
2.350000e-06	1.639903e-06	1.816864e-08	1.155605e+01	1.187878e+03
2.360000e-06	1.514343e-06	1.790588e-08	1.067126e+01	1.168626e+03
2.370000e-06	1.388277e-06	1.762794e-08	9.782898e+00	1.148671e+03
2.380000e-06	1.261719e-06	1.733180e-08	8.891066e+00	1.128433e+03
2.390000e-06	1.134690e-06	1.701814e-08	7.995921e+00	1.108142e+03
2.400000e-06	1.007158e-06	1.668511e-08	7.097233e+00	1.087712e+03
2.410000e-06	8.792104e-07	1.633580e-08	6.195611e+00	1.066707e+03
2.420000e-06	7.510211e-07	1.597057e-08	5.292288e+00	1.044408e+03
2.430000e-06	6.225905e-07	1.558316e-08	4.387264e+00	1.019986e+03
2.440000e-06	4.939940e-07	1.516698e-08	3.481072e+00	9.927078e+02
2.450000e-06	3.652675e-07	1.471844e-08	2.573963e+00	9.621332e+02
2.460000e-06	2.363835e-07	1.423523e-08	1.665745e+00	9.282217e+02
2.470000e-06	1.074312e-07	1.370999e-08	7.570450e-01	8.912994e+02
2.480000e-06	-2.156085e-08	1.314049e-08	-1.519348e-01	8.518763e+02
2.490000e-06	-1.505621e-07	1.251865e-08	-1.060980e+00	8.103422e+02
2.500000e-06	-2.795539e-07	1.183515e-08	-1.969958e+00	7.666148e+02
2.510000e-06	-4.084640e-07	1.108089e-08	-2.878360e+00	7.198394e+02
2.520000e-06	-5.372558e-07	1.024380e-08	-3.785929e+00	6.682396e+02
2.530000e-06	-6.659655e-07	9.304480e-09	-4.692919e+00	6.091930e+02
2.540000e-06	-7.944917e-07	8.235515e-09	-5.598616e+00	5.395577e+02
2.550000e-06	-9.227096e-07	7.003397e-09	-6.502141e+00	4.562119e+02
2.560000e-06	-1.050580e-06	5.564688e-09	-7.403218e+00	3.567139e+02
2.570000e-06	-1.178035e-06	3.872279e-09	-8.301364e+00	2.399472e+02
2.580000e-06	-1.304966e-06	1.888582e-09	-9.195823e+00	1.066056e+02
2.590000e-06	-1.431415e-06	-3.762493e-10	-1.008688e+01	-4.060137e+01
2.600000e-06	-1.557358e-06	-2.826318e-09	-1.097438e+01	-1.970934e+02
2.610000e-06	-1.682744e-06	-5.337202e-09	-1.185795e+01	-3.569068e+02
2.620000e-06	-1.807466e-06	-7.820049e-09	-1.273683e+01	-5.134486e+02
2.630000e-06	-1.931323e-06	-1.015114e-08	-1.360963e+01	-6.603783e+02
2.640000e-06	-2.054292e-06	-1.218890e-08	-1.447616e+01	-7.924518e+02
2.650000e-06	-2.176534e-06	-1.387839e-08	-1.533758e+01	-9.061687e+02
2.660000e-06	-2.298072e-06	-1.524385e-08	-1.619403e+01	-1.000105e+03
2.670000e-06	-2.418845e-06	-1.633981e-08	-1.704509e+01	-1.074887e+03
2.680000e-06	-2.538814e-06	-1.722394e-08	-1.789049e+01	-1.132822e+03
2.690000e-06	-2.657749e-06	-1.794383e-08	-1.872860e+01	-1.177303e+03
2.700000e-06	-2.775544e-06	-1.853677e-08	-1.955867e+01	-1.212095e+03
2.710000e-06	-2.892095e-06	-1.903151e-08	-2.037998e+01	-1.240677e+03
2.720000e-06	-3.007417e-06	-1.944901e-08	-2.119264e+01	-1.265759e+03
2.730000e-06	-3.121588e-06	-1.980810e-08	-2.199718e+01	-1.289033e+03
2.740000e-06	-3.234459e-06	-2.012422e-08	-2.279255e+01	-1.311196e+03
2.750000e-06	-3.345951e-06	-2.040747e-08	-2.357822e+01	-1.332178e+03
2.760000e-06	-3.456093e-06	-2.066449e-08	-2.435436e+01	-1.351495e+03
2.770000e-06	-3.565119e-06	-2.090056e-08	-2.512265e+01	-1.368620e+03
2.780000e-06	-3.673164e-06	-2.111864e-08	-2.588402e+01	-1.383269e+03
2.790000e-06	-3.780051e-06	-2.131804e-08	-2.663723e+01	-1.395548e+03
2.800000e-06	-3.885654e-06	-2.149855e-08	-2.738139e+01	-1.405947e+03
2.810000e-06	-3.989849e-06	-2.166413e-08	-2.811563e+01	-1.415194e+03
2.820000e-06	-4.092465e-06	-2.182027e-08	-2.883874e+01	-1.424052e+03
2.830000e-06	-4.193502e-06	-2.196867e-08	-2.955073e+01	-1.433107e+03
2.840000e-06	-4.293092e-06	-2.211079e-08	-3.025252e+01	-1.442632e+03
2.850000e-06	-4.391252e-06	-2.224693e-08	-3.094423e+01	-1.452547e+03
2.860000e-06	-4.487962e-06	-2.237730e-08	-3.162573e+01	-1.462490e+03
2.870000e-06	-4.583081e-06	-2.250106e-08	-3.229601e+01	-1.471963e+03
2.880000e-06	-4.676443e-06	-2.261646e-08	-3.295392e+01	-1.480507e+03
2.890000e-06	-4.768158e-06	-2.272386e-08	-3.360021e+01	-1.487851e+03
2.900000e-06	-4.858234e-06	-2.282317e-08	-3.423496e+01	-1.493992e+03
2.910000e-06	-4.946542e-06	-2.291674e-08	-3.485724e+01	-1.499187e+03
2.920000e-06	-5.032959e-06	-2.300637e-08	-3.546621e+01	-1.503868e+03
2.930000e-06	-5.117481e-06	-2.309246e-08	-3.606181e+01	-1.508506e+03
2.940000e-06	-5.200252e-06	-2.317694e-08	-3.664508e+01	-1.513471e+03
