# Temperatura_=_61.82
# Concentracion g/m^3_=_41000.0
# C_Vs_to_Am_M_A/Vsm_=_65563218390.804596
# pendiente_HvsI_1/m_=_3716.3
# ordenada_HvsI_A/m_=_1297.0
# frecuencia_Hz_=_302011.6026683658

Tiempo_(s)	Campo_(V.s)	Magnetizacion_(V.s)	Campo_(kA/m)	Magnetizacion_(A/m)
0.000000e+00	-6.779795e-06	-2.417594e-08	-4.746515e+01	-1.585343e+03
1.000000e-08	-6.776769e-06	-2.417152e-08	-4.744396e+01	-1.585624e+03
2.000000e-08	-6.771523e-06	-2.416453e-08	-4.740724e+01	-1.585448e+03
3.000000e-08	-6.764244e-06	-2.415716e-08	-4.735628e+01	-1.584739e+03
4.000000e-08	-6.754690e-06	-2.414841e-08	-4.728939e+01	-1.583558e+03
5.000000e-08	-6.742633e-06	-2.413762e-08	-4.720498e+01	-1.582084e+03
6.000000e-08	-6.728022e-06	-2.412614e-08	-4.710269e+01	-1.580560e+03
7.000000e-08	-6.710989e-06	-2.411937e-08	-4.698344e+01	-1.579219e+03
8.000000e-08	-6.691796e-06	-2.413643e-08	-4.684907e+01	-1.578210e+03
9.000000e-08	-6.670317e-06	-2.415414e-08	-4.669869e+01	-1.577556e+03
1.000000e-07	-6.646116e-06	-2.411854e-08	-4.652926e+01	-1.577150e+03
1.100000e-07	-6.619143e-06	-2.406150e-08	-4.634043e+01	-1.576786e+03
1.200000e-07	-6.589848e-06	-2.402809e-08	-4.613533e+01	-1.576226e+03
1.300000e-07	-6.558646e-06	-2.397414e-08	-4.591689e+01	-1.575271e+03
1.400000e-07	-6.525653e-06	-2.391548e-08	-4.568590e+01	-1.573821e+03
1.500000e-07	-6.490690e-06	-2.395608e-08	-4.544113e+01	-1.571903e+03
1.600000e-07	-6.453643e-06	-2.396769e-08	-4.518177e+01	-1.569654e+03
1.700000e-07	-6.414600e-06	-2.389608e-08	-4.490843e+01	-1.567276e+03
1.800000e-07	-6.373298e-06	-2.390774e-08	-4.461927e+01	-1.564967e+03
1.900000e-07	-6.329483e-06	-2.387544e-08	-4.431252e+01	-1.562856e+03
2.000000e-07	-6.283385e-06	-2.379615e-08	-4.398979e+01	-1.560960e+03
2.100000e-07	-6.234879e-06	-2.377801e-08	-4.365020e+01	-1.559182e+03
2.200000e-07	-6.183674e-06	-2.374458e-08	-4.329172e+01	-1.557335e+03
2.300000e-07	-6.129946e-06	-2.369293e-08	-4.291557e+01	-1.555214e+03
2.400000e-07	-6.073858e-06	-2.363753e-08	-4.252290e+01	-1.552653e+03
2.500000e-07	-6.015402e-06	-2.360024e-08	-4.211365e+01	-1.549588e+03
2.600000e-07	-5.954734e-06	-2.356456e-08	-4.168892e+01	-1.546076e+03
2.700000e-07	-5.892001e-06	-2.351728e-08	-4.124973e+01	-1.542277e+03
2.800000e-07	-5.827075e-06	-2.348127e-08	-4.079518e+01	-1.538407e+03
2.900000e-07	-5.759833e-06	-2.343274e-08	-4.032442e+01	-1.534665e+03
3.000000e-07	-5.690430e-06	-2.336625e-08	-3.983853e+01	-1.531166e+03
3.100000e-07	-5.618968e-06	-2.329558e-08	-3.933823e+01	-1.527907e+03
3.200000e-07	-5.545320e-06	-2.323893e-08	-3.882262e+01	-1.524755e+03
3.300000e-07	-5.469425e-06	-2.318583e-08	-3.829129e+01	-1.521492e+03
3.400000e-07	-5.391310e-06	-2.311961e-08	-3.774440e+01	-1.517879e+03
3.500000e-07	-5.311003e-06	-2.305638e-08	-3.718218e+01	-1.513734e+03
3.600000e-07	-5.228741e-06	-2.298749e-08	-3.660626e+01	-1.508987e+03
3.700000e-07	-5.144831e-06	-2.291224e-08	-3.601881e+01	-1.503705e+03
3.800000e-07	-5.059296e-06	-2.283638e-08	-3.541998e+01	-1.498078e+03
3.900000e-07	-4.972102e-06	-2.275682e-08	-3.480954e+01	-1.492353e+03
4.000000e-07	-4.883159e-06	-2.267594e-08	-3.418685e+01	-1.486761e+03
4.100000e-07	-4.792373e-06	-2.259269e-08	-3.355126e+01	-1.481437e+03
4.200000e-07	-4.699935e-06	-2.250771e-08	-3.290411e+01	-1.476377e+03
4.300000e-07	-4.605999e-06	-2.242214e-08	-3.224646e+01	-1.471429e+03
4.400000e-07	-4.510465e-06	-2.233471e-08	-3.157763e+01	-1.466337e+03
4.500000e-07	-4.413261e-06	-2.224484e-08	-3.089711e+01	-1.460821e+03
4.600000e-07	-4.314358e-06	-2.214579e-08	-3.020470e+01	-1.454656e+03
4.700000e-07	-4.213867e-06	-2.203822e-08	-2.950116e+01	-1.447750e+03
4.800000e-07	-4.111922e-06	-2.192934e-08	-2.878745e+01	-1.440172e+03
4.900000e-07	-4.008524e-06	-2.181921e-08	-2.806356e+01	-1.432130e+03
5.000000e-07	-3.903679e-06	-2.170386e-08	-2.732954e+01	-1.423908e+03
5.100000e-07	-3.797361e-06	-2.158476e-08	-2.658521e+01	-1.415775e+03
5.200000e-07	-3.689602e-06	-2.146390e-08	-2.583080e+01	-1.407888e+03
5.300000e-07	-3.580537e-06	-2.133654e-08	-2.506723e+01	-1.400240e+03
5.400000e-07	-3.470272e-06	-2.120524e-08	-2.429527e+01	-1.392647e+03
5.500000e-07	-3.358806e-06	-2.107168e-08	-2.351490e+01	-1.384796e+03
5.600000e-07	-3.245909e-06	-2.093143e-08	-2.272451e+01	-1.376335e+03
5.700000e-07	-3.131484e-06	-2.078191e-08	-2.192343e+01	-1.366981e+03
5.800000e-07	-3.015704e-06	-2.062330e-08	-2.111286e+01	-1.356606e+03
5.900000e-07	-2.898720e-06	-2.045839e-08	-2.029386e+01	-1.345280e+03
6.000000e-07	-2.780693e-06	-2.028814e-08	-1.946755e+01	-1.333252e+03
6.100000e-07	-2.661814e-06	-2.011263e-08	-1.863528e+01	-1.320871e+03
6.200000e-07	-2.542019e-06	-1.993214e-08	-1.779660e+01	-1.308473e+03
6.300000e-07	-2.421132e-06	-1.974554e-08	-1.695028e+01	-1.296261e+03
6.400000e-07	-2.299211e-06	-1.954952e-08	-1.609671e+01	-1.284224e+03
6.500000e-07	-2.176444e-06	-1.934519e-08	-1.523722e+01	-1.272125e+03
6.600000e-07	-2.052940e-06	-1.913266e-08	-1.437257e+01	-1.259547e+03
6.700000e-07	-1.928729e-06	-1.890850e-08	-1.350297e+01	-1.246012e+03
6.800000e-07	-1.803826e-06	-1.867327e-08	-1.262853e+01	-1.231116e+03
6.900000e-07	-1.678356e-06	-1.842800e-08	-1.175012e+01	-1.214654e+03
7.000000e-07	-1.552414e-06	-1.817279e-08	-1.086841e+01	-1.196680e+03
7.100000e-07	-1.425983e-06	-1.790444e-08	-9.983267e+00	-1.177489e+03
7.200000e-07	-1.299171e-06	-1.762129e-08	-9.095461e+00	-1.157515e+03
7.300000e-07	-1.171988e-06	-1.732154e-08	-8.205053e+00	-1.137174e+03
7.400000e-07	-1.044397e-06	-1.700300e-08	-7.311796e+00	-1.116695e+03
7.500000e-07	-9.164129e-07	-1.666589e-08	-6.415780e+00	-1.095996e+03
7.600000e-07	-7.880367e-07	-1.631014e-08	-5.517022e+00	-1.074647e+03
7.700000e-07	-6.592751e-07	-1.593323e-08	-4.615565e+00	-1.051939e+03
7.800000e-07	-5.301933e-07	-1.553264e-08	-3.711868e+00	-1.027049e+03
7.900000e-07	-4.008811e-07	-1.510716e-08	-2.806557e+00	-9.992444e+02
8.000000e-07	-2.713493e-07	-1.465071e-08	-1.899709e+00	-9.680830e+02
8.100000e-07	-1.417027e-07	-1.415674e-08	-9.920566e-01	-9.335166e+02
8.200000e-07	-1.201226e-08	-1.362170e-08	-8.409748e-02	-8.958658e+02
8.300000e-07	1.177642e-07	-1.304065e-08	8.244637e-01	-8.556421e+02
8.400000e-07	2.476054e-07	-1.240477e-08	1.733478e+00	-8.132513e+02
8.500000e-07	3.774045e-07	-1.170622e-08	2.642198e+00	-7.686466e+02
8.600000e-07	5.070807e-07	-1.093481e-08	3.550057e+00	-7.210307e+02
8.700000e-07	6.366019e-07	-1.007830e-08	4.456831e+00	-6.687033e+02
8.800000e-07	7.659046e-07	-9.120555e-09	5.362076e+00	-6.091289e+02
8.900000e-07	8.948946e-07	-8.035760e-09	6.265131e+00	-5.392498e+02
9.000000e-07	1.023412e-06	-6.789867e-09	7.164876e+00	-4.560105e+02
9.100000e-07	1.151383e-06	-5.341804e-09	8.060797e+00	-3.570010e+02
9.200000e-07	1.278858e-06	-3.646417e-09	8.953246e+00	-2.410896e+02
9.300000e-07	1.405929e-06	-1.670071e-09	9.842867e+00	-1.089020e+02
9.400000e-07	1.532661e-06	5.706366e-10	1.073011e+01	3.697160e+01
9.500000e-07	1.658972e-06	2.975871e-09	1.161442e+01	1.921091e+02
9.600000e-07	1.784757e-06	5.428017e-09	1.249503e+01	3.507254e+02
9.700000e-07	1.909915e-06	7.848567e-09	1.337126e+01	5.064015e+02
9.800000e-07	2.034368e-06	1.011822e-08	1.424255e+01	6.529413e+02
9.900000e-07	2.158060e-06	1.210473e-08	1.510851e+01	7.851941e+02
1.000000e-06	2.280987e-06	1.376213e-08	1.596913e+01	8.996869e+02
1.010000e-06	2.403098e-06	1.511562e-08	1.682402e+01	9.949545e+02
1.020000e-06	2.524133e-06	1.621538e-08	1.767138e+01	1.071518e+03
1.030000e-06	2.643989e-06	1.711423e-08	1.851049e+01	1.131537e+03
1.040000e-06	2.762892e-06	1.785482e-08	1.934292e+01	1.178231e+03
1.050000e-06	2.880915e-06	1.846762e-08	2.016920e+01	1.215197e+03
1.060000e-06	2.997916e-06	1.898002e-08	2.098832e+01	1.245771e+03
1.070000e-06	3.113804e-06	1.941601e-08	2.179965e+01	1.272561e+03
1.080000e-06	3.228462e-06	1.979542e-08	2.260237e+01	1.297210e+03
1.090000e-06	3.341752e-06	2.012886e-08	2.339551e+01	1.320412e+03
1.100000e-06	3.453656e-06	2.042420e-08	2.417894e+01	1.342134e+03
1.110000e-06	3.564360e-06	2.068931e-08	2.495398e+01	1.361954e+03
1.120000e-06	3.673965e-06	2.092975e-08	2.572132e+01	1.379411e+03
1.130000e-06	3.782378e-06	2.114901e-08	2.648032e+01	1.394278e+03
1.140000e-06	3.889564e-06	2.134757e-08	2.723072e+01	1.406702e+03
1.150000e-06	3.995342e-06	2.153118e-08	2.797127e+01	1.417189e+03
1.160000e-06	4.099511e-06	2.170357e-08	2.870056e+01	1.426464e+03
1.170000e-06	4.202197e-06	2.186283e-08	2.941946e+01	1.435272e+03
1.180000e-06	4.303471e-06	2.201154e-08	3.012847e+01	1.444178e+03
1.190000e-06	4.403291e-06	2.215214e-08	3.082731e+01	1.453440e+03
1.200000e-06	4.501543e-06	2.228436e-08	3.151517e+01	1.462975e+03
1.210000e-06	4.598014e-06	2.240562e-08	3.219056e+01	1.472431e+03
1.220000e-06	4.692749e-06	2.251709e-08	3.285380e+01	1.481338e+03
1.230000e-06	4.785956e-06	2.262249e-08	3.350634e+01	1.489271e+03
1.240000e-06	4.877573e-06	2.272151e-08	3.414775e+01	1.495993e+03
1.250000e-06	4.967393e-06	2.281506e-08	3.477657e+01	1.501532e+03
1.260000e-06	5.055397e-06	2.290317e-08	3.539269e+01	1.506166e+03
1.270000e-06	5.141566e-06	2.298778e-08	3.599595e+01	1.510332e+03
1.280000e-06	5.225947e-06	2.306947e-08	3.658670e+01	1.514495e+03
1.290000e-06	5.308557e-06	2.314742e-08	3.716505e+01	1.519010e+03
1.300000e-06	5.389227e-06	2.322154e-08	3.772982e+01	1.524028e+03
1.310000e-06	5.467869e-06	2.329296e-08	3.828039e+01	1.529464e+03
1.320000e-06	5.544443e-06	2.336087e-08	3.881648e+01	1.535044e+03
1.330000e-06	5.618844e-06	2.342424e-08	3.933736e+01	1.540396e+03
1.340000e-06	5.691067e-06	2.348388e-08	3.984300e+01	1.545181e+03
1.350000e-06	5.761232e-06	2.354096e-08	4.033421e+01	1.549190e+03
1.360000e-06	5.829413e-06	2.359638e-08	4.081155e+01	1.552409e+03
1.370000e-06	5.895505e-06	2.365011e-08	4.127426e+01	1.555012e+03
1.380000e-06	5.959436e-06	2.370296e-08	4.172184e+01	1.557304e+03
1.390000e-06	6.021338e-06	2.375288e-08	4.215521e+01	1.559617e+03
1.400000e-06	6.081251e-06	2.379977e-08	4.257466e+01	1.562210e+03
1.410000e-06	6.138968e-06	2.384291e-08	4.297874e+01	1.565189e+03
1.420000e-06	6.194414e-06	2.388142e-08	4.336691e+01	1.568481e+03
1.430000e-06	6.247683e-06	2.391755e-08	4.373985e+01	1.571867e+03
1.440000e-06	6.298455e-06	2.395148e-08	4.409530e+01	1.575050e+03
1.450000e-06	6.346586e-06	2.398425e-08	4.443226e+01	1.577758e+03
1.460000e-06	6.392475e-06	2.401577e-08	4.475353e+01	1.579823e+03
1.470000e-06	6.436336e-06	2.404405e-08	4.506060e+01	1.581238e+03
1.480000e-06	6.477855e-06	2.407072e-08	4.535128e+01	1.582154e+03
1.490000e-06	6.516957e-06	2.409702e-08	4.562502e+01	1.582828e+03
1.500000e-06	6.553917e-06	2.412216e-08	4.588378e+01	1.583547e+03
1.510000e-06	6.588641e-06	2.414447e-08	4.612688e+01	1.584535e+03
1.520000e-06	6.620893e-06	2.416338e-08	4.635268e+01	1.585886e+03
1.530000e-06	6.650805e-06	2.417999e-08	4.656209e+01	1.587543e+03
1.540000e-06	6.678556e-06	2.419426e-08	4.675638e+01	1.589317e+03
1.550000e-06	6.703839e-06	2.420671e-08	4.693338e+01	1.590948e+03
1.560000e-06	6.726509e-06	2.421966e-08	4.709209e+01	1.592195e+03
1.570000e-06	6.746926e-06	2.423340e-08	4.723503e+01	1.592905e+03
1.580000e-06	6.765059e-06	2.424613e-08	4.736198e+01	1.593064e+03
1.590000e-06	6.780614e-06	2.425711e-08	4.747088e+01	1.592800e+03
1.600000e-06	6.793619e-06	2.426596e-08	4.756193e+01	1.592338e+03
1.610000e-06	6.804001e-06	2.427183e-08	4.763461e+01	1.591931e+03
1.620000e-06	6.811724e-06	2.427543e-08	4.768868e+01	1.591779e+03
1.630000e-06	6.817017e-06	2.427890e-08	4.772574e+01	1.591970e+03
1.640000e-06	6.820026e-06	2.428140e-08	4.774680e+01	1.592449e+03
1.650000e-06	6.820590e-06	2.428200e-08	4.775075e+01	1.593040e+03
1.660000e-06	6.818755e-06	2.427695e-08	4.773791e+01	1.593504e+03
1.670000e-06	6.814757e-06	2.426881e-08	4.770992e+01	1.593610e+03
1.680000e-06	6.808454e-06	2.426320e-08	4.766579e+01	1.593209e+03
1.690000e-06	6.799872e-06	2.425712e-08	4.760570e+01	1.592285e+03
1.700000e-06	6.789172e-06	2.424975e-08	4.753080e+01	1.590954e+03
1.710000e-06	6.776161e-06	2.424166e-08	4.743971e+01	1.589430e+03
1.720000e-06	6.760782e-06	2.422738e-08	4.733204e+01	1.587963e+03
1.730000e-06	6.743280e-06	2.417879e-08	4.720951e+01	1.586755e+03
1.740000e-06	6.723573e-06	2.411651e-08	4.707154e+01	1.585905e+03
1.750000e-06	6.700902e-06	2.411968e-08	4.691282e+01	1.585381e+03
1.760000e-06	6.674981e-06	2.413778e-08	4.673135e+01	1.585024e+03
1.770000e-06	6.646521e-06	2.413417e-08	4.653210e+01	1.584607e+03
1.780000e-06	6.615985e-06	2.417524e-08	4.631832e+01	1.583899e+03
1.790000e-06	6.583832e-06	2.417531e-08	4.609321e+01	1.582740e+03
1.800000e-06	6.550182e-06	2.407305e-08	4.585763e+01	1.581082e+03
1.810000e-06	6.514196e-06	2.405632e-08	4.560570e+01	1.579002e+03
1.820000e-06	6.475656e-06	2.406562e-08	4.533588e+01	1.576674e+03
1.830000e-06	6.434996e-06	2.403459e-08	4.505122e+01	1.574307e+03
1.840000e-06	6.392246e-06	2.402914e-08	4.475192e+01	1.572075e+03
1.850000e-06	6.347391e-06	2.395573e-08	4.443790e+01	1.570064e+03
1.860000e-06	6.300257e-06	2.392475e-08	4.410791e+01	1.568240e+03
1.870000e-06	6.250702e-06	2.389567e-08	4.376098e+01	1.566460e+03
1.880000e-06	6.198780e-06	2.383303e-08	4.339748e+01	1.564523e+03
1.890000e-06	6.144207e-06	2.382515e-08	4.301542e+01	1.562231e+03
1.900000e-06	6.087167e-06	2.376819e-08	4.261608e+01	1.559458e+03
1.910000e-06	6.027904e-06	2.374082e-08	4.220118e+01	1.556190e+03
1.920000e-06	5.966363e-06	2.369594e-08	4.177033e+01	1.552533e+03
1.930000e-06	5.902655e-06	2.360779e-08	4.132431e+01	1.548679e+03
1.940000e-06	5.836804e-06	2.358945e-08	4.086329e+01	1.544845e+03
1.950000e-06	5.768820e-06	2.354737e-08	4.038734e+01	1.541202e+03
1.960000e-06	5.698522e-06	2.349046e-08	3.989519e+01	1.537817e+03
1.970000e-06	5.625940e-06	2.341581e-08	3.938704e+01	1.534629e+03
1.980000e-06	5.551276e-06	2.335438e-08	3.886432e+01	1.531461e+03
1.990000e-06	5.474409e-06	2.330751e-08	3.832618e+01	1.528079e+03
2.000000e-06	5.395409e-06	2.323051e-08	3.777310e+01	1.524258e+03
2.010000e-06	5.314488e-06	2.317389e-08	3.720658e+01	1.519857e+03
2.020000e-06	5.231788e-06	2.310737e-08	3.662759e+01	1.514867e+03
2.030000e-06	5.147237e-06	2.303464e-08	3.603566e+01	1.509412e+03
2.040000e-06	5.060723e-06	2.295806e-08	3.542997e+01	1.503714e+03
2.050000e-06	4.972424e-06	2.288105e-08	3.481179e+01	1.498025e+03
2.060000e-06	4.882466e-06	2.281289e-08	3.418200e+01	1.492541e+03
2.070000e-06	4.790937e-06	2.272848e-08	3.354121e+01	1.487342e+03
2.080000e-06	4.697761e-06	2.263718e-08	3.288889e+01	1.482359e+03
2.090000e-06	4.602787e-06	2.254005e-08	3.222398e+01	1.477386e+03
2.100000e-06	4.506125e-06	2.244559e-08	3.154725e+01	1.472148e+03
2.110000e-06	4.408009e-06	2.235644e-08	3.086034e+01	1.466377e+03
2.120000e-06	4.308501e-06	2.226363e-08	3.016369e+01	1.459900e+03
2.130000e-06	4.207387e-06	2.216394e-08	2.945579e+01	1.452691e+03
2.140000e-06	4.104571e-06	2.205833e-08	2.873598e+01	1.444884e+03
2.150000e-06	4.000174e-06	2.194688e-08	2.800510e+01	1.436732e+03
2.160000e-06	3.894452e-06	2.183083e-08	2.726494e+01	1.428522e+03
2.170000e-06	3.787510e-06	2.171629e-08	2.651625e+01	1.420486e+03
2.180000e-06	3.679274e-06	2.159920e-08	2.575849e+01	1.412716e+03
2.190000e-06	3.569699e-06	2.147230e-08	2.499136e+01	1.405126e+03
2.200000e-06	3.458804e-06	2.133985e-08	2.421499e+01	1.397468e+03
2.210000e-06	3.346524e-06	2.120322e-08	2.342892e+01	1.389400e+03
2.220000e-06	3.232863e-06	2.106216e-08	2.263318e+01	1.380586e+03
2.230000e-06	3.117933e-06	2.091664e-08	2.182856e+01	1.370801e+03
2.240000e-06	3.001639e-06	2.076425e-08	2.101439e+01	1.360001e+03
2.250000e-06	2.884038e-06	2.060475e-08	2.019107e+01	1.348338e+03
2.260000e-06	2.765418e-06	2.043695e-08	1.936061e+01	1.336116e+03
2.270000e-06	2.645773e-06	2.026412e-08	1.852298e+01	1.323695e+03
2.280000e-06	2.525017e-06	2.008410e-08	1.767757e+01	1.311365e+03
2.290000e-06	2.403349e-06	1.989475e-08	1.682577e+01	1.299246e+03
2.300000e-06	2.280966e-06	1.969837e-08	1.596897e+01	1.287227e+03
2.310000e-06	2.157982e-06	1.949370e-08	1.510797e+01	1.274983e+03
2.320000e-06	2.034348e-06	1.927867e-08	1.424241e+01	1.262055e+03
2.330000e-06	1.909898e-06	1.905292e-08	1.337114e+01	1.247979e+03
2.340000e-06	1.784566e-06	1.881751e-08	1.249370e+01	1.232425e+03
2.350000e-06	1.658521e-06	1.857191e-08	1.161126e+01	1.215295e+03
2.360000e-06	1.531993e-06	1.831274e-08	1.072544e+01	1.196755e+03
2.370000e-06	1.405069e-06	1.803822e-08	9.836846e+00	1.177175e+03
2.380000e-06	1.277754e-06	1.775050e-08	8.945516e+00	1.157003e+03
2.390000e-06	1.149970e-06	1.744926e-08	8.050909e+00	1.136593e+03
2.400000e-06	1.021717e-06	1.712662e-08	7.153013e+00	1.116053e+03
2.410000e-06	8.931159e-07	1.678392e-08	6.252678e+00	1.095149e+03
2.420000e-06	7.642534e-07	1.642238e-08	5.350516e+00	1.073319e+03
2.430000e-06	6.351371e-07	1.603968e-08	4.446576e+00	1.049779e+03
2.440000e-06	5.057697e-07	1.563143e-08	3.540879e+00	1.023718e+03
2.450000e-06	3.762548e-07	1.519336e-08	2.634149e+00	9.945103e+02
2.460000e-06	2.466195e-07	1.472215e-08	1.726576e+00	9.618742e+02
2.470000e-06	1.168577e-07	1.420807e-08	8.181174e-01	9.259325e+02
2.480000e-06	-1.298717e-08	1.364999e-08	-9.092277e-02	8.871173e+02
2.490000e-06	-1.428300e-07	1.304587e-08	-9.999484e-01	8.459363e+02
2.500000e-06	-2.726075e-07	1.238803e-08	-1.908517e+00	8.026431e+02
2.510000e-06	-4.023008e-07	1.166584e-08	-2.816496e+00	7.568994e+02
2.520000e-06	-5.318482e-07	1.086574e-08	-3.723454e+00	7.075280e+02
2.530000e-06	-6.612362e-07	9.973672e-09	-4.629295e+00	6.524480e+02
2.540000e-06	-7.904513e-07	8.969699e-09	-5.533926e+00	5.888481e+02
2.550000e-06	-9.194127e-07	7.826537e-09	-6.436781e+00	5.135976e+02
2.560000e-06	-1.048047e-06	6.508846e-09	-7.337347e+00	4.238362e+02
2.570000e-06	-1.176239e-06	4.973088e-09	-8.234815e+00	3.176301e+02
2.580000e-06	-1.303947e-06	3.176333e-09	-9.128897e+00	1.945557e+02
2.590000e-06	-1.431236e-06	1.094385e-09	-1.002004e+01	5.607428e+01
2.600000e-06	-1.558125e-06	-1.239371e-09	-1.090839e+01	-9.440212e+01
2.610000e-06	-1.684521e-06	-3.716633e-09	-1.179329e+01	-2.517922e+02
2.620000e-06	-1.810231e-06	-6.220970e-09	-1.267337e+01	-4.099388e+02
2.630000e-06	-1.935069e-06	-8.642571e-09	-1.354736e+01	-5.624120e+02
2.640000e-06	-2.058985e-06	-1.084123e-08	-1.441490e+01	-7.033707e+02
2.650000e-06	-2.182060e-06	-1.272110e-08	-1.527654e+01	-8.283214e+02
2.660000e-06	-2.304366e-06	-1.427752e-08	-1.613280e+01	-9.346314e+02
2.670000e-06	-2.425872e-06	-1.554765e-08	-1.698346e+01	-1.021710e+03
2.680000e-06	-2.546511e-06	-1.657967e-08	-1.782805e+01	-1.090839e+03
2.690000e-06	-2.666248e-06	-1.742025e-08	-1.866632e+01	-1.144713e+03
2.700000e-06	-2.785032e-06	-1.811078e-08	-1.949793e+01	-1.186796e+03
2.710000e-06	-2.902726e-06	-1.868761e-08	-2.032190e+01	-1.220646e+03
2.720000e-06	-3.019070e-06	-1.917500e-08	-2.113642e+01	-1.249330e+03
2.730000e-06	-3.134056e-06	-1.959155e-08	-2.194144e+01	-1.275057e+03
2.740000e-06	-3.247821e-06	-1.995243e-08	-2.273790e+01	-1.299048e+03
2.750000e-06	-3.360206e-06	-2.026827e-08	-2.352471e+01	-1.321648e+03
2.760000e-06	-3.471157e-06	-2.054832e-08	-2.430147e+01	-1.342614e+03
2.770000e-06	-3.580890e-06	-2.080014e-08	-2.506971e+01	-1.361467e+03
2.780000e-06	-3.689498e-06	-2.103061e-08	-2.583007e+01	-1.377818e+03
2.790000e-06	-3.796997e-06	-2.124278e-08	-2.658266e+01	-1.391595e+03
2.800000e-06	-3.903306e-06	-2.143537e-08	-2.732693e+01	-1.403107e+03
2.810000e-06	-4.008265e-06	-2.160958e-08	-2.806174e+01	-1.412977e+03
2.820000e-06	-4.111781e-06	-2.177092e-08	-2.878646e+01	-1.421965e+03
2.830000e-06	-4.213679e-06	-2.192312e-08	-2.949985e+01	-1.430759e+03
2.840000e-06	-4.313942e-06	-2.206720e-08	-3.020178e+01	-1.439804e+03
2.850000e-06	-4.412752e-06	-2.220356e-08	-3.089355e+01	-1.449209e+03
2.860000e-06	-4.510095e-06	-2.233188e-08	-3.157504e+01	-1.458761e+03
2.870000e-06	-4.605898e-06	-2.245130e-08	-3.224576e+01	-1.468039e+03
2.880000e-06	-4.700042e-06	-2.256190e-08	-3.290486e+01	-1.476569e+03
2.890000e-06	-4.792416e-06	-2.266301e-08	-3.355156e+01	-1.483994e+03
2.900000e-06	-4.883085e-06	-2.275544e-08	-3.418633e+01	-1.490188e+03
2.910000e-06	-4.972082e-06	-2.284169e-08	-3.480940e+01	-1.495290e+03
2.920000e-06	-5.059234e-06	-2.292429e-08	-3.541955e+01	-1.499663e+03
2.930000e-06	-5.144431e-06	-2.300593e-08	-3.601601e+01	-1.503771e+03
2.940000e-06	-5.227784e-06	-2.308698e-08	-3.659956e+01	-1.508050e+03
