# Temperatura_=_57.23
# Concentracion g/m^3_=_41000.0
# C_Vs_to_Am_M_A/Vsm_=_65563218390.804596
# pendiente_HvsI_1/m_=_3716.3
# ordenada_HvsI_A/m_=_1297.0
# frecuencia_Hz_=_302011.7830164096

Tiempo_(s)	Campo_(V.s)	Magnetizacion_(V.s)	Campo_(kA/m)	Magnetizacion_(A/m)
0.000000e+00	-6.710074e-06	-2.576755e-08	-4.746788e+01	-1.687985e+03
1.000000e-08	-6.706912e-06	-2.576088e-08	-4.744552e+01	-1.688268e+03
2.000000e-08	-6.701535e-06	-2.574964e-08	-4.740748e+01	-1.688260e+03
3.000000e-08	-6.694179e-06	-2.573898e-08	-4.735545e+01	-1.687819e+03
4.000000e-08	-6.684549e-06	-2.572768e-08	-4.728732e+01	-1.686906e+03
5.000000e-08	-6.672370e-06	-2.571584e-08	-4.720116e+01	-1.685602e+03
6.000000e-08	-6.657675e-06	-2.570327e-08	-4.709721e+01	-1.684079e+03
7.000000e-08	-6.640630e-06	-2.569162e-08	-4.697663e+01	-1.682554e+03
8.000000e-08	-6.621456e-06	-2.571042e-08	-4.684099e+01	-1.681221e+03
9.000000e-08	-6.599999e-06	-2.573410e-08	-4.668921e+01	-1.680194e+03
1.000000e-07	-6.575847e-06	-2.569222e-08	-4.651834e+01	-1.679469e+03
1.100000e-07	-6.548944e-06	-2.563601e-08	-4.632803e+01	-1.678933e+03
1.200000e-07	-6.519721e-06	-2.560481e-08	-4.612131e+01	-1.678391e+03
1.300000e-07	-6.488655e-06	-2.552483e-08	-4.590154e+01	-1.677625e+03
1.400000e-07	-6.455885e-06	-2.546356e-08	-4.566972e+01	-1.676458e+03
1.500000e-07	-6.421196e-06	-2.555901e-08	-4.542433e+01	-1.674802e+03
1.600000e-07	-6.384378e-06	-2.553572e-08	-4.516387e+01	-1.672677e+03
1.700000e-07	-6.345520e-06	-2.546489e-08	-4.488898e+01	-1.670202e+03
1.800000e-07	-6.304397e-06	-2.551728e-08	-4.459808e+01	-1.667548e+03
1.900000e-07	-6.260771e-06	-2.541786e-08	-4.428946e+01	-1.664889e+03
2.000000e-07	-6.214915e-06	-2.532874e-08	-4.396507e+01	-1.662342e+03
2.100000e-07	-6.166715e-06	-2.531513e-08	-4.362410e+01	-1.659937e+03
2.200000e-07	-6.115869e-06	-2.526365e-08	-4.326441e+01	-1.657610e+03
2.300000e-07	-6.062542e-06	-2.523368e-08	-4.288716e+01	-1.655233e+03
2.400000e-07	-6.006859e-06	-2.520544e-08	-4.249326e+01	-1.652652e+03
2.500000e-07	-5.948832e-06	-2.516670e-08	-4.208277e+01	-1.649747e+03
2.600000e-07	-5.888574e-06	-2.510185e-08	-4.165649e+01	-1.646469e+03
2.700000e-07	-5.826208e-06	-2.504246e-08	-4.121531e+01	-1.642852e+03
2.800000e-07	-5.761707e-06	-2.500218e-08	-4.075902e+01	-1.639006e+03
2.900000e-07	-5.695009e-06	-2.495602e-08	-4.028719e+01	-1.635074e+03
3.000000e-07	-5.626209e-06	-2.492201e-08	-3.980049e+01	-1.631181e+03
3.100000e-07	-5.555331e-06	-2.484578e-08	-3.929909e+01	-1.627390e+03
3.200000e-07	-5.482400e-06	-2.475799e-08	-3.878317e+01	-1.623680e+03
3.300000e-07	-5.407304e-06	-2.468798e-08	-3.825193e+01	-1.619942e+03
3.400000e-07	-5.329930e-06	-2.461986e-08	-3.770458e+01	-1.616020e+03
3.500000e-07	-5.250405e-06	-2.456379e-08	-3.714201e+01	-1.611754e+03
3.600000e-07	-5.168812e-06	-2.449886e-08	-3.656481e+01	-1.607039e+03
3.700000e-07	-5.085421e-06	-2.442228e-08	-3.597489e+01	-1.601854e+03
3.800000e-07	-5.000492e-06	-2.432618e-08	-3.537410e+01	-1.596278e+03
3.900000e-07	-4.913975e-06	-2.423251e-08	-3.476206e+01	-1.590464e+03
4.000000e-07	-4.825747e-06	-2.414836e-08	-3.413793e+01	-1.584586e+03
4.100000e-07	-4.735871e-06	-2.406982e-08	-3.350213e+01	-1.578789e+03
4.200000e-07	-4.644342e-06	-2.399011e-08	-3.285464e+01	-1.573130e+03
4.300000e-07	-4.551176e-06	-2.389972e-08	-3.219558e+01	-1.567559e+03
4.400000e-07	-4.456423e-06	-2.380523e-08	-3.152528e+01	-1.561925e+03
4.500000e-07	-4.359925e-06	-2.370594e-08	-3.084265e+01	-1.556019e+03
4.600000e-07	-4.261794e-06	-2.359708e-08	-3.014845e+01	-1.549637e+03
4.700000e-07	-4.162158e-06	-2.348312e-08	-2.944362e+01	-1.542643e+03
4.800000e-07	-4.061142e-06	-2.337127e-08	-2.872901e+01	-1.535013e+03
4.900000e-07	-3.958761e-06	-2.325535e-08	-2.800476e+01	-1.526844e+03
5.000000e-07	-3.854850e-06	-2.313181e-08	-2.726968e+01	-1.518325e+03
5.100000e-07	-3.749534e-06	-2.300440e-08	-2.652466e+01	-1.509676e+03
5.200000e-07	-3.642826e-06	-2.287249e-08	-2.576980e+01	-1.501075e+03
5.300000e-07	-3.534668e-06	-2.273498e-08	-2.500468e+01	-1.492593e+03
5.400000e-07	-3.425254e-06	-2.259882e-08	-2.423067e+01	-1.484162e+03
5.500000e-07	-3.314667e-06	-2.246191e-08	-2.344836e+01	-1.475588e+03
5.600000e-07	-3.202771e-06	-2.231618e-08	-2.265679e+01	-1.466599e+03
5.700000e-07	-3.089561e-06	-2.215507e-08	-2.185593e+01	-1.456924e+03
5.800000e-07	-2.975134e-06	-2.197978e-08	-2.104646e+01	-1.446376e+03
5.900000e-07	-2.859453e-06	-2.180167e-08	-2.022812e+01	-1.434910e+03
6.000000e-07	-2.742560e-06	-2.162389e-08	-1.940120e+01	-1.422637e+03
6.100000e-07	-2.624661e-06	-2.144442e-08	-1.856717e+01	-1.409789e+03
6.200000e-07	-2.505826e-06	-2.125719e-08	-1.772652e+01	-1.396645e+03
6.300000e-07	-2.385989e-06	-2.105878e-08	-1.687878e+01	-1.383430e+03
6.400000e-07	-2.265221e-06	-2.084858e-08	-1.602445e+01	-1.370238e+03
6.500000e-07	-2.143717e-06	-2.063207e-08	-1.516492e+01	-1.356976e+03
6.600000e-07	-2.021535e-06	-2.041016e-08	-1.430059e+01	-1.343378e+03
6.700000e-07	-1.898562e-06	-2.017888e-08	-1.343066e+01	-1.329069e+03
6.800000e-07	-1.774799e-06	-1.993558e-08	-1.255515e+01	-1.313665e+03
6.900000e-07	-1.650388e-06	-1.967655e-08	-1.167505e+01	-1.296883e+03
7.000000e-07	-1.525461e-06	-1.940453e-08	-1.079130e+01	-1.278628e+03
7.100000e-07	-1.400082e-06	-1.911807e-08	-9.904352e+00	-1.259013e+03
7.200000e-07	-1.274310e-06	-1.881803e-08	-9.014625e+00	-1.238317e+03
7.300000e-07	-1.148173e-06	-1.850395e-08	-8.122313e+00	-1.216881e+03
7.400000e-07	-1.021706e-06	-1.817439e-08	-7.227671e+00	-1.194970e+03
7.500000e-07	-8.948856e-07	-1.782680e-08	-6.330531e+00	-1.172646e+03
7.600000e-07	-7.676991e-07	-1.745634e-08	-5.430798e+00	-1.149691e+03
7.700000e-07	-6.402047e-07	-1.706244e-08	-4.528886e+00	-1.125615e+03
7.800000e-07	-5.125069e-07	-1.664615e-08	-3.625536e+00	-1.099744e+03
7.900000e-07	-3.846537e-07	-1.620426e-08	-2.721087e+00	-1.071378e+03
8.000000e-07	-2.566089e-07	-1.572979e-08	-1.815283e+00	-1.039961e+03
8.100000e-07	-1.284196e-07	-1.521876e-08	-9.084563e-01	-1.005216e+03
8.200000e-07	-1.578092e-10	-1.466800e-08	-1.116362e-03	-9.671914e+02
8.300000e-07	1.281057e-07	-1.407134e-08	9.062351e-01	-9.261730e+02
8.400000e-07	2.563603e-07	-1.342156e-08	1.813524e+00	-8.824869e+02
8.500000e-07	3.845545e-07	-1.271248e-08	2.720385e+00	-8.362174e+02
8.600000e-07	5.126440e-07	-1.193385e-08	3.626507e+00	-7.869179e+02
8.700000e-07	6.405789e-07	-1.107386e-08	4.531534e+00	-7.334018e+02
8.800000e-07	7.682978e-07	-1.011886e-08	5.435033e+00	-6.736910e+02
8.900000e-07	8.957857e-07	-9.044687e-09	6.336898e+00	-6.051722e+02
9.000000e-07	1.022938e-06	-7.818804e-09	7.236392e+00	-5.249641e+02
9.100000e-07	1.149644e-06	-6.407009e-09	8.132723e+00	-4.304439e+02
9.200000e-07	1.275901e-06	-4.766932e-09	9.025878e+00	-3.198390e+02
9.300000e-07	1.401764e-06	-2.855590e-09	9.916252e+00	-1.927599e+02
9.400000e-07	1.527264e-06	-6.679703e-10	1.080406e+01	-5.055406e+01
9.500000e-07	1.652342e-06	1.711695e-09	1.168887e+01	1.036135e+02
9.600000e-07	1.776877e-06	4.160127e-09	1.256985e+01	2.649910e+02
9.700000e-07	1.900821e-06	6.617823e-09	1.344664e+01	4.277587e+02
9.800000e-07	2.024058e-06	9.049663e-09	1.431844e+01	5.857494e+02
9.900000e-07	2.146452e-06	1.133522e-08	1.518427e+01	7.332405e+02
1.000000e-06	2.267981e-06	1.332997e-08	1.604397e+01	8.656719e+02
1.010000e-06	2.388634e-06	1.499484e-08	1.689749e+01	9.801583e+02
1.020000e-06	2.508315e-06	1.636368e-08	1.774413e+01	1.075710e+03
1.030000e-06	2.626953e-06	1.748349e-08	1.858339e+01	1.153138e+03
1.040000e-06	2.744667e-06	1.840397e-08	1.941611e+01	1.214675e+03
1.050000e-06	2.861434e-06	1.916338e-08	2.024213e+01	1.263422e+03
1.060000e-06	2.977018e-06	1.979643e-08	2.105979e+01	1.302727e+03
1.070000e-06	3.091288e-06	2.033288e-08	2.186815e+01	1.335632e+03
1.080000e-06	3.204333e-06	2.079395e-08	2.266784e+01	1.364482e+03
1.090000e-06	3.316244e-06	2.119581e-08	2.345951e+01	1.390755e+03
1.100000e-06	3.426976e-06	2.154801e-08	2.424285e+01	1.415107e+03
1.110000e-06	3.536547e-06	2.185830e-08	2.501797e+01	1.437580e+03
1.120000e-06	3.645027e-06	2.213479e-08	2.578537e+01	1.457911e+03
1.130000e-06	3.752333e-06	2.238634e-08	2.654446e+01	1.475818e+03
1.140000e-06	3.858187e-06	2.261834e-08	2.729329e+01	1.491228e+03
1.150000e-06	3.962583e-06	2.283192e-08	2.803179e+01	1.504372e+03
1.160000e-06	4.065614e-06	2.302801e-08	2.876065e+01	1.515753e+03
1.170000e-06	4.167239e-06	2.320861e-08	2.947956e+01	1.526022e+03
1.180000e-06	4.267464e-06	2.337624e-08	3.018857e+01	1.535809e+03
1.190000e-06	4.366098e-06	2.353301e-08	3.088631e+01	1.545560e+03
1.200000e-06	4.463040e-06	2.367930e-08	3.157209e+01	1.555450e+03
1.210000e-06	4.558340e-06	2.381632e-08	3.224626e+01	1.565372e+03
1.220000e-06	4.652051e-06	2.394428e-08	3.290918e+01	1.575015e+03
1.230000e-06	4.744292e-06	2.406451e-08	3.356170e+01	1.583992e+03
1.240000e-06	4.834931e-06	2.417677e-08	3.420289e+01	1.591983e+03
1.250000e-06	4.923728e-06	2.428213e-08	3.483105e+01	1.598840e+03
1.260000e-06	5.010635e-06	2.438064e-08	3.544585e+01	1.604640e+03
1.270000e-06	5.095745e-06	2.447231e-08	3.604792e+01	1.609656e+03
1.280000e-06	5.179160e-06	2.455878e-08	3.663802e+01	1.614275e+03
1.290000e-06	5.260716e-06	2.464255e-08	3.721495e+01	1.618883e+03
1.300000e-06	5.340235e-06	2.472388e-08	3.777748e+01	1.623751e+03
1.310000e-06	5.417822e-06	2.480039e-08	3.832634e+01	1.628975e+03
1.320000e-06	5.493425e-06	2.487153e-08	3.886116e+01	1.634455e+03
1.330000e-06	5.566821e-06	2.493889e-08	3.938037e+01	1.639947e+03
1.340000e-06	5.638083e-06	2.500510e-08	3.988449e+01	1.645147e+03
1.350000e-06	5.707395e-06	2.506907e-08	4.037481e+01	1.649794e+03
1.360000e-06	5.774703e-06	2.512962e-08	4.085096e+01	1.653750e+03
1.370000e-06	5.839853e-06	2.518772e-08	4.131184e+01	1.657040e+03
1.380000e-06	5.902917e-06	2.524425e-08	4.175796e+01	1.659834e+03
1.390000e-06	5.964117e-06	2.529785e-08	4.219089e+01	1.662394e+03
1.400000e-06	6.023318e-06	2.534747e-08	4.260969e+01	1.664983e+03
1.410000e-06	6.080274e-06	2.539360e-08	4.301260e+01	1.667791e+03
1.420000e-06	6.135096e-06	2.543692e-08	4.340042e+01	1.670869e+03
1.430000e-06	6.187661e-06	2.547751e-08	4.377227e+01	1.674129e+03
1.440000e-06	6.237563e-06	2.551579e-08	4.412529e+01	1.677369e+03
1.450000e-06	6.284958e-06	2.555150e-08	4.446057e+01	1.680347e+03
1.460000e-06	6.330242e-06	2.558369e-08	4.478091e+01	1.682857e+03
1.470000e-06	6.373424e-06	2.561366e-08	4.508638e+01	1.684793e+03
1.480000e-06	6.414235e-06	2.564242e-08	4.537509e+01	1.686187e+03
1.490000e-06	6.452703e-06	2.566936e-08	4.564721e+01	1.687189e+03
1.500000e-06	6.489084e-06	2.569411e-08	4.590458e+01	1.688027e+03
1.510000e-06	6.523187e-06	2.571628e-08	4.614582e+01	1.688931e+03
1.520000e-06	6.554889e-06	2.573659e-08	4.637009e+01	1.690061e+03
1.530000e-06	6.584361e-06	2.575503e-08	4.657858e+01	1.691465e+03
1.540000e-06	6.611618e-06	2.577102e-08	4.677140e+01	1.693063e+03
1.550000e-06	6.636374e-06	2.578544e-08	4.694652e+01	1.694677e+03
1.560000e-06	6.658629e-06	2.579959e-08	4.710395e+01	1.696088e+03
1.570000e-06	6.678683e-06	2.581351e-08	4.724582e+01	1.697110e+03
1.580000e-06	6.696405e-06	2.582631e-08	4.737119e+01	1.697642e+03
1.590000e-06	6.711626e-06	2.583805e-08	4.747887e+01	1.697707e+03
1.600000e-06	6.724349e-06	2.584722e-08	4.756887e+01	1.697436e+03
1.610000e-06	6.734427e-06	2.585280e-08	4.764016e+01	1.697030e+03
1.620000e-06	6.741885e-06	2.585608e-08	4.769292e+01	1.696697e+03
1.630000e-06	6.747013e-06	2.585906e-08	4.772920e+01	1.696583e+03
1.640000e-06	6.749778e-06	2.586165e-08	4.774876e+01	1.696733e+03
1.650000e-06	6.750060e-06	2.586225e-08	4.775075e+01	1.697071e+03
1.660000e-06	6.748102e-06	2.585592e-08	4.773690e+01	1.697430e+03
1.670000e-06	6.744040e-06	2.584932e-08	4.770817e+01	1.697603e+03
1.680000e-06	6.737662e-06	2.584458e-08	4.766304e+01	1.697408e+03
1.690000e-06	6.729002e-06	2.583848e-08	4.760179e+01	1.696748e+03
1.700000e-06	6.718187e-06	2.583209e-08	4.752527e+01	1.695639e+03
1.710000e-06	6.705087e-06	2.582661e-08	4.743261e+01	1.694209e+03
1.720000e-06	6.689668e-06	2.581815e-08	4.732353e+01	1.692661e+03
1.730000e-06	6.672191e-06	2.576136e-08	4.719990e+01	1.691207e+03
1.740000e-06	6.652533e-06	2.569257e-08	4.706083e+01	1.690010e+03
1.750000e-06	6.629874e-06	2.570280e-08	4.690054e+01	1.689133e+03
1.760000e-06	6.604036e-06	2.571559e-08	4.671776e+01	1.688519e+03
1.770000e-06	6.575655e-06	2.571590e-08	4.651699e+01	1.688009e+03
1.780000e-06	6.545196e-06	2.578930e-08	4.630152e+01	1.687391e+03
1.790000e-06	6.513136e-06	2.574648e-08	4.607472e+01	1.686459e+03
1.800000e-06	6.479595e-06	2.563700e-08	4.583745e+01	1.685071e+03
1.810000e-06	6.443833e-06	2.566226e-08	4.558447e+01	1.683191e+03
1.820000e-06	6.405646e-06	2.561274e-08	4.531432e+01	1.680886e+03
1.830000e-06	6.365281e-06	2.560576e-08	4.502878e+01	1.678307e+03
1.840000e-06	6.322729e-06	2.562919e-08	4.472776e+01	1.675634e+03
1.850000e-06	6.278101e-06	2.552625e-08	4.441206e+01	1.673019e+03
1.860000e-06	6.231220e-06	2.552015e-08	4.408042e+01	1.670542e+03
1.870000e-06	6.181961e-06	2.546006e-08	4.373195e+01	1.668189e+03
1.880000e-06	6.130393e-06	2.537063e-08	4.336715e+01	1.665860e+03
1.890000e-06	6.076203e-06	2.534305e-08	4.298381e+01	1.663408e+03
1.900000e-06	6.019565e-06	2.528838e-08	4.258314e+01	1.660690e+03
1.910000e-06	5.960765e-06	2.531360e-08	4.216718e+01	1.657615e+03
1.920000e-06	5.899809e-06	2.526585e-08	4.173597e+01	1.654172e+03
1.930000e-06	5.836708e-06	2.517729e-08	4.128958e+01	1.650435e+03
1.940000e-06	5.771384e-06	2.511377e-08	4.082748e+01	1.646533e+03
1.950000e-06	5.703910e-06	2.503417e-08	4.035016e+01	1.642608e+03
1.960000e-06	5.634178e-06	2.501524e-08	3.985687e+01	1.638762e+03
1.970000e-06	5.562243e-06	2.494912e-08	3.934799e+01	1.635019e+03
1.980000e-06	5.488218e-06	2.489780e-08	3.882433e+01	1.631315e+03
1.990000e-06	5.412072e-06	2.484375e-08	3.828566e+01	1.627515e+03
2.000000e-06	5.333862e-06	2.474650e-08	3.773239e+01	1.623453e+03
2.010000e-06	5.253622e-06	2.467190e-08	3.716477e+01	1.618990e+03
2.020000e-06	5.171549e-06	2.460100e-08	3.658417e+01	1.614055e+03
2.030000e-06	5.087704e-06	2.455444e-08	3.599104e+01	1.608676e+03
2.040000e-06	5.002047e-06	2.448512e-08	3.538510e+01	1.602969e+03
2.050000e-06	4.914545e-06	2.439914e-08	3.476610e+01	1.597106e+03
2.060000e-06	4.825309e-06	2.430896e-08	3.413483e+01	1.591255e+03
2.070000e-06	4.734572e-06	2.421438e-08	3.349294e+01	1.585523e+03
2.080000e-06	4.642167e-06	2.412080e-08	3.283926e+01	1.579920e+03
2.090000e-06	4.548075e-06	2.402291e-08	3.217364e+01	1.574346e+03
2.100000e-06	4.452323e-06	2.393193e-08	3.149628e+01	1.568615e+03
2.110000e-06	4.355047e-06	2.384139e-08	3.080814e+01	1.562513e+03
2.120000e-06	4.256430e-06	2.373930e-08	3.011051e+01	1.555860e+03
2.130000e-06	4.156240e-06	2.362421e-08	2.940175e+01	1.548568e+03
2.140000e-06	4.054462e-06	2.350771e-08	2.868176e+01	1.540671e+03
2.150000e-06	3.951133e-06	2.339353e-08	2.795080e+01	1.532315e+03
2.160000e-06	3.846306e-06	2.328516e-08	2.720924e+01	1.523711e+03
2.170000e-06	3.740222e-06	2.317008e-08	2.645879e+01	1.515070e+03
2.180000e-06	3.632916e-06	2.304032e-08	2.569969e+01	1.506525e+03
2.190000e-06	3.524295e-06	2.289906e-08	2.493129e+01	1.498086e+03
2.200000e-06	3.414419e-06	2.275575e-08	2.415402e+01	1.489621e+03
2.210000e-06	3.303181e-06	2.261296e-08	2.336711e+01	1.480892e+03
2.220000e-06	3.190550e-06	2.247057e-08	2.257034e+01	1.471617e+03
2.230000e-06	3.076704e-06	2.232456e-08	2.176498e+01	1.461555e+03
2.240000e-06	2.961622e-06	2.216640e-08	2.095088e+01	1.450579e+03
2.250000e-06	2.845334e-06	2.199357e-08	2.012824e+01	1.438718e+03
2.260000e-06	2.727998e-06	2.181063e-08	1.929820e+01	1.426146e+03
2.270000e-06	2.609614e-06	2.162802e-08	1.846073e+01	1.413129e+03
2.280000e-06	2.490049e-06	2.144230e-08	1.761491e+01	1.399932e+03
2.290000e-06	2.369511e-06	2.124755e-08	1.676221e+01	1.386729e+03
2.300000e-06	2.248281e-06	2.104032e-08	1.590461e+01	1.373530e+03
2.310000e-06	2.126373e-06	2.082133e-08	1.504222e+01	1.360156e+03
2.320000e-06	2.003780e-06	2.059110e-08	1.417498e+01	1.346280e+03
2.330000e-06	1.880475e-06	2.035057e-08	1.330271e+01	1.331509e+03
2.340000e-06	1.756389e-06	2.010267e-08	1.242491e+01	1.315492e+03
2.350000e-06	1.631647e-06	1.984758e-08	1.154247e+01	1.298028e+03
2.360000e-06	1.506452e-06	1.958098e-08	1.065683e+01	1.279117e+03
2.370000e-06	1.380879e-06	1.929579e-08	9.768506e+00	1.258961e+03
2.380000e-06	1.254905e-06	1.898924e-08	8.877354e+00	1.237882e+03
2.390000e-06	1.128526e-06	1.866627e-08	7.983331e+00	1.216205e+03
2.400000e-06	1.001725e-06	1.832687e-08	7.086325e+00	1.194113e+03
2.410000e-06	8.744405e-07	1.797228e-08	6.185900e+00	1.171542e+03
2.420000e-06	7.467392e-07	1.760022e-08	5.282524e+00	1.148144e+03
2.430000e-06	6.187860e-07	1.720281e-08	4.377368e+00	1.123327e+03
2.440000e-06	4.906544e-07	1.677521e-08	3.470950e+00	1.096382e+03
2.450000e-06	3.623427e-07	1.631639e-08	2.563256e+00	1.066656e+03
2.460000e-06	2.338647e-07	1.582564e-08	1.654388e+00	1.033710e+03
2.470000e-06	1.052757e-07	1.529685e-08	7.447333e-01	9.974212e+02
2.480000e-06	-2.335681e-08	1.472706e-08	-1.652290e-01	9.579647e+02
2.490000e-06	-1.519805e-07	1.410775e-08	-1.075129e+00	9.156769e+02
2.500000e-06	-2.805685e-07	1.343197e-08	-1.984776e+00	8.708091e+02
2.510000e-06	-4.091033e-07	1.269725e-08	-2.894047e+00	8.232320e+02
2.520000e-06	-5.375787e-07	1.189217e-08	-3.802897e+00	7.721736e+02
2.530000e-06	-6.658855e-07	1.100030e-08	-4.710556e+00	7.160743e+02
2.540000e-06	-7.939176e-07	1.000268e-08	-5.616270e+00	6.526282e+02
2.550000e-06	-9.216037e-07	8.875603e-09	-6.519537e+00	5.790406e+02
2.560000e-06	-1.048892e-06	7.587692e-09	-7.419993e+00	4.924781e+02
2.570000e-06	-1.175694e-06	6.096866e-09	-8.317003e+00	3.906396e+02
2.580000e-06	-1.301964e-06	4.358696e-09	-9.210250e+00	2.723366e+02
2.590000e-06	-1.427799e-06	2.337496e-09	-1.010042e+01	1.379570e+02
2.600000e-06	-1.553193e-06	4.789352e-11	-1.098748e+01	-1.029926e+01
2.610000e-06	-1.678043e-06	-2.411077e-09	-1.187068e+01	-1.684828e+02
2.620000e-06	-1.802250e-06	-4.925444e-09	-1.274934e+01	-3.312668e+02
2.630000e-06	-1.925724e-06	-7.438862e-09	-1.362281e+01	-4.925727e+02
2.640000e-06	-2.048339e-06	-9.876431e-09	-1.449020e+01	-6.463425e+02
2.650000e-06	-2.170116e-06	-1.209050e-08	-1.535167e+01	-7.873138e+02
2.660000e-06	-2.291216e-06	-1.398031e-08	-1.620834e+01	-9.116566e+02
2.670000e-06	-2.411581e-06	-1.554475e-08	-1.705982e+01	-1.017358e+03
2.680000e-06	-2.531027e-06	-1.682696e-08	-1.790480e+01	-1.104294e+03
2.690000e-06	-2.649398e-06	-1.787778e-08	-1.874217e+01	-1.173997e+03
2.700000e-06	-2.766642e-06	-1.874272e-08	-1.957156e+01	-1.229179e+03
2.710000e-06	-2.882754e-06	-1.946099e-08	-2.039295e+01	-1.273131e+03
2.720000e-06	-2.997687e-06	-2.006125e-08	-2.120601e+01	-1.309120e+03
2.730000e-06	-3.111359e-06	-2.056772e-08	-2.201014e+01	-1.339900e+03
2.740000e-06	-3.223590e-06	-2.100121e-08	-2.280407e+01	-1.367421e+03
2.750000e-06	-3.334519e-06	-2.137844e-08	-2.358879e+01	-1.392761e+03
2.760000e-06	-3.444288e-06	-2.171160e-08	-2.436531e+01	-1.416259e+03
2.770000e-06	-3.552916e-06	-2.201097e-08	-2.513376e+01	-1.437776e+03
2.780000e-06	-3.660473e-06	-2.228076e-08	-2.589464e+01	-1.457005e+03
2.790000e-06	-3.766864e-06	-2.252116e-08	-2.664726e+01	-1.473742e+03
2.800000e-06	-3.872036e-06	-2.273982e-08	-2.739126e+01	-1.488051e+03
2.810000e-06	-3.975805e-06	-2.294271e-08	-2.812533e+01	-1.500299e+03
2.820000e-06	-4.077945e-06	-2.313005e-08	-2.884788e+01	-1.511078e+03
2.830000e-06	-4.178548e-06	-2.330359e-08	-2.955956e+01	-1.521051e+03
2.840000e-06	-4.277703e-06	-2.346486e-08	-3.026099e+01	-1.530778e+03
2.850000e-06	-4.375420e-06	-2.361561e-08	-3.095226e+01	-1.540588e+03
2.860000e-06	-4.471731e-06	-2.375799e-08	-3.163357e+01	-1.550518e+03
2.870000e-06	-4.566393e-06	-2.389128e-08	-3.230322e+01	-1.560356e+03
2.880000e-06	-4.659348e-06	-2.401517e-08	-3.296080e+01	-1.569735e+03
2.890000e-06	-4.750677e-06	-2.412917e-08	-3.360687e+01	-1.578283e+03
2.900000e-06	-4.840319e-06	-2.423321e-08	-3.424101e+01	-1.585750e+03
2.910000e-06	-4.928243e-06	-2.433193e-08	-3.486299e+01	-1.592091e+03
2.920000e-06	-5.014336e-06	-2.442472e-08	-3.547203e+01	-1.597482e+03
2.930000e-06	-5.098586e-06	-2.451365e-08	-3.606802e+01	-1.602261e+03
2.940000e-06	-5.181142e-06	-2.459948e-08	-3.665203e+01	-1.606829e+03
