# Temperatura_=_46.89
# Concentracion g/m^3_=_41000.0
# C_Vs_to_Am_M_A/Vsm_=_65563218390.804596
# pendiente_HvsI_1/m_=_3716.3
# ordenada_HvsI_A/m_=_1297.0
# frecuencia_Hz_=_302007.5561106867

Tiempo_(s)	Campo_(V.s)	Magnetizacion_(V.s)	Campo_(kA/m)	Magnetizacion_(A/m)
0.000000e+00	-6.724753e-06	-2.504520e-08	-4.746718e+01	-1.640645e+03
1.000000e-08	-6.721632e-06	-2.504186e-08	-4.744515e+01	-1.641068e+03
2.000000e-08	-6.716273e-06	-2.503192e-08	-4.740732e+01	-1.641241e+03
3.000000e-08	-6.708859e-06	-2.502353e-08	-4.735498e+01	-1.640974e+03
4.000000e-08	-6.699134e-06	-2.501248e-08	-4.728634e+01	-1.640184e+03
5.000000e-08	-6.686895e-06	-2.499718e-08	-4.719995e+01	-1.638926e+03
6.000000e-08	-6.672142e-06	-2.498127e-08	-4.709582e+01	-1.637375e+03
7.000000e-08	-6.654999e-06	-2.496549e-08	-4.697481e+01	-1.635772e+03
8.000000e-08	-6.635761e-06	-2.499499e-08	-4.683902e+01	-1.634358e+03
9.000000e-08	-6.614237e-06	-2.505108e-08	-4.668709e+01	-1.633292e+03
1.000000e-07	-6.590023e-06	-2.500033e-08	-4.651617e+01	-1.632609e+03
1.100000e-07	-6.563145e-06	-2.493056e-08	-4.632645e+01	-1.632207e+03
1.200000e-07	-6.533923e-06	-2.490959e-08	-4.612019e+01	-1.631873e+03
1.300000e-07	-6.502785e-06	-2.480973e-08	-4.590040e+01	-1.631349e+03
1.400000e-07	-6.469906e-06	-2.470430e-08	-4.566832e+01	-1.630403e+03
1.500000e-07	-6.435035e-06	-2.485071e-08	-4.542218e+01	-1.628896e+03
1.600000e-07	-6.398078e-06	-2.484843e-08	-4.516132e+01	-1.626816e+03
1.700000e-07	-6.359181e-06	-2.475311e-08	-4.488676e+01	-1.624279e+03
1.800000e-07	-6.318015e-06	-2.486546e-08	-4.459619e+01	-1.621485e+03
1.900000e-07	-6.274316e-06	-2.471103e-08	-4.428773e+01	-1.618658e+03
2.000000e-07	-6.228283e-06	-2.458573e-08	-4.396281e+01	-1.615974e+03
2.100000e-07	-6.179861e-06	-2.460516e-08	-4.362102e+01	-1.613513e+03
2.200000e-07	-6.128840e-06	-2.456211e-08	-4.326088e+01	-1.611239e+03
2.300000e-07	-6.075285e-06	-2.456460e-08	-4.288286e+01	-1.609018e+03
2.400000e-07	-6.019386e-06	-2.450824e-08	-4.248829e+01	-1.606666e+03
2.500000e-07	-5.961229e-06	-2.444945e-08	-4.207779e+01	-1.604012e+03
2.600000e-07	-5.900878e-06	-2.439860e-08	-4.165179e+01	-1.600954e+03
2.700000e-07	-5.838418e-06	-2.434082e-08	-4.121091e+01	-1.597491e+03
2.800000e-07	-5.773842e-06	-2.432916e-08	-4.075510e+01	-1.593720e+03
2.900000e-07	-5.707029e-06	-2.428613e-08	-4.028349e+01	-1.589801e+03
3.000000e-07	-5.638037e-06	-2.422766e-08	-3.979651e+01	-1.585899e+03
3.100000e-07	-5.566958e-06	-2.412548e-08	-3.929479e+01	-1.582130e+03
3.200000e-07	-5.493795e-06	-2.406589e-08	-3.877837e+01	-1.578514e+03
3.300000e-07	-5.418424e-06	-2.403002e-08	-3.824636e+01	-1.574966e+03
3.400000e-07	-5.340800e-06	-2.394456e-08	-3.769844e+01	-1.571321e+03
3.500000e-07	-5.261083e-06	-2.389336e-08	-3.713575e+01	-1.567386e+03
3.600000e-07	-5.179361e-06	-2.382366e-08	-3.655891e+01	-1.563004e+03
3.700000e-07	-5.095881e-06	-2.373924e-08	-3.596966e+01	-1.558103e+03
3.800000e-07	-5.010825e-06	-2.365815e-08	-3.536929e+01	-1.552725e+03
3.900000e-07	-4.924150e-06	-2.358643e-08	-3.475748e+01	-1.547015e+03
4.000000e-07	-4.835741e-06	-2.350399e-08	-3.413344e+01	-1.541175e+03
4.100000e-07	-4.745626e-06	-2.340704e-08	-3.349736e+01	-1.535398e+03
4.200000e-07	-4.653845e-06	-2.332764e-08	-3.284951e+01	-1.529803e+03
4.300000e-07	-4.560445e-06	-2.324626e-08	-3.219024e+01	-1.524391e+03
4.400000e-07	-4.465473e-06	-2.316110e-08	-3.151988e+01	-1.519038e+03
4.500000e-07	-4.368859e-06	-2.306658e-08	-3.083792e+01	-1.513528e+03
4.600000e-07	-4.270600e-06	-2.295816e-08	-3.014435e+01	-1.507617e+03
4.700000e-07	-4.170739e-06	-2.284271e-08	-2.943947e+01	-1.501105e+03
4.800000e-07	-4.069463e-06	-2.272864e-08	-2.872461e+01	-1.493905e+03
4.900000e-07	-3.966810e-06	-2.262296e-08	-2.800003e+01	-1.486068e+03
5.000000e-07	-3.862657e-06	-2.251251e-08	-2.726485e+01	-1.477769e+03
5.100000e-07	-3.757113e-06	-2.239257e-08	-2.651986e+01	-1.469253e+03
5.200000e-07	-3.650120e-06	-2.226452e-08	-2.576465e+01	-1.460755e+03
5.300000e-07	-3.541731e-06	-2.213228e-08	-2.499958e+01	-1.452418e+03
5.400000e-07	-3.432195e-06	-2.200132e-08	-2.422640e+01	-1.444240e+03
5.500000e-07	-3.321455e-06	-2.186886e-08	-2.344474e+01	-1.436062e+03
5.600000e-07	-3.209370e-06	-2.173048e-08	-2.265358e+01	-1.427611e+03
5.700000e-07	-3.095974e-06	-2.157574e-08	-2.185317e+01	-1.418571e+03
5.800000e-07	-2.981310e-06	-2.140599e-08	-2.104380e+01	-1.408684e+03
5.900000e-07	-2.865302e-06	-2.123347e-08	-2.022495e+01	-1.397828e+03
6.000000e-07	-2.748109e-06	-2.106292e-08	-1.939773e+01	-1.386057e+03
6.100000e-07	-2.629959e-06	-2.089175e-08	-1.856376e+01	-1.373584e+03
6.200000e-07	-2.510830e-06	-2.071379e-08	-1.772289e+01	-1.360717e+03
6.300000e-07	-2.390698e-06	-2.052498e-08	-1.687492e+01	-1.347754e+03
6.400000e-07	-2.269711e-06	-2.032296e-08	-1.602092e+01	-1.334879e+03
6.500000e-07	-2.147998e-06	-2.011323e-08	-1.516181e+01	-1.322084e+03
6.600000e-07	-2.025507e-06	-1.989801e-08	-1.429719e+01	-1.309156e+03
6.700000e-07	-1.902190e-06	-1.967536e-08	-1.342675e+01	-1.295719e+03
6.800000e-07	-1.778146e-06	-1.944313e-08	-1.255118e+01	-1.281333e+03
6.900000e-07	-1.653487e-06	-1.919897e-08	-1.167126e+01	-1.265626e+03
7.000000e-07	-1.528306e-06	-1.894378e-08	-1.078766e+01	-1.248397e+03
7.100000e-07	-1.402727e-06	-1.867278e-08	-9.901256e+00	-1.229682e+03
7.200000e-07	-1.276800e-06	-1.838796e-08	-9.012390e+00	-1.209736e+03
7.300000e-07	-1.150483e-06	-1.809022e-08	-8.120770e+00	-1.188943e+03
7.400000e-07	-1.023785e-06	-1.777539e-08	-7.226466e+00	-1.167672e+03
7.500000e-07	-8.966714e-07	-1.744218e-08	-6.329223e+00	-1.146127e+03
7.600000e-07	-7.691542e-07	-1.709108e-08	-5.429133e+00	-1.124228e+03
7.700000e-07	-6.413572e-07	-1.671812e-08	-4.527068e+00	-1.101573e+03
7.800000e-07	-5.133460e-07	-1.632231e-08	-3.623491e+00	-1.077503e+03
7.900000e-07	-3.851521e-07	-1.590488e-08	-2.718625e+00	-1.051245e+03
8.000000e-07	-2.568136e-07	-1.545961e-08	-1.812738e+00	-1.022108e+03
8.100000e-07	-1.283469e-07	-1.497933e-08	-9.059464e-01	-9.896616e+02
8.200000e-07	1.839991e-10	-1.446099e-08	1.298772e-03	-9.538399e+02
8.300000e-07	1.286986e-07	-1.390202e-08	9.084287e-01	-9.149184e+02
8.400000e-07	2.571883e-07	-1.329485e-08	1.815383e+00	-8.733527e+02
8.500000e-07	3.856064e-07	-1.263516e-08	2.721832e+00	-8.295026e+02
8.600000e-07	5.139591e-07	-1.191524e-08	3.627819e+00	-7.833072e+02
8.700000e-07	6.422037e-07	-1.112314e-08	4.533043e+00	-7.340005e+02
8.800000e-07	7.702573e-07	-1.024685e-08	5.436919e+00	-6.799618e+02
8.900000e-07	8.980639e-07	-9.269501e-09	6.339052e+00	-6.187700e+02
9.000000e-07	1.025517e-06	-8.165160e-09	7.238692e+00	-5.474908e+02
9.100000e-07	1.152511e-06	-6.898896e-09	8.135086e+00	-4.631666e+02
9.200000e-07	1.279036e-06	-5.431167e-09	9.028172e+00	-3.634266e+02
9.300000e-07	1.405193e-06	-3.720135e-09	9.918663e+00	-2.470944e+02
9.400000e-07	1.530942e-06	-1.733504e-09	1.080627e+01	-1.146600e+02
9.500000e-07	1.656200e-06	5.131140e-10	1.169041e+01	3.150091e+01
9.600000e-07	1.780949e-06	2.919490e-09	1.257096e+01	1.872272e+02
9.700000e-07	1.905137e-06	5.373653e-09	1.344755e+01	3.469952e+02
9.800000e-07	2.028660e-06	7.813002e-09	1.431945e+01	5.045983e+02
9.900000e-07	2.151365e-06	1.012679e-08	1.518557e+01	6.539600e+02
1.000000e-06	2.273208e-06	1.217651e-08	1.604561e+01	7.899294e+02
1.010000e-06	2.394077e-06	1.391151e-08	1.689877e+01	9.089091e+02
1.020000e-06	2.513933e-06	1.534954e-08	1.774478e+01	1.009204e+03
1.030000e-06	2.632808e-06	1.653231e-08	1.858387e+01	1.091040e+03
1.040000e-06	2.750740e-06	1.750782e-08	1.941630e+01	1.156264e+03
1.050000e-06	2.867733e-06	1.831477e-08	2.024211e+01	1.207815e+03
1.060000e-06	2.983563e-06	1.898544e-08	2.105971e+01	1.249087e+03
1.070000e-06	3.098192e-06	1.954906e-08	2.186882e+01	1.283308e+03
1.080000e-06	3.211649e-06	2.003024e-08	2.266966e+01	1.313079e+03
1.090000e-06	3.323821e-06	2.044681e-08	2.346144e+01	1.340117e+03
1.100000e-06	3.434712e-06	2.081236e-08	2.424417e+01	1.365243e+03
1.110000e-06	3.544496e-06	2.113480e-08	2.501909e+01	1.388567e+03
1.120000e-06	3.653202e-06	2.142222e-08	2.578640e+01	1.409793e+03
1.130000e-06	3.760683e-06	2.168256e-08	2.654506e+01	1.428546e+03
1.140000e-06	3.866821e-06	2.191938e-08	2.729425e+01	1.444642e+03
1.150000e-06	3.971481e-06	2.213670e-08	2.803300e+01	1.458225e+03
1.160000e-06	4.074651e-06	2.233662e-08	2.876123e+01	1.469774e+03
1.170000e-06	4.176448e-06	2.251960e-08	2.947977e+01	1.479979e+03
1.180000e-06	4.276816e-06	2.268874e-08	3.018823e+01	1.489561e+03
1.190000e-06	4.375681e-06	2.284637e-08	3.088607e+01	1.499082e+03
1.200000e-06	4.472884e-06	2.299323e-08	3.157219e+01	1.508823e+03
1.210000e-06	4.568350e-06	2.312864e-08	3.224604e+01	1.518739e+03
1.220000e-06	4.662216e-06	2.325604e-08	3.290860e+01	1.528525e+03
1.230000e-06	4.754536e-06	2.337773e-08	3.356025e+01	1.537745e+03
1.240000e-06	4.845284e-06	2.349115e-08	3.420080e+01	1.545997e+03
1.250000e-06	4.934217e-06	2.359714e-08	3.482854e+01	1.553044e+03
1.260000e-06	5.021289e-06	2.369535e-08	3.544314e+01	1.558896e+03
1.270000e-06	5.106692e-06	2.378637e-08	3.604597e+01	1.563803e+03
1.280000e-06	5.190400e-06	2.387054e-08	3.663683e+01	1.568176e+03
1.290000e-06	5.272215e-06	2.395151e-08	3.721432e+01	1.572468e+03
1.300000e-06	5.351982e-06	2.402929e-08	3.777737e+01	1.577035e+03
1.310000e-06	5.429761e-06	2.410289e-08	3.832638e+01	1.582049e+03
1.320000e-06	5.505557e-06	2.417286e-08	3.886139e+01	1.587456e+03
1.330000e-06	5.579144e-06	2.424083e-08	3.938080e+01	1.593015e+03
1.340000e-06	5.650547e-06	2.430784e-08	3.988481e+01	1.598383e+03
1.350000e-06	5.720011e-06	2.437307e-08	4.037513e+01	1.603228e+03
1.360000e-06	5.787493e-06	2.443521e-08	4.085146e+01	1.607337e+03
1.370000e-06	5.852782e-06	2.449247e-08	4.131230e+01	1.610671e+03
1.380000e-06	5.915966e-06	2.454458e-08	4.175829e+01	1.613378e+03
1.390000e-06	5.977248e-06	2.459259e-08	4.219085e+01	1.615732e+03
1.400000e-06	6.036562e-06	2.463925e-08	4.260953e+01	1.618047e+03
1.410000e-06	6.093696e-06	2.468530e-08	4.301281e+01	1.620577e+03
1.420000e-06	6.148623e-06	2.472804e-08	4.340052e+01	1.623443e+03
1.430000e-06	6.201263e-06	2.476547e-08	4.377208e+01	1.626595e+03
1.440000e-06	6.251343e-06	2.480094e-08	4.412558e+01	1.629841e+03
1.450000e-06	6.298920e-06	2.483599e-08	4.446140e+01	1.632911e+03
1.460000e-06	6.344289e-06	2.486886e-08	4.478164e+01	1.635542e+03
1.470000e-06	6.387562e-06	2.489862e-08	4.508709e+01	1.637569e+03
1.480000e-06	6.428459e-06	2.492604e-08	4.537576e+01	1.638970e+03
1.490000e-06	6.466987e-06	2.495099e-08	4.564771e+01	1.639874e+03
1.500000e-06	6.503454e-06	2.497337e-08	4.590512e+01	1.640516e+03
1.510000e-06	6.537643e-06	2.499416e-08	4.614645e+01	1.641167e+03
1.520000e-06	6.569412e-06	2.501393e-08	4.637069e+01	1.642046e+03
1.530000e-06	6.598973e-06	2.503182e-08	4.657935e+01	1.643256e+03
1.540000e-06	6.626321e-06	2.504688e-08	4.677238e+01	1.644755e+03
1.550000e-06	6.651096e-06	2.506156e-08	4.694726e+01	1.646374e+03
1.560000e-06	6.673319e-06	2.507634e-08	4.710413e+01	1.647875e+03
1.570000e-06	6.693429e-06	2.508951e-08	4.724607e+01	1.649023e+03
1.580000e-06	6.711254e-06	2.510071e-08	4.737189e+01	1.649667e+03
1.590000e-06	6.726478e-06	2.511040e-08	4.747935e+01	1.649782e+03
1.600000e-06	6.739184e-06	2.511819e-08	4.756904e+01	1.649480e+03
1.610000e-06	6.749262e-06	2.512303e-08	4.764018e+01	1.648969e+03
1.620000e-06	6.756717e-06	2.512609e-08	4.769280e+01	1.648491e+03
1.630000e-06	6.761839e-06	2.512939e-08	4.772895e+01	1.648241e+03
1.640000e-06	6.764605e-06	2.513234e-08	4.774847e+01	1.648312e+03
1.650000e-06	6.764928e-06	2.513550e-08	4.775075e+01	1.648661e+03
1.660000e-06	6.763006e-06	2.512908e-08	4.773719e+01	1.649124e+03
1.670000e-06	6.758975e-06	2.512249e-08	4.770873e+01	1.649471e+03
1.680000e-06	6.752575e-06	2.511782e-08	4.766356e+01	1.649475e+03
1.690000e-06	6.743884e-06	2.510989e-08	4.760221e+01	1.648989e+03
1.700000e-06	6.733165e-06	2.510185e-08	4.752655e+01	1.647987e+03
1.710000e-06	6.720137e-06	2.509657e-08	4.743459e+01	1.646579e+03
1.720000e-06	6.704695e-06	2.509928e-08	4.732560e+01	1.644977e+03
1.730000e-06	6.687183e-06	2.503905e-08	4.720199e+01	1.643431e+03
1.740000e-06	6.667428e-06	2.494063e-08	4.706255e+01	1.642155e+03
1.750000e-06	6.644616e-06	2.497091e-08	4.690152e+01	1.641260e+03
1.760000e-06	6.618665e-06	2.499019e-08	4.671834e+01	1.640720e+03
1.770000e-06	6.590255e-06	2.496775e-08	4.651781e+01	1.640380e+03
1.780000e-06	6.559798e-06	2.508427e-08	4.630283e+01	1.640000e+03
1.790000e-06	6.527751e-06	2.505290e-08	4.607662e+01	1.639322e+03
1.800000e-06	6.494189e-06	2.489927e-08	4.583972e+01	1.638147e+03
1.810000e-06	6.458274e-06	2.497485e-08	4.558621e+01	1.636391e+03
1.820000e-06	6.419904e-06	2.486765e-08	4.531538e+01	1.634097e+03
1.830000e-06	6.379443e-06	2.482926e-08	4.502978e+01	1.631425e+03
1.840000e-06	6.336818e-06	2.493224e-08	4.472891e+01	1.628593e+03
1.850000e-06	6.292175e-06	2.479318e-08	4.441379e+01	1.625813e+03
1.860000e-06	6.245211e-06	2.482998e-08	4.408229e+01	1.623224e+03
1.870000e-06	6.195808e-06	2.473014e-08	4.373358e+01	1.620857e+03
1.880000e-06	6.144154e-06	2.459947e-08	4.336897e+01	1.618629e+03
1.890000e-06	6.089778e-06	2.464561e-08	4.298515e+01	1.616377e+03
1.900000e-06	6.032923e-06	2.456125e-08	4.258384e+01	1.613917e+03
1.910000e-06	5.973930e-06	2.461238e-08	4.216743e+01	1.611099e+03
1.920000e-06	5.912751e-06	2.454024e-08	4.173560e+01	1.607864e+03
1.930000e-06	5.849418e-06	2.442189e-08	4.128856e+01	1.604255e+03
1.940000e-06	5.783858e-06	2.441430e-08	4.082580e+01	1.600402e+03
1.950000e-06	5.716226e-06	2.432422e-08	4.034841e+01	1.596474e+03
1.960000e-06	5.646346e-06	2.433419e-08	3.985516e+01	1.592623e+03
1.970000e-06	5.574203e-06	2.423217e-08	3.934593e+01	1.588925e+03
1.980000e-06	5.499990e-06	2.418678e-08	3.882210e+01	1.585357e+03
1.990000e-06	5.423632e-06	2.414256e-08	3.828312e+01	1.581793e+03
2.000000e-06	5.345152e-06	2.402735e-08	3.772916e+01	1.578050e+03
2.010000e-06	5.264664e-06	2.400294e-08	3.716102e+01	1.573941e+03
2.020000e-06	5.182392e-06	2.390901e-08	3.658031e+01	1.569341e+03
2.030000e-06	5.098358e-06	2.385347e-08	3.598715e+01	1.564226e+03
2.040000e-06	5.012424e-06	2.377108e-08	3.538057e+01	1.558686e+03
2.050000e-06	4.924629e-06	2.370574e-08	3.476086e+01	1.552897e+03
2.060000e-06	4.835199e-06	2.363875e-08	3.412962e+01	1.547066e+03
2.070000e-06	4.744300e-06	2.353389e-08	3.348800e+01	1.541362e+03
2.080000e-06	4.651763e-06	2.344934e-08	3.283482e+01	1.535855e+03
2.090000e-06	4.557451e-06	2.334061e-08	3.216911e+01	1.530493e+03
2.100000e-06	4.461410e-06	2.326063e-08	3.149120e+01	1.525105e+03
2.110000e-06	4.363931e-06	2.317175e-08	3.080314e+01	1.519454e+03
2.120000e-06	4.265097e-06	2.308655e-08	3.010551e+01	1.513307e+03
2.130000e-06	4.164719e-06	2.298193e-08	2.939698e+01	1.506506e+03
2.140000e-06	4.062799e-06	2.286825e-08	2.867758e+01	1.499021e+03
2.150000e-06	3.959270e-06	2.275800e-08	2.794681e+01	1.490961e+03
2.160000e-06	3.854248e-06	2.264115e-08	2.720550e+01	1.482540e+03
2.170000e-06	3.747986e-06	2.252539e-08	2.645544e+01	1.474010e+03
2.180000e-06	3.640483e-06	2.239974e-08	2.569662e+01	1.465573e+03
2.190000e-06	3.531670e-06	2.227543e-08	2.492856e+01	1.457316e+03
2.200000e-06	3.421601e-06	2.213680e-08	2.415163e+01	1.449169e+03
2.210000e-06	3.310148e-06	2.199733e-08	2.336493e+01	1.440915e+03
2.220000e-06	3.197312e-06	2.185783e-08	2.256847e+01	1.432251e+03
2.230000e-06	3.083251e-06	2.171987e-08	2.176336e+01	1.422876e+03
2.240000e-06	2.967900e-06	2.156958e-08	2.094915e+01	1.412581e+03
2.250000e-06	2.851363e-06	2.140851e-08	2.012656e+01	1.401319e+03
2.260000e-06	2.733771e-06	2.123668e-08	1.929653e+01	1.389216e+03
2.270000e-06	2.615057e-06	2.105677e-08	1.845858e+01	1.376537e+03
2.280000e-06	2.495182e-06	2.087412e-08	1.761243e+01	1.363599e+03
2.290000e-06	2.374377e-06	2.068641e-08	1.675972e+01	1.350664e+03
2.300000e-06	2.252855e-06	2.049475e-08	1.590195e+01	1.337839e+03
2.310000e-06	2.130639e-06	2.028820e-08	1.503928e+01	1.325027e+03
2.320000e-06	2.007710e-06	2.006734e-08	1.417157e+01	1.311936e+03
2.330000e-06	1.884049e-06	1.983596e-08	1.329870e+01	1.298148e+03
2.340000e-06	1.759717e-06	1.960019e-08	1.242110e+01	1.283236e+03
2.350000e-06	1.634833e-06	1.935677e-08	1.153959e+01	1.266890e+03
2.360000e-06	1.509485e-06	1.909944e-08	1.065481e+01	1.249009e+03
2.370000e-06	1.383668e-06	1.882306e-08	9.766727e+00	1.229727e+03
2.380000e-06	1.257323e-06	1.853142e-08	8.874908e+00	1.209370e+03
2.390000e-06	1.130473e-06	1.822879e-08	7.979525e+00	1.188336e+03
2.400000e-06	1.003207e-06	1.790880e-08	7.081210e+00	1.166941e+03
2.410000e-06	8.755523e-07	1.757302e-08	6.180152e+00	1.145275e+03
2.420000e-06	7.475350e-07	1.721871e-08	5.276532e+00	1.123121e+03
2.430000e-06	6.193003e-07	1.684051e-08	4.371378e+00	1.099954e+03
2.440000e-06	4.909126e-07	1.643646e-08	3.465144e+00	1.075043e+03
2.450000e-06	3.623612e-07	1.600642e-08	2.557754e+00	1.047627e+03
2.460000e-06	2.336708e-07	1.554765e-08	1.649383e+00	1.017106e+03
2.470000e-06	1.048493e-07	1.505165e-08	7.400867e-01	9.832023e+02
2.480000e-06	-2.404200e-08	1.451590e-08	-1.697023e-01	9.460051e+02
2.490000e-06	-1.529009e-07	1.393703e-08	-1.079263e+00	9.058955e+02
2.500000e-06	-2.816826e-07	1.331256e-08	-1.988278e+00	8.633264e+02
2.510000e-06	-4.104102e-07	1.263381e-08	-2.896911e+00	8.185168e+02
2.520000e-06	-5.390432e-07	1.188962e-08	-3.804877e+00	7.711328e+02
2.530000e-06	-6.675127e-07	1.106841e-08	-4.711689e+00	7.200496e+02
2.540000e-06	-7.957563e-07	1.015473e-08	-5.616906e+00	6.632833e+02
2.550000e-06	-9.237232e-07	9.129619e-09	-6.520170e+00	5.981447e+02
2.560000e-06	-1.051301e-06	7.967098e-09	-7.420686e+00	5.216199e+02
2.570000e-06	-1.178463e-06	6.629982e-09	-8.318269e+00	4.309251e+02
2.580000e-06	-1.305189e-06	5.076917e-09	-9.212777e+00	3.241321e+02
2.590000e-06	-1.431394e-06	3.268439e-09	-1.010360e+01	2.007332e+02
2.600000e-06	-1.557048e-06	1.180148e-09	-1.099054e+01	6.201751e+01
2.610000e-06	-1.682148e-06	-1.155058e-09	-1.187357e+01	-8.884225e+01
2.620000e-06	-1.806574e-06	-3.634200e-09	-1.275184e+01	-2.470321e+02
2.630000e-06	-1.930239e-06	-6.149173e-09	-1.362474e+01	-4.066413e+02
2.640000e-06	-2.053155e-06	-8.600605e-09	-1.449235e+01	-5.614169e+02
2.650000e-06	-2.175279e-06	-1.085129e-08	-1.535437e+01	-7.055884e+02
2.660000e-06	-2.296626e-06	-1.280164e-08	-1.621091e+01	-8.346079e+02
2.670000e-06	-2.417129e-06	-1.443873e-08	-1.706149e+01	-9.456696e+02
2.680000e-06	-2.536787e-06	-1.579288e-08	-1.790610e+01	-1.037919e+03
2.690000e-06	-2.655507e-06	-1.690654e-08	-1.874410e+01	-1.112329e+03
2.700000e-06	-2.773083e-06	-1.782247e-08	-1.957401e+01	-1.171289e+03
2.710000e-06	-2.889488e-06	-1.858184e-08	-2.039567e+01	-1.218013e+03
2.720000e-06	-3.004625e-06	-1.921778e-08	-2.120837e+01	-1.255893e+03
2.730000e-06	-3.118472e-06	-1.975429e-08	-2.201197e+01	-1.287935e+03
2.740000e-06	-3.231060e-06	-2.021111e-08	-2.280668e+01	-1.316376e+03
2.750000e-06	-3.342322e-06	-2.060653e-08	-2.359203e+01	-1.342539e+03
2.760000e-06	-3.452350e-06	-2.095432e-08	-2.436867e+01	-1.366908e+03
2.770000e-06	-3.561237e-06	-2.126414e-08	-2.513726e+01	-1.389379e+03
2.780000e-06	-3.669016e-06	-2.154164e-08	-2.589802e+01	-1.409582e+03
2.790000e-06	-3.775651e-06	-2.179014e-08	-2.665072e+01	-1.427199e+03
2.800000e-06	-3.880998e-06	-2.201466e-08	-2.739432e+01	-1.442177e+03
2.810000e-06	-3.984944e-06	-2.222066e-08	-2.812803e+01	-1.454811e+03
2.820000e-06	-4.087402e-06	-2.241087e-08	-2.885124e+01	-1.465690e+03
2.830000e-06	-4.188303e-06	-2.258610e-08	-2.956345e+01	-1.475543e+03
2.840000e-06	-4.287684e-06	-2.274907e-08	-3.026494e+01	-1.485042e+03
2.850000e-06	-4.385664e-06	-2.290200e-08	-3.095654e+01	-1.494640e+03
2.860000e-06	-4.482175e-06	-2.304491e-08	-3.163777e+01	-1.504476e+03
2.870000e-06	-4.577095e-06	-2.317840e-08	-3.230777e+01	-1.514382e+03
2.880000e-06	-4.670319e-06	-2.330349e-08	-3.296580e+01	-1.523978e+03
2.890000e-06	-4.761876e-06	-2.341926e-08	-3.361206e+01	-1.532823e+03
2.900000e-06	-4.851779e-06	-2.352538e-08	-3.424664e+01	-1.540571e+03
2.910000e-06	-4.939874e-06	-2.362350e-08	-3.486847e+01	-1.547087e+03
2.920000e-06	-5.026058e-06	-2.371538e-08	-3.547681e+01	-1.552489e+03
2.930000e-06	-5.110344e-06	-2.380268e-08	-3.607175e+01	-1.557109e+03
2.940000e-06	-5.192869e-06	-2.388694e-08	-3.665425e+01	-1.561392e+03
