# Temperatura_=_59.01
# Concentracion g/m^3_=_41000.0
# C_Vs_to_Am_M_A/Vsm_=_65563218390.804596
# pendiente_HvsI_1/m_=_3716.3
# ordenada_HvsI_A/m_=_1297.0
# frecuencia_Hz_=_302009.5348985389

Tiempo_(s)	Campo_(V.s)	Magnetizacion_(V.s)	Campo_(kA/m)	Magnetizacion_(A/m)
0.000000e+00	-6.714363e-06	-2.559540e-08	-4.746657e+01	-1.676177e+03
1.000000e-08	-6.711151e-06	-2.558834e-08	-4.744387e+01	-1.676470e+03
2.000000e-08	-6.705709e-06	-2.557918e-08	-4.740540e+01	-1.676442e+03
3.000000e-08	-6.698223e-06	-2.557224e-08	-4.735247e+01	-1.675967e+03
4.000000e-08	-6.688518e-06	-2.556216e-08	-4.728387e+01	-1.675028e+03
5.000000e-08	-6.676313e-06	-2.554798e-08	-4.719758e+01	-1.673723e+03
6.000000e-08	-6.661587e-06	-2.553016e-08	-4.709348e+01	-1.672234e+03
7.000000e-08	-6.644493e-06	-2.551279e-08	-4.697263e+01	-1.670773e+03
8.000000e-08	-6.625226e-06	-2.554438e-08	-4.683643e+01	-1.669516e+03
9.000000e-08	-6.603621e-06	-2.558526e-08	-4.668370e+01	-1.668551e+03
1.000000e-07	-6.579339e-06	-2.552372e-08	-4.651204e+01	-1.667856e+03
1.100000e-07	-6.552381e-06	-2.545919e-08	-4.632146e+01	-1.667302e+03
1.200000e-07	-6.523160e-06	-2.543864e-08	-4.611489e+01	-1.666697e+03
1.300000e-07	-6.492083e-06	-2.534067e-08	-4.589519e+01	-1.665845e+03
1.400000e-07	-6.459196e-06	-2.527746e-08	-4.566270e+01	-1.664603e+03
1.500000e-07	-6.424318e-06	-2.542142e-08	-4.541613e+01	-1.662919e+03
1.600000e-07	-6.387336e-06	-2.534874e-08	-4.515469e+01	-1.660850e+03
1.700000e-07	-6.348372e-06	-2.527919e-08	-4.487924e+01	-1.658529e+03
1.800000e-07	-6.307124e-06	-2.536078e-08	-4.458764e+01	-1.656127e+03
1.900000e-07	-6.263365e-06	-2.521631e-08	-4.427828e+01	-1.653790e+03
2.000000e-07	-6.217397e-06	-2.518616e-08	-4.395332e+01	-1.651593e+03
2.100000e-07	-6.169039e-06	-2.517492e-08	-4.361146e+01	-1.649519e+03
2.200000e-07	-6.118060e-06	-2.509908e-08	-4.325106e+01	-1.647460e+03
2.300000e-07	-6.064604e-06	-2.508215e-08	-4.287316e+01	-1.645257e+03
2.400000e-07	-6.008804e-06	-2.502317e-08	-4.247869e+01	-1.642755e+03
2.500000e-07	-5.950754e-06	-2.499129e-08	-4.206831e+01	-1.639848e+03
2.600000e-07	-5.890477e-06	-2.495014e-08	-4.164218e+01	-1.636519e+03
2.700000e-07	-5.828039e-06	-2.489176e-08	-4.120079e+01	-1.632843e+03
2.800000e-07	-5.763502e-06	-2.485140e-08	-4.074455e+01	-1.628963e+03
2.900000e-07	-5.696700e-06	-2.479730e-08	-4.027230e+01	-1.625042e+03
3.000000e-07	-5.627654e-06	-2.475833e-08	-3.978418e+01	-1.621208e+03
3.100000e-07	-5.556563e-06	-2.466733e-08	-3.928162e+01	-1.617507e+03
3.200000e-07	-5.483495e-06	-2.460282e-08	-3.876506e+01	-1.613887e+03
3.300000e-07	-5.408232e-06	-2.454094e-08	-3.823300e+01	-1.610212e+03
3.400000e-07	-5.330646e-06	-2.446289e-08	-3.768451e+01	-1.606303e+03
3.500000e-07	-5.250891e-06	-2.441577e-08	-3.712070e+01	-1.601992e+03
3.600000e-07	-5.169200e-06	-2.433628e-08	-3.654319e+01	-1.597184e+03
3.700000e-07	-5.085780e-06	-2.426169e-08	-3.595345e+01	-1.591883e+03
3.800000e-07	-5.000734e-06	-2.417055e-08	-3.535223e+01	-1.586198e+03
3.900000e-07	-4.914099e-06	-2.407769e-08	-3.473977e+01	-1.580307e+03
4.000000e-07	-4.825783e-06	-2.398990e-08	-3.411543e+01	-1.574403e+03
4.100000e-07	-4.735718e-06	-2.391165e-08	-3.347872e+01	-1.568627e+03
4.200000e-07	-4.643970e-06	-2.383376e-08	-3.283012e+01	-1.563023e+03
4.300000e-07	-4.550657e-06	-2.373602e-08	-3.217046e+01	-1.557512e+03
4.400000e-07	-4.455749e-06	-2.364312e-08	-3.149951e+01	-1.551915e+03
4.500000e-07	-4.359174e-06	-2.354266e-08	-3.081678e+01	-1.546002e+03
4.600000e-07	-4.260987e-06	-2.343481e-08	-3.012266e+01	-1.539564e+03
4.700000e-07	-4.161236e-06	-2.332208e-08	-2.941748e+01	-1.532474e+03
4.800000e-07	-4.060072e-06	-2.321031e-08	-2.870231e+01	-1.524732e+03
4.900000e-07	-3.957551e-06	-2.309351e-08	-2.797754e+01	-1.516464e+03
5.000000e-07	-3.853526e-06	-2.296831e-08	-2.724215e+01	-1.507886e+03
5.100000e-07	-3.748074e-06	-2.284235e-08	-2.649667e+01	-1.499232e+03
5.200000e-07	-3.641239e-06	-2.271270e-08	-2.574140e+01	-1.490674e+03
5.300000e-07	-3.533016e-06	-2.257728e-08	-2.497634e+01	-1.482265e+03
5.400000e-07	-3.423541e-06	-2.243870e-08	-2.420241e+01	-1.473907e+03
5.500000e-07	-3.312875e-06	-2.229910e-08	-2.342007e+01	-1.465375e+03
5.600000e-07	-3.200909e-06	-2.215003e-08	-2.262853e+01	-1.456374e+03
5.700000e-07	-3.087621e-06	-2.198890e-08	-2.182765e+01	-1.446629e+03
5.800000e-07	-2.973032e-06	-2.181696e-08	-2.101758e+01	-1.435966e+03
5.900000e-07	-2.857140e-06	-2.164030e-08	-2.019829e+01	-1.424370e+03
6.000000e-07	-2.740098e-06	-2.146134e-08	-1.937088e+01	-1.411986e+03
6.100000e-07	-2.622095e-06	-2.128127e-08	-1.853666e+01	-1.399077e+03
6.200000e-07	-2.503183e-06	-2.109320e-08	-1.769602e+01	-1.385938e+03
6.300000e-07	-2.383216e-06	-2.089263e-08	-1.684793e+01	-1.372792e+03
6.400000e-07	-2.262319e-06	-2.068152e-08	-1.599326e+01	-1.359706e+03
6.500000e-07	-2.140735e-06	-2.046446e-08	-1.513373e+01	-1.346553e+03
6.600000e-07	-2.018457e-06	-2.024117e-08	-1.426930e+01	-1.333030e+03
6.700000e-07	-1.895366e-06	-2.000773e-08	-1.339912e+01	-1.318734e+03
6.800000e-07	-1.771483e-06	-1.976401e-08	-1.252334e+01	-1.303276e+03
6.900000e-07	-1.646927e-06	-1.950689e-08	-1.164280e+01	-1.286390e+03
7.000000e-07	-1.521818e-06	-1.923652e-08	-1.075836e+01	-1.268015e+03
7.100000e-07	-1.396352e-06	-1.895214e-08	-9.871383e+00	-1.248309e+03
7.200000e-07	-1.270593e-06	-1.865494e-08	-8.982343e+00	-1.227586e+03
7.300000e-07	-1.144474e-06	-1.834190e-08	-8.090755e+00	-1.206203e+03
7.400000e-07	-1.017931e-06	-1.801061e-08	-7.196170e+00	-1.184412e+03
7.500000e-07	-8.910063e-07	-1.766054e-08	-6.298888e+00	-1.162238e+03
7.600000e-07	-7.637611e-07	-1.729034e-08	-5.399339e+00	-1.139407e+03
7.700000e-07	-6.361992e-07	-1.689780e-08	-4.497552e+00	-1.115375e+03
7.800000e-07	-5.083518e-07	-1.648155e-08	-3.593746e+00	-1.089430e+03
7.900000e-07	-3.802875e-07	-1.603906e-08	-2.688408e+00	-1.060864e+03
8.000000e-07	-2.520634e-07	-1.556338e-08	-1.781939e+00	-1.029152e+03
8.100000e-07	-1.237805e-07	-1.504897e-08	-8.750551e-01	-9.940754e+02
8.200000e-07	4.586920e-09	-1.449296e-08	3.242681e-02	-9.557462e+02
8.300000e-07	1.330773e-07	-1.389208e-08	9.407779e-01	-9.145021e+02
8.400000e-07	2.615505e-07	-1.323967e-08	1.849008e+00	-8.706789e+02
8.500000e-07	3.898943e-07	-1.252746e-08	2.756322e+00	-8.243130e+02
8.600000e-07	5.181323e-07	-1.174186e-08	3.662889e+00	-7.748514e+02
8.700000e-07	6.462747e-07	-1.087025e-08	4.568780e+00	-7.209581e+02
8.800000e-07	7.741964e-07	-9.900088e-09	5.473111e+00	-6.604952e+02
8.900000e-07	9.018350e-07	-8.807587e-09	6.375440e+00	-5.907226e+02
9.000000e-07	1.029101e-06	-7.562391e-09	7.275136e+00	-5.087074e+02
9.100000e-07	1.155955e-06	-6.125212e-09	8.171918e+00	-4.118833e+02
9.200000e-07	1.282446e-06	-4.449837e-09	9.066135e+00	-2.986543e+02
9.300000e-07	1.408434e-06	-2.494451e-09	9.956795e+00	-1.689152e+02
9.400000e-07	1.533936e-06	-2.621171e-10	1.084402e+01	-2.436609e+01
9.500000e-07	1.659113e-06	2.142017e-09	1.172895e+01	1.314627e+02
9.600000e-07	1.783825e-06	4.595017e-09	1.261059e+01	2.935065e+02
9.700000e-07	1.907879e-06	7.052052e-09	1.348758e+01	4.557437e+02
9.800000e-07	2.031095e-06	9.468772e-09	1.435864e+01	6.119560e+02
9.900000e-07	2.153354e-06	1.170287e-08	1.522294e+01	7.565330e+02
1.000000e-06	2.274842e-06	1.362306e-08	1.608178e+01	8.851727e+02
1.010000e-06	2.395573e-06	1.521438e-08	1.693528e+01	9.953491e+02
1.020000e-06	2.515318e-06	1.651548e-08	1.778181e+01	1.086471e+03
1.030000e-06	2.634026e-06	1.757738e-08	1.862101e+01	1.159720e+03
1.040000e-06	2.751767e-06	1.845089e-08	1.945336e+01	1.217618e+03
1.050000e-06	2.868535e-06	1.917413e-08	2.027885e+01	1.263434e+03
1.060000e-06	2.984164e-06	1.977785e-08	2.109628e+01	1.300554e+03
1.070000e-06	3.098556e-06	2.028894e-08	2.190496e+01	1.331943e+03
1.080000e-06	3.211735e-06	2.072860e-08	2.270507e+01	1.359790e+03
1.090000e-06	3.323651e-06	2.111284e-08	2.349625e+01	1.385386e+03
1.100000e-06	3.434340e-06	2.145395e-08	2.427875e+01	1.409211e+03
1.110000e-06	3.543955e-06	2.175768e-08	2.505367e+01	1.431180e+03
1.120000e-06	3.652486e-06	2.202826e-08	2.582091e+01	1.450964e+03
1.130000e-06	3.759697e-06	2.227134e-08	2.657883e+01	1.468279e+03
1.140000e-06	3.865523e-06	2.249342e-08	2.732696e+01	1.483094e+03
1.150000e-06	3.969961e-06	2.270003e-08	2.806528e+01	1.495701e+03
1.160000e-06	4.072925e-06	2.289194e-08	2.879317e+01	1.506657e+03
1.170000e-06	4.174547e-06	2.306795e-08	2.951158e+01	1.516644e+03
1.180000e-06	4.274780e-06	2.323169e-08	3.022016e+01	1.526283e+03
1.190000e-06	4.373410e-06	2.338629e-08	3.091742e+01	1.535982e+03
1.200000e-06	4.470428e-06	2.353199e-08	3.160328e+01	1.545860e+03
1.210000e-06	4.565768e-06	2.366741e-08	3.227728e+01	1.555755e+03
1.220000e-06	4.659503e-06	2.379319e-08	3.293993e+01	1.565314e+03
1.230000e-06	4.751692e-06	2.390993e-08	3.359165e+01	1.574136e+03
1.240000e-06	4.842155e-06	2.401708e-08	3.423117e+01	1.581913e+03
1.250000e-06	4.930855e-06	2.411964e-08	3.485823e+01	1.588533e+03
1.260000e-06	5.017769e-06	2.421670e-08	3.547266e+01	1.594115e+03
1.270000e-06	5.102937e-06	2.430841e-08	3.607475e+01	1.598968e+03
1.280000e-06	5.186329e-06	2.439432e-08	3.666428e+01	1.603500e+03
1.290000e-06	5.267854e-06	2.447626e-08	3.724061e+01	1.608090e+03
1.300000e-06	5.347417e-06	2.455514e-08	3.780308e+01	1.612991e+03
1.310000e-06	5.424957e-06	2.463103e-08	3.835124e+01	1.618262e+03
1.320000e-06	5.500438e-06	2.470356e-08	3.888484e+01	1.623769e+03
1.330000e-06	5.573798e-06	2.477099e-08	3.940346e+01	1.629242e+03
1.340000e-06	5.645026e-06	2.483428e-08	3.990700e+01	1.634372e+03
1.350000e-06	5.714234e-06	2.489510e-08	4.039626e+01	1.638909e+03
1.360000e-06	5.781436e-06	2.495435e-08	4.087133e+01	1.642742e+03
1.370000e-06	5.846454e-06	2.501237e-08	4.133097e+01	1.645922e+03
1.380000e-06	5.909445e-06	2.506971e-08	4.177628e+01	1.648648e+03
1.390000e-06	5.970573e-06	2.512419e-08	4.220842e+01	1.651190e+03
1.400000e-06	6.029685e-06	2.517406e-08	4.262631e+01	1.653807e+03
1.410000e-06	6.086620e-06	2.521917e-08	4.302880e+01	1.656665e+03
1.420000e-06	6.141397e-06	2.526096e-08	4.341604e+01	1.659789e+03
1.430000e-06	6.193891e-06	2.530108e-08	4.378715e+01	1.663060e+03
1.440000e-06	6.243784e-06	2.533811e-08	4.413986e+01	1.666257e+03
1.450000e-06	6.291156e-06	2.537150e-08	4.447475e+01	1.669136e+03
1.460000e-06	6.336386e-06	2.540287e-08	4.479450e+01	1.671501e+03
1.470000e-06	6.379471e-06	2.543171e-08	4.509909e+01	1.673273e+03
1.480000e-06	6.420207e-06	2.545869e-08	4.538707e+01	1.674509e+03
1.490000e-06	6.458674e-06	2.548578e-08	4.565900e+01	1.675387e+03
1.500000e-06	6.495015e-06	2.551189e-08	4.591591e+01	1.676146e+03
1.510000e-06	6.529085e-06	2.553459e-08	4.615677e+01	1.677014e+03
1.520000e-06	6.560779e-06	2.555371e-08	4.638083e+01	1.678139e+03
1.530000e-06	6.590254e-06	2.557068e-08	4.658920e+01	1.679546e+03
1.540000e-06	6.617428e-06	2.558543e-08	4.678130e+01	1.681134e+03
1.550000e-06	6.642035e-06	2.559813e-08	4.695526e+01	1.682710e+03
1.560000e-06	6.664184e-06	2.561173e-08	4.711184e+01	1.684057e+03
1.570000e-06	6.684183e-06	2.562541e-08	4.725322e+01	1.684996e+03
1.580000e-06	6.701853e-06	2.563820e-08	4.737814e+01	1.685449e+03
1.590000e-06	6.716955e-06	2.564988e-08	4.748490e+01	1.685458e+03
1.600000e-06	6.729507e-06	2.565836e-08	4.757363e+01	1.685172e+03
1.610000e-06	6.739407e-06	2.566348e-08	4.764362e+01	1.684799e+03
1.620000e-06	6.746731e-06	2.566619e-08	4.769540e+01	1.684537e+03
1.630000e-06	6.751760e-06	2.566896e-08	4.773095e+01	1.684516e+03
1.640000e-06	6.754408e-06	2.567150e-08	4.774967e+01	1.684756e+03
1.650000e-06	6.754561e-06	2.567303e-08	4.775075e+01	1.685161e+03
1.660000e-06	6.752475e-06	2.566552e-08	4.773600e+01	1.685551e+03
1.670000e-06	6.748327e-06	2.565941e-08	4.770668e+01	1.685718e+03
1.680000e-06	6.741879e-06	2.565404e-08	4.766110e+01	1.685494e+03
1.690000e-06	6.733134e-06	2.564678e-08	4.759927e+01	1.684801e+03
1.700000e-06	6.722243e-06	2.564049e-08	4.752228e+01	1.683676e+03
1.710000e-06	6.709015e-06	2.563647e-08	4.742877e+01	1.682263e+03
1.720000e-06	6.693480e-06	2.563647e-08	4.731894e+01	1.680763e+03
1.730000e-06	6.675934e-06	2.556457e-08	4.719490e+01	1.679382e+03
1.740000e-06	6.656147e-06	2.548066e-08	4.705502e+01	1.678258e+03
1.750000e-06	6.633254e-06	2.551366e-08	4.689318e+01	1.677431e+03
1.760000e-06	6.607202e-06	2.552550e-08	4.670901e+01	1.676825e+03
1.770000e-06	6.578761e-06	2.551921e-08	4.650795e+01	1.676275e+03
1.780000e-06	6.548268e-06	2.562625e-08	4.629238e+01	1.675580e+03
1.790000e-06	6.516216e-06	2.553880e-08	4.606580e+01	1.674562e+03
1.800000e-06	6.482665e-06	2.542181e-08	4.582861e+01	1.673117e+03
1.810000e-06	6.446739e-06	2.549308e-08	4.557463e+01	1.671244e+03
1.820000e-06	6.408395e-06	2.538972e-08	4.530356e+01	1.669040e+03
1.830000e-06	6.367950e-06	2.544443e-08	4.501764e+01	1.666663e+03
1.840000e-06	6.325347e-06	2.547467e-08	4.471646e+01	1.664278e+03
1.850000e-06	6.280649e-06	2.530609e-08	4.440048e+01	1.662005e+03
1.860000e-06	6.233583e-06	2.537154e-08	4.406775e+01	1.659876e+03
1.870000e-06	6.184137e-06	2.528136e-08	4.371819e+01	1.657828e+03
1.880000e-06	6.132413e-06	2.522224e-08	4.335253e+01	1.655726e+03
1.890000e-06	6.078024e-06	2.522494e-08	4.296803e+01	1.653404e+03
1.900000e-06	6.021227e-06	2.510813e-08	4.256652e+01	1.650724e+03
1.910000e-06	5.962238e-06	2.517668e-08	4.214949e+01	1.647620e+03
1.920000e-06	5.901014e-06	2.510033e-08	4.171668e+01	1.644117e+03
1.930000e-06	5.837666e-06	2.501968e-08	4.126884e+01	1.640329e+03
1.940000e-06	5.772143e-06	2.497716e-08	4.080564e+01	1.636413e+03
1.950000e-06	5.704546e-06	2.489020e-08	4.032777e+01	1.632523e+03
1.960000e-06	5.634670e-06	2.489723e-08	3.983379e+01	1.628753e+03
1.970000e-06	5.562546e-06	2.477901e-08	3.932391e+01	1.625104e+03
1.980000e-06	5.488435e-06	2.475150e-08	3.879999e+01	1.621482e+03
1.990000e-06	5.412235e-06	2.469406e-08	3.826130e+01	1.617724e+03
2.000000e-06	5.333875e-06	2.459357e-08	3.770734e+01	1.613648e+03
2.010000e-06	5.253477e-06	2.454028e-08	3.713897e+01	1.609115e+03
2.020000e-06	5.171301e-06	2.444141e-08	3.655804e+01	1.604073e+03
2.030000e-06	5.087344e-06	2.441350e-08	3.596451e+01	1.598577e+03
2.040000e-06	5.001557e-06	2.432547e-08	3.535805e+01	1.592774e+03
2.050000e-06	4.913909e-06	2.424670e-08	3.473843e+01	1.586857e+03
2.060000e-06	4.824512e-06	2.415826e-08	3.410645e+01	1.581003e+03
2.070000e-06	4.733625e-06	2.406755e-08	3.346393e+01	1.575311e+03
2.080000e-06	4.641115e-06	2.398198e-08	3.280994e+01	1.569769e+03
2.090000e-06	4.546897e-06	2.386966e-08	3.214387e+01	1.564247e+03
2.100000e-06	4.451033e-06	2.378617e-08	3.146617e+01	1.558535e+03
2.110000e-06	4.353686e-06	2.368691e-08	3.077799e+01	1.552403e+03
2.120000e-06	4.254939e-06	2.359363e-08	3.007990e+01	1.545673e+03
2.130000e-06	4.154653e-06	2.347620e-08	2.937094e+01	1.538274e+03
2.140000e-06	4.052792e-06	2.336210e-08	2.865085e+01	1.530268e+03
2.150000e-06	3.949317e-06	2.324581e-08	2.791934e+01	1.521829e+03
2.160000e-06	3.844372e-06	2.313042e-08	2.717744e+01	1.513191e+03
2.170000e-06	3.738192e-06	2.301256e-08	2.642680e+01	1.504568e+03
2.180000e-06	3.630796e-06	2.288065e-08	2.566758e+01	1.496084e+03
2.190000e-06	3.522126e-06	2.274642e-08	2.489935e+01	1.487722e+03
2.200000e-06	3.412164e-06	2.260329e-08	2.412198e+01	1.479320e+03
2.210000e-06	3.300827e-06	2.246310e-08	2.333489e+01	1.470610e+03
2.220000e-06	3.188198e-06	2.231622e-08	2.253867e+01	1.461296e+03
2.230000e-06	3.074348e-06	2.216791e-08	2.173382e+01	1.451140e+03
2.240000e-06	2.959241e-06	2.200487e-08	2.092008e+01	1.440038e+03
2.250000e-06	2.842926e-06	2.183292e-08	2.009780e+01	1.428051e+03
2.260000e-06	2.725468e-06	2.165178e-08	1.926745e+01	1.415389e+03
2.270000e-06	2.606894e-06	2.147109e-08	1.842920e+01	1.402341e+03
2.280000e-06	2.487156e-06	2.128547e-08	1.758272e+01	1.389181e+03
2.290000e-06	2.366437e-06	2.108858e-08	1.672931e+01	1.376068e+03
2.300000e-06	2.245031e-06	2.088200e-08	1.587104e+01	1.362981e+03
2.310000e-06	2.123023e-06	2.066384e-08	1.500852e+01	1.349705e+03
2.320000e-06	2.000365e-06	2.043697e-08	1.414140e+01	1.335878e+03
2.330000e-06	1.876957e-06	2.019706e-08	1.326898e+01	1.321087e+03
2.340000e-06	1.752778e-06	1.994893e-08	1.239110e+01	1.304990e+03
2.350000e-06	1.627963e-06	1.969032e-08	1.150873e+01	1.287410e+03
2.360000e-06	1.502648e-06	1.942016e-08	1.062283e+01	1.268388e+03
2.370000e-06	1.376970e-06	1.913383e-08	9.734362e+00	1.248167e+03
2.380000e-06	1.250922e-06	1.883158e-08	8.843276e+00	1.227098e+03
2.390000e-06	1.124447e-06	1.851313e-08	7.949177e+00	1.205508e+03
2.400000e-06	9.975053e-07	1.817370e-08	7.051772e+00	1.183556e+03
2.410000e-06	8.701260e-07	1.781590e-08	6.151276e+00	1.161132e+03
2.420000e-06	7.424053e-07	1.743940e-08	5.248366e+00	1.137827e+03
2.430000e-06	6.144106e-07	1.703953e-08	4.343519e+00	1.113001e+03
2.440000e-06	4.861630e-07	1.661141e-08	3.436885e+00	1.085922e+03
2.450000e-06	3.576824e-07	1.615327e-08	2.528603e+00	1.055947e+03
2.460000e-06	2.290590e-07	1.566181e-08	1.619311e+00	1.022681e+03
2.470000e-06	1.003368e-07	1.513046e-08	7.093220e-01	9.860652e+02
2.480000e-06	-2.843143e-08	1.455701e-08	-2.009934e-01	9.463367e+02
2.490000e-06	-1.571599e-07	1.393453e-08	-1.111028e+00	9.038666e+02
2.500000e-06	-2.858561e-07	1.325676e-08	-2.020833e+00	8.588904e+02
2.510000e-06	-4.145264e-07	1.251693e-08	-2.930456e+00	8.112031e+02
2.520000e-06	-5.430887e-07	1.170324e-08	-3.839316e+00	7.599030e+02
2.530000e-06	-6.714923e-07	1.080142e-08	-4.747054e+00	7.032715e+02
2.540000e-06	-7.996530e-07	9.789348e-09	-5.653074e+00	6.388527e+02
2.550000e-06	-9.274080e-07	8.642800e-09	-6.556226e+00	5.637550e+02
2.560000e-06	-1.054695e-06	7.329683e-09	-7.456067e+00	4.751406e+02
2.570000e-06	-1.181479e-06	5.807539e-09	-8.352355e+00	3.708206e+02
2.580000e-06	-1.307730e-06	4.031177e-09	-9.244877e+00	2.498363e+02
2.590000e-06	-1.433557e-06	1.964964e-09	-1.013440e+01	1.128978e+02
2.600000e-06	-1.559044e-06	-3.661733e-10	-1.102152e+01	-3.742859e+01
2.610000e-06	-1.684049e-06	-2.846537e-09	-1.190523e+01	-1.968447e+02
2.620000e-06	-1.808333e-06	-5.364320e-09	-1.278384e+01	-3.597557e+02
2.630000e-06	-1.931805e-06	-7.873954e-09	-1.365672e+01	-5.199480e+02
2.640000e-06	-2.054424e-06	-1.028115e-08	-1.452356e+01	-6.713883e+02
2.650000e-06	-2.176239e-06	-1.242957e-08	-1.538472e+01	-8.089983e+02
2.660000e-06	-2.297400e-06	-1.424082e-08	-1.624126e+01	-9.292600e+02
2.670000e-06	-2.417785e-06	-1.573227e-08	-1.709231e+01	-1.030546e+03
2.680000e-06	-2.537209e-06	-1.695160e-08	-1.793656e+01	-1.113126e+03
2.690000e-06	-2.655627e-06	-1.794864e-08	-1.877371e+01	-1.178872e+03
2.700000e-06	-2.773024e-06	-1.876757e-08	-1.960364e+01	-1.230731e+03
2.710000e-06	-2.889236e-06	-1.944883e-08	-2.042519e+01	-1.272101e+03
2.720000e-06	-3.004127e-06	-2.002225e-08	-2.123740e+01	-1.306230e+03
2.730000e-06	-3.117736e-06	-2.050837e-08	-2.204055e+01	-1.335754e+03
2.740000e-06	-3.230090e-06	-2.092555e-08	-2.283483e+01	-1.362447e+03
2.750000e-06	-3.341236e-06	-2.128943e-08	-2.362056e+01	-1.387200e+03
2.760000e-06	-3.451123e-06	-2.161159e-08	-2.439740e+01	-1.410194e+03
2.770000e-06	-3.559818e-06	-2.190046e-08	-2.516581e+01	-1.431190e+03
2.780000e-06	-3.667381e-06	-2.216068e-08	-2.592621e+01	-1.449849e+03
2.790000e-06	-3.773788e-06	-2.239673e-08	-2.667845e+01	-1.465985e+03
2.800000e-06	-3.878965e-06	-2.261395e-08	-2.742199e+01	-1.479717e+03
2.810000e-06	-3.982644e-06	-2.281310e-08	-2.815494e+01	-1.491475e+03
2.820000e-06	-4.084794e-06	-2.299492e-08	-2.887708e+01	-1.501894e+03
2.830000e-06	-4.185502e-06	-2.316274e-08	-2.958903e+01	-1.511649e+03
2.840000e-06	-4.284745e-06	-2.332006e-08	-3.029062e+01	-1.521279e+03
2.850000e-06	-4.382562e-06	-2.346870e-08	-3.098212e+01	-1.531063e+03
2.860000e-06	-4.478870e-06	-2.360848e-08	-3.166296e+01	-1.540981e+03
2.870000e-06	-4.573478e-06	-2.374037e-08	-3.233179e+01	-1.550768e+03
2.880000e-06	-4.666447e-06	-2.386343e-08	-3.298902e+01	-1.560030e+03
2.890000e-06	-4.757783e-06	-2.397617e-08	-3.363471e+01	-1.568392e+03
2.900000e-06	-4.847430e-06	-2.407989e-08	-3.426846e+01	-1.575630e+03
2.910000e-06	-4.935363e-06	-2.417686e-08	-3.489010e+01	-1.581737e+03
2.920000e-06	-5.021443e-06	-2.426832e-08	-3.549863e+01	-1.586932e+03
2.930000e-06	-5.105617e-06	-2.435486e-08	-3.609369e+01	-1.591581e+03
2.940000e-06	-5.187962e-06	-2.443857e-08	-3.667582e+01	-1.596096e+03
