# Temperatura_=_85.96
# Concentracion g/m^3_=_41000.0
# C_Vs_to_Am_M_A/Vsm_=_65563218390.804596
# pendiente_HvsI_1/m_=_3716.3
# ordenada_HvsI_A/m_=_1297.0
# frecuencia_Hz_=_302011.7506960639

Tiempo_(s)	Campo_(V.s)	Magnetizacion_(V.s)	Campo_(kA/m)	Magnetizacion_(A/m)
0.000000e+00	-6.671040e-06	-2.388988e-08	-4.746391e+01	-1.566398e+03
1.000000e-08	-6.667845e-06	-2.388638e-08	-4.744117e+01	-1.566590e+03
2.000000e-08	-6.662493e-06	-2.387720e-08	-4.740309e+01	-1.566261e+03
3.000000e-08	-6.655110e-06	-2.386853e-08	-4.735056e+01	-1.565365e+03
4.000000e-08	-6.645478e-06	-2.385656e-08	-4.728203e+01	-1.563994e+03
5.000000e-08	-6.633445e-06	-2.384063e-08	-4.719642e+01	-1.562349e+03
6.000000e-08	-6.618991e-06	-2.382355e-08	-4.709358e+01	-1.560681e+03
7.000000e-08	-6.602148e-06	-2.380237e-08	-4.697374e+01	-1.559210e+03
8.000000e-08	-6.583133e-06	-2.382102e-08	-4.683845e+01	-1.558064e+03
9.000000e-08	-6.561779e-06	-2.387427e-08	-4.668652e+01	-1.557242e+03
1.000000e-07	-6.537759e-06	-2.382082e-08	-4.651562e+01	-1.556616e+03
1.100000e-07	-6.511064e-06	-2.374349e-08	-4.632569e+01	-1.555980e+03
1.200000e-07	-6.482056e-06	-2.371529e-08	-4.611929e+01	-1.555110e+03
1.300000e-07	-6.451207e-06	-2.361894e-08	-4.589981e+01	-1.553837e+03
1.400000e-07	-6.418684e-06	-2.353875e-08	-4.566841e+01	-1.552095e+03
1.500000e-07	-6.384140e-06	-2.369235e-08	-4.542263e+01	-1.549938e+03
1.600000e-07	-6.347442e-06	-2.364274e-08	-4.516153e+01	-1.547515e+03
1.700000e-07	-6.308856e-06	-2.354090e-08	-4.488699e+01	-1.545015e+03
1.800000e-07	-6.268039e-06	-2.364144e-08	-4.459659e+01	-1.542604e+03
1.900000e-07	-6.224720e-06	-2.347679e-08	-4.428837e+01	-1.540363e+03
2.000000e-07	-6.179179e-06	-2.341772e-08	-4.396435e+01	-1.538265e+03
2.100000e-07	-6.131341e-06	-2.343755e-08	-4.362399e+01	-1.536179e+03
2.200000e-07	-6.080848e-06	-2.334202e-08	-4.326473e+01	-1.533910e+03
2.300000e-07	-6.027734e-06	-2.334183e-08	-4.288684e+01	-1.531270e+03
2.400000e-07	-5.972317e-06	-2.330090e-08	-4.249255e+01	-1.528136e+03
2.500000e-07	-5.914637e-06	-2.323382e-08	-4.208215e+01	-1.524494e+03
2.600000e-07	-5.854692e-06	-2.318767e-08	-4.165565e+01	-1.520448e+03
2.700000e-07	-5.792649e-06	-2.312053e-08	-4.121422e+01	-1.516187e+03
2.800000e-07	-5.728589e-06	-2.307053e-08	-4.075844e+01	-1.511926e+03
2.900000e-07	-5.662342e-06	-2.301932e-08	-4.028710e+01	-1.507838e+03
3.000000e-07	-5.593864e-06	-2.298856e-08	-3.979989e+01	-1.503993e+03
3.100000e-07	-5.523349e-06	-2.288773e-08	-3.929818e+01	-1.500331e+03
3.200000e-07	-5.450883e-06	-2.280299e-08	-3.878259e+01	-1.496681e+03
3.300000e-07	-5.376263e-06	-2.274918e-08	-3.825167e+01	-1.492806e+03
3.400000e-07	-5.299399e-06	-2.265863e-08	-3.770479e+01	-1.488484e+03
3.500000e-07	-5.220415e-06	-2.260960e-08	-3.714282e+01	-1.483572e+03
3.600000e-07	-5.139336e-06	-2.253478e-08	-3.656596e+01	-1.478060e+03
3.700000e-07	-5.056440e-06	-2.244731e-08	-3.597615e+01	-1.472075e+03
3.800000e-07	-4.971964e-06	-2.235305e-08	-3.537511e+01	-1.465844e+03
3.900000e-07	-4.885884e-06	-2.225758e-08	-3.476267e+01	-1.459625e+03
4.000000e-07	-4.798223e-06	-2.217004e-08	-3.413896e+01	-1.453622e+03
4.100000e-07	-4.708850e-06	-2.208668e-08	-3.350308e+01	-1.447921e+03
4.200000e-07	-4.617719e-06	-2.200646e-08	-3.285469e+01	-1.442453e+03
4.300000e-07	-4.525007e-06	-2.190689e-08	-3.219505e+01	-1.437009e+03
4.400000e-07	-4.430720e-06	-2.180898e-08	-3.152421e+01	-1.431304e+03
4.500000e-07	-4.334898e-06	-2.170619e-08	-3.084244e+01	-1.425060e+03
4.600000e-07	-4.237414e-06	-2.159172e-08	-3.014885e+01	-1.418090e+03
4.700000e-07	-4.138307e-06	-2.147789e-08	-2.944372e+01	-1.410365e+03
4.800000e-07	-4.037776e-06	-2.136317e-08	-2.872844e+01	-1.402020e+03
4.900000e-07	-3.935826e-06	-2.124484e-08	-2.800308e+01	-1.393318e+03
5.000000e-07	-3.832555e-06	-2.111759e-08	-2.726831e+01	-1.384568e+03
5.100000e-07	-3.727931e-06	-2.098805e-08	-2.652392e+01	-1.376022e+03
5.200000e-07	-3.621775e-06	-2.085775e-08	-2.576863e+01	-1.367795e+03
5.300000e-07	-3.514221e-06	-2.072381e-08	-2.500340e+01	-1.359814e+03
5.400000e-07	-3.405501e-06	-2.058824e-08	-2.422986e+01	-1.351835e+03
5.500000e-07	-3.295610e-06	-2.044976e-08	-2.344799e+01	-1.343508e+03
5.600000e-07	-3.184538e-06	-2.030303e-08	-2.265773e+01	-1.334480e+03
5.700000e-07	-3.072314e-06	-2.014213e-08	-2.185926e+01	-1.324501e+03
5.800000e-07	-2.958781e-06	-1.997186e-08	-2.105148e+01	-1.313509e+03
5.900000e-07	-2.843798e-06	-1.979977e-08	-2.023339e+01	-1.301645e+03
6.000000e-07	-2.727494e-06	-1.962651e-08	-1.940590e+01	-1.289216e+03
6.100000e-07	-2.610138e-06	-1.945171e-08	-1.857092e+01	-1.276595e+03
6.200000e-07	-2.491906e-06	-1.927058e-08	-1.772971e+01	-1.264099e+03
6.300000e-07	-2.372843e-06	-1.907892e-08	-1.688258e+01	-1.251875e+03
6.400000e-07	-2.253032e-06	-1.887620e-08	-1.603014e+01	-1.239838e+03
6.500000e-07	-2.132463e-06	-1.866758e-08	-1.517230e+01	-1.227674e+03
6.600000e-07	-2.011028e-06	-1.845296e-08	-1.430830e+01	-1.214924e+03
6.700000e-07	-1.888689e-06	-1.823028e-08	-1.343787e+01	-1.201110e+03
6.800000e-07	-1.765552e-06	-1.799702e-08	-1.256176e+01	-1.185880e+03
6.900000e-07	-1.641802e-06	-1.775055e-08	-1.168129e+01	-1.169115e+03
7.000000e-07	-1.517562e-06	-1.749291e-08	-1.079733e+01	-1.150965e+03
7.100000e-07	-1.392872e-06	-1.722285e-08	-9.910169e+00	-1.131805e+03
7.200000e-07	-1.267784e-06	-1.694199e-08	-9.020178e+00	-1.112099e+03
7.300000e-07	-1.142328e-06	-1.664846e-08	-8.127568e+00	-1.092232e+03
7.400000e-07	-1.016457e-06	-1.633702e-08	-7.232006e+00	-1.072349e+03
7.500000e-07	-8.902134e-07	-1.600532e-08	-6.333795e+00	-1.052246e+03
7.600000e-07	-7.636817e-07	-1.565332e-08	-5.433533e+00	-1.031377e+03
7.700000e-07	-6.369142e-07	-1.527699e-08	-4.531592e+00	-1.008952e+03
7.800000e-07	-5.099421e-07	-1.487748e-08	-3.628196e+00	-9.841364e+02
7.900000e-07	-3.828311e-07	-1.445669e-08	-2.723812e+00	-9.562634e+02
8.000000e-07	-2.556010e-07	-1.400696e-08	-1.818580e+00	-9.250141e+02
8.100000e-07	-1.282774e-07	-1.351892e-08	-9.126830e-01	-8.904858e+02
8.200000e-07	-9.326674e-10	-1.298819e-08	-6.635852e-03	-8.531118e+02
8.300000e-07	1.264701e-07	-1.240999e-08	8.998246e-01	-8.134332e+02
8.400000e-07	2.539030e-07	-1.177447e-08	1.806499e+00	-7.717660e+02
8.500000e-07	3.812638e-07	-1.107482e-08	2.712661e+00	-7.278514e+02
8.600000e-07	5.085760e-07	-1.029993e-08	3.618477e+00	-6.805884e+02
8.700000e-07	6.358085e-07	-9.433422e-09	4.523726e+00	-6.279472e+02
8.800000e-07	7.628303e-07	-8.456876e-09	5.427475e+00	-5.671226e+02
8.900000e-07	8.895933e-07	-7.342918e-09	6.329384e+00	-4.949336e+02
9.000000e-07	1.016023e-06	-6.055614e-09	7.228922e+00	-4.084138e+02
9.100000e-07	1.142080e-06	-4.552338e-09	8.125806e+00	-3.054810e+02
9.200000e-07	1.267798e-06	-2.790463e-09	9.020280e+00	-1.855456e+02
9.300000e-07	1.393107e-06	-7.465715e-10	9.911845e+00	-4.991559e+01
9.400000e-07	1.517988e-06	1.543340e-09	1.080036e+01	9.810803e+01
9.500000e-07	1.642415e-06	3.965604e-09	1.168565e+01	2.534905e+02
9.600000e-07	1.766324e-06	6.409196e-09	1.256725e+01	4.100480e+02
9.700000e-07	1.889683e-06	8.772440e-09	1.344494e+01	5.612566e+02
9.800000e-07	2.012301e-06	1.091179e-08	1.431736e+01	7.011347e+02
9.900000e-07	2.133899e-06	1.273094e-08	1.518252e+01	8.250317e+02
1.000000e-06	2.254430e-06	1.422395e-08	1.604008e+01	9.301742e+02
1.010000e-06	2.374137e-06	1.543007e-08	1.689179e+01	1.015875e+03
1.020000e-06	2.493104e-06	1.640246e-08	1.773823e+01	1.083385e+03
1.030000e-06	2.611214e-06	1.719133e-08	1.857857e+01	1.135430e+03
1.040000e-06	2.728401e-06	1.783831e-08	1.941235e+01	1.175565e+03
1.050000e-06	2.844568e-06	1.837509e-08	2.023887e+01	1.207466e+03
1.060000e-06	2.959499e-06	1.882628e-08	2.105660e+01	1.234331e+03
1.070000e-06	3.073025e-06	1.921486e-08	2.186432e+01	1.258470e+03
1.080000e-06	3.185316e-06	1.955661e-08	2.266326e+01	1.281167e+03
1.090000e-06	3.296586e-06	1.986038e-08	2.345494e+01	1.302782e+03
1.100000e-06	3.406738e-06	2.012929e-08	2.423866e+01	1.323037e+03
1.110000e-06	3.515745e-06	2.036798e-08	2.501423e+01	1.341385e+03
1.120000e-06	3.623699e-06	2.058546e-08	2.578232e+01	1.357364e+03
1.130000e-06	3.730479e-06	2.078686e-08	2.654206e+01	1.370830e+03
1.140000e-06	3.835726e-06	2.097422e-08	2.729088e+01	1.382050e+03
1.150000e-06	3.939487e-06	2.115002e-08	2.802913e+01	1.391631e+03
1.160000e-06	4.041929e-06	2.131654e-08	2.875799e+01	1.400351e+03
1.170000e-06	4.143004e-06	2.147144e-08	2.947714e+01	1.408934e+03
1.180000e-06	4.242761e-06	2.161603e-08	3.018690e+01	1.417863e+03
1.190000e-06	4.340880e-06	2.175253e-08	3.088500e+01	1.427277e+03
1.200000e-06	4.437178e-06	2.188137e-08	3.157015e+01	1.436973e+03
1.210000e-06	4.531898e-06	2.200017e-08	3.224409e+01	1.446514e+03
1.220000e-06	4.625109e-06	2.211135e-08	3.290727e+01	1.455390e+03
1.230000e-06	4.716828e-06	2.221662e-08	3.355985e+01	1.463198e+03
1.240000e-06	4.806846e-06	2.231671e-08	3.420032e+01	1.469763e+03
1.250000e-06	4.894970e-06	2.241304e-08	3.482731e+01	1.475192e+03
1.260000e-06	4.981329e-06	2.250508e-08	3.544174e+01	1.479832e+03
1.270000e-06	5.065996e-06	2.259422e-08	3.604414e+01	1.484156e+03
1.280000e-06	5.148906e-06	2.267822e-08	3.663404e+01	1.488623e+03
1.290000e-06	5.229894e-06	2.275915e-08	3.721026e+01	1.493541e+03
1.300000e-06	5.308950e-06	2.283693e-08	3.777275e+01	1.498991e+03
1.310000e-06	5.386144e-06	2.291052e-08	3.832197e+01	1.504818e+03
1.320000e-06	5.461343e-06	2.298079e-08	3.885701e+01	1.510699e+03
1.330000e-06	5.534343e-06	2.304674e-08	3.937640e+01	1.516249e+03
1.340000e-06	5.605239e-06	2.311100e-08	3.988082e+01	1.521150e+03
1.350000e-06	5.674216e-06	2.317389e-08	4.037158e+01	1.525246e+03
1.360000e-06	5.741225e-06	2.323430e-08	4.084835e+01	1.528584e+03
1.370000e-06	5.806105e-06	2.329337e-08	4.130996e+01	1.531392e+03
1.380000e-06	5.868893e-06	2.335036e-08	4.175669e+01	1.533998e+03
1.390000e-06	5.929743e-06	2.340469e-08	4.218963e+01	1.536727e+03
1.400000e-06	5.988561e-06	2.345695e-08	4.260812e+01	1.539798e+03
1.410000e-06	6.045205e-06	2.350503e-08	4.301114e+01	1.543259e+03
1.420000e-06	6.099707e-06	2.354797e-08	4.339891e+01	1.546979e+03
1.430000e-06	6.151866e-06	2.358679e-08	4.377002e+01	1.550697e+03
1.440000e-06	6.201393e-06	2.362432e-08	4.412240e+01	1.554105e+03
1.450000e-06	6.248523e-06	2.366185e-08	4.445773e+01	1.556947e+03
1.460000e-06	6.293569e-06	2.369779e-08	4.477823e+01	1.559102e+03
1.470000e-06	6.336461e-06	2.373141e-08	4.508340e+01	1.560613e+03
1.480000e-06	6.377023e-06	2.376210e-08	4.537200e+01	1.561676e+03
1.490000e-06	6.415350e-06	2.379123e-08	4.564469e+01	1.562573e+03
1.500000e-06	6.451620e-06	2.381819e-08	4.590275e+01	1.563585e+03
1.510000e-06	6.485639e-06	2.384147e-08	4.614479e+01	1.564903e+03
1.520000e-06	6.517226e-06	2.386186e-08	4.636953e+01	1.566575e+03
1.530000e-06	6.546526e-06	2.388024e-08	4.657799e+01	1.568494e+03
1.540000e-06	6.573652e-06	2.389615e-08	4.677100e+01	1.570437e+03
1.550000e-06	6.598370e-06	2.391027e-08	4.694686e+01	1.572136e+03
1.560000e-06	6.620591e-06	2.392428e-08	4.710496e+01	1.573365e+03
1.570000e-06	6.640583e-06	2.393756e-08	4.724720e+01	1.574011e+03
1.580000e-06	6.658205e-06	2.395010e-08	4.737258e+01	1.574111e+03
1.590000e-06	6.673331e-06	2.396158e-08	4.748021e+01	1.573832e+03
1.600000e-06	6.685999e-06	2.397112e-08	4.757033e+01	1.573423e+03
1.610000e-06	6.695931e-06	2.397723e-08	4.764100e+01	1.573137e+03
1.620000e-06	6.703238e-06	2.397991e-08	4.769299e+01	1.573147e+03
1.630000e-06	6.708311e-06	2.398233e-08	4.772908e+01	1.573498e+03
1.640000e-06	6.711067e-06	2.398430e-08	4.774869e+01	1.574092e+03
1.650000e-06	6.711356e-06	2.398556e-08	4.775075e+01	1.574720e+03
1.660000e-06	6.709380e-06	2.397702e-08	4.773669e+01	1.575128e+03
1.670000e-06	6.705354e-06	2.396901e-08	4.770804e+01	1.575095e+03
1.680000e-06	6.698998e-06	2.396392e-08	4.766282e+01	1.574502e+03
1.690000e-06	6.690339e-06	2.395719e-08	4.760121e+01	1.573369e+03
1.700000e-06	6.679646e-06	2.394964e-08	4.752513e+01	1.571843e+03
1.710000e-06	6.666722e-06	2.394288e-08	4.743318e+01	1.570159e+03
1.720000e-06	6.651447e-06	2.394269e-08	4.732450e+01	1.568562e+03
1.730000e-06	6.634072e-06	2.388051e-08	4.720088e+01	1.567236e+03
1.740000e-06	6.614538e-06	2.376923e-08	4.706190e+01	1.566251e+03
1.750000e-06	6.591957e-06	2.378818e-08	4.690124e+01	1.565545e+03
1.760000e-06	6.566178e-06	2.381436e-08	4.671782e+01	1.564945e+03
1.770000e-06	6.538013e-06	2.380380e-08	4.651742e+01	1.564229e+03
1.780000e-06	6.507778e-06	2.391287e-08	4.630231e+01	1.563189e+03
1.790000e-06	6.475972e-06	2.383026e-08	4.607601e+01	1.561702e+03
1.800000e-06	6.442700e-06	2.366176e-08	4.583928e+01	1.559757e+03
1.810000e-06	6.407194e-06	2.376275e-08	4.558666e+01	1.557456e+03
1.820000e-06	6.369299e-06	2.368677e-08	4.531704e+01	1.554976e+03
1.830000e-06	6.329212e-06	2.370669e-08	4.503182e+01	1.552503e+03
1.840000e-06	6.286881e-06	2.378925e-08	4.473065e+01	1.550170e+03
1.850000e-06	6.242555e-06	2.358178e-08	4.441527e+01	1.548008e+03
1.860000e-06	6.196009e-06	2.362824e-08	4.408409e+01	1.545939e+03
1.870000e-06	6.147039e-06	2.356179e-08	4.373568e+01	1.543796e+03
1.880000e-06	6.095835e-06	2.343992e-08	4.337137e+01	1.541378e+03
1.890000e-06	6.041921e-06	2.347575e-08	4.298777e+01	1.538521e+03
1.900000e-06	5.985565e-06	2.335030e-08	4.258681e+01	1.535148e+03
1.910000e-06	5.927117e-06	2.339460e-08	4.217095e+01	1.531301e+03
1.920000e-06	5.866472e-06	2.335208e-08	4.173946e+01	1.527131e+03
1.930000e-06	5.803629e-06	2.322687e-08	4.129234e+01	1.522847e+03
1.940000e-06	5.738533e-06	2.319048e-08	4.082919e+01	1.518653e+03
1.950000e-06	5.671386e-06	2.307936e-08	4.035145e+01	1.514679e+03
1.960000e-06	5.602041e-06	2.309537e-08	3.985806e+01	1.510936e+03
1.970000e-06	5.530423e-06	2.298433e-08	3.934850e+01	1.507309e+03
1.980000e-06	5.456811e-06	2.292646e-08	3.882477e+01	1.503587e+03
1.990000e-06	5.381223e-06	2.289307e-08	3.828696e+01	1.499531e+03
2.000000e-06	5.303520e-06	2.276157e-08	3.773411e+01	1.494948e+03
2.010000e-06	5.223672e-06	2.271530e-08	3.716600e+01	1.489753e+03
2.020000e-06	5.141958e-06	2.261163e-08	3.658461e+01	1.484000e+03
2.030000e-06	5.058590e-06	2.257292e-08	3.599146e+01	1.477872e+03
2.040000e-06	4.973464e-06	2.248943e-08	3.538579e+01	1.471618e+03
2.050000e-06	4.886428e-06	2.238356e-08	3.476654e+01	1.465482e+03
2.060000e-06	4.797656e-06	2.229806e-08	3.413493e+01	1.459620e+03
2.070000e-06	4.707408e-06	2.219505e-08	3.349283e+01	1.454048e+03
2.080000e-06	4.615638e-06	2.211639e-08	3.283989e+01	1.448626e+03
2.090000e-06	4.522175e-06	2.199740e-08	3.217491e+01	1.443101e+03
2.100000e-06	4.426949e-06	2.190810e-08	3.149738e+01	1.437178e+03
2.110000e-06	4.330161e-06	2.180667e-08	3.080874e+01	1.430614e+03
2.120000e-06	4.232001e-06	2.170331e-08	3.011034e+01	1.423289e+03
2.130000e-06	4.132452e-06	2.158791e-08	2.940206e+01	1.415253e+03
2.140000e-06	4.031412e-06	2.146583e-08	2.868317e+01	1.406707e+03
2.150000e-06	3.928674e-06	2.135372e-08	2.795219e+01	1.397948e+03
2.160000e-06	3.824405e-06	2.123458e-08	2.721033e+01	1.389270e+03
2.170000e-06	3.718874e-06	2.111746e-08	2.645948e+01	1.380872e+03
2.180000e-06	3.612149e-06	2.098102e-08	2.570015e+01	1.372782e+03
2.190000e-06	3.504265e-06	2.084645e-08	2.493256e+01	1.364843e+03
2.200000e-06	3.395127e-06	2.070337e-08	2.415605e+01	1.356752e+03
2.210000e-06	3.284527e-06	2.056460e-08	2.336914e+01	1.348141e+03
2.220000e-06	3.172583e-06	2.042056e-08	2.257267e+01	1.338695e+03
2.230000e-06	3.059499e-06	2.027459e-08	2.176808e+01	1.328244e+03
2.240000e-06	2.945222e-06	2.011588e-08	2.095501e+01	1.316820e+03
2.250000e-06	2.829833e-06	1.994390e-08	2.013403e+01	1.304651e+03
2.260000e-06	2.713293e-06	1.976734e-08	1.930486e+01	1.292089e+03
2.270000e-06	2.595517e-06	1.958994e-08	1.846689e+01	1.279498e+03
2.280000e-06	2.476570e-06	1.941246e-08	1.762059e+01	1.267126e+03
2.290000e-06	2.356670e-06	1.921996e-08	1.676752e+01	1.255016e+03
2.300000e-06	2.235996e-06	1.901824e-08	1.590893e+01	1.242973e+03
2.310000e-06	2.114627e-06	1.880621e-08	1.504540e+01	1.230601e+03
2.320000e-06	1.992634e-06	1.858788e-08	1.417743e+01	1.217414e+03
2.330000e-06	1.870000e-06	1.835821e-08	1.330490e+01	1.202977e+03
2.340000e-06	1.746701e-06	1.812162e-08	1.242763e+01	1.187035e+03
2.350000e-06	1.622893e-06	1.787886e-08	1.154675e+01	1.169595e+03
2.360000e-06	1.498668e-06	1.762420e-08	1.066290e+01	1.150923e+03
2.370000e-06	1.373991e-06	1.735184e-08	9.775831e+00	1.131454e+03
2.380000e-06	1.248806e-06	1.706119e-08	8.885156e+00	1.111639e+03
2.390000e-06	1.123101e-06	1.675787e-08	7.990774e+00	1.091769e+03
2.400000e-06	9.968541e-07	1.643800e-08	7.092536e+00	1.071834e+03
2.410000e-06	8.701568e-07	1.610293e-08	6.191094e+00	1.051464e+03
2.420000e-06	7.431616e-07	1.574943e-08	5.287534e+00	1.029981e+03
2.430000e-06	6.158795e-07	1.537136e-08	4.381932e+00	1.006547e+03
2.440000e-06	4.883843e-07	1.496506e-08	3.474814e+00	9.803796e+02
2.450000e-06	3.607252e-07	1.452763e-08	2.566531e+00	9.509559e+02
2.460000e-06	2.329085e-07	1.405865e-08	1.657125e+00	9.181504e+02
2.470000e-06	1.049865e-07	1.355230e-08	7.469706e-01	8.822361e+02
2.480000e-06	-2.296283e-08	1.300254e-08	-1.633787e-01	8.437324e+02
2.490000e-06	-1.509046e-07	1.240113e-08	-1.073674e+00	8.031209e+02
2.500000e-06	-2.788031e-07	1.174198e-08	-1.983661e+00	7.604914e+02
2.510000e-06	-4.066615e-07	1.101723e-08	-2.893363e+00	7.152185e+02
2.520000e-06	-5.344566e-07	1.021246e-08	-3.802615e+00	6.657670e+02
2.530000e-06	-6.620941e-07	9.310800e-09	-4.710745e+00	6.097124e+02
2.540000e-06	-7.895324e-07	8.288270e-09	-5.617458e+00	5.440118e+02
2.550000e-06	-9.166570e-07	7.114931e-09	-6.521939e+00	4.655025e+02
2.560000e-06	-1.043346e-06	5.752844e-09	-7.423322e+00	3.715457e+02
2.570000e-06	-1.169520e-06	4.157934e-09	-8.321036e+00	2.606857e+02
2.580000e-06	-1.295104e-06	2.292315e-09	-9.214562e+00	1.331805e+02
2.590000e-06	-1.420096e-06	1.451492e-10	-1.010386e+01	-8.727158e+00
2.600000e-06	-1.544539e-06	-2.231105e-09	-1.098927e+01	-1.608777e+02
2.610000e-06	-1.668449e-06	-4.719722e-09	-1.187088e+01	-3.176134e+02
2.620000e-06	-1.791810e-06	-7.195059e-09	-1.274858e+01	-4.724837e+02
2.630000e-06	-1.914544e-06	-9.519723e-09	-1.362182e+01	-6.191086e+02
2.640000e-06	-2.036487e-06	-1.156441e-08	-1.448944e+01	-7.520381e+02
2.650000e-06	-2.157596e-06	-1.327667e-08	-1.535112e+01	-8.674441e+02
2.660000e-06	-2.277998e-06	-1.467224e-08	-1.620777e+01	-9.635183e+02
2.670000e-06	-2.397739e-06	-1.579720e-08	-1.705971e+01	-1.040512e+03
2.680000e-06	-2.516530e-06	-1.670680e-08	-1.790491e+01	-1.100434e+03
2.690000e-06	-2.634070e-06	-1.744902e-08	-1.874119e+01	-1.146481e+03
2.700000e-06	-2.750395e-06	-1.805939e-08	-1.956884e+01	-1.182350e+03
2.710000e-06	-2.865706e-06	-1.856744e-08	-2.038926e+01	-1.211560e+03
2.720000e-06	-2.979962e-06	-1.899585e-08	-2.120219e+01	-1.236932e+03
2.730000e-06	-3.092885e-06	-1.936336e-08	-2.200562e+01	-1.260301e+03
2.740000e-06	-3.204452e-06	-1.968396e-08	-2.279941e+01	-1.282495e+03
2.750000e-06	-3.314807e-06	-1.996754e-08	-2.358458e+01	-1.303536e+03
2.760000e-06	-3.423975e-06	-2.022333e-08	-2.436130e+01	-1.322973e+03
2.770000e-06	-3.532074e-06	-2.045790e-08	-2.513042e+01	-1.340261e+03
2.780000e-06	-3.639142e-06	-2.067354e-08	-2.589220e+01	-1.355064e+03
2.790000e-06	-3.744974e-06	-2.087010e-08	-2.664519e+01	-1.367427e+03
2.800000e-06	-3.849433e-06	-2.104958e-08	-2.738840e+01	-1.377793e+03
2.810000e-06	-3.952529e-06	-2.121465e-08	-2.812192e+01	-1.386874e+03
2.820000e-06	-4.054043e-06	-2.136897e-08	-2.884419e+01	-1.395449e+03
2.830000e-06	-4.154080e-06	-2.151524e-08	-2.955594e+01	-1.404149e+03
2.840000e-06	-4.252792e-06	-2.165499e-08	-3.025827e+01	-1.413306e+03
2.850000e-06	-4.350042e-06	-2.178903e-08	-3.095019e+01	-1.422891e+03
2.860000e-06	-4.445908e-06	-2.191623e-08	-3.163227e+01	-1.432575e+03
2.870000e-06	-4.540130e-06	-2.203500e-08	-3.230266e+01	-1.441866e+03
2.880000e-06	-4.632612e-06	-2.214545e-08	-3.296066e+01	-1.450282e+03
2.890000e-06	-4.723487e-06	-2.224976e-08	-3.360722e+01	-1.457515e+03
2.900000e-06	-4.812661e-06	-2.234678e-08	-3.424169e+01	-1.463521e+03
2.910000e-06	-4.900132e-06	-2.243756e-08	-3.486404e+01	-1.468527e+03
2.920000e-06	-4.985701e-06	-2.252373e-08	-3.547285e+01	-1.472956e+03
2.930000e-06	-5.069382e-06	-2.260635e-08	-3.606824e+01	-1.477294e+03
2.940000e-06	-5.151368e-06	-2.268753e-08	-3.665156e+01	-1.481942e+03
