# Temperatura_=_62.06
# Concentracion g/m^3_=_41000.0
# C_Vs_to_Am_M_A/Vsm_=_65563218390.804596
# pendiente_HvsI_1/m_=_3716.3
# ordenada_HvsI_A/m_=_1297.0
# frecuencia_Hz_=_302005.91987371363

Tiempo_(s)	Campo_(V.s)	Magnetizacion_(V.s)	Campo_(kA/m)	Magnetizacion_(A/m)
0.000000e+00	-6.699093e-06	-2.388961e-08	-4.746646e+01	-1.565869e+03
1.000000e-08	-6.695721e-06	-2.388423e-08	-4.744257e+01	-1.566169e+03
2.000000e-08	-6.690169e-06	-2.387555e-08	-4.740323e+01	-1.565985e+03
3.000000e-08	-6.682558e-06	-2.386783e-08	-4.734929e+01	-1.565242e+03
4.000000e-08	-6.672662e-06	-2.385611e-08	-4.727918e+01	-1.564009e+03
5.000000e-08	-6.660273e-06	-2.384223e-08	-4.719140e+01	-1.562480e+03
6.000000e-08	-6.645355e-06	-2.382432e-08	-4.708569e+01	-1.560914e+03
7.000000e-08	-6.628090e-06	-2.380819e-08	-4.696336e+01	-1.559559e+03
8.000000e-08	-6.608712e-06	-2.384490e-08	-4.682606e+01	-1.558571e+03
9.000000e-08	-6.587001e-06	-2.387834e-08	-4.667223e+01	-1.557975e+03
1.000000e-07	-6.562626e-06	-2.381985e-08	-4.649952e+01	-1.557650e+03
1.100000e-07	-6.535578e-06	-2.376379e-08	-4.630787e+01	-1.557371e+03
1.200000e-07	-6.506287e-06	-2.373730e-08	-4.610033e+01	-1.556875e+03
1.300000e-07	-6.475180e-06	-2.363910e-08	-4.587992e+01	-1.555938e+03
1.400000e-07	-6.442304e-06	-2.360823e-08	-4.564698e+01	-1.554441e+03
1.500000e-07	-6.407398e-06	-2.373340e-08	-4.539965e+01	-1.552399e+03
1.600000e-07	-6.370364e-06	-2.364362e-08	-4.513725e+01	-1.549955e+03
1.700000e-07	-6.331316e-06	-2.361067e-08	-4.486057e+01	-1.547327e+03
1.800000e-07	-6.289980e-06	-2.365400e-08	-4.456768e+01	-1.544741e+03
1.900000e-07	-6.246247e-06	-2.350265e-08	-4.425782e+01	-1.542358e+03
2.000000e-07	-6.200276e-06	-2.350472e-08	-4.393209e+01	-1.540226e+03
2.100000e-07	-6.151891e-06	-2.350094e-08	-4.358926e+01	-1.538272e+03
2.200000e-07	-6.100857e-06	-2.344414e-08	-4.322765e+01	-1.536326e+03
2.300000e-07	-6.047311e-06	-2.343162e-08	-4.284825e+01	-1.534180e+03
2.400000e-07	-5.991493e-06	-2.335775e-08	-4.245275e+01	-1.531659e+03
2.500000e-07	-5.933379e-06	-2.330071e-08	-4.204099e+01	-1.528676e+03
2.600000e-07	-5.873022e-06	-2.326103e-08	-4.161333e+01	-1.525261e+03
2.700000e-07	-5.810574e-06	-2.321913e-08	-4.117085e+01	-1.521552e+03
2.800000e-07	-5.746007e-06	-2.317719e-08	-4.071336e+01	-1.517745e+03
2.900000e-07	-5.679187e-06	-2.313471e-08	-4.023991e+01	-1.514027e+03
3.000000e-07	-5.610190e-06	-2.308800e-08	-3.975103e+01	-1.510517e+03
3.100000e-07	-5.539143e-06	-2.298752e-08	-3.924762e+01	-1.507217e+03
3.200000e-07	-5.466081e-06	-2.294016e-08	-3.872995e+01	-1.504009e+03
3.300000e-07	-5.390845e-06	-2.289049e-08	-3.819686e+01	-1.500693e+03
3.400000e-07	-5.313359e-06	-2.281585e-08	-3.764783e+01	-1.497041e+03
3.500000e-07	-5.233673e-06	-2.276831e-08	-3.708321e+01	-1.492880e+03
3.600000e-07	-5.151956e-06	-2.269094e-08	-3.650421e+01	-1.488139e+03
3.700000e-07	-5.068585e-06	-2.261364e-08	-3.591349e+01	-1.482884e+03
3.800000e-07	-4.983642e-06	-2.252940e-08	-3.531162e+01	-1.477292e+03
3.900000e-07	-4.897127e-06	-2.245172e-08	-3.469862e+01	-1.471600e+03
4.000000e-07	-4.808975e-06	-2.237195e-08	-3.407402e+01	-1.466028e+03
4.100000e-07	-4.719039e-06	-2.229528e-08	-3.343678e+01	-1.460708e+03
4.200000e-07	-4.627421e-06	-2.221641e-08	-3.278762e+01	-1.455633e+03
4.300000e-07	-4.534241e-06	-2.212080e-08	-3.212739e+01	-1.450656e+03
4.400000e-07	-4.439458e-06	-2.203053e-08	-3.145580e+01	-1.445532e+03
4.500000e-07	-4.343063e-06	-2.193240e-08	-3.077279e+01	-1.439988e+03
4.600000e-07	-4.244972e-06	-2.183237e-08	-3.007777e+01	-1.433810e+03
4.700000e-07	-4.145293e-06	-2.173018e-08	-2.937149e+01	-1.426911e+03
4.800000e-07	-4.044237e-06	-2.162829e-08	-2.865546e+01	-1.419359e+03
4.900000e-07	-3.941741e-06	-2.152042e-08	-2.792922e+01	-1.411362e+03
5.000000e-07	-3.837859e-06	-2.140295e-08	-2.719317e+01	-1.403198e+03
5.100000e-07	-3.732649e-06	-2.128223e-08	-2.644770e+01	-1.395128e+03
5.200000e-07	-3.625919e-06	-2.115944e-08	-2.569147e+01	-1.387306e+03
5.300000e-07	-3.517764e-06	-2.103491e-08	-2.492513e+01	-1.379721e+03
5.400000e-07	-3.408433e-06	-2.090323e-08	-2.415047e+01	-1.372191e+03
5.500000e-07	-3.297941e-06	-2.076847e-08	-2.336758e+01	-1.364408e+03
5.600000e-07	-3.186239e-06	-2.062454e-08	-2.257611e+01	-1.356026e+03
5.700000e-07	-3.073238e-06	-2.047241e-08	-2.177544e+01	-1.346767e+03
5.800000e-07	-2.958810e-06	-2.031692e-08	-2.096466e+01	-1.336507e+03
5.900000e-07	-2.843003e-06	-2.016189e-08	-2.014411e+01	-1.325313e+03
6.000000e-07	-2.726091e-06	-2.000114e-08	-1.931573e+01	-1.313431e+03
6.100000e-07	-2.608250e-06	-1.983128e-08	-1.848077e+01	-1.301200e+03
6.200000e-07	-2.489521e-06	-1.965094e-08	-1.763951e+01	-1.288944e+03
6.300000e-07	-2.369868e-06	-1.945919e-08	-1.679171e+01	-1.276859e+03
6.400000e-07	-2.249348e-06	-1.925958e-08	-1.593776e+01	-1.264930e+03
6.500000e-07	-2.128086e-06	-1.905531e-08	-1.507856e+01	-1.252918e+03
6.600000e-07	-2.006019e-06	-1.884666e-08	-1.421366e+01	-1.240416e+03
6.700000e-07	-1.883087e-06	-1.862718e-08	-1.334262e+01	-1.226957e+03
6.800000e-07	-1.759437e-06	-1.839516e-08	-1.246650e+01	-1.212153e+03
6.900000e-07	-1.635192e-06	-1.815051e-08	-1.158616e+01	-1.195811e+03
7.000000e-07	-1.510403e-06	-1.789532e-08	-1.070197e+01	-1.177995e+03
7.100000e-07	-1.385210e-06	-1.762780e-08	-9.814913e+00	-1.159000e+03
7.200000e-07	-1.259652e-06	-1.734865e-08	-8.925268e+00	-1.139256e+03
7.300000e-07	-1.133648e-06	-1.705564e-08	-8.032466e+00	-1.119163e+03
7.400000e-07	-1.007255e-06	-1.674215e-08	-7.136913e+00	-1.098934e+03
7.500000e-07	-8.805772e-07	-1.640706e-08	-6.239334e+00	-1.078472e+03
7.600000e-07	-7.536128e-07	-1.605111e-08	-5.339727e+00	-1.057338e+03
7.700000e-07	-6.263547e-07	-1.567441e-08	-4.438039e+00	-1.034822e+03
7.800000e-07	-4.988498e-07	-1.527696e-08	-3.534603e+00	-1.010108e+03
7.900000e-07	-3.711973e-07	-1.485625e-08	-2.630120e+00	-9.824820e+02
8.000000e-07	-2.434025e-07	-1.440416e-08	-1.724629e+00	-9.515214e+02
8.100000e-07	-1.154765e-07	-1.391339e-08	-8.182094e-01	-9.171980e+02
8.200000e-07	1.253577e-08	-1.338031e-08	8.882230e-02	-8.798453e+02
8.300000e-07	1.405885e-07	-1.279967e-08	9.961405e-01	-8.399778e+02
8.400000e-07	2.685698e-07	-1.216654e-08	1.902953e+00	-7.979932e+02
8.500000e-07	3.964553e-07	-1.147456e-08	2.809086e+00	-7.538287e+02
8.600000e-07	5.242502e-07	-1.071032e-08	3.714577e+00	-7.066686e+02
8.700000e-07	6.519171e-07	-9.858591e-09	4.619162e+00	-6.548005e+02
8.800000e-07	7.794489e-07	-8.903571e-09	5.522789e+00	-5.956912e+02
8.900000e-07	9.067079e-07	-7.821578e-09	6.424483e+00	-5.263054e+02
9.000000e-07	1.033568e-06	-6.580982e-09	7.323353e+00	-4.436321e+02
9.100000e-07	1.160055e-06	-5.140288e-09	8.219574e+00	-3.453242e+02
9.200000e-07	1.286186e-06	-3.455392e-09	9.113276e+00	-2.303227e+02
9.300000e-07	1.411904e-06	-1.496023e-09	1.000405e+01	-9.932242e+01
9.400000e-07	1.537212e-06	7.263595e-10	1.089192e+01	4.503572e+01
9.500000e-07	1.662090e-06	3.121923e-09	1.177675e+01	1.983108e+02
9.600000e-07	1.786439e-06	5.570253e-09	1.265783e+01	3.547396e+02
9.700000e-07	1.910108e-06	7.966321e-09	1.353408e+01	5.079689e+02
9.800000e-07	2.032984e-06	1.018088e-08	1.440472e+01	6.519064e+02
9.900000e-07	2.155107e-06	1.210353e-08	1.527002e+01	7.815308e+02
1.000000e-06	2.276443e-06	1.370711e-08	1.612975e+01	8.935067e+02
1.010000e-06	2.396819e-06	1.502051e-08	1.698267e+01	9.864951e+02
1.020000e-06	2.516142e-06	1.609052e-08	1.782814e+01	1.061114e+03
1.030000e-06	2.634535e-06	1.696641e-08	1.866701e+01	1.119579e+03
1.040000e-06	2.752033e-06	1.768867e-08	1.949955e+01	1.165116e+03
1.050000e-06	2.868484e-06	1.828668e-08	2.032465e+01	1.201286e+03
1.060000e-06	2.983749e-06	1.878811e-08	2.114136e+01	1.231356e+03
1.070000e-06	3.097817e-06	1.921615e-08	2.194960e+01	1.257845e+03
1.080000e-06	3.210631e-06	1.958835e-08	2.274894e+01	1.282305e+03
1.090000e-06	3.322166e-06	1.991523e-08	2.353922e+01	1.305352e+03
1.100000e-06	3.432595e-06	2.020488e-08	2.432167e+01	1.326902e+03
1.110000e-06	3.541973e-06	2.046386e-08	2.509667e+01	1.346505e+03
1.120000e-06	3.650132e-06	2.069918e-08	2.586303e+01	1.363700e+03
1.130000e-06	3.756965e-06	2.091356e-08	2.662000e+01	1.378283e+03
1.140000e-06	3.862540e-06	2.110974e-08	2.736804e+01	1.390427e+03
1.150000e-06	3.966737e-06	2.129253e-08	2.810634e+01	1.400667e+03
1.160000e-06	4.069454e-06	2.146356e-08	2.883413e+01	1.409746e+03
1.170000e-06	4.170800e-06	2.162100e-08	2.955223e+01	1.418414e+03
1.180000e-06	4.270673e-06	2.176714e-08	3.025987e+01	1.427227e+03
1.190000e-06	4.368937e-06	2.190337e-08	3.095613e+01	1.436424e+03
1.200000e-06	4.465580e-06	2.203036e-08	3.164089e+01	1.445902e+03
1.210000e-06	4.560595e-06	2.214846e-08	3.231412e+01	1.455291e+03
1.220000e-06	4.654079e-06	2.225888e-08	3.297650e+01	1.464108e+03
1.230000e-06	4.746058e-06	2.236446e-08	3.362822e+01	1.471927e+03
1.240000e-06	4.836374e-06	2.246235e-08	3.426815e+01	1.478519e+03
1.250000e-06	4.924826e-06	2.255483e-08	3.489488e+01	1.483925e+03
1.260000e-06	5.011407e-06	2.264301e-08	3.550835e+01	1.488437e+03
1.270000e-06	5.096267e-06	2.272628e-08	3.610963e+01	1.492503e+03
1.280000e-06	5.179388e-06	2.280440e-08	3.669858e+01	1.496593e+03
1.290000e-06	5.260582e-06	2.288010e-08	3.727388e+01	1.501059e+03
1.300000e-06	5.339823e-06	2.295329e-08	3.783534e+01	1.506042e+03
1.310000e-06	5.417151e-06	2.302428e-08	3.838325e+01	1.511448e+03
1.320000e-06	5.492401e-06	2.309227e-08	3.891643e+01	1.516990e+03
1.330000e-06	5.565477e-06	2.315610e-08	3.943421e+01	1.522292e+03
1.340000e-06	5.636454e-06	2.321632e-08	3.993713e+01	1.527011e+03
1.350000e-06	5.705425e-06	2.327336e-08	4.042582e+01	1.530943e+03
1.360000e-06	5.772410e-06	2.332742e-08	4.090044e+01	1.534080e+03
1.370000e-06	5.837285e-06	2.337946e-08	4.136011e+01	1.536607e+03
1.380000e-06	5.900078e-06	2.342951e-08	4.180503e+01	1.538834e+03
1.390000e-06	5.960976e-06	2.347657e-08	4.223653e+01	1.541094e+03
1.400000e-06	6.019887e-06	2.352217e-08	4.265394e+01	1.543644e+03
1.410000e-06	6.076569e-06	2.356515e-08	4.305556e+01	1.546583e+03
1.420000e-06	6.131017e-06	2.360412e-08	4.344135e+01	1.549834e+03
1.430000e-06	6.183128e-06	2.363902e-08	4.381058e+01	1.553168e+03
1.440000e-06	6.232666e-06	2.367144e-08	4.416158e+01	1.556289e+03
1.450000e-06	6.279777e-06	2.370338e-08	4.449539e+01	1.558925e+03
1.460000e-06	6.324769e-06	2.373369e-08	4.481418e+01	1.560920e+03
1.470000e-06	6.367606e-06	2.376053e-08	4.511771e+01	1.562274e+03
1.480000e-06	6.408077e-06	2.378550e-08	4.540446e+01	1.563148e+03
1.490000e-06	6.446248e-06	2.381075e-08	4.567492e+01	1.563805e+03
1.500000e-06	6.482338e-06	2.383521e-08	4.593064e+01	1.564533e+03
1.510000e-06	6.516160e-06	2.385666e-08	4.617029e+01	1.565547e+03
1.520000e-06	6.547588e-06	2.387620e-08	4.639297e+01	1.566934e+03
1.530000e-06	6.576845e-06	2.389361e-08	4.660027e+01	1.568622e+03
1.540000e-06	6.603827e-06	2.390789e-08	4.679145e+01	1.570410e+03
1.550000e-06	6.628280e-06	2.392030e-08	4.696471e+01	1.572032e+03
1.560000e-06	6.650291e-06	2.393240e-08	4.712067e+01	1.573247e+03
1.570000e-06	6.670123e-06	2.394476e-08	4.726119e+01	1.573908e+03
1.580000e-06	6.687638e-06	2.395662e-08	4.738529e+01	1.574014e+03
1.590000e-06	6.702576e-06	2.396793e-08	4.749114e+01	1.573705e+03
1.600000e-06	6.714950e-06	2.397733e-08	4.757881e+01	1.573220e+03
1.610000e-06	6.724653e-06	2.398427e-08	4.764756e+01	1.572818e+03
1.620000e-06	6.731764e-06	2.398775e-08	4.769795e+01	1.572700e+03
1.630000e-06	6.736616e-06	2.398890e-08	4.773233e+01	1.572942e+03
1.640000e-06	6.739163e-06	2.399074e-08	4.775038e+01	1.573478e+03
1.650000e-06	6.739216e-06	2.399248e-08	4.775075e+01	1.574116e+03
1.660000e-06	6.736944e-06	2.398607e-08	4.773465e+01	1.574602e+03
1.670000e-06	6.732602e-06	2.398132e-08	4.770388e+01	1.574699e+03
1.680000e-06	6.726020e-06	2.397690e-08	4.765725e+01	1.574259e+03
1.690000e-06	6.717173e-06	2.397023e-08	4.759457e+01	1.573274e+03
1.700000e-06	6.706196e-06	2.396308e-08	4.751679e+01	1.571877e+03
1.710000e-06	6.692915e-06	2.395796e-08	4.742268e+01	1.570300e+03
1.720000e-06	6.677303e-06	2.395627e-08	4.731206e+01	1.568808e+03
1.730000e-06	6.659671e-06	2.388168e-08	4.718713e+01	1.567614e+03
1.740000e-06	6.639782e-06	2.381262e-08	4.704621e+01	1.566817e+03
1.750000e-06	6.616770e-06	2.384570e-08	4.688316e+01	1.566372e+03
1.760000e-06	6.590642e-06	2.385300e-08	4.669803e+01	1.566104e+03
1.770000e-06	6.562160e-06	2.385921e-08	4.649622e+01	1.565759e+03
1.780000e-06	6.531634e-06	2.394812e-08	4.627992e+01	1.565084e+03
1.790000e-06	6.499541e-06	2.384675e-08	4.605253e+01	1.563897e+03
1.800000e-06	6.465919e-06	2.377156e-08	4.581430e+01	1.562139e+03
1.810000e-06	6.429977e-06	2.383358e-08	4.555964e+01	1.559890e+03
1.820000e-06	6.391614e-06	2.372605e-08	4.528782e+01	1.557334e+03
1.830000e-06	6.351080e-06	2.377839e-08	4.500061e+01	1.554703e+03
1.840000e-06	6.308424e-06	2.375077e-08	4.469837e+01	1.552200e+03
1.850000e-06	6.263748e-06	2.358143e-08	4.438182e+01	1.549937e+03
1.860000e-06	6.216785e-06	2.362815e-08	4.404906e+01	1.547907e+03
1.870000e-06	6.167407e-06	2.352271e-08	4.369919e+01	1.545985e+03
1.880000e-06	6.115671e-06	2.348336e-08	4.333262e+01	1.543974e+03
1.890000e-06	6.061263e-06	2.350197e-08	4.294711e+01	1.541675e+03
1.900000e-06	6.004418e-06	2.341527e-08	4.254433e+01	1.538946e+03
1.910000e-06	5.945402e-06	2.345540e-08	4.212618e+01	1.535754e+03
1.920000e-06	5.884228e-06	2.336149e-08	4.169273e+01	1.532184e+03
1.930000e-06	5.820887e-06	2.329504e-08	4.124392e+01	1.528407e+03
1.940000e-06	5.755324e-06	2.324959e-08	4.077938e+01	1.524623e+03
1.950000e-06	5.687749e-06	2.319839e-08	4.030058e+01	1.520997e+03
1.960000e-06	5.617940e-06	2.319820e-08	3.980595e+01	1.517594e+03
1.970000e-06	5.545885e-06	2.307050e-08	3.929539e+01	1.514361e+03
1.980000e-06	5.471803e-06	2.304491e-08	3.877049e+01	1.511134e+03
1.990000e-06	5.395592e-06	2.297885e-08	3.823050e+01	1.507691e+03
2.000000e-06	5.317208e-06	2.289083e-08	3.767511e+01	1.503822e+03
2.010000e-06	5.236795e-06	2.284954e-08	3.710533e+01	1.499395e+03
2.020000e-06	5.154624e-06	2.276635e-08	3.652311e+01	1.494403e+03
2.030000e-06	5.070782e-06	2.272651e-08	3.592905e+01	1.488967e+03
2.040000e-06	4.985115e-06	2.263082e-08	3.532205e+01	1.483301e+03
2.050000e-06	4.897514e-06	2.255591e-08	3.470136e+01	1.477644e+03
2.060000e-06	4.808227e-06	2.247270e-08	3.406871e+01	1.472184e+03
2.070000e-06	4.717407e-06	2.239319e-08	3.342521e+01	1.466990e+03
2.080000e-06	4.625009e-06	2.231465e-08	3.277052e+01	1.461989e+03
2.090000e-06	4.530888e-06	2.221351e-08	3.210363e+01	1.456981e+03
2.100000e-06	4.435089e-06	2.213434e-08	3.142485e+01	1.451697e+03
2.110000e-06	4.337901e-06	2.203640e-08	3.073622e+01	1.445882e+03
2.120000e-06	4.239273e-06	2.194267e-08	3.003739e+01	1.439373e+03
2.130000e-06	4.139175e-06	2.183044e-08	2.932815e+01	1.432156e+03
2.140000e-06	4.037500e-06	2.172712e-08	2.860772e+01	1.424369e+03
2.150000e-06	3.934112e-06	2.162275e-08	2.787517e+01	1.416261e+03
2.160000e-06	3.829290e-06	2.151489e-08	2.713245e+01	1.408116e+03
2.170000e-06	3.723236e-06	2.140068e-08	2.638101e+01	1.400154e+03
2.180000e-06	3.615952e-06	2.127800e-08	2.562084e+01	1.392457e+03
2.190000e-06	3.507479e-06	2.115297e-08	2.485226e+01	1.384932e+03
2.200000e-06	3.397746e-06	2.102099e-08	2.407475e+01	1.377331e+03
2.210000e-06	3.286552e-06	2.089307e-08	2.328688e+01	1.369314e+03
2.220000e-06	3.174005e-06	2.075666e-08	2.248943e+01	1.360555e+03
2.230000e-06	3.060239e-06	2.061307e-08	2.168334e+01	1.350838e+03
2.240000e-06	2.945291e-06	2.045440e-08	2.086888e+01	1.340126e+03
2.250000e-06	2.829207e-06	2.029171e-08	2.004636e+01	1.328577e+03
2.260000e-06	2.711999e-06	2.012376e-08	1.921588e+01	1.316492e+03
2.270000e-06	2.593623e-06	1.995683e-08	1.837713e+01	1.304218e+03
2.280000e-06	2.474077e-06	1.978375e-08	1.753008e+01	1.292031e+03
2.290000e-06	2.353614e-06	1.959733e-08	1.667654e+01	1.280037e+03
2.300000e-06	2.232442e-06	1.939944e-08	1.581798e+01	1.268115e+03
2.310000e-06	2.110551e-06	1.919099e-08	1.495432e+01	1.255936e+03
2.320000e-06	1.987988e-06	1.897721e-08	1.408590e+01	1.243048e+03
2.330000e-06	1.864826e-06	1.875466e-08	1.321323e+01	1.229006e+03
2.340000e-06	1.741008e-06	1.852454e-08	1.233592e+01	1.213500e+03
2.350000e-06	1.616572e-06	1.828204e-08	1.145423e+01	1.196453e+03
2.360000e-06	1.491606e-06	1.802541e-08	1.056878e+01	1.178045e+03
2.370000e-06	1.366159e-06	1.775074e-08	9.679929e+00	1.158649e+03
2.380000e-06	1.240274e-06	1.746275e-08	8.787965e+00	1.138704e+03
2.390000e-06	1.113970e-06	1.716372e-08	7.893041e+00	1.118541e+03
2.400000e-06	9.872424e-07	1.684565e-08	6.995111e+00	1.098240e+03
2.410000e-06	8.601090e-07	1.650845e-08	6.094307e+00	1.077543e+03
2.420000e-06	7.325996e-07	1.614917e-08	5.190838e+00	1.055869e+03
2.430000e-06	6.048827e-07	1.576534e-08	4.285899e+00	1.032436e+03
2.440000e-06	4.769538e-07	1.535689e-08	3.379458e+00	1.006448e+03
2.450000e-06	3.488067e-07	1.492124e-08	2.471471e+00	9.773063e+02
2.460000e-06	2.205288e-07	1.445673e-08	1.562558e+00	9.447663e+02
2.470000e-06	9.211988e-08	1.395305e-08	6.527159e-01	9.089810e+02
2.480000e-06	-3.634928e-08	1.340272e-08	-2.575530e-01	8.703988e+02
2.490000e-06	-1.648250e-07	1.279978e-08	-1.167869e+00	8.295219e+02
2.500000e-06	-2.932466e-07	1.213937e-08	-2.077800e+00	7.865760e+02
2.510000e-06	-4.215386e-07	1.141836e-08	-2.986814e+00	7.411784e+02
2.520000e-06	-5.496776e-07	1.062373e-08	-3.894744e+00	6.921027e+02
2.530000e-06	-6.776529e-07	9.739489e-09	-4.801513e+00	6.372312e+02
2.540000e-06	-8.053987e-07	8.744089e-09	-5.706657e+00	5.737437e+02
2.550000e-06	-9.328146e-07	7.608639e-09	-6.609462e+00	4.985412e+02
2.560000e-06	-1.059810e-06	6.297490e-09	-7.509292e+00	4.088389e+02
2.570000e-06	-1.186361e-06	4.769412e-09	-8.405970e+00	3.028168e+02
2.580000e-06	-1.312500e-06	2.985677e-09	-9.299722e+00	1.801864e+02
2.590000e-06	-1.438266e-06	9.241264e-10	-1.019084e+01	4.254198e+01
2.600000e-06	-1.563532e-06	-1.385929e-09	-1.107842e+01	-1.066004e+02
2.610000e-06	-1.688114e-06	-3.847731e-09	-1.196114e+01	-2.621085e+02
2.620000e-06	-1.811966e-06	-6.334903e-09	-1.283869e+01	-4.178434e+02
2.630000e-06	-1.935062e-06	-8.710643e-09	-1.371089e+01	-5.674657e+02
2.640000e-06	-2.057374e-06	-1.084414e-08	-1.457753e+01	-7.052883e+02
2.650000e-06	-2.179001e-06	-1.266551e-08	-1.543932e+01	-8.270127e+02
2.660000e-06	-2.299910e-06	-1.417417e-08	-1.629602e+01	-9.302129e+02
2.670000e-06	-2.419913e-06	-1.540753e-08	-1.714630e+01	-1.014484e+03
2.680000e-06	-2.538925e-06	-1.641427e-08	-1.798956e+01	-1.081248e+03
2.690000e-06	-2.656938e-06	-1.723706e-08	-1.882575e+01	-1.133270e+03
2.700000e-06	-2.773902e-06	-1.791472e-08	-1.965450e+01	-1.174017e+03
2.710000e-06	-2.889672e-06	-1.847908e-08	-2.047478e+01	-1.206983e+03
2.720000e-06	-3.004166e-06	-1.895338e-08	-2.128603e+01	-1.235131e+03
2.730000e-06	-3.117457e-06	-1.935868e-08	-2.208876e+01	-1.260542e+03
2.740000e-06	-3.229572e-06	-1.971096e-08	-2.288315e+01	-1.284317e+03
2.750000e-06	-3.340324e-06	-2.002347e-08	-2.366788e+01	-1.306707e+03
2.760000e-06	-3.449783e-06	-2.030265e-08	-2.444345e+01	-1.327414e+03
2.770000e-06	-3.558154e-06	-2.055339e-08	-2.521132e+01	-1.345943e+03
2.780000e-06	-3.665423e-06	-2.078171e-08	-2.597137e+01	-1.361926e+03
2.790000e-06	-3.771592e-06	-2.099010e-08	-2.672363e+01	-1.375328e+03
2.800000e-06	-3.876435e-06	-2.117890e-08	-2.746650e+01	-1.386502e+03
2.810000e-06	-3.979753e-06	-2.134909e-08	-2.819856e+01	-1.396102e+03
2.820000e-06	-4.081638e-06	-2.150720e-08	-2.892047e+01	-1.404901e+03
2.830000e-06	-4.182057e-06	-2.165685e-08	-2.963198e+01	-1.413582e+03
2.840000e-06	-4.280974e-06	-2.179938e-08	-3.033286e+01	-1.422562e+03
2.850000e-06	-4.378487e-06	-2.193424e-08	-3.102379e+01	-1.431919e+03
2.860000e-06	-4.474489e-06	-2.206167e-08	-3.170401e+01	-1.441409e+03
2.870000e-06	-4.568872e-06	-2.218112e-08	-3.237277e+01	-1.450591e+03
2.880000e-06	-4.661556e-06	-2.228944e-08	-3.302948e+01	-1.458985e+03
2.890000e-06	-4.752568e-06	-2.238844e-08	-3.367435e+01	-1.466244e+03
2.900000e-06	-4.841979e-06	-2.248036e-08	-3.430786e+01	-1.472261e+03
2.910000e-06	-4.929584e-06	-2.256774e-08	-3.492859e+01	-1.477200e+03
2.920000e-06	-5.015364e-06	-2.265196e-08	-3.553639e+01	-1.481442e+03
2.930000e-06	-5.099323e-06	-2.273246e-08	-3.613128e+01	-1.485462e+03
2.940000e-06	-5.181408e-06	-2.281053e-08	-3.671289e+01	-1.489690e+03
