# Temperatura_=_69.06
# Concentracion g/m^3_=_41000.0
# C_Vs_to_Am_M_A/Vsm_=_65563218390.804596
# pendiente_HvsI_1/m_=_3716.3
# ordenada_HvsI_A/m_=_1297.0
# frecuencia_Hz_=_302010.2356500743

Tiempo_(s)	Campo_(V.s)	Magnetizacion_(V.s)	Campo_(kA/m)	Magnetizacion_(A/m)
0.000000e+00	-6.714287e-06	-2.256964e-08	-4.747008e+01	-1.480764e+03
1.000000e-08	-6.711470e-06	-2.256419e-08	-4.745016e+01	-1.480974e+03
2.000000e-08	-6.706395e-06	-2.255506e-08	-4.741428e+01	-1.480706e+03
3.000000e-08	-6.699247e-06	-2.254454e-08	-4.736375e+01	-1.479906e+03
4.000000e-08	-6.689883e-06	-2.253436e-08	-4.729754e+01	-1.478661e+03
5.000000e-08	-6.678063e-06	-2.252266e-08	-4.721397e+01	-1.477167e+03
6.000000e-08	-6.663683e-06	-2.251315e-08	-4.711231e+01	-1.475674e+03
7.000000e-08	-6.646885e-06	-2.250908e-08	-4.699355e+01	-1.474410e+03
8.000000e-08	-6.627928e-06	-2.251533e-08	-4.685952e+01	-1.473514e+03
9.000000e-08	-6.606740e-06	-2.252837e-08	-4.670972e+01	-1.472990e+03
1.000000e-07	-6.582920e-06	-2.252394e-08	-4.654131e+01	-1.472713e+03
1.100000e-07	-6.556380e-06	-2.247381e-08	-4.635367e+01	-1.472463e+03
1.200000e-07	-6.527501e-06	-2.242261e-08	-4.614950e+01	-1.471989e+03
1.300000e-07	-6.496715e-06	-2.237567e-08	-4.593184e+01	-1.471086e+03
1.400000e-07	-6.464207e-06	-2.231760e-08	-4.570201e+01	-1.469650e+03
1.500000e-07	-6.429742e-06	-2.232468e-08	-4.545834e+01	-1.467700e+03
1.600000e-07	-6.393113e-06	-2.238642e-08	-4.519938e+01	-1.465372e+03
1.700000e-07	-6.354456e-06	-2.232875e-08	-4.492607e+01	-1.462863e+03
1.800000e-07	-6.313578e-06	-2.232619e-08	-4.463706e+01	-1.460371e+03
1.900000e-07	-6.270228e-06	-2.231864e-08	-4.433058e+01	-1.458035e+03
2.000000e-07	-6.224617e-06	-2.218441e-08	-4.400811e+01	-1.455890e+03
2.100000e-07	-6.176679e-06	-2.215680e-08	-4.366919e+01	-1.453863e+03
2.200000e-07	-6.126120e-06	-2.211918e-08	-4.331173e+01	-1.451804e+03
2.300000e-07	-6.073033e-06	-2.207194e-08	-4.293641e+01	-1.449542e+03
2.400000e-07	-6.017567e-06	-2.206467e-08	-4.254426e+01	-1.446938e+03
2.500000e-07	-5.959806e-06	-2.202094e-08	-4.213589e+01	-1.443940e+03
2.600000e-07	-5.899785e-06	-2.198540e-08	-4.171154e+01	-1.440599e+03
2.700000e-07	-5.837624e-06	-2.193617e-08	-4.127206e+01	-1.437049e+03
2.800000e-07	-5.773395e-06	-2.187405e-08	-4.081796e+01	-1.433463e+03
2.900000e-07	-5.706967e-06	-2.184118e-08	-4.034831e+01	-1.429993e+03
3.000000e-07	-5.638341e-06	-2.179418e-08	-3.986313e+01	-1.426712e+03
3.100000e-07	-5.567608e-06	-2.173559e-08	-3.936304e+01	-1.423587e+03
3.200000e-07	-5.494785e-06	-2.166458e-08	-3.884819e+01	-1.420481e+03
3.300000e-07	-5.419782e-06	-2.160891e-08	-3.831791e+01	-1.417196e+03
3.400000e-07	-5.342634e-06	-2.154304e-08	-3.777248e+01	-1.413529e+03
3.500000e-07	-5.263317e-06	-2.147482e-08	-3.721170e+01	-1.409343e+03
3.600000e-07	-5.181968e-06	-2.142560e-08	-3.663657e+01	-1.404611e+03
3.700000e-07	-5.098868e-06	-2.134648e-08	-3.604905e+01	-1.399428e+03
3.800000e-07	-5.014102e-06	-2.126878e-08	-3.544975e+01	-1.393988e+03
3.900000e-07	-4.927780e-06	-2.118498e-08	-3.483945e+01	-1.388521e+03
4.000000e-07	-4.839763e-06	-2.110283e-08	-3.421717e+01	-1.383224e+03
4.100000e-07	-4.749974e-06	-2.102777e-08	-3.358236e+01	-1.378191e+03
4.200000e-07	-4.658500e-06	-2.094983e-08	-3.293564e+01	-1.373381e+03
4.300000e-07	-4.565384e-06	-2.087241e-08	-3.227731e+01	-1.368622e+03
4.400000e-07	-4.470717e-06	-2.078733e-08	-3.160801e+01	-1.363664e+03
4.500000e-07	-4.374444e-06	-2.070394e-08	-3.092736e+01	-1.358247e+03
4.600000e-07	-4.276516e-06	-2.060508e-08	-3.023501e+01	-1.352186e+03
4.700000e-07	-4.176972e-06	-2.049939e-08	-2.953123e+01	-1.345428e+03
4.800000e-07	-4.075974e-06	-2.039392e-08	-2.881717e+01	-1.338072e+03
4.900000e-07	-3.973661e-06	-2.028823e-08	-2.809383e+01	-1.330339e+03
5.000000e-07	-3.869905e-06	-2.017979e-08	-2.736027e+01	-1.322504e+03
5.100000e-07	-3.764625e-06	-2.006672e-08	-2.661594e+01	-1.314806e+03
5.200000e-07	-3.657977e-06	-1.995150e-08	-2.586193e+01	-1.307368e+03
5.300000e-07	-3.550000e-06	-1.982739e-08	-2.509854e+01	-1.300149e+03
5.400000e-07	-3.440748e-06	-1.970162e-08	-2.432612e+01	-1.292946e+03
5.500000e-07	-3.330302e-06	-1.957717e-08	-2.354527e+01	-1.285451e+03
5.600000e-07	-3.218502e-06	-1.945076e-08	-2.275484e+01	-1.277337e+03
5.700000e-07	-3.105358e-06	-1.931159e-08	-2.195492e+01	-1.268359e+03
5.800000e-07	-2.991004e-06	-1.915936e-08	-2.114643e+01	-1.258433e+03
5.900000e-07	-2.875375e-06	-1.899796e-08	-2.032893e+01	-1.247661e+03
6.000000e-07	-2.758546e-06	-1.883331e-08	-1.950295e+01	-1.236303e+03
6.100000e-07	-2.640682e-06	-1.866864e-08	-1.866965e+01	-1.224692e+03
6.200000e-07	-2.521876e-06	-1.850285e-08	-1.782969e+01	-1.213128e+03
6.300000e-07	-2.402195e-06	-1.832997e-08	-1.698354e+01	-1.201769e+03
6.400000e-07	-2.281540e-06	-1.814580e-08	-1.613051e+01	-1.190562e+03
6.500000e-07	-2.160025e-06	-1.795333e-08	-1.527140e+01	-1.179248e+03
6.600000e-07	-2.037882e-06	-1.775241e-08	-1.440785e+01	-1.167415e+03
6.700000e-07	-1.915033e-06	-1.754313e-08	-1.353930e+01	-1.154621e+03
6.800000e-07	-1.791409e-06	-1.732572e-08	-1.266528e+01	-1.140519e+03
6.900000e-07	-1.667035e-06	-1.710087e-08	-1.178596e+01	-1.124963e+03
7.000000e-07	-1.542047e-06	-1.686243e-08	-1.090229e+01	-1.108056e+03
7.100000e-07	-1.416638e-06	-1.660811e-08	-1.001564e+01	-1.090113e+03
7.200000e-07	-1.290897e-06	-1.634080e-08	-9.126654e+00	-1.071551e+03
7.300000e-07	-1.164824e-06	-1.606117e-08	-8.235321e+00	-1.052737e+03
7.400000e-07	-1.038374e-06	-1.576798e-08	-7.341312e+00	-1.033834e+03
7.500000e-07	-9.115403e-07	-1.545701e-08	-6.444599e+00	-1.014697e+03
7.600000e-07	-7.843748e-07	-1.512686e-08	-5.545537e+00	-9.948578e+02
7.700000e-07	-6.569541e-07	-1.477420e-08	-4.644672e+00	-9.736073e+02
7.800000e-07	-5.293331e-07	-1.439751e-08	-3.742391e+00	-9.501646e+02
7.900000e-07	-4.014919e-07	-1.399541e-08	-2.838552e+00	-9.238757e+02
8.000000e-07	-2.734476e-07	-1.356346e-08	-1.933277e+00	-8.943849e+02
8.100000e-07	-1.452719e-07	-1.309806e-08	-1.027074e+00	-8.617151e+02
8.200000e-07	-1.695454e-08	-1.259423e-08	-1.198688e-01	-8.262144e+02
8.300000e-07	1.114373e-07	-1.204557e-08	7.878625e-01	-7.883642e+02
8.400000e-07	2.397872e-07	-1.144325e-08	1.695298e+00	-7.484852e+02
8.500000e-07	3.680302e-07	-1.077914e-08	2.601977e+00	-7.064129e+02
8.600000e-07	4.961080e-07	-1.004407e-08	3.507489e+00	-6.612381e+02
8.700000e-07	6.240273e-07	-9.224805e-09	4.411879e+00	-6.112009e+02
8.800000e-07	7.517627e-07	-8.303695e-09	5.314970e+00	-5.538000e+02
8.900000e-07	8.792551e-07	-7.257878e-09	6.216342e+00	-4.861315e+02
9.000000e-07	1.006429e-06	-6.054451e-09	7.115464e+00	-4.054114e+02
9.100000e-07	1.133218e-06	-4.655135e-09	8.011865e+00	-3.095894e+02
9.200000e-07	1.259682e-06	-3.022020e-09	8.905963e+00	-1.979237e+02
9.300000e-07	1.385778e-06	-1.135013e-09	9.797466e+00	-7.138657e+01
9.400000e-07	1.511453e-06	9.897496e-10	1.068599e+01	6.720457e+01
9.500000e-07	1.636666e-06	3.284476e-09	1.157125e+01	2.133798e+02
9.600000e-07	1.761347e-06	5.631793e-09	1.245274e+01	3.615171e+02
9.700000e-07	1.885462e-06	7.894214e-09	1.333023e+01	5.055653e+02
9.800000e-07	2.008866e-06	9.947496e-09	1.420270e+01	6.398567e+02
9.900000e-07	2.131444e-06	1.172163e-08	1.506933e+01	7.598548e+02
1.000000e-06	2.253173e-06	1.320031e-08	1.592996e+01	8.626962e+02
1.010000e-06	2.374022e-06	1.440640e-08	1.678436e+01	9.474325e+02
1.020000e-06	2.493891e-06	1.538565e-08	1.763184e+01	1.014939e+03
1.030000e-06	2.612770e-06	1.618349e-08	1.847231e+01	1.067532e+03
1.040000e-06	2.730765e-06	1.684021e-08	1.930654e+01	1.108387e+03
1.050000e-06	2.847818e-06	1.738328e-08	2.013410e+01	1.140892e+03
1.060000e-06	2.963747e-06	1.783617e-08	2.095372e+01	1.168075e+03
1.070000e-06	3.078411e-06	1.822226e-08	2.176439e+01	1.192202e+03
1.080000e-06	3.191731e-06	1.855970e-08	2.256557e+01	1.214606e+03
1.090000e-06	3.303741e-06	1.886018e-08	2.335748e+01	1.235756e+03
1.100000e-06	3.414586e-06	1.912803e-08	2.414115e+01	1.255496e+03
1.110000e-06	3.524331e-06	1.936747e-08	2.491706e+01	1.273377e+03
1.120000e-06	3.632986e-06	1.958323e-08	2.568525e+01	1.288984e+03
1.130000e-06	3.740462e-06	1.977926e-08	2.644510e+01	1.302169e+03
1.140000e-06	3.846593e-06	1.995691e-08	2.719545e+01	1.313151e+03
1.150000e-06	3.951263e-06	2.012213e-08	2.793547e+01	1.322472e+03
1.160000e-06	4.054492e-06	2.027893e-08	2.866530e+01	1.330843e+03
1.170000e-06	4.156350e-06	2.042683e-08	2.938544e+01	1.338953e+03
1.180000e-06	4.256829e-06	2.056419e-08	3.009582e+01	1.347280e+03
1.190000e-06	4.355764e-06	2.069324e-08	3.079530e+01	1.355996e+03
1.200000e-06	4.452955e-06	2.081283e-08	3.148244e+01	1.364951e+03
1.210000e-06	4.548475e-06	2.092262e-08	3.215777e+01	1.373765e+03
1.220000e-06	4.642445e-06	2.102471e-08	3.282213e+01	1.381979e+03
1.230000e-06	4.734917e-06	2.112141e-08	3.347591e+01	1.389209e+03
1.240000e-06	4.825808e-06	2.121360e-08	3.411851e+01	1.395281e+03
1.250000e-06	4.914859e-06	2.130109e-08	3.474810e+01	1.400275e+03
1.260000e-06	5.002022e-06	2.138532e-08	3.536435e+01	1.404500e+03
1.270000e-06	5.087440e-06	2.146531e-08	3.596825e+01	1.408395e+03
1.280000e-06	5.171209e-06	2.154163e-08	3.656050e+01	1.412395e+03
1.290000e-06	5.253093e-06	2.161480e-08	3.713942e+01	1.416806e+03
1.300000e-06	5.332915e-06	2.168627e-08	3.770377e+01	1.421723e+03
1.310000e-06	5.410804e-06	2.175426e-08	3.825444e+01	1.427017e+03
1.320000e-06	5.486722e-06	2.181854e-08	3.879118e+01	1.432389e+03
1.330000e-06	5.560438e-06	2.187962e-08	3.931235e+01	1.437476e+03
1.340000e-06	5.632007e-06	2.193703e-08	3.981835e+01	1.441961e+03
1.350000e-06	5.701619e-06	2.199136e-08	4.031051e+01	1.445675e+03
1.360000e-06	5.769271e-06	2.204384e-08	4.078880e+01	1.448643e+03
1.370000e-06	5.834763e-06	2.209561e-08	4.125184e+01	1.451065e+03
1.380000e-06	5.898106e-06	2.214577e-08	4.169967e+01	1.453250e+03
1.390000e-06	5.959580e-06	2.219245e-08	4.213429e+01	1.455516e+03
1.400000e-06	6.019114e-06	2.223667e-08	4.255520e+01	1.458090e+03
1.410000e-06	6.076428e-06	2.227836e-08	4.296041e+01	1.461044e+03
1.420000e-06	6.131526e-06	2.231652e-08	4.334995e+01	1.464278e+03
1.430000e-06	6.184384e-06	2.235135e-08	4.372365e+01	1.467556e+03
1.440000e-06	6.234627e-06	2.238273e-08	4.407887e+01	1.470591e+03
1.450000e-06	6.282361e-06	2.241268e-08	4.441636e+01	1.473128e+03
1.460000e-06	6.327948e-06	2.244237e-08	4.473866e+01	1.475035e+03
1.470000e-06	6.371433e-06	2.246916e-08	4.504609e+01	1.476331e+03
1.480000e-06	6.412552e-06	2.249394e-08	4.533681e+01	1.477186e+03
1.490000e-06	6.451334e-06	2.251907e-08	4.561100e+01	1.477861e+03
1.500000e-06	6.488043e-06	2.254312e-08	4.587053e+01	1.478627e+03
1.510000e-06	6.522518e-06	2.256311e-08	4.611427e+01	1.479679e+03
1.520000e-06	6.554557e-06	2.258036e-08	4.634078e+01	1.481084e+03
1.530000e-06	6.584339e-06	2.259818e-08	4.655134e+01	1.482755e+03
1.540000e-06	6.611967e-06	2.261425e-08	4.674667e+01	1.484491e+03
1.550000e-06	6.637094e-06	2.262641e-08	4.692432e+01	1.486037e+03
1.560000e-06	6.659689e-06	2.263728e-08	4.708407e+01	1.487167e+03
1.570000e-06	6.680051e-06	2.264840e-08	4.722802e+01	1.487757e+03
1.580000e-06	6.698114e-06	2.265964e-08	4.735573e+01	1.487822e+03
1.590000e-06	6.713692e-06	2.267051e-08	4.746587e+01	1.487509e+03
1.600000e-06	6.726736e-06	2.267907e-08	4.755809e+01	1.487049e+03
1.610000e-06	6.737114e-06	2.268440e-08	4.763146e+01	1.486688e+03
1.620000e-06	6.744864e-06	2.268658e-08	4.768626e+01	1.486605e+03
1.630000e-06	6.750292e-06	2.268720e-08	4.772463e+01	1.486861e+03
1.640000e-06	6.753378e-06	2.268673e-08	4.774645e+01	1.487378e+03
1.650000e-06	6.753986e-06	2.268524e-08	4.775075e+01	1.487965e+03
1.660000e-06	6.752303e-06	2.268290e-08	4.773885e+01	1.488379e+03
1.670000e-06	6.748491e-06	2.267571e-08	4.771190e+01	1.488402e+03
1.680000e-06	6.742421e-06	2.267104e-08	4.766899e+01	1.487906e+03
1.690000e-06	6.734089e-06	2.266537e-08	4.761008e+01	1.486900e+03
1.700000e-06	6.723599e-06	2.265697e-08	4.753591e+01	1.485522e+03
1.710000e-06	6.710862e-06	2.264806e-08	4.744586e+01	1.483999e+03
1.720000e-06	6.695760e-06	2.263049e-08	4.733909e+01	1.482583e+03
1.730000e-06	6.678516e-06	2.259891e-08	4.721717e+01	1.481469e+03
1.740000e-06	6.659132e-06	2.254514e-08	4.708013e+01	1.480742e+03
1.750000e-06	6.636848e-06	2.251560e-08	4.692258e+01	1.480349e+03
1.760000e-06	6.611366e-06	2.253320e-08	4.674242e+01	1.480116e+03
1.770000e-06	6.583288e-06	2.254253e-08	4.654392e+01	1.479802e+03
1.780000e-06	6.553089e-06	2.256101e-08	4.633040e+01	1.479167e+03
1.790000e-06	6.521238e-06	2.260371e-08	4.610522e+01	1.478043e+03
1.800000e-06	6.487952e-06	2.251855e-08	4.586988e+01	1.476379e+03
1.810000e-06	6.452495e-06	2.246293e-08	4.561921e+01	1.474248e+03
1.820000e-06	6.414585e-06	2.248583e-08	4.535118e+01	1.471819e+03
1.830000e-06	6.374487e-06	2.239075e-08	4.506769e+01	1.469297e+03
1.840000e-06	6.332232e-06	2.239443e-08	4.476895e+01	1.466864e+03
1.850000e-06	6.287855e-06	2.237011e-08	4.445520e+01	1.464614e+03
1.860000e-06	6.241193e-06	2.228713e-08	4.412529e+01	1.462536e+03
1.870000e-06	6.192191e-06	2.230777e-08	4.377886e+01	1.460519e+03
1.880000e-06	6.140947e-06	2.220616e-08	4.341656e+01	1.458395e+03
1.890000e-06	6.087085e-06	2.216108e-08	4.303575e+01	1.456001e+03
1.900000e-06	6.030660e-06	2.214088e-08	4.263683e+01	1.453231e+03
1.910000e-06	5.972041e-06	2.206920e-08	4.222239e+01	1.450077e+03
1.920000e-06	5.911206e-06	2.209460e-08	4.179229e+01	1.446629e+03
1.930000e-06	5.848237e-06	2.201379e-08	4.134710e+01	1.443044e+03
1.940000e-06	5.783134e-06	2.195827e-08	4.088682e+01	1.439495e+03
1.950000e-06	5.715902e-06	2.191861e-08	4.041149e+01	1.436105e+03
1.960000e-06	5.646443e-06	2.183448e-08	3.992041e+01	1.432904e+03
1.970000e-06	5.574694e-06	2.180502e-08	3.941314e+01	1.429811e+03
1.980000e-06	5.500891e-06	2.172305e-08	3.889135e+01	1.426657e+03
1.990000e-06	5.424979e-06	2.169187e-08	3.835466e+01	1.423233e+03
2.000000e-06	5.346946e-06	2.162186e-08	3.780296e+01	1.419357e+03
2.010000e-06	5.266912e-06	2.154037e-08	3.723712e+01	1.414935e+03
2.020000e-06	5.184978e-06	2.149364e-08	3.665785e+01	1.409994e+03
2.030000e-06	5.101290e-06	2.140425e-08	3.606617e+01	1.404675e+03
2.040000e-06	5.015776e-06	2.136217e-08	3.546159e+01	1.399198e+03
2.050000e-06	4.928443e-06	2.127957e-08	3.484414e+01	1.393787e+03
2.060000e-06	4.839437e-06	2.120651e-08	3.421487e+01	1.388601e+03
2.070000e-06	4.748873e-06	2.112212e-08	3.357458e+01	1.383679e+03
2.080000e-06	4.656622e-06	2.102718e-08	3.292237e+01	1.378921e+03
2.090000e-06	4.562675e-06	2.094481e-08	3.225816e+01	1.374112e+03
2.100000e-06	4.467110e-06	2.084165e-08	3.158251e+01	1.368989e+03
2.110000e-06	4.370030e-06	2.076529e-08	3.089615e+01	1.363314e+03
2.120000e-06	4.271544e-06	2.067056e-08	3.019986e+01	1.356954e+03
2.130000e-06	4.171493e-06	2.058003e-08	2.949250e+01	1.349922e+03
2.140000e-06	4.069829e-06	2.047205e-08	2.877373e+01	1.342374e+03
2.150000e-06	3.966589e-06	2.036501e-08	2.804382e+01	1.334566e+03
2.160000e-06	3.861869e-06	2.026210e-08	2.730345e+01	1.326768e+03
2.170000e-06	3.755871e-06	2.015400e-08	2.655404e+01	1.319178e+03
2.180000e-06	3.648680e-06	2.004071e-08	2.579620e+01	1.311851e+03
2.190000e-06	3.540209e-06	1.990942e-08	2.502932e+01	1.304674e+03
2.200000e-06	3.430448e-06	1.978097e-08	2.425330e+01	1.297389e+03
2.210000e-06	3.319380e-06	1.964659e-08	2.346805e+01	1.289668e+03
2.220000e-06	3.206974e-06	1.951796e-08	2.267334e+01	1.281208e+03
2.230000e-06	3.093363e-06	1.938327e-08	2.187011e+01	1.271826e+03
2.240000e-06	2.978518e-06	1.924709e-08	2.105815e+01	1.261517e+03
2.250000e-06	2.862373e-06	1.909874e-08	2.023701e+01	1.250457e+03
2.260000e-06	2.744994e-06	1.893724e-08	1.940714e+01	1.238951e+03
2.270000e-06	2.626546e-06	1.876755e-08	1.856971e+01	1.227333e+03
2.280000e-06	2.507059e-06	1.859456e-08	1.772493e+01	1.215851e+03
2.290000e-06	2.386500e-06	1.841680e-08	1.687258e+01	1.204578e+03
2.300000e-06	2.265148e-06	1.823088e-08	1.601462e+01	1.193371e+03
2.310000e-06	2.143216e-06	1.804064e-08	1.515256e+01	1.181892e+03
2.320000e-06	2.020663e-06	1.784132e-08	1.428611e+01	1.169701e+03
2.330000e-06	1.897436e-06	1.763170e-08	1.341489e+01	1.156381e+03
2.340000e-06	1.773525e-06	1.740666e-08	1.253884e+01	1.141662e+03
2.350000e-06	1.648890e-06	1.717422e-08	1.165767e+01	1.125503e+03
2.360000e-06	1.523584e-06	1.693299e-08	1.077176e+01	1.108106e+03
2.370000e-06	1.397816e-06	1.668006e-08	9.882570e+00	1.089848e+03
2.380000e-06	1.271718e-06	1.641090e-08	8.991057e+00	1.071144e+03
2.390000e-06	1.145314e-06	1.612508e-08	8.097385e+00	1.052291e+03
2.400000e-06	1.018501e-06	1.582203e-08	7.200815e+00	1.033327e+03
2.410000e-06	8.912706e-07	1.550230e-08	6.301292e+00	1.013966e+03
2.420000e-06	7.637155e-07	1.516826e-08	5.399476e+00	9.936194e+02
2.430000e-06	6.358310e-07	1.481305e-08	4.495331e+00	9.715246e+02
2.440000e-06	5.076692e-07	1.443031e-08	3.589226e+00	9.469302e+02
2.450000e-06	3.793019e-07	1.401729e-08	2.681668e+00	9.192933e+02
2.460000e-06	2.507729e-07	1.357330e-08	1.772967e+00	8.884178e+02
2.470000e-06	1.221129e-07	1.309233e-08	8.633393e-01	8.544809e+02
2.480000e-06	-6.575787e-09	1.256772e-08	-4.649088e-02	8.179185e+02
2.490000e-06	-1.352320e-07	1.199444e-08	-9.560918e-01	7.791830e+02
2.500000e-06	-2.638805e-07	1.136820e-08	-1.865637e+00	7.384252e+02
2.510000e-06	-3.924979e-07	1.068177e-08	-2.774964e+00	6.951862e+02
2.520000e-06	-5.210038e-07	9.920829e-09	-3.683502e+00	6.481937e+02
2.530000e-06	-6.493777e-07	9.068379e-09	-4.591107e+00	5.953428e+02
2.540000e-06	-7.775969e-07	8.103217e-09	-5.497618e+00	5.339060e+02
2.550000e-06	-9.055022e-07	6.999019e-09	-6.401910e+00	4.609586e+02
2.560000e-06	-1.032946e-06	5.723936e-09	-7.302939e+00	3.739552e+02
2.570000e-06	-1.159926e-06	4.240032e-09	-8.200691e+00	2.713429e+02
2.580000e-06	-1.286422e-06	2.514694e-09	-9.095018e+00	1.530789e+02
2.590000e-06	-1.412480e-06	5.341769e-10	-9.986251e+00	2.092856e+01
2.600000e-06	-1.538197e-06	-1.670170e-09	-1.087507e+01	-1.215396e+02
2.610000e-06	-1.663351e-06	-4.008268e-09	-1.175991e+01	-2.692851e+02
2.620000e-06	-1.787664e-06	-6.349523e-09	-1.263880e+01	-4.164049e+02
2.630000e-06	-1.911142e-06	-8.556715e-09	-1.351179e+01	-5.569128e+02
2.640000e-06	-2.033922e-06	-1.052583e-08	-1.437985e+01	-6.855435e+02
2.650000e-06	-2.155890e-06	-1.220475e-08	-1.524216e+01	-7.984272e+02
2.660000e-06	-2.277079e-06	-1.359283e-08	-1.609897e+01	-8.935111e+02
2.670000e-06	-2.397602e-06	-1.472326e-08	-1.695107e+01	-9.706583e+02
2.680000e-06	-2.517234e-06	-1.564080e-08	-1.779687e+01	-1.031423e+03
2.690000e-06	-2.635827e-06	-1.638991e-08	-1.863532e+01	-1.078567e+03
2.700000e-06	-2.753344e-06	-1.700744e-08	-1.946617e+01	-1.115435e+03
2.710000e-06	-2.869683e-06	-1.752101e-08	-2.028869e+01	-1.145324e+03
2.720000e-06	-2.984784e-06	-1.795354e-08	-2.110245e+01	-1.170971e+03
2.730000e-06	-3.098656e-06	-1.832307e-08	-2.190753e+01	-1.194248e+03
2.740000e-06	-3.211241e-06	-1.864302e-08	-2.270350e+01	-1.216098e+03
2.750000e-06	-3.322483e-06	-1.892567e-08	-2.348999e+01	-1.236686e+03
2.760000e-06	-3.432407e-06	-1.917916e-08	-2.426715e+01	-1.255687e+03
2.770000e-06	-3.541202e-06	-1.941083e-08	-2.503633e+01	-1.272630e+03
2.780000e-06	-3.649005e-06	-1.962234e-08	-2.579850e+01	-1.287194e+03
2.790000e-06	-3.755684e-06	-1.981300e-08	-2.655272e+01	-1.299385e+03
2.800000e-06	-3.861084e-06	-1.998418e-08	-2.729791e+01	-1.309572e+03
2.810000e-06	-3.965123e-06	-2.014054e-08	-2.803346e+01	-1.318393e+03
2.820000e-06	-4.067626e-06	-2.028848e-08	-2.875816e+01	-1.326575e+03
2.830000e-06	-4.168477e-06	-2.042851e-08	-2.947117e+01	-1.334733e+03
2.840000e-06	-4.267855e-06	-2.056219e-08	-3.017378e+01	-1.343223e+03
2.850000e-06	-4.365888e-06	-2.069019e-08	-3.086687e+01	-1.352074e+03
2.860000e-06	-4.462444e-06	-2.080931e-08	-3.154952e+01	-1.361021e+03
2.870000e-06	-4.557383e-06	-2.091871e-08	-3.222075e+01	-1.369631e+03
2.880000e-06	-4.650564e-06	-2.102079e-08	-3.287954e+01	-1.377458e+03
2.890000e-06	-4.742117e-06	-2.111522e-08	-3.352682e+01	-1.384197e+03
2.900000e-06	-4.832065e-06	-2.120236e-08	-3.416275e+01	-1.389779e+03
2.910000e-06	-4.920244e-06	-2.128330e-08	-3.478618e+01	-1.394393e+03
2.920000e-06	-5.006571e-06	-2.136121e-08	-3.539650e+01	-1.398417e+03
2.930000e-06	-5.090983e-06	-2.143693e-08	-3.599330e+01	-1.402307e+03
2.940000e-06	-5.173615e-06	-2.151112e-08	-3.657751e+01	-1.406454e+03
