# Temperatura_=_62.61
# Concentracion g/m^3_=_41000.0
# C_Vs_to_Am_M_A/Vsm_=_65563218390.804596
# pendiente_HvsI_1/m_=_3716.3
# ordenada_HvsI_A/m_=_1297.0
# frecuencia_Hz_=_302007.20832967537

Tiempo_(s)	Campo_(V.s)	Magnetizacion_(V.s)	Campo_(kA/m)	Magnetizacion_(A/m)
0.000000e+00	-6.710293e-06	-2.332856e-08	-4.746514e+01	-1.529760e+03
1.000000e-08	-6.707214e-06	-2.332473e-08	-4.744336e+01	-1.530014e+03
2.000000e-08	-6.701942e-06	-2.331522e-08	-4.740607e+01	-1.529782e+03
3.000000e-08	-6.694632e-06	-2.330675e-08	-4.735436e+01	-1.528996e+03
4.000000e-08	-6.685108e-06	-2.329681e-08	-4.728699e+01	-1.527734e+03
5.000000e-08	-6.673112e-06	-2.328358e-08	-4.720214e+01	-1.526191e+03
6.000000e-08	-6.658473e-06	-2.326920e-08	-4.709859e+01	-1.524624e+03
7.000000e-08	-6.641442e-06	-2.325328e-08	-4.697812e+01	-1.523269e+03
8.000000e-08	-6.622386e-06	-2.327124e-08	-4.684333e+01	-1.522276e+03
9.000000e-08	-6.601011e-06	-2.331611e-08	-4.669213e+01	-1.521658e+03
1.000000e-07	-6.576921e-06	-2.327681e-08	-4.652173e+01	-1.521297e+03
1.100000e-07	-6.550121e-06	-2.321225e-08	-4.633216e+01	-1.520975e+03
1.200000e-07	-6.521042e-06	-2.319039e-08	-4.612648e+01	-1.520446e+03
1.300000e-07	-6.490116e-06	-2.311520e-08	-4.590772e+01	-1.519511e+03
1.400000e-07	-6.457406e-06	-2.302594e-08	-4.567635e+01	-1.518072e+03
1.500000e-07	-6.422722e-06	-2.313997e-08	-4.543101e+01	-1.516164e+03
1.600000e-07	-6.385953e-06	-2.312641e-08	-4.517093e+01	-1.513934e+03
1.700000e-07	-6.347190e-06	-2.302040e-08	-4.489674e+01	-1.511590e+03
1.800000e-07	-6.306181e-06	-2.310877e-08	-4.460666e+01	-1.509333e+03
1.900000e-07	-6.262696e-06	-2.301203e-08	-4.429907e+01	-1.507293e+03
2.000000e-07	-6.216901e-06	-2.294119e-08	-4.397514e+01	-1.505481e+03
2.100000e-07	-6.168824e-06	-2.296639e-08	-4.363507e+01	-1.503793e+03
2.200000e-07	-6.118224e-06	-2.289399e-08	-4.327715e+01	-1.502041e+03
2.300000e-07	-6.064961e-06	-2.285596e-08	-4.290039e+01	-1.500012e+03
2.400000e-07	-6.009321e-06	-2.281046e-08	-4.250682e+01	-1.497546e+03
2.500000e-07	-5.951493e-06	-2.277227e-08	-4.209778e+01	-1.494581e+03
2.600000e-07	-5.891402e-06	-2.273985e-08	-4.167272e+01	-1.491176e+03
2.700000e-07	-5.829141e-06	-2.268494e-08	-4.123233e+01	-1.487496e+03
2.800000e-07	-5.764798e-06	-2.264636e-08	-4.077719e+01	-1.483754e+03
2.900000e-07	-5.698229e-06	-2.259239e-08	-4.030632e+01	-1.480145e+03
3.000000e-07	-5.629448e-06	-2.255550e-08	-3.981980e+01	-1.476778e+03
3.100000e-07	-5.558647e-06	-2.248868e-08	-3.931899e+01	-1.473636e+03
3.200000e-07	-5.485764e-06	-2.242514e-08	-3.880345e+01	-1.470583e+03
3.300000e-07	-5.410616e-06	-2.237105e-08	-3.827190e+01	-1.467398e+03
3.400000e-07	-5.333231e-06	-2.229076e-08	-3.772452e+01	-1.463849e+03
3.500000e-07	-5.253727e-06	-2.223907e-08	-3.716214e+01	-1.459762e+03
3.600000e-07	-5.172234e-06	-2.217542e-08	-3.658571e+01	-1.455084e+03
3.700000e-07	-5.088993e-06	-2.210885e-08	-3.599690e+01	-1.449896e+03
3.800000e-07	-5.004128e-06	-2.203585e-08	-3.539661e+01	-1.444399e+03
3.900000e-07	-4.917670e-06	-2.195208e-08	-3.478505e+01	-1.438843e+03
4.000000e-07	-4.829560e-06	-2.186865e-08	-3.416181e+01	-1.433452e+03
4.100000e-07	-4.739717e-06	-2.179032e-08	-3.352630e+01	-1.428352e+03
4.200000e-07	-4.648236e-06	-2.171666e-08	-3.287922e+01	-1.423517e+03
4.300000e-07	-4.555151e-06	-2.163031e-08	-3.222078e+01	-1.418782e+03
4.400000e-07	-4.460466e-06	-2.154195e-08	-3.155103e+01	-1.413880e+03
4.500000e-07	-4.364157e-06	-2.145425e-08	-3.086979e+01	-1.408525e+03
4.600000e-07	-4.266216e-06	-2.135654e-08	-3.017700e+01	-1.402502e+03
4.700000e-07	-4.166687e-06	-2.125400e-08	-2.947299e+01	-1.395731e+03
4.800000e-07	-4.065662e-06	-2.115390e-08	-2.875839e+01	-1.388299e+03
4.900000e-07	-3.963265e-06	-2.105093e-08	-2.803408e+01	-1.380432e+03
5.000000e-07	-3.859453e-06	-2.093679e-08	-2.729977e+01	-1.372423e+03
5.100000e-07	-3.754206e-06	-2.081853e-08	-2.655531e+01	-1.364542e+03
5.200000e-07	-3.647517e-06	-2.069934e-08	-2.580065e+01	-1.356939e+03
5.300000e-07	-3.539417e-06	-2.057413e-08	-2.503600e+01	-1.349594e+03
5.400000e-07	-3.430105e-06	-2.044629e-08	-2.426278e+01	-1.342306e+03
5.500000e-07	-3.319655e-06	-2.031754e-08	-2.348152e+01	-1.334750e+03
5.600000e-07	-3.207905e-06	-2.018563e-08	-2.269106e+01	-1.326571e+03
5.700000e-07	-3.094796e-06	-2.004232e-08	-2.189099e+01	-1.317487e+03
5.800000e-07	-2.980429e-06	-1.988877e-08	-2.108201e+01	-1.307383e+03
5.900000e-07	-2.864757e-06	-1.972999e-08	-2.026381e+01	-1.296346e+03
6.000000e-07	-2.747909e-06	-1.956670e-08	-1.943729e+01	-1.284640e+03
6.100000e-07	-2.630101e-06	-1.940034e-08	-1.860397e+01	-1.272622e+03
6.200000e-07	-2.511378e-06	-1.922671e-08	-1.776419e+01	-1.260629e+03
6.300000e-07	-2.391667e-06	-1.904342e-08	-1.691741e+01	-1.248854e+03
6.400000e-07	-2.270932e-06	-1.885012e-08	-1.606340e+01	-1.237272e+03
6.500000e-07	-2.149390e-06	-1.865156e-08	-1.520367e+01	-1.225629e+03
6.600000e-07	-2.027199e-06	-1.844612e-08	-1.433936e+01	-1.213497e+03
6.700000e-07	-1.904273e-06	-1.823139e-08	-1.346984e+01	-1.200396e+03
6.800000e-07	-1.780565e-06	-1.800726e-08	-1.259479e+01	-1.185934e+03
6.900000e-07	-1.656182e-06	-1.777211e-08	-1.171497e+01	-1.169924e+03
7.000000e-07	-1.531248e-06	-1.752515e-08	-1.083126e+01	-1.152447e+03
7.100000e-07	-1.405880e-06	-1.726293e-08	-9.944465e+00	-1.133820e+03
7.200000e-07	-1.280132e-06	-1.698842e-08	-9.054992e+00	-1.114492e+03
7.300000e-07	-1.154006e-06	-1.669968e-08	-8.162839e+00	-1.094879e+03
7.400000e-07	-1.027535e-06	-1.639399e-08	-7.268254e+00	-1.075196e+03
7.500000e-07	-9.007777e-07	-1.606975e-08	-6.371635e+00	-1.055337e+03
7.600000e-07	-7.737193e-07	-1.572712e-08	-5.472889e+00	-1.034848e+03
7.700000e-07	-6.463597e-07	-1.536256e-08	-4.572014e+00	-1.012999e+03
7.800000e-07	-5.187696e-07	-1.497376e-08	-3.669508e+00	-9.889596e+02
7.900000e-07	-3.909942e-07	-1.456125e-08	-2.765690e+00	-9.620108e+02
8.000000e-07	-2.630282e-07	-1.411871e-08	-1.860525e+00	-9.317383e+02
8.100000e-07	-1.348778e-07	-1.364126e-08	-9.540557e-01	-8.981347e+02
8.200000e-07	-6.604188e-09	-1.312377e-08	-4.671460e-02	-8.615623e+02
8.300000e-07	1.217054e-07	-1.256146e-08	8.608811e-01	-8.225654e+02
8.400000e-07	2.499698e-07	-1.194590e-08	1.768157e+00	-7.815655e+02
8.500000e-07	3.781388e-07	-1.127060e-08	2.674758e+00	-7.385124e+02
8.600000e-07	5.062181e-07	-1.052449e-08	3.580725e+00	-6.925900e+02
8.700000e-07	6.341163e-07	-9.693615e-09	4.485410e+00	-6.420748e+02
8.800000e-07	7.617429e-07	-8.762364e-09	5.388175e+00	-5.844182e+02
8.900000e-07	8.891147e-07	-7.705358e-09	6.289137e+00	-5.165737e+02
9.000000e-07	1.016205e-06	-6.490778e-09	7.188111e+00	-4.355304e+02
9.100000e-07	1.142973e-06	-5.080042e-09	8.084800e+00	-3.389576e+02
9.200000e-07	1.269383e-06	-3.432793e-09	8.978959e+00	-2.258280e+02
9.300000e-07	1.395341e-06	-1.517678e-09	9.869917e+00	-9.687751e+01
9.400000e-07	1.520839e-06	6.557494e-10	1.075763e+01	4.521348e+01
9.500000e-07	1.645892e-06	3.013390e-09	1.164218e+01	1.959789e+02
9.600000e-07	1.770438e-06	5.440673e-09	1.252316e+01	3.496572e+02
9.700000e-07	1.894449e-06	7.804698e-09	1.340035e+01	4.999307e+02
9.800000e-07	2.017764e-06	9.968963e-09	1.427262e+01	6.407788e+02
9.900000e-07	2.140182e-06	1.184355e-08	1.513854e+01	7.672809e+02
1.000000e-06	2.261719e-06	1.340723e-08	1.599823e+01	8.762191e+02
1.010000e-06	2.382393e-06	1.468640e-08	1.685181e+01	9.663712e+02
1.020000e-06	2.502082e-06	1.572843e-08	1.769844e+01	1.038454e+03
1.030000e-06	2.620771e-06	1.658016e-08	1.853798e+01	1.094749e+03
1.040000e-06	2.738534e-06	1.728076e-08	1.937097e+01	1.138509e+03
1.050000e-06	2.855396e-06	1.786171e-08	2.019760e+01	1.173276e+03
1.060000e-06	2.971169e-06	1.834793e-08	2.101651e+01	1.202269e+03
1.070000e-06	3.085645e-06	1.876197e-08	2.182625e+01	1.227931e+03
1.080000e-06	3.198832e-06	1.912405e-08	2.262688e+01	1.251736e+03
1.090000e-06	3.310760e-06	1.944506e-08	2.341860e+01	1.274228e+03
1.100000e-06	3.421502e-06	1.972835e-08	2.420194e+01	1.295270e+03
1.110000e-06	3.531116e-06	1.998044e-08	2.497728e+01	1.314383e+03
1.120000e-06	3.639658e-06	2.020826e-08	2.574505e+01	1.331101e+03
1.130000e-06	3.747050e-06	2.041569e-08	2.650469e+01	1.345229e+03
1.140000e-06	3.853026e-06	2.060682e-08	2.725431e+01	1.356959e+03
1.150000e-06	3.957549e-06	2.078518e-08	2.799365e+01	1.366843e+03
1.160000e-06	4.060607e-06	2.095231e-08	2.872263e+01	1.375632e+03
1.170000e-06	4.162223e-06	2.110618e-08	2.944141e+01	1.384074e+03
1.180000e-06	4.262521e-06	2.124867e-08	3.015087e+01	1.392713e+03
1.190000e-06	4.361278e-06	2.138181e-08	3.084943e+01	1.401768e+03
1.200000e-06	4.458269e-06	2.150571e-08	3.153549e+01	1.411115e+03
1.210000e-06	4.553565e-06	2.162010e-08	3.220956e+01	1.420368e+03
1.220000e-06	4.647301e-06	2.172812e-08	3.287260e+01	1.429038e+03
1.230000e-06	4.739601e-06	2.183190e-08	3.352548e+01	1.436701e+03
1.240000e-06	4.830293e-06	2.192907e-08	3.416699e+01	1.443137e+03
1.250000e-06	4.919115e-06	2.202054e-08	3.479527e+01	1.448401e+03
1.260000e-06	5.006110e-06	2.210676e-08	3.541063e+01	1.452795e+03
1.270000e-06	5.091394e-06	2.218764e-08	3.601388e+01	1.456774e+03
1.280000e-06	5.174997e-06	2.226346e-08	3.660525e+01	1.460806e+03
1.290000e-06	5.256679e-06	2.233727e-08	3.718303e+01	1.465235e+03
1.300000e-06	5.336324e-06	2.240900e-08	3.774639e+01	1.470191e+03
1.310000e-06	5.414079e-06	2.247845e-08	3.829639e+01	1.475566e+03
1.320000e-06	5.489828e-06	2.254431e-08	3.883220e+01	1.481063e+03
1.330000e-06	5.563351e-06	2.260670e-08	3.935227e+01	1.486302e+03
1.340000e-06	5.634730e-06	2.266750e-08	3.985717e+01	1.490942e+03
1.350000e-06	5.704131e-06	2.272501e-08	4.034807e+01	1.494788e+03
1.360000e-06	5.771534e-06	2.277869e-08	4.082484e+01	1.497841e+03
1.370000e-06	5.836793e-06	2.282875e-08	4.128645e+01	1.500296e+03
1.380000e-06	5.899951e-06	2.287715e-08	4.173320e+01	1.502468e+03
1.390000e-06	5.961211e-06	2.292382e-08	4.216652e+01	1.504693e+03
1.400000e-06	6.020577e-06	2.296880e-08	4.258645e+01	1.507223e+03
1.410000e-06	6.077756e-06	2.301097e-08	4.299090e+01	1.510150e+03
1.420000e-06	6.132647e-06	2.305054e-08	4.337917e+01	1.513387e+03
1.430000e-06	6.185272e-06	2.308744e-08	4.375141e+01	1.516700e+03
1.440000e-06	6.235331e-06	2.312172e-08	4.410551e+01	1.519789e+03
1.450000e-06	6.282861e-06	2.315303e-08	4.444170e+01	1.522385e+03
1.460000e-06	6.328220e-06	2.318120e-08	4.476255e+01	1.524335e+03
1.470000e-06	6.371546e-06	2.320667e-08	4.506902e+01	1.525645e+03
1.480000e-06	6.412544e-06	2.323008e-08	4.535902e+01	1.526483e+03
1.490000e-06	6.451161e-06	2.325460e-08	4.563217e+01	1.527115e+03
1.500000e-06	6.487677e-06	2.327807e-08	4.589047e+01	1.527827e+03
1.510000e-06	6.521908e-06	2.329901e-08	4.613260e+01	1.528833e+03
1.520000e-06	6.553700e-06	2.331831e-08	4.635748e+01	1.530212e+03
1.530000e-06	6.583275e-06	2.333590e-08	4.656668e+01	1.531889e+03
1.540000e-06	6.610695e-06	2.335106e-08	4.676064e+01	1.533658e+03
1.550000e-06	6.635637e-06	2.336365e-08	4.693706e+01	1.535254e+03
1.560000e-06	6.658048e-06	2.337488e-08	4.709559e+01	1.536438e+03
1.570000e-06	6.678250e-06	2.338525e-08	4.723848e+01	1.537067e+03
1.580000e-06	6.696151e-06	2.339597e-08	4.736511e+01	1.537146e+03
1.590000e-06	6.711462e-06	2.340603e-08	4.747341e+01	1.536819e+03
1.600000e-06	6.724220e-06	2.341360e-08	4.756365e+01	1.536324e+03
1.610000e-06	6.734377e-06	2.341921e-08	4.763549e+01	1.535918e+03
1.620000e-06	6.741948e-06	2.342241e-08	4.768905e+01	1.535797e+03
1.630000e-06	6.747201e-06	2.342526e-08	4.772621e+01	1.536033e+03
1.640000e-06	6.750168e-06	2.342748e-08	4.774720e+01	1.536556e+03
1.650000e-06	6.750671e-06	2.342863e-08	4.775075e+01	1.537172e+03
1.660000e-06	6.748788e-06	2.342132e-08	4.773744e+01	1.537629e+03
1.670000e-06	6.744814e-06	2.341237e-08	4.770932e+01	1.537694e+03
1.680000e-06	6.738557e-06	2.340666e-08	4.766506e+01	1.537227e+03
1.690000e-06	6.729991e-06	2.340015e-08	4.760447e+01	1.536222e+03
1.700000e-06	6.719334e-06	2.339285e-08	4.752909e+01	1.534813e+03
1.710000e-06	6.706440e-06	2.338659e-08	4.743789e+01	1.533230e+03
1.720000e-06	6.691198e-06	2.338457e-08	4.733007e+01	1.531731e+03
1.730000e-06	6.673806e-06	2.333270e-08	4.720705e+01	1.530523e+03
1.740000e-06	6.654212e-06	2.323751e-08	4.706845e+01	1.529699e+03
1.750000e-06	6.631613e-06	2.324875e-08	4.690860e+01	1.529216e+03
1.760000e-06	6.605812e-06	2.327227e-08	4.672610e+01	1.528904e+03
1.770000e-06	6.577555e-06	2.325618e-08	4.652622e+01	1.528525e+03
1.780000e-06	6.547222e-06	2.334833e-08	4.631166e+01	1.527844e+03
1.790000e-06	6.515277e-06	2.332322e-08	4.608569e+01	1.526700e+03
1.800000e-06	6.481878e-06	2.317558e-08	4.584945e+01	1.525051e+03
1.810000e-06	6.446187e-06	2.324035e-08	4.559699e+01	1.522984e+03
1.820000e-06	6.408061e-06	2.318683e-08	4.532731e+01	1.520681e+03
1.830000e-06	6.367826e-06	2.316310e-08	4.504270e+01	1.518355e+03
1.840000e-06	6.325427e-06	2.323510e-08	4.474279e+01	1.516184e+03
1.850000e-06	6.280946e-06	2.307072e-08	4.442816e+01	1.514250e+03
1.860000e-06	6.234144e-06	2.307858e-08	4.409711e+01	1.512513e+03
1.870000e-06	6.184962e-06	2.305046e-08	4.374922e+01	1.510826e+03
1.880000e-06	6.133511e-06	2.296871e-08	4.338528e+01	1.508982e+03
1.890000e-06	6.079425e-06	2.300321e-08	4.300271e+01	1.506784e+03
1.900000e-06	6.022888e-06	2.289702e-08	4.260279e+01	1.504106e+03
1.910000e-06	5.964154e-06	2.290047e-08	4.218734e+01	1.500941e+03
1.920000e-06	5.903185e-06	2.286698e-08	4.175607e+01	1.497396e+03
1.930000e-06	5.840052e-06	2.277748e-08	4.130950e+01	1.493666e+03
1.940000e-06	5.774727e-06	2.276715e-08	4.084743e+01	1.489963e+03
1.950000e-06	5.707328e-06	2.267233e-08	4.037068e+01	1.486454e+03
1.960000e-06	5.637720e-06	2.266111e-08	3.987831e+01	1.483195e+03
1.970000e-06	5.565856e-06	2.257911e-08	3.936998e+01	1.480117e+03
1.980000e-06	5.491922e-06	2.251977e-08	3.884701e+01	1.477039e+03
1.990000e-06	5.415803e-06	2.249016e-08	3.830859e+01	1.473728e+03
2.000000e-06	5.337592e-06	2.239378e-08	3.775536e+01	1.469966e+03
2.010000e-06	5.257411e-06	2.234821e-08	3.718821e+01	1.465627e+03
2.020000e-06	5.175383e-06	2.225504e-08	3.660798e+01	1.460714e+03
2.030000e-06	5.091608e-06	2.220266e-08	3.601540e+01	1.455368e+03
2.040000e-06	5.005979e-06	2.213972e-08	3.540971e+01	1.449816e+03
2.050000e-06	4.918484e-06	2.206316e-08	3.479081e+01	1.444311e+03
2.060000e-06	4.829264e-06	2.199199e-08	3.415971e+01	1.439040e+03
2.070000e-06	4.738540e-06	2.190146e-08	3.351798e+01	1.434068e+03
2.080000e-06	4.646245e-06	2.182651e-08	3.286513e+01	1.429306e+03
2.090000e-06	4.552234e-06	2.172682e-08	3.220014e+01	1.424538e+03
2.100000e-06	4.456536e-06	2.164082e-08	3.152323e+01	1.419477e+03
2.110000e-06	4.359393e-06	2.155325e-08	3.083609e+01	1.413857e+03
2.120000e-06	4.260881e-06	2.146234e-08	3.013927e+01	1.407517e+03
2.130000e-06	4.160837e-06	2.136077e-08	2.943160e+01	1.400445e+03
2.140000e-06	4.059173e-06	2.125330e-08	2.871249e+01	1.392796e+03
2.150000e-06	3.955874e-06	2.114632e-08	2.798181e+01	1.384834e+03
2.160000e-06	3.851069e-06	2.103636e-08	2.724047e+01	1.376854e+03
2.170000e-06	3.744987e-06	2.093251e-08	2.649010e+01	1.369085e+03
2.180000e-06	3.637799e-06	2.081719e-08	2.573190e+01	1.361609e+03
2.190000e-06	3.529354e-06	2.069472e-08	2.496482e+01	1.354324e+03
2.200000e-06	3.419577e-06	2.056262e-08	2.418832e+01	1.346968e+03
2.210000e-06	3.308452e-06	2.043019e-08	2.340227e+01	1.339190e+03
2.220000e-06	3.195976e-06	2.029308e-08	2.260668e+01	1.330651e+03
2.230000e-06	3.082275e-06	2.015234e-08	2.180242e+01	1.321136e+03
2.240000e-06	2.967399e-06	2.000459e-08	2.098984e+01	1.310612e+03
2.250000e-06	2.851277e-06	1.984819e-08	2.016846e+01	1.299251e+03
2.260000e-06	2.733861e-06	1.968315e-08	1.933792e+01	1.287368e+03
2.270000e-06	2.615348e-06	1.951462e-08	1.849962e+01	1.275328e+03
2.280000e-06	2.495794e-06	1.934370e-08	1.765395e+01	1.263418e+03
2.290000e-06	2.375289e-06	1.916237e-08	1.680156e+01	1.251746e+03
2.300000e-06	2.254048e-06	1.897132e-08	1.594397e+01	1.240184e+03
2.310000e-06	2.132091e-06	1.877039e-08	1.508130e+01	1.228392e+03
2.320000e-06	2.009513e-06	1.856250e-08	1.421426e+01	1.215904e+03
2.330000e-06	1.886327e-06	1.834378e-08	1.334290e+01	1.202261e+03
2.340000e-06	1.762395e-06	1.811429e-08	1.246627e+01	1.187146e+03
2.350000e-06	1.637770e-06	1.787456e-08	1.158474e+01	1.170484e+03
2.360000e-06	1.512577e-06	1.762437e-08	1.069919e+01	1.152467e+03
2.370000e-06	1.386933e-06	1.736085e-08	9.810447e+00	1.133485e+03
2.380000e-06	1.260903e-06	1.708322e-08	8.918975e+00	1.113995e+03
2.390000e-06	1.134447e-06	1.679182e-08	8.024491e+00	1.094344e+03
2.400000e-06	1.007593e-06	1.648048e-08	7.127194e+00	1.074622e+03
2.410000e-06	8.803693e-07	1.615075e-08	6.227277e+00	1.054571e+03
2.420000e-06	7.527799e-07	1.580127e-08	5.324775e+00	1.033601e+03
2.430000e-06	6.248713e-07	1.542904e-08	4.420016e+00	1.010916e+03
2.440000e-06	4.967277e-07	1.503229e-08	3.513595e+00	9.857065e+02
2.450000e-06	3.684115e-07	1.460715e-08	2.605952e+00	9.573638e+02
2.460000e-06	2.399183e-07	1.415044e-08	1.697058e+00	9.256430e+02
2.470000e-06	1.113134e-07	1.365617e-08	7.873730e-01	8.907087e+02
2.480000e-06	-1.732137e-08	1.312008e-08	-1.225224e-01	8.530323e+02
2.490000e-06	-1.459595e-07	1.253589e-08	-1.032442e+00	8.131476e+02
2.500000e-06	-2.745626e-07	1.189567e-08	-1.942114e+00	7.713156e+02
2.510000e-06	-4.030841e-07	1.119302e-08	-2.851209e+00	7.271872e+02
2.520000e-06	-5.315001e-07	1.041791e-08	-3.759557e+00	6.795627e+02
2.530000e-06	-6.597500e-07	9.554027e-09	-4.666730e+00	6.263407e+02
2.540000e-06	-7.877544e-07	8.579247e-09	-5.572167e+00	5.647054e+02
2.550000e-06	-9.154310e-07	7.468163e-09	-6.475285e+00	4.915510e+02
2.560000e-06	-1.042767e-06	6.188047e-09	-7.375994e+00	4.040772e+02
2.570000e-06	-1.169738e-06	4.694792e-09	-8.274122e+00	3.004421e+02
2.580000e-06	-1.296196e-06	2.950122e-09	-9.168622e+00	1.803316e+02
2.590000e-06	-1.422135e-06	9.352514e-10	-1.005945e+01	4.531214e+01
2.600000e-06	-1.547620e-06	-1.326394e-09	-1.094706e+01	-1.011309e+02
2.610000e-06	-1.672552e-06	-3.747975e-09	-1.183077e+01	-2.538990e+02
2.620000e-06	-1.796725e-06	-6.194926e-09	-1.270910e+01	-4.068916e+02
2.630000e-06	-1.920103e-06	-8.517272e-09	-1.358181e+01	-5.538130e+02
2.640000e-06	-2.042732e-06	-1.059554e-08	-1.444923e+01	-6.890243e+02
2.650000e-06	-2.164598e-06	-1.237119e-08	-1.531124e+01	-8.082770e+02
2.660000e-06	-2.285716e-06	-1.384103e-08	-1.616797e+01	-9.091929e+02
2.670000e-06	-2.406070e-06	-1.504021e-08	-1.701929e+01	-9.914080e+02
2.680000e-06	-2.525554e-06	-1.601759e-08	-1.786446e+01	-1.056371e+03
2.690000e-06	-2.644031e-06	-1.681704e-08	-1.870251e+01	-1.106860e+03
2.700000e-06	-2.761417e-06	-1.747619e-08	-1.953284e+01	-1.146336e+03
2.710000e-06	-2.877609e-06	-1.802507e-08	-2.035471e+01	-1.178270e+03
2.720000e-06	-2.992569e-06	-1.848757e-08	-2.116789e+01	-1.205588e+03
2.730000e-06	-3.106259e-06	-1.888338e-08	-2.197207e+01	-1.230329e+03
2.740000e-06	-3.218606e-06	-1.922681e-08	-2.276676e+01	-1.253549e+03
2.750000e-06	-3.329654e-06	-1.953085e-08	-2.355225e+01	-1.275462e+03
2.760000e-06	-3.439475e-06	-1.980305e-08	-2.432906e+01	-1.295740e+03
2.770000e-06	-3.548209e-06	-2.004944e-08	-2.509819e+01	-1.313870e+03
2.780000e-06	-3.655858e-06	-2.027368e-08	-2.585965e+01	-1.329478e+03
2.790000e-06	-3.762296e-06	-2.047591e-08	-2.661253e+01	-1.342528e+03
2.800000e-06	-3.867491e-06	-2.065706e-08	-2.735663e+01	-1.353381e+03
2.810000e-06	-3.971350e-06	-2.082211e-08	-2.809128e+01	-1.362697e+03
2.820000e-06	-4.073611e-06	-2.097777e-08	-2.881462e+01	-1.371251e+03
2.830000e-06	-4.174292e-06	-2.112476e-08	-2.952678e+01	-1.379726e+03
2.840000e-06	-4.273531e-06	-2.126475e-08	-3.022874e+01	-1.388535e+03
2.850000e-06	-4.371336e-06	-2.139850e-08	-3.092057e+01	-1.397745e+03
2.860000e-06	-4.467722e-06	-2.152456e-08	-3.160235e+01	-1.407106e+03
2.870000e-06	-4.562460e-06	-2.164144e-08	-3.227248e+01	-1.416167e+03
2.880000e-06	-4.655415e-06	-2.174777e-08	-3.293000e+01	-1.424445e+03
2.890000e-06	-4.746766e-06	-2.184555e-08	-3.357617e+01	-1.431591e+03
2.900000e-06	-4.836557e-06	-2.193499e-08	-3.421130e+01	-1.437500e+03
2.910000e-06	-4.924702e-06	-2.201791e-08	-3.483479e+01	-1.442340e+03
2.920000e-06	-5.010906e-06	-2.210040e-08	-3.544456e+01	-1.446494e+03
2.930000e-06	-5.095129e-06	-2.218184e-08	-3.604031e+01	-1.450440e+03
2.940000e-06	-5.177622e-06	-2.226107e-08	-3.662382e+01	-1.454609e+03
