# Temperatura_=_78.26
# Concentracion g/m^3_=_41000.0
# C_Vs_to_Am_M_A/Vsm_=_65563218390.804596
# pendiente_HvsI_1/m_=_3716.3
# ordenada_HvsI_A/m_=_1297.0
# frecuencia_Hz_=_302007.722737636

Tiempo_(s)	Campo_(V.s)	Magnetizacion_(V.s)	Campo_(kA/m)	Magnetizacion_(A/m)
0.000000e+00	-6.718534e-06	-2.318811e-08	-4.746154e+01	-1.520083e+03
1.000000e-08	-6.715076e-06	-2.318193e-08	-4.743711e+01	-1.520130e+03
2.000000e-08	-6.709417e-06	-2.317204e-08	-4.739713e+01	-1.519642e+03
3.000000e-08	-6.701667e-06	-2.316402e-08	-4.734238e+01	-1.518619e+03
4.000000e-08	-6.691589e-06	-2.315155e-08	-4.727119e+01	-1.517193e+03
5.000000e-08	-6.678986e-06	-2.313709e-08	-4.718216e+01	-1.515594e+03
6.000000e-08	-6.663920e-06	-2.311807e-08	-4.707573e+01	-1.514073e+03
7.000000e-08	-6.646545e-06	-2.310129e-08	-4.695299e+01	-1.512832e+03
8.000000e-08	-6.627009e-06	-2.314884e-08	-4.681498e+01	-1.511960e+03
9.000000e-08	-6.605111e-06	-2.318493e-08	-4.666029e+01	-1.511405e+03
1.000000e-07	-6.580477e-06	-2.310839e-08	-4.648626e+01	-1.510999e+03
1.100000e-07	-6.553177e-06	-2.304808e-08	-4.629341e+01	-1.510506e+03
1.200000e-07	-6.523681e-06	-2.303035e-08	-4.608504e+01	-1.509695e+03
1.300000e-07	-6.492321e-06	-2.291138e-08	-4.586351e+01	-1.508415e+03
1.400000e-07	-6.459152e-06	-2.286219e-08	-4.562919e+01	-1.506632e+03
1.500000e-07	-6.423980e-06	-2.302398e-08	-4.538073e+01	-1.504437e+03
1.600000e-07	-6.386728e-06	-2.291230e-08	-4.511757e+01	-1.502014e+03
1.700000e-07	-6.347447e-06	-2.287361e-08	-4.484008e+01	-1.499573e+03
1.800000e-07	-6.305776e-06	-2.295227e-08	-4.454571e+01	-1.497282e+03
1.900000e-07	-6.261630e-06	-2.278722e-08	-4.423384e+01	-1.495213e+03
2.000000e-07	-6.215318e-06	-2.278879e-08	-4.390668e+01	-1.493312e+03
2.100000e-07	-6.166653e-06	-2.275358e-08	-4.356290e+01	-1.491426e+03
2.200000e-07	-6.115335e-06	-2.267134e-08	-4.320038e+01	-1.489342e+03
2.300000e-07	-6.061510e-06	-2.266312e-08	-4.282015e+01	-1.486868e+03
2.400000e-07	-6.005351e-06	-2.260779e-08	-4.242342e+01	-1.483889e+03
2.500000e-07	-5.946866e-06	-2.258226e-08	-4.201026e+01	-1.480409e+03
2.600000e-07	-5.886152e-06	-2.252428e-08	-4.158137e+01	-1.476554e+03
2.700000e-07	-5.823389e-06	-2.246751e-08	-4.113799e+01	-1.472529e+03
2.800000e-07	-5.758492e-06	-2.241766e-08	-4.067954e+01	-1.468556e+03
2.900000e-07	-5.691335e-06	-2.235516e-08	-4.020512e+01	-1.464800e+03
3.000000e-07	-5.622057e-06	-2.233137e-08	-3.971573e+01	-1.461312e+03
3.100000e-07	-5.550723e-06	-2.225086e-08	-3.921181e+01	-1.458011e+03
3.200000e-07	-5.477272e-06	-2.218818e-08	-3.869293e+01	-1.454704e+03
3.300000e-07	-5.401634e-06	-2.210870e-08	-3.815860e+01	-1.451145e+03
3.400000e-07	-5.323822e-06	-2.203331e-08	-3.760891e+01	-1.447112e+03
3.500000e-07	-5.243799e-06	-2.199001e-08	-3.704361e+01	-1.442479e+03
3.600000e-07	-5.161784e-06	-2.191050e-08	-3.646423e+01	-1.437255e+03
3.700000e-07	-5.078090e-06	-2.184518e-08	-3.587300e+01	-1.431591e+03
3.800000e-07	-4.992696e-06	-2.175269e-08	-3.526975e+01	-1.425727e+03
3.900000e-07	-4.905694e-06	-2.166069e-08	-3.465515e+01	-1.419924e+03
4.000000e-07	-4.817106e-06	-2.157239e-08	-3.402934e+01	-1.414376e+03
4.100000e-07	-4.726725e-06	-2.149704e-08	-3.339086e+01	-1.409146e+03
4.200000e-07	-4.634651e-06	-2.142140e-08	-3.274042e+01	-1.404140e+03
4.300000e-07	-4.541044e-06	-2.132691e-08	-3.207916e+01	-1.399132e+03
4.400000e-07	-4.445904e-06	-2.124005e-08	-3.140706e+01	-1.393827e+03
4.500000e-07	-4.349128e-06	-2.114008e-08	-3.072341e+01	-1.387953e+03
4.600000e-07	-4.250684e-06	-2.103667e-08	-3.002798e+01	-1.381344e+03
4.700000e-07	-4.150688e-06	-2.092827e-08	-2.932158e+01	-1.373995e+03
4.800000e-07	-4.049234e-06	-2.082142e-08	-2.860488e+01	-1.366067e+03
4.900000e-07	-3.946424e-06	-2.070661e-08	-2.787860e+01	-1.357834e+03
5.000000e-07	-3.842232e-06	-2.058693e-08	-2.714256e+01	-1.349602e+03
5.100000e-07	-3.736532e-06	-2.046910e-08	-2.639587e+01	-1.341605e+03
5.200000e-07	-3.629353e-06	-2.034497e-08	-2.563873e+01	-1.333929e+03
5.300000e-07	-3.520834e-06	-2.021735e-08	-2.487212e+01	-1.326469e+03
5.400000e-07	-3.411091e-06	-2.008683e-08	-2.409687e+01	-1.318958e+03
5.500000e-07	-3.300242e-06	-1.995671e-08	-2.331380e+01	-1.311042e+03
5.600000e-07	-3.188129e-06	-1.981515e-08	-2.252180e+01	-1.302378e+03
5.700000e-07	-3.074613e-06	-1.966426e-08	-2.171990e+01	-1.292750e+03
5.800000e-07	-2.959699e-06	-1.950358e-08	-2.090811e+01	-1.282130e+03
5.900000e-07	-2.843517e-06	-1.933866e-08	-2.008737e+01	-1.270693e+03
6.000000e-07	-2.726319e-06	-1.917161e-08	-1.925945e+01	-1.258764e+03
6.100000e-07	-2.608161e-06	-1.900197e-08	-1.842475e+01	-1.246711e+03
6.200000e-07	-2.489074e-06	-1.882558e-08	-1.758349e+01	-1.234823e+03
6.300000e-07	-2.368999e-06	-1.863953e-08	-1.673525e+01	-1.223206e+03
6.400000e-07	-2.247970e-06	-1.844669e-08	-1.588027e+01	-1.211728e+03
6.500000e-07	-2.126162e-06	-1.824710e-08	-1.501978e+01	-1.200042e+03
6.600000e-07	-2.003603e-06	-1.804023e-08	-1.415399e+01	-1.187678e+03
6.700000e-07	-1.880237e-06	-1.782396e-08	-1.328250e+01	-1.174175e+03
6.800000e-07	-1.756178e-06	-1.759874e-08	-1.240611e+01	-1.159222e+03
6.900000e-07	-1.631539e-06	-1.736026e-08	-1.152563e+01	-1.142752e+03
7.000000e-07	-1.506320e-06	-1.710947e-08	-1.064105e+01	-1.124967e+03
7.100000e-07	-1.380664e-06	-1.684690e-08	-9.753383e+00	-1.106270e+03
7.200000e-07	-1.254641e-06	-1.657369e-08	-8.863122e+00	-1.087122e+03
7.300000e-07	-1.128209e-06	-1.628614e-08	-7.969976e+00	-1.067873e+03
7.400000e-07	-1.001423e-06	-1.597994e-08	-7.074322e+00	-1.048602e+03
7.500000e-07	-8.743435e-07	-1.565534e-08	-6.176599e+00	-1.029039e+03
7.600000e-07	-7.470093e-07	-1.530909e-08	-5.277075e+00	-1.008582e+03
7.700000e-07	-6.194344e-07	-1.493956e-08	-4.375852e+00	-9.864188e+02
7.800000e-07	-4.916071e-07	-1.454766e-08	-3.472845e+00	-9.617342e+02
7.900000e-07	-3.635569e-07	-1.413205e-08	-2.568264e+00	-9.339208e+02
8.000000e-07	-2.353748e-07	-1.368502e-08	-1.662751e+00	-9.027413e+02
8.100000e-07	-1.070678e-07	-1.319943e-08	-7.563562e-01	-8.683706e+02
8.200000e-07	2.138343e-08	-1.267044e-08	1.510583e-01	-8.312872e+02
8.300000e-07	1.498475e-07	-1.209245e-08	1.058563e+00	-7.920221e+02
8.400000e-07	2.782432e-07	-1.146003e-08	1.965585e+00	-7.508187e+02
8.500000e-07	4.065295e-07	-1.076566e-08	2.871834e+00	-7.072937e+02
8.600000e-07	5.347358e-07	-9.993634e-09	3.777518e+00	-6.602003e+02
8.700000e-07	6.628223e-07	-9.126496e-09	4.682355e+00	-6.073849e+02
8.800000e-07	7.906635e-07	-8.146769e-09	5.585460e+00	-5.459862e+02
8.900000e-07	9.181883e-07	-7.025691e-09	6.486330e+00	-4.728725e+02
9.000000e-07	1.045359e-06	-5.728035e-09	7.384696e+00	-3.852485e+02
9.100000e-07	1.172205e-06	-4.213070e-09	8.280771e+00	-2.813142e+02
9.200000e-07	1.298696e-06	-2.442389e-09	9.174341e+00	-1.608342e+02
9.300000e-07	1.424762e-06	-4.006690e-10	1.006490e+01	-2.548233e+01
9.400000e-07	1.550347e-06	1.875479e-09	1.095207e+01	1.211343e+02
9.500000e-07	1.675458e-06	4.281210e-09	1.183589e+01	2.737999e+02
9.600000e-07	1.800118e-06	6.691196e-09	1.271652e+01	4.263202e+02
9.700000e-07	1.924174e-06	8.968874e-09	1.359289e+01	5.723448e+02
9.800000e-07	2.047419e-06	1.098989e-08	1.446352e+01	7.062288e+02
9.900000e-07	2.169733e-06	1.269761e-08	1.532758e+01	8.237676e+02
1.000000e-06	2.291170e-06	1.409633e-08	1.618544e+01	9.226689e+02
1.010000e-06	2.411776e-06	1.522772e-08	1.703744e+01	1.002682e+03
1.020000e-06	2.531430e-06	1.614199e-08	1.788270e+01	1.065381e+03
1.030000e-06	2.650145e-06	1.688402e-08	1.872134e+01	1.113659e+03
1.040000e-06	2.767927e-06	1.749391e-08	1.955338e+01	1.151070e+03
1.050000e-06	2.884710e-06	1.800059e-08	2.037837e+01	1.181146e+03
1.060000e-06	3.000314e-06	1.842997e-08	2.119502e+01	1.206841e+03
1.070000e-06	3.114579e-06	1.879942e-08	2.200223e+01	1.230193e+03
1.080000e-06	3.227641e-06	1.912334e-08	2.280092e+01	1.252234e+03
1.090000e-06	3.339513e-06	1.941083e-08	2.359122e+01	1.273145e+03
1.100000e-06	3.450132e-06	1.966809e-08	2.437267e+01	1.292564e+03
1.110000e-06	3.559626e-06	1.989954e-08	2.514616e+01	1.309952e+03
1.120000e-06	3.668060e-06	2.010860e-08	2.591217e+01	1.324918e+03
1.130000e-06	3.775362e-06	2.029895e-08	2.667018e+01	1.337421e+03
1.140000e-06	3.881262e-06	2.047442e-08	2.741828e+01	1.347817e+03
1.150000e-06	3.985568e-06	2.064101e-08	2.815513e+01	1.356766e+03
1.160000e-06	4.088429e-06	2.079984e-08	2.888176e+01	1.365042e+03
1.170000e-06	4.189954e-06	2.094680e-08	2.959897e+01	1.373318e+03
1.180000e-06	4.290057e-06	2.108244e-08	3.030612e+01	1.381993e+03
1.190000e-06	4.388558e-06	2.120897e-08	3.100196e+01	1.391121e+03
1.200000e-06	4.485342e-06	2.132783e-08	3.168567e+01	1.400435e+03
1.210000e-06	4.580468e-06	2.144069e-08	3.235766e+01	1.409470e+03
1.220000e-06	4.674050e-06	2.154651e-08	3.301875e+01	1.417738e+03
1.230000e-06	4.766147e-06	2.164757e-08	3.366935e+01	1.424890e+03
1.240000e-06	4.856584e-06	2.174102e-08	3.430822e+01	1.430823e+03
1.250000e-06	4.945130e-06	2.182942e-08	3.493374e+01	1.435710e+03
1.260000e-06	5.031853e-06	2.191443e-08	3.554637e+01	1.439938e+03
1.270000e-06	5.116906e-06	2.199702e-08	3.614721e+01	1.443985e+03
1.280000e-06	5.200257e-06	2.207489e-08	3.673602e+01	1.448276e+03
1.290000e-06	5.281705e-06	2.214876e-08	3.731139e+01	1.453065e+03
1.300000e-06	5.361105e-06	2.221991e-08	3.787230e+01	1.458369e+03
1.310000e-06	5.438547e-06	2.228922e-08	3.841936e+01	1.463981e+03
1.320000e-06	5.513922e-06	2.235690e-08	3.895183e+01	1.469552e+03
1.330000e-06	5.587061e-06	2.242070e-08	3.946850e+01	1.474707e+03
1.340000e-06	5.658107e-06	2.248108e-08	3.997039e+01	1.479162e+03
1.350000e-06	5.727188e-06	2.253840e-08	4.045840e+01	1.482813e+03
1.360000e-06	5.794254e-06	2.259360e-08	4.093218e+01	1.485759e+03
1.370000e-06	5.859171e-06	2.264682e-08	4.139076e+01	1.488262e+03
1.380000e-06	5.922004e-06	2.269817e-08	4.183463e+01	1.490658e+03
1.390000e-06	5.982932e-06	2.274734e-08	4.226505e+01	1.493254e+03
1.400000e-06	6.041858e-06	2.279412e-08	4.268131e+01	1.496226e+03
1.410000e-06	6.098541e-06	2.283880e-08	4.308174e+01	1.499576e+03
1.420000e-06	6.152987e-06	2.288132e-08	4.346636e+01	1.503133e+03
1.430000e-06	6.205085e-06	2.292074e-08	4.383439e+01	1.506615e+03
1.440000e-06	6.254624e-06	2.295593e-08	4.418436e+01	1.509720e+03
1.450000e-06	6.301759e-06	2.298693e-08	4.451733e+01	1.512221e+03
1.460000e-06	6.346753e-06	2.301570e-08	4.483518e+01	1.514040e+03
1.470000e-06	6.389592e-06	2.304330e-08	4.513780e+01	1.515266e+03
1.480000e-06	6.430056e-06	2.307035e-08	4.542365e+01	1.516126e+03
1.490000e-06	6.468215e-06	2.309739e-08	4.569321e+01	1.516911e+03
1.500000e-06	6.504285e-06	2.312293e-08	4.594802e+01	1.517887e+03
1.510000e-06	6.538061e-06	2.314579e-08	4.618663e+01	1.519214e+03
1.520000e-06	6.569423e-06	2.316537e-08	4.640818e+01	1.520897e+03
1.530000e-06	6.598590e-06	2.318250e-08	4.661422e+01	1.522791e+03
1.540000e-06	6.625494e-06	2.319726e-08	4.680428e+01	1.524651e+03
1.550000e-06	6.649853e-06	2.321077e-08	4.697635e+01	1.526208e+03
1.560000e-06	6.671746e-06	2.322366e-08	4.713102e+01	1.527258e+03
1.570000e-06	6.691481e-06	2.323568e-08	4.727043e+01	1.527723e+03
1.580000e-06	6.708871e-06	2.324811e-08	4.739328e+01	1.527675e+03
1.590000e-06	6.723656e-06	2.326019e-08	4.749772e+01	1.527308e+03
1.600000e-06	6.735851e-06	2.326940e-08	4.758387e+01	1.526880e+03
1.610000e-06	6.745415e-06	2.327445e-08	4.765144e+01	1.526630e+03
1.620000e-06	6.752457e-06	2.327684e-08	4.770118e+01	1.526702e+03
1.630000e-06	6.757160e-06	2.327813e-08	4.773440e+01	1.527101e+03
1.640000e-06	6.759474e-06	2.327852e-08	4.775075e+01	1.527698e+03
1.650000e-06	6.759381e-06	2.327763e-08	4.775009e+01	1.528263e+03
1.660000e-06	6.757060e-06	2.326751e-08	4.773370e+01	1.528548e+03
1.670000e-06	6.752613e-06	2.326145e-08	4.770228e+01	1.528358e+03
1.680000e-06	6.745905e-06	2.325494e-08	4.765490e+01	1.527615e+03
1.690000e-06	6.736968e-06	2.324649e-08	4.759176e+01	1.526383e+03
1.700000e-06	6.725833e-06	2.324009e-08	4.751310e+01	1.524846e+03
1.710000e-06	6.712289e-06	2.323752e-08	4.741742e+01	1.523255e+03
1.720000e-06	6.696488e-06	2.323754e-08	4.730580e+01	1.521847e+03
1.730000e-06	6.678713e-06	2.314261e-08	4.718023e+01	1.520776e+03
1.740000e-06	6.658557e-06	2.306566e-08	4.703785e+01	1.520067e+03
1.750000e-06	6.635218e-06	2.311149e-08	4.687297e+01	1.519610e+03
1.760000e-06	6.608833e-06	2.311069e-08	4.668658e+01	1.519196e+03
1.770000e-06	6.580098e-06	2.311347e-08	4.648359e+01	1.518583e+03
1.780000e-06	6.549360e-06	2.323174e-08	4.626644e+01	1.517568e+03
1.790000e-06	6.517112e-06	2.310551e-08	4.603864e+01	1.516052e+03
1.800000e-06	6.483271e-06	2.302154e-08	4.579958e+01	1.514061e+03
1.810000e-06	6.447079e-06	2.310475e-08	4.554391e+01	1.511736e+03
1.820000e-06	6.408551e-06	2.296162e-08	4.527173e+01	1.509281e+03
1.830000e-06	6.367830e-06	2.304960e-08	4.498407e+01	1.506896e+03
1.840000e-06	6.324885e-06	2.302493e-08	4.468070e+01	1.504708e+03
1.850000e-06	6.279821e-06	2.285518e-08	4.436235e+01	1.502733e+03
1.860000e-06	6.232413e-06	2.295469e-08	4.402744e+01	1.500865e+03
1.870000e-06	6.182694e-06	2.282856e-08	4.367622e+01	1.498915e+03
1.880000e-06	6.130625e-06	2.281150e-08	4.330839e+01	1.496673e+03
1.890000e-06	6.075929e-06	2.278657e-08	4.292200e+01	1.493973e+03
1.900000e-06	6.018863e-06	2.264970e-08	4.251887e+01	1.490755e+03
1.910000e-06	5.959584e-06	2.273296e-08	4.210011e+01	1.487081e+03
1.920000e-06	5.898074e-06	2.262881e-08	4.166559e+01	1.483121e+03
1.930000e-06	5.834435e-06	2.259110e-08	4.121603e+01	1.479096e+03
1.940000e-06	5.768590e-06	2.252173e-08	4.075087e+01	1.475211e+03
1.950000e-06	5.700593e-06	2.242752e-08	4.027053e+01	1.471582e+03
1.960000e-06	5.630290e-06	2.243354e-08	3.977389e+01	1.468201e+03
1.970000e-06	5.557789e-06	2.230097e-08	3.926172e+01	1.464928e+03
1.980000e-06	5.483292e-06	2.230005e-08	3.873545e+01	1.461537e+03
1.990000e-06	5.406595e-06	2.222185e-08	3.819365e+01	1.457783e+03
2.000000e-06	5.327801e-06	2.214410e-08	3.763702e+01	1.453481e+03
2.010000e-06	5.247055e-06	2.208267e-08	3.706662e+01	1.448565e+03
2.020000e-06	5.164542e-06	2.197208e-08	3.648372e+01	1.443112e+03
2.030000e-06	5.080219e-06	2.195034e-08	3.588804e+01	1.437324e+03
2.040000e-06	4.993947e-06	2.185300e-08	3.527859e+01	1.431460e+03
2.050000e-06	4.905905e-06	2.178918e-08	3.465664e+01	1.425760e+03
2.060000e-06	4.816273e-06	2.169133e-08	3.402345e+01	1.420363e+03
2.070000e-06	4.725166e-06	2.160997e-08	3.337985e+01	1.415260e+03
2.080000e-06	4.632421e-06	2.152266e-08	3.272467e+01	1.410289e+03
2.090000e-06	4.537842e-06	2.141262e-08	3.205654e+01	1.405182e+03
2.100000e-06	4.441618e-06	2.133267e-08	3.137679e+01	1.399643e+03
2.110000e-06	4.343984e-06	2.123179e-08	3.068707e+01	1.393441e+03
2.120000e-06	4.244997e-06	2.114696e-08	2.998780e+01	1.386481e+03
2.130000e-06	4.144456e-06	2.103058e-08	2.927755e+01	1.378836e+03
2.140000e-06	4.042190e-06	2.092350e-08	2.855512e+01	1.370730e+03
2.150000e-06	3.938358e-06	2.080512e-08	2.782162e+01	1.362463e+03
2.160000e-06	3.833160e-06	2.069763e-08	2.707848e+01	1.354321e+03
2.170000e-06	3.726729e-06	2.058601e-08	2.632662e+01	1.346475e+03
2.180000e-06	3.619092e-06	2.046285e-08	2.556624e+01	1.338924e+03
2.190000e-06	3.510111e-06	2.033257e-08	2.479637e+01	1.331484e+03
2.200000e-06	3.399835e-06	2.019426e-08	2.401735e+01	1.323833e+03
2.210000e-06	3.288273e-06	2.006221e-08	2.322925e+01	1.315608e+03
2.220000e-06	3.175362e-06	1.992074e-08	2.243162e+01	1.306515e+03
2.230000e-06	3.061185e-06	1.978139e-08	2.162503e+01	1.296418e+03
2.240000e-06	2.945815e-06	1.962860e-08	2.081003e+01	1.285388e+03
2.250000e-06	2.829222e-06	1.946989e-08	1.998639e+01	1.273678e+03
2.260000e-06	2.711421e-06	1.929923e-08	1.915421e+01	1.261650e+03
2.270000e-06	2.592479e-06	1.913065e-08	1.831397e+01	1.249648e+03
2.280000e-06	2.472520e-06	1.895613e-08	1.746655e+01	1.237889e+03
2.290000e-06	2.351722e-06	1.877275e-08	1.661320e+01	1.226369e+03
2.300000e-06	2.230161e-06	1.857963e-08	1.575446e+01	1.214850e+03
2.310000e-06	2.107936e-06	1.837568e-08	1.489103e+01	1.202912e+03
2.320000e-06	1.985055e-06	1.816386e-08	1.402296e+01	1.190072e+03
2.330000e-06	1.861492e-06	1.793994e-08	1.315008e+01	1.175923e+03
2.340000e-06	1.737239e-06	1.770713e-08	1.227232e+01	1.160258e+03
2.350000e-06	1.612340e-06	1.746589e-08	1.139000e+01	1.143140e+03
2.360000e-06	1.486920e-06	1.721762e-08	1.050401e+01	1.124876e+03
2.370000e-06	1.361100e-06	1.695337e-08	9.615180e+00	1.105917e+03
2.380000e-06	1.234845e-06	1.667259e-08	8.723282e+00	1.086693e+03
2.390000e-06	1.108112e-06	1.637554e-08	7.828004e+00	1.067446e+03
2.400000e-06	9.809304e-07	1.606175e-08	6.929557e+00	1.048097e+03
2.410000e-06	8.533515e-07	1.573240e-08	6.028305e+00	1.028212e+03
2.420000e-06	7.254882e-07	1.538303e-08	5.125045e+00	1.007071e+03
2.430000e-06	5.973852e-07	1.500968e-08	4.220090e+00	9.838326e+02
2.440000e-06	4.690464e-07	1.460964e-08	3.313471e+00	9.577528e+02
2.450000e-06	3.405087e-07	1.417843e-08	2.405445e+00	9.283821e+02
2.460000e-06	2.118256e-07	1.371402e-08	1.496393e+00	8.956782e+02
2.470000e-06	8.308517e-08	1.321163e-08	5.869360e-01	8.599799e+02
2.480000e-06	-4.565509e-08	1.266654e-08	-3.225198e-01	8.218283e+02
2.490000e-06	-1.744098e-07	1.206812e-08	-1.232078e+00	7.816655e+02
2.500000e-06	-3.031356e-07	1.140902e-08	-2.141432e+00	7.394824e+02
2.510000e-06	-4.317769e-07	1.068292e-08	-3.050189e+00	6.945141e+02
2.520000e-06	-5.602911e-07	9.875744e-09	-3.958047e+00	6.450842e+02
2.530000e-06	-6.886229e-07	8.970149e-09	-4.864618e+00	5.886702e+02
2.540000e-06	-8.167597e-07	7.941691e-09	-5.769811e+00	5.222187e+02
2.550000e-06	-9.446271e-07	6.760129e-09	-6.673101e+00	4.426721e+02
2.560000e-06	-1.072099e-06	5.386523e-09	-7.573597e+00	3.476173e+02
2.570000e-06	-1.199069e-06	3.779631e-09	-8.470547e+00	2.359208e+02
2.580000e-06	-1.325482e-06	1.906968e-09	-9.363563e+00	1.082088e+02
2.590000e-06	-1.451403e-06	-2.351370e-10	-1.025310e+01	-3.292912e+01
2.600000e-06	-1.576892e-06	-2.589762e-09	-1.113959e+01	-1.830781e+02
2.610000e-06	-1.701830e-06	-5.040131e-09	-1.202219e+01	-3.364747e+02
2.620000e-06	-1.826085e-06	-7.441378e-09	-1.289996e+01	-4.867437e+02
2.630000e-06	-1.949558e-06	-9.652478e-09	-1.377220e+01	-6.277591e+02
2.640000e-06	-2.072169e-06	-1.157714e-08	-1.463836e+01	-7.544667e+02
2.650000e-06	-2.193970e-06	-1.318301e-08	-1.549880e+01	-8.635105e+02
2.660000e-06	-2.315097e-06	-1.448993e-08	-1.635447e+01	-9.535524e+02
2.670000e-06	-2.435527e-06	-1.554481e-08	-1.720522e+01	-1.025235e+03
2.680000e-06	-2.554972e-06	-1.639942e-08	-1.804901e+01	-1.080820e+03
2.690000e-06	-2.673262e-06	-1.709798e-08	-1.888464e+01	-1.123595e+03
2.700000e-06	-2.790453e-06	-1.767465e-08	-1.971251e+01	-1.157184e+03
2.710000e-06	-2.906532e-06	-1.815762e-08	-2.053253e+01	-1.184908e+03
2.720000e-06	-3.021408e-06	-1.856530e-08	-2.134404e+01	-1.209322e+03
2.730000e-06	-3.135034e-06	-1.891351e-08	-2.214673e+01	-1.231992e+03
2.740000e-06	-3.247394e-06	-1.921820e-08	-2.294047e+01	-1.253526e+03
2.750000e-06	-3.358407e-06	-1.948925e-08	-2.372470e+01	-1.273807e+03
2.760000e-06	-3.468104e-06	-1.973371e-08	-2.449963e+01	-1.292346e+03
2.770000e-06	-3.576712e-06	-1.995672e-08	-2.526686e+01	-1.308638e+03
2.780000e-06	-3.684224e-06	-2.016200e-08	-2.602635e+01	-1.322439e+03
2.790000e-06	-3.790477e-06	-2.034878e-08	-2.677696e+01	-1.333895e+03
2.800000e-06	-3.895424e-06	-2.051716e-08	-2.751833e+01	-1.343524e+03
2.810000e-06	-3.998996e-06	-2.067301e-08	-2.824998e+01	-1.352064e+03
2.820000e-06	-4.101049e-06	-2.082135e-08	-2.897092e+01	-1.360268e+03
2.830000e-06	-4.201579e-06	-2.096324e-08	-2.968109e+01	-1.368698e+03
2.840000e-06	-4.300640e-06	-2.109832e-08	-3.038088e+01	-1.377597e+03
2.850000e-06	-4.398280e-06	-2.122551e-08	-3.107064e+01	-1.386858e+03
2.860000e-06	-4.494507e-06	-2.134316e-08	-3.175041e+01	-1.396104e+03
2.870000e-06	-4.589075e-06	-2.145285e-08	-3.241847e+01	-1.404837e+03
2.880000e-06	-4.681880e-06	-2.155545e-08	-3.307406e+01	-1.412615e+03
2.890000e-06	-4.773014e-06	-2.165142e-08	-3.371786e+01	-1.419195e+03
2.900000e-06	-4.862491e-06	-2.174146e-08	-3.434995e+01	-1.424603e+03
2.910000e-06	-4.950282e-06	-2.182771e-08	-3.497013e+01	-1.429126e+03
2.920000e-06	-5.036176e-06	-2.191058e-08	-3.557691e+01	-1.433208e+03
2.930000e-06	-5.120100e-06	-2.198986e-08	-3.616977e+01	-1.437322e+03
2.940000e-06	-5.202236e-06	-2.206692e-08	-3.675000e+01	-1.441826e+03
