# Temperatura_=_94.67
# Concentracion g/m^3_=_41000.0
# C_Vs_to_Am_M_A/Vsm_=_65563218390.804596
# pendiente_HvsI_1/m_=_3716.3
# ordenada_HvsI_A/m_=_1297.0
# frecuencia_Hz_=_302008.48302921257

Tiempo_(s)	Campo_(V.s)	Magnetizacion_(V.s)	Campo_(kA/m)	Magnetizacion_(A/m)
0.000000e+00	-6.703197e-06	-2.413597e-08	-4.746695e+01	-1.582031e+03
1.000000e-08	-6.699974e-06	-2.413068e-08	-4.744413e+01	-1.582111e+03
2.000000e-08	-6.694512e-06	-2.411925e-08	-4.740545e+01	-1.581646e+03
3.000000e-08	-6.687007e-06	-2.410713e-08	-4.735231e+01	-1.580616e+03
4.000000e-08	-6.677246e-06	-2.409307e-08	-4.728319e+01	-1.579139e+03
5.000000e-08	-6.665031e-06	-2.407783e-08	-4.719670e+01	-1.577438e+03
6.000000e-08	-6.650310e-06	-2.406148e-08	-4.709245e+01	-1.575773e+03
7.000000e-08	-6.633198e-06	-2.404352e-08	-4.697127e+01	-1.574360e+03
8.000000e-08	-6.613951e-06	-2.406801e-08	-4.683499e+01	-1.573308e+03
9.000000e-08	-6.592383e-06	-2.411243e-08	-4.668226e+01	-1.572591e+03
1.000000e-07	-6.568117e-06	-2.405704e-08	-4.651042e+01	-1.572055e+03
1.100000e-07	-6.541169e-06	-2.398396e-08	-4.631960e+01	-1.571468e+03
1.200000e-07	-6.511920e-06	-2.395397e-08	-4.611247e+01	-1.570593e+03
1.300000e-07	-6.480812e-06	-2.385933e-08	-4.589220e+01	-1.569257e+03
1.400000e-07	-6.447954e-06	-2.378723e-08	-4.565952e+01	-1.567403e+03
1.500000e-07	-6.413125e-06	-2.392219e-08	-4.541288e+01	-1.565095e+03
1.600000e-07	-6.376233e-06	-2.388016e-08	-4.515165e+01	-1.562500e+03
1.700000e-07	-6.337347e-06	-2.378985e-08	-4.487628e+01	-1.559820e+03
1.800000e-07	-6.296156e-06	-2.386777e-08	-4.458460e+01	-1.557231e+03
1.900000e-07	-6.252447e-06	-2.372206e-08	-4.427508e+01	-1.554822e+03
2.000000e-07	-6.206499e-06	-2.364651e-08	-4.394972e+01	-1.552567e+03
2.100000e-07	-6.158142e-06	-2.364240e-08	-4.360729e+01	-1.550335e+03
2.200000e-07	-6.107151e-06	-2.356097e-08	-4.324621e+01	-1.547935e+03
2.300000e-07	-6.053709e-06	-2.354460e-08	-4.286778e+01	-1.545180e+03
2.400000e-07	-5.997944e-06	-2.349685e-08	-4.247289e+01	-1.541952e+03
2.500000e-07	-5.939898e-06	-2.344378e-08	-4.206185e+01	-1.538239e+03
2.600000e-07	-5.879578e-06	-2.339206e-08	-4.163471e+01	-1.534143e+03
2.700000e-07	-5.817183e-06	-2.333189e-08	-4.119288e+01	-1.529848e+03
2.800000e-07	-5.752741e-06	-2.329290e-08	-4.073655e+01	-1.525558e+03
2.900000e-07	-5.686007e-06	-2.323439e-08	-4.026399e+01	-1.521428e+03
3.000000e-07	-5.617091e-06	-2.318461e-08	-3.977597e+01	-1.517513e+03
3.100000e-07	-5.546145e-06	-2.308525e-08	-3.927359e+01	-1.513741e+03
3.200000e-07	-5.473080e-06	-2.300058e-08	-3.875620e+01	-1.509937e+03
3.300000e-07	-5.397817e-06	-2.293888e-08	-3.822324e+01	-1.505872e+03
3.400000e-07	-5.320352e-06	-2.285730e-08	-3.767470e+01	-1.501336e+03
3.500000e-07	-5.240672e-06	-2.280032e-08	-3.711046e+01	-1.496208e+03
3.600000e-07	-5.158973e-06	-2.271649e-08	-3.653193e+01	-1.490499e+03
3.700000e-07	-5.075639e-06	-2.262768e-08	-3.594183e+01	-1.484350e+03
3.800000e-07	-4.990716e-06	-2.253104e-08	-3.534047e+01	-1.477991e+03
3.900000e-07	-4.904198e-06	-2.243594e-08	-3.472781e+01	-1.471674e+03
4.000000e-07	-4.816081e-06	-2.234883e-08	-3.410383e+01	-1.465584e+03
4.100000e-07	-4.726196e-06	-2.226074e-08	-3.346733e+01	-1.459784e+03
4.200000e-07	-4.634576e-06	-2.217175e-08	-3.281855e+01	-1.454181e+03
4.300000e-07	-4.541373e-06	-2.206909e-08	-3.215856e+01	-1.448556e+03
4.400000e-07	-4.446608e-06	-2.196931e-08	-3.148750e+01	-1.442620e+03
4.500000e-07	-4.350210e-06	-2.186439e-08	-3.080489e+01	-1.436107e+03
4.600000e-07	-4.252124e-06	-2.174907e-08	-3.011031e+01	-1.428857e+03
4.700000e-07	-4.152471e-06	-2.163097e-08	-2.940465e+01	-1.420864e+03
4.800000e-07	-4.051457e-06	-2.151207e-08	-2.868934e+01	-1.412287e+03
4.900000e-07	-3.949062e-06	-2.138927e-08	-2.796426e+01	-1.403401e+03
5.000000e-07	-3.845200e-06	-2.125970e-08	-2.722879e+01	-1.394510e+03
5.100000e-07	-3.739896e-06	-2.112910e-08	-2.648310e+01	-1.385850e+03
5.200000e-07	-3.633168e-06	-2.099440e-08	-2.572734e+01	-1.377508e+03
5.300000e-07	-3.525082e-06	-2.085621e-08	-2.496196e+01	-1.369383e+03
5.400000e-07	-3.415781e-06	-2.071918e-08	-2.418797e+01	-1.361211e+03
5.500000e-07	-3.305259e-06	-2.057949e-08	-2.340534e+01	-1.352633e+03
5.600000e-07	-3.193488e-06	-2.042852e-08	-2.261386e+01	-1.343308e+03
5.700000e-07	-3.080474e-06	-2.026257e-08	-2.181358e+01	-1.333010e+03
5.800000e-07	-2.966125e-06	-2.008705e-08	-2.100384e+01	-1.321707e+03
5.900000e-07	-2.850387e-06	-1.990986e-08	-2.018428e+01	-1.309569e+03
6.000000e-07	-2.733464e-06	-1.973276e-08	-1.935632e+01	-1.296921e+03
6.100000e-07	-2.615554e-06	-1.955311e-08	-1.852137e+01	-1.284135e+03
6.200000e-07	-2.496738e-06	-1.936609e-08	-1.768001e+01	-1.271509e+03
6.300000e-07	-2.377095e-06	-1.917080e-08	-1.683279e+01	-1.259158e+03
6.400000e-07	-2.256620e-06	-1.896740e-08	-1.597967e+01	-1.246960e+03
6.500000e-07	-2.135326e-06	-1.875750e-08	-1.512076e+01	-1.234574e+03
6.600000e-07	-2.013173e-06	-1.854068e-08	-1.425576e+01	-1.221530e+03
6.700000e-07	-1.890196e-06	-1.831417e-08	-1.338493e+01	-1.207361e+03
6.800000e-07	-1.766495e-06	-1.807518e-08	-1.250898e+01	-1.191741e+03
6.900000e-07	-1.642158e-06	-1.782330e-08	-1.162852e+01	-1.174593e+03
7.000000e-07	-1.517338e-06	-1.756185e-08	-1.074463e+01	-1.156105e+03
7.100000e-07	-1.392122e-06	-1.728824e-08	-9.857949e+00	-1.136674e+03
7.200000e-07	-1.266497e-06	-1.700330e-08	-8.968371e+00	-1.116763e+03
7.300000e-07	-1.140464e-06	-1.670375e-08	-8.075902e+00	-1.096730e+03
7.400000e-07	-1.014054e-06	-1.638682e-08	-7.180764e+00	-1.076672e+03
7.500000e-07	-8.872805e-07	-1.605156e-08	-6.283047e+00	-1.056332e+03
7.600000e-07	-7.601569e-07	-1.569418e-08	-5.382855e+00	-1.035118e+03
7.700000e-07	-6.328376e-07	-1.531294e-08	-4.481275e+00	-1.012223e+03
7.800000e-07	-5.053794e-07	-1.490919e-08	-3.578713e+00	-9.868252e+02
7.900000e-07	-3.776976e-07	-1.448296e-08	-2.674568e+00	-9.583049e+02
8.000000e-07	-2.498624e-07	-1.402464e-08	-1.769336e+00	-9.264087e+02
8.100000e-07	-1.219361e-07	-1.352643e-08	-8.634591e-01	-8.912965e+02
8.200000e-07	6.061279e-09	-1.298642e-08	4.292138e-02	-8.534369e+02
8.300000e-07	1.341500e-07	-1.239984e-08	9.499485e-01	-8.133559e+02
8.400000e-07	2.622794e-07	-1.175734e-08	1.857264e+00	-7.712946e+02
8.500000e-07	3.903088e-07	-1.104788e-08	2.763870e+00	-7.268623e+02
8.600000e-07	5.182138e-07	-1.025654e-08	3.669597e+00	-6.787910e+02
8.700000e-07	6.459938e-07	-9.369529e-09	4.574438e+00	-6.248825e+02
8.800000e-07	7.735588e-07	-8.368981e-09	5.477756e+00	-5.622041e+02
8.900000e-07	9.008606e-07	-7.225290e-09	6.379211e+00	-4.875260e+02
9.000000e-07	1.027902e-06	-5.901053e-09	7.278821e+00	-3.979387e+02
9.100000e-07	1.154635e-06	-4.350406e-09	8.176247e+00	-2.915294e+02
9.200000e-07	1.280914e-06	-2.527768e-09	9.070464e+00	-1.679742e+02
9.300000e-07	1.406702e-06	-4.137972e-10	9.961196e+00	-2.890534e+01
9.400000e-07	1.532046e-06	1.930201e-09	1.084879e+01	1.220448e+02
9.500000e-07	1.656991e-06	4.372266e-09	1.173355e+01	2.795594e+02
9.600000e-07	1.781527e-06	6.818633e-09	1.261542e+01	4.372705e+02
9.700000e-07	1.905414e-06	9.179314e-09	1.349270e+01	5.885984e+02
9.800000e-07	2.028448e-06	1.130432e-08	1.436393e+01	7.276418e+02
9.900000e-07	2.150605e-06	1.309670e-08	1.522895e+01	8.499480e+02
1.000000e-06	2.271943e-06	1.455714e-08	1.608818e+01	9.530195e+02
1.010000e-06	2.392415e-06	1.573217e-08	1.694127e+01	1.036473e+03
1.020000e-06	2.511861e-06	1.667771e-08	1.778709e+01	1.101838e+03
1.030000e-06	2.630363e-06	1.744411e-08	1.862623e+01	1.152050e+03
1.040000e-06	2.747952e-06	1.807324e-08	1.945891e+01	1.190783e+03
1.050000e-06	2.864528e-06	1.859569e-08	2.028442e+01	1.221733e+03
1.060000e-06	2.979919e-06	1.903639e-08	2.110152e+01	1.248037e+03
1.070000e-06	3.094021e-06	1.941733e-08	2.190951e+01	1.271893e+03
1.080000e-06	3.206961e-06	1.975476e-08	2.270927e+01	1.294456e+03
1.090000e-06	3.318679e-06	2.005473e-08	2.350037e+01	1.315975e+03
1.100000e-06	3.429212e-06	2.032037e-08	2.428308e+01	1.336100e+03
1.110000e-06	3.538600e-06	2.055819e-08	2.505768e+01	1.354262e+03
1.120000e-06	3.646859e-06	2.077473e-08	2.582429e+01	1.370014e+03
1.130000e-06	3.753894e-06	2.097519e-08	2.658223e+01	1.383262e+03
1.140000e-06	3.859578e-06	2.116173e-08	2.733060e+01	1.394322e+03
1.150000e-06	3.963853e-06	2.133730e-08	2.806900e+01	1.403842e+03
1.160000e-06	4.066620e-06	2.150393e-08	2.879672e+01	1.412611e+03
1.170000e-06	4.168016e-06	2.165912e-08	2.951473e+01	1.421340e+03
1.180000e-06	4.268098e-06	2.180511e-08	3.022343e+01	1.430476e+03
1.190000e-06	4.366570e-06	2.194277e-08	3.092073e+01	1.440109e+03
1.200000e-06	4.463342e-06	2.207237e-08	3.160600e+01	1.449996e+03
1.210000e-06	4.558499e-06	2.219313e-08	3.227983e+01	1.459670e+03
1.220000e-06	4.652066e-06	2.230594e-08	3.294240e+01	1.468620e+03
1.230000e-06	4.744135e-06	2.241402e-08	3.359437e+01	1.476457e+03
1.240000e-06	4.834543e-06	2.251653e-08	3.423457e+01	1.483037e+03
1.250000e-06	4.923097e-06	2.261511e-08	3.486164e+01	1.488499e+03
1.260000e-06	5.009813e-06	2.271088e-08	3.547570e+01	1.493214e+03
1.270000e-06	5.094812e-06	2.280166e-08	3.607759e+01	1.497664e+03
1.280000e-06	5.178082e-06	2.288596e-08	3.666725e+01	1.502297e+03
1.290000e-06	5.259448e-06	2.296660e-08	3.724342e+01	1.507401e+03
1.300000e-06	5.338793e-06	2.304426e-08	3.780528e+01	1.513026e+03
1.310000e-06	5.416158e-06	2.311896e-08	3.835312e+01	1.518994e+03
1.320000e-06	5.491545e-06	2.319023e-08	3.888696e+01	1.524965e+03
1.330000e-06	5.564810e-06	2.325939e-08	3.940577e+01	1.530558e+03
1.340000e-06	5.635946e-06	2.332781e-08	3.990949e+01	1.535470e+03
1.350000e-06	5.705035e-06	2.339402e-08	4.039873e+01	1.539572e+03
1.360000e-06	5.772085e-06	2.345614e-08	4.087352e+01	1.542936e+03
1.370000e-06	5.837046e-06	2.351490e-08	4.133353e+01	1.545809e+03
1.380000e-06	5.899956e-06	2.357252e-08	4.177901e+01	1.548525e+03
1.390000e-06	5.960963e-06	2.362832e-08	4.221102e+01	1.551400e+03
1.400000e-06	6.020061e-06	2.368146e-08	4.262950e+01	1.554633e+03
1.410000e-06	6.076949e-06	2.373054e-08	4.303234e+01	1.558247e+03
1.420000e-06	6.131561e-06	2.377603e-08	4.341906e+01	1.562088e+03
1.430000e-06	6.183904e-06	2.381982e-08	4.378971e+01	1.565883e+03
1.440000e-06	6.233675e-06	2.386103e-08	4.414216e+01	1.569325e+03
1.450000e-06	6.280937e-06	2.389904e-08	4.447683e+01	1.572173e+03
1.460000e-06	6.326059e-06	2.393372e-08	4.479635e+01	1.574326e+03
1.470000e-06	6.369056e-06	2.396476e-08	4.510082e+01	1.575853e+03
1.480000e-06	6.409728e-06	2.399371e-08	4.538883e+01	1.576965e+03
1.490000e-06	6.448147e-06	2.402339e-08	4.566089e+01	1.577950e+03
1.500000e-06	6.484433e-06	2.405330e-08	4.591784e+01	1.579080e+03
1.510000e-06	6.518384e-06	2.407941e-08	4.615825e+01	1.580528e+03
1.520000e-06	6.549899e-06	2.410130e-08	4.638142e+01	1.582320e+03
1.530000e-06	6.579213e-06	2.412034e-08	4.658900e+01	1.584326e+03
1.540000e-06	6.606341e-06	2.413689e-08	4.678109e+01	1.586308e+03
1.550000e-06	6.630961e-06	2.415122e-08	4.695543e+01	1.588001e+03
1.560000e-06	6.653116e-06	2.416450e-08	4.711232e+01	1.589189e+03
1.570000e-06	6.673039e-06	2.417706e-08	4.725340e+01	1.589780e+03
1.580000e-06	6.690580e-06	2.418947e-08	4.737761e+01	1.589833e+03
1.590000e-06	6.705607e-06	2.420134e-08	4.748402e+01	1.589533e+03
1.600000e-06	6.718184e-06	2.421050e-08	4.757308e+01	1.589137e+03
1.610000e-06	6.728131e-06	2.421684e-08	4.764352e+01	1.588890e+03
1.620000e-06	6.735454e-06	2.422070e-08	4.769538e+01	1.588951e+03
1.630000e-06	6.740444e-06	2.422309e-08	4.773071e+01	1.589341e+03
1.640000e-06	6.743078e-06	2.422434e-08	4.774937e+01	1.589940e+03
1.650000e-06	6.743274e-06	2.422472e-08	4.775075e+01	1.590526e+03
1.660000e-06	6.741169e-06	2.421679e-08	4.773585e+01	1.590844e+03
1.670000e-06	6.736942e-06	2.420806e-08	4.770591e+01	1.590684e+03
1.680000e-06	6.730459e-06	2.420100e-08	4.766000e+01	1.589952e+03
1.690000e-06	6.721733e-06	2.419213e-08	4.759821e+01	1.588694e+03
1.700000e-06	6.710895e-06	2.418349e-08	4.752147e+01	1.587083e+03
1.710000e-06	6.697735e-06	2.417813e-08	4.742827e+01	1.585370e+03
1.720000e-06	6.682217e-06	2.417508e-08	4.731839e+01	1.583802e+03
1.730000e-06	6.664652e-06	2.410726e-08	4.719401e+01	1.582553e+03
1.740000e-06	6.644878e-06	2.401048e-08	4.705399e+01	1.581671e+03
1.750000e-06	6.622005e-06	2.403072e-08	4.689201e+01	1.581065e+03
1.760000e-06	6.595961e-06	2.404928e-08	4.670759e+01	1.580538e+03
1.770000e-06	6.567483e-06	2.404309e-08	4.650593e+01	1.579846e+03
1.780000e-06	6.536915e-06	2.414019e-08	4.628948e+01	1.578774e+03
1.790000e-06	6.504831e-06	2.407231e-08	4.606228e+01	1.577199e+03
1.800000e-06	6.471320e-06	2.393380e-08	4.582498e+01	1.575121e+03
1.810000e-06	6.435532e-06	2.399152e-08	4.557155e+01	1.572657e+03
1.820000e-06	6.397364e-06	2.389190e-08	4.530128e+01	1.569999e+03
1.830000e-06	6.357015e-06	2.389872e-08	4.501556e+01	1.567346e+03
1.840000e-06	6.314386e-06	2.396346e-08	4.471369e+01	1.564839e+03
1.850000e-06	6.269663e-06	2.380526e-08	4.439700e+01	1.562513e+03
1.860000e-06	6.222651e-06	2.384471e-08	4.406409e+01	1.560292e+03
1.870000e-06	6.173296e-06	2.377321e-08	4.371460e+01	1.558009e+03
1.880000e-06	6.121688e-06	2.367023e-08	4.334915e+01	1.555466e+03
1.890000e-06	6.067412e-06	2.367714e-08	4.296481e+01	1.552503e+03
1.900000e-06	6.010664e-06	2.356816e-08	4.256296e+01	1.549045e+03
1.910000e-06	5.951754e-06	2.360559e-08	4.214581e+01	1.545138e+03
1.920000e-06	5.890707e-06	2.354298e-08	4.171352e+01	1.540926e+03
1.930000e-06	5.827485e-06	2.343545e-08	4.126583e+01	1.536611e+03
1.940000e-06	5.762007e-06	2.339481e-08	4.080216e+01	1.532383e+03
1.950000e-06	5.694449e-06	2.329773e-08	4.032377e+01	1.528355e+03
1.960000e-06	5.624686e-06	2.330094e-08	3.982976e+01	1.524525e+03
1.970000e-06	5.552675e-06	2.319400e-08	3.931983e+01	1.520767e+03
1.980000e-06	5.478615e-06	2.313258e-08	3.879539e+01	1.516873e+03
1.990000e-06	5.402492e-06	2.307557e-08	3.825635e+01	1.512613e+03
2.000000e-06	5.324241e-06	2.295536e-08	3.770223e+01	1.507811e+03
2.010000e-06	5.243923e-06	2.290111e-08	3.713348e+01	1.502406e+03
2.020000e-06	5.161784e-06	2.280975e-08	3.655184e+01	1.496470e+03
2.030000e-06	5.077918e-06	2.277198e-08	3.595796e+01	1.490194e+03
2.040000e-06	4.992256e-06	2.268485e-08	3.535137e+01	1.483827e+03
2.050000e-06	4.904705e-06	2.258272e-08	3.473140e+01	1.477601e+03
2.060000e-06	4.815429e-06	2.248840e-08	3.409922e+01	1.471649e+03
2.070000e-06	4.724651e-06	2.238341e-08	3.345639e+01	1.465963e+03
2.080000e-06	4.632309e-06	2.229116e-08	3.280250e+01	1.460385e+03
2.090000e-06	4.538304e-06	2.217242e-08	3.213682e+01	1.454654e+03
2.100000e-06	4.442541e-06	2.208136e-08	3.145870e+01	1.448481e+03
2.110000e-06	4.345269e-06	2.198180e-08	3.076990e+01	1.441639e+03
2.120000e-06	4.246644e-06	2.187861e-08	3.007151e+01	1.434035e+03
2.130000e-06	4.146544e-06	2.175962e-08	2.936268e+01	1.425745e+03
2.140000e-06	4.044891e-06	2.163890e-08	2.864285e+01	1.416988e+03
2.150000e-06	3.941615e-06	2.152063e-08	2.791153e+01	1.408066e+03
2.160000e-06	3.836810e-06	2.139669e-08	2.716938e+01	1.399262e+03
2.170000e-06	3.730679e-06	2.127164e-08	2.641784e+01	1.390752e+03
2.180000e-06	3.623338e-06	2.113201e-08	2.565773e+01	1.382536e+03
2.190000e-06	3.514764e-06	2.099131e-08	2.488889e+01	1.374432e+03
2.200000e-06	3.404906e-06	2.084552e-08	2.411096e+01	1.366120e+03
2.210000e-06	3.293628e-06	2.070484e-08	2.332298e+01	1.357235e+03
2.220000e-06	3.181055e-06	2.055995e-08	2.252582e+01	1.347477e+03
2.230000e-06	3.067323e-06	2.041176e-08	2.172045e+01	1.336706e+03
2.240000e-06	2.952360e-06	2.025160e-08	2.090637e+01	1.324985e+03
2.250000e-06	2.836257e-06	2.007810e-08	2.008422e+01	1.312566e+03
2.260000e-06	2.719016e-06	1.989646e-08	1.925401e+01	1.299811e+03
2.270000e-06	2.600601e-06	1.971418e-08	1.841548e+01	1.287073e+03
2.280000e-06	2.481075e-06	1.952964e-08	1.756909e+01	1.274576e+03
2.290000e-06	2.360622e-06	1.933393e-08	1.671613e+01	1.262328e+03
2.300000e-06	2.239417e-06	1.912860e-08	1.585785e+01	1.250098e+03
2.310000e-06	2.117557e-06	1.891369e-08	1.499493e+01	1.237470e+03
2.320000e-06	1.995026e-06	1.869276e-08	1.412726e+01	1.223958e+03
2.330000e-06	1.871787e-06	1.846055e-08	1.325458e+01	1.209144e+03
2.340000e-06	1.747916e-06	1.821924e-08	1.237741e+01	1.192810e+03
2.350000e-06	1.623501e-06	1.797023e-08	1.149640e+01	1.175003e+03
2.360000e-06	1.498545e-06	1.771090e-08	1.061156e+01	1.156022e+03
2.370000e-06	1.373084e-06	1.743488e-08	9.723136e+00	1.136314e+03
2.380000e-06	1.247175e-06	1.714073e-08	8.831549e+00	1.116317e+03
2.390000e-06	1.120786e-06	1.683256e-08	7.936557e+00	1.096284e+03
2.400000e-06	9.940031e-07	1.650707e-08	7.038776e+00	1.076150e+03
2.410000e-06	8.668683e-07	1.616557e-08	6.138503e+00	1.055497e+03
2.420000e-06	7.393933e-07	1.580501e-08	5.235822e+00	1.033611e+03
2.430000e-06	6.116543e-07	1.542057e-08	4.331272e+00	1.009650e+03
2.440000e-06	4.836433e-07	1.500832e-08	3.424795e+00	9.828623e+02
2.450000e-06	3.554009e-07	1.456538e-08	2.516680e+00	9.527824e+02
2.460000e-06	2.269983e-07	1.409039e-08	1.607430e+00	9.193521e+02
2.470000e-06	9.847303e-08	1.357573e-08	6.973113e-01	8.828972e+02
2.480000e-06	-3.008479e-08	1.301619e-08	-2.130377e-01	8.439515e+02
2.490000e-06	-1.586018e-07	1.240474e-08	-1.123097e+00	8.029540e+02
2.500000e-06	-2.870626e-07	1.173408e-08	-2.032760e+00	7.598918e+02
2.510000e-06	-4.154315e-07	1.099569e-08	-2.941771e+00	7.139875e+02
2.520000e-06	-5.437044e-07	1.017511e-08	-3.850102e+00	6.635335e+02
2.530000e-06	-6.718595e-07	9.253230e-09	-4.757600e+00	6.059507e+02
2.540000e-06	-7.997482e-07	8.204893e-09	-5.663210e+00	5.381008e+02
2.550000e-06	-9.272367e-07	6.998688e-09	-6.565987e+00	4.568194e+02
2.560000e-06	-1.054306e-06	5.593652e-09	-7.465796e+00	3.595771e+02
2.570000e-06	-1.180964e-06	3.943595e-09	-8.362692e+00	2.451359e+02
2.580000e-06	-1.307133e-06	2.010799e-09	-9.256123e+00	1.140523e+02
2.590000e-06	-1.432822e-06	-2.085752e-10	-1.014616e+01	-3.109630e+01
2.600000e-06	-1.558075e-06	-2.636392e-09	-1.103311e+01	-1.858351e+02
2.610000e-06	-1.682755e-06	-5.143550e-09	-1.191599e+01	-3.442648e+02
2.620000e-06	-1.806756e-06	-7.623692e-09	-1.279407e+01	-4.998075e+02
2.630000e-06	-1.929994e-06	-9.943969e-09	-1.366675e+01	-6.460915e+02
2.640000e-06	-2.052389e-06	-1.196718e-08	-1.453346e+01	-7.778053e+02
2.650000e-06	-2.174023e-06	-1.364697e-08	-1.539478e+01	-8.913608e+02
2.660000e-06	-2.294993e-06	-1.500771e-08	-1.625140e+01	-9.852452e+02
2.670000e-06	-2.415205e-06	-1.610199e-08	-1.710265e+01	-1.060008e+03
2.680000e-06	-2.534433e-06	-1.698552e-08	-1.794693e+01	-1.117909e+03
2.690000e-06	-2.652547e-06	-1.770536e-08	-1.878333e+01	-1.162316e+03
2.700000e-06	-2.769532e-06	-1.829830e-08	-1.961173e+01	-1.196996e+03
2.710000e-06	-2.885371e-06	-1.879212e-08	-2.043201e+01	-1.225448e+03
2.720000e-06	-3.000037e-06	-1.920994e-08	-2.124398e+01	-1.250404e+03
2.730000e-06	-3.113436e-06	-1.957108e-08	-2.204699e+01	-1.273575e+03
2.740000e-06	-3.225617e-06	-1.988847e-08	-2.284137e+01	-1.295665e+03
2.750000e-06	-3.336538e-06	-2.017076e-08	-2.362683e+01	-1.316601e+03
2.760000e-06	-3.446162e-06	-2.042512e-08	-2.440311e+01	-1.335883e+03
2.770000e-06	-3.554690e-06	-2.065780e-08	-2.517162e+01	-1.352962e+03
2.780000e-06	-3.662120e-06	-2.087232e-08	-2.593235e+01	-1.367536e+03
2.790000e-06	-3.768342e-06	-2.106729e-08	-2.668454e+01	-1.379703e+03
2.800000e-06	-3.873310e-06	-2.124432e-08	-2.742784e+01	-1.389951e+03
2.810000e-06	-3.976866e-06	-2.140888e-08	-2.816115e+01	-1.399022e+03
2.820000e-06	-4.078903e-06	-2.156566e-08	-2.888370e+01	-1.407696e+03
2.830000e-06	-4.179470e-06	-2.171599e-08	-2.959583e+01	-1.416577e+03
2.840000e-06	-4.278564e-06	-2.185952e-08	-3.029754e+01	-1.425952e+03
2.850000e-06	-4.376185e-06	-2.199401e-08	-3.098882e+01	-1.435748e+03
2.860000e-06	-4.472298e-06	-2.212019e-08	-3.166942e+01	-1.445599e+03
2.870000e-06	-4.566785e-06	-2.223987e-08	-3.233850e+01	-1.454996e+03
2.880000e-06	-4.659589e-06	-2.235366e-08	-3.299567e+01	-1.463462e+03
2.890000e-06	-4.750747e-06	-2.246000e-08	-3.364119e+01	-1.470714e+03
2.900000e-06	-4.840256e-06	-2.255745e-08	-3.427502e+01	-1.476740e+03
2.910000e-06	-4.927944e-06	-2.264880e-08	-3.489596e+01	-1.481797e+03
2.920000e-06	-5.013747e-06	-2.273622e-08	-3.550355e+01	-1.486325e+03
2.930000e-06	-5.097733e-06	-2.282102e-08	-3.609828e+01	-1.490810e+03
2.940000e-06	-5.179991e-06	-2.290462e-08	-3.668076e+01	-1.495638e+03
