# Temperatura_=_69.96
# Concentracion g/m^3_=_41000.0
# C_Vs_to_Am_M_A/Vsm_=_65563218390.804596
# pendiente_HvsI_1/m_=_3716.3
# ordenada_HvsI_A/m_=_1297.0
# frecuencia_Hz_=_302014.7265191435

Tiempo_(s)	Campo_(V.s)	Magnetizacion_(V.s)	Campo_(kA/m)	Magnetizacion_(A/m)
0.000000e+00	-6.742921e-06	-2.206102e-08	-4.746286e+01	-1.446815e+03
1.000000e-08	-6.739905e-06	-2.205561e-08	-4.744163e+01	-1.446938e+03
2.000000e-08	-6.734615e-06	-2.204836e-08	-4.740440e+01	-1.446547e+03
3.000000e-08	-6.727204e-06	-2.204105e-08	-4.735223e+01	-1.445631e+03
4.000000e-08	-6.717536e-06	-2.203065e-08	-4.728418e+01	-1.444312e+03
5.000000e-08	-6.705424e-06	-2.201939e-08	-4.719893e+01	-1.442814e+03
6.000000e-08	-6.690797e-06	-2.200817e-08	-4.709597e+01	-1.441387e+03
7.000000e-08	-6.673771e-06	-2.200265e-08	-4.697612e+01	-1.440237e+03
8.000000e-08	-6.654618e-06	-2.202616e-08	-4.684130e+01	-1.439463e+03
9.000000e-08	-6.633220e-06	-2.203128e-08	-4.669069e+01	-1.439026e+03
1.000000e-07	-6.609109e-06	-2.199505e-08	-4.652097e+01	-1.438764e+03
1.100000e-07	-6.582281e-06	-2.195344e-08	-4.633213e+01	-1.438440e+03
1.200000e-07	-6.553116e-06	-2.191817e-08	-4.612684e+01	-1.437820e+03
1.300000e-07	-6.521982e-06	-2.185096e-08	-4.590769e+01	-1.436733e+03
1.400000e-07	-6.489088e-06	-2.182790e-08	-4.567615e+01	-1.435129e+03
1.500000e-07	-6.454218e-06	-2.186980e-08	-4.543071e+01	-1.433085e+03
1.600000e-07	-6.417267e-06	-2.182835e-08	-4.517061e+01	-1.430776e+03
1.700000e-07	-6.378321e-06	-2.181163e-08	-4.489647e+01	-1.428420e+03
1.800000e-07	-6.337102e-06	-2.180063e-08	-4.460633e+01	-1.426202e+03
1.900000e-07	-6.293404e-06	-2.174666e-08	-4.429875e+01	-1.424220e+03
2.000000e-07	-6.247387e-06	-2.171998e-08	-4.397484e+01	-1.422454e+03
2.100000e-07	-6.198990e-06	-2.168246e-08	-4.363417e+01	-1.420772e+03
2.200000e-07	-6.147965e-06	-2.166161e-08	-4.327502e+01	-1.418976e+03
2.300000e-07	-6.094397e-06	-2.161454e-08	-4.289795e+01	-1.416870e+03
2.400000e-07	-6.038459e-06	-2.154743e-08	-4.250421e+01	-1.414318e+03
2.500000e-07	-5.980235e-06	-2.151323e-08	-4.209438e+01	-1.411293e+03
2.600000e-07	-5.919821e-06	-2.147422e-08	-4.166913e+01	-1.407885e+03
2.700000e-07	-5.857265e-06	-2.143371e-08	-4.122880e+01	-1.404271e+03
2.800000e-07	-5.792577e-06	-2.138554e-08	-4.077347e+01	-1.400655e+03
2.900000e-07	-5.725682e-06	-2.134092e-08	-4.030260e+01	-1.397204e+03
3.000000e-07	-5.656593e-06	-2.128408e-08	-3.981629e+01	-1.393988e+03
3.100000e-07	-5.585426e-06	-2.121212e-08	-3.931535e+01	-1.390957e+03
3.200000e-07	-5.512198e-06	-2.117023e-08	-3.879991e+01	-1.387950e+03
3.300000e-07	-5.436753e-06	-2.111621e-08	-3.826885e+01	-1.384745e+03
3.400000e-07	-5.359034e-06	-2.105657e-08	-3.772179e+01	-1.381132e+03
3.500000e-07	-5.279130e-06	-2.099397e-08	-3.715936e+01	-1.376976e+03
3.600000e-07	-5.197231e-06	-2.092240e-08	-3.658288e+01	-1.372265e+03
3.700000e-07	-5.113634e-06	-2.085219e-08	-3.599445e+01	-1.367116e+03
3.800000e-07	-5.028408e-06	-2.077488e-08	-3.539454e+01	-1.361739e+03
3.900000e-07	-4.941546e-06	-2.070182e-08	-3.478313e+01	-1.356373e+03
4.000000e-07	-4.853009e-06	-2.062424e-08	-3.415993e+01	-1.351208e+03
4.100000e-07	-4.762705e-06	-2.054822e-08	-3.352428e+01	-1.346320e+03
4.200000e-07	-4.670742e-06	-2.046678e-08	-3.287696e+01	-1.341647e+03
4.300000e-07	-4.577198e-06	-2.038139e-08	-3.221852e+01	-1.336995e+03
4.400000e-07	-4.482065e-06	-2.029774e-08	-3.154888e+01	-1.332102e+03
4.500000e-07	-4.385249e-06	-2.020867e-08	-3.086741e+01	-1.326715e+03
4.600000e-07	-4.286761e-06	-2.011654e-08	-3.017415e+01	-1.320669e+03
4.700000e-07	-4.186733e-06	-2.001575e-08	-2.947006e+01	-1.313938e+03
4.800000e-07	-4.085294e-06	-1.991629e-08	-2.875604e+01	-1.306652e+03
4.900000e-07	-3.982471e-06	-1.981477e-08	-2.803228e+01	-1.299050e+03
5.000000e-07	-3.878108e-06	-1.970796e-08	-2.729768e+01	-1.291407e+03
5.100000e-07	-3.772266e-06	-1.959670e-08	-2.655267e+01	-1.283947e+03
5.200000e-07	-3.664998e-06	-1.948257e-08	-2.579761e+01	-1.276757e+03
5.300000e-07	-3.556332e-06	-1.936233e-08	-2.503272e+01	-1.269759e+03
5.400000e-07	-3.446440e-06	-1.923441e-08	-2.425920e+01	-1.262718e+03
5.500000e-07	-3.335406e-06	-1.910641e-08	-2.347765e+01	-1.255311e+03
5.600000e-07	-3.223080e-06	-1.897457e-08	-2.268699e+01	-1.247218e+03
5.700000e-07	-3.109337e-06	-1.883739e-08	-2.188636e+01	-1.238226e+03
5.800000e-07	-2.994218e-06	-1.869194e-08	-2.107605e+01	-1.228293e+03
5.900000e-07	-2.877805e-06	-1.854183e-08	-2.025663e+01	-1.217563e+03
6.000000e-07	-2.760293e-06	-1.838732e-08	-1.942947e+01	-1.206325e+03
6.100000e-07	-2.641839e-06	-1.822730e-08	-1.859568e+01	-1.194922e+03
6.200000e-07	-2.522501e-06	-1.805958e-08	-1.775568e+01	-1.183628e+03
6.300000e-07	-2.402179e-06	-1.788286e-08	-1.690874e+01	-1.172559e+03
6.400000e-07	-2.280903e-06	-1.769857e-08	-1.605509e+01	-1.161611e+03
6.500000e-07	-2.158877e-06	-1.750769e-08	-1.519615e+01	-1.150479e+03
6.600000e-07	-2.036152e-06	-1.730967e-08	-1.433230e+01	-1.138730e+03
6.700000e-07	-1.912645e-06	-1.710201e-08	-1.346295e+01	-1.125931e+03
6.800000e-07	-1.788324e-06	-1.688626e-08	-1.258786e+01	-1.111775e+03
6.900000e-07	-1.663366e-06	-1.666088e-08	-1.170829e+01	-1.096177e+03
7.000000e-07	-1.537895e-06	-1.642326e-08	-1.082512e+01	-1.079299e+03
7.100000e-07	-1.412012e-06	-1.617293e-08	-9.939036e+00	-1.061501e+03
7.200000e-07	-1.285802e-06	-1.591166e-08	-9.050652e+00	-1.043206e+03
7.300000e-07	-1.159168e-06	-1.563680e-08	-8.159288e+00	-1.024751e+03
7.400000e-07	-1.032103e-06	-1.534406e-08	-7.264890e+00	-1.006234e+03
7.500000e-07	-9.046995e-07	-1.503154e-08	-6.368105e+00	-9.874292e+02
7.600000e-07	-7.769693e-07	-1.469890e-08	-5.469022e+00	-9.677979e+02
7.700000e-07	-6.489202e-07	-1.434701e-08	-4.567696e+00	-9.465966e+02
7.800000e-07	-5.205731e-07	-1.397401e-08	-3.664271e+00	-9.230579e+02
7.900000e-07	-3.920045e-07	-1.357531e-08	-2.759287e+00	-8.965915e+02
8.000000e-07	-2.632875e-07	-1.314556e-08	-1.853259e+00	-8.669396e+02
8.100000e-07	-1.344488e-07	-1.268040e-08	-9.463739e-01	-8.342264e+02
8.200000e-07	-5.522772e-09	-1.217569e-08	-3.887433e-02	-7.988689e+02
8.300000e-07	1.234598e-07	-1.162576e-08	8.690233e-01	-7.613529e+02
8.400000e-07	2.524215e-07	-1.102364e-08	1.776774e+00	-7.219215e+02
8.500000e-07	3.813265e-07	-1.036115e-08	2.684126e+00	-6.802566e+02
8.600000e-07	5.101494e-07	-9.624619e-09	3.590899e+00	-6.352494e+02
8.700000e-07	6.387850e-07	-8.799211e-09	4.496355e+00	-5.849436e+02
8.800000e-07	7.672097e-07	-7.868550e-09	5.400325e+00	-5.267050e+02
8.900000e-07	8.953802e-07	-6.808584e-09	6.302507e+00	-4.576135e+02
9.000000e-07	1.023150e-06	-5.584545e-09	7.201870e+00	-3.750205e+02
9.100000e-07	1.150476e-06	-4.156361e-09	8.098107e+00	-2.771655e+02
9.200000e-07	1.277364e-06	-2.489249e-09	8.991263e+00	-1.637187e+02
9.300000e-07	1.403840e-06	-5.682228e-10	9.881513e+00	-3.612191e+01
9.400000e-07	1.529956e-06	1.579093e-09	1.076923e+01	1.023633e+02
9.500000e-07	1.655644e-06	3.866557e-09	1.165394e+01	2.469353e+02
9.600000e-07	1.780789e-06	6.165782e-09	1.253483e+01	3.918227e+02
9.700000e-07	1.905304e-06	8.338031e-09	1.341128e+01	5.310449e+02
9.800000e-07	2.029096e-06	1.027354e-08	1.428264e+01	6.592212e+02
9.900000e-07	2.152065e-06	1.191956e-08	1.514821e+01	7.722736e+02
1.000000e-06	2.274181e-06	1.327596e-08	1.600777e+01	8.678917e+02
1.010000e-06	2.395479e-06	1.437784e-08	1.686158e+01	9.456813e+02
1.020000e-06	2.515874e-06	1.527150e-08	1.770903e+01	1.006985e+03
1.030000e-06	2.635151e-06	1.599993e-08	1.854861e+01	1.054428e+03
1.040000e-06	2.753389e-06	1.659950e-08	1.938088e+01	1.091310e+03
1.050000e-06	2.870713e-06	1.709779e-08	2.020671e+01	1.120960e+03
1.060000e-06	2.986965e-06	1.751712e-08	2.102500e+01	1.146206e+03
1.070000e-06	3.101965e-06	1.787659e-08	2.183447e+01	1.169035e+03
1.080000e-06	3.215758e-06	1.819141e-08	2.263545e+01	1.190495e+03
1.090000e-06	3.328388e-06	1.847034e-08	2.342825e+01	1.210821e+03
1.100000e-06	3.439689e-06	1.872061e-08	2.421169e+01	1.229712e+03
1.110000e-06	3.549803e-06	1.894738e-08	2.498677e+01	1.246677e+03
1.120000e-06	3.658851e-06	1.915365e-08	2.575435e+01	1.261339e+03
1.130000e-06	3.766653e-06	1.934217e-08	2.651316e+01	1.273637e+03
1.140000e-06	3.873109e-06	1.951438e-08	2.726249e+01	1.283884e+03
1.150000e-06	3.978154e-06	1.967389e-08	2.800190e+01	1.292683e+03
1.160000e-06	4.081699e-06	1.982374e-08	2.873074e+01	1.300757e+03
1.170000e-06	4.183791e-06	1.996434e-08	2.944936e+01	1.308748e+03
1.180000e-06	4.284439e-06	2.009728e-08	3.015781e+01	1.317054e+03
1.190000e-06	4.383572e-06	2.022212e-08	3.085560e+01	1.325748e+03
1.200000e-06	4.481119e-06	2.033643e-08	3.154223e+01	1.334601e+03
1.210000e-06	4.576985e-06	2.044258e-08	3.221702e+01	1.343194e+03
1.220000e-06	4.671224e-06	2.054206e-08	3.288036e+01	1.351071e+03
1.230000e-06	4.763892e-06	2.063581e-08	3.353264e+01	1.357901e+03
1.240000e-06	4.854878e-06	2.072395e-08	3.417308e+01	1.363580e+03
1.250000e-06	4.944086e-06	2.080875e-08	3.480101e+01	1.368263e+03
1.260000e-06	5.031475e-06	2.089092e-08	3.541613e+01	1.372307e+03
1.270000e-06	5.117097e-06	2.096888e-08	3.601882e+01	1.376166e+03
1.280000e-06	5.200974e-06	2.104263e-08	3.660922e+01	1.380244e+03
1.290000e-06	5.282990e-06	2.111455e-08	3.718653e+01	1.384791e+03
1.300000e-06	5.363025e-06	2.118463e-08	3.774989e+01	1.389829e+03
1.310000e-06	5.441054e-06	2.125119e-08	3.829913e+01	1.395169e+03
1.320000e-06	5.517113e-06	2.131422e-08	3.883450e+01	1.400479e+03
1.330000e-06	5.591055e-06	2.137430e-08	3.935497e+01	1.405395e+03
1.340000e-06	5.662780e-06	2.143163e-08	3.985984e+01	1.409637e+03
1.350000e-06	5.732505e-06	2.148547e-08	4.035062e+01	1.413093e+03
1.360000e-06	5.800259e-06	2.153686e-08	4.082754e+01	1.415844e+03
1.370000e-06	5.865877e-06	2.158624e-08	4.128942e+01	1.418135e+03
1.380000e-06	5.929366e-06	2.163317e-08	4.173631e+01	1.420288e+03
1.390000e-06	5.990872e-06	2.167828e-08	4.216925e+01	1.422603e+03
1.400000e-06	6.050451e-06	2.172142e-08	4.258862e+01	1.425266e+03
1.410000e-06	6.107909e-06	2.176116e-08	4.299307e+01	1.428294e+03
1.420000e-06	6.163144e-06	2.179874e-08	4.338186e+01	1.431539e+03
1.430000e-06	6.216052e-06	2.183411e-08	4.375427e+01	1.434738e+03
1.440000e-06	6.266407e-06	2.186449e-08	4.410872e+01	1.437607e+03
1.450000e-06	6.314234e-06	2.189218e-08	4.444537e+01	1.439921e+03
1.460000e-06	6.359867e-06	2.191950e-08	4.476657e+01	1.441596e+03
1.470000e-06	6.403389e-06	2.194535e-08	4.507293e+01	1.442704e+03
1.480000e-06	6.444598e-06	2.197024e-08	4.536299e+01	1.443454e+03
1.490000e-06	6.483465e-06	2.199457e-08	4.563657e+01	1.444118e+03
1.500000e-06	6.520140e-06	2.201771e-08	4.589472e+01	1.444955e+03
1.510000e-06	6.554516e-06	2.203814e-08	4.613670e+01	1.446123e+03
1.520000e-06	6.586482e-06	2.205568e-08	4.636170e+01	1.447637e+03
1.530000e-06	6.616217e-06	2.207134e-08	4.657100e+01	1.449367e+03
1.540000e-06	6.643709e-06	2.208427e-08	4.676451e+01	1.451083e+03
1.550000e-06	6.668713e-06	2.209579e-08	4.694052e+01	1.452529e+03
1.560000e-06	6.691235e-06	2.210876e-08	4.709904e+01	1.453507e+03
1.570000e-06	6.711510e-06	2.212130e-08	4.724176e+01	1.453934e+03
1.580000e-06	6.729424e-06	2.213323e-08	4.736786e+01	1.453873e+03
1.590000e-06	6.744772e-06	2.214345e-08	4.747589e+01	1.453506e+03
1.600000e-06	6.757565e-06	2.214934e-08	4.756594e+01	1.453082e+03
1.610000e-06	6.767710e-06	2.215266e-08	4.763735e+01	1.452833e+03
1.620000e-06	6.775253e-06	2.215442e-08	4.769044e+01	1.452904e+03
1.630000e-06	6.780482e-06	2.215711e-08	4.772725e+01	1.453307e+03
1.640000e-06	6.783395e-06	2.215974e-08	4.774775e+01	1.453920e+03
1.650000e-06	6.783821e-06	2.215880e-08	4.775075e+01	1.454524e+03
1.660000e-06	6.781927e-06	2.215455e-08	4.773742e+01	1.454872e+03
1.670000e-06	6.777886e-06	2.214905e-08	4.770898e+01	1.454769e+03
1.680000e-06	6.771535e-06	2.214370e-08	4.766428e+01	1.454129e+03
1.690000e-06	6.762939e-06	2.213692e-08	4.760377e+01	1.453005e+03
1.700000e-06	6.752237e-06	2.212763e-08	4.752843e+01	1.451574e+03
1.710000e-06	6.739227e-06	2.211764e-08	4.743686e+01	1.450081e+03
1.720000e-06	6.723835e-06	2.210079e-08	4.732852e+01	1.448765e+03
1.730000e-06	6.706356e-06	2.204135e-08	4.720548e+01	1.447787e+03
1.740000e-06	6.686668e-06	2.200085e-08	4.706690e+01	1.447185e+03
1.750000e-06	6.663946e-06	2.200428e-08	4.690696e+01	1.446857e+03
1.760000e-06	6.638046e-06	2.200567e-08	4.672466e+01	1.446600e+03
1.770000e-06	6.609614e-06	2.201933e-08	4.652452e+01	1.446167e+03
1.780000e-06	6.579103e-06	2.205506e-08	4.630976e+01	1.445347e+03
1.790000e-06	6.547013e-06	2.201770e-08	4.608388e+01	1.444020e+03
1.800000e-06	6.513394e-06	2.199123e-08	4.584724e+01	1.442198e+03
1.810000e-06	6.477499e-06	2.195536e-08	4.559458e+01	1.440007e+03
1.820000e-06	6.439150e-06	2.190958e-08	4.532464e+01	1.437651e+03
1.830000e-06	6.398658e-06	2.193355e-08	4.503962e+01	1.435342e+03
1.840000e-06	6.356050e-06	2.186677e-08	4.473971e+01	1.433231e+03
1.850000e-06	6.311349e-06	2.180856e-08	4.442506e+01	1.431361e+03
1.860000e-06	6.264323e-06	2.178692e-08	4.409405e+01	1.429658e+03
1.870000e-06	6.214893e-06	2.172023e-08	4.374612e+01	1.427951e+03
1.880000e-06	6.163154e-06	2.171431e-08	4.338193e+01	1.426036e+03
1.890000e-06	6.108800e-06	2.168014e-08	4.299934e+01	1.423736e+03
1.900000e-06	6.051961e-06	2.163971e-08	4.259925e+01	1.420962e+03
1.910000e-06	5.992903e-06	2.163210e-08	4.218355e+01	1.417744e+03
1.920000e-06	5.931624e-06	2.155614e-08	4.175221e+01	1.414217e+03
1.930000e-06	5.868163e-06	2.150434e-08	4.130551e+01	1.410579e+03
1.940000e-06	5.802504e-06	2.145574e-08	4.084334e+01	1.407026e+03
1.950000e-06	5.734694e-06	2.143884e-08	4.036604e+01	1.403685e+03
1.960000e-06	5.664568e-06	2.138201e-08	3.987242e+01	1.400571e+03
1.970000e-06	5.592219e-06	2.129017e-08	3.936317e+01	1.397578e+03
1.980000e-06	5.517892e-06	2.124803e-08	3.883998e+01	1.394510e+03
1.990000e-06	5.441424e-06	2.118186e-08	3.830173e+01	1.391141e+03
2.000000e-06	5.362814e-06	2.112862e-08	3.774840e+01	1.387288e+03
2.010000e-06	5.282223e-06	2.106247e-08	3.718113e+01	1.382870e+03
2.020000e-06	5.199826e-06	2.100409e-08	3.660114e+01	1.377936e+03
2.030000e-06	5.115610e-06	2.094201e-08	3.600835e+01	1.372653e+03
2.040000e-06	5.029508e-06	2.085591e-08	3.540229e+01	1.367255e+03
2.050000e-06	4.941607e-06	2.078635e-08	3.478356e+01	1.361966e+03
2.060000e-06	4.852010e-06	2.071128e-08	3.415290e+01	1.356931e+03
2.070000e-06	4.760891e-06	2.064336e-08	3.351151e+01	1.352161e+03
2.080000e-06	4.668113e-06	2.055484e-08	3.285846e+01	1.347530e+03
2.090000e-06	4.573561e-06	2.046984e-08	3.219291e+01	1.342802e+03
2.100000e-06	4.477373e-06	2.038295e-08	3.151586e+01	1.337710e+03
2.110000e-06	4.379715e-06	2.029416e-08	3.082845e+01	1.332032e+03
2.120000e-06	4.280693e-06	2.020329e-08	3.013144e+01	1.325663e+03
2.130000e-06	4.180130e-06	2.010209e-08	2.942359e+01	1.318653e+03
2.140000e-06	4.077949e-06	2.000590e-08	2.870435e+01	1.311188e+03
2.150000e-06	3.974162e-06	1.989893e-08	2.797380e+01	1.303536e+03
2.160000e-06	3.868923e-06	1.979460e-08	2.723303e+01	1.295959e+03
2.170000e-06	3.762438e-06	1.968562e-08	2.648349e+01	1.288625e+03
2.180000e-06	3.654686e-06	1.957664e-08	2.572503e+01	1.281547e+03
2.190000e-06	3.545609e-06	1.945731e-08	2.495725e+01	1.274568e+03
2.200000e-06	3.435231e-06	1.933546e-08	2.418031e+01	1.267401e+03
2.210000e-06	3.323483e-06	1.920956e-08	2.339372e+01	1.259713e+03
2.220000e-06	3.210389e-06	1.907663e-08	2.259766e+01	1.251222e+03
2.230000e-06	3.096080e-06	1.893631e-08	2.179305e+01	1.241789e+03
2.240000e-06	2.980493e-06	1.878908e-08	2.097944e+01	1.231459e+03
2.250000e-06	2.863634e-06	1.863987e-08	2.015688e+01	1.220454e+03
2.260000e-06	2.745693e-06	1.848311e-08	1.932671e+01	1.209100e+03
2.270000e-06	2.626683e-06	1.832344e-08	1.848900e+01	1.197723e+03
2.280000e-06	2.506524e-06	1.815577e-08	1.764322e+01	1.186534e+03
2.290000e-06	2.385452e-06	1.798087e-08	1.679100e+01	1.175550e+03
2.300000e-06	2.263655e-06	1.779570e-08	1.593368e+01	1.164567e+03
2.310000e-06	2.141178e-06	1.760386e-08	1.507157e+01	1.153207e+03
2.320000e-06	2.018057e-06	1.740393e-08	1.420493e+01	1.141022e+03
2.330000e-06	1.894216e-06	1.719554e-08	1.333323e+01	1.127621e+03
2.340000e-06	1.769591e-06	1.697711e-08	1.245600e+01	1.112793e+03
2.350000e-06	1.644281e-06	1.674742e-08	1.157396e+01	1.096569e+03
2.360000e-06	1.518427e-06	1.650563e-08	1.068808e+01	1.079213e+03
2.370000e-06	1.392176e-06	1.625007e-08	9.799411e+00	1.061135e+03
2.380000e-06	1.265571e-06	1.598255e-08	8.908246e+00	1.042738e+03
2.390000e-06	1.138488e-06	1.570209e-08	8.013725e+00	1.024263e+03
2.400000e-06	1.010884e-06	1.540571e-08	7.115531e+00	1.005663e+03
2.410000e-06	8.829193e-07	1.509073e-08	6.214796e+00	9.865592e+02
2.420000e-06	7.546796e-07	1.475569e-08	5.312127e+00	9.662998e+02
2.430000e-06	6.261796e-07	1.439691e-08	4.407626e+00	9.441045e+02
2.440000e-06	4.975220e-07	1.401363e-08	3.502016e+00	9.192645e+02
2.450000e-06	3.686632e-07	1.360428e-08	2.594990e+00	8.913298e+02
2.460000e-06	2.396094e-07	1.316397e-08	1.686591e+00	8.602217e+02
2.470000e-06	1.104440e-07	1.268568e-08	7.774064e-01	8.262203e+02
2.480000e-06	-1.876635e-08	1.216385e-08	-1.320948e-01	7.898093e+02
2.490000e-06	-1.479258e-07	1.159083e-08	-1.041238e+00	7.514030e+02
2.500000e-06	-2.770189e-07	1.096122e-08	-1.949913e+00	7.110206e+02
2.510000e-06	-4.060636e-07	1.026904e-08	-2.858248e+00	6.679965e+02
2.520000e-06	-5.350066e-07	9.500411e-09	-3.765867e+00	6.208224e+02
2.530000e-06	-6.637806e-07	8.638625e-09	-4.672297e+00	5.671920e+02
2.540000e-06	-7.923844e-07	7.661943e-09	-5.577528e+00	5.042776e+02
2.550000e-06	-9.207370e-07	6.541771e-09	-6.480991e+00	4.292092e+02
2.560000e-06	-1.048708e-06	5.243043e-09	-7.381769e+00	3.396754e+02
2.570000e-06	-1.176242e-06	3.727934e-09	-8.279472e+00	2.345219e+02
2.580000e-06	-1.303310e-06	1.967716e-09	-9.173892e+00	1.142151e+02
2.590000e-06	-1.429860e-06	-4.189266e-11	-1.006467e+01	-1.894418e+01
2.600000e-06	-1.555922e-06	-2.256466e-09	-1.095200e+01	-1.609254e+02
2.610000e-06	-1.681475e-06	-4.573065e-09	-1.183576e+01	-3.063912e+02
2.620000e-06	-1.806374e-06	-6.852787e-09	-1.271492e+01	-4.493719e+02
2.630000e-06	-1.930508e-06	-8.961479e-09	-1.358869e+01	-5.840679e+02
2.640000e-06	-2.053787e-06	-1.080803e-08	-1.445644e+01	-7.056276e+02
2.650000e-06	-2.176199e-06	-1.235980e-08	-1.531808e+01	-8.107540e+02
2.660000e-06	-2.297849e-06	-1.363031e-08	-1.617437e+01	-8.980283e+02
2.670000e-06	-2.418780e-06	-1.466114e-08	-1.702559e+01	-9.679036e+02
2.680000e-06	-2.538831e-06	-1.549943e-08	-1.787062e+01	-1.022387e+03
2.690000e-06	-2.657775e-06	-1.618437e-08	-1.870786e+01	-1.064499e+03
2.700000e-06	-2.775603e-06	-1.674818e-08	-1.953724e+01	-1.097627e+03
2.710000e-06	-2.892391e-06	-1.721693e-08	-2.035930e+01	-1.124924e+03
2.720000e-06	-3.007980e-06	-1.761345e-08	-2.117292e+01	-1.148856e+03
2.730000e-06	-3.122246e-06	-1.795684e-08	-2.197723e+01	-1.170972e+03
2.740000e-06	-3.235257e-06	-1.825943e-08	-2.277270e+01	-1.191914e+03
2.750000e-06	-3.346971e-06	-1.852792e-08	-2.355905e+01	-1.211629e+03
2.760000e-06	-3.457322e-06	-1.876932e-08	-2.433581e+01	-1.229684e+03
2.770000e-06	-3.566487e-06	-1.898920e-08	-2.510421e+01	-1.245608e+03
2.780000e-06	-3.674588e-06	-1.918873e-08	-2.586512e+01	-1.259155e+03
2.790000e-06	-3.781510e-06	-1.936829e-08	-2.661774e+01	-1.270439e+03
2.800000e-06	-3.887187e-06	-1.953146e-08	-2.736159e+01	-1.279924e+03
2.810000e-06	-3.991513e-06	-1.968328e-08	-2.809593e+01	-1.288295e+03
2.820000e-06	-4.094358e-06	-1.982628e-08	-2.881984e+01	-1.296260e+03
2.830000e-06	-4.195667e-06	-1.996281e-08	-2.953295e+01	-1.304365e+03
2.840000e-06	-4.295377e-06	-2.009345e-08	-3.023480e+01	-1.312860e+03
2.850000e-06	-4.393618e-06	-2.021708e-08	-3.092631e+01	-1.321669e+03
2.860000e-06	-4.490436e-06	-2.033302e-08	-3.160781e+01	-1.330458e+03
2.870000e-06	-4.585621e-06	-2.043883e-08	-3.227780e+01	-1.338769e+03
2.880000e-06	-4.679126e-06	-2.053698e-08	-3.293598e+01	-1.346187e+03
2.890000e-06	-4.770985e-06	-2.062728e-08	-3.358257e+01	-1.352477e+03
2.900000e-06	-4.861168e-06	-2.071084e-08	-3.421736e+01	-1.357658e+03
2.910000e-06	-4.949591e-06	-2.078988e-08	-3.483976e+01	-1.361989e+03
2.920000e-06	-5.036141e-06	-2.086624e-08	-3.544898e+01	-1.365888e+03
2.930000e-06	-5.120777e-06	-2.094223e-08	-3.604473e+01	-1.369804e+03
2.940000e-06	-5.203570e-06	-2.101838e-08	-3.662750e+01	-1.374079e+03
