# Temperatura_=_63.5
# Concentracion g/m^3_=_41000.0
# C_Vs_to_Am_M_A/Vsm_=_65563218390.804596
# pendiente_HvsI_1/m_=_3716.3
# ordenada_HvsI_A/m_=_1297.0
# frecuencia_Hz_=_302011.68619334156

Tiempo_(s)	Campo_(V.s)	Magnetizacion_(V.s)	Campo_(kA/m)	Magnetizacion_(A/m)
0.000000e+00	-6.702724e-06	-2.284464e-08	-4.746595e+01	-1.497906e+03
1.000000e-08	-6.699663e-06	-2.283998e-08	-4.744428e+01	-1.498128e+03
2.000000e-08	-6.694388e-06	-2.283097e-08	-4.740692e+01	-1.497862e+03
3.000000e-08	-6.687063e-06	-2.282232e-08	-4.735505e+01	-1.497064e+03
4.000000e-08	-6.677425e-06	-2.281139e-08	-4.728680e+01	-1.495826e+03
5.000000e-08	-6.665276e-06	-2.279840e-08	-4.720076e+01	-1.494351e+03
6.000000e-08	-6.650637e-06	-2.278469e-08	-4.709709e+01	-1.492886e+03
7.000000e-08	-6.633613e-06	-2.277115e-08	-4.697653e+01	-1.491650e+03
8.000000e-08	-6.614499e-06	-2.279866e-08	-4.684118e+01	-1.490766e+03
9.000000e-08	-6.593115e-06	-2.283793e-08	-4.668975e+01	-1.490224e+03
1.000000e-07	-6.569001e-06	-2.278513e-08	-4.651898e+01	-1.489885e+03
1.100000e-07	-6.542196e-06	-2.272411e-08	-4.632916e+01	-1.489525e+03
1.200000e-07	-6.513133e-06	-2.270380e-08	-4.612335e+01	-1.488905e+03
1.300000e-07	-6.482188e-06	-2.261669e-08	-4.590421e+01	-1.487845e+03
1.400000e-07	-6.449515e-06	-2.255488e-08	-4.567283e+01	-1.486273e+03
1.500000e-07	-6.414909e-06	-2.268521e-08	-4.542777e+01	-1.484249e+03
1.600000e-07	-6.378189e-06	-2.261896e-08	-4.516773e+01	-1.481937e+03
1.700000e-07	-6.339475e-06	-2.254593e-08	-4.489358e+01	-1.479554e+03
1.800000e-07	-6.298423e-06	-2.262237e-08	-4.460286e+01	-1.477299e+03
1.900000e-07	-6.254831e-06	-2.248995e-08	-4.429416e+01	-1.475284e+03
2.000000e-07	-6.208994e-06	-2.247141e-08	-4.396956e+01	-1.473507e+03
2.100000e-07	-6.160833e-06	-2.248866e-08	-4.362851e+01	-1.471844e+03
2.200000e-07	-6.110092e-06	-2.241910e-08	-4.326918e+01	-1.470096e+03
2.300000e-07	-6.056828e-06	-2.238924e-08	-4.289198e+01	-1.468052e+03
2.400000e-07	-6.001251e-06	-2.232697e-08	-4.249841e+01	-1.465556e+03
2.500000e-07	-5.943354e-06	-2.228736e-08	-4.208840e+01	-1.462559e+03
2.600000e-07	-5.883199e-06	-2.225509e-08	-4.166241e+01	-1.459135e+03
2.700000e-07	-5.820974e-06	-2.221123e-08	-4.122176e+01	-1.455457e+03
2.800000e-07	-5.756626e-06	-2.216616e-08	-4.076607e+01	-1.451740e+03
2.900000e-07	-5.690045e-06	-2.210513e-08	-4.029457e+01	-1.448170e+03
3.000000e-07	-5.621308e-06	-2.206684e-08	-3.980781e+01	-1.444844e+03
3.100000e-07	-5.550465e-06	-2.198541e-08	-3.930613e+01	-1.441733e+03
3.200000e-07	-5.477512e-06	-2.193597e-08	-3.878950e+01	-1.438688e+03
3.300000e-07	-5.402391e-06	-2.189213e-08	-3.825753e+01	-1.435487e+03
3.400000e-07	-5.325068e-06	-2.181575e-08	-3.770996e+01	-1.431902e+03
3.500000e-07	-5.245599e-06	-2.176147e-08	-3.714719e+01	-1.427776e+03
3.600000e-07	-5.164126e-06	-2.168785e-08	-3.657023e+01	-1.423069e+03
3.700000e-07	-5.080884e-06	-2.162065e-08	-3.598075e+01	-1.417883e+03
3.800000e-07	-4.996012e-06	-2.154487e-08	-3.537971e+01	-1.412422e+03
3.900000e-07	-4.909585e-06	-2.147046e-08	-3.476768e+01	-1.406936e+03
4.000000e-07	-4.821539e-06	-2.138862e-08	-3.414417e+01	-1.401638e+03
4.100000e-07	-4.731720e-06	-2.130948e-08	-3.350811e+01	-1.396630e+03
4.200000e-07	-4.640135e-06	-2.123613e-08	-3.285954e+01	-1.391871e+03
4.300000e-07	-4.546980e-06	-2.114829e-08	-3.219986e+01	-1.387175e+03
4.400000e-07	-4.452369e-06	-2.106222e-08	-3.152986e+01	-1.382273e+03
4.500000e-07	-4.356105e-06	-2.097251e-08	-3.084816e+01	-1.376886e+03
4.600000e-07	-4.258174e-06	-2.087659e-08	-3.015465e+01	-1.370815e+03
4.700000e-07	-4.158699e-06	-2.077336e-08	-2.945021e+01	-1.364007e+03
4.800000e-07	-4.057758e-06	-2.067317e-08	-2.873538e+01	-1.356571e+03
4.900000e-07	-3.955456e-06	-2.056958e-08	-2.801092e+01	-1.348747e+03
5.000000e-07	-3.851721e-06	-2.045825e-08	-2.727631e+01	-1.340833e+03
5.100000e-07	-3.746498e-06	-2.034386e-08	-2.653117e+01	-1.333087e+03
5.200000e-07	-3.639836e-06	-2.022681e-08	-2.577583e+01	-1.325643e+03
5.300000e-07	-3.531849e-06	-2.010459e-08	-2.501111e+01	-1.318453e+03
5.400000e-07	-3.422620e-06	-1.997688e-08	-2.423759e+01	-1.311297e+03
5.500000e-07	-3.312205e-06	-1.984899e-08	-2.345568e+01	-1.303841e+03
5.600000e-07	-3.200589e-06	-1.971649e-08	-2.266526e+01	-1.295732e+03
5.700000e-07	-3.087684e-06	-1.957553e-08	-2.186572e+01	-1.286704e+03
5.800000e-07	-2.973460e-06	-1.942595e-08	-2.105683e+01	-1.276666e+03
5.900000e-07	-2.857904e-06	-1.927304e-08	-2.023851e+01	-1.265727e+03
6.000000e-07	-2.741128e-06	-1.911381e-08	-1.941155e+01	-1.254169e+03
6.100000e-07	-2.623328e-06	-1.894770e-08	-1.857734e+01	-1.242353e+03
6.200000e-07	-2.504634e-06	-1.877468e-08	-1.773680e+01	-1.230603e+03
6.300000e-07	-2.385081e-06	-1.859398e-08	-1.689017e+01	-1.219091e+03
6.400000e-07	-2.264651e-06	-1.840546e-08	-1.603733e+01	-1.207766e+03
6.500000e-07	-2.143366e-06	-1.821045e-08	-1.517844e+01	-1.196350e+03
6.600000e-07	-2.021257e-06	-1.800745e-08	-1.431371e+01	-1.184408e+03
6.700000e-07	-1.898309e-06	-1.779464e-08	-1.344305e+01	-1.171465e+03
6.800000e-07	-1.774600e-06	-1.757358e-08	-1.256699e+01	-1.157151e+03
6.900000e-07	-1.650319e-06	-1.734280e-08	-1.168689e+01	-1.141312e+03
7.000000e-07	-1.525568e-06	-1.710041e-08	-1.080345e+01	-1.124055e+03
7.100000e-07	-1.400332e-06	-1.684245e-08	-9.916578e+00	-1.105719e+03
7.200000e-07	-1.274670e-06	-1.657194e-08	-9.026693e+00	-1.086753e+03
7.300000e-07	-1.148662e-06	-1.628775e-08	-8.134353e+00	-1.067554e+03
7.400000e-07	-1.022355e-06	-1.598636e-08	-7.239904e+00	-1.048303e+03
7.500000e-07	-8.957389e-07	-1.566678e-08	-6.343257e+00	-1.028857e+03
7.600000e-07	-7.687820e-07	-1.532829e-08	-5.444200e+00	-1.008727e+03
7.700000e-07	-6.415481e-07	-1.496899e-08	-4.543181e+00	-9.871744e+02
7.800000e-07	-5.140667e-07	-1.458642e-08	-3.640410e+00	-9.633820e+02
7.900000e-07	-3.863577e-07	-1.417883e-08	-2.736027e+00	-9.366691e+02
8.000000e-07	-2.584803e-07	-1.374200e-08	-1.830452e+00	-9.066736e+02
8.100000e-07	-1.304730e-07	-1.327037e-08	-9.239567e-01	-8.734378e+02
8.200000e-07	-2.374412e-09	-1.275881e-08	-1.681461e-02	-8.373531e+02
8.300000e-07	1.257494e-07	-1.220279e-08	8.905059e-01	-7.989586e+02
8.400000e-07	2.538420e-07	-1.159473e-08	1.797606e+00	-7.586301e+02
8.500000e-07	3.818801e-07	-1.092605e-08	2.704319e+00	-7.162382e+02
8.600000e-07	5.098039e-07	-1.018430e-08	3.610223e+00	-6.708727e+02
8.700000e-07	6.375686e-07	-9.356248e-09	4.515000e+00	-6.207288e+02
8.800000e-07	7.651280e-07	-8.427065e-09	5.418324e+00	-5.632187e+02
8.900000e-07	8.924237e-07	-7.373369e-09	6.319780e+00	-4.953241e+02
9.000000e-07	1.019372e-06	-6.161870e-09	7.218778e+00	-4.141411e+02
9.100000e-07	1.145907e-06	-4.750220e-09	8.114847e+00	-3.175196e+02
9.200000e-07	1.272125e-06	-3.099846e-09	9.008672e+00	-2.046620e+02
9.300000e-07	1.397985e-06	-1.185851e-09	9.899961e+00	-7.654489e+01
9.400000e-07	1.523363e-06	9.775751e-10	1.078783e+01	6.394625e+01
9.500000e-07	1.648250e-06	3.315248e-09	1.167223e+01	2.122196e+02
9.600000e-07	1.772680e-06	5.703926e-09	1.255339e+01	3.624986e+02
9.700000e-07	1.896573e-06	7.997943e-09	1.343075e+01	5.085737e+02
9.800000e-07	2.019701e-06	1.007153e-08	1.430270e+01	6.446438e+02
9.900000e-07	2.141925e-06	1.185362e-08	1.516824e+01	7.660870e+02
1.000000e-06	2.263266e-06	1.333377e-08	1.602752e+01	8.700156e+02
1.010000e-06	2.383757e-06	1.454235e-08	1.688080e+01	9.555168e+02
1.020000e-06	2.503316e-06	1.552415e-08	1.772746e+01	1.023549e+03
1.030000e-06	2.621902e-06	1.632472e-08	1.856724e+01	1.076534e+03
1.040000e-06	2.739563e-06	1.698403e-08	1.940047e+01	1.117754e+03
1.050000e-06	2.856237e-06	1.753261e-08	2.022670e+01	1.150683e+03
1.060000e-06	2.971797e-06	1.799481e-08	2.104505e+01	1.178393e+03
1.070000e-06	3.086066e-06	1.839211e-08	2.185426e+01	1.203152e+03
1.080000e-06	3.199033e-06	1.874110e-08	2.265424e+01	1.226262e+03
1.090000e-06	3.310757e-06	1.905019e-08	2.344543e+01	1.248134e+03
1.100000e-06	3.421312e-06	1.932409e-08	2.422834e+01	1.268552e+03
1.110000e-06	3.530787e-06	1.956734e-08	2.500359e+01	1.287019e+03
1.120000e-06	3.639145e-06	1.978680e-08	2.577094e+01	1.303095e+03
1.130000e-06	3.746297e-06	1.998717e-08	2.652974e+01	1.316635e+03
1.140000e-06	3.852071e-06	2.017122e-08	2.727879e+01	1.327883e+03
1.150000e-06	3.956370e-06	2.034237e-08	2.801739e+01	1.337418e+03
1.160000e-06	4.059233e-06	2.050373e-08	2.874583e+01	1.345994e+03
1.170000e-06	4.160747e-06	2.065367e-08	2.946471e+01	1.354327e+03
1.180000e-06	4.260858e-06	2.079341e-08	3.017365e+01	1.362912e+03
1.190000e-06	4.359464e-06	2.092459e-08	3.087194e+01	1.371911e+03
1.200000e-06	4.456425e-06	2.104640e-08	3.155858e+01	1.381156e+03
1.210000e-06	4.551629e-06	2.116035e-08	3.223278e+01	1.390241e+03
1.220000e-06	4.645221e-06	2.126650e-08	3.289556e+01	1.398680e+03
1.230000e-06	4.737357e-06	2.136588e-08	3.354803e+01	1.406076e+03
1.240000e-06	4.827889e-06	2.145800e-08	3.418914e+01	1.412253e+03
1.250000e-06	4.916544e-06	2.154495e-08	3.481695e+01	1.417304e+03
1.260000e-06	5.003348e-06	2.162880e-08	3.543166e+01	1.421557e+03
1.270000e-06	5.088441e-06	2.171091e-08	3.603426e+01	1.425474e+03
1.280000e-06	5.171859e-06	2.178973e-08	3.662499e+01	1.429509e+03
1.290000e-06	5.253413e-06	2.186498e-08	3.720252e+01	1.433977e+03
1.300000e-06	5.332948e-06	2.193567e-08	3.776576e+01	1.438969e+03
1.310000e-06	5.410559e-06	2.200298e-08	3.831537e+01	1.444348e+03
1.320000e-06	5.486160e-06	2.206795e-08	3.885075e+01	1.449801e+03
1.330000e-06	5.559508e-06	2.212958e-08	3.937016e+01	1.454949e+03
1.340000e-06	5.630705e-06	2.218849e-08	3.987435e+01	1.459470e+03
1.350000e-06	5.699950e-06	2.224320e-08	4.036472e+01	1.463195e+03
1.360000e-06	5.767229e-06	2.229483e-08	4.084116e+01	1.466156e+03
1.370000e-06	5.832417e-06	2.234561e-08	4.130280e+01	1.468564e+03
1.380000e-06	5.895508e-06	2.239632e-08	4.174958e+01	1.470742e+03
1.390000e-06	5.956648e-06	2.244401e-08	4.218255e+01	1.473015e+03
1.400000e-06	6.015796e-06	2.248807e-08	4.260141e+01	1.475610e+03
1.410000e-06	6.072724e-06	2.252951e-08	4.300455e+01	1.478595e+03
1.420000e-06	6.127449e-06	2.256634e-08	4.339209e+01	1.481858e+03
1.430000e-06	6.179919e-06	2.259954e-08	4.376366e+01	1.485155e+03
1.440000e-06	6.229871e-06	2.263051e-08	4.411740e+01	1.488187e+03
1.450000e-06	6.277362e-06	2.266074e-08	4.445371e+01	1.490700e+03
1.460000e-06	6.322679e-06	2.269001e-08	4.477463e+01	1.492565e+03
1.470000e-06	6.365901e-06	2.271783e-08	4.508071e+01	1.493812e+03
1.480000e-06	6.406734e-06	2.274461e-08	4.536987e+01	1.494623e+03
1.490000e-06	6.445242e-06	2.276973e-08	4.564257e+01	1.495270e+03
1.500000e-06	6.481653e-06	2.279219e-08	4.590042e+01	1.496029e+03
1.510000e-06	6.515769e-06	2.281163e-08	4.614202e+01	1.497098e+03
1.520000e-06	6.547472e-06	2.282941e-08	4.636652e+01	1.498534e+03
1.530000e-06	6.576959e-06	2.284591e-08	4.657534e+01	1.500242e+03
1.540000e-06	6.604230e-06	2.286055e-08	4.676846e+01	1.502010e+03
1.550000e-06	6.629016e-06	2.287328e-08	4.694398e+01	1.503576e+03
1.560000e-06	6.651307e-06	2.288482e-08	4.710184e+01	1.504716e+03
1.570000e-06	6.671397e-06	2.289587e-08	4.724411e+01	1.505310e+03
1.580000e-06	6.689147e-06	2.290740e-08	4.736981e+01	1.505380e+03
1.590000e-06	6.704291e-06	2.291938e-08	4.747705e+01	1.505083e+03
1.600000e-06	6.716956e-06	2.292963e-08	4.756674e+01	1.504657e+03
1.610000e-06	6.727025e-06	2.293552e-08	4.763804e+01	1.504347e+03
1.620000e-06	6.734479e-06	2.293826e-08	4.769083e+01	1.504327e+03
1.630000e-06	6.739636e-06	2.294092e-08	4.772735e+01	1.504647e+03
1.640000e-06	6.742496e-06	2.294345e-08	4.774760e+01	1.505215e+03
1.650000e-06	6.742940e-06	2.294585e-08	4.775075e+01	1.505833e+03
1.660000e-06	6.741052e-06	2.293908e-08	4.773737e+01	1.506255e+03
1.670000e-06	6.737080e-06	2.293214e-08	4.770925e+01	1.506267e+03
1.680000e-06	6.730793e-06	2.292671e-08	4.766473e+01	1.505754e+03
1.690000e-06	6.722141e-06	2.292021e-08	4.760345e+01	1.504735e+03
1.700000e-06	6.711377e-06	2.291420e-08	4.752723e+01	1.503360e+03
1.710000e-06	6.698311e-06	2.291024e-08	4.743471e+01	1.501861e+03
1.720000e-06	6.682935e-06	2.291022e-08	4.732582e+01	1.500482e+03
1.730000e-06	6.665495e-06	2.284833e-08	4.720232e+01	1.499405e+03
1.740000e-06	6.645916e-06	2.276454e-08	4.706366e+01	1.498692e+03
1.750000e-06	6.623365e-06	2.278667e-08	4.690396e+01	1.498270e+03
1.760000e-06	6.597574e-06	2.279966e-08	4.672132e+01	1.497954e+03
1.770000e-06	6.569264e-06	2.279120e-08	4.652085e+01	1.497504e+03
1.780000e-06	6.538869e-06	2.288875e-08	4.630560e+01	1.496699e+03
1.790000e-06	6.506903e-06	2.281565e-08	4.607923e+01	1.495405e+03
1.800000e-06	6.473475e-06	2.269844e-08	4.584250e+01	1.493611e+03
1.810000e-06	6.437794e-06	2.277525e-08	4.558983e+01	1.491430e+03
1.820000e-06	6.399738e-06	2.269527e-08	4.532033e+01	1.489060e+03
1.830000e-06	6.359546e-06	2.272204e-08	4.503571e+01	1.486718e+03
1.840000e-06	6.317147e-06	2.273831e-08	4.473545e+01	1.484570e+03
1.850000e-06	6.272711e-06	2.255846e-08	4.442077e+01	1.482676e+03
1.860000e-06	6.226010e-06	2.260311e-08	4.409006e+01	1.480976e+03
1.870000e-06	6.176871e-06	2.253949e-08	4.374208e+01	1.479303e+03
1.880000e-06	6.125453e-06	2.249041e-08	4.337796e+01	1.477444e+03
1.890000e-06	6.071404e-06	2.251020e-08	4.299520e+01	1.475207e+03
1.900000e-06	6.014881e-06	2.239699e-08	4.259493e+01	1.472479e+03
1.910000e-06	5.956185e-06	2.242693e-08	4.217927e+01	1.469271e+03
1.920000e-06	5.895293e-06	2.236038e-08	4.174805e+01	1.465706e+03
1.930000e-06	5.832233e-06	2.229750e-08	4.130149e+01	1.461985e+03
1.940000e-06	5.766886e-06	2.227487e-08	4.083873e+01	1.458320e+03
1.950000e-06	5.699432e-06	2.219500e-08	4.036105e+01	1.454861e+03
1.960000e-06	5.629798e-06	2.219025e-08	3.986793e+01	1.451649e+03
1.970000e-06	5.557909e-06	2.207188e-08	3.935884e+01	1.448595e+03
1.980000e-06	5.483973e-06	2.203565e-08	3.883525e+01	1.445510e+03
1.990000e-06	5.407948e-06	2.199438e-08	3.829688e+01	1.442159e+03
2.000000e-06	5.329825e-06	2.190833e-08	3.774364e+01	1.438339e+03
2.010000e-06	5.249640e-06	2.186420e-08	3.717581e+01	1.433942e+03
2.020000e-06	5.167608e-06	2.176753e-08	3.659489e+01	1.428995e+03
2.030000e-06	5.083847e-06	2.172508e-08	3.600173e+01	1.423653e+03
2.040000e-06	4.998260e-06	2.164426e-08	3.539563e+01	1.418153e+03
2.050000e-06	4.910835e-06	2.157488e-08	3.477652e+01	1.412736e+03
2.060000e-06	4.821697e-06	2.149928e-08	3.414529e+01	1.407570e+03
2.070000e-06	4.731018e-06	2.141875e-08	3.350314e+01	1.402695e+03
2.080000e-06	4.638753e-06	2.134372e-08	3.284975e+01	1.397998e+03
2.090000e-06	4.544771e-06	2.124098e-08	3.218421e+01	1.393245e+03
2.100000e-06	4.449046e-06	2.115885e-08	3.150633e+01	1.388152e+03
2.110000e-06	4.351838e-06	2.106543e-08	3.081794e+01	1.382467e+03
2.120000e-06	4.253333e-06	2.097778e-08	3.012036e+01	1.376053e+03
2.130000e-06	4.153372e-06	2.087276e-08	2.941248e+01	1.368933e+03
2.140000e-06	4.051790e-06	2.077056e-08	2.869312e+01	1.361283e+03
2.150000e-06	3.948504e-06	2.066396e-08	2.796169e+01	1.353383e+03
2.160000e-06	3.843725e-06	2.055599e-08	2.721969e+01	1.345524e+03
2.170000e-06	3.737686e-06	2.044963e-08	2.646877e+01	1.337914e+03
2.180000e-06	3.630482e-06	2.033408e-08	2.570959e+01	1.330607e+03
2.190000e-06	3.522034e-06	2.021422e-08	2.494161e+01	1.323472e+03
2.200000e-06	3.412349e-06	2.008424e-08	2.416486e+01	1.316225e+03
2.210000e-06	3.301338e-06	1.995658e-08	2.337872e+01	1.308509e+03
2.220000e-06	3.188911e-06	1.982182e-08	2.258257e+01	1.300000e+03
2.230000e-06	3.075287e-06	1.968233e-08	2.177793e+01	1.290505e+03
2.240000e-06	2.960503e-06	1.953189e-08	2.096507e+01	1.280025e+03
2.250000e-06	2.844462e-06	1.937680e-08	2.014331e+01	1.268760e+03
2.260000e-06	2.727238e-06	1.921369e-08	1.931318e+01	1.257039e+03
2.270000e-06	2.608949e-06	1.904894e-08	1.847551e+01	1.245222e+03
2.280000e-06	2.489500e-06	1.887959e-08	1.762962e+01	1.233576e+03
2.290000e-06	2.369066e-06	1.869960e-08	1.677676e+01	1.222174e+03
2.300000e-06	2.247913e-06	1.851071e-08	1.591880e+01	1.210856e+03
2.310000e-06	2.126056e-06	1.831272e-08	1.505586e+01	1.199258e+03
2.320000e-06	2.003541e-06	1.810919e-08	1.418826e+01	1.186910e+03
2.330000e-06	1.880421e-06	1.789533e-08	1.331637e+01	1.173368e+03
2.340000e-06	1.756666e-06	1.767000e-08	1.243999e+01	1.158352e+03
2.350000e-06	1.632257e-06	1.743289e-08	1.155898e+01	1.141828e+03
2.360000e-06	1.507279e-06	1.718565e-08	1.067394e+01	1.124020e+03
2.370000e-06	1.381861e-06	1.692479e-08	9.785774e+00	1.105338e+03
2.380000e-06	1.256023e-06	1.665053e-08	8.894643e+00	1.086226e+03
2.390000e-06	1.129772e-06	1.636392e-08	8.000582e+00	1.067001e+03
2.400000e-06	1.003045e-06	1.605805e-08	7.103152e+00	1.047701e+03
2.410000e-06	8.758103e-07	1.573271e-08	6.202131e+00	1.028019e+03
2.420000e-06	7.481905e-07	1.538709e-08	5.298379e+00	1.007333e+03
2.430000e-06	6.203236e-07	1.501962e-08	4.392878e+00	9.848413e+02
2.440000e-06	4.922499e-07	1.462870e-08	3.485913e+00	9.597643e+02
2.450000e-06	3.639729e-07	1.421050e-08	2.577507e+00	9.315509e+02
2.460000e-06	2.355883e-07	1.376147e-08	1.668340e+00	9.000239e+02
2.470000e-06	1.071369e-07	1.327459e-08	7.586994e-01	8.654040e+02
2.480000e-06	-2.138436e-08	1.274513e-08	-1.514353e-01	8.281843e+02
2.490000e-06	-1.499231e-07	1.216427e-08	-1.061694e+00	7.888706e+02
2.500000e-06	-2.784159e-07	1.152775e-08	-1.971628e+00	7.476452e+02
2.510000e-06	-4.068037e-07	1.083045e-08	-2.880818e+00	7.040424e+02
2.520000e-06	-5.351002e-07	1.006043e-08	-3.789361e+00	6.567383e+02
2.530000e-06	-6.632652e-07	9.201196e-09	-4.696973e+00	6.035356e+02
2.540000e-06	-7.912357e-07	8.229546e-09	-5.603208e+00	5.415895e+02
2.550000e-06	-9.188663e-07	7.118692e-09	-6.507036e+00	4.678583e+02
2.560000e-06	-1.046086e-06	5.836084e-09	-7.407956e+00	3.797078e+02
2.570000e-06	-1.172909e-06	4.341424e-09	-8.306064e+00	2.755490e+02
2.580000e-06	-1.299195e-06	2.597708e-09	-9.200370e+00	1.553712e+02
2.590000e-06	-1.424926e-06	5.886394e-10	-1.009075e+01	2.104047e+01
2.600000e-06	-1.550195e-06	-1.656769e-09	-1.097785e+01	-1.237196e+02
2.610000e-06	-1.674969e-06	-4.044521e-09	-1.186145e+01	-2.736856e+02
2.620000e-06	-1.799055e-06	-6.432536e-09	-1.274017e+01	-4.227773e+02
2.630000e-06	-1.922330e-06	-8.673621e-09	-1.361315e+01	-5.648707e+02
2.640000e-06	-2.044849e-06	-1.065780e-08	-1.448079e+01	-6.946264e+02
2.650000e-06	-2.166600e-06	-1.233957e-08	-1.534298e+01	-8.081761e+02
2.660000e-06	-2.287587e-06	-1.372752e-08	-1.619976e+01	-9.035404e+02
2.670000e-06	-2.407804e-06	-1.485974e-08	-1.705109e+01	-9.807079e+02
2.680000e-06	-2.527067e-06	-1.578309e-08	-1.789565e+01	-1.041382e+03
2.690000e-06	-2.645256e-06	-1.653883e-08	-1.873262e+01	-1.088468e+03
2.700000e-06	-2.762373e-06	-1.716274e-08	-1.956200e+01	-1.125416e+03
2.710000e-06	-2.878344e-06	-1.768388e-08	-2.038325e+01	-1.155579e+03
2.720000e-06	-2.993147e-06	-1.812456e-08	-2.119624e+01	-1.181692e+03
2.730000e-06	-3.106633e-06	-1.850217e-08	-2.199991e+01	-1.205580e+03
2.740000e-06	-3.218756e-06	-1.883010e-08	-2.279391e+01	-1.228107e+03
2.750000e-06	-3.329621e-06	-1.911913e-08	-2.357902e+01	-1.249353e+03
2.760000e-06	-3.439239e-06	-1.937874e-08	-2.435529e+01	-1.268929e+03
2.770000e-06	-3.547822e-06	-1.961641e-08	-2.512423e+01	-1.286324e+03
2.780000e-06	-3.655360e-06	-1.983461e-08	-2.588577e+01	-1.301215e+03
2.790000e-06	-3.761705e-06	-2.003159e-08	-2.663886e+01	-1.313635e+03
2.800000e-06	-3.866756e-06	-2.020940e-08	-2.738279e+01	-1.323997e+03
2.810000e-06	-3.970349e-06	-2.037247e-08	-2.811639e+01	-1.332988e+03
2.820000e-06	-4.072366e-06	-2.052451e-08	-2.883883e+01	-1.341370e+03
2.830000e-06	-4.172868e-06	-2.066790e-08	-2.955055e+01	-1.349775e+03
2.840000e-06	-4.271995e-06	-2.080411e-08	-3.025252e+01	-1.358550e+03
2.850000e-06	-4.369726e-06	-2.093339e-08	-3.094461e+01	-1.367700e+03
2.860000e-06	-4.466015e-06	-2.105481e-08	-3.162649e+01	-1.376927e+03
2.870000e-06	-4.560655e-06	-2.116872e-08	-3.229669e+01	-1.385768e+03
2.880000e-06	-4.653541e-06	-2.127405e-08	-3.295447e+01	-1.393759e+03
2.890000e-06	-4.744856e-06	-2.136997e-08	-3.360113e+01	-1.400593e+03
2.900000e-06	-4.834544e-06	-2.145858e-08	-3.423626e+01	-1.406216e+03
2.910000e-06	-4.922416e-06	-2.154198e-08	-3.485854e+01	-1.410842e+03
2.920000e-06	-5.008338e-06	-2.162173e-08	-3.546701e+01	-1.414877e+03
2.930000e-06	-5.092398e-06	-2.169879e-08	-3.606229e+01	-1.418796e+03
2.940000e-06	-5.174749e-06	-2.177450e-08	-3.664546e+01	-1.423002e+03
