# Temperatura_=_71.44
# Concentracion g/m^3_=_41000.0
# C_Vs_to_Am_M_A/Vsm_=_65563218390.804596
# pendiente_HvsI_1/m_=_3716.3
# ordenada_HvsI_A/m_=_1297.0
# frecuencia_Hz_=_301610.4206813189

Tiempo_(s)	Campo_(V.s)	Magnetizacion_(V.s)	Campo_(kA/m)	Magnetizacion_(A/m)
0.000000e+00	-5.332430e-06	-2.168186e-08	-3.834795e+01	-1.417829e+03
1.000000e-08	-5.330287e-06	-2.167653e-08	-3.833254e+01	-1.417711e+03
2.000000e-08	-5.326292e-06	-2.167127e-08	-3.830381e+01	-1.417674e+03
3.000000e-08	-5.320624e-06	-2.166611e-08	-3.826305e+01	-1.417617e+03
4.000000e-08	-5.313399e-06	-2.165833e-08	-3.821109e+01	-1.417414e+03
5.000000e-08	-5.304484e-06	-2.164689e-08	-3.814698e+01	-1.416952e+03
6.000000e-08	-5.293507e-06	-2.163245e-08	-3.806803e+01	-1.416163e+03
7.000000e-08	-5.280607e-06	-2.161345e-08	-3.797527e+01	-1.415051e+03
8.000000e-08	-5.265601e-06	-2.160660e-08	-3.786735e+01	-1.413684e+03
9.000000e-08	-5.248232e-06	-2.161955e-08	-3.774244e+01	-1.412178e+03
1.000000e-07	-5.228836e-06	-2.159985e-08	-3.760296e+01	-1.410661e+03
1.100000e-07	-5.207566e-06	-2.155588e-08	-3.745000e+01	-1.409236e+03
1.200000e-07	-5.184602e-06	-2.150825e-08	-3.728485e+01	-1.407947e+03
1.300000e-07	-5.160239e-06	-2.144037e-08	-3.710965e+01	-1.406772e+03
1.400000e-07	-5.134296e-06	-2.146898e-08	-3.692308e+01	-1.405628e+03
1.500000e-07	-5.106607e-06	-2.148365e-08	-3.672396e+01	-1.404396e+03
1.600000e-07	-5.077465e-06	-2.139375e-08	-3.651438e+01	-1.402960e+03
1.700000e-07	-5.046915e-06	-2.141305e-08	-3.629468e+01	-1.401241e+03
1.800000e-07	-5.014350e-06	-2.138599e-08	-3.606049e+01	-1.399216e+03
1.900000e-07	-4.979687e-06	-2.127072e-08	-3.581121e+01	-1.396925e+03
2.000000e-07	-4.943531e-06	-2.127896e-08	-3.555120e+01	-1.394453e+03
2.100000e-07	-4.905756e-06	-2.123382e-08	-3.527954e+01	-1.391903e+03
2.200000e-07	-4.866291e-06	-2.114848e-08	-3.499573e+01	-1.389356e+03
2.300000e-07	-4.824993e-06	-2.115456e-08	-3.469874e+01	-1.386848e+03
2.400000e-07	-4.781622e-06	-2.112042e-08	-3.438684e+01	-1.384357e+03
2.500000e-07	-4.736458e-06	-2.107284e-08	-3.406204e+01	-1.381805e+03
2.600000e-07	-4.689559e-06	-2.101574e-08	-3.372477e+01	-1.379085e+03
2.700000e-07	-4.640688e-06	-2.093447e-08	-3.337331e+01	-1.376093e+03
2.800000e-07	-4.589670e-06	-2.090101e-08	-3.300642e+01	-1.372764e+03
2.900000e-07	-4.536715e-06	-2.086988e-08	-3.262560e+01	-1.369089e+03
3.000000e-07	-4.482131e-06	-2.082238e-08	-3.223306e+01	-1.365120e+03
3.100000e-07	-4.425990e-06	-2.076154e-08	-3.182933e+01	-1.360955e+03
3.200000e-07	-4.368046e-06	-2.067920e-08	-3.141262e+01	-1.356708e+03
3.300000e-07	-4.308396e-06	-2.060300e-08	-3.098365e+01	-1.352472e+03
3.400000e-07	-4.247332e-06	-2.053670e-08	-3.054451e+01	-1.348289e+03
3.500000e-07	-4.184827e-06	-2.048591e-08	-3.009501e+01	-1.344140e+03
3.600000e-07	-4.120961e-06	-2.042648e-08	-2.963572e+01	-1.339946e+03
3.700000e-07	-4.055578e-06	-2.035250e-08	-2.916552e+01	-1.335596e+03
3.800000e-07	-3.988503e-06	-2.027171e-08	-2.868315e+01	-1.330979e+03
3.900000e-07	-3.919943e-06	-2.017916e-08	-2.819011e+01	-1.326019e+03
4.000000e-07	-3.850124e-06	-2.010487e-08	-2.768801e+01	-1.320698e+03
4.100000e-07	-3.779111e-06	-2.003020e-08	-2.717732e+01	-1.315062e+03
4.200000e-07	-3.706923e-06	-1.994986e-08	-2.665818e+01	-1.309207e+03
4.300000e-07	-3.633265e-06	-1.986617e-08	-2.612848e+01	-1.303244e+03
4.400000e-07	-3.557877e-06	-1.977610e-08	-2.558633e+01	-1.297265e+03
4.500000e-07	-3.481080e-06	-1.968096e-08	-2.503405e+01	-1.291311e+03
4.600000e-07	-3.403011e-06	-1.958044e-08	-2.447261e+01	-1.285356e+03
4.700000e-07	-3.323499e-06	-1.948342e-08	-2.390081e+01	-1.279313e+03
4.800000e-07	-3.242649e-06	-1.938225e-08	-2.331937e+01	-1.273059e+03
4.900000e-07	-3.160648e-06	-1.927903e-08	-2.272967e+01	-1.266473e+03
5.000000e-07	-3.077618e-06	-1.917587e-08	-2.213256e+01	-1.259469e+03
5.100000e-07	-2.993742e-06	-1.906354e-08	-2.152937e+01	-1.252027e+03
5.200000e-07	-2.909028e-06	-1.894018e-08	-2.092015e+01	-1.244195e+03
5.300000e-07	-2.823339e-06	-1.881711e-08	-2.030392e+01	-1.236074e+03
5.400000e-07	-2.736711e-06	-1.869960e-08	-1.968095e+01	-1.227782e+03
5.500000e-07	-2.649197e-06	-1.857868e-08	-1.905159e+01	-1.219415e+03
5.600000e-07	-2.560738e-06	-1.844590e-08	-1.841544e+01	-1.211008e+03
5.700000e-07	-2.471126e-06	-1.830665e-08	-1.777100e+01	-1.202522e+03
5.800000e-07	-2.380317e-06	-1.816389e-08	-1.711795e+01	-1.193848e+03
5.900000e-07	-2.288641e-06	-1.801679e-08	-1.645867e+01	-1.184835e+03
6.000000e-07	-2.196266e-06	-1.786541e-08	-1.579435e+01	-1.175336e+03
6.100000e-07	-2.103142e-06	-1.771125e-08	-1.512466e+01	-1.165250e+03
6.200000e-07	-2.009269e-06	-1.755279e-08	-1.444958e+01	-1.154552e+03
6.300000e-07	-1.914666e-06	-1.738566e-08	-1.376925e+01	-1.143300e+03
6.400000e-07	-1.819409e-06	-1.721094e-08	-1.308421e+01	-1.131613e+03
6.500000e-07	-1.723565e-06	-1.703126e-08	-1.239495e+01	-1.119632e+03
6.600000e-07	-1.627150e-06	-1.684869e-08	-1.170158e+01	-1.107463e+03
6.700000e-07	-1.530080e-06	-1.665964e-08	-1.100351e+01	-1.095136e+03
6.800000e-07	-1.432248e-06	-1.646107e-08	-1.029995e+01	-1.082581e+03
6.900000e-07	-1.333768e-06	-1.625233e-08	-9.591740e+00	-1.069640e+03
7.000000e-07	-1.234757e-06	-1.603376e-08	-8.879702e+00	-1.056099e+03
7.100000e-07	-1.135327e-06	-1.580693e-08	-8.164657e+00	-1.041746e+03
7.200000e-07	-1.035584e-06	-1.557168e-08	-7.447362e+00	-1.026432e+03
7.300000e-07	-9.356121e-07	-1.533013e-08	-6.728416e+00	-1.010104e+03
7.400000e-07	-8.354447e-07	-1.508069e-08	-6.008066e+00	-9.928210e+02
7.500000e-07	-7.350282e-07	-1.481825e-08	-5.285925e+00	-9.747177e+02
7.600000e-07	-6.343790e-07	-1.453688e-08	-4.562110e+00	-9.559477e+02
7.700000e-07	-5.335351e-07	-1.423861e-08	-3.836896e+00	-9.366079e+02
7.800000e-07	-4.325013e-07	-1.392667e-08	-3.110315e+00	-9.166737e+02
7.900000e-07	-3.312769e-07	-1.359970e-08	-2.382364e+00	-8.959637e+02
8.000000e-07	-2.299363e-07	-1.325687e-08	-1.653578e+00	-8.741512e+02
8.100000e-07	-1.285180e-07	-1.289247e-08	-9.242321e-01	-8.508181e+02
8.200000e-07	-2.699370e-08	-1.250201e-08	-1.941241e-01	-8.255422e+02
8.300000e-07	7.459448e-08	-1.208373e-08	5.364431e-01	-7.979860e+02
8.400000e-07	1.762058e-07	-1.163668e-08	1.267176e+00	-7.679604e+02
8.500000e-07	2.777229e-07	-1.115726e-08	1.997233e+00	-7.354329e+02
8.600000e-07	3.791192e-07	-1.064059e-08	2.726420e+00	-7.004691e+02
8.700000e-07	4.804414e-07	-1.008147e-08	3.455074e+00	-6.631114e+02
8.800000e-07	5.816040e-07	-9.473132e-09	4.182581e+00	-6.232237e+02
8.900000e-07	6.825463e-07	-8.805868e-09	4.908504e+00	-5.803417e+02
9.000000e-07	7.832253e-07	-8.069170e-09	5.632532e+00	-5.335791e+02
9.100000e-07	8.836536e-07	-7.252473e-09	6.354759e+00	-4.816293e+02
9.200000e-07	9.838567e-07	-6.340766e-09	7.075365e+00	-4.228870e+02
9.300000e-07	1.083785e-06	-5.317048e-09	7.793994e+00	-3.556832e+02
9.400000e-07	1.183375e-06	-4.159550e-09	8.510190e+00	-2.786020e+02
9.500000e-07	1.282551e-06	-2.846894e-09	9.223411e+00	-1.908201e+02
9.600000e-07	1.381207e-06	-1.366471e-09	9.932894e+00	-9.239811e+01
9.700000e-07	1.479209e-06	2.743553e-10	1.063767e+01	1.554116e+01
9.800000e-07	1.576504e-06	2.045655e-09	1.133736e+01	1.307980e+02
9.900000e-07	1.673121e-06	3.895806e-09	1.203218e+01	2.502602e+02
1.000000e-06	1.769050e-06	5.754454e-09	1.272205e+01	3.702273e+02
1.010000e-06	1.864338e-06	7.547524e-09	1.340731e+01	4.868421e+02
1.020000e-06	1.958973e-06	9.210390e-09	1.408787e+01	5.965525e+02
1.030000e-06	2.052937e-06	1.070351e-08	1.476361e+01	6.965225e+02
1.040000e-06	2.146199e-06	1.201011e-08	1.543430e+01	7.849189e+02
1.050000e-06	2.238756e-06	1.313185e-08	1.609992e+01	8.610293e+02
1.060000e-06	2.330696e-06	1.408621e-08	1.676110e+01	9.252001e+02
1.070000e-06	2.421922e-06	1.489528e-08	1.741715e+01	9.786208e+02
1.080000e-06	2.512135e-06	1.558102e-08	1.806592e+01	1.023007e+03
1.090000e-06	2.601174e-06	1.616381e-08	1.870624e+01	1.060254e+03
1.100000e-06	2.689178e-06	1.666318e-08	1.933912e+01	1.092129e+03
1.110000e-06	2.776294e-06	1.709353e-08	1.996560e+01	1.120052e+03
1.120000e-06	2.862534e-06	1.746684e-08	2.058579e+01	1.144997e+03
1.130000e-06	2.947846e-06	1.779662e-08	2.119931e+01	1.167515e+03
1.140000e-06	3.032213e-06	1.809204e-08	2.180603e+01	1.187833e+03
1.150000e-06	3.115684e-06	1.835606e-08	2.240631e+01	1.206011e+03
1.160000e-06	3.198169e-06	1.859188e-08	2.299950e+01	1.222088e+03
1.170000e-06	3.279469e-06	1.880364e-08	2.358417e+01	1.236190e+03
1.180000e-06	3.359514e-06	1.899519e-08	2.415980e+01	1.248571e+03
1.190000e-06	3.438300e-06	1.917155e-08	2.472639e+01	1.259597e+03
1.200000e-06	3.515851e-06	1.933507e-08	2.528410e+01	1.269676e+03
1.210000e-06	3.592224e-06	1.948928e-08	2.583333e+01	1.279175e+03
1.220000e-06	3.667219e-06	1.963594e-08	2.637266e+01	1.288344e+03
1.230000e-06	3.740576e-06	1.977199e-08	2.690020e+01	1.297279e+03
1.240000e-06	3.812417e-06	1.989554e-08	2.741684e+01	1.305931e+03
1.250000e-06	3.882912e-06	2.000976e-08	2.792380e+01	1.314155e+03
1.260000e-06	3.952134e-06	2.011523e-08	2.842161e+01	1.321777e+03
1.270000e-06	4.020097e-06	2.021248e-08	2.891036e+01	1.328673e+03
1.280000e-06	4.086569e-06	2.030548e-08	2.938839e+01	1.334816e+03
1.290000e-06	4.151332e-06	2.039563e-08	2.985414e+01	1.340294e+03
1.300000e-06	4.214514e-06	2.048157e-08	3.030850e+01	1.345288e+03
1.310000e-06	4.276287e-06	2.056269e-08	3.075274e+01	1.350022e+03
1.320000e-06	4.336726e-06	2.064009e-08	3.118739e+01	1.354696e+03
1.330000e-06	4.395801e-06	2.071409e-08	3.161223e+01	1.359440e+03
1.340000e-06	4.453145e-06	2.078563e-08	3.202461e+01	1.364274e+03
1.350000e-06	4.508669e-06	2.085303e-08	3.242390e+01	1.369118e+03
1.360000e-06	4.562607e-06	2.091539e-08	3.281180e+01	1.373820e+03
1.370000e-06	4.614847e-06	2.097474e-08	3.318748e+01	1.378213e+03
1.380000e-06	4.665044e-06	2.103014e-08	3.354847e+01	1.382166e+03
1.390000e-06	4.713274e-06	2.108151e-08	3.389531e+01	1.385624e+03
1.400000e-06	4.759824e-06	2.113053e-08	3.423008e+01	1.388630e+03
1.410000e-06	4.804792e-06	2.117752e-08	3.455346e+01	1.391300e+03
1.420000e-06	4.848261e-06	2.122230e-08	3.486607e+01	1.393794e+03
1.430000e-06	4.889919e-06	2.126466e-08	3.516565e+01	1.396262e+03
1.440000e-06	4.929706e-06	2.130426e-08	3.545178e+01	1.398799e+03
1.450000e-06	4.967892e-06	2.134068e-08	3.572639e+01	1.401423e+03
1.460000e-06	5.004486e-06	2.137380e-08	3.598955e+01	1.404070e+03
1.470000e-06	5.039364e-06	2.140363e-08	3.624038e+01	1.406620e+03
1.480000e-06	5.072315e-06	2.143027e-08	3.647734e+01	1.408938e+03
1.490000e-06	5.103418e-06	2.145332e-08	3.670102e+01	1.410918e+03
1.500000e-06	5.132860e-06	2.147544e-08	3.691275e+01	1.412517e+03
1.510000e-06	5.160688e-06	2.149827e-08	3.711287e+01	1.413770e+03
1.520000e-06	5.186624e-06	2.152130e-08	3.729939e+01	1.414777e+03
1.530000e-06	5.210462e-06	2.154349e-08	3.747082e+01	1.415671e+03
1.540000e-06	5.232411e-06	2.156167e-08	3.762867e+01	1.416578e+03
1.550000e-06	5.252688e-06	2.157524e-08	3.777449e+01	1.417581e+03
1.560000e-06	5.271209e-06	2.158672e-08	3.790768e+01	1.418689e+03
1.570000e-06	5.287718e-06	2.159932e-08	3.802641e+01	1.419841e+03
1.580000e-06	5.302212e-06	2.161195e-08	3.813064e+01	1.420927e+03
1.590000e-06	5.314750e-06	2.162257e-08	3.822081e+01	1.421821e+03
1.600000e-06	5.325192e-06	2.163173e-08	3.829590e+01	1.422422e+03
1.610000e-06	5.333485e-06	2.163849e-08	3.835554e+01	1.422688e+03
1.620000e-06	5.339870e-06	2.164304e-08	3.840145e+01	1.422647e+03
1.630000e-06	5.344513e-06	2.164727e-08	3.843484e+01	1.422389e+03
1.640000e-06	5.347269e-06	2.165001e-08	3.845466e+01	1.422040e+03
1.650000e-06	5.348011e-06	2.165137e-08	3.846000e+01	1.421719e+03
1.660000e-06	5.346905e-06	2.165006e-08	3.845205e+01	1.421505e+03
1.670000e-06	5.344152e-06	2.164606e-08	3.843225e+01	1.421410e+03
1.680000e-06	5.339828e-06	2.164118e-08	3.840115e+01	1.421378e+03
1.690000e-06	5.333651e-06	2.163499e-08	3.835673e+01	1.421300e+03
1.700000e-06	5.325573e-06	2.162778e-08	3.829864e+01	1.421049e+03
1.710000e-06	5.315909e-06	2.162011e-08	3.822914e+01	1.420520e+03
1.720000e-06	5.304660e-06	2.161389e-08	3.814824e+01	1.419659e+03
1.730000e-06	5.291578e-06	2.160363e-08	3.805416e+01	1.418483e+03
1.740000e-06	5.276420e-06	2.154718e-08	3.794515e+01	1.417075e+03
1.750000e-06	5.259026e-06	2.151526e-08	3.782007e+01	1.415556e+03
1.760000e-06	5.239122e-06	2.152014e-08	3.767693e+01	1.414052e+03
1.770000e-06	5.216680e-06	2.152832e-08	3.751554e+01	1.412653e+03
1.780000e-06	5.192636e-06	2.156367e-08	3.734263e+01	1.411393e+03
1.790000e-06	5.167972e-06	2.147683e-08	3.716526e+01	1.410232e+03
1.800000e-06	5.142122e-06	2.141318e-08	3.697936e+01	1.409079e+03
1.810000e-06	5.114209e-06	2.145654e-08	3.677862e+01	1.407812e+03
1.820000e-06	5.084439e-06	2.138166e-08	3.656453e+01	1.406320e+03
1.830000e-06	5.052920e-06	2.137260e-08	3.633786e+01	1.404535e+03
1.840000e-06	5.019413e-06	2.141799e-08	3.609690e+01	1.402447e+03
1.850000e-06	4.984287e-06	2.131916e-08	3.584429e+01	1.400108e+03
1.860000e-06	4.947514e-06	2.132901e-08	3.557984e+01	1.397610e+03
1.870000e-06	4.908713e-06	2.133668e-08	3.530081e+01	1.395054e+03
1.880000e-06	4.868244e-06	2.121367e-08	3.500978e+01	1.392514e+03
1.890000e-06	4.826052e-06	2.119957e-08	3.470636e+01	1.390014e+03
1.900000e-06	4.782170e-06	2.114909e-08	3.439078e+01	1.387517e+03
1.910000e-06	4.736666e-06	2.111806e-08	3.406354e+01	1.384937e+03
1.920000e-06	4.689239e-06	2.113803e-08	3.372247e+01	1.382166e+03
1.930000e-06	4.640176e-06	2.102564e-08	3.336964e+01	1.379106e+03
1.940000e-06	4.589379e-06	2.097823e-08	3.300433e+01	1.375700e+03
1.950000e-06	4.536495e-06	2.091843e-08	3.262402e+01	1.371955e+03
1.960000e-06	4.481696e-06	2.083890e-08	3.222993e+01	1.367935e+03
1.970000e-06	4.425159e-06	2.083200e-08	3.182335e+01	1.363743e+03
1.980000e-06	4.367042e-06	2.075227e-08	3.140541e+01	1.359491e+03
1.990000e-06	4.307535e-06	2.069942e-08	3.097746e+01	1.355264e+03
2.000000e-06	4.246573e-06	2.062060e-08	3.053905e+01	1.351092e+03
2.010000e-06	4.183890e-06	2.053434e-08	3.008827e+01	1.346941e+03
2.020000e-06	4.119454e-06	2.049509e-08	2.962489e+01	1.342723e+03
2.030000e-06	4.053618e-06	2.041035e-08	2.915143e+01	1.338324e+03
2.040000e-06	3.986512e-06	2.036390e-08	2.866883e+01	1.333637e+03
2.050000e-06	3.918088e-06	2.028277e-08	2.817677e+01	1.328598e+03
2.060000e-06	3.848088e-06	2.019042e-08	2.767337e+01	1.323203e+03
2.070000e-06	3.776518e-06	2.011330e-08	2.715867e+01	1.317511e+03
2.080000e-06	3.703712e-06	2.000680e-08	2.663509e+01	1.311623e+03
2.090000e-06	3.629599e-06	1.993637e-08	2.610211e+01	1.305650e+03
2.100000e-06	3.554136e-06	1.984446e-08	2.555942e+01	1.299674e+03
2.110000e-06	3.477155e-06	1.975655e-08	2.500582e+01	1.293723e+03
2.120000e-06	3.398562e-06	1.966688e-08	2.444062e+01	1.287758e+03
2.130000e-06	3.318719e-06	1.956613e-08	2.386643e+01	1.281680e+03
2.140000e-06	3.237823e-06	1.946794e-08	2.328467e+01	1.275364e+03
2.150000e-06	3.155864e-06	1.934728e-08	2.269526e+01	1.268693e+03
2.160000e-06	3.072878e-06	1.924848e-08	2.209847e+01	1.261594e+03
2.170000e-06	2.988952e-06	1.914692e-08	2.149492e+01	1.254062e+03
2.180000e-06	2.904003e-06	1.903388e-08	2.088401e+01	1.246158e+03
2.190000e-06	2.817663e-06	1.890847e-08	2.026311e+01	1.237989e+03
2.200000e-06	2.730057e-06	1.877989e-08	1.963309e+01	1.229674e+03
2.210000e-06	2.641567e-06	1.866056e-08	1.899672e+01	1.221297e+03
2.220000e-06	2.552225e-06	1.853268e-08	1.835422e+01	1.212879e+03
2.230000e-06	2.462000e-06	1.840355e-08	1.770537e+01	1.204364e+03
2.240000e-06	2.370939e-06	1.826800e-08	1.705051e+01	1.195630e+03
2.250000e-06	2.279175e-06	1.812712e-08	1.639059e+01	1.186523e+03
2.260000e-06	2.186769e-06	1.797327e-08	1.572606e+01	1.176904e+03
2.270000e-06	2.093500e-06	1.781360e-08	1.505532e+01	1.166686e+03
2.280000e-06	1.999197e-06	1.765555e-08	1.437715e+01	1.155861e+03
2.290000e-06	1.903970e-06	1.749346e-08	1.369232e+01	1.144503e+03
2.300000e-06	1.808085e-06	1.732533e-08	1.300277e+01	1.132742e+03
2.310000e-06	1.711746e-06	1.714795e-08	1.230995e+01	1.120713e+03
2.320000e-06	1.614949e-06	1.696427e-08	1.161384e+01	1.108510e+03
2.330000e-06	1.517597e-06	1.677332e-08	1.091374e+01	1.096143e+03
2.340000e-06	1.419661e-06	1.657512e-08	1.020943e+01	1.083521e+03
2.350000e-06	1.321250e-06	1.636842e-08	9.501715e+00	1.070470e+03
2.360000e-06	1.222446e-06	1.615521e-08	8.791170e+00	1.056770e+03
2.370000e-06	1.123315e-06	1.593141e-08	8.078276e+00	1.042221e+03
2.380000e-06	1.023946e-06	1.569515e-08	7.363666e+00	1.026689e+03
2.390000e-06	9.243436e-07	1.544662e-08	6.647379e+00	1.010148e+03
2.400000e-06	8.244661e-07	1.518883e-08	5.929114e+00	9.926755e+02
2.410000e-06	7.243346e-07	1.492440e-08	5.209023e+00	9.744166e+02
2.420000e-06	6.240101e-07	1.464585e-08	4.487543e+00	9.555191e+02
2.430000e-06	5.235296e-07	1.435201e-08	3.764941e+00	9.360585e+02
2.440000e-06	4.228517e-07	1.403946e-08	3.040921e+00	9.159782e+02
2.450000e-06	3.219641e-07	1.370717e-08	2.315392e+00	8.950632e+02
2.460000e-06	2.209004e-07	1.335487e-08	1.588596e+00	8.729610e+02
2.470000e-06	1.197567e-07	1.298179e-08	8.612253e-01	8.492450e+02
2.480000e-06	1.851903e-08	1.258734e-08	1.331788e-01	8.235039e+02
2.490000e-06	-8.286677e-08	1.216636e-08	-5.959330e-01	7.954283e+02
2.500000e-06	-1.842252e-07	1.171429e-08	-1.324848e+00	7.648640e+02
2.510000e-06	-2.854682e-07	1.122552e-08	-2.052933e+00	7.318070e+02
2.520000e-06	-3.866018e-07	1.069639e-08	-2.780231e+00	6.963296e+02
2.530000e-06	-4.875720e-07	1.012420e-08	-3.506354e+00	6.584499e+02
2.540000e-06	-5.883388e-07	9.502293e-09	-4.231015e+00	6.179725e+02
2.550000e-06	-6.889216e-07	8.820561e-09	-4.954351e+00	5.743482e+02
2.560000e-06	-7.892958e-07	8.071105e-09	-5.676188e+00	5.265963e+02
2.570000e-06	-8.893692e-07	7.240384e-09	-6.395862e+00	4.733320e+02
2.580000e-06	-9.891338e-07	6.312226e-09	-7.113315e+00	4.129130e+02
2.590000e-06	-1.088617e-06	5.267147e-09	-7.828744e+00	3.436961e+02
2.600000e-06	-1.187730e-06	4.082711e-09	-8.541514e+00	2.643645e+02
2.610000e-06	-1.286464e-06	2.743616e-09	-9.251551e+00	1.742624e+02
2.620000e-06	-1.384836e-06	1.240424e-09	-9.958993e+00	7.366823e+01
2.630000e-06	-1.482687e-06	-4.201827e-10	-1.066268e+01	-3.605962e+01
2.640000e-06	-1.579980e-06	-2.209338e-09	-1.136236e+01	-1.525061e+02
2.650000e-06	-1.676739e-06	-4.073040e-09	-1.205820e+01	-2.724009e+02
2.660000e-06	-1.772952e-06	-5.937460e-09	-1.275011e+01	-3.919715e+02
2.670000e-06	-1.868665e-06	-7.726964e-09	-1.343843e+01	-5.073875e+02
2.680000e-06	-1.963738e-06	-9.378483e-09	-1.412214e+01	-6.152192e+02
2.690000e-06	-2.057908e-06	-1.085580e-08	-1.479936e+01	-7.128264e+02
2.700000e-06	-2.151101e-06	-1.214742e-08	-1.546955e+01	-7.986124e+02
2.710000e-06	-2.243405e-06	-1.325686e-08	-1.613335e+01	-8.721028e+02
2.720000e-06	-2.334932e-06	-1.420118e-08	-1.679157e+01	-9.338473e+02
2.730000e-06	-2.425699e-06	-1.500209e-08	-1.744431e+01	-9.851768e+02
2.740000e-06	-2.515599e-06	-1.568093e-08	-1.809083e+01	-1.027875e+03
2.750000e-06	-2.604631e-06	-1.625783e-08	-1.873109e+01	-1.063832e+03
2.760000e-06	-2.692849e-06	-1.675002e-08	-1.936552e+01	-1.094755e+03
2.770000e-06	-2.780271e-06	-1.717468e-08	-1.999420e+01	-1.121974e+03
2.780000e-06	-2.866753e-06	-1.754359e-08	-2.061613e+01	-1.146366e+03
2.790000e-06	-2.952025e-06	-1.786786e-08	-2.122937e+01	-1.168402e+03
2.800000e-06	-3.036101e-06	-1.815751e-08	-2.183399e+01	-1.188260e+03
2.810000e-06	-3.119138e-06	-1.841718e-08	-2.243115e+01	-1.205984e+03
2.820000e-06	-3.201109e-06	-1.865215e-08	-2.302064e+01	-1.221623e+03
2.830000e-06	-3.282035e-06	-1.886554e-08	-2.360262e+01	-1.235330e+03
2.840000e-06	-3.361925e-06	-1.905930e-08	-2.417714e+01	-1.247388e+03
2.850000e-06	-3.440585e-06	-1.923451e-08	-2.474283e+01	-1.258178e+03
2.860000e-06	-3.517739e-06	-1.939547e-08	-2.529768e+01	-1.268106e+03
2.870000e-06	-3.593385e-06	-1.954570e-08	-2.584168e+01	-1.277518e+03
2.880000e-06	-3.667682e-06	-1.968643e-08	-2.637598e+01	-1.286634e+03
2.890000e-06	-3.740665e-06	-1.981853e-08	-2.690084e+01	-1.295518e+03
2.900000e-06	-3.812454e-06	-1.994161e-08	-2.741710e+01	-1.304093e+03
2.910000e-06	-3.882847e-06	-2.005813e-08	-2.792333e+01	-1.312203e+03
2.920000e-06	-3.951583e-06	-2.016717e-08	-2.841764e+01	-1.319678e+03
2.930000e-06	-4.018858e-06	-2.026575e-08	-2.890145e+01	-1.326411e+03
2.940000e-06	-4.084765e-06	-2.035665e-08	-2.937542e+01	-1.332401e+03
