# Temperatura_=_49.89
# Concentracion g/m^3_=_41000.0
# C_Vs_to_Am_M_A/Vsm_=_65563218390.804596
# pendiente_HvsI_1/m_=_3716.3
# ordenada_HvsI_A/m_=_1297.0
# frecuencia_Hz_=_301611.32562489976

Tiempo_(s)	Campo_(V.s)	Magnetizacion_(V.s)	Campo_(kA/m)	Magnetizacion_(A/m)
0.000000e+00	-5.329070e-06	-2.393082e-08	-3.834921e+01	-1.565130e+03
1.000000e-08	-5.326986e-06	-2.392423e-08	-3.833421e+01	-1.564701e+03
2.000000e-08	-5.323062e-06	-2.391669e-08	-3.830597e+01	-1.564356e+03
3.000000e-08	-5.317547e-06	-2.390950e-08	-3.826629e+01	-1.564100e+03
4.000000e-08	-5.310423e-06	-2.390052e-08	-3.821502e+01	-1.563870e+03
5.000000e-08	-5.301611e-06	-2.388868e-08	-3.815161e+01	-1.563565e+03
6.000000e-08	-5.290788e-06	-2.387576e-08	-3.807372e+01	-1.563067e+03
7.000000e-08	-5.278030e-06	-2.386124e-08	-3.798191e+01	-1.562288e+03
8.000000e-08	-5.263306e-06	-2.384205e-08	-3.787596e+01	-1.561193e+03
9.000000e-08	-5.246247e-06	-2.384897e-08	-3.775320e+01	-1.559814e+03
1.000000e-07	-5.227015e-06	-2.384613e-08	-3.761480e+01	-1.558243e+03
1.100000e-07	-5.205901e-06	-2.379912e-08	-3.746286e+01	-1.556604e+03
1.200000e-07	-5.183099e-06	-2.375696e-08	-3.729877e+01	-1.555017e+03
1.300000e-07	-5.158931e-06	-2.370692e-08	-3.712485e+01	-1.553559e+03
1.400000e-07	-5.133226e-06	-2.367872e-08	-3.693987e+01	-1.552246e+03
1.500000e-07	-5.105725e-06	-2.372252e-08	-3.674197e+01	-1.551020e+03
1.600000e-07	-5.076737e-06	-2.366388e-08	-3.653336e+01	-1.549775e+03
1.700000e-07	-5.046345e-06	-2.361801e-08	-3.631465e+01	-1.548380e+03
1.800000e-07	-5.014006e-06	-2.364703e-08	-3.608193e+01	-1.546723e+03
1.900000e-07	-4.979534e-06	-2.354245e-08	-3.583387e+01	-1.544738e+03
2.000000e-07	-4.943532e-06	-2.349596e-08	-3.557479e+01	-1.542425e+03
2.100000e-07	-4.905945e-06	-2.350695e-08	-3.530430e+01	-1.539847e+03
2.200000e-07	-4.866588e-06	-2.341687e-08	-3.502108e+01	-1.537104e+03
2.300000e-07	-4.825449e-06	-2.339563e-08	-3.472504e+01	-1.534303e+03
2.400000e-07	-4.782307e-06	-2.338863e-08	-3.441458e+01	-1.531520e+03
2.500000e-07	-4.737352e-06	-2.330669e-08	-3.409107e+01	-1.528776e+03
2.600000e-07	-4.690634e-06	-2.326595e-08	-3.375488e+01	-1.526032e+03
2.700000e-07	-4.641971e-06	-2.320336e-08	-3.340469e+01	-1.523196e+03
2.800000e-07	-4.591193e-06	-2.315400e-08	-3.303927e+01	-1.520155e+03
2.900000e-07	-4.538463e-06	-2.312601e-08	-3.265982e+01	-1.516813e+03
3.000000e-07	-4.484154e-06	-2.307528e-08	-3.226900e+01	-1.513116e+03
3.100000e-07	-4.428262e-06	-2.301356e-08	-3.186679e+01	-1.509075e+03
3.200000e-07	-4.370505e-06	-2.292643e-08	-3.145115e+01	-1.504762e+03
3.300000e-07	-4.311011e-06	-2.285102e-08	-3.102302e+01	-1.500286e+03
3.400000e-07	-4.250075e-06	-2.278770e-08	-3.058452e+01	-1.495763e+03
3.500000e-07	-4.187677e-06	-2.273529e-08	-3.013548e+01	-1.491273e+03
3.600000e-07	-4.123917e-06	-2.267987e-08	-2.967665e+01	-1.486843e+03
3.700000e-07	-4.058726e-06	-2.259754e-08	-2.920752e+01	-1.482429e+03
3.800000e-07	-3.991875e-06	-2.251978e-08	-2.872645e+01	-1.477931e+03
3.900000e-07	-3.923469e-06	-2.243418e-08	-2.823419e+01	-1.473227e+03
4.000000e-07	-3.853803e-06	-2.234700e-08	-2.773285e+01	-1.468202e+03
4.100000e-07	-3.782958e-06	-2.227699e-08	-2.722303e+01	-1.462790e+03
4.200000e-07	-3.710922e-06	-2.219541e-08	-2.670464e+01	-1.456987e+03
4.300000e-07	-3.637383e-06	-2.210851e-08	-2.617545e+01	-1.450859e+03
4.400000e-07	-3.562095e-06	-2.201265e-08	-2.563365e+01	-1.444513e+03
4.500000e-07	-3.485390e-06	-2.191295e-08	-2.508166e+01	-1.438068e+03
4.600000e-07	-3.407388e-06	-2.181150e-08	-2.452034e+01	-1.431611e+03
4.700000e-07	-3.327938e-06	-2.171144e-08	-2.394861e+01	-1.425170e+03
4.800000e-07	-3.247175e-06	-2.161397e-08	-2.336742e+01	-1.418703e+03
4.900000e-07	-3.165304e-06	-2.150609e-08	-2.277825e+01	-1.412106e+03
5.000000e-07	-3.082396e-06	-2.139945e-08	-2.218163e+01	-1.405243e+03
5.100000e-07	-2.998578e-06	-2.128351e-08	-2.157845e+01	-1.397989e+03
5.200000e-07	-2.913890e-06	-2.115766e-08	-2.096902e+01	-1.390262e+03
5.300000e-07	-2.828280e-06	-2.103179e-08	-2.035295e+01	-1.382053e+03
5.400000e-07	-2.741766e-06	-2.090920e-08	-1.973038e+01	-1.373419e+03
5.500000e-07	-2.654396e-06	-2.078434e-08	-1.910164e+01	-1.364471e+03
5.600000e-07	-2.566110e-06	-2.064502e-08	-1.846631e+01	-1.355328e+03
5.700000e-07	-2.476632e-06	-2.049856e-08	-1.782241e+01	-1.346077e+03
5.800000e-07	-2.385932e-06	-2.035010e-08	-1.716971e+01	-1.336744e+03
5.900000e-07	-2.294372e-06	-2.019845e-08	-1.651083e+01	-1.327272e+03
6.000000e-07	-2.202111e-06	-2.004139e-08	-1.584690e+01	-1.317539e+03
6.100000e-07	-2.109090e-06	-1.988095e-08	-1.517749e+01	-1.307388e+03
6.200000e-07	-2.015307e-06	-1.971579e-08	-1.450261e+01	-1.296674e+03
6.300000e-07	-1.920824e-06	-1.954153e-08	-1.382269e+01	-1.285305e+03
6.400000e-07	-1.825669e-06	-1.935804e-08	-1.313793e+01	-1.273270e+03
6.500000e-07	-1.729946e-06	-1.916845e-08	-1.244909e+01	-1.260640e+03
6.600000e-07	-1.633678e-06	-1.897455e-08	-1.175632e+01	-1.247541e+03
6.700000e-07	-1.536711e-06	-1.877539e-08	-1.105852e+01	-1.234111e+03
6.800000e-07	-1.438954e-06	-1.856888e-08	-1.035504e+01	-1.220443e+03
6.900000e-07	-1.340535e-06	-1.835078e-08	-9.646797e+00	-1.206548e+03
7.000000e-07	-1.241631e-06	-1.812325e-08	-8.935062e+00	-1.192334e+03
7.100000e-07	-1.142301e-06	-1.788696e-08	-8.220258e+00	-1.177623e+03
7.200000e-07	-1.042679e-06	-1.764353e-08	-7.503358e+00	-1.162189e+03
7.300000e-07	-9.428397e-07	-1.739397e-08	-6.784891e+00	-1.145824e+03
7.400000e-07	-8.427604e-07	-1.713570e-08	-6.064697e+00	-1.128385e+03
7.500000e-07	-7.424132e-07	-1.686359e-08	-5.342575e+00	-1.109836e+03
7.600000e-07	-6.418388e-07	-1.657043e-08	-4.618819e+00	-1.090246e+03
7.700000e-07	-5.410940e-07	-1.626057e-08	-3.893836e+00	-1.069755e+03
7.800000e-07	-4.401737e-07	-1.593834e-08	-3.167591e+00	-1.048508e+03
7.900000e-07	-3.390875e-07	-1.560346e-08	-2.440152e+00	-1.026577e+03
8.000000e-07	-2.378656e-07	-1.525405e-08	-1.711736e+00	-1.003907e+03
8.100000e-07	-1.365428e-07	-1.488548e-08	-9.825935e-01	-9.802862e+02
8.200000e-07	-3.508836e-08	-1.449322e-08	-2.525039e-01	-9.553620e+02
8.300000e-07	6.642521e-08	-1.407529e-08	4.780110e-01	-9.287089e+02
8.400000e-07	1.679170e-07	-1.363239e-08	1.208369e+00	-8.999145e+02
8.500000e-07	2.693178e-07	-1.316225e-08	1.938073e+00	-8.686672e+02
8.600000e-07	3.706258e-07	-1.266052e-08	2.667108e+00	-8.348096e+02
8.700000e-07	4.718280e-07	-1.212143e-08	3.395383e+00	-7.983349e+02
8.800000e-07	5.728445e-07	-1.154060e-08	4.122321e+00	-7.593135e+02
8.900000e-07	6.736954e-07	-1.091394e-08	4.848067e+00	-7.177627e+02
9.000000e-07	7.743594e-07	-1.023458e-08	5.572467e+00	-6.734878e+02
9.100000e-07	8.747767e-07	-9.493531e-09	6.295093e+00	-6.259384e+02
9.200000e-07	9.749106e-07	-8.680436e-09	7.015680e+00	-5.741291e+02
9.300000e-07	1.074817e-06	-7.783506e-09	7.734633e+00	-5.166626e+02
9.400000e-07	1.174488e-06	-6.784381e-09	8.451887e+00	-4.518725e+02
9.500000e-07	1.273746e-06	-5.661203e-09	9.166167e+00	-3.780774e+02
9.600000e-07	1.372391e-06	-4.391881e-09	9.876037e+00	-2.939060e+02
9.700000e-07	1.470312e-06	-2.960251e-09	1.058070e+01	-1.986344e+02
9.800000e-07	1.567510e-06	-1.359449e-09	1.128016e+01	-9.246318e+01
9.900000e-07	1.664061e-06	4.025810e-10	1.197496e+01	2.332894e+01
1.000000e-06	1.759999e-06	2.295683e-09	1.266536e+01	1.463976e+02
1.010000e-06	1.855266e-06	4.264673e-09	1.335092e+01	2.735229e+02
1.020000e-06	1.949876e-06	6.235661e-09	1.403176e+01	4.009504e+02
1.030000e-06	2.043859e-06	8.135378e-09	1.470808e+01	5.248269e+02
1.040000e-06	2.137109e-06	9.904481e-09	1.537913e+01	6.416534e+02
1.050000e-06	2.229646e-06	1.150410e-08	1.604504e+01	7.486738e+02
1.060000e-06	2.321558e-06	1.291895e-08	1.670646e+01	8.441351e+02
1.070000e-06	2.412751e-06	1.415303e-08	1.736271e+01	9.273769e+02
1.080000e-06	2.502960e-06	1.522112e-08	1.801188e+01	9.987486e+02
1.090000e-06	2.592100e-06	1.614228e-08	1.865335e+01	1.059384e+03
1.100000e-06	2.680263e-06	1.693857e-08	1.928778e+01	1.110890e+03
1.110000e-06	2.767479e-06	1.762554e-08	1.991541e+01	1.155016e+03
1.120000e-06	2.853757e-06	1.821876e-08	2.053629e+01	1.193372e+03
1.130000e-06	2.939034e-06	1.873564e-08	2.114996e+01	1.227239e+03
1.140000e-06	3.023396e-06	1.918903e-08	2.175705e+01	1.257497e+03
1.150000e-06	3.106930e-06	1.958865e-08	2.235818e+01	1.284655e+03
1.160000e-06	3.189451e-06	1.994331e-08	2.295202e+01	1.308961e+03
1.170000e-06	3.270722e-06	2.025921e-08	2.353687e+01	1.330548e+03
1.180000e-06	3.350737e-06	2.054107e-08	2.411267e+01	1.349557e+03
1.190000e-06	3.429572e-06	2.079408e-08	2.467999e+01	1.366227e+03
1.200000e-06	3.507198e-06	2.102161e-08	2.523860e+01	1.380915e+03
1.210000e-06	3.583607e-06	2.123044e-08	2.578846e+01	1.394061e+03
1.220000e-06	3.658694e-06	2.142376e-08	2.632880e+01	1.406114e+03
1.230000e-06	3.732188e-06	2.160324e-08	2.685768e+01	1.417447e+03
1.240000e-06	3.804067e-06	2.176987e-08	2.737494e+01	1.428298e+03
1.250000e-06	3.874558e-06	2.192486e-08	2.788220e+01	1.438741e+03
1.260000e-06	3.943727e-06	2.206932e-08	2.837996e+01	1.448711e+03
1.270000e-06	4.011626e-06	2.220346e-08	2.886858e+01	1.458056e+03
1.280000e-06	4.078117e-06	2.232760e-08	2.934707e+01	1.466619e+03
1.290000e-06	4.142954e-06	2.244097e-08	2.981365e+01	1.474300e+03
1.300000e-06	4.206238e-06	2.254449e-08	3.026906e+01	1.481110e+03
1.310000e-06	4.268142e-06	2.264052e-08	3.071453e+01	1.487169e+03
1.320000e-06	4.328711e-06	2.273114e-08	3.115040e+01	1.492683e+03
1.330000e-06	4.387884e-06	2.281792e-08	3.157622e+01	1.497889e+03
1.340000e-06	4.445315e-06	2.290147e-08	3.198951e+01	1.502987e+03
1.350000e-06	4.500964e-06	2.298106e-08	3.238997e+01	1.508098e+03
1.360000e-06	4.555045e-06	2.305673e-08	3.277915e+01	1.513233e+03
1.370000e-06	4.607376e-06	2.312761e-08	3.315574e+01	1.518307e+03
1.380000e-06	4.657726e-06	2.319335e-08	3.351806e+01	1.523172e+03
1.390000e-06	4.706130e-06	2.325431e-08	3.386639e+01	1.527675e+03
1.400000e-06	4.752838e-06	2.331080e-08	3.420251e+01	1.531706e+03
1.410000e-06	4.798047e-06	2.336522e-08	3.452784e+01	1.535233e+03
1.420000e-06	4.841718e-06	2.341738e-08	3.484211e+01	1.538312e+03
1.430000e-06	4.883531e-06	2.346610e-08	3.514301e+01	1.541070e+03
1.440000e-06	4.923468e-06	2.351182e-08	3.543040e+01	1.543659e+03
1.450000e-06	4.961759e-06	2.355535e-08	3.570596e+01	1.546214e+03
1.460000e-06	4.998447e-06	2.359597e-08	3.596997e+01	1.548813e+03
1.470000e-06	5.033456e-06	2.363173e-08	3.622191e+01	1.551452e+03
1.480000e-06	5.066565e-06	2.366341e-08	3.646017e+01	1.554057e+03
1.490000e-06	5.097812e-06	2.369111e-08	3.668502e+01	1.556508e+03
1.500000e-06	5.127361e-06	2.371625e-08	3.689766e+01	1.558679e+03
1.510000e-06	5.155269e-06	2.374083e-08	3.709850e+01	1.560484e+03
1.520000e-06	5.181291e-06	2.376483e-08	3.728576e+01	1.561903e+03
1.530000e-06	5.205257e-06	2.378774e-08	3.745822e+01	1.562987e+03
1.540000e-06	5.227352e-06	2.380778e-08	3.761723e+01	1.563847e+03
1.550000e-06	5.247742e-06	2.382471e-08	3.776396e+01	1.564614e+03
1.560000e-06	5.266375e-06	2.383927e-08	3.789804e+01	1.565406e+03
1.570000e-06	5.283022e-06	2.385268e-08	3.801784e+01	1.566286e+03
1.580000e-06	5.297641e-06	2.386456e-08	3.812304e+01	1.567251e+03
1.590000e-06	5.310326e-06	2.387375e-08	3.821432e+01	1.568231e+03
1.600000e-06	5.320960e-06	2.388166e-08	3.829084e+01	1.569115e+03
1.610000e-06	5.329454e-06	2.388892e-08	3.835197e+01	1.569788e+03
1.620000e-06	5.335935e-06	2.389461e-08	3.839861e+01	1.570169e+03
1.630000e-06	5.340626e-06	2.389993e-08	3.843237e+01	1.570233e+03
1.640000e-06	5.343543e-06	2.390342e-08	3.845336e+01	1.570023e+03
1.650000e-06	5.344466e-06	2.390533e-08	3.846000e+01	1.569633e+03
1.660000e-06	5.343496e-06	2.390583e-08	3.845302e+01	1.569180e+03
1.670000e-06	5.340889e-06	2.390104e-08	3.843426e+01	1.568764e+03
1.680000e-06	5.336747e-06	2.389651e-08	3.840445e+01	1.568439e+03
1.690000e-06	5.330776e-06	2.389086e-08	3.836149e+01	1.568194e+03
1.700000e-06	5.322869e-06	2.388291e-08	3.830459e+01	1.567957e+03
1.710000e-06	5.313348e-06	2.387396e-08	3.823607e+01	1.567619e+03
1.720000e-06	5.302231e-06	2.386369e-08	3.815607e+01	1.567065e+03
1.730000e-06	5.289258e-06	2.386364e-08	3.806271e+01	1.566218e+03
1.740000e-06	5.274243e-06	2.382442e-08	3.795466e+01	1.565055e+03
1.750000e-06	5.257020e-06	2.377546e-08	3.783072e+01	1.563625e+03
1.760000e-06	5.237352e-06	2.378326e-08	3.768919e+01	1.562027e+03
1.770000e-06	5.215164e-06	2.377971e-08	3.752951e+01	1.560389e+03
1.780000e-06	5.191245e-06	2.380407e-08	3.735739e+01	1.558824e+03
1.790000e-06	5.166587e-06	2.377539e-08	3.717994e+01	1.557397e+03
1.800000e-06	5.140810e-06	2.365650e-08	3.699445e+01	1.556108e+03
1.810000e-06	5.113131e-06	2.369571e-08	3.679526e+01	1.554888e+03
1.820000e-06	5.083570e-06	2.367698e-08	3.658254e+01	1.553620e+03
1.830000e-06	5.052256e-06	2.358022e-08	3.635719e+01	1.552176e+03
1.840000e-06	5.019014e-06	2.364912e-08	3.611798e+01	1.550451e+03
1.850000e-06	4.984079e-06	2.360101e-08	3.586657e+01	1.548392e+03
1.860000e-06	4.947471e-06	2.353058e-08	3.560314e+01	1.546014e+03
1.870000e-06	4.908825e-06	2.358448e-08	3.532503e+01	1.543390e+03
1.880000e-06	4.868503e-06	2.346118e-08	3.503487e+01	1.540625e+03
1.890000e-06	4.826502e-06	2.341806e-08	3.473262e+01	1.537822e+03
1.900000e-06	4.782742e-06	2.343720e-08	3.441771e+01	1.535046e+03
1.910000e-06	4.737393e-06	2.333567e-08	3.409136e+01	1.532307e+03
1.920000e-06	4.690137e-06	2.336165e-08	3.375130e+01	1.529551e+03
1.930000e-06	4.641134e-06	2.328416e-08	3.339867e+01	1.526679e+03
1.940000e-06	4.590500e-06	2.319229e-08	3.303429e+01	1.523580e+03
1.950000e-06	4.537845e-06	2.316818e-08	3.265537e+01	1.520162e+03
1.960000e-06	4.483176e-06	2.307195e-08	3.226196e+01	1.516387e+03
1.970000e-06	4.426763e-06	2.307732e-08	3.185600e+01	1.512279e+03
1.980000e-06	4.368777e-06	2.300895e-08	3.143872e+01	1.507920e+03
1.990000e-06	4.309363e-06	2.291941e-08	3.101116e+01	1.503424e+03
2.000000e-06	4.248548e-06	2.287566e-08	3.057352e+01	1.498901e+03
2.010000e-06	4.186091e-06	2.276809e-08	3.012407e+01	1.494424e+03
2.020000e-06	4.121863e-06	2.273773e-08	2.966187e+01	1.490001e+03
2.030000e-06	4.056194e-06	2.265196e-08	2.918930e+01	1.485578e+03
2.040000e-06	3.989248e-06	2.258750e-08	2.870755e+01	1.481046e+03
2.050000e-06	3.920961e-06	2.253696e-08	2.821614e+01	1.476280e+03
2.060000e-06	3.851122e-06	2.241741e-08	2.771356e+01	1.471174e+03
2.070000e-06	3.779715e-06	2.235220e-08	2.719970e+01	1.465675e+03
2.080000e-06	3.707090e-06	2.224668e-08	2.667707e+01	1.459794e+03
2.090000e-06	3.633198e-06	2.217270e-08	2.614532e+01	1.453608e+03
2.100000e-06	3.557942e-06	2.209065e-08	2.560377e+01	1.447230e+03
2.110000e-06	3.481212e-06	2.198518e-08	2.505160e+01	1.440775e+03
2.120000e-06	3.402924e-06	2.190175e-08	2.448822e+01	1.434320e+03
2.130000e-06	3.323328e-06	2.178785e-08	2.391543e+01	1.427879e+03
2.140000e-06	3.242570e-06	2.169274e-08	2.333428e+01	1.421393e+03
2.150000e-06	3.160742e-06	2.157050e-08	2.274543e+01	1.414749e+03
2.160000e-06	3.077858e-06	2.146466e-08	2.214897e+01	1.407811e+03
2.170000e-06	2.994041e-06	2.136586e-08	2.154580e+01	1.400459e+03
2.180000e-06	2.909252e-06	2.124713e-08	2.093564e+01	1.392626e+03
2.190000e-06	2.823121e-06	2.112466e-08	2.031582e+01	1.384317e+03
2.200000e-06	2.735762e-06	2.098827e-08	1.968717e+01	1.375605e+03
2.210000e-06	2.647483e-06	2.086677e-08	1.905190e+01	1.366604e+03
2.220000e-06	2.558290e-06	2.073283e-08	1.841004e+01	1.357431e+03
2.230000e-06	2.468147e-06	2.059583e-08	1.776136e+01	1.348162e+03
2.240000e-06	2.377209e-06	2.045276e-08	1.710694e+01	1.338805e+03
2.250000e-06	2.285609e-06	2.030408e-08	1.644777e+01	1.329288e+03
2.260000e-06	2.193334e-06	2.014625e-08	1.578373e+01	1.319478e+03
2.270000e-06	2.100166e-06	1.997961e-08	1.511327e+01	1.309217e+03
2.280000e-06	2.005901e-06	1.981901e-08	1.443492e+01	1.298366e+03
2.290000e-06	1.910806e-06	1.965230e-08	1.375060e+01	1.286851e+03
2.300000e-06	1.815087e-06	1.947614e-08	1.306178e+01	1.274679e+03
2.310000e-06	1.718806e-06	1.928475e-08	1.236893e+01	1.261935e+03
2.320000e-06	1.622037e-06	1.908843e-08	1.167255e+01	1.248753e+03
2.330000e-06	1.524769e-06	1.888827e-08	1.097259e+01	1.235266e+03
2.340000e-06	1.426991e-06	1.868296e-08	1.026896e+01	1.221551e+03
2.350000e-06	1.328707e-06	1.847013e-08	9.561682e+00	1.207597e+03
2.360000e-06	1.230001e-06	1.824571e-08	8.851371e+00	1.193293e+03
2.370000e-06	1.130996e-06	1.801035e-08	8.138909e+00	1.178444e+03
2.380000e-06	1.031784e-06	1.776244e-08	7.424953e+00	1.162826e+03
2.390000e-06	9.322842e-07	1.750314e-08	6.708931e+00	1.146238e+03
2.400000e-06	8.324748e-07	1.723490e-08	5.990680e+00	1.128559e+03
2.410000e-06	7.323934e-07	1.696047e-08	5.270471e+00	1.109777e+03
2.420000e-06	6.320703e-07	1.667339e-08	4.548522e+00	1.089980e+03
2.430000e-06	5.315824e-07	1.636999e-08	3.825389e+00	1.069315e+03
2.440000e-06	4.308880e-07	1.604796e-08	3.100769e+00	1.047917e+03
2.450000e-06	3.300114e-07	1.570800e-08	2.374837e+00	1.025837e+03
2.460000e-06	2.290209e-07	1.535194e-08	1.648087e+00	1.002986e+03
2.470000e-06	1.278741e-07	1.497733e-08	9.202112e-01	9.791172e+02
2.480000e-06	2.657509e-08	1.458336e-08	1.912405e-01	9.538582e+02
2.490000e-06	-7.477214e-08	1.416498e-08	-5.380775e-01	9.267775e+02
2.500000e-06	-1.760708e-07	1.371555e-08	-1.267046e+00	8.974777e+02
2.510000e-06	-2.772565e-07	1.323253e-08	-1.995201e+00	8.656774e+02
2.520000e-06	-3.783365e-07	1.271637e-08	-2.722596e+00	8.312542e+02
2.530000e-06	-4.792832e-07	1.216684e-08	-3.449032e+00	7.942261e+02
2.540000e-06	-5.800852e-07	1.157894e-08	-4.174426e+00	7.546648e+02
2.550000e-06	-6.807430e-07	1.094352e-08	-4.898783e+00	7.125557e+02
2.560000e-06	-7.811190e-07	1.025236e-08	-5.621111e+00	6.676384e+02
2.570000e-06	-8.811194e-07	9.497313e-09	-6.340737e+00	6.192731e+02
2.580000e-06	-9.808040e-07	8.668141e-09	-7.058090e+00	5.663802e+02
2.590000e-06	-1.080230e-06	7.752674e-09	-7.773581e+00	5.074884e+02
2.600000e-06	-1.179303e-06	6.733814e-09	-8.486538e+00	4.409037e+02
2.610000e-06	-1.277993e-06	5.591745e-09	-9.196730e+00	3.649822e+02
2.620000e-06	-1.376267e-06	4.303889e-09	-9.903930e+00	2.784640e+02
2.630000e-06	-1.474038e-06	2.850377e-09	-1.060752e+01	1.808032e+02
2.640000e-06	-1.571239e-06	1.223648e-09	-1.130700e+01	7.242377e+01
2.650000e-06	-1.667979e-06	-5.624462e-10	-1.200316e+01	-4.516006e+01
2.660000e-06	-1.764308e-06	-2.473969e-09	-1.269636e+01	-1.693946e+02
2.670000e-06	-1.860059e-06	-4.454534e-09	-1.338541e+01	-2.969122e+02
2.680000e-06	-1.955057e-06	-6.428100e-09	-1.406904e+01	-4.238990e+02
2.690000e-06	-2.049195e-06	-8.320430e-09	-1.474647e+01	-5.465405e+02
2.700000e-06	-2.142456e-06	-1.007641e-08	-1.541760e+01	-6.614676e+02
2.710000e-06	-2.234853e-06	-1.166203e-08	-1.608251e+01	-7.661228e+02
2.720000e-06	-2.326410e-06	-1.306382e-08	-1.674138e+01	-8.589857e+02
2.730000e-06	-2.417129e-06	-1.428505e-08	-1.739422e+01	-9.396247e+02
2.740000e-06	-2.506989e-06	-1.534106e-08	-1.804087e+01	-1.008580e+03
2.750000e-06	-2.595992e-06	-1.625205e-08	-1.868135e+01	-1.067116e+03
2.760000e-06	-2.684200e-06	-1.703821e-08	-1.931612e+01	-1.116895e+03
2.770000e-06	-2.771567e-06	-1.771951e-08	-1.994483e+01	-1.159659e+03
2.780000e-06	-2.857898e-06	-1.831066e-08	-2.056609e+01	-1.196960e+03
2.790000e-06	-2.943091e-06	-1.882440e-08	-2.117916e+01	-1.229995e+03
2.800000e-06	-3.027196e-06	-1.927218e-08	-2.178440e+01	-1.259558e+03
2.810000e-06	-3.110271e-06	-1.966633e-08	-2.238222e+01	-1.286091e+03
2.820000e-06	-3.192310e-06	-2.001408e-08	-2.297259e+01	-1.309806e+03
2.830000e-06	-3.273301e-06	-2.032396e-08	-2.355542e+01	-1.330827e+03
2.840000e-06	-3.353230e-06	-2.060341e-08	-2.413061e+01	-1.349312e+03
2.850000e-06	-3.431941e-06	-2.085538e-08	-2.469703e+01	-1.365525e+03
2.860000e-06	-3.509205e-06	-2.108543e-08	-2.525304e+01	-1.379845e+03
2.870000e-06	-3.584990e-06	-2.129710e-08	-2.579841e+01	-1.392722e+03
2.880000e-06	-3.659363e-06	-2.149048e-08	-2.633362e+01	-1.404594e+03
2.890000e-06	-3.732403e-06	-2.166779e-08	-2.685923e+01	-1.415810e+03
2.900000e-06	-3.804209e-06	-2.183140e-08	-2.737596e+01	-1.426574e+03
2.910000e-06	-3.874551e-06	-2.198410e-08	-2.788216e+01	-1.436927e+03
2.920000e-06	-3.943280e-06	-2.212862e-08	-2.837675e+01	-1.446778e+03
2.930000e-06	-4.010598e-06	-2.226118e-08	-2.886118e+01	-1.455969e+03
2.940000e-06	-4.076568e-06	-2.238149e-08	-2.933592e+01	-1.464349e+03
