# Temperatura_=_37.68
# Concentracion g/m^3_=_41000.0
# C_Vs_to_Am_M_A/Vsm_=_65563218390.804596
# pendiente_HvsI_1/m_=_3716.3
# ordenada_HvsI_A/m_=_1297.0
# frecuencia_Hz_=_301609.3722796204

Tiempo_(s)	Campo_(V.s)	Magnetizacion_(V.s)	Campo_(kA/m)	Magnetizacion_(A/m)
0.000000e+00	-5.319536e-06	-2.368984e-08	-3.834421e+01	-1.548775e+03
1.000000e-08	-5.317321e-06	-2.368603e-08	-3.832825e+01	-1.548329e+03
2.000000e-08	-5.313298e-06	-2.368075e-08	-3.829925e+01	-1.547934e+03
3.000000e-08	-5.307682e-06	-2.367504e-08	-3.825876e+01	-1.547607e+03
4.000000e-08	-5.300509e-06	-2.366858e-08	-3.820706e+01	-1.547307e+03
5.000000e-08	-5.291555e-06	-2.365741e-08	-3.814251e+01	-1.546950e+03
6.000000e-08	-5.280474e-06	-2.364237e-08	-3.806265e+01	-1.546432e+03
7.000000e-08	-5.267481e-06	-2.362261e-08	-3.796898e+01	-1.545664e+03
8.000000e-08	-5.252508e-06	-2.360796e-08	-3.786106e+01	-1.544603e+03
9.000000e-08	-5.235273e-06	-2.361850e-08	-3.773683e+01	-1.543262e+03
1.000000e-07	-5.215944e-06	-2.360735e-08	-3.759750e+01	-1.541715e+03
1.100000e-07	-5.194699e-06	-2.356481e-08	-3.744436e+01	-1.540070e+03
1.200000e-07	-5.171776e-06	-2.352375e-08	-3.727913e+01	-1.538439e+03
1.300000e-07	-5.147544e-06	-2.346534e-08	-3.710446e+01	-1.536906e+03
1.400000e-07	-5.121821e-06	-2.345620e-08	-3.691904e+01	-1.535498e+03
1.500000e-07	-5.094299e-06	-2.347028e-08	-3.672066e+01	-1.534178e+03
1.600000e-07	-5.065229e-06	-2.338930e-08	-3.651112e+01	-1.532855e+03
1.700000e-07	-5.034753e-06	-2.338729e-08	-3.629144e+01	-1.531409e+03
1.800000e-07	-5.002315e-06	-2.340162e-08	-3.605762e+01	-1.529727e+03
1.900000e-07	-4.967723e-06	-2.328581e-08	-3.580827e+01	-1.527734e+03
2.000000e-07	-4.931581e-06	-2.325395e-08	-3.554775e+01	-1.525417e+03
2.100000e-07	-4.893841e-06	-2.324235e-08	-3.527572e+01	-1.522823e+03
2.200000e-07	-4.854371e-06	-2.317422e-08	-3.499121e+01	-1.520046e+03
2.300000e-07	-4.813090e-06	-2.316636e-08	-3.469366e+01	-1.517195e+03
2.400000e-07	-4.769780e-06	-2.311784e-08	-3.438146e+01	-1.514360e+03
2.500000e-07	-4.724721e-06	-2.303735e-08	-3.405667e+01	-1.511583e+03
2.600000e-07	-4.677967e-06	-2.300336e-08	-3.371966e+01	-1.508846e+03
2.700000e-07	-4.629333e-06	-2.295323e-08	-3.336910e+01	-1.506073e+03
2.800000e-07	-4.578579e-06	-2.291887e-08	-3.300325e+01	-1.503157e+03
2.900000e-07	-4.525796e-06	-2.285734e-08	-3.262278e+01	-1.499989e+03
3.000000e-07	-4.471396e-06	-2.277927e-08	-3.223066e+01	-1.496493e+03
3.100000e-07	-4.415465e-06	-2.274784e-08	-3.182750e+01	-1.492648e+03
3.200000e-07	-4.357700e-06	-2.269528e-08	-3.141111e+01	-1.488492e+03
3.300000e-07	-4.298172e-06	-2.261205e-08	-3.098203e+01	-1.484114e+03
3.400000e-07	-4.237222e-06	-2.254503e-08	-3.054269e+01	-1.479620e+03
3.500000e-07	-4.174831e-06	-2.248960e-08	-3.009296e+01	-1.475101e+03
3.600000e-07	-4.111122e-06	-2.240217e-08	-2.963374e+01	-1.470605e+03
3.700000e-07	-4.045952e-06	-2.232300e-08	-2.916398e+01	-1.466121e+03
3.800000e-07	-3.979079e-06	-2.228499e-08	-2.868194e+01	-1.461581e+03
3.900000e-07	-3.910683e-06	-2.220894e-08	-2.818894e+01	-1.456883e+03
4.000000e-07	-3.841021e-06	-2.210586e-08	-2.768680e+01	-1.451919e+03
4.100000e-07	-3.770189e-06	-2.202031e-08	-2.717623e+01	-1.446614e+03
4.200000e-07	-3.698170e-06	-2.193923e-08	-2.665710e+01	-1.440944e+03
4.300000e-07	-3.624665e-06	-2.185752e-08	-2.612726e+01	-1.434946e+03
4.400000e-07	-3.549470e-06	-2.176897e-08	-2.558524e+01	-1.428705e+03
4.500000e-07	-3.472852e-06	-2.167539e-08	-2.503297e+01	-1.422325e+03
4.600000e-07	-3.394956e-06	-2.156857e-08	-2.447148e+01	-1.415893e+03
4.700000e-07	-3.315635e-06	-2.146141e-08	-2.389972e+01	-1.409452e+03
4.800000e-07	-3.234963e-06	-2.136379e-08	-2.331821e+01	-1.402981e+03
4.900000e-07	-3.153177e-06	-2.126348e-08	-2.272869e+01	-1.396399e+03
5.000000e-07	-3.070352e-06	-2.116110e-08	-2.213167e+01	-1.389585e+03
5.100000e-07	-2.986665e-06	-2.104871e-08	-2.152844e+01	-1.382418e+03
5.200000e-07	-2.902159e-06	-2.092641e-08	-2.091931e+01	-1.374808e+03
5.300000e-07	-2.816643e-06	-2.079601e-08	-2.030289e+01	-1.366727e+03
5.400000e-07	-2.730122e-06	-2.066697e-08	-1.967923e+01	-1.358211e+03
5.500000e-07	-2.642778e-06	-2.054405e-08	-1.904964e+01	-1.349353e+03
5.600000e-07	-2.554561e-06	-2.041210e-08	-1.841376e+01	-1.340268e+03
5.700000e-07	-2.465196e-06	-2.027019e-08	-1.776960e+01	-1.331052e+03
5.800000e-07	-2.374639e-06	-2.012381e-08	-1.711684e+01	-1.321749e+03
5.900000e-07	-2.283202e-06	-1.997591e-08	-1.645774e+01	-1.312328e+03
6.000000e-07	-2.191055e-06	-1.982030e-08	-1.579353e+01	-1.302688e+03
6.100000e-07	-2.098152e-06	-1.965817e-08	-1.512387e+01	-1.292683e+03
6.200000e-07	-2.004420e-06	-1.949370e-08	-1.444823e+01	-1.282162e+03
6.300000e-07	-1.909930e-06	-1.932210e-08	-1.376713e+01	-1.271010e+03
6.400000e-07	-1.814867e-06	-1.914243e-08	-1.308190e+01	-1.259186e+03
6.500000e-07	-1.719302e-06	-1.895578e-08	-1.239305e+01	-1.246731e+03
6.600000e-07	-1.623165e-06	-1.876395e-08	-1.170008e+01	-1.233749e+03
6.700000e-07	-1.526377e-06	-1.856558e-08	-1.100241e+01	-1.220377e+03
6.800000e-07	-1.428868e-06	-1.836055e-08	-1.029954e+01	-1.206729e+03
6.900000e-07	-1.330654e-06	-1.814645e-08	-9.591605e+00	-1.192852e+03
7.000000e-07	-1.231914e-06	-1.792275e-08	-8.879865e+00	-1.178703e+03
7.100000e-07	-1.132757e-06	-1.769189e-08	-8.165122e+00	-1.164142e+03
7.200000e-07	-1.033274e-06	-1.745190e-08	-7.448033e+00	-1.148968e+03
7.300000e-07	-9.335560e-07	-1.720320e-08	-6.729246e+00	-1.132969e+03
7.400000e-07	-8.335602e-07	-1.694612e-08	-6.008458e+00	-1.115975e+03
7.500000e-07	-7.332763e-07	-1.667830e-08	-5.285592e+00	-1.097902e+03
7.600000e-07	-6.327995e-07	-1.639557e-08	-4.561337e+00	-1.078769e+03
7.700000e-07	-5.321609e-07	-1.609754e-08	-3.835915e+00	-1.058679e+03
7.800000e-07	-4.313719e-07	-1.578505e-08	-3.109409e+00	-1.037766e+03
7.900000e-07	-3.304383e-07	-1.545662e-08	-2.381861e+00	-1.016130e+03
8.000000e-07	-2.293415e-07	-1.511138e-08	-1.653136e+00	-9.937720e+02
8.100000e-07	-1.281677e-07	-1.474804e-08	-9.238568e-01	-9.705528e+02
8.200000e-07	-2.692256e-08	-1.436526e-08	-1.940628e-01	-9.461950e+02
8.300000e-07	7.439203e-08	-1.396165e-08	5.362316e-01	-9.203241e+02
8.400000e-07	1.756480e-07	-1.353364e-08	1.266104e+00	-8.925427e+02
8.500000e-07	2.768222e-07	-1.307573e-08	1.995386e+00	-8.625140e+02
8.600000e-07	3.779531e-07	-1.258825e-08	2.724356e+00	-8.300262e+02
8.700000e-07	4.789857e-07	-1.207025e-08	3.452618e+00	-7.950114e+02
8.800000e-07	5.798912e-07	-1.151558e-08	4.179964e+00	-7.575028e+02
8.900000e-07	6.806505e-07	-1.091759e-08	4.906256e+00	-7.175333e+02
9.000000e-07	7.811858e-07	-1.026870e-08	5.630933e+00	-6.749947e+02
9.100000e-07	8.815009e-07	-9.563226e-09	6.354023e+00	-6.294953e+02
9.200000e-07	9.815669e-07	-8.791141e-09	7.075317e+00	-5.802586e+02
9.300000e-07	1.081320e-06	-7.942616e-09	7.794354e+00	-5.261052e+02
9.400000e-07	1.180711e-06	-7.003770e-09	8.510788e+00	-4.655425e+02
9.500000e-07	1.279682e-06	-5.955470e-09	9.224187e+00	-3.969629e+02
9.600000e-07	1.378109e-06	-4.776701e-09	9.933670e+00	-3.189270e+02
9.700000e-07	1.475885e-06	-3.447964e-09	1.063845e+01	-2.304806e+02
9.800000e-07	1.573017e-06	-1.957436e-09	1.133860e+01	-1.314433e+02
9.900000e-07	1.669492e-06	-3.064463e-10	1.203401e+01	-2.260528e+01
1.000000e-06	1.765196e-06	1.484435e-09	1.272387e+01	9.421904e+01
1.010000e-06	1.860223e-06	3.371504e-09	1.340884e+01	2.163004e+02
1.020000e-06	1.954662e-06	5.289916e-09	1.408957e+01	3.402596e+02
1.030000e-06	2.048428e-06	7.170176e-09	1.476545e+01	4.624452e+02
1.040000e-06	2.141510e-06	8.949293e-09	1.543641e+01	5.793575e+02
1.050000e-06	2.233926e-06	1.058163e-08	1.610255e+01	6.880462e+02
1.060000e-06	2.325670e-06	1.204370e-08	1.676386e+01	7.864097e+02
1.070000e-06	2.416589e-06	1.333109e-08	1.741922e+01	8.733500e+02
1.080000e-06	2.506529e-06	1.445339e-08	1.806753e+01	9.487648e+02
1.090000e-06	2.595392e-06	1.542712e-08	1.870807e+01	1.013392e+03
1.100000e-06	2.683176e-06	1.627435e-08	1.934083e+01	1.068548e+03
1.110000e-06	2.770071e-06	1.700848e-08	1.996719e+01	1.115826e+03
1.120000e-06	2.856113e-06	1.764342e-08	2.058740e+01	1.156803e+03
1.130000e-06	2.941249e-06	1.819598e-08	2.120107e+01	1.192831e+03
1.140000e-06	3.025514e-06	1.867918e-08	2.180847e+01	1.224910e+03
1.150000e-06	3.108891e-06	1.910335e-08	2.240946e+01	1.253684e+03
1.160000e-06	3.191227e-06	1.948016e-08	2.300296e+01	1.279506e+03
1.170000e-06	3.272336e-06	1.981862e-08	2.358761e+01	1.302560e+03
1.180000e-06	3.352170e-06	2.012030e-08	2.416306e+01	1.322990e+03
1.190000e-06	3.430789e-06	2.038987e-08	2.472976e+01	1.340992e+03
1.200000e-06	3.508182e-06	2.063349e-08	2.528763e+01	1.356867e+03
1.210000e-06	3.584320e-06	2.085781e-08	2.583645e+01	1.371005e+03
1.220000e-06	3.659064e-06	2.106371e-08	2.637522e+01	1.383833e+03
1.230000e-06	3.732213e-06	2.125113e-08	2.690249e+01	1.395743e+03
1.240000e-06	3.803873e-06	2.142273e-08	2.741903e+01	1.407021e+03
1.250000e-06	3.874170e-06	2.158277e-08	2.792574e+01	1.417812e+03
1.260000e-06	3.943139e-06	2.173231e-08	2.842288e+01	1.428119e+03
1.270000e-06	4.010850e-06	2.187228e-08	2.891096e+01	1.437842e+03
1.280000e-06	4.077083e-06	2.200119e-08	2.938837e+01	1.446840e+03
1.290000e-06	4.141613e-06	2.212039e-08	2.985352e+01	1.455003e+03
1.300000e-06	4.204601e-06	2.223151e-08	3.030755e+01	1.462299e+03
1.310000e-06	4.266197e-06	2.233317e-08	3.075154e+01	1.468799e+03
1.320000e-06	4.326502e-06	2.242820e-08	3.118624e+01	1.474662e+03
1.330000e-06	4.385437e-06	2.251806e-08	3.161105e+01	1.480097e+03
1.340000e-06	4.442633e-06	2.260308e-08	3.202333e+01	1.485311e+03
1.350000e-06	4.498069e-06	2.268303e-08	3.242292e+01	1.490448e+03
1.360000e-06	4.551904e-06	2.275886e-08	3.281097e+01	1.495570e+03
1.370000e-06	4.604022e-06	2.283099e-08	3.318665e+01	1.500640e+03
1.380000e-06	4.654141e-06	2.289819e-08	3.354792e+01	1.505551e+03
1.390000e-06	4.702316e-06	2.296044e-08	3.389518e+01	1.510170e+03
1.400000e-06	4.748815e-06	2.301948e-08	3.423035e+01	1.514379e+03
1.410000e-06	4.793709e-06	2.307583e-08	3.455395e+01	1.518122e+03
1.420000e-06	4.837034e-06	2.312902e-08	3.486624e+01	1.521415e+03
1.430000e-06	4.878588e-06	2.317934e-08	3.516578e+01	1.524345e+03
1.440000e-06	4.918303e-06	2.322619e-08	3.545205e+01	1.527041e+03
1.450000e-06	4.956379e-06	2.326875e-08	3.572651e+01	1.529632e+03
1.460000e-06	4.992894e-06	2.330713e-08	3.598971e+01	1.532208e+03
1.470000e-06	5.027658e-06	2.334236e-08	3.624029e+01	1.534797e+03
1.480000e-06	5.060492e-06	2.337363e-08	3.647697e+01	1.537361e+03
1.490000e-06	5.091563e-06	2.340057e-08	3.670094e+01	1.539809e+03
1.500000e-06	5.120979e-06	2.342663e-08	3.691297e+01	1.542033e+03
1.510000e-06	5.148740e-06	2.345332e-08	3.711308e+01	1.543942e+03
1.520000e-06	5.174573e-06	2.347882e-08	3.729929e+01	1.545496e+03
1.530000e-06	5.198323e-06	2.350156e-08	3.747048e+01	1.546715e+03
1.540000e-06	5.220227e-06	2.352084e-08	3.762837e+01	1.547678e+03
1.550000e-06	5.240440e-06	2.353713e-08	3.777407e+01	1.548493e+03
1.560000e-06	5.258912e-06	2.355137e-08	3.790722e+01	1.549268e+03
1.570000e-06	5.275493e-06	2.356511e-08	3.802674e+01	1.550077e+03
1.580000e-06	5.290079e-06	2.357738e-08	3.813188e+01	1.550938e+03
1.590000e-06	5.302636e-06	2.358644e-08	3.822239e+01	1.551811e+03
1.600000e-06	5.313026e-06	2.359343e-08	3.829728e+01	1.552612e+03
1.610000e-06	5.321280e-06	2.359995e-08	3.835678e+01	1.553245e+03
1.620000e-06	5.327604e-06	2.360575e-08	3.840236e+01	1.553629e+03
1.630000e-06	5.332163e-06	2.361045e-08	3.843522e+01	1.553731e+03
1.640000e-06	5.334891e-06	2.361280e-08	3.845489e+01	1.553571e+03
1.650000e-06	5.335600e-06	2.361287e-08	3.846000e+01	1.553221e+03
1.660000e-06	5.334475e-06	2.361001e-08	3.845189e+01	1.552779e+03
1.670000e-06	5.331710e-06	2.360472e-08	3.843196e+01	1.552339e+03
1.680000e-06	5.327387e-06	2.360171e-08	3.840080e+01	1.551958e+03
1.690000e-06	5.321229e-06	2.359726e-08	3.835641e+01	1.551641e+03
1.700000e-06	5.313146e-06	2.358894e-08	3.829815e+01	1.551336e+03
1.710000e-06	5.303450e-06	2.357928e-08	3.822826e+01	1.550952e+03
1.720000e-06	5.292146e-06	2.357145e-08	3.814678e+01	1.550385e+03
1.730000e-06	5.279010e-06	2.356319e-08	3.805209e+01	1.549555e+03
1.740000e-06	5.263852e-06	2.351218e-08	3.794283e+01	1.548429e+03
1.750000e-06	5.246476e-06	2.347264e-08	3.781758e+01	1.547036e+03
1.760000e-06	5.226586e-06	2.347949e-08	3.767421e+01	1.545456e+03
1.770000e-06	5.204204e-06	2.347933e-08	3.751288e+01	1.543804e+03
1.780000e-06	5.180189e-06	2.350135e-08	3.733977e+01	1.542188e+03
1.790000e-06	5.155437e-06	2.344697e-08	3.716135e+01	1.540680e+03
1.800000e-06	5.129570e-06	2.337766e-08	3.697490e+01	1.539295e+03
1.810000e-06	5.101808e-06	2.343415e-08	3.677479e+01	1.537982e+03
1.820000e-06	5.072209e-06	2.338213e-08	3.656143e+01	1.536642e+03
1.830000e-06	5.040811e-06	2.332589e-08	3.633511e+01	1.535153e+03
1.840000e-06	5.007434e-06	2.340196e-08	3.609452e+01	1.533407e+03
1.850000e-06	4.972465e-06	2.334374e-08	3.584246e+01	1.531343e+03
1.860000e-06	4.935835e-06	2.330449e-08	3.557842e+01	1.528960e+03
1.870000e-06	4.897131e-06	2.332359e-08	3.529944e+01	1.526317e+03
1.880000e-06	4.856751e-06	2.319605e-08	3.500837e+01	1.523513e+03
1.890000e-06	4.814660e-06	2.318606e-08	3.470497e+01	1.520658e+03
1.900000e-06	4.770846e-06	2.318799e-08	3.438915e+01	1.517833e+03
1.910000e-06	4.725434e-06	2.310639e-08	3.406181e+01	1.515067e+03
1.920000e-06	4.678098e-06	2.310450e-08	3.372060e+01	1.512329e+03
1.930000e-06	4.629066e-06	2.302449e-08	3.336717e+01	1.509534e+03
1.940000e-06	4.578334e-06	2.300819e-08	3.300149e+01	1.506571e+03
1.950000e-06	4.525626e-06	2.296981e-08	3.262156e+01	1.503337e+03
1.960000e-06	4.470974e-06	2.284543e-08	3.222762e+01	1.499764e+03
1.970000e-06	4.414500e-06	2.284844e-08	3.182054e+01	1.495846e+03
1.980000e-06	4.356447e-06	2.278086e-08	3.140208e+01	1.491633e+03
1.990000e-06	4.297008e-06	2.269400e-08	3.097364e+01	1.487220e+03
2.000000e-06	4.236186e-06	2.265365e-08	3.053522e+01	1.482713e+03
2.010000e-06	4.173684e-06	2.259483e-08	3.008470e+01	1.478195e+03
2.020000e-06	4.109476e-06	2.254595e-08	2.962187e+01	1.473704e+03
2.030000e-06	4.043865e-06	2.241158e-08	2.914894e+01	1.469214e+03
2.040000e-06	3.976851e-06	2.235225e-08	2.866588e+01	1.464648e+03
2.050000e-06	3.908564e-06	2.231571e-08	2.817366e+01	1.459900e+03
2.060000e-06	3.838740e-06	2.221823e-08	2.767036e+01	1.454867e+03
2.070000e-06	3.767315e-06	2.214308e-08	2.715551e+01	1.449483e+03
2.080000e-06	3.694676e-06	2.203928e-08	2.663192e+01	1.443736e+03
2.090000e-06	3.620735e-06	2.196774e-08	2.609894e+01	1.437677e+03
2.100000e-06	3.545481e-06	2.187076e-08	2.555649e+01	1.431396e+03
2.110000e-06	3.468817e-06	2.177763e-08	2.500388e+01	1.424997e+03
2.120000e-06	3.390567e-06	2.169967e-08	2.443984e+01	1.418561e+03
2.130000e-06	3.310963e-06	2.159065e-08	2.386604e+01	1.412116e+03
2.140000e-06	3.230259e-06	2.149321e-08	2.328431e+01	1.405629e+03
2.150000e-06	3.148448e-06	2.137109e-08	2.269460e+01	1.399006e+03
2.160000e-06	3.065516e-06	2.126249e-08	2.209681e+01	1.392125e+03
2.170000e-06	2.981709e-06	2.115194e-08	2.149272e+01	1.384868e+03
2.180000e-06	2.896974e-06	2.104431e-08	2.088193e+01	1.377156e+03
2.190000e-06	2.810866e-06	2.093092e-08	2.026125e+01	1.368975e+03
2.200000e-06	2.723480e-06	2.079344e-08	1.963135e+01	1.360375e+03
2.210000e-06	2.635157e-06	2.066701e-08	1.899470e+01	1.351458e+03
2.220000e-06	2.545951e-06	2.053225e-08	1.835169e+01	1.342337e+03
2.230000e-06	2.455878e-06	2.039596e-08	1.770242e+01	1.333100e+03
2.240000e-06	2.364998e-06	2.025067e-08	1.704734e+01	1.323775e+03
2.250000e-06	2.273388e-06	2.010924e-08	1.638701e+01	1.314317e+03
2.260000e-06	2.181168e-06	1.996061e-08	1.572227e+01	1.304611e+03
2.270000e-06	2.088105e-06	1.979438e-08	1.505145e+01	1.294507e+03
2.280000e-06	1.993993e-06	1.962942e-08	1.437308e+01	1.283856e+03
2.290000e-06	1.899006e-06	1.946326e-08	1.368839e+01	1.272560e+03
2.300000e-06	1.803375e-06	1.929442e-08	1.299906e+01	1.260594e+03
2.310000e-06	1.707248e-06	1.910774e-08	1.230616e+01	1.248013e+03
2.320000e-06	1.610617e-06	1.890858e-08	1.160963e+01	1.234935e+03
2.330000e-06	1.513520e-06	1.870794e-08	1.090973e+01	1.221495e+03
2.340000e-06	1.415954e-06	1.850609e-08	1.020646e+01	1.207796e+03
2.350000e-06	1.317810e-06	1.829474e-08	9.499022e+00	1.193867e+03
2.360000e-06	1.219165e-06	1.807088e-08	8.787970e+00	1.179642e+03
2.370000e-06	1.120206e-06	1.783914e-08	8.074658e+00	1.164967e+03
2.380000e-06	1.020990e-06	1.759915e-08	7.359485e+00	1.149633e+03
2.390000e-06	9.215336e-07	1.734701e-08	6.642586e+00	1.133431e+03
2.400000e-06	8.218603e-07	1.708167e-08	5.924122e+00	1.116208e+03
2.410000e-06	7.219998e-07	1.680941e-08	5.204309e+00	1.097901e+03
2.420000e-06	6.219395e-07	1.652455e-08	4.483056e+00	1.078552e+03
2.430000e-06	5.216596e-07	1.622175e-08	3.760220e+00	1.058273e+03
2.440000e-06	4.212434e-07	1.590529e-08	3.036401e+00	1.037198e+03
2.450000e-06	3.206673e-07	1.557805e-08	2.311430e+00	1.015411e+03
2.460000e-06	2.198513e-07	1.523347e-08	1.584729e+00	9.928836e+02
2.470000e-06	1.188238e-07	1.486485e-08	8.565044e-01	9.694468e+02
2.480000e-06	1.767974e-08	1.447609e-08	1.274389e-01	9.447971e+02
2.490000e-06	-8.349869e-08	1.406815e-08	-6.018741e-01	9.185483e+02
2.500000e-06	-1.846712e-07	1.363498e-08	-1.331144e+00	8.903090e+02
2.510000e-06	-2.857424e-07	1.317075e-08	-2.059684e+00	8.597650e+02
2.520000e-06	-3.866363e-07	1.267399e-08	-2.786947e+00	8.267358e+02
2.530000e-06	-4.873364e-07	1.214159e-08	-3.512812e+00	7.911807e+02
2.540000e-06	-5.878697e-07	1.157238e-08	-4.237474e+00	7.531433e+02
2.550000e-06	-6.882599e-07	1.096309e-08	-4.961106e+00	7.126388e+02
2.560000e-06	-7.884149e-07	1.030630e-08	-5.683042e+00	6.695096e+02
2.570000e-06	-8.882264e-07	9.590971e-09	-6.402502e+00	6.232876e+02
2.580000e-06	-9.877072e-07	8.805589e-09	-7.119578e+00	5.731083e+02
2.590000e-06	-1.086926e-06	7.942552e-09	-7.834764e+00	5.177136e+02
2.600000e-06	-1.185888e-06	6.986548e-09	-8.548104e+00	4.555661e+02
2.610000e-06	-1.284459e-06	5.918039e-09	-9.258617e+00	3.850685e+02
2.620000e-06	-1.382499e-06	4.717128e-09	-9.965314e+00	3.048584e+02
2.630000e-06	-1.480039e-06	3.365815e-09	-1.066840e+01	2.141256e+02
2.640000e-06	-1.577103e-06	1.852396e-09	-1.136805e+01	1.128854e+02
2.650000e-06	-1.673710e-06	1.793225e-10	-1.206441e+01	2.148097e+00
2.660000e-06	-1.769846e-06	-1.630771e-09	-1.275738e+01	-1.160608e+02
2.670000e-06	-1.865368e-06	-3.532042e-09	-1.344592e+01	-2.388458e+02
2.680000e-06	-1.960079e-06	-5.457766e-09	-1.412862e+01	-3.627348e+02
2.690000e-06	-2.053932e-06	-7.335710e-09	-1.480512e+01	-4.840730e+02
2.700000e-06	-2.146947e-06	-9.105329e-09	-1.547560e+01	-5.994475e+02
2.710000e-06	-2.239058e-06	-1.072594e-08	-1.613955e+01	-7.060688e+02
2.720000e-06	-2.330334e-06	-1.217814e-08	-1.679748e+01	-8.020430e+02
2.730000e-06	-2.420827e-06	-1.345822e-08	-1.744977e+01	-8.864914e+02
2.740000e-06	-2.510422e-06	-1.457317e-08	-1.809559e+01	-9.595094e+02
2.750000e-06	-2.599201e-06	-1.553860e-08	-1.873553e+01	-1.021983e+03
2.760000e-06	-2.687237e-06	-1.637488e-08	-1.937011e+01	-1.075315e+03
2.770000e-06	-2.774367e-06	-1.710162e-08	-1.999815e+01	-1.121116e+03
2.780000e-06	-2.860419e-06	-1.773476e-08	-2.061844e+01	-1.160931e+03
2.790000e-06	-2.945280e-06	-1.828638e-08	-2.123013e+01	-1.196042e+03
2.800000e-06	-3.029070e-06	-1.876582e-08	-2.183410e+01	-1.227372e+03
2.810000e-06	-3.111930e-06	-1.918608e-08	-2.243138e+01	-1.255492e+03
2.820000e-06	-3.193784e-06	-1.955871e-08	-2.302139e+01	-1.280710e+03
2.830000e-06	-3.274595e-06	-1.989019e-08	-2.360389e+01	-1.303190e+03
2.840000e-06	-3.354317e-06	-2.018849e-08	-2.417855e+01	-1.323081e+03
2.850000e-06	-3.432752e-06	-2.045871e-08	-2.474392e+01	-1.340600e+03
2.860000e-06	-3.509654e-06	-2.070423e-08	-2.529824e+01	-1.356068e+03
2.870000e-06	-3.585113e-06	-2.092909e-08	-2.584216e+01	-1.369891e+03
2.880000e-06	-3.659250e-06	-2.113492e-08	-2.637656e+01	-1.382493e+03
2.890000e-06	-3.732065e-06	-2.132318e-08	-2.690142e+01	-1.394249e+03
2.900000e-06	-3.803613e-06	-2.149477e-08	-2.741715e+01	-1.405417e+03
2.910000e-06	-3.873706e-06	-2.165337e-08	-2.792239e+01	-1.416110e+03
2.920000e-06	-3.942234e-06	-2.180326e-08	-2.841636e+01	-1.426304e+03
2.930000e-06	-4.009397e-06	-2.194400e-08	-2.890048e+01	-1.435884e+03
2.940000e-06	-4.075212e-06	-2.207403e-08	-2.937489e+01	-1.444712e+03
