# Temperatura_=_68.2
# Concentracion g/m^3_=_41000.0
# C_Vs_to_Am_M_A/Vsm_=_65563218390.804596
# pendiente_HvsI_1/m_=_3716.3
# ordenada_HvsI_A/m_=_1297.0
# frecuencia_Hz_=_301609.187528448

Tiempo_(s)	Campo_(V.s)	Magnetizacion_(V.s)	Campo_(kA/m)	Magnetizacion_(A/m)
0.000000e+00	-5.331429e-06	-2.370669e-08	-3.834016e+01	-1.550850e+03
1.000000e-08	-5.329026e-06	-2.369709e-08	-3.832288e+01	-1.550639e+03
2.000000e-08	-5.324814e-06	-2.369067e-08	-3.829260e+01	-1.550515e+03
3.000000e-08	-5.318986e-06	-2.368326e-08	-3.825068e+01	-1.550395e+03
4.000000e-08	-5.311602e-06	-2.367221e-08	-3.819758e+01	-1.550156e+03
5.000000e-08	-5.302378e-06	-2.366095e-08	-3.813124e+01	-1.549682e+03
6.000000e-08	-5.291084e-06	-2.364924e-08	-3.805003e+01	-1.548896e+03
7.000000e-08	-5.277874e-06	-2.363954e-08	-3.795503e+01	-1.547783e+03
8.000000e-08	-5.262529e-06	-2.364029e-08	-3.784468e+01	-1.546400e+03
9.000000e-08	-5.244918e-06	-2.360464e-08	-3.771803e+01	-1.544855e+03
1.000000e-07	-5.225281e-06	-2.357411e-08	-3.757682e+01	-1.543277e+03
1.100000e-07	-5.203780e-06	-2.356260e-08	-3.742220e+01	-1.541776e+03
1.200000e-07	-5.180644e-06	-2.350075e-08	-3.725581e+01	-1.540411e+03
1.300000e-07	-5.156106e-06	-2.349706e-08	-3.707936e+01	-1.539172e+03
1.400000e-07	-5.130016e-06	-2.352905e-08	-3.689173e+01	-1.537983e+03
1.500000e-07	-5.102235e-06	-2.341376e-08	-3.669195e+01	-1.536730e+03
1.600000e-07	-5.072985e-06	-2.343425e-08	-3.648160e+01	-1.535290e+03
1.700000e-07	-5.042200e-06	-2.344001e-08	-3.626022e+01	-1.533573e+03
1.800000e-07	-5.009362e-06	-2.329976e-08	-3.602407e+01	-1.531546e+03
1.900000e-07	-4.974583e-06	-2.334590e-08	-3.577396e+01	-1.529239e+03
2.000000e-07	-4.938242e-06	-2.332227e-08	-3.551262e+01	-1.526737e+03
2.100000e-07	-4.900235e-06	-2.320350e-08	-3.523930e+01	-1.524145e+03
2.200000e-07	-4.860512e-06	-2.320643e-08	-3.495364e+01	-1.521557e+03
2.300000e-07	-4.818869e-06	-2.317708e-08	-3.465417e+01	-1.519020e+03
2.400000e-07	-4.775256e-06	-2.312664e-08	-3.434053e+01	-1.516518e+03
2.500000e-07	-4.729915e-06	-2.309184e-08	-3.401447e+01	-1.513976e+03
2.600000e-07	-4.682766e-06	-2.299962e-08	-3.367541e+01	-1.511278e+03
2.700000e-07	-4.633577e-06	-2.296834e-08	-3.332167e+01	-1.508308e+03
2.800000e-07	-4.582283e-06	-2.292545e-08	-3.295279e+01	-1.504982e+03
2.900000e-07	-4.529120e-06	-2.287589e-08	-3.257048e+01	-1.501276e+03
3.000000e-07	-4.474402e-06	-2.281974e-08	-3.217698e+01	-1.497232e+03
3.100000e-07	-4.418044e-06	-2.274892e-08	-3.177169e+01	-1.492950e+03
3.200000e-07	-4.359863e-06	-2.269741e-08	-3.135329e+01	-1.488551e+03
3.300000e-07	-4.300039e-06	-2.261378e-08	-3.092308e+01	-1.484146e+03
3.400000e-07	-4.238759e-06	-2.255321e-08	-3.048239e+01	-1.479794e+03
3.500000e-07	-4.176102e-06	-2.250073e-08	-3.003181e+01	-1.475489e+03
3.600000e-07	-4.112105e-06	-2.242959e-08	-2.957158e+01	-1.471157e+03
3.700000e-07	-4.046503e-06	-2.234811e-08	-2.909981e+01	-1.466678e+03
3.800000e-07	-3.979231e-06	-2.225921e-08	-2.861604e+01	-1.461925e+03
3.900000e-07	-3.910546e-06	-2.218863e-08	-2.812210e+01	-1.456801e+03
4.000000e-07	-3.840566e-06	-2.211036e-08	-2.761885e+01	-1.451271e+03
4.100000e-07	-3.769445e-06	-2.202233e-08	-2.710739e+01	-1.445368e+03
4.200000e-07	-3.697135e-06	-2.194162e-08	-2.658738e+01	-1.439190e+03
4.300000e-07	-3.623220e-06	-2.184965e-08	-2.605584e+01	-1.432860e+03
4.400000e-07	-3.547629e-06	-2.175416e-08	-2.551223e+01	-1.426494e+03
4.500000e-07	-3.470667e-06	-2.164857e-08	-2.495878e+01	-1.420155e+03
4.600000e-07	-3.392323e-06	-2.154518e-08	-2.439537e+01	-1.413836e+03
4.700000e-07	-3.312501e-06	-2.144830e-08	-2.382135e+01	-1.407459e+03
4.800000e-07	-3.231434e-06	-2.134185e-08	-2.323836e+01	-1.400894e+03
4.900000e-07	-3.149285e-06	-2.123576e-08	-2.264760e+01	-1.393996e+03
5.000000e-07	-3.066148e-06	-2.112201e-08	-2.204974e+01	-1.386654e+03
5.100000e-07	-2.982173e-06	-2.100422e-08	-2.144584e+01	-1.378819e+03
5.200000e-07	-2.897345e-06	-2.087752e-08	-2.083582e+01	-1.370520e+03
5.300000e-07	-2.811571e-06	-2.074841e-08	-2.021898e+01	-1.361853e+03
5.400000e-07	-2.724890e-06	-2.062197e-08	-1.959563e+01	-1.352948e+03
5.500000e-07	-2.637334e-06	-2.048692e-08	-1.896598e+01	-1.343921e+03
5.600000e-07	-2.548744e-06	-2.034277e-08	-1.832891e+01	-1.334840e+03
5.700000e-07	-2.458909e-06	-2.019007e-08	-1.768287e+01	-1.325688e+03
5.800000e-07	-2.367998e-06	-2.004149e-08	-1.702910e+01	-1.316368e+03
5.900000e-07	-2.276346e-06	-1.989024e-08	-1.637000e+01	-1.306728e+03
6.000000e-07	-2.184020e-06	-1.973255e-08	-1.570605e+01	-1.296597e+03
6.100000e-07	-2.090863e-06	-1.956707e-08	-1.503612e+01	-1.285845e+03
6.200000e-07	-1.996834e-06	-1.939397e-08	-1.435993e+01	-1.274415e+03
6.300000e-07	-1.902124e-06	-1.921290e-08	-1.367884e+01	-1.262340e+03
6.400000e-07	-1.806861e-06	-1.902408e-08	-1.299377e+01	-1.249733e+03
6.500000e-07	-1.711054e-06	-1.883128e-08	-1.230479e+01	-1.236746e+03
6.600000e-07	-1.614595e-06	-1.863172e-08	-1.161111e+01	-1.223512e+03
6.700000e-07	-1.517347e-06	-1.842646e-08	-1.091177e+01	-1.210096e+03
6.800000e-07	-1.419339e-06	-1.821147e-08	-1.020696e+01	-1.196460e+03
6.900000e-07	-1.320754e-06	-1.798889e-08	-9.498001e+00	-1.182459e+03
7.000000e-07	-1.221738e-06	-1.775686e-08	-8.785945e+00	-1.167874e+03
7.100000e-07	-1.122389e-06	-1.751386e-08	-8.071488e+00	-1.152464e+03
7.200000e-07	-1.022795e-06	-1.726226e-08	-7.355277e+00	-1.136037e+03
7.300000e-07	-9.229439e-07	-1.700104e-08	-6.637211e+00	-1.118494e+03
7.400000e-07	-8.227966e-07	-1.672884e-08	-5.917017e+00	-1.099857e+03
7.500000e-07	-7.223713e-07	-1.644130e-08	-5.194824e+00	-1.080250e+03
7.600000e-07	-6.216856e-07	-1.613497e-08	-4.470758e+00	-1.059840e+03
7.700000e-07	-5.207741e-07	-1.581266e-08	-3.745068e+00	-1.038763e+03
7.800000e-07	-4.197558e-07	-1.547681e-08	-3.018610e+00	-1.017043e+03
7.900000e-07	-3.186545e-07	-1.512466e-08	-2.291555e+00	-9.945452e+02
8.000000e-07	-2.173276e-07	-1.475414e-08	-1.562878e+00	-9.709671e+02
8.100000e-07	-1.158626e-07	-1.435964e-08	-8.332086e-01	-9.458834e+02
8.200000e-07	-1.439740e-08	-1.393804e-08	-1.035367e-01	-9.188302e+02
8.300000e-07	8.709600e-08	-1.348764e-08	6.263377e-01	-8.894053e+02
8.400000e-07	1.886286e-07	-1.300641e-08	1.356494e+00	-8.573499e+02
8.500000e-07	2.901471e-07	-1.249280e-08	2.086549e+00	-8.225821e+02
8.600000e-07	3.915207e-07	-1.194111e-08	2.815562e+00	-7.851592e+02
8.700000e-07	4.927179e-07	-1.134656e-08	3.543306e+00	-7.451687e+02
8.800000e-07	5.937877e-07	-1.070009e-08	4.270134e+00	-7.025689e+02
8.900000e-07	6.946868e-07	-9.994078e-09	4.995735e+00	-6.570184e+02
9.000000e-07	7.953763e-07	-9.220668e-09	5.719828e+00	-6.077467e+02
9.100000e-07	8.957755e-07	-8.368226e-09	6.441834e+00	-5.535137e+02
9.200000e-07	9.958376e-07	-7.420947e-09	7.161415e+00	-4.926904e+02
9.300000e-07	1.095591e-06	-6.359468e-09	7.878779e+00	-4.234688e+02
9.400000e-07	1.195042e-06	-5.161901e-09	8.593961e+00	-3.441750e+02
9.500000e-07	1.294202e-06	-3.804516e-09	9.307059e+00	-2.536308e+02
9.600000e-07	1.392988e-06	-2.272105e-09	1.001746e+01	-1.514945e+02
9.700000e-07	1.491176e-06	-5.637029e-10	1.072357e+01	-3.850299e+01
9.800000e-07	1.588533e-06	1.301233e-09	1.142370e+01	8.344213e+01
9.900000e-07	1.685015e-06	3.279285e-09	1.211753e+01	2.113784e+02
1.000000e-06	1.780770e-06	5.298929e-09	1.280614e+01	3.415674e+02
1.010000e-06	1.875954e-06	7.277784e-09	1.349064e+01	4.699184e+02
1.020000e-06	1.970563e-06	9.144245e-09	1.417100e+01	5.924750e+02
1.030000e-06	2.064450e-06	1.084756e-08	1.484618e+01	7.058800e+02
1.040000e-06	2.157534e-06	1.235935e-08	1.551558e+01	8.077347e+02
1.050000e-06	2.249948e-06	1.367503e-08	1.618016e+01	8.967933e+02
1.060000e-06	2.341760e-06	1.480661e-08	1.684041e+01	9.729681e+02
1.070000e-06	2.432888e-06	1.577484e-08	1.749575e+01	1.037158e+03
1.080000e-06	2.523178e-06	1.659960e-08	1.814506e+01	1.090950e+03
1.090000e-06	2.612260e-06	1.730250e-08	1.878567e+01	1.136256e+03
1.100000e-06	2.700128e-06	1.790692e-08	1.941756e+01	1.174976e+03
1.110000e-06	2.787084e-06	1.842830e-08	2.004289e+01	1.208724e+03
1.120000e-06	2.873160e-06	1.888097e-08	2.066189e+01	1.238686e+03
1.130000e-06	2.958330e-06	1.927997e-08	2.127438e+01	1.265598e+03
1.140000e-06	3.042582e-06	1.963416e-08	2.188027e+01	1.289821e+03
1.150000e-06	3.125936e-06	1.994801e-08	2.247969e+01	1.311493e+03
1.160000e-06	3.208256e-06	2.022905e-08	2.307169e+01	1.330688e+03
1.170000e-06	3.289375e-06	2.048173e-08	2.365504e+01	1.347539e+03
1.180000e-06	3.369299e-06	2.070847e-08	2.422980e+01	1.362306e+03
1.190000e-06	3.447962e-06	2.091407e-08	2.479549e+01	1.375377e+03
1.200000e-06	3.525359e-06	2.110529e-08	2.535208e+01	1.387205e+03
1.210000e-06	3.601493e-06	2.128334e-08	2.589959e+01	1.398220e+03
1.220000e-06	3.676259e-06	2.145008e-08	2.643726e+01	1.408748e+03
1.230000e-06	3.749502e-06	2.160523e-08	2.696397e+01	1.418952e+03
1.240000e-06	3.821216e-06	2.174845e-08	2.747970e+01	1.428830e+03
1.250000e-06	3.891569e-06	2.188170e-08	2.798563e+01	1.438251e+03
1.260000e-06	3.960583e-06	2.200684e-08	2.848193e+01	1.447027e+03
1.270000e-06	4.028261e-06	2.212256e-08	2.896863e+01	1.454998e+03
1.280000e-06	4.094524e-06	2.222737e-08	2.944515e+01	1.462093e+03
1.290000e-06	4.159120e-06	2.232487e-08	2.990968e+01	1.468367e+03
1.300000e-06	4.222154e-06	2.241848e-08	3.036298e+01	1.473985e+03
1.310000e-06	4.283796e-06	2.250744e-08	3.080627e+01	1.479183e+03
1.320000e-06	4.344057e-06	2.259019e-08	3.123963e+01	1.484203e+03
1.330000e-06	4.402899e-06	2.267005e-08	3.166278e+01	1.489222e+03
1.340000e-06	4.459991e-06	2.274810e-08	3.207335e+01	1.494318e+03
1.350000e-06	4.515291e-06	2.282209e-08	3.247103e+01	1.499450e+03
1.360000e-06	4.569000e-06	2.289083e-08	3.285727e+01	1.504491e+03
1.370000e-06	4.620979e-06	2.295557e-08	3.323107e+01	1.509266e+03
1.380000e-06	4.670990e-06	2.301611e-08	3.359072e+01	1.513620e+03
1.390000e-06	4.719064e-06	2.307217e-08	3.393644e+01	1.517465e+03
1.400000e-06	4.765444e-06	2.312515e-08	3.426997e+01	1.520803e+03
1.410000e-06	4.810267e-06	2.317635e-08	3.459230e+01	1.523729e+03
1.420000e-06	4.853565e-06	2.322424e-08	3.490367e+01	1.526395e+03
1.430000e-06	4.895062e-06	2.326817e-08	3.520209e+01	1.528964e+03
1.440000e-06	4.934671e-06	2.330928e-08	3.548694e+01	1.531560e+03
1.450000e-06	4.972624e-06	2.334880e-08	3.575987e+01	1.534234e+03
1.460000e-06	5.008998e-06	2.338597e-08	3.602145e+01	1.536949e+03
1.470000e-06	5.043692e-06	2.341949e-08	3.627094e+01	1.539603e+03
1.480000e-06	5.076424e-06	2.344806e-08	3.650633e+01	1.542058e+03
1.490000e-06	5.107331e-06	2.347156e-08	3.672860e+01	1.544192e+03
1.500000e-06	5.136613e-06	2.349457e-08	3.693917e+01	1.545936e+03
1.510000e-06	5.164218e-06	2.351886e-08	3.713769e+01	1.547298e+03
1.520000e-06	5.189884e-06	2.354315e-08	3.732227e+01	1.548359e+03
1.530000e-06	5.213442e-06	2.356506e-08	3.749168e+01	1.549248e+03
1.540000e-06	5.235092e-06	2.358348e-08	3.764737e+01	1.550101e+03
1.550000e-06	5.255073e-06	2.359842e-08	3.779106e+01	1.551021e+03
1.560000e-06	5.273369e-06	2.361063e-08	3.792263e+01	1.552047e+03
1.570000e-06	5.289717e-06	2.362377e-08	3.804020e+01	1.553144e+03
1.580000e-06	5.304057e-06	2.363646e-08	3.814332e+01	1.554215e+03
1.590000e-06	5.316391e-06	2.364549e-08	3.823202e+01	1.555137e+03
1.600000e-06	5.326520e-06	2.365246e-08	3.830486e+01	1.555798e+03
1.610000e-06	5.334541e-06	2.365804e-08	3.836255e+01	1.556135e+03
1.620000e-06	5.340695e-06	2.366235e-08	3.840680e+01	1.556151e+03
1.630000e-06	5.345078e-06	2.366654e-08	3.843832e+01	1.555917e+03
1.640000e-06	5.347603e-06	2.366944e-08	3.845648e+01	1.555549e+03
1.650000e-06	5.348093e-06	2.366857e-08	3.846000e+01	1.555169e+03
1.660000e-06	5.346736e-06	2.366597e-08	3.845024e+01	1.554869e+03
1.670000e-06	5.343740e-06	2.366433e-08	3.842870e+01	1.554681e+03
1.680000e-06	5.339196e-06	2.365847e-08	3.839602e+01	1.554566e+03
1.690000e-06	5.332810e-06	2.365100e-08	3.835009e+01	1.554430e+03
1.700000e-06	5.324508e-06	2.364233e-08	3.829039e+01	1.554149e+03
1.710000e-06	5.314629e-06	2.363261e-08	3.821935e+01	1.553612e+03
1.720000e-06	5.303143e-06	2.362158e-08	3.813675e+01	1.552753e+03
1.730000e-06	5.289782e-06	2.358445e-08	3.804067e+01	1.551575e+03
1.740000e-06	5.274315e-06	2.357917e-08	3.792944e+01	1.550146e+03
1.750000e-06	5.256546e-06	2.357160e-08	3.780165e+01	1.548582e+03
1.760000e-06	5.236289e-06	2.354095e-08	3.765598e+01	1.547012e+03
1.770000e-06	5.213709e-06	2.356411e-08	3.749360e+01	1.545537e+03
1.780000e-06	5.189634e-06	2.350066e-08	3.732047e+01	1.544201e+03
1.790000e-06	5.164755e-06	2.345879e-08	3.714155e+01	1.542980e+03
1.800000e-06	5.138512e-06	2.351436e-08	3.695283e+01	1.541788e+03
1.810000e-06	5.110308e-06	2.339917e-08	3.675000e+01	1.540504e+03
1.820000e-06	5.080369e-06	2.341598e-08	3.653471e+01	1.539010e+03
1.830000e-06	5.048629e-06	2.348520e-08	3.630645e+01	1.537226e+03
1.840000e-06	5.014951e-06	2.333104e-08	3.606426e+01	1.535133e+03
1.850000e-06	4.979649e-06	2.336798e-08	3.581039e+01	1.532775e+03
1.860000e-06	4.942471e-06	2.341743e-08	3.554303e+01	1.530244e+03
1.870000e-06	4.903313e-06	2.329955e-08	3.526143e+01	1.527646e+03
1.880000e-06	4.862553e-06	2.329335e-08	3.496832e+01	1.525066e+03
1.890000e-06	4.820074e-06	2.321700e-08	3.466283e+01	1.522539e+03
1.900000e-06	4.775974e-06	2.320009e-08	3.434569e+01	1.520036e+03
1.910000e-06	4.730147e-06	2.323914e-08	3.401614e+01	1.517469e+03
1.920000e-06	4.682436e-06	2.308998e-08	3.367303e+01	1.514722e+03
1.930000e-06	4.633105e-06	2.307368e-08	3.331827e+01	1.511680e+03
1.940000e-06	4.581965e-06	2.303039e-08	3.295051e+01	1.508272e+03
1.950000e-06	4.528809e-06	2.294633e-08	3.256824e+01	1.504486e+03
1.960000e-06	4.473763e-06	2.292141e-08	3.217239e+01	1.500381e+03
1.970000e-06	4.416981e-06	2.282728e-08	3.176405e+01	1.496063e+03
1.980000e-06	4.358654e-06	2.282075e-08	3.134460e+01	1.491654e+03
1.990000e-06	4.298967e-06	2.273290e-08	3.091537e+01	1.487257e+03
2.000000e-06	4.237842e-06	2.262194e-08	3.047580e+01	1.482917e+03
2.010000e-06	4.175001e-06	2.259836e-08	3.002388e+01	1.478614e+03
2.020000e-06	4.110454e-06	2.251193e-08	2.955970e+01	1.474260e+03
2.030000e-06	4.044473e-06	2.245655e-08	2.908521e+01	1.469732e+03
2.040000e-06	3.977232e-06	2.235526e-08	2.860166e+01	1.464905e+03
2.050000e-06	3.908662e-06	2.228480e-08	2.810855e+01	1.459694e+03
2.060000e-06	3.838456e-06	2.222780e-08	2.760367e+01	1.454077e+03
2.070000e-06	3.766768e-06	2.210246e-08	2.708814e+01	1.448106e+03
2.080000e-06	3.693845e-06	2.202690e-08	2.656372e+01	1.441883e+03
2.090000e-06	3.619547e-06	2.193261e-08	2.602943e+01	1.435537e+03
2.100000e-06	3.543921e-06	2.185442e-08	2.548557e+01	1.429172e+03
2.110000e-06	3.466818e-06	2.174955e-08	2.493109e+01	1.422839e+03
2.120000e-06	3.388152e-06	2.163521e-08	2.436538e+01	1.416517e+03
2.130000e-06	3.308226e-06	2.154844e-08	2.379061e+01	1.410111e+03
2.140000e-06	3.227229e-06	2.143047e-08	2.320813e+01	1.403485e+03
2.150000e-06	3.145126e-06	2.132264e-08	2.261770e+01	1.396499e+03
2.160000e-06	3.061966e-06	2.120602e-08	2.201966e+01	1.389052e+03
2.170000e-06	2.977922e-06	2.110337e-08	2.141528e+01	1.381112e+03
2.180000e-06	2.892713e-06	2.098397e-08	2.080251e+01	1.372723e+03
2.190000e-06	2.806104e-06	2.084556e-08	2.017967e+01	1.363993e+03
2.200000e-06	2.718422e-06	2.071632e-08	1.954912e+01	1.355052e+03
2.210000e-06	2.629857e-06	2.058497e-08	1.891222e+01	1.346010e+03
2.220000e-06	2.540353e-06	2.045396e-08	1.826856e+01	1.336917e+03
2.230000e-06	2.449970e-06	2.030165e-08	1.761859e+01	1.327739e+03
2.240000e-06	2.358838e-06	2.015327e-08	1.696323e+01	1.318364e+03
2.250000e-06	2.267085e-06	2.000056e-08	1.630340e+01	1.308631e+03
2.260000e-06	2.174663e-06	1.984003e-08	1.563876e+01	1.298376e+03
2.270000e-06	2.081256e-06	1.967436e-08	1.496704e+01	1.287480e+03
2.280000e-06	1.986821e-06	1.950652e-08	1.428792e+01	1.275904e+03
2.290000e-06	1.891550e-06	1.933549e-08	1.360280e+01	1.263703e+03
2.300000e-06	1.795615e-06	1.914933e-08	1.291289e+01	1.251001e+03
2.310000e-06	1.699168e-06	1.895104e-08	1.221931e+01	1.237950e+03
2.320000e-06	1.602254e-06	1.874533e-08	1.152237e+01	1.224674e+03
2.330000e-06	1.504835e-06	1.853740e-08	1.082180e+01	1.211218e+03
2.340000e-06	1.406874e-06	1.832331e-08	1.011732e+01	1.197518e+03
2.350000e-06	1.308444e-06	1.810551e-08	9.409480e+00	1.183411e+03
2.360000e-06	1.209578e-06	1.787816e-08	8.698497e+00	1.168668e+03
2.370000e-06	1.110332e-06	1.763651e-08	7.984782e+00	1.153053e+03
2.380000e-06	1.010845e-06	1.737927e-08	7.269336e+00	1.136390e+03
2.390000e-06	9.111277e-07	1.710817e-08	6.552237e+00	1.118606e+03
2.400000e-06	8.111902e-07	1.682793e-08	5.833551e+00	1.099748e+03
2.410000e-06	7.110710e-07	1.653859e-08	5.113559e+00	1.079954e+03
2.420000e-06	6.107604e-07	1.623592e-08	4.392191e+00	1.059392e+03
2.430000e-06	5.102684e-07	1.591577e-08	3.669518e+00	1.038178e+03
2.440000e-06	4.096109e-07	1.557668e-08	2.945655e+00	1.016308e+03
2.450000e-06	3.087494e-07	1.521911e-08	2.220324e+00	9.936090e+02
2.460000e-06	2.076355e-07	1.484561e-08	1.493179e+00	9.697460e+02
2.470000e-06	1.062900e-07	1.445042e-08	7.643684e-01	9.442780e+02
2.480000e-06	4.865231e-09	1.402817e-08	3.498757e-02	9.167457e+02
2.490000e-06	-9.649293e-08	1.357552e-08	-6.939143e-01	8.867721e+02
2.500000e-06	-1.977704e-07	1.308531e-08	-1.422236e+00	8.541358e+02
2.510000e-06	-2.989382e-07	1.255512e-08	-2.149769e+00	8.187903e+02
2.520000e-06	-3.999567e-07	1.198666e-08	-2.876228e+00	7.808108e+02
2.530000e-06	-5.008324e-07	1.137978e-08	-3.601660e+00	7.402717e+02
2.540000e-06	-6.015550e-07	1.072481e-08	-4.325992e+00	6.970806e+02
2.550000e-06	-7.020662e-07	1.000953e-08	-5.048803e+00	6.508129e+02
2.560000e-06	-8.023410e-07	9.224730e-09	-5.769914e+00	6.005971e+02
2.570000e-06	-9.023743e-07	8.356290e-09	-6.489288e+00	5.450983e+02
2.580000e-06	-1.002165e-06	7.387597e-09	-7.206917e+00	4.826275e+02
2.590000e-06	-1.101662e-06	6.301554e-09	-7.922437e+00	4.113765e+02
2.600000e-06	-1.200851e-06	5.079046e-09	-8.635736e+00	3.297465e+02
2.610000e-06	-1.299644e-06	3.696715e-09	-9.346191e+00	2.367123e+02
2.620000e-06	-1.397908e-06	2.138199e-09	-1.005284e+01	1.321474e+02
2.630000e-06	-1.495648e-06	4.045532e-10	-1.075573e+01	1.703740e+01
2.640000e-06	-1.592903e-06	-1.483276e-09	-1.145512e+01	-1.064736e+02
2.650000e-06	-1.689609e-06	-3.477344e-09	-1.215056e+01	-2.352272e+02
2.660000e-06	-1.785725e-06	-5.504758e-09	-1.284177e+01	-3.653705e+02
2.670000e-06	-1.881360e-06	-7.483336e-09	-1.352952e+01	-4.927998e+02
2.680000e-06	-1.976415e-06	-9.340661e-09	-1.421309e+01	-6.136506e+02
2.690000e-06	-2.070488e-06	-1.103012e-08	-1.488960e+01	-7.247457e+02
2.700000e-06	-2.163456e-06	-1.252830e-08	-1.555816e+01	-8.239234e+02
2.710000e-06	-2.255570e-06	-1.382919e-08	-1.622059e+01	-9.101921e+02
2.720000e-06	-2.346991e-06	-1.494516e-08	-1.687803e+01	-9.836952e+02
2.730000e-06	-2.437655e-06	-1.589854e-08	-1.753003e+01	-1.045508e+03
2.740000e-06	-2.527470e-06	-1.671304e-08	-1.817592e+01	-1.097316e+03
2.750000e-06	-2.616410e-06	-1.741012e-08	-1.881552e+01	-1.141059e+03
2.760000e-06	-2.704497e-06	-1.801127e-08	-1.944898e+01	-1.178591e+03
2.770000e-06	-2.791749e-06	-1.853101e-08	-2.007644e+01	-1.211444e+03
2.780000e-06	-2.877922e-06	-1.897952e-08	-2.069614e+01	-1.240707e+03
2.790000e-06	-2.962824e-06	-1.937167e-08	-2.130670e+01	-1.267022e+03
2.800000e-06	-3.046673e-06	-1.971734e-08	-2.190968e+01	-1.290692e+03
2.810000e-06	-3.129581e-06	-2.002506e-08	-2.250591e+01	-1.311828e+03
2.820000e-06	-3.211455e-06	-2.030101e-08	-2.309469e+01	-1.330506e+03
2.830000e-06	-3.292290e-06	-2.055039e-08	-2.367601e+01	-1.346885e+03
2.840000e-06	-3.372058e-06	-2.077920e-08	-2.424965e+01	-1.361253e+03
2.850000e-06	-3.450538e-06	-2.098981e-08	-2.481402e+01	-1.374020e+03
2.860000e-06	-3.527491e-06	-2.118323e-08	-2.536742e+01	-1.385641e+03
2.870000e-06	-3.602971e-06	-2.135893e-08	-2.591022e+01	-1.396530e+03
2.880000e-06	-3.677115e-06	-2.151958e-08	-2.644341e+01	-1.406981e+03
2.890000e-06	-3.749962e-06	-2.167038e-08	-2.696728e+01	-1.417122e+03
2.900000e-06	-3.821525e-06	-2.181298e-08	-2.748192e+01	-1.426917e+03
2.910000e-06	-3.891605e-06	-2.194708e-08	-2.798589e+01	-1.436216e+03
2.920000e-06	-3.960128e-06	-2.207194e-08	-2.847866e+01	-1.444832e+03
2.930000e-06	-4.027253e-06	-2.218566e-08	-2.896138e+01	-1.452618e+03
2.940000e-06	-4.093021e-06	-2.228922e-08	-2.943434e+01	-1.459529e+03
