# Temperatura_=_88.12
# Concentracion g/m^3_=_41000.0
# C_Vs_to_Am_M_A/Vsm_=_65563218390.804596
# pendiente_HvsI_1/m_=_3716.3
# ordenada_HvsI_A/m_=_1297.0
# frecuencia_Hz_=_301609.7561202574

Tiempo_(s)	Campo_(V.s)	Magnetizacion_(V.s)	Campo_(kA/m)	Magnetizacion_(A/m)
0.000000e+00	-5.311322e-06	-2.304589e-08	-3.834433e+01	-1.507197e+03
1.000000e-08	-5.308748e-06	-2.304069e-08	-3.832575e+01	-1.507059e+03
2.000000e-08	-5.304375e-06	-2.303612e-08	-3.829418e+01	-1.507005e+03
3.000000e-08	-5.298376e-06	-2.303097e-08	-3.825087e+01	-1.506917e+03
4.000000e-08	-5.290825e-06	-2.302066e-08	-3.819636e+01	-1.506652e+03
5.000000e-08	-5.281558e-06	-2.300558e-08	-3.812945e+01	-1.506085e+03
6.000000e-08	-5.270259e-06	-2.298904e-08	-3.804788e+01	-1.505146e+03
7.000000e-08	-5.257008e-06	-2.297060e-08	-3.795222e+01	-1.503847e+03
8.000000e-08	-5.241635e-06	-2.296404e-08	-3.784124e+01	-1.502276e+03
9.000000e-08	-5.223951e-06	-2.297054e-08	-3.771357e+01	-1.500572e+03
1.000000e-07	-5.204254e-06	-2.294536e-08	-3.757137e+01	-1.498883e+03
1.100000e-07	-5.182780e-06	-2.290190e-08	-3.741634e+01	-1.497325e+03
1.200000e-07	-5.159673e-06	-2.284662e-08	-3.724952e+01	-1.495945e+03
1.300000e-07	-5.135209e-06	-2.278318e-08	-3.707291e+01	-1.494709e+03
1.400000e-07	-5.109224e-06	-2.282545e-08	-3.688531e+01	-1.493514e+03
1.500000e-07	-5.081485e-06	-2.280964e-08	-3.668506e+01	-1.492218e+03
1.600000e-07	-5.052249e-06	-2.272242e-08	-3.647399e+01	-1.490683e+03
1.700000e-07	-5.021515e-06	-2.275300e-08	-3.625211e+01	-1.488818e+03
1.800000e-07	-4.988779e-06	-2.269261e-08	-3.601578e+01	-1.486597e+03
1.900000e-07	-4.954025e-06	-2.258759e-08	-3.576488e+01	-1.484072e+03
2.000000e-07	-4.917723e-06	-2.260470e-08	-3.550280e+01	-1.481343e+03
2.100000e-07	-4.879734e-06	-2.254288e-08	-3.522854e+01	-1.478529e+03
2.200000e-07	-4.840040e-06	-2.246488e-08	-3.494198e+01	-1.475726e+03
2.300000e-07	-4.798532e-06	-2.246930e-08	-3.464232e+01	-1.472971e+03
2.400000e-07	-4.755062e-06	-2.242714e-08	-3.432850e+01	-1.470235e+03
2.500000e-07	-4.709879e-06	-2.237077e-08	-3.400230e+01	-1.467423e+03
2.600000e-07	-4.662883e-06	-2.229932e-08	-3.366302e+01	-1.464411e+03
2.700000e-07	-4.613946e-06	-2.223217e-08	-3.330973e+01	-1.461081e+03
2.800000e-07	-4.562915e-06	-2.219683e-08	-3.294132e+01	-1.457360e+03
2.900000e-07	-4.509936e-06	-2.214772e-08	-3.255884e+01	-1.453244e+03
3.000000e-07	-4.455327e-06	-2.209257e-08	-3.216460e+01	-1.448803e+03
3.100000e-07	-4.399111e-06	-2.202006e-08	-3.175875e+01	-1.444156e+03
3.200000e-07	-4.341101e-06	-2.193180e-08	-3.133996e+01	-1.439439e+03
3.300000e-07	-4.281394e-06	-2.186057e-08	-3.090891e+01	-1.434761e+03
3.400000e-07	-4.220256e-06	-2.179179e-08	-3.046754e+01	-1.430169e+03
3.500000e-07	-4.157763e-06	-2.172927e-08	-3.001637e+01	-1.425634e+03
3.600000e-07	-4.093984e-06	-2.166021e-08	-2.955594e+01	-1.421059e+03
3.700000e-07	-4.028689e-06	-2.157627e-08	-2.908455e+01	-1.416308e+03
3.800000e-07	-3.961675e-06	-2.148769e-08	-2.860074e+01	-1.411249e+03
3.900000e-07	-3.893144e-06	-2.139612e-08	-2.810600e+01	-1.405792e+03
4.000000e-07	-3.823385e-06	-2.131972e-08	-2.760238e+01	-1.399920e+03
4.100000e-07	-3.752474e-06	-2.123169e-08	-2.709045e+01	-1.393690e+03
4.200000e-07	-3.680376e-06	-2.113922e-08	-2.656995e+01	-1.387217e+03
4.300000e-07	-3.606772e-06	-2.104592e-08	-2.603857e+01	-1.380636e+03
4.400000e-07	-3.531478e-06	-2.094884e-08	-2.549500e+01	-1.374056e+03
4.500000e-07	-3.454787e-06	-2.084616e-08	-2.494134e+01	-1.367526e+03
4.600000e-07	-3.376771e-06	-2.073621e-08	-2.437812e+01	-1.361015e+03
4.700000e-07	-3.297291e-06	-2.062992e-08	-2.380432e+01	-1.354420e+03
4.800000e-07	-3.216481e-06	-2.051925e-08	-2.322093e+01	-1.347596e+03
4.900000e-07	-3.134600e-06	-2.040606e-08	-2.262980e+01	-1.340400e+03
5.000000e-07	-3.051697e-06	-2.029062e-08	-2.203129e+01	-1.332736e+03
5.100000e-07	-2.967898e-06	-2.016729e-08	-2.142631e+01	-1.324586e+03
5.200000e-07	-2.883315e-06	-2.003500e-08	-2.081568e+01	-1.316010e+03
5.300000e-07	-2.797809e-06	-1.990476e-08	-2.019838e+01	-1.307133e+03
5.400000e-07	-2.711298e-06	-1.977669e-08	-1.957383e+01	-1.298098e+03
5.500000e-07	-2.623939e-06	-1.964372e-08	-1.894315e+01	-1.289020e+03
5.600000e-07	-2.535740e-06	-1.950150e-08	-1.830641e+01	-1.279940e+03
5.700000e-07	-2.446421e-06	-1.935115e-08	-1.766159e+01	-1.270811e+03
5.800000e-07	-2.355885e-06	-1.919524e-08	-1.700797e+01	-1.261499e+03
5.900000e-07	-2.264412e-06	-1.903618e-08	-1.634760e+01	-1.251825e+03
6.000000e-07	-2.172268e-06	-1.887470e-08	-1.568238e+01	-1.241615e+03
6.100000e-07	-2.079409e-06	-1.870882e-08	-1.501200e+01	-1.230748e+03
6.200000e-07	-1.985743e-06	-1.853799e-08	-1.433579e+01	-1.219201e+03
6.300000e-07	-1.891358e-06	-1.835855e-08	-1.365439e+01	-1.207047e+03
6.400000e-07	-1.796382e-06	-1.817249e-08	-1.296872e+01	-1.194436e+03
6.500000e-07	-1.700838e-06	-1.798168e-08	-1.227896e+01	-1.181540e+03
6.600000e-07	-1.604718e-06	-1.778708e-08	-1.158504e+01	-1.168493e+03
6.700000e-07	-1.507983e-06	-1.758540e-08	-1.088667e+01	-1.155337e+03
6.800000e-07	-1.410575e-06	-1.737332e-08	-1.018345e+01	-1.141997e+03
6.900000e-07	-1.312467e-06	-1.714984e-08	-9.475168e+00	-1.128286e+03
7.000000e-07	-1.213784e-06	-1.691636e-08	-8.762739e+00	-1.113954e+03
7.100000e-07	-1.114662e-06	-1.667677e-08	-8.047144e+00	-1.098752e+03
7.200000e-07	-1.015177e-06	-1.642882e-08	-7.328925e+00	-1.082503e+03
7.300000e-07	-9.154034e-07	-1.617383e-08	-6.608624e+00	-1.065151e+03
7.400000e-07	-8.153919e-07	-1.591020e-08	-5.886606e+00	-1.046767e+03
7.500000e-07	-7.151793e-07	-1.563247e-08	-5.163135e+00	-1.027522e+03
7.600000e-07	-6.147938e-07	-1.533501e-08	-4.438416e+00	-1.007606e+03
7.700000e-07	-5.142889e-07	-1.501948e-08	-3.712836e+00	-9.871508e+02
7.800000e-07	-4.136574e-07	-1.468929e-08	-2.986340e+00	-9.661426e+02
7.900000e-07	-3.129260e-07	-1.434301e-08	-2.259125e+00	-9.443858e+02
8.000000e-07	-2.121173e-07	-1.398016e-08	-1.531351e+00	-9.215118e+02
8.100000e-07	-1.111560e-07	-1.359513e-08	-8.024751e-01	-8.970438e+02
8.200000e-07	-1.008765e-08	-1.318434e-08	-7.282634e-02	-8.704985e+02
8.300000e-07	9.098675e-08	-1.274461e-08	6.568659e-01	-8.414931e+02
8.400000e-07	1.920425e-07	-1.227334e-08	1.386424e+00	-8.098220e+02
8.500000e-07	2.930067e-07	-1.176812e-08	2.115320e+00	-7.754704e+02
8.600000e-07	3.938972e-07	-1.122391e-08	2.843685e+00	-7.385484e+02
8.700000e-07	4.947544e-07	-1.063516e-08	3.571809e+00	-6.991525e+02
8.800000e-07	5.954790e-07	-9.993308e-09	4.298975e+00	-6.571835e+02
8.900000e-07	6.959753e-07	-9.290149e-09	5.024494e+00	-6.121709e+02
9.000000e-07	7.962756e-07	-8.513987e-09	5.748598e+00	-5.631582e+02
9.100000e-07	8.963952e-07	-7.653378e-09	6.471397e+00	-5.086988e+02
9.200000e-07	9.963100e-07	-6.693541e-09	7.192718e+00	-4.469887e+02
9.300000e-07	1.095949e-06	-5.613058e-09	7.912048e+00	-3.761319e+02
9.400000e-07	1.195190e-06	-4.387001e-09	8.628506e+00	-2.944995e+02
9.500000e-07	1.293950e-06	-2.991848e-09	9.341487e+00	-2.011176e+02
9.600000e-07	1.392047e-06	-1.413945e-09	1.004968e+01	-9.600221e+01
9.700000e-07	1.489394e-06	3.411081e-10	1.075247e+01	1.963626e+01
9.800000e-07	1.586108e-06	2.243360e-09	1.145068e+01	1.433729e+02
9.900000e-07	1.682236e-06	4.235793e-09	1.214466e+01	2.717535e+02
1.000000e-06	1.777749e-06	6.237115e-09	1.283420e+01	4.006626e+02
1.010000e-06	1.872599e-06	8.165009e-09	1.351896e+01	5.258124e+02
1.020000e-06	1.966806e-06	9.948020e-09	1.419908e+01	6.432664e+02
1.030000e-06	2.060325e-06	1.153965e-08	1.487423e+01	7.499032e+02
1.040000e-06	2.153134e-06	1.292293e-08	1.554424e+01	8.437374e+02
1.050000e-06	2.245350e-06	1.410323e-08	1.620999e+01	9.240476e+02
1.060000e-06	2.336970e-06	1.510127e-08	1.687142e+01	9.912991e+02
1.070000e-06	2.427680e-06	1.594380e-08	1.752629e+01	1.046892e+03
1.080000e-06	2.517234e-06	1.665578e-08	1.817281e+01	1.092798e+03
1.090000e-06	2.605793e-06	1.725859e-08	1.881215e+01	1.131162e+03
1.100000e-06	2.693438e-06	1.777567e-08	1.944489e+01	1.163957e+03
1.110000e-06	2.780128e-06	1.822061e-08	2.007074e+01	1.192742e+03
1.120000e-06	2.865899e-06	1.860734e-08	2.068995e+01	1.218556e+03
1.130000e-06	2.950761e-06	1.894942e-08	2.130260e+01	1.241950e+03
1.140000e-06	3.034777e-06	1.925297e-08	2.190914e+01	1.263115e+03
1.150000e-06	3.117813e-06	1.952407e-08	2.250861e+01	1.282065e+03
1.160000e-06	3.199652e-06	1.976814e-08	2.309943e+01	1.298800e+03
1.170000e-06	3.280350e-06	1.999011e-08	2.368202e+01	1.313439e+03
1.180000e-06	3.359916e-06	2.019174e-08	2.425643e+01	1.326258e+03
1.190000e-06	3.438284e-06	2.037703e-08	2.482220e+01	1.337669e+03
1.200000e-06	3.515383e-06	2.054910e-08	2.537880e+01	1.348133e+03
1.210000e-06	3.591168e-06	2.071074e-08	2.592593e+01	1.358062e+03
1.220000e-06	3.665452e-06	2.086337e-08	2.646221e+01	1.367732e+03
1.230000e-06	3.738151e-06	2.100555e-08	2.698705e+01	1.377237e+03
1.240000e-06	3.809474e-06	2.113589e-08	2.750195e+01	1.386503e+03
1.250000e-06	3.879488e-06	2.125674e-08	2.800741e+01	1.395342e+03
1.260000e-06	3.948217e-06	2.137124e-08	2.850359e+01	1.403537e+03
1.270000e-06	4.015652e-06	2.147820e-08	2.899043e+01	1.410931e+03
1.280000e-06	4.081566e-06	2.157829e-08	2.946629e+01	1.417483e+03
1.290000e-06	4.145824e-06	2.167394e-08	2.993018e+01	1.423290e+03
1.300000e-06	4.208537e-06	2.176509e-08	3.038293e+01	1.428559e+03
1.310000e-06	4.269849e-06	2.185103e-08	3.082557e+01	1.433548e+03
1.320000e-06	4.329895e-06	2.193289e-08	3.125906e+01	1.438494e+03
1.330000e-06	4.388369e-06	2.201183e-08	3.168120e+01	1.443545e+03
1.340000e-06	4.445020e-06	2.208731e-08	3.209019e+01	1.448730e+03
1.350000e-06	4.500042e-06	2.215890e-08	3.248741e+01	1.453958e+03
1.360000e-06	4.553470e-06	2.222728e-08	3.287312e+01	1.459056e+03
1.370000e-06	4.605103e-06	2.229266e-08	3.324588e+01	1.463832e+03
1.380000e-06	4.654708e-06	2.235467e-08	3.360400e+01	1.468135e+03
1.390000e-06	4.702459e-06	2.241285e-08	3.394873e+01	1.471902e+03
1.400000e-06	4.748603e-06	2.246676e-08	3.428186e+01	1.475179e+03
1.410000e-06	4.793227e-06	2.251767e-08	3.460402e+01	1.478098e+03
1.420000e-06	4.836295e-06	2.256575e-08	3.491494e+01	1.480836e+03
1.430000e-06	4.877535e-06	2.261110e-08	3.521267e+01	1.483561e+03
1.440000e-06	4.916975e-06	2.265460e-08	3.549740e+01	1.486376e+03
1.450000e-06	4.954748e-06	2.269573e-08	3.577010e+01	1.489294e+03
1.460000e-06	4.990940e-06	2.273378e-08	3.603138e+01	1.492237e+03
1.470000e-06	5.025353e-06	2.276815e-08	3.627982e+01	1.495063e+03
1.480000e-06	5.057793e-06	2.279850e-08	3.651401e+01	1.497617e+03
1.490000e-06	5.088537e-06	2.282433e-08	3.673597e+01	1.499778e+03
1.500000e-06	5.117703e-06	2.284808e-08	3.694653e+01	1.501501e+03
1.510000e-06	5.145143e-06	2.287256e-08	3.714463e+01	1.502829e+03
1.520000e-06	5.170567e-06	2.289807e-08	3.732817e+01	1.503881e+03
1.530000e-06	5.193978e-06	2.292184e-08	3.749718e+01	1.504815e+03
1.540000e-06	5.215587e-06	2.294171e-08	3.765319e+01	1.505776e+03
1.550000e-06	5.235533e-06	2.295783e-08	3.779718e+01	1.506858e+03
1.560000e-06	5.253678e-06	2.297140e-08	3.792818e+01	1.508072e+03
1.570000e-06	5.269811e-06	2.298523e-08	3.804465e+01	1.509345e+03
1.580000e-06	5.283956e-06	2.299934e-08	3.814677e+01	1.510549e+03
1.590000e-06	5.296108e-06	2.301097e-08	3.823449e+01	1.511538e+03
1.600000e-06	5.306090e-06	2.301916e-08	3.830656e+01	1.512198e+03
1.610000e-06	5.313981e-06	2.302507e-08	3.836353e+01	1.512481e+03
1.620000e-06	5.320041e-06	2.302940e-08	3.840728e+01	1.512419e+03
1.630000e-06	5.324379e-06	2.303309e-08	3.843859e+01	1.512116e+03
1.640000e-06	5.326878e-06	2.303495e-08	3.845664e+01	1.511715e+03
1.650000e-06	5.327344e-06	2.303478e-08	3.846000e+01	1.511350e+03
1.660000e-06	5.325992e-06	2.303242e-08	3.845024e+01	1.511105e+03
1.670000e-06	5.323060e-06	2.302726e-08	3.842908e+01	1.510992e+03
1.680000e-06	5.318562e-06	2.302077e-08	3.839660e+01	1.510941e+03
1.690000e-06	5.312122e-06	2.301435e-08	3.835011e+01	1.510827e+03
1.700000e-06	5.303768e-06	2.300649e-08	3.828980e+01	1.510506e+03
1.710000e-06	5.293863e-06	2.299714e-08	3.821829e+01	1.509862e+03
1.720000e-06	5.282346e-06	2.298629e-08	3.813515e+01	1.508841e+03
1.730000e-06	5.268987e-06	2.296971e-08	3.803870e+01	1.507474e+03
1.740000e-06	5.253570e-06	2.291672e-08	3.792740e+01	1.505861e+03
1.750000e-06	5.235871e-06	2.288789e-08	3.779963e+01	1.504147e+03
1.760000e-06	5.215543e-06	2.288560e-08	3.765287e+01	1.502478e+03
1.770000e-06	5.192823e-06	2.289666e-08	3.748884e+01	1.500956e+03
1.780000e-06	5.168713e-06	2.291439e-08	3.731479e+01	1.499612e+03
1.790000e-06	5.143886e-06	2.282287e-08	3.713555e+01	1.498395e+03
1.800000e-06	5.117753e-06	2.279091e-08	3.694689e+01	1.497190e+03
1.810000e-06	5.089573e-06	2.280350e-08	3.674344e+01	1.495853e+03
1.820000e-06	5.059612e-06	2.272047e-08	3.652715e+01	1.494252e+03
1.830000e-06	5.027886e-06	2.272672e-08	3.629811e+01	1.492309e+03
1.840000e-06	4.994235e-06	2.273039e-08	3.605517e+01	1.490016e+03
1.850000e-06	4.959042e-06	2.263717e-08	3.580110e+01	1.487437e+03
1.860000e-06	4.922076e-06	2.265682e-08	3.553423e+01	1.484679e+03
1.870000e-06	4.883060e-06	2.264265e-08	3.525256e+01	1.481861e+03
1.880000e-06	4.842407e-06	2.253049e-08	3.495907e+01	1.479066e+03
1.890000e-06	4.800039e-06	2.250456e-08	3.465320e+01	1.476320e+03
1.900000e-06	4.756028e-06	2.246116e-08	3.433547e+01	1.473576e+03
1.910000e-06	4.710400e-06	2.244154e-08	3.400606e+01	1.470732e+03
1.920000e-06	4.662857e-06	2.241561e-08	3.366283e+01	1.467660e+03
1.930000e-06	4.613633e-06	2.230675e-08	3.330746e+01	1.464249e+03
1.940000e-06	4.562643e-06	2.226594e-08	3.293935e+01	1.460441e+03
1.950000e-06	4.509703e-06	2.218624e-08	3.255716e+01	1.456247e+03
1.960000e-06	4.454864e-06	2.211558e-08	3.216125e+01	1.451750e+03
1.970000e-06	4.398210e-06	2.209871e-08	3.175225e+01	1.447076e+03
1.980000e-06	4.340001e-06	2.200579e-08	3.133202e+01	1.442359e+03
1.990000e-06	4.280457e-06	2.194793e-08	3.090215e+01	1.437697e+03
2.000000e-06	4.219531e-06	2.186048e-08	3.046230e+01	1.433122e+03
2.010000e-06	4.156858e-06	2.177063e-08	3.000985e+01	1.428587e+03
2.020000e-06	4.092476e-06	2.172493e-08	2.954505e+01	1.423986e+03
2.030000e-06	4.026746e-06	2.163439e-08	2.907052e+01	1.419179e+03
2.040000e-06	3.959642e-06	2.157099e-08	2.858607e+01	1.414040e+03
2.050000e-06	3.891200e-06	2.147975e-08	2.809196e+01	1.408492e+03
2.060000e-06	3.821218e-06	2.138458e-08	2.758674e+01	1.402535e+03
2.070000e-06	3.749691e-06	2.129821e-08	2.707036e+01	1.396241e+03
2.080000e-06	3.676952e-06	2.118758e-08	2.654523e+01	1.389734e+03
2.090000e-06	3.602933e-06	2.110795e-08	2.601086e+01	1.383144e+03
2.100000e-06	3.527573e-06	2.100438e-08	2.546681e+01	1.376573e+03
2.110000e-06	3.450732e-06	2.090683e-08	2.491206e+01	1.370052e+03
2.120000e-06	3.372330e-06	2.080704e-08	2.434605e+01	1.363533e+03
2.130000e-06	3.292649e-06	2.069741e-08	2.377081e+01	1.356901e+03
2.140000e-06	3.211918e-06	2.058927e-08	2.318798e+01	1.350008e+03
2.150000e-06	3.130115e-06	2.046016e-08	2.259742e+01	1.342717e+03
2.160000e-06	3.047200e-06	2.035230e-08	2.199883e+01	1.334947e+03
2.170000e-06	2.963330e-06	2.023894e-08	2.139334e+01	1.326697e+03
2.180000e-06	2.878423e-06	2.011384e-08	2.078037e+01	1.318044e+03
2.190000e-06	2.792223e-06	1.997956e-08	2.015805e+01	1.309120e+03
2.200000e-06	2.704823e-06	1.984275e-08	1.952708e+01	1.300068e+03
2.210000e-06	2.616566e-06	1.971302e-08	1.888993e+01	1.290988e+03
2.220000e-06	2.527498e-06	1.957341e-08	1.824691e+01	1.281905e+03
2.230000e-06	2.437494e-06	1.943289e-08	1.759714e+01	1.272749e+03
2.240000e-06	2.346707e-06	1.928363e-08	1.694172e+01	1.263375e+03
2.250000e-06	2.255216e-06	1.912962e-08	1.628121e+01	1.253599e+03
2.260000e-06	2.163000e-06	1.896645e-08	1.561547e+01	1.243254e+03
2.270000e-06	2.069933e-06	1.879766e-08	1.494358e+01	1.232240e+03
2.280000e-06	1.975935e-06	1.862939e-08	1.426498e+01	1.220553e+03
2.290000e-06	1.881032e-06	1.845427e-08	1.357984e+01	1.208286e+03
2.300000e-06	1.785373e-06	1.827254e-08	1.288924e+01	1.195599e+03
2.310000e-06	1.689222e-06	1.807893e-08	1.219509e+01	1.182661e+03
2.320000e-06	1.592658e-06	1.787954e-08	1.149797e+01	1.169591e+03
2.330000e-06	1.495583e-06	1.767372e-08	1.079715e+01	1.156406e+03
2.340000e-06	1.397895e-06	1.746162e-08	1.009190e+01	1.143004e+03
2.350000e-06	1.299744e-06	1.724265e-08	9.383316e+00	1.129181e+03
2.360000e-06	1.201233e-06	1.701561e-08	8.672127e+00	1.114681e+03
2.370000e-06	1.102407e-06	1.677980e-08	7.958668e+00	1.099266e+03
2.380000e-06	1.003340e-06	1.652976e-08	7.243467e+00	1.082780e+03
2.390000e-06	9.039781e-07	1.626654e-08	6.526141e+00	1.065196e+03
2.400000e-06	8.043312e-07	1.599293e-08	5.806754e+00	1.046611e+03
2.410000e-06	7.044517e-07	1.571108e-08	5.085689e+00	1.027206e+03
2.420000e-06	6.043794e-07	1.541540e-08	4.363231e+00	1.007167e+03
2.430000e-06	5.041072e-07	1.510261e-08	3.639330e+00	9.865993e+02
2.440000e-06	4.036988e-07	1.477283e-08	2.914446e+00	9.654530e+02
2.450000e-06	3.031789e-07	1.442399e-08	2.188757e+00	9.434922e+02
2.460000e-06	2.024956e-07	1.405517e-08	1.461888e+00	9.203180e+02
2.470000e-06	1.017299e-07	1.366577e-08	7.344243e-01	8.954431e+02
2.480000e-06	8.799634e-10	1.325429e-08	6.352770e-03	8.683969e+02
2.490000e-06	-1.000590e-07	1.281338e-08	-7.223619e-01	8.388302e+02
2.500000e-06	-2.009260e-07	1.233548e-08	-1.450557e+00	8.065795e+02
2.510000e-06	-3.016766e-07	1.181660e-08	-2.177911e+00	7.716651e+02
2.520000e-06	-4.023255e-07	1.125752e-08	-2.904532e+00	7.342080e+02
2.530000e-06	-5.028334e-07	1.065636e-08	-3.630134e+00	6.942787e+02
2.540000e-06	-6.032323e-07	1.000617e-08	-4.354950e+00	6.517119e+02
2.550000e-06	-7.034707e-07	9.294691e-09	-5.078606e+00	6.059395e+02
2.560000e-06	-8.034810e-07	8.508956e-09	-5.800616e+00	5.558960e+02
2.570000e-06	-9.032831e-07	7.634752e-09	-6.521124e+00	5.000421e+02
2.580000e-06	-1.002774e-06	6.653833e-09	-7.239385e+00	4.365278e+02
2.590000e-06	-1.101850e-06	5.547744e-09	-7.954652e+00	3.634818e+02
2.600000e-06	-1.200533e-06	4.296770e-09	-8.667080e+00	2.793838e+02
2.610000e-06	-1.298858e-06	2.879086e-09	-9.376922e+00	1.834469e+02
2.620000e-06	-1.396750e-06	1.279292e-09	-1.008364e+01	7.593154e+01
2.630000e-06	-1.494091e-06	-4.977549e-10	-1.078638e+01	-4.168626e+01
2.640000e-06	-1.590873e-06	-2.420812e-09	-1.148508e+01	-1.667386e+02
2.650000e-06	-1.687185e-06	-4.426789e-09	-1.218039e+01	-2.955934e+02
2.660000e-06	-1.783116e-06	-6.434663e-09	-1.287295e+01	-4.240544e+02
2.670000e-06	-1.878500e-06	-8.358501e-09	-1.356156e+01	-5.478657e+02
2.680000e-06	-1.972969e-06	-1.012540e-08	-1.424357e+01	-6.632301e+02
2.690000e-06	-2.066397e-06	-1.169690e-08	-1.491806e+01	-7.672488e+02
2.700000e-06	-2.158987e-06	-1.306171e-08	-1.558650e+01	-8.582034e+02
2.710000e-06	-2.250846e-06	-1.422513e-08	-1.624966e+01	-9.356400e+02
2.720000e-06	-2.341888e-06	-1.520827e-08	-1.690693e+01	-1.000251e+03
2.730000e-06	-2.432104e-06	-1.604065e-08	-1.755823e+01	-1.053591e+03
2.740000e-06	-2.521438e-06	-1.674668e-08	-1.820316e+01	-1.097701e+03
2.750000e-06	-2.609940e-06	-1.734595e-08	-1.884209e+01	-1.134718e+03
2.760000e-06	-2.697766e-06	-1.785694e-08	-1.947614e+01	-1.166540e+03
2.770000e-06	-2.784694e-06	-1.829711e-08	-2.010370e+01	-1.194619e+03
2.780000e-06	-2.870432e-06	-1.868078e-08	-2.072267e+01	-1.219884e+03
2.790000e-06	-2.955025e-06	-1.901593e-08	-2.133338e+01	-1.242794e+03
2.800000e-06	-3.038588e-06	-1.931225e-08	-2.193665e+01	-1.263487e+03
2.810000e-06	-3.121135e-06	-1.957870e-08	-2.253259e+01	-1.281960e+03
2.820000e-06	-3.202639e-06	-1.981917e-08	-2.312099e+01	-1.298231e+03
2.830000e-06	-3.283134e-06	-2.003797e-08	-2.370212e+01	-1.312452e+03
2.840000e-06	-3.362516e-06	-2.023955e-08	-2.427520e+01	-1.324933e+03
2.850000e-06	-3.440464e-06	-2.042679e-08	-2.483794e+01	-1.336102e+03
2.860000e-06	-3.516929e-06	-2.060079e-08	-2.538997e+01	-1.346421e+03
2.870000e-06	-3.591999e-06	-2.076124e-08	-2.593192e+01	-1.356278e+03
2.880000e-06	-3.665651e-06	-2.090882e-08	-2.646364e+01	-1.365911e+03
2.890000e-06	-3.738059e-06	-2.104619e-08	-2.698638e+01	-1.375377e+03
2.900000e-06	-3.809273e-06	-2.117561e-08	-2.750050e+01	-1.384571e+03
2.910000e-06	-3.878948e-06	-2.129818e-08	-2.800351e+01	-1.393289e+03
2.920000e-06	-3.947129e-06	-2.141340e-08	-2.849573e+01	-1.401324e+03
2.930000e-06	-4.013995e-06	-2.152026e-08	-2.897847e+01	-1.408536e+03
2.940000e-06	-4.079469e-06	-2.161933e-08	-2.945115e+01	-1.414917e+03
