# Temperatura_=_55.17
# Concentracion g/m^3_=_41000.0
# C_Vs_to_Am_M_A/Vsm_=_65563218390.804596
# pendiente_HvsI_1/m_=_3716.3
# ordenada_HvsI_A/m_=_1297.0
# frecuencia_Hz_=_301609.83530840336

Tiempo_(s)	Campo_(V.s)	Magnetizacion_(V.s)	Campo_(kA/m)	Magnetizacion_(A/m)
0.000000e+00	-5.320156e-06	-2.421903e-08	-3.834248e+01	-1.583539e+03
1.000000e-08	-5.317969e-06	-2.421334e-08	-3.832672e+01	-1.583128e+03
2.000000e-08	-5.313941e-06	-2.420799e-08	-3.829769e+01	-1.582802e+03
3.000000e-08	-5.308255e-06	-2.419975e-08	-3.825672e+01	-1.582547e+03
4.000000e-08	-5.300987e-06	-2.418814e-08	-3.820433e+01	-1.582293e+03
5.000000e-08	-5.291976e-06	-2.417537e-08	-3.813939e+01	-1.581931e+03
6.000000e-08	-5.280918e-06	-2.416363e-08	-3.805970e+01	-1.581353e+03
7.000000e-08	-5.267932e-06	-2.415499e-08	-3.796610e+01	-1.580485e+03
8.000000e-08	-5.252888e-06	-2.414118e-08	-3.785768e+01	-1.579309e+03
9.000000e-08	-5.235556e-06	-2.412538e-08	-3.773277e+01	-1.577875e+03
1.000000e-07	-5.216142e-06	-2.411703e-08	-3.759285e+01	-1.576279e+03
1.100000e-07	-5.194860e-06	-2.408460e-08	-3.743947e+01	-1.574643e+03
1.200000e-07	-5.171949e-06	-2.403490e-08	-3.727435e+01	-1.573070e+03
1.300000e-07	-5.147663e-06	-2.401849e-08	-3.709932e+01	-1.571619e+03
1.400000e-07	-5.121830e-06	-2.399203e-08	-3.691315e+01	-1.570283e+03
1.500000e-07	-5.094206e-06	-2.396723e-08	-3.671406e+01	-1.568994e+03
1.600000e-07	-5.065032e-06	-2.395861e-08	-3.650380e+01	-1.567641e+03
1.700000e-07	-5.034429e-06	-2.390833e-08	-3.628324e+01	-1.566104e+03
1.800000e-07	-5.001910e-06	-2.388095e-08	-3.604888e+01	-1.564291e+03
1.900000e-07	-4.967346e-06	-2.384501e-08	-3.579977e+01	-1.562161e+03
2.000000e-07	-4.931242e-06	-2.377385e-08	-3.553957e+01	-1.559740e+03
2.100000e-07	-4.893576e-06	-2.375411e-08	-3.526811e+01	-1.557102e+03
2.200000e-07	-4.854114e-06	-2.371476e-08	-3.498370e+01	-1.554353e+03
2.300000e-07	-4.812747e-06	-2.367052e-08	-3.468558e+01	-1.551587e+03
2.400000e-07	-4.769444e-06	-2.365357e-08	-3.437349e+01	-1.548859e+03
2.500000e-07	-4.724447e-06	-2.357544e-08	-3.404920e+01	-1.546165e+03
2.600000e-07	-4.677702e-06	-2.350481e-08	-3.371231e+01	-1.543443e+03
2.700000e-07	-4.628957e-06	-2.347031e-08	-3.336100e+01	-1.540588e+03
2.800000e-07	-4.578089e-06	-2.343293e-08	-3.299439e+01	-1.537486e+03
2.900000e-07	-4.525262e-06	-2.339117e-08	-3.261366e+01	-1.534051e+03
3.000000e-07	-4.470779e-06	-2.333103e-08	-3.222101e+01	-1.530250e+03
3.100000e-07	-4.414701e-06	-2.326655e-08	-3.181685e+01	-1.526112e+03
3.200000e-07	-4.356878e-06	-2.318717e-08	-3.140012e+01	-1.521724e+03
3.300000e-07	-4.297372e-06	-2.311084e-08	-3.097125e+01	-1.517201e+03
3.400000e-07	-4.236415e-06	-2.305566e-08	-3.053194e+01	-1.512650e+03
3.500000e-07	-4.174076e-06	-2.299284e-08	-3.008266e+01	-1.508139e+03
3.600000e-07	-4.110357e-06	-2.292840e-08	-2.962344e+01	-1.503672e+03
3.700000e-07	-4.045062e-06	-2.284805e-08	-2.915285e+01	-1.499189e+03
3.800000e-07	-3.978068e-06	-2.276491e-08	-2.867003e+01	-1.494582e+03
3.900000e-07	-3.909641e-06	-2.269218e-08	-2.817687e+01	-1.489730e+03
4.000000e-07	-3.839993e-06	-2.260876e-08	-2.767491e+01	-1.484534e+03
4.100000e-07	-3.769147e-06	-2.252839e-08	-2.716433e+01	-1.478946e+03
4.200000e-07	-3.697089e-06	-2.244169e-08	-2.664501e+01	-1.472988e+03
4.300000e-07	-3.623569e-06	-2.235262e-08	-2.611514e+01	-1.466739e+03
4.400000e-07	-3.548368e-06	-2.225645e-08	-2.557316e+01	-1.460310e+03
4.500000e-07	-3.471695e-06	-2.215355e-08	-2.502058e+01	-1.453810e+03
4.600000e-07	-3.393744e-06	-2.205270e-08	-2.445879e+01	-1.447306e+03
4.700000e-07	-3.314469e-06	-2.195185e-08	-2.388745e+01	-1.440801e+03
4.800000e-07	-3.233871e-06	-2.185178e-08	-2.330658e+01	-1.434228e+03
4.900000e-07	-3.152080e-06	-2.174275e-08	-2.271711e+01	-1.427471e+03
5.000000e-07	-3.069258e-06	-2.163046e-08	-2.212021e+01	-1.420394e+03
5.100000e-07	-2.985556e-06	-2.151144e-08	-2.151697e+01	-1.412885e+03
5.200000e-07	-2.901010e-06	-2.138251e-08	-2.090764e+01	-1.404891e+03
5.300000e-07	-2.815495e-06	-2.125324e-08	-2.029134e+01	-1.396428e+03
5.400000e-07	-2.729003e-06	-2.112855e-08	-1.966799e+01	-1.387578e+03
5.500000e-07	-2.641652e-06	-2.099963e-08	-1.903845e+01	-1.378461e+03
5.600000e-07	-2.553388e-06	-2.085855e-08	-1.840232e+01	-1.369192e+03
5.700000e-07	-2.463982e-06	-2.071011e-08	-1.775798e+01	-1.359841e+03
5.800000e-07	-2.373397e-06	-2.055973e-08	-1.710513e+01	-1.350404e+03
5.900000e-07	-2.281918e-06	-2.040598e-08	-1.644584e+01	-1.340799e+03
6.000000e-07	-2.189728e-06	-2.024640e-08	-1.578142e+01	-1.330883e+03
6.100000e-07	-2.096794e-06	-2.008104e-08	-1.511164e+01	-1.320496e+03
6.200000e-07	-2.003075e-06	-1.991002e-08	-1.443620e+01	-1.309501e+03
6.300000e-07	-1.908659e-06	-1.973140e-08	-1.375575e+01	-1.297831e+03
6.400000e-07	-1.813607e-06	-1.954464e-08	-1.307071e+01	-1.285504e+03
6.500000e-07	-1.717934e-06	-1.935449e-08	-1.238119e+01	-1.272615e+03
6.600000e-07	-1.621705e-06	-1.915976e-08	-1.168767e+01	-1.259304e+03
6.700000e-07	-1.524873e-06	-1.895782e-08	-1.098980e+01	-1.245704e+03
6.800000e-07	-1.427314e-06	-1.874650e-08	-1.028669e+01	-1.231887e+03
6.900000e-07	-1.329081e-06	-1.852493e-08	-9.578717e+00	-1.217833e+03
7.000000e-07	-1.230298e-06	-1.829399e-08	-8.866784e+00	-1.203417e+03
7.100000e-07	-1.131071e-06	-1.805428e-08	-8.151652e+00	-1.188436e+03
7.200000e-07	-1.031552e-06	-1.780692e-08	-7.434415e+00	-1.172658e+03
7.300000e-07	-9.317610e-07	-1.755193e-08	-6.715222e+00	-1.155883e+03
7.400000e-07	-8.317058e-07	-1.728698e-08	-5.994122e+00	-1.137997e+03
7.500000e-07	-7.314387e-07	-1.700689e-08	-5.271495e+00	-1.118994e+03
7.600000e-07	-6.309790e-07	-1.670923e-08	-4.547480e+00	-1.098973e+03
7.700000e-07	-5.303337e-07	-1.639556e-08	-3.822127e+00	-1.078084e+03
7.800000e-07	-4.295429e-07	-1.606802e-08	-3.095726e+00	-1.056462e+03
7.900000e-07	-3.286101e-07	-1.572753e-08	-2.368300e+00	-1.034150e+03
8.000000e-07	-2.274903e-07	-1.537022e-08	-1.639528e+00	-1.011046e+03
8.100000e-07	-1.262504e-07	-1.499027e-08	-9.098896e-01	-9.868884e+02
8.200000e-07	-2.500443e-08	-1.458525e-08	-1.802075e-01	-9.612905e+02
8.300000e-07	7.622055e-08	-1.415605e-08	5.493232e-01	-9.338135e+02
8.400000e-07	1.774530e-07	-1.370189e-08	1.278907e+00	-9.040595e+02
8.500000e-07	2.787054e-07	-1.321934e-08	2.008636e+00	-8.717540e+02
8.600000e-07	3.798851e-07	-1.270267e-08	2.737840e+00	-8.367855e+02
8.700000e-07	4.809363e-07	-1.214686e-08	3.466119e+00	-7.991820e+02
8.800000e-07	5.818370e-07	-1.154782e-08	4.193312e+00	-7.590186e+02
8.900000e-07	6.825343e-07	-1.090074e-08	4.919040e+00	-7.162728e+02
9.000000e-07	7.830296e-07	-1.019787e-08	5.643312e+00	-6.706621e+02
9.100000e-07	8.833168e-07	-9.428671e-09	6.366084e+00	-6.215121e+02
9.200000e-07	9.833167e-07	-8.582511e-09	7.086786e+00	-5.677007e+02
9.300000e-07	1.083035e-06	-7.647571e-09	7.805455e+00	-5.077138e+02
9.400000e-07	1.182485e-06	-6.603784e-09	8.522194e+00	-4.398240e+02
9.500000e-07	1.281510e-06	-5.429222e-09	9.235869e+00	-3.623720e+02
9.600000e-07	1.379949e-06	-4.103079e-09	9.945325e+00	-2.741074e+02
9.700000e-07	1.477715e-06	-2.607723e-09	1.064992e+01	-1.745208e+02
9.800000e-07	1.574758e-06	-9.397663e-10	1.134932e+01	-6.409711e+01
9.900000e-07	1.671103e-06	8.880795e-10	1.204367e+01	5.557038e+01
1.000000e-06	1.766779e-06	2.837087e-09	1.273322e+01	1.818411e+02
1.010000e-06	1.861819e-06	4.842333e-09	1.341817e+01	3.112640e+02
1.020000e-06	1.956236e-06	6.827775e-09	1.409864e+01	4.399556e+02
1.030000e-06	2.050001e-06	8.722432e-09	1.477440e+01	5.640532e+02
1.040000e-06	2.143079e-06	1.047161e-08	1.544521e+01	6.801653e+02
1.050000e-06	2.235477e-06	1.204345e-08	1.611113e+01	7.857363e+02
1.060000e-06	2.327243e-06	1.342946e-08	1.677249e+01	8.792684e+02
1.070000e-06	2.418235e-06	1.463621e-08	1.742827e+01	9.603669e+02
1.080000e-06	2.508179e-06	1.567802e-08	1.807650e+01	1.029615e+03
1.090000e-06	2.596978e-06	1.657329e-08	1.871647e+01	1.088320e+03
1.100000e-06	2.684774e-06	1.734482e-08	1.934923e+01	1.138181e+03
1.110000e-06	2.771728e-06	1.800962e-08	1.997590e+01	1.180971e+03
1.120000e-06	2.857814e-06	1.858413e-08	2.059633e+01	1.218262e+03
1.130000e-06	2.942904e-06	1.908461e-08	2.120958e+01	1.251267e+03
1.140000e-06	3.027053e-06	1.952448e-08	2.181604e+01	1.280789e+03
1.150000e-06	3.110353e-06	1.991348e-08	2.241639e+01	1.307279e+03
1.160000e-06	3.192594e-06	2.025859e-08	2.300909e+01	1.330955e+03
1.170000e-06	3.273565e-06	2.056548e-08	2.359265e+01	1.351946e+03
1.180000e-06	3.353319e-06	2.083917e-08	2.416745e+01	1.370414e+03
1.190000e-06	3.431878e-06	2.108704e-08	2.473362e+01	1.386627e+03
1.200000e-06	3.509225e-06	2.131232e-08	2.529106e+01	1.400962e+03
1.210000e-06	3.585394e-06	2.151842e-08	2.584002e+01	1.413866e+03
1.220000e-06	3.660243e-06	2.170963e-08	2.637946e+01	1.425771e+03
1.230000e-06	3.733474e-06	2.188577e-08	2.690723e+01	1.437021e+03
1.240000e-06	3.805108e-06	2.204807e-08	2.742350e+01	1.447813e+03
1.250000e-06	3.875378e-06	2.220068e-08	2.792994e+01	1.458185e+03
1.260000e-06	3.944333e-06	2.234387e-08	2.842689e+01	1.468047e+03
1.270000e-06	4.012007e-06	2.247674e-08	2.891462e+01	1.477242e+03
1.280000e-06	4.078196e-06	2.259692e-08	2.939165e+01	1.485623e+03
1.290000e-06	4.142762e-06	2.270697e-08	2.985698e+01	1.493115e+03
1.300000e-06	4.205861e-06	2.280861e-08	3.031173e+01	1.499757e+03
1.310000e-06	4.267544e-06	2.290300e-08	3.075628e+01	1.505693e+03
1.320000e-06	4.327861e-06	2.299286e-08	3.119099e+01	1.511139e+03
1.330000e-06	4.386793e-06	2.307867e-08	3.161572e+01	1.516326e+03
1.340000e-06	4.444036e-06	2.316080e-08	3.202827e+01	1.521440e+03
1.350000e-06	4.499492e-06	2.323951e-08	3.242794e+01	1.526575e+03
1.360000e-06	4.553343e-06	2.331441e-08	3.281604e+01	1.531721e+03
1.370000e-06	4.605498e-06	2.338423e-08	3.319192e+01	1.536775e+03
1.380000e-06	4.655625e-06	2.344825e-08	3.355319e+01	1.541589e+03
1.390000e-06	4.703725e-06	2.350737e-08	3.389985e+01	1.546018e+03
1.400000e-06	4.750163e-06	2.356282e-08	3.423453e+01	1.549971e+03
1.410000e-06	4.795112e-06	2.361774e-08	3.455848e+01	1.553435e+03
1.420000e-06	4.838517e-06	2.367179e-08	3.487130e+01	1.556485e+03
1.430000e-06	4.880077e-06	2.372121e-08	3.517082e+01	1.559251e+03
1.440000e-06	4.919771e-06	2.376742e-08	3.545690e+01	1.561882e+03
1.450000e-06	4.957843e-06	2.381150e-08	3.573128e+01	1.564496e+03
1.460000e-06	4.994313e-06	2.385056e-08	3.599413e+01	1.567151e+03
1.470000e-06	5.029074e-06	2.388316e-08	3.624465e+01	1.569827e+03
1.480000e-06	5.061927e-06	2.391048e-08	3.648142e+01	1.572439e+03
1.490000e-06	5.092954e-06	2.393625e-08	3.670503e+01	1.574868e+03
1.500000e-06	5.122286e-06	2.396256e-08	3.691643e+01	1.576999e+03
1.510000e-06	5.149966e-06	2.398911e-08	3.711592e+01	1.578766e+03
1.520000e-06	5.175775e-06	2.401625e-08	3.730192e+01	1.580168e+03
1.530000e-06	5.199508e-06	2.404196e-08	3.747297e+01	1.581270e+03
1.540000e-06	5.221418e-06	2.406396e-08	3.763087e+01	1.582187e+03
1.550000e-06	5.241658e-06	2.408026e-08	3.777675e+01	1.583044e+03
1.560000e-06	5.260092e-06	2.409163e-08	3.790960e+01	1.583939e+03
1.570000e-06	5.276518e-06	2.410165e-08	3.802798e+01	1.584915e+03
1.580000e-06	5.290989e-06	2.411207e-08	3.813228e+01	1.585948e+03
1.590000e-06	5.303508e-06	2.412205e-08	3.822250e+01	1.586954e+03
1.600000e-06	5.313831e-06	2.413279e-08	3.829690e+01	1.587820e+03
1.610000e-06	5.322028e-06	2.414386e-08	3.835597e+01	1.588441e+03
1.620000e-06	5.328369e-06	2.415092e-08	3.840167e+01	1.588752e+03
1.630000e-06	5.332967e-06	2.415458e-08	3.843481e+01	1.588750e+03
1.640000e-06	5.335717e-06	2.415611e-08	3.845463e+01	1.588493e+03
1.650000e-06	5.336462e-06	2.415569e-08	3.846000e+01	1.588084e+03
1.660000e-06	5.335376e-06	2.415431e-08	3.845218e+01	1.587637e+03
1.670000e-06	5.332626e-06	2.414957e-08	3.843235e+01	1.587241e+03
1.680000e-06	5.328260e-06	2.414392e-08	3.840089e+01	1.586933e+03
1.690000e-06	5.322050e-06	2.413773e-08	3.835614e+01	1.586685e+03
1.700000e-06	5.313904e-06	2.412925e-08	3.829742e+01	1.586416e+03
1.710000e-06	5.304181e-06	2.411991e-08	3.822735e+01	1.586015e+03
1.720000e-06	5.292919e-06	2.410794e-08	3.814618e+01	1.585378e+03
1.730000e-06	5.279773e-06	2.409325e-08	3.805144e+01	1.584442e+03
1.740000e-06	5.264547e-06	2.407780e-08	3.794171e+01	1.583204e+03
1.750000e-06	5.247098e-06	2.403852e-08	3.781595e+01	1.581724e+03
1.760000e-06	5.227139e-06	2.402756e-08	3.767211e+01	1.580109e+03
1.770000e-06	5.204785e-06	2.403046e-08	3.751100e+01	1.578477e+03
1.780000e-06	5.180854e-06	2.400494e-08	3.733853e+01	1.576926e+03
1.790000e-06	5.156128e-06	2.399877e-08	3.716033e+01	1.575501e+03
1.800000e-06	5.130173e-06	2.393842e-08	3.697327e+01	1.574182e+03
1.810000e-06	5.102214e-06	2.390687e-08	3.677177e+01	1.572888e+03
1.820000e-06	5.072489e-06	2.394440e-08	3.655754e+01	1.571504e+03
1.830000e-06	5.041103e-06	2.388812e-08	3.633134e+01	1.569913e+03
1.840000e-06	5.007766e-06	2.386424e-08	3.609108e+01	1.568032e+03
1.850000e-06	4.972774e-06	2.388982e-08	3.583889e+01	1.565835e+03
1.860000e-06	4.936062e-06	2.383095e-08	3.557431e+01	1.563358e+03
1.870000e-06	4.897310e-06	2.382448e-08	3.529502e+01	1.560686e+03
1.880000e-06	4.856838e-06	2.376051e-08	3.500334e+01	1.557925e+03
1.890000e-06	4.814614e-06	2.367765e-08	3.469903e+01	1.555163e+03
1.900000e-06	4.770681e-06	2.372794e-08	3.438241e+01	1.552444e+03
1.910000e-06	4.725183e-06	2.367712e-08	3.405450e+01	1.549750e+03
1.920000e-06	4.677826e-06	2.361083e-08	3.371319e+01	1.547008e+03
1.930000e-06	4.628786e-06	2.357471e-08	3.335977e+01	1.544107e+03
1.940000e-06	4.578012e-06	2.349428e-08	3.299384e+01	1.540939e+03
1.950000e-06	4.525167e-06	2.345635e-08	3.261298e+01	1.537425e+03
1.960000e-06	4.470409e-06	2.337807e-08	3.221834e+01	1.533546e+03
1.970000e-06	4.413940e-06	2.334770e-08	3.181137e+01	1.529344e+03
1.980000e-06	4.355897e-06	2.331460e-08	3.139305e+01	1.524916e+03
1.990000e-06	4.296403e-06	2.320472e-08	3.096427e+01	1.520378e+03
2.000000e-06	4.235483e-06	2.315123e-08	3.052522e+01	1.515831e+03
2.010000e-06	4.172917e-06	2.307092e-08	3.007431e+01	1.511330e+03
2.020000e-06	4.108618e-06	2.301938e-08	2.961090e+01	1.506865e+03
2.030000e-06	4.042887e-06	2.294995e-08	2.913717e+01	1.502364e+03
2.040000e-06	3.975851e-06	2.285296e-08	2.865405e+01	1.497714e+03
2.050000e-06	3.907486e-06	2.280918e-08	2.816134e+01	1.492794e+03
2.060000e-06	3.837633e-06	2.270915e-08	2.765791e+01	1.487514e+03
2.070000e-06	3.766210e-06	2.262119e-08	2.714316e+01	1.481843e+03
2.080000e-06	3.693465e-06	2.252667e-08	2.661888e+01	1.475813e+03
2.090000e-06	3.619475e-06	2.243883e-08	2.608564e+01	1.469514e+03
2.100000e-06	3.544189e-06	2.236494e-08	2.554305e+01	1.463060e+03
2.110000e-06	3.467513e-06	2.225324e-08	2.499044e+01	1.456554e+03
2.120000e-06	3.389269e-06	2.216283e-08	2.442654e+01	1.450051e+03
2.130000e-06	3.309610e-06	2.205617e-08	2.385243e+01	1.443538e+03
2.140000e-06	3.228841e-06	2.195315e-08	2.327033e+01	1.436935e+03
2.150000e-06	3.147024e-06	2.183821e-08	2.268067e+01	1.430119e+03
2.160000e-06	3.064136e-06	2.172269e-08	2.208330e+01	1.422957e+03
2.170000e-06	2.980267e-06	2.162218e-08	2.147885e+01	1.415345e+03
2.180000e-06	2.895378e-06	2.149906e-08	2.086705e+01	1.407245e+03
2.190000e-06	2.809228e-06	2.137053e-08	2.024617e+01	1.398689e+03
2.200000e-06	2.721828e-06	2.123359e-08	1.961628e+01	1.389770e+03
2.210000e-06	2.633513e-06	2.110699e-08	1.897979e+01	1.380611e+03
2.220000e-06	2.544355e-06	2.097381e-08	1.833722e+01	1.371319e+03
2.230000e-06	2.454285e-06	2.083068e-08	1.768809e+01	1.361952e+03
2.240000e-06	2.363438e-06	2.068688e-08	1.703335e+01	1.352488e+03
2.250000e-06	2.271862e-06	2.053546e-08	1.637336e+01	1.342828e+03
2.260000e-06	2.179565e-06	2.037514e-08	1.570817e+01	1.332823e+03
2.270000e-06	2.086500e-06	2.020417e-08	1.503745e+01	1.322314e+03
2.280000e-06	1.992500e-06	2.003761e-08	1.435999e+01	1.311176e+03
2.290000e-06	1.897580e-06	1.986802e-08	1.367590e+01	1.299360e+03
2.300000e-06	1.801911e-06	1.969042e-08	1.298642e+01	1.286901e+03
2.310000e-06	1.705701e-06	1.949875e-08	1.229303e+01	1.273908e+03
2.320000e-06	1.609061e-06	1.929701e-08	1.159654e+01	1.260524e+03
2.330000e-06	1.511950e-06	1.909171e-08	1.089665e+01	1.246873e+03
2.340000e-06	1.414285e-06	1.888045e-08	1.019278e+01	1.233010e+03
2.350000e-06	1.316109e-06	1.866367e-08	9.485227e+00	1.218890e+03
2.360000e-06	1.217525e-06	1.843675e-08	8.774729e+00	1.204371e+03
2.370000e-06	1.118620e-06	1.819947e-08	8.061922e+00	1.189237e+03
2.380000e-06	1.019449e-06	1.794876e-08	7.347191e+00	1.173259e+03
2.390000e-06	9.199875e-07	1.768436e-08	6.630371e+00	1.156251e+03
2.400000e-06	8.202422e-07	1.741039e-08	5.911504e+00	1.138121e+03
2.410000e-06	7.202643e-07	1.712914e-08	5.190961e+00	1.118888e+03
2.420000e-06	6.200309e-07	1.683486e-08	4.468576e+00	1.098666e+03
2.430000e-06	5.195932e-07	1.652250e-08	3.744719e+00	1.077610e+03
2.440000e-06	4.190317e-07	1.619300e-08	3.019971e+00	1.055840e+03
2.450000e-06	3.183959e-07	1.584732e-08	2.294687e+00	1.033371e+03
2.460000e-06	2.176442e-07	1.548264e-08	1.568567e+00	1.010067e+03
2.470000e-06	1.166954e-07	1.509767e-08	8.410263e-01	9.856350e+02
2.480000e-06	1.562153e-08	1.469254e-08	1.125847e-01	9.596703e+02
2.490000e-06	-8.546520e-08	1.426276e-08	-6.159496e-01	9.317345e+02
2.500000e-06	-1.864647e-07	1.380272e-08	-1.343856e+00	9.014503e+02
2.510000e-06	-2.873482e-07	1.330643e-08	-2.070925e+00	8.685768e+02
2.520000e-06	-3.880936e-07	1.277364e-08	-2.796999e+00	8.330366e+02
2.530000e-06	-4.887497e-07	1.220562e-08	-3.522430e+00	7.948779e+02
2.540000e-06	-5.892924e-07	1.159683e-08	-4.247043e+00	7.541683e+02
2.550000e-06	-6.896402e-07	1.093923e-08	-4.970252e+00	7.108429e+02
2.560000e-06	-7.898129e-07	1.022492e-08	-5.692199e+00	6.645445e+02
2.570000e-06	-8.897416e-07	9.443879e-09	-6.412387e+00	6.145039e+02
2.580000e-06	-9.893562e-07	8.583053e-09	-7.130312e+00	5.595062e+02
2.590000e-06	-1.088622e-06	7.629217e-09	-7.845724e+00	4.979726e+02
2.600000e-06	-1.187538e-06	6.566717e-09	-8.558612e+00	4.281636e+02
2.610000e-06	-1.286055e-06	5.372438e-09	-9.268630e+00	3.484782e+02
2.620000e-06	-1.384133e-06	4.022877e-09	-9.975477e+00	2.577984e+02
2.630000e-06	-1.481695e-06	2.502005e-09	-1.067861e+01	1.558104e+02
2.640000e-06	-1.578697e-06	8.074615e-10	-1.137770e+01	4.323271e+01
2.650000e-06	-1.675245e-06	-1.043142e-09	-1.207353e+01	-7.810556e+01
2.660000e-06	-1.771316e-06	-3.009654e-09	-1.276592e+01	-2.053647e+02
2.670000e-06	-1.866837e-06	-5.025792e-09	-1.345433e+01	-3.349654e+02
2.680000e-06	-1.961641e-06	-7.013066e-09	-1.413759e+01	-4.629894e+02
2.690000e-06	-2.055556e-06	-8.901282e-09	-1.481444e+01	-5.856388e+02
2.700000e-06	-2.148476e-06	-1.063931e-08	-1.548412e+01	-6.996746e+02
2.710000e-06	-2.240523e-06	-1.219781e-08	-1.614750e+01	-8.027550e+02
2.720000e-06	-2.331895e-06	-1.356938e-08	-1.680602e+01	-8.936209e+02
2.730000e-06	-2.422468e-06	-1.476204e-08	-1.745878e+01	-9.721030e+02
2.740000e-06	-2.512107e-06	-1.579111e-08	-1.810481e+01	-1.038965e+03
2.750000e-06	-2.600893e-06	-1.667638e-08	-1.874470e+01	-1.095625e+03
2.760000e-06	-2.688890e-06	-1.743940e-08	-1.937889e+01	-1.143827e+03
2.770000e-06	-2.776031e-06	-1.810173e-08	-2.000692e+01	-1.185317e+03
2.780000e-06	-2.862126e-06	-1.867668e-08	-2.062741e+01	-1.221603e+03
2.790000e-06	-2.947012e-06	-1.917422e-08	-2.123918e+01	-1.253808e+03
2.800000e-06	-3.030855e-06	-1.960758e-08	-2.184344e+01	-1.282654e+03
2.810000e-06	-3.113749e-06	-1.999002e-08	-2.244086e+01	-1.308529e+03
2.820000e-06	-3.195586e-06	-2.032879e-08	-2.303066e+01	-1.331620e+03
2.830000e-06	-3.276330e-06	-2.063100e-08	-2.361258e+01	-1.352056e+03
2.840000e-06	-3.356013e-06	-2.090530e-08	-2.418686e+01	-1.370015e+03
2.850000e-06	-3.434432e-06	-2.115429e-08	-2.475202e+01	-1.385792e+03
2.860000e-06	-3.511316e-06	-2.138141e-08	-2.530613e+01	-1.399783e+03
2.870000e-06	-3.586747e-06	-2.158985e-08	-2.584976e+01	-1.412439e+03
2.880000e-06	-3.660822e-06	-2.178021e-08	-2.638363e+01	-1.424181e+03
2.890000e-06	-3.733602e-06	-2.195494e-08	-2.690816e+01	-1.435322e+03
2.900000e-06	-3.805099e-06	-2.211607e-08	-2.742344e+01	-1.446028e+03
2.910000e-06	-3.875113e-06	-2.226624e-08	-2.792803e+01	-1.456303e+03
2.920000e-06	-3.943612e-06	-2.240719e-08	-2.842170e+01	-1.466037e+03
2.930000e-06	-4.010736e-06	-2.253789e-08	-2.890546e+01	-1.475069e+03
2.940000e-06	-4.076494e-06	-2.265787e-08	-2.937939e+01	-1.483264e+03
