# Temperatura_=_80.86
# Concentracion g/m^3_=_41000.0
# C_Vs_to_Am_M_A/Vsm_=_65563218390.804596
# pendiente_HvsI_1/m_=_3716.3
# ordenada_HvsI_A/m_=_1297.0
# frecuencia_Hz_=_301607.997005337

Tiempo_(s)	Campo_(V.s)	Magnetizacion_(V.s)	Campo_(kA/m)	Magnetizacion_(A/m)
0.000000e+00	-5.331596e-06	-2.388739e-08	-3.834512e+01	-1.562086e+03
1.000000e-08	-5.329303e-06	-2.388114e-08	-3.832863e+01	-1.561915e+03
2.000000e-08	-5.325212e-06	-2.387745e-08	-3.829920e+01	-1.561843e+03
3.000000e-08	-5.319522e-06	-2.387152e-08	-3.825828e+01	-1.561762e+03
4.000000e-08	-5.312274e-06	-2.386134e-08	-3.820615e+01	-1.561528e+03
5.000000e-08	-5.303257e-06	-2.384838e-08	-3.814131e+01	-1.561008e+03
6.000000e-08	-5.292163e-06	-2.383380e-08	-3.806151e+01	-1.560120e+03
7.000000e-08	-5.279134e-06	-2.382610e-08	-3.796781e+01	-1.558858e+03
8.000000e-08	-5.264023e-06	-2.380584e-08	-3.785913e+01	-1.557297e+03
9.000000e-08	-5.246615e-06	-2.377643e-08	-3.773393e+01	-1.555567e+03
1.000000e-07	-5.227151e-06	-2.377399e-08	-3.759394e+01	-1.553818e+03
1.100000e-07	-5.205847e-06	-2.374578e-08	-3.744073e+01	-1.552172e+03
1.200000e-07	-5.182883e-06	-2.369524e-08	-3.727557e+01	-1.550692e+03
1.300000e-07	-5.158492e-06	-2.369425e-08	-3.710015e+01	-1.549359e+03
1.400000e-07	-5.132514e-06	-2.364303e-08	-3.691331e+01	-1.548086e+03
1.500000e-07	-5.104785e-06	-2.360519e-08	-3.671388e+01	-1.546744e+03
1.600000e-07	-5.075557e-06	-2.362443e-08	-3.650367e+01	-1.545198e+03
1.700000e-07	-5.044879e-06	-2.353714e-08	-3.628303e+01	-1.543354e+03
1.800000e-07	-5.012263e-06	-2.350690e-08	-3.604846e+01	-1.541181e+03
1.900000e-07	-4.977620e-06	-2.350644e-08	-3.579931e+01	-1.538716e+03
2.000000e-07	-4.941461e-06	-2.340932e-08	-3.553925e+01	-1.536049e+03
2.100000e-07	-4.903668e-06	-2.339670e-08	-3.526744e+01	-1.533292e+03
2.200000e-07	-4.864092e-06	-2.336615e-08	-3.498280e+01	-1.530535e+03
2.300000e-07	-4.822633e-06	-2.330082e-08	-3.468463e+01	-1.527815e+03
2.400000e-07	-4.779165e-06	-2.329003e-08	-3.437201e+01	-1.525104e+03
2.500000e-07	-4.733995e-06	-2.319626e-08	-3.404714e+01	-1.522312e+03
2.600000e-07	-4.687056e-06	-2.311372e-08	-3.370955e+01	-1.519317e+03
2.700000e-07	-4.638095e-06	-2.309133e-08	-3.335742e+01	-1.516004e+03
2.800000e-07	-4.587061e-06	-2.303883e-08	-3.299038e+01	-1.512299e+03
2.900000e-07	-4.534091e-06	-2.297826e-08	-3.260942e+01	-1.508196e+03
3.000000e-07	-4.479460e-06	-2.291619e-08	-3.221651e+01	-1.503760e+03
3.100000e-07	-4.423238e-06	-2.285388e-08	-3.181216e+01	-1.499109e+03
3.200000e-07	-4.365245e-06	-2.277215e-08	-3.139507e+01	-1.494377e+03
3.300000e-07	-4.305582e-06	-2.269470e-08	-3.096597e+01	-1.489672e+03
3.400000e-07	-4.244443e-06	-2.263706e-08	-3.052626e+01	-1.485041e+03
3.500000e-07	-4.181895e-06	-2.256153e-08	-3.007641e+01	-1.480458e+03
3.600000e-07	-4.118010e-06	-2.249277e-08	-2.961694e+01	-1.475826e+03
3.700000e-07	-4.052563e-06	-2.240185e-08	-2.914625e+01	-1.471009e+03
3.800000e-07	-3.985443e-06	-2.230985e-08	-2.866352e+01	-1.465875e+03
3.900000e-07	-3.916868e-06	-2.224131e-08	-2.817032e+01	-1.460333e+03
4.000000e-07	-3.847048e-06	-2.214858e-08	-2.766817e+01	-1.454368e+03
4.100000e-07	-3.776015e-06	-2.205598e-08	-2.715730e+01	-1.448042e+03
4.200000e-07	-3.703758e-06	-2.196319e-08	-2.663763e+01	-1.441474e+03
4.300000e-07	-3.630031e-06	-2.187084e-08	-2.610737e+01	-1.434806e+03
4.400000e-07	-3.554611e-06	-2.176913e-08	-2.556495e+01	-1.428153e+03
4.500000e-07	-3.477762e-06	-2.166053e-08	-2.501224e+01	-1.421569e+03
4.600000e-07	-3.399578e-06	-2.155427e-08	-2.444994e+01	-1.415021e+03
4.700000e-07	-3.320008e-06	-2.144594e-08	-2.387767e+01	-1.408401e+03
4.800000e-07	-3.239137e-06	-2.134018e-08	-2.329605e+01	-1.401556e+03
4.900000e-07	-3.157154e-06	-2.122514e-08	-2.270642e+01	-1.394331e+03
5.000000e-07	-3.074149e-06	-2.110816e-08	-2.210944e+01	-1.386617e+03
5.100000e-07	-2.990195e-06	-2.098600e-08	-2.150564e+01	-1.378385e+03
5.200000e-07	-2.905406e-06	-2.085292e-08	-2.089583e+01	-1.369695e+03
5.300000e-07	-2.819705e-06	-2.071754e-08	-2.027946e+01	-1.360673e+03
5.400000e-07	-2.733054e-06	-2.058459e-08	-1.965627e+01	-1.351472e+03
5.500000e-07	-2.645485e-06	-2.044713e-08	-1.902646e+01	-1.342218e+03
5.600000e-07	-2.556982e-06	-2.030059e-08	-1.838995e+01	-1.332968e+03
5.700000e-07	-2.467367e-06	-2.014855e-08	-1.774543e+01	-1.323680e+03
5.800000e-07	-2.376572e-06	-1.999494e-08	-1.709243e+01	-1.314225e+03
5.900000e-07	-2.284877e-06	-1.983997e-08	-1.643295e+01	-1.304420e+03
6.000000e-07	-2.192509e-06	-1.967844e-08	-1.576864e+01	-1.294078e+03
6.100000e-07	-2.099439e-06	-1.950815e-08	-1.509927e+01	-1.283068e+03
6.200000e-07	-2.005578e-06	-1.933128e-08	-1.442423e+01	-1.271351e+03
6.300000e-07	-1.910932e-06	-1.914724e-08	-1.374352e+01	-1.258993e+03
6.400000e-07	-1.815673e-06	-1.895556e-08	-1.305842e+01	-1.246142e+03
6.500000e-07	-1.719889e-06	-1.876064e-08	-1.236953e+01	-1.232977e+03
6.600000e-07	-1.623458e-06	-1.856142e-08	-1.167600e+01	-1.219643e+03
6.700000e-07	-1.526318e-06	-1.835662e-08	-1.097736e+01	-1.206195e+03
6.800000e-07	-1.428510e-06	-1.814285e-08	-1.027392e+01	-1.192565e+03
6.900000e-07	-1.330075e-06	-1.791700e-08	-9.565973e+00	-1.178570e+03
7.000000e-07	-1.231137e-06	-1.768093e-08	-8.854401e+00	-1.163954e+03
7.100000e-07	-1.131788e-06	-1.743617e-08	-8.139880e+00	-1.148455e+03
7.200000e-07	-1.032093e-06	-1.718419e-08	-7.422864e+00	-1.131880e+03
7.300000e-07	-9.321717e-07	-1.692260e-08	-6.704228e+00	-1.114154e+03
7.400000e-07	-8.320391e-07	-1.664933e-08	-5.984069e+00	-1.095342e+03
7.500000e-07	-7.316591e-07	-1.636123e-08	-5.262130e+00	-1.075611e+03
7.600000e-07	-6.310424e-07	-1.605657e-08	-4.538490e+00	-1.055164e+03
7.700000e-07	-5.302156e-07	-1.573637e-08	-3.813338e+00	-1.034147e+03
7.800000e-07	-4.291634e-07	-1.540006e-08	-3.086565e+00	-1.012564e+03
7.900000e-07	-3.279753e-07	-1.504844e-08	-2.358816e+00	-9.902306e+02
8.000000e-07	-2.266683e-07	-1.467676e-08	-1.630210e+00	-9.667787e+02
8.100000e-07	-1.251890e-07	-1.427926e-08	-9.003658e-01	-9.417170e+02
8.200000e-07	-2.363505e-08	-1.385604e-08	-1.699845e-01	-9.145354e+02
8.300000e-07	7.792819e-08	-1.340504e-08	5.604636e-01	-8.848180e+02
8.400000e-07	1.794878e-07	-1.292188e-08	1.290886e+00	-8.523284e+02
8.500000e-07	2.809725e-07	-1.240321e-08	2.020769e+00	-8.170328e+02
8.600000e-07	3.823155e-07	-1.184411e-08	2.749633e+00	-7.790407e+02
8.700000e-07	4.835473e-07	-1.124012e-08	3.477698e+00	-7.384676e+02
8.800000e-07	5.846436e-07	-1.058280e-08	4.204787e+00	-6.952475e+02
8.900000e-07	6.855357e-07	-9.860914e-09	4.930409e+00	-6.489451e+02
9.000000e-07	7.861772e-07	-9.063614e-09	5.654227e+00	-5.986251e+02
9.100000e-07	8.865882e-07	-8.180562e-09	6.376389e+00	-5.428316e+02
9.200000e-07	9.867787e-07	-7.197026e-09	7.096965e+00	-4.797081e+02
9.300000e-07	1.086711e-06	-6.089315e-09	7.815679e+00	-4.072593e+02
9.400000e-07	1.186355e-06	-4.832101e-09	8.532328e+00	-3.237175e+02
9.500000e-07	1.285606e-06	-3.402352e-09	9.246145e+00	-2.279489e+02
9.600000e-07	1.384336e-06	-1.782404e-09	9.956214e+00	-1.198156e+02
9.700000e-07	1.482418e-06	2.623469e-11	1.066163e+01	-4.111180e-01
9.800000e-07	1.579725e-06	1.995812e-09	1.136146e+01	1.278909e+02
9.900000e-07	1.676308e-06	4.068731e-09	1.205609e+01	2.616024e+02
1.000000e-06	1.772266e-06	6.164173e-09	1.274623e+01	3.964823e+02
1.010000e-06	1.867566e-06	8.193646e-09	1.343163e+01	5.280356e+02
1.020000e-06	1.962212e-06	1.007825e-08	1.411233e+01	6.520608e+02
1.030000e-06	2.056153e-06	1.176758e-08	1.478796e+01	7.651485e+02
1.040000e-06	2.149353e-06	1.323981e-08	1.545826e+01	8.650418e+02
1.050000e-06	2.241913e-06	1.449883e-08	1.612395e+01	9.507993e+02
1.060000e-06	2.333866e-06	1.556597e-08	1.678529e+01	1.022744e+03
1.070000e-06	2.425100e-06	1.646635e-08	1.744144e+01	1.082222e+03
1.080000e-06	2.515358e-06	1.722559e-08	1.809058e+01	1.131237e+03
1.090000e-06	2.604472e-06	1.786486e-08	1.873150e+01	1.172032e+03
1.100000e-06	2.692521e-06	1.840903e-08	1.936475e+01	1.206720e+03
1.110000e-06	2.779650e-06	1.887550e-08	1.999139e+01	1.237008e+03
1.120000e-06	2.865917e-06	1.928135e-08	2.061183e+01	1.264068e+03
1.130000e-06	2.951235e-06	1.964194e-08	2.122544e+01	1.288550e+03
1.140000e-06	3.035608e-06	1.996127e-08	2.183225e+01	1.310702e+03
1.150000e-06	3.119065e-06	2.024390e-08	2.243248e+01	1.330554e+03
1.160000e-06	3.201403e-06	2.049870e-08	2.302466e+01	1.348100e+03
1.170000e-06	3.282495e-06	2.072975e-08	2.360788e+01	1.363439e+03
1.180000e-06	3.362392e-06	2.093840e-08	2.418250e+01	1.376830e+03
1.190000e-06	3.441146e-06	2.112818e-08	2.474890e+01	1.388684e+03
1.200000e-06	3.518666e-06	2.130421e-08	2.530643e+01	1.399479e+03
1.210000e-06	3.594924e-06	2.147077e-08	2.585488e+01	1.409658e+03
1.220000e-06	3.669876e-06	2.162784e-08	2.639394e+01	1.419537e+03
1.230000e-06	3.743276e-06	2.177585e-08	2.692184e+01	1.429247e+03
1.240000e-06	3.815100e-06	2.191201e-08	2.743840e+01	1.438738e+03
1.250000e-06	3.885522e-06	2.203769e-08	2.794488e+01	1.447828e+03
1.260000e-06	3.954613e-06	2.215426e-08	2.844179e+01	1.456293e+03
1.270000e-06	4.022391e-06	2.226310e-08	2.892924e+01	1.463952e+03
1.280000e-06	4.088709e-06	2.236560e-08	2.940621e+01	1.470739e+03
1.290000e-06	4.153409e-06	2.246231e-08	2.987154e+01	1.476727e+03
1.300000e-06	4.216577e-06	2.255336e-08	3.032584e+01	1.482112e+03
1.310000e-06	4.278287e-06	2.263933e-08	3.076966e+01	1.487157e+03
1.320000e-06	4.338659e-06	2.272121e-08	3.120387e+01	1.492114e+03
1.330000e-06	4.397642e-06	2.280136e-08	3.162807e+01	1.497158e+03
1.340000e-06	4.454894e-06	2.288007e-08	3.203983e+01	1.502344e+03
1.350000e-06	4.510359e-06	2.295471e-08	3.243874e+01	1.507602e+03
1.360000e-06	4.564200e-06	2.302408e-08	3.282596e+01	1.512769e+03
1.370000e-06	4.616344e-06	2.308876e-08	3.320099e+01	1.517650e+03
1.380000e-06	4.666530e-06	2.314964e-08	3.356193e+01	1.522080e+03
1.390000e-06	4.714708e-06	2.320669e-08	3.390843e+01	1.525980e+03
1.400000e-06	4.761159e-06	2.326110e-08	3.424250e+01	1.529374e+03
1.410000e-06	4.806078e-06	2.331612e-08	3.456557e+01	1.532380e+03
1.420000e-06	4.849427e-06	2.336827e-08	3.487734e+01	1.535174e+03
1.430000e-06	4.891017e-06	2.341494e-08	3.517645e+01	1.537926e+03
1.440000e-06	4.930822e-06	2.345957e-08	3.546273e+01	1.540754e+03
1.450000e-06	4.968965e-06	2.350278e-08	3.573706e+01	1.543687e+03
1.460000e-06	5.005489e-06	2.354254e-08	3.599974e+01	1.546659e+03
1.470000e-06	5.040264e-06	2.357682e-08	3.624985e+01	1.549537e+03
1.480000e-06	5.073083e-06	2.360630e-08	3.648588e+01	1.552163e+03
1.490000e-06	5.104117e-06	2.363304e-08	3.670908e+01	1.554409e+03
1.500000e-06	5.133533e-06	2.365888e-08	3.692064e+01	1.556217e+03
1.510000e-06	5.161282e-06	2.368412e-08	3.712021e+01	1.557618e+03
1.520000e-06	5.187096e-06	2.370894e-08	3.730587e+01	1.558721e+03
1.530000e-06	5.210833e-06	2.373246e-08	3.747659e+01	1.559682e+03
1.540000e-06	5.232729e-06	2.375316e-08	3.763406e+01	1.560651e+03
1.550000e-06	5.252952e-06	2.377164e-08	3.777951e+01	1.561733e+03
1.560000e-06	5.271412e-06	2.378790e-08	3.791227e+01	1.562948e+03
1.570000e-06	5.287877e-06	2.380270e-08	3.803069e+01	1.564236e+03
1.580000e-06	5.302316e-06	2.381573e-08	3.813454e+01	1.565472e+03
1.590000e-06	5.314760e-06	2.382514e-08	3.822403e+01	1.566509e+03
1.600000e-06	5.325061e-06	2.383214e-08	3.829812e+01	1.567223e+03
1.610000e-06	5.333234e-06	2.383801e-08	3.835690e+01	1.567555e+03
1.620000e-06	5.339535e-06	2.384255e-08	3.840222e+01	1.567526e+03
1.630000e-06	5.344096e-06	2.384719e-08	3.843502e+01	1.567234e+03
1.640000e-06	5.346833e-06	2.385035e-08	3.845471e+01	1.566818e+03
1.650000e-06	5.347569e-06	2.385094e-08	3.846000e+01	1.566421e+03
1.660000e-06	5.346409e-06	2.385111e-08	3.845165e+01	1.566137e+03
1.670000e-06	5.343581e-06	2.384657e-08	3.843132e+01	1.565993e+03
1.680000e-06	5.339114e-06	2.384060e-08	3.839919e+01	1.565929e+03
1.690000e-06	5.332833e-06	2.383375e-08	3.835401e+01	1.565827e+03
1.700000e-06	5.324730e-06	2.382345e-08	3.829574e+01	1.565541e+03
1.710000e-06	5.315052e-06	2.381066e-08	3.822614e+01	1.564946e+03
1.720000e-06	5.303800e-06	2.378944e-08	3.814521e+01	1.563974e+03
1.730000e-06	5.290680e-06	2.377026e-08	3.805085e+01	1.562639e+03
1.740000e-06	5.275460e-06	2.376822e-08	3.794139e+01	1.561029e+03
1.750000e-06	5.257953e-06	2.372254e-08	3.781548e+01	1.559282e+03
1.760000e-06	5.237914e-06	2.370615e-08	3.767135e+01	1.557545e+03
1.770000e-06	5.215454e-06	2.370498e-08	3.750982e+01	1.555932e+03
1.780000e-06	5.191421e-06	2.365911e-08	3.733697e+01	1.554486e+03
1.790000e-06	5.166592e-06	2.368512e-08	3.715840e+01	1.553175e+03
1.800000e-06	5.140624e-06	2.361069e-08	3.697164e+01	1.551899e+03
1.810000e-06	5.112678e-06	2.354293e-08	3.677065e+01	1.550522e+03
1.820000e-06	5.082778e-06	2.363026e-08	3.655561e+01	1.548918e+03
1.830000e-06	5.051129e-06	2.355164e-08	3.632799e+01	1.547003e+03
1.840000e-06	5.017612e-06	2.349473e-08	3.608693e+01	1.544761e+03
1.850000e-06	4.982462e-06	2.356097e-08	3.583413e+01	1.542243e+03
1.860000e-06	4.945581e-06	2.346739e-08	3.556888e+01	1.539547e+03
1.870000e-06	4.906695e-06	2.345695e-08	3.528921e+01	1.536783e+03
1.880000e-06	4.866137e-06	2.340702e-08	3.499751e+01	1.534032e+03
1.890000e-06	4.823899e-06	2.328931e-08	3.469373e+01	1.531318e+03
1.900000e-06	4.779914e-06	2.338167e-08	3.437739e+01	1.528598e+03
1.910000e-06	4.734266e-06	2.331129e-08	3.404909e+01	1.525772e+03
1.920000e-06	4.686764e-06	2.320042e-08	3.370745e+01	1.522718e+03
1.930000e-06	4.637558e-06	2.320042e-08	3.335356e+01	1.519324e+03
1.940000e-06	4.586607e-06	2.311314e-08	3.298712e+01	1.515531e+03
1.950000e-06	4.533646e-06	2.306858e-08	3.260622e+01	1.511348e+03
1.960000e-06	4.478771e-06	2.297993e-08	3.221156e+01	1.506854e+03
1.970000e-06	4.422161e-06	2.293947e-08	3.180442e+01	1.502174e+03
1.980000e-06	4.364014e-06	2.290879e-08	3.138622e+01	1.497439e+03
1.990000e-06	4.304432e-06	2.277419e-08	3.095770e+01	1.492748e+03
2.000000e-06	4.243416e-06	2.272600e-08	3.051887e+01	1.488132e+03
2.010000e-06	4.180774e-06	2.263984e-08	3.006835e+01	1.483548e+03
2.020000e-06	4.116351e-06	2.258799e-08	2.960501e+01	1.478887e+03
2.030000e-06	4.050473e-06	2.251319e-08	2.913121e+01	1.474012e+03
2.040000e-06	3.983303e-06	2.238605e-08	2.864812e+01	1.468794e+03
2.050000e-06	3.914791e-06	2.235055e-08	2.815538e+01	1.463160e+03
2.060000e-06	3.844779e-06	2.224222e-08	2.765185e+01	1.457110e+03
2.070000e-06	3.773241e-06	2.214431e-08	2.713735e+01	1.450719e+03
2.080000e-06	3.700425e-06	2.204753e-08	2.661365e+01	1.444117e+03
2.090000e-06	3.626307e-06	2.195251e-08	2.608059e+01	1.437444e+03
2.100000e-06	3.550806e-06	2.187811e-08	2.553759e+01	1.430803e+03
2.110000e-06	3.473876e-06	2.175261e-08	2.498430e+01	1.424231e+03
2.120000e-06	3.395403e-06	2.165653e-08	2.441992e+01	1.417678e+03
2.130000e-06	3.315612e-06	2.154367e-08	2.384606e+01	1.411024e+03
2.140000e-06	3.234740e-06	2.143604e-08	2.326442e+01	1.404109e+03
2.150000e-06	3.152782e-06	2.131478e-08	2.267498e+01	1.396785e+03
2.160000e-06	3.069785e-06	2.118969e-08	2.207805e+01	1.388958e+03
2.170000e-06	2.985805e-06	2.108476e-08	2.147407e+01	1.380620e+03
2.180000e-06	2.900734e-06	2.095408e-08	2.086223e+01	1.371845e+03
2.190000e-06	2.814376e-06	2.082423e-08	2.024114e+01	1.362771e+03
2.200000e-06	2.726786e-06	2.068573e-08	1.961119e+01	1.353550e+03
2.210000e-06	2.638237e-06	2.055551e-08	1.897434e+01	1.344294e+03
2.220000e-06	2.548843e-06	2.041630e-08	1.833141e+01	1.335042e+03
2.230000e-06	2.458594e-06	2.026596e-08	1.768234e+01	1.325731e+03
2.240000e-06	2.367590e-06	2.011276e-08	1.702783e+01	1.316217e+03
2.250000e-06	2.275863e-06	1.995337e-08	1.636813e+01	1.306311e+03
2.260000e-06	2.183395e-06	1.979250e-08	1.570309e+01	1.295833e+03
2.270000e-06	2.090080e-06	1.961985e-08	1.503196e+01	1.284671e+03
2.280000e-06	1.995750e-06	1.944995e-08	1.435354e+01	1.272806e+03
2.290000e-06	1.900553e-06	1.927606e-08	1.366887e+01	1.260328e+03
2.300000e-06	1.804686e-06	1.909268e-08	1.297939e+01	1.247394e+03
2.310000e-06	1.708289e-06	1.889473e-08	1.228611e+01	1.234182e+03
2.320000e-06	1.611453e-06	1.868839e-08	1.158965e+01	1.220822e+03
2.330000e-06	1.514125e-06	1.847933e-08	1.088967e+01	1.207344e+03
2.340000e-06	1.416272e-06	1.826341e-08	1.018590e+01	1.193654e+03
2.350000e-06	1.317903e-06	1.804098e-08	9.478426e+00	1.179548e+03
2.360000e-06	1.219080e-06	1.780727e-08	8.767689e+00	1.164763e+03
2.370000e-06	1.119936e-06	1.756166e-08	8.054639e+00	1.149046e+03
2.380000e-06	1.020547e-06	1.730457e-08	7.339828e+00	1.132224e+03
2.390000e-06	9.208966e-07	1.703688e-08	6.623137e+00	1.114255e+03
2.400000e-06	8.209810e-07	1.675937e-08	5.904539e+00	1.095229e+03
2.410000e-06	7.207629e-07	1.647257e-08	5.183764e+00	1.075327e+03
2.420000e-06	6.202935e-07	1.617084e-08	4.461184e+00	1.054749e+03
2.430000e-06	5.196123e-07	1.584996e-08	3.737079e+00	1.033615e+03
2.440000e-06	4.187254e-07	1.550746e-08	3.011495e+00	1.011893e+03
2.450000e-06	3.177031e-07	1.514706e-08	2.284938e+00	9.893558e+02
2.460000e-06	2.165725e-07	1.477058e-08	1.557601e+00	9.656020e+02
2.470000e-06	1.152841e-07	1.437284e-08	8.291290e-01	9.401267e+02
2.480000e-06	1.391788e-08	1.395044e-08	1.000981e-01	9.124308e+02
2.490000e-06	-8.741694e-08	1.349687e-08	-6.287072e-01	8.821315e+02
2.500000e-06	-1.886836e-07	1.300642e-08	-1.357023e+00	8.490363e+02
2.510000e-06	-2.898455e-07	1.247560e-08	-2.084584e+00	8.131502e+02
2.520000e-06	-3.909308e-07	1.190103e-08	-2.811595e+00	7.745977e+02
2.530000e-06	-4.919633e-07	1.128125e-08	-3.538226e+00	7.334721e+02
2.540000e-06	-5.928373e-07	1.061121e-08	-4.263717e+00	6.896431e+02
2.550000e-06	-6.934832e-07	9.878759e-09	-4.987567e+00	6.425761e+02
2.560000e-06	-7.938987e-07	9.071770e-09	-5.709761e+00	5.912215e+02
2.570000e-06	-8.940023e-07	8.176804e-09	-6.429712e+00	5.340224e+02
2.580000e-06	-9.937788e-07	7.175242e-09	-7.147309e+00	4.690662e+02
2.590000e-06	-1.093178e-06	6.043499e-09	-7.862194e+00	3.943729e+02
2.600000e-06	-1.192230e-06	4.758746e-09	-8.574580e+00	3.082768e+02
2.610000e-06	-1.290974e-06	3.300862e-09	-9.284755e+00	2.098300e+02
2.620000e-06	-1.389272e-06	1.654248e-09	-9.991716e+00	9.914431e+01
2.630000e-06	-1.487018e-06	-1.798951e-10	-1.069471e+01	-2.240926e+01
2.640000e-06	-1.584225e-06	-2.172682e-09	-1.139383e+01	-1.521971e+02
2.650000e-06	-1.680914e-06	-4.262133e-09	-1.208922e+01	-2.865337e+02
2.660000e-06	-1.777125e-06	-6.364655e-09	-1.278118e+01	-4.210782e+02
2.670000e-06	-1.872838e-06	-8.389763e-09	-1.346955e+01	-5.513526e+02
2.680000e-06	-1.967826e-06	-1.026100e-08	-1.415271e+01	-6.732868e+02
2.690000e-06	-2.061912e-06	-1.193329e-08	-1.482938e+01	-7.836941e+02
2.700000e-06	-2.155093e-06	-1.338979e-08	-1.549954e+01	-8.805931e+02
2.710000e-06	-2.247406e-06	-1.463317e-08	-1.616346e+01	-9.633245e+02
2.720000e-06	-2.338892e-06	-1.568463e-08	-1.682144e+01	-1.032457e+03
2.730000e-06	-2.429583e-06	-1.657354e-08	-1.747369e+01	-1.089510e+03
2.740000e-06	-2.519431e-06	-1.732525e-08	-1.811988e+01	-1.136575e+03
2.750000e-06	-2.608413e-06	-1.796214e-08	-1.875984e+01	-1.175895e+03
2.760000e-06	-2.696569e-06	-1.850395e-08	-1.939387e+01	-1.209514e+03
2.770000e-06	-2.783849e-06	-1.896862e-08	-2.002159e+01	-1.239032e+03
2.780000e-06	-2.870070e-06	-1.937078e-08	-2.064169e+01	-1.265501e+03
2.790000e-06	-2.955137e-06	-1.972337e-08	-2.125350e+01	-1.289474e+03
2.800000e-06	-3.039113e-06	-2.003646e-08	-2.185746e+01	-1.311135e+03
2.810000e-06	-3.122102e-06	-2.031779e-08	-2.245432e+01	-1.330493e+03
2.820000e-06	-3.204081e-06	-2.057161e-08	-2.304392e+01	-1.347553e+03
2.830000e-06	-3.285024e-06	-2.080199e-08	-2.362607e+01	-1.362447e+03
2.840000e-06	-3.364893e-06	-2.101351e-08	-2.420049e+01	-1.375472e+03
2.850000e-06	-3.443380e-06	-2.120640e-08	-2.476497e+01	-1.387059e+03
2.860000e-06	-3.520329e-06	-2.138275e-08	-2.531839e+01	-1.397688e+03
2.870000e-06	-3.595884e-06	-2.154542e-08	-2.586179e+01	-1.407783e+03
2.880000e-06	-3.670092e-06	-2.169723e-08	-2.639550e+01	-1.417622e+03
2.890000e-06	-3.743000e-06	-2.184082e-08	-2.691985e+01	-1.427296e+03
2.900000e-06	-3.814667e-06	-2.197513e-08	-2.743528e+01	-1.436719e+03
2.910000e-06	-3.884884e-06	-2.210132e-08	-2.794029e+01	-1.445695e+03
2.920000e-06	-3.953523e-06	-2.221897e-08	-2.843395e+01	-1.454000e+03
2.930000e-06	-4.020748e-06	-2.232725e-08	-2.891743e+01	-1.461474e+03
2.940000e-06	-4.086631e-06	-2.242904e-08	-2.939127e+01	-1.468079e+03
