# Temperatura_=_82.04
# Concentracion g/m^3_=_41000.0
# C_Vs_to_Am_M_A/Vsm_=_65563218390.804596
# pendiente_HvsI_1/m_=_3716.3
# ordenada_HvsI_A/m_=_1297.0
# frecuencia_Hz_=_301606.6710342834

Tiempo_(s)	Campo_(V.s)	Magnetizacion_(V.s)	Campo_(kA/m)	Magnetizacion_(A/m)
0.000000e+00	-5.299564e-06	-2.399727e-08	-3.834676e+01	-1.569074e+03
1.000000e-08	-5.297119e-06	-2.398839e-08	-3.832907e+01	-1.568880e+03
2.000000e-08	-5.292872e-06	-2.398348e-08	-3.829834e+01	-1.568788e+03
3.000000e-08	-5.286998e-06	-2.397624e-08	-3.825584e+01	-1.568700e+03
4.000000e-08	-5.279585e-06	-2.396521e-08	-3.820220e+01	-1.568478e+03
5.000000e-08	-5.270477e-06	-2.395466e-08	-3.813629e+01	-1.567988e+03
6.000000e-08	-5.259361e-06	-2.394307e-08	-3.805586e+01	-1.567143e+03
7.000000e-08	-5.246284e-06	-2.393489e-08	-3.796124e+01	-1.565929e+03
8.000000e-08	-5.231167e-06	-2.392332e-08	-3.785185e+01	-1.564412e+03
9.000000e-08	-5.213757e-06	-2.388345e-08	-3.772588e+01	-1.562716e+03
1.000000e-07	-5.194254e-06	-2.387012e-08	-3.758475e+01	-1.560987e+03
1.100000e-07	-5.172915e-06	-2.385200e-08	-3.743035e+01	-1.559350e+03
1.200000e-07	-5.149939e-06	-2.378493e-08	-3.726410e+01	-1.557872e+03
1.300000e-07	-5.125583e-06	-2.379392e-08	-3.708787e+01	-1.556540e+03
1.400000e-07	-5.099648e-06	-2.377619e-08	-3.690020e+01	-1.555269e+03
1.500000e-07	-5.071926e-06	-2.367896e-08	-3.669961e+01	-1.553927e+03
1.600000e-07	-5.042701e-06	-2.372473e-08	-3.648814e+01	-1.552376e+03
1.700000e-07	-5.012030e-06	-2.368269e-08	-3.626621e+01	-1.550510e+03
1.800000e-07	-4.979378e-06	-2.359570e-08	-3.602995e+01	-1.548288e+03
1.900000e-07	-4.944749e-06	-2.363367e-08	-3.577938e+01	-1.545744e+03
2.000000e-07	-4.908612e-06	-2.352315e-08	-3.551789e+01	-1.542966e+03
2.100000e-07	-4.870888e-06	-2.342580e-08	-3.524493e+01	-1.540072e+03
2.200000e-07	-4.831434e-06	-2.341475e-08	-3.495945e+01	-1.537168e+03
2.300000e-07	-4.790083e-06	-2.336568e-08	-3.466024e+01	-1.534308e+03
2.400000e-07	-4.746756e-06	-2.336911e-08	-3.434674e+01	-1.531481e+03
2.500000e-07	-4.701663e-06	-2.332944e-08	-3.402045e+01	-1.528611e+03
2.600000e-07	-4.654797e-06	-2.322532e-08	-3.368133e+01	-1.525579e+03
2.700000e-07	-4.606034e-06	-2.316846e-08	-3.332849e+01	-1.522265e+03
2.800000e-07	-4.555211e-06	-2.311553e-08	-3.296075e+01	-1.518581e+03
2.900000e-07	-4.502431e-06	-2.308433e-08	-3.257884e+01	-1.514505e+03
3.000000e-07	-4.448039e-06	-2.303677e-08	-3.218527e+01	-1.510086e+03
3.100000e-07	-4.392030e-06	-2.296478e-08	-3.177999e+01	-1.505431e+03
3.200000e-07	-4.334237e-06	-2.287294e-08	-3.136182e+01	-1.500671e+03
3.300000e-07	-4.274762e-06	-2.277173e-08	-3.093146e+01	-1.495923e+03
3.400000e-07	-4.213840e-06	-2.272019e-08	-3.049064e+01	-1.491251e+03
3.500000e-07	-4.151560e-06	-2.265560e-08	-3.004000e+01	-1.486645e+03
3.600000e-07	-4.087849e-06	-2.259142e-08	-2.957899e+01	-1.482025e+03
3.700000e-07	-4.022649e-06	-2.251123e-08	-2.910721e+01	-1.477265e+03
3.800000e-07	-3.955897e-06	-2.240398e-08	-2.862421e+01	-1.472228e+03
3.900000e-07	-3.887620e-06	-2.232160e-08	-2.813017e+01	-1.466814e+03
4.000000e-07	-3.818002e-06	-2.223570e-08	-2.762642e+01	-1.460984e+03
4.100000e-07	-3.747209e-06	-2.215344e-08	-2.711418e+01	-1.454777e+03
4.200000e-07	-3.675219e-06	-2.206540e-08	-2.659327e+01	-1.448292e+03
4.300000e-07	-3.601806e-06	-2.197126e-08	-2.606207e+01	-1.441660e+03
4.400000e-07	-3.526836e-06	-2.187303e-08	-2.551960e+01	-1.434995e+03
4.500000e-07	-3.450406e-06	-2.176744e-08	-2.496657e+01	-1.428362e+03
4.600000e-07	-3.372628e-06	-2.166646e-08	-2.440378e+01	-1.421748e+03
4.700000e-07	-3.293478e-06	-2.155550e-08	-2.383105e+01	-1.415067e+03
4.800000e-07	-3.212952e-06	-2.143724e-08	-2.324838e+01	-1.408183e+03
4.900000e-07	-3.131289e-06	-2.132077e-08	-2.265748e+01	-1.400953e+03
5.000000e-07	-3.048635e-06	-2.120572e-08	-2.205942e+01	-1.393267e+03
5.100000e-07	-2.965047e-06	-2.108597e-08	-2.145459e+01	-1.385087e+03
5.200000e-07	-2.880668e-06	-2.095298e-08	-2.084403e+01	-1.376458e+03
5.300000e-07	-2.795413e-06	-2.081851e-08	-2.022714e+01	-1.367488e+03
5.400000e-07	-2.709190e-06	-2.068992e-08	-1.960325e+01	-1.358317e+03
5.500000e-07	-2.621980e-06	-2.055521e-08	-1.897221e+01	-1.349068e+03
5.600000e-07	-2.533833e-06	-2.041245e-08	-1.833439e+01	-1.339800e+03
5.700000e-07	-2.444790e-06	-2.026208e-08	-1.769010e+01	-1.330484e+03
5.800000e-07	-2.354613e-06	-2.010544e-08	-1.703759e+01	-1.321004e+03
5.900000e-07	-2.263313e-06	-1.993933e-08	-1.637696e+01	-1.311189e+03
6.000000e-07	-2.171294e-06	-1.977110e-08	-1.571112e+01	-1.300859e+03
6.100000e-07	-2.078631e-06	-1.960340e-08	-1.504063e+01	-1.289879e+03
6.200000e-07	-1.985195e-06	-1.943325e-08	-1.436454e+01	-1.278198e+03
6.300000e-07	-1.891095e-06	-1.925564e-08	-1.368365e+01	-1.265869e+03
6.400000e-07	-1.796391e-06	-1.906609e-08	-1.299839e+01	-1.253025e+03
6.500000e-07	-1.701038e-06	-1.886998e-08	-1.230842e+01	-1.239835e+03
6.600000e-07	-1.605073e-06	-1.866855e-08	-1.161404e+01	-1.226445e+03
6.700000e-07	-1.508609e-06	-1.846217e-08	-1.091604e+01	-1.212920e+03
6.800000e-07	-1.411630e-06	-1.824658e-08	-1.021432e+01	-1.199212e+03
6.900000e-07	-1.314012e-06	-1.802114e-08	-9.507969e+00	-1.185157e+03
7.000000e-07	-1.215704e-06	-1.778528e-08	-8.796631e+00	-1.170516e+03
7.100000e-07	-1.116824e-06	-1.753882e-08	-8.081155e+00	-1.155034e+03
7.200000e-07	-1.017549e-06	-1.728445e-08	-7.362812e+00	-1.138512e+03
7.300000e-07	-9.179416e-07	-1.702343e-08	-6.642072e+00	-1.120860e+03
7.400000e-07	-8.180850e-07	-1.675510e-08	-5.919527e+00	-1.102118e+03
7.500000e-07	-7.180475e-07	-1.647096e-08	-5.195672e+00	-1.082429e+03
7.600000e-07	-6.178678e-07	-1.616633e-08	-4.470789e+00	-1.061980e+03
7.700000e-07	-5.175781e-07	-1.584390e-08	-3.745109e+00	-1.040911e+03
7.800000e-07	-4.172122e-07	-1.550474e-08	-3.018878e+00	-1.019236e+03
7.900000e-07	-3.167570e-07	-1.514971e-08	-2.292001e+00	-9.967947e+02
8.000000e-07	-2.161562e-07	-1.477655e-08	-1.564070e+00	-9.732452e+02
8.100000e-07	-1.154182e-07	-1.438134e-08	-8.351471e-01	-9.481231e+02
8.200000e-07	-1.459790e-08	-1.396102e-08	-1.056280e-01	-9.209338e+02
8.300000e-07	8.628822e-08	-1.351126e-08	6.243672e-01	-8.912619e+02
8.400000e-07	1.871764e-07	-1.302815e-08	1.354377e+00	-8.588561e+02
8.500000e-07	2.879452e-07	-1.250944e-08	2.083523e+00	-8.236579e+02
8.600000e-07	3.886313e-07	-1.195090e-08	2.812071e+00	-7.857519e+02
8.700000e-07	4.892719e-07	-1.134757e-08	3.540290e+00	-7.452402e+02
8.800000e-07	5.897529e-07	-1.069172e-08	4.267353e+00	-7.020647e+02
8.900000e-07	6.900356e-07	-9.973764e-09	4.992983e+00	-6.558237e+02
9.000000e-07	7.901504e-07	-9.182549e-09	5.717396e+00	-6.056392e+02
9.100000e-07	8.900872e-07	-8.305112e-09	6.440522e+00	-5.501252e+02
9.200000e-07	9.898629e-07	-7.327206e-09	7.162483e+00	-4.874919e+02
9.300000e-07	1.089381e-06	-6.228264e-09	7.882576e+00	-4.157877e+02
9.400000e-07	1.188450e-06	-4.983940e-09	8.599426e+00	-3.332482e+02
9.500000e-07	1.286991e-06	-3.569581e-09	9.312452e+00	-2.386917e+02
9.600000e-07	1.384871e-06	-1.969182e-09	1.002070e+01	-1.318796e+02
9.700000e-07	1.481981e-06	-1.822892e-10	1.072337e+01	-1.376255e+01
9.800000e-07	1.578457e-06	1.768528e-09	1.142145e+01	1.134512e+02
9.900000e-07	1.674382e-06	3.828271e-09	1.211555e+01	2.464350e+02
1.000000e-06	1.769714e-06	5.919265e-09	1.280536e+01	3.810779e+02
1.010000e-06	1.864444e-06	7.954273e-09	1.349080e+01	5.129605e+02
1.020000e-06	1.958487e-06	9.856399e-09	1.417128e+01	6.378893e+02
1.030000e-06	2.051790e-06	1.157142e-08	1.484641e+01	7.523937e+02
1.040000e-06	2.144424e-06	1.307294e-08	1.551669e+01	8.540970e+02
1.050000e-06	2.236465e-06	1.436356e-08	1.618269e+01	9.419008e+02
1.060000e-06	2.327835e-06	1.546083e-08	1.684383e+01	1.015960e+03
1.070000e-06	2.418300e-06	1.638975e-08	1.749842e+01	1.077468e+03
1.080000e-06	2.507630e-06	1.717373e-08	1.814479e+01	1.128311e+03
1.090000e-06	2.595847e-06	1.783591e-08	1.878312e+01	1.170664e+03
1.100000e-06	2.683188e-06	1.840165e-08	1.941510e+01	1.206621e+03
1.110000e-06	2.769707e-06	1.888778e-08	2.004114e+01	1.237913e+03
1.120000e-06	2.855327e-06	1.930645e-08	2.066067e+01	1.265764e+03
1.130000e-06	2.940064e-06	1.967371e-08	2.127381e+01	1.290886e+03
1.140000e-06	3.023910e-06	1.999928e-08	2.188051e+01	1.313585e+03
1.150000e-06	3.106811e-06	2.028744e-08	2.248037e+01	1.333931e+03
1.160000e-06	3.188585e-06	2.054775e-08	2.307207e+01	1.351942e+03
1.170000e-06	3.269088e-06	2.078597e-08	2.365457e+01	1.367717e+03
1.180000e-06	3.348417e-06	2.100341e-08	2.422859e+01	1.381507e+03
1.190000e-06	3.426591e-06	2.120045e-08	2.479424e+01	1.393710e+03
1.200000e-06	3.503573e-06	2.138200e-08	2.535127e+01	1.404792e+03
1.210000e-06	3.579343e-06	2.155258e-08	2.589953e+01	1.415199e+03
1.220000e-06	3.653691e-06	2.171198e-08	2.643750e+01	1.425252e+03
1.230000e-06	3.726411e-06	2.185900e-08	2.696369e+01	1.435100e+03
1.240000e-06	3.797638e-06	2.199478e-08	2.747908e+01	1.444710e+03
1.250000e-06	3.867527e-06	2.212210e-08	2.798478e+01	1.453917e+03
1.260000e-06	3.936132e-06	2.224182e-08	2.848119e+01	1.462505e+03
1.270000e-06	4.003490e-06	2.235306e-08	2.896858e+01	1.470293e+03
1.280000e-06	4.069298e-06	2.245741e-08	2.944476e+01	1.477208e+03
1.290000e-06	4.133406e-06	2.255693e-08	2.990863e+01	1.483312e+03
1.300000e-06	4.196048e-06	2.265066e-08	3.036190e+01	1.488792e+03
1.310000e-06	4.257313e-06	2.273891e-08	3.080520e+01	1.493903e+03
1.320000e-06	4.317225e-06	2.282196e-08	3.123872e+01	1.498898e+03
1.330000e-06	4.375678e-06	2.290161e-08	3.166167e+01	1.503958e+03
1.340000e-06	4.432403e-06	2.297784e-08	3.207213e+01	1.509147e+03
1.350000e-06	4.487437e-06	2.305111e-08	3.247034e+01	1.514405e+03
1.360000e-06	4.540870e-06	2.312182e-08	3.285698e+01	1.519578e+03
1.370000e-06	4.592480e-06	2.318949e-08	3.323042e+01	1.524472e+03
1.380000e-06	4.642065e-06	2.325335e-08	3.358921e+01	1.528921e+03
1.390000e-06	4.689840e-06	2.331154e-08	3.393490e+01	1.532835e+03
1.400000e-06	4.736014e-06	2.336504e-08	3.426901e+01	1.536234e+03
1.410000e-06	4.780597e-06	2.341667e-08	3.459160e+01	1.539231e+03
1.420000e-06	4.823582e-06	2.346617e-08	3.490263e+01	1.541999e+03
1.430000e-06	4.864734e-06	2.351282e-08	3.520040e+01	1.544715e+03
1.440000e-06	4.904094e-06	2.355722e-08	3.548521e+01	1.547504e+03
1.450000e-06	4.941833e-06	2.359877e-08	3.575828e+01	1.550408e+03
1.460000e-06	4.977974e-06	2.363757e-08	3.601979e+01	1.553370e+03
1.470000e-06	5.012406e-06	2.367232e-08	3.626893e+01	1.556259e+03
1.480000e-06	5.044952e-06	2.370257e-08	3.650443e+01	1.558918e+03
1.490000e-06	5.075735e-06	2.372998e-08	3.672717e+01	1.561209e+03
1.500000e-06	5.104862e-06	2.375710e-08	3.693793e+01	1.563063e+03
1.510000e-06	5.132276e-06	2.378382e-08	3.713630e+01	1.564496e+03
1.520000e-06	5.157738e-06	2.380797e-08	3.732053e+01	1.565611e+03
1.530000e-06	5.181151e-06	2.383092e-08	3.748995e+01	1.566559e+03
1.540000e-06	5.202754e-06	2.385161e-08	3.764626e+01	1.567496e+03
1.550000e-06	5.222710e-06	2.386796e-08	3.779066e+01	1.568534e+03
1.560000e-06	5.240874e-06	2.388106e-08	3.792209e+01	1.569711e+03
1.570000e-06	5.257086e-06	2.389507e-08	3.803940e+01	1.570978e+03
1.580000e-06	5.271399e-06	2.390938e-08	3.814296e+01	1.572217e+03
1.590000e-06	5.283680e-06	2.392012e-08	3.823183e+01	1.573285e+03
1.600000e-06	5.293733e-06	2.392779e-08	3.830457e+01	1.574052e+03
1.610000e-06	5.301712e-06	2.393465e-08	3.836231e+01	1.574447e+03
1.620000e-06	5.307837e-06	2.394126e-08	3.840662e+01	1.574479e+03
1.630000e-06	5.312182e-06	2.394566e-08	3.843806e+01	1.574232e+03
1.640000e-06	5.314664e-06	2.394809e-08	3.845602e+01	1.573839e+03
1.650000e-06	5.315214e-06	2.394675e-08	3.846000e+01	1.573442e+03
1.660000e-06	5.313972e-06	2.394589e-08	3.845101e+01	1.573142e+03
1.670000e-06	5.311073e-06	2.394379e-08	3.843004e+01	1.572975e+03
1.680000e-06	5.306544e-06	2.393696e-08	3.839727e+01	1.572894e+03
1.690000e-06	5.300209e-06	2.392923e-08	3.835143e+01	1.572788e+03
1.700000e-06	5.292040e-06	2.391980e-08	3.829232e+01	1.572518e+03
1.710000e-06	5.282200e-06	2.390909e-08	3.822112e+01	1.571956e+03
1.720000e-06	5.270725e-06	2.389378e-08	3.813809e+01	1.571030e+03
1.730000e-06	5.257427e-06	2.386199e-08	3.804187e+01	1.569742e+03
1.740000e-06	5.242070e-06	2.386793e-08	3.793075e+01	1.568174e+03
1.750000e-06	5.224429e-06	2.383452e-08	3.780310e+01	1.566458e+03
1.760000e-06	5.204260e-06	2.380323e-08	3.765716e+01	1.564739e+03
1.770000e-06	5.181746e-06	2.382702e-08	3.749425e+01	1.563132e+03
1.780000e-06	5.157734e-06	2.375873e-08	3.732051e+01	1.561688e+03
1.790000e-06	5.132955e-06	2.376640e-08	3.714121e+01	1.560378e+03
1.800000e-06	5.106958e-06	2.376416e-08	3.695310e+01	1.559103e+03
1.810000e-06	5.079037e-06	2.364258e-08	3.675106e+01	1.557726e+03
1.820000e-06	5.049300e-06	2.370855e-08	3.653589e+01	1.556114e+03
1.830000e-06	5.017750e-06	2.368799e-08	3.630760e+01	1.554172e+03
1.840000e-06	4.984300e-06	2.356685e-08	3.606556e+01	1.551875e+03
1.850000e-06	4.949253e-06	2.367596e-08	3.581197e+01	1.549270e+03
1.860000e-06	4.912410e-06	2.364858e-08	3.554538e+01	1.546457e+03
1.870000e-06	4.873592e-06	2.357501e-08	3.526450e+01	1.543553e+03
1.880000e-06	4.833136e-06	2.355713e-08	3.497177e+01	1.540655e+03
1.890000e-06	4.790963e-06	2.340295e-08	3.466661e+01	1.537804e+03
1.900000e-06	4.747081e-06	2.343832e-08	3.434909e+01	1.534976e+03
1.910000e-06	4.701519e-06	2.344220e-08	3.401941e+01	1.532081e+03
1.920000e-06	4.654121e-06	2.332229e-08	3.367645e+01	1.528997e+03
1.930000e-06	4.605114e-06	2.332674e-08	3.332183e+01	1.525608e+03
1.940000e-06	4.554349e-06	2.321701e-08	3.295451e+01	1.521839e+03
1.950000e-06	4.501620e-06	2.314724e-08	3.257297e+01	1.517683e+03
1.960000e-06	4.447069e-06	2.308242e-08	3.217825e+01	1.513202e+03
1.970000e-06	4.390725e-06	2.301277e-08	3.177056e+01	1.508512e+03
1.980000e-06	4.332760e-06	2.302173e-08	3.135113e+01	1.503746e+03
1.990000e-06	4.273360e-06	2.289289e-08	3.092132e+01	1.499010e+03
2.000000e-06	4.212570e-06	2.282657e-08	3.048146e+01	1.494354e+03
2.010000e-06	4.150201e-06	2.275327e-08	3.003016e+01	1.489754e+03
2.020000e-06	4.086148e-06	2.266668e-08	2.956668e+01	1.485115e+03
2.030000e-06	4.020615e-06	2.262932e-08	2.909250e+01	1.480305e+03
2.040000e-06	3.953713e-06	2.251055e-08	2.860841e+01	1.475194e+03
2.050000e-06	3.885443e-06	2.246517e-08	2.811442e+01	1.469690e+03
2.060000e-06	3.815694e-06	2.236930e-08	2.760973e+01	1.463773e+03
2.070000e-06	3.744418e-06	2.225299e-08	2.709398e+01	1.457495e+03
2.080000e-06	3.671841e-06	2.216816e-08	2.656883e+01	1.450967e+03
2.090000e-06	3.598067e-06	2.205857e-08	2.603501e+01	1.444318e+03
2.100000e-06	3.523022e-06	2.198428e-08	2.549200e+01	1.437657e+03
2.110000e-06	3.446544e-06	2.186021e-08	2.493862e+01	1.431031e+03
2.120000e-06	3.368567e-06	2.176512e-08	2.437439e+01	1.424411e+03
2.130000e-06	3.289247e-06	2.166524e-08	2.380044e+01	1.417698e+03
2.140000e-06	3.208749e-06	2.154605e-08	2.321797e+01	1.410751e+03
2.150000e-06	3.127190e-06	2.143069e-08	2.262783e+01	1.403429e+03
2.160000e-06	3.044564e-06	2.130640e-08	2.202995e+01	1.395637e+03
2.170000e-06	2.960892e-06	2.120716e-08	2.142452e+01	1.387354e+03
2.180000e-06	2.876189e-06	2.107218e-08	2.081162e+01	1.378640e+03
2.190000e-06	2.790336e-06	2.093207e-08	2.019041e+01	1.369614e+03
2.200000e-06	2.703232e-06	2.079417e-08	1.956013e+01	1.360418e+03
2.210000e-06	2.615104e-06	2.066103e-08	1.892246e+01	1.351161e+03
2.220000e-06	2.526150e-06	2.052386e-08	1.827880e+01	1.341888e+03
2.230000e-06	2.436362e-06	2.037369e-08	1.762911e+01	1.332548e+03
2.240000e-06	2.345796e-06	2.023262e-08	1.697379e+01	1.323011e+03
2.250000e-06	2.254469e-06	2.007814e-08	1.631296e+01	1.313100e+03
2.260000e-06	2.162419e-06	1.991332e-08	1.564690e+01	1.302638e+03
2.270000e-06	2.069623e-06	1.973618e-08	1.497545e+01	1.291508e+03
2.280000e-06	1.976000e-06	1.956143e-08	1.429801e+01	1.279680e+03
2.290000e-06	1.881513e-06	1.938417e-08	1.361431e+01	1.267227e+03
2.300000e-06	1.786207e-06	1.919700e-08	1.292470e+01	1.254293e+03
2.310000e-06	1.690266e-06	1.900206e-08	1.223048e+01	1.241049e+03
2.320000e-06	1.593881e-06	1.879881e-08	1.153306e+01	1.227627e+03
2.330000e-06	1.497053e-06	1.858995e-08	1.083242e+01	1.214071e+03
2.340000e-06	1.399701e-06	1.836909e-08	1.012800e+01	1.200304e+03
2.350000e-06	1.301913e-06	1.814378e-08	9.420427e+00	1.186145e+03
2.360000e-06	1.203768e-06	1.791217e-08	8.710263e+00	1.171343e+03
2.370000e-06	1.105279e-06	1.767019e-08	7.997616e+00	1.155651e+03
2.380000e-06	1.006407e-06	1.741352e-08	7.282196e+00	1.138889e+03
2.390000e-06	9.071945e-07	1.714242e-08	6.564308e+00	1.120996e+03
2.400000e-06	8.076881e-07	1.686231e-08	5.844296e+00	1.102035e+03
2.410000e-06	7.079038e-07	1.657385e-08	5.122274e+00	1.082168e+03
2.420000e-06	6.078955e-07	1.627232e-08	4.398630e+00	1.061576e+03
2.430000e-06	5.076951e-07	1.595321e-08	3.673597e+00	1.040381e+03
2.440000e-06	4.073976e-07	1.561450e-08	2.947861e+00	1.018561e+03
2.450000e-06	3.070450e-07	1.525553e-08	2.221727e+00	9.959153e+02
2.460000e-06	2.066329e-07	1.487724e-08	1.495161e+00	9.720699e+02
2.470000e-06	1.061767e-07	1.447631e-08	7.682768e-01	9.465446e+02
2.480000e-06	5.670110e-09	1.405024e-08	4.102797e-02	9.188529e+02
2.490000e-06	-9.488223e-08	1.359458e-08	-6.865520e-01	8.886089e+02
2.500000e-06	-1.954154e-07	1.310261e-08	-1.413994e+00	8.556027e+02
2.510000e-06	-2.959009e-07	1.257089e-08	-2.141090e+00	8.198134e+02
2.520000e-06	-3.963196e-07	1.199875e-08	-2.867703e+00	7.813422e+02
2.530000e-06	-4.966331e-07	1.138380e-08	-3.593554e+00	7.402729e+02
2.540000e-06	-5.968335e-07	1.071673e-08	-4.318588e+00	6.964882e+02
2.550000e-06	-6.968827e-07	9.985964e-09	-5.042527e+00	6.494930e+02
2.560000e-06	-7.967401e-07	9.181975e-09	-5.765079e+00	5.982986e+02
2.570000e-06	-8.963369e-07	8.291048e-09	-6.485744e+00	5.414190e+02
2.580000e-06	-9.956193e-07	7.294250e-09	-7.204135e+00	4.770049e+02
2.590000e-06	-1.094504e-06	6.171846e-09	-7.919648e+00	4.031128e+02
2.600000e-06	-1.192986e-06	4.902278e-09	-8.632245e+00	3.180698e+02
2.610000e-06	-1.291116e-06	3.462675e-09	-9.342299e+00	2.208686e+02
2.620000e-06	-1.388748e-06	1.836956e-09	-1.004875e+01	1.115100e+02
2.630000e-06	-1.485836e-06	2.467155e-11	-1.075126e+01	-8.784698e+00
2.640000e-06	-1.582460e-06	-1.948599e-09	-1.145041e+01	-1.375487e+02
2.650000e-06	-1.678653e-06	-4.024733e-09	-1.214646e+01	-2.712533e+02
2.660000e-06	-1.774415e-06	-6.123757e-09	-1.283937e+01	-4.056781e+02
2.670000e-06	-1.869581e-06	-8.156548e-09	-1.352797e+01	-5.364067e+02
2.680000e-06	-1.963853e-06	-1.004652e-08	-1.421012e+01	-6.593619e+02
2.690000e-06	-2.057083e-06	-1.174518e-08	-1.488471e+01	-7.712819e+02
2.700000e-06	-2.149394e-06	-1.323188e-08	-1.555266e+01	-8.700555e+02
2.710000e-06	-2.241036e-06	-1.450720e-08	-1.621576e+01	-9.548620e+02
2.720000e-06	-2.332017e-06	-1.558975e-08	-1.687409e+01	-1.026103e+03
2.730000e-06	-2.422181e-06	-1.650622e-08	-1.752650e+01	-1.085151e+03
2.740000e-06	-2.511468e-06	-1.728111e-08	-1.817256e+01	-1.133990e+03
2.750000e-06	-2.599924e-06	-1.793878e-08	-1.881262e+01	-1.174806e+03
2.760000e-06	-2.687602e-06	-1.850014e-08	-1.944704e+01	-1.209635e+03
2.770000e-06	-2.774387e-06	-1.898176e-08	-2.007500e+01	-1.240106e+03
2.780000e-06	-2.859988e-06	-1.939840e-08	-2.069439e+01	-1.267329e+03
2.790000e-06	-2.944422e-06	-1.976331e-08	-2.130534e+01	-1.291917e+03
2.800000e-06	-3.027892e-06	-2.008558e-08	-2.190932e+01	-1.314111e+03
2.810000e-06	-3.110366e-06	-2.037354e-08	-2.250609e+01	-1.333955e+03
2.820000e-06	-3.191799e-06	-2.063186e-08	-2.309533e+01	-1.351474e+03
2.830000e-06	-3.272154e-06	-2.086549e-08	-2.367676e+01	-1.366798e+03
2.840000e-06	-3.351373e-06	-2.108028e-08	-2.424997e+01	-1.380212e+03
2.850000e-06	-3.429217e-06	-2.127864e-08	-2.481324e+01	-1.392135e+03
2.860000e-06	-3.505563e-06	-2.146174e-08	-2.536567e+01	-1.403039e+03
2.870000e-06	-3.580550e-06	-2.162929e-08	-2.590826e+01	-1.413349e+03
2.880000e-06	-3.654195e-06	-2.178377e-08	-2.644115e+01	-1.423352e+03
2.890000e-06	-3.726544e-06	-2.192852e-08	-2.696465e+01	-1.433158e+03
2.900000e-06	-3.797656e-06	-2.206497e-08	-2.747921e+01	-1.442700e+03
2.910000e-06	-3.867286e-06	-2.219385e-08	-2.798304e+01	-1.451794e+03
2.920000e-06	-3.935362e-06	-2.231482e-08	-2.847563e+01	-1.460223e+03
2.930000e-06	-4.002090e-06	-2.242693e-08	-2.895846e+01	-1.467827e+03
2.940000e-06	-4.067452e-06	-2.253011e-08	-2.943140e+01	-1.474558e+03
