# Temperatura_=_80.68
# Concentracion g/m^3_=_28370.0
# C_Vs_to_Am_M_A/Vsm_=_65563218390.804596
# pendiente_HvsI_1/m_=_3716.3
# ordenada_HvsI_A/m_=_1297.0
# frecuencia_Hz_=_302503.8536495578

Tiempo_(s)	Campo_(V.s)	Magnetizacion_(V.s)	Campo_(kA/m)	Magnetizacion_(A/m)
0.000000e+00	-7.848912e-06	-2.826766e-08	-5.684507e+01	-1.851438e+03
1.000000e-08	-7.845008e-06	-2.826972e-08	-5.681680e+01	-1.850575e+03
2.000000e-08	-7.838606e-06	-2.825689e-08	-5.677043e+01	-1.849670e+03
3.000000e-08	-7.829496e-06	-2.824112e-08	-5.670445e+01	-1.848760e+03
4.000000e-08	-7.817594e-06	-2.822413e-08	-5.661825e+01	-1.847854e+03
5.000000e-08	-7.802824e-06	-2.820336e-08	-5.651128e+01	-1.846934e+03
6.000000e-08	-7.785290e-06	-2.817551e-08	-5.638429e+01	-1.845958e+03
7.000000e-08	-7.765539e-06	-2.814222e-08	-5.624125e+01	-1.844868e+03
8.000000e-08	-7.743510e-06	-2.811084e-08	-5.608171e+01	-1.843601e+03
9.000000e-08	-7.718592e-06	-2.817765e-08	-5.590123e+01	-1.842103e+03
1.000000e-07	-7.690491e-06	-2.816270e-08	-5.569772e+01	-1.840334e+03
1.100000e-07	-7.659474e-06	-2.805411e-08	-5.547308e+01	-1.838280e+03
1.200000e-07	-7.625642e-06	-2.801062e-08	-5.522806e+01	-1.835954e+03
1.300000e-07	-7.589131e-06	-2.798379e-08	-5.496363e+01	-1.833390e+03
1.400000e-07	-7.550381e-06	-2.790622e-08	-5.468299e+01	-1.830642e+03
1.500000e-07	-7.509413e-06	-2.779602e-08	-5.438628e+01	-1.827767e+03
1.600000e-07	-7.466091e-06	-2.785797e-08	-5.407252e+01	-1.824820e+03
1.700000e-07	-7.420275e-06	-2.785716e-08	-5.374071e+01	-1.821836e+03
1.800000e-07	-7.371793e-06	-2.766943e-08	-5.338958e+01	-1.818825e+03
1.900000e-07	-7.320401e-06	-2.771236e-08	-5.301738e+01	-1.815769e+03
2.000000e-07	-7.266104e-06	-2.764716e-08	-5.262413e+01	-1.812616e+03
2.100000e-07	-7.209148e-06	-2.752872e-08	-5.221164e+01	-1.809295e+03
2.200000e-07	-7.149495e-06	-2.750831e-08	-5.177960e+01	-1.805718e+03
2.300000e-07	-7.087256e-06	-2.739466e-08	-5.132884e+01	-1.801798e+03
2.400000e-07	-7.022420e-06	-2.737708e-08	-5.085927e+01	-1.797461e+03
2.500000e-07	-6.954894e-06	-2.727347e-08	-5.037022e+01	-1.792659e+03
2.600000e-07	-6.884733e-06	-2.721535e-08	-4.986209e+01	-1.787375e+03
2.700000e-07	-6.811854e-06	-2.712614e-08	-4.933427e+01	-1.781629e+03
2.800000e-07	-6.736212e-06	-2.702583e-08	-4.878644e+01	-1.775474e+03
2.900000e-07	-6.657822e-06	-2.694304e-08	-4.821870e+01	-1.768985e+03
3.000000e-07	-6.576759e-06	-2.682306e-08	-4.763161e+01	-1.762251e+03
3.100000e-07	-6.493355e-06	-2.676073e-08	-4.702757e+01	-1.755352e+03
3.200000e-07	-6.407817e-06	-2.664979e-08	-4.640807e+01	-1.748355e+03
3.300000e-07	-6.320021e-06	-2.655431e-08	-4.577221e+01	-1.741289e+03
3.400000e-07	-6.229887e-06	-2.642613e-08	-4.511942e+01	-1.734150e+03
3.500000e-07	-6.137477e-06	-2.629727e-08	-4.445015e+01	-1.726892e+03
3.600000e-07	-6.042929e-06	-2.619602e-08	-4.376540e+01	-1.719434e+03
3.700000e-07	-5.946159e-06	-2.606359e-08	-4.306454e+01	-1.711672e+03
3.800000e-07	-5.847117e-06	-2.592729e-08	-4.234724e+01	-1.703497e+03
3.900000e-07	-5.746082e-06	-2.579037e-08	-4.161551e+01	-1.694806e+03
4.000000e-07	-5.643070e-06	-2.565635e-08	-4.086945e+01	-1.685520e+03
4.100000e-07	-5.537969e-06	-2.549575e-08	-4.010826e+01	-1.675596e+03
4.200000e-07	-5.430895e-06	-2.534438e-08	-3.933279e+01	-1.665035e+03
4.300000e-07	-5.321984e-06	-2.519509e-08	-3.854401e+01	-1.653874e+03
4.400000e-07	-5.211185e-06	-2.502697e-08	-3.774156e+01	-1.642183e+03
4.500000e-07	-5.098344e-06	-2.484425e-08	-3.692432e+01	-1.630048e+03
4.600000e-07	-4.983555e-06	-2.466046e-08	-3.609297e+01	-1.617553e+03
4.700000e-07	-4.866885e-06	-2.446725e-08	-3.524800e+01	-1.604764e+03
4.800000e-07	-4.748397e-06	-2.426127e-08	-3.438986e+01	-1.591709e+03
4.900000e-07	-4.628148e-06	-2.405497e-08	-3.351897e+01	-1.578370e+03
5.000000e-07	-4.506199e-06	-2.384372e-08	-3.263576e+01	-1.564676e+03
5.100000e-07	-4.382575e-06	-2.361937e-08	-3.174042e+01	-1.550513e+03
5.200000e-07	-4.257361e-06	-2.337849e-08	-3.083357e+01	-1.535731e+03
5.300000e-07	-4.130687e-06	-2.313297e-08	-2.991614e+01	-1.520167e+03
5.400000e-07	-4.002447e-06	-2.287155e-08	-2.898738e+01	-1.503663e+03
5.500000e-07	-3.872661e-06	-2.259874e-08	-2.804741e+01	-1.486087e+03
5.600000e-07	-3.741419e-06	-2.231109e-08	-2.709690e+01	-1.467353e+03
5.700000e-07	-3.608724e-06	-2.201359e-08	-2.613587e+01	-1.447427e+03
5.800000e-07	-3.474645e-06	-2.169870e-08	-2.516482e+01	-1.426326e+03
5.900000e-07	-3.339265e-06	-2.136965e-08	-2.418434e+01	-1.404112e+03
6.000000e-07	-3.202630e-06	-2.102933e-08	-2.319477e+01	-1.380869e+03
6.100000e-07	-3.064746e-06	-2.067379e-08	-2.219616e+01	-1.356678e+03
6.200000e-07	-2.925577e-06	-2.030142e-08	-2.118824e+01	-1.331587e+03
6.300000e-07	-2.785089e-06	-1.990389e-08	-2.017077e+01	-1.305582e+03
6.400000e-07	-2.643447e-06	-1.948314e-08	-1.914493e+01	-1.278570e+03
6.500000e-07	-2.500833e-06	-1.903369e-08	-1.811206e+01	-1.250360e+03
6.600000e-07	-2.357306e-06	-1.856120e-08	-1.707259e+01	-1.220668e+03
6.700000e-07	-2.212913e-06	-1.805976e-08	-1.602683e+01	-1.189129e+03
6.800000e-07	-2.067690e-06	-1.752872e-08	-1.497506e+01	-1.155325e+03
6.900000e-07	-1.921766e-06	-1.696543e-08	-1.391822e+01	-1.118816e+03
7.000000e-07	-1.775212e-06	-1.636192e-08	-1.285682e+01	-1.079184e+03
7.100000e-07	-1.628106e-06	-1.571695e-08	-1.179142e+01	-1.036070e+03
7.200000e-07	-1.480541e-06	-1.502154e-08	-1.072269e+01	-9.892132e+02
7.300000e-07	-1.332530e-06	-1.426833e-08	-9.650730e+00	-9.384675e+02
7.400000e-07	-1.184093e-06	-1.345354e-08	-8.575688e+00	-8.838174e+02
7.500000e-07	-1.035289e-06	-1.258250e-08	-7.497993e+00	-8.253697e+02
7.600000e-07	-8.861722e-07	-1.165313e-08	-6.418026e+00	-7.633346e+02
7.700000e-07	-7.368110e-07	-1.066169e-08	-5.336290e+00	-6.979943e+02
7.800000e-07	-5.872091e-07	-9.606265e-09	-4.252811e+00	-6.296642e+02
7.900000e-07	-4.373804e-07	-8.494855e-09	-3.167690e+00	-5.586543e+02
8.000000e-07	-2.874393e-07	-7.336315e-09	-2.081754e+00	-4.852345e+02
8.100000e-07	-1.373889e-07	-6.140195e-09	-9.950276e-01	-4.096109e+02
8.200000e-07	1.273549e-08	-4.924368e-09	9.223568e-02	-3.319168e+02
8.300000e-07	1.628959e-07	-3.700207e-09	1.179759e+00	-2.522198e+02
8.400000e-07	3.130329e-07	-2.472982e-09	2.267113e+00	-1.705452e+02
8.500000e-07	4.630450e-07	-1.236415e-09	3.353564e+00	-8.691208e+01
8.600000e-07	6.129215e-07	1.387910e-11	4.439031e+00	-1.377808e+00
8.700000e-07	7.626398e-07	1.289966e-09	5.523353e+00	8.591646e+01
8.800000e-07	9.121713e-07	2.603043e-09	6.606322e+00	1.747056e+02
8.900000e-07	1.061449e-06	3.958346e-09	7.687452e+00	2.645724e+02
9.000000e-07	1.210420e-06	5.349641e-09	8.766366e+00	3.549368e+02
9.100000e-07	1.359033e-06	6.762727e-09	9.842677e+00	4.450658e+02
9.200000e-07	1.507169e-06	8.176675e-09	1.091554e+01	5.341031e+02
9.300000e-07	1.654774e-06	9.554711e-09	1.198456e+01	6.211178e+02
9.400000e-07	1.801773e-06	1.086680e-08	1.304918e+01	7.051660e+02
9.500000e-07	1.948093e-06	1.209043e-08	1.410889e+01	7.853590e+02
9.600000e-07	2.093700e-06	1.321810e-08	1.516344e+01	8.609299e+02
9.700000e-07	2.238536e-06	1.424955e-08	1.621240e+01	9.312914e+02
9.800000e-07	2.382559e-06	1.518939e-08	1.725548e+01	9.960773e+02
9.900000e-07	2.525657e-06	1.604897e-08	1.829186e+01	1.055163e+03
1.000000e-06	2.667694e-06	1.683420e-08	1.932055e+01	1.108665e+03
1.010000e-06	2.808639e-06	1.755385e-08	2.034132e+01	1.156914e+03
1.020000e-06	2.948458e-06	1.821451e-08	2.135395e+01	1.200411e+03
1.030000e-06	3.087062e-06	1.882668e-08	2.235778e+01	1.239774e+03
1.040000e-06	3.224431e-06	1.939508e-08	2.335267e+01	1.275668e+03
1.050000e-06	3.360608e-06	1.992247e-08	2.433891e+01	1.308747e+03
1.060000e-06	3.495488e-06	2.041365e-08	2.531577e+01	1.339595e+03
1.070000e-06	3.629050e-06	2.087186e-08	2.628308e+01	1.368689e+03
1.080000e-06	3.761467e-06	2.130061e-08	2.724210e+01	1.396373e+03
1.090000e-06	3.892532e-06	2.169988e-08	2.819133e+01	1.422854e+03
1.100000e-06	4.022068e-06	2.207440e-08	2.912948e+01	1.448214e+03
1.110000e-06	4.150159e-06	2.242805e-08	3.005717e+01	1.472441e+03
1.120000e-06	4.276787e-06	2.276408e-08	3.097426e+01	1.495460e+03
1.130000e-06	4.402011e-06	2.308030e-08	3.188118e+01	1.517175e+03
1.140000e-06	4.525735e-06	2.337888e-08	3.277725e+01	1.537507e+03
1.150000e-06	4.647783e-06	2.366064e-08	3.366117e+01	1.556419e+03
1.160000e-06	4.768248e-06	2.392517e-08	3.453362e+01	1.573936e+03
1.170000e-06	4.887029e-06	2.417380e-08	3.539389e+01	1.590148e+03
1.180000e-06	5.004022e-06	2.441012e-08	3.624120e+01	1.605203e+03
1.190000e-06	5.119142e-06	2.463622e-08	3.707495e+01	1.619290e+03
1.200000e-06	5.232192e-06	2.485238e-08	3.789370e+01	1.632612e+03
1.210000e-06	5.343204e-06	2.505707e-08	3.869770e+01	1.645362e+03
1.220000e-06	5.452381e-06	2.525020e-08	3.948840e+01	1.657698e+03
1.230000e-06	5.559670e-06	2.543433e-08	4.026543e+01	1.669727e+03
1.240000e-06	5.664913e-06	2.560931e-08	4.102764e+01	1.681493e+03
1.250000e-06	5.768049e-06	2.577692e-08	4.177460e+01	1.692982e+03
1.260000e-06	5.869118e-06	2.593774e-08	4.250658e+01	1.704129e+03
1.270000e-06	5.968059e-06	2.609173e-08	4.322315e+01	1.714837e+03
1.280000e-06	6.064712e-06	2.623695e-08	4.392316e+01	1.725000e+03
1.290000e-06	6.159133e-06	2.637527e-08	4.460699e+01	1.734522e+03
1.300000e-06	6.251395e-06	2.650824e-08	4.527519e+01	1.743339e+03
1.310000e-06	6.341427e-06	2.663327e-08	4.592724e+01	1.751431e+03
1.320000e-06	6.429071e-06	2.675002e-08	4.656199e+01	1.758827e+03
1.330000e-06	6.514488e-06	2.685942e-08	4.718062e+01	1.765600e+03
1.340000e-06	6.597708e-06	2.696341e-08	4.778333e+01	1.771860e+03
1.350000e-06	6.678503e-06	2.706275e-08	4.836848e+01	1.777736e+03
1.360000e-06	6.756780e-06	2.715620e-08	4.893540e+01	1.783358e+03
1.370000e-06	6.832511e-06	2.724529e-08	4.948387e+01	1.788834e+03
1.380000e-06	6.905711e-06	2.733010e-08	5.001402e+01	1.794243e+03
1.390000e-06	6.976416e-06	2.741102e-08	5.052609e+01	1.799620e+03
1.400000e-06	7.044648e-06	2.748861e-08	5.102026e+01	1.804956e+03
1.410000e-06	7.110327e-06	2.756191e-08	5.149593e+01	1.810200e+03
1.420000e-06	7.173453e-06	2.763204e-08	5.195312e+01	1.815278e+03
1.430000e-06	7.234130e-06	2.769840e-08	5.239256e+01	1.820097e+03
1.440000e-06	7.292295e-06	2.775971e-08	5.281382e+01	1.824572e+03
1.450000e-06	7.347891e-06	2.781769e-08	5.321647e+01	1.828633e+03
1.460000e-06	7.400832e-06	2.787360e-08	5.359989e+01	1.832243e+03
1.470000e-06	7.450788e-06	2.792727e-08	5.396169e+01	1.835399e+03
1.480000e-06	7.497789e-06	2.797716e-08	5.430209e+01	1.838137e+03
1.490000e-06	7.542147e-06	2.802220e-08	5.462335e+01	1.840519e+03
1.500000e-06	7.583791e-06	2.806289e-08	5.492495e+01	1.842629e+03
1.510000e-06	7.622674e-06	2.809983e-08	5.520656e+01	1.844552e+03
1.520000e-06	7.658951e-06	2.813391e-08	5.546929e+01	1.846366e+03
1.530000e-06	7.692548e-06	2.816360e-08	5.571262e+01	1.848128e+03
1.540000e-06	7.723362e-06	2.818971e-08	5.593578e+01	1.849862e+03
1.550000e-06	7.751512e-06	2.820993e-08	5.613966e+01	1.851562e+03
1.560000e-06	7.776850e-06	2.822629e-08	5.632317e+01	1.853192e+03
1.570000e-06	7.799257e-06	2.824334e-08	5.648545e+01	1.854694e+03
1.580000e-06	7.818996e-06	2.826000e-08	5.662840e+01	1.855998e+03
1.590000e-06	7.835939e-06	2.827536e-08	5.675111e+01	1.857037e+03
1.600000e-06	7.849895e-06	2.828584e-08	5.685219e+01	1.857761e+03
1.610000e-06	7.860790e-06	2.829228e-08	5.693109e+01	1.858141e+03
1.620000e-06	7.868626e-06	2.829544e-08	5.698784e+01	1.858178e+03
1.630000e-06	7.873693e-06	2.829752e-08	5.702454e+01	1.857902e+03
1.640000e-06	7.876034e-06	2.830018e-08	5.704150e+01	1.857368e+03
1.650000e-06	7.875553e-06	2.830230e-08	5.703801e+01	1.856643e+03
1.660000e-06	7.872432e-06	2.828677e-08	5.701541e+01	1.855799e+03
1.670000e-06	7.866682e-06	2.827598e-08	5.697377e+01	1.854899e+03
1.680000e-06	7.858280e-06	2.826757e-08	5.691292e+01	1.853986e+03
1.690000e-06	7.847240e-06	2.825199e-08	5.683296e+01	1.853078e+03
1.700000e-06	7.833323e-06	2.823593e-08	5.673216e+01	1.852164e+03
1.710000e-06	7.816816e-06	2.822804e-08	5.661261e+01	1.851207e+03
1.720000e-06	7.798085e-06	2.822903e-08	5.647696e+01	1.850154e+03
1.730000e-06	7.776934e-06	2.818409e-08	5.632377e+01	1.848941e+03
1.740000e-06	7.752862e-06	2.803755e-08	5.614944e+01	1.847512e+03
1.750000e-06	7.725326e-06	2.805186e-08	5.595001e+01	1.845821e+03
1.760000e-06	7.694252e-06	2.808148e-08	5.572496e+01	1.843847e+03
1.770000e-06	7.660377e-06	2.801967e-08	5.547962e+01	1.841593e+03
1.780000e-06	7.624356e-06	2.800093e-08	5.521874e+01	1.839091e+03
1.790000e-06	7.586107e-06	2.809916e-08	5.494173e+01	1.836387e+03
1.800000e-06	7.545840e-06	2.798493e-08	5.465010e+01	1.833541e+03
1.810000e-06	7.503482e-06	2.785100e-08	5.434333e+01	1.830607e+03
1.820000e-06	7.458373e-06	2.800651e-08	5.401662e+01	1.827629e+03
1.830000e-06	7.410631e-06	2.781981e-08	5.367086e+01	1.824625e+03
1.840000e-06	7.360160e-06	2.786156e-08	5.330533e+01	1.821583e+03
1.850000e-06	7.306669e-06	2.782033e-08	5.291792e+01	1.818463e+03
1.860000e-06	7.250409e-06	2.767750e-08	5.251046e+01	1.815196e+03
1.870000e-06	7.191565e-06	2.774907e-08	5.208429e+01	1.811699e+03
1.880000e-06	7.130160e-06	2.753202e-08	5.163957e+01	1.807883e+03
1.890000e-06	7.065920e-06	2.755392e-08	5.117432e+01	1.803670e+03
1.900000e-06	6.998894e-06	2.746754e-08	5.068889e+01	1.799002e+03
1.910000e-06	6.929188e-06	2.735352e-08	5.018405e+01	1.793853e+03
1.920000e-06	6.856730e-06	2.734561e-08	4.965928e+01	1.788233e+03
1.930000e-06	6.781692e-06	2.718431e-08	4.911582e+01	1.782185e+03
1.940000e-06	6.703962e-06	2.718177e-08	4.855287e+01	1.775781e+03
1.950000e-06	6.623556e-06	2.701802e-08	4.797053e+01	1.769106e+03
1.960000e-06	6.540749e-06	2.692696e-08	4.737082e+01	1.762245e+03
1.970000e-06	6.455566e-06	2.682490e-08	4.675388e+01	1.755269e+03
1.980000e-06	6.367930e-06	2.670174e-08	4.611918e+01	1.748219e+03
1.990000e-06	6.277992e-06	2.665243e-08	4.546782e+01	1.741102e+03
2.000000e-06	6.185978e-06	2.648669e-08	4.480141e+01	1.733883e+03
2.010000e-06	6.091744e-06	2.640224e-08	4.411893e+01	1.726489e+03
2.020000e-06	5.995223e-06	2.624296e-08	4.341989e+01	1.718824e+03
2.030000e-06	5.896564e-06	2.611965e-08	4.270536e+01	1.710776e+03
2.040000e-06	5.795841e-06	2.597114e-08	4.197588e+01	1.702239e+03
2.050000e-06	5.693050e-06	2.584453e-08	4.123143e+01	1.693127e+03
2.060000e-06	5.588299e-06	2.570729e-08	4.047277e+01	1.683386e+03
2.070000e-06	5.481717e-06	2.552633e-08	3.970086e+01	1.673002e+03
2.080000e-06	5.373235e-06	2.537618e-08	3.891519e+01	1.662005e+03
2.090000e-06	5.262787e-06	2.519994e-08	3.811528e+01	1.650455e+03
2.100000e-06	5.150365e-06	2.504409e-08	3.730108e+01	1.638435e+03
2.110000e-06	5.036080e-06	2.485364e-08	3.647338e+01	1.626033e+03
2.120000e-06	4.919867e-06	2.468050e-08	3.563171e+01	1.613322e+03
2.130000e-06	4.801702e-06	2.447175e-08	3.477592e+01	1.600340e+03
2.140000e-06	4.681646e-06	2.425749e-08	3.390642e+01	1.587085e+03
2.150000e-06	4.559853e-06	2.403643e-08	3.302435e+01	1.573500e+03
2.160000e-06	4.436481e-06	2.382090e-08	3.213083e+01	1.559483e+03
2.170000e-06	4.311459e-06	2.359537e-08	3.122537e+01	1.544892e+03
2.180000e-06	4.184877e-06	2.335312e-08	3.030861e+01	1.529567e+03
2.190000e-06	4.056712e-06	2.310383e-08	2.938039e+01	1.513344e+03
2.200000e-06	3.927006e-06	2.283603e-08	2.844100e+01	1.496083e+03
2.210000e-06	3.795884e-06	2.255865e-08	2.749136e+01	1.477684e+03
2.220000e-06	3.663357e-06	2.226387e-08	2.653155e+01	1.458096e+03
2.230000e-06	3.529445e-06	2.196556e-08	2.556170e+01	1.437324e+03
2.240000e-06	3.394146e-06	2.164198e-08	2.458181e+01	1.415418e+03
2.250000e-06	3.257515e-06	2.130304e-08	2.359227e+01	1.392459e+03
2.260000e-06	3.119680e-06	2.094563e-08	2.259402e+01	1.368530e+03
2.270000e-06	2.980713e-06	2.057867e-08	2.158756e+01	1.343691e+03
2.280000e-06	2.840610e-06	2.019084e-08	2.057287e+01	1.317952e+03
2.290000e-06	2.699429e-06	1.978213e-08	1.955038e+01	1.291240e+03
2.300000e-06	2.557235e-06	1.934924e-08	1.852055e+01	1.263395e+03
2.310000e-06	2.414108e-06	1.888999e-08	1.748397e+01	1.234158e+03
2.320000e-06	2.270074e-06	1.839831e-08	1.644082e+01	1.203187e+03
2.330000e-06	2.125185e-06	1.787001e-08	1.539147e+01	1.170072e+03
2.340000e-06	1.979629e-06	1.731016e-08	1.433729e+01	1.134378e+03
2.350000e-06	1.833520e-06	1.671494e-08	1.327911e+01	1.095676e+03
2.360000e-06	1.686878e-06	1.608029e-08	1.221707e+01	1.053587e+03
2.370000e-06	1.539666e-06	1.539889e-08	1.115090e+01	1.007818e+03
2.380000e-06	1.391882e-06	1.466610e-08	1.008058e+01	9.581881e+02
2.390000e-06	1.243552e-06	1.387818e-08	9.006322e+00	9.046457e+02
2.400000e-06	1.094791e-06	1.302982e-08	7.928932e+00	8.472635e+02
2.410000e-06	9.456941e-07	1.211754e-08	6.849108e+00	7.862250e+02
2.420000e-06	7.963452e-07	1.114326e-08	5.767461e+00	7.217955e+02
2.430000e-06	6.467798e-07	1.010594e-08	4.684247e+00	6.542849e+02
2.440000e-06	4.969916e-07	9.008643e-09	3.599419e+00	5.840088e+02
2.450000e-06	3.470734e-07	7.857720e-09	2.513650e+00	5.112513e+02
2.460000e-06	1.970346e-07	6.668395e-09	1.427006e+00	4.362385e+02
2.470000e-06	4.686788e-08	5.454111e-09	3.394366e-01	3.591244e+02
2.480000e-06	-1.033268e-07	4.226279e-09	-7.483352e-01	2.799938e+02
2.490000e-06	-2.534939e-07	2.995829e-09	-1.835908e+00	1.988806e+02
2.500000e-06	-4.035843e-07	1.760330e-09	-2.922925e+00	1.158017e+02
2.510000e-06	-5.535422e-07	5.105778e-10	-4.008982e+00	3.079864e+01
2.520000e-06	-7.033501e-07	-7.641323e-10	-5.093952e+00	-5.601583e+01
2.530000e-06	-8.529612e-07	-2.071865e-09	-6.177498e+00	-1.444155e+02
2.540000e-06	-1.002363e-06	-3.418960e-09	-7.259527e+00	-2.340285e+02
2.550000e-06	-1.151485e-06	-4.802907e-09	-8.339528e+00	-3.243214e+02
2.560000e-06	-1.300265e-06	-6.212560e-09	-9.417056e+00	-4.146025e+02
2.570000e-06	-1.448590e-06	-7.630120e-09	-1.049129e+01	-5.040465e+02
2.580000e-06	-1.596313e-06	-9.028279e-09	-1.156116e+01	-5.917382e+02
2.590000e-06	-1.743345e-06	-1.037420e-08	-1.262602e+01	-6.767304e+02
2.600000e-06	-1.889694e-06	-1.164029e-08	-1.368594e+01	-7.581118e+02
2.610000e-06	-2.035416e-06	-1.281156e-08	-1.474132e+01	-8.350741e+02
2.620000e-06	-2.180486e-06	-1.388360e-08	-1.579198e+01	-9.069737e+02
2.630000e-06	-2.324683e-06	-1.486150e-08	-1.683631e+01	-9.733781e+02
2.640000e-06	-2.467789e-06	-1.575305e-08	-1.787275e+01	-1.034093e+03
2.650000e-06	-2.609795e-06	-1.657012e-08	-1.890122e+01	-1.089167e+03
2.660000e-06	-2.750840e-06	-1.731969e-08	-1.992272e+01	-1.138874e+03
2.670000e-06	-2.890896e-06	-1.800803e-08	-2.093706e+01	-1.183672e+03
2.680000e-06	-3.029736e-06	-1.864289e-08	-2.194261e+01	-1.224151e+03
2.690000e-06	-3.167414e-06	-1.922937e-08	-2.293972e+01	-1.260970e+03
2.700000e-06	-3.303928e-06	-1.977222e-08	-2.392841e+01	-1.294792e+03
2.710000e-06	-3.439107e-06	-2.027557e-08	-2.490744e+01	-1.326226e+03
2.720000e-06	-3.572981e-06	-2.074599e-08	-2.587701e+01	-1.355782e+03
2.730000e-06	-3.705691e-06	-2.118652e-08	-2.683814e+01	-1.383844e+03
2.740000e-06	-3.837068e-06	-2.159692e-08	-2.778964e+01	-1.410657e+03
2.750000e-06	-3.967089e-06	-2.198214e-08	-2.873130e+01	-1.436337e+03
2.760000e-06	-4.095807e-06	-2.234539e-08	-2.966353e+01	-1.460896e+03
2.770000e-06	-4.222967e-06	-2.268521e-08	-3.058447e+01	-1.484271e+03
2.780000e-06	-4.348704e-06	-2.300482e-08	-3.149511e+01	-1.506370e+03
2.790000e-06	-4.473061e-06	-2.330782e-08	-3.239576e+01	-1.527106e+03
2.800000e-06	-4.595767e-06	-2.359566e-08	-3.328445e+01	-1.546426e+03
2.810000e-06	-4.716806e-06	-2.386665e-08	-3.416106e+01	-1.564337e+03
2.820000e-06	-4.836045e-06	-2.412154e-08	-3.502464e+01	-1.580911e+03
2.830000e-06	-4.953367e-06	-2.436412e-08	-3.587433e+01	-1.596281e+03
2.840000e-06	-5.068712e-06	-2.459894e-08	-3.670971e+01	-1.610626e+03
2.850000e-06	-5.181997e-06	-2.482546e-08	-3.753016e+01	-1.624148e+03
2.860000e-06	-5.293312e-06	-2.504010e-08	-3.833636e+01	-1.637045e+03
2.870000e-06	-5.402710e-06	-2.524076e-08	-3.912866e+01	-1.649489e+03
2.880000e-06	-5.510188e-06	-2.542777e-08	-3.990706e+01	-1.661600e+03
2.890000e-06	-5.615732e-06	-2.560428e-08	-4.067146e+01	-1.673442e+03
2.900000e-06	-5.719218e-06	-2.577284e-08	-4.142095e+01	-1.685017e+03
2.910000e-06	-5.820561e-06	-2.593546e-08	-4.215491e+01	-1.696272e+03
2.920000e-06	-5.919823e-06	-2.609232e-08	-4.287381e+01	-1.707119e+03
2.930000e-06	-6.017030e-06	-2.624336e-08	-4.357782e+01	-1.717450e+03
2.940000e-06	-6.112080e-06	-2.638649e-08	-4.426621e+01	-1.727166e+03
