# Temperatura_=_27.61
# Concentracion g/m^3_=_28370.0
# C_Vs_to_Am_M_A/Vsm_=_65563218390.804596
# pendiente_HvsI_1/m_=_3716.3
# ordenada_HvsI_A/m_=_1297.0
# frecuencia_Hz_=_302507.2265494741

Tiempo_(s)	Campo_(V.s)	Magnetizacion_(V.s)	Campo_(kA/m)	Magnetizacion_(A/m)
0.000000e+00	-7.836859e-06	-2.394909e-08	-5.684097e+01	-1.567339e+03
1.000000e-08	-7.832541e-06	-2.394876e-08	-5.680965e+01	-1.566531e+03
2.000000e-08	-7.825733e-06	-2.394102e-08	-5.676027e+01	-1.565680e+03
3.000000e-08	-7.816211e-06	-2.393169e-08	-5.669121e+01	-1.564842e+03
4.000000e-08	-7.803830e-06	-2.391960e-08	-5.660141e+01	-1.564050e+03
5.000000e-08	-7.788471e-06	-2.389977e-08	-5.649000e+01	-1.563309e+03
6.000000e-08	-7.770460e-06	-2.387457e-08	-5.635938e+01	-1.562596e+03
7.000000e-08	-7.750374e-06	-2.384046e-08	-5.621369e+01	-1.561866e+03
8.000000e-08	-7.727997e-06	-2.383796e-08	-5.605139e+01	-1.561059e+03
9.000000e-08	-7.702663e-06	-2.391611e-08	-5.586764e+01	-1.560111e+03
1.000000e-07	-7.674133e-06	-2.386258e-08	-5.566071e+01	-1.558966e+03
1.100000e-07	-7.642787e-06	-2.377189e-08	-5.543336e+01	-1.557585e+03
1.200000e-07	-7.608665e-06	-2.375704e-08	-5.518587e+01	-1.555952e+03
1.300000e-07	-7.571857e-06	-2.372956e-08	-5.491890e+01	-1.554078e+03
1.400000e-07	-7.532821e-06	-2.363711e-08	-5.463577e+01	-1.551996e+03
1.500000e-07	-7.491647e-06	-2.356339e-08	-5.433713e+01	-1.549757e+03
1.600000e-07	-7.448011e-06	-2.370696e-08	-5.402064e+01	-1.547414e+03
1.700000e-07	-7.401740e-06	-2.360662e-08	-5.368504e+01	-1.545017e+03
1.800000e-07	-7.352847e-06	-2.348523e-08	-5.333042e+01	-1.542601e+03
1.900000e-07	-7.301029e-06	-2.357013e-08	-5.295458e+01	-1.540175e+03
2.000000e-07	-7.246298e-06	-2.344546e-08	-5.255761e+01	-1.537720e+03
2.100000e-07	-7.188911e-06	-2.339447e-08	-5.214138e+01	-1.535193e+03
2.200000e-07	-7.128913e-06	-2.336002e-08	-5.170621e+01	-1.532527e+03
2.300000e-07	-7.066383e-06	-2.330633e-08	-5.125268e+01	-1.529649e+03
2.400000e-07	-7.001199e-06	-2.327331e-08	-5.077990e+01	-1.526481e+03
2.500000e-07	-6.933327e-06	-2.316010e-08	-5.028762e+01	-1.522963e+03
2.600000e-07	-6.862856e-06	-2.314937e-08	-4.977649e+01	-1.519057e+03
2.700000e-07	-6.789670e-06	-2.308137e-08	-4.924567e+01	-1.514755e+03
2.800000e-07	-6.713703e-06	-2.299555e-08	-4.869468e+01	-1.510080e+03
2.900000e-07	-6.634949e-06	-2.292197e-08	-4.812348e+01	-1.505083e+03
3.000000e-07	-6.553515e-06	-2.285934e-08	-4.753283e+01	-1.499834e+03
3.100000e-07	-6.469821e-06	-2.280415e-08	-4.692580e+01	-1.494406e+03
3.200000e-07	-6.384019e-06	-2.268321e-08	-4.630347e+01	-1.488869e+03
3.300000e-07	-6.295979e-06	-2.263992e-08	-4.566492e+01	-1.483268e+03
3.400000e-07	-6.205584e-06	-2.253247e-08	-4.500928e+01	-1.477619e+03
3.500000e-07	-6.112994e-06	-2.242263e-08	-4.433772e+01	-1.471903e+03
3.600000e-07	-6.018293e-06	-2.233976e-08	-4.365085e+01	-1.466063e+03
3.700000e-07	-5.921266e-06	-2.224531e-08	-4.294711e+01	-1.460017e+03
3.800000e-07	-5.821989e-06	-2.214261e-08	-4.222706e+01	-1.453664e+03
3.900000e-07	-5.720730e-06	-2.202306e-08	-4.149262e+01	-1.446902e+03
4.000000e-07	-5.617499e-06	-2.192568e-08	-4.074388e+01	-1.439643e+03
4.100000e-07	-5.512283e-06	-2.178584e-08	-3.998075e+01	-1.431825e+03
4.200000e-07	-5.405086e-06	-2.166417e-08	-3.920324e+01	-1.423422e+03
4.300000e-07	-5.295936e-06	-2.153720e-08	-3.841158e+01	-1.414447e+03
4.400000e-07	-5.184883e-06	-2.140834e-08	-3.760611e+01	-1.404947e+03
4.500000e-07	-5.071978e-06	-2.125402e-08	-3.678721e+01	-1.394996e+03
4.600000e-07	-4.957102e-06	-2.109727e-08	-3.595400e+01	-1.384675e+03
4.700000e-07	-4.840258e-06	-2.094333e-08	-3.510653e+01	-1.374059e+03
4.800000e-07	-4.721660e-06	-2.077350e-08	-3.424634e+01	-1.363198e+03
4.900000e-07	-4.601370e-06	-2.060385e-08	-3.337387e+01	-1.352101e+03
5.000000e-07	-4.479330e-06	-2.042569e-08	-3.248871e+01	-1.340732e+03
5.100000e-07	-4.355536e-06	-2.024767e-08	-3.159083e+01	-1.329009e+03
5.200000e-07	-4.230213e-06	-2.004327e-08	-3.068186e+01	-1.316806e+03
5.300000e-07	-4.103430e-06	-1.983442e-08	-2.976229e+01	-1.303975e+03
5.400000e-07	-3.975159e-06	-1.961590e-08	-2.883194e+01	-1.290360e+03
5.500000e-07	-3.845355e-06	-1.938945e-08	-2.789047e+01	-1.275818e+03
5.600000e-07	-3.714020e-06	-1.914579e-08	-2.693789e+01	-1.260239e+03
5.700000e-07	-3.581294e-06	-1.889128e-08	-2.597523e+01	-1.243560e+03
5.800000e-07	-3.447258e-06	-1.862774e-08	-2.500307e+01	-1.225768e+03
5.900000e-07	-3.311928e-06	-1.834791e-08	-2.402151e+01	-1.206899e+03
6.000000e-07	-3.175363e-06	-1.806069e-08	-2.303100e+01	-1.187020e+03
6.100000e-07	-3.037598e-06	-1.775791e-08	-2.203178e+01	-1.166210e+03
6.200000e-07	-2.898478e-06	-1.743992e-08	-2.102275e+01	-1.144531e+03
6.300000e-07	-2.757983e-06	-1.709490e-08	-2.000373e+01	-1.122000e+03
6.400000e-07	-2.616414e-06	-1.672637e-08	-1.897693e+01	-1.098564e+03
6.500000e-07	-2.473907e-06	-1.633495e-08	-1.794332e+01	-1.074082e+03
6.600000e-07	-2.330515e-06	-1.592329e-08	-1.690329e+01	-1.048323e+03
6.700000e-07	-2.186289e-06	-1.548941e-08	-1.585722e+01	-1.020970e+03
6.800000e-07	-2.041157e-06	-1.502854e-08	-1.480457e+01	-9.916418e+02
6.900000e-07	-1.895215e-06	-1.453928e-08	-1.374605e+01	-9.599290e+02
7.000000e-07	-1.748725e-06	-1.401074e-08	-1.268355e+01	-9.254326e+02
7.100000e-07	-1.601752e-06	-1.344410e-08	-1.161756e+01	-8.878085e+02
7.200000e-07	-1.454309e-06	-1.282978e-08	-1.054814e+01	-8.468087e+02
7.300000e-07	-1.306453e-06	-1.216557e-08	-9.475738e+00	-8.023127e+02
7.400000e-07	-1.158214e-06	-1.145116e-08	-8.400561e+00	-7.543466e+02
7.500000e-07	-1.009570e-06	-1.069013e-08	-7.322437e+00	-7.030847e+02
7.600000e-07	-8.605174e-07	-9.880419e-09	-6.241358e+00	-6.488341e+02
7.700000e-07	-7.111960e-07	-9.019646e-09	-5.158325e+00	-5.920025e+02
7.800000e-07	-5.616965e-07	-8.115484e-09	-4.074001e+00	-5.330552e+02
7.900000e-07	-4.120077e-07	-7.171578e-09	-2.988304e+00	-4.724637e+02
8.000000e-07	-2.621791e-07	-6.199797e-09	-1.901593e+00	-4.106563e+02
8.100000e-07	-1.122554e-07	-5.210775e-09	-8.141916e-01	-3.479738e+02
8.200000e-07	3.775658e-08	-4.219879e-09	2.738496e-01	-2.846401e+02
8.300000e-07	1.878216e-07	-3.234505e-09	1.362275e+00	-2.207492e+02
8.400000e-07	3.378461e-07	-2.258774e-09	2.450407e+00	-1.562723e+02
8.500000e-07	4.877706e-07	-1.286945e-09	3.537815e+00	-9.108402e+01
8.600000e-07	6.375684e-07	-3.120837e-10	4.624302e+00	-2.500482e+01
8.700000e-07	7.871805e-07	6.722412e-10	5.709443e+00	4.214663e+01
8.800000e-07	9.365892e-07	1.678935e-09	6.793109e+00	1.104972e+02
8.900000e-07	1.085767e-06	2.715481e-09	7.875096e+00	1.800672e+02
9.000000e-07	1.234545e-06	3.788001e-09	8.954189e+00	2.507305e+02
9.100000e-07	1.382830e-06	4.893123e-09	1.002971e+01	3.221905e+02
9.200000e-07	1.530584e-06	6.022701e-09	1.110137e+01	3.939790e+02
9.300000e-07	1.677733e-06	7.154437e-09	1.216865e+01	4.654753e+02
9.400000e-07	1.824323e-06	8.261399e-09	1.323187e+01	5.359459e+02
9.500000e-07	1.970361e-06	9.322434e-09	1.429108e+01	6.046001e+02
9.600000e-07	2.115694e-06	1.032405e-08	1.534519e+01	6.706542e+02
9.700000e-07	2.260126e-06	1.126207e-08	1.639276e+01	7.333962e+02
9.800000e-07	2.403650e-06	1.212861e-08	1.743374e+01	7.922457e+02
9.900000e-07	2.546301e-06	1.292685e-08	1.846840e+01	8.467983e+02
1.000000e-06	2.687961e-06	1.365709e-08	1.949586e+01	8.968534e+02
1.010000e-06	2.828487e-06	1.432732e-08	2.051510e+01	9.424192e+02
1.020000e-06	2.967845e-06	1.494408e-08	2.152587e+01	9.836974e+02
1.030000e-06	3.106008e-06	1.551401e-08	2.252797e+01	1.021049e+03
1.040000e-06	3.242973e-06	1.604428e-08	2.352138e+01	1.054946e+03
1.050000e-06	3.378664e-06	1.653508e-08	2.450555e+01	1.085918e+03
1.060000e-06	3.513115e-06	1.698978e-08	2.548072e+01	1.114494e+03
1.070000e-06	3.646376e-06	1.740910e-08	2.644727e+01	1.141155e+03
1.080000e-06	3.778287e-06	1.780105e-08	2.740402e+01	1.166297e+03
1.090000e-06	3.908739e-06	1.816788e-08	2.835020e+01	1.190206e+03
1.100000e-06	4.037788e-06	1.851325e-08	2.928619e+01	1.213055e+03
1.110000e-06	4.165486e-06	1.883830e-08	3.021239e+01	1.234916e+03
1.120000e-06	4.291764e-06	1.914640e-08	3.112829e+01	1.255775e+03
1.130000e-06	4.416578e-06	1.943503e-08	3.203357e+01	1.275571e+03
1.140000e-06	4.539807e-06	1.970357e-08	3.292735e+01	1.294225e+03
1.150000e-06	4.661416e-06	1.995718e-08	3.380938e+01	1.311669e+03
1.160000e-06	4.781413e-06	2.019722e-08	3.467973e+01	1.327877e+03
1.170000e-06	4.899707e-06	2.042364e-08	3.553772e+01	1.342873e+03
1.180000e-06	5.016144e-06	2.063675e-08	3.638224e+01	1.356736e+03
1.190000e-06	5.130641e-06	2.083885e-08	3.721269e+01	1.369595e+03
1.200000e-06	5.243189e-06	2.103024e-08	3.802900e+01	1.381609e+03
1.210000e-06	5.353793e-06	2.121118e-08	3.883122e+01	1.392949e+03
1.220000e-06	5.462545e-06	2.138294e-08	3.962000e+01	1.403773e+03
1.230000e-06	5.569332e-06	2.154824e-08	4.039453e+01	1.414210e+03
1.240000e-06	5.674078e-06	2.170687e-08	4.115425e+01	1.424339e+03
1.250000e-06	5.776804e-06	2.185754e-08	4.189933e+01	1.434192e+03
1.260000e-06	5.877421e-06	2.199885e-08	4.262911e+01	1.443750e+03
1.270000e-06	5.975830e-06	2.212985e-08	4.334287e+01	1.452953e+03
1.280000e-06	6.071969e-06	2.225251e-08	4.404017e+01	1.461722e+03
1.290000e-06	6.165936e-06	2.236775e-08	4.472171e+01	1.469972e+03
1.300000e-06	6.257724e-06	2.247831e-08	4.538746e+01	1.477634e+03
1.310000e-06	6.347204e-06	2.258419e-08	4.603645e+01	1.484671e+03
1.320000e-06	6.434363e-06	2.268247e-08	4.666862e+01	1.491083e+03
1.330000e-06	6.519307e-06	2.277469e-08	4.728472e+01	1.496915e+03
1.340000e-06	6.601975e-06	2.286156e-08	4.788432e+01	1.502249e+03
1.350000e-06	6.682207e-06	2.294450e-08	4.846624e+01	1.507193e+03
1.360000e-06	6.759982e-06	2.302196e-08	4.903035e+01	1.511865e+03
1.370000e-06	6.835216e-06	2.309647e-08	4.957602e+01	1.516376e+03
1.380000e-06	6.907796e-06	2.316878e-08	5.010244e+01	1.520813e+03
1.390000e-06	6.977862e-06	2.323806e-08	5.061063e+01	1.525230e+03
1.400000e-06	7.045569e-06	2.330398e-08	5.110171e+01	1.529640e+03
1.410000e-06	7.110781e-06	2.336488e-08	5.157470e+01	1.534015e+03
1.420000e-06	7.173430e-06	2.342401e-08	5.202910e+01	1.538292e+03
1.430000e-06	7.233626e-06	2.347917e-08	5.246570e+01	1.542389e+03
1.440000e-06	7.291358e-06	2.352806e-08	5.288443e+01	1.546217e+03
1.450000e-06	7.346548e-06	2.357375e-08	5.328472e+01	1.549697e+03
1.460000e-06	7.398894e-06	2.361741e-08	5.366439e+01	1.552773e+03
1.470000e-06	7.448125e-06	2.365907e-08	5.402147e+01	1.555421e+03
1.480000e-06	7.494510e-06	2.369714e-08	5.435790e+01	1.557655e+03
1.490000e-06	7.538276e-06	2.373226e-08	5.467533e+01	1.559522e+03
1.500000e-06	7.579337e-06	2.376452e-08	5.497315e+01	1.561095e+03
1.510000e-06	7.617738e-06	2.379321e-08	5.525167e+01	1.562461e+03
1.520000e-06	7.653532e-06	2.381952e-08	5.551129e+01	1.563710e+03
1.530000e-06	7.686577e-06	2.384227e-08	5.575096e+01	1.564913e+03
1.540000e-06	7.716859e-06	2.386163e-08	5.597061e+01	1.566121e+03
1.550000e-06	7.744510e-06	2.387639e-08	5.617115e+01	1.567352e+03
1.560000e-06	7.769318e-06	2.388945e-08	5.635109e+01	1.568590e+03
1.570000e-06	7.791226e-06	2.390145e-08	5.650999e+01	1.569792e+03
1.580000e-06	7.810511e-06	2.391360e-08	5.664987e+01	1.570895e+03
1.590000e-06	7.827038e-06	2.392542e-08	5.676974e+01	1.571830e+03
1.600000e-06	7.840515e-06	2.393257e-08	5.686748e+01	1.572530e+03
1.610000e-06	7.850823e-06	2.393686e-08	5.694225e+01	1.572947e+03
1.620000e-06	7.858124e-06	2.393999e-08	5.699520e+01	1.573060e+03
1.630000e-06	7.862723e-06	2.394223e-08	5.702856e+01	1.572875e+03
1.640000e-06	7.864507e-06	2.394381e-08	5.704150e+01	1.572427e+03
1.650000e-06	7.863488e-06	2.394306e-08	5.703411e+01	1.571775e+03
1.660000e-06	7.859932e-06	2.392850e-08	5.700831e+01	1.570990e+03
1.670000e-06	7.853695e-06	2.392319e-08	5.696308e+01	1.570143e+03
1.680000e-06	7.844826e-06	2.391755e-08	5.689875e+01	1.569295e+03
1.690000e-06	7.833380e-06	2.390574e-08	5.681573e+01	1.568486e+03
1.700000e-06	7.819070e-06	2.389723e-08	5.671194e+01	1.567729e+03
1.710000e-06	7.802154e-06	2.389866e-08	5.658925e+01	1.567011e+03
1.720000e-06	7.783062e-06	2.391071e-08	5.645078e+01	1.566290e+03
1.730000e-06	7.761580e-06	2.382230e-08	5.629496e+01	1.565509e+03
1.740000e-06	7.737091e-06	2.371970e-08	5.611735e+01	1.564606e+03
1.750000e-06	7.708961e-06	2.377685e-08	5.591332e+01	1.563520e+03
1.760000e-06	7.677298e-06	2.378073e-08	5.568366e+01	1.562207e+03
1.770000e-06	7.643063e-06	2.372026e-08	5.543536e+01	1.560644e+03
1.780000e-06	7.606703e-06	2.375995e-08	5.517164e+01	1.558834e+03
1.790000e-06	7.568121e-06	2.384713e-08	5.489180e+01	1.556806e+03
1.800000e-06	7.527586e-06	2.362482e-08	5.459780e+01	1.554604e+03
1.810000e-06	7.484851e-06	2.363522e-08	5.428784e+01	1.552283e+03
1.820000e-06	7.439400e-06	2.370859e-08	5.395819e+01	1.549896e+03
1.830000e-06	7.391331e-06	2.352121e-08	5.360953e+01	1.547481e+03
1.840000e-06	7.340343e-06	2.366268e-08	5.323972e+01	1.545056e+03
1.850000e-06	7.286341e-06	2.353313e-08	5.284804e+01	1.542611e+03
1.860000e-06	7.229693e-06	2.351372e-08	5.243717e+01	1.540109e+03
1.870000e-06	7.170510e-06	2.349508e-08	5.200792e+01	1.537488e+03
1.880000e-06	7.108753e-06	2.331887e-08	5.155999e+01	1.534676e+03
1.890000e-06	7.044115e-06	2.343307e-08	5.109117e+01	1.531597e+03
1.900000e-06	6.976761e-06	2.327534e-08	5.060265e+01	1.528182e+03
1.910000e-06	6.906784e-06	2.324464e-08	5.009510e+01	1.524387e+03
1.920000e-06	6.834057e-06	2.320727e-08	4.956761e+01	1.520195e+03
1.930000e-06	6.758765e-06	2.310632e-08	4.902152e+01	1.515621e+03
1.940000e-06	6.680689e-06	2.309216e-08	4.845523e+01	1.510708e+03
1.950000e-06	6.599970e-06	2.294046e-08	4.786977e+01	1.505521e+03
1.960000e-06	6.516876e-06	2.294895e-08	4.726709e+01	1.500135e+03
1.970000e-06	6.431386e-06	2.281009e-08	4.664703e+01	1.494621e+03
1.980000e-06	6.343509e-06	2.274466e-08	4.600966e+01	1.489033e+03
1.990000e-06	6.253373e-06	2.268633e-08	4.535589e+01	1.483397e+03
2.000000e-06	6.161184e-06	2.256877e-08	4.468725e+01	1.477702e+03
2.010000e-06	6.066721e-06	2.249696e-08	4.400210e+01	1.471903e+03
2.020000e-06	5.970007e-06	2.236041e-08	4.330063e+01	1.465923e+03
2.030000e-06	5.871201e-06	2.228790e-08	4.258399e+01	1.459666e+03
2.040000e-06	5.770342e-06	2.215084e-08	4.185246e+01	1.453030e+03
2.050000e-06	5.667382e-06	2.206779e-08	4.110568e+01	1.445919e+03
2.060000e-06	5.562414e-06	2.194852e-08	4.034435e+01	1.438263e+03
2.070000e-06	5.455598e-06	2.182180e-08	3.956961e+01	1.430025e+03
2.080000e-06	5.346997e-06	2.168233e-08	3.878192e+01	1.421208e+03
2.090000e-06	5.236460e-06	2.154452e-08	3.798020e+01	1.411850e+03
2.100000e-06	5.123858e-06	2.141967e-08	3.716349e+01	1.402018e+03
2.110000e-06	5.009413e-06	2.126761e-08	3.633342e+01	1.391792e+03
2.120000e-06	4.893119e-06	2.112753e-08	3.548994e+01	1.381252e+03
2.130000e-06	4.774841e-06	2.095849e-08	3.463206e+01	1.370456e+03
2.140000e-06	4.654630e-06	2.079163e-08	3.376017e+01	1.359426e+03
2.150000e-06	4.532767e-06	2.060006e-08	3.287629e+01	1.348140e+03
2.160000e-06	4.409258e-06	2.042991e-08	3.198047e+01	1.336527e+03
2.170000e-06	4.284137e-06	2.024081e-08	3.107297e+01	1.324473e+03
2.180000e-06	4.157471e-06	2.004146e-08	3.015426e+01	1.311836e+03
2.190000e-06	4.029183e-06	1.982382e-08	2.922378e+01	1.298459e+03
2.200000e-06	3.899368e-06	1.960177e-08	2.828223e+01	1.284192e+03
2.210000e-06	3.768086e-06	1.936919e-08	2.733004e+01	1.268917e+03
2.220000e-06	3.635470e-06	1.912448e-08	2.636817e+01	1.252553e+03
2.230000e-06	3.501620e-06	1.887493e-08	2.539735e+01	1.235076e+03
2.240000e-06	3.366422e-06	1.860161e-08	2.441676e+01	1.216507e+03
2.250000e-06	3.229873e-06	1.831455e-08	2.342636e+01	1.196907e+03
2.260000e-06	3.092172e-06	1.800786e-08	2.242762e+01	1.176353e+03
2.270000e-06	2.953348e-06	1.769327e-08	2.142072e+01	1.154916e+03
2.280000e-06	2.813322e-06	1.735909e-08	2.040511e+01	1.132629e+03
2.290000e-06	2.672184e-06	1.701103e-08	1.938143e+01	1.109459e+03
2.300000e-06	2.530049e-06	1.663722e-08	1.835052e+01	1.085294e+03
2.310000e-06	2.386934e-06	1.623957e-08	1.731250e+01	1.059927e+03
2.320000e-06	2.242897e-06	1.581246e-08	1.626780e+01	1.033064e+03
2.330000e-06	2.098052e-06	1.535688e-08	1.521723e+01	1.004339e+03
2.340000e-06	1.952549e-06	1.487035e-08	1.416189e+01	9.733481e+02
2.350000e-06	1.806488e-06	1.434758e-08	1.310251e+01	9.396834e+02
2.360000e-06	1.659847e-06	1.379068e-08	1.203892e+01	9.029813e+02
2.370000e-06	1.512663e-06	1.319170e-08	1.097139e+01	8.629624e+02
2.380000e-06	1.365021e-06	1.254547e-08	9.900540e+00	8.194673e+02
2.390000e-06	1.217013e-06	1.185102e-08	8.827034e+00	7.724793e+02
2.400000e-06	1.068620e-06	1.110718e-08	7.750734e+00	7.221312e+02
2.410000e-06	9.197860e-07	1.031210e-08	6.671235e+00	6.686946e+02
2.420000e-06	7.705811e-07	9.467106e-09	5.589047e+00	6.125527e+02
2.430000e-06	6.210980e-07	8.573646e-09	4.504842e+00	5.541591e+02
2.440000e-06	4.714164e-07	7.636473e-09	3.419196e+00	4.939890e+02
2.450000e-06	3.216027e-07	6.663831e-09	2.332593e+00	4.324877e+02
2.460000e-06	1.716586e-07	5.672040e-09	1.245045e+00	3.700250e+02
2.470000e-06	2.164650e-08	4.676510e-09	1.570027e-01	3.068601e+02
2.480000e-06	-1.284068e-07	3.687289e-09	-9.313384e-01	2.431244e+02
2.490000e-06	-2.784388e-07	2.708263e-09	-2.019525e+00	1.788223e+02
2.500000e-06	-4.283793e-07	1.734991e-09	-3.107048e+00	1.138522e+02
2.510000e-06	-5.782344e-07	7.588697e-10	-4.193951e+00	4.804515e+01
2.520000e-06	-7.279458e-07	-2.308743e-10	-5.279812e+00	-1.878550e+01
2.530000e-06	-8.774938e-07	-1.241014e-09	-6.364488e+00	-8.678774e+01
2.540000e-06	-1.026709e-06	-2.276212e-09	-7.446752e+00	-1.560172e+02
2.550000e-06	-1.175479e-06	-3.341514e-09	-8.525782e+00	-2.263925e+02
2.560000e-06	-1.323753e-06	-4.437707e-09	-9.601217e+00	-2.976673e+02
2.570000e-06	-1.471509e-06	-5.559500e-09	-1.067289e+01	-3.694212e+02
2.580000e-06	-1.618812e-06	-6.692534e-09	-1.174129e+01	-4.410736e+02
2.590000e-06	-1.765572e-06	-7.816673e-09	-1.280575e+01	-5.119185e+02
2.600000e-06	-1.911699e-06	-8.905506e-09	-1.386561e+01	-5.811752e+02
2.610000e-06	-2.057171e-06	-9.937723e-09	-1.492072e+01	-6.480510e+02
2.620000e-06	-2.201817e-06	-1.090341e-08	-1.596984e+01	-7.118073e+02
2.630000e-06	-2.345465e-06	-1.179963e-08	-1.701173e+01	-7.718204e+02
2.640000e-06	-2.488131e-06	-1.262712e-08	-1.804648e+01	-8.276323e+02
2.650000e-06	-2.629895e-06	-1.338831e-08	-1.907471e+01	-8.789825e+02
2.660000e-06	-2.770581e-06	-1.408733e-08	-2.009511e+01	-9.258203e+02
2.670000e-06	-2.910027e-06	-1.472972e-08	-2.110651e+01	-9.682947e+02
2.680000e-06	-3.048387e-06	-1.532150e-08	-2.211004e+01	-1.006726e+03
2.690000e-06	-3.185659e-06	-1.586538e-08	-2.310568e+01	-1.041559e+03
2.700000e-06	-3.321655e-06	-1.636637e-08	-2.409206e+01	-1.073314e+03
2.710000e-06	-3.456360e-06	-1.683199e-08	-2.506908e+01	-1.102524e+03
2.720000e-06	-3.589866e-06	-1.726759e-08	-2.603740e+01	-1.129690e+03
2.730000e-06	-3.722107e-06	-1.767515e-08	-2.699655e+01	-1.155233e+03
2.740000e-06	-3.853048e-06	-1.805480e-08	-2.794627e+01	-1.179473e+03
2.750000e-06	-3.982701e-06	-1.840709e-08	-2.888664e+01	-1.202616e+03
2.760000e-06	-4.110991e-06	-1.873584e-08	-2.981714e+01	-1.224760e+03
2.770000e-06	-4.237781e-06	-1.904832e-08	-3.073675e+01	-1.245912e+03
2.780000e-06	-4.363098e-06	-1.934449e-08	-3.164567e+01	-1.266022e+03
2.790000e-06	-4.486964e-06	-1.962248e-08	-3.254408e+01	-1.285011e+03
2.800000e-06	-4.609228e-06	-1.988394e-08	-3.343086e+01	-1.302808e+03
2.810000e-06	-4.729786e-06	-2.012991e-08	-3.430528e+01	-1.319371e+03
2.820000e-06	-4.848532e-06	-2.036419e-08	-3.516654e+01	-1.334709e+03
2.830000e-06	-4.965422e-06	-2.058639e-08	-3.601435e+01	-1.348887e+03
2.840000e-06	-5.080302e-06	-2.079715e-08	-3.684758e+01	-1.362019e+03
2.850000e-06	-5.193084e-06	-2.099707e-08	-3.766559e+01	-1.374259e+03
2.860000e-06	-5.303836e-06	-2.118553e-08	-3.846888e+01	-1.385777e+03
2.870000e-06	-5.412683e-06	-2.136244e-08	-3.925834e+01	-1.396735e+03
2.880000e-06	-5.519760e-06	-2.152755e-08	-4.003498e+01	-1.407274e+03
2.890000e-06	-5.624894e-06	-2.168380e-08	-4.079752e+01	-1.417488e+03
2.900000e-06	-5.727898e-06	-2.183442e-08	-4.154461e+01	-1.427422e+03
2.910000e-06	-5.828747e-06	-2.197932e-08	-4.227607e+01	-1.437070e+03
2.920000e-06	-5.927468e-06	-2.211607e-08	-4.299210e+01	-1.446384e+03
2.930000e-06	-6.024110e-06	-2.224590e-08	-4.369304e+01	-1.455288e+03
2.940000e-06	-6.118623e-06	-2.236840e-08	-4.437855e+01	-1.463696e+03
