# Temperatura_=_39.81
# Concentracion g/m^3_=_28370.0
# C_Vs_to_Am_M_A/Vsm_=_65563218390.804596
# pendiente_HvsI_1/m_=_3716.3
# ordenada_HvsI_A/m_=_1297.0
# frecuencia_Hz_=_302506.67566366395

Tiempo_(s)	Campo_(V.s)	Magnetizacion_(V.s)	Campo_(kA/m)	Magnetizacion_(A/m)
0.000000e+00	-7.828913e-06	-2.396488e-08	-5.683773e+01	-1.567881e+03
1.000000e-08	-7.824551e-06	-2.396295e-08	-5.680607e+01	-1.567121e+03
2.000000e-08	-7.817711e-06	-2.395239e-08	-5.675641e+01	-1.566335e+03
3.000000e-08	-7.808189e-06	-2.394255e-08	-5.668728e+01	-1.565573e+03
4.000000e-08	-7.795871e-06	-2.393113e-08	-5.659785e+01	-1.564855e+03
5.000000e-08	-7.780670e-06	-2.391329e-08	-5.648749e+01	-1.564179e+03
6.000000e-08	-7.762792e-06	-2.388896e-08	-5.635769e+01	-1.563514e+03
7.000000e-08	-7.742772e-06	-2.385715e-08	-5.621235e+01	-1.562811e+03
8.000000e-08	-7.720434e-06	-2.385157e-08	-5.605018e+01	-1.562011e+03
9.000000e-08	-7.695127e-06	-2.391302e-08	-5.586645e+01	-1.561055e+03
1.000000e-07	-7.666654e-06	-2.387180e-08	-5.565973e+01	-1.559895e+03
1.100000e-07	-7.635256e-06	-2.379369e-08	-5.543179e+01	-1.558500e+03
1.200000e-07	-7.601076e-06	-2.377338e-08	-5.518364e+01	-1.556866e+03
1.300000e-07	-7.564357e-06	-2.373806e-08	-5.491706e+01	-1.555010e+03
1.400000e-07	-7.525376e-06	-2.364484e-08	-5.463406e+01	-1.552969e+03
1.500000e-07	-7.484198e-06	-2.357835e-08	-5.433511e+01	-1.550793e+03
1.600000e-07	-7.440637e-06	-2.370636e-08	-5.401886e+01	-1.548530e+03
1.700000e-07	-7.394435e-06	-2.363542e-08	-5.368343e+01	-1.546221e+03
1.800000e-07	-7.345546e-06	-2.352400e-08	-5.332850e+01	-1.543888e+03
1.900000e-07	-7.293764e-06	-2.357615e-08	-5.295257e+01	-1.541527e+03
2.000000e-07	-7.239079e-06	-2.344466e-08	-5.255555e+01	-1.539110e+03
2.100000e-07	-7.181812e-06	-2.338832e-08	-5.213980e+01	-1.536584e+03
2.200000e-07	-7.122002e-06	-2.337439e-08	-5.170558e+01	-1.533882e+03
2.300000e-07	-7.059584e-06	-2.332596e-08	-5.125242e+01	-1.530931e+03
2.400000e-07	-6.994467e-06	-2.328479e-08	-5.077968e+01	-1.527664e+03
2.500000e-07	-6.926637e-06	-2.318242e-08	-5.028723e+01	-1.524033e+03
2.600000e-07	-6.856186e-06	-2.316413e-08	-4.977576e+01	-1.520016e+03
2.700000e-07	-6.783050e-06	-2.308724e-08	-4.924479e+01	-1.515620e+03
2.800000e-07	-6.707181e-06	-2.300075e-08	-4.869398e+01	-1.510883e+03
2.900000e-07	-6.628626e-06	-2.293857e-08	-4.812367e+01	-1.505864e+03
3.000000e-07	-6.547405e-06	-2.287376e-08	-4.753402e+01	-1.500637e+03
3.100000e-07	-6.463809e-06	-2.280425e-08	-4.692711e+01	-1.495273e+03
3.200000e-07	-6.378084e-06	-2.268871e-08	-4.630475e+01	-1.489832e+03
3.300000e-07	-6.290136e-06	-2.264627e-08	-4.566625e+01	-1.484347e+03
3.400000e-07	-6.199884e-06	-2.255029e-08	-4.501102e+01	-1.478818e+03
3.500000e-07	-6.107414e-06	-2.243876e-08	-4.433969e+01	-1.473210e+03
3.600000e-07	-6.012766e-06	-2.235299e-08	-4.365254e+01	-1.467454e+03
3.700000e-07	-5.915870e-06	-2.226368e-08	-4.294908e+01	-1.461459e+03
3.800000e-07	-5.816759e-06	-2.216308e-08	-4.222954e+01	-1.455123e+03
3.900000e-07	-5.715578e-06	-2.204485e-08	-4.149497e+01	-1.448348e+03
4.000000e-07	-5.612396e-06	-2.194316e-08	-4.074587e+01	-1.441055e+03
4.100000e-07	-5.507264e-06	-2.180725e-08	-3.998261e+01	-1.433196e+03
4.200000e-07	-5.400225e-06	-2.168170e-08	-3.920551e+01	-1.424760e+03
4.300000e-07	-5.291277e-06	-2.155646e-08	-3.841455e+01	-1.415775e+03
4.400000e-07	-5.180374e-06	-2.143170e-08	-3.760940e+01	-1.406297e+03
4.500000e-07	-5.067526e-06	-2.128358e-08	-3.679012e+01	-1.396404e+03
4.600000e-07	-4.952757e-06	-2.112715e-08	-3.595691e+01	-1.386178e+03
4.700000e-07	-4.836079e-06	-2.096882e-08	-3.510983e+01	-1.375684e+03
4.800000e-07	-4.717575e-06	-2.079826e-08	-3.424949e+01	-1.364961e+03
4.900000e-07	-4.597381e-06	-2.062934e-08	-3.337688e+01	-1.354002e+03
5.000000e-07	-4.475516e-06	-2.045712e-08	-3.249214e+01	-1.342757e+03
5.100000e-07	-4.351904e-06	-2.028109e-08	-3.159473e+01	-1.331130e+03
5.200000e-07	-4.226691e-06	-2.007768e-08	-3.068568e+01	-1.318989e+03
5.300000e-07	-4.100024e-06	-1.986417e-08	-2.976608e+01	-1.306185e+03
5.400000e-07	-3.971905e-06	-1.964427e-08	-2.883594e+01	-1.292568e+03
5.500000e-07	-3.842299e-06	-1.942177e-08	-2.789500e+01	-1.278010e+03
5.600000e-07	-3.711155e-06	-1.918430e-08	-2.694290e+01	-1.262419e+03
5.700000e-07	-3.578552e-06	-1.893489e-08	-2.598021e+01	-1.245750e+03
5.800000e-07	-3.444612e-06	-1.867080e-08	-2.500781e+01	-1.228008e+03
5.900000e-07	-3.309373e-06	-1.839121e-08	-2.402598e+01	-1.209243e+03
6.000000e-07	-3.172906e-06	-1.810218e-08	-2.303522e+01	-1.189527e+03
6.100000e-07	-3.035283e-06	-1.779983e-08	-2.203608e+01	-1.168939e+03
6.200000e-07	-2.896403e-06	-1.748431e-08	-2.102782e+01	-1.147530e+03
6.300000e-07	-2.756169e-06	-1.714250e-08	-2.000972e+01	-1.125301e+03
6.400000e-07	-2.614777e-06	-1.677760e-08	-1.898322e+01	-1.102180e+03
6.500000e-07	-2.472410e-06	-1.638815e-08	-1.794964e+01	-1.078006e+03
6.600000e-07	-2.329141e-06	-1.598171e-08	-1.690952e+01	-1.052530e+03
6.700000e-07	-2.185084e-06	-1.555461e-08	-1.586366e+01	-1.025427e+03
6.800000e-07	-2.040259e-06	-1.509910e-08	-1.481224e+01	-9.963118e+02
6.900000e-07	-1.894645e-06	-1.461212e-08	-1.375508e+01	-9.647822e+02
7.000000e-07	-1.748359e-06	-1.408478e-08	-1.269305e+01	-9.304513e+02
7.100000e-07	-1.601521e-06	-1.352127e-08	-1.162700e+01	-8.929899e+02
7.200000e-07	-1.454203e-06	-1.291218e-08	-1.055748e+01	-8.521623e+02
7.300000e-07	-1.306494e-06	-1.225394e-08	-9.485117e+00	-8.078522e+02
7.400000e-07	-1.158366e-06	-1.154581e-08	-8.409714e+00	-7.600761e+02
7.500000e-07	-1.009841e-06	-1.078743e-08	-7.331420e+00	-7.089803e+02
7.600000e-07	-8.610061e-07	-9.977525e-09	-6.250885e+00	-6.548238e+02
7.700000e-07	-7.118383e-07	-9.114250e-09	-5.167930e+00	-5.979465e+02
7.800000e-07	-5.624291e-07	-8.200804e-09	-4.083222e+00	-5.387296e+02
7.900000e-07	-4.128393e-07	-7.241689e-09	-2.997204e+00	-4.775521e+02
8.000000e-07	-2.631166e-07	-6.249960e-09	-1.910220e+00	-4.147493e+02
8.100000e-07	-1.132747e-07	-5.236806e-09	-8.223721e-01	-3.505814e+02
8.200000e-07	3.666346e-08	-4.215937e-09	2.661759e-01	-2.852138e+02
8.300000e-07	1.866180e-07	-3.195241e-09	1.354842e+00	-2.187158e+02
8.400000e-07	3.365823e-07	-2.178348e-09	2.443580e+00	-1.510747e+02
8.500000e-07	4.864625e-07	-1.159962e-09	3.531707e+00	-8.222683e+01
8.600000e-07	6.361935e-07	-1.321335e-10	4.618750e+00	-1.209953e+01
8.700000e-07	7.856982e-07	9.121885e-10	5.704152e+00	5.934145e+01
8.800000e-07	9.349363e-07	1.983642e-09	6.787617e+00	1.320452e+02
8.900000e-07	1.083905e-06	3.090391e-09	7.869124e+00	2.058368e+02
9.000000e-07	1.232515e-06	4.233448e-09	8.948034e+00	2.803931e+02
9.100000e-07	1.380670e-06	5.402425e-09	1.002363e+01	3.552353e+02
9.200000e-07	1.528310e-06	6.582519e-09	1.109550e+01	4.297429e+02
9.300000e-07	1.675427e-06	7.746788e-09	1.216356e+01	5.031859e+02
9.400000e-07	1.822009e-06	8.866670e-09	1.322775e+01	5.747735e+02
9.500000e-07	1.967903e-06	9.921105e-09	1.428693e+01	6.437132e+02
9.600000e-07	2.112932e-06	1.090257e-08	1.533984e+01	7.092727e+02
9.700000e-07	2.257157e-06	1.181149e-08	1.638691e+01	7.708396e+02
9.800000e-07	2.400601e-06	1.264468e-08	1.742831e+01	8.279683e+02
9.900000e-07	2.543122e-06	1.340764e-08	1.846301e+01	8.804120e+02
1.000000e-06	2.684630e-06	1.410557e-08	1.949035e+01	9.281342e+02
1.010000e-06	2.825098e-06	1.474643e-08	2.051015e+01	9.712991e+02
1.020000e-06	2.964364e-06	1.533543e-08	2.152122e+01	1.010243e+03
1.030000e-06	3.102377e-06	1.587959e-08	2.252318e+01	1.045432e+03
1.040000e-06	3.239131e-06	1.638342e-08	2.351602e+01	1.077405e+03
1.050000e-06	3.374657e-06	1.685040e-08	2.449993e+01	1.106721e+03
1.060000e-06	3.508999e-06	1.728560e-08	2.547525e+01	1.133907e+03
1.070000e-06	3.642132e-06	1.768818e-08	2.644179e+01	1.159411e+03
1.080000e-06	3.773895e-06	1.806402e-08	2.739839e+01	1.183577e+03
1.090000e-06	3.904209e-06	1.841472e-08	2.834447e+01	1.206635e+03
1.100000e-06	4.033186e-06	1.874514e-08	2.928084e+01	1.228698e+03
1.110000e-06	4.160747e-06	1.905563e-08	3.020693e+01	1.249787e+03
1.120000e-06	4.286880e-06	1.934828e-08	3.112265e+01	1.269856e+03
1.130000e-06	4.411632e-06	1.962321e-08	3.202835e+01	1.288825e+03
1.140000e-06	4.534805e-06	1.988138e-08	3.292258e+01	1.306617e+03
1.150000e-06	4.656323e-06	2.012508e-08	3.380480e+01	1.323179e+03
1.160000e-06	4.776255e-06	2.035460e-08	3.467550e+01	1.338510e+03
1.170000e-06	4.894471e-06	2.057013e-08	3.553375e+01	1.352663e+03
1.180000e-06	5.010862e-06	2.077161e-08	3.637874e+01	1.365747e+03
1.190000e-06	5.125305e-06	2.096423e-08	3.720960e+01	1.377910e+03
1.200000e-06	5.237761e-06	2.114797e-08	3.802603e+01	1.389325e+03
1.210000e-06	5.348269e-06	2.132342e-08	3.882831e+01	1.400161e+03
1.220000e-06	5.456895e-06	2.148852e-08	3.961694e+01	1.410568e+03
1.230000e-06	5.563606e-06	2.164523e-08	4.039166e+01	1.420653e+03
1.240000e-06	5.668266e-06	2.179603e-08	4.115148e+01	1.430472e+03
1.250000e-06	5.770890e-06	2.193954e-08	4.189653e+01	1.440032e+03
1.260000e-06	5.871422e-06	2.207658e-08	4.262639e+01	1.449289e+03
1.270000e-06	5.969722e-06	2.220361e-08	4.334005e+01	1.458171e+03
1.280000e-06	6.065749e-06	2.232152e-08	4.403721e+01	1.466590e+03
1.290000e-06	6.159606e-06	2.243120e-08	4.471860e+01	1.474463e+03
1.300000e-06	6.251321e-06	2.253430e-08	4.538445e+01	1.481730e+03
1.310000e-06	6.340786e-06	2.263391e-08	4.603396e+01	1.488370e+03
1.320000e-06	6.427925e-06	2.272731e-08	4.666659e+01	1.494402e+03
1.330000e-06	6.512827e-06	2.281427e-08	4.728297e+01	1.499889e+03
1.340000e-06	6.595449e-06	2.289704e-08	4.788281e+01	1.504927e+03
1.350000e-06	6.675639e-06	2.297745e-08	4.846499e+01	1.509632e+03
1.360000e-06	6.753344e-06	2.305303e-08	4.902912e+01	1.514123e+03
1.370000e-06	6.828470e-06	2.312526e-08	4.957454e+01	1.518504e+03
1.380000e-06	6.900989e-06	2.319557e-08	5.010103e+01	1.522852e+03
1.390000e-06	6.971047e-06	2.326253e-08	5.060965e+01	1.527204e+03
1.400000e-06	7.038679e-06	2.332520e-08	5.110065e+01	1.531556e+03
1.410000e-06	7.103776e-06	2.338382e-08	5.157326e+01	1.535864e+03
1.420000e-06	7.166353e-06	2.343890e-08	5.202756e+01	1.540056e+03
1.430000e-06	7.226482e-06	2.349042e-08	5.246410e+01	1.544044e+03
1.440000e-06	7.284093e-06	2.353980e-08	5.288235e+01	1.547738e+03
1.450000e-06	7.339136e-06	2.358651e-08	5.328196e+01	1.551066e+03
1.460000e-06	7.391360e-06	2.363158e-08	5.366111e+01	1.553983e+03
1.470000e-06	7.440529e-06	2.367196e-08	5.401807e+01	1.556477e+03
1.480000e-06	7.486911e-06	2.370721e-08	5.435480e+01	1.558574e+03
1.490000e-06	7.530750e-06	2.374034e-08	5.467307e+01	1.560332e+03
1.500000e-06	7.571924e-06	2.377051e-08	5.497200e+01	1.561830e+03
1.510000e-06	7.610283e-06	2.379788e-08	5.525048e+01	1.563158e+03
1.520000e-06	7.646018e-06	2.382326e-08	5.550992e+01	1.564397e+03
1.530000e-06	7.679069e-06	2.384580e-08	5.574987e+01	1.565614e+03
1.540000e-06	7.709345e-06	2.386439e-08	5.596967e+01	1.566848e+03
1.550000e-06	7.736996e-06	2.387827e-08	5.617042e+01	1.568105e+03
1.560000e-06	7.761792e-06	2.389109e-08	5.635043e+01	1.569360e+03
1.570000e-06	7.783695e-06	2.390394e-08	5.650945e+01	1.570561e+03
1.580000e-06	7.802941e-06	2.391509e-08	5.664918e+01	1.571645e+03
1.590000e-06	7.819404e-06	2.392607e-08	5.676870e+01	1.572540e+03
1.600000e-06	7.832912e-06	2.393508e-08	5.686676e+01	1.573189e+03
1.610000e-06	7.843267e-06	2.394054e-08	5.694194e+01	1.573552e+03
1.620000e-06	7.850541e-06	2.394377e-08	5.699475e+01	1.573616e+03
1.630000e-06	7.855133e-06	2.394629e-08	5.702809e+01	1.573398e+03
1.640000e-06	7.856980e-06	2.394932e-08	5.704150e+01	1.572940e+03
1.650000e-06	7.856053e-06	2.394858e-08	5.703477e+01	1.572304e+03
1.660000e-06	7.852557e-06	2.393495e-08	5.700939e+01	1.571559e+03
1.670000e-06	7.846353e-06	2.392860e-08	5.696435e+01	1.570774e+03
1.680000e-06	7.837489e-06	2.392177e-08	5.690000e+01	1.569999e+03
1.690000e-06	7.826013e-06	2.390931e-08	5.681668e+01	1.569266e+03
1.700000e-06	7.811764e-06	2.389940e-08	5.671323e+01	1.568578e+03
1.710000e-06	7.794957e-06	2.389999e-08	5.659121e+01	1.567912e+03
1.720000e-06	7.775883e-06	2.390961e-08	5.645274e+01	1.567225e+03
1.730000e-06	7.754406e-06	2.383921e-08	5.629681e+01	1.566457e+03
1.740000e-06	7.729910e-06	2.374839e-08	5.611897e+01	1.565549e+03
1.750000e-06	7.701779e-06	2.378606e-08	5.591474e+01	1.564449e+03
1.760000e-06	7.670170e-06	2.378436e-08	5.568526e+01	1.563121e+03
1.770000e-06	7.635992e-06	2.373455e-08	5.543713e+01	1.561553e+03
1.780000e-06	7.599659e-06	2.377245e-08	5.517335e+01	1.559755e+03
1.790000e-06	7.561084e-06	2.385324e-08	5.489330e+01	1.557761e+03
1.800000e-06	7.520589e-06	2.367324e-08	5.459931e+01	1.555616e+03
1.810000e-06	7.477909e-06	2.366642e-08	5.428945e+01	1.553371e+03
1.820000e-06	7.432473e-06	2.371812e-08	5.395959e+01	1.551071e+03
1.830000e-06	7.384421e-06	2.355638e-08	5.361073e+01	1.548742e+03
1.840000e-06	7.333559e-06	2.368440e-08	5.324147e+01	1.546389e+03
1.850000e-06	7.279700e-06	2.359401e-08	5.285046e+01	1.543990e+03
1.860000e-06	7.223095e-06	2.355924e-08	5.243951e+01	1.541500e+03
1.870000e-06	7.163904e-06	2.351661e-08	5.200979e+01	1.538854e+03
1.880000e-06	7.102168e-06	2.334045e-08	5.156158e+01	1.535979e+03
1.890000e-06	7.037621e-06	2.342031e-08	5.109297e+01	1.532807e+03
1.900000e-06	6.970343e-06	2.329285e-08	5.060453e+01	1.529282e+03
1.910000e-06	6.900419e-06	2.327286e-08	5.009689e+01	1.525374e+03
1.920000e-06	6.827736e-06	2.325370e-08	4.956921e+01	1.521081e+03
1.930000e-06	6.752464e-06	2.314665e-08	4.902274e+01	1.516435e+03
1.940000e-06	6.674470e-06	2.310883e-08	4.845650e+01	1.511487e+03
1.950000e-06	6.593852e-06	2.297195e-08	4.787121e+01	1.506310e+03
1.960000e-06	6.510842e-06	2.296727e-08	4.726857e+01	1.500977e+03
1.970000e-06	6.425455e-06	2.284148e-08	4.664866e+01	1.495552e+03
1.980000e-06	6.337707e-06	2.276446e-08	4.601161e+01	1.490076e+03
1.990000e-06	6.247692e-06	2.270992e-08	4.535811e+01	1.484560e+03
2.000000e-06	6.155553e-06	2.259685e-08	4.468918e+01	1.478978e+03
2.010000e-06	6.061208e-06	2.252290e-08	4.400423e+01	1.473271e+03
2.020000e-06	5.964664e-06	2.239767e-08	4.330332e+01	1.467352e+03
2.030000e-06	5.866011e-06	2.232014e-08	4.258711e+01	1.461122e+03
2.040000e-06	5.765334e-06	2.218627e-08	4.185619e+01	1.454480e+03
2.050000e-06	5.662548e-06	2.209227e-08	4.110997e+01	1.447340e+03
2.060000e-06	5.557705e-06	2.197980e-08	4.034881e+01	1.439644e+03
2.070000e-06	5.450980e-06	2.185464e-08	3.957400e+01	1.431370e+03
2.080000e-06	5.342452e-06	2.171620e-08	3.878608e+01	1.422534e+03
2.090000e-06	5.232016e-06	2.157381e-08	3.798432e+01	1.413188e+03
2.100000e-06	5.119586e-06	2.144914e-08	3.716808e+01	1.403403e+03
2.110000e-06	5.005233e-06	2.130159e-08	3.633788e+01	1.393263e+03
2.120000e-06	4.888954e-06	2.116682e-08	3.549370e+01	1.382839e+03
2.130000e-06	4.770813e-06	2.100449e-08	3.463599e+01	1.372178e+03
2.140000e-06	4.650769e-06	2.083170e-08	3.376448e+01	1.361288e+03
2.150000e-06	4.528998e-06	2.063623e-08	3.288042e+01	1.350131e+03
2.160000e-06	4.405611e-06	2.045721e-08	3.198464e+01	1.338623e+03
2.170000e-06	4.280605e-06	2.027088e-08	3.107709e+01	1.326641e+03
2.180000e-06	4.154044e-06	2.007586e-08	3.015827e+01	1.314041e+03
2.190000e-06	4.025943e-06	1.986401e-08	2.922825e+01	1.300669e+03
2.200000e-06	3.896331e-06	1.964205e-08	2.828727e+01	1.286389e+03
2.210000e-06	3.765216e-06	1.940791e-08	2.733539e+01	1.271098e+03
2.220000e-06	3.632758e-06	1.916391e-08	2.637374e+01	1.254736e+03
2.230000e-06	3.499051e-06	1.891799e-08	2.540303e+01	1.237296e+03
2.240000e-06	3.364030e-06	1.865140e-08	2.442278e+01	1.218814e+03
2.250000e-06	3.227657e-06	1.836819e-08	2.343271e+01	1.199360e+03
2.260000e-06	3.090015e-06	1.806123e-08	2.243344e+01	1.179013e+03
2.270000e-06	2.951243e-06	1.774497e-08	2.142596e+01	1.157834e+03
2.280000e-06	2.811377e-06	1.741372e-08	2.041053e+01	1.135841e+03
2.290000e-06	2.670433e-06	1.707022e-08	1.938728e+01	1.112985e+03
2.300000e-06	2.528508e-06	1.670279e-08	1.835691e+01	1.089132e+03
2.310000e-06	2.385618e-06	1.630828e-08	1.731953e+01	1.064057e+03
2.320000e-06	2.241847e-06	1.588360e-08	1.627576e+01	1.037453e+03
2.330000e-06	2.097262e-06	1.542898e-08	1.522607e+01	1.008952e+03
2.340000e-06	1.951921e-06	1.494444e-08	1.417091e+01	9.781517e+02
2.350000e-06	1.805928e-06	1.442666e-08	1.311100e+01	9.446562e+02
2.360000e-06	1.659344e-06	1.387628e-08	1.204680e+01	9.081161e+02
2.370000e-06	1.512249e-06	1.328369e-08	1.097890e+01	8.682659e+02
2.380000e-06	1.364676e-06	1.264253e-08	9.907517e+00	8.249532e+02
2.390000e-06	1.216728e-06	1.195291e-08	8.833416e+00	7.781560e+02
2.400000e-06	1.068426e-06	1.121164e-08	7.756746e+00	7.279849e+02
2.410000e-06	9.197123e-07	1.041590e-08	6.677091e+00	6.746693e+02
2.420000e-06	7.706505e-07	9.567434e-09	5.594906e+00	6.185296e+02
2.430000e-06	6.213167e-07	8.668351e-09	4.510745e+00	5.599397e+02
2.440000e-06	4.718159e-07	7.720613e-09	3.425373e+00	4.992837e+02
2.450000e-06	3.221520e-07	6.730585e-09	2.338816e+00	4.369132e+02
2.460000e-06	1.722616e-07	5.716121e-09	1.250615e+00	3.731122e+02
2.470000e-06	2.229850e-08	4.691610e-09	1.618866e-01	3.080744e+02
2.480000e-06	-1.276819e-07	3.665809e-09	-9.269677e-01	2.418957e+02
2.490000e-06	-2.776554e-07	2.643105e-09	-2.015772e+00	1.745843e+02
2.500000e-06	-4.275020e-07	1.620129e-09	-3.103655e+00	1.060873e+02
2.510000e-06	-5.772197e-07	5.898067e-10	-4.190602e+00	3.632981e+01
2.520000e-06	-7.267797e-07	-4.571632e-10	-5.276404e+00	-3.473833e+01
2.530000e-06	-8.760910e-07	-1.528099e-09	-6.360401e+00	-1.070949e+02
2.540000e-06	-1.025040e-06	-2.630124e-09	-7.441771e+00	-1.806038e+02
2.550000e-06	-1.173558e-06	-3.765343e-09	-8.520005e+00	-2.549856e+02
2.560000e-06	-1.321651e-06	-4.927455e-09	-9.595154e+00	-3.298055e+02
2.570000e-06	-1.469344e-06	-6.106497e-09	-1.066740e+01	-4.044810e+02
2.580000e-06	-1.616549e-06	-7.283060e-09	-1.173611e+01	-4.783091e+02
2.590000e-06	-1.763151e-06	-8.429469e-09	-1.280044e+01	-5.505106e+02
2.600000e-06	-1.909105e-06	-9.520841e-09	-1.386006e+01	-6.202872e+02
2.610000e-06	-2.054415e-06	-1.054062e-08	-1.491501e+01	-6.868831e+02
2.620000e-06	-2.198971e-06	-1.148125e-08	-1.596448e+01	-7.496460e+02
2.630000e-06	-2.342531e-06	-1.234580e-08	-1.700672e+01	-8.080789e+02
2.640000e-06	-2.485121e-06	-1.313888e-08	-1.804193e+01	-8.618760e+02
2.650000e-06	-2.626738e-06	-1.386666e-08	-1.907006e+01	-9.109406e+02
2.660000e-06	-2.767275e-06	-1.453477e-08	-2.009036e+01	-9.553819e+02
2.670000e-06	-2.906715e-06	-1.514626e-08	-2.110269e+01	-9.954911e+02
2.680000e-06	-3.044998e-06	-1.570808e-08	-2.210662e+01	-1.031702e+03
2.690000e-06	-3.182132e-06	-1.622456e-08	-2.310221e+01	-1.064538e+03
2.700000e-06	-3.318019e-06	-1.670218e-08	-2.408874e+01	-1.094559e+03
2.710000e-06	-3.452636e-06	-1.714692e-08	-2.506606e+01	-1.122306e+03
2.720000e-06	-3.586003e-06	-1.756105e-08	-2.603430e+01	-1.148252e+03
2.730000e-06	-3.718149e-06	-1.794909e-08	-2.699368e+01	-1.172774e+03
2.740000e-06	-3.849020e-06	-1.831050e-08	-2.794380e+01	-1.196134e+03
2.750000e-06	-3.978543e-06	-1.864593e-08	-2.888413e+01	-1.218477e+03
2.760000e-06	-4.106690e-06	-1.896141e-08	-2.981448e+01	-1.239849e+03
2.770000e-06	-4.233373e-06	-1.926053e-08	-3.073420e+01	-1.260218e+03
2.780000e-06	-4.358650e-06	-1.954308e-08	-3.164370e+01	-1.279512e+03
2.790000e-06	-4.482415e-06	-1.980828e-08	-3.254223e+01	-1.297649e+03
2.800000e-06	-4.604584e-06	-2.005709e-08	-3.342918e+01	-1.314566e+03
2.810000e-06	-4.725064e-06	-2.029204e-08	-3.430386e+01	-1.330248e+03
2.820000e-06	-4.843708e-06	-2.051629e-08	-3.516521e+01	-1.344731e+03
2.830000e-06	-4.960509e-06	-2.072938e-08	-3.601318e+01	-1.358108e+03
2.840000e-06	-5.075305e-06	-2.093099e-08	-3.684660e+01	-1.370519e+03
2.850000e-06	-5.188007e-06	-2.112066e-08	-3.766481e+01	-1.382132e+03
2.860000e-06	-5.298733e-06	-2.129885e-08	-3.846869e+01	-1.393119e+03
2.870000e-06	-5.407542e-06	-2.146758e-08	-3.925864e+01	-1.403637e+03
2.880000e-06	-5.514464e-06	-2.162759e-08	-4.003489e+01	-1.413808e+03
2.890000e-06	-5.619478e-06	-2.178021e-08	-4.079729e+01	-1.423702e+03
2.900000e-06	-5.722376e-06	-2.192583e-08	-4.154432e+01	-1.433340e+03
2.910000e-06	-5.823129e-06	-2.206373e-08	-4.227578e+01	-1.442692e+03
2.920000e-06	-5.921842e-06	-2.219259e-08	-4.299244e+01	-1.451692e+03
2.930000e-06	-6.018479e-06	-2.231418e-08	-4.369402e+01	-1.460254e+03
2.940000e-06	-6.112940e-06	-2.242947e-08	-4.437981e+01	-1.468292e+03
