# Temperatura_=_65.68
# Concentracion g/m^3_=_28370.0
# C_Vs_to_Am_M_A/Vsm_=_65563218390.804596
# pendiente_HvsI_1/m_=_3716.3
# ordenada_HvsI_A/m_=_1297.0
# frecuencia_Hz_=_302508.0443655708

Tiempo_(s)	Campo_(V.s)	Magnetizacion_(V.s)	Campo_(kA/m)	Magnetizacion_(A/m)
0.000000e+00	-7.879683e-06	-2.575584e-08	-5.683850e+01	-1.686387e+03
1.000000e-08	-7.875393e-06	-2.575115e-08	-5.680755e+01	-1.685605e+03
2.000000e-08	-7.868522e-06	-2.574211e-08	-5.675799e+01	-1.684810e+03
3.000000e-08	-7.859006e-06	-2.573133e-08	-5.668935e+01	-1.684036e+03
4.000000e-08	-7.846700e-06	-2.571761e-08	-5.660058e+01	-1.683290e+03
5.000000e-08	-7.831456e-06	-2.569932e-08	-5.649062e+01	-1.682550e+03
6.000000e-08	-7.813526e-06	-2.567892e-08	-5.636129e+01	-1.681772e+03
7.000000e-08	-7.793379e-06	-2.565427e-08	-5.621596e+01	-1.680896e+03
8.000000e-08	-7.770855e-06	-2.565023e-08	-5.605349e+01	-1.679856e+03
9.000000e-08	-7.745437e-06	-2.566037e-08	-5.587014e+01	-1.678598e+03
1.000000e-07	-7.716874e-06	-2.562953e-08	-5.566411e+01	-1.677081e+03
1.100000e-07	-7.685363e-06	-2.557758e-08	-5.543681e+01	-1.675291e+03
1.200000e-07	-7.651066e-06	-2.554173e-08	-5.518942e+01	-1.673239e+03
1.300000e-07	-7.614196e-06	-2.550252e-08	-5.492347e+01	-1.670964e+03
1.400000e-07	-7.575087e-06	-2.543955e-08	-5.464136e+01	-1.668517e+03
1.500000e-07	-7.533671e-06	-2.540356e-08	-5.434261e+01	-1.665960e+03
1.600000e-07	-7.489774e-06	-2.540935e-08	-5.402597e+01	-1.663350e+03
1.700000e-07	-7.443372e-06	-2.533968e-08	-5.369126e+01	-1.660725e+03
1.800000e-07	-7.394258e-06	-2.529260e-08	-5.333699e+01	-1.658099e+03
1.900000e-07	-7.342182e-06	-2.527573e-08	-5.296134e+01	-1.655457e+03
2.000000e-07	-7.287288e-06	-2.521707e-08	-5.256538e+01	-1.652753e+03
2.100000e-07	-7.229704e-06	-2.515875e-08	-5.215001e+01	-1.649917e+03
2.200000e-07	-7.169461e-06	-2.507820e-08	-5.171546e+01	-1.646866e+03
2.300000e-07	-7.106668e-06	-2.502568e-08	-5.126252e+01	-1.643515e+03
2.400000e-07	-7.041168e-06	-2.497103e-08	-5.079004e+01	-1.639790e+03
2.500000e-07	-6.972961e-06	-2.490741e-08	-5.029804e+01	-1.635642e+03
2.600000e-07	-6.902115e-06	-2.484776e-08	-4.978701e+01	-1.631054e+03
2.700000e-07	-6.828469e-06	-2.477448e-08	-4.925578e+01	-1.626042e+03
2.800000e-07	-6.752108e-06	-2.468433e-08	-4.870497e+01	-1.620656e+03
2.900000e-07	-6.673037e-06	-2.458776e-08	-4.813460e+01	-1.614968e+03
3.000000e-07	-6.591312e-06	-2.451079e-08	-4.754510e+01	-1.609060e+03
3.100000e-07	-6.507326e-06	-2.444165e-08	-4.693928e+01	-1.603014e+03
3.200000e-07	-6.421174e-06	-2.435875e-08	-4.631784e+01	-1.596889e+03
3.300000e-07	-6.332686e-06	-2.426439e-08	-4.567955e+01	-1.590719e+03
3.400000e-07	-6.241826e-06	-2.415512e-08	-4.502415e+01	-1.584497e+03
3.500000e-07	-6.148762e-06	-2.405175e-08	-4.435285e+01	-1.578178e+03
3.600000e-07	-6.053525e-06	-2.394696e-08	-4.366588e+01	-1.571685e+03
3.700000e-07	-5.956010e-06	-2.382882e-08	-4.296248e+01	-1.564917e+03
3.800000e-07	-5.856319e-06	-2.371499e-08	-4.224337e+01	-1.557767e+03
3.900000e-07	-5.754622e-06	-2.359733e-08	-4.150980e+01	-1.550134e+03
4.000000e-07	-5.650892e-06	-2.347057e-08	-4.076156e+01	-1.541942e+03
4.100000e-07	-5.545141e-06	-2.333513e-08	-3.999875e+01	-1.533148e+03
4.200000e-07	-5.437432e-06	-2.320387e-08	-3.922181e+01	-1.523750e+03
4.300000e-07	-5.327857e-06	-2.306354e-08	-3.843142e+01	-1.513786e+03
4.400000e-07	-5.216359e-06	-2.291070e-08	-3.762715e+01	-1.503323e+03
4.500000e-07	-5.102765e-06	-2.275369e-08	-3.680776e+01	-1.492445e+03
4.600000e-07	-4.987148e-06	-2.258789e-08	-3.597378e+01	-1.481235e+03
4.700000e-07	-4.869693e-06	-2.241295e-08	-3.512655e+01	-1.469757e+03
4.800000e-07	-4.750498e-06	-2.222971e-08	-3.426676e+01	-1.458043e+03
4.900000e-07	-4.629595e-06	-2.204578e-08	-3.339465e+01	-1.446075e+03
5.000000e-07	-4.506992e-06	-2.185170e-08	-3.251028e+01	-1.433790e+03
5.100000e-07	-4.382658e-06	-2.164530e-08	-3.161342e+01	-1.421077e+03
5.200000e-07	-4.256763e-06	-2.143030e-08	-3.070530e+01	-1.407796e+03
5.300000e-07	-4.129431e-06	-2.120532e-08	-2.978682e+01	-1.393790e+03
5.400000e-07	-4.000575e-06	-2.096878e-08	-2.885734e+01	-1.378906e+03
5.500000e-07	-3.870099e-06	-2.072118e-08	-2.791618e+01	-1.363021e+03
5.600000e-07	-3.738040e-06	-2.046424e-08	-2.696360e+01	-1.346050e+03
5.700000e-07	-3.604682e-06	-2.019486e-08	-2.600164e+01	-1.327961e+03
5.800000e-07	-3.470072e-06	-1.991134e-08	-2.503066e+01	-1.308774e+03
5.900000e-07	-3.334076e-06	-1.961312e-08	-2.404968e+01	-1.288547e+03
6.000000e-07	-3.196736e-06	-1.930311e-08	-2.305901e+01	-1.267363e+03
6.100000e-07	-3.058096e-06	-1.897712e-08	-2.205896e+01	-1.245301e+03
6.200000e-07	-2.918164e-06	-1.863220e-08	-2.104959e+01	-1.222407e+03
6.300000e-07	-2.776916e-06	-1.826667e-08	-2.003072e+01	-1.198669e+03
6.400000e-07	-2.634454e-06	-1.788030e-08	-1.900310e+01	-1.173995e+03
6.500000e-07	-2.491029e-06	-1.747230e-08	-1.796853e+01	-1.148203e+03
6.600000e-07	-2.346769e-06	-1.703952e-08	-1.692794e+01	-1.121019e+03
6.700000e-07	-2.201686e-06	-1.658025e-08	-1.588142e+01	-1.092092e+03
6.800000e-07	-2.055887e-06	-1.609131e-08	-1.482972e+01	-1.061019e+03
6.900000e-07	-1.909420e-06	-1.557160e-08	-1.377322e+01	-1.027381e+03
7.000000e-07	-1.762274e-06	-1.501366e-08	-1.271180e+01	-9.907810e+02
7.100000e-07	-1.614580e-06	-1.441464e-08	-1.164645e+01	-9.508847e+02
7.200000e-07	-1.466441e-06	-1.376889e-08	-1.057787e+01	-9.074529e+02
7.300000e-07	-1.317850e-06	-1.306960e-08	-9.506046e+00	-8.603650e+02
7.400000e-07	-1.168893e-06	-1.231610e-08	-8.431574e+00	-8.096287e+02
7.500000e-07	-1.019560e-06	-1.150860e-08	-7.354387e+00	-7.553743e+02
7.600000e-07	-8.698504e-07	-1.064732e-08	-6.274490e+00	-6.978342e+02
7.700000e-07	-7.198248e-07	-9.726854e-09	-5.192311e+00	-6.373116e+02
7.800000e-07	-5.695545e-07	-8.750434e-09	-4.108366e+00	-5.741411e+02
7.900000e-07	-4.191041e-07	-7.723483e-09	-3.023122e+00	-5.086491e+02
8.000000e-07	-2.685263e-07	-6.655511e-09	-1.936960e+00	-4.411178e+02
8.100000e-07	-1.178527e-07	-5.559453e-09	-8.501064e-01	-3.717603e+02
8.200000e-07	3.293408e-08	-4.449734e-09	2.375633e-01	-3.007097e+02
8.300000e-07	1.837499e-07	-3.338749e-09	1.325443e+00	-2.280241e+02
8.400000e-07	3.345100e-07	-2.223544e-09	2.412921e+00	-1.537084e+02
8.500000e-07	4.851621e-07	-1.101563e-09	3.499619e+00	-7.774895e+01
8.600000e-07	6.356933e-07	3.452038e-11	4.585445e+00	-1.569953e-01
8.700000e-07	7.860578e-07	1.193992e-09	5.670069e+00	7.898579e+01
8.800000e-07	9.362189e-07	2.386149e-09	6.753226e+00	1.594862e+02
8.900000e-07	1.086141e-06	3.616584e-09	7.834656e+00	2.410093e+02
9.000000e-07	1.235701e-06	4.878719e-09	8.913478e+00	3.230651e+02
9.100000e-07	1.384790e-06	6.163331e-09	9.988900e+00	4.050136e+02
9.200000e-07	1.533322e-06	7.449332e-09	1.106031e+01	4.860911e+02
9.300000e-07	1.681258e-06	8.704979e-09	1.212742e+01	5.654528e+02
9.400000e-07	1.828655e-06	9.901246e-09	1.319063e+01	6.422310e+02
9.500000e-07	1.975442e-06	1.101842e-08	1.424945e+01	7.155979e+02
9.600000e-07	2.121494e-06	1.204973e-08	1.530297e+01	7.848303e+02
9.700000e-07	2.266844e-06	1.299757e-08	1.635142e+01	8.493644e+02
9.800000e-07	2.411412e-06	1.386314e-08	1.739423e+01	9.088376e+02
9.900000e-07	2.555029e-06	1.465234e-08	1.843019e+01	9.631105e+02
1.000000e-06	2.697615e-06	1.537323e-08	1.945870e+01	1.012267e+03
1.010000e-06	2.838983e-06	1.603306e-08	2.047843e+01	1.056593e+03
1.020000e-06	2.979129e-06	1.664183e-08	2.148934e+01	1.096538e+03
1.030000e-06	3.118180e-06	1.720493e-08	2.249236e+01	1.132663e+03
1.040000e-06	3.256054e-06	1.772701e-08	2.348689e+01	1.165576e+03
1.050000e-06	3.392586e-06	1.821025e-08	2.447173e+01	1.195882e+03
1.060000e-06	3.527808e-06	1.865923e-08	2.544713e+01	1.224123e+03
1.070000e-06	3.661744e-06	1.907732e-08	2.641325e+01	1.250743e+03
1.080000e-06	3.794302e-06	1.946824e-08	2.736943e+01	1.276063e+03
1.090000e-06	3.925528e-06	1.983377e-08	2.831600e+01	1.300280e+03
1.100000e-06	4.055457e-06	2.017674e-08	2.925322e+01	1.323474e+03
1.110000e-06	4.183930e-06	2.050054e-08	3.017993e+01	1.345632e+03
1.120000e-06	4.310830e-06	2.080599e-08	3.109530e+01	1.366688e+03
1.130000e-06	4.436215e-06	2.109411e-08	3.199974e+01	1.386551e+03
1.140000e-06	4.560079e-06	2.136590e-08	3.289321e+01	1.405145e+03
1.150000e-06	4.682505e-06	2.162304e-08	3.377630e+01	1.422434e+03
1.160000e-06	4.803300e-06	2.186502e-08	3.464763e+01	1.438436e+03
1.170000e-06	4.922270e-06	2.209261e-08	3.550580e+01	1.453232e+03
1.180000e-06	5.039461e-06	2.230673e-08	3.635113e+01	1.466955e+03
1.190000e-06	5.154798e-06	2.251105e-08	3.718309e+01	1.479776e+03
1.200000e-06	5.268179e-06	2.270593e-08	3.800095e+01	1.491881e+03
1.210000e-06	5.379530e-06	2.288980e-08	3.880415e+01	1.503445e+03
1.220000e-06	5.488928e-06	2.306494e-08	3.959327e+01	1.514613e+03
1.230000e-06	5.596432e-06	2.323326e-08	4.036873e+01	1.525480e+03
1.240000e-06	5.701932e-06	2.339524e-08	4.112973e+01	1.536087e+03
1.250000e-06	5.805307e-06	2.355062e-08	4.187541e+01	1.546419e+03
1.260000e-06	5.906479e-06	2.369819e-08	4.260519e+01	1.556418e+03
1.270000e-06	6.005486e-06	2.383565e-08	4.331936e+01	1.565996e+03
1.280000e-06	6.102280e-06	2.396272e-08	4.401756e+01	1.575058e+03
1.290000e-06	6.196795e-06	2.408091e-08	4.469933e+01	1.583520e+03
1.300000e-06	6.289071e-06	2.419390e-08	4.536494e+01	1.591329e+03
1.310000e-06	6.379127e-06	2.430409e-08	4.601454e+01	1.598473e+03
1.320000e-06	6.466903e-06	2.440909e-08	4.664770e+01	1.604984e+03
1.330000e-06	6.552330e-06	2.450833e-08	4.726391e+01	1.610940e+03
1.340000e-06	6.635456e-06	2.460118e-08	4.786352e+01	1.616445e+03
1.350000e-06	6.716228e-06	2.468811e-08	4.844616e+01	1.621624e+03
1.360000e-06	6.794589e-06	2.477111e-08	4.901140e+01	1.626596e+03
1.370000e-06	6.870439e-06	2.485097e-08	4.955852e+01	1.631463e+03
1.380000e-06	6.943625e-06	2.492730e-08	5.008644e+01	1.636294e+03
1.390000e-06	7.014219e-06	2.499926e-08	5.059565e+01	1.641116e+03
1.400000e-06	7.082396e-06	2.506787e-08	5.108743e+01	1.645913e+03
1.410000e-06	7.148070e-06	2.513380e-08	5.156116e+01	1.650633e+03
1.420000e-06	7.211174e-06	2.519667e-08	5.201634e+01	1.655199e+03
1.430000e-06	7.271792e-06	2.525621e-08	5.245360e+01	1.659521e+03
1.440000e-06	7.329905e-06	2.531168e-08	5.287279e+01	1.663515e+03
1.450000e-06	7.385384e-06	2.536326e-08	5.327297e+01	1.667117e+03
1.460000e-06	7.438024e-06	2.541157e-08	5.365268e+01	1.670292e+03
1.470000e-06	7.487685e-06	2.545730e-08	5.401090e+01	1.673041e+03
1.480000e-06	7.534493e-06	2.550013e-08	5.434854e+01	1.675400e+03
1.490000e-06	7.578638e-06	2.553877e-08	5.466697e+01	1.677434e+03
1.500000e-06	7.620120e-06	2.557473e-08	5.496619e+01	1.679225e+03
1.510000e-06	7.658843e-06	2.560748e-08	5.524551e+01	1.680856e+03
1.520000e-06	7.694853e-06	2.563725e-08	5.550526e+01	1.682404e+03
1.530000e-06	7.728146e-06	2.566321e-08	5.574542e+01	1.683921e+03
1.540000e-06	7.758672e-06	2.568426e-08	5.596561e+01	1.685430e+03
1.550000e-06	7.786522e-06	2.570132e-08	5.616650e+01	1.686922e+03
1.560000e-06	7.811544e-06	2.571567e-08	5.634700e+01	1.688362e+03
1.570000e-06	7.833727e-06	2.572800e-08	5.650700e+01	1.689690e+03
1.580000e-06	7.853177e-06	2.574006e-08	5.664731e+01	1.690839e+03
1.590000e-06	7.869728e-06	2.575470e-08	5.676669e+01	1.691745e+03
1.600000e-06	7.883271e-06	2.576589e-08	5.686438e+01	1.692359e+03
1.610000e-06	7.893780e-06	2.577170e-08	5.694018e+01	1.692656e+03
1.620000e-06	7.901291e-06	2.577515e-08	5.699437e+01	1.692640e+03
1.630000e-06	7.905963e-06	2.577740e-08	5.702806e+01	1.692342e+03
1.640000e-06	7.907825e-06	2.577817e-08	5.704150e+01	1.691817e+03
1.650000e-06	7.906935e-06	2.577284e-08	5.703507e+01	1.691134e+03
1.660000e-06	7.903463e-06	2.576535e-08	5.701003e+01	1.690363e+03
1.670000e-06	7.897309e-06	2.575884e-08	5.696564e+01	1.689565e+03
1.680000e-06	7.888469e-06	2.575024e-08	5.690187e+01	1.688782e+03
1.690000e-06	7.876975e-06	2.573805e-08	5.681896e+01	1.688027e+03
1.700000e-06	7.862672e-06	2.572597e-08	5.671579e+01	1.687287e+03
1.710000e-06	7.845765e-06	2.571710e-08	5.659384e+01	1.686523e+03
1.720000e-06	7.826620e-06	2.570558e-08	5.645574e+01	1.685679e+03
1.730000e-06	7.805091e-06	2.564512e-08	5.630045e+01	1.684691e+03
1.740000e-06	7.780548e-06	2.558822e-08	5.612341e+01	1.683498e+03
1.750000e-06	7.752394e-06	2.558641e-08	5.592032e+01	1.682056e+03
1.760000e-06	7.720777e-06	2.557905e-08	5.569226e+01	1.680342e+03
1.770000e-06	7.686480e-06	2.555169e-08	5.544487e+01	1.678360e+03
1.780000e-06	7.649952e-06	2.556039e-08	5.518138e+01	1.676142e+03
1.790000e-06	7.611219e-06	2.554816e-08	5.490199e+01	1.673736e+03
1.800000e-06	7.570503e-06	2.546831e-08	5.460829e+01	1.671203e+03
1.810000e-06	7.527578e-06	2.545414e-08	5.429866e+01	1.668601e+03
1.820000e-06	7.481958e-06	2.542457e-08	5.396959e+01	1.665975e+03
1.830000e-06	7.433707e-06	2.539352e-08	5.362154e+01	1.663348e+03
1.840000e-06	7.382627e-06	2.537446e-08	5.325308e+01	1.660712e+03
1.850000e-06	7.328522e-06	2.530400e-08	5.286281e+01	1.658030e+03
1.860000e-06	7.271643e-06	2.528710e-08	5.245253e+01	1.655238e+03
1.870000e-06	7.212217e-06	2.523030e-08	5.202387e+01	1.652255e+03
1.880000e-06	7.150158e-06	2.516243e-08	5.157622e+01	1.648996e+03
1.890000e-06	7.085242e-06	2.512630e-08	5.110796e+01	1.645382e+03
1.900000e-06	7.017566e-06	2.503106e-08	5.061979e+01	1.641357e+03
1.910000e-06	6.947185e-06	2.496487e-08	5.011212e+01	1.636893e+03
1.920000e-06	6.874050e-06	2.490315e-08	4.958457e+01	1.631996e+03
1.930000e-06	6.798294e-06	2.484252e-08	4.903812e+01	1.626708e+03
1.940000e-06	6.719884e-06	2.477970e-08	4.847253e+01	1.621096e+03
1.950000e-06	6.638894e-06	2.468176e-08	4.788832e+01	1.615241e+03
1.960000e-06	6.555452e-06	2.459868e-08	4.728643e+01	1.609225e+03
1.970000e-06	6.469559e-06	2.449185e-08	4.666686e+01	1.603116e+03
1.980000e-06	6.381289e-06	2.440599e-08	4.603014e+01	1.596956e+03
1.990000e-06	6.290785e-06	2.431487e-08	4.537731e+01	1.590749e+03
2.000000e-06	6.198105e-06	2.421895e-08	4.470877e+01	1.584463e+03
2.010000e-06	6.103144e-06	2.412113e-08	4.402379e+01	1.578027e+03
2.020000e-06	6.005990e-06	2.399857e-08	4.332300e+01	1.571347e+03
2.030000e-06	5.906767e-06	2.388536e-08	4.260727e+01	1.564315e+03
2.040000e-06	5.805459e-06	2.376577e-08	4.187651e+01	1.556827e+03
2.050000e-06	5.702032e-06	2.364696e-08	4.113045e+01	1.548799e+03
2.060000e-06	5.596610e-06	2.350644e-08	4.037001e+01	1.540177e+03
2.070000e-06	5.489311e-06	2.336617e-08	3.959604e+01	1.530948e+03
2.080000e-06	5.380136e-06	2.322316e-08	3.880853e+01	1.521138e+03
2.090000e-06	5.269004e-06	2.307418e-08	3.800690e+01	1.510807e+03
2.100000e-06	5.155887e-06	2.292249e-08	3.719095e+01	1.500036e+03
2.110000e-06	5.040850e-06	2.276501e-08	3.636116e+01	1.488911e+03
2.120000e-06	4.923859e-06	2.260145e-08	3.551726e+01	1.477504e+03
2.130000e-06	4.804898e-06	2.241860e-08	3.465916e+01	1.465855e+03
2.140000e-06	4.684094e-06	2.223055e-08	3.378776e+01	1.453962e+03
2.150000e-06	4.561660e-06	2.203788e-08	3.290461e+01	1.441775e+03
2.160000e-06	4.437547e-06	2.184316e-08	3.200935e+01	1.429196e+03
2.170000e-06	4.311771e-06	2.163451e-08	3.110209e+01	1.416091e+03
2.180000e-06	4.184408e-06	2.141638e-08	3.018338e+01	1.402306e+03
2.190000e-06	4.055479e-06	2.118898e-08	2.925338e+01	1.387685e+03
2.200000e-06	3.925141e-06	2.094989e-08	2.831321e+01	1.372094e+03
2.210000e-06	3.793299e-06	2.069644e-08	2.736219e+01	1.355437e+03
2.220000e-06	3.659957e-06	2.043135e-08	2.640036e+01	1.337666e+03
2.230000e-06	3.525369e-06	2.015500e-08	2.542954e+01	1.318786e+03
2.240000e-06	3.389542e-06	1.986326e-08	2.444977e+01	1.298847e+03
2.250000e-06	3.252419e-06	1.955756e-08	2.346067e+01	1.277926e+03
2.260000e-06	3.114064e-06	1.923702e-08	2.246267e+01	1.256106e+03
2.270000e-06	2.974430e-06	1.890162e-08	2.145545e+01	1.233446e+03
2.280000e-06	2.833504e-06	1.854431e-08	2.043891e+01	1.209952e+03
2.290000e-06	2.691484e-06	1.816699e-08	1.941448e+01	1.185559e+03
2.300000e-06	2.548578e-06	1.777014e-08	1.838366e+01	1.160109e+03
2.310000e-06	2.404795e-06	1.735145e-08	1.734651e+01	1.133353e+03
2.320000e-06	2.260119e-06	1.690345e-08	1.630291e+01	1.104961e+03
2.330000e-06	2.114649e-06	1.642226e-08	1.525360e+01	1.074542e+03
2.340000e-06	1.968508e-06	1.590814e-08	1.419943e+01	1.041677e+03
2.350000e-06	1.821802e-06	1.535743e-08	1.314120e+01	1.005959e+03
2.360000e-06	1.674531e-06	1.476780e-08	1.207889e+01	9.670322e+02
2.370000e-06	1.526662e-06	1.413605e-08	1.101227e+01	9.246263e+02
2.380000e-06	1.378203e-06	1.345728e-08	9.941392e+00	8.785859e+02
2.390000e-06	1.229219e-06	1.272607e-08	8.866724e+00	8.288819e+02
2.400000e-06	1.079797e-06	1.193641e-08	7.788896e+00	7.756110e+02
2.410000e-06	9.299655e-07	1.108991e-08	6.708118e+00	7.189792e+02
2.420000e-06	7.798250e-07	1.018728e-08	5.625110e+00	6.592733e+02
2.430000e-06	6.295052e-07	9.226519e-09	4.540809e+00	5.968230e+02
2.440000e-06	4.790140e-07	8.210168e-09	3.455271e+00	5.319610e+02
2.450000e-06	3.283204e-07	7.148608e-09	2.368273e+00	4.649853e+02
2.460000e-06	1.774753e-07	6.056832e-09	1.280182e+00	3.961306e+02
2.470000e-06	2.656418e-08	4.946445e-09	1.916153e-01	3.255529e+02
2.480000e-06	-1.244244e-07	3.828653e-09	-8.975102e-01	2.533302e+02
2.490000e-06	-2.753671e-07	2.710136e-09	-1.986305e+00	1.794797e+02
2.500000e-06	-4.261783e-07	1.586720e-09	-3.074151e+00	1.039887e+02
2.510000e-06	-5.768834e-07	4.507898e-10	-4.161232e+00	2.685687e+01
2.520000e-06	-7.274408e-07	-7.060951e-10	-5.247247e+00	-5.185891e+01
2.530000e-06	-8.777947e-07	-1.892635e-09	-6.331794e+00	-1.320009e+02
2.540000e-06	-1.027821e-06	-3.115297e-09	-7.413982e+00	-2.132769e+02
2.550000e-06	-1.177506e-06	-4.374095e-09	-8.493705e+00	-2.952415e+02
2.560000e-06	-1.326792e-06	-5.656129e-09	-9.570543e+00	-3.772958e+02
2.570000e-06	-1.475514e-06	-6.944805e-09	-1.064332e+01	-4.587077e+02
2.580000e-06	-1.623635e-06	-8.217348e-09	-1.171176e+01	-5.386503e+02
2.590000e-06	-1.771150e-06	-9.444207e-09	-1.277584e+01	-6.162560e+02
2.600000e-06	-1.918041e-06	-1.060149e-08	-1.383540e+01	-6.906790e+02
2.610000e-06	-2.064289e-06	-1.167506e-08	-1.489033e+01	-7.611600e+02
2.620000e-06	-2.209674e-06	-1.266127e-08	-1.593904e+01	-8.270848e+02
2.630000e-06	-2.354085e-06	-1.356260e-08	-1.698071e+01	-8.880301e+02
2.640000e-06	-2.497623e-06	-1.438420e-08	-1.801610e+01	-9.437917e+02
2.650000e-06	-2.640262e-06	-1.513443e-08	-1.904500e+01	-9.943909e+02
2.660000e-06	-2.781944e-06	-1.581950e-08	-2.006699e+01	-1.040060e+03
2.670000e-06	-2.922466e-06	-1.644838e-08	-2.108062e+01	-1.081205e+03
2.680000e-06	-3.061765e-06	-1.703087e-08	-2.208542e+01	-1.118362e+03
2.690000e-06	-3.199796e-06	-1.756903e-08	-2.308108e+01	-1.152132e+03
2.700000e-06	-3.336486e-06	-1.806517e-08	-2.406707e+01	-1.183126e+03
2.710000e-06	-3.472025e-06	-1.852647e-08	-2.504475e+01	-1.211908e+03
2.720000e-06	-3.606452e-06	-1.895764e-08	-2.601441e+01	-1.238955e+03
2.730000e-06	-3.739499e-06	-1.936235e-08	-2.697412e+01	-1.264623e+03
2.740000e-06	-3.871140e-06	-1.973939e-08	-2.792369e+01	-1.289144e+03
2.750000e-06	-4.001528e-06	-2.008781e-08	-2.886421e+01	-1.312630e+03
2.760000e-06	-4.130465e-06	-2.041448e-08	-2.979428e+01	-1.335091e+03
2.770000e-06	-4.257967e-06	-2.072628e-08	-3.071398e+01	-1.356473e+03
2.780000e-06	-4.384111e-06	-2.102465e-08	-3.162390e+01	-1.376688e+03
2.790000e-06	-4.508616e-06	-2.130585e-08	-3.252199e+01	-1.395652e+03
2.800000e-06	-4.631501e-06	-2.157010e-08	-3.340840e+01	-1.413316e+03
2.810000e-06	-4.752763e-06	-2.181722e-08	-3.428309e+01	-1.429682e+03
2.820000e-06	-4.872247e-06	-2.204985e-08	-3.514497e+01	-1.444813e+03
2.830000e-06	-4.989911e-06	-2.227100e-08	-3.599371e+01	-1.458829e+03
2.840000e-06	-5.105498e-06	-2.248333e-08	-3.682748e+01	-1.471891e+03
2.850000e-06	-5.219047e-06	-2.268686e-08	-3.764654e+01	-1.484183e+03
2.860000e-06	-5.330611e-06	-2.287889e-08	-3.845129e+01	-1.495888e+03
2.870000e-06	-5.440110e-06	-2.305857e-08	-3.924113e+01	-1.507158e+03
2.880000e-06	-5.547727e-06	-2.322830e-08	-4.001740e+01	-1.518106e+03
2.890000e-06	-5.653455e-06	-2.339090e-08	-4.078006e+01	-1.528789e+03
2.900000e-06	-5.757167e-06	-2.354577e-08	-4.152816e+01	-1.539206e+03
2.910000e-06	-5.858723e-06	-2.369215e-08	-4.226071e+01	-1.549310e+03
2.920000e-06	-5.958066e-06	-2.382876e-08	-4.297730e+01	-1.559020e+03
2.930000e-06	-6.055292e-06	-2.395917e-08	-4.367862e+01	-1.568241e+03
2.940000e-06	-6.150422e-06	-2.408443e-08	-4.436482e+01	-1.576883e+03
