# Temperatura_=_54.63
# Concentracion g/m^3_=_28370.0
# C_Vs_to_Am_M_A/Vsm_=_65563218390.804596
# pendiente_HvsI_1/m_=_3716.3
# ordenada_HvsI_A/m_=_1297.0
# frecuencia_Hz_=_302507.081343315

Tiempo_(s)	Campo_(V.s)	Magnetizacion_(V.s)	Campo_(kA/m)	Magnetizacion_(A/m)
0.000000e+00	-7.867061e-06	-2.454496e-08	-5.684007e+01	-1.606855e+03
1.000000e-08	-7.862916e-06	-2.454567e-08	-5.681012e+01	-1.606105e+03
2.000000e-08	-7.856228e-06	-2.453871e-08	-5.676180e+01	-1.605332e+03
3.000000e-08	-7.846878e-06	-2.452919e-08	-5.669425e+01	-1.604579e+03
4.000000e-08	-7.834723e-06	-2.451670e-08	-5.660642e+01	-1.603862e+03
5.000000e-08	-7.819727e-06	-2.449983e-08	-5.649808e+01	-1.603171e+03
6.000000e-08	-7.802027e-06	-2.447670e-08	-5.637020e+01	-1.602471e+03
7.000000e-08	-7.782065e-06	-2.444861e-08	-5.622597e+01	-1.601711e+03
8.000000e-08	-7.759770e-06	-2.443082e-08	-5.606488e+01	-1.600828e+03
9.000000e-08	-7.734573e-06	-2.447212e-08	-5.588283e+01	-1.599767e+03
1.000000e-07	-7.706220e-06	-2.445567e-08	-5.567798e+01	-1.598483e+03
1.100000e-07	-7.674885e-06	-2.438184e-08	-5.545159e+01	-1.596953e+03
1.200000e-07	-7.640786e-06	-2.434964e-08	-5.520522e+01	-1.595178e+03
1.300000e-07	-7.604092e-06	-2.432849e-08	-5.494010e+01	-1.593186e+03
1.400000e-07	-7.565059e-06	-2.426217e-08	-5.465809e+01	-1.591020e+03
1.500000e-07	-7.523835e-06	-2.417323e-08	-5.436024e+01	-1.588735e+03
1.600000e-07	-7.480223e-06	-2.423345e-08	-5.404514e+01	-1.586385e+03
1.700000e-07	-7.433971e-06	-2.421768e-08	-5.371097e+01	-1.584009e+03
1.800000e-07	-7.385029e-06	-2.408542e-08	-5.335736e+01	-1.581627e+03
1.900000e-07	-7.333252e-06	-2.412328e-08	-5.298327e+01	-1.579230e+03
2.000000e-07	-7.278516e-06	-2.406589e-08	-5.258779e+01	-1.576782e+03
2.100000e-07	-7.221088e-06	-2.398199e-08	-5.217287e+01	-1.574222e+03
2.200000e-07	-7.161096e-06	-2.394291e-08	-5.173943e+01	-1.571474e+03
2.300000e-07	-7.098519e-06	-2.386445e-08	-5.128730e+01	-1.568457e+03
2.400000e-07	-7.033323e-06	-2.384796e-08	-5.081626e+01	-1.565101e+03
2.500000e-07	-6.965383e-06	-2.376864e-08	-5.032538e+01	-1.561354e+03
2.600000e-07	-6.894724e-06	-2.371984e-08	-4.981487e+01	-1.557194e+03
2.700000e-07	-6.821407e-06	-2.365167e-08	-4.928515e+01	-1.552632e+03
2.800000e-07	-6.745423e-06	-2.357138e-08	-4.873616e+01	-1.547708e+03
2.900000e-07	-6.666686e-06	-2.349974e-08	-4.816728e+01	-1.542490e+03
3.000000e-07	-6.585270e-06	-2.341596e-08	-4.757904e+01	-1.537056e+03
3.100000e-07	-6.501520e-06	-2.336017e-08	-4.697394e+01	-1.531485e+03
3.200000e-07	-6.415656e-06	-2.327129e-08	-4.635357e+01	-1.525839e+03
3.300000e-07	-6.327549e-06	-2.319935e-08	-4.571699e+01	-1.520155e+03
3.400000e-07	-6.237057e-06	-2.309493e-08	-4.506317e+01	-1.514432e+03
3.500000e-07	-6.144282e-06	-2.298454e-08	-4.439287e+01	-1.508633e+03
3.600000e-07	-6.049296e-06	-2.290164e-08	-4.370659e+01	-1.502686e+03
3.700000e-07	-5.952072e-06	-2.280070e-08	-4.300414e+01	-1.496497e+03
3.800000e-07	-5.852686e-06	-2.269169e-08	-4.228607e+01	-1.489957e+03
3.900000e-07	-5.751242e-06	-2.258019e-08	-4.155313e+01	-1.482967e+03
4.000000e-07	-5.647802e-06	-2.247004e-08	-4.080577e+01	-1.475444e+03
4.100000e-07	-5.542372e-06	-2.233660e-08	-4.004403e+01	-1.467340e+03
4.200000e-07	-5.434946e-06	-2.220722e-08	-3.926787e+01	-1.458647e+03
4.300000e-07	-5.325551e-06	-2.207871e-08	-3.847748e+01	-1.449393e+03
4.400000e-07	-5.214186e-06	-2.194066e-08	-3.767286e+01	-1.439641e+03
4.500000e-07	-5.100925e-06	-2.179398e-08	-3.685454e+01	-1.429473e+03
4.600000e-07	-4.985784e-06	-2.164237e-08	-3.602264e+01	-1.418975e+03
4.700000e-07	-4.868746e-06	-2.147927e-08	-3.517704e+01	-1.408216e+03
4.800000e-07	-4.749929e-06	-2.130701e-08	-3.431858e+01	-1.397235e+03
4.900000e-07	-4.629355e-06	-2.113407e-08	-3.344742e+01	-1.386027e+03
5.000000e-07	-4.507069e-06	-2.095397e-08	-3.256389e+01	-1.374538e+03
5.100000e-07	-4.383099e-06	-2.076328e-08	-3.166820e+01	-1.362668e+03
5.200000e-07	-4.257481e-06	-2.056092e-08	-3.076060e+01	-1.350282e+03
5.300000e-07	-4.130338e-06	-2.035250e-08	-2.984199e+01	-1.337223e+03
5.400000e-07	-4.001707e-06	-2.012692e-08	-2.891262e+01	-1.323339e+03
5.500000e-07	-3.871639e-06	-1.989072e-08	-2.797286e+01	-1.308496e+03
5.600000e-07	-3.740124e-06	-1.964572e-08	-2.702266e+01	-1.292600e+03
5.700000e-07	-3.607078e-06	-1.939336e-08	-2.606139e+01	-1.275606e+03
5.800000e-07	-3.472581e-06	-1.912557e-08	-2.508964e+01	-1.257524e+03
5.900000e-07	-3.336762e-06	-1.884404e-08	-2.410834e+01	-1.238403e+03
6.000000e-07	-3.199680e-06	-1.855139e-08	-2.311791e+01	-1.218323e+03
6.100000e-07	-3.061396e-06	-1.824408e-08	-2.211880e+01	-1.197367e+03
6.200000e-07	-2.921875e-06	-1.791928e-08	-2.111076e+01	-1.175591e+03
6.300000e-07	-2.781054e-06	-1.756984e-08	-2.009331e+01	-1.152999e+03
6.400000e-07	-2.639054e-06	-1.720014e-08	-1.906735e+01	-1.129520e+03
6.500000e-07	-2.495989e-06	-1.680727e-08	-1.803370e+01	-1.104993e+03
6.600000e-07	-2.352027e-06	-1.639466e-08	-1.699356e+01	-1.079166e+03
6.700000e-07	-2.207346e-06	-1.595825e-08	-1.594823e+01	-1.051706e+03
6.800000e-07	-2.061877e-06	-1.549503e-08	-1.489721e+01	-1.022222e+03
6.900000e-07	-1.915626e-06	-1.500255e-08	-1.384054e+01	-9.902990e+02
7.000000e-07	-1.768723e-06	-1.447321e-08	-1.277915e+01	-9.555387e+02
7.100000e-07	-1.621305e-06	-1.390484e-08	-1.171405e+01	-9.175984e+02
7.200000e-07	-1.473438e-06	-1.328892e-08	-1.064569e+01	-8.762281e+02
7.300000e-07	-1.325094e-06	-1.262232e-08	-9.573897e+00	-8.312965e+02
7.400000e-07	-1.176317e-06	-1.190083e-08	-8.498973e+00	-7.828045e+02
7.500000e-07	-1.027171e-06	-1.112739e-08	-7.421381e+00	-7.308831e+02
7.600000e-07	-8.776535e-07	-1.030297e-08	-6.341108e+00	-6.757752e+02
7.700000e-07	-7.278428e-07	-9.425593e-09	-5.258716e+00	-6.178056e+02
7.800000e-07	-5.778002e-07	-8.494938e-09	-4.174647e+00	-5.573411e+02
7.900000e-07	-4.275503e-07	-7.514499e-09	-3.089081e+00	-4.947476e+02
8.000000e-07	-2.771498e-07	-6.496509e-09	-2.002427e+00	-4.303508e+02
8.100000e-07	-1.266523e-07	-5.453903e-09	-9.150720e-01	-3.644042e+02
8.200000e-07	2.388035e-08	-4.401117e-09	1.725372e-01	-2.970725e+02
8.300000e-07	1.745150e-07	-3.347180e-09	1.260883e+00	-2.284298e+02
8.400000e-07	3.251686e-07	-2.293936e-09	2.349366e+00	-1.584760e+02
8.500000e-07	4.756869e-07	-1.237587e-09	3.436871e+00	-8.716776e+01
8.600000e-07	6.260543e-07	-1.722419e-10	4.523287e+00	-1.446038e+01
8.700000e-07	7.762178e-07	9.113226e-10	5.608228e+00	5.964506e+01
8.800000e-07	9.261280e-07	2.022339e-09	6.691340e+00	1.350564e+02
8.900000e-07	1.075741e-06	3.170249e-09	7.772303e+00	2.115536e+02
9.000000e-07	1.225012e-06	4.353333e-09	8.850796e+00	2.887665e+02
9.100000e-07	1.373859e-06	5.564022e-09	9.926231e+00	3.661708e+02
9.200000e-07	1.522206e-06	6.784016e-09	1.099804e+01	4.431041e+02
9.300000e-07	1.669962e-06	7.982162e-09	1.206559e+01	5.188012e+02
9.400000e-07	1.817110e-06	9.132105e-09	1.312875e+01	5.924446e+02
9.500000e-07	1.963705e-06	1.021457e-08	1.418791e+01	6.632252e+02
9.600000e-07	2.109621e-06	1.122237e-08	1.524216e+01	7.304049e+02
9.700000e-07	2.254704e-06	1.215152e-08	1.629039e+01	7.933756e+02
9.800000e-07	2.398955e-06	1.300331e-08	1.733262e+01	8.517056e+02
9.900000e-07	2.542309e-06	1.378308e-08	1.836836e+01	9.051694e+02
1.000000e-06	2.684611e-06	1.449378e-08	1.939651e+01	9.537567e+02
1.010000e-06	2.825883e-06	1.514507e-08	2.041720e+01	9.976605e+02
1.020000e-06	2.965956e-06	1.574401e-08	2.142924e+01	1.037246e+03
1.030000e-06	3.104722e-06	1.629756e-08	2.243184e+01	1.073005e+03
1.040000e-06	3.242355e-06	1.680845e-08	2.342624e+01	1.105500e+03
1.050000e-06	3.378816e-06	1.728289e-08	2.441218e+01	1.135306e+03
1.060000e-06	3.513932e-06	1.772451e-08	2.538841e+01	1.162961e+03
1.070000e-06	3.647732e-06	1.813445e-08	2.635512e+01	1.188919e+03
1.080000e-06	3.780276e-06	1.851614e-08	2.731276e+01	1.213527e+03
1.090000e-06	3.911412e-06	1.887400e-08	2.826023e+01	1.237010e+03
1.100000e-06	4.041166e-06	1.921120e-08	2.919771e+01	1.259480e+03
1.110000e-06	4.169513e-06	1.952711e-08	3.012502e+01	1.280954e+03
1.120000e-06	4.296325e-06	1.982503e-08	3.104125e+01	1.301381e+03
1.130000e-06	4.421722e-06	2.010505e-08	3.194726e+01	1.320681e+03
1.140000e-06	4.545656e-06	2.036781e-08	3.284269e+01	1.338777e+03
1.150000e-06	4.667957e-06	2.061428e-08	3.372632e+01	1.355620e+03
1.160000e-06	4.788614e-06	2.084814e-08	3.459807e+01	1.371212e+03
1.170000e-06	4.907552e-06	2.106979e-08	3.545741e+01	1.385613e+03
1.180000e-06	5.024707e-06	2.127770e-08	3.630386e+01	1.398937e+03
1.190000e-06	5.139892e-06	2.147300e-08	3.713608e+01	1.411337e+03
1.200000e-06	5.253071e-06	2.165880e-08	3.795381e+01	1.422988e+03
1.210000e-06	5.364327e-06	2.183611e-08	3.875764e+01	1.434064e+03
1.220000e-06	5.473700e-06	2.200484e-08	3.954787e+01	1.444712e+03
1.230000e-06	5.581186e-06	2.216644e-08	4.032447e+01	1.455038e+03
1.240000e-06	5.686590e-06	2.232284e-08	4.108601e+01	1.465097e+03
1.250000e-06	5.789861e-06	2.247140e-08	4.183215e+01	1.474889e+03
1.260000e-06	5.891078e-06	2.261019e-08	4.256345e+01	1.484370e+03
1.270000e-06	5.990126e-06	2.273856e-08	4.327908e+01	1.493464e+03
1.280000e-06	6.086808e-06	2.285751e-08	4.397761e+01	1.502080e+03
1.290000e-06	6.181236e-06	2.296962e-08	4.465987e+01	1.510135e+03
1.300000e-06	6.273543e-06	2.307714e-08	4.532679e+01	1.517573e+03
1.310000e-06	6.363598e-06	2.318067e-08	4.597744e+01	1.524371e+03
1.320000e-06	6.451326e-06	2.327835e-08	4.661128e+01	1.530555e+03
1.330000e-06	6.536786e-06	2.337024e-08	4.722874e+01	1.536188e+03
1.340000e-06	6.619992e-06	2.345700e-08	4.782991e+01	1.541370e+03
1.350000e-06	6.700811e-06	2.353870e-08	4.841383e+01	1.546217e+03
1.360000e-06	6.779126e-06	2.361640e-08	4.897966e+01	1.550851e+03
1.370000e-06	6.854940e-06	2.369086e-08	4.952742e+01	1.555374e+03
1.380000e-06	6.928115e-06	2.376175e-08	5.005612e+01	1.559863e+03
1.390000e-06	6.998733e-06	2.382873e-08	5.056634e+01	1.564352e+03
1.400000e-06	7.066995e-06	2.389304e-08	5.105954e+01	1.568836e+03
1.410000e-06	7.132660e-06	2.395482e-08	5.153397e+01	1.573269e+03
1.420000e-06	7.195714e-06	2.401268e-08	5.198954e+01	1.577579e+03
1.430000e-06	7.256394e-06	2.406723e-08	5.242796e+01	1.581677e+03
1.440000e-06	7.314503e-06	2.411859e-08	5.284780e+01	1.585476e+03
1.450000e-06	7.369984e-06	2.416629e-08	5.324866e+01	1.588906e+03
1.460000e-06	7.422784e-06	2.421044e-08	5.363014e+01	1.591922e+03
1.470000e-06	7.472555e-06	2.425111e-08	5.398973e+01	1.594518e+03
1.480000e-06	7.519408e-06	2.428956e-08	5.432825e+01	1.596721e+03
1.490000e-06	7.563728e-06	2.432604e-08	5.464847e+01	1.598590e+03
1.500000e-06	7.605317e-06	2.435862e-08	5.494895e+01	1.600202e+03
1.510000e-06	7.644062e-06	2.438814e-08	5.522889e+01	1.601646e+03
1.520000e-06	7.680245e-06	2.441502e-08	5.549031e+01	1.603001e+03
1.530000e-06	7.713641e-06	2.443737e-08	5.573160e+01	1.604330e+03
1.540000e-06	7.744213e-06	2.445641e-08	5.595248e+01	1.605666e+03
1.550000e-06	7.772193e-06	2.447228e-08	5.615464e+01	1.607011e+03
1.560000e-06	7.797289e-06	2.448685e-08	5.633597e+01	1.608337e+03
1.570000e-06	7.819489e-06	2.449947e-08	5.649636e+01	1.609591e+03
1.580000e-06	7.839067e-06	2.451082e-08	5.663781e+01	1.610709e+03
1.590000e-06	7.855834e-06	2.452295e-08	5.675896e+01	1.611623e+03
1.600000e-06	7.869611e-06	2.453268e-08	5.685849e+01	1.612276e+03
1.610000e-06	7.880316e-06	2.453887e-08	5.693584e+01	1.612635e+03
1.620000e-06	7.887952e-06	2.454196e-08	5.699101e+01	1.612692e+03
1.630000e-06	7.892817e-06	2.454454e-08	5.702616e+01	1.612467e+03
1.640000e-06	7.894940e-06	2.454610e-08	5.704150e+01	1.612007e+03
1.650000e-06	7.894252e-06	2.454418e-08	5.703653e+01	1.611375e+03
1.660000e-06	7.890919e-06	2.453184e-08	5.701245e+01	1.610640e+03
1.670000e-06	7.884878e-06	2.452359e-08	5.696880e+01	1.609867e+03
1.680000e-06	7.876148e-06	2.451705e-08	5.690572e+01	1.609103e+03
1.690000e-06	7.864798e-06	2.450699e-08	5.682372e+01	1.608373e+03
1.700000e-06	7.850678e-06	2.449748e-08	5.672170e+01	1.607675e+03
1.710000e-06	7.833976e-06	2.449432e-08	5.660103e+01	1.606981e+03
1.720000e-06	7.815007e-06	2.449458e-08	5.646397e+01	1.606242e+03
1.730000e-06	7.793619e-06	2.444892e-08	5.630945e+01	1.605399e+03
1.740000e-06	7.769273e-06	2.435127e-08	5.613354e+01	1.604393e+03
1.750000e-06	7.741364e-06	2.436160e-08	5.593190e+01	1.603174e+03
1.760000e-06	7.709937e-06	2.437646e-08	5.570484e+01	1.601713e+03
1.770000e-06	7.675816e-06	2.433391e-08	5.545831e+01	1.600005e+03
1.780000e-06	7.639500e-06	2.433432e-08	5.519593e+01	1.598069e+03
1.790000e-06	7.600930e-06	2.440111e-08	5.491725e+01	1.595946e+03
1.800000e-06	7.560368e-06	2.428359e-08	5.462419e+01	1.593687e+03
1.810000e-06	7.517668e-06	2.421671e-08	5.431568e+01	1.591349e+03
1.820000e-06	7.472257e-06	2.431044e-08	5.398758e+01	1.588976e+03
1.830000e-06	7.424207e-06	2.418123e-08	5.364042e+01	1.586593e+03
1.840000e-06	7.373340e-06	2.422227e-08	5.327290e+01	1.584201e+03
1.850000e-06	7.319452e-06	2.417611e-08	5.288356e+01	1.581771e+03
1.860000e-06	7.262817e-06	2.410876e-08	5.247437e+01	1.579248e+03
1.870000e-06	7.203615e-06	2.413285e-08	5.204663e+01	1.576560e+03
1.880000e-06	7.141834e-06	2.396818e-08	5.160025e+01	1.573627e+03
1.890000e-06	7.077248e-06	2.397617e-08	5.113361e+01	1.570372e+03
1.900000e-06	7.009864e-06	2.389643e-08	5.064676e+01	1.566739e+03
1.910000e-06	6.939803e-06	2.381058e-08	5.014056e+01	1.562695e+03
1.920000e-06	6.866963e-06	2.380234e-08	4.961429e+01	1.558243e+03
1.930000e-06	6.791478e-06	2.371102e-08	4.906891e+01	1.553415e+03
1.940000e-06	6.713351e-06	2.368724e-08	4.850443e+01	1.548271e+03
1.950000e-06	6.632620e-06	2.356004e-08	4.792114e+01	1.542889e+03
1.960000e-06	6.549420e-06	2.348575e-08	4.732002e+01	1.537348e+03
1.970000e-06	6.463759e-06	2.339774e-08	4.670111e+01	1.531717e+03
1.980000e-06	6.375748e-06	2.330645e-08	4.606523e+01	1.526040e+03
1.990000e-06	6.285510e-06	2.326034e-08	4.541326e+01	1.520328e+03
2.000000e-06	6.193114e-06	2.314161e-08	4.474569e+01	1.514555e+03
2.010000e-06	6.098478e-06	2.306392e-08	4.406194e+01	1.508658e+03
2.020000e-06	6.001621e-06	2.294355e-08	4.336214e+01	1.502547e+03
2.030000e-06	5.902630e-06	2.284018e-08	4.264692e+01	1.496116e+03
2.040000e-06	5.801616e-06	2.272725e-08	4.191708e+01	1.489262e+03
2.050000e-06	5.698573e-06	2.262186e-08	4.117259e+01	1.481896e+03
2.060000e-06	5.593493e-06	2.250449e-08	4.041338e+01	1.473959e+03
2.070000e-06	5.486451e-06	2.235906e-08	3.964000e+01	1.465431e+03
2.080000e-06	5.377440e-06	2.222929e-08	3.885238e+01	1.456330e+03
2.090000e-06	5.266544e-06	2.208618e-08	3.805115e+01	1.446711e+03
2.100000e-06	5.153730e-06	2.195346e-08	3.723606e+01	1.436651e+03
2.110000e-06	5.038962e-06	2.180278e-08	3.640685e+01	1.426238e+03
2.120000e-06	4.922233e-06	2.165678e-08	3.556348e+01	1.415546e+03
2.130000e-06	4.803595e-06	2.148520e-08	3.470632e+01	1.404625e+03
2.140000e-06	4.683157e-06	2.130635e-08	3.383614e+01	1.393483e+03
2.150000e-06	4.560962e-06	2.112400e-08	3.295327e+01	1.382081e+03
2.160000e-06	4.437117e-06	2.094111e-08	3.205848e+01	1.370331e+03
2.170000e-06	4.311697e-06	2.074965e-08	3.115231e+01	1.358105e+03
2.180000e-06	4.184757e-06	2.054573e-08	3.023517e+01	1.345253e+03
2.190000e-06	4.056229e-06	2.033495e-08	2.930654e+01	1.331618e+03
2.200000e-06	3.926120e-06	2.010753e-08	2.836650e+01	1.317059e+03
2.210000e-06	3.794562e-06	1.987118e-08	2.741598e+01	1.301468e+03
2.220000e-06	3.661640e-06	1.962134e-08	2.645561e+01	1.284788e+03
2.230000e-06	3.527398e-06	1.936506e-08	2.548570e+01	1.267011e+03
2.240000e-06	3.391810e-06	1.909046e-08	2.450606e+01	1.248178e+03
2.250000e-06	3.254849e-06	1.880455e-08	2.351651e+01	1.228362e+03
2.260000e-06	3.116592e-06	1.850172e-08	2.251759e+01	1.207647e+03
2.270000e-06	2.977160e-06	1.818141e-08	2.151019e+01	1.186099e+03
2.280000e-06	2.836595e-06	1.784141e-08	2.049460e+01	1.163742e+03
2.290000e-06	2.695017e-06	1.748542e-08	1.947169e+01	1.140527e+03
2.300000e-06	2.552484e-06	1.711050e-08	1.844187e+01	1.116320e+03
2.310000e-06	2.408962e-06	1.671237e-08	1.740492e+01	1.090894e+03
2.320000e-06	2.264518e-06	1.628805e-08	1.636130e+01	1.063936e+03
2.330000e-06	2.119266e-06	1.583116e-08	1.531185e+01	1.035071e+03
2.340000e-06	1.973355e-06	1.534047e-08	1.425763e+01	1.003885e+03
2.350000e-06	1.826813e-06	1.481366e-08	1.319885e+01	9.699715e+02
2.360000e-06	1.679592e-06	1.425251e-08	1.213517e+01	9.329682e+02
2.370000e-06	1.531792e-06	1.365085e-08	1.106731e+01	8.925950e+02
2.380000e-06	1.383568e-06	1.300191e-08	9.996379e+00	8.486848e+02
2.390000e-06	1.234941e-06	1.230131e-08	8.922538e+00	8.012004e+02
2.400000e-06	1.085884e-06	1.154587e-08	7.845585e+00	7.502366e+02
2.410000e-06	9.364178e-07	1.073645e-08	6.765685e+00	6.960071e+02
2.420000e-06	7.866344e-07	9.874316e-09	5.683489e+00	6.388169e+02
2.430000e-06	6.366308e-07	8.960062e-09	4.599702e+00	5.790252e+02
2.440000e-06	4.864047e-07	7.995082e-09	3.514308e+00	5.170026e+02
2.450000e-06	3.359974e-07	6.983743e-09	2.427605e+00	4.530897e+02
2.460000e-06	1.854664e-07	5.941321e-09	1.340008e+00	3.875632e+02
2.470000e-06	3.484911e-08	4.882527e-09	2.517873e-01	3.206140e+02
2.480000e-06	-1.157858e-07	3.820060e-09	-8.365609e-01	2.523413e+02
2.490000e-06	-2.663842e-07	2.762548e-09	-1.924645e+00	1.827636e+02
2.500000e-06	-4.168981e-07	1.705686e-09	-3.012118e+00	1.118459e+02
2.510000e-06	-5.672711e-07	6.410077e-10	-4.098574e+00	3.953922e+01
2.520000e-06	-7.174467e-07	-4.413108e-10	-5.183603e+00	-3.417323e+01
2.530000e-06	-8.674291e-07	-1.550968e-09	-6.267236e+00	-1.092296e+02
2.540000e-06	-1.017118e-06	-2.694181e-09	-7.348751e+00	-1.854493e+02
2.550000e-06	-1.166388e-06	-3.872501e-09	-8.427237e+00	-2.625065e+02
2.560000e-06	-1.315226e-06	-5.078046e-09	-9.502602e+00	-3.399199e+02
2.570000e-06	-1.463673e-06	-6.297047e-09	-1.057514e+01	-4.170640e+02
2.580000e-06	-1.611737e-06	-7.508980e-09	-1.164491e+01	-4.931984e+02
2.590000e-06	-1.759171e-06	-8.686918e-09	-1.271013e+01	-5.675145e+02
2.600000e-06	-1.905819e-06	-9.805987e-09	-1.376967e+01	-6.391944e+02
2.610000e-06	-2.051773e-06	-1.085106e-08	-1.482421e+01	-7.074735e+02
2.620000e-06	-2.197089e-06	-1.181526e-08	-1.587413e+01	-7.717011e+02
2.630000e-06	-2.341530e-06	-1.269817e-08	-1.691772e+01	-8.313912e+02
2.640000e-06	-2.484948e-06	-1.350608e-08	-1.795393e+01	-8.862576e+02
2.650000e-06	-2.627415e-06	-1.424689e-08	-1.898326e+01	-9.362287e+02
2.660000e-06	-2.768804e-06	-1.492548e-08	-2.000481e+01	-9.814420e+02
2.670000e-06	-2.909046e-06	-1.554824e-08	-2.101806e+01	-1.022218e+03
2.680000e-06	-3.048072e-06	-1.612221e-08	-2.202254e+01	-1.059016e+03
2.690000e-06	-3.185942e-06	-1.664945e-08	-2.301866e+01	-1.092386e+03
2.700000e-06	-3.322672e-06	-1.713411e-08	-2.400654e+01	-1.122905e+03
2.710000e-06	-3.458052e-06	-1.758502e-08	-2.498467e+01	-1.151126e+03
2.720000e-06	-3.592111e-06	-1.800641e-08	-2.595325e+01	-1.177530e+03
2.730000e-06	-3.724953e-06	-1.840122e-08	-2.691305e+01	-1.202497e+03
2.740000e-06	-3.856435e-06	-1.876962e-08	-2.786301e+01	-1.226287e+03
2.750000e-06	-3.986575e-06	-1.911110e-08	-2.880329e+01	-1.249043e+03
2.760000e-06	-4.115446e-06	-1.943113e-08	-2.973439e+01	-1.270806e+03
2.770000e-06	-4.242826e-06	-1.973455e-08	-3.065472e+01	-1.291542e+03
2.780000e-06	-4.368719e-06	-2.002207e-08	-3.156431e+01	-1.311175e+03
2.790000e-06	-4.493127e-06	-2.029178e-08	-3.246316e+01	-1.329623e+03
2.800000e-06	-4.615876e-06	-2.054554e-08	-3.335003e+01	-1.346828e+03
2.810000e-06	-4.737053e-06	-2.078471e-08	-3.422555e+01	-1.362776e+03
2.820000e-06	-4.856545e-06	-2.101157e-08	-3.508888e+01	-1.377510e+03
2.830000e-06	-4.974052e-06	-2.122844e-08	-3.593787e+01	-1.391128e+03
2.840000e-06	-5.089544e-06	-2.143490e-08	-3.677232e+01	-1.403777e+03
2.850000e-06	-5.203011e-06	-2.163077e-08	-3.759212e+01	-1.415626e+03
2.860000e-06	-5.314436e-06	-2.181539e-08	-3.839717e+01	-1.426851e+03
2.870000e-06	-5.423878e-06	-2.198764e-08	-3.918790e+01	-1.437610e+03
2.880000e-06	-5.531472e-06	-2.214897e-08	-3.996528e+01	-1.448022e+03
2.890000e-06	-5.637268e-06	-2.230162e-08	-4.072966e+01	-1.458157e+03
2.900000e-06	-5.741024e-06	-2.244757e-08	-4.147930e+01	-1.468030e+03
2.910000e-06	-5.842521e-06	-2.258888e-08	-4.221262e+01	-1.477609e+03
2.920000e-06	-5.941799e-06	-2.272394e-08	-4.292992e+01	-1.486824e+03
2.930000e-06	-6.039006e-06	-2.285169e-08	-4.363224e+01	-1.495587e+03
2.940000e-06	-6.134053e-06	-2.297056e-08	-4.431897e+01	-1.503812e+03
