# Temperatura_=_57.1
# Concentracion g/m^3_=_28370.0
# C_Vs_to_Am_M_A/Vsm_=_65563218390.804596
# pendiente_HvsI_1/m_=_3716.3
# ordenada_HvsI_A/m_=_1297.0
# frecuencia_Hz_=_302510.5272412792

Tiempo_(s)	Campo_(V.s)	Magnetizacion_(V.s)	Campo_(kA/m)	Magnetizacion_(A/m)
0.000000e+00	-7.883069e-06	-2.478698e-08	-5.683843e+01	-1.622610e+03
1.000000e-08	-7.878747e-06	-2.478592e-08	-5.680727e+01	-1.621838e+03
2.000000e-08	-7.871927e-06	-2.477531e-08	-5.675809e+01	-1.621053e+03
3.000000e-08	-7.862468e-06	-2.476269e-08	-5.668989e+01	-1.620296e+03
4.000000e-08	-7.850154e-06	-2.474960e-08	-5.660111e+01	-1.619583e+03
5.000000e-08	-7.834921e-06	-2.473224e-08	-5.649127e+01	-1.618898e+03
6.000000e-08	-7.817014e-06	-2.471047e-08	-5.636215e+01	-1.618200e+03
7.000000e-08	-7.796915e-06	-2.468213e-08	-5.621724e+01	-1.617431e+03
8.000000e-08	-7.774458e-06	-2.467584e-08	-5.605532e+01	-1.616525e+03
9.000000e-08	-7.749027e-06	-2.473320e-08	-5.587196e+01	-1.615421e+03
1.000000e-07	-7.720430e-06	-2.468696e-08	-5.566577e+01	-1.614072e+03
1.100000e-07	-7.688935e-06	-2.459998e-08	-5.543869e+01	-1.612456e+03
1.200000e-07	-7.654633e-06	-2.457658e-08	-5.519136e+01	-1.610578e+03
1.300000e-07	-7.617680e-06	-2.455432e-08	-5.492492e+01	-1.608467e+03
1.400000e-07	-7.578507e-06	-2.448437e-08	-5.464247e+01	-1.606175e+03
1.500000e-07	-7.537138e-06	-2.441381e-08	-5.434420e+01	-1.603763e+03
1.600000e-07	-7.493329e-06	-2.449915e-08	-5.402833e+01	-1.601290e+03
1.700000e-07	-7.446953e-06	-2.442994e-08	-5.369395e+01	-1.598801e+03
1.800000e-07	-7.397835e-06	-2.430536e-08	-5.333980e+01	-1.596320e+03
1.900000e-07	-7.345755e-06	-2.434757e-08	-5.296429e+01	-1.593839e+03
2.000000e-07	-7.290845e-06	-2.425904e-08	-5.256838e+01	-1.591324e+03
2.100000e-07	-7.233303e-06	-2.420489e-08	-5.215349e+01	-1.588711e+03
2.200000e-07	-7.173116e-06	-2.416946e-08	-5.171953e+01	-1.585920e+03
2.300000e-07	-7.110324e-06	-2.410590e-08	-5.126679e+01	-1.582868e+03
2.400000e-07	-7.044828e-06	-2.407923e-08	-5.079455e+01	-1.579479e+03
2.500000e-07	-6.976631e-06	-2.397859e-08	-5.030283e+01	-1.575697e+03
2.600000e-07	-6.905831e-06	-2.393683e-08	-4.979235e+01	-1.571496e+03
2.700000e-07	-6.832261e-06	-2.386592e-08	-4.926190e+01	-1.566885e+03
2.800000e-07	-6.755934e-06	-2.379185e-08	-4.871157e+01	-1.561902e+03
2.900000e-07	-6.676833e-06	-2.371471e-08	-4.814124e+01	-1.556614e+03
3.000000e-07	-6.595050e-06	-2.363007e-08	-4.755156e+01	-1.551099e+03
3.100000e-07	-6.511098e-06	-2.357011e-08	-4.694625e+01	-1.545437e+03
3.200000e-07	-6.425048e-06	-2.346489e-08	-4.632582e+01	-1.539690e+03
3.300000e-07	-6.336620e-06	-2.339957e-08	-4.568823e+01	-1.533897e+03
3.400000e-07	-6.245763e-06	-2.329202e-08	-4.503314e+01	-1.528057e+03
3.500000e-07	-6.152675e-06	-2.319395e-08	-4.436196e+01	-1.522134e+03
3.600000e-07	-6.057435e-06	-2.310747e-08	-4.367526e+01	-1.516058e+03
3.700000e-07	-5.959891e-06	-2.299562e-08	-4.297195e+01	-1.509735e+03
3.800000e-07	-5.860126e-06	-2.288349e-08	-4.225262e+01	-1.503057e+03
3.900000e-07	-5.758333e-06	-2.276584e-08	-4.151868e+01	-1.495925e+03
4.000000e-07	-5.654538e-06	-2.265762e-08	-4.077029e+01	-1.488260e+03
4.100000e-07	-5.548755e-06	-2.252084e-08	-4.000758e+01	-1.480014e+03
4.200000e-07	-5.441003e-06	-2.239965e-08	-3.923067e+01	-1.471177e+03
4.300000e-07	-5.331341e-06	-2.226753e-08	-3.843998e+01	-1.461781e+03
4.400000e-07	-5.219687e-06	-2.212717e-08	-3.763494e+01	-1.451888e+03
4.500000e-07	-5.106028e-06	-2.197295e-08	-3.681543e+01	-1.441579e+03
4.600000e-07	-4.990444e-06	-2.181472e-08	-3.598205e+01	-1.430937e+03
4.700000e-07	-4.873025e-06	-2.165108e-08	-3.513544e+01	-1.420029e+03
4.800000e-07	-4.753830e-06	-2.147697e-08	-3.427602e+01	-1.408890e+03
4.900000e-07	-4.632862e-06	-2.130367e-08	-3.340382e+01	-1.397512e+03
5.000000e-07	-4.510104e-06	-2.111890e-08	-3.251871e+01	-1.385839e+03
5.100000e-07	-4.385651e-06	-2.092905e-08	-3.162138e+01	-1.373767e+03
5.200000e-07	-4.259691e-06	-2.072300e-08	-3.071318e+01	-1.361160e+03
5.300000e-07	-4.132225e-06	-2.050996e-08	-2.979413e+01	-1.347863e+03
5.400000e-07	-4.003288e-06	-2.028122e-08	-2.886447e+01	-1.333725e+03
5.500000e-07	-3.872847e-06	-2.004589e-08	-2.792396e+01	-1.318617e+03
5.600000e-07	-3.740856e-06	-1.979701e-08	-2.697229e+01	-1.302448e+03
5.700000e-07	-3.607450e-06	-1.953466e-08	-2.601040e+01	-1.285179e+03
5.800000e-07	-3.472689e-06	-1.926038e-08	-2.503875e+01	-1.266824e+03
5.900000e-07	-3.336627e-06	-1.897648e-08	-2.405772e+01	-1.247435e+03
6.000000e-07	-3.199349e-06	-1.868541e-08	-2.306792e+01	-1.227094e+03
6.100000e-07	-3.060711e-06	-1.837751e-08	-2.206831e+01	-1.205880e+03
6.200000e-07	-2.920679e-06	-1.805264e-08	-2.105865e+01	-1.183848e+03
6.300000e-07	-2.779439e-06	-1.770013e-08	-2.004028e+01	-1.160995e+03
6.400000e-07	-2.637089e-06	-1.732422e-08	-1.901391e+01	-1.137242e+03
6.500000e-07	-2.493675e-06	-1.692542e-08	-1.797987e+01	-1.112419e+03
6.600000e-07	-2.349339e-06	-1.650759e-08	-1.693918e+01	-1.086267e+03
6.700000e-07	-2.204193e-06	-1.606531e-08	-1.589265e+01	-1.058445e+03
6.800000e-07	-2.058344e-06	-1.559439e-08	-1.484105e+01	-1.028558e+03
6.900000e-07	-1.911809e-06	-1.509456e-08	-1.378451e+01	-9.961905e+02
7.000000e-07	-1.764593e-06	-1.455626e-08	-1.272305e+01	-9.609456e+02
7.100000e-07	-1.616839e-06	-1.398013e-08	-1.165771e+01	-9.224852e+02
7.200000e-07	-1.468618e-06	-1.335809e-08	-1.058901e+01	-8.805653e+02
7.300000e-07	-1.320029e-06	-1.268631e-08	-9.517663e+00	-8.350614e+02
7.400000e-07	-1.171086e-06	-1.195943e-08	-8.443749e+00	-7.859798e+02
7.500000e-07	-1.021713e-06	-1.117779e-08	-7.366746e+00	-7.334543e+02
7.600000e-07	-8.719360e-07	-1.034179e-08	-6.286824e+00	-6.777269e+02
7.700000e-07	-7.218479e-07	-9.450584e-09	-5.204661e+00	-6.191168e+02
7.800000e-07	-5.715253e-07	-8.507395e-09	-4.120806e+00	-5.579804e+02
7.900000e-07	-4.210340e-07	-7.515184e-09	-3.035735e+00	-4.946696e+02
8.000000e-07	-2.703298e-07	-6.485357e-09	-1.949130e+00	-4.294933e+02
8.100000e-07	-1.194275e-07	-5.429237e-09	-8.610947e-01	-3.626883e+02
8.200000e-07	3.156718e-08	-4.361975e-09	2.276054e-01	-2.944045e+02
8.300000e-07	1.825755e-07	-3.292860e-09	1.316404e+00	-2.247065e+02
8.400000e-07	3.335212e-07	-2.224710e-09	2.404751e+00	-1.535919e+02
8.500000e-07	4.843608e-07	-1.152845e-09	3.492334e+00	-8.102422e+01
8.600000e-07	6.349911e-07	-7.027327e-11	4.578407e+00	-6.975864e+00
8.700000e-07	7.853755e-07	1.033253e-09	5.662707e+00	6.852492e+01
8.800000e-07	9.355548e-07	2.169123e-09	6.745528e+00	1.453501e+02
8.900000e-07	1.085461e-06	3.342381e-09	7.826383e+00	2.232373e+02
9.000000e-07	1.234936e-06	4.549120e-09	8.904121e+00	3.017710e+02
9.100000e-07	1.383937e-06	5.778904e-09	9.978447e+00	3.803822e+02
9.200000e-07	1.532511e-06	7.015863e-09	1.104970e+01	4.583685e+02
9.300000e-07	1.680617e-06	8.229863e-09	1.211757e+01	5.349330e+02
9.400000e-07	1.828186e-06	9.391694e-09	1.318157e+01	6.092378e+02
9.500000e-07	1.975121e-06	1.047978e-08	1.424100e+01	6.804661e+02
9.600000e-07	2.121298e-06	1.148645e-08	1.529496e+01	7.478864e+02
9.700000e-07	2.266603e-06	1.241337e-08	1.634264e+01	8.109096e+02
9.800000e-07	2.411101e-06	1.326061e-08	1.738450e+01	8.691341e+02
9.900000e-07	2.554761e-06	1.403538e-08	1.842031e+01	9.223720e+02
1.000000e-06	2.697394e-06	1.474220e-08	1.944872e+01	9.706547e+02
1.010000e-06	2.838916e-06	1.539030e-08	2.046913e+01	1.014217e+03
1.020000e-06	2.979277e-06	1.598672e-08	2.148115e+01	1.053463e+03
1.030000e-06	3.118396e-06	1.653798e-08	2.248423e+01	1.088914e+03
1.040000e-06	3.256179e-06	1.704962e-08	2.347767e+01	1.121155e+03
1.050000e-06	3.392718e-06	1.752202e-08	2.446215e+01	1.150774e+03
1.060000e-06	3.528037e-06	1.796035e-08	2.543782e+01	1.178310e+03
1.070000e-06	3.662041e-06	1.836721e-08	2.640401e+01	1.204211e+03
1.080000e-06	3.794769e-06	1.874815e-08	2.736100e+01	1.228811e+03
1.090000e-06	3.926157e-06	1.910498e-08	2.830834e+01	1.252318e+03
1.100000e-06	4.056078e-06	1.944056e-08	2.924509e+01	1.274827e+03
1.110000e-06	4.184579e-06	1.975496e-08	3.017161e+01	1.296337e+03
1.120000e-06	4.311604e-06	2.005291e-08	3.108749e+01	1.316787e+03
1.130000e-06	4.437134e-06	2.033256e-08	3.199258e+01	1.336089e+03
1.140000e-06	4.561244e-06	2.059377e-08	3.288744e+01	1.354163e+03
1.150000e-06	4.683731e-06	2.084266e-08	3.377059e+01	1.370965e+03
1.160000e-06	4.804514e-06	2.107860e-08	3.464146e+01	1.386505e+03
1.170000e-06	4.923613e-06	2.130075e-08	3.550019e+01	1.400851e+03
1.180000e-06	5.040930e-06	2.150841e-08	3.634607e+01	1.414127e+03
1.190000e-06	5.156279e-06	2.170494e-08	3.717775e+01	1.426495e+03
1.200000e-06	5.269573e-06	2.189099e-08	3.799462e+01	1.438138e+03
1.210000e-06	5.380911e-06	2.206807e-08	3.879739e+01	1.449229e+03
1.220000e-06	5.490366e-06	2.223801e-08	3.958658e+01	1.459915e+03
1.230000e-06	5.597955e-06	2.240074e-08	4.036232e+01	1.470298e+03
1.240000e-06	5.703498e-06	2.255643e-08	4.112331e+01	1.480424e+03
1.250000e-06	5.806889e-06	2.270435e-08	4.186878e+01	1.490285e+03
1.260000e-06	5.908152e-06	2.284252e-08	4.259890e+01	1.499829e+03
1.270000e-06	6.007186e-06	2.297066e-08	4.331295e+01	1.508972e+03
1.280000e-06	6.103953e-06	2.309066e-08	4.401066e+01	1.517622e+03
1.290000e-06	6.198439e-06	2.320403e-08	4.469192e+01	1.525693e+03
1.300000e-06	6.290715e-06	2.331328e-08	4.535725e+01	1.533133e+03
1.310000e-06	6.380762e-06	2.341712e-08	4.600650e+01	1.539924e+03
1.320000e-06	6.468496e-06	2.351534e-08	4.663909e+01	1.546098e+03
1.330000e-06	6.554031e-06	2.360838e-08	4.725581e+01	1.551726e+03
1.340000e-06	6.637280e-06	2.369557e-08	4.785605e+01	1.556915e+03
1.350000e-06	6.718110e-06	2.377804e-08	4.843885e+01	1.561787e+03
1.360000e-06	6.796506e-06	2.385513e-08	4.900410e+01	1.566464e+03
1.370000e-06	6.872303e-06	2.393043e-08	4.955061e+01	1.571048e+03
1.380000e-06	6.945426e-06	2.400296e-08	5.007784e+01	1.575611e+03
1.390000e-06	7.016085e-06	2.407161e-08	5.058731e+01	1.580182e+03
1.400000e-06	7.084358e-06	2.413687e-08	5.107957e+01	1.584747e+03
1.410000e-06	7.150089e-06	2.419987e-08	5.155350e+01	1.589254e+03
1.420000e-06	7.213222e-06	2.426022e-08	5.200870e+01	1.593620e+03
1.430000e-06	7.273933e-06	2.431612e-08	5.244644e+01	1.597755e+03
1.440000e-06	7.332149e-06	2.436796e-08	5.286619e+01	1.601567e+03
1.450000e-06	7.387702e-06	2.441610e-08	5.326673e+01	1.604987e+03
1.460000e-06	7.440487e-06	2.446055e-08	5.364733e+01	1.607975e+03
1.470000e-06	7.490225e-06	2.450155e-08	5.400595e+01	1.610529e+03
1.480000e-06	7.537043e-06	2.454065e-08	5.434351e+01	1.612685e+03
1.490000e-06	7.581277e-06	2.457667e-08	5.466245e+01	1.614507e+03
1.500000e-06	7.622771e-06	2.460949e-08	5.496163e+01	1.616083e+03
1.510000e-06	7.661477e-06	2.463898e-08	5.524070e+01	1.617502e+03
1.520000e-06	7.697599e-06	2.466533e-08	5.550115e+01	1.618849e+03
1.530000e-06	7.730972e-06	2.468764e-08	5.574178e+01	1.620184e+03
1.540000e-06	7.761517e-06	2.470694e-08	5.596202e+01	1.621540e+03
1.550000e-06	7.789397e-06	2.472340e-08	5.616304e+01	1.622912e+03
1.560000e-06	7.814454e-06	2.473748e-08	5.634370e+01	1.624268e+03
1.570000e-06	7.836640e-06	2.475008e-08	5.650367e+01	1.625549e+03
1.580000e-06	7.856119e-06	2.476200e-08	5.664411e+01	1.626684e+03
1.590000e-06	7.872743e-06	2.477499e-08	5.676397e+01	1.627602e+03
1.600000e-06	7.886361e-06	2.478442e-08	5.686216e+01	1.628248e+03
1.610000e-06	7.896907e-06	2.478887e-08	5.693820e+01	1.628585e+03
1.620000e-06	7.904442e-06	2.479125e-08	5.699253e+01	1.628610e+03
1.630000e-06	7.909236e-06	2.479496e-08	5.702710e+01	1.628349e+03
1.640000e-06	7.911234e-06	2.479819e-08	5.704150e+01	1.627851e+03
1.650000e-06	7.910378e-06	2.479642e-08	5.703533e+01	1.627186e+03
1.660000e-06	7.906887e-06	2.478251e-08	5.701016e+01	1.626425e+03
1.670000e-06	7.900692e-06	2.477587e-08	5.696549e+01	1.625637e+03
1.680000e-06	7.891842e-06	2.477017e-08	5.690168e+01	1.624868e+03
1.690000e-06	7.880350e-06	2.475936e-08	5.681882e+01	1.624140e+03
1.700000e-06	7.865988e-06	2.474972e-08	5.671527e+01	1.623448e+03
1.710000e-06	7.849034e-06	2.474618e-08	5.659303e+01	1.622757e+03
1.720000e-06	7.829897e-06	2.474823e-08	5.645505e+01	1.622013e+03
1.730000e-06	7.808337e-06	2.467207e-08	5.629959e+01	1.621152e+03
1.740000e-06	7.783752e-06	2.457793e-08	5.612233e+01	1.620108e+03
1.750000e-06	7.755621e-06	2.461959e-08	5.591950e+01	1.618830e+03
1.760000e-06	7.724004e-06	2.462821e-08	5.569154e+01	1.617290e+03
1.770000e-06	7.689702e-06	2.457760e-08	5.544421e+01	1.615482e+03
1.780000e-06	7.653227e-06	2.459068e-08	5.518122e+01	1.613432e+03
1.790000e-06	7.614552e-06	2.464866e-08	5.490237e+01	1.611184e+03
1.800000e-06	7.573877e-06	2.447783e-08	5.460909e+01	1.608798e+03
1.810000e-06	7.531034e-06	2.446209e-08	5.430019e+01	1.606334e+03
1.820000e-06	7.485447e-06	2.453449e-08	5.397150e+01	1.603844e+03
1.830000e-06	7.437192e-06	2.438932e-08	5.362357e+01	1.601358e+03
1.840000e-06	7.386072e-06	2.448199e-08	5.325498e+01	1.598878e+03
1.850000e-06	7.331902e-06	2.436943e-08	5.286441e+01	1.596376e+03
1.860000e-06	7.275019e-06	2.432007e-08	5.245427e+01	1.593797e+03
1.870000e-06	7.215567e-06	2.431513e-08	5.202561e+01	1.591064e+03
1.880000e-06	7.153472e-06	2.415351e-08	5.157790e+01	1.588093e+03
1.890000e-06	7.088559e-06	2.421385e-08	5.110986e+01	1.584805e+03
1.900000e-06	7.020968e-06	2.410370e-08	5.062251e+01	1.581137e+03
1.910000e-06	6.950665e-06	2.406658e-08	5.011562e+01	1.577055e+03
1.920000e-06	6.877594e-06	2.402041e-08	4.958876e+01	1.572556e+03
1.930000e-06	6.801889e-06	2.391757e-08	4.904291e+01	1.567672e+03
1.940000e-06	6.723425e-06	2.389569e-08	4.847718e+01	1.562461e+03
1.950000e-06	6.642410e-06	2.375123e-08	4.789304e+01	1.557001e+03
1.960000e-06	6.558975e-06	2.371742e-08	4.729145e+01	1.551372e+03
1.970000e-06	6.473038e-06	2.360213e-08	4.667183e+01	1.545642e+03
1.980000e-06	6.384698e-06	2.353173e-08	4.603488e+01	1.539858e+03
1.990000e-06	6.294125e-06	2.346195e-08	4.538184e+01	1.534032e+03
2.000000e-06	6.201403e-06	2.334261e-08	4.471330e+01	1.528137e+03
2.010000e-06	6.106402e-06	2.326701e-08	4.402832e+01	1.522112e+03
2.020000e-06	6.009215e-06	2.313895e-08	4.332758e+01	1.515868e+03
2.030000e-06	5.909978e-06	2.305307e-08	4.261206e+01	1.509300e+03
2.040000e-06	5.808600e-06	2.292244e-08	4.188111e+01	1.502306e+03
2.050000e-06	5.705029e-06	2.282183e-08	4.113434e+01	1.494797e+03
2.060000e-06	5.599481e-06	2.268767e-08	4.037332e+01	1.486717e+03
2.070000e-06	5.492108e-06	2.255341e-08	3.959915e+01	1.478046e+03
2.080000e-06	5.382863e-06	2.241714e-08	3.881147e+01	1.468803e+03
2.090000e-06	5.271636e-06	2.227684e-08	3.800950e+01	1.459043e+03
2.100000e-06	5.158440e-06	2.214370e-08	3.719334e+01	1.448842e+03
2.110000e-06	5.043387e-06	2.198752e-08	3.636378e+01	1.438285e+03
2.120000e-06	4.926375e-06	2.183728e-08	3.552010e+01	1.427446e+03
2.130000e-06	4.807358e-06	2.165836e-08	3.466196e+01	1.416370e+03
2.140000e-06	4.686460e-06	2.148404e-08	3.379027e+01	1.405062e+03
2.150000e-06	4.563891e-06	2.129478e-08	3.290652e+01	1.393480e+03
2.160000e-06	4.439741e-06	2.111140e-08	3.201138e+01	1.381532e+03
2.170000e-06	4.313958e-06	2.091118e-08	3.110446e+01	1.369092e+03
2.180000e-06	4.186518e-06	2.070670e-08	3.018559e+01	1.356006e+03
2.190000e-06	4.057575e-06	2.048776e-08	2.925589e+01	1.342121e+03
2.200000e-06	3.927191e-06	2.026098e-08	2.831579e+01	1.327299e+03
2.210000e-06	3.795290e-06	2.002531e-08	2.736476e+01	1.311438e+03
2.220000e-06	3.661993e-06	1.977663e-08	2.640367e+01	1.294483e+03
2.230000e-06	3.527304e-06	1.951432e-08	2.543253e+01	1.276431e+03
2.240000e-06	3.391236e-06	1.922920e-08	2.445145e+01	1.257329e+03
2.250000e-06	3.253972e-06	1.893237e-08	2.346176e+01	1.237249e+03
2.260000e-06	3.115513e-06	1.861930e-08	2.246344e+01	1.216276e+03
2.270000e-06	2.975789e-06	1.829742e-08	2.145600e+01	1.194473e+03
2.280000e-06	2.834870e-06	1.795978e-08	2.043995e+01	1.171857e+03
2.290000e-06	2.692866e-06	1.760773e-08	1.941608e+01	1.148372e+03
2.300000e-06	2.549798e-06	1.722744e-08	1.838453e+01	1.123876e+03
2.310000e-06	2.405733e-06	1.682132e-08	1.734579e+01	1.098133e+03
2.320000e-06	2.260880e-06	1.638632e-08	1.630138e+01	1.070825e+03
2.330000e-06	2.115372e-06	1.592112e-08	1.525223e+01	1.041568e+03
2.340000e-06	1.969226e-06	1.542431e-08	1.419849e+01	1.009949e+03
2.350000e-06	1.822391e-06	1.489395e-08	1.313979e+01	9.755626e+02
2.360000e-06	1.674886e-06	1.432801e-08	1.207624e+01	9.380486e+02
2.370000e-06	1.526801e-06	1.371859e-08	1.100852e+01	8.971335e+02
2.380000e-06	1.378235e-06	1.306099e-08	9.937336e+00	8.526568e+02
2.390000e-06	1.229322e-06	1.235407e-08	8.863649e+00	8.045873e+02
2.400000e-06	1.080112e-06	1.159228e-08	7.787815e+00	7.530234e+02
2.410000e-06	9.305613e-07	1.077313e-08	6.709524e+00	6.981790e+02
2.420000e-06	7.807004e-07	9.899931e-09	5.628999e+00	6.403551e+02
2.430000e-06	6.305866e-07	8.971146e-09	4.546649e+00	5.799017e+02
2.440000e-06	4.802338e-07	7.987987e-09	3.462577e+00	5.171763e+02
2.450000e-06	3.296553e-07	6.960748e-09	2.376877e+00	4.525033e+02
2.460000e-06	1.788782e-07	5.907185e-09	1.289746e+00	3.861426e+02
2.470000e-06	2.794932e-08	4.837867e-09	2.015199e-01	3.182693e+02
2.480000e-06	-1.230629e-07	3.762803e-09	-8.873072e-01	2.489713e+02
2.490000e-06	-2.740351e-07	2.690381e-09	-1.975845e+00	1.782625e+02
2.500000e-06	-4.248849e-07	1.616014e-09	-3.063501e+00	1.061121e+02
2.510000e-06	-5.755701e-07	5.319910e-10	-4.149970e+00	3.248538e+01
2.520000e-06	-7.260476e-07	-5.719100e-10	-5.234941e+00	-4.261027e+01
2.530000e-06	-8.762145e-07	-1.704585e-09	-6.317673e+00	-1.190793e+02
2.540000e-06	-1.026008e-06	-2.871009e-09	-7.397710e+00	-1.967005e+02
2.550000e-06	-1.175492e-06	-4.071434e-09	-8.475519e+00	-2.751030e+02
2.560000e-06	-1.324636e-06	-5.296035e-09	-9.550877e+00	-3.537603e+02
2.570000e-06	-1.473353e-06	-6.533012e-09	-1.062315e+01	-4.320052e+02
2.580000e-06	-1.621651e-06	-7.760854e-09	-1.169241e+01	-5.090626e+02
2.590000e-06	-1.769422e-06	-8.950961e-09	-1.275787e+01	-5.841004e+02
2.600000e-06	-1.916450e-06	-1.007788e-08	-1.381797e+01	-6.562891e+02
2.610000e-06	-2.062662e-06	-1.112483e-08	-1.487218e+01	-7.248666e+02
2.620000e-06	-2.208134e-06	-1.208662e-08	-1.592106e+01	-7.891979e+02
2.630000e-06	-2.352861e-06	-1.296628e-08	-1.696458e+01	-8.488242e+02
2.640000e-06	-2.496677e-06	-1.377051e-08	-1.800152e+01	-9.034950e+02
2.650000e-06	-2.639377e-06	-1.450662e-08	-1.903041e+01	-9.531798e+02
2.660000e-06	-2.780919e-06	-1.517961e-08	-2.005095e+01	-9.980582e+02
2.670000e-06	-2.921415e-06	-1.579633e-08	-2.106395e+01	-1.038490e+03
2.680000e-06	-3.060777e-06	-1.636610e-08	-2.206878e+01	-1.074969e+03
2.690000e-06	-3.198863e-06	-1.689114e-08	-2.306441e+01	-1.108068e+03
2.700000e-06	-3.335804e-06	-1.737606e-08	-2.405178e+01	-1.138380e+03
2.710000e-06	-3.471565e-06	-1.782612e-08	-2.503064e+01	-1.166463e+03
2.720000e-06	-3.605932e-06	-1.824508e-08	-2.599946e+01	-1.192794e+03
2.730000e-06	-3.738986e-06	-1.863826e-08	-2.695880e+01	-1.217740e+03
2.740000e-06	-3.870728e-06	-1.900599e-08	-2.790868e+01	-1.241547e+03
2.750000e-06	-4.001074e-06	-1.934718e-08	-2.884850e+01	-1.264340e+03
2.760000e-06	-4.130104e-06	-1.966660e-08	-2.977884e+01	-1.286141e+03
2.770000e-06	-4.257756e-06	-1.996984e-08	-3.069923e+01	-1.306904e+03
2.780000e-06	-4.383855e-06	-2.025666e-08	-3.160843e+01	-1.326545e+03
2.790000e-06	-4.508433e-06	-2.052605e-08	-3.250666e+01	-1.344979e+03
2.800000e-06	-4.631474e-06	-2.077942e-08	-3.339381e+01	-1.362148e+03
2.810000e-06	-4.752859e-06	-2.101850e-08	-3.426902e+01	-1.378046e+03
2.820000e-06	-4.872475e-06	-2.124750e-08	-3.513147e+01	-1.392724e+03
2.830000e-06	-4.990163e-06	-2.146485e-08	-3.598003e+01	-1.406293e+03
2.840000e-06	-5.105838e-06	-2.166950e-08	-3.681406e+01	-1.418904e+03
2.850000e-06	-5.219434e-06	-2.186381e-08	-3.763311e+01	-1.430738e+03
2.860000e-06	-5.330965e-06	-2.204696e-08	-3.843727e+01	-1.441972e+03
2.870000e-06	-5.440548e-06	-2.221883e-08	-3.922738e+01	-1.452763e+03
2.880000e-06	-5.548248e-06	-2.237978e-08	-4.000392e+01	-1.463227e+03
2.890000e-06	-5.654026e-06	-2.253250e-08	-4.076660e+01	-1.473427e+03
2.900000e-06	-5.757709e-06	-2.268059e-08	-4.151417e+01	-1.483369e+03
2.910000e-06	-5.859229e-06	-2.282392e-08	-4.224615e+01	-1.493013e+03
2.920000e-06	-5.958658e-06	-2.295914e-08	-4.296306e+01	-1.502282e+03
2.930000e-06	-6.056022e-06	-2.308645e-08	-4.366507e+01	-1.511084e+03
2.940000e-06	-6.151187e-06	-2.320510e-08	-4.435123e+01	-1.519330e+03
