# Temperatura_=_89.2
# Concentracion g/m^3_=_28370.0
# C_Vs_to_Am_M_A/Vsm_=_65563218390.804596
# pendiente_HvsI_1/m_=_3716.3
# ordenada_HvsI_A/m_=_1297.0
# frecuencia_Hz_=_302502.92320240464

Tiempo_(s)	Campo_(V.s)	Magnetizacion_(V.s)	Campo_(kA/m)	Magnetizacion_(A/m)
0.000000e+00	-7.871862e-06	-2.985926e-08	-5.685720e+01	-1.956832e+03
1.000000e-08	-7.869707e-06	-2.985865e-08	-5.684163e+01	-1.955979e+03
2.000000e-08	-7.864901e-06	-2.985089e-08	-5.680692e+01	-1.955053e+03
3.000000e-08	-7.857596e-06	-2.983616e-08	-5.675416e+01	-1.954104e+03
4.000000e-08	-7.847626e-06	-2.982064e-08	-5.668214e+01	-1.953156e+03
5.000000e-08	-7.834864e-06	-2.980253e-08	-5.658997e+01	-1.952203e+03
6.000000e-08	-7.819158e-06	-2.977774e-08	-5.647653e+01	-1.951210e+03
7.000000e-08	-7.800810e-06	-2.974939e-08	-5.634400e+01	-1.950125e+03
8.000000e-08	-7.780288e-06	-2.971013e-08	-5.619577e+01	-1.948881e+03
9.000000e-08	-7.757306e-06	-2.972376e-08	-5.602978e+01	-1.947415e+03
1.000000e-07	-7.731294e-06	-2.977376e-08	-5.584189e+01	-1.945675e+03
1.100000e-07	-7.702184e-06	-2.969494e-08	-5.563164e+01	-1.943634e+03
1.200000e-07	-7.670200e-06	-2.960729e-08	-5.540062e+01	-1.941289e+03
1.300000e-07	-7.635387e-06	-2.957780e-08	-5.514918e+01	-1.938669e+03
1.400000e-07	-7.598020e-06	-2.953203e-08	-5.487928e+01	-1.935820e+03
1.500000e-07	-7.558442e-06	-2.943046e-08	-5.459342e+01	-1.932804e+03
1.600000e-07	-7.516608e-06	-2.937142e-08	-5.429126e+01	-1.929685e+03
1.700000e-07	-7.472328e-06	-2.946412e-08	-5.397142e+01	-1.926511e+03
1.800000e-07	-7.425460e-06	-2.932962e-08	-5.363291e+01	-1.923311e+03
1.900000e-07	-7.375845e-06	-2.924104e-08	-5.327455e+01	-1.920082e+03
2.000000e-07	-7.323279e-06	-2.927402e-08	-5.289487e+01	-1.916789e+03
2.100000e-07	-7.267863e-06	-2.913890e-08	-5.249461e+01	-1.913367e+03
2.200000e-07	-7.209802e-06	-2.908811e-08	-5.207524e+01	-1.909731e+03
2.300000e-07	-7.149143e-06	-2.899051e-08	-5.163711e+01	-1.905788e+03
2.400000e-07	-7.085940e-06	-2.892216e-08	-5.118061e+01	-1.901450e+03
2.500000e-07	-7.020078e-06	-2.888187e-08	-5.070490e+01	-1.896649e+03
2.600000e-07	-6.951507e-06	-2.878086e-08	-5.020962e+01	-1.891349e+03
2.700000e-07	-6.880198e-06	-2.871116e-08	-4.969457e+01	-1.885548e+03
2.800000e-07	-6.806120e-06	-2.860876e-08	-4.915951e+01	-1.879283e+03
2.900000e-07	-6.729368e-06	-2.852075e-08	-4.860514e+01	-1.872621e+03
3.000000e-07	-6.649878e-06	-2.840376e-08	-4.803100e+01	-1.865650e+03
3.100000e-07	-6.567819e-06	-2.830477e-08	-4.743831e+01	-1.858459e+03
3.200000e-07	-6.483518e-06	-2.822661e-08	-4.682941e+01	-1.851129e+03
3.300000e-07	-6.397034e-06	-2.810525e-08	-4.620475e+01	-1.843713e+03
3.400000e-07	-6.308228e-06	-2.800069e-08	-4.556332e+01	-1.836227e+03
3.500000e-07	-6.217043e-06	-2.784947e-08	-4.490471e+01	-1.828645e+03
3.600000e-07	-6.123709e-06	-2.773194e-08	-4.423057e+01	-1.820903e+03
3.700000e-07	-6.028195e-06	-2.761531e-08	-4.354068e+01	-1.812904e+03
3.800000e-07	-5.930383e-06	-2.746719e-08	-4.283420e+01	-1.804533e+03
3.900000e-07	-5.830424e-06	-2.732222e-08	-4.211222e+01	-1.795675e+03
4.000000e-07	-5.728433e-06	-2.717589e-08	-4.137555e+01	-1.786232e+03
4.100000e-07	-5.624356e-06	-2.702938e-08	-4.062382e+01	-1.776136e+03
4.200000e-07	-5.518276e-06	-2.685523e-08	-3.985762e+01	-1.765361e+03
4.300000e-07	-5.410316e-06	-2.670589e-08	-3.907785e+01	-1.753923e+03
4.400000e-07	-5.300495e-06	-2.653845e-08	-3.828463e+01	-1.741880e+03
4.500000e-07	-5.188685e-06	-2.635671e-08	-3.747704e+01	-1.729312e+03
4.600000e-07	-5.074871e-06	-2.616197e-08	-3.665498e+01	-1.716312e+03
4.700000e-07	-4.959122e-06	-2.596417e-08	-3.581895e+01	-1.702963e+03
4.800000e-07	-4.841522e-06	-2.575559e-08	-3.496954e+01	-1.689319e+03
4.900000e-07	-4.722174e-06	-2.553372e-08	-3.410750e+01	-1.675391e+03
5.000000e-07	-4.601086e-06	-2.531477e-08	-3.323290e+01	-1.661138e+03
5.100000e-07	-4.478308e-06	-2.507930e-08	-3.234610e+01	-1.646467e+03
5.200000e-07	-4.353824e-06	-2.483479e-08	-3.144697e+01	-1.631244e+03
5.300000e-07	-4.227786e-06	-2.457884e-08	-3.053662e+01	-1.615305e+03
5.400000e-07	-4.100257e-06	-2.431936e-08	-2.961550e+01	-1.598479e+03
5.500000e-07	-3.971188e-06	-2.404067e-08	-2.868326e+01	-1.580613e+03
5.600000e-07	-3.840627e-06	-2.374824e-08	-2.774023e+01	-1.561587e+03
5.700000e-07	-3.708553e-06	-2.344445e-08	-2.678628e+01	-1.541333e+03
5.800000e-07	-3.575121e-06	-2.312509e-08	-2.582252e+01	-1.519836e+03
5.900000e-07	-3.440365e-06	-2.278752e-08	-2.484921e+01	-1.497135e+03
6.000000e-07	-3.304222e-06	-2.243373e-08	-2.386587e+01	-1.473302e+03
6.100000e-07	-3.166757e-06	-2.206865e-08	-2.287298e+01	-1.448423e+03
6.200000e-07	-3.028058e-06	-2.168551e-08	-2.187118e+01	-1.422568e+03
6.300000e-07	-2.888091e-06	-2.128478e-08	-2.086022e+01	-1.395759e+03
6.400000e-07	-2.746827e-06	-2.085625e-08	-1.983989e+01	-1.367945e+03
6.500000e-07	-2.604429e-06	-2.040211e-08	-1.881137e+01	-1.338983e+03
6.600000e-07	-2.461053e-06	-1.991923e-08	-1.777579e+01	-1.308632e+03
6.700000e-07	-2.316884e-06	-1.940920e-08	-1.673448e+01	-1.276557e+03
6.800000e-07	-2.171991e-06	-1.887036e-08	-1.568794e+01	-1.242350e+03
6.900000e-07	-2.026275e-06	-1.829678e-08	-1.463546e+01	-1.205563e+03
7.000000e-07	-1.879810e-06	-1.768741e-08	-1.357757e+01	-1.165745e+03
7.100000e-07	-1.732777e-06	-1.703049e-08	-1.251557e+01	-1.122481e+03
7.200000e-07	-1.585263e-06	-1.632834e-08	-1.145010e+01	-1.075439e+03
7.300000e-07	-1.437282e-06	-1.557105e-08	-1.038126e+01	-1.024394e+03
7.400000e-07	-1.288771e-06	-1.475290e-08	-9.308588e+00	-9.692467e+02
7.500000e-07	-1.139848e-06	-1.387297e-08	-8.232942e+00	-9.100320e+02
7.600000e-07	-9.905863e-07	-1.293096e-08	-7.154846e+00	-8.469016e+02
7.700000e-07	-8.410041e-07	-1.192707e-08	-6.074438e+00	-7.801002e+02
7.800000e-07	-6.911498e-07	-1.085419e-08	-4.992064e+00	-7.099291e+02
7.900000e-07	-5.410348e-07	-9.717427e-09	-3.907807e+00	-6.367064e+02
8.000000e-07	-3.907305e-07	-8.523309e-09	-2.822184e+00	-5.607284e+02
8.100000e-07	-2.402671e-07	-7.283289e-09	-1.735411e+00	-4.822389e+02
8.200000e-07	-8.969080e-08	-6.008140e-09	-6.478223e-01	-4.014123e+02
8.300000e-07	6.097438e-08	-4.715773e-09	4.404082e-01	-3.183518e+02
8.400000e-07	2.116685e-07	-3.417991e-09	1.528848e+00	-2.331055e+02
8.500000e-07	3.623131e-07	-2.112935e-09	2.616929e+00	-1.456972e+02
8.600000e-07	5.128511e-07	-7.965587e-10	3.704241e+00	-5.616850e+01
8.700000e-07	6.632513e-07	5.395686e-10	4.790558e+00	3.537352e+01
8.800000e-07	8.134328e-07	1.905341e-09	5.875295e+00	1.287113e+02
8.900000e-07	9.633015e-07	3.313275e-09	6.957772e+00	2.234806e+02
9.000000e-07	1.112864e-06	4.766957e-09	8.038039e+00	3.191493e+02
9.100000e-07	1.262075e-06	6.256157e-09	9.115764e+00	4.150169e+02
9.200000e-07	1.410844e-06	7.759508e-09	1.019030e+01	5.102349e+02
9.300000e-07	1.559119e-06	9.248652e-09	1.126127e+01	6.038478e+02
9.400000e-07	1.706857e-06	1.068640e-08	1.232836e+01	6.948519e+02
9.500000e-07	1.853991e-06	1.204083e-08	1.339108e+01	7.822634e+02
9.600000e-07	2.000476e-06	1.329669e-08	1.444912e+01	8.651907e+02
9.700000e-07	2.146220e-06	1.444817e-08	1.550180e+01	9.429010e+02
9.800000e-07	2.291112e-06	1.549781e-08	1.654833e+01	1.014873e+03
9.900000e-07	2.435128e-06	1.645465e-08	1.758854e+01	1.080834e+03
1.000000e-06	2.578292e-06	1.732980e-08	1.862259e+01	1.140765e+03
1.010000e-06	2.720461e-06	1.813168e-08	1.964945e+01	1.194895e+03
1.020000e-06	2.861424e-06	1.886663e-08	2.066761e+01	1.243659e+03
1.030000e-06	3.001183e-06	1.954442e-08	2.167706e+01	1.287650e+03
1.040000e-06	3.139768e-06	2.017204e-08	2.267804e+01	1.327549e+03
1.050000e-06	3.277101e-06	2.075458e-08	2.366998e+01	1.364065e+03
1.060000e-06	3.413203e-06	2.129431e-08	2.465302e+01	1.397861e+03
1.070000e-06	3.548099e-06	2.179599e-08	2.562735e+01	1.429514e+03
1.080000e-06	3.681707e-06	2.226208e-08	2.659238e+01	1.459470e+03
1.090000e-06	3.813966e-06	2.269883e-08	2.754767e+01	1.488033e+03
1.100000e-06	3.944817e-06	2.310897e-08	2.849278e+01	1.515367e+03
1.110000e-06	4.074229e-06	2.349627e-08	2.942750e+01	1.541515e+03
1.120000e-06	4.202216e-06	2.386246e-08	3.035193e+01	1.566435e+03
1.130000e-06	4.328772e-06	2.420557e-08	3.126603e+01	1.590038e+03
1.140000e-06	4.453882e-06	2.452844e-08	3.216968e+01	1.612228e+03
1.150000e-06	4.577472e-06	2.483376e-08	3.306235e+01	1.632939e+03
1.160000e-06	4.699424e-06	2.512252e-08	3.394318e+01	1.652159e+03
1.170000e-06	4.819724e-06	2.539324e-08	3.481210e+01	1.669944e+03
1.180000e-06	4.938251e-06	2.564849e-08	3.566819e+01	1.686416e+03
1.190000e-06	5.054868e-06	2.589092e-08	3.651050e+01	1.701749e+03
1.200000e-06	5.169604e-06	2.612454e-08	3.733922e+01	1.716152e+03
1.210000e-06	5.282409e-06	2.634658e-08	3.815399e+01	1.729837e+03
1.220000e-06	5.393260e-06	2.655636e-08	3.895465e+01	1.742994e+03
1.230000e-06	5.502211e-06	2.675564e-08	3.974159e+01	1.755771e+03
1.240000e-06	5.609152e-06	2.694472e-08	4.051401e+01	1.768254e+03
1.250000e-06	5.714029e-06	2.712424e-08	4.127151e+01	1.780467e+03
1.260000e-06	5.816835e-06	2.729582e-08	4.201407e+01	1.792374e+03
1.270000e-06	5.917486e-06	2.746032e-08	4.274106e+01	1.803894e+03
1.280000e-06	6.015889e-06	2.761720e-08	4.345180e+01	1.814922e+03
1.290000e-06	6.111985e-06	2.776634e-08	4.414589e+01	1.825348e+03
1.300000e-06	6.205902e-06	2.790940e-08	4.482423e+01	1.835087e+03
1.310000e-06	6.297674e-06	2.804682e-08	4.548709e+01	1.844086e+03
1.320000e-06	6.387183e-06	2.817750e-08	4.613360e+01	1.852344e+03
1.330000e-06	6.474367e-06	2.830125e-08	4.676332e+01	1.859907e+03
1.340000e-06	6.559308e-06	2.841802e-08	4.737683e+01	1.866866e+03
1.350000e-06	6.641976e-06	2.852745e-08	4.797393e+01	1.873340e+03
1.360000e-06	6.722169e-06	2.863032e-08	4.855315e+01	1.879463e+03
1.370000e-06	6.799911e-06	2.872707e-08	4.911467e+01	1.885358e+03
1.380000e-06	6.875125e-06	2.881931e-08	4.965793e+01	1.891125e+03
1.390000e-06	6.947714e-06	2.890625e-08	5.018222e+01	1.896826e+03
1.400000e-06	7.017797e-06	2.898863e-08	5.068842e+01	1.902479e+03
1.410000e-06	7.085460e-06	2.906902e-08	5.117714e+01	1.908058e+03
1.420000e-06	7.150590e-06	2.914606e-08	5.164757e+01	1.913502e+03
1.430000e-06	7.213150e-06	2.921832e-08	5.209942e+01	1.918726e+03
1.440000e-06	7.273258e-06	2.928534e-08	5.253358e+01	1.923642e+03
1.450000e-06	7.330811e-06	2.934930e-08	5.294927e+01	1.928171e+03
1.460000e-06	7.385740e-06	2.940991e-08	5.334601e+01	1.932257e+03
1.470000e-06	7.437843e-06	2.946712e-08	5.372235e+01	1.935880e+03
1.480000e-06	7.486897e-06	2.952118e-08	5.407666e+01	1.939055e+03
1.490000e-06	7.533132e-06	2.957220e-08	5.441060e+01	1.941833e+03
1.500000e-06	7.576702e-06	2.961892e-08	5.472530e+01	1.944286e+03
1.510000e-06	7.617493e-06	2.966062e-08	5.501993e+01	1.946503e+03
1.520000e-06	7.655569e-06	2.969982e-08	5.529495e+01	1.948566e+03
1.530000e-06	7.691067e-06	2.973643e-08	5.555134e+01	1.950543e+03
1.540000e-06	7.723819e-06	2.976729e-08	5.578790e+01	1.952475e+03
1.550000e-06	7.753798e-06	2.979322e-08	5.600444e+01	1.954371e+03
1.560000e-06	7.781098e-06	2.981533e-08	5.620162e+01	1.956205e+03
1.570000e-06	7.805529e-06	2.983474e-08	5.637808e+01	1.957927e+03
1.580000e-06	7.827128e-06	2.985276e-08	5.653409e+01	1.959469e+03
1.590000e-06	7.846002e-06	2.986846e-08	5.667042e+01	1.960760e+03
1.600000e-06	7.862022e-06	2.988217e-08	5.678612e+01	1.961736e+03
1.610000e-06	7.875051e-06	2.988996e-08	5.688023e+01	1.962356e+03
1.620000e-06	7.884958e-06	2.989488e-08	5.695179e+01	1.962606e+03
1.630000e-06	7.891862e-06	2.989963e-08	5.700165e+01	1.962503e+03
1.640000e-06	7.896028e-06	2.990300e-08	5.703174e+01	1.962094e+03
1.650000e-06	7.897379e-06	2.990656e-08	5.704150e+01	1.961443e+03
1.660000e-06	7.895956e-06	2.990108e-08	5.703122e+01	1.960626e+03
1.670000e-06	7.891986e-06	2.988594e-08	5.700255e+01	1.959715e+03
1.680000e-06	7.885359e-06	2.987741e-08	5.695468e+01	1.958768e+03
1.690000e-06	7.876090e-06	2.986532e-08	5.688774e+01	1.957817e+03
1.700000e-06	7.864098e-06	2.984713e-08	5.680112e+01	1.956866e+03
1.710000e-06	7.849278e-06	2.983266e-08	5.669407e+01	1.955890e+03
1.720000e-06	7.832001e-06	2.982627e-08	5.656929e+01	1.954839e+03
1.730000e-06	7.812517e-06	2.982234e-08	5.642856e+01	1.953652e+03
1.740000e-06	7.790518e-06	2.970742e-08	5.626966e+01	1.952262e+03
1.750000e-06	7.765355e-06	2.962421e-08	5.608791e+01	1.950613e+03
1.760000e-06	7.736499e-06	2.966524e-08	5.587949e+01	1.948668e+03
1.770000e-06	7.704242e-06	2.964508e-08	5.564651e+01	1.946418e+03
1.780000e-06	7.669551e-06	2.958775e-08	5.539594e+01	1.943880e+03
1.790000e-06	7.632715e-06	2.962366e-08	5.512988e+01	1.941097e+03
1.800000e-06	7.593651e-06	2.965758e-08	5.484773e+01	1.938126e+03
1.810000e-06	7.552638e-06	2.944621e-08	5.455150e+01	1.935032e+03
1.820000e-06	7.509321e-06	2.948760e-08	5.423862e+01	1.931870e+03
1.830000e-06	7.463254e-06	2.949300e-08	5.390589e+01	1.928676e+03
1.840000e-06	7.414584e-06	2.935483e-08	5.355435e+01	1.925457e+03
1.850000e-06	7.362939e-06	2.943782e-08	5.318133e+01	1.922188e+03
1.860000e-06	7.308308e-06	2.927372e-08	5.278673e+01	1.918814e+03
1.870000e-06	7.251048e-06	2.928630e-08	5.237316e+01	1.915256e+03
1.880000e-06	7.191223e-06	2.923134e-08	5.194105e+01	1.911420e+03
1.890000e-06	7.128760e-06	2.906214e-08	5.148989e+01	1.907216e+03
1.900000e-06	7.063480e-06	2.908379e-08	5.101839e+01	1.902568e+03
1.910000e-06	6.995463e-06	2.892756e-08	5.052711e+01	1.897428e+03
1.920000e-06	6.924715e-06	2.889076e-08	5.001610e+01	1.891784e+03
1.930000e-06	6.851264e-06	2.878559e-08	4.948558e+01	1.885661e+03
1.940000e-06	6.775121e-06	2.870196e-08	4.893561e+01	1.879117e+03
1.950000e-06	6.696303e-06	2.864688e-08	4.836632e+01	1.872233e+03
1.960000e-06	6.615027e-06	2.846981e-08	4.777928e+01	1.865101e+03
1.970000e-06	6.531259e-06	2.840602e-08	4.717423e+01	1.857807e+03
1.980000e-06	6.445018e-06	2.825521e-08	4.655133e+01	1.850413e+03
1.990000e-06	6.356438e-06	2.818864e-08	4.591153e+01	1.842949e+03
2.000000e-06	6.265635e-06	2.806797e-08	4.525568e+01	1.835402e+03
2.010000e-06	6.172628e-06	2.792769e-08	4.458390e+01	1.827719e+03
2.020000e-06	6.077338e-06	2.781145e-08	4.389564e+01	1.819813e+03
2.030000e-06	5.979914e-06	2.765132e-08	4.319196e+01	1.811572e+03
2.040000e-06	5.880371e-06	2.752605e-08	4.247298e+01	1.802881e+03
2.050000e-06	5.778739e-06	2.736671e-08	4.173891e+01	1.793633e+03
2.060000e-06	5.675075e-06	2.724503e-08	4.099016e+01	1.783751e+03
2.070000e-06	5.569452e-06	2.706494e-08	4.022726e+01	1.773192e+03
2.080000e-06	5.461949e-06	2.689503e-08	3.945078e+01	1.761962e+03
2.090000e-06	5.352566e-06	2.671753e-08	3.866073e+01	1.750104e+03
2.100000e-06	5.241229e-06	2.654364e-08	3.785656e+01	1.737693e+03
2.110000e-06	5.127938e-06	2.636277e-08	3.703827e+01	1.724820e+03
2.120000e-06	5.012686e-06	2.616745e-08	3.620583e+01	1.711574e+03
2.130000e-06	4.895427e-06	2.597087e-08	3.535889e+01	1.698020e+03
2.140000e-06	4.776274e-06	2.574547e-08	3.449826e+01	1.684183e+03
2.150000e-06	4.655312e-06	2.552315e-08	3.362457e+01	1.670040e+03
2.160000e-06	4.532704e-06	2.529081e-08	3.273899e+01	1.655516e+03
2.170000e-06	4.408427e-06	2.506458e-08	3.184136e+01	1.640485e+03
2.180000e-06	4.282514e-06	2.481192e-08	3.093191e+01	1.624793e+03
2.190000e-06	4.155067e-06	2.455379e-08	3.001138e+01	1.608269e+03
2.200000e-06	4.026066e-06	2.427951e-08	2.907963e+01	1.590751e+03
2.210000e-06	3.895578e-06	2.399487e-08	2.813713e+01	1.572106e+03
2.220000e-06	3.763597e-06	2.369287e-08	2.718386e+01	1.552249e+03
2.230000e-06	3.630186e-06	2.338199e-08	2.622025e+01	1.531148e+03
2.240000e-06	3.495526e-06	2.305681e-08	2.524762e+01	1.508826e+03
2.250000e-06	3.359605e-06	2.270963e-08	2.426589e+01	1.485346e+03
2.260000e-06	3.222360e-06	2.234830e-08	2.327459e+01	1.460793e+03
2.270000e-06	3.083895e-06	2.196733e-08	2.227448e+01	1.435245e+03
2.280000e-06	2.944171e-06	2.157066e-08	2.126528e+01	1.408742e+03
2.290000e-06	2.803246e-06	2.115021e-08	2.024740e+01	1.381260e+03
2.300000e-06	2.661312e-06	2.071114e-08	1.922223e+01	1.352687e+03
2.310000e-06	2.518470e-06	2.024470e-08	1.819051e+01	1.322813e+03
2.320000e-06	2.374730e-06	1.974987e-08	1.715229e+01	1.291332e+03
2.330000e-06	2.230070e-06	1.921689e-08	1.610744e+01	1.257857e+03
2.340000e-06	2.084641e-06	1.864767e-08	1.505703e+01	1.221948e+03
2.350000e-06	1.938574e-06	1.804311e-08	1.400201e+01	1.183149e+03
2.360000e-06	1.791902e-06	1.739911e-08	1.294262e+01	1.141033e+03
2.370000e-06	1.644614e-06	1.671265e-08	1.187878e+01	1.095234e+03
2.380000e-06	1.496736e-06	1.597501e-08	1.081069e+01	1.045490e+03
2.390000e-06	1.348365e-06	1.518266e-08	9.739023e+00	9.916625e+02
2.400000e-06	1.199536e-06	1.432833e-08	8.664053e+00	9.337424e+02
2.410000e-06	1.050284e-06	1.340849e-08	7.586029e+00	8.718462e+02
2.420000e-06	9.007320e-07	1.242256e-08	6.505843e+00	8.061922e+02
2.430000e-06	7.509062e-07	1.137034e-08	5.423675e+00	7.370678e+02
2.440000e-06	6.007854e-07	1.025265e-08	4.339377e+00	6.647903e+02
2.450000e-06	4.504323e-07	9.070552e-09	3.253400e+00	5.896667e+02
2.460000e-06	2.999421e-07	7.836955e-09	2.166433e+00	5.119603e+02
2.470000e-06	1.493796e-07	6.567235e-09	1.078945e+00	4.318687e+02
2.480000e-06	-1.265404e-09	5.276563e-09	-9.139812e-03	3.495173e+02
2.490000e-06	-1.519533e-07	3.977054e-09	-1.097535e+00	2.649690e+02
2.500000e-06	-3.026013e-07	2.672223e-09	-2.185641e+00	1.782512e+02
2.510000e-06	-4.531917e-07	1.356747e-09	-3.273331e+00	8.939484e+01
2.520000e-06	-6.036585e-07	2.113387e-11	-4.360129e+00	-1.519236e+00
2.530000e-06	-7.539265e-07	-1.343862e-09	-5.445490e+00	-9.431356e+01
2.540000e-06	-9.040009e-07	-2.747916e-09	-6.529454e+00	-1.886741e+02
2.550000e-06	-1.053813e-06	-4.195362e-09	-7.611524e+00	-2.841238e+02
2.560000e-06	-1.203234e-06	-5.680140e-09	-8.690766e+00	-3.800152e+02
2.570000e-06	-1.352156e-06	-7.185426e-09	-9.766406e+00	-4.755437e+02
2.580000e-06	-1.500533e-06	-8.687280e-09	-1.083811e+01	-5.697827e+02
2.590000e-06	-1.648393e-06	-1.015351e-08	-1.190608e+01	-6.617366e+02
2.600000e-06	-1.795627e-06	-1.154995e-08	-1.296953e+01	-7.504076e+02
2.610000e-06	-1.942168e-06	-1.285269e-08	-1.402797e+01	-8.348667e+02
2.620000e-06	-2.088065e-06	-1.405026e-08	-1.508176e+01	-9.143233e+02
2.630000e-06	-2.233190e-06	-1.514258e-08	-1.612997e+01	-9.881839e+02
2.640000e-06	-2.377338e-06	-1.613738e-08	-1.717113e+01	-1.056093e+03
2.650000e-06	-2.520485e-06	-1.704625e-08	-1.820506e+01	-1.117950e+03
2.660000e-06	-2.662743e-06	-1.787962e-08	-1.923257e+01	-1.173907e+03
2.670000e-06	-2.803991e-06	-1.864218e-08	-2.025278e+01	-1.224340e+03
2.680000e-06	-2.944090e-06	-1.934190e-08	-2.126469e+01	-1.269795e+03
2.690000e-06	-3.082969e-06	-1.998890e-08	-2.226779e+01	-1.310934e+03
2.700000e-06	-3.220565e-06	-2.058906e-08	-2.326163e+01	-1.348463e+03
2.710000e-06	-3.356950e-06	-2.114617e-08	-2.424671e+01	-1.383067e+03
2.720000e-06	-3.492091e-06	-2.166195e-08	-2.522282e+01	-1.415355e+03
2.730000e-06	-3.625992e-06	-2.214221e-08	-2.618996e+01	-1.445818e+03
2.740000e-06	-3.758621e-06	-2.259141e-08	-2.714792e+01	-1.474806e+03
2.750000e-06	-3.889900e-06	-2.301020e-08	-2.809613e+01	-1.502527e+03
2.760000e-06	-4.019810e-06	-2.340362e-08	-2.903444e+01	-1.529059e+03
2.770000e-06	-4.148281e-06	-2.377355e-08	-2.996237e+01	-1.554383e+03
2.780000e-06	-4.275345e-06	-2.412127e-08	-3.088013e+01	-1.578422e+03
2.790000e-06	-4.401024e-06	-2.444898e-08	-3.178789e+01	-1.601077e+03
2.800000e-06	-4.525179e-06	-2.475903e-08	-3.268464e+01	-1.622269e+03
2.810000e-06	-4.647702e-06	-2.505388e-08	-3.356960e+01	-1.641968e+03
2.820000e-06	-4.768522e-06	-2.533280e-08	-3.444227e+01	-1.660206e+03
2.830000e-06	-4.887533e-06	-2.559650e-08	-3.530186e+01	-1.677084e+03
2.840000e-06	-5.004638e-06	-2.584728e-08	-3.614770e+01	-1.692763e+03
2.850000e-06	-5.119715e-06	-2.608617e-08	-3.697888e+01	-1.707444e+03
2.860000e-06	-5.232716e-06	-2.631435e-08	-3.779507e+01	-1.721339e+03
2.870000e-06	-5.343681e-06	-2.653267e-08	-3.859655e+01	-1.734649e+03
2.880000e-06	-5.452704e-06	-2.673948e-08	-3.938401e+01	-1.747537e+03
2.890000e-06	-5.559885e-06	-2.693434e-08	-4.015816e+01	-1.760110e+03
2.900000e-06	-5.665079e-06	-2.711821e-08	-4.091796e+01	-1.772413e+03
2.910000e-06	-5.768131e-06	-2.729306e-08	-4.166228e+01	-1.784427e+03
2.920000e-06	-5.869051e-06	-2.746018e-08	-4.239121e+01	-1.796084e+03
2.930000e-06	-5.967871e-06	-2.761941e-08	-4.310498e+01	-1.807283e+03
2.940000e-06	-6.064642e-06	-2.777105e-08	-4.380394e+01	-1.817916e+03
