# Temperatura_=_33.62
# Concentracion g/m^3_=_28370.0
# C_Vs_to_Am_M_A/Vsm_=_65563218390.804596
# pendiente_HvsI_1/m_=_3716.3
# ordenada_HvsI_A/m_=_1297.0
# frecuencia_Hz_=_302506.99316291045

Tiempo_(s)	Campo_(V.s)	Magnetizacion_(V.s)	Campo_(kA/m)	Magnetizacion_(A/m)
0.000000e+00	-7.856585e-06	-2.401702e-08	-5.684352e+01	-1.571949e+03
1.000000e-08	-7.852598e-06	-2.401569e-08	-5.681468e+01	-1.571205e+03
2.000000e-08	-7.846121e-06	-2.400836e-08	-5.676781e+01	-1.570432e+03
3.000000e-08	-7.837012e-06	-2.399795e-08	-5.670191e+01	-1.569679e+03
4.000000e-08	-7.825051e-06	-2.398519e-08	-5.661537e+01	-1.568970e+03
5.000000e-08	-7.810172e-06	-2.396896e-08	-5.650772e+01	-1.568302e+03
6.000000e-08	-7.792609e-06	-2.394744e-08	-5.638065e+01	-1.567646e+03
7.000000e-08	-7.772811e-06	-2.392558e-08	-5.623741e+01	-1.566952e+03
8.000000e-08	-7.750709e-06	-2.390525e-08	-5.607750e+01	-1.566160e+03
9.000000e-08	-7.725748e-06	-2.393115e-08	-5.589690e+01	-1.565209e+03
1.000000e-07	-7.697605e-06	-2.393221e-08	-5.569328e+01	-1.564051e+03
1.100000e-07	-7.666471e-06	-2.386868e-08	-5.546802e+01	-1.562654e+03
1.200000e-07	-7.632556e-06	-2.383124e-08	-5.522264e+01	-1.561015e+03
1.300000e-07	-7.596057e-06	-2.380347e-08	-5.495857e+01	-1.559151e+03
1.400000e-07	-7.557270e-06	-2.374425e-08	-5.467793e+01	-1.557103e+03
1.500000e-07	-7.516276e-06	-2.368660e-08	-5.438134e+01	-1.554922e+03
1.600000e-07	-7.472912e-06	-2.370088e-08	-5.406759e+01	-1.552663e+03
1.700000e-07	-7.427027e-06	-2.370975e-08	-5.373561e+01	-1.550370e+03
1.800000e-07	-7.378463e-06	-2.361253e-08	-5.338424e+01	-1.548068e+03
1.900000e-07	-7.326937e-06	-2.359810e-08	-5.301144e+01	-1.545755e+03
2.000000e-07	-7.272459e-06	-2.356375e-08	-5.261729e+01	-1.543404e+03
2.100000e-07	-7.215298e-06	-2.346715e-08	-5.220372e+01	-1.540960e+03
2.200000e-07	-7.155482e-06	-2.343715e-08	-5.177094e+01	-1.538350e+03
2.300000e-07	-7.093105e-06	-2.338387e-08	-5.131963e+01	-1.535497e+03
2.400000e-07	-7.028175e-06	-2.334063e-08	-5.084985e+01	-1.532327e+03
2.500000e-07	-6.960532e-06	-2.326394e-08	-5.036045e+01	-1.528784e+03
2.600000e-07	-6.890233e-06	-2.322358e-08	-4.985183e+01	-1.524839e+03
2.700000e-07	-6.817254e-06	-2.318026e-08	-4.932381e+01	-1.520493e+03
2.800000e-07	-6.741529e-06	-2.308064e-08	-4.877593e+01	-1.515783e+03
2.900000e-07	-6.663035e-06	-2.300508e-08	-4.820802e+01	-1.510766e+03
3.000000e-07	-6.581859e-06	-2.294611e-08	-4.762069e+01	-1.505519e+03
3.100000e-07	-6.498342e-06	-2.288258e-08	-4.701644e+01	-1.500120e+03
3.200000e-07	-6.412666e-06	-2.278463e-08	-4.639656e+01	-1.494634e+03
3.300000e-07	-6.324710e-06	-2.271050e-08	-4.576019e+01	-1.489104e+03
3.400000e-07	-6.234413e-06	-2.263966e-08	-4.510687e+01	-1.483536e+03
3.500000e-07	-6.141887e-06	-2.252519e-08	-4.443744e+01	-1.477903e+03
3.600000e-07	-6.047189e-06	-2.242882e-08	-4.375228e+01	-1.472140e+03
3.700000e-07	-5.950187e-06	-2.234035e-08	-4.305046e+01	-1.466158e+03
3.800000e-07	-5.850976e-06	-2.223709e-08	-4.233265e+01	-1.459852e+03
3.900000e-07	-5.749774e-06	-2.211881e-08	-4.160044e+01	-1.453121e+03
4.000000e-07	-5.646590e-06	-2.200606e-08	-4.085389e+01	-1.445880e+03
4.100000e-07	-5.541381e-06	-2.189047e-08	-4.009269e+01	-1.438073e+03
4.200000e-07	-5.434169e-06	-2.175996e-08	-3.931699e+01	-1.429683e+03
4.300000e-07	-5.325064e-06	-2.163786e-08	-3.852761e+01	-1.420729e+03
4.400000e-07	-5.214112e-06	-2.150969e-08	-3.772485e+01	-1.411268e+03
4.500000e-07	-5.101239e-06	-2.136525e-08	-3.690820e+01	-1.401375e+03
4.600000e-07	-4.986355e-06	-2.120579e-08	-3.607700e+01	-1.391135e+03
4.700000e-07	-4.869485e-06	-2.104523e-08	-3.523143e+01	-1.380618e+03
4.800000e-07	-4.750810e-06	-2.087930e-08	-3.437279e+01	-1.369870e+03
4.900000e-07	-4.630425e-06	-2.070530e-08	-3.350179e+01	-1.358893e+03
5.000000e-07	-4.508354e-06	-2.053174e-08	-3.261859e+01	-1.347643e+03
5.100000e-07	-4.384620e-06	-2.035127e-08	-3.172336e+01	-1.336030e+03
5.200000e-07	-4.259256e-06	-2.015367e-08	-3.081633e+01	-1.323925e+03
5.300000e-07	-4.132341e-06	-1.994074e-08	-2.989808e+01	-1.311178e+03
5.400000e-07	-4.003992e-06	-1.972517e-08	-2.896946e+01	-1.297637e+03
5.500000e-07	-3.874159e-06	-1.950214e-08	-2.803010e+01	-1.283166e+03
5.600000e-07	-3.742731e-06	-1.926362e-08	-2.707920e+01	-1.267665e+03
5.700000e-07	-3.609843e-06	-1.901278e-08	-2.611773e+01	-1.251083e+03
5.800000e-07	-3.475612e-06	-1.874969e-08	-2.514655e+01	-1.233417e+03
5.900000e-07	-3.340131e-06	-1.847241e-08	-2.416633e+01	-1.214713e+03
6.000000e-07	-3.203441e-06	-1.818158e-08	-2.317736e+01	-1.195044e+03
6.100000e-07	-3.065458e-06	-1.788086e-08	-2.217903e+01	-1.174489e+03
6.200000e-07	-2.926098e-06	-1.756636e-08	-2.117074e+01	-1.153109e+03
6.300000e-07	-2.785425e-06	-1.722893e-08	-2.015295e+01	-1.130914e+03
6.400000e-07	-2.643668e-06	-1.686745e-08	-1.912732e+01	-1.107844e+03
6.500000e-07	-2.500921e-06	-1.648404e-08	-1.809452e+01	-1.083752e+03
6.600000e-07	-2.357176e-06	-1.607962e-08	-1.705450e+01	-1.058397e+03
6.700000e-07	-2.212565e-06	-1.565188e-08	-1.600822e+01	-1.031459e+03
6.800000e-07	-2.067196e-06	-1.519552e-08	-1.495646e+01	-1.002558e+03
6.900000e-07	-1.921117e-06	-1.470776e-08	-1.389956e+01	-9.712850e+02
7.000000e-07	-1.774429e-06	-1.418558e-08	-1.283825e+01	-9.372444e+02
7.100000e-07	-1.627244e-06	-1.362627e-08	-1.177334e+01	-9.000939e+02
7.200000e-07	-1.479629e-06	-1.302266e-08	-1.070533e+01	-8.595820e+02
7.300000e-07	-1.331542e-06	-1.236857e-08	-9.633900e+00	-8.155763e+02
7.400000e-07	-1.183007e-06	-1.166442e-08	-8.559225e+00	-7.680794e+02
7.500000e-07	-1.034128e-06	-1.090926e-08	-7.482065e+00	-7.172282e+02
7.600000e-07	-8.849160e-07	-1.010206e-08	-6.402494e+00	-6.632779e+02
7.700000e-07	-7.353388e-07	-9.243447e-09	-5.320282e+00	-6.065718e+02
7.800000e-07	-5.855233e-07	-8.336734e-09	-4.236345e+00	-5.475010e+02
7.900000e-07	-4.355297e-07	-7.384950e-09	-3.151120e+00	-4.864598e+02
8.000000e-07	-2.853460e-07	-6.394916e-09	-2.064520e+00	-4.238026e+02
8.100000e-07	-1.350338e-07	-5.383007e-09	-9.769886e-01	-3.598087e+02
8.200000e-07	1.537532e-08	-4.364440e-09	1.112426e-01	-2.946609e+02
8.300000e-07	1.658457e-07	-3.347063e-09	1.199917e+00	-2.284397e+02
8.400000e-07	3.162624e-07	-2.331368e-09	2.288204e+00	-1.611360e+02
8.500000e-07	4.665554e-07	-1.314631e-09	3.375595e+00	-9.267973e+01
8.600000e-07	6.167555e-07	-2.906790e-10	4.462315e+00	-2.298167e+01
8.700000e-07	7.668038e-07	7.479226e-10	5.547936e+00	4.801845e+01
8.800000e-07	9.166293e-07	1.809403e-09	6.631945e+00	1.203031e+02
8.900000e-07	1.066129e-06	2.906634e-09	7.713597e+00	1.937355e+02
9.000000e-07	1.215207e-06	4.041281e-09	8.792195e+00	2.680307e+02
9.100000e-07	1.363889e-06	5.206135e-09	9.867932e+00	3.427449e+02
9.200000e-07	1.512098e-06	6.385480e-09	1.094025e+01	4.172855e+02
9.300000e-07	1.659721e-06	7.552752e-09	1.200832e+01	4.909397e+02
9.400000e-07	1.806815e-06	8.681114e-09	1.307257e+01	5.629216e+02
9.500000e-07	1.953355e-06	9.749841e-09	1.413280e+01	6.324300e+02
9.600000e-07	2.099139e-06	1.074841e-08	1.518757e+01	6.987119e+02
9.700000e-07	2.244073e-06	1.167247e-08	1.623619e+01	7.611230e+02
9.800000e-07	2.388132e-06	1.252111e-08	1.727848e+01	8.191785e+02
9.900000e-07	2.531244e-06	1.329866e-08	1.831392e+01	8.725889e+02
1.000000e-06	2.673369e-06	1.401057e-08	1.934221e+01	9.212751e+02
1.010000e-06	2.814427e-06	1.466431e-08	2.036278e+01	9.653630e+02
1.020000e-06	2.954350e-06	1.526477e-08	2.137515e+01	1.005159e+03
1.030000e-06	3.093068e-06	1.581859e-08	2.237879e+01	1.041106e+03
1.040000e-06	3.230539e-06	1.632998e-08	2.337341e+01	1.073734e+03
1.050000e-06	3.366789e-06	1.680262e-08	2.435920e+01	1.103603e+03
1.060000e-06	3.501851e-06	1.724153e-08	2.533640e+01	1.131247e+03
1.070000e-06	3.635629e-06	1.765037e-08	2.630430e+01	1.157131e+03
1.080000e-06	3.768032e-06	1.803335e-08	2.726225e+01	1.181620e+03
1.090000e-06	3.899056e-06	1.839356e-08	2.821023e+01	1.204962e+03
1.100000e-06	4.028688e-06	1.873096e-08	2.914813e+01	1.227292e+03
1.110000e-06	4.156904e-06	1.904552e-08	3.007580e+01	1.248645e+03
1.120000e-06	4.283673e-06	1.933942e-08	3.099299e+01	1.268983e+03
1.130000e-06	4.408988e-06	1.961515e-08	3.189966e+01	1.288232e+03
1.140000e-06	4.532796e-06	1.987648e-08	3.279543e+01	1.306310e+03
1.150000e-06	4.655026e-06	2.012336e-08	3.367979e+01	1.323160e+03
1.160000e-06	4.775613e-06	2.035759e-08	3.455225e+01	1.338771e+03
1.170000e-06	4.894468e-06	2.057783e-08	3.541218e+01	1.353186e+03
1.180000e-06	5.011458e-06	2.078439e-08	3.625862e+01	1.366505e+03
1.190000e-06	5.126527e-06	2.097924e-08	3.709116e+01	1.378869e+03
1.200000e-06	5.239657e-06	2.116379e-08	3.790967e+01	1.390448e+03
1.210000e-06	5.350842e-06	2.133923e-08	3.871411e+01	1.401414e+03
1.220000e-06	5.460177e-06	2.150634e-08	3.950517e+01	1.411919e+03
1.230000e-06	5.567618e-06	2.166576e-08	4.028252e+01	1.422079e+03
1.240000e-06	5.673026e-06	2.181783e-08	4.104516e+01	1.431960e+03
1.250000e-06	5.776329e-06	2.196307e-08	4.179257e+01	1.441577e+03
1.260000e-06	5.877498e-06	2.210191e-08	4.252455e+01	1.450897e+03
1.270000e-06	5.976466e-06	2.223182e-08	4.324059e+01	1.459854e+03
1.280000e-06	6.073137e-06	2.235096e-08	4.394002e+01	1.468361e+03
1.290000e-06	6.167593e-06	2.246109e-08	4.462342e+01	1.476338e+03
1.300000e-06	6.259888e-06	2.256598e-08	4.529119e+01	1.483723e+03
1.310000e-06	6.349965e-06	2.266690e-08	4.594291e+01	1.490488e+03
1.320000e-06	6.437752e-06	2.276200e-08	4.657806e+01	1.496648e+03
1.330000e-06	6.523277e-06	2.285106e-08	4.719685e+01	1.502259e+03
1.340000e-06	6.606524e-06	2.293670e-08	4.779915e+01	1.507411e+03
1.350000e-06	6.687362e-06	2.301938e-08	4.838402e+01	1.512216e+03
1.360000e-06	6.765692e-06	2.309639e-08	4.895075e+01	1.516790e+03
1.370000e-06	6.841408e-06	2.316921e-08	4.949857e+01	1.521238e+03
1.380000e-06	6.914560e-06	2.323947e-08	5.002784e+01	1.525639e+03
1.390000e-06	6.985263e-06	2.330646e-08	5.053938e+01	1.530032e+03
1.400000e-06	7.053519e-06	2.337014e-08	5.103322e+01	1.534419e+03
1.410000e-06	7.119231e-06	2.343102e-08	5.150866e+01	1.538760e+03
1.420000e-06	7.182386e-06	2.348926e-08	5.196559e+01	1.542986e+03
1.430000e-06	7.243131e-06	2.354312e-08	5.240509e+01	1.547011e+03
1.440000e-06	7.301382e-06	2.359118e-08	5.282655e+01	1.550750e+03
1.450000e-06	7.357004e-06	2.363598e-08	5.322898e+01	1.554128e+03
1.460000e-06	7.409840e-06	2.367915e-08	5.361126e+01	1.557100e+03
1.470000e-06	7.459669e-06	2.372086e-08	5.397177e+01	1.559653e+03
1.480000e-06	7.506637e-06	2.375950e-08	5.431160e+01	1.561811e+03
1.490000e-06	7.550995e-06	2.379384e-08	5.463253e+01	1.563629e+03
1.500000e-06	7.592633e-06	2.382384e-08	5.493379e+01	1.565185e+03
1.510000e-06	7.631460e-06	2.385110e-08	5.521471e+01	1.566568e+03
1.520000e-06	7.667662e-06	2.387696e-08	5.547664e+01	1.567860e+03
1.530000e-06	7.701231e-06	2.390043e-08	5.571951e+01	1.569129e+03
1.540000e-06	7.732039e-06	2.392152e-08	5.594241e+01	1.570413e+03
1.550000e-06	7.760103e-06	2.393927e-08	5.614546e+01	1.571720e+03
1.560000e-06	7.785284e-06	2.395408e-08	5.632765e+01	1.573026e+03
1.570000e-06	7.807653e-06	2.396597e-08	5.648949e+01	1.574281e+03
1.580000e-06	7.827392e-06	2.397646e-08	5.663231e+01	1.575418e+03
1.590000e-06	7.844286e-06	2.398846e-08	5.675454e+01	1.576368e+03
1.600000e-06	7.858177e-06	2.399785e-08	5.685504e+01	1.577070e+03
1.610000e-06	7.869005e-06	2.400270e-08	5.693339e+01	1.577482e+03
1.620000e-06	7.876800e-06	2.400569e-08	5.698978e+01	1.577590e+03
1.630000e-06	7.881780e-06	2.400812e-08	5.702581e+01	1.577410e+03
1.640000e-06	7.883948e-06	2.400993e-08	5.704150e+01	1.576983e+03
1.650000e-06	7.883313e-06	2.400902e-08	5.703690e+01	1.576371e+03
1.660000e-06	7.880103e-06	2.400097e-08	5.701368e+01	1.575645e+03
1.670000e-06	7.874264e-06	2.399346e-08	5.697143e+01	1.574873e+03
1.680000e-06	7.865734e-06	2.398884e-08	5.690971e+01	1.574109e+03
1.690000e-06	7.854583e-06	2.398057e-08	5.682904e+01	1.573385e+03
1.700000e-06	7.840620e-06	2.396900e-08	5.672801e+01	1.572705e+03
1.710000e-06	7.824034e-06	2.396145e-08	5.660801e+01	1.572049e+03
1.720000e-06	7.805240e-06	2.395681e-08	5.647203e+01	1.571369e+03
1.730000e-06	7.784090e-06	2.392927e-08	5.631901e+01	1.570610e+03
1.740000e-06	7.760018e-06	2.384169e-08	5.614484e+01	1.569708e+03
1.750000e-06	7.732363e-06	2.383548e-08	5.594476e+01	1.568612e+03
1.760000e-06	7.701156e-06	2.385404e-08	5.571897e+01	1.567283e+03
1.770000e-06	7.667225e-06	2.381829e-08	5.547348e+01	1.565710e+03
1.780000e-06	7.631103e-06	2.381221e-08	5.521213e+01	1.563905e+03
1.790000e-06	7.592756e-06	2.385142e-08	5.493468e+01	1.561903e+03
1.800000e-06	7.552404e-06	2.380398e-08	5.464273e+01	1.559753e+03
1.810000e-06	7.509905e-06	2.370190e-08	5.433524e+01	1.557510e+03
1.820000e-06	7.464723e-06	2.375071e-08	5.400834e+01	1.555221e+03
1.830000e-06	7.416928e-06	2.368704e-08	5.366254e+01	1.552918e+03
1.840000e-06	7.366301e-06	2.367008e-08	5.329625e+01	1.550609e+03
1.850000e-06	7.312608e-06	2.368173e-08	5.290777e+01	1.548271e+03
1.860000e-06	7.256181e-06	2.359751e-08	5.249951e+01	1.545858e+03
1.870000e-06	7.197181e-06	2.358654e-08	5.207264e+01	1.543302e+03
1.880000e-06	7.135577e-06	2.347997e-08	5.162693e+01	1.540525e+03
1.890000e-06	7.071194e-06	2.346221e-08	5.116111e+01	1.537450e+03
1.900000e-06	7.004082e-06	2.341013e-08	5.067554e+01	1.534016e+03
1.910000e-06	6.934330e-06	2.330510e-08	5.017087e+01	1.530185e+03
1.920000e-06	6.861819e-06	2.330454e-08	4.964625e+01	1.525950e+03
1.930000e-06	6.786631e-06	2.321540e-08	4.910225e+01	1.521337e+03
1.940000e-06	6.708738e-06	2.316173e-08	4.853868e+01	1.516399e+03
1.950000e-06	6.628243e-06	2.307225e-08	4.795629e+01	1.511208e+03
1.960000e-06	6.545351e-06	2.300799e-08	4.735656e+01	1.505843e+03
1.970000e-06	6.460072e-06	2.293502e-08	4.673955e+01	1.500375e+03
1.980000e-06	6.372367e-06	2.281503e-08	4.610499e+01	1.494853e+03
1.990000e-06	6.282343e-06	2.277165e-08	4.545365e+01	1.489295e+03
2.000000e-06	6.190192e-06	2.267276e-08	4.478693e+01	1.483684e+03
2.010000e-06	6.095806e-06	2.258709e-08	4.410403e+01	1.477965e+03
2.020000e-06	5.999188e-06	2.247324e-08	4.340498e+01	1.472053e+03
2.030000e-06	5.900490e-06	2.237590e-08	4.269089e+01	1.465849e+03
2.040000e-06	5.799710e-06	2.226792e-08	4.196173e+01	1.459248e+03
2.050000e-06	5.696808e-06	2.214970e-08	4.121722e+01	1.452158e+03
2.060000e-06	5.591893e-06	2.205013e-08	4.045815e+01	1.444514e+03
2.070000e-06	5.485121e-06	2.191860e-08	3.968564e+01	1.436288e+03
2.080000e-06	5.376480e-06	2.178972e-08	3.889961e+01	1.427490e+03
2.090000e-06	5.265934e-06	2.164644e-08	3.809979e+01	1.418164e+03
2.100000e-06	5.153417e-06	2.151853e-08	3.728572e+01	1.408385e+03
2.110000e-06	5.038964e-06	2.137137e-08	3.645763e+01	1.398234e+03
2.120000e-06	4.922603e-06	2.122494e-08	3.561574e+01	1.387788e+03
2.130000e-06	4.804305e-06	2.106575e-08	3.475984e+01	1.377103e+03
2.140000e-06	4.684114e-06	2.089411e-08	3.389024e+01	1.366192e+03
2.150000e-06	4.562169e-06	2.071135e-08	3.300795e+01	1.355025e+03
2.160000e-06	4.438606e-06	2.053132e-08	3.211395e+01	1.343525e+03
2.170000e-06	4.313420e-06	2.035148e-08	3.120821e+01	1.331573e+03
2.180000e-06	4.186626e-06	2.015234e-08	3.029084e+01	1.319024e+03
2.190000e-06	4.058329e-06	1.994352e-08	2.936259e+01	1.305723e+03
2.200000e-06	3.928548e-06	1.971957e-08	2.842361e+01	1.291528e+03
2.210000e-06	3.797221e-06	1.948609e-08	2.747344e+01	1.276327e+03
2.220000e-06	3.664517e-06	1.923617e-08	2.651331e+01	1.260054e+03
2.230000e-06	3.530519e-06	1.898478e-08	2.554381e+01	1.242694e+03
2.240000e-06	3.395126e-06	1.872085e-08	2.456422e+01	1.224278e+03
2.250000e-06	3.258429e-06	1.844128e-08	2.357520e+01	1.204874e+03
2.260000e-06	3.120498e-06	1.814430e-08	2.257725e+01	1.184563e+03
2.270000e-06	2.981369e-06	1.783204e-08	2.157063e+01	1.163413e+03
2.280000e-06	2.841138e-06	1.750164e-08	2.055604e+01	1.141452e+03
2.290000e-06	2.699782e-06	1.715176e-08	1.953331e+01	1.118642e+03
2.300000e-06	2.557343e-06	1.678286e-08	1.850274e+01	1.094860e+03
2.310000e-06	2.413974e-06	1.638998e-08	1.746545e+01	1.069894e+03
2.320000e-06	2.269749e-06	1.596999e-08	1.642196e+01	1.043444e+03
2.330000e-06	2.124744e-06	1.552205e-08	1.537283e+01	1.015143e+03
2.340000e-06	1.979059e-06	1.504370e-08	1.431878e+01	9.845871e+02
2.350000e-06	1.832726e-06	1.453022e-08	1.326004e+01	9.513735e+02
2.360000e-06	1.685750e-06	1.398224e-08	1.219665e+01	9.151400e+02
2.370000e-06	1.538216e-06	1.339361e-08	1.112922e+01	8.756058e+02
2.380000e-06	1.390269e-06	1.275538e-08	1.005880e+01	8.326023e+02
2.390000e-06	1.241977e-06	1.206727e-08	8.985884e+00	7.860929e+02
2.400000e-06	1.093258e-06	1.133081e-08	7.909881e+00	7.361769e+02
2.410000e-06	9.441344e-07	1.054100e-08	6.830948e+00	6.830785e+02
2.420000e-06	7.946823e-07	9.696087e-09	5.749640e+00	6.271193e+02
2.430000e-06	6.449293e-07	8.801250e-09	4.666156e+00	5.686814e+02
2.440000e-06	4.949460e-07	7.860715e-09	3.581006e+00	5.081628e+02
2.450000e-06	3.447611e-07	6.878457e-09	2.494396e+00	4.459331e+02
2.460000e-06	1.944230e-07	5.867610e-09	1.406678e+00	3.822962e+02
2.470000e-06	4.402716e-08	4.843805e-09	3.185428e-01	3.174637e+02
2.480000e-06	-1.063939e-07	3.816657e-09	-7.697754e-01	2.515449e+02
2.490000e-06	-2.568335e-07	2.790689e-09	-1.858227e+00	1.845538e+02
2.500000e-06	-4.072303e-07	1.767057e-09	-2.946370e+00	1.164342e+02
2.510000e-06	-5.575291e-07	7.414854e-10	-4.033803e+00	4.709753e+01
2.520000e-06	-7.076172e-07	-2.957047e-10	-5.119712e+00	-2.352987e+01
2.530000e-06	-8.574226e-07	-1.356013e-09	-6.203576e+00	-9.545741e+01
2.540000e-06	-1.006866e-06	-2.446444e-09	-7.284817e+00	-1.685859e+02
2.550000e-06	-1.155912e-06	-3.571032e-09	-8.363188e+00	-2.426746e+02
2.560000e-06	-1.304536e-06	-4.728554e-09	-9.438508e+00	-3.173253e+02
2.570000e-06	-1.452736e-06	-5.906932e-09	-1.051075e+01	-3.919855e+02
2.580000e-06	-1.600559e-06	-7.085679e-09	-1.158027e+01	-4.659728e+02
2.590000e-06	-1.747822e-06	-8.238049e-09	-1.264574e+01	-5.385165e+02
2.600000e-06	-1.894421e-06	-9.340588e-09	-1.370641e+01	-6.088135e+02
2.610000e-06	-2.040351e-06	-1.037504e-08	-1.476224e+01	-6.760907e+02
2.620000e-06	-2.185439e-06	-1.133091e-08	-1.581197e+01	-7.396667e+02
2.630000e-06	-2.329620e-06	-1.220995e-08	-1.685513e+01	-7.990070e+02
2.640000e-06	-2.472874e-06	-1.301592e-08	-1.789160e+01	-8.537637e+02
2.650000e-06	-2.615173e-06	-1.375569e-08	-1.892115e+01	-9.037972e+02
2.660000e-06	-2.756487e-06	-1.443585e-08	-1.994358e+01	-9.491767e+02
2.670000e-06	-2.896677e-06	-1.506074e-08	-2.095787e+01	-9.901603e+02
2.680000e-06	-3.035673e-06	-1.563580e-08	-2.196353e+01	-1.027157e+03
2.690000e-06	-3.173530e-06	-1.616378e-08	-2.296095e+01	-1.060679e+03
2.700000e-06	-3.310156e-06	-1.664969e-08	-2.394945e+01	-1.091282e+03
2.710000e-06	-3.445494e-06	-1.710050e-08	-2.492864e+01	-1.119512e+03
2.720000e-06	-3.579578e-06	-1.752047e-08	-2.589876e+01	-1.145858e+03
2.730000e-06	-3.712365e-06	-1.791376e-08	-2.685950e+01	-1.170717e+03
2.740000e-06	-3.843863e-06	-1.828095e-08	-2.781090e+01	-1.194370e+03
2.750000e-06	-3.973977e-06	-1.862202e-08	-2.875229e+01	-1.216984e+03
2.760000e-06	-4.102696e-06	-1.894323e-08	-2.968360e+01	-1.238618e+03
2.770000e-06	-4.230022e-06	-1.924927e-08	-3.060482e+01	-1.259255e+03
2.780000e-06	-4.355900e-06	-1.953726e-08	-3.151556e+01	-1.278825e+03
2.790000e-06	-4.480307e-06	-1.980559e-08	-3.241567e+01	-1.297247e+03
2.800000e-06	-4.603104e-06	-2.005741e-08	-3.330412e+01	-1.314454e+03
2.810000e-06	-4.724225e-06	-2.029544e-08	-3.418045e+01	-1.330418e+03
2.820000e-06	-4.843580e-06	-2.052188e-08	-3.504400e+01	-1.345169e+03
2.830000e-06	-4.961075e-06	-2.073811e-08	-3.589409e+01	-1.358790e+03
2.840000e-06	-5.076635e-06	-2.094409e-08	-3.673018e+01	-1.371412e+03
2.850000e-06	-5.190078e-06	-2.113811e-08	-3.755096e+01	-1.383200e+03
2.860000e-06	-5.301437e-06	-2.132044e-08	-3.835666e+01	-1.394326e+03
2.870000e-06	-5.410878e-06	-2.149107e-08	-3.914848e+01	-1.404950e+03
2.880000e-06	-5.518430e-06	-2.165135e-08	-3.992663e+01	-1.415201e+03
2.890000e-06	-5.624105e-06	-2.180317e-08	-4.069121e+01	-1.425160e+03
2.900000e-06	-5.727721e-06	-2.194782e-08	-4.144088e+01	-1.434856e+03
2.910000e-06	-5.829149e-06	-2.208668e-08	-4.217473e+01	-1.444269e+03
2.920000e-06	-5.928466e-06	-2.221887e-08	-4.289331e+01	-1.453339e+03
2.930000e-06	-6.025682e-06	-2.234342e-08	-4.359668e+01	-1.461985e+03
2.940000e-06	-6.120711e-06	-2.246129e-08	-4.428423e+01	-1.470123e+03
