# Temperatura_=_57.1
# Concentracion g/m^3_=_28370.0
# C_Vs_to_Am_M_A/Vsm_=_65563218390.804596
# pendiente_HvsI_1/m_=_3716.3
# ordenada_HvsI_A/m_=_1297.0
# frecuencia_Hz_=_302510.6070815137

Tiempo_(s)	Campo_(V.s)	Magnetizacion_(V.s)	Campo_(kA/m)	Magnetizacion_(A/m)
0.000000e+00	-7.918364e-06	-2.486996e-08	-5.684484e+01	-1.628457e+03
1.000000e-08	-7.914240e-06	-2.487040e-08	-5.681524e+01	-1.627698e+03
2.000000e-08	-7.907505e-06	-2.486384e-08	-5.676689e+01	-1.626927e+03
3.000000e-08	-7.898113e-06	-2.485316e-08	-5.669946e+01	-1.626185e+03
4.000000e-08	-7.885886e-06	-2.483962e-08	-5.661169e+01	-1.625483e+03
5.000000e-08	-7.870682e-06	-2.482391e-08	-5.650253e+01	-1.624808e+03
6.000000e-08	-7.852810e-06	-2.480306e-08	-5.637423e+01	-1.624117e+03
7.000000e-08	-7.832758e-06	-2.477739e-08	-5.623029e+01	-1.623352e+03
8.000000e-08	-7.810390e-06	-2.476606e-08	-5.606971e+01	-1.622448e+03
9.000000e-08	-7.785123e-06	-2.480624e-08	-5.588832e+01	-1.621345e+03
1.000000e-07	-7.756640e-06	-2.477708e-08	-5.568385e+01	-1.619999e+03
1.100000e-07	-7.725155e-06	-2.469907e-08	-5.545782e+01	-1.618389e+03
1.200000e-07	-7.690870e-06	-2.466834e-08	-5.521169e+01	-1.616522e+03
1.300000e-07	-7.653978e-06	-2.464615e-08	-5.494685e+01	-1.614429e+03
1.400000e-07	-7.614811e-06	-2.459190e-08	-5.466567e+01	-1.612163e+03
1.500000e-07	-7.573344e-06	-2.453182e-08	-5.436799e+01	-1.609786e+03
1.600000e-07	-7.529479e-06	-2.456401e-08	-5.405309e+01	-1.607357e+03
1.700000e-07	-7.483030e-06	-2.452662e-08	-5.371964e+01	-1.604920e+03
1.800000e-07	-7.433710e-06	-2.441980e-08	-5.336557e+01	-1.602495e+03
1.900000e-07	-7.381477e-06	-2.442229e-08	-5.299060e+01	-1.600075e+03
2.000000e-07	-7.326494e-06	-2.436951e-08	-5.259589e+01	-1.597618e+03
2.100000e-07	-7.268846e-06	-2.430735e-08	-5.218204e+01	-1.595059e+03
2.200000e-07	-7.208548e-06	-2.427325e-08	-5.174917e+01	-1.592315e+03
2.300000e-07	-7.145670e-06	-2.421060e-08	-5.129777e+01	-1.589298e+03
2.400000e-07	-7.080077e-06	-2.417324e-08	-5.082689e+01	-1.585932e+03
2.500000e-07	-7.011819e-06	-2.409163e-08	-5.033688e+01	-1.582158e+03
2.600000e-07	-6.940879e-06	-2.404112e-08	-4.982761e+01	-1.577953e+03
2.700000e-07	-6.867069e-06	-2.397071e-08	-4.929774e+01	-1.573326e+03
2.800000e-07	-6.790552e-06	-2.388593e-08	-4.874843e+01	-1.568319e+03
2.900000e-07	-6.711274e-06	-2.381272e-08	-4.817930e+01	-1.563003e+03
3.000000e-07	-6.629319e-06	-2.373278e-08	-4.759097e+01	-1.557459e+03
3.100000e-07	-6.545138e-06	-2.366538e-08	-4.698664e+01	-1.551771e+03
3.200000e-07	-6.458765e-06	-2.356847e-08	-4.636658e+01	-1.546007e+03
3.300000e-07	-6.370066e-06	-2.349479e-08	-4.572982e+01	-1.540206e+03
3.400000e-07	-6.278992e-06	-2.340072e-08	-4.507602e+01	-1.534371e+03
3.500000e-07	-6.185680e-06	-2.329690e-08	-4.440614e+01	-1.528465e+03
3.600000e-07	-6.090173e-06	-2.320612e-08	-4.372051e+01	-1.522417e+03
3.700000e-07	-5.992359e-06	-2.310357e-08	-4.301832e+01	-1.516128e+03
3.800000e-07	-5.892382e-06	-2.299424e-08	-4.230060e+01	-1.509491e+03
3.900000e-07	-5.790379e-06	-2.287530e-08	-4.156833e+01	-1.502400e+03
4.000000e-07	-5.686258e-06	-2.276327e-08	-4.082086e+01	-1.494773e+03
4.100000e-07	-5.580091e-06	-2.263571e-08	-4.005870e+01	-1.486559e+03
4.200000e-07	-5.471989e-06	-2.250765e-08	-3.928265e+01	-1.477747e+03
4.300000e-07	-5.361990e-06	-2.237338e-08	-3.849298e+01	-1.468367e+03
4.400000e-07	-5.250001e-06	-2.223131e-08	-3.768903e+01	-1.458482e+03
4.500000e-07	-5.135902e-06	-2.207898e-08	-3.686993e+01	-1.448174e+03
4.600000e-07	-5.019821e-06	-2.191888e-08	-3.603660e+01	-1.437531e+03
4.700000e-07	-4.901935e-06	-2.175595e-08	-3.519032e+01	-1.426623e+03
4.800000e-07	-4.782314e-06	-2.158426e-08	-3.433157e+01	-1.415490e+03
4.900000e-07	-4.660939e-06	-2.140952e-08	-3.346024e+01	-1.404126e+03
5.000000e-07	-4.537826e-06	-2.122571e-08	-3.257642e+01	-1.392478e+03
5.100000e-07	-4.413034e-06	-2.103402e-08	-3.168056e+01	-1.380445e+03
5.200000e-07	-4.286713e-06	-2.083033e-08	-3.077372e+01	-1.367890e+03
5.300000e-07	-4.158836e-06	-2.061790e-08	-2.985571e+01	-1.354657e+03
5.400000e-07	-4.029331e-06	-2.039296e-08	-2.892601e+01	-1.340591e+03
5.500000e-07	-3.898327e-06	-2.015700e-08	-2.798555e+01	-1.325559e+03
5.600000e-07	-3.765873e-06	-1.990681e-08	-2.703468e+01	-1.309467e+03
5.700000e-07	-3.632019e-06	-1.964404e-08	-2.607376e+01	-1.292272e+03
5.800000e-07	-3.496804e-06	-1.937080e-08	-2.510307e+01	-1.273980e+03
5.900000e-07	-3.360141e-06	-1.908854e-08	-2.412199e+01	-1.254646e+03
6.000000e-07	-3.222102e-06	-1.879717e-08	-2.313102e+01	-1.234348e+03
6.100000e-07	-3.082874e-06	-1.848937e-08	-2.213153e+01	-1.213166e+03
6.200000e-07	-2.942339e-06	-1.816269e-08	-2.112264e+01	-1.191155e+03
6.300000e-07	-2.800378e-06	-1.781208e-08	-2.010352e+01	-1.168317e+03
6.400000e-07	-2.657301e-06	-1.743907e-08	-1.907639e+01	-1.144577e+03
6.500000e-07	-2.513329e-06	-1.704221e-08	-1.804284e+01	-1.119767e+03
6.600000e-07	-2.368461e-06	-1.662337e-08	-1.700286e+01	-1.093632e+03
6.700000e-07	-2.222809e-06	-1.617996e-08	-1.595724e+01	-1.065833e+03
6.800000e-07	-2.076427e-06	-1.570806e-08	-1.490638e+01	-1.035976e+03
6.900000e-07	-1.929329e-06	-1.520640e-08	-1.385039e+01	-1.003642e+03
7.000000e-07	-1.781647e-06	-1.466775e-08	-1.279020e+01	-9.684319e+02
7.100000e-07	-1.633424e-06	-1.409178e-08	-1.172613e+01	-9.300006e+02
7.200000e-07	-1.484692e-06	-1.347133e-08	-1.065840e+01	-8.880971e+02
7.300000e-07	-1.335549e-06	-1.279931e-08	-9.587721e+00	-8.425882e+02
7.400000e-07	-1.185976e-06	-1.207243e-08	-8.513960e+00	-7.934710e+02
7.500000e-07	-1.035978e-06	-1.128861e-08	-7.437140e+00	-7.408704e+02
7.600000e-07	-8.856301e-07	-1.044965e-08	-6.357816e+00	-6.850203e+02
7.700000e-07	-7.349718e-07	-9.556399e-09	-5.276261e+00	-6.262331e+02
7.800000e-07	-5.839989e-07	-8.610856e-09	-4.192447e+00	-5.648604e+02
7.900000e-07	-4.327176e-07	-7.616539e-09	-3.106420e+00	-5.012514e+02
8.000000e-07	-2.812178e-07	-6.582131e-09	-2.018824e+00	-4.357142e+02
8.100000e-07	-1.296063e-07	-5.519960e-09	-9.304258e-01	-3.684871e+02
8.200000e-07	2.206191e-08	-4.443321e-09	1.583794e-01	-2.997235e+02
8.300000e-07	1.737077e-07	-3.362752e-09	1.247024e+00	-2.294927e+02
8.400000e-07	3.253421e-07	-2.283830e-09	2.335586e+00	-1.577986e+02
8.500000e-07	4.769410e-07	-1.201546e-09	3.423893e+00	-8.461191e+01
8.600000e-07	6.283912e-07	-1.097877e-10	4.511134e+00	-9.912997e+00
8.700000e-07	7.796824e-07	1.001450e-09	5.597232e+00	6.626157e+01
8.800000e-07	9.306648e-07	2.144298e-09	6.681114e+00	1.437750e+02
8.900000e-07	1.081195e-06	3.325162e-09	7.761746e+00	2.223562e+02
9.000000e-07	1.231292e-06	4.541495e-09	8.839273e+00	3.015805e+02
9.100000e-07	1.380974e-06	5.783228e-09	9.913821e+00	3.808699e+02
9.200000e-07	1.530238e-06	7.032167e-09	1.098537e+01	4.595129e+02
9.300000e-07	1.679017e-06	8.256762e-09	1.205343e+01	5.367040e+02
9.400000e-07	1.827159e-06	9.429163e-09	1.311692e+01	6.115972e+02
9.500000e-07	1.974648e-06	1.052727e-08	1.417573e+01	6.833687e+02
9.600000e-07	2.121437e-06	1.154154e-08	1.522950e+01	7.512807e+02
9.700000e-07	2.267372e-06	1.247473e-08	1.627715e+01	8.147399e+02
9.800000e-07	2.412501e-06	1.332643e-08	1.731901e+01	8.733422e+02
9.900000e-07	2.556782e-06	1.410402e-08	1.835479e+01	9.268993e+02
1.000000e-06	2.700014e-06	1.481464e-08	1.938303e+01	9.754446e+02
1.010000e-06	2.842181e-06	1.546626e-08	2.040363e+01	1.019217e+03
1.020000e-06	2.983236e-06	1.606615e-08	2.141624e+01	1.058626e+03
1.030000e-06	3.123039e-06	1.661913e-08	2.241986e+01	1.094201e+03
1.040000e-06	3.261611e-06	1.713015e-08	2.341466e+01	1.126535e+03
1.050000e-06	3.399067e-06	1.760286e-08	2.440144e+01	1.156225e+03
1.060000e-06	3.535290e-06	1.804136e-08	2.537936e+01	1.183819e+03
1.070000e-06	3.670041e-06	1.844965e-08	2.634671e+01	1.209771e+03
1.080000e-06	3.803372e-06	1.883366e-08	2.730388e+01	1.234421e+03
1.090000e-06	3.935369e-06	1.919522e-08	2.825147e+01	1.257982e+03
1.100000e-06	4.065991e-06	1.953377e-08	2.918918e+01	1.280551e+03
1.110000e-06	4.195258e-06	1.984930e-08	3.011718e+01	1.302127e+03
1.120000e-06	4.322982e-06	2.014742e-08	3.103409e+01	1.322647e+03
1.130000e-06	4.449062e-06	2.042726e-08	3.193920e+01	1.342022e+03
1.140000e-06	4.573669e-06	2.068874e-08	3.283374e+01	1.360167e+03
1.150000e-06	4.696769e-06	2.093696e-08	3.371746e+01	1.377035e+03
1.160000e-06	4.818315e-06	2.117437e-08	3.459001e+01	1.392631e+03
1.170000e-06	4.938131e-06	2.139680e-08	3.545016e+01	1.407023e+03
1.180000e-06	5.056002e-06	2.160415e-08	3.629634e+01	1.420331e+03
1.190000e-06	5.171923e-06	2.180047e-08	3.712852e+01	1.432719e+03
1.200000e-06	5.285908e-06	2.198806e-08	3.794680e+01	1.444369e+03
1.210000e-06	5.397912e-06	2.216747e-08	3.875086e+01	1.455457e+03
1.220000e-06	5.507946e-06	2.233787e-08	3.954078e+01	1.466133e+03
1.230000e-06	5.616046e-06	2.249938e-08	4.031681e+01	1.476500e+03
1.240000e-06	5.722143e-06	2.265307e-08	4.107847e+01	1.486608e+03
1.250000e-06	5.826125e-06	2.279880e-08	4.182495e+01	1.496452e+03
1.260000e-06	5.927940e-06	2.293687e-08	4.255586e+01	1.505982e+03
1.270000e-06	6.027575e-06	2.306779e-08	4.327113e+01	1.515114e+03
1.280000e-06	6.124959e-06	2.319097e-08	4.397023e+01	1.523756e+03
1.290000e-06	6.220046e-06	2.330534e-08	4.465285e+01	1.531823e+03
1.300000e-06	6.312882e-06	2.341312e-08	4.531931e+01	1.539258e+03
1.310000e-06	6.403516e-06	2.351506e-08	4.596996e+01	1.546045e+03
1.320000e-06	6.491858e-06	2.360926e-08	4.660415e+01	1.552211e+03
1.330000e-06	6.577887e-06	2.370032e-08	4.722174e+01	1.557828e+03
1.340000e-06	6.661554e-06	2.378816e-08	4.782237e+01	1.563001e+03
1.350000e-06	6.742816e-06	2.387234e-08	4.840574e+01	1.567850e+03
1.360000e-06	6.821624e-06	2.395132e-08	4.897150e+01	1.572498e+03
1.370000e-06	6.897883e-06	2.402643e-08	4.951895e+01	1.577050e+03
1.380000e-06	6.971593e-06	2.409751e-08	5.004810e+01	1.581578e+03
1.390000e-06	7.042733e-06	2.416311e-08	5.055881e+01	1.586114e+03
1.400000e-06	7.111329e-06	2.422592e-08	5.105124e+01	1.590645e+03
1.410000e-06	7.177386e-06	2.428673e-08	5.152546e+01	1.595121e+03
1.420000e-06	7.240904e-06	2.434684e-08	5.198145e+01	1.599463e+03
1.430000e-06	7.301980e-06	2.440401e-08	5.241990e+01	1.603580e+03
1.440000e-06	7.360614e-06	2.445621e-08	5.284083e+01	1.607382e+03
1.450000e-06	7.416581e-06	2.450472e-08	5.324261e+01	1.610799e+03
1.460000e-06	7.469718e-06	2.454964e-08	5.362407e+01	1.613791e+03
1.470000e-06	7.519923e-06	2.459148e-08	5.398449e+01	1.616354e+03
1.480000e-06	7.567190e-06	2.462995e-08	5.432381e+01	1.618522e+03
1.490000e-06	7.611702e-06	2.466510e-08	5.464335e+01	1.620359e+03
1.500000e-06	7.653518e-06	2.469744e-08	5.494355e+01	1.621947e+03
1.510000e-06	7.692590e-06	2.472652e-08	5.522404e+01	1.623378e+03
1.520000e-06	7.729046e-06	2.475300e-08	5.548575e+01	1.624733e+03
1.530000e-06	7.762744e-06	2.477667e-08	5.572767e+01	1.626072e+03
1.540000e-06	7.793618e-06	2.479746e-08	5.594931e+01	1.627427e+03
1.550000e-06	7.821820e-06	2.481400e-08	5.615177e+01	1.628795e+03
1.560000e-06	7.847191e-06	2.482795e-08	5.633390e+01	1.630143e+03
1.570000e-06	7.869701e-06	2.484076e-08	5.649549e+01	1.631415e+03
1.580000e-06	7.889459e-06	2.485260e-08	5.663733e+01	1.632539e+03
1.590000e-06	7.906370e-06	2.486388e-08	5.675874e+01	1.633448e+03
1.600000e-06	7.920262e-06	2.487252e-08	5.685847e+01	1.634086e+03
1.610000e-06	7.931061e-06	2.487842e-08	5.693599e+01	1.634419e+03
1.620000e-06	7.938798e-06	2.488227e-08	5.699154e+01	1.634443e+03
1.630000e-06	7.943678e-06	2.488522e-08	5.702657e+01	1.634185e+03
1.640000e-06	7.945758e-06	2.488740e-08	5.704150e+01	1.633695e+03
1.650000e-06	7.945040e-06	2.488541e-08	5.703634e+01	1.633041e+03
1.660000e-06	7.941724e-06	2.487391e-08	5.701254e+01	1.632294e+03
1.670000e-06	7.935773e-06	2.486547e-08	5.696982e+01	1.631520e+03
1.680000e-06	7.927115e-06	2.485832e-08	5.690766e+01	1.630765e+03
1.690000e-06	7.915741e-06	2.484871e-08	5.682601e+01	1.630050e+03
1.700000e-06	7.901562e-06	2.483783e-08	5.672422e+01	1.629368e+03
1.710000e-06	7.884787e-06	2.482999e-08	5.660379e+01	1.628685e+03
1.720000e-06	7.865700e-06	2.482538e-08	5.646678e+01	1.627946e+03
1.730000e-06	7.844216e-06	2.476855e-08	5.631254e+01	1.627087e+03
1.740000e-06	7.819789e-06	2.468091e-08	5.613719e+01	1.626045e+03
1.750000e-06	7.791824e-06	2.470391e-08	5.593642e+01	1.624769e+03
1.760000e-06	7.760330e-06	2.471820e-08	5.571033e+01	1.623233e+03
1.770000e-06	7.726066e-06	2.467584e-08	5.546436e+01	1.621435e+03
1.780000e-06	7.689538e-06	2.467295e-08	5.520213e+01	1.619400e+03
1.790000e-06	7.650736e-06	2.470563e-08	5.492358e+01	1.617176e+03
1.800000e-06	7.609952e-06	2.460106e-08	5.463080e+01	1.614823e+03
1.810000e-06	7.567028e-06	2.454606e-08	5.432265e+01	1.612401e+03
1.820000e-06	7.521361e-06	2.460729e-08	5.399481e+01	1.609961e+03
1.830000e-06	7.473013e-06	2.452247e-08	5.364773e+01	1.607531e+03
1.840000e-06	7.421815e-06	2.454765e-08	5.328018e+01	1.605110e+03
1.850000e-06	7.367549e-06	2.448214e-08	5.289061e+01	1.602667e+03
1.860000e-06	7.310570e-06	2.441120e-08	5.248157e+01	1.600144e+03
1.870000e-06	7.251076e-06	2.440508e-08	5.205447e+01	1.597459e+03
1.880000e-06	7.188903e-06	2.428252e-08	5.160814e+01	1.594527e+03
1.890000e-06	7.123823e-06	2.429356e-08	5.114094e+01	1.591266e+03
1.900000e-06	7.056087e-06	2.421696e-08	5.065467e+01	1.587611e+03
1.910000e-06	6.985708e-06	2.415171e-08	5.014943e+01	1.583528e+03
1.920000e-06	6.912523e-06	2.410918e-08	4.962405e+01	1.579016e+03
1.930000e-06	6.836660e-06	2.400716e-08	4.907943e+01	1.574110e+03
1.940000e-06	6.758035e-06	2.397474e-08	4.851500e+01	1.568872e+03
1.950000e-06	6.676830e-06	2.386388e-08	4.793204e+01	1.563383e+03
1.960000e-06	6.593210e-06	2.381204e-08	4.733174e+01	1.557726e+03
1.970000e-06	6.507114e-06	2.371314e-08	4.671367e+01	1.551977e+03
1.980000e-06	6.418597e-06	2.361952e-08	4.607822e+01	1.546183e+03
1.990000e-06	6.327835e-06	2.355177e-08	4.542665e+01	1.540357e+03
2.000000e-06	6.234922e-06	2.343534e-08	4.475965e+01	1.534476e+03
2.010000e-06	6.139691e-06	2.335399e-08	4.407599e+01	1.528475e+03
2.020000e-06	6.042216e-06	2.323624e-08	4.337623e+01	1.522264e+03
2.030000e-06	5.942707e-06	2.314420e-08	4.266188e+01	1.515736e+03
2.040000e-06	5.841080e-06	2.301833e-08	4.193231e+01	1.508783e+03
2.050000e-06	5.737277e-06	2.290682e-08	4.118712e+01	1.501314e+03
2.060000e-06	5.631487e-06	2.278337e-08	4.042767e+01	1.493268e+03
2.070000e-06	5.523856e-06	2.264966e-08	3.965500e+01	1.484624e+03
2.080000e-06	5.414284e-06	2.251639e-08	3.886840e+01	1.475399e+03
2.090000e-06	5.302683e-06	2.237204e-08	3.806723e+01	1.465648e+03
2.100000e-06	5.189102e-06	2.223819e-08	3.725184e+01	1.455451e+03
2.110000e-06	5.073628e-06	2.208297e-08	3.642287e+01	1.444893e+03
2.120000e-06	4.956107e-06	2.193178e-08	3.557921e+01	1.434053e+03
2.130000e-06	4.836615e-06	2.175855e-08	3.472139e+01	1.422981e+03
2.140000e-06	4.715406e-06	2.158593e-08	3.385125e+01	1.411685e+03
2.150000e-06	4.592561e-06	2.139891e-08	3.296936e+01	1.400124e+03
2.160000e-06	4.468012e-06	2.121436e-08	3.207524e+01	1.388212e+03
2.170000e-06	4.341731e-06	2.101801e-08	3.116868e+01	1.375820e+03
2.180000e-06	4.213882e-06	2.080999e-08	3.025087e+01	1.362795e+03
2.190000e-06	4.084469e-06	2.059186e-08	2.932184e+01	1.348980e+03
2.200000e-06	3.953591e-06	2.036348e-08	2.838228e+01	1.334234e+03
2.210000e-06	3.821256e-06	2.012853e-08	2.743227e+01	1.318450e+03
2.220000e-06	3.687380e-06	1.987876e-08	2.647119e+01	1.301569e+03
2.230000e-06	3.552191e-06	1.961933e-08	2.550069e+01	1.283585e+03
2.240000e-06	3.415811e-06	1.933948e-08	2.452163e+01	1.264540e+03
2.250000e-06	3.278120e-06	1.904502e-08	2.353317e+01	1.244506e+03
2.260000e-06	3.139098e-06	1.873384e-08	2.253515e+01	1.223567e+03
2.270000e-06	2.998733e-06	1.841266e-08	2.152749e+01	1.201789e+03
2.280000e-06	2.857115e-06	1.807357e-08	2.051084e+01	1.179190e+03
2.290000e-06	2.714430e-06	1.771614e-08	1.948652e+01	1.155718e+03
2.300000e-06	2.570799e-06	1.733545e-08	1.845541e+01	1.131234e+03
2.310000e-06	2.426287e-06	1.693014e-08	1.741798e+01	1.105508e+03
2.320000e-06	2.280952e-06	1.649805e-08	1.637464e+01	1.078220e+03
2.330000e-06	2.134887e-06	1.603636e-08	1.532606e+01	1.048992e+03
2.340000e-06	1.988187e-06	1.554249e-08	1.427292e+01	1.017406e+03
2.350000e-06	1.840854e-06	1.501299e-08	1.321524e+01	9.830541e+02
2.360000e-06	1.692849e-06	1.444426e-08	1.215273e+01	9.455715e+02
2.370000e-06	1.544161e-06	1.383293e-08	1.108532e+01	9.046773e+02
2.380000e-06	1.394832e-06	1.317464e-08	1.001331e+01	8.602026e+02
2.390000e-06	1.245065e-06	1.246758e-08	8.938147e+00	8.121072e+02
2.400000e-06	1.094952e-06	1.170625e-08	7.860509e+00	7.604804e+02
2.410000e-06	9.445269e-07	1.088652e-08	6.780628e+00	7.055277e+02
2.420000e-06	7.938170e-07	1.001050e-08	5.698703e+00	6.475429e+02
2.430000e-06	6.428730e-07	9.079369e-09	4.615097e+00	5.868705e+02
2.440000e-06	4.917602e-07	8.095515e-09	3.530278e+00	5.238647e+02
2.450000e-06	3.404513e-07	7.064882e-09	2.444052e+00	4.588488e+02
2.460000e-06	1.889883e-07	6.003721e-09	1.356721e+00	3.920832e+02
2.470000e-06	3.739849e-08	4.925662e-09	2.684786e-01	3.237461e+02
2.480000e-06	-1.142617e-07	3.841749e-09	-8.202691e-01	2.539299e+02
2.490000e-06	-2.658387e-07	2.757746e-09	-1.908420e+00	1.826543e+02
2.500000e-06	-4.172995e-07	1.672447e-09	-2.995735e+00	1.098955e+02
2.510000e-06	-5.686495e-07	5.797893e-10	-4.082256e+00	3.562638e+01
2.520000e-06	-7.198350e-07	-5.316738e-10	-5.167596e+00	-4.013727e+01
2.530000e-06	-8.707676e-07	-1.673676e-09	-6.251120e+00	-1.172913e+02
2.540000e-06	-1.021364e-06	-2.848947e-09	-7.332230e+00	-1.956058e+02
2.550000e-06	-1.171645e-06	-4.058996e-09	-8.411080e+00	-2.747007e+02
2.560000e-06	-1.321562e-06	-5.295664e-09	-9.487311e+00	-3.540406e+02
2.570000e-06	-1.471100e-06	-6.543699e-09	-1.056082e+01	-4.329492e+02
2.580000e-06	-1.620130e-06	-7.780970e-09	-1.163069e+01	-5.106427e+02
2.590000e-06	-1.768502e-06	-8.978623e-09	-1.269583e+01	-5.862806e+02
2.600000e-06	-1.916148e-06	-1.011334e-08	-1.375576e+01	-6.590260e+02
2.610000e-06	-2.062980e-06	-1.116899e-08	-1.480985e+01	-7.281104e+02
2.620000e-06	-2.209029e-06	-1.213973e-08	-1.585832e+01	-7.928939e+02
2.630000e-06	-2.354223e-06	-1.302607e-08	-1.690064e+01	-8.529147e+02
2.640000e-06	-2.498466e-06	-1.383455e-08	-1.793614e+01	-9.079213e+02
2.650000e-06	-2.641777e-06	-1.457380e-08	-1.896495e+01	-9.578845e+02
2.660000e-06	-2.784180e-06	-1.525045e-08	-1.998725e+01	-1.002987e+03
2.670000e-06	-2.925599e-06	-1.587180e-08	-2.100247e+01	-1.043595e+03
2.680000e-06	-3.065748e-06	-1.644531e-08	-2.200858e+01	-1.080208e+03
2.690000e-06	-3.204513e-06	-1.697331e-08	-2.300476e+01	-1.113409e+03
2.700000e-06	-3.341990e-06	-1.745930e-08	-2.399168e+01	-1.143797e+03
2.710000e-06	-3.478205e-06	-1.790911e-08	-2.496956e+01	-1.171940e+03
2.720000e-06	-3.613197e-06	-1.832763e-08	-2.593864e+01	-1.198323e+03
2.730000e-06	-3.747027e-06	-1.872042e-08	-2.689939e+01	-1.223320e+03
2.740000e-06	-3.879576e-06	-1.908829e-08	-2.785094e+01	-1.247180e+03
2.750000e-06	-4.010649e-06	-1.943069e-08	-2.879190e+01	-1.270030e+03
2.760000e-06	-4.140283e-06	-1.975234e-08	-2.972252e+01	-1.291896e+03
2.770000e-06	-4.268526e-06	-2.005710e-08	-3.064316e+01	-1.312728e+03
2.780000e-06	-4.395347e-06	-2.034371e-08	-3.155359e+01	-1.332442e+03
2.790000e-06	-4.520680e-06	-2.061379e-08	-3.245334e+01	-1.350947e+03
2.800000e-06	-4.644344e-06	-2.086921e-08	-3.334111e+01	-1.368183e+03
2.810000e-06	-4.766322e-06	-2.110952e-08	-3.421677e+01	-1.384141e+03
2.820000e-06	-4.886630e-06	-2.133781e-08	-3.508044e+01	-1.398868e+03
2.830000e-06	-5.005096e-06	-2.155450e-08	-3.593089e+01	-1.412473e+03
2.840000e-06	-5.121480e-06	-2.176037e-08	-3.676640e+01	-1.425108e+03
2.850000e-06	-5.235762e-06	-2.195490e-08	-3.758681e+01	-1.436952e+03
2.860000e-06	-5.348066e-06	-2.213798e-08	-3.839303e+01	-1.448185e+03
2.870000e-06	-5.458311e-06	-2.231057e-08	-3.918446e+01	-1.458968e+03
2.880000e-06	-5.566535e-06	-2.247253e-08	-3.996139e+01	-1.469417e+03
2.890000e-06	-5.672867e-06	-2.262569e-08	-4.072473e+01	-1.479599e+03
2.900000e-06	-5.777167e-06	-2.277218e-08	-4.147348e+01	-1.489524e+03
2.910000e-06	-5.879338e-06	-2.291310e-08	-4.220696e+01	-1.499153e+03
2.920000e-06	-5.979329e-06	-2.304628e-08	-4.292478e+01	-1.508410e+03
2.930000e-06	-6.077159e-06	-2.317178e-08	-4.362709e+01	-1.517204e+03
2.940000e-06	-6.172843e-06	-2.329099e-08	-4.431399e+01	-1.525444e+03
