# Temperatura_=_70.17
# Concentracion g/m^3_=_28370.0
# C_Vs_to_Am_M_A/Vsm_=_65563218390.804596
# pendiente_HvsI_1/m_=_3716.3
# ordenada_HvsI_A/m_=_1297.0
# frecuencia_Hz_=_302507.5690557729

Tiempo_(s)	Campo_(V.s)	Magnetizacion_(V.s)	Campo_(kA/m)	Magnetizacion_(A/m)
0.000000e+00	-7.862243e-06	-2.597507e-08	-5.683365e+01	-1.700295e+03
1.000000e-08	-7.857550e-06	-2.596926e-08	-5.679973e+01	-1.699492e+03
2.000000e-08	-7.850371e-06	-2.596010e-08	-5.674784e+01	-1.698676e+03
3.000000e-08	-7.840560e-06	-2.595131e-08	-5.667691e+01	-1.697879e+03
4.000000e-08	-7.827890e-06	-2.593805e-08	-5.658533e+01	-1.697104e+03
5.000000e-08	-7.812316e-06	-2.591746e-08	-5.647275e+01	-1.696328e+03
6.000000e-08	-7.794129e-06	-2.589277e-08	-5.634128e+01	-1.695505e+03
7.000000e-08	-7.773667e-06	-2.585832e-08	-5.619337e+01	-1.694575e+03
8.000000e-08	-7.750779e-06	-2.587318e-08	-5.602792e+01	-1.693476e+03
9.000000e-08	-7.724954e-06	-2.591177e-08	-5.584124e+01	-1.692154e+03
1.000000e-07	-7.695942e-06	-2.584317e-08	-5.563152e+01	-1.690574e+03
1.100000e-07	-7.664031e-06	-2.577649e-08	-5.540084e+01	-1.688725e+03
1.200000e-07	-7.629414e-06	-2.575419e-08	-5.515061e+01	-1.686622e+03
1.300000e-07	-7.592223e-06	-2.571309e-08	-5.488176e+01	-1.684304e+03
1.400000e-07	-7.552756e-06	-2.562358e-08	-5.459647e+01	-1.681825e+03
1.500000e-07	-7.511059e-06	-2.557919e-08	-5.429506e+01	-1.679244e+03
1.600000e-07	-7.466890e-06	-2.567152e-08	-5.397577e+01	-1.676614e+03
1.700000e-07	-7.420149e-06	-2.553414e-08	-5.363789e+01	-1.673969e+03
1.800000e-07	-7.370741e-06	-2.547455e-08	-5.328074e+01	-1.671318e+03
1.900000e-07	-7.318374e-06	-2.551061e-08	-5.290220e+01	-1.668638e+03
2.000000e-07	-7.263126e-06	-2.538043e-08	-5.250283e+01	-1.665880e+03
2.100000e-07	-7.205256e-06	-2.535941e-08	-5.208450e+01	-1.662969e+03
2.200000e-07	-7.144779e-06	-2.527984e-08	-5.164734e+01	-1.659822e+03
2.300000e-07	-7.081722e-06	-2.522241e-08	-5.119152e+01	-1.656354e+03
2.400000e-07	-7.015952e-06	-2.517058e-08	-5.071609e+01	-1.652494e+03
2.500000e-07	-6.947455e-06	-2.508239e-08	-5.022094e+01	-1.648197e+03
2.600000e-07	-6.876335e-06	-2.502640e-08	-4.970684e+01	-1.643451e+03
2.700000e-07	-6.802476e-06	-2.495141e-08	-4.917294e+01	-1.638276e+03
2.800000e-07	-6.725892e-06	-2.488714e-08	-4.861934e+01	-1.632727e+03
2.900000e-07	-6.646566e-06	-2.478027e-08	-4.804591e+01	-1.626877e+03
3.000000e-07	-6.564603e-06	-2.469823e-08	-4.745343e+01	-1.620811e+03
3.100000e-07	-6.480422e-06	-2.462643e-08	-4.684491e+01	-1.614606e+03
3.200000e-07	-6.394100e-06	-2.451508e-08	-4.622092e+01	-1.608321e+03
3.300000e-07	-6.305450e-06	-2.443373e-08	-4.558009e+01	-1.601983e+03
3.400000e-07	-6.214439e-06	-2.431706e-08	-4.492221e+01	-1.595581e+03
3.500000e-07	-6.121269e-06	-2.421816e-08	-4.424871e+01	-1.589068e+03
3.600000e-07	-6.025928e-06	-2.411585e-08	-4.355952e+01	-1.582364e+03
3.700000e-07	-5.928317e-06	-2.399305e-08	-4.285392e+01	-1.575368e+03
3.800000e-07	-5.828528e-06	-2.387501e-08	-4.213258e+01	-1.567974e+03
3.900000e-07	-5.726662e-06	-2.375038e-08	-4.139622e+01	-1.560086e+03
4.000000e-07	-5.622808e-06	-2.362354e-08	-4.064549e+01	-1.551633e+03
4.100000e-07	-5.516979e-06	-2.347392e-08	-3.988049e+01	-1.542578e+03
4.200000e-07	-5.409194e-06	-2.334748e-08	-3.910134e+01	-1.532927e+03
4.300000e-07	-5.299461e-06	-2.320176e-08	-3.830812e+01	-1.522719e+03
4.400000e-07	-5.187751e-06	-2.304432e-08	-3.750060e+01	-1.512025e+03
4.500000e-07	-5.074128e-06	-2.288085e-08	-3.667926e+01	-1.500927e+03
4.600000e-07	-4.958616e-06	-2.271431e-08	-3.584426e+01	-1.489507e+03
4.700000e-07	-4.841221e-06	-2.253681e-08	-3.499565e+01	-1.477822e+03
4.800000e-07	-4.722021e-06	-2.234782e-08	-3.413399e+01	-1.465896e+03
4.900000e-07	-4.601088e-06	-2.216212e-08	-3.325981e+01	-1.453705e+03
5.000000e-07	-4.478410e-06	-2.196128e-08	-3.237300e+01	-1.441177e+03
5.100000e-07	-4.354070e-06	-2.175202e-08	-3.147418e+01	-1.428199e+03
5.200000e-07	-4.228150e-06	-2.153033e-08	-3.056395e+01	-1.414628e+03
5.300000e-07	-4.100687e-06	-2.130498e-08	-2.964256e+01	-1.400307e+03
5.400000e-07	-3.971805e-06	-2.106392e-08	-2.871092e+01	-1.385089e+03
5.500000e-07	-3.841433e-06	-2.080972e-08	-2.776850e+01	-1.368856e+03
5.600000e-07	-3.709471e-06	-2.054587e-08	-2.681458e+01	-1.351532e+03
5.700000e-07	-3.576147e-06	-2.027000e-08	-2.585083e+01	-1.333094e+03
5.800000e-07	-3.441523e-06	-1.998032e-08	-2.487768e+01	-1.313564e+03
5.900000e-07	-3.305589e-06	-1.967705e-08	-2.389505e+01	-1.293005e+03
6.000000e-07	-3.168419e-06	-1.936554e-08	-2.290350e+01	-1.271498e+03
6.100000e-07	-3.029979e-06	-1.903465e-08	-2.190275e+01	-1.249115e+03
6.200000e-07	-2.890197e-06	-1.868516e-08	-2.089231e+01	-1.225892e+03
6.300000e-07	-2.749097e-06	-1.831241e-08	-1.987235e+01	-1.201805e+03
6.400000e-07	-2.606865e-06	-1.791725e-08	-1.884420e+01	-1.176746e+03
6.500000e-07	-2.463689e-06	-1.749970e-08	-1.780922e+01	-1.150518e+03
6.600000e-07	-2.319637e-06	-1.705932e-08	-1.676792e+01	-1.122836e+03
6.700000e-07	-2.174751e-06	-1.659192e-08	-1.572058e+01	-1.093343e+03
6.800000e-07	-2.029124e-06	-1.609283e-08	-1.466789e+01	-1.061632e+03
6.900000e-07	-1.882785e-06	-1.556153e-08	-1.361006e+01	-1.027291e+03
7.000000e-07	-1.735816e-06	-1.499062e-08	-1.254766e+01	-9.899333e+02
7.100000e-07	-1.588320e-06	-1.438294e-08	-1.148146e+01	-9.492397e+02
7.200000e-07	-1.440337e-06	-1.372761e-08	-1.041174e+01	-9.049898e+02
7.300000e-07	-1.291959e-06	-1.301811e-08	-9.339163e+00	-8.570818e+02
7.400000e-07	-1.143219e-06	-1.225118e-08	-8.263968e+00	-8.055403e+02
7.500000e-07	-9.940626e-07	-1.142756e-08	-7.185762e+00	-7.505076e+02
7.600000e-07	-8.446064e-07	-1.055206e-08	-6.105391e+00	-6.922222e+02
7.700000e-07	-6.949048e-07	-9.619032e-09	-5.023246e+00	-6.309858e+02
7.800000e-07	-5.449435e-07	-8.632272e-09	-3.939223e+00	-5.671247e+02
7.900000e-07	-3.947844e-07	-7.595180e-09	-2.853771e+00	-5.009511e+02
8.000000e-07	-2.445121e-07	-6.517752e-09	-1.767500e+00	-4.327297e+02
8.100000e-07	-9.414828e-08	-5.410869e-09	-6.805680e-01	-3.626553e+02
8.200000e-07	5.629739e-08	-4.290889e-09	4.069559e-01	-2.908456e+02
8.300000e-07	2.067640e-07	-3.169396e-09	1.494631e+00	-2.173492e+02
8.400000e-07	3.571587e-07	-2.043580e-09	2.581786e+00	-1.421697e+02
8.500000e-07	5.074202e-07	-9.105585e-10	3.667979e+00	-6.530243e+01
8.600000e-07	6.575727e-07	2.377092e-10	4.753384e+00	1.322211e+01
8.700000e-07	8.075891e-07	1.410794e-09	5.837805e+00	9.329366e+01
8.800000e-07	9.573846e-07	2.619778e-09	6.920628e+00	1.746833e+02
8.900000e-07	1.106855e-06	3.866864e-09	8.001104e+00	2.570170e+02
9.000000e-07	1.255919e-06	5.145018e-09	9.078637e+00	3.397657e+02
9.100000e-07	1.404562e-06	6.442125e-09	1.015313e+01	4.222552e+02
9.200000e-07	1.552754e-06	7.735007e-09	1.122436e+01	5.036958e+02
9.300000e-07	1.700451e-06	8.991109e-09	1.229202e+01	5.832285e+02
9.400000e-07	1.847576e-06	1.018321e-08	1.335554e+01	6.599845e+02
9.500000e-07	1.994042e-06	1.129382e-08	1.441430e+01	7.331491e+02
9.600000e-07	2.139793e-06	1.231685e-08	1.546789e+01	8.020242e+02
9.700000e-07	2.284763e-06	1.325533e-08	1.651582e+01	8.660819e+02
9.800000e-07	2.428840e-06	1.411232e-08	1.755731e+01	9.250019e+02
9.900000e-07	2.571895e-06	1.489463e-08	1.859141e+01	9.786892e+02
1.000000e-06	2.713881e-06	1.560805e-08	1.961778e+01	1.027271e+03
1.010000e-06	2.854778e-06	1.626140e-08	2.063628e+01	1.071070e+03
1.020000e-06	2.994551e-06	1.686563e-08	2.164666e+01	1.110564e+03
1.030000e-06	3.133099e-06	1.742465e-08	2.264818e+01	1.146329e+03
1.040000e-06	3.270368e-06	1.794251e-08	2.364045e+01	1.178984e+03
1.050000e-06	3.406329e-06	1.842176e-08	2.462327e+01	1.209125e+03
1.060000e-06	3.541013e-06	1.886901e-08	2.559686e+01	1.237281e+03
1.070000e-06	3.674497e-06	1.928632e-08	2.656177e+01	1.263878e+03
1.080000e-06	3.806689e-06	1.967698e-08	2.751734e+01	1.289215e+03
1.090000e-06	3.937510e-06	2.004282e-08	2.846301e+01	1.313466e+03
1.100000e-06	4.066928e-06	2.038662e-08	2.939853e+01	1.336691e+03
1.110000e-06	4.194874e-06	2.071037e-08	3.032341e+01	1.358868e+03
1.120000e-06	4.321314e-06	2.101674e-08	3.123740e+01	1.379919e+03
1.130000e-06	4.446336e-06	2.130554e-08	3.214115e+01	1.399756e+03
1.140000e-06	4.569896e-06	2.157594e-08	3.303432e+01	1.418307e+03
1.150000e-06	4.691784e-06	2.183241e-08	3.391542e+01	1.435543e+03
1.160000e-06	4.811947e-06	2.207502e-08	3.478404e+01	1.451497e+03
1.170000e-06	4.930427e-06	2.230471e-08	3.564049e+01	1.466257e+03
1.180000e-06	5.047144e-06	2.252162e-08	3.648420e+01	1.479968e+03
1.190000e-06	5.161878e-06	2.272669e-08	3.731357e+01	1.492805e+03
1.200000e-06	5.274543e-06	2.291962e-08	3.812799e+01	1.504954e+03
1.210000e-06	5.385257e-06	2.310259e-08	3.892831e+01	1.516588e+03
1.220000e-06	5.494149e-06	2.327693e-08	3.971545e+01	1.527845e+03
1.230000e-06	5.601137e-06	2.344530e-08	4.048884e+01	1.538811e+03
1.240000e-06	5.706030e-06	2.360697e-08	4.124707e+01	1.549517e+03
1.250000e-06	5.808780e-06	2.376091e-08	4.198982e+01	1.559940e+03
1.260000e-06	5.909481e-06	2.390831e-08	4.271776e+01	1.570014e+03
1.270000e-06	6.008034e-06	2.404750e-08	4.343017e+01	1.579648e+03
1.280000e-06	6.104212e-06	2.417703e-08	4.412541e+01	1.588746e+03
1.290000e-06	6.198106e-06	2.429705e-08	4.480414e+01	1.597227e+03
1.300000e-06	6.289883e-06	2.441198e-08	4.546756e+01	1.605045e+03
1.310000e-06	6.379406e-06	2.452255e-08	4.611470e+01	1.612193e+03
1.320000e-06	6.466609e-06	2.462584e-08	4.674506e+01	1.618714e+03
1.330000e-06	6.551601e-06	2.472342e-08	4.735944e+01	1.624688e+03
1.340000e-06	6.634271e-06	2.481646e-08	4.795703e+01	1.630227e+03
1.350000e-06	6.714463e-06	2.490649e-08	4.853672e+01	1.635456e+03
1.360000e-06	6.792191e-06	2.499100e-08	4.909859e+01	1.640492e+03
1.370000e-06	6.867324e-06	2.507080e-08	4.964170e+01	1.645434e+03
1.380000e-06	6.939842e-06	2.514706e-08	5.016591e+01	1.650344e+03
1.390000e-06	7.009968e-06	2.521859e-08	5.067283e+01	1.655241e+03
1.400000e-06	7.077689e-06	2.528656e-08	5.116236e+01	1.660104e+03
1.410000e-06	7.142776e-06	2.535217e-08	5.163285e+01	1.664875e+03
1.420000e-06	7.205269e-06	2.541632e-08	5.208460e+01	1.669472e+03
1.430000e-06	7.265398e-06	2.547585e-08	5.251925e+01	1.673805e+03
1.440000e-06	7.322999e-06	2.553048e-08	5.293563e+01	1.677792e+03
1.450000e-06	7.377953e-06	2.558270e-08	5.333287e+01	1.681371e+03
1.460000e-06	7.430072e-06	2.563182e-08	5.370963e+01	1.684513e+03
1.470000e-06	7.479132e-06	2.567709e-08	5.406427e+01	1.687226e+03
1.480000e-06	7.525371e-06	2.571923e-08	5.439851e+01	1.689553e+03
1.490000e-06	7.568983e-06	2.575798e-08	5.471377e+01	1.691560e+03
1.500000e-06	7.609895e-06	2.579305e-08	5.500951e+01	1.693334e+03
1.510000e-06	7.648086e-06	2.582450e-08	5.528558e+01	1.694960e+03
1.520000e-06	7.683643e-06	2.585268e-08	5.554261e+01	1.696512e+03
1.530000e-06	7.716482e-06	2.587776e-08	5.577999e+01	1.698039e+03
1.540000e-06	7.746590e-06	2.589883e-08	5.599763e+01	1.699561e+03
1.550000e-06	7.773984e-06	2.591685e-08	5.619566e+01	1.701066e+03
1.560000e-06	7.798499e-06	2.593274e-08	5.637287e+01	1.702512e+03
1.570000e-06	7.820204e-06	2.594639e-08	5.652977e+01	1.703840e+03
1.580000e-06	7.839192e-06	2.595921e-08	5.666702e+01	1.704979e+03
1.590000e-06	7.855284e-06	2.597179e-08	5.678335e+01	1.705867e+03
1.600000e-06	7.868393e-06	2.598113e-08	5.687811e+01	1.706456e+03
1.610000e-06	7.878359e-06	2.598603e-08	5.695015e+01	1.706723e+03
1.620000e-06	7.885289e-06	2.598895e-08	5.700025e+01	1.706676e+03
1.630000e-06	7.889538e-06	2.599146e-08	5.703096e+01	1.706348e+03
1.640000e-06	7.890996e-06	2.599315e-08	5.704150e+01	1.705796e+03
1.650000e-06	7.889654e-06	2.598928e-08	5.703180e+01	1.705089e+03
1.660000e-06	7.885764e-06	2.597734e-08	5.700368e+01	1.704297e+03
1.670000e-06	7.879249e-06	2.596806e-08	5.695658e+01	1.703478e+03
1.680000e-06	7.870074e-06	2.595648e-08	5.689026e+01	1.702672e+03
1.690000e-06	7.858177e-06	2.594253e-08	5.680426e+01	1.701890e+03
1.700000e-06	7.843456e-06	2.593379e-08	5.669785e+01	1.701116e+03
1.710000e-06	7.826216e-06	2.592898e-08	5.657322e+01	1.700310e+03
1.720000e-06	7.806749e-06	2.592513e-08	5.643250e+01	1.699415e+03
1.730000e-06	7.784783e-06	2.582342e-08	5.627372e+01	1.698369e+03
1.740000e-06	7.759727e-06	2.576494e-08	5.609260e+01	1.697113e+03
1.750000e-06	7.731026e-06	2.580099e-08	5.588513e+01	1.695607e+03
1.760000e-06	7.698908e-06	2.577918e-08	5.565295e+01	1.693832e+03
1.770000e-06	7.664325e-06	2.573541e-08	5.540297e+01	1.691797e+03
1.780000e-06	7.627533e-06	2.577694e-08	5.513701e+01	1.689533e+03
1.790000e-06	7.588542e-06	2.579258e-08	5.485515e+01	1.687092e+03
1.800000e-06	7.547644e-06	2.559820e-08	5.455952e+01	1.684533e+03
1.810000e-06	7.504409e-06	2.566999e-08	5.424698e+01	1.681910e+03
1.820000e-06	7.458432e-06	2.565494e-08	5.391464e+01	1.679266e+03
1.830000e-06	7.409854e-06	2.554933e-08	5.356348e+01	1.676615e+03
1.840000e-06	7.358337e-06	2.563512e-08	5.319108e+01	1.673945e+03
1.850000e-06	7.303836e-06	2.546916e-08	5.279711e+01	1.671214e+03
1.860000e-06	7.246636e-06	2.548026e-08	5.238363e+01	1.668353e+03
1.870000e-06	7.186847e-06	2.542119e-08	5.195143e+01	1.665281e+03
1.880000e-06	7.124502e-06	2.531177e-08	5.150076e+01	1.661910e+03
1.890000e-06	7.059391e-06	2.534444e-08	5.103009e+01	1.658166e+03
1.900000e-06	6.991555e-06	2.520746e-08	5.053973e+01	1.653995e+03
1.910000e-06	6.920942e-06	2.517558e-08	5.002929e+01	1.649374e+03
1.920000e-06	6.847568e-06	2.506989e-08	4.949889e+01	1.644316e+03
1.930000e-06	6.771557e-06	2.501811e-08	4.894943e+01	1.638865e+03
1.940000e-06	6.692846e-06	2.497054e-08	4.838045e+01	1.633091e+03
1.950000e-06	6.611614e-06	2.482830e-08	4.779326e+01	1.627076e+03
1.960000e-06	6.527969e-06	2.478747e-08	4.718861e+01	1.620901e+03
1.970000e-06	6.441903e-06	2.465169e-08	4.656647e+01	1.614633e+03
1.980000e-06	6.353477e-06	2.458406e-08	4.592726e+01	1.608307e+03
1.990000e-06	6.262851e-06	2.447339e-08	4.527216e+01	1.601925e+03
2.000000e-06	6.170053e-06	2.437253e-08	4.460135e+01	1.595449e+03
2.010000e-06	6.074988e-06	2.427927e-08	4.391415e+01	1.588807e+03
2.020000e-06	5.977746e-06	2.414372e-08	4.321122e+01	1.581903e+03
2.030000e-06	5.878371e-06	2.403214e-08	4.249288e+01	1.574632e+03
2.040000e-06	5.776912e-06	2.389893e-08	4.175946e+01	1.566891e+03
2.050000e-06	5.673384e-06	2.379569e-08	4.101109e+01	1.558603e+03
2.060000e-06	5.567928e-06	2.364061e-08	4.024878e+01	1.549720e+03
2.070000e-06	5.460595e-06	2.350287e-08	3.947291e+01	1.540234e+03
2.080000e-06	5.351316e-06	2.335461e-08	3.868296e+01	1.530177e+03
2.090000e-06	5.240069e-06	2.320914e-08	3.787879e+01	1.519612e+03
2.100000e-06	5.126827e-06	2.305194e-08	3.706020e+01	1.508619e+03
2.110000e-06	5.011686e-06	2.288789e-08	3.622788e+01	1.497281e+03
2.120000e-06	4.894618e-06	2.272034e-08	3.538163e+01	1.485666e+03
2.130000e-06	4.775600e-06	2.252813e-08	3.452129e+01	1.473807e+03
2.140000e-06	4.654770e-06	2.233681e-08	3.364785e+01	1.461695e+03
2.150000e-06	4.532253e-06	2.214034e-08	3.276221e+01	1.449271e+03
2.160000e-06	4.408113e-06	2.194966e-08	3.186485e+01	1.436434e+03
2.170000e-06	4.282396e-06	2.173286e-08	3.095608e+01	1.423046e+03
2.180000e-06	4.155064e-06	2.150975e-08	3.003564e+01	1.408952e+03
2.190000e-06	4.026213e-06	2.127511e-08	2.910421e+01	1.394003e+03
2.200000e-06	3.895880e-06	2.103445e-08	2.816208e+01	1.378068e+03
2.210000e-06	3.764047e-06	2.077577e-08	2.720910e+01	1.361058e+03
2.220000e-06	3.630861e-06	2.050699e-08	2.624634e+01	1.342936e+03
2.230000e-06	3.496331e-06	2.022716e-08	2.527386e+01	1.323711e+03
2.240000e-06	3.360474e-06	1.992984e-08	2.429180e+01	1.303436e+03
2.250000e-06	3.223367e-06	1.961837e-08	2.330070e+01	1.282190e+03
2.260000e-06	3.084996e-06	1.929133e-08	2.230045e+01	1.260049e+03
2.270000e-06	2.945426e-06	1.895285e-08	2.129155e+01	1.237064e+03
2.280000e-06	2.804785e-06	1.859234e-08	2.027490e+01	1.213228e+03
2.290000e-06	2.663064e-06	1.821047e-08	1.925044e+01	1.188461e+03
2.300000e-06	2.520269e-06	1.780242e-08	1.821823e+01	1.162591e+03
2.310000e-06	2.376532e-06	1.737160e-08	1.717919e+01	1.135356e+03
2.320000e-06	2.231980e-06	1.691372e-08	1.613427e+01	1.106418e+03
2.330000e-06	2.086729e-06	1.642629e-08	1.508430e+01	1.075382e+03
2.340000e-06	1.940822e-06	1.590608e-08	1.402959e+01	1.041832e+03
2.350000e-06	1.794214e-06	1.534737e-08	1.296980e+01	1.005370e+03
2.360000e-06	1.646967e-06	1.474992e-08	1.190540e+01	9.656547e+02
2.370000e-06	1.499207e-06	1.410798e-08	1.083729e+01	9.224347e+02
2.380000e-06	1.350959e-06	1.341705e-08	9.765656e+00	8.755728e+02
2.390000e-06	1.202315e-06	1.267329e-08	8.691152e+00	8.250578e+02
2.400000e-06	1.053322e-06	1.187183e-08	7.614131e+00	7.710000e+02
2.410000e-06	9.039503e-07	1.101264e-08	6.534369e+00	7.136133e+02
2.420000e-06	7.542432e-07	1.009513e-08	5.452184e+00	6.531850e+02
2.430000e-06	6.043489e-07	9.118629e-09	4.368646e+00	5.900387e+02
2.440000e-06	4.543078e-07	8.088657e-09	3.284046e+00	5.244942e+02
2.450000e-06	3.040358e-07	7.015488e-09	2.197778e+00	4.568326e+02
2.460000e-06	1.535455e-07	5.912266e-09	1.109932e+00	3.872704e+02
2.470000e-06	2.967460e-09	4.793205e-09	2.145082e-02	3.159468e+02
2.480000e-06	-1.476011e-07	3.669231e-09	-1.066961e+00	2.429286e+02
2.490000e-06	-2.981692e-07	2.543144e-09	-2.155371e+00	1.682288e+02
2.500000e-06	-4.486369e-07	1.408028e-09	-3.243053e+00	9.184110e+01
2.510000e-06	-5.989258e-07	2.581802e-10	-4.329444e+00	1.378112e+01
2.520000e-06	-7.489566e-07	-9.127542e-10	-5.413969e+00	-6.586795e+01
2.530000e-06	-8.986841e-07	-2.115316e-09	-6.496302e+00	-1.469145e+02
2.540000e-06	-1.048157e-06	-3.353310e-09	-7.576795e+00	-2.290277e+02
2.550000e-06	-1.197353e-06	-4.624996e-09	-8.655281e+00	-3.117226e+02
2.560000e-06	-1.346121e-06	-5.919036e-09	-9.730682e+00	-3.943645e+02
2.570000e-06	-1.494385e-06	-7.217923e-09	-1.080243e+01	-4.761923e+02
2.580000e-06	-1.642131e-06	-8.496504e-09	-1.187044e+01	-5.563615e+02
2.590000e-06	-1.789263e-06	-9.723705e-09	-1.293401e+01	-6.339996e+02
2.600000e-06	-1.935716e-06	-1.087519e-08	-1.399268e+01	-7.082697e+02
2.610000e-06	-2.081450e-06	-1.193737e-08	-1.504614e+01	-7.784345e+02
2.620000e-06	-2.226467e-06	-1.291007e-08	-1.609442e+01	-8.439129e+02
2.630000e-06	-2.370648e-06	-1.379743e-08	-1.713666e+01	-9.043225e+02
2.640000e-06	-2.513889e-06	-1.460990e-08	-1.817210e+01	-9.595033e+02
2.650000e-06	-2.656094e-06	-1.535501e-08	-1.920006e+01	-1.009521e+03
2.660000e-06	-2.797184e-06	-1.603829e-08	-2.021996e+01	-1.054645e+03
2.670000e-06	-2.937110e-06	-1.666539e-08	-2.123144e+01	-1.095315e+03
2.680000e-06	-3.075787e-06	-1.724277e-08	-2.223388e+01	-1.132086e+03
2.690000e-06	-3.213308e-06	-1.777552e-08	-2.322798e+01	-1.165569e+03
2.700000e-06	-3.349736e-06	-1.826936e-08	-2.421418e+01	-1.196372e+03
2.710000e-06	-3.484902e-06	-1.873073e-08	-2.519125e+01	-1.225049e+03
2.720000e-06	-3.618676e-06	-1.916035e-08	-2.615826e+01	-1.252057e+03
2.730000e-06	-3.751147e-06	-1.956110e-08	-2.711585e+01	-1.277733e+03
2.740000e-06	-3.882276e-06	-1.993437e-08	-2.806374e+01	-1.302285e+03
2.750000e-06	-4.012078e-06	-2.028268e-08	-2.900204e+01	-1.325805e+03
2.760000e-06	-4.140606e-06	-2.061028e-08	-2.993112e+01	-1.348289e+03
2.770000e-06	-4.267707e-06	-2.092206e-08	-3.084989e+01	-1.369673e+03
2.780000e-06	-4.393286e-06	-2.121872e-08	-3.175767e+01	-1.389868e+03
2.790000e-06	-4.517286e-06	-2.149862e-08	-3.265403e+01	-1.408793e+03
2.800000e-06	-4.639699e-06	-2.176077e-08	-3.353891e+01	-1.426407e+03
2.810000e-06	-4.760536e-06	-2.200722e-08	-3.441240e+01	-1.442722e+03
2.820000e-06	-4.879615e-06	-2.224232e-08	-3.527318e+01	-1.457813e+03
2.830000e-06	-4.996699e-06	-2.246775e-08	-3.611955e+01	-1.471809e+03
2.840000e-06	-5.111779e-06	-2.268348e-08	-3.695143e+01	-1.484878e+03
2.850000e-06	-5.224804e-06	-2.288817e-08	-3.776845e+01	-1.497207e+03
2.860000e-06	-5.335713e-06	-2.308100e-08	-3.857017e+01	-1.508975e+03
2.870000e-06	-5.444654e-06	-2.326118e-08	-3.935768e+01	-1.520330e+03
2.880000e-06	-5.551810e-06	-2.342987e-08	-4.013227e+01	-1.531375e+03
2.890000e-06	-5.657107e-06	-2.359024e-08	-4.089343e+01	-1.542158e+03
2.900000e-06	-5.760260e-06	-2.374464e-08	-4.163908e+01	-1.552669e+03
2.910000e-06	-5.861145e-06	-2.389279e-08	-4.236835e+01	-1.562853e+03
2.920000e-06	-5.959898e-06	-2.403416e-08	-4.308221e+01	-1.572625e+03
2.930000e-06	-6.056646e-06	-2.416939e-08	-4.378157e+01	-1.581887e+03
2.940000e-06	-6.151187e-06	-2.429843e-08	-4.446498e+01	-1.590553e+03
