# Temperatura_=_78.82
# Concentracion g/m^3_=_28370.0
# C_Vs_to_Am_M_A/Vsm_=_65563218390.804596
# pendiente_HvsI_1/m_=_3716.3
# ordenada_HvsI_A/m_=_1297.0
# frecuencia_Hz_=_302506.77634620946

Tiempo_(s)	Campo_(V.s)	Magnetizacion_(V.s)	Campo_(kA/m)	Magnetizacion_(A/m)
0.000000e+00	-7.860177e-06	-2.685131e-08	-5.684026e+01	-1.758164e+03
1.000000e-08	-7.855870e-06	-2.684895e-08	-5.680911e+01	-1.757352e+03
2.000000e-08	-7.849067e-06	-2.683724e-08	-5.675992e+01	-1.756510e+03
3.000000e-08	-7.839542e-06	-2.682395e-08	-5.669104e+01	-1.755673e+03
4.000000e-08	-7.827175e-06	-2.680930e-08	-5.660161e+01	-1.754846e+03
5.000000e-08	-7.811916e-06	-2.679106e-08	-5.649127e+01	-1.754010e+03
6.000000e-08	-7.794002e-06	-2.676494e-08	-5.636172e+01	-1.753120e+03
7.000000e-08	-7.773911e-06	-2.673263e-08	-5.621643e+01	-1.752118e+03
8.000000e-08	-7.751435e-06	-2.671062e-08	-5.605390e+01	-1.750939e+03
9.000000e-08	-7.726054e-06	-2.677049e-08	-5.587036e+01	-1.749529e+03
1.000000e-07	-7.697540e-06	-2.673830e-08	-5.566417e+01	-1.747849e+03
1.100000e-07	-7.666108e-06	-2.664337e-08	-5.543686e+01	-1.745883e+03
1.200000e-07	-7.631896e-06	-2.661161e-08	-5.518946e+01	-1.743645e+03
1.300000e-07	-7.595059e-06	-2.658715e-08	-5.492308e+01	-1.741170e+03
1.400000e-07	-7.555931e-06	-2.650878e-08	-5.464013e+01	-1.738510e+03
1.500000e-07	-7.514602e-06	-2.640515e-08	-5.434126e+01	-1.735724e+03
1.600000e-07	-7.470896e-06	-2.648801e-08	-5.402520e+01	-1.732868e+03
1.700000e-07	-7.424550e-06	-2.644051e-08	-5.369005e+01	-1.729978e+03
1.800000e-07	-7.375475e-06	-2.627777e-08	-5.333518e+01	-1.727068e+03
1.900000e-07	-7.323510e-06	-2.633548e-08	-5.295940e+01	-1.724121e+03
2.000000e-07	-7.268677e-06	-2.624522e-08	-5.256287e+01	-1.721091e+03
2.100000e-07	-7.211237e-06	-2.616455e-08	-5.214750e+01	-1.717910e+03
2.200000e-07	-7.151195e-06	-2.613657e-08	-5.171331e+01	-1.714496e+03
2.300000e-07	-7.088560e-06	-2.603630e-08	-5.126037e+01	-1.710766e+03
2.400000e-07	-7.023300e-06	-2.601413e-08	-5.078845e+01	-1.706650e+03
2.500000e-07	-6.955318e-06	-2.591009e-08	-5.029684e+01	-1.702102e+03
2.600000e-07	-6.884608e-06	-2.585519e-08	-4.978551e+01	-1.697106e+03
2.700000e-07	-6.811147e-06	-2.576386e-08	-4.925428e+01	-1.691681e+03
2.800000e-07	-6.734986e-06	-2.567988e-08	-4.870353e+01	-1.685876e+03
2.900000e-07	-6.656161e-06	-2.559682e-08	-4.813351e+01	-1.679763e+03
3.000000e-07	-6.574690e-06	-2.548356e-08	-4.754436e+01	-1.673426e+03
3.100000e-07	-6.490909e-06	-2.542268e-08	-4.693851e+01	-1.666940e+03
3.200000e-07	-6.404984e-06	-2.531224e-08	-4.631715e+01	-1.660365e+03
3.300000e-07	-6.316742e-06	-2.522927e-08	-4.567903e+01	-1.653729e+03
3.400000e-07	-6.226143e-06	-2.510476e-08	-4.502387e+01	-1.647023e+03
3.500000e-07	-6.133356e-06	-2.498919e-08	-4.435289e+01	-1.640201e+03
3.600000e-07	-6.038406e-06	-2.489262e-08	-4.366626e+01	-1.633184e+03
3.700000e-07	-5.941182e-06	-2.476622e-08	-4.296320e+01	-1.625870e+03
3.800000e-07	-5.841757e-06	-2.463857e-08	-4.224421e+01	-1.618153e+03
3.900000e-07	-5.740301e-06	-2.450689e-08	-4.151054e+01	-1.609934e+03
4.000000e-07	-5.636826e-06	-2.438090e-08	-4.076227e+01	-1.601139e+03
4.100000e-07	-5.531296e-06	-2.422402e-08	-3.999914e+01	-1.591727e+03
4.200000e-07	-5.423789e-06	-2.408311e-08	-3.922171e+01	-1.581698e+03
4.300000e-07	-5.314370e-06	-2.393622e-08	-3.843045e+01	-1.571092e+03
4.400000e-07	-5.202981e-06	-2.377617e-08	-3.762495e+01	-1.559976e+03
4.500000e-07	-5.089650e-06	-2.360192e-08	-3.680541e+01	-1.548433e+03
4.600000e-07	-4.974443e-06	-2.342848e-08	-3.597230e+01	-1.536545e+03
4.700000e-07	-4.857333e-06	-2.324529e-08	-3.512543e+01	-1.524375e+03
4.800000e-07	-4.738419e-06	-2.304919e-08	-3.426551e+01	-1.511949e+03
4.900000e-07	-4.617759e-06	-2.285528e-08	-3.339296e+01	-1.499250e+03
5.000000e-07	-4.495386e-06	-2.264996e-08	-3.250804e+01	-1.486210e+03
5.100000e-07	-4.371386e-06	-2.243430e-08	-3.161134e+01	-1.472718e+03
5.200000e-07	-4.245839e-06	-2.220285e-08	-3.070345e+01	-1.458633e+03
5.300000e-07	-4.118761e-06	-2.196899e-08	-2.978450e+01	-1.443797e+03
5.400000e-07	-3.990153e-06	-2.171863e-08	-2.885448e+01	-1.428060e+03
5.500000e-07	-3.860047e-06	-2.145814e-08	-2.791363e+01	-1.411298e+03
5.600000e-07	-3.728444e-06	-2.118368e-08	-2.696195e+01	-1.393429e+03
5.700000e-07	-3.595370e-06	-2.089944e-08	-2.599964e+01	-1.374421e+03
5.800000e-07	-3.460950e-06	-2.060012e-08	-2.502759e+01	-1.354293e+03
5.900000e-07	-3.325207e-06	-2.028785e-08	-2.404598e+01	-1.333102e+03
6.000000e-07	-3.188133e-06	-1.996580e-08	-2.305473e+01	-1.310926e+03
6.100000e-07	-3.049791e-06	-1.962679e-08	-2.205433e+01	-1.287841e+03
6.200000e-07	-2.910189e-06	-1.927153e-08	-2.104481e+01	-1.263887e+03
6.300000e-07	-2.769351e-06	-1.888943e-08	-2.002634e+01	-1.239048e+03
6.400000e-07	-2.627306e-06	-1.848423e-08	-1.899916e+01	-1.213226e+03
6.500000e-07	-2.484273e-06	-1.805092e-08	-1.796483e+01	-1.186235e+03
6.600000e-07	-2.340415e-06	-1.759693e-08	-1.692453e+01	-1.157799e+03
6.700000e-07	-2.195681e-06	-1.711788e-08	-1.587790e+01	-1.127565e+03
6.800000e-07	-2.050096e-06	-1.661008e-08	-1.482511e+01	-1.095133e+03
6.900000e-07	-1.903816e-06	-1.607083e-08	-1.376730e+01	-1.060085e+03
7.000000e-07	-1.756974e-06	-1.548944e-08	-1.270542e+01	-1.022026e+03
7.100000e-07	-1.609599e-06	-1.486727e-08	-1.163969e+01	-9.806211e+02
7.200000e-07	-1.461791e-06	-1.419614e-08	-1.057083e+01	-9.356298e+02
7.300000e-07	-1.313626e-06	-1.347446e-08	-9.499388e+00	-8.869259e+02
7.400000e-07	-1.165034e-06	-1.269575e-08	-8.424850e+00	-8.345067e+02
7.500000e-07	-1.015943e-06	-1.186152e-08	-7.346711e+00	-7.784874e+02
7.600000e-07	-8.664722e-07	-1.097153e-08	-6.265827e+00	-7.190806e+02
7.700000e-07	-7.167450e-07	-1.002044e-08	-5.183086e+00	-6.565657e+02
7.800000e-07	-5.668214e-07	-9.009179e-09	-4.098925e+00	-5.912523e+02
7.900000e-07	-4.167451e-07	-7.943736e-09	-3.013660e+00	-5.234417e+02
8.000000e-07	-2.665409e-07	-6.835827e-09	-1.927470e+00	-4.533944e+02
8.100000e-07	-1.162185e-07	-5.697079e-09	-8.404254e-01	-3.813082e+02
8.200000e-07	3.423474e-08	-4.542980e-09	2.475659e-01	-3.073094e+02
8.300000e-07	1.846887e-07	-3.381443e-09	1.335562e+00	-2.314606e+02
8.400000e-07	3.350375e-07	-2.216589e-09	2.422797e+00	-1.537839e+02
8.500000e-07	4.853133e-07	-1.043364e-09	3.509505e+00	-7.429560e+01
8.600000e-07	6.355015e-07	1.448329e-10	4.595580e+00	6.950738e+00
8.700000e-07	7.855235e-07	1.356606e-09	5.680452e+00	8.982088e+01
8.800000e-07	9.353151e-07	2.603317e-09	6.763658e+00	1.740617e+02
8.900000e-07	1.084811e-06	3.888927e-09	7.844728e+00	2.592747e+02
9.000000e-07	1.233975e-06	5.208936e-09	8.923398e+00	3.449070e+02
9.100000e-07	1.382708e-06	6.551079e-09	9.998945e+00	4.302605e+02
9.200000e-07	1.530928e-06	7.890622e-09	1.107079e+01	5.145220e+02
9.300000e-07	1.678616e-06	9.191348e-09	1.213878e+01	5.968094e+02
9.400000e-07	1.825699e-06	1.042574e-08	1.320240e+01	6.762313e+02
9.500000e-07	1.972160e-06	1.157655e-08	1.426152e+01	7.519520e+02
9.600000e-07	2.117937e-06	1.263738e-08	1.531569e+01	8.232540e+02
9.700000e-07	2.262908e-06	1.360964e-08	1.636404e+01	8.895931e+02
9.800000e-07	2.407025e-06	1.449782e-08	1.740621e+01	9.506363e+02
9.900000e-07	2.550254e-06	1.530935e-08	1.844196e+01	1.006281e+03
1.000000e-06	2.692466e-06	1.604881e-08	1.947036e+01	1.056650e+03
1.010000e-06	2.833556e-06	1.672488e-08	2.049064e+01	1.102072e+03
1.020000e-06	2.973469e-06	1.734724e-08	2.150241e+01	1.143030e+03
1.030000e-06	3.112076e-06	1.792670e-08	2.250474e+01	1.180115e+03
1.040000e-06	3.249405e-06	1.846550e-08	2.349782e+01	1.213960e+03
1.050000e-06	3.385508e-06	1.896461e-08	2.448204e+01	1.245183e+03
1.060000e-06	3.520370e-06	1.942821e-08	2.545728e+01	1.274332e+03
1.070000e-06	3.654014e-06	1.985908e-08	2.642372e+01	1.301850e+03
1.080000e-06	3.786406e-06	2.026189e-08	2.738110e+01	1.328054e+03
1.090000e-06	3.917368e-06	2.063843e-08	2.832814e+01	1.353131e+03
1.100000e-06	4.046877e-06	2.099349e-08	2.926467e+01	1.377151e+03
1.110000e-06	4.174956e-06	2.132892e-08	3.019087e+01	1.400095e+03
1.120000e-06	4.301554e-06	2.164736e-08	3.110636e+01	1.421889e+03
1.130000e-06	4.426745e-06	2.194654e-08	3.201166e+01	1.442443e+03
1.140000e-06	4.550444e-06	2.222765e-08	3.290618e+01	1.461681e+03
1.150000e-06	4.672483e-06	2.249424e-08	3.378870e+01	1.479573e+03
1.160000e-06	4.792836e-06	2.274681e-08	3.465902e+01	1.496146e+03
1.170000e-06	4.911520e-06	2.298514e-08	3.551727e+01	1.511491e+03
1.180000e-06	5.028471e-06	2.320904e-08	3.636300e+01	1.525753e+03
1.190000e-06	5.143436e-06	2.342252e-08	3.719436e+01	1.539110e+03
1.200000e-06	5.256308e-06	2.362496e-08	3.801058e+01	1.551755e+03
1.210000e-06	5.367267e-06	2.381599e-08	3.881297e+01	1.563870e+03
1.220000e-06	5.476426e-06	2.399825e-08	3.960235e+01	1.575599e+03
1.230000e-06	5.583681e-06	2.417434e-08	4.037796e+01	1.587036e+03
1.240000e-06	5.688821e-06	2.434354e-08	4.113827e+01	1.598218e+03
1.250000e-06	5.791828e-06	2.450387e-08	4.188315e+01	1.609125e+03
1.260000e-06	5.892812e-06	2.465758e-08	4.261341e+01	1.619689e+03
1.270000e-06	5.991618e-06	2.480374e-08	4.332792e+01	1.629818e+03
1.280000e-06	6.088122e-06	2.494053e-08	4.402578e+01	1.639409e+03
1.290000e-06	6.182343e-06	2.506932e-08	4.470714e+01	1.648375e+03
1.300000e-06	6.274405e-06	2.519202e-08	4.537287e+01	1.656658e+03
1.310000e-06	6.364226e-06	2.530838e-08	4.602241e+01	1.664246e+03
1.320000e-06	6.451664e-06	2.541857e-08	4.665470e+01	1.671171e+03
1.330000e-06	6.536893e-06	2.552341e-08	4.727104e+01	1.677513e+03
1.340000e-06	6.619850e-06	2.562350e-08	4.787093e+01	1.683379e+03
1.350000e-06	6.700375e-06	2.571752e-08	4.845324e+01	1.688897e+03
1.360000e-06	6.778408e-06	2.580448e-08	4.901753e+01	1.694189e+03
1.370000e-06	6.853869e-06	2.588747e-08	4.956322e+01	1.699360e+03
1.380000e-06	6.926735e-06	2.596617e-08	5.009014e+01	1.704479e+03
1.390000e-06	6.997092e-06	2.604153e-08	5.059893e+01	1.709576e+03
1.400000e-06	7.065066e-06	2.611406e-08	5.109048e+01	1.714635e+03
1.410000e-06	7.130538e-06	2.618353e-08	5.156393e+01	1.719605e+03
1.420000e-06	7.193432e-06	2.625021e-08	5.201875e+01	1.724408e+03
1.430000e-06	7.253943e-06	2.631258e-08	5.245633e+01	1.728955e+03
1.440000e-06	7.311880e-06	2.637055e-08	5.287530e+01	1.733161e+03
1.450000e-06	7.367216e-06	2.642534e-08	5.327545e+01	1.736963e+03
1.460000e-06	7.419840e-06	2.647794e-08	5.365600e+01	1.740326e+03
1.470000e-06	7.469321e-06	2.652788e-08	5.401382e+01	1.743254e+03
1.480000e-06	7.515852e-06	2.657437e-08	5.435030e+01	1.745784e+03
1.490000e-06	7.559857e-06	2.661539e-08	5.466852e+01	1.747981e+03
1.500000e-06	7.601176e-06	2.665127e-08	5.496732e+01	1.749927e+03
1.510000e-06	7.639710e-06	2.668331e-08	5.524597e+01	1.751708e+03
1.520000e-06	7.675719e-06	2.671263e-08	5.550637e+01	1.753400e+03
1.530000e-06	7.709015e-06	2.673971e-08	5.574715e+01	1.755055e+03
1.540000e-06	7.739445e-06	2.676558e-08	5.596720e+01	1.756695e+03
1.550000e-06	7.767213e-06	2.678831e-08	5.616800e+01	1.758312e+03
1.560000e-06	7.792162e-06	2.680685e-08	5.634842e+01	1.759866e+03
1.570000e-06	7.814227e-06	2.682168e-08	5.650798e+01	1.761299e+03
1.580000e-06	7.833601e-06	2.683386e-08	5.664808e+01	1.762543e+03
1.590000e-06	7.850088e-06	2.684668e-08	5.676730e+01	1.763531e+03
1.600000e-06	7.863590e-06	2.685542e-08	5.686494e+01	1.764214e+03
1.610000e-06	7.874009e-06	2.685939e-08	5.694028e+01	1.764565e+03
1.620000e-06	7.881389e-06	2.686186e-08	5.699365e+01	1.764588e+03
1.630000e-06	7.886098e-06	2.686571e-08	5.702771e+01	1.764314e+03
1.640000e-06	7.888006e-06	2.687004e-08	5.704150e+01	1.763797e+03
1.650000e-06	7.887046e-06	2.687204e-08	5.703456e+01	1.763106e+03
1.660000e-06	7.883546e-06	2.685806e-08	5.700925e+01	1.762310e+03
1.670000e-06	7.877402e-06	2.684868e-08	5.696482e+01	1.761470e+03
1.680000e-06	7.868540e-06	2.683831e-08	5.690074e+01	1.760628e+03
1.690000e-06	7.857028e-06	2.682161e-08	5.681749e+01	1.759797e+03
1.700000e-06	7.842708e-06	2.680661e-08	5.671394e+01	1.758965e+03
1.710000e-06	7.825809e-06	2.679967e-08	5.659173e+01	1.758094e+03
1.720000e-06	7.806704e-06	2.680029e-08	5.645357e+01	1.757129e+03
1.730000e-06	7.785226e-06	2.674315e-08	5.629826e+01	1.756005e+03
1.740000e-06	7.760731e-06	2.662674e-08	5.612112e+01	1.754664e+03
1.750000e-06	7.732629e-06	2.665263e-08	5.591791e+01	1.753061e+03
1.760000e-06	7.701048e-06	2.666493e-08	5.568953e+01	1.751175e+03
1.770000e-06	7.666770e-06	2.660209e-08	5.544165e+01	1.749010e+03
1.780000e-06	7.630305e-06	2.659505e-08	5.517796e+01	1.746595e+03
1.790000e-06	7.591629e-06	2.668191e-08	5.489828e+01	1.743980e+03
1.800000e-06	7.550972e-06	2.652596e-08	5.460427e+01	1.741223e+03
1.810000e-06	7.508118e-06	2.645947e-08	5.429437e+01	1.738380e+03
1.820000e-06	7.462554e-06	2.657475e-08	5.396488e+01	1.735495e+03
1.830000e-06	7.414430e-06	2.638622e-08	5.361687e+01	1.732589e+03
1.840000e-06	7.363422e-06	2.646521e-08	5.324802e+01	1.729654e+03
1.850000e-06	7.309381e-06	2.637726e-08	5.285722e+01	1.726652e+03
1.860000e-06	7.252618e-06	2.628537e-08	5.244675e+01	1.723520e+03
1.870000e-06	7.193244e-06	2.631408e-08	5.201739e+01	1.720180e+03
1.880000e-06	7.131295e-06	2.611507e-08	5.156941e+01	1.716546e+03
1.890000e-06	7.066526e-06	2.616297e-08	5.110104e+01	1.712544e+03
1.900000e-06	6.999007e-06	2.604933e-08	5.061278e+01	1.708121e+03
1.910000e-06	6.928817e-06	2.597309e-08	5.010521e+01	1.703250e+03
1.920000e-06	6.855866e-06	2.594301e-08	4.957767e+01	1.697942e+03
1.930000e-06	6.780280e-06	2.580883e-08	4.903107e+01	1.692237e+03
1.940000e-06	6.702035e-06	2.580064e-08	4.846524e+01	1.686202e+03
1.950000e-06	6.621230e-06	2.563816e-08	4.788091e+01	1.679918e+03
1.960000e-06	6.537940e-06	2.557222e-08	4.727860e+01	1.673466e+03
1.970000e-06	6.452245e-06	2.546019e-08	4.665891e+01	1.666910e+03
1.980000e-06	6.364203e-06	2.536176e-08	4.602224e+01	1.660289e+03
1.990000e-06	6.273848e-06	2.529351e-08	4.536884e+01	1.653604e+03
2.000000e-06	6.181325e-06	2.514420e-08	4.469977e+01	1.646820e+03
2.010000e-06	6.086610e-06	2.506626e-08	4.401485e+01	1.639866e+03
2.020000e-06	5.989725e-06	2.491802e-08	4.331423e+01	1.632646e+03
2.030000e-06	5.890664e-06	2.480592e-08	4.259788e+01	1.625053e+03
2.040000e-06	5.789520e-06	2.466562e-08	4.186646e+01	1.616985e+03
2.050000e-06	5.686372e-06	2.455319e-08	4.112056e+01	1.608358e+03
2.060000e-06	5.581187e-06	2.441190e-08	4.035992e+01	1.599121e+03
2.070000e-06	5.474115e-06	2.424510e-08	3.958564e+01	1.589265e+03
2.080000e-06	5.365206e-06	2.409840e-08	3.879807e+01	1.578816e+03
2.090000e-06	5.254390e-06	2.393653e-08	3.799671e+01	1.567835e+03
2.100000e-06	5.141560e-06	2.378645e-08	3.718079e+01	1.556403e+03
2.110000e-06	5.026808e-06	2.360999e-08	3.635097e+01	1.544604e+03
2.120000e-06	4.910201e-06	2.344456e-08	3.550773e+01	1.532508e+03
2.130000e-06	4.791649e-06	2.324304e-08	3.465044e+01	1.520154e+03
2.140000e-06	4.671196e-06	2.304022e-08	3.377939e+01	1.507535e+03
2.150000e-06	4.548984e-06	2.283155e-08	3.289562e+01	1.494600e+03
2.160000e-06	4.425094e-06	2.263008e-08	3.199972e+01	1.481249e+03
2.170000e-06	4.299569e-06	2.241417e-08	3.109200e+01	1.467347e+03
2.180000e-06	4.172524e-06	2.218535e-08	3.017329e+01	1.452739e+03
2.190000e-06	4.043948e-06	2.194583e-08	2.924350e+01	1.437272e+03
2.200000e-06	3.913833e-06	2.169081e-08	2.830258e+01	1.420812e+03
2.210000e-06	3.782262e-06	2.142491e-08	2.735113e+01	1.403263e+03
2.220000e-06	3.649324e-06	2.114569e-08	2.638980e+01	1.384578e+03
2.230000e-06	3.515073e-06	2.086075e-08	2.541898e+01	1.364764e+03
2.240000e-06	3.379526e-06	2.055220e-08	2.443878e+01	1.343867e+03
2.250000e-06	3.242642e-06	2.022947e-08	2.344891e+01	1.321962e+03
2.260000e-06	3.104473e-06	1.988792e-08	2.244975e+01	1.299129e+03
2.270000e-06	2.965174e-06	1.953680e-08	2.144243e+01	1.275420e+03
2.280000e-06	2.824749e-06	1.916651e-08	2.042695e+01	1.250838e+03
2.290000e-06	2.683184e-06	1.877762e-08	1.940323e+01	1.225310e+03
2.300000e-06	2.540611e-06	1.836383e-08	1.837223e+01	1.198675e+03
2.310000e-06	2.397147e-06	1.792297e-08	1.733478e+01	1.170683e+03
2.320000e-06	2.252897e-06	1.744883e-08	1.629165e+01	1.141000e+03
2.330000e-06	2.107874e-06	1.694120e-08	1.524293e+01	1.109237e+03
2.340000e-06	1.962034e-06	1.640601e-08	1.418830e+01	1.074977e+03
2.350000e-06	1.815509e-06	1.583750e-08	1.312871e+01	1.037813e+03
2.360000e-06	1.668458e-06	1.523217e-08	1.206532e+01	9.973912e+02
2.370000e-06	1.520937e-06	1.458167e-08	1.099854e+01	9.534408e+02
2.380000e-06	1.372931e-06	1.387946e-08	9.928245e+00	9.058014e+02
2.390000e-06	1.224381e-06	1.312191e-08	8.854019e+00	8.544349e+02
2.400000e-06	1.075353e-06	1.230462e-08	7.776334e+00	7.994243e+02
2.410000e-06	9.259299e-07	1.142733e-08	6.695790e+00	7.409571e+02
2.420000e-06	7.762429e-07	1.049468e-08	5.613340e+00	6.792973e+02
2.430000e-06	6.263882e-07	9.503279e-09	4.529678e+00	6.147497e+02
2.440000e-06	4.763314e-07	8.453329e-09	3.444554e+00	5.476217e+02
2.450000e-06	3.260918e-07	7.354777e-09	2.358108e+00	4.781883e+02
2.460000e-06	1.756995e-07	6.220977e-09	1.270557e+00	4.066667e+02
2.470000e-06	2.518522e-08	5.064815e-09	1.821250e-01	3.332034e+02
2.480000e-06	-1.253042e-07	3.898580e-09	-9.061274e-01	2.578778e+02
2.490000e-06	-2.757007e-07	2.731440e-09	-1.993708e+00	1.807202e+02
2.500000e-06	-4.260473e-07	1.558663e-09	-3.080928e+00	1.017445e+02
2.510000e-06	-5.763109e-07	3.703000e-10	-4.167547e+00	2.098914e+01
2.520000e-06	-7.264166e-07	-8.416351e-10	-5.253025e+00	-6.143904e+01
2.530000e-06	-8.762665e-07	-2.084946e-09	-6.336653e+00	-1.453241e+02
2.540000e-06	-1.025825e-06	-3.365616e-09	-7.418175e+00	-2.303111e+02
2.550000e-06	-1.175069e-06	-4.681224e-09	-8.497423e+00	-3.158908e+02
2.560000e-06	-1.323888e-06	-6.020465e-09	-9.573594e+00	-4.014047e+02
2.570000e-06	-1.472192e-06	-7.365030e-09	-1.064604e+01	-4.860681e+02
2.580000e-06	-1.619971e-06	-8.687745e-09	-1.171470e+01	-5.690132e+02
2.590000e-06	-1.767151e-06	-9.956008e-09	-1.277901e+01	-6.493448e+02
2.600000e-06	-1.913702e-06	-1.114680e-08	-1.383879e+01	-7.262045e+02
2.610000e-06	-2.059581e-06	-1.224882e-08	-1.489370e+01	-7.988349e+02
2.620000e-06	-2.204704e-06	-1.325822e-08	-1.594315e+01	-8.666377e+02
2.630000e-06	-2.348957e-06	-1.418026e-08	-1.698630e+01	-9.292167e+02
2.640000e-06	-2.492212e-06	-1.502300e-08	-1.802224e+01	-9.864026e+02
2.650000e-06	-2.634477e-06	-1.579527e-08	-1.905102e+01	-1.038256e+03
2.660000e-06	-2.775701e-06	-1.650234e-08	-2.007226e+01	-1.085050e+03
2.670000e-06	-2.915695e-06	-1.715148e-08	-2.108462e+01	-1.127228e+03
2.680000e-06	-3.054460e-06	-1.774916e-08	-2.208809e+01	-1.165358e+03
2.690000e-06	-3.192165e-06	-1.830083e-08	-2.308389e+01	-1.200066e+03
2.700000e-06	-3.328711e-06	-1.881073e-08	-2.407132e+01	-1.231981e+03
2.710000e-06	-3.463905e-06	-1.928582e-08	-2.504896e+01	-1.261674e+03
2.720000e-06	-3.597847e-06	-1.973140e-08	-2.601755e+01	-1.289621e+03
2.730000e-06	-3.730512e-06	-2.014764e-08	-2.697691e+01	-1.316178e+03
2.740000e-06	-3.861808e-06	-2.053748e-08	-2.792636e+01	-1.341567e+03
2.750000e-06	-3.991800e-06	-2.090168e-08	-2.886639e+01	-1.365890e+03
2.760000e-06	-4.120438e-06	-2.124068e-08	-2.979663e+01	-1.389149e+03
2.770000e-06	-4.247587e-06	-2.155996e-08	-3.071610e+01	-1.411283e+03
2.780000e-06	-4.373276e-06	-2.186505e-08	-3.162501e+01	-1.432202e+03
2.790000e-06	-4.497491e-06	-2.215418e-08	-3.252326e+01	-1.451823e+03
2.800000e-06	-4.620094e-06	-2.242533e-08	-3.340985e+01	-1.470102e+03
2.810000e-06	-4.741060e-06	-2.268077e-08	-3.428461e+01	-1.487047e+03
2.820000e-06	-4.860252e-06	-2.292431e-08	-3.514653e+01	-1.502733e+03
2.830000e-06	-4.977518e-06	-2.315698e-08	-3.599454e+01	-1.517289e+03
2.840000e-06	-5.092870e-06	-2.337976e-08	-3.682870e+01	-1.530886e+03
2.850000e-06	-5.206126e-06	-2.359341e-08	-3.764770e+01	-1.543718e+03
2.860000e-06	-5.317243e-06	-2.379585e-08	-3.845123e+01	-1.555970e+03
2.870000e-06	-5.426474e-06	-2.398489e-08	-3.924113e+01	-1.567798e+03
2.880000e-06	-5.533862e-06	-2.416087e-08	-4.001769e+01	-1.579315e+03
2.890000e-06	-5.639363e-06	-2.432789e-08	-4.078062e+01	-1.590571e+03
2.900000e-06	-5.742739e-06	-2.448866e-08	-4.152817e+01	-1.601564e+03
2.910000e-06	-5.843871e-06	-2.464382e-08	-4.225950e+01	-1.612237e+03
2.920000e-06	-5.942922e-06	-2.479284e-08	-4.297578e+01	-1.622503e+03
2.930000e-06	-6.039967e-06	-2.493532e-08	-4.367755e+01	-1.632259e+03
2.940000e-06	-6.134799e-06	-2.507037e-08	-4.436333e+01	-1.641413e+03
