# Temperatura_=_70.46
# Concentracion g/m^3_=_28370.0
# C_Vs_to_Am_M_A/Vsm_=_65563218390.804596
# pendiente_HvsI_1/m_=_3716.3
# ordenada_HvsI_A/m_=_1297.0
# frecuencia_Hz_=_302507.080574595

Tiempo_(s)	Campo_(V.s)	Magnetizacion_(V.s)	Campo_(kA/m)	Magnetizacion_(A/m)
0.000000e+00	-7.845339e-06	-2.606200e-08	-5.683387e+01	-1.706155e+03
1.000000e-08	-7.840715e-06	-2.605772e-08	-5.680038e+01	-1.705321e+03
2.000000e-08	-7.833592e-06	-2.604727e-08	-5.674878e+01	-1.704471e+03
3.000000e-08	-7.823749e-06	-2.603542e-08	-5.667748e+01	-1.703637e+03
4.000000e-08	-7.811089e-06	-2.602037e-08	-5.658576e+01	-1.702826e+03
5.000000e-08	-7.795624e-06	-2.599912e-08	-5.647373e+01	-1.702017e+03
6.000000e-08	-7.777504e-06	-2.597313e-08	-5.634246e+01	-1.701164e+03
7.000000e-08	-7.757172e-06	-2.593704e-08	-5.619517e+01	-1.700208e+03
8.000000e-08	-7.734431e-06	-2.594612e-08	-5.603043e+01	-1.699088e+03
9.000000e-08	-7.708666e-06	-2.600077e-08	-5.584378e+01	-1.697749e+03
1.000000e-07	-7.679709e-06	-2.593271e-08	-5.563401e+01	-1.696153e+03
1.100000e-07	-7.647891e-06	-2.585262e-08	-5.540351e+01	-1.694288e+03
1.200000e-07	-7.613340e-06	-2.583166e-08	-5.515321e+01	-1.692169e+03
1.300000e-07	-7.576229e-06	-2.579677e-08	-5.488436e+01	-1.689830e+03
1.400000e-07	-7.536944e-06	-2.570737e-08	-5.459977e+01	-1.687325e+03
1.500000e-07	-7.495438e-06	-2.565139e-08	-5.429910e+01	-1.684712e+03
1.600000e-07	-7.451458e-06	-2.574567e-08	-5.398049e+01	-1.682042e+03
1.700000e-07	-7.404959e-06	-2.561555e-08	-5.364364e+01	-1.679350e+03
1.800000e-07	-7.355759e-06	-2.553610e-08	-5.328722e+01	-1.676645e+03
1.900000e-07	-7.303572e-06	-2.558149e-08	-5.290917e+01	-1.673905e+03
2.000000e-07	-7.248600e-06	-2.546464e-08	-5.251093e+01	-1.671080e+03
2.100000e-07	-7.190973e-06	-2.544486e-08	-5.209347e+01	-1.668101e+03
2.200000e-07	-7.130645e-06	-2.536380e-08	-5.165643e+01	-1.664882e+03
2.300000e-07	-7.067763e-06	-2.529582e-08	-5.120089e+01	-1.661342e+03
2.400000e-07	-7.002235e-06	-2.526788e-08	-5.072619e+01	-1.657412e+03
2.500000e-07	-6.934036e-06	-2.516606e-08	-5.023214e+01	-1.653047e+03
2.600000e-07	-6.863190e-06	-2.510522e-08	-4.971891e+01	-1.648236e+03
2.700000e-07	-6.789531e-06	-2.502280e-08	-4.918530e+01	-1.643003e+03
2.800000e-07	-6.713179e-06	-2.494523e-08	-4.863219e+01	-1.637401e+03
2.900000e-07	-6.634099e-06	-2.483866e-08	-4.805931e+01	-1.631506e+03
3.000000e-07	-6.552336e-06	-2.475885e-08	-4.746699e+01	-1.625402e+03
3.100000e-07	-6.468358e-06	-2.470105e-08	-4.685864e+01	-1.619167e+03
3.200000e-07	-6.382283e-06	-2.459170e-08	-4.623508e+01	-1.612858e+03
3.300000e-07	-6.293937e-06	-2.451744e-08	-4.559508e+01	-1.606503e+03
3.400000e-07	-6.203176e-06	-2.438700e-08	-4.493758e+01	-1.600088e+03
3.500000e-07	-6.110200e-06	-2.428026e-08	-4.426404e+01	-1.593564e+03
3.600000e-07	-6.015094e-06	-2.418718e-08	-4.357506e+01	-1.586848e+03
3.700000e-07	-5.917685e-06	-2.406409e-08	-4.286940e+01	-1.579837e+03
3.800000e-07	-5.818082e-06	-2.394413e-08	-4.214785e+01	-1.572422e+03
3.900000e-07	-5.716523e-06	-2.382133e-08	-4.141212e+01	-1.564505e+03
4.000000e-07	-5.613004e-06	-2.369879e-08	-4.066221e+01	-1.556012e+03
4.100000e-07	-5.507450e-06	-2.354319e-08	-3.989755e+01	-1.546907e+03
4.200000e-07	-5.399934e-06	-2.341363e-08	-3.911866e+01	-1.537194e+03
4.300000e-07	-5.290504e-06	-2.326794e-08	-3.832592e+01	-1.526915e+03
4.400000e-07	-5.179080e-06	-2.310796e-08	-3.751873e+01	-1.516141e+03
4.500000e-07	-5.065748e-06	-2.293899e-08	-3.669772e+01	-1.504961e+03
4.600000e-07	-4.950459e-06	-2.277124e-08	-3.586254e+01	-1.493456e+03
4.700000e-07	-4.833228e-06	-2.259516e-08	-3.501329e+01	-1.481691e+03
4.800000e-07	-4.714268e-06	-2.240755e-08	-3.415150e+01	-1.469690e+03
4.900000e-07	-4.593642e-06	-2.222488e-08	-3.327765e+01	-1.457433e+03
5.000000e-07	-4.471271e-06	-2.202665e-08	-3.239117e+01	-1.444849e+03
5.100000e-07	-4.347143e-06	-2.181668e-08	-3.149195e+01	-1.431826e+03
5.200000e-07	-4.221511e-06	-2.159115e-08	-3.058183e+01	-1.418218e+03
5.300000e-07	-4.094456e-06	-2.136445e-08	-2.966141e+01	-1.403866e+03
5.400000e-07	-3.965933e-06	-2.112065e-08	-2.873035e+01	-1.388620e+03
5.500000e-07	-3.835858e-06	-2.086419e-08	-2.778805e+01	-1.372356e+03
5.600000e-07	-3.704140e-06	-2.059828e-08	-2.683385e+01	-1.354995e+03
5.700000e-07	-3.571065e-06	-2.032251e-08	-2.586982e+01	-1.336508e+03
5.800000e-07	-3.436768e-06	-2.003340e-08	-2.489693e+01	-1.316917e+03
5.900000e-07	-3.301156e-06	-1.973088e-08	-2.391452e+01	-1.296282e+03
6.000000e-07	-3.164289e-06	-1.942108e-08	-2.292301e+01	-1.274685e+03
6.100000e-07	-3.026142e-06	-1.909174e-08	-2.192224e+01	-1.252200e+03
6.200000e-07	-2.886696e-06	-1.874216e-08	-2.091205e+01	-1.228867e+03
6.300000e-07	-2.745951e-06	-1.836605e-08	-1.989246e+01	-1.204666e+03
6.400000e-07	-2.604093e-06	-1.796762e-08	-1.886480e+01	-1.179496e+03
6.500000e-07	-2.461288e-06	-1.754576e-08	-1.783027e+01	-1.153165e+03
6.600000e-07	-2.317620e-06	-1.710204e-08	-1.678950e+01	-1.125392e+03
6.700000e-07	-2.173091e-06	-1.663331e-08	-1.574249e+01	-1.095823e+03
6.800000e-07	-2.027710e-06	-1.613509e-08	-1.468931e+01	-1.064055e+03
6.900000e-07	-1.881584e-06	-1.560680e-08	-1.363073e+01	-1.029672e+03
7.000000e-07	-1.734875e-06	-1.503768e-08	-1.256793e+01	-9.922889e+02
7.100000e-07	-1.587690e-06	-1.442902e-08	-1.150168e+01	-9.515813e+02
7.200000e-07	-1.440028e-06	-1.377103e-08	-1.043197e+01	-9.073244e+02
7.300000e-07	-1.291937e-06	-1.305939e-08	-9.359158e+00	-8.594113e+02
7.400000e-07	-1.143460e-06	-1.229043e-08	-8.283551e+00	-8.078617e+02
7.500000e-07	-9.946324e-07	-1.146686e-08	-7.205401e+00	-7.528136e+02
7.600000e-07	-8.454904e-07	-1.059303e-08	-6.124974e+00	-6.945022e+02
7.700000e-07	-6.961054e-07	-9.662169e-09	-5.042787e+00	-6.332274e+02
7.800000e-07	-5.464274e-07	-8.676390e-09	-3.958476e+00	-5.693154e+02
7.900000e-07	-3.965118e-07	-7.639369e-09	-2.872445e+00	-5.030792e+02
8.000000e-07	-2.465296e-07	-6.560679e-09	-1.785931e+00	-4.347854e+02
8.100000e-07	-9.643753e-08	-5.450204e-09	-6.986211e-01	-3.646313e+02
8.200000e-07	5.378512e-08	-4.326016e-09	3.896348e-01	-2.927367e+02
8.300000e-07	2.039865e-07	-3.198389e-09	1.477736e+00	-2.191517e+02
8.400000e-07	3.540792e-07	-2.068510e-09	2.565051e+00	-1.438807e+02
8.500000e-07	5.040879e-07	-9.335114e-10	3.651757e+00	-6.691821e+01
8.600000e-07	6.539919e-07	2.151333e-10	4.737704e+00	1.170721e+01
8.700000e-07	8.036845e-07	1.385885e-09	5.822120e+00	9.188836e+01
8.800000e-07	9.531141e-07	2.589781e-09	6.904631e+00	1.734001e+02
8.900000e-07	1.102243e-06	3.833921e-09	7.984962e+00	2.558723e+02
9.000000e-07	1.251030e-06	5.114163e-09	9.062818e+00	3.387794e+02
9.100000e-07	1.399438e-06	6.415354e-09	1.013793e+01	4.214497e+02
9.200000e-07	1.547392e-06	7.714566e-09	1.120975e+01	5.030944e+02
9.300000e-07	1.694798e-06	8.978486e-09	1.227760e+01	5.828542e+02
9.400000e-07	1.841568e-06	1.017817e-08	1.334085e+01	6.598573e+02
9.500000e-07	1.987645e-06	1.129357e-08	1.439907e+01	7.332849e+02
9.600000e-07	2.133016e-06	1.231950e-08	1.545218e+01	8.024332e+02
9.700000e-07	2.277605e-06	1.325926e-08	1.649962e+01	8.667677e+02
9.800000e-07	2.421313e-06	1.411473e-08	1.754068e+01	9.259614e+02
9.900000e-07	2.564090e-06	1.489771e-08	1.857500e+01	9.799132e+02
1.000000e-06	2.705789e-06	1.561570e-08	1.960151e+01	1.028745e+03
1.010000e-06	2.846348e-06	1.627598e-08	2.061976e+01	1.072775e+03
1.020000e-06	2.985729e-06	1.688670e-08	2.162948e+01	1.112480e+03
1.030000e-06	3.123892e-06	1.745071e-08	2.263037e+01	1.148435e+03
1.040000e-06	3.260846e-06	1.797203e-08	2.362250e+01	1.181260e+03
1.050000e-06	3.396579e-06	1.845240e-08	2.460579e+01	1.211554e+03
1.060000e-06	3.531035e-06	1.890046e-08	2.557983e+01	1.239850e+03
1.070000e-06	3.664191e-06	1.931784e-08	2.654445e+01	1.266576e+03
1.080000e-06	3.796136e-06	1.970821e-08	2.750029e+01	1.292036e+03
1.090000e-06	3.926701e-06	2.007504e-08	2.844614e+01	1.316405e+03
1.100000e-06	4.055771e-06	2.042065e-08	2.938117e+01	1.339748e+03
1.110000e-06	4.183465e-06	2.074785e-08	3.030622e+01	1.362040e+03
1.120000e-06	4.309697e-06	2.105905e-08	3.122068e+01	1.383207e+03
1.130000e-06	4.434477e-06	2.135101e-08	3.212462e+01	1.403157e+03
1.140000e-06	4.557760e-06	2.162422e-08	3.301772e+01	1.421819e+03
1.150000e-06	4.679334e-06	2.188064e-08	3.389843e+01	1.439162e+03
1.160000e-06	4.799263e-06	2.212211e-08	3.476723e+01	1.455216e+03
1.170000e-06	4.917527e-06	2.235029e-08	3.562397e+01	1.470072e+03
1.180000e-06	5.033961e-06	2.256597e-08	3.646745e+01	1.483872e+03
1.190000e-06	5.148451e-06	2.277262e-08	3.729685e+01	1.496792e+03
1.200000e-06	5.260973e-06	2.296952e-08	3.811199e+01	1.509020e+03
1.210000e-06	5.371616e-06	2.315820e-08	3.891352e+01	1.520729e+03
1.220000e-06	5.480432e-06	2.333737e-08	3.970181e+01	1.532059e+03
1.230000e-06	5.587270e-06	2.350879e-08	4.047578e+01	1.543098e+03
1.240000e-06	5.691964e-06	2.367164e-08	4.123421e+01	1.553876e+03
1.250000e-06	5.794558e-06	2.382637e-08	4.197744e+01	1.564371e+03
1.260000e-06	5.895101e-06	2.397150e-08	4.270580e+01	1.574516e+03
1.270000e-06	5.993434e-06	2.410770e-08	4.341815e+01	1.584220e+03
1.280000e-06	6.089433e-06	2.423756e-08	4.411359e+01	1.593383e+03
1.290000e-06	6.183197e-06	2.436211e-08	4.479285e+01	1.601926e+03
1.300000e-06	6.274784e-06	2.448281e-08	4.545633e+01	1.609797e+03
1.310000e-06	6.364122e-06	2.459676e-08	4.610352e+01	1.616991e+03
1.320000e-06	6.451165e-06	2.470231e-08	4.673408e+01	1.623549e+03
1.330000e-06	6.535993e-06	2.480036e-08	4.734860e+01	1.629551e+03
1.340000e-06	6.618524e-06	2.489186e-08	4.794648e+01	1.635111e+03
1.350000e-06	6.698599e-06	2.497965e-08	4.852657e+01	1.640354e+03
1.360000e-06	6.776220e-06	2.506387e-08	4.908887e+01	1.645403e+03
1.370000e-06	6.851234e-06	2.514429e-08	4.963229e+01	1.650357e+03
1.380000e-06	6.923614e-06	2.522083e-08	5.015664e+01	1.655281e+03
1.390000e-06	6.993580e-06	2.529421e-08	5.066350e+01	1.660199e+03
1.400000e-06	7.061119e-06	2.536450e-08	5.115276e+01	1.665089e+03
1.410000e-06	7.126120e-06	2.543188e-08	5.162365e+01	1.669895e+03
1.420000e-06	7.188642e-06	2.549596e-08	5.207658e+01	1.674536e+03
1.430000e-06	7.248673e-06	2.555537e-08	5.251146e+01	1.678920e+03
1.440000e-06	7.306140e-06	2.561100e-08	5.292777e+01	1.682965e+03
1.450000e-06	7.361006e-06	2.566386e-08	5.332523e+01	1.686606e+03
1.460000e-06	7.413020e-06	2.571327e-08	5.370204e+01	1.689814e+03
1.470000e-06	7.462046e-06	2.575840e-08	5.405720e+01	1.692592e+03
1.480000e-06	7.508262e-06	2.580042e-08	5.439200e+01	1.694983e+03
1.490000e-06	7.551817e-06	2.583904e-08	5.470752e+01	1.697052e+03
1.500000e-06	7.592620e-06	2.587490e-08	5.500311e+01	1.698884e+03
1.510000e-06	7.630718e-06	2.590690e-08	5.527910e+01	1.700564e+03
1.520000e-06	7.666256e-06	2.593675e-08	5.553655e+01	1.702166e+03
1.530000e-06	7.699059e-06	2.596386e-08	5.577418e+01	1.703740e+03
1.540000e-06	7.729141e-06	2.598580e-08	5.599211e+01	1.705305e+03
1.550000e-06	7.756559e-06	2.600304e-08	5.619073e+01	1.706851e+03
1.560000e-06	7.781079e-06	2.601850e-08	5.636836e+01	1.708334e+03
1.570000e-06	7.802783e-06	2.603362e-08	5.652559e+01	1.709695e+03
1.580000e-06	7.821795e-06	2.604641e-08	5.666332e+01	1.710864e+03
1.590000e-06	7.837914e-06	2.605907e-08	5.678009e+01	1.711776e+03
1.600000e-06	7.851041e-06	2.606777e-08	5.687518e+01	1.712383e+03
1.610000e-06	7.861094e-06	2.607215e-08	5.694801e+01	1.712660e+03
1.620000e-06	7.868169e-06	2.607449e-08	5.699926e+01	1.712613e+03
1.630000e-06	7.872499e-06	2.607676e-08	5.703064e+01	1.712277e+03
1.640000e-06	7.873999e-06	2.607970e-08	5.704150e+01	1.711709e+03
1.650000e-06	7.872710e-06	2.607454e-08	5.703216e+01	1.710978e+03
1.660000e-06	7.868880e-06	2.606014e-08	5.700441e+01	1.710156e+03
1.670000e-06	7.862434e-06	2.605371e-08	5.695772e+01	1.709304e+03
1.680000e-06	7.853333e-06	2.604496e-08	5.689179e+01	1.708461e+03
1.690000e-06	7.841532e-06	2.603131e-08	5.680630e+01	1.707643e+03
1.700000e-06	7.826911e-06	2.602086e-08	5.670038e+01	1.706835e+03
1.710000e-06	7.809765e-06	2.601762e-08	5.657617e+01	1.705998e+03
1.720000e-06	7.790414e-06	2.601677e-08	5.643599e+01	1.705076e+03
1.730000e-06	7.768602e-06	2.591291e-08	5.627797e+01	1.704007e+03
1.740000e-06	7.743670e-06	2.583301e-08	5.609736e+01	1.702733e+03
1.750000e-06	7.715100e-06	2.588123e-08	5.589039e+01	1.701211e+03
1.760000e-06	7.683107e-06	2.586894e-08	5.565862e+01	1.699421e+03
1.770000e-06	7.648604e-06	2.581754e-08	5.540867e+01	1.697369e+03
1.780000e-06	7.611891e-06	2.585734e-08	5.514271e+01	1.695086e+03
1.790000e-06	7.572962e-06	2.589332e-08	5.486070e+01	1.692621e+03
1.800000e-06	7.532163e-06	2.570171e-08	5.456514e+01	1.690031e+03
1.810000e-06	7.489094e-06	2.575736e-08	5.425313e+01	1.687371e+03
1.820000e-06	7.443284e-06	2.576793e-08	5.392128e+01	1.684681e+03
1.830000e-06	7.394872e-06	2.563227e-08	5.357057e+01	1.681978e+03
1.840000e-06	7.343535e-06	2.572385e-08	5.319867e+01	1.679249e+03
1.850000e-06	7.289166e-06	2.554438e-08	5.280480e+01	1.676454e+03
1.860000e-06	7.232102e-06	2.555701e-08	5.239141e+01	1.673525e+03
1.870000e-06	7.172553e-06	2.553098e-08	5.196002e+01	1.670381e+03
1.880000e-06	7.110433e-06	2.537365e-08	5.151001e+01	1.666939e+03
1.890000e-06	7.045412e-06	2.542683e-08	5.103898e+01	1.663123e+03
1.900000e-06	6.977642e-06	2.528695e-08	5.054804e+01	1.658883e+03
1.910000e-06	6.907119e-06	2.525072e-08	5.003714e+01	1.654197e+03
1.920000e-06	6.833869e-06	2.516371e-08	4.950650e+01	1.649078e+03
1.930000e-06	6.758079e-06	2.509687e-08	4.895746e+01	1.643573e+03
1.940000e-06	6.679578e-06	2.506120e-08	4.838877e+01	1.637751e+03
1.950000e-06	6.598543e-06	2.489721e-08	4.780173e+01	1.631696e+03
1.960000e-06	6.515151e-06	2.485996e-08	4.719762e+01	1.625489e+03
1.970000e-06	6.429345e-06	2.471526e-08	4.657601e+01	1.619195e+03
1.980000e-06	6.341097e-06	2.465883e-08	4.593672e+01	1.612851e+03
1.990000e-06	6.250635e-06	2.456707e-08	4.528139e+01	1.606454e+03
2.000000e-06	6.158101e-06	2.444711e-08	4.461105e+01	1.599966e+03
2.010000e-06	6.063241e-06	2.435749e-08	4.392385e+01	1.593313e+03
2.020000e-06	5.966134e-06	2.420928e-08	4.322038e+01	1.586396e+03
2.030000e-06	5.866982e-06	2.410347e-08	4.250209e+01	1.579105e+03
2.040000e-06	5.765840e-06	2.396282e-08	4.176939e+01	1.571338e+03
2.050000e-06	5.662575e-06	2.386660e-08	4.102131e+01	1.563013e+03
2.060000e-06	5.557276e-06	2.371491e-08	4.025850e+01	1.554082e+03
2.070000e-06	5.450181e-06	2.357464e-08	3.948267e+01	1.544538e+03
2.080000e-06	5.341264e-06	2.342657e-08	3.869365e+01	1.534412e+03
2.090000e-06	5.230373e-06	2.327504e-08	3.789032e+01	1.523769e+03
2.100000e-06	5.117515e-06	2.311945e-08	3.707274e+01	1.512694e+03
2.110000e-06	5.002738e-06	2.294926e-08	3.624127e+01	1.501273e+03
2.120000e-06	4.885992e-06	2.278611e-08	3.539553e+01	1.489575e+03
2.130000e-06	4.767275e-06	2.259044e-08	3.453550e+01	1.477639e+03
2.140000e-06	4.646682e-06	2.239954e-08	3.366189e+01	1.465458e+03
2.150000e-06	4.524455e-06	2.219998e-08	3.277645e+01	1.452976e+03
2.160000e-06	4.400603e-06	2.201041e-08	3.187922e+01	1.440090e+03
2.170000e-06	4.275224e-06	2.179350e-08	3.097094e+01	1.426663e+03
2.180000e-06	4.148243e-06	2.157165e-08	3.005106e+01	1.412538e+03
2.190000e-06	4.019633e-06	2.133780e-08	2.911937e+01	1.397559e+03
2.200000e-06	3.889537e-06	2.109492e-08	2.817692e+01	1.381594e+03
2.210000e-06	3.758035e-06	2.083328e-08	2.722428e+01	1.364550e+03
2.220000e-06	3.625220e-06	2.056286e-08	2.626213e+01	1.346382e+03
2.230000e-06	3.491056e-06	2.028362e-08	2.529021e+01	1.327099e+03
2.240000e-06	3.355470e-06	1.998236e-08	2.430799e+01	1.306753e+03
2.250000e-06	3.218604e-06	1.966839e-08	2.331649e+01	1.285420e+03
2.260000e-06	3.080645e-06	1.933924e-08	2.231707e+01	1.263181e+03
2.270000e-06	2.941480e-06	1.900062e-08	2.130892e+01	1.240087e+03
2.280000e-06	2.801114e-06	1.863797e-08	2.029207e+01	1.216139e+03
2.290000e-06	2.659698e-06	1.825559e-08	1.926762e+01	1.191259e+03
2.300000e-06	2.517279e-06	1.784847e-08	1.823589e+01	1.165283e+03
2.310000e-06	2.373862e-06	1.741865e-08	1.719694e+01	1.137953e+03
2.320000e-06	2.229577e-06	1.695876e-08	1.615169e+01	1.108935e+03
2.330000e-06	2.084606e-06	1.646873e-08	1.510148e+01	1.077835e+03
2.340000e-06	1.938988e-06	1.594488e-08	1.404659e+01	1.044239e+03
2.350000e-06	1.792718e-06	1.538392e-08	1.298696e+01	1.007748e+03
2.360000e-06	1.645862e-06	1.478599e-08	1.192310e+01	9.680154e+02
2.370000e-06	1.498454e-06	1.414499e-08	1.085523e+01	9.247868e+02
2.380000e-06	1.350547e-06	1.345588e-08	9.783748e+00	8.779199e+02
2.390000e-06	1.202221e-06	1.271318e-08	8.709235e+00	8.273980e+02
2.400000e-06	1.053538e-06	1.191087e-08	7.632132e+00	7.733271e+02
2.410000e-06	9.045029e-07	1.104901e-08	6.552478e+00	7.159176e+02
2.420000e-06	7.551765e-07	1.013076e-08	5.470714e+00	6.554545e+02
2.430000e-06	6.057083e-07	9.155203e-09	4.387924e+00	5.922607e+02
2.440000e-06	4.560231e-07	8.126480e-09	3.303561e+00	5.266567e+02
2.450000e-06	3.060713e-07	7.055041e-09	2.217268e+00	4.589253e+02
2.460000e-06	1.559787e-07	5.952898e-09	1.129954e+00	3.892851e+02
2.470000e-06	5.777035e-09	4.831865e-09	4.185049e-02	3.178779e+02
2.480000e-06	-1.444461e-07	3.704823e-09	-1.046409e+00	2.447719e+02
2.490000e-06	-2.945283e-07	2.576523e-09	-2.133647e+00	1.699815e+02
2.500000e-06	-4.445494e-07	1.440464e-09	-3.220443e+00	9.349963e+01
2.510000e-06	-5.944962e-07	2.884532e-10	-4.306701e+00	1.534058e+01
2.520000e-06	-7.442318e-07	-8.868054e-10	-5.391428e+00	-6.441531e+01
2.530000e-06	-8.937405e-07	-2.091611e-09	-6.474512e+00	-1.455800e+02
2.540000e-06	-1.042917e-06	-3.332168e-09	-7.555188e+00	-2.278267e+02
2.550000e-06	-1.191721e-06	-4.606645e-09	-8.633171e+00	-3.106741e+02
2.560000e-06	-1.340144e-06	-5.902533e-09	-9.708387e+00	-3.934902e+02
2.570000e-06	-1.488155e-06	-7.203467e-09	-1.078062e+01	-4.755157e+02
2.580000e-06	-1.635673e-06	-8.483199e-09	-1.184928e+01	-5.559056e+02
2.590000e-06	-1.782585e-06	-9.713362e-09	-1.291355e+01	-6.337855e+02
2.600000e-06	-1.928824e-06	-1.086919e-08	-1.397295e+01	-7.083147e+02
2.610000e-06	-2.074310e-06	-1.193708e-08	-1.502690e+01	-7.787505e+02
2.620000e-06	-2.219053e-06	-1.291685e-08	-1.607545e+01	-8.445054e+02
2.630000e-06	-2.362952e-06	-1.381209e-08	-1.711790e+01	-9.051903e+02
2.640000e-06	-2.505817e-06	-1.462961e-08	-1.815286e+01	-9.606390e+02
2.650000e-06	-2.647632e-06	-1.537763e-08	-1.918020e+01	-1.010911e+03
2.660000e-06	-2.788339e-06	-1.606322e-08	-2.019952e+01	-1.056272e+03
2.670000e-06	-2.927931e-06	-1.669317e-08	-2.121077e+01	-1.097159e+03
2.680000e-06	-3.066443e-06	-1.727342e-08	-2.221419e+01	-1.134126e+03
2.690000e-06	-3.203759e-06	-1.780759e-08	-2.320894e+01	-1.167784e+03
2.700000e-06	-3.339824e-06	-1.830144e-08	-2.419464e+01	-1.198745e+03
2.710000e-06	-3.474662e-06	-1.876269e-08	-2.517145e+01	-1.227565e+03
2.720000e-06	-3.608199e-06	-1.919546e-08	-2.613883e+01	-1.254705e+03
2.730000e-06	-3.740452e-06	-1.960057e-08	-2.709690e+01	-1.280505e+03
2.740000e-06	-3.871406e-06	-1.998041e-08	-2.804557e+01	-1.305178e+03
2.750000e-06	-4.000998e-06	-2.033339e-08	-2.898437e+01	-1.328815e+03
2.760000e-06	-4.129264e-06	-2.066287e-08	-2.991357e+01	-1.351415e+03
2.770000e-06	-4.256094e-06	-2.097455e-08	-3.083236e+01	-1.372915e+03
2.780000e-06	-4.381416e-06	-2.126936e-08	-3.174023e+01	-1.393224e+03
2.790000e-06	-4.505266e-06	-2.154984e-08	-3.263743e+01	-1.412261e+03
2.800000e-06	-4.627519e-06	-2.181400e-08	-3.352307e+01	-1.429982e+03
2.810000e-06	-4.748043e-06	-2.206341e-08	-3.439618e+01	-1.446400e+03
2.820000e-06	-4.866759e-06	-2.230221e-08	-3.525619e+01	-1.461588e+03
2.830000e-06	-4.983620e-06	-2.253064e-08	-3.610277e+01	-1.475675e+03
2.840000e-06	-5.098490e-06	-2.274751e-08	-3.693492e+01	-1.488829e+03
2.850000e-06	-5.211227e-06	-2.295144e-08	-3.775162e+01	-1.501238e+03
2.860000e-06	-5.321938e-06	-2.314336e-08	-3.855364e+01	-1.513082e+03
2.870000e-06	-5.430725e-06	-2.332377e-08	-3.934172e+01	-1.524511e+03
2.880000e-06	-5.537633e-06	-2.349425e-08	-4.011619e+01	-1.535629e+03
2.890000e-06	-5.642661e-06	-2.365543e-08	-4.087705e+01	-1.546483e+03
2.900000e-06	-5.745595e-06	-2.380974e-08	-4.162273e+01	-1.557067e+03
2.910000e-06	-5.846343e-06	-2.395933e-08	-4.235258e+01	-1.567323e+03
2.920000e-06	-5.945002e-06	-2.410306e-08	-4.306730e+01	-1.577164e+03
2.930000e-06	-6.041588e-06	-2.424081e-08	-4.376699e+01	-1.586494e+03
2.940000e-06	-6.135956e-06	-2.436978e-08	-4.445062e+01	-1.595222e+03
