# Temperatura_=_72.26
# Concentracion g/m^3_=_28370.0
# C_Vs_to_Am_M_A/Vsm_=_65563218390.804596
# pendiente_HvsI_1/m_=_3716.3
# ordenada_HvsI_A/m_=_1297.0
# frecuencia_Hz_=_302507.90714756964

Tiempo_(s)	Campo_(V.s)	Magnetizacion_(V.s)	Campo_(kA/m)	Magnetizacion_(A/m)
0.000000e+00	-7.865001e-06	-2.613931e-08	-5.683907e+01	-1.711160e+03
1.000000e-08	-7.860348e-06	-2.613609e-08	-5.680544e+01	-1.710346e+03
2.000000e-08	-7.853220e-06	-2.612597e-08	-5.675393e+01	-1.709516e+03
3.000000e-08	-7.843369e-06	-2.611324e-08	-5.668274e+01	-1.708703e+03
4.000000e-08	-7.830647e-06	-2.609660e-08	-5.659080e+01	-1.707913e+03
5.000000e-08	-7.815032e-06	-2.607581e-08	-5.647795e+01	-1.707125e+03
6.000000e-08	-7.796783e-06	-2.605234e-08	-5.634607e+01	-1.706294e+03
7.000000e-08	-7.776394e-06	-2.601768e-08	-5.619872e+01	-1.705360e+03
8.000000e-08	-7.753618e-06	-2.602913e-08	-5.603412e+01	-1.704261e+03
9.000000e-08	-7.727783e-06	-2.607858e-08	-5.584742e+01	-1.702942e+03
1.000000e-07	-7.698728e-06	-2.601057e-08	-5.563744e+01	-1.701366e+03
1.100000e-07	-7.666831e-06	-2.593218e-08	-5.540693e+01	-1.699522e+03
1.200000e-07	-7.632216e-06	-2.590784e-08	-5.515677e+01	-1.697421e+03
1.300000e-07	-7.595007e-06	-2.586869e-08	-5.488787e+01	-1.695101e+03
1.400000e-07	-7.555593e-06	-2.578086e-08	-5.460303e+01	-1.692614e+03
1.500000e-07	-7.513904e-06	-2.574151e-08	-5.430175e+01	-1.690017e+03
1.600000e-07	-7.469716e-06	-2.583649e-08	-5.398241e+01	-1.687363e+03
1.700000e-07	-7.423075e-06	-2.570257e-08	-5.364534e+01	-1.684685e+03
1.800000e-07	-7.373742e-06	-2.563067e-08	-5.328882e+01	-1.681991e+03
1.900000e-07	-7.321362e-06	-2.565550e-08	-5.291028e+01	-1.679260e+03
2.000000e-07	-7.266111e-06	-2.552526e-08	-5.251099e+01	-1.676444e+03
2.100000e-07	-7.208198e-06	-2.549251e-08	-5.209246e+01	-1.673471e+03
2.200000e-07	-7.147650e-06	-2.541503e-08	-5.165489e+01	-1.670258e+03
2.300000e-07	-7.084624e-06	-2.537420e-08	-5.119941e+01	-1.666723e+03
2.400000e-07	-7.018927e-06	-2.534049e-08	-5.072463e+01	-1.662799e+03
2.500000e-07	-6.950486e-06	-2.524524e-08	-5.023002e+01	-1.658442e+03
2.600000e-07	-6.879434e-06	-2.519056e-08	-4.971654e+01	-1.653641e+03
2.700000e-07	-6.805591e-06	-2.510621e-08	-4.918289e+01	-1.648422e+03
2.800000e-07	-6.729039e-06	-2.502394e-08	-4.862966e+01	-1.642837e+03
2.900000e-07	-6.649782e-06	-2.492351e-08	-4.805688e+01	-1.636962e+03
3.000000e-07	-6.567840e-06	-2.485156e-08	-4.746470e+01	-1.630881e+03
3.100000e-07	-6.483714e-06	-2.478850e-08	-4.685673e+01	-1.624671e+03
3.200000e-07	-6.397448e-06	-2.467910e-08	-4.623330e+01	-1.618389e+03
3.300000e-07	-6.308825e-06	-2.459518e-08	-4.559284e+01	-1.612060e+03
3.400000e-07	-6.217868e-06	-2.446528e-08	-4.493551e+01	-1.605671e+03
3.500000e-07	-6.124731e-06	-2.436335e-08	-4.426242e+01	-1.599172e+03
3.600000e-07	-6.029400e-06	-2.426277e-08	-4.357348e+01	-1.592478e+03
3.700000e-07	-5.931713e-06	-2.413810e-08	-4.286751e+01	-1.585486e+03
3.800000e-07	-5.831900e-06	-2.401947e-08	-4.214619e+01	-1.578089e+03
3.900000e-07	-5.730096e-06	-2.389393e-08	-4.141046e+01	-1.570188e+03
4.000000e-07	-5.626280e-06	-2.377081e-08	-4.066020e+01	-1.561712e+03
4.100000e-07	-5.520426e-06	-2.362271e-08	-3.989521e+01	-1.552625e+03
4.200000e-07	-5.412574e-06	-2.349985e-08	-3.911578e+01	-1.542931e+03
4.300000e-07	-5.302884e-06	-2.335548e-08	-3.832307e+01	-1.532673e+03
4.400000e-07	-5.191321e-06	-2.319806e-08	-3.751682e+01	-1.521923e+03
4.500000e-07	-5.077810e-06	-2.302959e-08	-3.669650e+01	-1.510768e+03
4.600000e-07	-4.962224e-06	-2.285623e-08	-3.586118e+01	-1.499288e+03
4.700000e-07	-4.844684e-06	-2.267762e-08	-3.501174e+01	-1.487546e+03
4.800000e-07	-4.725407e-06	-2.249001e-08	-3.414974e+01	-1.475564e+03
4.900000e-07	-4.604411e-06	-2.230672e-08	-3.327532e+01	-1.463319e+03
5.000000e-07	-4.481674e-06	-2.210593e-08	-3.238832e+01	-1.450741e+03
5.100000e-07	-4.357306e-06	-2.189762e-08	-3.148953e+01	-1.437713e+03
5.200000e-07	-4.231441e-06	-2.167604e-08	-3.057993e+01	-1.424091e+03
5.300000e-07	-4.104018e-06	-2.144855e-08	-2.965906e+01	-1.409715e+03
5.400000e-07	-3.975086e-06	-2.120399e-08	-2.872729e+01	-1.394438e+03
5.500000e-07	-3.844619e-06	-2.094868e-08	-2.778443e+01	-1.378138e+03
5.600000e-07	-3.712633e-06	-2.068367e-08	-2.683059e+01	-1.360738e+03
5.700000e-07	-3.579276e-06	-2.040537e-08	-2.586684e+01	-1.342213e+03
5.800000e-07	-3.444601e-06	-2.011483e-08	-2.489357e+01	-1.322587e+03
5.900000e-07	-3.308629e-06	-1.981138e-08	-2.391092e+01	-1.301924e+03
6.000000e-07	-3.171397e-06	-1.949940e-08	-2.291916e+01	-1.280305e+03
6.100000e-07	-3.032955e-06	-1.916796e-08	-2.191867e+01	-1.257804e+03
6.200000e-07	-2.893128e-06	-1.881844e-08	-2.090816e+01	-1.234458e+03
6.300000e-07	-2.751967e-06	-1.844474e-08	-1.988801e+01	-1.210246e+03
6.400000e-07	-2.609739e-06	-1.804645e-08	-1.886016e+01	-1.185060e+03
6.500000e-07	-2.466554e-06	-1.762358e-08	-1.782538e+01	-1.158704e+03
6.600000e-07	-2.322475e-06	-1.717970e-08	-1.678415e+01	-1.130891e+03
6.700000e-07	-2.177524e-06	-1.671239e-08	-1.573661e+01	-1.101262e+03
6.800000e-07	-2.031755e-06	-1.621552e-08	-1.468316e+01	-1.069409e+03
6.900000e-07	-1.885341e-06	-1.568687e-08	-1.362505e+01	-1.034915e+03
7.000000e-07	-1.738373e-06	-1.511498e-08	-1.256294e+01	-9.973913e+02
7.100000e-07	-1.590884e-06	-1.450220e-08	-1.149706e+01	-9.565134e+02
7.200000e-07	-1.442917e-06	-1.384100e-08	-1.042772e+01	-9.120573e+02
7.300000e-07	-1.294512e-06	-1.312591e-08	-9.355223e+00	-8.639178e+02
7.400000e-07	-1.145707e-06	-1.235481e-08	-8.279839e+00	-8.121158e+02
7.500000e-07	-9.965284e-07	-1.152850e-08	-7.201747e+00	-7.567909e+02
7.600000e-07	-8.470336e-07	-1.064962e-08	-6.121373e+00	-6.981790e+02
7.700000e-07	-6.972985e-07	-9.711592e-09	-5.039262e+00	-6.365796e+02
7.800000e-07	-5.473436e-07	-8.717000e-09	-3.955562e+00	-5.723170e+02
7.900000e-07	-3.971673e-07	-7.672531e-09	-2.870263e+00	-5.057017e+02
8.000000e-07	-2.468767e-07	-6.588704e-09	-1.784137e+00	-4.369968e+02
8.100000e-07	-9.646248e-08	-5.473346e-09	-6.971185e-01	-3.663963e+02
8.200000e-07	5.407533e-08	-4.343037e-09	3.907935e-01	-2.940169e+02
8.300000e-07	2.046062e-07	-3.209570e-09	1.478656e+00	-2.199075e+02
8.400000e-07	3.550839e-07	-2.073465e-09	2.566133e+00	-1.440734e+02
8.500000e-07	5.054947e-07	-9.300406e-10	3.653127e+00	-6.651262e+01
8.600000e-07	6.557943e-07	2.274866e-10	4.739317e+00	1.273943e+01
8.700000e-07	8.058943e-07	1.408050e-09	5.824065e+00	9.356564e+01
8.800000e-07	9.557138e-07	2.625676e-09	6.906786e+00	1.757283e+02
8.900000e-07	1.105206e-06	3.883276e-09	7.987142e+00	2.588424e+02
9.000000e-07	1.254321e-06	5.174345e-09	9.064771e+00	3.423668e+02
9.100000e-07	1.403064e-06	6.484216e-09	1.013971e+01	4.256140e+02
9.200000e-07	1.551395e-06	7.789711e-09	1.121167e+01	5.077810e+02
9.300000e-07	1.699140e-06	9.057345e-09	1.227941e+01	5.879965e+02
9.400000e-07	1.846164e-06	1.026030e-08	1.334192e+01	6.653804e+02
9.500000e-07	1.992540e-06	1.138021e-08	1.439976e+01	7.391094e+02
9.600000e-07	2.138304e-06	1.240900e-08	1.545317e+01	8.084800e+02
9.700000e-07	2.283311e-06	1.335158e-08	1.650111e+01	8.729619e+02
9.800000e-07	2.427350e-06	1.421184e-08	1.754206e+01	9.322362e+02
9.900000e-07	2.570386e-06	1.499858e-08	1.857575e+01	9.862124e+02
1.000000e-06	2.712461e-06	1.571753e-08	1.960251e+01	1.035025e+03
1.010000e-06	2.853467e-06	1.637598e-08	2.062153e+01	1.079005e+03
1.020000e-06	2.993310e-06	1.698252e-08	2.163216e+01	1.118643e+03
1.030000e-06	3.131909e-06	1.754192e-08	2.263379e+01	1.154524e+03
1.040000e-06	3.269278e-06	1.806088e-08	2.362654e+01	1.187275e+03
1.050000e-06	3.405359e-06	1.854261e-08	2.460997e+01	1.217503e+03
1.060000e-06	3.540130e-06	1.899217e-08	2.558394e+01	1.245744e+03
1.070000e-06	3.673678e-06	1.940959e-08	2.654907e+01	1.272424e+03
1.080000e-06	3.805869e-06	1.979974e-08	2.750439e+01	1.297847e+03
1.090000e-06	3.936614e-06	2.016545e-08	2.844926e+01	1.322185e+03
1.100000e-06	4.065969e-06	2.051007e-08	2.938409e+01	1.345498e+03
1.110000e-06	4.193915e-06	2.083585e-08	3.030873e+01	1.367758e+03
1.120000e-06	4.320462e-06	2.114426e-08	3.122327e+01	1.388888e+03
1.130000e-06	4.445589e-06	2.143403e-08	3.212754e+01	1.408796e+03
1.140000e-06	4.569102e-06	2.170647e-08	3.302015e+01	1.427407e+03
1.150000e-06	4.691002e-06	2.196515e-08	3.390110e+01	1.444695e+03
1.160000e-06	4.811288e-06	2.220871e-08	3.477038e+01	1.460691e+03
1.170000e-06	4.929848e-06	2.243767e-08	3.562720e+01	1.475488e+03
1.180000e-06	5.046561e-06	2.265183e-08	3.647067e+01	1.489232e+03
1.190000e-06	5.161307e-06	2.285563e-08	3.729992e+01	1.502101e+03
1.200000e-06	5.274091e-06	2.305042e-08	3.811499e+01	1.514287e+03
1.210000e-06	5.384923e-06	2.323651e-08	3.891595e+01	1.525963e+03
1.220000e-06	5.493884e-06	2.341432e-08	3.970340e+01	1.537268e+03
1.230000e-06	5.600883e-06	2.358495e-08	4.047666e+01	1.548291e+03
1.240000e-06	5.705769e-06	2.374787e-08	4.123465e+01	1.559059e+03
1.250000e-06	5.808617e-06	2.390358e-08	4.197792e+01	1.569548e+03
1.260000e-06	5.909341e-06	2.405163e-08	4.270584e+01	1.579688e+03
1.270000e-06	6.007787e-06	2.418978e-08	4.341729e+01	1.589384e+03
1.280000e-06	6.103952e-06	2.431906e-08	4.411226e+01	1.598538e+03
1.290000e-06	6.197967e-06	2.444099e-08	4.479169e+01	1.607066e+03
1.300000e-06	6.289861e-06	2.455741e-08	4.545579e+01	1.614919e+03
1.310000e-06	6.379477e-06	2.466892e-08	4.610343e+01	1.622091e+03
1.320000e-06	6.466770e-06	2.477313e-08	4.673428e+01	1.628623e+03
1.330000e-06	6.551820e-06	2.487155e-08	4.734893e+01	1.634600e+03
1.340000e-06	6.634608e-06	2.496492e-08	4.794722e+01	1.640136e+03
1.350000e-06	6.714979e-06	2.505198e-08	4.852805e+01	1.645359e+03
1.360000e-06	6.792825e-06	2.513400e-08	4.909063e+01	1.650392e+03
1.370000e-06	6.868045e-06	2.521374e-08	4.963423e+01	1.655335e+03
1.380000e-06	6.940669e-06	2.528987e-08	5.015907e+01	1.660253e+03
1.390000e-06	7.010852e-06	2.536223e-08	5.066627e+01	1.665169e+03
1.400000e-06	7.078565e-06	2.543281e-08	5.115562e+01	1.670061e+03
1.410000e-06	7.143702e-06	2.550074e-08	5.162636e+01	1.674870e+03
1.420000e-06	7.206302e-06	2.556476e-08	5.207876e+01	1.679514e+03
1.430000e-06	7.266474e-06	2.562429e-08	5.251361e+01	1.683899e+03
1.440000e-06	7.324148e-06	2.567916e-08	5.293041e+01	1.687942e+03
1.450000e-06	7.379194e-06	2.572923e-08	5.332822e+01	1.691578e+03
1.460000e-06	7.431346e-06	2.577625e-08	5.370512e+01	1.694775e+03
1.470000e-06	7.480425e-06	2.582220e-08	5.405980e+01	1.697541e+03
1.480000e-06	7.526732e-06	2.586550e-08	5.439446e+01	1.699916e+03
1.490000e-06	7.570408e-06	2.590523e-08	5.471010e+01	1.701969e+03
1.500000e-06	7.611328e-06	2.594171e-08	5.500582e+01	1.703784e+03
1.510000e-06	7.649579e-06	2.597521e-08	5.528225e+01	1.705449e+03
1.520000e-06	7.685212e-06	2.600593e-08	5.553976e+01	1.707039e+03
1.530000e-06	7.718042e-06	2.603095e-08	5.577702e+01	1.708605e+03
1.540000e-06	7.748120e-06	2.605147e-08	5.599439e+01	1.710167e+03
1.550000e-06	7.775511e-06	2.606851e-08	5.619234e+01	1.711713e+03
1.560000e-06	7.800044e-06	2.608376e-08	5.636963e+01	1.713202e+03
1.570000e-06	7.821779e-06	2.609848e-08	5.652671e+01	1.714571e+03
1.580000e-06	7.840800e-06	2.611161e-08	5.666417e+01	1.715752e+03
1.590000e-06	7.856926e-06	2.612527e-08	5.678071e+01	1.716678e+03
1.600000e-06	7.870076e-06	2.613461e-08	5.687575e+01	1.717300e+03
1.610000e-06	7.880117e-06	2.613917e-08	5.694831e+01	1.717594e+03
1.620000e-06	7.887147e-06	2.614332e-08	5.699911e+01	1.717565e+03
1.630000e-06	7.891488e-06	2.614694e-08	5.703049e+01	1.717247e+03
1.640000e-06	7.893012e-06	2.615018e-08	5.704150e+01	1.716698e+03
1.650000e-06	7.891726e-06	2.614444e-08	5.703220e+01	1.715986e+03
1.660000e-06	7.887877e-06	2.613084e-08	5.700439e+01	1.715184e+03
1.670000e-06	7.881400e-06	2.612487e-08	5.695758e+01	1.714352e+03
1.680000e-06	7.872271e-06	2.611548e-08	5.689161e+01	1.713530e+03
1.690000e-06	7.860443e-06	2.610287e-08	5.680613e+01	1.712733e+03
1.700000e-06	7.845818e-06	2.609446e-08	5.670044e+01	1.711946e+03
1.710000e-06	7.828659e-06	2.609173e-08	5.657643e+01	1.711131e+03
1.720000e-06	7.809295e-06	2.608961e-08	5.643649e+01	1.710230e+03
1.730000e-06	7.787448e-06	2.598444e-08	5.627861e+01	1.709183e+03
1.740000e-06	7.762472e-06	2.591232e-08	5.609811e+01	1.707929e+03
1.750000e-06	7.733845e-06	2.595645e-08	5.589123e+01	1.706428e+03
1.760000e-06	7.701771e-06	2.594361e-08	5.565943e+01	1.704658e+03
1.770000e-06	7.667205e-06	2.589928e-08	5.540963e+01	1.702625e+03
1.780000e-06	7.630489e-06	2.594183e-08	5.514429e+01	1.700361e+03
1.790000e-06	7.591539e-06	2.596128e-08	5.486280e+01	1.697914e+03
1.800000e-06	7.550631e-06	2.576641e-08	5.456717e+01	1.695341e+03
1.810000e-06	7.507483e-06	2.582764e-08	5.425534e+01	1.692697e+03
1.820000e-06	7.461648e-06	2.582654e-08	5.392411e+01	1.690021e+03
1.830000e-06	7.413146e-06	2.572015e-08	5.357358e+01	1.687330e+03
1.840000e-06	7.361633e-06	2.581307e-08	5.320131e+01	1.684612e+03
1.850000e-06	7.307104e-06	2.565922e-08	5.280724e+01	1.681825e+03
1.860000e-06	7.249901e-06	2.567941e-08	5.239384e+01	1.678903e+03
1.870000e-06	7.190229e-06	2.560785e-08	5.196261e+01	1.675765e+03
1.880000e-06	7.127944e-06	2.545996e-08	5.151248e+01	1.672328e+03
1.890000e-06	7.062730e-06	2.550021e-08	5.104119e+01	1.668519e+03
1.900000e-06	6.994835e-06	2.535510e-08	5.055052e+01	1.664286e+03
1.910000e-06	6.924243e-06	2.533949e-08	5.004036e+01	1.659609e+03
1.920000e-06	6.850876e-06	2.526141e-08	4.951016e+01	1.654503e+03
1.930000e-06	6.774872e-06	2.519239e-08	4.896088e+01	1.649013e+03
1.940000e-06	6.696162e-06	2.513703e-08	4.839206e+01	1.643210e+03
1.950000e-06	6.614958e-06	2.497800e-08	4.780521e+01	1.637178e+03
1.960000e-06	6.531405e-06	2.493921e-08	4.720139e+01	1.630996e+03
1.970000e-06	6.445348e-06	2.479973e-08	4.657947e+01	1.624729e+03
1.980000e-06	6.356865e-06	2.474958e-08	4.594001e+01	1.618411e+03
1.990000e-06	6.266185e-06	2.465113e-08	4.528469e+01	1.612041e+03
2.000000e-06	6.173361e-06	2.453844e-08	4.461386e+01	1.605578e+03
2.010000e-06	6.078248e-06	2.444622e-08	4.392650e+01	1.598947e+03
2.020000e-06	5.980943e-06	2.430338e-08	4.322329e+01	1.592050e+03
2.030000e-06	5.881608e-06	2.420277e-08	4.250542e+01	1.584778e+03
2.040000e-06	5.780169e-06	2.406526e-08	4.177233e+01	1.577028e+03
2.050000e-06	5.676573e-06	2.396570e-08	4.102366e+01	1.568719e+03
2.060000e-06	5.571052e-06	2.380830e-08	4.026107e+01	1.559806e+03
2.070000e-06	5.463728e-06	2.366669e-08	3.948547e+01	1.550280e+03
2.080000e-06	5.354438e-06	2.351478e-08	3.869564e+01	1.540175e+03
2.090000e-06	5.243101e-06	2.336350e-08	3.789103e+01	1.529556e+03
2.100000e-06	5.129857e-06	2.320796e-08	3.707264e+01	1.518505e+03
2.110000e-06	5.014810e-06	2.304080e-08	3.624120e+01	1.507109e+03
2.120000e-06	4.897766e-06	2.287810e-08	3.539535e+01	1.495435e+03
2.130000e-06	4.778742e-06	2.268456e-08	3.453519e+01	1.483520e+03
2.140000e-06	4.657924e-06	2.249602e-08	3.366205e+01	1.471353e+03
2.150000e-06	4.535444e-06	2.229573e-08	3.277690e+01	1.458878e+03
2.160000e-06	4.411384e-06	2.210007e-08	3.188034e+01	1.445991e+03
2.170000e-06	4.285707e-06	2.188006e-08	3.097210e+01	1.432552e+03
2.180000e-06	4.158290e-06	2.165919e-08	3.005128e+01	1.418406e+03
2.190000e-06	4.029321e-06	2.142307e-08	2.911924e+01	1.403398e+03
2.200000e-06	3.898982e-06	2.117962e-08	2.817730e+01	1.387398e+03
2.210000e-06	3.767214e-06	2.091949e-08	2.722504e+01	1.370315e+03
2.220000e-06	3.634070e-06	2.065161e-08	2.626283e+01	1.352109e+03
2.230000e-06	3.499540e-06	2.037359e-08	2.529060e+01	1.332791e+03
2.240000e-06	3.363633e-06	2.007583e-08	2.430842e+01	1.312415e+03
2.250000e-06	3.226549e-06	1.976395e-08	2.331774e+01	1.291058e+03
2.260000e-06	3.088303e-06	1.943110e-08	2.231866e+01	1.268801e+03
2.270000e-06	2.948776e-06	1.908562e-08	2.131032e+01	1.245694e+03
2.280000e-06	2.808039e-06	1.871958e-08	2.029324e+01	1.221734e+03
2.290000e-06	2.666212e-06	1.833799e-08	1.926828e+01	1.196840e+03
2.300000e-06	2.523433e-06	1.793431e-08	1.823643e+01	1.170842e+03
2.310000e-06	2.379678e-06	1.750559e-08	1.719754e+01	1.143477e+03
2.320000e-06	2.235001e-06	1.704206e-08	1.615198e+01	1.114405e+03
2.330000e-06	2.089646e-06	1.654621e-08	1.510153e+01	1.083228e+03
2.340000e-06	1.943664e-06	1.601799e-08	1.404654e+01	1.049529e+03
2.350000e-06	1.797028e-06	1.545665e-08	1.298683e+01	1.012905e+03
2.360000e-06	1.649811e-06	1.485936e-08	1.192291e+01	9.730115e+02
2.370000e-06	1.502065e-06	1.421864e-08	1.085518e+01	9.295920e+02
2.380000e-06	1.353813e-06	1.352650e-08	9.783786e+00	8.825062e+02
2.390000e-06	1.205087e-06	1.277746e-08	8.708962e+00	8.317392e+02
2.400000e-06	1.055917e-06	1.196898e-08	7.630936e+00	7.773985e+02
2.410000e-06	9.064117e-07	1.110377e-08	6.550489e+00	7.196953e+02
2.420000e-06	7.566907e-07	1.018244e-08	5.468479e+00	6.589146e+02
2.430000e-06	6.067644e-07	9.202824e-09	4.384986e+00	5.953780e+02
2.440000e-06	4.566248e-07	8.168005e-09	3.299953e+00	5.294034e+02
2.450000e-06	3.063438e-07	7.088106e-09	2.213896e+00	4.612705e+02
2.460000e-06	1.559300e-07	5.976765e-09	1.126880e+00	3.911943e+02
2.470000e-06	5.465947e-09	4.845341e-09	3.950150e-02	3.193135e+02
2.480000e-06	-1.449674e-07	3.708561e-09	-1.047656e+00	2.456946e+02
2.490000e-06	-2.953934e-07	2.572741e-09	-2.134760e+00	1.703518e+02
2.500000e-06	-4.457539e-07	1.430890e-09	-3.221390e+00	9.328128e+01
2.510000e-06	-5.959573e-07	2.734294e-10	-4.306886e+00	1.450289e+01
2.520000e-06	-7.459865e-07	-9.081174e-10	-5.391121e+00	-6.589392e+01
2.530000e-06	-8.958409e-07	-2.121788e-09	-6.474095e+00	-1.477092e+02
2.540000e-06	-1.045489e-06	-3.373257e-09	-7.555574e+00	-2.306019e+02
2.550000e-06	-1.194845e-06	-4.659508e-09	-8.634949e+00	-3.140753e+02
2.560000e-06	-1.343775e-06	-5.967261e-09	-9.711238e+00	-3.974813e+02
2.570000e-06	-1.492198e-06	-7.277801e-09	-1.078387e+01	-4.800460e+02
2.580000e-06	-1.640034e-06	-8.565927e-09	-1.185225e+01	-5.609116e+02
2.590000e-06	-1.787237e-06	-9.801676e-09	-1.291607e+01	-6.391942e+02
2.600000e-06	-1.933795e-06	-1.096118e-08	-1.397522e+01	-7.140477e+02
2.610000e-06	-2.079659e-06	-1.203244e-08	-1.502935e+01	-7.847281e+02
2.620000e-06	-2.224795e-06	-1.301318e-08	-1.607823e+01	-8.506511e+02
2.630000e-06	-2.369013e-06	-1.390783e-08	-1.712047e+01	-9.114346e+02
2.640000e-06	-2.512178e-06	-1.472448e-08	-1.815510e+01	-9.669224e+02
2.650000e-06	-2.654385e-06	-1.547225e-08	-1.918281e+01	-1.017186e+03
2.660000e-06	-2.795618e-06	-1.615758e-08	-2.020347e+01	-1.062505e+03
2.670000e-06	-2.935664e-06	-1.678769e-08	-2.121556e+01	-1.103329e+03
2.680000e-06	-3.074454e-06	-1.737014e-08	-2.221857e+01	-1.140222e+03
2.690000e-06	-3.212076e-06	-1.790615e-08	-2.321314e+01	-1.173806e+03
2.700000e-06	-3.348480e-06	-1.839933e-08	-2.419892e+01	-1.204698e+03
2.710000e-06	-3.483589e-06	-1.885880e-08	-2.517532e+01	-1.233460e+03
2.720000e-06	-3.617507e-06	-1.928885e-08	-2.614313e+01	-1.260551e+03
2.730000e-06	-3.750156e-06	-1.969216e-08	-2.710176e+01	-1.286312e+03
2.740000e-06	-3.881357e-06	-2.007026e-08	-2.804993e+01	-1.310952e+03
2.750000e-06	-4.011197e-06	-2.042243e-08	-2.898826e+01	-1.334559e+03
2.760000e-06	-4.139794e-06	-2.075299e-08	-2.991761e+01	-1.357129e+03
2.770000e-06	-4.266930e-06	-2.106586e-08	-3.083640e+01	-1.378593e+03
2.780000e-06	-4.392529e-06	-2.136159e-08	-3.174409e+01	-1.398861e+03
2.790000e-06	-4.516640e-06	-2.164000e-08	-3.264101e+01	-1.417850e+03
2.800000e-06	-4.639122e-06	-2.190092e-08	-3.352617e+01	-1.435517e+03
2.810000e-06	-4.759996e-06	-2.214662e-08	-3.439971e+01	-1.451877e+03
2.820000e-06	-4.879056e-06	-2.238173e-08	-3.526014e+01	-1.467006e+03
2.830000e-06	-4.996183e-06	-2.260774e-08	-3.610659e+01	-1.481035e+03
2.840000e-06	-5.111337e-06	-2.282448e-08	-3.693879e+01	-1.494137e+03
2.850000e-06	-5.224371e-06	-2.303169e-08	-3.775567e+01	-1.506501e+03
2.860000e-06	-5.335312e-06	-2.322610e-08	-3.855742e+01	-1.518309e+03
2.870000e-06	-5.444343e-06	-2.340643e-08	-3.934537e+01	-1.529711e+03
2.880000e-06	-5.551603e-06	-2.357550e-08	-4.012052e+01	-1.540811e+03
2.890000e-06	-5.656978e-06	-2.373533e-08	-4.088205e+01	-1.551654e+03
2.900000e-06	-5.760222e-06	-2.388880e-08	-4.162818e+01	-1.562230e+03
2.910000e-06	-5.861238e-06	-2.403643e-08	-4.235820e+01	-1.572480e+03
2.920000e-06	-5.960123e-06	-2.417836e-08	-4.307283e+01	-1.582316e+03
2.930000e-06	-6.056897e-06	-2.431447e-08	-4.377220e+01	-1.591637e+03
2.940000e-06	-6.151541e-06	-2.444216e-08	-4.445617e+01	-1.600352e+03
