# Temperatura_=_60.79
# Concentracion g/m^3_=_28370.0
# C_Vs_to_Am_M_A/Vsm_=_65563218390.804596
# pendiente_HvsI_1/m_=_3716.3
# ordenada_HvsI_A/m_=_1297.0
# frecuencia_Hz_=_302508.3682170511

Tiempo_(s)	Campo_(V.s)	Magnetizacion_(V.s)	Campo_(kA/m)	Magnetizacion_(A/m)
0.000000e+00	-7.871828e-06	-2.520972e-08	-5.683505e+01	-1.650325e+03
1.000000e-08	-7.867413e-06	-2.520742e-08	-5.680317e+01	-1.649538e+03
2.000000e-08	-7.860462e-06	-2.520024e-08	-5.675299e+01	-1.648739e+03
3.000000e-08	-7.850902e-06	-2.518892e-08	-5.668396e+01	-1.647965e+03
4.000000e-08	-7.838468e-06	-2.517501e-08	-5.659419e+01	-1.647226e+03
5.000000e-08	-7.823062e-06	-2.515568e-08	-5.648296e+01	-1.646502e+03
6.000000e-08	-7.805042e-06	-2.513298e-08	-5.635285e+01	-1.645753e+03
7.000000e-08	-7.784837e-06	-2.510409e-08	-5.620698e+01	-1.644919e+03
8.000000e-08	-7.762267e-06	-2.510808e-08	-5.604402e+01	-1.643937e+03
9.000000e-08	-7.736756e-06	-2.513158e-08	-5.585982e+01	-1.642751e+03
1.000000e-07	-7.708065e-06	-2.508770e-08	-5.565267e+01	-1.641319e+03
1.100000e-07	-7.676405e-06	-2.503064e-08	-5.542409e+01	-1.639625e+03
1.200000e-07	-7.642006e-06	-2.500259e-08	-5.517572e+01	-1.637678e+03
1.300000e-07	-7.605057e-06	-2.496932e-08	-5.490895e+01	-1.635511e+03
1.400000e-07	-7.565820e-06	-2.489728e-08	-5.462566e+01	-1.633176e+03
1.500000e-07	-7.524395e-06	-2.484872e-08	-5.432657e+01	-1.630731e+03
1.600000e-07	-7.480467e-06	-2.490976e-08	-5.400941e+01	-1.628232e+03
1.700000e-07	-7.433875e-06	-2.481833e-08	-5.367301e+01	-1.625716e+03
1.800000e-07	-7.384559e-06	-2.474748e-08	-5.331694e+01	-1.623201e+03
1.900000e-07	-7.332305e-06	-2.476384e-08	-5.293966e+01	-1.620670e+03
2.000000e-07	-7.277244e-06	-2.466933e-08	-5.254212e+01	-1.618083e+03
2.100000e-07	-7.219596e-06	-2.461801e-08	-5.212590e+01	-1.615371e+03
2.200000e-07	-7.159332e-06	-2.454844e-08	-5.169079e+01	-1.612455e+03
2.300000e-07	-7.096447e-06	-2.451421e-08	-5.123676e+01	-1.609251e+03
2.400000e-07	-7.030878e-06	-2.447622e-08	-5.076334e+01	-1.605689e+03
2.500000e-07	-6.962589e-06	-2.439788e-08	-5.027029e+01	-1.601721e+03
2.600000e-07	-6.891597e-06	-2.433719e-08	-4.975773e+01	-1.597327e+03
2.700000e-07	-6.817901e-06	-2.426320e-08	-4.922564e+01	-1.592523e+03
2.800000e-07	-6.741473e-06	-2.418644e-08	-4.867382e+01	-1.587358e+03
2.900000e-07	-6.662326e-06	-2.409099e-08	-4.810238e+01	-1.581900e+03
3.000000e-07	-6.580687e-06	-2.402198e-08	-4.751294e+01	-1.576231e+03
3.100000e-07	-6.496750e-06	-2.395936e-08	-4.690691e+01	-1.570428e+03
3.200000e-07	-6.410583e-06	-2.386518e-08	-4.628478e+01	-1.564551e+03
3.300000e-07	-6.322091e-06	-2.377835e-08	-4.564586e+01	-1.558630e+03
3.400000e-07	-6.231237e-06	-2.366932e-08	-4.498989e+01	-1.552660e+03
3.500000e-07	-6.138178e-06	-2.357434e-08	-4.431800e+01	-1.546596e+03
3.600000e-07	-6.042888e-06	-2.347774e-08	-4.363000e+01	-1.540363e+03
3.700000e-07	-5.945363e-06	-2.336332e-08	-4.292587e+01	-1.533861e+03
3.800000e-07	-5.845667e-06	-2.325125e-08	-4.220606e+01	-1.526985e+03
3.900000e-07	-5.743884e-06	-2.313567e-08	-4.147118e+01	-1.519635e+03
4.000000e-07	-5.640072e-06	-2.301379e-08	-4.072165e+01	-1.511735e+03
4.100000e-07	-5.534263e-06	-2.287686e-08	-3.995770e+01	-1.503245e+03
4.200000e-07	-5.426558e-06	-2.275428e-08	-3.918006e+01	-1.494161e+03
4.300000e-07	-5.316928e-06	-2.261944e-08	-3.838853e+01	-1.484520e+03
4.400000e-07	-5.205296e-06	-2.247335e-08	-3.758254e+01	-1.474387e+03
4.500000e-07	-5.091724e-06	-2.231895e-08	-3.676254e+01	-1.463846e+03
4.600000e-07	-4.976304e-06	-2.215831e-08	-3.592920e+01	-1.452977e+03
4.700000e-07	-4.858962e-06	-2.198731e-08	-3.508199e+01	-1.441844e+03
4.800000e-07	-4.739742e-06	-2.180737e-08	-3.422121e+01	-1.430477e+03
4.900000e-07	-4.618833e-06	-2.163041e-08	-3.334824e+01	-1.418858e+03
5.000000e-07	-4.496211e-06	-2.144293e-08	-3.246291e+01	-1.406924e+03
5.100000e-07	-4.371892e-06	-2.124379e-08	-3.156531e+01	-1.394567e+03
5.200000e-07	-4.246070e-06	-2.103201e-08	-3.065687e+01	-1.381646e+03
5.300000e-07	-4.118674e-06	-2.081278e-08	-2.973707e+01	-1.368007e+03
5.400000e-07	-3.989725e-06	-2.058013e-08	-2.880604e+01	-1.353499e+03
5.500000e-07	-3.859261e-06	-2.033639e-08	-2.786409e+01	-1.337999e+03
5.600000e-07	-3.727339e-06	-2.008381e-08	-2.691161e+01	-1.321426e+03
5.700000e-07	-3.594050e-06	-1.981950e-08	-2.594925e+01	-1.303747e+03
5.800000e-07	-3.459276e-06	-1.954130e-08	-2.497617e+01	-1.284983e+03
5.900000e-07	-3.323082e-06	-1.924916e-08	-2.399284e+01	-1.265193e+03
6.000000e-07	-3.185736e-06	-1.894694e-08	-2.300120e+01	-1.244459e+03
6.100000e-07	-3.047265e-06	-1.863014e-08	-2.200143e+01	-1.222859e+03
6.200000e-07	-2.907412e-06	-1.829705e-08	-2.099168e+01	-1.200439e+03
6.300000e-07	-2.766205e-06	-1.793912e-08	-1.997216e+01	-1.177188e+03
6.400000e-07	-2.623913e-06	-1.755836e-08	-1.894480e+01	-1.153013e+03
6.500000e-07	-2.480688e-06	-1.715555e-08	-1.791071e+01	-1.127732e+03
6.600000e-07	-2.336552e-06	-1.672941e-08	-1.687004e+01	-1.101071e+03
6.700000e-07	-2.191612e-06	-1.627869e-08	-1.582357e+01	-1.072680e+03
6.800000e-07	-2.045913e-06	-1.579774e-08	-1.477161e+01	-1.042159e+03
6.900000e-07	-1.899449e-06	-1.528631e-08	-1.371413e+01	-1.009089e+03
7.000000e-07	-1.752364e-06	-1.473714e-08	-1.265217e+01	-9.730767e+02
7.100000e-07	-1.604749e-06	-1.414969e-08	-1.158638e+01	-9.337917e+02
7.200000e-07	-1.456656e-06	-1.351544e-08	-1.051714e+01	-8.909994e+02
7.300000e-07	-1.308191e-06	-1.282878e-08	-9.445217e+00	-8.445855e+02
7.400000e-07	-1.159383e-06	-1.208719e-08	-8.370812e+00	-7.945654e+02
7.500000e-07	-1.010181e-06	-1.128834e-08	-7.293564e+00	-7.410785e+02
7.600000e-07	-8.606209e-07	-1.043595e-08	-6.213732e+00	-6.843680e+02
7.700000e-07	-7.108234e-07	-9.528252e-09	-5.132186e+00	-6.247482e+02
7.800000e-07	-5.607622e-07	-8.566900e-09	-4.048736e+00	-5.625661e+02
7.900000e-07	-4.104548e-07	-7.557412e-09	-2.963507e+00	-4.981592e+02
8.000000e-07	-2.599759e-07	-6.510565e-09	-1.877041e+00	-4.318202e+02
8.100000e-07	-1.093158e-07	-5.436360e-09	-7.892667e-01	-3.637698e+02
8.200000e-07	4.142736e-08	-4.349967e-09	2.991079e-01	-2.941452e+02
8.300000e-07	1.921915e-07	-3.262066e-09	1.387633e+00	-2.230040e+02
8.400000e-07	3.428817e-07	-2.172294e-09	2.475626e+00	-1.503454e+02
8.500000e-07	4.933916e-07	-1.077105e-09	3.562316e+00	-7.614421e+01
8.600000e-07	6.437254e-07	3.104763e-11	4.647735e+00	-3.942074e-01
8.700000e-07	7.938684e-07	1.161143e-09	5.731776e+00	7.684560e+01
8.800000e-07	9.437667e-07	2.324379e-09	6.814051e+00	1.554091e+02
8.900000e-07	1.093321e-06	3.526069e-09	7.893842e+00	2.349916e+02
9.000000e-07	1.242545e-06	4.761817e-09	8.971249e+00	3.151344e+02
9.100000e-07	1.391473e-06	6.019041e-09	1.004651e+01	3.952287e+02
9.200000e-07	1.540011e-06	7.276097e-09	1.111897e+01	4.745389e+02
9.300000e-07	1.687985e-06	8.504053e-09	1.218735e+01	5.522447e+02
9.400000e-07	1.835232e-06	9.675092e-09	1.325048e+01	6.274967e+02
9.500000e-07	1.981793e-06	1.077135e-08	1.430866e+01	6.994790e+02
9.600000e-07	2.127722e-06	1.178601e-08	1.536228e+01	7.674731e+02
9.700000e-07	2.272894e-06	1.271826e-08	1.641043e+01	8.309127e+02
9.800000e-07	2.417164e-06	1.357059e-08	1.745206e+01	8.894269e+02
9.900000e-07	2.560476e-06	1.434878e-08	1.848679e+01	9.428621e+02
1.000000e-06	2.702776e-06	1.506020e-08	1.951420e+01	9.912849e+02
1.010000e-06	2.844069e-06	1.571209e-08	2.053434e+01	1.034962e+03
1.020000e-06	2.984144e-06	1.631139e-08	2.154570e+01	1.074324e+03
1.030000e-06	3.122825e-06	1.686463e-08	2.254697e+01	1.109912e+03
1.040000e-06	3.260354e-06	1.737638e-08	2.353994e+01	1.142321e+03
1.050000e-06	3.396722e-06	1.785050e-08	2.452453e+01	1.172142e+03
1.060000e-06	3.531713e-06	1.829275e-08	2.549917e+01	1.199909e+03
1.070000e-06	3.665414e-06	1.870456e-08	2.646450e+01	1.226062e+03
1.080000e-06	3.797923e-06	1.908868e-08	2.742122e+01	1.250922e+03
1.090000e-06	3.928998e-06	1.944840e-08	2.836759e+01	1.274687e+03
1.100000e-06	4.058633e-06	1.978656e-08	2.930356e+01	1.297439e+03
1.110000e-06	4.186863e-06	2.010457e-08	3.022939e+01	1.319171e+03
1.120000e-06	4.313589e-06	2.040448e-08	3.114436e+01	1.339819e+03
1.130000e-06	4.438923e-06	2.068583e-08	3.204928e+01	1.359295e+03
1.140000e-06	4.562784e-06	2.094981e-08	3.294356e+01	1.377525e+03
1.150000e-06	4.684995e-06	2.120134e-08	3.382593e+01	1.394470e+03
1.160000e-06	4.805521e-06	2.143965e-08	3.469614e+01	1.410149e+03
1.170000e-06	4.924342e-06	2.166467e-08	3.555403e+01	1.424637e+03
1.180000e-06	5.041432e-06	2.187573e-08	3.639943e+01	1.438065e+03
1.190000e-06	5.156600e-06	2.207520e-08	3.723095e+01	1.450600e+03
1.200000e-06	5.269630e-06	2.226260e-08	3.804703e+01	1.462422e+03
1.210000e-06	5.380637e-06	2.244074e-08	3.884851e+01	1.473705e+03
1.220000e-06	5.489832e-06	2.261260e-08	3.963691e+01	1.484591e+03
1.230000e-06	5.597202e-06	2.277742e-08	4.041212e+01	1.495176e+03
1.240000e-06	5.702496e-06	2.293566e-08	4.117235e+01	1.505500e+03
1.250000e-06	5.805584e-06	2.308554e-08	4.191665e+01	1.515551e+03
1.260000e-06	5.906559e-06	2.322544e-08	4.264569e+01	1.525273e+03
1.270000e-06	6.005393e-06	2.335536e-08	4.335929e+01	1.534581e+03
1.280000e-06	6.101870e-06	2.347856e-08	4.405585e+01	1.543381e+03
1.290000e-06	6.196079e-06	2.359739e-08	4.473605e+01	1.551591e+03
1.300000e-06	6.288194e-06	2.371055e-08	4.540113e+01	1.559161e+03
1.310000e-06	6.378026e-06	2.381646e-08	4.604971e+01	1.566077e+03
1.320000e-06	6.465539e-06	2.391493e-08	4.668156e+01	1.572373e+03
1.330000e-06	6.550838e-06	2.400640e-08	4.729743e+01	1.578122e+03
1.340000e-06	6.633916e-06	2.409370e-08	4.789726e+01	1.583431e+03
1.350000e-06	6.714556e-06	2.417906e-08	4.847948e+01	1.588421e+03
1.360000e-06	6.792631e-06	2.426057e-08	4.904319e+01	1.593209e+03
1.370000e-06	6.868146e-06	2.433790e-08	4.958841e+01	1.597896e+03
1.380000e-06	6.940997e-06	2.441045e-08	5.011440e+01	1.602549e+03
1.390000e-06	7.011359e-06	2.447862e-08	5.062242e+01	1.607195e+03
1.400000e-06	7.079333e-06	2.454484e-08	5.111320e+01	1.611817e+03
1.410000e-06	7.144689e-06	2.460826e-08	5.158507e+01	1.616365e+03
1.420000e-06	7.207472e-06	2.466824e-08	5.203837e+01	1.620761e+03
1.430000e-06	7.267914e-06	2.472506e-08	5.247476e+01	1.624915e+03
1.440000e-06	7.325854e-06	2.477878e-08	5.289309e+01	1.628744e+03
1.450000e-06	7.381166e-06	2.482813e-08	5.329245e+01	1.632186e+03
1.460000e-06	7.433669e-06	2.487392e-08	5.367152e+01	1.635206e+03
1.470000e-06	7.483111e-06	2.491741e-08	5.402850e+01	1.637807e+03
1.480000e-06	7.529658e-06	2.495760e-08	5.436457e+01	1.640025e+03
1.490000e-06	7.573622e-06	2.499383e-08	5.468199e+01	1.641928e+03
1.500000e-06	7.614882e-06	2.502601e-08	5.497989e+01	1.643596e+03
1.510000e-06	7.653339e-06	2.505566e-08	5.525755e+01	1.645117e+03
1.520000e-06	7.689234e-06	2.508281e-08	5.551672e+01	1.646567e+03
1.530000e-06	7.722445e-06	2.510694e-08	5.575650e+01	1.647999e+03
1.540000e-06	7.752831e-06	2.512919e-08	5.597589e+01	1.649438e+03
1.550000e-06	7.780464e-06	2.514790e-08	5.617540e+01	1.650875e+03
1.560000e-06	7.805251e-06	2.516268e-08	5.635436e+01	1.652272e+03
1.570000e-06	7.827240e-06	2.517482e-08	5.651312e+01	1.653571e+03
1.580000e-06	7.846556e-06	2.518651e-08	5.665259e+01	1.654702e+03
1.590000e-06	7.862990e-06	2.519856e-08	5.677124e+01	1.655599e+03
1.600000e-06	7.876457e-06	2.520729e-08	5.686847e+01	1.656210e+03
1.610000e-06	7.886874e-06	2.521216e-08	5.694368e+01	1.656507e+03
1.620000e-06	7.894199e-06	2.521537e-08	5.699657e+01	1.656492e+03
1.630000e-06	7.898696e-06	2.521865e-08	5.702904e+01	1.656194e+03
1.640000e-06	7.900421e-06	2.522153e-08	5.704150e+01	1.655668e+03
1.650000e-06	7.899333e-06	2.521733e-08	5.703364e+01	1.654981e+03
1.660000e-06	7.895624e-06	2.520717e-08	5.700687e+01	1.654205e+03
1.670000e-06	7.889261e-06	2.520039e-08	5.696092e+01	1.653403e+03
1.680000e-06	7.880247e-06	2.519145e-08	5.689584e+01	1.652618e+03
1.690000e-06	7.868574e-06	2.517880e-08	5.681156e+01	1.651867e+03
1.700000e-06	7.854088e-06	2.516809e-08	5.670697e+01	1.651140e+03
1.710000e-06	7.837052e-06	2.516074e-08	5.658397e+01	1.650402e+03
1.720000e-06	7.817755e-06	2.515504e-08	5.644464e+01	1.649596e+03
1.730000e-06	7.796027e-06	2.508037e-08	5.628777e+01	1.648661e+03
1.740000e-06	7.771270e-06	2.502818e-08	5.610902e+01	1.647536e+03
1.750000e-06	7.742930e-06	2.504314e-08	5.590440e+01	1.646176e+03
1.760000e-06	7.711138e-06	2.503081e-08	5.567487e+01	1.644555e+03
1.770000e-06	7.676698e-06	2.499608e-08	5.542620e+01	1.642676e+03
1.780000e-06	7.640031e-06	2.501552e-08	5.516147e+01	1.640565e+03
1.790000e-06	7.601230e-06	2.502895e-08	5.488132e+01	1.638270e+03
1.800000e-06	7.560496e-06	2.488754e-08	5.458722e+01	1.635849e+03
1.810000e-06	7.517451e-06	2.490964e-08	5.427643e+01	1.633358e+03
1.820000e-06	7.471700e-06	2.490076e-08	5.394611e+01	1.630843e+03
1.830000e-06	7.423344e-06	2.482372e-08	5.359697e+01	1.628325e+03
1.840000e-06	7.372093e-06	2.486561e-08	5.322694e+01	1.625800e+03
1.850000e-06	7.317888e-06	2.477330e-08	5.283557e+01	1.623233e+03
1.860000e-06	7.260960e-06	2.477730e-08	5.242455e+01	1.620563e+03
1.870000e-06	7.201356e-06	2.470764e-08	5.199421e+01	1.617712e+03
1.880000e-06	7.139139e-06	2.459325e-08	5.154500e+01	1.614596e+03
1.890000e-06	7.074165e-06	2.458929e-08	5.107588e+01	1.611141e+03
1.900000e-06	7.006422e-06	2.449136e-08	5.058677e+01	1.607290e+03
1.910000e-06	6.935959e-06	2.445292e-08	5.007802e+01	1.603015e+03
1.920000e-06	6.862830e-06	2.438822e-08	4.955003e+01	1.598324e+03
1.930000e-06	6.787026e-06	2.433687e-08	4.900272e+01	1.593253e+03
1.940000e-06	6.708497e-06	2.426925e-08	4.843574e+01	1.587869e+03
1.950000e-06	6.627430e-06	2.414457e-08	4.785043e+01	1.582250e+03
1.960000e-06	6.543890e-06	2.408173e-08	4.724726e+01	1.576476e+03
1.970000e-06	6.457966e-06	2.398197e-08	4.662689e+01	1.570614e+03
1.980000e-06	6.369676e-06	2.391980e-08	4.598943e+01	1.564702e+03
1.990000e-06	6.279092e-06	2.382501e-08	4.533541e+01	1.558747e+03
2.000000e-06	6.186307e-06	2.372774e-08	4.466549e+01	1.552715e+03
2.010000e-06	6.091316e-06	2.363235e-08	4.397965e+01	1.546537e+03
2.020000e-06	5.994195e-06	2.351431e-08	4.327844e+01	1.540121e+03
2.030000e-06	5.894904e-06	2.340555e-08	4.256155e+01	1.533361e+03
2.040000e-06	5.793517e-06	2.328957e-08	4.182953e+01	1.526153e+03
2.050000e-06	5.690125e-06	2.318315e-08	4.108303e+01	1.518414e+03
2.060000e-06	5.584775e-06	2.304300e-08	4.032240e+01	1.510093e+03
2.070000e-06	5.477462e-06	2.290833e-08	3.954759e+01	1.501174e+03
2.080000e-06	5.368218e-06	2.276920e-08	3.875885e+01	1.491685e+03
2.090000e-06	5.257030e-06	2.263232e-08	3.795606e+01	1.481683e+03
2.100000e-06	5.143800e-06	2.248434e-08	3.713854e+01	1.471247e+03
2.110000e-06	5.028637e-06	2.233175e-08	3.630705e+01	1.460463e+03
2.120000e-06	4.911636e-06	2.217075e-08	3.546230e+01	1.449399e+03
2.130000e-06	4.792801e-06	2.199094e-08	3.460430e+01	1.438096e+03
2.140000e-06	4.672128e-06	2.180696e-08	3.373303e+01	1.426552e+03
2.150000e-06	4.549720e-06	2.162165e-08	3.284924e+01	1.414715e+03
2.160000e-06	4.425622e-06	2.143509e-08	3.195324e+01	1.402490e+03
2.170000e-06	4.299954e-06	2.123169e-08	3.104592e+01	1.389744e+03
2.180000e-06	4.172710e-06	2.102181e-08	3.012721e+01	1.376324e+03
2.190000e-06	4.043855e-06	2.080138e-08	2.919687e+01	1.362076e+03
2.200000e-06	3.913534e-06	2.056973e-08	2.825594e+01	1.346868e+03
2.210000e-06	3.781670e-06	2.032065e-08	2.730388e+01	1.330605e+03
2.220000e-06	3.648358e-06	2.006254e-08	2.634136e+01	1.313241e+03
2.230000e-06	3.513797e-06	1.979389e-08	2.536982e+01	1.294780e+03
2.240000e-06	3.377980e-06	1.950956e-08	2.438921e+01	1.275273e+03
2.250000e-06	3.240834e-06	1.920967e-08	2.339901e+01	1.254799e+03
2.260000e-06	3.102397e-06	1.889452e-08	2.239948e+01	1.233437e+03
2.270000e-06	2.962743e-06	1.856525e-08	2.139117e+01	1.211248e+03
2.280000e-06	2.821954e-06	1.821781e-08	2.037467e+01	1.188238e+03
2.290000e-06	2.680168e-06	1.785280e-08	1.935097e+01	1.164340e+03
2.300000e-06	2.537411e-06	1.746642e-08	1.832026e+01	1.139397e+03
2.310000e-06	2.393668e-06	1.705414e-08	1.728242e+01	1.113161e+03
2.320000e-06	2.249028e-06	1.661006e-08	1.623811e+01	1.085302e+03
2.330000e-06	2.103631e-06	1.613379e-08	1.518834e+01	1.055429e+03
2.340000e-06	1.957601e-06	1.562686e-08	1.413399e+01	1.023128e+03
2.350000e-06	1.810971e-06	1.508650e-08	1.307531e+01	9.879916e+02
2.360000e-06	1.663681e-06	1.451062e-08	1.201188e+01	9.496685e+02
2.370000e-06	1.515710e-06	1.389166e-08	1.094351e+01	9.078936e+02
2.380000e-06	1.367166e-06	1.322295e-08	9.871020e+00	8.625165e+02
2.390000e-06	1.218207e-06	1.250081e-08	8.795523e+00	8.135158e+02
2.400000e-06	1.068903e-06	1.172157e-08	7.717541e+00	7.609967e+02
2.410000e-06	9.193261e-07	1.088625e-08	6.637588e+00	7.051756e+02
2.420000e-06	7.694739e-07	9.994218e-09	5.555646e+00	6.463504e+02
2.430000e-06	6.193989e-07	9.046220e-09	4.472096e+00	5.848628e+02
2.440000e-06	4.691699e-07	8.045338e-09	3.387434e+00	5.210572e+02
2.450000e-06	3.187667e-07	7.003003e-09	2.301514e+00	4.552422e+02
2.460000e-06	1.682444e-07	5.932691e-09	1.214735e+00	3.876612e+02
2.470000e-06	1.764841e-08	4.844683e-09	1.274225e-01	3.184753e+02
2.480000e-06	-1.329659e-07	3.751152e-09	-9.600215e-01	2.477635e+02
2.490000e-06	-2.835193e-07	2.656728e-09	-2.047026e+00	1.755388e+02
2.500000e-06	-4.339917e-07	1.557563e-09	-3.133445e+00	1.017787e+02
2.510000e-06	-5.843217e-07	4.475834e-10	-4.218837e+00	2.646695e+01
2.520000e-06	-7.344837e-07	-6.814006e-10	-5.303015e+00	-5.036070e+01
2.530000e-06	-8.844979e-07	-1.839433e-09	-6.386126e+00	-1.285725e+02
2.540000e-06	-1.034271e-06	-3.034131e-09	-7.467498e+00	-2.079058e+02
2.550000e-06	-1.183717e-06	-4.263232e-09	-8.546502e+00	-2.879463e+02
2.560000e-06	-1.332782e-06	-5.515059e-09	-9.622763e+00	-3.681265e+02
2.570000e-06	-1.481346e-06	-6.774644e-09	-1.069540e+01	-4.477436e+02
2.580000e-06	-1.629376e-06	-8.019383e-09	-1.176419e+01	-5.259963e+02
2.590000e-06	-1.776802e-06	-9.222470e-09	-1.282861e+01	-6.020373e+02
2.600000e-06	-1.923459e-06	-1.035955e-08	-1.388749e+01	-6.750345e+02
2.610000e-06	-2.069387e-06	-1.141496e-08	-1.494109e+01	-7.442353e+02
2.620000e-06	-2.214690e-06	-1.238347e-08	-1.599019e+01	-8.090252e+02
2.630000e-06	-2.359191e-06	-1.326731e-08	-1.703349e+01	-8.689740e+02
2.640000e-06	-2.502597e-06	-1.407338e-08	-1.806889e+01	-9.238649e+02
2.650000e-06	-2.644920e-06	-1.481081e-08	-1.909648e+01	-9.737028e+02
2.660000e-06	-2.786279e-06	-1.548812e-08	-2.011709e+01	-1.018700e+03
2.670000e-06	-2.926578e-06	-1.611103e-08	-2.113006e+01	-1.059246e+03
2.680000e-06	-3.065598e-06	-1.668513e-08	-2.213380e+01	-1.095854e+03
2.690000e-06	-3.203444e-06	-1.721439e-08	-2.312905e+01	-1.129112e+03
2.700000e-06	-3.340114e-06	-1.770307e-08	-2.411582e+01	-1.159616e+03
2.710000e-06	-3.475384e-06	-1.815730e-08	-2.509248e+01	-1.187922e+03
2.720000e-06	-3.609429e-06	-1.858057e-08	-2.606029e+01	-1.214501e+03
2.730000e-06	-3.742275e-06	-1.897590e-08	-2.701944e+01	-1.239707e+03
2.740000e-06	-3.873726e-06	-1.934326e-08	-2.796853e+01	-1.263773e+03
2.750000e-06	-4.003874e-06	-1.968547e-08	-2.890820e+01	-1.286814e+03
2.760000e-06	-4.132703e-06	-2.000928e-08	-2.983836e+01	-1.308844e+03
2.770000e-06	-4.259955e-06	-2.031683e-08	-3.075712e+01	-1.329812e+03
2.780000e-06	-4.385742e-06	-2.060695e-08	-3.166531e+01	-1.349634e+03
2.790000e-06	-4.510111e-06	-2.087968e-08	-3.256326e+01	-1.368227e+03
2.800000e-06	-4.632887e-06	-2.113600e-08	-3.344971e+01	-1.385542e+03
2.810000e-06	-4.754053e-06	-2.137831e-08	-3.432454e+01	-1.401580e+03
2.820000e-06	-4.873394e-06	-2.160947e-08	-3.518619e+01	-1.416399e+03
2.830000e-06	-4.990763e-06	-2.182993e-08	-3.603360e+01	-1.430116e+03
2.840000e-06	-5.106179e-06	-2.203962e-08	-3.686690e+01	-1.442890e+03
2.850000e-06	-5.219493e-06	-2.223739e-08	-3.768504e+01	-1.454899e+03
2.860000e-06	-5.330692e-06	-2.242245e-08	-3.848790e+01	-1.466322e+03
2.870000e-06	-5.439944e-06	-2.259584e-08	-3.927671e+01	-1.477311e+03
2.880000e-06	-5.547372e-06	-2.276014e-08	-4.005234e+01	-1.487977e+03
2.890000e-06	-5.652913e-06	-2.291630e-08	-4.081436e+01	-1.498377e+03
2.900000e-06	-5.756364e-06	-2.306639e-08	-4.156128e+01	-1.508512e+03
2.910000e-06	-5.857593e-06	-2.321156e-08	-4.229216e+01	-1.518338e+03
2.920000e-06	-5.956697e-06	-2.334952e-08	-4.300770e+01	-1.527775e+03
2.930000e-06	-6.053759e-06	-2.347946e-08	-4.370849e+01	-1.536731e+03
2.940000e-06	-6.148587e-06	-2.360095e-08	-4.439316e+01	-1.545119e+03
