# Temperatura_=_35.02
# Concentracion g/m^3_=_28370.0
# C_Vs_to_Am_M_A/Vsm_=_65563218390.804596
# pendiente_HvsI_1/m_=_3716.3
# ordenada_HvsI_A/m_=_1297.0
# frecuencia_Hz_=_302507.48056979006

Tiempo_(s)	Campo_(V.s)	Magnetizacion_(V.s)	Campo_(kA/m)	Magnetizacion_(A/m)
0.000000e+00	-7.892398e-06	-2.397976e-08	-5.684242e+01	-1.569792e+03
1.000000e-08	-7.887879e-06	-2.397743e-08	-5.680987e+01	-1.569049e+03
2.000000e-08	-7.880908e-06	-2.396957e-08	-5.675966e+01	-1.568299e+03
3.000000e-08	-7.871289e-06	-2.396090e-08	-5.669038e+01	-1.567584e+03
4.000000e-08	-7.858795e-06	-2.394883e-08	-5.660040e+01	-1.566920e+03
5.000000e-08	-7.843294e-06	-2.393151e-08	-5.648876e+01	-1.566294e+03
6.000000e-08	-7.825104e-06	-2.390988e-08	-5.635776e+01	-1.565665e+03
7.000000e-08	-7.804729e-06	-2.388277e-08	-5.621101e+01	-1.564978e+03
8.000000e-08	-7.781981e-06	-2.388097e-08	-5.604717e+01	-1.564166e+03
9.000000e-08	-7.756292e-06	-2.393427e-08	-5.586215e+01	-1.563168e+03
1.000000e-07	-7.727414e-06	-2.388498e-08	-5.565417e+01	-1.561937e+03
1.100000e-07	-7.695609e-06	-2.380674e-08	-5.542511e+01	-1.560450e+03
1.200000e-07	-7.661040e-06	-2.378997e-08	-5.517613e+01	-1.558709e+03
1.300000e-07	-7.623877e-06	-2.376261e-08	-5.490848e+01	-1.556743e+03
1.400000e-07	-7.584534e-06	-2.368607e-08	-5.462513e+01	-1.554601e+03
1.500000e-07	-7.542986e-06	-2.362415e-08	-5.432589e+01	-1.552341e+03
1.600000e-07	-7.498939e-06	-2.370973e-08	-5.400865e+01	-1.550022e+03
1.700000e-07	-7.452312e-06	-2.364049e-08	-5.367284e+01	-1.547690e+03
1.800000e-07	-7.402935e-06	-2.352812e-08	-5.331722e+01	-1.545366e+03
1.900000e-07	-7.350600e-06	-2.357390e-08	-5.294029e+01	-1.543047e+03
2.000000e-07	-7.295442e-06	-2.348553e-08	-5.254303e+01	-1.540697e+03
2.100000e-07	-7.237589e-06	-2.343343e-08	-5.212637e+01	-1.538256e+03
2.200000e-07	-7.177077e-06	-2.341377e-08	-5.169055e+01	-1.535645e+03
2.300000e-07	-7.114033e-06	-2.335858e-08	-5.123650e+01	-1.532782e+03
2.400000e-07	-7.048286e-06	-2.330948e-08	-5.076297e+01	-1.529594e+03
2.500000e-07	-6.979805e-06	-2.320797e-08	-5.026977e+01	-1.526024e+03
2.600000e-07	-6.908655e-06	-2.319128e-08	-4.975733e+01	-1.522050e+03
2.700000e-07	-6.834717e-06	-2.311958e-08	-4.922481e+01	-1.517678e+03
2.800000e-07	-6.758104e-06	-2.303100e-08	-4.867304e+01	-1.512949e+03
2.900000e-07	-6.678727e-06	-2.296430e-08	-4.810135e+01	-1.507928e+03
3.000000e-07	-6.596658e-06	-2.289808e-08	-4.751027e+01	-1.502695e+03
3.100000e-07	-6.512358e-06	-2.283084e-08	-4.690313e+01	-1.497327e+03
3.200000e-07	-6.425933e-06	-2.272247e-08	-4.628068e+01	-1.491889e+03
3.300000e-07	-6.337148e-06	-2.267845e-08	-4.564124e+01	-1.486417e+03
3.400000e-07	-6.246020e-06	-2.258906e-08	-4.498491e+01	-1.480911e+03
3.500000e-07	-6.152695e-06	-2.248170e-08	-4.431277e+01	-1.475334e+03
3.600000e-07	-6.057125e-06	-2.239118e-08	-4.362446e+01	-1.469615e+03
3.700000e-07	-5.959302e-06	-2.229768e-08	-4.291992e+01	-1.463657e+03
3.800000e-07	-5.859339e-06	-2.219301e-08	-4.219997e+01	-1.457354e+03
3.900000e-07	-5.757349e-06	-2.207608e-08	-4.146543e+01	-1.450604e+03
4.000000e-07	-5.653322e-06	-2.197779e-08	-4.071621e+01	-1.443325e+03
4.100000e-07	-5.547200e-06	-2.184883e-08	-3.995189e+01	-1.435469e+03
4.200000e-07	-5.439056e-06	-2.172213e-08	-3.917302e+01	-1.427028e+03
4.300000e-07	-5.329058e-06	-2.159535e-08	-3.838080e+01	-1.418031e+03
4.400000e-07	-5.217146e-06	-2.146961e-08	-3.757479e+01	-1.408542e+03
4.500000e-07	-5.103235e-06	-2.131990e-08	-3.675438e+01	-1.398643e+03
4.600000e-07	-4.987357e-06	-2.116319e-08	-3.591981e+01	-1.388421e+03
4.700000e-07	-4.869622e-06	-2.100678e-08	-3.507186e+01	-1.377944e+03
4.800000e-07	-4.750168e-06	-2.083989e-08	-3.421153e+01	-1.367251e+03
4.900000e-07	-4.628934e-06	-2.067058e-08	-3.333839e+01	-1.356335e+03
5.000000e-07	-4.505913e-06	-2.049671e-08	-3.245237e+01	-1.345140e+03
5.100000e-07	-4.381268e-06	-2.031976e-08	-3.155465e+01	-1.333564e+03
5.200000e-07	-4.255130e-06	-2.011833e-08	-3.064618e+01	-1.321470e+03
5.300000e-07	-4.127452e-06	-1.990725e-08	-2.972662e+01	-1.308701e+03
5.400000e-07	-3.998215e-06	-1.968867e-08	-2.879584e+01	-1.295101e+03
5.500000e-07	-3.867418e-06	-1.946450e-08	-2.785381e+01	-1.280538e+03
5.600000e-07	-3.735111e-06	-1.922285e-08	-2.690091e+01	-1.264920e+03
5.700000e-07	-3.601478e-06	-1.896913e-08	-2.593847e+01	-1.248202e+03
5.800000e-07	-3.466513e-06	-1.870513e-08	-2.496643e+01	-1.230396e+03
5.900000e-07	-3.330175e-06	-1.842996e-08	-2.398450e+01	-1.211556e+03
6.000000e-07	-3.192485e-06	-1.814422e-08	-2.299283e+01	-1.191762e+03
6.100000e-07	-3.053486e-06	-1.784330e-08	-2.199174e+01	-1.171097e+03
6.200000e-07	-2.913238e-06	-1.752658e-08	-2.098164e+01	-1.149618e+03
6.300000e-07	-2.771704e-06	-1.718218e-08	-1.996229e+01	-1.127325e+03
6.400000e-07	-2.628986e-06	-1.681532e-08	-1.893441e+01	-1.104144e+03
6.500000e-07	-2.485298e-06	-1.642539e-08	-1.789955e+01	-1.079908e+03
6.600000e-07	-2.340679e-06	-1.601692e-08	-1.685797e+01	-1.054360e+03
6.700000e-07	-2.195271e-06	-1.558504e-08	-1.581072e+01	-1.027160e+03
6.800000e-07	-2.049205e-06	-1.512544e-08	-1.475873e+01	-9.979149e+02
6.900000e-07	-1.902427e-06	-1.463616e-08	-1.370161e+01	-9.662105e+02
7.000000e-07	-1.755010e-06	-1.410813e-08	-1.263989e+01	-9.316520e+02
7.100000e-07	-1.607041e-06	-1.354394e-08	-1.157418e+01	-8.939064e+02
7.200000e-07	-1.458602e-06	-1.293256e-08	-1.050510e+01	-8.527388e+02
7.300000e-07	-1.309770e-06	-1.227037e-08	-9.433193e+00	-8.080387e+02
7.400000e-07	-1.160593e-06	-1.155524e-08	-8.358791e+00	-7.598324e+02
7.500000e-07	-1.011101e-06	-1.078773e-08	-7.282126e+00	-7.082796e+02
7.600000e-07	-8.612631e-07	-9.968156e-09	-6.202966e+00	-6.536539e+02
7.700000e-07	-7.110964e-07	-9.096612e-09	-5.121439e+00	-5.963100e+02
7.800000e-07	-5.606116e-07	-8.177797e-09	-4.037622e+00	-5.366418e+02
7.900000e-07	-4.098522e-07	-7.213658e-09	-2.951826e+00	-4.750371e+02
8.000000e-07	-2.589011e-07	-6.215371e-09	-1.864651e+00	-4.118364e+02
8.100000e-07	-1.078516e-07	-5.194351e-09	-7.767660e-01	-3.472996e+02
8.200000e-07	4.327669e-08	-4.166644e-09	3.116862e-01	-2.815880e+02
8.300000e-07	1.944625e-07	-3.140965e-09	1.400553e+00	-2.147632e+02
8.400000e-07	3.455992e-07	-2.120177e-09	2.489065e+00	-1.468033e+02
8.500000e-07	4.965836e-07	-1.098208e-09	3.576481e+00	-7.763560e+01
8.600000e-07	6.473969e-07	-6.592038e-11	4.662665e+00	-7.180356e+00
8.700000e-07	7.980072e-07	9.836404e-10	5.747386e+00	6.460011e+01
8.800000e-07	9.483211e-07	2.059904e-09	6.829973e+00	1.376536e+02
8.900000e-07	1.098333e-06	3.171100e-09	7.910381e+00	2.117992e+02
9.000000e-07	1.247948e-06	4.319279e-09	8.987938e+00	2.867027e+02
9.100000e-07	1.397113e-06	5.495680e-09	1.006225e+01	3.618710e+02
9.200000e-07	1.545815e-06	6.682695e-09	1.113322e+01	4.366673e+02
9.300000e-07	1.693994e-06	7.850894e-09	1.220044e+01	5.103457e+02
9.400000e-07	1.841619e-06	8.973884e-09	1.326366e+01	5.821018e+02
9.500000e-07	1.988634e-06	1.003082e-08	1.432248e+01	6.511331e+02
9.600000e-07	2.134922e-06	1.101176e-08	1.537608e+01	7.167036e+02
9.700000e-07	2.280374e-06	1.191748e-08	1.642365e+01	7.782027e+02
9.800000e-07	2.425004e-06	1.274905e-08	1.746530e+01	8.351930e+02
9.900000e-07	2.568688e-06	1.350854e-08	1.850013e+01	8.874410e+02
1.000000e-06	2.711287e-06	1.420100e-08	1.952716e+01	9.349271e+02
1.010000e-06	2.852784e-06	1.483780e-08	2.054624e+01	9.778346e+02
1.020000e-06	2.993109e-06	1.542503e-08	2.155689e+01	1.016519e+03
1.030000e-06	3.132275e-06	1.596726e-08	2.255918e+01	1.051461e+03
1.040000e-06	3.270251e-06	1.646868e-08	2.355291e+01	1.083213e+03
1.050000e-06	3.406959e-06	1.693145e-08	2.453751e+01	1.112342e+03
1.060000e-06	3.542366e-06	1.736121e-08	2.551273e+01	1.139376e+03
1.070000e-06	3.676419e-06	1.776164e-08	2.647820e+01	1.164761e+03
1.080000e-06	3.809134e-06	1.813731e-08	2.743404e+01	1.188835e+03
1.090000e-06	3.940484e-06	1.848872e-08	2.838005e+01	1.211817e+03
1.100000e-06	4.070471e-06	1.881811e-08	2.931623e+01	1.233812e+03
1.110000e-06	4.199019e-06	1.912589e-08	3.024206e+01	1.254830e+03
1.120000e-06	4.326032e-06	1.941493e-08	3.115683e+01	1.274818e+03
1.130000e-06	4.451605e-06	1.968810e-08	3.206123e+01	1.293692e+03
1.140000e-06	4.575677e-06	1.994672e-08	3.295482e+01	1.311371e+03
1.150000e-06	4.698217e-06	2.018977e-08	3.383737e+01	1.327808e+03
1.160000e-06	4.819153e-06	2.041816e-08	3.470838e+01	1.343003e+03
1.170000e-06	4.938321e-06	2.063213e-08	3.556665e+01	1.357017e+03
1.180000e-06	5.055593e-06	2.083251e-08	3.641126e+01	1.369964e+03
1.190000e-06	5.170900e-06	2.102301e-08	3.724171e+01	1.381998e+03
1.200000e-06	5.284239e-06	2.120436e-08	3.805800e+01	1.393294e+03
1.210000e-06	5.395553e-06	2.137863e-08	3.885971e+01	1.404024e+03
1.220000e-06	5.504951e-06	2.154437e-08	3.964761e+01	1.414337e+03
1.230000e-06	5.612439e-06	2.170255e-08	4.042176e+01	1.424337e+03
1.240000e-06	5.717898e-06	2.185340e-08	4.118129e+01	1.434078e+03
1.250000e-06	5.821240e-06	2.199644e-08	4.192558e+01	1.443559e+03
1.260000e-06	5.922466e-06	2.212954e-08	4.265463e+01	1.452736e+03
1.270000e-06	6.021547e-06	2.225222e-08	4.336822e+01	1.461533e+03
1.280000e-06	6.118295e-06	2.236656e-08	4.406502e+01	1.469861e+03
1.290000e-06	6.212783e-06	2.247451e-08	4.474554e+01	1.477641e+03
1.300000e-06	6.305058e-06	2.257849e-08	4.541012e+01	1.484815e+03
1.310000e-06	6.395070e-06	2.267717e-08	4.605840e+01	1.491368e+03
1.320000e-06	6.482767e-06	2.277022e-08	4.669001e+01	1.497324e+03
1.330000e-06	6.568180e-06	2.285778e-08	4.730517e+01	1.502749e+03
1.340000e-06	6.651351e-06	2.294201e-08	4.790418e+01	1.507744e+03
1.350000e-06	6.732097e-06	2.302333e-08	4.848573e+01	1.512425e+03
1.360000e-06	6.810312e-06	2.309895e-08	4.904904e+01	1.516909e+03
1.370000e-06	6.885960e-06	2.317142e-08	4.959387e+01	1.521296e+03
1.380000e-06	6.958973e-06	2.323968e-08	5.011973e+01	1.525656e+03
1.390000e-06	7.029500e-06	2.330408e-08	5.062768e+01	1.530020e+03
1.400000e-06	7.097616e-06	2.336554e-08	5.111826e+01	1.534375e+03
1.410000e-06	7.163135e-06	2.342389e-08	5.159014e+01	1.538671e+03
1.420000e-06	7.226101e-06	2.348125e-08	5.204363e+01	1.542831e+03
1.430000e-06	7.286635e-06	2.353467e-08	5.247961e+01	1.546765e+03
1.440000e-06	7.344621e-06	2.358509e-08	5.289723e+01	1.550387e+03
1.450000e-06	7.399980e-06	2.363205e-08	5.329594e+01	1.553626e+03
1.460000e-06	7.452593e-06	2.367431e-08	5.367487e+01	1.556445e+03
1.470000e-06	7.502155e-06	2.371274e-08	5.403181e+01	1.558841e+03
1.480000e-06	7.548821e-06	2.374648e-08	5.436791e+01	1.560848e+03
1.490000e-06	7.592878e-06	2.377770e-08	5.468522e+01	1.562530e+03
1.500000e-06	7.634203e-06	2.380740e-08	5.498285e+01	1.563971e+03
1.510000e-06	7.672789e-06	2.383529e-08	5.526076e+01	1.565262e+03
1.520000e-06	7.708737e-06	2.386007e-08	5.551966e+01	1.566487e+03
1.530000e-06	7.741877e-06	2.388197e-08	5.575834e+01	1.567706e+03
1.540000e-06	7.772249e-06	2.390205e-08	5.597708e+01	1.568953e+03
1.550000e-06	7.800032e-06	2.391861e-08	5.617718e+01	1.570227e+03
1.560000e-06	7.824947e-06	2.393218e-08	5.635662e+01	1.571495e+03
1.570000e-06	7.846979e-06	2.394351e-08	5.651530e+01	1.572701e+03
1.580000e-06	7.866314e-06	2.395318e-08	5.665455e+01	1.573776e+03
1.590000e-06	7.882750e-06	2.396289e-08	5.677293e+01	1.574649e+03
1.600000e-06	7.896161e-06	2.396992e-08	5.686952e+01	1.575263e+03
1.610000e-06	7.906449e-06	2.397413e-08	5.694361e+01	1.575582e+03
1.620000e-06	7.913724e-06	2.397822e-08	5.699601e+01	1.575602e+03
1.630000e-06	7.918288e-06	2.398308e-08	5.702888e+01	1.575346e+03
1.640000e-06	7.920040e-06	2.398676e-08	5.704150e+01	1.574862e+03
1.650000e-06	7.918966e-06	2.398526e-08	5.703376e+01	1.574218e+03
1.660000e-06	7.915296e-06	2.397263e-08	5.700733e+01	1.573485e+03
1.670000e-06	7.908935e-06	2.396679e-08	5.696152e+01	1.572730e+03
1.680000e-06	7.899907e-06	2.396077e-08	5.689650e+01	1.572001e+03
1.690000e-06	7.888200e-06	2.394968e-08	5.681218e+01	1.571321e+03
1.700000e-06	7.873674e-06	2.393988e-08	5.670756e+01	1.570684e+03
1.710000e-06	7.856624e-06	2.393754e-08	5.658476e+01	1.570060e+03
1.720000e-06	7.837380e-06	2.393782e-08	5.644616e+01	1.569394e+03
1.730000e-06	7.815647e-06	2.386507e-08	5.628964e+01	1.568622e+03
1.740000e-06	7.790816e-06	2.378485e-08	5.611080e+01	1.567681e+03
1.750000e-06	7.762409e-06	2.383045e-08	5.590621e+01	1.566519e+03
1.760000e-06	7.730514e-06	2.383007e-08	5.567650e+01	1.565104e+03
1.770000e-06	7.696012e-06	2.377370e-08	5.542801e+01	1.563432e+03
1.780000e-06	7.659311e-06	2.379227e-08	5.516368e+01	1.561524e+03
1.790000e-06	7.620356e-06	2.385648e-08	5.488312e+01	1.559425e+03
1.800000e-06	7.579438e-06	2.370904e-08	5.458843e+01	1.557190e+03
1.810000e-06	7.536307e-06	2.369785e-08	5.427779e+01	1.554881e+03
1.820000e-06	7.490478e-06	2.375353e-08	5.394772e+01	1.552547e+03
1.830000e-06	7.442003e-06	2.361008e-08	5.359859e+01	1.550219e+03
1.840000e-06	7.390579e-06	2.369799e-08	5.322823e+01	1.547899e+03
1.850000e-06	7.336140e-06	2.361231e-08	5.283615e+01	1.545561e+03
1.860000e-06	7.279036e-06	2.356865e-08	5.242488e+01	1.543151e+03
1.870000e-06	7.219368e-06	2.353222e-08	5.199514e+01	1.540595e+03
1.880000e-06	7.157043e-06	2.339015e-08	5.154626e+01	1.537811e+03
1.890000e-06	7.091883e-06	2.346175e-08	5.107696e+01	1.534720e+03
1.900000e-06	7.023989e-06	2.334108e-08	5.058799e+01	1.531262e+03
1.910000e-06	6.953348e-06	2.330818e-08	5.007922e+01	1.527402e+03
1.920000e-06	6.879999e-06	2.327532e-08	4.955094e+01	1.523139e+03
1.930000e-06	6.803994e-06	2.317554e-08	4.900354e+01	1.518505e+03
1.940000e-06	6.725230e-06	2.314001e-08	4.843627e+01	1.513558e+03
1.950000e-06	6.643968e-06	2.301772e-08	4.785101e+01	1.508375e+03
1.960000e-06	6.560312e-06	2.300311e-08	4.724850e+01	1.503037e+03
1.970000e-06	6.474225e-06	2.287543e-08	4.662849e+01	1.497612e+03
1.980000e-06	6.385720e-06	2.279543e-08	4.599106e+01	1.492145e+03
1.990000e-06	6.294954e-06	2.273506e-08	4.533735e+01	1.486649e+03
2.000000e-06	6.202015e-06	2.262955e-08	4.466798e+01	1.481097e+03
2.010000e-06	6.106749e-06	2.255591e-08	4.398186e+01	1.475425e+03
2.020000e-06	6.009324e-06	2.243624e-08	4.328019e+01	1.469545e+03
2.030000e-06	5.909866e-06	2.235310e-08	4.256388e+01	1.463349e+03
2.040000e-06	5.808249e-06	2.221312e-08	4.183202e+01	1.456735e+03
2.050000e-06	5.704464e-06	2.211358e-08	4.108454e+01	1.449612e+03
2.060000e-06	5.598775e-06	2.200151e-08	4.032335e+01	1.441922e+03
2.070000e-06	5.491228e-06	2.188108e-08	3.954878e+01	1.433644e+03
2.080000e-06	5.381680e-06	2.174554e-08	3.875979e+01	1.424799e+03
2.090000e-06	5.270151e-06	2.160896e-08	3.795654e+01	1.415441e+03
2.100000e-06	5.156720e-06	2.148078e-08	3.713959e+01	1.405649e+03
2.110000e-06	5.041346e-06	2.133005e-08	3.630865e+01	1.395509e+03
2.120000e-06	4.923915e-06	2.118787e-08	3.546288e+01	1.385097e+03
2.130000e-06	4.804573e-06	2.102345e-08	3.460337e+01	1.374463e+03
2.140000e-06	4.683534e-06	2.085379e-08	3.373162e+01	1.363612e+03
2.150000e-06	4.560847e-06	2.066196e-08	3.284801e+01	1.352503e+03
2.160000e-06	4.436443e-06	2.048685e-08	3.195203e+01	1.341047e+03
2.170000e-06	4.310331e-06	2.030289e-08	3.104375e+01	1.329115e+03
2.180000e-06	4.182620e-06	2.010828e-08	3.012396e+01	1.316553e+03
2.190000e-06	4.053418e-06	1.989631e-08	2.919342e+01	1.303204e+03
2.200000e-06	3.922755e-06	1.967773e-08	2.825236e+01	1.288926e+03
2.210000e-06	3.790620e-06	1.944485e-08	2.730070e+01	1.273613e+03
2.220000e-06	3.657026e-06	1.919703e-08	2.633854e+01	1.257209e+03
2.230000e-06	3.522080e-06	1.894433e-08	2.536663e+01	1.239709e+03
2.240000e-06	3.385893e-06	1.867446e-08	2.438579e+01	1.221155e+03
2.250000e-06	3.248458e-06	1.838808e-08	2.339596e+01	1.201623e+03
2.260000e-06	3.109720e-06	1.808174e-08	2.239674e+01	1.181197e+03
2.270000e-06	2.969706e-06	1.776846e-08	2.138834e+01	1.159946e+03
2.280000e-06	2.828503e-06	1.744000e-08	2.037137e+01	1.137888e+03
2.290000e-06	2.686169e-06	1.709549e-08	1.934626e+01	1.114971e+03
2.300000e-06	2.542829e-06	1.672379e-08	1.831390e+01	1.091057e+03
2.310000e-06	2.398616e-06	1.632658e-08	1.727525e+01	1.065913e+03
2.320000e-06	2.253640e-06	1.590031e-08	1.623110e+01	1.039222e+03
2.330000e-06	2.107934e-06	1.544485e-08	1.518171e+01	1.010602e+03
2.340000e-06	1.961559e-06	1.495985e-08	1.412749e+01	9.796400e+02
2.350000e-06	1.814578e-06	1.444021e-08	1.306890e+01	9.459325e+02
2.360000e-06	1.666957e-06	1.388478e-08	1.200571e+01	9.091245e+02
2.370000e-06	1.518710e-06	1.328543e-08	1.093801e+01	8.689499e+02
2.380000e-06	1.369948e-06	1.263846e-08	9.866603e+00	8.252606e+02
2.390000e-06	1.220786e-06	1.194455e-08	8.792312e+00	7.780435e+02
2.400000e-06	1.071280e-06	1.119842e-08	7.715541e+00	7.274216e+02
2.410000e-06	9.214037e-07	1.039503e-08	6.636109e+00	6.736387e+02
2.420000e-06	7.711476e-07	9.537074e-09	5.553939e+00	6.170303e+02
2.430000e-06	6.206442e-07	8.628832e-09	4.469987e+00	5.579836e+02
2.440000e-06	4.700068e-07	7.673884e-09	3.385071e+00	4.968929e+02
2.450000e-06	3.191315e-07	6.678995e-09	2.298440e+00	4.341158e+02
2.460000e-06	1.680526e-07	5.661642e-09	1.210344e+00	3.699379e+02
2.470000e-06	1.689030e-08	4.635110e-09	1.216468e-01	3.045497e+02
2.480000e-06	-1.343331e-07	3.603838e-09	-9.674903e-01	2.380402e+02
2.490000e-06	-2.855327e-07	2.574142e-09	-2.056456e+00	1.704087e+02
2.500000e-06	-4.366186e-07	1.545790e-09	-3.144603e+00	1.015930e+02
2.510000e-06	-5.875451e-07	5.121076e-10	-4.231601e+00	3.151041e+01
2.520000e-06	-7.382625e-07	-5.374705e-10	-5.317095e+00	-3.989382e+01
2.530000e-06	-8.886805e-07	-1.613929e-09	-6.400431e+00	-1.125977e+02
2.540000e-06	-1.038789e-06	-2.721269e-09	-7.481535e+00	-1.864602e+02
2.550000e-06	-1.188573e-06	-3.861152e-09	-8.560308e+00	-2.611924e+02
2.560000e-06	-1.337923e-06	-5.029126e-09	-9.635951e+00	-3.363461e+02
2.570000e-06	-1.486801e-06	-6.212569e-09	-1.070820e+01	-4.113227e+02
2.580000e-06	-1.635200e-06	-7.392672e-09	-1.177699e+01	-4.854029e+02
2.590000e-06	-1.782944e-06	-8.541693e-09	-1.284107e+01	-5.577932e+02
2.600000e-06	-1.929906e-06	-9.635101e-09	-1.389952e+01	-6.276841e+02
2.610000e-06	-2.076179e-06	-1.065479e-08	-1.495300e+01	-6.943141e+02
2.620000e-06	-2.221745e-06	-1.159489e-08	-1.600139e+01	-7.570312e+02
2.630000e-06	-2.366480e-06	-1.245707e-08	-1.704380e+01	-8.153446e+02
2.640000e-06	-2.510295e-06	-1.324637e-08	-1.807958e+01	-8.689607e+02
2.650000e-06	-2.653117e-06	-1.397047e-08	-1.910821e+01	-9.177990e+02
2.660000e-06	-2.794942e-06	-1.463465e-08	-2.012965e+01	-9.619871e+02
2.670000e-06	-2.935663e-06	-1.524391e-08	-2.114316e+01	-1.001835e+03
2.680000e-06	-3.075127e-06	-1.580269e-08	-2.214760e+01	-1.037794e+03
2.690000e-06	-3.213344e-06	-1.631501e-08	-2.314306e+01	-1.070401e+03
2.700000e-06	-3.350314e-06	-1.678969e-08	-2.412954e+01	-1.100225e+03
2.710000e-06	-3.486045e-06	-1.723191e-08	-2.510710e+01	-1.127809e+03
2.720000e-06	-3.620545e-06	-1.764437e-08	-2.607579e+01	-1.153628e+03
2.730000e-06	-3.753768e-06	-1.803180e-08	-2.703528e+01	-1.178051e+03
2.740000e-06	-3.885571e-06	-1.839181e-08	-2.798456e+01	-1.201331e+03
2.750000e-06	-4.015932e-06	-1.872617e-08	-2.892344e+01	-1.223605e+03
2.760000e-06	-4.144959e-06	-1.904080e-08	-2.985271e+01	-1.244908e+03
2.770000e-06	-4.272566e-06	-1.933839e-08	-3.077176e+01	-1.265200e+03
2.780000e-06	-4.398724e-06	-1.961721e-08	-3.168037e+01	-1.284402e+03
2.790000e-06	-4.523385e-06	-1.987713e-08	-3.257820e+01	-1.302432e+03
2.800000e-06	-4.646385e-06	-2.012334e-08	-3.346407e+01	-1.319228e+03
2.810000e-06	-4.767756e-06	-2.035889e-08	-3.433820e+01	-1.334776e+03
2.820000e-06	-4.887414e-06	-2.058386e-08	-3.520000e+01	-1.349120e+03
2.830000e-06	-5.005130e-06	-2.079567e-08	-3.604781e+01	-1.362359e+03
2.840000e-06	-5.120816e-06	-2.099365e-08	-3.688100e+01	-1.374638e+03
2.850000e-06	-5.234481e-06	-2.118104e-08	-3.769963e+01	-1.386128e+03
2.860000e-06	-5.346103e-06	-2.135775e-08	-3.850356e+01	-1.397006e+03
2.870000e-06	-5.455650e-06	-2.152274e-08	-3.929253e+01	-1.407427e+03
2.880000e-06	-5.563271e-06	-2.167823e-08	-4.006764e+01	-1.417511e+03
2.890000e-06	-5.669017e-06	-2.182726e-08	-4.082924e+01	-1.427325e+03
2.900000e-06	-5.772711e-06	-2.197097e-08	-4.157606e+01	-1.436885e+03
2.910000e-06	-5.874266e-06	-2.210867e-08	-4.230748e+01	-1.446157e+03
2.920000e-06	-5.973660e-06	-2.223891e-08	-4.302333e+01	-1.455074e+03
2.930000e-06	-6.070896e-06	-2.236274e-08	-4.372365e+01	-1.463547e+03
2.940000e-06	-6.165982e-06	-2.247583e-08	-4.440847e+01	-1.471492e+03
