# Temperatura_=_76.24
# Concentracion g/m^3_=_28370.0
# C_Vs_to_Am_M_A/Vsm_=_65563218390.804596
# pendiente_HvsI_1/m_=_3716.3
# ordenada_HvsI_A/m_=_1297.0
# frecuencia_Hz_=_302505.8803539188

Tiempo_(s)	Campo_(V.s)	Magnetizacion_(V.s)	Campo_(kA/m)	Magnetizacion_(A/m)
0.000000e+00	-7.861728e-06	-2.669577e-08	-5.684712e+01	-1.747244e+03
1.000000e-08	-7.857796e-06	-2.669321e-08	-5.681869e+01	-1.746444e+03
2.000000e-08	-7.851324e-06	-2.668158e-08	-5.677189e+01	-1.745611e+03
3.000000e-08	-7.842185e-06	-2.666799e-08	-5.670581e+01	-1.744779e+03
4.000000e-08	-7.830226e-06	-2.665362e-08	-5.661933e+01	-1.743958e+03
5.000000e-08	-7.815400e-06	-2.663525e-08	-5.651213e+01	-1.743126e+03
6.000000e-08	-7.797883e-06	-2.661101e-08	-5.638547e+01	-1.742243e+03
7.000000e-08	-7.778098e-06	-2.658108e-08	-5.624241e+01	-1.741251e+03
8.000000e-08	-7.756020e-06	-2.655826e-08	-5.608276e+01	-1.740089e+03
9.000000e-08	-7.731104e-06	-2.660987e-08	-5.590260e+01	-1.738703e+03
1.000000e-07	-7.702983e-06	-2.658688e-08	-5.569926e+01	-1.737057e+03
1.100000e-07	-7.671884e-06	-2.649445e-08	-5.547438e+01	-1.735138e+03
1.200000e-07	-7.637953e-06	-2.645567e-08	-5.522903e+01	-1.732959e+03
1.300000e-07	-7.601348e-06	-2.642976e-08	-5.496435e+01	-1.730557e+03
1.400000e-07	-7.562478e-06	-2.636065e-08	-5.468328e+01	-1.727986e+03
1.500000e-07	-7.521410e-06	-2.626504e-08	-5.438632e+01	-1.725304e+03
1.600000e-07	-7.477959e-06	-2.631406e-08	-5.407214e+01	-1.722566e+03
1.700000e-07	-7.431985e-06	-2.628524e-08	-5.373970e+01	-1.719809e+03
1.800000e-07	-7.383289e-06	-2.613872e-08	-5.338759e+01	-1.717043e+03
1.900000e-07	-7.331659e-06	-2.616575e-08	-5.301426e+01	-1.714248e+03
2.000000e-07	-7.277176e-06	-2.610564e-08	-5.262030e+01	-1.711376e+03
2.100000e-07	-7.220008e-06	-2.603622e-08	-5.220693e+01	-1.708354e+03
2.200000e-07	-7.160209e-06	-2.600159e-08	-5.177453e+01	-1.705096e+03
2.300000e-07	-7.097859e-06	-2.589472e-08	-5.132369e+01	-1.701515e+03
2.400000e-07	-7.032877e-06	-2.585979e-08	-5.085381e+01	-1.697536e+03
2.500000e-07	-6.965201e-06	-2.576412e-08	-5.036445e+01	-1.693111e+03
2.600000e-07	-6.894861e-06	-2.570341e-08	-4.985584e+01	-1.688222e+03
2.700000e-07	-6.821776e-06	-2.562632e-08	-4.932736e+01	-1.682889e+03
2.800000e-07	-6.745996e-06	-2.553986e-08	-4.877941e+01	-1.677162e+03
2.900000e-07	-6.667521e-06	-2.544947e-08	-4.821197e+01	-1.671118e+03
3.000000e-07	-6.586307e-06	-2.533920e-08	-4.762472e+01	-1.664842e+03
3.100000e-07	-6.502775e-06	-2.527591e-08	-4.702071e+01	-1.658418e+03
3.200000e-07	-6.417133e-06	-2.517509e-08	-4.640145e+01	-1.651910e+03
3.300000e-07	-6.329209e-06	-2.509518e-08	-4.576567e+01	-1.645350e+03
3.400000e-07	-6.238860e-06	-2.498025e-08	-4.511238e+01	-1.638734e+03
3.500000e-07	-6.146288e-06	-2.485759e-08	-4.444300e+01	-1.632018e+03
3.600000e-07	-6.051590e-06	-2.475772e-08	-4.375825e+01	-1.625122e+03
3.700000e-07	-5.954608e-06	-2.463773e-08	-4.305699e+01	-1.617943e+03
3.800000e-07	-5.855423e-06	-2.451427e-08	-4.233980e+01	-1.610371e+03
3.900000e-07	-5.754200e-06	-2.438601e-08	-4.160786e+01	-1.602302e+03
4.000000e-07	-5.650921e-06	-2.426001e-08	-4.086107e+01	-1.593656e+03
4.100000e-07	-5.545573e-06	-2.410613e-08	-4.009931e+01	-1.584389e+03
4.200000e-07	-5.438256e-06	-2.396377e-08	-3.932331e+01	-1.574497e+03
4.300000e-07	-5.329090e-06	-2.382147e-08	-3.853395e+01	-1.564017e+03
4.400000e-07	-5.218020e-06	-2.366298e-08	-3.773082e+01	-1.553017e+03
4.500000e-07	-5.104991e-06	-2.349133e-08	-3.691352e+01	-1.541584e+03
4.600000e-07	-4.989970e-06	-2.331773e-08	-3.608182e+01	-1.529805e+03
4.700000e-07	-4.872999e-06	-2.313663e-08	-3.523602e+01	-1.517747e+03
4.800000e-07	-4.754321e-06	-2.294433e-08	-3.437787e+01	-1.505446e+03
4.900000e-07	-4.633933e-06	-2.275322e-08	-3.350736e+01	-1.492889e+03
5.000000e-07	-4.511789e-06	-2.255411e-08	-3.262415e+01	-1.480015e+03
5.100000e-07	-4.387915e-06	-2.234084e-08	-3.172844e+01	-1.466717e+03
5.200000e-07	-4.262485e-06	-2.211089e-08	-3.082147e+01	-1.452852e+03
5.300000e-07	-4.135578e-06	-2.187769e-08	-2.990382e+01	-1.438263e+03
5.400000e-07	-4.007168e-06	-2.163108e-08	-2.897531e+01	-1.422794e+03
5.500000e-07	-3.877238e-06	-2.137288e-08	-2.803580e+01	-1.406315e+03
5.600000e-07	-3.745752e-06	-2.110199e-08	-2.708504e+01	-1.388737e+03
5.700000e-07	-3.612847e-06	-2.082376e-08	-2.612402e+01	-1.370022e+03
5.800000e-07	-3.478586e-06	-2.053161e-08	-2.515320e+01	-1.350183e+03
5.900000e-07	-3.342972e-06	-2.022428e-08	-2.417259e+01	-1.329275e+03
6.000000e-07	-3.206094e-06	-1.990602e-08	-2.318285e+01	-1.307378e+03
6.100000e-07	-3.068043e-06	-1.957001e-08	-2.218461e+01	-1.284571e+03
6.200000e-07	-2.928720e-06	-1.921488e-08	-2.117719e+01	-1.260903e+03
6.300000e-07	-2.787966e-06	-1.883637e-08	-2.015941e+01	-1.236367e+03
6.400000e-07	-2.645980e-06	-1.843662e-08	-1.913273e+01	-1.210878e+03
6.500000e-07	-2.503045e-06	-1.801136e-08	-1.809919e+01	-1.184261e+03
6.600000e-07	-2.359230e-06	-1.756522e-08	-1.705928e+01	-1.156250e+03
6.700000e-07	-2.214568e-06	-1.709411e-08	-1.601325e+01	-1.126499e+03
6.800000e-07	-2.069113e-06	-1.659347e-08	-1.496148e+01	-1.094611e+03
6.900000e-07	-1.922925e-06	-1.606158e-08	-1.390442e+01	-1.060166e+03
7.000000e-07	-1.776151e-06	-1.549024e-08	-1.284311e+01	-1.022765e+03
7.100000e-07	-1.628879e-06	-1.487808e-08	-1.177821e+01	-9.820627e+02
7.200000e-07	-1.481112e-06	-1.421753e-08	-1.070973e+01	-9.378071e+02
7.300000e-07	-1.332887e-06	-1.350611e-08	-9.637928e+00	-8.898587e+02
7.400000e-07	-1.184253e-06	-1.273936e-08	-8.563176e+00	-8.382023e+02
7.500000e-07	-1.035294e-06	-1.191717e-08	-7.486076e+00	-7.829425e+02
7.600000e-07	-8.860356e-07	-1.103952e-08	-6.406807e+00	-7.242846e+02
7.700000e-07	-7.364616e-07	-1.010216e-08	-5.325257e+00	-6.625047e+02
7.800000e-07	-5.866637e-07	-9.105237e-09	-4.242088e+00	-5.979126e+02
7.900000e-07	-4.367141e-07	-8.055022e-09	-3.157822e+00	-5.308134e+02
8.000000e-07	-2.865769e-07	-6.959900e-09	-2.072200e+00	-4.614738e+02
8.100000e-07	-1.362417e-07	-5.829851e-09	-9.851455e-01	-3.900977e+02
8.200000e-07	1.419784e-08	-4.680965e-09	1.026627e-01	-3.168168e+02
8.300000e-07	1.646174e-07	-3.526107e-09	1.190327e+00	-2.416958e+02
8.400000e-07	3.149795e-07	-2.369880e-09	2.277575e+00	-1.647546e+02
8.500000e-07	4.652790e-07	-1.205490e-09	3.364371e+00	-8.600203e+01
8.600000e-07	6.154199e-07	-2.691581e-11	4.450020e+00	-5.478547e+00
8.700000e-07	7.653653e-07	1.173900e-09	5.534256e+00	7.669935e+01
8.800000e-07	9.151190e-07	2.407244e-09	6.617105e+00	1.602998e+02
8.900000e-07	1.064613e-06	3.681516e-09	7.698075e+00	2.449471e+02
9.000000e-07	1.213768e-06	4.992316e-09	8.776599e+00	3.301101e+02
9.100000e-07	1.362534e-06	6.326292e-09	9.852307e+00	4.151096e+02
9.200000e-07	1.510879e-06	7.662227e-09	1.092497e+01	4.991453e+02
9.300000e-07	1.658713e-06	8.964163e-09	1.199393e+01	5.813413e+02
9.400000e-07	1.805941e-06	1.020192e-08	1.305852e+01	6.608041e+02
9.500000e-07	1.952480e-06	1.135644e-08	1.411813e+01	7.366871e+02
9.600000e-07	2.098287e-06	1.242167e-08	1.517243e+01	8.082552e+02
9.700000e-07	2.243344e-06	1.339955e-08	1.622132e+01	8.749400e+02
9.800000e-07	2.387647e-06	1.429285e-08	1.726476e+01	9.363806e+02
9.900000e-07	2.531046e-06	1.511065e-08	1.830166e+01	9.924451e+02
1.000000e-06	2.673312e-06	1.585704e-08	1.933037e+01	1.043230e+03
1.010000e-06	2.814515e-06	1.653925e-08	2.035139e+01	1.089038e+03
1.020000e-06	2.954610e-06	1.716520e-08	2.136440e+01	1.130335e+03
1.030000e-06	3.093417e-06	1.774367e-08	2.236809e+01	1.167701e+03
1.040000e-06	3.230965e-06	1.828084e-08	2.336268e+01	1.201765e+03
1.050000e-06	3.367263e-06	1.877979e-08	2.434824e+01	1.233147e+03
1.060000e-06	3.502276e-06	1.924597e-08	2.532450e+01	1.262403e+03
1.070000e-06	3.636053e-06	1.968110e-08	2.629182e+01	1.289989e+03
1.080000e-06	3.768587e-06	2.008647e-08	2.725016e+01	1.316236e+03
1.090000e-06	3.899756e-06	2.046439e-08	2.819862e+01	1.341344e+03
1.100000e-06	4.029546e-06	2.082094e-08	2.913712e+01	1.365398e+03
1.110000e-06	4.157924e-06	2.115693e-08	3.006540e+01	1.388385e+03
1.120000e-06	4.284768e-06	2.147439e-08	3.098260e+01	1.410238e+03
1.130000e-06	4.410153e-06	2.177384e-08	3.188924e+01	1.430867e+03
1.140000e-06	4.534038e-06	2.205627e-08	3.278503e+01	1.450193e+03
1.150000e-06	4.656319e-06	2.232229e-08	3.366923e+01	1.468180e+03
1.160000e-06	4.777018e-06	2.257387e-08	3.454199e+01	1.484848e+03
1.170000e-06	4.896012e-06	2.281187e-08	3.540242e+01	1.500281e+03
1.180000e-06	5.013203e-06	2.303788e-08	3.624981e+01	1.514614e+03
1.190000e-06	5.128460e-06	2.325344e-08	3.708322e+01	1.528024e+03
1.200000e-06	5.241716e-06	2.345640e-08	3.790216e+01	1.540700e+03
1.210000e-06	5.353013e-06	2.364765e-08	3.870693e+01	1.552823e+03
1.220000e-06	5.462392e-06	2.382889e-08	3.949784e+01	1.564542e+03
1.230000e-06	5.569858e-06	2.400273e-08	4.027491e+01	1.575957e+03
1.240000e-06	5.675319e-06	2.417117e-08	4.103748e+01	1.587107e+03
1.250000e-06	5.778690e-06	2.433318e-08	4.178495e+01	1.597981e+03
1.260000e-06	5.879938e-06	2.448725e-08	4.251706e+01	1.608516e+03
1.270000e-06	5.978969e-06	2.463304e-08	4.323314e+01	1.618621e+03
1.280000e-06	6.075692e-06	2.476961e-08	4.393253e+01	1.628198e+03
1.290000e-06	6.170185e-06	2.489756e-08	4.461580e+01	1.637156e+03
1.300000e-06	6.262496e-06	2.501955e-08	4.528328e+01	1.645439e+03
1.310000e-06	6.352561e-06	2.513707e-08	4.593453e+01	1.653029e+03
1.320000e-06	6.440317e-06	2.524777e-08	4.656908e+01	1.659957e+03
1.330000e-06	6.525839e-06	2.535050e-08	4.718749e+01	1.666295e+03
1.340000e-06	6.609134e-06	2.544710e-08	4.778978e+01	1.672152e+03
1.350000e-06	6.690034e-06	2.553932e-08	4.837475e+01	1.677652e+03
1.360000e-06	6.768456e-06	2.562797e-08	4.894181e+01	1.682919e+03
1.370000e-06	6.844285e-06	2.571213e-08	4.949012e+01	1.688058e+03
1.380000e-06	6.917479e-06	2.579183e-08	5.001938e+01	1.693144e+03
1.390000e-06	6.988213e-06	2.586707e-08	5.053085e+01	1.698209e+03
1.400000e-06	7.056516e-06	2.593892e-08	5.102474e+01	1.703241e+03
1.410000e-06	7.122255e-06	2.600872e-08	5.150009e+01	1.708195e+03
1.420000e-06	7.185458e-06	2.607498e-08	5.195710e+01	1.712993e+03
1.430000e-06	7.246207e-06	2.613709e-08	5.239637e+01	1.717548e+03
1.440000e-06	7.304440e-06	2.619532e-08	5.281744e+01	1.721777e+03
1.450000e-06	7.360100e-06	2.625004e-08	5.321991e+01	1.725613e+03
1.460000e-06	7.413028e-06	2.630025e-08	5.360263e+01	1.729019e+03
1.470000e-06	7.462927e-06	2.634789e-08	5.396344e+01	1.731995e+03
1.480000e-06	7.509933e-06	2.639396e-08	5.430334e+01	1.734572e+03
1.490000e-06	7.554348e-06	2.643647e-08	5.462450e+01	1.736814e+03
1.500000e-06	7.596015e-06	2.647526e-08	5.492579e+01	1.738800e+03
1.510000e-06	7.634886e-06	2.651080e-08	5.520686e+01	1.740613e+03
1.520000e-06	7.671203e-06	2.654375e-08	5.546946e+01	1.742327e+03
1.530000e-06	7.704820e-06	2.657105e-08	5.571254e+01	1.743995e+03
1.540000e-06	7.735612e-06	2.659385e-08	5.593520e+01	1.745643e+03
1.550000e-06	7.763786e-06	2.661349e-08	5.613891e+01	1.747262e+03
1.560000e-06	7.789160e-06	2.663092e-08	5.632239e+01	1.748817e+03
1.570000e-06	7.811630e-06	2.664595e-08	5.648487e+01	1.750251e+03
1.580000e-06	7.831433e-06	2.665886e-08	5.662807e+01	1.751496e+03
1.590000e-06	7.848471e-06	2.667185e-08	5.675126e+01	1.752490e+03
1.600000e-06	7.862493e-06	2.668268e-08	5.685265e+01	1.753183e+03
1.610000e-06	7.873390e-06	2.668999e-08	5.693145e+01	1.753547e+03
1.620000e-06	7.881225e-06	2.669429e-08	5.698810e+01	1.753585e+03
1.630000e-06	7.886292e-06	2.669776e-08	5.702474e+01	1.753328e+03
1.640000e-06	7.888610e-06	2.669918e-08	5.704150e+01	1.752828e+03
1.650000e-06	7.888096e-06	2.669791e-08	5.703779e+01	1.752151e+03
1.660000e-06	7.884996e-06	2.668457e-08	5.701537e+01	1.751367e+03
1.670000e-06	7.879281e-06	2.667525e-08	5.697405e+01	1.750537e+03
1.680000e-06	7.870851e-06	2.666750e-08	5.691309e+01	1.749701e+03
1.690000e-06	7.859808e-06	2.665613e-08	5.683324e+01	1.748876e+03
1.700000e-06	7.845984e-06	2.664452e-08	5.673328e+01	1.748049e+03
1.710000e-06	7.829487e-06	2.663766e-08	5.661399e+01	1.747184e+03
1.720000e-06	7.810696e-06	2.663672e-08	5.647811e+01	1.746227e+03
1.730000e-06	7.789499e-06	2.658317e-08	5.632484e+01	1.745118e+03
1.740000e-06	7.765372e-06	2.646659e-08	5.615038e+01	1.743799e+03
1.750000e-06	7.737742e-06	2.648240e-08	5.595060e+01	1.742227e+03
1.760000e-06	7.706528e-06	2.649983e-08	5.572489e+01	1.740384e+03
1.770000e-06	7.672534e-06	2.644169e-08	5.547908e+01	1.738275e+03
1.780000e-06	7.636387e-06	2.642643e-08	5.521771e+01	1.735930e+03
1.790000e-06	7.598016e-06	2.649664e-08	5.494025e+01	1.733399e+03
1.800000e-06	7.557638e-06	2.638517e-08	5.464829e+01	1.730741e+03
1.810000e-06	7.515148e-06	2.630131e-08	5.434105e+01	1.728012e+03
1.820000e-06	7.470011e-06	2.639715e-08	5.401467e+01	1.725256e+03
1.830000e-06	7.422270e-06	2.625525e-08	5.366946e+01	1.722491e+03
1.840000e-06	7.371644e-06	2.629749e-08	5.330339e+01	1.719706e+03
1.850000e-06	7.317928e-06	2.622515e-08	5.291498e+01	1.716861e+03
1.860000e-06	7.261481e-06	2.612733e-08	5.250681e+01	1.713889e+03
1.870000e-06	7.202450e-06	2.617060e-08	5.207997e+01	1.710705e+03
1.880000e-06	7.140863e-06	2.599665e-08	5.163464e+01	1.707223e+03
1.890000e-06	7.076517e-06	2.601150e-08	5.116936e+01	1.703362e+03
1.900000e-06	7.009395e-06	2.592758e-08	5.068402e+01	1.699066e+03
1.910000e-06	6.939559e-06	2.583193e-08	5.017904e+01	1.694307e+03
1.920000e-06	6.866944e-06	2.580074e-08	4.965397e+01	1.689095e+03
1.930000e-06	6.791718e-06	2.568710e-08	4.911002e+01	1.683472e+03
1.940000e-06	6.713768e-06	2.567650e-08	4.854637e+01	1.677508e+03
1.950000e-06	6.633187e-06	2.553263e-08	4.796371e+01	1.671287e+03
1.960000e-06	6.550246e-06	2.545243e-08	4.736397e+01	1.664896e+03
1.970000e-06	6.464865e-06	2.533613e-08	4.674659e+01	1.658405e+03
1.980000e-06	6.377024e-06	2.522427e-08	4.611142e+01	1.651857e+03
1.990000e-06	6.286942e-06	2.516647e-08	4.546005e+01	1.645258e+03
2.000000e-06	6.194734e-06	2.503222e-08	4.479331e+01	1.638575e+03
2.010000e-06	6.100289e-06	2.495127e-08	4.411039e+01	1.631738e+03
2.020000e-06	6.003645e-06	2.480805e-08	4.341157e+01	1.624649e+03
2.030000e-06	5.904892e-06	2.468993e-08	4.269750e+01	1.617199e+03
2.040000e-06	5.804076e-06	2.454855e-08	4.196851e+01	1.609279e+03
2.050000e-06	5.701132e-06	2.443046e-08	4.122414e+01	1.600803e+03
2.060000e-06	5.596158e-06	2.429689e-08	4.046508e+01	1.591713e+03
2.070000e-06	5.489295e-06	2.413757e-08	3.969237e+01	1.581996e+03
2.080000e-06	5.380578e-06	2.399305e-08	3.890625e+01	1.571676e+03
2.090000e-06	5.269946e-06	2.383169e-08	3.810629e+01	1.560815e+03
2.100000e-06	5.157328e-06	2.368218e-08	3.729196e+01	1.549494e+03
2.110000e-06	5.042830e-06	2.350776e-08	3.646404e+01	1.537804e+03
2.120000e-06	4.926420e-06	2.334337e-08	3.562230e+01	1.525818e+03
2.130000e-06	4.808019e-06	2.314823e-08	3.476616e+01	1.513583e+03
2.140000e-06	4.687710e-06	2.294802e-08	3.389621e+01	1.501102e+03
2.150000e-06	4.565774e-06	2.274081e-08	3.301451e+01	1.488326e+03
2.160000e-06	4.442230e-06	2.253892e-08	3.212118e+01	1.475160e+03
2.170000e-06	4.317002e-06	2.232324e-08	3.121568e+01	1.461471e+03
2.180000e-06	4.190216e-06	2.209512e-08	3.029890e+01	1.447104e+03
2.190000e-06	4.061827e-06	2.186269e-08	2.937054e+01	1.431899e+03
2.200000e-06	3.931943e-06	2.161604e-08	2.843136e+01	1.415718e+03
2.210000e-06	3.800615e-06	2.135561e-08	2.748174e+01	1.398458e+03
2.220000e-06	3.667825e-06	2.107992e-08	2.652156e+01	1.380067e+03
2.230000e-06	3.533727e-06	2.079668e-08	2.555192e+01	1.360543e+03
2.240000e-06	3.398334e-06	2.049049e-08	2.457291e+01	1.339931e+03
2.250000e-06	3.261590e-06	2.017159e-08	2.358413e+01	1.318306e+03
2.260000e-06	3.123631e-06	1.983678e-08	2.258656e+01	1.295750e+03
2.270000e-06	2.984529e-06	1.949206e-08	2.158074e+01	1.272324e+03
2.280000e-06	2.844220e-06	1.912628e-08	2.056618e+01	1.248039e+03
2.290000e-06	2.702758e-06	1.874114e-08	1.954329e+01	1.222834e+03
2.300000e-06	2.560294e-06	1.833350e-08	1.851315e+01	1.196561e+03
2.310000e-06	2.416889e-06	1.790069e-08	1.747621e+01	1.168978e+03
2.320000e-06	2.272551e-06	1.743885e-08	1.643251e+01	1.139761e+03
2.330000e-06	2.127425e-06	1.694393e-08	1.538313e+01	1.108524e+03
2.340000e-06	1.981675e-06	1.641619e-08	1.432923e+01	1.074850e+03
2.350000e-06	1.835362e-06	1.585245e-08	1.327126e+01	1.038330e+03
2.360000e-06	1.688408e-06	1.525286e-08	1.220866e+01	9.985994e+02
2.370000e-06	1.540818e-06	1.461050e-08	1.114145e+01	9.553767e+02
2.380000e-06	1.392738e-06	1.391897e-08	1.007070e+01	9.084884e+02
2.390000e-06	1.244230e-06	1.317432e-08	8.996862e+00	8.578838e+02
2.400000e-06	1.095305e-06	1.237120e-08	7.920008e+00	8.036346e+02
2.410000e-06	9.459814e-07	1.150806e-08	6.840267e+00	7.459199e+02
2.420000e-06	7.963487e-07	1.058786e-08	5.758293e+00	6.849992e+02
2.430000e-06	6.465409e-07	9.607703e-09	4.675052e+00	6.211766e+02
2.440000e-06	4.965146e-07	8.568811e-09	3.590232e+00	5.547624e+02
2.450000e-06	3.462566e-07	7.480740e-09	2.503736e+00	4.860371e+02
2.460000e-06	1.959110e-07	6.358227e-09	1.416607e+00	4.152243e+02
2.470000e-06	4.551188e-08	5.213472e-09	3.290905e-01	3.424764e+02
2.480000e-06	-1.049502e-07	4.056485e-09	-7.588811e-01	2.678758e+02
2.490000e-06	-2.553621e-07	2.896691e-09	-1.846490e+00	1.914521e+02
2.500000e-06	-4.056917e-07	1.731500e-09	-2.933504e+00	1.132132e+02
2.510000e-06	-5.559116e-07	5.532000e-10	-4.019724e+00	3.318595e+01
2.520000e-06	-7.059477e-07	-6.476251e-10	-5.104615e+00	-4.853916e+01
2.530000e-06	-8.558155e-07	-1.878155e-09	-6.188289e+00	-1.317667e+02
2.540000e-06	-1.005451e-06	-3.145387e-09	-7.270286e+00	-2.161643e+02
2.550000e-06	-1.154725e-06	-4.450962e-09	-8.349668e+00	-3.012451e+02
2.560000e-06	-1.303611e-06	-5.782333e-09	-9.426239e+00	-3.863703e+02
2.570000e-06	-1.452073e-06	-7.120559e-09	-1.049975e+01	-4.707703e+02
2.580000e-06	-1.600007e-06	-8.440358e-09	-1.156944e+01	-5.535855e+02
2.590000e-06	-1.747265e-06	-9.712225e-09	-1.263425e+01	-6.339208e+02
2.600000e-06	-1.893797e-06	-1.091002e-08	-1.369380e+01	-7.109096e+02
2.610000e-06	-2.039725e-06	-1.201877e-08	-1.474898e+01	-7.837787e+02
2.620000e-06	-2.184993e-06	-1.303676e-08	-1.579940e+01	-8.519071e+02
2.630000e-06	-2.329421e-06	-1.396780e-08	-1.684373e+01	-9.148716e+02
2.640000e-06	-2.472868e-06	-1.481659e-08	-1.788099e+01	-9.724740e+02
2.650000e-06	-2.615267e-06	-1.559228e-08	-1.891065e+01	-1.024747e+03
2.660000e-06	-2.756639e-06	-1.630253e-08	-1.993289e+01	-1.071937e+03
2.670000e-06	-2.896934e-06	-1.695463e-08	-2.094735e+01	-1.114470e+03
2.680000e-06	-3.036043e-06	-1.755677e-08	-2.195323e+01	-1.152898e+03
2.690000e-06	-3.173971e-06	-1.811368e-08	-2.295057e+01	-1.187843e+03
2.700000e-06	-3.310669e-06	-1.862817e-08	-2.393901e+01	-1.219932e+03
2.710000e-06	-3.446083e-06	-1.910545e-08	-2.491818e+01	-1.249746e+03
2.720000e-06	-3.580243e-06	-1.955194e-08	-2.588827e+01	-1.277771e+03
2.730000e-06	-3.713143e-06	-1.997043e-08	-2.684925e+01	-1.304377e+03
2.740000e-06	-3.844714e-06	-2.036284e-08	-2.780062e+01	-1.329799e+03
2.750000e-06	-3.974943e-06	-2.072857e-08	-2.874229e+01	-1.354154e+03
2.760000e-06	-4.103823e-06	-2.106997e-08	-2.967420e+01	-1.377453e+03
2.770000e-06	-4.231167e-06	-2.139345e-08	-3.059501e+01	-1.399641e+03
2.780000e-06	-4.357087e-06	-2.169976e-08	-3.150552e+01	-1.420630e+03
2.790000e-06	-4.481564e-06	-2.198963e-08	-3.240560e+01	-1.440337e+03
2.800000e-06	-4.604413e-06	-2.226229e-08	-3.329390e+01	-1.458709e+03
2.810000e-06	-4.725658e-06	-2.251881e-08	-3.417061e+01	-1.475750e+03
2.820000e-06	-4.845103e-06	-2.276242e-08	-3.503431e+01	-1.491526e+03
2.830000e-06	-4.962674e-06	-2.299482e-08	-3.588444e+01	-1.506158e+03
2.840000e-06	-5.078290e-06	-2.321900e-08	-3.672045e+01	-1.519814e+03
2.850000e-06	-5.191820e-06	-2.343278e-08	-3.754136e+01	-1.532683e+03
2.860000e-06	-5.303314e-06	-2.363420e-08	-3.834756e+01	-1.544949e+03
2.870000e-06	-5.412827e-06	-2.382422e-08	-3.913944e+01	-1.556773e+03
2.880000e-06	-5.520413e-06	-2.400357e-08	-3.991738e+01	-1.568270e+03
2.890000e-06	-5.626134e-06	-2.417190e-08	-4.068183e+01	-1.579497e+03
2.900000e-06	-5.729841e-06	-2.433129e-08	-4.143173e+01	-1.590456e+03
2.910000e-06	-5.831375e-06	-2.448475e-08	-4.216591e+01	-1.601098e+03
2.920000e-06	-5.930785e-06	-2.463312e-08	-4.288473e+01	-1.611338e+03
2.930000e-06	-6.028070e-06	-2.477578e-08	-4.358818e+01	-1.621078e+03
2.940000e-06	-6.123190e-06	-2.491028e-08	-4.427598e+01	-1.630222e+03
