# Temperatura_=_81.29
# Concentracion g/m^3_=_28370.0
# C_Vs_to_Am_M_A/Vsm_=_65563218390.804596
# pendiente_HvsI_1/m_=_3716.3
# ordenada_HvsI_A/m_=_1297.0
# frecuencia_Hz_=_302509.44173659297

Tiempo_(s)	Campo_(V.s)	Magnetizacion_(V.s)	Campo_(kA/m)	Magnetizacion_(A/m)
0.000000e+00	-7.895387e-06	-2.825516e-08	-5.684372e+01	-1.850664e+03
1.000000e-08	-7.891365e-06	-2.825411e-08	-5.681476e+01	-1.849813e+03
2.000000e-08	-7.884752e-06	-2.824524e-08	-5.676715e+01	-1.848931e+03
3.000000e-08	-7.875452e-06	-2.823210e-08	-5.670019e+01	-1.848052e+03
4.000000e-08	-7.863341e-06	-2.821661e-08	-5.661299e+01	-1.847180e+03
5.000000e-08	-7.848322e-06	-2.819747e-08	-5.650486e+01	-1.846292e+03
6.000000e-08	-7.830608e-06	-2.817225e-08	-5.637733e+01	-1.845343e+03
7.000000e-08	-7.810725e-06	-2.814369e-08	-5.623419e+01	-1.844269e+03
8.000000e-08	-7.788566e-06	-2.812589e-08	-5.607465e+01	-1.843007e+03
9.000000e-08	-7.763475e-06	-2.816551e-08	-5.589400e+01	-1.841500e+03
1.000000e-07	-7.735130e-06	-2.813932e-08	-5.568993e+01	-1.839711e+03
1.100000e-07	-7.703819e-06	-2.804848e-08	-5.546450e+01	-1.837627e+03
1.200000e-07	-7.669727e-06	-2.800461e-08	-5.521905e+01	-1.835265e+03
1.300000e-07	-7.633008e-06	-2.797414e-08	-5.495469e+01	-1.832664e+03
1.400000e-07	-7.593947e-06	-2.791019e-08	-5.467347e+01	-1.829881e+03
1.500000e-07	-7.552580e-06	-2.783422e-08	-5.437564e+01	-1.826980e+03
1.600000e-07	-7.508827e-06	-2.785764e-08	-5.406064e+01	-1.824017e+03
1.700000e-07	-7.462546e-06	-2.783305e-08	-5.372743e+01	-1.821030e+03
1.800000e-07	-7.413550e-06	-2.769683e-08	-5.337468e+01	-1.818030e+03
1.900000e-07	-7.361660e-06	-2.769694e-08	-5.300109e+01	-1.814995e+03
2.000000e-07	-7.306878e-06	-2.763936e-08	-5.260668e+01	-1.811874e+03
2.100000e-07	-7.249416e-06	-2.754725e-08	-5.219298e+01	-1.808592e+03
2.200000e-07	-7.189349e-06	-2.750772e-08	-5.176052e+01	-1.805059e+03
2.300000e-07	-7.126691e-06	-2.742087e-08	-5.130940e+01	-1.801186e+03
2.400000e-07	-7.061347e-06	-2.737736e-08	-5.083895e+01	-1.796897e+03
2.500000e-07	-6.993230e-06	-2.727650e-08	-5.034854e+01	-1.792144e+03
2.600000e-07	-6.922421e-06	-2.721499e-08	-4.983874e+01	-1.786909e+03
2.700000e-07	-6.848911e-06	-2.714308e-08	-4.930950e+01	-1.781216e+03
2.800000e-07	-6.772688e-06	-2.704457e-08	-4.876072e+01	-1.775118e+03
2.900000e-07	-6.693717e-06	-2.695095e-08	-4.819216e+01	-1.768694e+03
3.000000e-07	-6.612111e-06	-2.684794e-08	-4.760463e+01	-1.762032e+03
3.100000e-07	-6.528239e-06	-2.676735e-08	-4.700078e+01	-1.755216e+03
3.200000e-07	-6.442191e-06	-2.665225e-08	-4.638127e+01	-1.748310e+03
3.300000e-07	-6.353797e-06	-2.655592e-08	-4.574487e+01	-1.741344e+03
3.400000e-07	-6.263007e-06	-2.644483e-08	-4.509121e+01	-1.734312e+03
3.500000e-07	-6.170011e-06	-2.632376e-08	-4.442168e+01	-1.727162e+03
3.600000e-07	-6.074823e-06	-2.621294e-08	-4.373636e+01	-1.719812e+03
3.700000e-07	-5.977320e-06	-2.608213e-08	-4.303438e+01	-1.712156e+03
3.800000e-07	-5.877625e-06	-2.594855e-08	-4.231662e+01	-1.704078e+03
3.900000e-07	-5.775905e-06	-2.581321e-08	-4.158427e+01	-1.695475e+03
4.000000e-07	-5.672140e-06	-2.567649e-08	-4.083720e+01	-1.686268e+03
4.100000e-07	-5.566346e-06	-2.552277e-08	-4.007553e+01	-1.676414e+03
4.200000e-07	-5.458605e-06	-2.537115e-08	-3.929983e+01	-1.665914e+03
4.300000e-07	-5.348926e-06	-2.521640e-08	-3.851018e+01	-1.654808e+03
4.400000e-07	-5.237260e-06	-2.504696e-08	-3.770624e+01	-1.643168e+03
4.500000e-07	-5.123666e-06	-2.486744e-08	-3.688840e+01	-1.631084e+03
4.600000e-07	-5.008144e-06	-2.468550e-08	-3.605669e+01	-1.618640e+03
4.700000e-07	-4.890715e-06	-2.449601e-08	-3.521125e+01	-1.605904e+03
4.800000e-07	-4.771461e-06	-2.429247e-08	-3.435267e+01	-1.592904e+03
4.900000e-07	-4.650433e-06	-2.408348e-08	-3.348131e+01	-1.579620e+03
5.000000e-07	-4.527702e-06	-2.386921e-08	-3.259770e+01	-1.565980e+03
5.100000e-07	-4.403299e-06	-2.364374e-08	-3.170204e+01	-1.551869e+03
5.200000e-07	-4.277328e-06	-2.340625e-08	-3.079510e+01	-1.537134e+03
5.300000e-07	-4.149804e-06	-2.316180e-08	-2.987698e+01	-1.521610e+03
5.400000e-07	-4.020757e-06	-2.290222e-08	-2.894789e+01	-1.505138e+03
5.500000e-07	-3.890178e-06	-2.262802e-08	-2.800777e+01	-1.487589e+03
5.600000e-07	-3.758096e-06	-2.233938e-08	-2.705683e+01	-1.468876e+03
5.700000e-07	-3.624620e-06	-2.204028e-08	-2.609585e+01	-1.448966e+03
5.800000e-07	-3.489729e-06	-2.172625e-08	-2.512469e+01	-1.427881e+03
5.900000e-07	-3.353463e-06	-2.140139e-08	-2.414363e+01	-1.405683e+03
6.000000e-07	-3.215989e-06	-2.106538e-08	-2.315387e+01	-1.382457e+03
6.100000e-07	-3.077225e-06	-2.071159e-08	-2.215482e+01	-1.358285e+03
6.200000e-07	-2.937058e-06	-2.033649e-08	-2.114567e+01	-1.333211e+03
6.300000e-07	-2.795622e-06	-1.993546e-08	-2.012739e+01	-1.307221e+03
6.400000e-07	-2.653077e-06	-1.951151e-08	-1.910113e+01	-1.280213e+03
6.500000e-07	-2.509524e-06	-1.906141e-08	-1.806760e+01	-1.251992e+03
6.600000e-07	-2.365076e-06	-1.858794e-08	-1.702762e+01	-1.222267e+03
6.700000e-07	-2.219889e-06	-1.808638e-08	-1.598233e+01	-1.190667e+03
6.800000e-07	-2.073919e-06	-1.755368e-08	-1.493141e+01	-1.156767e+03
6.900000e-07	-1.927161e-06	-1.698783e-08	-1.387481e+01	-1.120124e+03
7.000000e-07	-1.779769e-06	-1.638179e-08	-1.281365e+01	-1.080317e+03
7.100000e-07	-1.631875e-06	-1.573408e-08	-1.174887e+01	-1.036991e+03
7.200000e-07	-1.483550e-06	-1.503600e-08	-1.068099e+01	-9.898835e+02
7.300000e-07	-1.334819e-06	-1.427871e-08	-9.610180e+00	-9.388552e+02
7.400000e-07	-1.185741e-06	-1.345909e-08	-8.536877e+00	-8.838950e+02
7.500000e-07	-1.036239e-06	-1.258131e-08	-7.460518e+00	-8.251152e+02
7.600000e-07	-8.862683e-07	-1.164599e-08	-6.380787e+00	-7.627305e+02
7.700000e-07	-7.359532e-07	-1.064852e-08	-5.298576e+00	-6.970263e+02
7.800000e-07	-5.853332e-07	-9.588885e-09	-4.214171e+00	-6.283197e+02
7.900000e-07	-4.344838e-07	-8.472546e-09	-3.128115e+00	-5.569201e+02
8.000000e-07	-2.835190e-07	-7.304856e-09	-2.041227e+00	-4.830955e+02
8.100000e-07	-1.324221e-07	-6.099271e-09	-9.533874e-01	-4.070493e+02
8.200000e-07	1.881759e-08	-4.875125e-09	1.354793e-01	-3.289121e+02
8.300000e-07	1.701442e-07	-3.645176e-09	1.224972e+00	-2.487503e+02
8.400000e-07	3.214230e-07	-2.412446e-09	2.314121e+00	-1.665898e+02
8.500000e-07	4.725509e-07	-1.170425e-09	3.402182e+00	-8.245408e+01
8.600000e-07	6.235233e-07	8.786547e-11	4.489125e+00	3.591802e+00
8.700000e-07	7.743467e-07	1.372727e-09	5.574995e+00	9.139506e+01
8.800000e-07	9.249345e-07	2.693019e-09	6.659169e+00	1.806756e+02
8.900000e-07	1.075167e-06	4.055364e-09	7.740783e+00	2.709989e+02
9.000000e-07	1.225003e-06	5.454567e-09	8.819547e+00	3.617669e+02
9.100000e-07	1.374334e-06	6.875713e-09	9.894668e+00	4.522289e+02
9.200000e-07	1.523150e-06	8.295471e-09	1.096609e+01	5.415136e+02
9.300000e-07	1.671467e-06	9.676734e-09	1.203391e+01	6.286793e+02
9.400000e-07	1.819180e-06	1.098739e-08	1.309739e+01	7.127766e+02
9.500000e-07	1.966254e-06	1.220723e-08	1.415627e+01	7.929172e+02
9.600000e-07	2.112579e-06	1.333075e-08	1.520974e+01	8.683413e+02
9.700000e-07	2.258104e-06	1.435863e-08	1.625747e+01	9.384741e+02
9.800000e-07	2.402896e-06	1.529508e-08	1.729991e+01	1.002967e+03
9.900000e-07	2.546878e-06	1.614911e-08	1.833653e+01	1.061715e+03
1.000000e-06	2.689854e-06	1.692907e-08	1.936590e+01	1.114856e+03
1.010000e-06	2.831673e-06	1.764408e-08	2.038695e+01	1.162741e+03
1.020000e-06	2.972303e-06	1.830215e-08	2.139943e+01	1.205890e+03
1.030000e-06	3.111753e-06	1.891308e-08	2.240341e+01	1.244934e+03
1.040000e-06	3.249982e-06	1.948058e-08	2.339861e+01	1.280548e+03
1.050000e-06	3.386966e-06	2.000742e-08	2.438484e+01	1.313388e+03
1.060000e-06	3.522630e-06	2.049598e-08	2.536157e+01	1.344038e+03
1.070000e-06	3.656903e-06	2.094977e-08	2.632828e+01	1.372969e+03
1.080000e-06	3.789893e-06	2.137419e-08	2.728575e+01	1.400516e+03
1.090000e-06	3.921537e-06	2.177043e-08	2.823354e+01	1.426876e+03
1.100000e-06	4.051756e-06	2.214285e-08	2.917107e+01	1.452123e+03
1.110000e-06	4.180618e-06	2.249462e-08	3.009882e+01	1.476233e+03
1.120000e-06	4.308039e-06	2.282769e-08	3.101621e+01	1.499127e+03
1.130000e-06	4.433930e-06	2.314157e-08	3.192257e+01	1.520706e+03
1.140000e-06	4.558306e-06	2.343780e-08	3.281803e+01	1.540889e+03
1.150000e-06	4.681044e-06	2.371702e-08	3.370169e+01	1.559642e+03
1.160000e-06	4.802165e-06	2.397845e-08	3.457372e+01	1.576994e+03
1.170000e-06	4.921576e-06	2.422489e-08	3.543343e+01	1.593040e+03
1.180000e-06	5.039118e-06	2.446020e-08	3.627969e+01	1.607933e+03
1.190000e-06	5.154771e-06	2.468461e-08	3.711235e+01	1.621867e+03
1.200000e-06	5.268481e-06	2.489833e-08	3.793102e+01	1.635046e+03
1.210000e-06	5.380184e-06	2.510057e-08	3.873524e+01	1.647666e+03
1.220000e-06	5.489903e-06	2.529124e-08	3.952517e+01	1.659882e+03
1.230000e-06	5.597681e-06	2.547301e-08	4.030113e+01	1.671800e+03
1.240000e-06	5.703428e-06	2.564699e-08	4.106246e+01	1.683460e+03
1.250000e-06	5.807061e-06	2.581397e-08	4.180858e+01	1.694843e+03
1.260000e-06	5.908607e-06	2.597366e-08	4.253968e+01	1.705882e+03
1.270000e-06	6.008000e-06	2.612381e-08	4.325526e+01	1.716477e+03
1.280000e-06	6.105112e-06	2.626460e-08	4.395443e+01	1.726520e+03
1.290000e-06	6.199982e-06	2.639946e-08	4.463746e+01	1.735917e+03
1.300000e-06	6.292627e-06	2.652994e-08	4.530447e+01	1.744604e+03
1.310000e-06	6.383061e-06	2.665442e-08	4.595555e+01	1.752565e+03
1.320000e-06	6.471183e-06	2.677144e-08	4.659000e+01	1.759833e+03
1.330000e-06	6.557021e-06	2.688213e-08	4.720800e+01	1.766484e+03
1.340000e-06	6.640597e-06	2.698657e-08	4.780972e+01	1.772631e+03
1.350000e-06	6.721815e-06	2.708369e-08	4.839445e+01	1.778406e+03
1.360000e-06	6.800556e-06	2.717431e-08	4.896136e+01	1.783937e+03
1.370000e-06	6.876711e-06	2.726062e-08	4.950965e+01	1.789333e+03
1.380000e-06	6.950285e-06	2.734392e-08	5.003935e+01	1.794671e+03
1.390000e-06	7.021282e-06	2.742285e-08	5.055050e+01	1.799981e+03
1.400000e-06	7.089762e-06	2.749875e-08	5.104353e+01	1.805252e+03
1.410000e-06	7.155725e-06	2.757255e-08	5.151844e+01	1.810432e+03
1.420000e-06	7.219113e-06	2.764299e-08	5.197481e+01	1.815441e+03
1.430000e-06	7.280045e-06	2.770827e-08	5.241349e+01	1.820188e+03
1.440000e-06	7.338522e-06	2.776692e-08	5.283451e+01	1.824586e+03
1.450000e-06	7.394397e-06	2.782229e-08	5.323679e+01	1.828569e+03
1.460000e-06	7.447525e-06	2.787608e-08	5.361928e+01	1.832100e+03
1.470000e-06	7.497596e-06	2.792784e-08	5.397977e+01	1.835182e+03
1.480000e-06	7.544675e-06	2.797526e-08	5.431873e+01	1.837852e+03
1.490000e-06	7.589114e-06	2.801969e-08	5.463867e+01	1.840174e+03
1.500000e-06	7.630908e-06	2.806104e-08	5.493957e+01	1.842234e+03
1.510000e-06	7.669945e-06	2.809867e-08	5.522062e+01	1.844118e+03
1.520000e-06	7.706288e-06	2.813146e-08	5.548228e+01	1.845903e+03
1.530000e-06	7.739857e-06	2.815830e-08	5.572396e+01	1.847641e+03
1.540000e-06	7.770670e-06	2.818139e-08	5.594580e+01	1.849357e+03
1.550000e-06	7.798853e-06	2.820033e-08	5.614871e+01	1.851040e+03
1.560000e-06	7.824155e-06	2.821816e-08	5.633088e+01	1.852650e+03
1.570000e-06	7.846564e-06	2.823449e-08	5.649221e+01	1.854127e+03
1.580000e-06	7.866281e-06	2.825030e-08	5.663416e+01	1.855402e+03
1.590000e-06	7.883167e-06	2.826692e-08	5.675573e+01	1.856409e+03
1.600000e-06	7.897063e-06	2.827829e-08	5.685579e+01	1.857096e+03
1.610000e-06	7.907892e-06	2.828412e-08	5.693375e+01	1.857440e+03
1.620000e-06	7.915666e-06	2.828732e-08	5.698971e+01	1.857445e+03
1.630000e-06	7.920652e-06	2.828959e-08	5.702561e+01	1.857144e+03
1.640000e-06	7.922859e-06	2.828978e-08	5.704150e+01	1.856594e+03
1.650000e-06	7.922204e-06	2.828647e-08	5.703679e+01	1.855865e+03
1.660000e-06	7.918923e-06	2.827388e-08	5.701316e+01	1.855031e+03
1.670000e-06	7.913057e-06	2.826539e-08	5.697093e+01	1.854151e+03
1.680000e-06	7.904494e-06	2.825649e-08	5.690928e+01	1.853267e+03
1.690000e-06	7.893229e-06	2.824154e-08	5.682818e+01	1.852392e+03
1.700000e-06	7.879156e-06	2.822568e-08	5.672686e+01	1.851510e+03
1.710000e-06	7.862466e-06	2.821322e-08	5.660670e+01	1.850582e+03
1.720000e-06	7.843507e-06	2.820187e-08	5.647020e+01	1.849549e+03
1.730000e-06	7.822179e-06	2.814670e-08	5.631665e+01	1.848345e+03
1.740000e-06	7.797879e-06	2.803989e-08	5.614169e+01	1.846910e+03
1.750000e-06	7.769962e-06	2.804847e-08	5.594071e+01	1.845202e+03
1.760000e-06	7.738547e-06	2.806420e-08	5.571453e+01	1.843200e+03
1.770000e-06	7.704419e-06	2.801685e-08	5.546882e+01	1.840912e+03
1.780000e-06	7.668035e-06	2.800040e-08	5.520687e+01	1.838372e+03
1.790000e-06	7.629377e-06	2.804730e-08	5.492855e+01	1.835633e+03
1.800000e-06	7.588741e-06	2.795033e-08	5.463599e+01	1.832758e+03
1.810000e-06	7.545986e-06	2.784689e-08	5.432817e+01	1.829805e+03
1.820000e-06	7.500544e-06	2.793320e-08	5.400100e+01	1.826821e+03
1.830000e-06	7.452428e-06	2.782663e-08	5.365458e+01	1.823822e+03
1.840000e-06	7.401418e-06	2.783259e-08	5.328733e+01	1.820799e+03
1.850000e-06	7.347365e-06	2.778360e-08	5.289817e+01	1.817708e+03
1.860000e-06	7.290598e-06	2.768544e-08	5.248947e+01	1.814479e+03
1.870000e-06	7.231244e-06	2.769706e-08	5.206215e+01	1.811025e+03
1.880000e-06	7.169298e-06	2.753609e-08	5.161616e+01	1.807255e+03
1.890000e-06	7.104549e-06	2.753354e-08	5.114999e+01	1.803090e+03
1.900000e-06	7.037007e-06	2.745160e-08	5.066371e+01	1.798470e+03
1.910000e-06	6.966784e-06	2.734240e-08	5.015814e+01	1.793370e+03
1.920000e-06	6.893843e-06	2.730374e-08	4.963299e+01	1.787802e+03
1.930000e-06	6.818250e-06	2.717927e-08	4.908874e+01	1.781810e+03
1.940000e-06	6.739914e-06	2.714284e-08	4.852476e+01	1.775468e+03
1.950000e-06	6.659033e-06	2.701528e-08	4.794245e+01	1.768863e+03
1.960000e-06	6.575703e-06	2.693287e-08	4.734250e+01	1.762081e+03
1.970000e-06	6.489869e-06	2.682583e-08	4.672453e+01	1.755194e+03
1.980000e-06	6.401666e-06	2.670362e-08	4.608951e+01	1.748243e+03
1.990000e-06	6.311240e-06	2.662680e-08	4.543847e+01	1.741230e+03
2.000000e-06	6.218608e-06	2.648573e-08	4.477156e+01	1.734119e+03
2.010000e-06	6.123615e-06	2.639346e-08	4.408765e+01	1.726835e+03
2.020000e-06	6.026423e-06	2.625498e-08	4.338790e+01	1.719275e+03
2.030000e-06	5.927188e-06	2.613247e-08	4.267345e+01	1.711327e+03
2.040000e-06	5.825848e-06	2.598739e-08	4.194384e+01	1.702882e+03
2.050000e-06	5.722392e-06	2.585234e-08	4.119900e+01	1.693851e+03
2.060000e-06	5.616962e-06	2.570941e-08	4.043994e+01	1.684182e+03
2.070000e-06	5.509647e-06	2.554259e-08	3.966732e+01	1.673862e+03
2.080000e-06	5.400456e-06	2.538850e-08	3.888118e+01	1.662921e+03
2.090000e-06	5.289285e-06	2.521666e-08	3.808079e+01	1.651423e+03
2.100000e-06	5.176097e-06	2.505192e-08	3.726589e+01	1.639454e+03
2.110000e-06	5.060983e-06	2.486568e-08	3.643711e+01	1.627103e+03
2.120000e-06	4.943935e-06	2.468843e-08	3.559441e+01	1.614444e+03
2.130000e-06	4.824953e-06	2.448722e-08	3.473778e+01	1.601517e+03
2.140000e-06	4.704112e-06	2.428075e-08	3.386778e+01	1.588317e+03
2.150000e-06	4.581540e-06	2.406686e-08	3.298531e+01	1.574787e+03
2.160000e-06	4.457255e-06	2.385078e-08	3.209050e+01	1.560822e+03
2.170000e-06	4.331374e-06	2.362008e-08	3.118421e+01	1.546280e+03
2.180000e-06	4.203972e-06	2.337562e-08	3.026696e+01	1.530996e+03
2.190000e-06	4.075043e-06	2.312413e-08	2.933873e+01	1.514809e+03
2.200000e-06	3.944615e-06	2.285737e-08	2.839969e+01	1.497576e+03
2.210000e-06	3.812654e-06	2.257974e-08	2.744962e+01	1.479199e+03
2.220000e-06	3.679254e-06	2.228732e-08	2.648919e+01	1.459629e+03
2.230000e-06	3.544544e-06	2.198575e-08	2.551934e+01	1.438873e+03
2.240000e-06	3.408494e-06	2.166430e-08	2.453983e+01	1.416982e+03
2.250000e-06	3.271114e-06	2.132831e-08	2.355075e+01	1.394039e+03
2.260000e-06	3.132449e-06	2.097408e-08	2.255241e+01	1.370128e+03
2.270000e-06	2.992526e-06	2.060714e-08	2.154502e+01	1.345309e+03
2.280000e-06	2.851484e-06	2.021923e-08	2.052957e+01	1.319584e+03
2.290000e-06	2.709391e-06	1.980874e-08	1.950656e+01	1.292881e+03
2.300000e-06	2.566266e-06	1.937384e-08	1.847612e+01	1.265030e+03
2.310000e-06	2.422173e-06	1.891285e-08	1.743870e+01	1.235768e+03
2.320000e-06	2.277248e-06	1.842192e-08	1.639530e+01	1.204743e+03
2.330000e-06	2.131597e-06	1.789554e-08	1.534667e+01	1.171543e+03
2.340000e-06	1.985204e-06	1.733387e-08	1.429270e+01	1.135726e+03
2.350000e-06	1.838115e-06	1.673543e-08	1.323371e+01	1.096862e+03
2.360000e-06	1.690389e-06	1.609745e-08	1.217015e+01	1.054570e+03
2.370000e-06	1.542125e-06	1.541342e-08	1.110270e+01	1.008561e+03
2.380000e-06	1.393425e-06	1.467708e-08	1.003212e+01	9.586575e+02
2.390000e-06	1.244295e-06	1.388465e-08	8.958443e+00	9.048123e+02
2.400000e-06	1.094783e-06	1.303090e-08	7.882013e+00	8.471038e+02
2.410000e-06	9.449119e-07	1.211412e-08	6.802998e+00	7.857203e+02
2.420000e-06	7.947522e-07	1.113430e-08	5.721906e+00	7.209307e+02
2.430000e-06	6.443163e-07	1.008933e-08	4.638827e+00	6.530473e+02
2.440000e-06	4.936354e-07	8.983249e-09	3.553983e+00	5.823853e+02
2.450000e-06	3.427731e-07	7.824347e-09	2.467833e+00	5.092276e+02
2.460000e-06	1.917279e-07	6.628044e-09	1.380366e+00	4.337975e+02
2.470000e-06	4.058418e-08	5.408707e-09	2.921903e-01	3.562465e+02
2.480000e-06	-1.105667e-07	4.177178e-09	-7.960370e-01	2.766572e+02
2.490000e-06	-2.616566e-07	2.941144e-09	-1.883826e+00	1.950640e+02
2.500000e-06	-4.126393e-07	1.697228e-09	-2.970843e+00	1.114867e+02
2.510000e-06	-5.635026e-07	4.395936e-10	-4.056999e+00	2.597353e+01
2.520000e-06	-7.142261e-07	-8.414353e-10	-5.142150e+00	-6.135207e+01
2.530000e-06	-8.647039e-07	-2.155324e-09	-6.225532e+00	-1.502498e+02
2.540000e-06	-1.014887e-06	-3.508330e-09	-7.306792e+00	-2.403312e+02
2.550000e-06	-1.164776e-06	-4.901146e-09	-8.385937e+00	-3.310446e+02
2.560000e-06	-1.314297e-06	-6.320440e-09	-9.462431e+00	-4.216805e+02
2.570000e-06	-1.463384e-06	-7.745635e-09	-1.053580e+01	-5.113978e+02
2.580000e-06	-1.611973e-06	-9.147473e-09	-1.160558e+01	-5.992688e+02
2.590000e-06	-1.759937e-06	-1.049388e-08	-1.267086e+01	-6.843394e+02
2.600000e-06	-1.907174e-06	-1.175809e-08	-1.373091e+01	-7.656969e+02
2.610000e-06	-2.053642e-06	-1.292382e-08	-1.478543e+01	-8.425384e+02
2.620000e-06	-2.199404e-06	-1.398945e-08	-1.583485e+01	-9.142311e+02
2.630000e-06	-2.344396e-06	-1.496173e-08	-1.687874e+01	-9.803586e+02
2.640000e-06	-2.488397e-06	-1.585012e-08	-1.791549e+01	-1.040746e+03
2.650000e-06	-2.631335e-06	-1.666327e-08	-1.894459e+01	-1.095464e+03
2.660000e-06	-2.773225e-06	-1.740702e-08	-1.996614e+01	-1.144806e+03
2.670000e-06	-2.914067e-06	-1.808886e-08	-2.098015e+01	-1.189250e+03
2.680000e-06	-3.053733e-06	-1.871811e-08	-2.198569e+01	-1.229401e+03
2.690000e-06	-3.192145e-06	-1.930089e-08	-2.298220e+01	-1.265928e+03
2.700000e-06	-3.329335e-06	-1.984057e-08	-2.396992e+01	-1.299499e+03
2.710000e-06	-3.465211e-06	-2.034033e-08	-2.494817e+01	-1.330723e+03
2.720000e-06	-3.599826e-06	-2.080569e-08	-2.591735e+01	-1.360107e+03
2.730000e-06	-3.733289e-06	-2.124095e-08	-2.687823e+01	-1.388026e+03
2.740000e-06	-3.865437e-06	-2.164821e-08	-2.782965e+01	-1.414715e+03
2.750000e-06	-3.996164e-06	-2.203138e-08	-2.877082e+01	-1.440280e+03
2.760000e-06	-4.125505e-06	-2.239215e-08	-2.970203e+01	-1.464723e+03
2.770000e-06	-4.253365e-06	-2.273068e-08	-3.062258e+01	-1.487977e+03
2.780000e-06	-4.379769e-06	-2.304935e-08	-3.153263e+01	-1.509944e+03
2.790000e-06	-4.504766e-06	-2.335146e-08	-3.243256e+01	-1.530534e+03
2.800000e-06	-4.628108e-06	-2.363722e-08	-3.332057e+01	-1.549697e+03
2.810000e-06	-4.749781e-06	-2.390590e-08	-3.419657e+01	-1.567445e+03
2.820000e-06	-4.869740e-06	-2.415921e-08	-3.506024e+01	-1.583852e+03
2.830000e-06	-4.987816e-06	-2.440049e-08	-3.591034e+01	-1.599059e+03
2.840000e-06	-5.103871e-06	-2.463195e-08	-3.674589e+01	-1.613247e+03
2.850000e-06	-5.217820e-06	-2.485377e-08	-3.756628e+01	-1.626623e+03
2.860000e-06	-5.329795e-06	-2.506481e-08	-3.837245e+01	-1.639387e+03
2.870000e-06	-5.439806e-06	-2.526427e-08	-3.916449e+01	-1.651708e+03
2.880000e-06	-5.547844e-06	-2.545172e-08	-3.994232e+01	-1.663706e+03
2.890000e-06	-5.653951e-06	-2.562738e-08	-4.070625e+01	-1.675441e+03
2.900000e-06	-5.758024e-06	-2.579460e-08	-4.145553e+01	-1.686911e+03
2.910000e-06	-5.859935e-06	-2.595440e-08	-4.218925e+01	-1.698059e+03
2.920000e-06	-5.959642e-06	-2.610768e-08	-4.290710e+01	-1.708794e+03
2.930000e-06	-6.057249e-06	-2.625601e-08	-4.360984e+01	-1.719007e+03
2.940000e-06	-6.152762e-06	-2.639811e-08	-4.429750e+01	-1.728599e+03
