# Temperatura_=_70.27
# Concentracion g/m^3_=_28370.0
# C_Vs_to_Am_M_A/Vsm_=_65563218390.804596
# pendiente_HvsI_1/m_=_3716.3
# ordenada_HvsI_A/m_=_1297.0
# frecuencia_Hz_=_302506.5392932004

Tiempo_(s)	Campo_(V.s)	Magnetizacion_(V.s)	Campo_(kA/m)	Magnetizacion_(A/m)
0.000000e+00	-7.818649e-06	-2.590250e-08	-5.683986e+01	-1.695451e+03
1.000000e-08	-7.814145e-06	-2.590051e-08	-5.680712e+01	-1.694637e+03
2.000000e-08	-7.807172e-06	-2.589241e-08	-5.675642e+01	-1.693789e+03
3.000000e-08	-7.797585e-06	-2.588183e-08	-5.668672e+01	-1.692944e+03
4.000000e-08	-7.785115e-06	-2.586497e-08	-5.659608e+01	-1.692113e+03
5.000000e-08	-7.769767e-06	-2.584136e-08	-5.648450e+01	-1.691281e+03
6.000000e-08	-7.751848e-06	-2.581477e-08	-5.635423e+01	-1.690412e+03
7.000000e-08	-7.731752e-06	-2.578218e-08	-5.620814e+01	-1.689452e+03
8.000000e-08	-7.709305e-06	-2.577801e-08	-5.604495e+01	-1.688346e+03
9.000000e-08	-7.683880e-06	-2.582952e-08	-5.586011e+01	-1.687039e+03
1.000000e-07	-7.655297e-06	-2.578500e-08	-5.565232e+01	-1.685495e+03
1.100000e-07	-7.623828e-06	-2.570813e-08	-5.542355e+01	-1.683698e+03
1.200000e-07	-7.589577e-06	-2.568042e-08	-5.517456e+01	-1.681654e+03
1.300000e-07	-7.552759e-06	-2.563971e-08	-5.490690e+01	-1.679394e+03
1.400000e-07	-7.513714e-06	-2.554992e-08	-5.462304e+01	-1.676963e+03
1.500000e-07	-7.472493e-06	-2.549094e-08	-5.432338e+01	-1.674411e+03
1.600000e-07	-7.428875e-06	-2.559012e-08	-5.400628e+01	-1.671786e+03
1.700000e-07	-7.382653e-06	-2.548901e-08	-5.367026e+01	-1.669119e+03
1.800000e-07	-7.333734e-06	-2.539529e-08	-5.331463e+01	-1.666421e+03
1.900000e-07	-7.281907e-06	-2.544159e-08	-5.293786e+01	-1.663672e+03
2.000000e-07	-7.227224e-06	-2.531478e-08	-5.254032e+01	-1.660830e+03
2.100000e-07	-7.169922e-06	-2.525490e-08	-5.212375e+01	-1.657829e+03
2.200000e-07	-7.110006e-06	-2.519211e-08	-5.168818e+01	-1.654594e+03
2.300000e-07	-7.047465e-06	-2.512420e-08	-5.123352e+01	-1.651048e+03
2.400000e-07	-6.982280e-06	-2.510099e-08	-5.075964e+01	-1.647128e+03
2.500000e-07	-6.914427e-06	-2.501518e-08	-5.026636e+01	-1.642793e+03
2.600000e-07	-6.843926e-06	-2.495478e-08	-4.975384e+01	-1.638031e+03
2.700000e-07	-6.770750e-06	-2.487149e-08	-4.922186e+01	-1.632865e+03
2.800000e-07	-6.694894e-06	-2.480157e-08	-4.867041e+01	-1.627343e+03
2.900000e-07	-6.616349e-06	-2.471202e-08	-4.809940e+01	-1.621537e+03
3.000000e-07	-6.535122e-06	-2.462637e-08	-4.750890e+01	-1.615524e+03
3.100000e-07	-6.451588e-06	-2.457176e-08	-4.690163e+01	-1.609380e+03
3.200000e-07	-6.365964e-06	-2.445977e-08	-4.627916e+01	-1.603158e+03
3.300000e-07	-6.278098e-06	-2.436343e-08	-4.564039e+01	-1.596883e+03
3.400000e-07	-6.187840e-06	-2.423601e-08	-4.498423e+01	-1.590543e+03
3.500000e-07	-6.095327e-06	-2.413726e-08	-4.431168e+01	-1.584090e+03
3.600000e-07	-6.000697e-06	-2.404704e-08	-4.362375e+01	-1.577447e+03
3.700000e-07	-5.903838e-06	-2.392722e-08	-4.291960e+01	-1.570512e+03
3.800000e-07	-5.804760e-06	-2.380852e-08	-4.219933e+01	-1.563182e+03
3.900000e-07	-5.703612e-06	-2.367944e-08	-4.146400e+01	-1.555361e+03
4.000000e-07	-5.600501e-06	-2.355268e-08	-4.071441e+01	-1.546977e+03
4.100000e-07	-5.495439e-06	-2.340289e-08	-3.995063e+01	-1.537994e+03
4.200000e-07	-5.388387e-06	-2.327633e-08	-3.917239e+01	-1.528414e+03
4.300000e-07	-5.279422e-06	-2.313481e-08	-3.838024e+01	-1.518275e+03
4.400000e-07	-5.168598e-06	-2.298162e-08	-3.757457e+01	-1.507647e+03
4.500000e-07	-5.055900e-06	-2.281952e-08	-3.675528e+01	-1.496611e+03
4.600000e-07	-4.941261e-06	-2.265237e-08	-3.592188e+01	-1.485247e+03
4.700000e-07	-4.824611e-06	-2.247312e-08	-3.507386e+01	-1.473616e+03
4.800000e-07	-4.706176e-06	-2.228370e-08	-3.421286e+01	-1.461743e+03
4.900000e-07	-4.586054e-06	-2.209910e-08	-3.333960e+01	-1.449608e+03
5.000000e-07	-4.464199e-06	-2.189811e-08	-3.245374e+01	-1.437144e+03
5.100000e-07	-4.340646e-06	-2.168991e-08	-3.155554e+01	-1.424239e+03
5.200000e-07	-4.215558e-06	-2.147158e-08	-3.064618e+01	-1.410754e+03
5.300000e-07	-4.089029e-06	-2.124797e-08	-2.972634e+01	-1.396533e+03
5.400000e-07	-3.961032e-06	-2.100637e-08	-2.879583e+01	-1.381428e+03
5.500000e-07	-3.831590e-06	-2.075669e-08	-2.785481e+01	-1.365318e+03
5.600000e-07	-3.700627e-06	-2.049819e-08	-2.690275e+01	-1.348124e+03
5.700000e-07	-3.568149e-06	-2.022515e-08	-2.593966e+01	-1.329818e+03
5.800000e-07	-3.434288e-06	-1.993173e-08	-2.496652e+01	-1.310418e+03
5.900000e-07	-3.299242e-06	-1.962504e-08	-2.398476e+01	-1.289984e+03
6.000000e-07	-3.163002e-06	-1.931339e-08	-2.299433e+01	-1.268596e+03
6.100000e-07	-3.025528e-06	-1.898688e-08	-2.199492e+01	-1.246327e+03
6.200000e-07	-2.886789e-06	-1.864518e-08	-2.098632e+01	-1.223220e+03
6.300000e-07	-2.746677e-06	-1.827767e-08	-1.996774e+01	-1.199256e+03
6.400000e-07	-2.605456e-06	-1.788672e-08	-1.894109e+01	-1.174338e+03
6.500000e-07	-2.463257e-06	-1.746934e-08	-1.790733e+01	-1.148280e+03
6.600000e-07	-2.320116e-06	-1.703066e-08	-1.686673e+01	-1.120806e+03
6.700000e-07	-2.176215e-06	-1.656825e-08	-1.582061e+01	-1.091567e+03
6.800000e-07	-2.031430e-06	-1.607648e-08	-1.476805e+01	-1.060164e+03
6.900000e-07	-1.885794e-06	-1.555427e-08	-1.370931e+01	-1.026184e+03
7.000000e-07	-1.739582e-06	-1.499079e-08	-1.264638e+01	-9.892398e+02
7.100000e-07	-1.592855e-06	-1.438616e-08	-1.157971e+01	-9.490055e+02
7.200000e-07	-1.445661e-06	-1.373341e-08	-1.050963e+01	-9.052517e+02
7.300000e-07	-1.298061e-06	-1.303131e-08	-9.436616e+00	-8.578665e+02
7.400000e-07	-1.150024e-06	-1.227484e-08	-8.360420e+00	-8.068639e+02
7.500000e-07	-1.001588e-06	-1.146368e-08	-7.281323e+00	-7.523779e+02
7.600000e-07	-8.528726e-07	-1.059837e-08	-6.200196e+00	-6.946414e+02
7.700000e-07	-7.039046e-07	-9.673000e-09	-5.117232e+00	-6.339550e+02
7.800000e-07	-5.547506e-07	-8.690598e-09	-4.032915e+00	-5.706486e+02
7.900000e-07	-4.054625e-07	-7.660003e-09	-2.947623e+00	-5.050416e+02
8.000000e-07	-2.560068e-07	-6.594686e-09	-1.861113e+00	-4.374087e+02
8.100000e-07	-1.064169e-07	-5.500752e-09	-7.736273e-01	-3.679558e+02
8.200000e-07	4.322310e-08	-4.391060e-09	3.142224e-01	-2.968099e+02
8.300000e-07	1.928513e-07	-3.276889e-09	1.401986e+00	-2.240249e+02
8.400000e-07	3.424182e-07	-2.159605e-09	2.489305e+00	-1.496043e+02
8.500000e-07	4.918839e-07	-1.035858e-09	3.575887e+00	-7.353521e+01
8.600000e-07	6.411943e-07	1.006311e-10	4.661342e+00	4.167835e+00
8.700000e-07	7.903672e-07	1.259532e-09	5.745795e+00	8.341832e+01
8.800000e-07	9.393444e-07	2.453061e-09	6.828827e+00	1.640173e+02
8.900000e-07	1.088063e-06	3.685031e-09	7.909978e+00	2.456245e+02
9.000000e-07	1.236500e-06	4.949908e-09	8.989082e+00	3.277450e+02
9.100000e-07	1.384493e-06	6.236063e-09	1.006496e+01	4.097361e+02
9.200000e-07	1.531962e-06	7.523930e-09	1.113703e+01	4.908333e+02
9.300000e-07	1.678866e-06	8.780029e-09	1.220499e+01	5.701937e+02
9.400000e-07	1.825144e-06	9.974704e-09	1.326839e+01	6.469533e+02
9.500000e-07	1.970798e-06	1.109070e-08	1.432727e+01	7.202904e+02
9.600000e-07	2.115702e-06	1.212197e-08	1.538069e+01	7.894883e+02
9.700000e-07	2.259761e-06	1.307034e-08	1.642797e+01	8.539908e+02
9.800000e-07	2.403020e-06	1.393795e-08	1.746943e+01	9.134420e+02
9.900000e-07	2.545362e-06	1.473132e-08	1.850422e+01	9.677082e+02
1.000000e-06	2.686668e-06	1.545479e-08	1.953149e+01	1.016877e+03
1.010000e-06	2.826870e-06	1.611631e-08	2.055072e+01	1.061237e+03
1.020000e-06	2.965831e-06	1.672374e-08	2.156094e+01	1.101238e+03
1.030000e-06	3.103572e-06	1.728641e-08	2.256228e+01	1.137438e+03
1.040000e-06	3.240138e-06	1.780842e-08	2.355509e+01	1.170445e+03
1.050000e-06	3.375443e-06	1.829233e-08	2.453873e+01	1.200857e+03
1.060000e-06	3.509524e-06	1.874326e-08	2.551347e+01	1.229215e+03
1.070000e-06	3.642445e-06	1.916381e-08	2.647978e+01	1.255958e+03
1.080000e-06	3.774033e-06	1.955673e-08	2.743639e+01	1.281405e+03
1.090000e-06	3.904151e-06	1.992390e-08	2.838232e+01	1.305751e+03
1.100000e-06	4.032863e-06	2.027071e-08	2.931803e+01	1.329073e+03
1.110000e-06	4.160173e-06	2.059840e-08	3.024354e+01	1.351362e+03
1.120000e-06	4.286051e-06	2.090845e-08	3.115865e+01	1.372548e+03
1.130000e-06	4.410522e-06	2.119897e-08	3.206352e+01	1.392542e+03
1.140000e-06	4.533443e-06	2.147263e-08	3.295713e+01	1.411270e+03
1.150000e-06	4.654726e-06	2.173064e-08	3.383883e+01	1.428693e+03
1.160000e-06	4.774395e-06	2.197385e-08	3.470880e+01	1.444831e+03
1.170000e-06	4.892383e-06	2.220453e-08	3.556655e+01	1.459763e+03
1.180000e-06	5.008541e-06	2.242201e-08	3.641099e+01	1.473622e+03
1.190000e-06	5.122681e-06	2.262811e-08	3.724077e+01	1.486577e+03
1.200000e-06	5.234841e-06	2.282271e-08	3.805614e+01	1.498811e+03
1.210000e-06	5.345171e-06	2.300790e-08	3.885821e+01	1.510499e+03
1.220000e-06	5.453710e-06	2.318625e-08	3.964727e+01	1.521784e+03
1.230000e-06	5.560280e-06	2.335705e-08	4.042201e+01	1.532762e+03
1.240000e-06	5.664740e-06	2.351957e-08	4.118141e+01	1.543473e+03
1.250000e-06	5.767099e-06	2.367291e-08	4.192554e+01	1.553903e+03
1.260000e-06	5.867369e-06	2.381837e-08	4.265448e+01	1.563994e+03
1.270000e-06	5.965507e-06	2.395533e-08	4.336792e+01	1.573659e+03
1.280000e-06	6.061345e-06	2.408364e-08	4.406465e+01	1.582805e+03
1.290000e-06	6.154957e-06	2.420702e-08	4.474518e+01	1.591347e+03
1.300000e-06	6.246470e-06	2.432585e-08	4.541046e+01	1.599233e+03
1.310000e-06	6.335740e-06	2.443822e-08	4.605943e+01	1.606451e+03
1.320000e-06	6.422667e-06	2.454247e-08	4.669137e+01	1.613034e+03
1.330000e-06	6.507355e-06	2.464027e-08	4.730704e+01	1.619056e+03
1.340000e-06	6.589735e-06	2.473369e-08	4.790592e+01	1.624625e+03
1.350000e-06	6.669655e-06	2.482139e-08	4.848692e+01	1.629862e+03
1.360000e-06	6.747122e-06	2.490317e-08	4.905009e+01	1.634890e+03
1.370000e-06	6.822032e-06	2.498133e-08	4.959467e+01	1.639809e+03
1.380000e-06	6.894384e-06	2.505657e-08	5.012065e+01	1.644689e+03
1.390000e-06	6.964331e-06	2.512984e-08	5.062915e+01	1.649559e+03
1.400000e-06	7.031831e-06	2.520130e-08	5.111986e+01	1.654405e+03
1.410000e-06	7.096766e-06	2.527032e-08	5.159193e+01	1.659176e+03
1.420000e-06	7.159193e-06	2.533532e-08	5.204575e+01	1.663795e+03
1.430000e-06	7.219235e-06	2.539365e-08	5.248225e+01	1.668171e+03
1.440000e-06	7.276732e-06	2.544693e-08	5.290024e+01	1.672220e+03
1.450000e-06	7.331584e-06	2.549784e-08	5.329900e+01	1.675876e+03
1.460000e-06	7.383669e-06	2.554611e-08	5.367765e+01	1.679101e+03
1.470000e-06	7.432680e-06	2.559171e-08	5.403395e+01	1.681895e+03
1.480000e-06	7.478878e-06	2.563413e-08	5.436980e+01	1.684291e+03
1.490000e-06	7.522567e-06	2.567321e-08	5.468741e+01	1.686352e+03
1.500000e-06	7.563537e-06	2.570954e-08	5.498525e+01	1.688158e+03
1.510000e-06	7.601758e-06	2.574217e-08	5.526310e+01	1.689796e+03
1.520000e-06	7.637408e-06	2.577012e-08	5.552227e+01	1.691341e+03
1.530000e-06	7.670312e-06	2.579388e-08	5.576148e+01	1.692849e+03
1.540000e-06	7.700457e-06	2.581505e-08	5.598062e+01	1.694348e+03
1.550000e-06	7.727941e-06	2.583200e-08	5.618043e+01	1.695833e+03
1.560000e-06	7.752504e-06	2.584622e-08	5.635900e+01	1.697270e+03
1.570000e-06	7.774236e-06	2.585960e-08	5.651698e+01	1.698604e+03
1.580000e-06	7.793306e-06	2.587270e-08	5.665562e+01	1.699769e+03
1.590000e-06	7.809506e-06	2.588675e-08	5.677339e+01	1.700701e+03
1.600000e-06	7.822741e-06	2.589792e-08	5.686961e+01	1.701348e+03
1.610000e-06	7.832938e-06	2.590441e-08	5.694374e+01	1.701682e+03
1.620000e-06	7.840187e-06	2.590660e-08	5.699643e+01	1.701700e+03
1.630000e-06	7.844698e-06	2.590743e-08	5.702923e+01	1.701428e+03
1.640000e-06	7.846386e-06	2.590768e-08	5.704150e+01	1.700917e+03
1.650000e-06	7.845314e-06	2.590435e-08	5.703371e+01	1.700229e+03
1.660000e-06	7.841694e-06	2.589307e-08	5.700739e+01	1.699433e+03
1.670000e-06	7.835424e-06	2.588701e-08	5.696181e+01	1.698588e+03
1.680000e-06	7.826499e-06	2.587784e-08	5.689692e+01	1.697738e+03
1.690000e-06	7.814915e-06	2.586298e-08	5.681271e+01	1.696901e+03
1.700000e-06	7.800516e-06	2.585052e-08	5.670803e+01	1.696071e+03
1.710000e-06	7.783566e-06	2.584534e-08	5.658481e+01	1.695215e+03
1.720000e-06	7.764411e-06	2.584537e-08	5.644556e+01	1.694285e+03
1.730000e-06	7.742852e-06	2.576861e-08	5.628883e+01	1.693224e+03
1.740000e-06	7.718227e-06	2.567999e-08	5.610981e+01	1.691977e+03
1.750000e-06	7.690027e-06	2.570593e-08	5.590480e+01	1.690502e+03
1.760000e-06	7.658437e-06	2.570063e-08	5.567515e+01	1.688775e+03
1.770000e-06	7.624224e-06	2.565565e-08	5.542643e+01	1.686798e+03
1.780000e-06	7.587878e-06	2.568638e-08	5.516220e+01	1.684594e+03
1.790000e-06	7.549358e-06	2.572686e-08	5.488217e+01	1.682204e+03
1.800000e-06	7.508843e-06	2.555128e-08	5.458764e+01	1.679680e+03
1.810000e-06	7.466084e-06	2.556450e-08	5.427678e+01	1.677070e+03
1.820000e-06	7.420636e-06	2.559331e-08	5.394639e+01	1.674411e+03
1.830000e-06	7.372588e-06	2.545579e-08	5.359709e+01	1.671720e+03
1.840000e-06	7.321629e-06	2.555019e-08	5.322663e+01	1.668987e+03
1.850000e-06	7.267708e-06	2.543454e-08	5.283464e+01	1.666175e+03
1.860000e-06	7.211058e-06	2.541385e-08	5.242280e+01	1.663225e+03
1.870000e-06	7.151828e-06	2.539200e-08	5.199222e+01	1.660063e+03
1.880000e-06	7.090110e-06	2.522774e-08	5.154354e+01	1.656612e+03
1.890000e-06	7.025577e-06	2.524933e-08	5.107440e+01	1.652802e+03
1.900000e-06	6.958318e-06	2.511915e-08	5.058544e+01	1.648586e+03
1.910000e-06	6.888398e-06	2.507812e-08	5.007713e+01	1.643943e+03
1.920000e-06	6.815744e-06	2.502195e-08	4.954896e+01	1.638887e+03
1.930000e-06	6.740507e-06	2.493323e-08	4.900200e+01	1.633458e+03
1.940000e-06	6.662533e-06	2.489541e-08	4.843514e+01	1.627723e+03
1.950000e-06	6.581977e-06	2.472875e-08	4.784953e+01	1.621759e+03
1.960000e-06	6.498999e-06	2.467784e-08	4.724629e+01	1.615644e+03
1.970000e-06	6.413621e-06	2.457174e-08	4.662561e+01	1.609438e+03
1.980000e-06	6.325881e-06	2.450499e-08	4.598776e+01	1.603176e+03
1.990000e-06	6.235845e-06	2.442199e-08	4.533322e+01	1.596856e+03
2.000000e-06	6.143707e-06	2.429309e-08	4.466340e+01	1.590440e+03
2.010000e-06	6.049362e-06	2.419926e-08	4.397753e+01	1.583859e+03
2.020000e-06	5.952802e-06	2.405480e-08	4.327556e+01	1.577016e+03
2.030000e-06	5.854159e-06	2.395886e-08	4.255844e+01	1.569808e+03
2.040000e-06	5.753542e-06	2.383990e-08	4.182698e+01	1.562133e+03
2.050000e-06	5.650837e-06	2.373786e-08	4.108034e+01	1.553914e+03
2.060000e-06	5.546087e-06	2.358624e-08	4.031883e+01	1.545102e+03
2.070000e-06	5.439433e-06	2.342998e-08	3.954348e+01	1.535688e+03
2.080000e-06	5.330911e-06	2.328182e-08	3.875455e+01	1.525701e+03
2.090000e-06	5.220515e-06	2.312787e-08	3.795199e+01	1.515202e+03
2.100000e-06	5.108157e-06	2.298202e-08	3.713517e+01	1.504272e+03
2.110000e-06	4.993963e-06	2.282252e-08	3.630501e+01	1.492992e+03
2.120000e-06	4.877869e-06	2.266393e-08	3.546104e+01	1.481431e+03
2.130000e-06	4.759776e-06	2.247132e-08	3.460252e+01	1.469626e+03
2.140000e-06	4.639759e-06	2.228233e-08	3.373003e+01	1.457568e+03
2.150000e-06	4.518048e-06	2.208534e-08	3.284521e+01	1.445206e+03
2.160000e-06	4.394781e-06	2.189081e-08	3.194909e+01	1.432438e+03
2.170000e-06	4.269991e-06	2.167725e-08	3.104189e+01	1.419133e+03
2.180000e-06	4.143614e-06	2.145637e-08	3.012316e+01	1.405135e+03
2.190000e-06	4.015594e-06	2.122493e-08	2.919249e+01	1.390295e+03
2.200000e-06	3.886034e-06	2.098070e-08	2.825061e+01	1.374480e+03
2.210000e-06	3.755040e-06	2.072374e-08	2.729832e+01	1.357600e+03
2.220000e-06	3.622702e-06	2.045777e-08	2.633624e+01	1.339609e+03
2.230000e-06	3.489114e-06	2.018574e-08	2.536509e+01	1.320515e+03
2.240000e-06	3.354240e-06	1.989209e-08	2.438459e+01	1.300367e+03
2.250000e-06	3.217978e-06	1.958354e-08	2.339399e+01	1.279241e+03
2.260000e-06	3.080479e-06	1.925495e-08	2.239440e+01	1.257216e+03
2.270000e-06	2.941860e-06	1.891393e-08	2.138667e+01	1.234345e+03
2.280000e-06	2.802163e-06	1.855184e-08	2.037111e+01	1.210630e+03
2.290000e-06	2.661366e-06	1.817423e-08	1.934755e+01	1.185998e+03
2.300000e-06	2.519531e-06	1.777643e-08	1.831643e+01	1.160288e+03
2.310000e-06	2.376765e-06	1.735357e-08	1.727856e+01	1.133250e+03
2.320000e-06	2.233062e-06	1.689761e-08	1.623387e+01	1.104552e+03
2.330000e-06	2.088530e-06	1.640698e-08	1.518315e+01	1.073807e+03
2.340000e-06	1.943340e-06	1.588623e-08	1.412765e+01	1.040603e+03
2.350000e-06	1.797531e-06	1.533257e-08	1.306765e+01	1.004540e+03
2.360000e-06	1.651112e-06	1.474386e-08	1.200322e+01	9.652722e+02
2.370000e-06	1.504161e-06	1.411209e-08	1.093492e+01	9.225389e+02
2.380000e-06	1.356773e-06	1.343073e-08	9.863442e+00	8.761933e+02
2.390000e-06	1.209044e-06	1.269337e-08	8.789487e+00	8.262137e+02
2.400000e-06	1.060990e-06	1.189644e-08	7.713164e+00	7.727010e+02
2.410000e-06	9.125352e-07	1.104386e-08	6.633930e+00	7.158628e+02
2.420000e-06	7.636948e-07	1.013963e-08	5.551893e+00	6.559842e+02
2.430000e-06	6.146177e-07	9.179809e-09	4.468135e+00	5.933906e+02
2.440000e-06	4.653355e-07	8.163181e-09	3.382886e+00	5.284084e+02
2.450000e-06	3.158264e-07	7.098808e-09	2.295988e+00	4.613280e+02
2.460000e-06	1.661921e-07	6.003700e-09	1.208180e+00	3.923767e+02
2.470000e-06	1.653059e-08	4.891849e-09	1.201737e-01	3.217041e+02
2.480000e-06	-1.331381e-07	3.774307e-09	-9.678848e-01	2.493835e+02
2.490000e-06	-2.828168e-07	2.656148e-09	-2.056016e+00	1.754296e+02
2.500000e-06	-4.324503e-07	1.532094e-09	-3.143818e+00	9.983007e+01
2.510000e-06	-5.819325e-07	3.947469e-10	-4.230521e+00	2.258706e+01
2.520000e-06	-7.312484e-07	-7.662716e-10	-5.316015e+00	-5.623798e+01
2.530000e-06	-8.803647e-07	-1.957497e-09	-6.400057e+00	-1.364818e+02
2.540000e-06	-1.029146e-06	-3.183219e-09	-7.481667e+00	-2.178466e+02
2.550000e-06	-1.177554e-06	-4.442872e-09	-8.560560e+00	-2.998818e+02
2.560000e-06	-1.325548e-06	-5.725341e-09	-9.636441e+00	-3.819852e+02
2.570000e-06	-1.473100e-06	-7.014845e-09	-1.070911e+01	-4.634233e+02
2.580000e-06	-1.620178e-06	-8.288034e-09	-1.177833e+01	-5.433703e+02
2.590000e-06	-1.766633e-06	-9.516588e-09	-1.284303e+01	-6.209619e+02
2.600000e-06	-1.912401e-06	-1.067390e-08	-1.390273e+01	-6.953577e+02
2.610000e-06	-2.057524e-06	-1.174303e-08	-1.495775e+01	-7.658049e+02
2.620000e-06	-2.201894e-06	-1.272280e-08	-1.600729e+01	-8.316966e+02
2.630000e-06	-2.345280e-06	-1.361881e-08	-1.704967e+01	-8.926165e+02
2.640000e-06	-2.487632e-06	-1.443934e-08	-1.808454e+01	-9.483666e+02
2.650000e-06	-2.629026e-06	-1.519244e-08	-1.911244e+01	-9.989726e+02
2.660000e-06	-2.769387e-06	-1.588368e-08	-2.013284e+01	-1.044669e+03
2.670000e-06	-2.908566e-06	-1.651799e-08	-2.114464e+01	-1.085864e+03
2.680000e-06	-3.046577e-06	-1.710107e-08	-2.214795e+01	-1.123091e+03
2.690000e-06	-3.183535e-06	-1.763973e-08	-2.314360e+01	-1.156949e+03
2.700000e-06	-3.319273e-06	-1.813665e-08	-2.413039e+01	-1.188047e+03
2.710000e-06	-3.453674e-06	-1.860043e-08	-2.510745e+01	-1.216943e+03
2.720000e-06	-3.586855e-06	-1.903348e-08	-2.607565e+01	-1.244111e+03
2.730000e-06	-3.718749e-06	-1.943743e-08	-2.703448e+01	-1.269906e+03
2.740000e-06	-3.849288e-06	-1.981462e-08	-2.798348e+01	-1.294555e+03
2.750000e-06	-3.978579e-06	-2.016590e-08	-2.892339e+01	-1.318170e+03
2.760000e-06	-4.106523e-06	-2.049668e-08	-2.985352e+01	-1.340761e+03
2.770000e-06	-4.232919e-06	-2.081103e-08	-3.077239e+01	-1.362273e+03
2.780000e-06	-4.357890e-06	-2.111129e-08	-3.168090e+01	-1.382619e+03
2.790000e-06	-4.481393e-06	-2.139309e-08	-3.257874e+01	-1.401716e+03
2.800000e-06	-4.603310e-06	-2.165509e-08	-3.346505e+01	-1.419515e+03
2.810000e-06	-4.723551e-06	-2.190127e-08	-3.433917e+01	-1.436016e+03
2.820000e-06	-4.841920e-06	-2.213768e-08	-3.519970e+01	-1.451284e+03
2.830000e-06	-4.958365e-06	-2.236547e-08	-3.604622e+01	-1.465435e+03
2.840000e-06	-5.072843e-06	-2.258364e-08	-3.687845e+01	-1.478632e+03
2.850000e-06	-5.185315e-06	-2.279125e-08	-3.769610e+01	-1.491055e+03
2.860000e-06	-5.295785e-06	-2.298620e-08	-3.849919e+01	-1.502885e+03
2.870000e-06	-5.404381e-06	-2.316641e-08	-3.928866e+01	-1.514275e+03
2.880000e-06	-5.511210e-06	-2.333439e-08	-4.006528e+01	-1.525336e+03
2.890000e-06	-5.616117e-06	-2.349509e-08	-4.082793e+01	-1.536124e+03
2.900000e-06	-5.718872e-06	-2.364903e-08	-4.157494e+01	-1.546640e+03
2.910000e-06	-5.819413e-06	-2.379820e-08	-4.230585e+01	-1.556838e+03
2.920000e-06	-5.917863e-06	-2.394199e-08	-4.302156e+01	-1.566637e+03
2.930000e-06	-6.014275e-06	-2.407918e-08	-4.372246e+01	-1.575942e+03
2.940000e-06	-6.108523e-06	-2.420924e-08	-4.440762e+01	-1.584666e+03
