# Temperatura_=_93.38
# Concentracion g/m^3_=_28370.0
# C_Vs_to_Am_M_A/Vsm_=_65563218390.804596
# pendiente_HvsI_1/m_=_3716.3
# ordenada_HvsI_A/m_=_1297.0
# frecuencia_Hz_=_302506.06155893643

Tiempo_(s)	Campo_(V.s)	Magnetizacion_(V.s)	Campo_(kA/m)	Magnetizacion_(A/m)
0.000000e+00	-7.884548e-06	-3.003503e-08	-5.684160e+01	-1.967078e+03
1.000000e-08	-7.880232e-06	-3.003015e-08	-5.681049e+01	-1.966193e+03
2.000000e-08	-7.873463e-06	-3.001889e-08	-5.676169e+01	-1.965276e+03
3.000000e-08	-7.863992e-06	-3.000566e-08	-5.669341e+01	-1.964352e+03
4.000000e-08	-7.851597e-06	-2.998873e-08	-5.660405e+01	-1.963417e+03
5.000000e-08	-7.836270e-06	-2.996552e-08	-5.649356e+01	-1.962440e+03
6.000000e-08	-7.818307e-06	-2.993752e-08	-5.636406e+01	-1.961366e+03
7.000000e-08	-7.798148e-06	-2.990174e-08	-5.621872e+01	-1.960130e+03
8.000000e-08	-7.775572e-06	-2.989199e-08	-5.605597e+01	-1.958669e+03
9.000000e-08	-7.750046e-06	-2.993375e-08	-5.587194e+01	-1.956930e+03
1.000000e-07	-7.721381e-06	-2.988455e-08	-5.566529e+01	-1.954884e+03
1.100000e-07	-7.689778e-06	-2.980005e-08	-5.543746e+01	-1.952530e+03
1.200000e-07	-7.655365e-06	-2.976328e-08	-5.518937e+01	-1.949896e+03
1.300000e-07	-7.618352e-06	-2.972129e-08	-5.492253e+01	-1.947032e+03
1.400000e-07	-7.579093e-06	-2.963607e-08	-5.463951e+01	-1.944004e+03
1.500000e-07	-7.537582e-06	-2.955698e-08	-5.434025e+01	-1.940879e+03
1.600000e-07	-7.493660e-06	-2.961091e-08	-5.402360e+01	-1.937712e+03
1.700000e-07	-7.447204e-06	-2.952905e-08	-5.368868e+01	-1.934535e+03
1.800000e-07	-7.397968e-06	-2.941565e-08	-5.333373e+01	-1.931349e+03
1.900000e-07	-7.345772e-06	-2.943602e-08	-5.295744e+01	-1.928118e+03
2.000000e-07	-7.290741e-06	-2.933660e-08	-5.256071e+01	-1.924779e+03
2.100000e-07	-7.232996e-06	-2.927476e-08	-5.214441e+01	-1.921241e+03
2.200000e-07	-7.172596e-06	-2.921777e-08	-5.170897e+01	-1.917404e+03
2.300000e-07	-7.109663e-06	-2.912575e-08	-5.125527e+01	-1.913174e+03
2.400000e-07	-7.044112e-06	-2.906166e-08	-5.078270e+01	-1.908473e+03
2.500000e-07	-6.975823e-06	-2.895767e-08	-5.029039e+01	-1.903257e+03
2.600000e-07	-6.904797e-06	-2.888864e-08	-4.977835e+01	-1.897516e+03
2.700000e-07	-6.830997e-06	-2.878735e-08	-4.924630e+01	-1.891284e+03
2.800000e-07	-6.754536e-06	-2.870111e-08	-4.869508e+01	-1.884627e+03
2.900000e-07	-6.675365e-06	-2.860109e-08	-4.812431e+01	-1.877633e+03
3.000000e-07	-6.593560e-06	-2.848593e-08	-4.753456e+01	-1.870400e+03
3.100000e-07	-6.509525e-06	-2.840301e-08	-4.692873e+01	-1.863014e+03
3.200000e-07	-6.423308e-06	-2.828396e-08	-4.630718e+01	-1.855538e+03
3.300000e-07	-6.334768e-06	-2.818029e-08	-4.566887e+01	-1.847998e+03
3.400000e-07	-6.243812e-06	-2.804468e-08	-4.501314e+01	-1.840376e+03
3.500000e-07	-6.150608e-06	-2.791782e-08	-4.434122e+01	-1.832613e+03
3.600000e-07	-6.055298e-06	-2.779150e-08	-4.365410e+01	-1.824613e+03
3.700000e-07	-5.957748e-06	-2.764973e-08	-4.295084e+01	-1.816262e+03
3.800000e-07	-5.857971e-06	-2.751426e-08	-4.223153e+01	-1.807438e+03
3.900000e-07	-5.756136e-06	-2.736832e-08	-4.149737e+01	-1.798036e+03
4.000000e-07	-5.652285e-06	-2.722109e-08	-4.074868e+01	-1.787981e+03
4.100000e-07	-5.546426e-06	-2.704937e-08	-3.998552e+01	-1.777236e+03
4.200000e-07	-5.438633e-06	-2.688995e-08	-3.920841e+01	-1.765813e+03
4.300000e-07	-5.328969e-06	-2.671747e-08	-3.841782e+01	-1.753763e+03
4.400000e-07	-5.217357e-06	-2.653397e-08	-3.761318e+01	-1.741167e+03
4.500000e-07	-5.103702e-06	-2.634110e-08	-3.679381e+01	-1.728122e+03
4.600000e-07	-4.988000e-06	-2.614583e-08	-3.595969e+01	-1.714716e+03
4.700000e-07	-4.870422e-06	-2.594007e-08	-3.511204e+01	-1.701013e+03
4.800000e-07	-4.751186e-06	-2.572056e-08	-3.425244e+01	-1.687034e+03
4.900000e-07	-4.630251e-06	-2.550156e-08	-3.338059e+01	-1.672747e+03
5.000000e-07	-4.507554e-06	-2.526951e-08	-3.249604e+01	-1.658067e+03
5.100000e-07	-4.383142e-06	-2.502632e-08	-3.159913e+01	-1.642862e+03
5.200000e-07	-4.257147e-06	-2.476731e-08	-3.069080e+01	-1.626970e+03
5.300000e-07	-4.129654e-06	-2.450298e-08	-2.977167e+01	-1.610215e+03
5.400000e-07	-4.000608e-06	-2.422335e-08	-2.884134e+01	-1.592434e+03
5.500000e-07	-3.870018e-06	-2.393069e-08	-2.789989e+01	-1.573498e+03
5.600000e-07	-3.737932e-06	-2.362430e-08	-2.694765e+01	-1.553327e+03
5.700000e-07	-3.604451e-06	-2.330657e-08	-2.598535e+01	-1.531898e+03
5.800000e-07	-3.469633e-06	-2.297399e-08	-2.501342e+01	-1.509242e+03
5.900000e-07	-3.333480e-06	-2.262389e-08	-2.403186e+01	-1.485431e+03
6.000000e-07	-3.195970e-06	-2.226064e-08	-2.304051e+01	-1.460553e+03
6.100000e-07	-3.057147e-06	-2.187875e-08	-2.203971e+01	-1.434689e+03
6.200000e-07	-2.917033e-06	-2.147535e-08	-2.102959e+01	-1.407874e+03
6.300000e-07	-2.775710e-06	-2.104307e-08	-2.001076e+01	-1.380074e+03
6.400000e-07	-2.633287e-06	-2.058709e-08	-1.898400e+01	-1.351166e+03
6.500000e-07	-2.489740e-06	-2.010537e-08	-1.794913e+01	-1.320924e+03
6.600000e-07	-2.345304e-06	-1.959840e-08	-1.690786e+01	-1.289026e+03
6.700000e-07	-2.200158e-06	-1.906150e-08	-1.586147e+01	-1.255071e+03
6.800000e-07	-2.054180e-06	-1.849030e-08	-1.480908e+01	-1.218608e+03
6.900000e-07	-1.907487e-06	-1.788417e-08	-1.375153e+01	-1.179178e+03
7.000000e-07	-1.760301e-06	-1.723300e-08	-1.269043e+01	-1.136352e+03
7.100000e-07	-1.612609e-06	-1.653632e-08	-1.162569e+01	-1.089774e+03
7.200000e-07	-1.464405e-06	-1.578357e-08	-1.055724e+01	-1.039192e+03
7.300000e-07	-1.315757e-06	-1.496958e-08	-9.485610e+00	-9.844837e+02
7.400000e-07	-1.166670e-06	-1.409349e-08	-8.410805e+00	-9.256576e+02
7.500000e-07	-1.017150e-06	-1.315533e-08	-7.332881e+00	-8.628458e+02
7.600000e-07	-8.673132e-07	-1.215537e-08	-6.252669e+00	-7.962789e+02
7.700000e-07	-7.172000e-07	-1.108987e-08	-5.170467e+00	-7.262518e+02
7.800000e-07	-5.669211e-07	-9.958812e-09	-4.087071e+00	-6.530826e+02
7.900000e-07	-4.164429e-07	-8.764976e-09	-3.002237e+00	-5.770738e+02
8.000000e-07	-2.657442e-07	-7.520522e-09	-1.915814e+00	-4.984794e+02
8.100000e-07	-1.149568e-07	-6.239548e-09	-8.287513e-01	-4.174854e+02
8.200000e-07	3.588668e-08	-4.940170e-09	2.587157e-01	-3.342057e+02
8.300000e-07	1.867564e-07	-3.633336e-09	1.346372e+00	-2.486956e+02
8.400000e-07	3.376395e-07	-2.320087e-09	2.434125e+00	-1.609809e+02
8.500000e-07	4.884349e-07	-9.963266e-10	3.521245e+00	-7.109940e+01
8.600000e-07	6.390567e-07	3.469978e-10	4.607114e+00	2.085164e+01
8.700000e-07	7.894460e-07	1.720457e-09	5.691306e+00	1.146690e+02
8.800000e-07	9.395862e-07	3.135154e-09	6.773703e+00	2.100049e+02
8.900000e-07	1.089502e-06	4.594239e-09	7.854482e+00	3.063441e+02
9.000000e-07	1.239076e-06	6.089085e-09	8.932796e+00	4.029992e+02
9.100000e-07	1.388176e-06	7.601747e-09	1.000769e+01	4.991290e+02
9.200000e-07	1.536790e-06	9.105581e-09	1.107909e+01	5.937773e+02
9.300000e-07	1.684891e-06	1.056174e-08	1.214679e+01	6.859302e+02
9.400000e-07	1.832454e-06	1.193678e-08	1.321060e+01	7.745845e+02
9.500000e-07	1.979390e-06	1.321306e-08	1.426990e+01	8.588208e+02
9.600000e-07	2.125601e-06	1.438372e-08	1.532397e+01	9.378721e+02
9.700000e-07	2.271060e-06	1.545183e-08	1.637262e+01	1.011180e+03
9.800000e-07	2.415624e-06	1.642540e-08	1.741482e+01	1.078434e+03
9.900000e-07	2.559230e-06	1.731808e-08	1.845010e+01	1.139582e+03
1.000000e-06	2.701854e-06	1.813702e-08	1.947831e+01	1.194825e+03
1.010000e-06	2.843351e-06	1.888430e-08	2.049841e+01	1.244582e+03
1.020000e-06	2.983659e-06	1.956886e-08	2.150992e+01	1.289434e+03
1.030000e-06	3.122812e-06	2.020294e-08	2.251310e+01	1.330067e+03
1.040000e-06	3.260732e-06	2.079367e-08	2.350740e+01	1.367197e+03
1.050000e-06	3.397305e-06	2.134248e-08	2.449199e+01	1.401510e+03
1.060000e-06	3.532501e-06	2.185327e-08	2.546665e+01	1.433600e+03
1.070000e-06	3.666446e-06	2.232801e-08	2.643229e+01	1.463940e+03
1.080000e-06	3.799119e-06	2.277246e-08	2.738876e+01	1.492856e+03
1.090000e-06	3.930474e-06	2.318855e-08	2.833573e+01	1.520528e+03
1.100000e-06	4.060474e-06	2.357862e-08	2.927294e+01	1.547015e+03
1.110000e-06	4.188989e-06	2.394629e-08	3.019943e+01	1.572281e+03
1.120000e-06	4.316035e-06	2.429405e-08	3.111533e+01	1.596236e+03
1.130000e-06	4.441590e-06	2.462250e-08	3.202049e+01	1.618780e+03
1.140000e-06	4.565624e-06	2.493275e-08	3.291468e+01	1.639840e+03
1.150000e-06	4.688073e-06	2.522582e-08	3.379744e+01	1.659393e+03
1.160000e-06	4.808800e-06	2.550143e-08	3.466779e+01	1.677484e+03
1.170000e-06	4.927761e-06	2.576216e-08	3.552542e+01	1.694228e+03
1.180000e-06	5.044979e-06	2.600824e-08	3.637046e+01	1.709795e+03
1.190000e-06	5.160357e-06	2.624349e-08	3.720225e+01	1.724393e+03
1.200000e-06	5.273740e-06	2.646823e-08	3.801966e+01	1.738238e+03
1.210000e-06	5.385067e-06	2.667943e-08	3.882225e+01	1.751526e+03
1.220000e-06	5.494490e-06	2.687846e-08	3.961110e+01	1.764414e+03
1.230000e-06	5.602046e-06	2.706812e-08	4.038650e+01	1.776997e+03
1.240000e-06	5.707553e-06	2.724973e-08	4.114712e+01	1.789310e+03
1.250000e-06	5.810891e-06	2.742523e-08	4.189212e+01	1.801322e+03
1.260000e-06	5.912073e-06	2.759346e-08	4.262156e+01	1.812957e+03
1.270000e-06	6.011088e-06	2.775223e-08	4.333538e+01	1.824111e+03
1.280000e-06	6.107831e-06	2.790272e-08	4.403283e+01	1.834675e+03
1.290000e-06	6.202298e-06	2.804636e-08	4.471386e+01	1.844556e+03
1.300000e-06	6.294584e-06	2.818421e-08	4.537917e+01	1.853700e+03
1.310000e-06	6.384632e-06	2.831588e-08	4.602835e+01	1.862096e+03
1.320000e-06	6.472350e-06	2.844051e-08	4.666073e+01	1.869789e+03
1.330000e-06	6.557822e-06	2.855862e-08	4.727692e+01	1.876864e+03
1.340000e-06	6.641038e-06	2.867070e-08	4.787684e+01	1.883439e+03
1.350000e-06	6.721879e-06	2.877714e-08	4.845964e+01	1.889649e+03
1.360000e-06	6.800248e-06	2.887808e-08	4.902462e+01	1.895620e+03
1.370000e-06	6.876045e-06	2.897342e-08	4.957106e+01	1.901456e+03
1.380000e-06	6.949189e-06	2.906229e-08	5.009838e+01	1.907224e+03
1.390000e-06	7.019776e-06	2.914506e-08	5.060725e+01	1.912946e+03
1.400000e-06	7.087914e-06	2.922371e-08	5.109848e+01	1.918599e+03
1.410000e-06	7.153524e-06	2.929950e-08	5.157148e+01	1.924124e+03
1.420000e-06	7.216538e-06	2.937224e-08	5.202576e+01	1.929437e+03
1.430000e-06	7.277082e-06	2.944197e-08	5.246224e+01	1.934446e+03
1.440000e-06	7.335151e-06	2.950777e-08	5.288087e+01	1.939068e+03
1.450000e-06	7.390615e-06	2.956993e-08	5.328072e+01	1.943246e+03
1.460000e-06	7.443299e-06	2.962864e-08	5.366053e+01	1.946952e+03
1.470000e-06	7.492937e-06	2.968407e-08	5.401839e+01	1.950199e+03
1.480000e-06	7.539654e-06	2.973590e-08	5.435518e+01	1.953035e+03
1.490000e-06	7.583740e-06	2.978314e-08	5.467301e+01	1.955533e+03
1.500000e-06	7.625195e-06	2.982621e-08	5.497187e+01	1.957781e+03
1.510000e-06	7.663931e-06	2.986549e-08	5.525112e+01	1.959865e+03
1.520000e-06	7.699970e-06	2.990169e-08	5.551094e+01	1.961858e+03
1.530000e-06	7.733236e-06	2.993449e-08	5.575076e+01	1.963804e+03
1.540000e-06	7.763707e-06	2.996195e-08	5.597043e+01	1.965717e+03
1.550000e-06	7.791512e-06	2.998414e-08	5.617089e+01	1.967577e+03
1.560000e-06	7.816473e-06	3.000430e-08	5.635084e+01	1.969335e+03
1.570000e-06	7.838549e-06	3.002218e-08	5.650999e+01	1.970924e+03
1.580000e-06	7.857887e-06	3.003836e-08	5.664940e+01	1.972273e+03
1.590000e-06	7.874394e-06	3.005343e-08	5.676840e+01	1.973315e+03
1.600000e-06	7.887943e-06	3.006390e-08	5.686608e+01	1.974007e+03
1.610000e-06	7.898402e-06	3.007020e-08	5.694148e+01	1.974331e+03
1.620000e-06	7.905798e-06	3.007482e-08	5.699480e+01	1.974300e+03
1.630000e-06	7.910417e-06	3.007833e-08	5.702810e+01	1.973957e+03
1.640000e-06	7.912276e-06	3.008008e-08	5.704150e+01	1.973365e+03
1.650000e-06	7.911335e-06	3.007694e-08	5.703472e+01	1.972598e+03
1.660000e-06	7.907847e-06	3.006324e-08	5.700957e+01	1.971730e+03
1.670000e-06	7.901691e-06	3.005301e-08	5.696519e+01	1.970816e+03
1.680000e-06	7.892816e-06	3.004114e-08	5.690121e+01	1.969890e+03
1.690000e-06	7.881275e-06	3.002426e-08	5.681801e+01	1.968959e+03
1.700000e-06	7.866908e-06	3.000839e-08	5.671443e+01	1.967996e+03
1.710000e-06	7.849936e-06	2.999683e-08	5.659208e+01	1.966954e+03
1.720000e-06	7.830748e-06	2.998877e-08	5.645375e+01	1.965769e+03
1.730000e-06	7.809141e-06	2.990644e-08	5.629798e+01	1.964376e+03
1.740000e-06	7.784452e-06	2.981216e-08	5.611999e+01	1.962718e+03
1.750000e-06	7.756235e-06	2.983043e-08	5.591657e+01	1.960759e+03
1.760000e-06	7.724563e-06	2.982201e-08	5.568823e+01	1.958489e+03
1.770000e-06	7.690181e-06	2.976545e-08	5.544037e+01	1.955929e+03
1.780000e-06	7.653583e-06	2.976823e-08	5.517652e+01	1.953122e+03
1.790000e-06	7.614773e-06	2.981387e-08	5.489673e+01	1.950132e+03
1.800000e-06	7.574027e-06	2.965940e-08	5.460298e+01	1.947026e+03
1.810000e-06	7.531052e-06	2.962653e-08	5.429316e+01	1.943865e+03
1.820000e-06	7.485371e-06	2.967168e-08	5.396384e+01	1.940687e+03
1.830000e-06	7.437091e-06	2.954520e-08	5.361578e+01	1.937503e+03
1.840000e-06	7.385896e-06	2.959304e-08	5.324670e+01	1.934288e+03
1.850000e-06	7.331667e-06	2.947731e-08	5.285575e+01	1.930986e+03
1.860000e-06	7.274699e-06	2.941861e-08	5.244506e+01	1.927513e+03
1.870000e-06	7.215157e-06	2.939800e-08	5.201580e+01	1.923769e+03
1.880000e-06	7.152998e-06	2.925954e-08	5.156769e+01	1.919659e+03
1.890000e-06	7.087975e-06	2.927651e-08	5.109892e+01	1.915096e+03
1.900000e-06	7.020301e-06	2.914472e-08	5.061104e+01	1.910027e+03
1.910000e-06	6.949948e-06	2.907513e-08	5.010385e+01	1.904433e+03
1.920000e-06	6.876749e-06	2.898790e-08	4.957614e+01	1.898334e+03
1.930000e-06	6.800877e-06	2.887069e-08	4.902916e+01	1.891787e+03
1.940000e-06	6.722312e-06	2.883293e-08	4.846277e+01	1.884878e+03
1.950000e-06	6.641180e-06	2.868266e-08	4.787786e+01	1.877701e+03
1.960000e-06	6.557592e-06	2.860349e-08	4.727526e+01	1.870349e+03
1.970000e-06	6.471604e-06	2.846226e-08	4.665535e+01	1.862892e+03
1.980000e-06	6.383273e-06	2.836290e-08	4.601855e+01	1.855368e+03
1.990000e-06	6.292710e-06	2.825782e-08	4.536566e+01	1.847772e+03
2.000000e-06	6.199984e-06	2.812068e-08	4.469718e+01	1.840055e+03
2.010000e-06	6.104934e-06	2.801345e-08	4.401193e+01	1.832132e+03
2.020000e-06	6.007666e-06	2.784936e-08	4.331071e+01	1.823891e+03
2.030000e-06	5.908396e-06	2.771313e-08	4.259505e+01	1.815212e+03
2.040000e-06	5.807004e-06	2.755202e-08	4.186409e+01	1.805983e+03
2.050000e-06	5.703387e-06	2.742299e-08	4.111709e+01	1.796117e+03
2.060000e-06	5.597816e-06	2.725680e-08	4.035600e+01	1.785568e+03
2.070000e-06	5.490461e-06	2.708574e-08	3.958206e+01	1.774333e+03
2.080000e-06	5.381217e-06	2.691403e-08	3.879449e+01	1.762453e+03
2.090000e-06	5.269955e-06	2.673152e-08	3.799237e+01	1.750001e+03
2.100000e-06	5.156730e-06	2.654791e-08	3.717611e+01	1.737073e+03
2.110000e-06	5.041623e-06	2.635217e-08	3.634628e+01	1.723760e+03
2.120000e-06	4.924504e-06	2.616165e-08	3.550194e+01	1.710135e+03
2.130000e-06	4.805417e-06	2.594007e-08	3.464341e+01	1.696233e+03
2.140000e-06	4.684524e-06	2.571440e-08	3.377186e+01	1.682038e+03
2.150000e-06	4.561942e-06	2.547830e-08	3.288814e+01	1.667480e+03
2.160000e-06	4.437715e-06	2.524740e-08	3.199256e+01	1.652439e+03
2.170000e-06	4.311860e-06	2.499648e-08	3.108524e+01	1.636759e+03
2.180000e-06	4.184387e-06	2.473638e-08	3.016625e+01	1.620266e+03
2.190000e-06	4.055368e-06	2.446436e-08	2.923612e+01	1.602791e+03
2.200000e-06	3.924919e-06	2.418218e-08	2.829569e+01	1.584193e+03
2.210000e-06	3.793027e-06	2.388193e-08	2.734485e+01	1.564378e+03
2.220000e-06	3.659674e-06	2.356560e-08	2.638347e+01	1.543305e+03
2.230000e-06	3.524951e-06	2.323840e-08	2.541222e+01	1.520992e+03
2.240000e-06	3.388908e-06	2.289114e-08	2.443145e+01	1.497499e+03
2.250000e-06	3.251574e-06	2.252949e-08	2.344138e+01	1.472915e+03
2.260000e-06	3.113010e-06	2.215019e-08	2.244244e+01	1.447325e+03
2.270000e-06	2.973247e-06	2.175788e-08	2.143485e+01	1.420779e+03
2.280000e-06	2.832281e-06	2.134086e-08	2.041860e+01	1.393267e+03
2.290000e-06	2.690178e-06	2.090018e-08	1.939414e+01	1.364692e+03
2.300000e-06	2.547061e-06	2.043355e-08	1.836238e+01	1.334857e+03
2.310000e-06	2.403034e-06	1.993999e-08	1.732405e+01	1.303468e+03
2.320000e-06	2.258169e-06	1.941117e-08	1.627969e+01	1.270143e+03
2.330000e-06	2.112556e-06	1.884527e-08	1.522992e+01	1.234442e+03
2.340000e-06	1.966371e-06	1.824314e-08	1.417604e+01	1.195904e+03
2.350000e-06	1.819567e-06	1.760174e-08	1.311770e+01	1.154086e+03
2.360000e-06	1.672139e-06	1.691929e-08	1.205485e+01	1.108608e+03
2.370000e-06	1.524201e-06	1.618973e-08	1.098833e+01	1.059187e+03
2.380000e-06	1.375755e-06	1.540439e-08	9.918152e+00	1.005660e+03
2.390000e-06	1.226860e-06	1.455543e-08	8.844732e+00	9.479999e+02
2.400000e-06	1.077541e-06	1.363946e-08	7.768256e+00	8.863049e+02
2.410000e-06	9.278286e-07	1.265682e-08	6.688939e+00	8.207807e+02
2.420000e-06	7.777460e-07	1.160508e-08	5.606958e+00	7.517079e+02
2.430000e-06	6.273378e-07	1.048581e-08	4.522629e+00	6.794020e+02
2.440000e-06	4.767211e-07	9.304851e-09	3.436797e+00	6.041738e+02
2.450000e-06	3.259446e-07	8.072701e-09	2.349813e+00	5.262938e+02
2.460000e-06	1.750510e-07	6.804131e-09	1.261985e+00	4.459686e+02
2.470000e-06	2.404655e-08	5.510439e-09	1.733574e-01	3.633320e+02
2.480000e-06	-1.270204e-07	4.203329e-09	-9.157208e-01	2.784538e+02
2.490000e-06	-2.780317e-07	2.888362e-09	-2.004397e+00	1.913643e+02
2.500000e-06	-4.289779e-07	1.561777e-09	-3.092605e+00	1.020933e+02
2.510000e-06	-5.798012e-07	2.183831e-10	-4.179926e+00	1.071612e+01
2.520000e-06	-7.304113e-07	-1.152525e-09	-5.265711e+00	-8.259870e+01
2.530000e-06	-8.807942e-07	-2.561903e-09	-6.349857e+00	-1.775479e+02
2.540000e-06	-1.030885e-06	-4.015066e-09	-7.431897e+00	-2.736654e+02
2.550000e-06	-1.180560e-06	-5.506456e-09	-8.510942e+00	-3.703121e+02
2.560000e-06	-1.329781e-06	-7.020058e-09	-9.586714e+00	-4.666876e+02
2.570000e-06	-1.478547e-06	-8.532416e-09	-1.065920e+01	-5.618635e+02
2.580000e-06	-1.626749e-06	-1.001139e-08	-1.172762e+01	-6.548358e+02
2.590000e-06	-1.774355e-06	-1.142652e-08	-1.279175e+01	-7.445907e+02
2.600000e-06	-1.921304e-06	-1.275316e-08	-1.385114e+01	-8.301775e+02
2.610000e-06	-2.067531e-06	-1.397741e-08	-1.490533e+01	-9.107794e+02
2.620000e-06	-2.213004e-06	-1.509298e-08	-1.595408e+01	-9.857737e+02
2.630000e-06	-2.357639e-06	-1.610590e-08	-1.699679e+01	-1.054776e+03
2.640000e-06	-2.501419e-06	-1.702940e-08	-1.803333e+01	-1.117661e+03
2.650000e-06	-2.644212e-06	-1.787486e-08	-1.906276e+01	-1.174559e+03
2.660000e-06	-2.785897e-06	-1.864926e-08	-2.008420e+01	-1.225832e+03
2.670000e-06	-2.926438e-06	-1.935920e-08	-2.109739e+01	-1.272021e+03
2.680000e-06	-3.065773e-06	-2.001526e-08	-2.210189e+01	-1.313788e+03
2.690000e-06	-3.203875e-06	-2.062298e-08	-2.309751e+01	-1.351849e+03
2.700000e-06	-3.340761e-06	-2.118813e-08	-2.408435e+01	-1.386904e+03
2.710000e-06	-3.476439e-06	-2.171371e-08	-2.506249e+01	-1.419577e+03
2.720000e-06	-3.610823e-06	-2.220376e-08	-2.603129e+01	-1.450380e+03
2.730000e-06	-3.743881e-06	-2.266314e-08	-2.699054e+01	-1.479680e+03
2.740000e-06	-3.875553e-06	-2.308876e-08	-2.793980e+01	-1.507699e+03
2.750000e-06	-4.005868e-06	-2.348583e-08	-2.887926e+01	-1.534527e+03
2.760000e-06	-4.134868e-06	-2.385772e-08	-2.980926e+01	-1.560151e+03
2.770000e-06	-4.262481e-06	-2.420833e-08	-3.072925e+01	-1.584493e+03
2.780000e-06	-4.388573e-06	-2.454070e-08	-3.163828e+01	-1.607452e+03
2.790000e-06	-4.513073e-06	-2.485713e-08	-3.253583e+01	-1.628943e+03
2.800000e-06	-4.636037e-06	-2.515841e-08	-3.342230e+01	-1.648927e+03
2.810000e-06	-4.757395e-06	-2.544180e-08	-3.429721e+01	-1.667429e+03
2.820000e-06	-4.877060e-06	-2.570828e-08	-3.515990e+01	-1.684545e+03
2.830000e-06	-4.994826e-06	-2.596002e-08	-3.600890e+01	-1.700431e+03
2.840000e-06	-5.110530e-06	-2.620139e-08	-3.684304e+01	-1.715286e+03
2.850000e-06	-5.224156e-06	-2.643335e-08	-3.766220e+01	-1.729326e+03
2.860000e-06	-5.335692e-06	-2.665553e-08	-3.846629e+01	-1.742758e+03
2.870000e-06	-5.445188e-06	-2.686433e-08	-3.925567e+01	-1.755749e+03
2.880000e-06	-5.552823e-06	-2.706035e-08	-4.003164e+01	-1.768416e+03
2.890000e-06	-5.658629e-06	-2.724534e-08	-4.079442e+01	-1.780808e+03
2.900000e-06	-5.762340e-06	-2.742184e-08	-4.154210e+01	-1.792914e+03
2.910000e-06	-5.863820e-06	-2.759148e-08	-4.227369e+01	-1.804669e+03
2.920000e-06	-5.963118e-06	-2.775475e-08	-4.298956e+01	-1.815974e+03
2.930000e-06	-6.060334e-06	-2.791111e-08	-4.369041e+01	-1.826719e+03
2.940000e-06	-6.155455e-06	-2.805915e-08	-4.437615e+01	-1.836805e+03
