# Temperatura_=_66.96
# Concentracion g/m^3_=_28370.0
# C_Vs_to_Am_M_A/Vsm_=_65563218390.804596
# pendiente_HvsI_1/m_=_3716.3
# ordenada_HvsI_A/m_=_1297.0
# frecuencia_Hz_=_302507.9283213326

Tiempo_(s)	Campo_(V.s)	Magnetizacion_(V.s)	Campo_(kA/m)	Magnetizacion_(A/m)
0.000000e+00	-7.834284e-06	-2.586564e-08	-5.684384e+01	-1.693556e+03
1.000000e-08	-7.830167e-06	-2.586430e-08	-5.681397e+01	-1.692753e+03
2.000000e-08	-7.823545e-06	-2.585492e-08	-5.676592e+01	-1.691924e+03
3.000000e-08	-7.814266e-06	-2.584248e-08	-5.669859e+01	-1.691107e+03
4.000000e-08	-7.802178e-06	-2.582801e-08	-5.661088e+01	-1.690313e+03
5.000000e-08	-7.787224e-06	-2.580994e-08	-5.650238e+01	-1.689528e+03
6.000000e-08	-7.769609e-06	-2.578588e-08	-5.637457e+01	-1.688711e+03
7.000000e-08	-7.749727e-06	-2.575820e-08	-5.623031e+01	-1.687804e+03
8.000000e-08	-7.727499e-06	-2.573703e-08	-5.606903e+01	-1.686745e+03
9.000000e-08	-7.702433e-06	-2.577161e-08	-5.588716e+01	-1.685477e+03
1.000000e-07	-7.674208e-06	-2.575489e-08	-5.568236e+01	-1.683957e+03
1.100000e-07	-7.643026e-06	-2.567725e-08	-5.545611e+01	-1.682167e+03
1.200000e-07	-7.609120e-06	-2.563592e-08	-5.521010e+01	-1.680114e+03
1.300000e-07	-7.572642e-06	-2.560310e-08	-5.494542e+01	-1.677830e+03
1.400000e-07	-7.533881e-06	-2.554061e-08	-5.466418e+01	-1.675366e+03
1.500000e-07	-7.492869e-06	-2.547927e-08	-5.436660e+01	-1.672779e+03
1.600000e-07	-7.449475e-06	-2.550577e-08	-5.405175e+01	-1.670126e+03
1.700000e-07	-7.403571e-06	-2.547576e-08	-5.371868e+01	-1.667445e+03
1.800000e-07	-7.354984e-06	-2.535844e-08	-5.336614e+01	-1.664754e+03
1.900000e-07	-7.303454e-06	-2.535967e-08	-5.299225e+01	-1.662039e+03
2.000000e-07	-7.249042e-06	-2.530197e-08	-5.259745e+01	-1.659260e+03
2.100000e-07	-7.191995e-06	-2.522177e-08	-5.218353e+01	-1.656351e+03
2.200000e-07	-7.132219e-06	-2.519205e-08	-5.174981e+01	-1.653229e+03
2.300000e-07	-7.069876e-06	-2.511991e-08	-5.129746e+01	-1.649812e+03
2.400000e-07	-7.004957e-06	-2.507969e-08	-5.082642e+01	-1.646026e+03
2.500000e-07	-6.937311e-06	-2.498531e-08	-5.033560e+01	-1.641820e+03
2.600000e-07	-6.867056e-06	-2.492930e-08	-4.982585e+01	-1.637175e+03
2.700000e-07	-6.794089e-06	-2.486419e-08	-4.929641e+01	-1.632104e+03
2.800000e-07	-6.718374e-06	-2.477066e-08	-4.874704e+01	-1.626652e+03
2.900000e-07	-6.639929e-06	-2.468590e-08	-4.817786e+01	-1.620891e+03
3.000000e-07	-6.558805e-06	-2.459702e-08	-4.758925e+01	-1.614902e+03
3.100000e-07	-6.475394e-06	-2.452990e-08	-4.698403e+01	-1.608764e+03
3.200000e-07	-6.389868e-06	-2.442982e-08	-4.636347e+01	-1.602541e+03
3.300000e-07	-6.301980e-06	-2.434316e-08	-4.572578e+01	-1.596268e+03
3.400000e-07	-6.211695e-06	-2.424229e-08	-4.507069e+01	-1.589941e+03
3.500000e-07	-6.119265e-06	-2.412989e-08	-4.440004e+01	-1.583519e+03
3.600000e-07	-6.024703e-06	-2.402593e-08	-4.371392e+01	-1.576929e+03
3.700000e-07	-5.927936e-06	-2.390726e-08	-4.301180e+01	-1.570072e+03
3.800000e-07	-5.828971e-06	-2.379114e-08	-4.229373e+01	-1.562840e+03
3.900000e-07	-5.727934e-06	-2.367104e-08	-4.156063e+01	-1.555132e+03
4.000000e-07	-5.624923e-06	-2.354649e-08	-4.081320e+01	-1.546868e+03
4.100000e-07	-5.519905e-06	-2.340898e-08	-4.005121e+01	-1.538003e+03
4.200000e-07	-5.412913e-06	-2.327465e-08	-3.927490e+01	-1.528532e+03
4.300000e-07	-5.304010e-06	-2.313419e-08	-3.848473e+01	-1.518486e+03
4.400000e-07	-5.193244e-06	-2.297810e-08	-3.768103e+01	-1.507932e+03
4.500000e-07	-5.080598e-06	-2.281531e-08	-3.686370e+01	-1.496952e+03
4.600000e-07	-4.965955e-06	-2.265033e-08	-3.603187e+01	-1.485631e+03
4.700000e-07	-4.849321e-06	-2.247707e-08	-3.518561e+01	-1.474035e+03
4.800000e-07	-4.730877e-06	-2.229293e-08	-3.432620e+01	-1.462198e+03
4.900000e-07	-4.610769e-06	-2.210593e-08	-3.345472e+01	-1.450112e+03
5.000000e-07	-4.488943e-06	-2.191242e-08	-3.257078e+01	-1.437715e+03
5.100000e-07	-4.365361e-06	-2.170759e-08	-3.167410e+01	-1.424905e+03
5.200000e-07	-4.240233e-06	-2.149060e-08	-3.076620e+01	-1.411541e+03
5.300000e-07	-4.113623e-06	-2.126419e-08	-2.984754e+01	-1.397469e+03
5.400000e-07	-3.985573e-06	-2.102599e-08	-2.891844e+01	-1.382535e+03
5.500000e-07	-3.855998e-06	-2.077803e-08	-2.797827e+01	-1.366611e+03
5.600000e-07	-3.724890e-06	-2.051744e-08	-2.702698e+01	-1.349608e+03
5.700000e-07	-3.592385e-06	-2.024560e-08	-2.606555e+01	-1.331486e+03
5.800000e-07	-3.458533e-06	-1.995894e-08	-2.509435e+01	-1.312259e+03
5.900000e-07	-3.323422e-06	-1.966139e-08	-2.411402e+01	-1.291981e+03
6.000000e-07	-3.187072e-06	-1.935290e-08	-2.312469e+01	-1.270730e+03
6.100000e-07	-3.049494e-06	-1.902959e-08	-2.212646e+01	-1.248585e+03
6.200000e-07	-2.910551e-06	-1.868753e-08	-2.111831e+01	-1.225597e+03
6.300000e-07	-2.770312e-06	-1.832032e-08	-2.010077e+01	-1.201759e+03
6.400000e-07	-2.628973e-06	-1.793123e-08	-1.907525e+01	-1.176990e+03
6.500000e-07	-2.486558e-06	-1.751864e-08	-1.804192e+01	-1.151116e+03
6.600000e-07	-2.343167e-06	-1.708424e-08	-1.700150e+01	-1.123874e+03
6.700000e-07	-2.198933e-06	-1.662597e-08	-1.595498e+01	-1.094924e+03
6.800000e-07	-2.053969e-06	-1.613901e-08	-1.490315e+01	-1.063869e+03
6.900000e-07	-1.908318e-06	-1.561927e-08	-1.384633e+01	-1.030294e+03
7.000000e-07	-1.762018e-06	-1.506112e-08	-1.278482e+01	-9.938026e+02
7.100000e-07	-1.615120e-06	-1.446380e-08	-1.171895e+01	-9.540561e+02
7.200000e-07	-1.467748e-06	-1.382264e-08	-1.064966e+01	-9.108082e+02
7.300000e-07	-1.320038e-06	-1.312833e-08	-9.577904e+00	-8.639290e+02
7.400000e-07	-1.171959e-06	-1.237630e-08	-8.503480e+00	-8.134159e+02
7.500000e-07	-1.023469e-06	-1.156812e-08	-7.426062e+00	-7.593892e+02
7.600000e-07	-8.746160e-07	-1.070658e-08	-6.346021e+00	-7.020735e+02
7.700000e-07	-7.254812e-07	-9.790864e-09	-5.263932e+00	-6.417666e+02
7.800000e-07	-5.761104e-07	-8.821190e-09	-4.180130e+00	-5.788014e+02
7.900000e-07	-4.265048e-07	-7.803673e-09	-3.094625e+00	-5.135056e+02
8.000000e-07	-2.767350e-07	-6.743697e-09	-2.007928e+00	-4.461656e+02
8.100000e-07	-1.268613e-07	-5.652168e-09	-9.204778e-01	-3.770000e+02
8.200000e-07	2.313134e-08	-4.543091e-09	1.678359e-01	-3.061472e+02
8.300000e-07	1.731959e-07	-3.428302e-09	1.256671e+00	-2.336694e+02
8.400000e-07	3.232161e-07	-2.312154e-09	2.345185e+00	-1.595724e+02
8.500000e-07	4.731282e-07	-1.190124e-09	3.432914e+00	-8.383916e+01
8.600000e-07	6.229048e-07	-5.621938e-11	4.519660e+00	-6.472931e+00
8.700000e-07	7.725192e-07	1.098892e-09	5.605229e+00	7.245711e+01
8.800000e-07	9.219122e-07	2.283792e-09	6.689192e+00	1.527740e+02
8.900000e-07	1.070971e-06	3.506567e-09	7.770729e+00	2.341613e+02
9.000000e-07	1.219652e-06	4.764126e-09	8.849525e+00	3.161477e+02
9.100000e-07	1.367912e-06	6.046948e-09	9.925269e+00	3.981104e+02
9.200000e-07	1.515697e-06	7.335517e-09	1.099756e+01	4.792982e+02
9.300000e-07	1.662976e-06	8.596865e-09	1.206619e+01	5.588742e+02
9.400000e-07	1.809680e-06	9.802567e-09	1.313064e+01	6.359708e+02
9.500000e-07	1.955693e-06	1.093102e-08	1.419008e+01	7.097539e+02
9.600000e-07	2.100950e-06	1.197406e-08	1.524403e+01	7.794866e+02
9.700000e-07	2.245377e-06	1.293182e-08	1.629196e+01	8.445861e+02
9.800000e-07	2.388968e-06	1.380584e-08	1.733382e+01	9.046667e+02
9.900000e-07	2.531740e-06	1.460342e-08	1.836975e+01	9.595644e+02
1.000000e-06	2.673489e-06	1.533237e-08	1.939825e+01	1.009339e+03
1.010000e-06	2.814092e-06	1.600049e-08	2.041843e+01	1.054256e+03
1.020000e-06	2.953498e-06	1.661432e-08	2.142993e+01	1.094748e+03
1.030000e-06	3.091689e-06	1.718313e-08	2.243261e+01	1.131365e+03
1.040000e-06	3.228694e-06	1.771078e-08	2.342669e+01	1.164713e+03
1.050000e-06	3.364423e-06	1.819987e-08	2.441151e+01	1.195397e+03
1.060000e-06	3.498935e-06	1.865481e-08	2.538750e+01	1.223966e+03
1.070000e-06	3.632294e-06	1.907811e-08	2.635512e+01	1.250875e+03
1.080000e-06	3.764284e-06	1.947268e-08	2.731282e+01	1.276458e+03
1.090000e-06	3.894772e-06	1.984299e-08	2.825961e+01	1.300923e+03
1.100000e-06	4.023887e-06	2.019203e-08	2.919644e+01	1.324360e+03
1.110000e-06	4.151661e-06	2.052091e-08	3.012354e+01	1.346765e+03
1.120000e-06	4.278018e-06	2.083037e-08	3.104035e+01	1.368074e+03
1.130000e-06	4.402981e-06	2.112020e-08	3.194706e+01	1.388197e+03
1.140000e-06	4.526384e-06	2.139337e-08	3.284244e+01	1.407057e+03
1.150000e-06	4.648179e-06	2.165170e-08	3.372616e+01	1.424609e+03
1.160000e-06	4.768374e-06	2.189768e-08	3.459827e+01	1.440869e+03
1.170000e-06	4.886792e-06	2.213067e-08	3.545748e+01	1.455910e+03
1.180000e-06	5.003353e-06	2.235086e-08	3.630323e+01	1.469862e+03
1.190000e-06	5.118005e-06	2.255878e-08	3.713511e+01	1.482892e+03
1.200000e-06	5.230735e-06	2.275657e-08	3.795306e+01	1.495186e+03
1.210000e-06	5.341537e-06	2.294441e-08	3.875702e+01	1.506921e+03
1.220000e-06	5.450412e-06	2.312200e-08	3.954699e+01	1.518247e+03
1.230000e-06	5.557343e-06	2.329071e-08	4.032286e+01	1.529265e+03
1.240000e-06	5.662256e-06	2.345132e-08	4.108408e+01	1.540019e+03
1.250000e-06	5.765088e-06	2.360631e-08	4.183021e+01	1.550502e+03
1.260000e-06	5.865841e-06	2.375452e-08	4.256125e+01	1.560657e+03
1.270000e-06	5.964394e-06	2.389534e-08	4.327633e+01	1.570399e+03
1.280000e-06	6.060669e-06	2.402903e-08	4.397488e+01	1.579630e+03
1.290000e-06	6.154747e-06	2.415358e-08	4.465749e+01	1.588265e+03
1.300000e-06	6.246616e-06	2.427010e-08	4.532407e+01	1.596246e+03
1.310000e-06	6.336275e-06	2.438103e-08	4.597462e+01	1.603555e+03
1.320000e-06	6.423660e-06	2.448784e-08	4.660866e+01	1.610222e+03
1.330000e-06	6.508781e-06	2.458758e-08	4.722628e+01	1.616318e+03
1.340000e-06	6.591635e-06	2.468090e-08	4.782745e+01	1.621948e+03
1.350000e-06	6.672111e-06	2.477037e-08	4.841137e+01	1.627234e+03
1.360000e-06	6.750183e-06	2.485433e-08	4.897784e+01	1.632299e+03
1.370000e-06	6.825684e-06	2.493396e-08	4.952566e+01	1.637247e+03
1.380000e-06	6.898525e-06	2.501087e-08	5.005418e+01	1.642152e+03
1.390000e-06	6.968864e-06	2.508416e-08	5.056454e+01	1.647045e+03
1.400000e-06	7.036713e-06	2.515449e-08	5.105684e+01	1.651914e+03
1.410000e-06	7.102023e-06	2.522208e-08	5.153072e+01	1.656712e+03
1.420000e-06	7.164883e-06	2.528665e-08	5.198682e+01	1.661360e+03
1.430000e-06	7.225341e-06	2.534722e-08	5.242548e+01	1.665769e+03
1.440000e-06	7.283314e-06	2.540248e-08	5.284612e+01	1.669853e+03
1.450000e-06	7.338667e-06	2.545441e-08	5.324775e+01	1.673544e+03
1.460000e-06	7.391212e-06	2.550204e-08	5.362901e+01	1.676802e+03
1.470000e-06	7.440721e-06	2.554762e-08	5.398823e+01	1.679626e+03
1.480000e-06	7.487399e-06	2.559153e-08	5.432692e+01	1.682048e+03
1.490000e-06	7.531454e-06	2.563191e-08	5.464657e+01	1.684131e+03
1.500000e-06	7.572769e-06	2.566824e-08	5.494634e+01	1.685957e+03
1.510000e-06	7.611408e-06	2.569918e-08	5.522670e+01	1.687612e+03
1.520000e-06	7.647443e-06	2.572648e-08	5.548816e+01	1.689175e+03
1.530000e-06	7.680717e-06	2.575221e-08	5.572959e+01	1.690703e+03
1.540000e-06	7.711251e-06	2.577536e-08	5.595114e+01	1.692225e+03
1.550000e-06	7.739105e-06	2.579544e-08	5.615324e+01	1.693736e+03
1.560000e-06	7.764067e-06	2.581338e-08	5.633436e+01	1.695203e+03
1.570000e-06	7.786215e-06	2.582894e-08	5.649506e+01	1.696569e+03
1.580000e-06	7.805756e-06	2.584195e-08	5.663685e+01	1.697765e+03
1.590000e-06	7.822513e-06	2.585389e-08	5.675843e+01	1.698726e+03
1.600000e-06	7.836267e-06	2.586378e-08	5.685823e+01	1.699397e+03
1.610000e-06	7.846931e-06	2.586885e-08	5.693560e+01	1.699749e+03
1.620000e-06	7.854568e-06	2.587124e-08	5.699101e+01	1.699779e+03
1.630000e-06	7.859437e-06	2.587365e-08	5.702634e+01	1.699516e+03
1.640000e-06	7.861526e-06	2.587594e-08	5.704150e+01	1.699009e+03
1.650000e-06	7.860829e-06	2.587520e-08	5.703644e+01	1.698327e+03
1.660000e-06	7.857530e-06	2.586390e-08	5.701250e+01	1.697539e+03
1.670000e-06	7.851572e-06	2.585501e-08	5.696928e+01	1.696711e+03
1.680000e-06	7.842995e-06	2.584826e-08	5.690704e+01	1.695885e+03
1.690000e-06	7.831780e-06	2.583718e-08	5.682567e+01	1.695084e+03
1.700000e-06	7.817716e-06	2.582365e-08	5.672362e+01	1.694298e+03
1.710000e-06	7.801066e-06	2.581510e-08	5.660282e+01	1.693493e+03
1.720000e-06	7.782233e-06	2.581006e-08	5.646617e+01	1.692616e+03
1.730000e-06	7.761022e-06	2.576739e-08	5.631226e+01	1.691605e+03
1.740000e-06	7.736832e-06	2.566826e-08	5.613675e+01	1.690399e+03
1.750000e-06	7.709113e-06	2.566895e-08	5.593563e+01	1.688952e+03
1.760000e-06	7.677882e-06	2.568267e-08	5.570902e+01	1.687238e+03
1.770000e-06	7.643895e-06	2.564433e-08	5.546242e+01	1.685256e+03
1.780000e-06	7.607736e-06	2.564076e-08	5.520006e+01	1.683032e+03
1.790000e-06	7.569447e-06	2.567430e-08	5.492224e+01	1.680611e+03
1.800000e-06	7.529139e-06	2.559526e-08	5.462978e+01	1.678052e+03
1.810000e-06	7.486618e-06	2.552595e-08	5.432125e+01	1.675410e+03
1.820000e-06	7.441399e-06	2.558864e-08	5.399315e+01	1.672732e+03
1.830000e-06	7.393561e-06	2.549034e-08	5.364605e+01	1.670042e+03
1.840000e-06	7.342929e-06	2.549976e-08	5.327868e+01	1.667336e+03
1.850000e-06	7.289241e-06	2.545940e-08	5.288913e+01	1.664579e+03
1.860000e-06	7.232801e-06	2.535976e-08	5.247961e+01	1.661712e+03
1.870000e-06	7.173793e-06	2.535418e-08	5.205146e+01	1.658658e+03
1.880000e-06	7.112235e-06	2.522448e-08	5.160481e+01	1.655331e+03
1.890000e-06	7.047895e-06	2.522303e-08	5.113797e+01	1.651655e+03
1.900000e-06	6.980826e-06	2.515423e-08	5.065133e+01	1.647571e+03
1.910000e-06	6.911117e-06	2.506220e-08	5.014554e+01	1.643050e+03
1.920000e-06	6.838609e-06	2.503111e-08	4.961944e+01	1.638095e+03
1.930000e-06	6.763457e-06	2.491931e-08	4.907415e+01	1.632744e+03
1.940000e-06	6.685608e-06	2.487831e-08	4.850930e+01	1.627061e+03
1.950000e-06	6.605188e-06	2.476222e-08	4.792579e+01	1.621126e+03
1.960000e-06	6.522418e-06	2.468992e-08	4.732522e+01	1.615022e+03
1.970000e-06	6.437226e-06	2.459981e-08	4.670709e+01	1.608816e+03
1.980000e-06	6.349594e-06	2.448389e-08	4.607125e+01	1.602554e+03
1.990000e-06	6.259737e-06	2.441384e-08	4.541927e+01	1.596243e+03
2.000000e-06	6.167789e-06	2.429100e-08	4.475212e+01	1.589853e+03
2.010000e-06	6.073539e-06	2.420729e-08	4.406826e+01	1.583318e+03
2.020000e-06	5.977024e-06	2.408004e-08	4.336797e+01	1.576546e+03
2.030000e-06	5.878454e-06	2.397090e-08	4.265276e+01	1.569430e+03
2.040000e-06	5.777885e-06	2.384587e-08	4.192306e+01	1.561865e+03
2.050000e-06	5.675260e-06	2.372032e-08	4.117843e+01	1.553765e+03
2.060000e-06	5.570592e-06	2.358565e-08	4.041899e+01	1.545072e+03
2.070000e-06	5.464018e-06	2.343262e-08	3.964571e+01	1.535770e+03
2.080000e-06	5.355619e-06	2.329744e-08	3.885919e+01	1.525881e+03
2.090000e-06	5.245326e-06	2.314309e-08	3.805893e+01	1.515463e+03
2.100000e-06	5.133013e-06	2.299672e-08	3.724401e+01	1.504593e+03
2.110000e-06	5.018783e-06	2.283113e-08	3.641519e+01	1.493359e+03
2.120000e-06	4.902670e-06	2.267033e-08	3.557270e+01	1.481835e+03
2.130000e-06	4.784597e-06	2.248532e-08	3.471598e+01	1.470064e+03
2.140000e-06	4.664634e-06	2.229385e-08	3.384556e+01	1.458051e+03
2.150000e-06	4.542942e-06	2.209736e-08	3.296258e+01	1.445750e+03
2.160000e-06	4.419650e-06	2.190005e-08	3.206801e+01	1.433069e+03
2.170000e-06	4.294799e-06	2.169274e-08	3.116212e+01	1.419877e+03
2.180000e-06	4.168318e-06	2.147207e-08	3.024440e+01	1.406021e+03
2.190000e-06	4.040228e-06	2.124549e-08	2.931501e+01	1.391346e+03
2.200000e-06	3.910633e-06	2.100558e-08	2.837469e+01	1.375714e+03
2.210000e-06	3.779583e-06	2.075545e-08	2.742382e+01	1.359024e+03
2.220000e-06	3.647233e-06	2.049001e-08	2.646352e+01	1.341220e+03
2.230000e-06	3.513570e-06	2.021538e-08	2.549369e+01	1.322303e+03
2.240000e-06	3.378546e-06	1.991981e-08	2.451398e+01	1.302316e+03
2.250000e-06	3.242255e-06	1.960883e-08	2.352509e+01	1.281332e+03
2.260000e-06	3.104748e-06	1.928136e-08	2.252736e+01	1.259434e+03
2.270000e-06	2.965973e-06	1.894311e-08	2.152045e+01	1.236682e+03
2.280000e-06	2.826039e-06	1.858908e-08	2.050511e+01	1.213090e+03
2.290000e-06	2.685054e-06	1.821743e-08	1.948216e+01	1.188599e+03
2.300000e-06	2.543001e-06	1.782237e-08	1.845145e+01	1.163061e+03
2.310000e-06	2.399990e-06	1.739958e-08	1.741380e+01	1.136240e+03
2.320000e-06	2.256149e-06	1.694860e-08	1.637012e+01	1.107815e+03
2.330000e-06	2.111529e-06	1.646791e-08	1.532079e+01	1.077401e+03
2.340000e-06	1.966185e-06	1.595495e-08	1.426620e+01	1.044587e+03
2.350000e-06	1.820216e-06	1.540502e-08	1.320709e+01	1.008964e+03
2.360000e-06	1.673621e-06	1.481802e-08	1.214343e+01	9.701758e+02
2.370000e-06	1.526470e-06	1.419069e-08	1.107573e+01	9.279450e+02
2.380000e-06	1.378915e-06	1.351529e-08	1.000510e+01	8.821072e+02
2.390000e-06	1.230920e-06	1.278696e-08	8.931285e+00	8.326233e+02
2.400000e-06	1.082498e-06	1.200109e-08	7.854366e+00	7.795796e+02
2.410000e-06	9.337206e-07	1.115765e-08	6.774871e+00	7.231738e+02
2.420000e-06	7.846395e-07	1.025809e-08	5.693172e+00	6.636864e+02
2.430000e-06	6.353687e-07	9.299405e-09	4.610095e+00	6.014444e+02
2.440000e-06	4.859261e-07	8.287673e-09	3.525773e+00	5.367809e+02
2.450000e-06	3.362527e-07	7.232097e-09	2.439776e+00	4.699974e+02
2.460000e-06	1.863444e-07	6.144421e-09	1.352074e+00	4.013337e+02
2.470000e-06	3.629531e-08	5.037088e-09	2.633508e-01	3.309516e+02
2.480000e-06	-1.137400e-07	3.921496e-09	-8.252723e-01	2.589336e+02
2.490000e-06	-2.637262e-07	2.803144e-09	-1.913539e+00	1.852988e+02
2.500000e-06	-4.136476e-07	1.679403e-09	-3.001336e+00	1.100325e+02
2.510000e-06	-5.634231e-07	5.443689e-10	-4.088074e+00	3.312754e+01
2.520000e-06	-7.130008e-07	-6.102150e-10	-5.173377e+00	-4.537030e+01
2.530000e-06	-8.623555e-07	-1.792838e-09	-6.257062e+00	-1.253186e+02
2.540000e-06	-1.011481e-06	-3.010672e-09	-7.339081e+00	-2.064433e+02
2.550000e-06	-1.160288e-06	-4.263064e-09	-8.418796e+00	-2.883177e+02
2.560000e-06	-1.308622e-06	-5.541293e-09	-9.495072e+00	-3.703607e+02
2.570000e-06	-1.456456e-06	-6.830650e-09	-1.056772e+01	-4.518545e+02
2.580000e-06	-1.603822e-06	-8.106045e-09	-1.163698e+01	-5.319813e+02
2.590000e-06	-1.750661e-06	-9.338665e-09	-1.270241e+01	-6.098761e+02
2.600000e-06	-1.896904e-06	-1.050493e-08	-1.376352e+01	-6.846885e+02
2.610000e-06	-2.042490e-06	-1.158935e-08	-1.481986e+01	-7.556475e+02
2.620000e-06	-2.187234e-06	-1.258494e-08	-1.587009e+01	-8.221213e+02
2.630000e-06	-2.330963e-06	-1.349371e-08	-1.691295e+01	-8.836645e+02
2.640000e-06	-2.473716e-06	-1.432330e-08	-1.794874e+01	-9.400485e+02
2.650000e-06	-2.615486e-06	-1.508133e-08	-1.897739e+01	-9.912702e+02
2.660000e-06	-2.756211e-06	-1.577440e-08	-1.999846e+01	-1.037539e+03
2.670000e-06	-2.895850e-06	-1.641124e-08	-2.101165e+01	-1.079246e+03
2.680000e-06	-3.034342e-06	-1.700060e-08	-2.201651e+01	-1.116911e+03
2.690000e-06	-3.171695e-06	-1.754583e-08	-2.301312e+01	-1.151132e+03
2.700000e-06	-3.307825e-06	-1.804885e-08	-2.400085e+01	-1.182520e+03
2.710000e-06	-3.442660e-06	-1.851616e-08	-2.497918e+01	-1.211644e+03
2.720000e-06	-3.576256e-06	-1.895320e-08	-2.594853e+01	-1.238990e+03
2.730000e-06	-3.708594e-06	-1.936149e-08	-2.690874e+01	-1.264927e+03
2.740000e-06	-3.839635e-06	-1.974354e-08	-2.785954e+01	-1.289699e+03
2.750000e-06	-3.969358e-06	-2.010020e-08	-2.880079e+01	-1.313428e+03
2.760000e-06	-4.097665e-06	-2.043353e-08	-2.973176e+01	-1.336135e+03
2.770000e-06	-4.224507e-06	-2.074855e-08	-3.065209e+01	-1.357767e+03
2.780000e-06	-4.349973e-06	-2.104727e-08	-3.156245e+01	-1.378241e+03
2.790000e-06	-4.473988e-06	-2.132935e-08	-3.246227e+01	-1.397470e+03
2.800000e-06	-4.596397e-06	-2.159455e-08	-3.335045e+01	-1.415399e+03
2.810000e-06	-4.717103e-06	-2.184546e-08	-3.422626e+01	-1.432025e+03
2.820000e-06	-4.836003e-06	-2.208505e-08	-3.508897e+01	-1.447406e+03
2.830000e-06	-4.953067e-06	-2.231311e-08	-3.593836e+01	-1.461655e+03
2.840000e-06	-5.068109e-06	-2.252947e-08	-3.677308e+01	-1.474931e+03
2.850000e-06	-5.181068e-06	-2.273472e-08	-3.759269e+01	-1.487418e+03
2.860000e-06	-5.292020e-06	-2.292886e-08	-3.839773e+01	-1.499299e+03
2.870000e-06	-5.400987e-06	-2.311046e-08	-3.918837e+01	-1.510731e+03
2.880000e-06	-5.508117e-06	-2.328231e-08	-3.996569e+01	-1.521831e+03
2.890000e-06	-5.613446e-06	-2.344714e-08	-4.072993e+01	-1.532661e+03
2.900000e-06	-5.716726e-06	-2.360363e-08	-4.147930e+01	-1.543228e+03
2.910000e-06	-5.817776e-06	-2.375248e-08	-4.221250e+01	-1.553486e+03
2.920000e-06	-5.916706e-06	-2.389460e-08	-4.293032e+01	-1.563358e+03
2.930000e-06	-6.013492e-06	-2.403034e-08	-4.363257e+01	-1.572746e+03
2.940000e-06	-6.108104e-06	-2.415845e-08	-4.431906e+01	-1.581561e+03
