# Temperatura_=_30.19
# Concentracion g/m^3_=_28370.0
# C_Vs_to_Am_M_A/Vsm_=_65563218390.804596
# pendiente_HvsI_1/m_=_3716.3
# ordenada_HvsI_A/m_=_1297.0
# frecuencia_Hz_=_302510.60684367735

Tiempo_(s)	Campo_(V.s)	Magnetizacion_(V.s)	Campo_(kA/m)	Magnetizacion_(A/m)
0.000000e+00	-7.867688e-06	-2.403335e-08	-5.683923e+01	-1.572622e+03
1.000000e-08	-7.863138e-06	-2.403035e-08	-5.680636e+01	-1.571818e+03
2.000000e-08	-7.856084e-06	-2.402144e-08	-5.675539e+01	-1.570995e+03
3.000000e-08	-7.846348e-06	-2.401252e-08	-5.668506e+01	-1.570203e+03
4.000000e-08	-7.833805e-06	-2.400008e-08	-5.659445e+01	-1.569468e+03
5.000000e-08	-7.818364e-06	-2.398200e-08	-5.648290e+01	-1.568785e+03
6.000000e-08	-7.800257e-06	-2.395860e-08	-5.635208e+01	-1.568123e+03
7.000000e-08	-7.779998e-06	-2.392325e-08	-5.620572e+01	-1.567426e+03
8.000000e-08	-7.757377e-06	-2.392311e-08	-5.604230e+01	-1.566630e+03
9.000000e-08	-7.731771e-06	-2.399116e-08	-5.585731e+01	-1.565668e+03
1.000000e-07	-7.702947e-06	-2.393439e-08	-5.564908e+01	-1.564486e+03
1.100000e-07	-7.671173e-06	-2.385228e-08	-5.541952e+01	-1.563051e+03
1.200000e-07	-7.636634e-06	-2.384186e-08	-5.517000e+01	-1.561357e+03
1.300000e-07	-7.599525e-06	-2.381537e-08	-5.490191e+01	-1.559422e+03
1.400000e-07	-7.560166e-06	-2.372446e-08	-5.461757e+01	-1.557290e+03
1.500000e-07	-7.518565e-06	-2.364977e-08	-5.431703e+01	-1.555017e+03
1.600000e-07	-7.474559e-06	-2.377128e-08	-5.399911e+01	-1.552663e+03
1.700000e-07	-7.428011e-06	-2.368129e-08	-5.366283e+01	-1.550277e+03
1.800000e-07	-7.378733e-06	-2.356400e-08	-5.330683e+01	-1.547891e+03
1.900000e-07	-7.326527e-06	-2.364508e-08	-5.292967e+01	-1.545507e+03
2.000000e-07	-7.271459e-06	-2.353982e-08	-5.253184e+01	-1.543098e+03
2.100000e-07	-7.213723e-06	-2.348841e-08	-5.211473e+01	-1.540612e+03
2.200000e-07	-7.153356e-06	-2.344823e-08	-5.167862e+01	-1.537976e+03
2.300000e-07	-7.090448e-06	-2.339039e-08	-5.122414e+01	-1.535107e+03
2.400000e-07	-7.024918e-06	-2.335741e-08	-5.075073e+01	-1.531928e+03
2.500000e-07	-6.956682e-06	-2.324732e-08	-5.025776e+01	-1.528380e+03
2.600000e-07	-6.885818e-06	-2.323437e-08	-4.974582e+01	-1.524427e+03
2.700000e-07	-6.812212e-06	-2.316478e-08	-4.921406e+01	-1.520068e+03
2.800000e-07	-6.735790e-06	-2.307625e-08	-4.866196e+01	-1.515336e+03
2.900000e-07	-6.656580e-06	-2.299760e-08	-4.808971e+01	-1.510288e+03
3.000000e-07	-6.574768e-06	-2.293446e-08	-4.749867e+01	-1.505001e+03
3.100000e-07	-6.490727e-06	-2.287854e-08	-4.689152e+01	-1.499553e+03
3.200000e-07	-6.404505e-06	-2.276323e-08	-4.626862e+01	-1.494011e+03
3.300000e-07	-6.315975e-06	-2.272020e-08	-4.562905e+01	-1.488421e+03
3.400000e-07	-6.225135e-06	-2.261546e-08	-4.497279e+01	-1.482792e+03
3.500000e-07	-6.132050e-06	-2.250457e-08	-4.430030e+01	-1.477097e+03
3.600000e-07	-6.036722e-06	-2.241950e-08	-4.361162e+01	-1.471274e+03
3.700000e-07	-5.939146e-06	-2.232582e-08	-4.290669e+01	-1.465233e+03
3.800000e-07	-5.839413e-06	-2.222038e-08	-4.218618e+01	-1.458870e+03
3.900000e-07	-5.737639e-06	-2.210264e-08	-4.145093e+01	-1.452083e+03
4.000000e-07	-5.633839e-06	-2.200423e-08	-4.070103e+01	-1.444785e+03
4.100000e-07	-5.528079e-06	-2.186649e-08	-3.993698e+01	-1.436921e+03
4.200000e-07	-5.420427e-06	-2.174256e-08	-3.915926e+01	-1.428470e+03
4.300000e-07	-5.310841e-06	-2.161587e-08	-3.836758e+01	-1.419455e+03
4.400000e-07	-5.199287e-06	-2.148898e-08	-3.756167e+01	-1.409929e+03
4.500000e-07	-5.085735e-06	-2.133483e-08	-3.674132e+01	-1.399970e+03
4.600000e-07	-4.970226e-06	-2.117847e-08	-3.590684e+01	-1.389660e+03
4.700000e-07	-4.852857e-06	-2.102321e-08	-3.505892e+01	-1.379073e+03
4.800000e-07	-4.733696e-06	-2.085311e-08	-3.419805e+01	-1.368250e+03
4.900000e-07	-4.612790e-06	-2.068175e-08	-3.332459e+01	-1.357194e+03
5.000000e-07	-4.490185e-06	-2.050415e-08	-3.243884e+01	-1.345857e+03
5.100000e-07	-4.365945e-06	-2.032667e-08	-3.154128e+01	-1.334147e+03
5.200000e-07	-4.240140e-06	-2.012220e-08	-3.063242e+01	-1.321933e+03
5.300000e-07	-4.112782e-06	-1.990993e-08	-2.971233e+01	-1.309061e+03
5.400000e-07	-3.983949e-06	-1.968985e-08	-2.878159e+01	-1.295377e+03
5.500000e-07	-3.853616e-06	-1.946220e-08	-2.784001e+01	-1.280744e+03
5.600000e-07	-3.721765e-06	-1.921657e-08	-2.688747e+01	-1.265062e+03
5.700000e-07	-3.588498e-06	-1.896367e-08	-2.592470e+01	-1.248280e+03
5.800000e-07	-3.453797e-06	-1.870114e-08	-2.495157e+01	-1.230399e+03
5.900000e-07	-3.317840e-06	-1.842369e-08	-2.396936e+01	-1.211466e+03
6.000000e-07	-3.180766e-06	-1.813542e-08	-2.297909e+01	-1.191556e+03
6.100000e-07	-3.042411e-06	-1.783046e-08	-2.197956e+01	-1.170750e+03
6.200000e-07	-2.902649e-06	-1.751064e-08	-2.096986e+01	-1.149106e+03
6.300000e-07	-2.761526e-06	-1.716348e-08	-1.995034e+01	-1.126633e+03
6.400000e-07	-2.619325e-06	-1.679552e-08	-1.892302e+01	-1.103263e+03
6.500000e-07	-2.476173e-06	-1.640435e-08	-1.788883e+01	-1.078837e+03
6.600000e-07	-2.332054e-06	-1.599454e-08	-1.684766e+01	-1.053107e+03
6.700000e-07	-2.187175e-06	-1.555998e-08	-1.580100e+01	-1.025738e+03
6.800000e-07	-2.041561e-06	-1.509543e-08	-1.474903e+01	-9.963393e+02
6.900000e-07	-1.895169e-06	-1.460314e-08	-1.369144e+01	-9.644948e+02
7.000000e-07	-1.748119e-06	-1.407205e-08	-1.262909e+01	-9.298057e+02
7.100000e-07	-1.600546e-06	-1.350441e-08	-1.156296e+01	-8.919331e+02
7.200000e-07	-1.452557e-06	-1.288963e-08	-1.049383e+01	-8.506374e+02
7.300000e-07	-1.304163e-06	-1.222520e-08	-9.421780e+00	-8.058070e+02
7.400000e-07	-1.155392e-06	-1.150897e-08	-8.347000e+00	-7.574732e+02
7.500000e-07	-1.006252e-06	-1.074113e-08	-7.269557e+00	-7.058091e+02
7.600000e-07	-8.567190e-07	-9.922085e-09	-6.189270e+00	-6.511111e+02
7.700000e-07	-7.068947e-07	-9.052309e-09	-5.106882e+00	-5.937656e+02
7.800000e-07	-5.568367e-07	-8.136882e-09	-4.022804e+00	-5.342058e+02
7.900000e-07	-4.065344e-07	-7.177380e-09	-2.936962e+00	-4.728630e+02
8.000000e-07	-2.560851e-07	-6.186763e-09	-1.850058e+00	-4.101205e+02
8.100000e-07	-1.055613e-07	-5.177349e-09	-7.626158e-01	-3.462757e+02
8.200000e-07	4.508485e-08	-4.165987e-09	3.257104e-01	-2.815161e+02
8.300000e-07	1.958071e-07	-3.159020e-09	1.414586e+00	-2.159135e+02
8.400000e-07	3.464566e-07	-2.157752e-09	2.502937e+00	-1.494364e+02
8.500000e-07	4.969731e-07	-1.158590e-09	3.590326e+00	-8.198061e+01
8.600000e-07	6.473484e-07	-1.537060e-10	4.676695e+00	-1.341348e+01
8.700000e-07	7.975461e-07	8.650479e-10	5.761782e+00	5.637465e+01
8.800000e-07	9.474783e-07	1.909051e-09	6.844951e+00	1.274179e+02
8.900000e-07	1.097078e-06	2.988967e-09	7.925714e+00	1.996292e+02
9.000000e-07	1.246262e-06	4.108837e-09	9.003483e+00	2.727684e+02
9.100000e-07	1.395036e-06	5.260233e-09	1.007828e+01	3.464287e+02
9.200000e-07	1.543349e-06	6.427824e-09	1.114975e+01	4.200441e+02
9.300000e-07	1.691093e-06	7.582674e-09	1.221711e+01	4.929181e+02
9.400000e-07	1.838323e-06	8.699737e-09	1.328075e+01	5.642703e+02
9.500000e-07	1.984915e-06	9.760021e-09	1.433980e+01	6.332954e+02
9.600000e-07	2.130662e-06	1.075246e-08	1.539273e+01	6.992286e+02
9.700000e-07	2.275630e-06	1.167314e-08	1.644003e+01	7.614083e+02
9.800000e-07	2.419826e-06	1.251979e-08	1.748176e+01	8.193296e+02
9.900000e-07	2.563016e-06	1.329657e-08	1.851622e+01	8.726820e+02
1.000000e-06	2.705125e-06	1.400762e-08	1.954287e+01	9.213667e+02
1.010000e-06	2.846193e-06	1.466214e-08	2.056200e+01	9.654926e+02
1.020000e-06	2.986089e-06	1.526510e-08	2.157266e+01	1.005352e+03
1.030000e-06	3.124779e-06	1.582128e-08	2.257462e+01	1.041379e+03
1.040000e-06	3.262261e-06	1.633538e-08	2.356784e+01	1.074097e+03
1.050000e-06	3.398483e-06	1.680948e-08	2.455196e+01	1.104061e+03
1.060000e-06	3.533438e-06	1.724973e-08	2.552692e+01	1.131803e+03
1.070000e-06	3.667061e-06	1.765855e-08	2.649227e+01	1.157787e+03
1.080000e-06	3.799373e-06	1.804207e-08	2.744814e+01	1.182377e+03
1.090000e-06	3.930302e-06	1.840186e-08	2.839403e+01	1.205820e+03
1.100000e-06	4.059772e-06	1.874010e-08	2.932937e+01	1.228246e+03
1.110000e-06	4.187901e-06	1.905702e-08	3.025502e+01	1.249689e+03
1.120000e-06	4.314590e-06	1.935604e-08	3.117027e+01	1.270109e+03
1.130000e-06	4.439770e-06	1.963655e-08	3.207462e+01	1.289428e+03
1.140000e-06	4.563475e-06	1.989815e-08	3.296832e+01	1.307563e+03
1.150000e-06	4.685572e-06	2.014559e-08	3.385039e+01	1.324455e+03
1.160000e-06	4.805999e-06	2.037920e-08	3.472040e+01	1.340095e+03
1.170000e-06	4.924712e-06	2.059888e-08	3.557803e+01	1.354528e+03
1.180000e-06	5.041597e-06	2.080569e-08	3.642245e+01	1.367857e+03
1.190000e-06	5.156499e-06	2.100222e-08	3.725255e+01	1.380227e+03
1.200000e-06	5.269407e-06	2.118859e-08	3.806824e+01	1.391812e+03
1.210000e-06	5.380368e-06	2.136487e-08	3.886986e+01	1.402787e+03
1.220000e-06	5.489444e-06	2.153108e-08	3.965787e+01	1.413308e+03
1.230000e-06	5.596642e-06	2.169031e-08	4.043231e+01	1.423489e+03
1.240000e-06	5.701816e-06	2.184302e-08	4.119213e+01	1.433399e+03
1.250000e-06	5.804846e-06	2.198923e-08	4.193646e+01	1.443048e+03
1.260000e-06	5.905722e-06	2.212598e-08	4.266522e+01	1.452401e+03
1.270000e-06	6.004346e-06	2.225375e-08	4.337772e+01	1.461388e+03
1.280000e-06	6.100690e-06	2.237428e-08	4.407375e+01	1.469920e+03
1.290000e-06	6.194868e-06	2.248570e-08	4.475413e+01	1.477913e+03
1.300000e-06	6.286861e-06	2.259143e-08	4.541872e+01	1.485305e+03
1.310000e-06	6.376645e-06	2.269321e-08	4.606735e+01	1.492067e+03
1.320000e-06	6.464118e-06	2.278985e-08	4.669929e+01	1.498217e+03
1.330000e-06	6.549308e-06	2.287991e-08	4.731474e+01	1.503811e+03
1.340000e-06	6.632247e-06	2.296322e-08	4.791393e+01	1.508945e+03
1.350000e-06	6.712721e-06	2.304274e-08	4.849530e+01	1.513733e+03
1.360000e-06	6.790665e-06	2.311891e-08	4.905840e+01	1.518295e+03
1.370000e-06	6.866049e-06	2.319272e-08	4.960300e+01	1.522738e+03
1.380000e-06	6.938765e-06	2.326390e-08	5.012832e+01	1.527140e+03
1.390000e-06	7.008968e-06	2.333126e-08	5.063550e+01	1.531542e+03
1.400000e-06	7.076778e-06	2.339587e-08	5.112539e+01	1.535941e+03
1.410000e-06	7.142032e-06	2.345692e-08	5.159681e+01	1.540293e+03
1.420000e-06	7.204758e-06	2.351341e-08	5.204996e+01	1.544527e+03
1.430000e-06	7.265075e-06	2.356614e-08	5.248571e+01	1.548553e+03
1.440000e-06	7.322855e-06	2.361611e-08	5.290314e+01	1.552280e+03
1.450000e-06	7.378003e-06	2.366209e-08	5.330155e+01	1.555635e+03
1.460000e-06	7.430390e-06	2.370493e-08	5.368002e+01	1.558570e+03
1.470000e-06	7.479723e-06	2.374576e-08	5.403641e+01	1.561074e+03
1.480000e-06	7.526150e-06	2.378414e-08	5.437182e+01	1.563175e+03
1.490000e-06	7.570020e-06	2.381780e-08	5.468876e+01	1.564932e+03
1.500000e-06	7.611128e-06	2.384560e-08	5.498574e+01	1.566428e+03
1.510000e-06	7.649415e-06	2.387160e-08	5.526234e+01	1.567754e+03
1.520000e-06	7.685167e-06	2.389663e-08	5.552063e+01	1.568999e+03
1.530000e-06	7.718222e-06	2.391814e-08	5.575943e+01	1.570231e+03
1.540000e-06	7.748493e-06	2.393608e-08	5.597811e+01	1.571489e+03
1.550000e-06	7.776124e-06	2.395202e-08	5.617774e+01	1.572780e+03
1.560000e-06	7.800940e-06	2.396685e-08	5.635702e+01	1.574075e+03
1.570000e-06	7.822900e-06	2.397866e-08	5.651566e+01	1.575322e+03
1.580000e-06	7.842153e-06	2.398896e-08	5.665475e+01	1.576448e+03
1.590000e-06	7.858508e-06	2.400016e-08	5.677291e+01	1.577380e+03
1.600000e-06	7.871834e-06	2.400874e-08	5.686918e+01	1.578054e+03
1.610000e-06	7.882092e-06	2.401427e-08	5.694329e+01	1.578428e+03
1.620000e-06	7.889359e-06	2.401719e-08	5.699579e+01	1.578486e+03
1.630000e-06	7.893937e-06	2.402098e-08	5.702886e+01	1.578247e+03
1.640000e-06	7.895687e-06	2.402485e-08	5.704150e+01	1.577756e+03
1.650000e-06	7.894572e-06	2.402379e-08	5.703345e+01	1.577078e+03
1.660000e-06	7.890885e-06	2.400875e-08	5.700681e+01	1.576290e+03
1.670000e-06	7.884547e-06	2.400229e-08	5.696102e+01	1.575465e+03
1.680000e-06	7.875535e-06	2.399610e-08	5.689592e+01	1.574658e+03
1.690000e-06	7.863848e-06	2.398324e-08	5.681149e+01	1.573904e+03
1.700000e-06	7.849345e-06	2.397386e-08	5.670671e+01	1.573207e+03
1.710000e-06	7.832290e-06	2.397490e-08	5.658350e+01	1.572541e+03
1.720000e-06	7.813011e-06	2.398424e-08	5.644422e+01	1.571859e+03
1.730000e-06	7.791286e-06	2.389952e-08	5.628727e+01	1.571096e+03
1.740000e-06	7.766536e-06	2.381516e-08	5.610847e+01	1.570185e+03
1.750000e-06	7.738186e-06	2.387274e-08	5.590365e+01	1.569069e+03
1.760000e-06	7.706323e-06	2.386704e-08	5.567346e+01	1.567706e+03
1.770000e-06	7.671850e-06	2.380270e-08	5.542442e+01	1.566083e+03
1.780000e-06	7.635217e-06	2.383733e-08	5.515977e+01	1.564212e+03
1.790000e-06	7.596395e-06	2.391825e-08	5.487930e+01	1.562129e+03
1.800000e-06	7.555669e-06	2.372123e-08	5.458508e+01	1.559888e+03
1.810000e-06	7.512688e-06	2.374546e-08	5.427457e+01	1.557550e+03
1.820000e-06	7.466932e-06	2.380679e-08	5.394401e+01	1.555167e+03
1.830000e-06	7.418531e-06	2.362195e-08	5.359434e+01	1.552777e+03
1.840000e-06	7.367177e-06	2.373908e-08	5.322334e+01	1.550391e+03
1.850000e-06	7.312803e-06	2.361137e-08	5.283052e+01	1.547992e+03
1.860000e-06	7.255775e-06	2.360317e-08	5.241853e+01	1.545533e+03
1.870000e-06	7.196178e-06	2.358092e-08	5.198798e+01	1.542946e+03
1.880000e-06	7.133985e-06	2.341306e-08	5.153867e+01	1.540150e+03
1.890000e-06	7.068992e-06	2.351365e-08	5.106914e+01	1.537065e+03
1.900000e-06	7.001274e-06	2.336283e-08	5.057992e+01	1.533625e+03
1.910000e-06	6.930865e-06	2.332890e-08	5.007126e+01	1.529787e+03
1.920000e-06	6.857690e-06	2.329261e-08	4.954261e+01	1.525541e+03
1.930000e-06	6.781853e-06	2.321118e-08	4.899473e+01	1.520908e+03
1.940000e-06	6.703277e-06	2.318580e-08	4.842707e+01	1.515942e+03
1.950000e-06	6.622150e-06	2.304141e-08	4.784098e+01	1.510713e+03
1.960000e-06	6.538600e-06	2.303620e-08	4.723738e+01	1.505301e+03
1.970000e-06	6.452627e-06	2.288884e-08	4.661628e+01	1.499778e+03
1.980000e-06	6.364300e-06	2.282204e-08	4.597817e+01	1.494197e+03
1.990000e-06	6.273699e-06	2.276338e-08	4.532363e+01	1.488579e+03
2.000000e-06	6.180956e-06	2.265674e-08	4.465362e+01	1.482905e+03
2.010000e-06	6.085965e-06	2.258291e-08	4.396737e+01	1.477125e+03
2.020000e-06	5.988797e-06	2.245454e-08	4.326539e+01	1.471155e+03
2.030000e-06	5.889550e-06	2.237428e-08	4.254839e+01	1.464893e+03
2.040000e-06	5.788188e-06	2.223335e-08	4.181611e+01	1.458235e+03
2.050000e-06	5.684718e-06	2.214508e-08	4.106860e+01	1.451088e+03
2.060000e-06	5.579284e-06	2.202741e-08	4.030691e+01	1.443387e+03
2.070000e-06	5.471958e-06	2.190502e-08	3.953155e+01	1.435102e+03
2.080000e-06	5.362736e-06	2.176655e-08	3.874249e+01	1.426242e+03
2.090000e-06	5.251619e-06	2.163244e-08	3.793973e+01	1.416852e+03
2.100000e-06	5.138495e-06	2.150454e-08	3.712248e+01	1.407007e+03
2.110000e-06	5.023449e-06	2.135199e-08	3.629134e+01	1.396787e+03
2.120000e-06	4.906497e-06	2.120944e-08	3.544644e+01	1.386271e+03
2.130000e-06	4.787617e-06	2.104182e-08	3.458760e+01	1.375512e+03
2.140000e-06	4.666877e-06	2.087025e-08	3.371533e+01	1.364523e+03
2.150000e-06	4.544416e-06	2.067787e-08	3.283062e+01	1.353272e+03
2.160000e-06	4.420316e-06	2.050764e-08	3.193408e+01	1.341678e+03
2.170000e-06	4.294658e-06	2.032083e-08	3.102627e+01	1.329621e+03
2.180000e-06	4.167430e-06	2.012308e-08	3.010713e+01	1.316952e+03
2.190000e-06	4.038609e-06	1.990782e-08	2.917648e+01	1.303513e+03
2.200000e-06	3.908267e-06	1.968735e-08	2.823483e+01	1.289161e+03
2.210000e-06	3.776430e-06	1.945230e-08	2.728239e+01	1.273784e+03
2.220000e-06	3.643241e-06	1.920361e-08	2.632019e+01	1.257317e+03
2.230000e-06	3.508742e-06	1.894881e-08	2.534851e+01	1.239745e+03
2.240000e-06	3.372944e-06	1.867665e-08	2.436746e+01	1.221104e+03
2.250000e-06	3.235905e-06	1.839060e-08	2.337743e+01	1.201462e+03
2.260000e-06	3.097602e-06	1.808456e-08	2.237828e+01	1.180903e+03
2.270000e-06	2.958045e-06	1.777015e-08	2.137006e+01	1.159493e+03
2.280000e-06	2.817339e-06	1.743739e-08	2.035355e+01	1.137258e+03
2.290000e-06	2.675538e-06	1.709019e-08	1.932912e+01	1.114154e+03
2.300000e-06	2.532701e-06	1.671565e-08	1.829721e+01	1.090049e+03
2.310000e-06	2.388953e-06	1.631711e-08	1.725872e+01	1.064721e+03
2.320000e-06	2.244374e-06	1.589021e-08	1.621423e+01	1.037856e+03
2.330000e-06	2.099027e-06	1.543432e-08	1.516419e+01	1.009077e+03
2.340000e-06	1.953025e-06	1.494626e-08	1.410941e+01	9.779721e+02
2.350000e-06	1.806383e-06	1.442132e-08	1.305001e+01	9.441318e+02
2.360000e-06	1.659031e-06	1.386239e-08	1.198549e+01	9.071962e+02
2.370000e-06	1.511101e-06	1.326079e-08	1.091678e+01	8.668940e+02
2.380000e-06	1.362776e-06	1.261065e-08	9.845221e+00	8.230748e+02
2.390000e-06	1.214124e-06	1.191226e-08	8.771301e+00	7.757283e+02
2.400000e-06	1.065153e-06	1.116471e-08	7.695080e+00	7.249885e+02
2.410000e-06	9.158231e-07	1.036223e-08	6.616261e+00	6.711191e+02
2.420000e-06	7.661341e-07	9.506568e-09	5.534850e+00	6.144850e+02
2.430000e-06	6.161678e-07	8.602621e-09	4.451435e+00	5.555109e+02
2.440000e-06	4.659943e-07	7.652829e-09	3.366523e+00	4.946335e+02
2.450000e-06	3.155807e-07	6.664724e-09	2.279877e+00	4.322543e+02
2.460000e-06	1.649597e-07	5.653701e-09	1.191733e+00	3.686983e+02
2.470000e-06	1.427067e-08	4.635007e-09	1.030969e-01	3.041858e+02
2.480000e-06	-1.364688e-07	3.619456e-09	-9.859037e-01	2.388212e+02
2.490000e-06	-2.871780e-07	2.610328e-09	-2.074685e+00	1.726002e+02
2.500000e-06	-4.377456e-07	1.605341e-09	-3.162444e+00	1.054353e+02
2.510000e-06	-5.881085e-07	5.968468e-10	-4.248724e+00	3.719698e+01
2.520000e-06	-7.382392e-07	-4.261366e-10	-5.333326e+00	-3.223652e+01
2.530000e-06	-8.881294e-07	-1.472049e-09	-6.416191e+00	-1.029259e+02
2.540000e-06	-1.037684e-06	-2.547411e-09	-7.496632e+00	-1.748228e+02
2.550000e-06	-1.186848e-06	-3.656542e-09	-8.574252e+00	-2.477331e+02
2.560000e-06	-1.335611e-06	-4.796138e-09	-9.648973e+00	-3.212976e+02
2.570000e-06	-1.483979e-06	-5.956080e-09	-1.072084e+01	-3.949939e+02
2.580000e-06	-1.631922e-06	-7.119727e-09	-1.178963e+01	-4.681587e+02
2.590000e-06	-1.779298e-06	-8.260281e-09	-1.285434e+01	-5.400299e+02
2.600000e-06	-1.925979e-06	-9.351959e-09	-1.391402e+01	-6.098028e+02
2.610000e-06	-2.071844e-06	-1.037804e-08	-1.496780e+01	-6.766945e+02
2.620000e-06	-2.216900e-06	-1.132944e-08	-1.601575e+01	-7.400078e+02
2.630000e-06	-2.361216e-06	-1.220818e-08	-1.705834e+01	-7.991885e+02
2.640000e-06	-2.504638e-06	-1.301860e-08	-1.809448e+01	-8.538677e+02
2.650000e-06	-2.646994e-06	-1.376216e-08	-1.912291e+01	-9.038856e+02
2.660000e-06	-2.788159e-06	-1.444288e-08	-2.014274e+01	-9.492936e+02
2.670000e-06	-2.928229e-06	-1.506562e-08	-2.115466e+01	-9.903349e+02
2.680000e-06	-3.067228e-06	-1.563856e-08	-2.215884e+01	-1.027408e+03
2.690000e-06	-3.204943e-06	-1.616645e-08	-2.315375e+01	-1.061017e+03
2.700000e-06	-3.341448e-06	-1.665451e-08	-2.413992e+01	-1.091714e+03
2.710000e-06	-3.476750e-06	-1.710890e-08	-2.511739e+01	-1.120042e+03
2.720000e-06	-3.610666e-06	-1.753121e-08	-2.608485e+01	-1.146488e+03
2.730000e-06	-3.743342e-06	-1.792688e-08	-2.704335e+01	-1.171448e+03
2.740000e-06	-3.874795e-06	-1.829633e-08	-2.799302e+01	-1.195202e+03
2.750000e-06	-4.004848e-06	-1.863860e-08	-2.893257e+01	-1.217913e+03
2.760000e-06	-4.133567e-06	-1.895969e-08	-2.986249e+01	-1.239641e+03
2.770000e-06	-4.260849e-06	-1.926476e-08	-3.078203e+01	-1.260362e+03
2.780000e-06	-4.386596e-06	-1.955238e-08	-3.169047e+01	-1.280006e+03
2.790000e-06	-4.510940e-06	-1.982152e-08	-3.258878e+01	-1.298489e+03
2.800000e-06	-4.633686e-06	-2.007523e-08	-3.347554e+01	-1.315742e+03
2.810000e-06	-4.754700e-06	-2.031478e-08	-3.434980e+01	-1.331739e+03
2.820000e-06	-4.873896e-06	-2.054259e-08	-3.521092e+01	-1.346511e+03
2.830000e-06	-4.991184e-06	-2.075801e-08	-3.605825e+01	-1.360144e+03
2.840000e-06	-5.106534e-06	-2.096098e-08	-3.689158e+01	-1.372773e+03
2.850000e-06	-5.219758e-06	-2.115293e-08	-3.770956e+01	-1.384566e+03
2.860000e-06	-5.330952e-06	-2.133534e-08	-3.851286e+01	-1.395701e+03
2.870000e-06	-5.440229e-06	-2.150794e-08	-3.930232e+01	-1.406339e+03
2.880000e-06	-5.547591e-06	-2.166953e-08	-4.007795e+01	-1.416610e+03
2.890000e-06	-5.653022e-06	-2.182283e-08	-4.083962e+01	-1.426595e+03
2.900000e-06	-5.756311e-06	-2.196868e-08	-4.158582e+01	-1.436323e+03
2.910000e-06	-5.857443e-06	-2.210810e-08	-4.231644e+01	-1.445768e+03
2.920000e-06	-5.956511e-06	-2.224045e-08	-4.303214e+01	-1.454870e+03
2.930000e-06	-6.053491e-06	-2.236640e-08	-4.373276e+01	-1.463544e+03
2.940000e-06	-6.148286e-06	-2.248499e-08	-4.441760e+01	-1.471700e+03
