# Temperatura_=_77.61
# Concentracion g/m^3_=_28370.0
# C_Vs_to_Am_M_A/Vsm_=_65563218390.804596
# pendiente_HvsI_1/m_=_3716.3
# ordenada_HvsI_A/m_=_1297.0
# frecuencia_Hz_=_302505.42839123897

Tiempo_(s)	Campo_(V.s)	Magnetizacion_(V.s)	Campo_(kA/m)	Magnetizacion_(A/m)
0.000000e+00	-7.869133e-06	-2.665560e-08	-5.683912e+01	-1.744471e+03
1.000000e-08	-7.864973e-06	-2.665591e-08	-5.680906e+01	-1.743674e+03
2.000000e-08	-7.858361e-06	-2.664553e-08	-5.676131e+01	-1.742850e+03
3.000000e-08	-7.849044e-06	-2.663519e-08	-5.669401e+01	-1.742033e+03
4.000000e-08	-7.836885e-06	-2.662343e-08	-5.660618e+01	-1.741229e+03
5.000000e-08	-7.821768e-06	-2.660477e-08	-5.649700e+01	-1.740416e+03
6.000000e-08	-7.803925e-06	-2.657680e-08	-5.636811e+01	-1.739550e+03
7.000000e-08	-7.783931e-06	-2.653812e-08	-5.622370e+01	-1.738572e+03
8.000000e-08	-7.761686e-06	-2.651459e-08	-5.606302e+01	-1.737419e+03
9.000000e-08	-7.736528e-06	-2.659257e-08	-5.588130e+01	-1.736035e+03
1.000000e-07	-7.708080e-06	-2.654861e-08	-5.567582e+01	-1.734386e+03
1.100000e-07	-7.676711e-06	-2.643928e-08	-5.544924e+01	-1.732458e+03
1.200000e-07	-7.642570e-06	-2.641524e-08	-5.520264e+01	-1.730268e+03
1.300000e-07	-7.605826e-06	-2.639684e-08	-5.493724e+01	-1.727853e+03
1.400000e-07	-7.566899e-06	-2.631372e-08	-5.465606e+01	-1.725270e+03
1.500000e-07	-7.525676e-06	-2.620015e-08	-5.435831e+01	-1.722580e+03
1.600000e-07	-7.482018e-06	-2.630063e-08	-5.404296e+01	-1.719838e+03
1.700000e-07	-7.435877e-06	-2.624472e-08	-5.370969e+01	-1.717083e+03
1.800000e-07	-7.386998e-06	-2.606955e-08	-5.335663e+01	-1.714324e+03
1.900000e-07	-7.335112e-06	-2.614983e-08	-5.298185e+01	-1.711543e+03
2.000000e-07	-7.280366e-06	-2.606721e-08	-5.258642e+01	-1.708688e+03
2.100000e-07	-7.222948e-06	-2.599620e-08	-5.217169e+01	-1.705686e+03
2.200000e-07	-7.162881e-06	-2.595982e-08	-5.173783e+01	-1.702450e+03
2.300000e-07	-7.100332e-06	-2.584691e-08	-5.128603e+01	-1.698890e+03
2.400000e-07	-7.035064e-06	-2.583393e-08	-5.081459e+01	-1.694931e+03
2.500000e-07	-6.967050e-06	-2.572382e-08	-5.032333e+01	-1.690524e+03
2.600000e-07	-6.896471e-06	-2.567888e-08	-4.981353e+01	-1.685652e+03
2.700000e-07	-6.823115e-06	-2.558608e-08	-4.928368e+01	-1.680334e+03
2.800000e-07	-6.747035e-06	-2.549903e-08	-4.873415e+01	-1.674622e+03
2.900000e-07	-6.668215e-06	-2.541343e-08	-4.816482e+01	-1.668591e+03
3.000000e-07	-6.586700e-06	-2.529453e-08	-4.757604e+01	-1.662328e+03
3.100000e-07	-6.502958e-06	-2.524462e-08	-4.697116e+01	-1.655917e+03
3.200000e-07	-6.417093e-06	-2.514203e-08	-4.635096e+01	-1.649421e+03
3.300000e-07	-6.328898e-06	-2.507306e-08	-4.571392e+01	-1.642872e+03
3.400000e-07	-6.238294e-06	-2.493984e-08	-4.505949e+01	-1.636266e+03
3.500000e-07	-6.145500e-06	-2.482191e-08	-4.438923e+01	-1.629555e+03
3.600000e-07	-6.050612e-06	-2.472903e-08	-4.370385e+01	-1.622661e+03
3.700000e-07	-5.953403e-06	-2.460042e-08	-4.300170e+01	-1.615481e+03
3.800000e-07	-5.853900e-06	-2.447634e-08	-4.228299e+01	-1.607904e+03
3.900000e-07	-5.752357e-06	-2.434795e-08	-4.154954e+01	-1.599829e+03
4.000000e-07	-5.648798e-06	-2.422778e-08	-4.080153e+01	-1.591176e+03
4.100000e-07	-5.543194e-06	-2.406848e-08	-4.003875e+01	-1.581903e+03
4.200000e-07	-5.435673e-06	-2.393357e-08	-3.926212e+01	-1.572008e+03
4.300000e-07	-5.326340e-06	-2.378859e-08	-3.847240e+01	-1.561529e+03
4.400000e-07	-5.215125e-06	-2.362581e-08	-3.766909e+01	-1.550535e+03
4.500000e-07	-5.101943e-06	-2.344901e-08	-3.685157e+01	-1.539113e+03
4.600000e-07	-4.986678e-06	-2.327811e-08	-3.601901e+01	-1.527348e+03
4.700000e-07	-4.869454e-06	-2.309908e-08	-3.517229e+01	-1.515307e+03
4.800000e-07	-4.750505e-06	-2.290547e-08	-3.431312e+01	-1.503021e+03
4.900000e-07	-4.629824e-06	-2.271758e-08	-3.344144e+01	-1.490475e+03
5.000000e-07	-4.507410e-06	-2.251667e-08	-3.255723e+01	-1.477605e+03
5.100000e-07	-4.383344e-06	-2.230352e-08	-3.166110e+01	-1.464300e+03
5.200000e-07	-4.257740e-06	-2.207180e-08	-3.075385e+01	-1.450417e+03
5.300000e-07	-4.130645e-06	-2.184124e-08	-2.983584e+01	-1.435798e+03
5.400000e-07	-4.001936e-06	-2.159207e-08	-2.890617e+01	-1.420288e+03
5.500000e-07	-3.871645e-06	-2.133309e-08	-2.796507e+01	-1.403760e+03
5.600000e-07	-3.739887e-06	-2.106075e-08	-2.701337e+01	-1.386127e+03
5.700000e-07	-3.606738e-06	-2.078080e-08	-2.605164e+01	-1.367355e+03
5.800000e-07	-3.472279e-06	-2.048743e-08	-2.508043e+01	-1.347459e+03
5.900000e-07	-3.336479e-06	-2.018026e-08	-2.409954e+01	-1.326500e+03
6.000000e-07	-3.199366e-06	-1.986279e-08	-2.310917e+01	-1.304556e+03
6.100000e-07	-3.060996e-06	-1.952622e-08	-2.210971e+01	-1.281705e+03
6.200000e-07	-2.921311e-06	-1.917256e-08	-2.110076e+01	-1.257995e+03
6.300000e-07	-2.780323e-06	-1.879195e-08	-2.008240e+01	-1.233414e+03
6.400000e-07	-2.638204e-06	-1.839146e-08	-1.905587e+01	-1.207870e+03
6.500000e-07	-2.495054e-06	-1.796395e-08	-1.802189e+01	-1.181183e+03
6.600000e-07	-2.350928e-06	-1.751705e-08	-1.698087e+01	-1.153080e+03
6.700000e-07	-2.205968e-06	-1.704282e-08	-1.593381e+01	-1.123212e+03
6.800000e-07	-2.060357e-06	-1.653740e-08	-1.488205e+01	-1.091176e+03
6.900000e-07	-1.914071e-06	-1.600324e-08	-1.382542e+01	-1.056554e+03
7.000000e-07	-1.767131e-06	-1.542891e-08	-1.276407e+01	-1.018948e+03
7.100000e-07	-1.619713e-06	-1.481380e-08	-1.169926e+01	-9.780173e+02
7.200000e-07	-1.471835e-06	-1.415075e-08	-1.063113e+01	-9.335171e+02
7.300000e-07	-1.323493e-06	-1.343744e-08	-9.559651e+00	-8.853157e+02
7.400000e-07	-1.174719e-06	-1.266625e-08	-8.485051e+00	-8.334066e+02
7.500000e-07	-1.025566e-06	-1.183928e-08	-7.407709e+00	-7.779015e+02
7.600000e-07	-8.760971e-07	-1.095643e-08	-6.328090e+00	-7.190115e+02
7.700000e-07	-7.263542e-07	-1.001455e-08	-5.246490e+00	-6.570161e+02
7.800000e-07	-5.764214e-07	-9.014035e-09	-4.163518e+00	-5.922255e+02
7.900000e-07	-4.262689e-07	-7.960440e-09	-3.078960e+00	-5.249425e+02
8.000000e-07	-2.759501e-07	-6.863517e-09	-1.993200e+00	-4.554294e+02
8.100000e-07	-1.255248e-07	-5.731450e-09	-9.066713e-01	-3.838846e+02
8.200000e-07	2.501410e-08	-4.581572e-09	1.806780e-01	-3.104339e+02
8.300000e-07	1.755734e-07	-3.425231e-09	1.268175e+00	-2.351379e+02
8.400000e-07	3.261572e-07	-2.268062e-09	2.355848e+00	-1.580145e+02
8.500000e-07	4.766975e-07	-1.102129e-09	3.443208e+00	-7.907406e+01
8.600000e-07	6.270335e-07	7.777094e-11	4.529092e+00	1.637210e+00
8.700000e-07	7.771055e-07	1.279826e-09	5.613069e+00	8.399341e+01
8.800000e-07	9.269278e-07	2.517011e-09	6.695242e+00	1.677498e+02
8.900000e-07	1.076494e-06	3.795882e-09	7.775569e+00	2.525157e+02
9.000000e-07	1.225767e-06	5.110264e-09	8.853772e+00	3.377442e+02
9.100000e-07	1.374670e-06	6.444288e-09	9.929305e+00	4.227413e+02
9.200000e-07	1.523115e-06	7.778747e-09	1.100153e+01	5.066951e+02
9.300000e-07	1.671036e-06	9.076867e-09	1.206997e+01	5.887220e+02
9.400000e-07	1.818317e-06	1.031003e-08	1.313379e+01	6.679268e+02
9.500000e-07	1.964880e-06	1.145771e-08	1.419242e+01	7.434669e+02
9.600000e-07	2.110811e-06	1.251394e-08	1.524649e+01	8.146174e+02
9.700000e-07	2.256027e-06	1.348436e-08	1.629538e+01	8.808250e+02
9.800000e-07	2.400337e-06	1.437075e-08	1.733774e+01	9.417481e+02
9.900000e-07	2.543696e-06	1.518175e-08	1.837324e+01	9.972761e+02
1.000000e-06	2.686040e-06	1.591983e-08	1.940139e+01	1.047527e+03
1.010000e-06	2.827276e-06	1.659494e-08	2.042155e+01	1.092821e+03
1.020000e-06	2.967369e-06	1.721460e-08	2.143344e+01	1.133644e+03
1.030000e-06	3.106236e-06	1.778754e-08	2.243649e+01	1.170584e+03
1.040000e-06	3.243874e-06	1.832129e-08	2.343065e+01	1.204277e+03
1.050000e-06	3.380248e-06	1.881816e-08	2.441569e+01	1.235341e+03
1.060000e-06	3.515319e-06	1.928191e-08	2.539131e+01	1.264331e+03
1.070000e-06	3.649153e-06	1.971226e-08	2.635800e+01	1.291693e+03
1.080000e-06	3.781722e-06	2.011493e-08	2.731556e+01	1.317748e+03
1.090000e-06	3.912901e-06	2.049020e-08	2.826307e+01	1.342685e+03
1.100000e-06	4.042665e-06	2.084267e-08	2.920036e+01	1.366576e+03
1.110000e-06	4.171019e-06	2.117458e-08	3.012747e+01	1.389403e+03
1.120000e-06	4.297877e-06	2.149027e-08	3.104376e+01	1.411093e+03
1.130000e-06	4.423302e-06	2.178743e-08	3.194971e+01	1.431552e+03
1.140000e-06	4.547274e-06	2.206774e-08	3.284517e+01	1.450703e+03
1.150000e-06	4.669597e-06	2.233285e-08	3.372872e+01	1.468514e+03
1.160000e-06	4.790228e-06	2.258196e-08	3.460004e+01	1.485010e+03
1.170000e-06	4.909129e-06	2.281724e-08	3.545887e+01	1.500278e+03
1.180000e-06	5.026260e-06	2.304010e-08	3.630491e+01	1.514460e+03
1.190000e-06	5.141504e-06	2.325221e-08	3.713732e+01	1.527734e+03
1.200000e-06	5.254745e-06	2.345329e-08	3.795527e+01	1.540292e+03
1.210000e-06	5.365981e-06	2.364505e-08	3.875873e+01	1.552312e+03
1.220000e-06	5.475312e-06	2.382697e-08	3.954844e+01	1.563939e+03
1.230000e-06	5.582770e-06	2.400034e-08	4.032461e+01	1.575268e+03
1.240000e-06	5.688190e-06	2.416564e-08	4.108606e+01	1.586334e+03
1.250000e-06	5.791513e-06	2.432409e-08	4.183236e+01	1.597117e+03
1.260000e-06	5.892735e-06	2.447605e-08	4.256350e+01	1.607551e+03
1.270000e-06	5.991756e-06	2.462025e-08	4.327873e+01	1.617544e+03
1.280000e-06	6.088457e-06	2.475574e-08	4.397721e+01	1.626995e+03
1.290000e-06	6.182956e-06	2.488307e-08	4.465978e+01	1.635817e+03
1.300000e-06	6.275332e-06	2.500385e-08	4.532701e+01	1.643957e+03
1.310000e-06	6.365461e-06	2.511761e-08	4.597802e+01	1.651403e+03
1.320000e-06	6.453252e-06	2.522487e-08	4.661214e+01	1.658194e+03
1.330000e-06	6.538775e-06	2.532658e-08	4.722988e+01	1.664409e+03
1.340000e-06	6.622023e-06	2.542293e-08	4.783118e+01	1.670160e+03
1.350000e-06	6.702878e-06	2.551461e-08	4.841520e+01	1.675576e+03
1.360000e-06	6.781250e-06	2.560131e-08	4.898128e+01	1.680783e+03
1.370000e-06	6.857071e-06	2.568495e-08	4.952894e+01	1.685886e+03
1.380000e-06	6.930276e-06	2.576396e-08	5.005770e+01	1.690954e+03
1.390000e-06	7.000918e-06	2.583876e-08	5.056796e+01	1.696015e+03
1.400000e-06	7.069159e-06	2.591057e-08	5.106087e+01	1.701054e+03
1.410000e-06	7.134859e-06	2.597992e-08	5.153542e+01	1.706014e+03
1.420000e-06	7.197942e-06	2.604648e-08	5.199107e+01	1.710816e+03
1.430000e-06	7.258584e-06	2.610897e-08	5.242909e+01	1.715367e+03
1.440000e-06	7.316748e-06	2.616751e-08	5.284921e+01	1.719579e+03
1.450000e-06	7.372324e-06	2.622214e-08	5.325064e+01	1.723386e+03
1.460000e-06	7.425140e-06	2.627405e-08	5.363213e+01	1.726752e+03
1.470000e-06	7.474879e-06	2.632318e-08	5.399140e+01	1.729679e+03
1.480000e-06	7.521676e-06	2.636770e-08	5.432942e+01	1.732203e+03
1.490000e-06	7.565945e-06	2.640721e-08	5.464917e+01	1.734389e+03
1.500000e-06	7.607531e-06	2.644245e-08	5.494955e+01	1.736320e+03
1.510000e-06	7.646315e-06	2.647550e-08	5.522969e+01	1.738085e+03
1.520000e-06	7.682492e-06	2.650806e-08	5.549099e+01	1.739758e+03
1.530000e-06	7.715941e-06	2.653549e-08	5.573260e+01	1.741393e+03
1.540000e-06	7.746593e-06	2.655821e-08	5.595400e+01	1.743015e+03
1.550000e-06	7.774598e-06	2.657707e-08	5.615629e+01	1.744614e+03
1.560000e-06	7.799768e-06	2.659317e-08	5.633809e+01	1.746154e+03
1.570000e-06	7.822018e-06	2.660804e-08	5.649880e+01	1.747574e+03
1.580000e-06	7.841558e-06	2.662188e-08	5.663994e+01	1.748807e+03
1.590000e-06	7.858248e-06	2.663620e-08	5.676049e+01	1.749786e+03
1.600000e-06	7.872022e-06	2.664785e-08	5.685998e+01	1.750463e+03
1.610000e-06	7.882739e-06	2.665458e-08	5.693739e+01	1.750811e+03
1.620000e-06	7.890345e-06	2.665771e-08	5.699233e+01	1.750834e+03
1.630000e-06	7.895148e-06	2.666016e-08	5.702702e+01	1.750563e+03
1.640000e-06	7.897153e-06	2.666106e-08	5.704150e+01	1.750053e+03
1.650000e-06	7.896358e-06	2.666021e-08	5.703576e+01	1.749371e+03
1.660000e-06	7.893052e-06	2.664330e-08	5.701188e+01	1.748589e+03
1.670000e-06	7.887122e-06	2.663611e-08	5.696905e+01	1.747767e+03
1.680000e-06	7.878457e-06	2.663006e-08	5.690646e+01	1.746944e+03
1.690000e-06	7.867189e-06	2.661702e-08	5.682507e+01	1.746135e+03
1.700000e-06	7.853059e-06	2.660484e-08	5.672301e+01	1.745327e+03
1.710000e-06	7.836267e-06	2.660019e-08	5.660172e+01	1.744480e+03
1.720000e-06	7.817287e-06	2.660421e-08	5.646463e+01	1.743538e+03
1.730000e-06	7.795922e-06	2.653160e-08	5.631031e+01	1.742439e+03
1.740000e-06	7.771557e-06	2.639901e-08	5.613432e+01	1.741124e+03
1.750000e-06	7.743576e-06	2.644780e-08	5.593221e+01	1.739551e+03
1.760000e-06	7.712053e-06	2.646634e-08	5.570452e+01	1.737700e+03
1.770000e-06	7.677843e-06	2.639468e-08	5.545742e+01	1.735580e+03
1.780000e-06	7.641496e-06	2.639599e-08	5.519488e+01	1.733222e+03
1.790000e-06	7.602901e-06	2.650330e-08	5.491610e+01	1.730679e+03
1.800000e-06	7.562296e-06	2.632526e-08	5.462281e+01	1.728012e+03
1.810000e-06	7.519573e-06	2.626441e-08	5.431423e+01	1.725278e+03
1.820000e-06	7.474166e-06	2.639518e-08	5.398625e+01	1.722522e+03
1.830000e-06	7.426190e-06	2.616756e-08	5.363972e+01	1.719763e+03
1.840000e-06	7.375306e-06	2.626872e-08	5.327218e+01	1.716990e+03
1.850000e-06	7.321259e-06	2.615769e-08	5.288180e+01	1.714161e+03
1.860000e-06	7.264481e-06	2.608470e-08	5.247168e+01	1.711208e+03
1.870000e-06	7.205234e-06	2.615573e-08	5.204374e+01	1.708046e+03
1.880000e-06	7.143449e-06	2.593191e-08	5.159747e+01	1.704585e+03
1.890000e-06	7.078752e-06	2.600213e-08	5.113015e+01	1.700745e+03
1.900000e-06	7.011355e-06	2.587089e-08	5.064334e+01	1.696467e+03
1.910000e-06	6.941327e-06	2.579988e-08	5.013753e+01	1.691726e+03
1.920000e-06	6.868510e-06	2.576586e-08	4.961157e+01	1.686529e+03
1.930000e-06	6.793125e-06	2.563112e-08	4.906705e+01	1.680920e+03
1.940000e-06	6.715022e-06	2.565510e-08	4.850292e+01	1.674970e+03
1.950000e-06	6.634269e-06	2.547269e-08	4.791963e+01	1.668763e+03
1.960000e-06	6.551133e-06	2.541397e-08	4.731914e+01	1.662385e+03
1.970000e-06	6.465542e-06	2.528346e-08	4.670091e+01	1.655906e+03
1.980000e-06	6.377423e-06	2.519739e-08	4.606442e+01	1.649369e+03
1.990000e-06	6.287104e-06	2.514029e-08	4.541204e+01	1.642780e+03
2.000000e-06	6.194716e-06	2.498730e-08	4.474472e+01	1.636104e+03
2.010000e-06	6.099989e-06	2.492059e-08	4.406050e+01	1.629270e+03
2.020000e-06	6.003025e-06	2.476309e-08	4.336013e+01	1.622181e+03
2.030000e-06	5.904035e-06	2.465420e-08	4.264512e+01	1.614727e+03
2.040000e-06	5.802971e-06	2.449832e-08	4.191513e+01	1.606801e+03
2.050000e-06	5.699743e-06	2.439578e-08	4.116951e+01	1.598317e+03
2.060000e-06	5.594502e-06	2.425737e-08	4.040935e+01	1.589221e+03
2.070000e-06	5.487409e-06	2.409970e-08	3.963581e+01	1.579500e+03
2.080000e-06	5.378435e-06	2.396101e-08	3.884869e+01	1.569180e+03
2.090000e-06	5.267513e-06	2.380297e-08	3.804749e+01	1.558323e+03
2.100000e-06	5.154632e-06	2.365613e-08	3.723214e+01	1.547012e+03
2.110000e-06	5.039923e-06	2.347208e-08	3.640360e+01	1.535336e+03
2.120000e-06	4.923246e-06	2.330596e-08	3.556084e+01	1.523366e+03
2.130000e-06	4.804535e-06	2.310147e-08	3.470338e+01	1.511148e+03
2.140000e-06	4.683983e-06	2.290385e-08	3.383263e+01	1.498679e+03
2.150000e-06	4.561761e-06	2.269730e-08	3.294982e+01	1.485908e+03
2.160000e-06	4.437911e-06	2.250305e-08	3.205524e+01	1.472739e+03
2.170000e-06	4.312390e-06	2.228782e-08	3.114860e+01	1.459036e+03
2.180000e-06	4.185327e-06	2.206368e-08	3.023081e+01	1.444641e+03
2.190000e-06	4.056723e-06	2.182855e-08	2.930190e+01	1.429399e+03
2.200000e-06	3.926623e-06	2.157830e-08	2.836218e+01	1.413170e+03
2.210000e-06	3.795107e-06	2.131391e-08	2.741223e+01	1.395857e+03
2.220000e-06	3.662128e-06	2.103530e-08	2.645172e+01	1.377408e+03
2.230000e-06	3.527787e-06	2.075105e-08	2.548137e+01	1.357828e+03
2.240000e-06	3.392130e-06	2.044332e-08	2.450152e+01	1.337162e+03
2.250000e-06	3.255173e-06	2.012734e-08	2.351227e+01	1.315489e+03
2.260000e-06	3.117047e-06	1.979335e-08	2.251457e+01	1.292889e+03
2.270000e-06	2.977733e-06	1.945076e-08	2.150830e+01	1.269421e+03
2.280000e-06	2.837126e-06	1.908371e-08	2.049269e+01	1.245092e+03
2.290000e-06	2.695386e-06	1.869670e-08	1.946890e+01	1.219836e+03
2.300000e-06	2.552661e-06	1.828378e-08	1.843799e+01	1.193498e+03
2.310000e-06	2.408961e-06	1.784862e-08	1.740004e+01	1.165830e+03
2.320000e-06	2.264399e-06	1.738521e-08	1.635586e+01	1.136503e+03
2.330000e-06	2.119084e-06	1.688815e-08	1.530624e+01	1.105127e+03
2.340000e-06	1.973118e-06	1.635707e-08	1.425192e+01	1.071285e+03
2.350000e-06	1.826579e-06	1.578973e-08	1.319346e+01	1.034567e+03
2.360000e-06	1.679485e-06	1.518786e-08	1.213100e+01	9.946140e+02
2.370000e-06	1.531829e-06	1.454466e-08	1.106447e+01	9.511506e+02
2.380000e-06	1.383683e-06	1.385309e-08	9.994408e+00	9.040109e+02
2.390000e-06	1.235054e-06	1.310664e-08	8.920854e+00	8.531527e+02
2.400000e-06	1.085929e-06	1.229900e-08	7.843712e+00	7.986553e+02
2.410000e-06	9.363868e-07	1.142904e-08	6.763566e+00	7.407044e+02
2.420000e-06	7.865085e-07	1.050095e-08	5.680988e+00	6.795632e+02
2.430000e-06	6.364487e-07	9.513010e-09	4.597098e+00	6.155374e+02
2.440000e-06	4.862210e-07	8.469276e-09	3.511997e+00	5.489355e+02
2.450000e-06	3.358026e-07	7.379624e-09	2.425518e+00	4.800343e+02
2.460000e-06	1.852502e-07	6.258260e-09	1.338071e+00	4.090520e+02
2.470000e-06	3.456294e-08	5.114163e-09	2.496497e-01	3.361352e+02
2.480000e-06	-1.161429e-07	3.956775e-09	-8.389053e-01	2.613614e+02
2.490000e-06	-2.668082e-07	2.795587e-09	-1.927168e+00	1.847575e+02
2.500000e-06	-4.173945e-07	1.626202e-09	-3.014860e+00	1.063320e+02
2.510000e-06	-5.678397e-07	4.424117e-10	-4.101533e+00	2.611616e+01
2.520000e-06	-7.181459e-07	-7.629892e-10	-5.187201e+00	-5.579115e+01
2.530000e-06	-8.682571e-07	-1.996842e-09	-6.271461e+00	-1.391825e+02
2.540000e-06	-1.018062e-06	-3.266509e-09	-7.353509e+00	-2.237109e+02
2.550000e-06	-1.167515e-06	-4.573967e-09	-8.433016e+00	-3.088740e+02
2.560000e-06	-1.316582e-06	-5.906441e-09	-9.509733e+00	-3.940176e+02
2.570000e-06	-1.465138e-06	-7.244730e-09	-1.058276e+01	-4.783594e+02
2.580000e-06	-1.613152e-06	-8.563257e-09	-1.165187e+01	-5.610309e+02
2.590000e-06	-1.760568e-06	-9.830906e-09	-1.271666e+01	-6.411334e+02
2.600000e-06	-1.907267e-06	-1.102240e-08	-1.377628e+01	-7.178028e+02
2.610000e-06	-2.053272e-06	-1.212494e-08	-1.483088e+01	-7.902742e+02
2.620000e-06	-2.198572e-06	-1.313363e-08	-1.588039e+01	-8.579407e+02
2.630000e-06	-2.343061e-06	-1.405397e-08	-1.692404e+01	-9.203971e+02
2.640000e-06	-2.486579e-06	-1.489369e-08	-1.796068e+01	-9.774662e+02
2.650000e-06	-2.629051e-06	-1.566123e-08	-1.898976e+01	-1.029202e+03
2.660000e-06	-2.770495e-06	-1.636443e-08	-2.001141e+01	-1.075871e+03
2.670000e-06	-2.910799e-06	-1.701113e-08	-2.102483e+01	-1.117917e+03
2.680000e-06	-3.049853e-06	-1.760904e-08	-2.202923e+01	-1.155904e+03
2.690000e-06	-3.187736e-06	-1.815930e-08	-2.302516e+01	-1.190462e+03
2.700000e-06	-3.324465e-06	-1.866596e-08	-2.401276e+01	-1.222219e+03
2.710000e-06	-3.459979e-06	-1.913799e-08	-2.499159e+01	-1.251753e+03
2.720000e-06	-3.594200e-06	-1.958085e-08	-2.596107e+01	-1.279543e+03
2.730000e-06	-3.727073e-06	-1.999523e-08	-2.692082e+01	-1.305949e+03
2.740000e-06	-3.858622e-06	-2.038377e-08	-2.787101e+01	-1.331195e+03
2.750000e-06	-3.988854e-06	-2.074660e-08	-2.881168e+01	-1.355385e+03
2.760000e-06	-4.117730e-06	-2.108440e-08	-2.974255e+01	-1.378524e+03
2.770000e-06	-4.245124e-06	-2.140391e-08	-3.066272e+01	-1.400550e+03
2.780000e-06	-4.371074e-06	-2.170804e-08	-3.157247e+01	-1.421372e+03
2.790000e-06	-4.495597e-06	-2.199570e-08	-3.247191e+01	-1.440905e+03
2.800000e-06	-4.618552e-06	-2.226660e-08	-3.336001e+01	-1.459101e+03
2.810000e-06	-4.739789e-06	-2.252245e-08	-3.423571e+01	-1.475968e+03
2.820000e-06	-4.859204e-06	-2.276604e-08	-3.509826e+01	-1.491576e+03
2.830000e-06	-4.976745e-06	-2.299753e-08	-3.594726e+01	-1.506053e+03
2.840000e-06	-5.092301e-06	-2.321728e-08	-3.678193e+01	-1.519569e+03
2.850000e-06	-5.205804e-06	-2.342756e-08	-3.760176e+01	-1.532314e+03
2.860000e-06	-5.317263e-06	-2.362895e-08	-3.840684e+01	-1.544474e+03
2.870000e-06	-5.426752e-06	-2.381752e-08	-3.919768e+01	-1.556203e+03
2.880000e-06	-5.534373e-06	-2.399435e-08	-3.997503e+01	-1.567613e+03
2.890000e-06	-5.640102e-06	-2.416092e-08	-4.073872e+01	-1.578755e+03
2.900000e-06	-5.743774e-06	-2.431936e-08	-4.148755e+01	-1.589626e+03
2.910000e-06	-5.845327e-06	-2.447103e-08	-4.222107e+01	-1.600171e+03
2.920000e-06	-5.944728e-06	-2.461584e-08	-4.293905e+01	-1.610302e+03
2.930000e-06	-6.041964e-06	-2.475617e-08	-4.364139e+01	-1.619919e+03
2.940000e-06	-6.136981e-06	-2.488968e-08	-4.432770e+01	-1.628930e+03
