# Temperatura_=_90.43
# Concentracion g/m^3_=_41000.0
# C_Vs_to_Am_M_A/Vsm_=_65563218390.804596
# pendiente_HvsI_1/m_=_3716.3
# ordenada_HvsI_A/m_=_1297.0
# frecuencia_Hz_=_301634.2476675537

Tiempo_(s)	Campo_(V.s)	Magnetizacion_(V.s)	Campo_(kA/m)	Magnetizacion_(A/m)
0.000000e+00	-5.316282e-06	-2.471695e-08	-3.833928e+01	-1.616351e+03
1.000000e-08	-5.314424e-06	-2.471328e-08	-3.832587e+01	-1.616186e+03
2.000000e-08	-5.310748e-06	-2.470705e-08	-3.829937e+01	-1.616106e+03
3.000000e-08	-5.305460e-06	-2.469885e-08	-3.826123e+01	-1.616012e+03
4.000000e-08	-5.298530e-06	-2.468919e-08	-3.821126e+01	-1.615768e+03
5.000000e-08	-5.289936e-06	-2.467639e-08	-3.814928e+01	-1.615244e+03
6.000000e-08	-5.279393e-06	-2.466129e-08	-3.807324e+01	-1.614356e+03
7.000000e-08	-5.266867e-06	-2.464465e-08	-3.798291e+01	-1.613091e+03
8.000000e-08	-5.252422e-06	-2.462845e-08	-3.787874e+01	-1.611512e+03
9.000000e-08	-5.235707e-06	-2.462911e-08	-3.775819e+01	-1.609741e+03
1.000000e-07	-5.216777e-06	-2.461824e-08	-3.762168e+01	-1.607921e+03
1.100000e-07	-5.195927e-06	-2.457956e-08	-3.747131e+01	-1.606177e+03
1.200000e-07	-5.173358e-06	-2.453889e-08	-3.730856e+01	-1.604580e+03
1.300000e-07	-5.149431e-06	-2.448198e-08	-3.713600e+01	-1.603126e+03
1.400000e-07	-5.123997e-06	-2.444211e-08	-3.695258e+01	-1.601744e+03
1.500000e-07	-5.096766e-06	-2.444898e-08	-3.675620e+01	-1.600314e+03
1.600000e-07	-5.067961e-06	-2.441714e-08	-3.654847e+01	-1.598709e+03
1.700000e-07	-5.037774e-06	-2.438927e-08	-3.633077e+01	-1.596827e+03
1.800000e-07	-5.005779e-06	-2.438294e-08	-3.610003e+01	-1.594623e+03
1.900000e-07	-4.971600e-06	-2.429909e-08	-3.585354e+01	-1.592118e+03
2.000000e-07	-4.935766e-06	-2.423284e-08	-3.559512e+01	-1.589384e+03
2.100000e-07	-4.898397e-06	-2.420340e-08	-3.532562e+01	-1.586519e+03
2.200000e-07	-4.859321e-06	-2.414686e-08	-3.504382e+01	-1.583610e+03
2.300000e-07	-4.818485e-06	-2.412175e-08	-3.474932e+01	-1.580705e+03
2.400000e-07	-4.775647e-06	-2.407999e-08	-3.444040e+01	-1.577793e+03
2.500000e-07	-4.731022e-06	-2.400211e-08	-3.411857e+01	-1.574810e+03
2.600000e-07	-4.684690e-06	-2.394903e-08	-3.378444e+01	-1.571655e+03
2.700000e-07	-4.636444e-06	-2.389416e-08	-3.343651e+01	-1.568225e+03
2.800000e-07	-4.586107e-06	-2.385762e-08	-3.307349e+01	-1.564450e+03
2.900000e-07	-4.533717e-06	-2.380396e-08	-3.269568e+01	-1.560312e+03
3.000000e-07	-4.479615e-06	-2.370060e-08	-3.230551e+01	-1.555853e+03
3.100000e-07	-4.423986e-06	-2.362556e-08	-3.190433e+01	-1.551166e+03
3.200000e-07	-4.366635e-06	-2.358117e-08	-3.149073e+01	-1.546358e+03
3.300000e-07	-4.307526e-06	-2.351062e-08	-3.106446e+01	-1.541524e+03
3.400000e-07	-4.246909e-06	-2.342297e-08	-3.062731e+01	-1.536709e+03
3.500000e-07	-4.184834e-06	-2.335507e-08	-3.017964e+01	-1.531900e+03
3.600000e-07	-4.121408e-06	-2.327537e-08	-2.972224e+01	-1.527022e+03
3.700000e-07	-4.056545e-06	-2.317946e-08	-2.925446e+01	-1.521969e+03
3.800000e-07	-3.989983e-06	-2.310587e-08	-2.877444e+01	-1.516630e+03
3.900000e-07	-3.921859e-06	-2.302624e-08	-2.828315e+01	-1.510931e+03
4.000000e-07	-3.852434e-06	-2.292726e-08	-2.778249e+01	-1.504853e+03
4.100000e-07	-3.781812e-06	-2.282681e-08	-2.727319e+01	-1.498442e+03
4.200000e-07	-3.710050e-06	-2.272592e-08	-2.675566e+01	-1.491791e+03
4.300000e-07	-3.636937e-06	-2.262902e-08	-2.622839e+01	-1.485013e+03
4.400000e-07	-3.562163e-06	-2.253330e-08	-2.568914e+01	-1.478199e+03
4.500000e-07	-3.485828e-06	-2.243514e-08	-2.513864e+01	-1.471387e+03
4.600000e-07	-3.408246e-06	-2.232149e-08	-2.457914e+01	-1.464549e+03
4.700000e-07	-3.329376e-06	-2.219902e-08	-2.401037e+01	-1.457594e+03
4.800000e-07	-3.249060e-06	-2.208374e-08	-2.343115e+01	-1.450394e+03
4.900000e-07	-3.167537e-06	-2.196743e-08	-2.284323e+01	-1.442823e+03
5.000000e-07	-3.084936e-06	-2.184540e-08	-2.224755e+01	-1.434797e+03
5.100000e-07	-3.001378e-06	-2.171589e-08	-2.164495e+01	-1.426299e+03
5.200000e-07	-2.917030e-06	-2.158668e-08	-2.103666e+01	-1.417386e+03
5.300000e-07	-2.831800e-06	-2.145220e-08	-2.042201e+01	-1.408169e+03
5.400000e-07	-2.745614e-06	-2.130977e-08	-1.980047e+01	-1.398777e+03
5.500000e-07	-2.658507e-06	-2.117137e-08	-1.917228e+01	-1.389311e+03
5.600000e-07	-2.570526e-06	-2.102789e-08	-1.853779e+01	-1.379808e+03
5.700000e-07	-2.481490e-06	-2.087176e-08	-1.789569e+01	-1.370222e+03
5.800000e-07	-2.391197e-06	-2.070719e-08	-1.724453e+01	-1.360428e+03
5.900000e-07	-2.299852e-06	-2.054172e-08	-1.658577e+01	-1.350258e+03
6.000000e-07	-2.207822e-06	-2.037221e-08	-1.592208e+01	-1.339546e+03
6.100000e-07	-2.115121e-06	-2.019660e-08	-1.525355e+01	-1.328178e+03
6.200000e-07	-2.021596e-06	-2.001809e-08	-1.457909e+01	-1.316125e+03
6.300000e-07	-1.927292e-06	-1.983271e-08	-1.389900e+01	-1.303451e+03
6.400000e-07	-1.832357e-06	-1.963946e-08	-1.321436e+01	-1.290291e+03
6.500000e-07	-1.736881e-06	-1.944024e-08	-1.252581e+01	-1.276803e+03
6.600000e-07	-1.640885e-06	-1.923530e-08	-1.183352e+01	-1.263112e+03
6.700000e-07	-1.544315e-06	-1.902085e-08	-1.113709e+01	-1.249259e+03
6.800000e-07	-1.447076e-06	-1.879574e-08	-1.043584e+01	-1.235174e+03
6.900000e-07	-1.349145e-06	-1.856208e-08	-9.729592e+00	-1.220686e+03
7.000000e-07	-1.250577e-06	-1.832073e-08	-9.018747e+00	-1.205559e+03
7.100000e-07	-1.151526e-06	-1.807206e-08	-8.304429e+00	-1.189556e+03
7.200000e-07	-1.052102e-06	-1.781539e-08	-7.587411e+00	-1.172506e+03
7.300000e-07	-9.523963e-07	-1.754668e-08	-6.868369e+00	-1.154344e+03
7.400000e-07	-8.524916e-07	-1.726287e-08	-6.147889e+00	-1.135128e+03
7.500000e-07	-7.523947e-07	-1.696627e-08	-5.426023e+00	-1.115004e+03
7.600000e-07	-6.520737e-07	-1.665631e-08	-4.702541e+00	-1.094145e+03
7.700000e-07	-5.514939e-07	-1.633034e-08	-3.977192e+00	-1.072662e+03
7.800000e-07	-4.507086e-07	-1.598754e-08	-3.250362e+00	-1.050536e+03
7.900000e-07	-3.498118e-07	-1.562499e-08	-2.522728e+00	-1.027573e+03
8.000000e-07	-2.487844e-07	-1.523829e-08	-1.794151e+00	-1.003414e+03
8.100000e-07	-1.476339e-07	-1.482840e-08	-1.064687e+00	-9.775907e+02
8.200000e-07	-4.643406e-08	-1.439732e-08	-3.348672e-01	-9.496265e+02
8.300000e-07	5.477739e-08	-1.393816e-08	3.950365e-01	-9.191326e+02
8.400000e-07	1.559968e-07	-1.344470e-08	1.124998e+00	-8.858848e+02
8.500000e-07	2.571697e-07	-1.291178e-08	1.854623e+00	-8.498372e+02
8.600000e-07	3.582480e-07	-1.233665e-08	2.583567e+00	-8.110616e+02
8.700000e-07	4.592417e-07	-1.171467e-08	3.311900e+00	-7.696154e+02
8.800000e-07	5.601014e-07	-1.103821e-08	4.039267e+00	-7.253667e+02
8.900000e-07	6.608062e-07	-1.029910e-08	4.765517e+00	-6.778232e+02
9.000000e-07	7.613238e-07	-9.483970e-09	5.490416e+00	-6.260172e+02
9.100000e-07	8.616525e-07	-8.580129e-09	6.213954e+00	-5.684970e+02
9.200000e-07	9.617895e-07	-7.570767e-09	6.936109e+00	-5.034513e+02
9.300000e-07	1.061644e-06	-6.435075e-09	7.656224e+00	-4.289638e+02
9.400000e-07	1.161130e-06	-5.147476e-09	8.373684e+00	-3.433657e+02
9.500000e-07	1.260165e-06	-3.684995e-09	9.087895e+00	-2.456198e+02
9.600000e-07	1.358596e-06	-2.035313e-09	9.797750e+00	-1.356606e+02
9.700000e-07	1.456374e-06	-2.007162e-10	1.050289e+01	-1.461165e+01
9.800000e-07	1.553554e-06	1.793691e-09	1.120372e+01	1.151758e+02
9.900000e-07	1.650105e-06	3.891844e-09	1.190002e+01	2.502868e+02
1.000000e-06	1.745987e-06	6.010381e-09	1.259149e+01	3.865917e+02
1.010000e-06	1.841201e-06	8.062647e-09	1.327814e+01	5.197229e+02
1.020000e-06	1.935749e-06	9.976344e-09	1.395998e+01	6.455977e+02
1.030000e-06	2.029602e-06	1.170202e-08	1.463682e+01	7.608924e+02
1.040000e-06	2.122751e-06	1.321853e-08	1.530858e+01	8.633847e+02
1.050000e-06	2.215263e-06	1.452759e-08	1.597575e+01	9.521104e+02
1.060000e-06	2.307121e-06	1.564614e-08	1.663820e+01	1.027316e+03
1.070000e-06	2.398159e-06	1.659937e-08	1.729473e+01	1.090232e+03
1.080000e-06	2.488195e-06	1.741243e-08	1.794404e+01	1.142727e+03
1.090000e-06	2.577208e-06	1.810496e-08	1.858597e+01	1.186916e+03
1.100000e-06	2.665230e-06	1.869791e-08	1.922076e+01	1.224805e+03
1.110000e-06	2.752252e-06	1.920988e-08	1.984833e+01	1.258029e+03
1.120000e-06	2.838355e-06	1.965661e-08	2.046928e+01	1.287735e+03
1.130000e-06	2.923607e-06	2.005099e-08	2.108409e+01	1.314579e+03
1.140000e-06	3.007989e-06	2.040134e-08	2.169262e+01	1.338844e+03
1.150000e-06	3.091480e-06	2.071399e-08	2.229474e+01	1.360606e+03
1.160000e-06	3.173879e-06	2.099472e-08	2.288897e+01	1.379907e+03
1.170000e-06	3.255079e-06	2.125001e-08	2.347456e+01	1.396883e+03
1.180000e-06	3.335099e-06	2.148272e-08	2.405163e+01	1.411817e+03
1.190000e-06	3.413896e-06	2.169731e-08	2.461990e+01	1.425129e+03
1.200000e-06	3.491542e-06	2.189644e-08	2.517985e+01	1.437297e+03
1.210000e-06	3.567969e-06	2.208105e-08	2.573102e+01	1.448761e+03
1.220000e-06	3.642971e-06	2.225274e-08	2.627191e+01	1.459833e+03
1.230000e-06	3.716447e-06	2.241437e-08	2.680179e+01	1.470648e+03
1.240000e-06	3.788396e-06	2.256487e-08	2.732066e+01	1.481160e+03
1.250000e-06	3.858927e-06	2.270456e-08	2.782931e+01	1.491199e+03
1.260000e-06	3.928176e-06	2.283474e-08	2.832871e+01	1.500548e+03
1.270000e-06	3.996125e-06	2.295573e-08	2.881874e+01	1.509032e+03
1.280000e-06	4.062619e-06	2.306960e-08	2.929827e+01	1.516581e+03
1.290000e-06	4.127547e-06	2.317747e-08	2.976651e+01	1.523265e+03
1.300000e-06	4.190972e-06	2.327995e-08	3.022391e+01	1.529272e+03
1.310000e-06	4.252972e-06	2.337551e-08	3.067104e+01	1.534856e+03
1.320000e-06	4.313578e-06	2.346441e-08	3.110810e+01	1.540267e+03
1.330000e-06	4.372709e-06	2.354814e-08	3.153454e+01	1.545689e+03
1.340000e-06	4.430154e-06	2.362614e-08	3.194881e+01	1.551188e+03
1.350000e-06	4.485904e-06	2.370014e-08	3.235086e+01	1.556716e+03
1.360000e-06	4.540043e-06	2.377212e-08	3.274129e+01	1.562132e+03
1.370000e-06	4.592476e-06	2.384156e-08	3.311943e+01	1.567262e+03
1.380000e-06	4.642926e-06	2.390864e-08	3.348325e+01	1.571955e+03
1.390000e-06	4.691413e-06	2.397344e-08	3.383292e+01	1.576136e+03
1.400000e-06	4.738184e-06	2.403644e-08	3.417023e+01	1.579827e+03
1.410000e-06	4.783361e-06	2.409746e-08	3.449603e+01	1.583141e+03
1.420000e-06	4.826997e-06	2.415426e-08	3.481072e+01	1.586238e+03
1.430000e-06	4.868831e-06	2.420412e-08	3.511241e+01	1.589283e+03
1.440000e-06	4.908824e-06	2.424769e-08	3.540082e+01	1.592386e+03
1.450000e-06	4.947170e-06	2.428917e-08	3.567736e+01	1.595576e+03
1.460000e-06	4.983926e-06	2.433044e-08	3.594243e+01	1.598791e+03
1.470000e-06	5.019065e-06	2.437010e-08	3.619585e+01	1.601902e+03
1.480000e-06	5.052298e-06	2.440776e-08	3.643551e+01	1.604758e+03
1.490000e-06	5.083656e-06	2.444389e-08	3.666165e+01	1.607230e+03
1.500000e-06	5.113385e-06	2.447702e-08	3.687605e+01	1.609257e+03
1.510000e-06	5.141466e-06	2.450512e-08	3.707856e+01	1.610861e+03
1.520000e-06	5.167637e-06	2.452943e-08	3.726730e+01	1.612143e+03
1.530000e-06	5.191763e-06	2.455085e-08	3.744128e+01	1.613250e+03
1.540000e-06	5.214001e-06	2.456946e-08	3.760166e+01	1.614329e+03
1.550000e-06	5.234486e-06	2.458695e-08	3.774939e+01	1.615487e+03
1.560000e-06	5.253225e-06	2.460375e-08	3.788453e+01	1.616753e+03
1.570000e-06	5.270012e-06	2.461818e-08	3.800559e+01	1.618080e+03
1.580000e-06	5.284802e-06	2.463063e-08	3.811225e+01	1.619355e+03
1.590000e-06	5.297667e-06	2.464251e-08	3.820503e+01	1.620443e+03
1.600000e-06	5.308448e-06	2.465422e-08	3.828278e+01	1.621225e+03
1.610000e-06	5.317096e-06	2.466353e-08	3.834515e+01	1.621639e+03
1.620000e-06	5.323833e-06	2.467029e-08	3.839373e+01	1.621701e+03
1.630000e-06	5.328785e-06	2.467459e-08	3.842944e+01	1.621495e+03
1.640000e-06	5.331888e-06	2.467556e-08	3.845182e+01	1.621150e+03
1.650000e-06	5.333022e-06	2.467459e-08	3.846000e+01	1.620800e+03
1.660000e-06	5.332277e-06	2.467254e-08	3.845463e+01	1.620541e+03
1.670000e-06	5.329866e-06	2.466966e-08	3.843724e+01	1.620399e+03
1.680000e-06	5.325870e-06	2.466510e-08	3.840842e+01	1.620325e+03
1.690000e-06	5.320020e-06	2.465856e-08	3.836623e+01	1.620210e+03
1.700000e-06	5.312247e-06	2.465053e-08	3.831018e+01	1.619916e+03
1.710000e-06	5.302857e-06	2.464147e-08	3.824246e+01	1.619318e+03
1.720000e-06	5.291866e-06	2.463077e-08	3.816319e+01	1.618347e+03
1.730000e-06	5.279070e-06	2.461540e-08	3.807092e+01	1.617006e+03
1.740000e-06	5.264295e-06	2.456721e-08	3.796436e+01	1.615374e+03
1.750000e-06	5.247348e-06	2.452191e-08	3.784215e+01	1.613579e+03
1.760000e-06	5.227935e-06	2.451647e-08	3.770215e+01	1.611766e+03
1.770000e-06	5.206004e-06	2.451460e-08	3.754399e+01	1.610049e+03
1.780000e-06	5.182326e-06	2.453126e-08	3.737323e+01	1.608485e+03
1.790000e-06	5.157822e-06	2.450232e-08	3.719651e+01	1.607054e+03
1.800000e-06	5.132262e-06	2.441583e-08	3.701219e+01	1.605671e+03
1.810000e-06	5.104855e-06	2.440623e-08	3.681453e+01	1.604214e+03
1.820000e-06	5.075595e-06	2.437705e-08	3.660352e+01	1.602555e+03
1.830000e-06	5.044561e-06	2.432619e-08	3.637971e+01	1.600605e+03
1.840000e-06	5.011509e-06	2.437216e-08	3.614136e+01	1.598333e+03
1.850000e-06	4.976752e-06	2.434652e-08	3.589070e+01	1.595771e+03
1.860000e-06	4.940383e-06	2.429867e-08	3.562841e+01	1.592999e+03
1.870000e-06	4.902029e-06	2.429927e-08	3.535182e+01	1.590117e+03
1.880000e-06	4.861963e-06	2.419479e-08	3.506288e+01	1.587206e+03
1.890000e-06	4.820239e-06	2.414351e-08	3.476197e+01	1.584302e+03
1.900000e-06	4.776752e-06	2.413426e-08	3.444836e+01	1.581382e+03
1.910000e-06	4.731630e-06	2.408007e-08	3.412296e+01	1.578370e+03
1.920000e-06	4.684672e-06	2.405432e-08	3.378431e+01	1.575163e+03
1.930000e-06	4.636019e-06	2.394707e-08	3.343344e+01	1.571664e+03
1.940000e-06	4.585633e-06	2.389859e-08	3.307008e+01	1.567809e+03
1.950000e-06	4.533208e-06	2.389841e-08	3.269200e+01	1.563596e+03
1.960000e-06	4.478838e-06	2.379259e-08	3.229991e+01	1.559079e+03
1.970000e-06	4.422688e-06	2.372404e-08	3.189497e+01	1.554356e+03
1.980000e-06	4.364954e-06	2.365967e-08	3.147861e+01	1.549535e+03
1.990000e-06	4.305853e-06	2.358657e-08	3.105239e+01	1.544702e+03
2.000000e-06	4.245375e-06	2.351272e-08	3.061625e+01	1.539892e+03
2.010000e-06	4.183250e-06	2.342487e-08	3.016823e+01	1.535075e+03
2.020000e-06	4.119361e-06	2.337323e-08	2.970748e+01	1.530169e+03
2.030000e-06	4.054013e-06	2.326720e-08	2.923621e+01	1.525062e+03
2.040000e-06	3.987325e-06	2.317626e-08	2.875527e+01	1.519650e+03
2.050000e-06	3.919373e-06	2.310614e-08	2.826523e+01	1.513868e+03
2.060000e-06	3.849938e-06	2.301312e-08	2.776449e+01	1.507712e+03
2.070000e-06	3.778837e-06	2.293652e-08	2.725173e+01	1.501240e+03
2.080000e-06	3.706459e-06	2.282635e-08	2.672976e+01	1.494552e+03
2.090000e-06	3.632857e-06	2.272328e-08	2.619897e+01	1.487759e+03
2.100000e-06	3.557911e-06	2.261500e-08	2.565848e+01	1.480944e+03
2.110000e-06	3.481544e-06	2.251317e-08	2.510775e+01	1.474131e+03
2.120000e-06	3.403576e-06	2.241716e-08	2.454547e+01	1.467277e+03
2.130000e-06	3.324202e-06	2.229460e-08	2.397305e+01	1.460279e+03
2.140000e-06	3.243772e-06	2.218538e-08	2.339301e+01	1.453009e+03
2.150000e-06	3.162304e-06	2.206685e-08	2.280550e+01	1.445345e+03
2.160000e-06	3.079719e-06	2.194267e-08	2.220992e+01	1.437216e+03
2.170000e-06	2.996134e-06	2.180882e-08	2.160713e+01	1.428621e+03
2.180000e-06	2.911573e-06	2.168230e-08	2.099730e+01	1.419632e+03
2.190000e-06	2.825713e-06	2.155871e-08	2.037811e+01	1.410366e+03
2.200000e-06	2.738554e-06	2.141147e-08	1.974955e+01	1.400950e+03
2.210000e-06	2.650452e-06	2.126456e-08	1.911419e+01	1.391475e+03
2.220000e-06	2.561520e-06	2.111799e-08	1.847284e+01	1.381961e+03
2.230000e-06	2.471665e-06	2.097197e-08	1.782483e+01	1.372342e+03
2.240000e-06	2.381003e-06	2.081733e-08	1.717101e+01	1.362482e+03
2.250000e-06	2.289659e-06	2.066054e-08	1.651227e+01	1.352208e+03
2.260000e-06	2.197648e-06	2.049880e-08	1.584871e+01	1.341362e+03
2.270000e-06	2.104850e-06	2.032055e-08	1.517948e+01	1.329845e+03
2.280000e-06	2.011043e-06	2.013489e-08	1.450298e+01	1.317650e+03
2.290000e-06	1.916303e-06	1.994638e-08	1.381975e+01	1.304859e+03
2.300000e-06	1.820819e-06	1.975569e-08	1.313115e+01	1.291615e+03
2.310000e-06	1.724765e-06	1.955716e-08	1.243844e+01	1.278074e+03
2.320000e-06	1.628270e-06	1.934971e-08	1.174255e+01	1.264348e+03
2.330000e-06	1.531284e-06	1.913466e-08	1.104311e+01	1.250454e+03
2.340000e-06	1.433716e-06	1.891305e-08	1.033948e+01	1.236299e+03
2.350000e-06	1.335676e-06	1.868175e-08	9.632459e+00	1.221694e+03
2.360000e-06	1.237261e-06	1.844009e-08	8.922722e+00	1.206398e+03
2.370000e-06	1.138460e-06	1.818684e-08	8.210198e+00	1.190181e+03
2.380000e-06	1.039355e-06	1.792343e-08	7.495488e+00	1.172893e+03
2.390000e-06	9.399714e-07	1.765187e-08	6.778764e+00	1.154496e+03
2.400000e-06	8.403513e-07	1.736698e-08	6.060337e+00	1.135070e+03
2.410000e-06	7.405283e-07	1.706887e-08	5.340446e+00	1.114775e+03
2.420000e-06	6.404375e-07	1.675736e-08	4.618624e+00	1.093775e+03
2.430000e-06	5.401455e-07	1.642971e-08	3.895351e+00	1.072161e+03
2.440000e-06	4.397063e-07	1.608296e-08	3.171017e+00	1.049878e+03
2.450000e-06	3.391165e-07	1.571863e-08	2.445596e+00	1.026693e+03
2.460000e-06	2.383989e-07	1.533441e-08	1.719255e+00	1.002217e+03
2.470000e-06	1.375374e-07	1.492409e-08	9.918743e-01	9.759736e+02
2.480000e-06	3.652145e-08	1.448383e-08	2.633807e-01	9.474945e+02
2.490000e-06	-6.451217e-08	1.401383e-08	-4.652405e-01	9.164224e+02
2.500000e-06	-1.654928e-07	1.351179e-08	-1.193480e+00	8.825723e+02
2.510000e-06	-2.664291e-07	1.297224e-08	-1.921399e+00	8.459315e+02
2.520000e-06	-3.672676e-07	1.239132e-08	-2.648613e+00	8.065817e+02
2.530000e-06	-4.679748e-07	1.176036e-08	-3.374880e+00	7.645553e+02
2.540000e-06	-5.685338e-07	1.107264e-08	-4.100079e+00	7.196564e+02
2.550000e-06	-6.689288e-07	1.031896e-08	-4.824094e+00	6.712975e+02
2.560000e-06	-7.690959e-07	9.487227e-09	-5.546466e+00	6.184036e+02
2.570000e-06	-8.690604e-07	8.564290e-09	-6.267378e+00	5.594309e+02
2.580000e-06	-9.687426e-07	7.533415e-09	-6.986253e+00	4.925199e+02
2.590000e-06	-1.068006e-06	6.373027e-09	-7.702111e+00	4.157757e+02
2.600000e-06	-1.166903e-06	5.058434e-09	-8.415322e+00	3.276326e+02
2.610000e-06	-1.265506e-06	3.567738e-09	-9.126411e+00	2.272361e+02
2.620000e-06	-1.363721e-06	1.888625e-09	-9.834709e+00	1.147627e+02
2.630000e-06	-1.461407e-06	2.520533e-11	-1.053919e+01	-8.397534e+00
2.640000e-06	-1.558534e-06	-1.992745e-09	-1.123963e+01	-1.396447e+02
2.650000e-06	-1.655152e-06	-4.103820e-09	-1.193641e+01	-2.753758e+02
2.660000e-06	-1.751313e-06	-6.225434e-09	-1.262989e+01	-4.113672e+02
2.670000e-06	-1.846904e-06	-8.271436e-09	-1.331926e+01	-5.432685e+02
2.680000e-06	-1.941695e-06	-1.017126e-08	-1.400286e+01	-6.671232e+02
2.690000e-06	-2.035549e-06	-1.187776e-08	-1.467971e+01	-7.798204e+02
2.700000e-06	-2.128521e-06	-1.337156e-08	-1.535019e+01	-8.794013e+02
2.710000e-06	-2.220688e-06	-1.466013e-08	-1.601487e+01	-9.651717e+02
2.720000e-06	-2.312079e-06	-1.576303e-08	-1.667395e+01	-1.037613e+03
2.730000e-06	-2.402691e-06	-1.670394e-08	-1.732741e+01	-1.098126e+03
2.740000e-06	-2.492467e-06	-1.750399e-08	-1.797485e+01	-1.148662e+03
2.750000e-06	-2.581400e-06	-1.818529e-08	-1.861621e+01	-1.191342e+03
2.760000e-06	-2.669504e-06	-1.877178e-08	-1.925159e+01	-1.228110e+03
2.770000e-06	-2.756740e-06	-1.927835e-08	-1.988070e+01	-1.260503e+03
2.780000e-06	-2.842928e-06	-1.971912e-08	-2.050226e+01	-1.289555e+03
2.790000e-06	-2.928000e-06	-2.010950e-08	-2.111578e+01	-1.315833e+03
2.800000e-06	-3.012000e-06	-2.045605e-08	-2.172155e+01	-1.339560e+03
2.810000e-06	-3.094942e-06	-2.076420e-08	-2.231971e+01	-1.360790e+03
2.820000e-06	-3.176858e-06	-2.104156e-08	-2.291046e+01	-1.379578e+03
2.830000e-06	-3.257806e-06	-2.129383e-08	-2.349423e+01	-1.396087e+03
2.840000e-06	-3.337677e-06	-2.152691e-08	-2.407023e+01	-1.410636e+03
2.850000e-06	-3.416265e-06	-2.174403e-08	-2.463698e+01	-1.423663e+03
2.860000e-06	-3.493400e-06	-2.194548e-08	-2.519325e+01	-1.435647e+03
2.870000e-06	-3.569017e-06	-2.212952e-08	-2.573857e+01	-1.447007e+03
2.880000e-06	-3.643280e-06	-2.229854e-08	-2.627413e+01	-1.458020e+03
2.890000e-06	-3.716307e-06	-2.245663e-08	-2.680078e+01	-1.468779e+03
2.900000e-06	-3.788039e-06	-2.260452e-08	-2.731809e+01	-1.479208e+03
2.910000e-06	-3.858295e-06	-2.274469e-08	-2.782475e+01	-1.489118e+03
2.920000e-06	-3.927048e-06	-2.287645e-08	-2.832058e+01	-1.498294e+03
2.930000e-06	-3.994386e-06	-2.300007e-08	-2.880620e+01	-1.506579e+03
2.940000e-06	-4.060352e-06	-2.311644e-08	-2.928192e+01	-1.513934e+03
