# Temperatura_=_29.32
# Concentracion g/m^3_=_41000.0
# C_Vs_to_Am_M_A/Vsm_=_65563218390.804596
# pendiente_HvsI_1/m_=_3716.3
# ordenada_HvsI_A/m_=_1297.0
# frecuencia_Hz_=_301641.0878413637

Tiempo_(s)	Campo_(V.s)	Magnetizacion_(V.s)	Campo_(kA/m)	Magnetizacion_(A/m)
0.000000e+00	-5.306634e-06	-2.383301e-08	-3.833853e+01	-1.557734e+03
1.000000e-08	-5.304573e-06	-2.383069e-08	-3.832364e+01	-1.557331e+03
2.000000e-08	-5.300648e-06	-2.382426e-08	-3.829529e+01	-1.556951e+03
3.000000e-08	-5.295090e-06	-2.381756e-08	-3.825513e+01	-1.556621e+03
4.000000e-08	-5.287977e-06	-2.380876e-08	-3.820374e+01	-1.556312e+03
5.000000e-08	-5.279205e-06	-2.379694e-08	-3.814037e+01	-1.555949e+03
6.000000e-08	-5.268412e-06	-2.378288e-08	-3.806239e+01	-1.555439e+03
7.000000e-08	-5.255675e-06	-2.376130e-08	-3.797037e+01	-1.554694e+03
8.000000e-08	-5.241017e-06	-2.374791e-08	-3.786447e+01	-1.553663e+03
9.000000e-08	-5.224085e-06	-2.377025e-08	-3.774214e+01	-1.552352e+03
1.000000e-07	-5.204942e-06	-2.375034e-08	-3.760384e+01	-1.550817e+03
1.100000e-07	-5.183916e-06	-2.370380e-08	-3.745194e+01	-1.549158e+03
1.200000e-07	-5.161161e-06	-2.367486e-08	-3.728754e+01	-1.547482e+03
1.300000e-07	-5.137079e-06	-2.358420e-08	-3.711355e+01	-1.545876e+03
1.400000e-07	-5.111582e-06	-2.359370e-08	-3.692935e+01	-1.544381e+03
1.500000e-07	-5.084248e-06	-2.365002e-08	-3.673187e+01	-1.542979e+03
1.600000e-07	-5.055326e-06	-2.353224e-08	-3.652292e+01	-1.541599e+03
1.700000e-07	-5.025015e-06	-2.355323e-08	-3.630394e+01	-1.540140e+03
1.800000e-07	-4.992828e-06	-2.356040e-08	-3.607139e+01	-1.538498e+03
1.900000e-07	-4.958483e-06	-2.339542e-08	-3.582326e+01	-1.536598e+03
2.000000e-07	-4.922558e-06	-2.341616e-08	-3.556371e+01	-1.534416e+03
2.100000e-07	-4.885120e-06	-2.340203e-08	-3.529324e+01	-1.531981e+03
2.200000e-07	-4.845929e-06	-2.329368e-08	-3.501010e+01	-1.529363e+03
2.300000e-07	-4.804909e-06	-2.329946e-08	-3.471374e+01	-1.526650e+03
2.400000e-07	-4.761921e-06	-2.325875e-08	-3.440317e+01	-1.523917e+03
2.500000e-07	-4.717158e-06	-2.320533e-08	-3.407977e+01	-1.521196e+03
2.600000e-07	-4.670661e-06	-2.318112e-08	-3.374385e+01	-1.518471e+03
2.700000e-07	-4.622334e-06	-2.309364e-08	-3.339471e+01	-1.515674e+03
2.800000e-07	-4.571955e-06	-2.304862e-08	-3.303074e+01	-1.512707e+03
2.900000e-07	-4.519452e-06	-2.302260e-08	-3.265142e+01	-1.509472e+03
3.000000e-07	-4.465243e-06	-2.296202e-08	-3.225978e+01	-1.505903e+03
3.100000e-07	-4.409543e-06	-2.287944e-08	-3.185737e+01	-1.501982e+03
3.200000e-07	-4.352059e-06	-2.281591e-08	-3.144206e+01	-1.497750e+03
3.300000e-07	-4.292783e-06	-2.277349e-08	-3.101382e+01	-1.493292e+03
3.400000e-07	-4.232078e-06	-2.269028e-08	-3.057525e+01	-1.488713e+03
3.500000e-07	-4.170015e-06	-2.262495e-08	-3.012686e+01	-1.484107e+03
3.600000e-07	-4.106574e-06	-2.256609e-08	-2.966852e+01	-1.479525e+03
3.700000e-07	-4.041687e-06	-2.248709e-08	-2.919974e+01	-1.474963e+03
3.800000e-07	-3.975124e-06	-2.240630e-08	-2.871884e+01	-1.470358e+03
3.900000e-07	-3.906959e-06	-2.231512e-08	-2.822638e+01	-1.465612e+03
4.000000e-07	-3.837507e-06	-2.224475e-08	-2.772461e+01	-1.460619e+03
4.100000e-07	-3.766867e-06	-2.216930e-08	-2.721426e+01	-1.455294e+03
4.200000e-07	-3.695101e-06	-2.207885e-08	-2.669578e+01	-1.449603e+03
4.300000e-07	-3.622014e-06	-2.198707e-08	-2.616775e+01	-1.443572e+03
4.400000e-07	-3.547238e-06	-2.189606e-08	-2.562752e+01	-1.437271e+03
4.500000e-07	-3.470934e-06	-2.180633e-08	-2.507625e+01	-1.430799e+03
4.600000e-07	-3.393364e-06	-2.170492e-08	-2.451584e+01	-1.424244e+03
4.700000e-07	-3.314481e-06	-2.159932e-08	-2.394594e+01	-1.417657e+03
4.800000e-07	-3.234226e-06	-2.149192e-08	-2.336612e+01	-1.411033e+03
4.900000e-07	-3.152724e-06	-2.138172e-08	-2.277730e+01	-1.404307e+03
5.000000e-07	-3.070142e-06	-2.127280e-08	-2.218067e+01	-1.397377e+03
5.100000e-07	-2.986577e-06	-2.115686e-08	-2.157695e+01	-1.390131e+03
5.200000e-07	-2.902208e-06	-2.103937e-08	-2.096741e+01	-1.382478e+03
5.300000e-07	-2.816980e-06	-2.091997e-08	-2.035167e+01	-1.374380e+03
5.400000e-07	-2.730824e-06	-2.079232e-08	-1.972922e+01	-1.365860e+03
5.500000e-07	-2.643753e-06	-2.066276e-08	-1.910017e+01	-1.356990e+03
5.600000e-07	-2.555782e-06	-2.052721e-08	-1.846461e+01	-1.347869e+03
5.700000e-07	-2.466911e-06	-2.038598e-08	-1.782254e+01	-1.338584e+03
5.800000e-07	-2.376846e-06	-2.023594e-08	-1.717186e+01	-1.329179e+03
5.900000e-07	-2.285583e-06	-2.008292e-08	-1.651252e+01	-1.319633e+03
6.000000e-07	-2.193560e-06	-1.992707e-08	-1.584768e+01	-1.309864e+03
6.100000e-07	-2.100965e-06	-1.976661e-08	-1.517872e+01	-1.299741e+03
6.200000e-07	-2.007620e-06	-1.960125e-08	-1.450433e+01	-1.289128e+03
6.300000e-07	-1.913498e-06	-1.942798e-08	-1.382433e+01	-1.277919e+03
6.400000e-07	-1.818709e-06	-1.924819e-08	-1.313952e+01	-1.266069e+03
6.500000e-07	-1.723300e-06	-1.906056e-08	-1.245023e+01	-1.253608e+03
6.600000e-07	-1.627300e-06	-1.886948e-08	-1.175666e+01	-1.240626e+03
6.700000e-07	-1.530767e-06	-1.867287e-08	-1.105924e+01	-1.227243e+03
6.800000e-07	-1.433679e-06	-1.846671e-08	-1.035782e+01	-1.213567e+03
6.900000e-07	-1.335965e-06	-1.825035e-08	-9.651868e+00	-1.199644e+03
7.000000e-07	-1.237707e-06	-1.802667e-08	-8.941993e+00	-1.185439e+03
7.100000e-07	-1.138890e-06	-1.779596e-08	-8.228071e+00	-1.170830e+03
7.200000e-07	-1.039568e-06	-1.755552e-08	-7.510507e+00	-1.155636e+03
7.300000e-07	-9.399172e-07	-1.730860e-08	-6.790565e+00	-1.139658e+03
7.400000e-07	-8.400290e-07	-1.705312e-08	-6.068908e+00	-1.122734e+03
7.500000e-07	-7.399444e-07	-1.678609e-08	-5.345833e+00	-1.104778e+03
7.600000e-07	-6.397026e-07	-1.650491e-08	-4.621622e+00	-1.085797e+03
7.700000e-07	-5.393015e-07	-1.620883e-08	-3.896260e+00	-1.065878e+03
7.800000e-07	-4.387640e-07	-1.589700e-08	-3.169913e+00	-1.045141e+03
7.900000e-07	-3.381236e-07	-1.556773e-08	-2.442822e+00	-1.023681e+03
8.000000e-07	-2.373706e-07	-1.522345e-08	-1.714917e+00	-1.001501e+03
8.100000e-07	-1.364963e-07	-1.486420e-08	-9.861366e-01	-9.784829e+02
8.200000e-07	-3.549711e-08	-1.448623e-08	-2.564539e-01	-9.543731e+02
8.300000e-07	6.549874e-08	-1.408648e-08	4.732049e-01	-9.288254e+02
8.400000e-07	1.664780e-07	-1.366596e-08	1.202744e+00	-9.014647e+02
8.500000e-07	2.674310e-07	-1.321933e-08	1.932093e+00	-8.719650e+02
8.600000e-07	3.683110e-07	-1.274084e-08	2.660915e+00	-8.401120e+02
8.700000e-07	4.690669e-07	-1.222738e-08	3.388841e+00	-8.058250e+02
8.800000e-07	5.696964e-07	-1.167761e-08	4.115852e+00	-7.691230e+02
8.900000e-07	6.702134e-07	-1.108916e-08	4.842052e+00	-7.300345e+02
9.000000e-07	7.705206e-07	-1.045533e-08	5.566735e+00	-6.884680e+02
9.100000e-07	8.706013e-07	-9.769939e-09	6.289782e+00	-6.440774e+02
9.200000e-07	9.704908e-07	-9.022336e-09	7.011448e+00	-5.961611e+02
9.300000e-07	1.070151e-06	-8.201886e-09	7.731455e+00	-5.436349e+02
9.400000e-07	1.169449e-06	-7.293834e-09	8.448848e+00	-4.851040e+02
9.500000e-07	1.268204e-06	-6.281064e-09	9.162316e+00	-4.190377e+02
9.600000e-07	1.366365e-06	-5.144621e-09	9.871497e+00	-3.440269e+02
9.700000e-07	1.463881e-06	-3.865745e-09	1.057602e+01	-2.590806e+02
9.800000e-07	1.560658e-06	-2.431960e-09	1.127519e+01	-1.639024e+02
9.900000e-07	1.656822e-06	-8.401072e-10	1.196994e+01	-5.908935e+01
1.000000e-06	1.752424e-06	8.917426e-10	1.266063e+01	5.379773e+01
1.010000e-06	1.847384e-06	2.724600e-09	1.334668e+01	1.723149e+02
1.020000e-06	1.941704e-06	4.599506e-09	1.402812e+01	2.933630e+02
1.030000e-06	2.035394e-06	6.448898e-09	1.470499e+01	4.135266e+02
1.040000e-06	2.128382e-06	8.211471e-09	1.537680e+01	5.294659e+02
1.050000e-06	2.220697e-06	9.843755e-09	1.604374e+01	6.382927e+02
1.060000e-06	2.312362e-06	1.132417e-08	1.670599e+01	7.378645e+02
1.070000e-06	2.403188e-06	1.264739e-08	1.736217e+01	8.269498e+02
1.080000e-06	2.492918e-06	1.381832e-08	1.801044e+01	9.052438e+02
1.090000e-06	2.581532e-06	1.484477e-08	1.865064e+01	9.732450e+02
1.100000e-06	2.669214e-06	1.574432e-08	1.928411e+01	1.032029e+03
1.110000e-06	2.756034e-06	1.653123e-08	1.991136e+01	1.082975e+03
1.120000e-06	2.841963e-06	1.721861e-08	2.053217e+01	1.127497e+03
1.130000e-06	2.926992e-06	1.782054e-08	2.114647e+01	1.166837e+03
1.140000e-06	3.011146e-06	1.835071e-08	2.175445e+01	1.201947e+03
1.150000e-06	3.094399e-06	1.881880e-08	2.235593e+01	1.233463e+03
1.160000e-06	3.176591e-06	1.923275e-08	2.294973e+01	1.261762e+03
1.170000e-06	3.257558e-06	1.960324e-08	2.353469e+01	1.287063e+03
1.180000e-06	3.337279e-06	1.993456e-08	2.411065e+01	1.309543e+03
1.190000e-06	3.415808e-06	2.023275e-08	2.467799e+01	1.329426e+03
1.200000e-06	3.493135e-06	2.050300e-08	2.523665e+01	1.347025e+03
1.210000e-06	3.569226e-06	2.074820e-08	2.578638e+01	1.362738e+03
1.220000e-06	3.643939e-06	2.097275e-08	2.632616e+01	1.376997e+03
1.230000e-06	3.717008e-06	2.117980e-08	2.685405e+01	1.390201e+03
1.240000e-06	3.788583e-06	2.137022e-08	2.737116e+01	1.402651e+03
1.250000e-06	3.858873e-06	2.154704e-08	2.787897e+01	1.414511e+03
1.260000e-06	3.927825e-06	2.171201e-08	2.837712e+01	1.425808e+03
1.270000e-06	3.995512e-06	2.186777e-08	2.886614e+01	1.436462e+03
1.280000e-06	4.061733e-06	2.201247e-08	2.934457e+01	1.446349e+03
1.290000e-06	4.126277e-06	2.214526e-08	2.981087e+01	1.455359e+03
1.300000e-06	4.189322e-06	2.226770e-08	3.026635e+01	1.463456e+03
1.310000e-06	4.250973e-06	2.237898e-08	3.071175e+01	1.470695e+03
1.320000e-06	4.311313e-06	2.248092e-08	3.114769e+01	1.477220e+03
1.330000e-06	4.370235e-06	2.257544e-08	3.157338e+01	1.483227e+03
1.340000e-06	4.427430e-06	2.266501e-08	3.198659e+01	1.488916e+03
1.350000e-06	4.482924e-06	2.275093e-08	3.238752e+01	1.494441e+03
1.360000e-06	4.536819e-06	2.283263e-08	3.277689e+01	1.499878e+03
1.370000e-06	4.588972e-06	2.291010e-08	3.315368e+01	1.505217e+03
1.380000e-06	4.639133e-06	2.298345e-08	3.351607e+01	1.510379e+03
1.390000e-06	4.687334e-06	2.305215e-08	3.386431e+01	1.515251e+03
1.400000e-06	4.733848e-06	2.311665e-08	3.420036e+01	1.519733e+03
1.410000e-06	4.778790e-06	2.317749e-08	3.452505e+01	1.523772e+03
1.420000e-06	4.822236e-06	2.323543e-08	3.483893e+01	1.527380e+03
1.430000e-06	4.863868e-06	2.328911e-08	3.513970e+01	1.530631e+03
1.440000e-06	4.903630e-06	2.333750e-08	3.542697e+01	1.533638e+03
1.450000e-06	4.941772e-06	2.338348e-08	3.570253e+01	1.536516e+03
1.460000e-06	4.978335e-06	2.342902e-08	3.596669e+01	1.539347e+03
1.470000e-06	5.013222e-06	2.347136e-08	3.621873e+01	1.542157e+03
1.480000e-06	5.046135e-06	2.350843e-08	3.645652e+01	1.544912e+03
1.490000e-06	5.077212e-06	2.354138e-08	3.668103e+01	1.547529e+03
1.500000e-06	5.106674e-06	2.357095e-08	3.689389e+01	1.549908e+03
1.510000e-06	5.134557e-06	2.359661e-08	3.709533e+01	1.551967e+03
1.520000e-06	5.160474e-06	2.362031e-08	3.728258e+01	1.553666e+03
1.530000e-06	5.184310e-06	2.364264e-08	3.745478e+01	1.555027e+03
1.540000e-06	5.206374e-06	2.366275e-08	3.761418e+01	1.556124e+03
1.550000e-06	5.226761e-06	2.368204e-08	3.776148e+01	1.557062e+03
1.560000e-06	5.245369e-06	2.369922e-08	3.789591e+01	1.557947e+03
1.570000e-06	5.261985e-06	2.371325e-08	3.801595e+01	1.558854e+03
1.580000e-06	5.276614e-06	2.372582e-08	3.812164e+01	1.559807e+03
1.590000e-06	5.289314e-06	2.373834e-08	3.821339e+01	1.560771e+03
1.600000e-06	5.299908e-06	2.374977e-08	3.828994e+01	1.561670e+03
1.610000e-06	5.308349e-06	2.375809e-08	3.835092e+01	1.562408e+03
1.620000e-06	5.314868e-06	2.376435e-08	3.839802e+01	1.562905e+03
1.630000e-06	5.319607e-06	2.376928e-08	3.843225e+01	1.563121e+03
1.640000e-06	5.322527e-06	2.377343e-08	3.845335e+01	1.563068e+03
1.650000e-06	5.323448e-06	2.377668e-08	3.846000e+01	1.562808e+03
1.660000e-06	5.322509e-06	2.377489e-08	3.845322e+01	1.562431e+03
1.670000e-06	5.319937e-06	2.377139e-08	3.843464e+01	1.562027e+03
1.680000e-06	5.315793e-06	2.376975e-08	3.840470e+01	1.561659e+03
1.690000e-06	5.309848e-06	2.376546e-08	3.836175e+01	1.561337e+03
1.700000e-06	5.302007e-06	2.375850e-08	3.830510e+01	1.561022e+03
1.710000e-06	5.292537e-06	2.375131e-08	3.823669e+01	1.560630e+03
1.720000e-06	5.281507e-06	2.374708e-08	3.815700e+01	1.560067e+03
1.730000e-06	5.268673e-06	2.374149e-08	3.806428e+01	1.559252e+03
1.740000e-06	5.253762e-06	2.367626e-08	3.795655e+01	1.558148e+03
1.750000e-06	5.236645e-06	2.364642e-08	3.783288e+01	1.556772e+03
1.760000e-06	5.216991e-06	2.365312e-08	3.769089e+01	1.555195e+03
1.770000e-06	5.194787e-06	2.364963e-08	3.753048e+01	1.553521e+03
1.780000e-06	5.170925e-06	2.370729e-08	3.735808e+01	1.551854e+03
1.790000e-06	5.146344e-06	2.360944e-08	3.718049e+01	1.550273e+03
1.800000e-06	5.120706e-06	2.352803e-08	3.699527e+01	1.548804e+03
1.810000e-06	5.093126e-06	2.359643e-08	3.679601e+01	1.547415e+03
1.820000e-06	5.063687e-06	2.347134e-08	3.658332e+01	1.546024e+03
1.830000e-06	5.032521e-06	2.345525e-08	3.635816e+01	1.544527e+03
1.840000e-06	4.999347e-06	2.356840e-08	3.611849e+01	1.542824e+03
1.850000e-06	4.964520e-06	2.344031e-08	3.586688e+01	1.540853e+03
1.860000e-06	4.928032e-06	2.343455e-08	3.560327e+01	1.538602e+03
1.870000e-06	4.889487e-06	2.347138e-08	3.532479e+01	1.536112e+03
1.880000e-06	4.849279e-06	2.334623e-08	3.503430e+01	1.533461e+03
1.890000e-06	4.807390e-06	2.335129e-08	3.473167e+01	1.530736e+03
1.900000e-06	4.763785e-06	2.327676e-08	3.441664e+01	1.528004e+03
1.910000e-06	4.718650e-06	2.323691e-08	3.409055e+01	1.525285e+03
1.920000e-06	4.671646e-06	2.330163e-08	3.375097e+01	1.522548e+03
1.930000e-06	4.622939e-06	2.316577e-08	3.339908e+01	1.519717e+03
1.940000e-06	4.572536e-06	2.311200e-08	3.303494e+01	1.516690e+03
1.950000e-06	4.520107e-06	2.308809e-08	3.265615e+01	1.513376e+03
1.960000e-06	4.465742e-06	2.302788e-08	3.226338e+01	1.509717e+03
1.970000e-06	4.409598e-06	2.298960e-08	3.185776e+01	1.505711e+03
1.980000e-06	4.351871e-06	2.287671e-08	3.144071e+01	1.501411e+03
1.990000e-06	4.292693e-06	2.286559e-08	3.101317e+01	1.496912e+03
2.000000e-06	4.232120e-06	2.279220e-08	3.057555e+01	1.492318e+03
2.010000e-06	4.169936e-06	2.267870e-08	3.012630e+01	1.487714e+03
2.020000e-06	4.106026e-06	2.264752e-08	2.966457e+01	1.483138e+03
2.030000e-06	4.040702e-06	2.256825e-08	2.919262e+01	1.478572e+03
2.040000e-06	3.973986e-06	2.252187e-08	2.871063e+01	1.473941e+03
2.050000e-06	3.905904e-06	2.241973e-08	2.821875e+01	1.469142e+03
2.060000e-06	3.836344e-06	2.232930e-08	2.771621e+01	1.464070e+03
2.070000e-06	3.765165e-06	2.227748e-08	2.720197e+01	1.458654e+03
2.080000e-06	3.692730e-06	2.216911e-08	2.667865e+01	1.452873e+03
2.090000e-06	3.619057e-06	2.208681e-08	2.614639e+01	1.446764e+03
2.100000e-06	3.544077e-06	2.198251e-08	2.560469e+01	1.440410e+03
2.110000e-06	3.467732e-06	2.190017e-08	2.505312e+01	1.433909e+03
2.120000e-06	3.389839e-06	2.181158e-08	2.449038e+01	1.427342e+03
2.130000e-06	3.310570e-06	2.169981e-08	2.391768e+01	1.420747e+03
2.140000e-06	3.230143e-06	2.160327e-08	2.333663e+01	1.414104e+03
2.150000e-06	3.148636e-06	2.149038e-08	2.274777e+01	1.407337e+03
2.160000e-06	3.066058e-06	2.138963e-08	2.215117e+01	1.400337e+03
2.170000e-06	2.982457e-06	2.127003e-08	2.154718e+01	1.392995e+03
2.180000e-06	2.897848e-06	2.114996e-08	2.093591e+01	1.385231e+03
2.190000e-06	2.812042e-06	2.103149e-08	2.031600e+01	1.377022e+03
2.200000e-06	2.724926e-06	2.090033e-08	1.968661e+01	1.368405e+03
2.210000e-06	2.636812e-06	2.076920e-08	1.905002e+01	1.359462e+03
2.220000e-06	2.547838e-06	2.063473e-08	1.840721e+01	1.350291e+03
2.230000e-06	2.458004e-06	2.050684e-08	1.775820e+01	1.340973e+03
2.240000e-06	2.367491e-06	2.036517e-08	1.710428e+01	1.331536e+03
2.250000e-06	2.276171e-06	2.021458e-08	1.644452e+01	1.321944e+03
2.260000e-06	2.184068e-06	2.005676e-08	1.577911e+01	1.312097e+03
2.270000e-06	2.091301e-06	1.989506e-08	1.510890e+01	1.301863e+03
2.280000e-06	1.997700e-06	1.972915e-08	1.443267e+01	1.291108e+03
2.290000e-06	1.903132e-06	1.955469e-08	1.374945e+01	1.279739e+03
2.300000e-06	1.807679e-06	1.937791e-08	1.305983e+01	1.267730e+03
2.310000e-06	1.711650e-06	1.919488e-08	1.236605e+01	1.255127e+03
2.320000e-06	1.615211e-06	1.900527e-08	1.166932e+01	1.242032e+03
2.330000e-06	1.518304e-06	1.880439e-08	1.096920e+01	1.228567e+03
2.340000e-06	1.420880e-06	1.859593e-08	1.026535e+01	1.214826e+03
2.350000e-06	1.322984e-06	1.837997e-08	9.558088e+00	1.200838e+03
2.360000e-06	1.224676e-06	1.815603e-08	8.847843e+00	1.186545e+03
2.370000e-06	1.126006e-06	1.792456e-08	8.134987e+00	1.171808e+03
2.380000e-06	1.027072e-06	1.768309e-08	7.420228e+00	1.156434e+03
2.390000e-06	9.278772e-07	1.743280e-08	6.703580e+00	1.140231e+03
2.400000e-06	8.283763e-07	1.717055e-08	5.984722e+00	1.123052e+03
2.410000e-06	7.285863e-07	1.689734e-08	5.263775e+00	1.104835e+03
2.420000e-06	6.285658e-07	1.661307e-08	4.541162e+00	1.085608e+03
2.430000e-06	5.283200e-07	1.631594e-08	3.816923e+00	1.065472e+03
2.440000e-06	4.279232e-07	1.600427e-08	3.091592e+00	1.044547e+03
2.450000e-06	3.274339e-07	1.567485e-08	2.365592e+00	1.022909e+03
2.460000e-06	2.268036e-07	1.532802e-08	1.638575e+00	1.000536e+03
2.470000e-06	1.260544e-07	1.496514e-08	9.106978e-01	9.772714e+02
2.480000e-06	2.524867e-08	1.458393e-08	1.824126e-01	9.528359e+02
2.490000e-06	-7.558097e-08	1.417986e-08	-5.460454e-01	9.268683e+02
2.500000e-06	-1.763732e-07	1.375100e-08	-1.274233e+00	8.989986e+02
2.510000e-06	-2.770821e-07	1.329743e-08	-2.001819e+00	8.689243e+02
2.520000e-06	-3.777035e-07	1.281501e-08	-2.728772e+00	8.364642e+02
2.530000e-06	-4.782451e-07	1.229491e-08	-3.455149e+00	8.015683e+02
2.540000e-06	-5.786676e-07	1.173588e-08	-4.180666e+00	7.642681e+02
2.550000e-06	-6.789156e-07	1.113615e-08	-4.904922e+00	7.245752e+02
2.560000e-06	-7.789709e-07	1.049025e-08	-5.627785e+00	6.823466e+02
2.570000e-06	-8.787361e-07	9.792529e-09	-6.348553e+00	6.371543e+02
2.580000e-06	-9.781331e-07	9.031589e-09	-7.066661e+00	5.882002e+02
2.590000e-06	-1.077163e-06	8.193951e-09	-7.782119e+00	5.343115e+02
2.600000e-06	-1.175880e-06	7.264696e-09	-8.495309e+00	4.740391e+02
2.610000e-06	-1.274203e-06	6.229698e-09	-9.205663e+00	4.058565e+02
2.620000e-06	-1.372052e-06	5.069559e-09	-9.912586e+00	3.284307e+02
2.630000e-06	-1.469443e-06	3.763946e-09	-1.061620e+01	2.409207e+02
2.640000e-06	-1.566333e-06	2.303094e-09	-1.131620e+01	1.432391e+02
2.650000e-06	-1.662772e-06	6.881904e-10	-1.201293e+01	3.622291e+01
2.660000e-06	-1.758780e-06	-1.062348e-09	-1.270655e+01	-7.833251e+01
2.670000e-06	-1.854209e-06	-2.908293e-09	-1.339599e+01	-1.977929e+02
2.680000e-06	-1.948795e-06	-4.788584e-09	-1.407934e+01	-3.189451e+02
2.690000e-06	-2.042403e-06	-6.635521e-09	-1.475563e+01	-4.383553e+02
2.700000e-06	-2.135176e-06	-8.390869e-09	-1.542588e+01	-5.527635e+02
2.710000e-06	-2.227169e-06	-1.001466e-08	-1.609050e+01	-6.594447e+02
2.720000e-06	-2.318321e-06	-1.148444e-08	-1.674904e+01	-7.564744e+02
2.730000e-06	-2.408652e-06	-1.279331e-08	-1.740164e+01	-8.428572e+02
2.740000e-06	-2.498125e-06	-1.394740e-08	-1.804806e+01	-9.185054e+02
2.750000e-06	-2.586771e-06	-1.495969e-08	-1.868849e+01	-9.840861e+02
2.760000e-06	-2.674648e-06	-1.584569e-08	-1.932337e+01	-1.040777e+03
2.770000e-06	-2.761604e-06	-1.662125e-08	-1.995160e+01	-1.089989e+03
2.780000e-06	-2.847430e-06	-1.730155e-08	-2.057166e+01	-1.133110e+03
2.790000e-06	-2.932109e-06	-1.789974e-08	-2.118343e+01	-1.171317e+03
2.800000e-06	-3.015762e-06	-1.842658e-08	-2.178780e+01	-1.205482e+03
2.810000e-06	-3.098492e-06	-1.888899e-08	-2.238550e+01	-1.236168e+03
2.820000e-06	-3.180260e-06	-1.929721e-08	-2.297624e+01	-1.263701e+03
2.830000e-06	-3.260987e-06	-1.966265e-08	-2.355946e+01	-1.288281e+03
2.840000e-06	-3.340568e-06	-1.999118e-08	-2.413441e+01	-1.310089e+03
2.850000e-06	-3.418774e-06	-2.028829e-08	-2.469941e+01	-1.329369e+03
2.860000e-06	-3.495520e-06	-2.055836e-08	-2.525388e+01	-1.346458e+03
2.870000e-06	-3.570867e-06	-2.080484e-08	-2.579823e+01	-1.361768e+03
2.880000e-06	-3.644877e-06	-2.103058e-08	-2.633293e+01	-1.375730e+03
2.890000e-06	-3.717596e-06	-2.124031e-08	-2.685830e+01	-1.388724e+03
2.900000e-06	-3.789038e-06	-2.143375e-08	-2.737444e+01	-1.401018e+03
2.910000e-06	-3.859074e-06	-2.161084e-08	-2.788043e+01	-1.412741e+03
2.920000e-06	-3.927601e-06	-2.177264e-08	-2.837551e+01	-1.423888e+03
2.930000e-06	-3.994706e-06	-2.192118e-08	-2.886032e+01	-1.434364e+03
2.940000e-06	-4.060425e-06	-2.206199e-08	-2.933511e+01	-1.444040e+03
