# Temperatura_=_27.92
# Concentracion g/m^3_=_41000.0
# C_Vs_to_Am_M_A/Vsm_=_65563218390.804596
# pendiente_HvsI_1/m_=_3716.3
# ordenada_HvsI_A/m_=_1297.0
# frecuencia_Hz_=_301642.8822123871

Tiempo_(s)	Campo_(V.s)	Magnetizacion_(V.s)	Campo_(kA/m)	Magnetizacion_(A/m)
0.000000e+00	-5.321598e-06	-2.326658e-08	-3.833251e+01	-1.519958e+03
1.000000e-08	-5.319377e-06	-2.326145e-08	-3.831651e+01	-1.519596e+03
2.000000e-08	-5.315375e-06	-2.325577e-08	-3.828768e+01	-1.519289e+03
3.000000e-08	-5.309781e-06	-2.324904e-08	-3.824739e+01	-1.519048e+03
4.000000e-08	-5.302548e-06	-2.324106e-08	-3.819529e+01	-1.518824e+03
5.000000e-08	-5.293636e-06	-2.323096e-08	-3.813109e+01	-1.518525e+03
6.000000e-08	-5.282739e-06	-2.321652e-08	-3.805259e+01	-1.518042e+03
7.000000e-08	-5.269851e-06	-2.319524e-08	-3.795976e+01	-1.517286e+03
8.000000e-08	-5.254989e-06	-2.318111e-08	-3.785271e+01	-1.516216e+03
9.000000e-08	-5.237825e-06	-2.317495e-08	-3.772907e+01	-1.514858e+03
1.000000e-07	-5.218474e-06	-2.315361e-08	-3.758968e+01	-1.513303e+03
1.100000e-07	-5.197277e-06	-2.313279e-08	-3.743700e+01	-1.511677e+03
1.200000e-07	-5.174430e-06	-2.310568e-08	-3.727243e+01	-1.510115e+03
1.300000e-07	-5.150211e-06	-2.305270e-08	-3.709797e+01	-1.508717e+03
1.400000e-07	-5.124518e-06	-2.304623e-08	-3.691290e+01	-1.507522e+03
1.500000e-07	-5.097044e-06	-2.302335e-08	-3.671500e+01	-1.506492e+03
1.600000e-07	-5.067989e-06	-2.297971e-08	-3.650571e+01	-1.505524e+03
1.700000e-07	-5.037486e-06	-2.300695e-08	-3.628599e+01	-1.504477e+03
1.800000e-07	-5.005084e-06	-2.297954e-08	-3.605259e+01	-1.503207e+03
1.900000e-07	-4.970598e-06	-2.292703e-08	-3.580419e+01	-1.501607e+03
2.000000e-07	-4.934552e-06	-2.291873e-08	-3.554454e+01	-1.499632e+03
2.100000e-07	-4.896933e-06	-2.285536e-08	-3.527356e+01	-1.497309e+03
2.200000e-07	-4.857539e-06	-2.280036e-08	-3.498980e+01	-1.494721e+03
2.300000e-07	-4.816294e-06	-2.275793e-08	-3.469271e+01	-1.491979e+03
2.400000e-07	-4.772968e-06	-2.269399e-08	-3.438061e+01	-1.489189e+03
2.500000e-07	-4.727856e-06	-2.269697e-08	-3.405567e+01	-1.486416e+03
2.600000e-07	-4.681095e-06	-2.267455e-08	-3.371884e+01	-1.483664e+03
2.700000e-07	-4.632450e-06	-2.258584e-08	-3.336844e+01	-1.480881e+03
2.800000e-07	-4.581687e-06	-2.251166e-08	-3.300278e+01	-1.477969e+03
2.900000e-07	-4.528883e-06	-2.246869e-08	-3.262243e+01	-1.474824e+03
3.000000e-07	-4.474445e-06	-2.243779e-08	-3.223030e+01	-1.471360e+03
3.100000e-07	-4.418480e-06	-2.237847e-08	-3.182717e+01	-1.467543e+03
3.200000e-07	-4.360700e-06	-2.230755e-08	-3.141097e+01	-1.463398e+03
3.300000e-07	-4.301219e-06	-2.225153e-08	-3.098252e+01	-1.459000e+03
3.400000e-07	-4.240324e-06	-2.217918e-08	-3.054388e+01	-1.454455e+03
3.500000e-07	-4.178012e-06	-2.209353e-08	-3.009503e+01	-1.449860e+03
3.600000e-07	-4.114304e-06	-2.202779e-08	-2.963614e+01	-1.445281e+03
3.700000e-07	-4.049126e-06	-2.197495e-08	-2.916664e+01	-1.440725e+03
3.800000e-07	-3.982312e-06	-2.189722e-08	-2.868537e+01	-1.436146e+03
3.900000e-07	-3.913920e-06	-2.180631e-08	-2.819272e+01	-1.431453e+03
4.000000e-07	-3.844218e-06	-2.173217e-08	-2.769065e+01	-1.426542e+03
4.100000e-07	-3.773354e-06	-2.164899e-08	-2.718020e+01	-1.421327e+03
4.200000e-07	-3.701355e-06	-2.156069e-08	-2.666158e+01	-1.415767e+03
4.300000e-07	-3.627907e-06	-2.147156e-08	-2.613252e+01	-1.409874e+03
4.400000e-07	-3.552723e-06	-2.138152e-08	-2.559095e+01	-1.403710e+03
4.500000e-07	-3.476067e-06	-2.129177e-08	-2.503879e+01	-1.397366e+03
4.600000e-07	-3.398201e-06	-2.119660e-08	-2.447790e+01	-1.390926e+03
4.700000e-07	-3.319039e-06	-2.109558e-08	-2.390768e+01	-1.384440e+03
4.800000e-07	-3.238474e-06	-2.098367e-08	-2.332736e+01	-1.377909e+03
4.900000e-07	-3.156660e-06	-2.087321e-08	-2.273804e+01	-1.371275e+03
5.000000e-07	-3.073782e-06	-2.076531e-08	-2.214105e+01	-1.364441e+03
5.100000e-07	-2.989990e-06	-2.065395e-08	-2.153748e+01	-1.357303e+03
5.200000e-07	-2.905382e-06	-2.053701e-08	-2.092803e+01	-1.349773e+03
5.300000e-07	-2.819869e-06	-2.041489e-08	-2.031207e+01	-1.341814e+03
5.400000e-07	-2.733417e-06	-2.028752e-08	-1.968933e+01	-1.333445e+03
5.500000e-07	-2.646056e-06	-2.015793e-08	-1.906005e+01	-1.324734e+03
5.600000e-07	-2.557781e-06	-2.002842e-08	-1.842419e+01	-1.315775e+03
5.700000e-07	-2.468402e-06	-1.989381e-08	-1.778038e+01	-1.306650e+03
5.800000e-07	-2.377825e-06	-1.974918e-08	-1.712794e+01	-1.297403e+03
5.900000e-07	-2.286342e-06	-1.959661e-08	-1.646896e+01	-1.288013e+03
6.000000e-07	-2.194162e-06	-1.944044e-08	-1.580498e+01	-1.278399e+03
6.100000e-07	-2.101228e-06	-1.927989e-08	-1.513555e+01	-1.268438e+03
6.200000e-07	-2.007484e-06	-1.911576e-08	-1.446030e+01	-1.257999e+03
6.300000e-07	-1.912987e-06	-1.894751e-08	-1.377962e+01	-1.246979e+03
6.400000e-07	-1.817862e-06	-1.877206e-08	-1.309441e+01	-1.235336e+03
6.500000e-07	-1.722193e-06	-1.858715e-08	-1.240529e+01	-1.223098e+03
6.600000e-07	-1.625988e-06	-1.839678e-08	-1.171231e+01	-1.210353e+03
6.700000e-07	-1.529134e-06	-1.820280e-08	-1.101465e+01	-1.197217e+03
6.800000e-07	-1.431491e-06	-1.800046e-08	-1.031131e+01	-1.183790e+03
6.900000e-07	-1.333144e-06	-1.779096e-08	-9.602895e+00	-1.170116e+03
7.000000e-07	-1.234292e-06	-1.757515e-08	-8.890849e+00	-1.156160e+03
7.100000e-07	-1.135047e-06	-1.735024e-08	-8.175962e+00	-1.141800e+03
7.200000e-07	-1.035491e-06	-1.711388e-08	-7.458844e+00	-1.126861e+03
7.300000e-07	-9.356893e-07	-1.686734e-08	-6.739952e+00	-1.111152e+03
7.400000e-07	-8.356609e-07	-1.661311e-08	-6.019428e+00	-1.094517e+03
7.500000e-07	-7.353801e-07	-1.635207e-08	-5.297086e+00	-1.076878e+03
7.600000e-07	-6.348568e-07	-1.607858e-08	-4.572997e+00	-1.058245e+03
7.700000e-07	-5.340989e-07	-1.578901e-08	-3.847218e+00	-1.038703e+03
7.800000e-07	-4.331735e-07	-1.548271e-08	-3.120233e+00	-1.018369e+03
7.900000e-07	-3.321798e-07	-1.515791e-08	-2.392756e+00	-9.973298e+02
8.000000e-07	-2.310655e-07	-1.481903e-08	-1.664410e+00	-9.755850e+02
8.100000e-07	-1.298202e-07	-1.446797e-08	-9.351201e-01	-9.530096e+02
8.200000e-07	-2.848311e-08	-1.409952e-08	-2.051694e-01	-9.293523e+02
8.300000e-07	7.288692e-08	-1.370957e-08	5.250186e-01	-9.042719e+02
8.400000e-07	1.742158e-07	-1.329691e-08	1.254911e+00	-8.774034e+02
8.500000e-07	2.754804e-07	-1.285703e-08	1.984339e+00	-8.484338e+02
8.600000e-07	3.766702e-07	-1.238520e-08	2.713229e+00	-8.171608e+02
8.700000e-07	4.777747e-07	-1.187999e-08	3.441504e+00	-7.835124e+02
8.800000e-07	5.787313e-07	-1.134003e-08	4.168714e+00	-7.475105e+02
8.900000e-07	6.795215e-07	-1.076338e-08	4.894726e+00	-7.091797e+02
9.000000e-07	7.801287e-07	-1.014302e-08	5.619419e+00	-6.684204e+02
9.100000e-07	8.804804e-07	-9.471336e-09	6.342271e+00	-6.248776e+02
9.200000e-07	9.805544e-07	-8.738757e-09	7.063124e+00	-5.778456e+02
9.300000e-07	1.080378e-06	-7.932004e-09	7.782171e+00	-5.262472e+02
9.400000e-07	1.179918e-06	-7.039385e-09	8.499182e+00	-4.687100e+02
9.500000e-07	1.278998e-06	-6.044946e-09	9.212870e+00	-4.037431e+02
9.600000e-07	1.377504e-06	-4.928692e-09	9.922429e+00	-3.299923e+02
9.700000e-07	1.475324e-06	-3.670694e-09	1.062705e+01	-2.465306e+02
9.800000e-07	1.572389e-06	-2.260979e-09	1.132622e+01	-1.531250e+02
9.900000e-07	1.668767e-06	-7.009031e-10	1.202046e+01	-5.042311e+01
1.000000e-06	1.764499e-06	9.929789e-10	1.271003e+01	5.998781e+01
1.010000e-06	1.859597e-06	2.782797e-09	1.339504e+01	1.756706e+02
1.020000e-06	1.954084e-06	4.608695e-09	1.407565e+01	2.935704e+02
1.030000e-06	2.047908e-06	6.403692e-09	1.475148e+01	4.103521e+02
1.040000e-06	2.141030e-06	8.110955e-09	1.542226e+01	5.227847e+02
1.050000e-06	2.233522e-06	9.691309e-09	1.608850e+01	6.281043e+02
1.060000e-06	2.325380e-06	1.112184e-08	1.675017e+01	7.242929e+02
1.070000e-06	2.416390e-06	1.239639e-08	1.740573e+01	8.102284e+02
1.080000e-06	2.506334e-06	1.352374e-08	1.805361e+01	8.856877e+02
1.090000e-06	2.595147e-06	1.451517e-08	1.869335e+01	9.512151e+02
1.100000e-06	2.682987e-06	1.538483e-08	1.932608e+01	1.007895e+03
1.110000e-06	2.770001e-06	1.614642e-08	1.995286e+01	1.057082e+03
1.120000e-06	2.856151e-06	1.681162e-08	2.057341e+01	1.100143e+03
1.130000e-06	2.941373e-06	1.739502e-08	2.118728e+01	1.138261e+03
1.140000e-06	3.025671e-06	1.790855e-08	2.179450e+01	1.172329e+03
1.150000e-06	3.109089e-06	1.836098e-08	2.239537e+01	1.202937e+03
1.160000e-06	3.191429e-06	1.876155e-08	2.298848e+01	1.230426e+03
1.170000e-06	3.272516e-06	1.912189e-08	2.357257e+01	1.255000e+03
1.180000e-06	3.352373e-06	1.944559e-08	2.414780e+01	1.276833e+03
1.190000e-06	3.431054e-06	1.973710e-08	2.471455e+01	1.296151e+03
1.200000e-06	3.508531e-06	2.000195e-08	2.527263e+01	1.313273e+03
1.210000e-06	3.584783e-06	2.024150e-08	2.582189e+01	1.328594e+03
1.220000e-06	3.659626e-06	2.046108e-08	2.636100e+01	1.342538e+03
1.230000e-06	3.732861e-06	2.066325e-08	2.688853e+01	1.355488e+03
1.240000e-06	3.804635e-06	2.085152e-08	2.740553e+01	1.367720e+03
1.250000e-06	3.875036e-06	2.102704e-08	2.791263e+01	1.379377e+03
1.260000e-06	3.944099e-06	2.118871e-08	2.841011e+01	1.390467e+03
1.270000e-06	4.011905e-06	2.133746e-08	2.889853e+01	1.400899e+03
1.280000e-06	4.078235e-06	2.147708e-08	2.937632e+01	1.410548e+03
1.290000e-06	4.142837e-06	2.160888e-08	2.984166e+01	1.419315e+03
1.300000e-06	4.205895e-06	2.172996e-08	3.029588e+01	1.427175e+03
1.310000e-06	4.267602e-06	2.183875e-08	3.074037e+01	1.434200e+03
1.320000e-06	4.328006e-06	2.193727e-08	3.117547e+01	1.440545e+03
1.330000e-06	4.386985e-06	2.202947e-08	3.160031e+01	1.446411e+03
1.340000e-06	4.444234e-06	2.211751e-08	3.201268e+01	1.451997e+03
1.350000e-06	4.499755e-06	2.220198e-08	3.241261e+01	1.457447e+03
1.360000e-06	4.553689e-06	2.228253e-08	3.280111e+01	1.462826e+03
1.370000e-06	4.605883e-06	2.235761e-08	3.317707e+01	1.468110e+03
1.380000e-06	4.656084e-06	2.242773e-08	3.353868e+01	1.473212e+03
1.390000e-06	4.704376e-06	2.249441e-08	3.388653e+01	1.478017e+03
1.400000e-06	4.750975e-06	2.255842e-08	3.422220e+01	1.482427e+03
1.410000e-06	4.795989e-06	2.261933e-08	3.454644e+01	1.486395e+03
1.420000e-06	4.839417e-06	2.267632e-08	3.485926e+01	1.489942e+03
1.430000e-06	4.881016e-06	2.272961e-08	3.515891e+01	1.493149e+03
1.440000e-06	4.920821e-06	2.277887e-08	3.544563e+01	1.496130e+03
1.450000e-06	4.959012e-06	2.282454e-08	3.572073e+01	1.498999e+03
1.460000e-06	4.995581e-06	2.286783e-08	3.598414e+01	1.501830e+03
1.470000e-06	5.030408e-06	2.290888e-08	3.623500e+01	1.504640e+03
1.480000e-06	5.063344e-06	2.294693e-08	3.647226e+01	1.507386e+03
1.490000e-06	5.094495e-06	2.297922e-08	3.669664e+01	1.509978e+03
1.500000e-06	5.123986e-06	2.300738e-08	3.690907e+01	1.512318e+03
1.510000e-06	5.151785e-06	2.303296e-08	3.710931e+01	1.514328e+03
1.520000e-06	5.177664e-06	2.305600e-08	3.729572e+01	1.515979e+03
1.530000e-06	5.201506e-06	2.307805e-08	3.746746e+01	1.517301e+03
1.540000e-06	5.223493e-06	2.309814e-08	3.762583e+01	1.518376e+03
1.550000e-06	5.243773e-06	2.311663e-08	3.777191e+01	1.519315e+03
1.560000e-06	5.262259e-06	2.313338e-08	3.790507e+01	1.520220e+03
1.570000e-06	5.278765e-06	2.314719e-08	3.802397e+01	1.521157e+03
1.580000e-06	5.293288e-06	2.315889e-08	3.812858e+01	1.522136e+03
1.590000e-06	5.305855e-06	2.317047e-08	3.821911e+01	1.523111e+03
1.600000e-06	5.316257e-06	2.318132e-08	3.829403e+01	1.523997e+03
1.610000e-06	5.324513e-06	2.318905e-08	3.835351e+01	1.524698e+03
1.620000e-06	5.330921e-06	2.319357e-08	3.839966e+01	1.525139e+03
1.630000e-06	5.335627e-06	2.319630e-08	3.843356e+01	1.525294e+03
1.640000e-06	5.338487e-06	2.319887e-08	3.845416e+01	1.525192e+03
1.650000e-06	5.339298e-06	2.320131e-08	3.846000e+01	1.524908e+03
1.660000e-06	5.338219e-06	2.320232e-08	3.845223e+01	1.524545e+03
1.670000e-06	5.335473e-06	2.320288e-08	3.843245e+01	1.524191e+03
1.680000e-06	5.331132e-06	2.319995e-08	3.840118e+01	1.523901e+03
1.690000e-06	5.325015e-06	2.319362e-08	3.835712e+01	1.523670e+03
1.700000e-06	5.317059e-06	2.318651e-08	3.829981e+01	1.523436e+03
1.710000e-06	5.307483e-06	2.318042e-08	3.823084e+01	1.523100e+03
1.720000e-06	5.296289e-06	2.317795e-08	3.815020e+01	1.522554e+03
1.730000e-06	5.283190e-06	2.316930e-08	3.805584e+01	1.521719e+03
1.740000e-06	5.267998e-06	2.314423e-08	3.794642e+01	1.520571e+03
1.750000e-06	5.250624e-06	2.312334e-08	3.782127e+01	1.519153e+03
1.760000e-06	5.230735e-06	2.309858e-08	3.767800e+01	1.517565e+03
1.770000e-06	5.208360e-06	2.308813e-08	3.751683e+01	1.515943e+03
1.780000e-06	5.184383e-06	2.308791e-08	3.734412e+01	1.514413e+03
1.790000e-06	5.159675e-06	2.304348e-08	3.716614e+01	1.513064e+03
1.800000e-06	5.133837e-06	2.304790e-08	3.698003e+01	1.511915e+03
1.810000e-06	5.106020e-06	2.303408e-08	3.677966e+01	1.510912e+03
1.820000e-06	5.076255e-06	2.293811e-08	3.656525e+01	1.509937e+03
1.830000e-06	5.044695e-06	2.294597e-08	3.633792e+01	1.508846e+03
1.840000e-06	5.011257e-06	2.297273e-08	3.609706e+01	1.507500e+03
1.850000e-06	4.976208e-06	2.292899e-08	3.584459e+01	1.505806e+03
1.860000e-06	4.939414e-06	2.291237e-08	3.557956e+01	1.503739e+03
1.870000e-06	4.900610e-06	2.286056e-08	3.530005e+01	1.501338e+03
1.880000e-06	4.860206e-06	2.284782e-08	3.500901e+01	1.498700e+03
1.890000e-06	4.818150e-06	2.284017e-08	3.470607e+01	1.495936e+03
1.900000e-06	4.774355e-06	2.271784e-08	3.439061e+01	1.493145e+03
1.910000e-06	4.728813e-06	2.268160e-08	3.406256e+01	1.490378e+03
1.920000e-06	4.681357e-06	2.270423e-08	3.372072e+01	1.487625e+03
1.930000e-06	4.632259e-06	2.266977e-08	3.336706e+01	1.484818e+03
1.940000e-06	4.581430e-06	2.260325e-08	3.300093e+01	1.481857e+03
1.950000e-06	4.528608e-06	2.251602e-08	3.262044e+01	1.478636e+03
1.960000e-06	4.473868e-06	2.249348e-08	3.222614e+01	1.475084e+03
1.970000e-06	4.417343e-06	2.243891e-08	3.181898e+01	1.471179e+03
1.980000e-06	4.359292e-06	2.233821e-08	3.140083e+01	1.466961e+03
1.990000e-06	4.299890e-06	2.231009e-08	3.097294e+01	1.462516e+03
2.000000e-06	4.239045e-06	2.226103e-08	3.053466e+01	1.457948e+03
2.010000e-06	4.176473e-06	2.217489e-08	3.008394e+01	1.453352e+03
2.020000e-06	4.112207e-06	2.208265e-08	2.962103e+01	1.448779e+03
2.030000e-06	4.046556e-06	2.201876e-08	2.914813e+01	1.444223e+03
2.040000e-06	3.979576e-06	2.197099e-08	2.866566e+01	1.439624e+03
2.050000e-06	3.911265e-06	2.188154e-08	2.817360e+01	1.434885e+03
2.060000e-06	3.841392e-06	2.180639e-08	2.767029e+01	1.429903e+03
2.070000e-06	3.769970e-06	2.173135e-08	2.715583e+01	1.424603e+03
2.080000e-06	3.697318e-06	2.164855e-08	2.663250e+01	1.418954e+03
2.090000e-06	3.623386e-06	2.155754e-08	2.609995e+01	1.412985e+03
2.100000e-06	3.548082e-06	2.145198e-08	2.555752e+01	1.406767e+03
2.110000e-06	3.471275e-06	2.136361e-08	2.500427e+01	1.400390e+03
2.120000e-06	3.392900e-06	2.127559e-08	2.443972e+01	1.393935e+03
2.130000e-06	3.313235e-06	2.118754e-08	2.386588e+01	1.387439e+03
2.140000e-06	3.232487e-06	2.108495e-08	2.328424e+01	1.380888e+03
2.150000e-06	3.150693e-06	2.097669e-08	2.269506e+01	1.374213e+03
2.160000e-06	3.067824e-06	2.087295e-08	2.209813e+01	1.367312e+03
2.170000e-06	2.984036e-06	2.075920e-08	2.149459e+01	1.360081e+03
2.180000e-06	2.899227e-06	2.064136e-08	2.088370e+01	1.352444e+03
2.190000e-06	2.813056e-06	2.052116e-08	2.026299e+01	1.344378e+03
2.200000e-06	2.725669e-06	2.040087e-08	1.963353e+01	1.335914e+03
2.210000e-06	2.637333e-06	2.026751e-08	1.899722e+01	1.327131e+03
2.220000e-06	2.548123e-06	2.013054e-08	1.835462e+01	1.318122e+03
2.230000e-06	2.458047e-06	1.999907e-08	1.770579e+01	1.308964e+03
2.240000e-06	2.367188e-06	1.986523e-08	1.705131e+01	1.299684e+03
2.250000e-06	2.275657e-06	1.972363e-08	1.639200e+01	1.290247e+03
2.260000e-06	2.183517e-06	1.957222e-08	1.572830e+01	1.280558e+03
2.270000e-06	2.090499e-06	1.941292e-08	1.505827e+01	1.270488e+03
2.280000e-06	1.996370e-06	1.924421e-08	1.438024e+01	1.259910e+03
2.290000e-06	1.901354e-06	1.907128e-08	1.369582e+01	1.248735e+03
2.300000e-06	1.805675e-06	1.889761e-08	1.300663e+01	1.236936e+03
2.310000e-06	1.709458e-06	1.872076e-08	1.231356e+01	1.224560e+03
2.320000e-06	1.612732e-06	1.853628e-08	1.161683e+01	1.211705e+03
2.330000e-06	1.515501e-06	1.834259e-08	1.091645e+01	1.198488e+03
2.340000e-06	1.417748e-06	1.813651e-08	1.021232e+01	1.184997e+03
2.350000e-06	1.319508e-06	1.791782e-08	9.504674e+00	1.171258e+03
2.360000e-06	1.220910e-06	1.769483e-08	8.794452e+00	1.157213e+03
2.370000e-06	1.121986e-06	1.746935e-08	8.081881e+00	1.142726e+03
2.380000e-06	1.022756e-06	1.723544e-08	7.367114e+00	1.127610e+03
2.390000e-06	9.233096e-07	1.698947e-08	6.650778e+00	1.111681e+03
2.400000e-06	8.236406e-07	1.673067e-08	5.932843e+00	1.094798e+03
2.410000e-06	7.237221e-07	1.646093e-08	5.213111e+00	1.076904e+03
2.420000e-06	6.235436e-07	1.617973e-08	4.491506e+00	1.058033e+03
2.430000e-06	5.231554e-07	1.588864e-08	3.768390e+00	1.038281e+03
2.440000e-06	4.225989e-07	1.558787e-08	3.044062e+00	1.017764e+03
2.450000e-06	3.218611e-07	1.527009e-08	2.318428e+00	9.965519e+02
2.460000e-06	2.209568e-07	1.492994e-08	1.591595e+00	9.746152e+02
2.470000e-06	1.198872e-07	1.456955e-08	8.635708e-01	9.517962e+02
2.480000e-06	1.870184e-08	1.419081e-08	1.347130e-01	9.278161e+02
2.490000e-06	-8.254736e-08	1.379176e-08	-5.946047e-01	9.023210e+02
2.500000e-06	-1.837525e-07	1.337089e-08	-1.323605e+00	8.749519e+02
2.510000e-06	-2.848709e-07	1.292775e-08	-2.051980e+00	8.454191e+02
2.520000e-06	-3.859123e-07	1.245706e-08	-2.779801e+00	8.135531e+02
2.530000e-06	-4.867952e-07	1.194999e-08	-3.506481e+00	7.793112e+02
2.540000e-06	-5.874350e-07	1.140274e-08	-4.231409e+00	7.427261e+02
2.550000e-06	-6.878170e-07	1.081248e-08	-4.954480e+00	7.038042e+02
2.560000e-06	-7.879736e-07	1.017598e-08	-5.675927e+00	6.623937e+02
2.570000e-06	-8.878180e-07	9.490016e-09	-6.395126e+00	6.180585e+02
2.580000e-06	-9.873214e-07	8.744305e-09	-7.111868e+00	5.699984e+02
2.590000e-06	-1.086587e-06	7.921536e-09	-7.826899e+00	5.170512e+02
2.600000e-06	-1.185625e-06	7.008119e-09	-8.540286e+00	4.577946e+02
2.610000e-06	-1.284259e-06	5.991419e-09	-9.250768e+00	3.907459e+02
2.620000e-06	-1.382356e-06	4.852837e-09	-9.957376e+00	3.146302e+02
2.630000e-06	-1.479895e-06	3.572254e-09	-1.065997e+01	2.286712e+02
2.640000e-06	-1.576897e-06	2.141429e-09	-1.135869e+01	1.328428e+02
2.650000e-06	-1.673439e-06	5.606389e-10	-1.205410e+01	2.802780e+01
2.660000e-06	-1.769496e-06	-1.155290e-09	-1.274602e+01	-8.395979e+01
2.670000e-06	-1.865014e-06	-2.961353e-09	-1.343406e+01	-2.005017e+02
2.680000e-06	-1.959850e-06	-4.793874e-09	-1.411718e+01	-3.184384e+02
2.690000e-06	-2.053816e-06	-6.586180e-09	-1.479404e+01	-4.344244e+02
2.700000e-06	-2.146841e-06	-8.283368e-09	-1.546412e+01	-5.453137e+02
2.710000e-06	-2.238917e-06	-9.851035e-09	-1.612736e+01	-6.485073e+02
2.720000e-06	-2.330175e-06	-1.126873e-08	-1.678470e+01	-7.422028e+02
2.730000e-06	-2.420707e-06	-1.253305e-08	-1.743682e+01	-8.255082e+02
2.740000e-06	-2.510400e-06	-1.364877e-08	-1.808290e+01	-8.984091e+02
2.750000e-06	-2.599212e-06	-1.462593e-08	-1.872263e+01	-9.616089e+02
2.760000e-06	-2.687249e-06	-1.548134e-08	-1.935678e+01	-1.016285e+03
2.770000e-06	-2.774441e-06	-1.623042e-08	-1.998484e+01	-1.063818e+03
2.780000e-06	-2.860596e-06	-1.688792e-08	-2.060543e+01	-1.105543e+03
2.790000e-06	-2.945625e-06	-1.746686e-08	-2.121791e+01	-1.142579e+03
2.800000e-06	-3.029538e-06	-1.797757e-08	-2.182235e+01	-1.175739e+03
2.810000e-06	-3.112469e-06	-1.842638e-08	-2.241972e+01	-1.205543e+03
2.820000e-06	-3.194400e-06	-1.882290e-08	-2.300989e+01	-1.232289e+03
2.830000e-06	-3.275276e-06	-1.917673e-08	-2.359245e+01	-1.256162e+03
2.840000e-06	-3.355062e-06	-1.949614e-08	-2.416717e+01	-1.277342e+03
2.850000e-06	-3.433586e-06	-1.978685e-08	-2.473279e+01	-1.296079e+03
2.860000e-06	-3.510660e-06	-2.005165e-08	-2.528797e+01	-1.312712e+03
2.870000e-06	-3.586255e-06	-2.029262e-08	-2.583249e+01	-1.327651e+03
2.880000e-06	-3.660422e-06	-2.051303e-08	-2.636674e+01	-1.341315e+03
2.890000e-06	-3.733237e-06	-2.071462e-08	-2.689124e+01	-1.354066e+03
2.900000e-06	-3.804810e-06	-2.089893e-08	-2.740679e+01	-1.366148e+03
2.910000e-06	-3.874942e-06	-2.107075e-08	-2.791196e+01	-1.377668e+03
2.920000e-06	-3.943490e-06	-2.123082e-08	-2.840572e+01	-1.388605e+03
2.930000e-06	-4.010612e-06	-2.137985e-08	-2.888922e+01	-1.398855e+03
2.940000e-06	-4.076409e-06	-2.151947e-08	-2.936317e+01	-1.408291e+03
