# Temperatura_=_58.14
# Concentracion g/m^3_=_41000.0
# C_Vs_to_Am_M_A/Vsm_=_65563218390.804596
# pendiente_HvsI_1/m_=_3716.3
# ordenada_HvsI_A/m_=_1297.0
# frecuencia_Hz_=_301636.0156280813

Tiempo_(s)	Campo_(V.s)	Magnetizacion_(V.s)	Campo_(kA/m)	Magnetizacion_(A/m)
0.000000e+00	-5.326923e-06	-2.347313e-08	-3.834178e+01	-1.535133e+03
1.000000e-08	-5.325140e-06	-2.347239e-08	-3.832895e+01	-1.534899e+03
2.000000e-08	-5.321479e-06	-2.346644e-08	-3.830260e+01	-1.534772e+03
3.000000e-08	-5.316170e-06	-2.345877e-08	-3.826439e+01	-1.534695e+03
4.000000e-08	-5.309256e-06	-2.345144e-08	-3.821462e+01	-1.534558e+03
5.000000e-08	-5.300691e-06	-2.344013e-08	-3.815298e+01	-1.534235e+03
6.000000e-08	-5.290131e-06	-2.342561e-08	-3.807696e+01	-1.533619e+03
7.000000e-08	-5.277557e-06	-2.340850e-08	-3.798646e+01	-1.532655e+03
8.000000e-08	-5.263048e-06	-2.338783e-08	-3.788203e+01	-1.531363e+03
9.000000e-08	-5.246261e-06	-2.341023e-08	-3.776120e+01	-1.529829e+03
1.000000e-07	-5.227303e-06	-2.341444e-08	-3.762475e+01	-1.528183e+03
1.100000e-07	-5.206466e-06	-2.335679e-08	-3.747477e+01	-1.526562e+03
1.200000e-07	-5.183891e-06	-2.332463e-08	-3.731228e+01	-1.525074e+03
1.300000e-07	-5.159925e-06	-2.325803e-08	-3.713977e+01	-1.523762e+03
1.400000e-07	-5.134493e-06	-2.318990e-08	-3.695672e+01	-1.522600e+03
1.500000e-07	-5.107285e-06	-2.328393e-08	-3.676089e+01	-1.521498e+03
1.600000e-07	-5.078467e-06	-2.322522e-08	-3.655346e+01	-1.520328e+03
1.700000e-07	-5.048248e-06	-2.315763e-08	-3.633595e+01	-1.518964e+03
1.800000e-07	-5.016261e-06	-2.324711e-08	-3.610572e+01	-1.517312e+03
1.900000e-07	-4.982133e-06	-2.310369e-08	-3.586008e+01	-1.515336e+03
2.000000e-07	-4.946339e-06	-2.302151e-08	-3.560244e+01	-1.513063e+03
2.100000e-07	-4.909055e-06	-2.308013e-08	-3.533408e+01	-1.510565e+03
2.200000e-07	-4.870013e-06	-2.298114e-08	-3.505307e+01	-1.507934e+03
2.300000e-07	-4.829132e-06	-2.294401e-08	-3.475882e+01	-1.505253e+03
2.400000e-07	-4.786246e-06	-2.293333e-08	-3.445014e+01	-1.502561e+03
2.500000e-07	-4.741564e-06	-2.283610e-08	-3.412852e+01	-1.499850e+03
2.600000e-07	-4.695171e-06	-2.282401e-08	-3.379460e+01	-1.497064e+03
2.700000e-07	-4.646870e-06	-2.278039e-08	-3.344694e+01	-1.494120e+03
2.800000e-07	-4.596452e-06	-2.273589e-08	-3.308405e+01	-1.490936e+03
2.900000e-07	-4.543972e-06	-2.267908e-08	-3.270631e+01	-1.487461e+03
3.000000e-07	-4.489811e-06	-2.258117e-08	-3.231647e+01	-1.483689e+03
3.100000e-07	-4.434120e-06	-2.252394e-08	-3.191562e+01	-1.479664e+03
3.200000e-07	-4.376620e-06	-2.248329e-08	-3.150176e+01	-1.475464e+03
3.300000e-07	-4.317337e-06	-2.244018e-08	-3.107505e+01	-1.471176e+03
3.400000e-07	-4.256640e-06	-2.236111e-08	-3.063817e+01	-1.466866e+03
3.500000e-07	-4.194572e-06	-2.228795e-08	-3.019143e+01	-1.462557e+03
3.600000e-07	-4.131207e-06	-2.221754e-08	-2.973534e+01	-1.458221e+03
3.700000e-07	-4.066355e-06	-2.212741e-08	-2.926855e+01	-1.453786e+03
3.800000e-07	-3.999752e-06	-2.207357e-08	-2.878916e+01	-1.449158e+03
3.900000e-07	-3.931575e-06	-2.200915e-08	-2.829844e+01	-1.444251e+03
4.000000e-07	-3.862113e-06	-2.191339e-08	-2.779847e+01	-1.439015e+03
4.100000e-07	-3.791468e-06	-2.182728e-08	-2.728998e+01	-1.433452e+03
4.200000e-07	-3.719682e-06	-2.173680e-08	-2.677329e+01	-1.427616e+03
4.300000e-07	-3.646483e-06	-2.165420e-08	-2.624642e+01	-1.421592e+03
4.400000e-07	-3.571542e-06	-2.156856e-08	-2.570701e+01	-1.415473e+03
4.500000e-07	-3.495070e-06	-2.148512e-08	-2.515659e+01	-1.409323e+03
4.600000e-07	-3.417332e-06	-2.138329e-08	-2.459705e+01	-1.403155e+03
4.700000e-07	-3.338206e-06	-2.126773e-08	-2.402753e+01	-1.396926e+03
4.800000e-07	-3.257685e-06	-2.116676e-08	-2.344796e+01	-1.390542e+03
4.900000e-07	-3.175995e-06	-2.105989e-08	-2.285998e+01	-1.383888e+03
5.000000e-07	-3.093258e-06	-2.095466e-08	-2.226445e+01	-1.376862e+03
5.100000e-07	-3.009588e-06	-2.084195e-08	-2.166222e+01	-1.369405e+03
5.200000e-07	-2.925105e-06	-2.072829e-08	-2.105413e+01	-1.361521e+03
5.300000e-07	-2.839743e-06	-2.060715e-08	-2.043972e+01	-1.353270e+03
5.400000e-07	-2.753358e-06	-2.047586e-08	-1.981794e+01	-1.344753e+03
5.500000e-07	-2.666055e-06	-2.035013e-08	-1.918956e+01	-1.336074e+03
5.600000e-07	-2.577947e-06	-2.022086e-08	-1.855538e+01	-1.327300e+03
5.700000e-07	-2.488710e-06	-2.008065e-08	-1.791308e+01	-1.318437e+03
5.800000e-07	-2.398227e-06	-1.992879e-08	-1.726180e+01	-1.309421e+03
5.900000e-07	-2.306849e-06	-1.977710e-08	-1.660409e+01	-1.300126e+03
6.000000e-07	-2.214741e-06	-1.962154e-08	-1.594112e+01	-1.290403e+03
6.100000e-07	-2.121862e-06	-1.946139e-08	-1.527260e+01	-1.280116e+03
6.200000e-07	-2.028147e-06	-1.929902e-08	-1.459806e+01	-1.269187e+03
6.300000e-07	-1.933644e-06	-1.912909e-08	-1.391786e+01	-1.257614e+03
6.400000e-07	-1.838569e-06	-1.894992e-08	-1.323354e+01	-1.245473e+03
6.500000e-07	-1.743019e-06	-1.876351e-08	-1.254579e+01	-1.232886e+03
6.600000e-07	-1.646910e-06	-1.857053e-08	-1.185402e+01	-1.219982e+03
6.700000e-07	-1.550109e-06	-1.836870e-08	-1.115727e+01	-1.206845e+03
6.800000e-07	-1.452544e-06	-1.815913e-08	-1.045503e+01	-1.193477e+03
6.900000e-07	-1.354289e-06	-1.794094e-08	-9.747815e+00	-1.179786e+03
7.000000e-07	-1.255473e-06	-1.771680e-08	-9.036560e+00	-1.165599e+03
7.100000e-07	-1.156218e-06	-1.748545e-08	-8.322152e+00	-1.150706e+03
7.200000e-07	-1.056652e-06	-1.724479e-08	-7.605503e+00	-1.134913e+03
7.300000e-07	-9.568266e-07	-1.699233e-08	-6.886985e+00	-1.118098e+03
7.400000e-07	-8.567368e-07	-1.672575e-08	-6.166565e+00	-1.100235e+03
7.500000e-07	-7.563851e-07	-1.644936e-08	-5.444260e+00	-1.081397e+03
7.600000e-07	-6.557841e-07	-1.616059e-08	-4.720161e+00	-1.061715e+03
7.700000e-07	-5.550080e-07	-1.585523e-08	-3.994801e+00	-1.041319e+03
7.800000e-07	-4.541004e-07	-1.553113e-08	-3.268495e+00	-1.020264e+03
7.900000e-07	-3.530114e-07	-1.518922e-08	-2.540883e+00	-9.984754e+02
8.000000e-07	-2.517709e-07	-1.482744e-08	-1.812181e+00	-9.757272e+02
8.100000e-07	-1.504457e-07	-1.444510e-08	-1.082868e+00	-9.516659e+02
8.200000e-07	-4.907078e-08	-1.404360e-08	-3.531985e-01	-9.258731e+02
8.300000e-07	5.233802e-08	-1.361942e-08	3.767153e-01	-8.979523e+02
8.400000e-07	1.537681e-07	-1.316498e-08	1.106782e+00	-8.676116e+02
8.500000e-07	2.551464e-07	-1.267502e-08	1.836477e+00	-8.347110e+02
8.600000e-07	3.564106e-07	-1.214900e-08	2.565349e+00	-7.992527e+02
8.700000e-07	4.575655e-07	-1.158254e-08	3.293436e+00	-7.613054e+02
8.800000e-07	5.586489e-07	-1.097128e-08	4.021008e+00	-7.208720e+02
8.900000e-07	6.595811e-07	-1.030951e-08	4.747491e+00	-6.777341e+02
9.000000e-07	7.602694e-07	-9.587440e-09	5.472219e+00	-6.313138e+02
9.100000e-07	8.607651e-07	-8.792472e-09	6.195560e+00	-5.806014e+02
9.200000e-07	9.610365e-07	-7.912645e-09	6.917287e+00	-5.241846e+02
9.300000e-07	1.060997e-06	-6.932261e-09	7.636777e+00	-4.603967e+02
9.400000e-07	1.160604e-06	-5.829180e-09	8.353724e+00	-3.875716e+02
9.500000e-07	1.259774e-06	-4.579988e-09	9.067521e+00	-3.043672e+02
9.600000e-07	1.358435e-06	-3.166990e-09	9.777657e+00	-2.100969e+02
9.700000e-07	1.456516e-06	-1.582689e-09	1.048362e+01	-1.049994e+02
9.800000e-07	1.553921e-06	1.646077e-10	1.118471e+01	9.615318e+00
9.900000e-07	1.650588e-06	2.043337e-09	1.188050e+01	1.313850e+02
1.000000e-06	1.746525e-06	3.994176e-09	1.257103e+01	2.570888e+02
1.010000e-06	1.841852e-06	5.942259e-09	1.325717e+01	3.829888e+02
1.020000e-06	1.936607e-06	7.816616e-09	1.393918e+01	5.052633e+02
1.030000e-06	2.030675e-06	9.558626e-09	1.461627e+01	6.204536e+02
1.040000e-06	2.124025e-06	1.113382e-08	1.528817e+01	7.258477e+02
1.050000e-06	2.216715e-06	1.252748e-08	1.595533e+01	8.197336e+02
1.060000e-06	2.308773e-06	1.374145e-08	1.661794e+01	9.014846e+02
1.070000e-06	2.400012e-06	1.479173e-08	1.727465e+01	9.714740e+02
1.080000e-06	2.490285e-06	1.569740e-08	1.792441e+01	1.030850e+03
1.090000e-06	2.579597e-06	1.647751e-08	1.856726e+01	1.081225e+03
1.100000e-06	2.667826e-06	1.715018e-08	1.920231e+01	1.124348e+03
1.110000e-06	2.755025e-06	1.773174e-08	1.982994e+01	1.161826e+03
1.120000e-06	2.841342e-06	1.823777e-08	2.045123e+01	1.194937e+03
1.130000e-06	2.926726e-06	1.867925e-08	2.106580e+01	1.224554e+03
1.140000e-06	3.011218e-06	1.906747e-08	2.167396e+01	1.251183e+03
1.150000e-06	3.094827e-06	1.941213e-08	2.227575e+01	1.275066e+03
1.160000e-06	3.177378e-06	1.972272e-08	2.286993e+01	1.296327e+03
1.170000e-06	3.258732e-06	2.000298e-08	2.345549e+01	1.315099e+03
1.180000e-06	3.338882e-06	2.025506e-08	2.403239e+01	1.331608e+03
1.190000e-06	3.417866e-06	2.048508e-08	2.460090e+01	1.346197e+03
1.200000e-06	3.495610e-06	2.069483e-08	2.516048e+01	1.359291e+03
1.210000e-06	3.572160e-06	2.088579e-08	2.571146e+01	1.371326e+03
1.220000e-06	3.647446e-06	2.106169e-08	2.625335e+01	1.382666e+03
1.230000e-06	3.721164e-06	2.122834e-08	2.678396e+01	1.393538e+03
1.240000e-06	3.793287e-06	2.138443e-08	2.730308e+01	1.404013e+03
1.250000e-06	3.864006e-06	2.152840e-08	2.781209e+01	1.414022e+03
1.260000e-06	3.933409e-06	2.166101e-08	2.831164e+01	1.423413e+03
1.270000e-06	4.001515e-06	2.178437e-08	2.880185e+01	1.432026e+03
1.280000e-06	4.068205e-06	2.189902e-08	2.928187e+01	1.439763e+03
1.290000e-06	4.133291e-06	2.200755e-08	2.975034e+01	1.446630e+03
1.300000e-06	4.196812e-06	2.210896e-08	3.020754e+01	1.452747e+03
1.310000e-06	4.258912e-06	2.220184e-08	3.065452e+01	1.458320e+03
1.320000e-06	4.319653e-06	2.228850e-08	3.109172e+01	1.463582e+03
1.330000e-06	4.378978e-06	2.236925e-08	3.151873e+01	1.468738e+03
1.340000e-06	4.436669e-06	2.244570e-08	3.193397e+01	1.473907e+03
1.350000e-06	4.492578e-06	2.251871e-08	3.233639e+01	1.479105e+03
1.360000e-06	4.546811e-06	2.258934e-08	3.272674e+01	1.484250e+03
1.370000e-06	4.599394e-06	2.265679e-08	3.310522e+01	1.489198e+03
1.380000e-06	4.650041e-06	2.272057e-08	3.346977e+01	1.493796e+03
1.390000e-06	4.698663e-06	2.278201e-08	3.381974e+01	1.497936e+03
1.400000e-06	4.745548e-06	2.284078e-08	3.415720e+01	1.501585e+03
1.410000e-06	4.790874e-06	2.289678e-08	3.448345e+01	1.504799e+03
1.420000e-06	4.834666e-06	2.294870e-08	3.479865e+01	1.507703e+03
1.430000e-06	4.876675e-06	2.299478e-08	3.510102e+01	1.510449e+03
1.440000e-06	4.916789e-06	2.303632e-08	3.538975e+01	1.513169e+03
1.450000e-06	4.955260e-06	2.307601e-08	3.566666e+01	1.515939e+03
1.460000e-06	4.992176e-06	2.311497e-08	3.593237e+01	1.518755e+03
1.470000e-06	5.027489e-06	2.315124e-08	3.618654e+01	1.521539e+03
1.480000e-06	5.060910e-06	2.318421e-08	3.642709e+01	1.524166e+03
1.490000e-06	5.092434e-06	2.321472e-08	3.665400e+01	1.526509e+03
1.500000e-06	5.122304e-06	2.324376e-08	3.686899e+01	1.528477e+03
1.510000e-06	5.150490e-06	2.326886e-08	3.707187e+01	1.530050e+03
1.520000e-06	5.176764e-06	2.328991e-08	3.726098e+01	1.531281e+03
1.530000e-06	5.200956e-06	2.330991e-08	3.743510e+01	1.532280e+03
1.540000e-06	5.223255e-06	2.332811e-08	3.759561e+01	1.533188e+03
1.550000e-06	5.243860e-06	2.334523e-08	3.774392e+01	1.534125e+03
1.560000e-06	5.262740e-06	2.336151e-08	3.787982e+01	1.535160e+03
1.570000e-06	5.279649e-06	2.337593e-08	3.800152e+01	1.536292e+03
1.580000e-06	5.294569e-06	2.338791e-08	3.810891e+01	1.537449e+03
1.590000e-06	5.307538e-06	2.339768e-08	3.820226e+01	1.538515e+03
1.600000e-06	5.318376e-06	2.340649e-08	3.828027e+01	1.539368e+03
1.610000e-06	5.327060e-06	2.341465e-08	3.834277e+01	1.539917e+03
1.620000e-06	5.333786e-06	2.342220e-08	3.839118e+01	1.540132e+03
1.630000e-06	5.338773e-06	2.342878e-08	3.842708e+01	1.540053e+03
1.640000e-06	5.342057e-06	2.343297e-08	3.845071e+01	1.539775e+03
1.650000e-06	5.343347e-06	2.343554e-08	3.846000e+01	1.539424e+03
1.660000e-06	5.342649e-06	2.343501e-08	3.845498e+01	1.539111e+03
1.670000e-06	5.340262e-06	2.342994e-08	3.843780e+01	1.538901e+03
1.680000e-06	5.336317e-06	2.342738e-08	3.840940e+01	1.538790e+03
1.690000e-06	5.330612e-06	2.342239e-08	3.836833e+01	1.538710e+03
1.700000e-06	5.323018e-06	2.341466e-08	3.831367e+01	1.538543e+03
1.710000e-06	5.313778e-06	2.340733e-08	3.824717e+01	1.538164e+03
1.720000e-06	5.302957e-06	2.340122e-08	3.816928e+01	1.537475e+03
1.730000e-06	5.290329e-06	2.340165e-08	3.807839e+01	1.536436e+03
1.740000e-06	5.275635e-06	2.334219e-08	3.797263e+01	1.535082e+03
1.750000e-06	5.258723e-06	2.327824e-08	3.785090e+01	1.533511e+03
1.760000e-06	5.239421e-06	2.329815e-08	3.771197e+01	1.531858e+03
1.770000e-06	5.217597e-06	2.329476e-08	3.755488e+01	1.530258e+03
1.780000e-06	5.193904e-06	2.334752e-08	3.738435e+01	1.528805e+03
1.790000e-06	5.169382e-06	2.333252e-08	3.720784e+01	1.527530e+03
1.800000e-06	5.143871e-06	2.316008e-08	3.702422e+01	1.526389e+03
1.810000e-06	5.116451e-06	2.323014e-08	3.682687e+01	1.525283e+03
1.820000e-06	5.087010e-06	2.321581e-08	3.661495e+01	1.524080e+03
1.830000e-06	5.055894e-06	2.308442e-08	3.639099e+01	1.522659e+03
1.840000e-06	5.022888e-06	2.324140e-08	3.615342e+01	1.520938e+03
1.850000e-06	4.988153e-06	2.320023e-08	3.590341e+01	1.518894e+03
1.860000e-06	4.951814e-06	2.307936e-08	3.564185e+01	1.516564e+03
1.870000e-06	4.913397e-06	2.317251e-08	3.536533e+01	1.514029e+03
1.880000e-06	4.873231e-06	2.304088e-08	3.507623e+01	1.511381e+03
1.890000e-06	4.831443e-06	2.300386e-08	3.477545e+01	1.508695e+03
1.900000e-06	4.787919e-06	2.302670e-08	3.446218e+01	1.506001e+03
1.910000e-06	4.742801e-06	2.288863e-08	3.413743e+01	1.503279e+03
1.920000e-06	4.695782e-06	2.292785e-08	3.379900e+01	1.500466e+03
1.930000e-06	4.647034e-06	2.282684e-08	3.344813e+01	1.497475e+03
1.940000e-06	4.596629e-06	2.277212e-08	3.308532e+01	1.494231e+03
1.950000e-06	4.544197e-06	2.281279e-08	3.270793e+01	1.490690e+03
1.960000e-06	4.489749e-06	2.268186e-08	3.231603e+01	1.486858e+03
1.970000e-06	4.433518e-06	2.265538e-08	3.191129e+01	1.482787e+03
1.980000e-06	4.375715e-06	2.256673e-08	3.149524e+01	1.478561e+03
1.990000e-06	4.316470e-06	2.249381e-08	3.106881e+01	1.474263e+03
2.000000e-06	4.255867e-06	2.247486e-08	3.063260e+01	1.469952e+03
2.010000e-06	4.193622e-06	2.236886e-08	3.018459e+01	1.465641e+03
2.020000e-06	4.129605e-06	2.235007e-08	2.972380e+01	1.461290e+03
2.030000e-06	4.064157e-06	2.223143e-08	2.925273e+01	1.456821e+03
2.040000e-06	3.997371e-06	2.215069e-08	2.877202e+01	1.452138e+03
2.050000e-06	3.929256e-06	2.210666e-08	2.828175e+01	1.447163e+03
2.060000e-06	3.859585e-06	2.199582e-08	2.778027e+01	1.441854e+03
2.070000e-06	3.788315e-06	2.195383e-08	2.726729e+01	1.436225e+03
2.080000e-06	3.715821e-06	2.184742e-08	2.674550e+01	1.430340e+03
2.090000e-06	3.642079e-06	2.176283e-08	2.621473e+01	1.424288e+03
2.100000e-06	3.567010e-06	2.166143e-08	2.567440e+01	1.418157e+03
2.110000e-06	3.490581e-06	2.156448e-08	2.512428e+01	1.412003e+03
2.120000e-06	3.412581e-06	2.149566e-08	2.456286e+01	1.405827e+03
2.130000e-06	3.333152e-06	2.137590e-08	2.399115e+01	1.399573e+03
2.140000e-06	3.252587e-06	2.128865e-08	2.341126e+01	1.393140e+03
2.150000e-06	3.170953e-06	2.117605e-08	2.282369e+01	1.386413e+03
2.160000e-06	3.088241e-06	2.106680e-08	2.222834e+01	1.379297e+03
2.170000e-06	3.004546e-06	2.094571e-08	2.162593e+01	1.371746e+03
2.180000e-06	2.919865e-06	2.082818e-08	2.101642e+01	1.363775e+03
2.190000e-06	2.833846e-06	2.072508e-08	2.039728e+01	1.355457e+03
2.200000e-06	2.746577e-06	2.058983e-08	1.976914e+01	1.346897e+03
2.210000e-06	2.658367e-06	2.045816e-08	1.913423e+01	1.338192e+03
2.220000e-06	2.569245e-06	2.032000e-08	1.849275e+01	1.329400e+03
2.230000e-06	2.479255e-06	2.018968e-08	1.784502e+01	1.320512e+03
2.240000e-06	2.388478e-06	2.004668e-08	1.719163e+01	1.311447e+03
2.250000e-06	2.297018e-06	1.990164e-08	1.653333e+01	1.302072e+03
2.260000e-06	2.204896e-06	1.975541e-08	1.587026e+01	1.292237e+03
2.270000e-06	2.111874e-06	1.959260e-08	1.520071e+01	1.281816e+03
2.280000e-06	2.017771e-06	1.942260e-08	1.452338e+01	1.270746e+03
2.290000e-06	1.922808e-06	1.924568e-08	1.383987e+01	1.259042e+03
2.300000e-06	1.827218e-06	1.906772e-08	1.315183e+01	1.246793e+03
2.310000e-06	1.731041e-06	1.888293e-08	1.245958e+01	1.234127e+03
2.320000e-06	1.634361e-06	1.869129e-08	1.176370e+01	1.221168e+03
2.330000e-06	1.537162e-06	1.849122e-08	1.106408e+01	1.207983e+03
2.340000e-06	1.439430e-06	1.828553e-08	1.036064e+01	1.194556e+03
2.350000e-06	1.341213e-06	1.806684e-08	9.653700e+00	1.180774e+03
2.360000e-06	1.242570e-06	1.783512e-08	8.943691e+00	1.166453e+03
2.370000e-06	1.143583e-06	1.759584e-08	8.231206e+00	1.151381e+03
2.380000e-06	1.044320e-06	1.735082e-08	7.516742e+00	1.135376e+03
2.390000e-06	9.448437e-07	1.709800e-08	6.800736e+00	1.118334e+03
2.400000e-06	8.451135e-07	1.682927e-08	6.082904e+00	1.100252e+03
2.410000e-06	7.451342e-07	1.654699e-08	5.363279e+00	1.081220e+03
2.420000e-06	6.449365e-07	1.625150e-08	4.642082e+00	1.061376e+03
2.430000e-06	5.444847e-07	1.594163e-08	3.919057e+00	1.040837e+03
2.440000e-06	4.438298e-07	1.561671e-08	3.194570e+00	1.019635e+03
2.450000e-06	3.430239e-07	1.527852e-08	2.468995e+00	9.976637e+02
2.460000e-06	2.419980e-07	1.492064e-08	1.741838e+00	9.746664e+02
2.470000e-06	1.408132e-07	1.453710e-08	1.013536e+00	9.502691e+02
2.480000e-06	3.954705e-08	1.412794e-08	2.846492e-01	9.240504e+02
2.490000e-06	-6.178267e-08	1.369333e-08	-4.446953e-01	8.956300e+02
2.500000e-06	-1.630957e-07	1.323098e-08	-1.173920e+00	8.647463e+02
2.510000e-06	-2.643251e-07	1.273491e-08	-1.902542e+00	8.312927e+02
2.520000e-06	-3.654350e-07	1.220293e-08	-2.630305e+00	7.952944e+02
2.530000e-06	-4.664033e-07	1.162824e-08	-3.357048e+00	7.568184e+02
2.540000e-06	-5.671992e-07	1.100546e-08	-4.082550e+00	7.158335e+02
2.550000e-06	-6.677804e-07	1.032858e-08	-4.806507e+00	6.720543e+02
2.560000e-06	-7.680781e-07	9.588939e-09	-5.528423e+00	6.248133e+02
2.570000e-06	-8.680866e-07	8.776300e-09	-6.248258e+00	5.730083e+02
2.580000e-06	-9.678340e-07	7.877769e-09	-6.966214e+00	5.151559e+02
2.590000e-06	-1.067281e-06	6.876462e-09	-7.682003e+00	4.495650e+02
2.600000e-06	-1.166396e-06	5.749689e-09	-8.395409e+00	3.746104e+02
2.610000e-06	-1.265165e-06	4.474370e-09	-9.106323e+00	2.890637e+02
2.620000e-06	-1.363483e-06	3.032670e-09	-9.813988e+00	1.924171e+02
2.630000e-06	-1.461253e-06	1.419023e-09	-1.051771e+01	8.513169e+01
2.640000e-06	-1.558499e-06	-3.540882e-10	-1.121767e+01	-3.124927e+01
2.650000e-06	-1.655292e-06	-2.251541e-09	-1.191436e+01	-1.541576e+02
2.660000e-06	-1.751584e-06	-4.212630e-09	-1.260744e+01	-2.802287e+02
2.670000e-06	-1.847284e-06	-6.163706e-09	-1.329626e+01	-4.056687e+02
2.680000e-06	-1.942350e-06	-8.031507e-09	-1.398053e+01	-5.266968e+02
2.690000e-06	-2.036612e-06	-9.758131e-09	-1.465900e+01	-6.399858e+02
2.700000e-06	-2.129920e-06	-1.131376e-08	-1.533060e+01	-7.430220e+02
2.710000e-06	-2.222312e-06	-1.268738e-08	-1.599561e+01	-8.343246e+02
2.720000e-06	-2.313854e-06	-1.388478e-08	-1.665451e+01	-9.134940e+02
2.730000e-06	-2.404643e-06	-1.492170e-08	-1.730798e+01	-9.810925e+02
2.740000e-06	-2.494624e-06	-1.581533e-08	-1.795564e+01	-1.038395e+03
2.750000e-06	-2.583684e-06	-1.658375e-08	-1.859667e+01	-1.087071e+03
2.760000e-06	-2.671909e-06	-1.724633e-08	-1.923170e+01	-1.128859e+03
2.770000e-06	-2.759334e-06	-1.782101e-08	-1.986096e+01	-1.165308e+03
2.780000e-06	-2.845811e-06	-1.832041e-08	-2.048340e+01	-1.197611e+03
2.790000e-06	-2.931178e-06	-1.875641e-08	-2.109784e+01	-1.226557e+03
2.800000e-06	-3.015408e-06	-1.914191e-08	-2.170411e+01	-1.252584e+03
2.810000e-06	-3.098600e-06	-1.948525e-08	-2.230290e+01	-1.275897e+03
2.820000e-06	-3.180773e-06	-1.979094e-08	-2.289436e+01	-1.296612e+03
2.830000e-06	-3.261872e-06	-2.006512e-08	-2.347810e+01	-1.314877e+03
2.840000e-06	-3.341908e-06	-2.031419e-08	-2.405417e+01	-1.330943e+03
2.850000e-06	-3.420741e-06	-2.054376e-08	-2.462159e+01	-1.345175e+03
2.860000e-06	-3.498130e-06	-2.075686e-08	-2.517861e+01	-1.358008e+03
2.870000e-06	-3.574025e-06	-2.095191e-08	-2.572489e+01	-1.369868e+03
2.880000e-06	-3.648488e-06	-2.112901e-08	-2.626086e+01	-1.381094e+03
2.890000e-06	-3.721599e-06	-2.129157e-08	-2.678709e+01	-1.391881e+03
2.900000e-06	-3.793462e-06	-2.144209e-08	-2.730434e+01	-1.402267e+03
2.910000e-06	-3.863962e-06	-2.158277e-08	-2.781178e+01	-1.412159e+03
2.920000e-06	-3.932935e-06	-2.171505e-08	-2.830823e+01	-1.421396e+03
2.930000e-06	-4.000465e-06	-2.183824e-08	-2.879429e+01	-1.429827e+03
2.940000e-06	-4.066636e-06	-2.195257e-08	-2.927057e+01	-1.437374e+03
