# Temperatura_=_61.25
# Concentracion g/m^3_=_41000.0
# C_Vs_to_Am_M_A/Vsm_=_65563218390.804596
# pendiente_HvsI_1/m_=_3716.3
# ordenada_HvsI_A/m_=_1297.0
# frecuencia_Hz_=_301637.9954839201

Tiempo_(s)	Campo_(V.s)	Magnetizacion_(V.s)	Campo_(kA/m)	Magnetizacion_(A/m)
0.000000e+00	-5.329085e-06	-2.200489e-08	-3.833441e+01	-1.438315e+03
1.000000e-08	-5.327109e-06	-2.199857e-08	-3.832019e+01	-1.438195e+03
2.000000e-08	-5.323288e-06	-2.199407e-08	-3.829270e+01	-1.438148e+03
3.000000e-08	-5.317832e-06	-2.198982e-08	-3.825345e+01	-1.438091e+03
4.000000e-08	-5.310790e-06	-2.198199e-08	-3.820280e+01	-1.437912e+03
5.000000e-08	-5.302038e-06	-2.197105e-08	-3.813984e+01	-1.437502e+03
6.000000e-08	-5.291289e-06	-2.195917e-08	-3.806252e+01	-1.436790e+03
7.000000e-08	-5.278609e-06	-2.194748e-08	-3.797131e+01	-1.435764e+03
8.000000e-08	-5.263950e-06	-2.194707e-08	-3.786586e+01	-1.434475e+03
9.000000e-08	-5.246989e-06	-2.192647e-08	-3.774385e+01	-1.433024e+03
1.000000e-07	-5.227859e-06	-2.189730e-08	-3.760624e+01	-1.431532e+03
1.100000e-07	-5.206862e-06	-2.188372e-08	-3.745520e+01	-1.430104e+03
1.200000e-07	-5.184169e-06	-2.184313e-08	-3.729196e+01	-1.428800e+03
1.300000e-07	-5.159970e-06	-2.180878e-08	-3.711789e+01	-1.427618e+03
1.400000e-07	-5.134202e-06	-2.181252e-08	-3.693252e+01	-1.426495e+03
1.500000e-07	-5.106729e-06	-2.174899e-08	-3.673491e+01	-1.425330e+03
1.600000e-07	-5.077734e-06	-2.176053e-08	-3.652633e+01	-1.424010e+03
1.700000e-07	-5.047286e-06	-2.176952e-08	-3.630730e+01	-1.422445e+03
1.800000e-07	-5.014964e-06	-2.168311e-08	-3.607480e+01	-1.420592e+03
1.900000e-07	-4.980582e-06	-2.167483e-08	-3.582747e+01	-1.418466e+03
2.000000e-07	-4.944551e-06	-2.161052e-08	-3.556829e+01	-1.416129e+03
2.100000e-07	-4.906869e-06	-2.151723e-08	-3.529722e+01	-1.413669e+03
2.200000e-07	-4.867470e-06	-2.152017e-08	-3.501381e+01	-1.411171e+03
2.300000e-07	-4.826302e-06	-2.149471e-08	-3.471767e+01	-1.408686e+03
2.400000e-07	-4.783197e-06	-2.146580e-08	-3.440759e+01	-1.406217e+03
2.500000e-07	-4.738311e-06	-2.142928e-08	-3.408471e+01	-1.403716e+03
2.600000e-07	-4.691652e-06	-2.132289e-08	-3.374908e+01	-1.401101e+03
2.700000e-07	-4.643060e-06	-2.132225e-08	-3.339953e+01	-1.398283e+03
2.800000e-07	-4.592364e-06	-2.130741e-08	-3.303485e+01	-1.395191e+03
2.900000e-07	-4.539680e-06	-2.121977e-08	-3.265587e+01	-1.391797e+03
3.000000e-07	-4.485306e-06	-2.114962e-08	-3.226474e+01	-1.388123e+03
3.100000e-07	-4.429284e-06	-2.109130e-08	-3.186175e+01	-1.384235e+03
3.200000e-07	-4.371489e-06	-2.104640e-08	-3.144600e+01	-1.380219e+03
3.300000e-07	-4.312009e-06	-2.098959e-08	-3.101814e+01	-1.376154e+03
3.400000e-07	-4.251045e-06	-2.092876e-08	-3.057960e+01	-1.372086e+03
3.500000e-07	-4.188652e-06	-2.086306e-08	-3.013078e+01	-1.368014e+03
3.600000e-07	-4.124941e-06	-2.079298e-08	-2.967248e+01	-1.363886e+03
3.700000e-07	-4.059765e-06	-2.071695e-08	-2.920364e+01	-1.359619e+03
3.800000e-07	-3.992929e-06	-2.063682e-08	-2.872286e+01	-1.355125e+03
3.900000e-07	-3.924572e-06	-2.058130e-08	-2.823114e+01	-1.350336e+03
4.000000e-07	-3.854912e-06	-2.050987e-08	-2.773004e+01	-1.345228e+03
4.100000e-07	-3.784054e-06	-2.040647e-08	-2.722033e+01	-1.339829e+03
4.200000e-07	-3.711969e-06	-2.032643e-08	-2.670180e+01	-1.334209e+03
4.300000e-07	-3.638435e-06	-2.024452e-08	-2.617283e+01	-1.328453e+03
4.400000e-07	-3.563254e-06	-2.016566e-08	-2.563202e+01	-1.322641e+03
4.500000e-07	-3.486611e-06	-2.008364e-08	-2.508069e+01	-1.316810e+03
4.600000e-07	-3.408641e-06	-1.998301e-08	-2.451982e+01	-1.310947e+03
4.700000e-07	-3.329314e-06	-1.987656e-08	-2.394919e+01	-1.304986e+03
4.800000e-07	-3.248708e-06	-1.977116e-08	-2.336935e+01	-1.298829e+03
4.900000e-07	-3.166901e-06	-1.967429e-08	-2.278089e+01	-1.292371e+03
5.000000e-07	-3.084014e-06	-1.956794e-08	-2.218464e+01	-1.285539e+03
5.100000e-07	-3.000197e-06	-1.946219e-08	-2.158171e+01	-1.278306e+03
5.200000e-07	-2.915490e-06	-1.935089e-08	-2.097238e+01	-1.270703e+03
5.300000e-07	-2.829915e-06	-1.923175e-08	-2.035680e+01	-1.262808e+03
5.400000e-07	-2.743416e-06	-1.910902e-08	-1.973457e+01	-1.254715e+03
5.500000e-07	-2.655996e-06	-1.898766e-08	-1.910572e+01	-1.246503e+03
5.600000e-07	-2.567609e-06	-1.886664e-08	-1.846992e+01	-1.238203e+03
5.700000e-07	-2.478112e-06	-1.872985e-08	-1.782613e+01	-1.229782e+03
5.800000e-07	-2.387534e-06	-1.858371e-08	-1.717456e+01	-1.221148e+03
5.900000e-07	-2.296029e-06	-1.843512e-08	-1.651633e+01	-1.212169e+03
6.000000e-07	-2.203725e-06	-1.828560e-08	-1.585234e+01	-1.202712e+03
6.100000e-07	-2.110732e-06	-1.813124e-08	-1.518341e+01	-1.192682e+03
6.200000e-07	-2.016987e-06	-1.797625e-08	-1.450906e+01	-1.182048e+03
6.300000e-07	-1.922434e-06	-1.781490e-08	-1.382890e+01	-1.170851e+03
6.400000e-07	-1.827257e-06	-1.764156e-08	-1.314425e+01	-1.159191e+03
6.500000e-07	-1.731505e-06	-1.746041e-08	-1.245546e+01	-1.147188e+03
6.600000e-07	-1.635060e-06	-1.727390e-08	-1.176169e+01	-1.134943e+03
6.700000e-07	-1.537926e-06	-1.708091e-08	-1.106296e+01	-1.122490e+03
6.800000e-07	-1.440210e-06	-1.687846e-08	-1.036005e+01	-1.109781e+03
6.900000e-07	-1.341974e-06	-1.667003e-08	-9.653397e+00	-1.096681e+03
7.000000e-07	-1.243200e-06	-1.645351e-08	-8.942871e+00	-1.083005e+03
7.100000e-07	-1.143957e-06	-1.622903e-08	-8.228978e+00	-1.068561e+03
7.200000e-07	-1.044360e-06	-1.599601e-08	-7.512534e+00	-1.053202e+03
7.300000e-07	-9.444178e-07	-1.575412e-08	-6.793604e+00	-1.036864e+03
7.400000e-07	-8.442029e-07	-1.549982e-08	-6.072715e+00	-1.019579e+03
7.500000e-07	-7.437434e-07	-1.523362e-08	-5.350067e+00	-1.001453e+03
7.600000e-07	-6.430399e-07	-1.495439e-08	-4.625663e+00	-9.826136e+02
7.700000e-07	-5.421795e-07	-1.465868e-08	-3.900130e+00	-9.631492e+02
7.800000e-07	-4.412211e-07	-1.434557e-08	-3.173893e+00	-9.430467e+02
7.900000e-07	-3.401113e-07	-1.401104e-08	-2.446567e+00	-9.221574e+02
8.000000e-07	-2.388346e-07	-1.365942e-08	-1.718040e+00	-9.001996e+02
8.100000e-07	-1.374411e-07	-1.329131e-08	-9.886729e-01	-8.768026e+02
8.200000e-07	-3.594829e-08	-1.290352e-08	-2.585916e-01	-8.515795e+02
8.300000e-07	6.559781e-08	-1.249197e-08	4.718733e-01	-8.242075e+02
8.400000e-07	1.671237e-07	-1.205008e-08	1.202193e+00	-7.944885e+02
8.500000e-07	2.685547e-07	-1.157231e-08	1.931830e+00	-7.623631e+02
8.600000e-07	3.698874e-07	-1.105479e-08	2.660759e+00	-7.278664e+02
8.700000e-07	4.710948e-07	-1.049808e-08	3.388788e+00	-6.910259e+02
8.800000e-07	5.721926e-07	-9.896763e-09	4.116028e+00	-6.517234e+02
8.900000e-07	6.731354e-07	-9.242635e-09	4.842153e+00	-6.095570e+02
9.000000e-07	7.738597e-07	-8.525065e-09	5.566706e+00	-5.637455e+02
9.100000e-07	8.743754e-07	-7.731349e-09	6.289759e+00	-5.131156e+02
9.200000e-07	9.746600e-07	-6.847535e-09	7.011150e+00	-4.561943e+02
9.300000e-07	1.074706e-06	-5.856533e-09	7.730820e+00	-3.914074e+02
9.400000e-07	1.174346e-06	-4.737836e-09	8.447574e+00	-3.173594e+02
9.500000e-07	1.273501e-06	-3.470505e-09	9.160843e+00	-2.331443e+02
9.600000e-07	1.372162e-06	-2.044829e-09	9.870556e+00	-1.386259e+02
9.700000e-07	1.470207e-06	-4.645042e-10	1.057583e+01	-3.462542e+01
9.800000e-07	1.567580e-06	1.248947e-09	1.127628e+01	7.703132e+01
9.900000e-07	1.664285e-06	3.053920e-09	1.197192e+01	1.936290e+02
1.000000e-06	1.760314e-06	4.884647e-09	1.266270e+01	3.118289e+02
1.010000e-06	1.855663e-06	6.670621e-09	1.334858e+01	4.280444e+02
1.020000e-06	1.950345e-06	8.353019e-09	1.402967e+01	5.388599e+02
1.030000e-06	2.044365e-06	9.889912e-09	1.470600e+01	6.414210e+02
1.040000e-06	2.137665e-06	1.125956e-08	1.537715e+01	7.337250e+02
1.050000e-06	2.230247e-06	1.245900e-08	1.604313e+01	8.147686e+02
1.060000e-06	2.322189e-06	1.349859e-08	1.670450e+01	8.845327e+02
1.070000e-06	2.413387e-06	1.439306e-08	1.736053e+01	9.438225e+02
1.080000e-06	2.503623e-06	1.516080e-08	1.800964e+01	9.940047e+02
1.090000e-06	2.592770e-06	1.582081e-08	1.865091e+01	1.036702e+03
1.100000e-06	2.680878e-06	1.639204e-08	1.928471e+01	1.073508e+03
1.110000e-06	2.768080e-06	1.688932e-08	1.991199e+01	1.105772e+03
1.120000e-06	2.854396e-06	1.732234e-08	2.053290e+01	1.134484e+03
1.130000e-06	2.939805e-06	1.770384e-08	2.114729e+01	1.160267e+03
1.140000e-06	3.024316e-06	1.804025e-08	2.175521e+01	1.183450e+03
1.150000e-06	3.107938e-06	1.833974e-08	2.235674e+01	1.204187e+03
1.160000e-06	3.190497e-06	1.860876e-08	2.295062e+01	1.222592e+03
1.170000e-06	3.271801e-06	1.885386e-08	2.353548e+01	1.238832e+03
1.180000e-06	3.351860e-06	1.907695e-08	2.411137e+01	1.253175e+03
1.190000e-06	3.430706e-06	1.927951e-08	2.467854e+01	1.265984e+03
1.200000e-06	3.508311e-06	1.946553e-08	2.523679e+01	1.277658e+03
1.210000e-06	3.584696e-06	1.963746e-08	2.578626e+01	1.288561e+03
1.220000e-06	3.659764e-06	1.979956e-08	2.632626e+01	1.298956e+03
1.230000e-06	3.733278e-06	1.995093e-08	2.685508e+01	1.308967e+03
1.240000e-06	3.805241e-06	2.009050e-08	2.737274e+01	1.318577e+03
1.250000e-06	3.875786e-06	2.021901e-08	2.788020e+01	1.327672e+03
1.260000e-06	3.944996e-06	2.033868e-08	2.837806e+01	1.336101e+03
1.270000e-06	4.012950e-06	2.044817e-08	2.886688e+01	1.343748e+03
1.280000e-06	4.079463e-06	2.055014e-08	2.934534e+01	1.350578e+03
1.290000e-06	4.144325e-06	2.064676e-08	2.981191e+01	1.356665e+03
1.300000e-06	4.207637e-06	2.073947e-08	3.026734e+01	1.362172e+03
1.310000e-06	4.269498e-06	2.082609e-08	3.071234e+01	1.367312e+03
1.320000e-06	4.330018e-06	2.090661e-08	3.114769e+01	1.372290e+03
1.330000e-06	4.389186e-06	2.098249e-08	3.157330e+01	1.377253e+03
1.340000e-06	4.446641e-06	2.105384e-08	3.198660e+01	1.382252e+03
1.350000e-06	4.502296e-06	2.112268e-08	3.238695e+01	1.387244e+03
1.360000e-06	4.556328e-06	2.118832e-08	3.277563e+01	1.392109e+03
1.370000e-06	4.608621e-06	2.125125e-08	3.315180e+01	1.396700e+03
1.380000e-06	4.658970e-06	2.131050e-08	3.351398e+01	1.400891e+03
1.390000e-06	4.707388e-06	2.136594e-08	3.386227e+01	1.404617e+03
1.400000e-06	4.754115e-06	2.141854e-08	3.419839e+01	1.407896e+03
1.410000e-06	4.799291e-06	2.146930e-08	3.452337e+01	1.410818e+03
1.420000e-06	4.842870e-06	2.151808e-08	3.483685e+01	1.413521e+03
1.430000e-06	4.884641e-06	2.156201e-08	3.513733e+01	1.416143e+03
1.440000e-06	4.924567e-06	2.160197e-08	3.542453e+01	1.418783e+03
1.450000e-06	4.962868e-06	2.163864e-08	3.570005e+01	1.421475e+03
1.460000e-06	4.999624e-06	2.167379e-08	3.596445e+01	1.424178e+03
1.470000e-06	5.034706e-06	2.170789e-08	3.621681e+01	1.426796e+03
1.480000e-06	5.067894e-06	2.173867e-08	3.645554e+01	1.429210e+03
1.490000e-06	5.099167e-06	2.176601e-08	3.668051e+01	1.431318e+03
1.500000e-06	5.128728e-06	2.179193e-08	3.689315e+01	1.433067e+03
1.510000e-06	5.156646e-06	2.181688e-08	3.709398e+01	1.434472e+03
1.520000e-06	5.182658e-06	2.183992e-08	3.728109e+01	1.435609e+03
1.530000e-06	5.206613e-06	2.185951e-08	3.745341e+01	1.436593e+03
1.540000e-06	5.228718e-06	2.187669e-08	3.761242e+01	1.437539e+03
1.550000e-06	5.249162e-06	2.189402e-08	3.775948e+01	1.438529e+03
1.560000e-06	5.267842e-06	2.190995e-08	3.789386e+01	1.439590e+03
1.570000e-06	5.284580e-06	2.192245e-08	3.801426e+01	1.440683e+03
1.580000e-06	5.299330e-06	2.193194e-08	3.812036e+01	1.441722e+03
1.590000e-06	5.312108e-06	2.194042e-08	3.821228e+01	1.442598e+03
1.600000e-06	5.322752e-06	2.194912e-08	3.828885e+01	1.443222e+03
1.610000e-06	5.331207e-06	2.195641e-08	3.834967e+01	1.443547e+03
1.620000e-06	5.337748e-06	2.196237e-08	3.839672e+01	1.443587e+03
1.630000e-06	5.342568e-06	2.196838e-08	3.843140e+01	1.443415e+03
1.640000e-06	5.345574e-06	2.197231e-08	3.845302e+01	1.443137e+03
1.650000e-06	5.346545e-06	2.197272e-08	3.846000e+01	1.442861e+03
1.660000e-06	5.345593e-06	2.197086e-08	3.845315e+01	1.442665e+03
1.670000e-06	5.342996e-06	2.196866e-08	3.843448e+01	1.442567e+03
1.680000e-06	5.338779e-06	2.196329e-08	3.840414e+01	1.442526e+03
1.690000e-06	5.332714e-06	2.195798e-08	3.836051e+01	1.442449e+03
1.700000e-06	5.324813e-06	2.195228e-08	3.830367e+01	1.442221e+03
1.710000e-06	5.315314e-06	2.194577e-08	3.823535e+01	1.441740e+03
1.720000e-06	5.304186e-06	2.193844e-08	3.815529e+01	1.440947e+03
1.730000e-06	5.291232e-06	2.190955e-08	3.806211e+01	1.439848e+03
1.740000e-06	5.276273e-06	2.188975e-08	3.795451e+01	1.438507e+03
1.750000e-06	5.259060e-06	2.188113e-08	3.783068e+01	1.437034e+03
1.760000e-06	5.239339e-06	2.185409e-08	3.768883e+01	1.435549e+03
1.770000e-06	5.217195e-06	2.186113e-08	3.752953e+01	1.434148e+03
1.780000e-06	5.193382e-06	2.183555e-08	3.735823e+01	1.432876e+03
1.790000e-06	5.168686e-06	2.180165e-08	3.718058e+01	1.431716e+03
1.800000e-06	5.142846e-06	2.182329e-08	3.699471e+01	1.430593e+03
1.810000e-06	5.115103e-06	2.171538e-08	3.679514e+01	1.429399e+03
1.820000e-06	5.085415e-06	2.169061e-08	3.658158e+01	1.428024e+03
1.830000e-06	5.053948e-06	2.174116e-08	3.635523e+01	1.426388e+03
1.840000e-06	5.020565e-06	2.164423e-08	3.611509e+01	1.424462e+03
1.850000e-06	4.985536e-06	2.167486e-08	3.586311e+01	1.422275e+03
1.860000e-06	4.948873e-06	2.172408e-08	3.559937e+01	1.419898e+03
1.870000e-06	4.910287e-06	2.162663e-08	3.532181e+01	1.417422e+03
1.880000e-06	4.869971e-06	2.159862e-08	3.503180e+01	1.414923e+03
1.890000e-06	4.827939e-06	2.150335e-08	3.472945e+01	1.412443e+03
1.900000e-06	4.784182e-06	2.147788e-08	3.441468e+01	1.409972e+03
1.910000e-06	4.738692e-06	2.153994e-08	3.408745e+01	1.407450e+03
1.920000e-06	4.691376e-06	2.137577e-08	3.374709e+01	1.404792e+03
1.930000e-06	4.642399e-06	2.132932e-08	3.339478e+01	1.401910e+03
1.940000e-06	4.591673e-06	2.135182e-08	3.302988e+01	1.398743e+03
1.950000e-06	4.538928e-06	2.127786e-08	3.265046e+01	1.395274e+03
1.960000e-06	4.484288e-06	2.124173e-08	3.225741e+01	1.391538e+03
1.970000e-06	4.427907e-06	2.115296e-08	3.185185e+01	1.387609e+03
1.980000e-06	4.369926e-06	2.111482e-08	3.143476e+01	1.383574e+03
1.990000e-06	4.310519e-06	2.105839e-08	3.100742e+01	1.379505e+03
2.000000e-06	4.249647e-06	2.095276e-08	3.056955e+01	1.375438e+03
2.010000e-06	4.187121e-06	2.092638e-08	3.011977e+01	1.371357e+03
2.020000e-06	4.122938e-06	2.085744e-08	2.965807e+01	1.367203e+03
2.030000e-06	4.057299e-06	2.079796e-08	2.918590e+01	1.362887e+03
2.040000e-06	3.990309e-06	2.070390e-08	2.870401e+01	1.358323e+03
2.050000e-06	3.921962e-06	2.062876e-08	2.821236e+01	1.353454e+03
2.060000e-06	3.852078e-06	2.059622e-08	2.770966e+01	1.348268e+03
2.070000e-06	3.780708e-06	2.048630e-08	2.719626e+01	1.342806e+03
2.080000e-06	3.708083e-06	2.040769e-08	2.667384e+01	1.337142e+03
2.090000e-06	3.634149e-06	2.030856e-08	2.614200e+01	1.331366e+03
2.100000e-06	3.558835e-06	2.022210e-08	2.560024e+01	1.325547e+03
2.110000e-06	3.481967e-06	2.014919e-08	2.504729e+01	1.319711e+03
2.120000e-06	3.403556e-06	2.004867e-08	2.448325e+01	1.313830e+03
2.130000e-06	3.323958e-06	1.996768e-08	2.391066e+01	1.307830e+03
2.140000e-06	3.243314e-06	1.986724e-08	2.333056e+01	1.301606e+03
2.150000e-06	3.161563e-06	1.977484e-08	2.274249e+01	1.295060e+03
2.160000e-06	3.078721e-06	1.965828e-08	2.214656e+01	1.288127e+03
2.170000e-06	2.994862e-06	1.954230e-08	2.154334e+01	1.280795e+03
2.180000e-06	2.909864e-06	1.943846e-08	2.093191e+01	1.273111e+03
2.190000e-06	2.823627e-06	1.932235e-08	2.031156e+01	1.265157e+03
2.200000e-06	2.736211e-06	1.920399e-08	1.968275e+01	1.257027e+03
2.210000e-06	2.647822e-06	1.907369e-08	1.904692e+01	1.248792e+03
2.220000e-06	2.558631e-06	1.895440e-08	1.840533e+01	1.240467e+03
2.230000e-06	2.468557e-06	1.882470e-08	1.775740e+01	1.232003e+03
2.240000e-06	2.377679e-06	1.868925e-08	1.710367e+01	1.223295e+03
2.250000e-06	2.286114e-06	1.855182e-08	1.644500e+01	1.214207e+03
2.260000e-06	2.193768e-06	1.840755e-08	1.578072e+01	1.204614e+03
2.270000e-06	2.100486e-06	1.824770e-08	1.510970e+01	1.194432e+03
2.280000e-06	2.006258e-06	1.807685e-08	1.443188e+01	1.183650e+03
2.290000e-06	1.911237e-06	1.791079e-08	1.374835e+01	1.172325e+03
2.300000e-06	1.815529e-06	1.774258e-08	1.305988e+01	1.160568e+03
2.310000e-06	1.719249e-06	1.757065e-08	1.236730e+01	1.148496e+03
2.320000e-06	1.622478e-06	1.738696e-08	1.167118e+01	1.136198e+03
2.330000e-06	1.525211e-06	1.719523e-08	1.097150e+01	1.123689e+03
2.340000e-06	1.427451e-06	1.699417e-08	1.026827e+01	1.110897e+03
2.350000e-06	1.329182e-06	1.678531e-08	9.561382e+00	1.097671e+03
2.360000e-06	1.230485e-06	1.656670e-08	8.851405e+00	1.083819e+03
2.370000e-06	1.131495e-06	1.633727e-08	8.139331e+00	1.069157e+03
2.380000e-06	1.032272e-06	1.609999e-08	7.425578e+00	1.053555e+03
2.390000e-06	9.327551e-07	1.585445e-08	6.709710e+00	1.036973e+03
2.400000e-06	8.329366e-07	1.559731e-08	5.991672e+00	1.019466e+03
2.410000e-06	7.328116e-07	1.532670e-08	5.271429e+00	1.001149e+03
2.420000e-06	6.323341e-07	1.504506e-08	4.548651e+00	9.821475e+02
2.430000e-06	5.316485e-07	1.474750e-08	3.824377e+00	9.625291e+02
2.440000e-06	4.308068e-07	1.443324e-08	3.098979e+00	9.422488e+02
2.450000e-06	3.297676e-07	1.410248e-08	2.372161e+00	9.211227e+02
2.460000e-06	2.285489e-07	1.375474e-08	1.644050e+00	8.988413e+02
2.470000e-06	1.272191e-07	1.338335e-08	9.151419e-01	8.750222e+02
2.480000e-06	2.582393e-08	1.298477e-08	1.857626e-01	8.492874e+02
2.490000e-06	-7.557824e-08	1.256148e-08	-5.436669e-01	8.213411e+02
2.500000e-06	-1.768574e-07	1.211157e-08	-1.272211e+00	7.910205e+02
2.510000e-06	-2.780632e-07	1.163087e-08	-2.000228e+00	7.582965e+02
2.520000e-06	-3.792263e-07	1.111182e-08	-2.727938e+00	7.232139e+02
2.530000e-06	-4.802587e-07	1.054857e-08	-3.454708e+00	6.857773e+02
2.540000e-06	-5.811532e-07	9.934546e-09	-4.180486e+00	6.458096e+02
2.550000e-06	-6.818644e-07	9.264529e-09	-4.904945e+00	6.028204e+02
2.560000e-06	-7.823063e-07	8.530569e-09	-5.627466e+00	5.559278e+02
2.570000e-06	-8.823746e-07	7.720277e-09	-6.347300e+00	5.038707e+02
2.580000e-06	-9.821077e-07	6.818366e-09	-7.064724e+00	4.451282e+02
2.590000e-06	-1.081580e-06	5.805663e-09	-7.780271e+00	3.781425e+02
2.600000e-06	-1.180670e-06	4.664396e-09	-8.493067e+00	3.016113e+02
2.610000e-06	-1.279385e-06	3.374662e-09	-9.203164e+00	2.147974e+02
2.620000e-06	-1.377721e-06	1.924096e-09	-9.910539e+00	1.177912e+02
2.630000e-06	-1.475512e-06	3.180987e-10	-1.061400e+01	1.166687e+01
2.640000e-06	-1.572733e-06	-1.417398e-09	-1.131335e+01	-1.015102e+02
2.650000e-06	-1.669460e-06	-3.236124e-09	-1.200914e+01	-2.188387e+02
2.660000e-06	-1.765695e-06	-5.073012e-09	-1.270140e+01	-3.368799e+02
2.670000e-06	-1.861365e-06	-6.856831e-09	-1.338960e+01	-4.520504e+02
2.680000e-06	-1.956358e-06	-8.528765e-09	-1.407292e+01	-5.610413e+02
2.690000e-06	-2.050562e-06	-1.004979e-08	-1.475057e+01	-6.611887e+02
2.700000e-06	-2.143822e-06	-1.140042e-08	-1.542144e+01	-7.507323e+02
2.710000e-06	-2.236150e-06	-1.258107e-08	-1.608559e+01	-8.289225e+02
2.720000e-06	-2.327655e-06	-1.360500e-08	-1.674382e+01	-8.959661e+02
2.730000e-06	-2.418363e-06	-1.448843e-08	-1.739633e+01	-9.528363e+02
2.740000e-06	-2.508213e-06	-1.524867e-08	-1.804266e+01	-1.000992e+03
2.750000e-06	-2.597162e-06	-1.590376e-08	-1.868250e+01	-1.042075e+03
2.760000e-06	-2.685287e-06	-1.646929e-08	-1.931643e+01	-1.077632e+03
2.770000e-06	-2.772601e-06	-1.695805e-08	-1.994452e+01	-1.108930e+03
2.780000e-06	-2.858935e-06	-1.738434e-08	-2.056555e+01	-1.136866e+03
2.790000e-06	-2.944119e-06	-1.776076e-08	-2.117831e+01	-1.161978e+03
2.800000e-06	-3.028172e-06	-1.809501e-08	-2.178295e+01	-1.184539e+03
2.810000e-06	-3.111185e-06	-1.839269e-08	-2.238009e+01	-1.204683e+03
2.820000e-06	-3.193197e-06	-1.865746e-08	-2.297004e+01	-1.222527e+03
2.830000e-06	-3.274179e-06	-1.889665e-08	-2.355258e+01	-1.238264e+03
2.840000e-06	-3.354054e-06	-1.911860e-08	-2.412716e+01	-1.252188e+03
2.850000e-06	-3.432690e-06	-1.932453e-08	-2.469282e+01	-1.264676e+03
2.860000e-06	-3.509885e-06	-1.951295e-08	-2.524811e+01	-1.276127e+03
2.870000e-06	-3.585591e-06	-1.968566e-08	-2.579270e+01	-1.286884e+03
2.880000e-06	-3.659907e-06	-1.984388e-08	-2.632729e+01	-1.297178e+03
2.890000e-06	-3.732912e-06	-1.999141e-08	-2.685244e+01	-1.307096e+03
2.900000e-06	-3.804666e-06	-2.013018e-08	-2.736860e+01	-1.316591e+03
2.910000e-06	-3.874987e-06	-2.025842e-08	-2.787445e+01	-1.325534e+03
2.920000e-06	-3.943734e-06	-2.037587e-08	-2.836898e+01	-1.333776e+03
2.930000e-06	-4.011080e-06	-2.048469e-08	-2.885343e+01	-1.341219e+03
2.940000e-06	-4.077126e-06	-2.058776e-08	-2.932852e+01	-1.347853e+03
