# Temperatura_=_92.05
# Concentracion g/m^3_=_41000.0
# C_Vs_to_Am_M_A/Vsm_=_65563218390.804596
# pendiente_HvsI_1/m_=_3716.3
# ordenada_HvsI_A/m_=_1297.0
# frecuencia_Hz_=_301635.2253357268

Tiempo_(s)	Campo_(V.s)	Magnetizacion_(V.s)	Campo_(kA/m)	Magnetizacion_(A/m)
0.000000e+00	-5.315036e-06	-2.516665e-08	-3.833969e+01	-1.643031e+03
1.000000e-08	-5.313053e-06	-2.515988e-08	-3.832539e+01	-1.642929e+03
2.000000e-08	-5.309223e-06	-2.515111e-08	-3.829776e+01	-1.642935e+03
3.000000e-08	-5.303795e-06	-2.514209e-08	-3.825860e+01	-1.642923e+03
4.000000e-08	-5.296726e-06	-2.513304e-08	-3.820761e+01	-1.642731e+03
5.000000e-08	-5.287955e-06	-2.512023e-08	-3.814435e+01	-1.642208e+03
6.000000e-08	-5.277199e-06	-2.510248e-08	-3.806676e+01	-1.641257e+03
7.000000e-08	-5.264492e-06	-2.507394e-08	-3.797509e+01	-1.639873e+03
8.000000e-08	-5.249834e-06	-2.504215e-08	-3.786936e+01	-1.638140e+03
9.000000e-08	-5.232891e-06	-2.503636e-08	-3.774715e+01	-1.636217e+03
1.000000e-07	-5.213776e-06	-2.502095e-08	-3.760926e+01	-1.634291e+03
1.100000e-07	-5.192732e-06	-2.499358e-08	-3.745746e+01	-1.632525e+03
1.200000e-07	-5.169986e-06	-2.498299e-08	-3.729338e+01	-1.631019e+03
1.300000e-07	-5.145890e-06	-2.492577e-08	-3.711957e+01	-1.629780e+03
1.400000e-07	-5.120343e-06	-2.488496e-08	-3.693529e+01	-1.628722e+03
1.500000e-07	-5.093006e-06	-2.488571e-08	-3.673809e+01	-1.627695e+03
1.600000e-07	-5.064049e-06	-2.481300e-08	-3.652921e+01	-1.626525e+03
1.700000e-07	-5.033673e-06	-2.482485e-08	-3.631010e+01	-1.625061e+03
1.800000e-07	-5.001415e-06	-2.486017e-08	-3.607741e+01	-1.623211e+03
1.900000e-07	-4.967061e-06	-2.476183e-08	-3.582959e+01	-1.620965e+03
2.000000e-07	-4.931125e-06	-2.469752e-08	-3.557037e+01	-1.618383e+03
2.100000e-07	-4.893612e-06	-2.464690e-08	-3.529978e+01	-1.615571e+03
2.200000e-07	-4.854379e-06	-2.460684e-08	-3.501677e+01	-1.612640e+03
2.300000e-07	-4.813351e-06	-2.459229e-08	-3.472081e+01	-1.609671e+03
2.400000e-07	-4.770302e-06	-2.450260e-08	-3.441029e+01	-1.606687e+03
2.500000e-07	-4.725452e-06	-2.444558e-08	-3.408676e+01	-1.603649e+03
2.600000e-07	-4.678903e-06	-2.443852e-08	-3.375099e+01	-1.600471e+03
2.700000e-07	-4.630459e-06	-2.436055e-08	-3.340154e+01	-1.597047e+03
2.800000e-07	-4.579919e-06	-2.427315e-08	-3.303697e+01	-1.593293e+03
2.900000e-07	-4.527358e-06	-2.420989e-08	-3.265782e+01	-1.589169e+03
3.000000e-07	-4.473164e-06	-2.416046e-08	-3.226690e+01	-1.584696e+03
3.100000e-07	-4.417453e-06	-2.409414e-08	-3.186503e+01	-1.579945e+03
3.200000e-07	-4.359902e-06	-2.400336e-08	-3.144989e+01	-1.575019e+03
3.300000e-07	-4.300591e-06	-2.393438e-08	-3.102205e+01	-1.570015e+03
3.400000e-07	-4.239851e-06	-2.386483e-08	-3.058391e+01	-1.564994e+03
3.500000e-07	-4.177691e-06	-2.378095e-08	-3.013552e+01	-1.559960e+03
3.600000e-07	-4.114218e-06	-2.368294e-08	-2.967766e+01	-1.554863e+03
3.700000e-07	-4.049257e-06	-2.360000e-08	-2.920907e+01	-1.549609e+03
3.800000e-07	-3.982588e-06	-2.352939e-08	-2.872816e+01	-1.544099e+03
3.900000e-07	-3.914415e-06	-2.343154e-08	-2.823639e+01	-1.538254e+03
4.000000e-07	-3.844936e-06	-2.332801e-08	-2.773521e+01	-1.532048e+03
4.100000e-07	-3.774213e-06	-2.322872e-08	-2.722505e+01	-1.525513e+03
4.200000e-07	-3.702370e-06	-2.313347e-08	-2.670683e+01	-1.518728e+03
4.300000e-07	-3.629140e-06	-2.303231e-08	-2.617858e+01	-1.511793e+03
4.400000e-07	-3.554211e-06	-2.292561e-08	-2.563809e+01	-1.504795e+03
4.500000e-07	-3.477829e-06	-2.282150e-08	-2.508711e+01	-1.497777e+03
4.600000e-07	-3.400154e-06	-2.270613e-08	-2.452681e+01	-1.490716e+03
4.700000e-07	-3.321158e-06	-2.258342e-08	-2.395697e+01	-1.483533e+03
4.800000e-07	-3.240854e-06	-2.246190e-08	-2.337771e+01	-1.476110e+03
4.900000e-07	-3.159311e-06	-2.234007e-08	-2.278950e+01	-1.468328e+03
5.000000e-07	-3.076639e-06	-2.221350e-08	-2.219315e+01	-1.460102e+03
5.100000e-07	-2.993097e-06	-2.208134e-08	-2.159053e+01	-1.451412e+03
5.200000e-07	-2.908735e-06	-2.195014e-08	-2.098198e+01	-1.442304e+03
5.300000e-07	-2.823391e-06	-2.181141e-08	-2.036636e+01	-1.432878e+03
5.400000e-07	-2.737021e-06	-2.166232e-08	-1.974334e+01	-1.423252e+03
5.500000e-07	-2.649811e-06	-2.151601e-08	-1.911425e+01	-1.413524e+03
5.600000e-07	-2.561777e-06	-2.136771e-08	-1.847922e+01	-1.403729e+03
5.700000e-07	-2.472546e-06	-2.120908e-08	-1.783556e+01	-1.393827e+03
5.800000e-07	-2.382087e-06	-2.103939e-08	-1.718304e+01	-1.383704e+03
5.900000e-07	-2.290753e-06	-2.086836e-08	-1.652421e+01	-1.373202e+03
6.000000e-07	-2.198701e-06	-2.069505e-08	-1.586020e+01	-1.362166e+03
6.100000e-07	-2.105935e-06	-2.051385e-08	-1.519104e+01	-1.350488e+03
6.200000e-07	-2.012447e-06	-2.032674e-08	-1.451666e+01	-1.338142e+03
6.300000e-07	-1.918166e-06	-2.013501e-08	-1.383658e+01	-1.325189e+03
6.400000e-07	-1.823221e-06	-1.993870e-08	-1.315170e+01	-1.311757e+03
6.500000e-07	-1.727803e-06	-1.973327e-08	-1.246340e+01	-1.297996e+03
6.600000e-07	-1.631815e-06	-1.952040e-08	-1.177100e+01	-1.284026e+03
6.700000e-07	-1.535137e-06	-1.930098e-08	-1.107362e+01	-1.269881e+03
6.800000e-07	-1.437769e-06	-1.907442e-08	-1.037126e+01	-1.255491e+03
6.900000e-07	-1.339739e-06	-1.883907e-08	-9.664124e+00	-1.240687e+03
7.000000e-07	-1.241114e-06	-1.859507e-08	-8.952702e+00	-1.225238e+03
7.100000e-07	-1.142059e-06	-1.834422e-08	-8.238171e+00	-1.208914e+03
7.200000e-07	-1.042714e-06	-1.808225e-08	-7.521552e+00	-1.191546e+03
7.300000e-07	-9.430964e-07	-1.780573e-08	-6.802969e+00	-1.173070e+03
7.400000e-07	-8.432316e-07	-1.751565e-08	-6.082600e+00	-1.153543e+03
7.500000e-07	-7.431033e-07	-1.721463e-08	-5.360331e+00	-1.133103e+03
7.600000e-07	-6.427399e-07	-1.690029e-08	-4.636365e+00	-1.111913e+03
7.700000e-07	-5.421969e-07	-1.656799e-08	-3.911105e+00	-1.090075e+03
7.800000e-07	-4.414538e-07	-1.621781e-08	-3.184400e+00	-1.067562e+03
7.900000e-07	-3.405005e-07	-1.584724e-08	-2.456179e+00	-1.044171e+03
8.000000e-07	-2.394594e-07	-1.545385e-08	-1.727326e+00	-1.019542e+03
8.100000e-07	-1.384045e-07	-1.504092e-08	-9.983722e-01	-9.932120e+02
8.200000e-07	-3.728809e-08	-1.460516e-08	-2.689754e-01	-9.647083e+02
8.300000e-07	6.391354e-08	-1.413743e-08	4.610365e-01	-9.336523e+02
8.400000e-07	1.651602e-07	-1.363101e-08	1.191373e+00	-8.998284e+02
8.500000e-07	2.663236e-07	-1.308501e-08	1.921109e+00	-8.631962e+02
8.600000e-07	3.673564e-07	-1.249963e-08	2.649903e+00	-8.238269e+02
8.700000e-07	4.682614e-07	-1.186841e-08	3.377775e+00	-7.817694e+02
8.800000e-07	5.690258e-07	-1.118194e-08	4.104633e+00	-7.368746e+02
8.900000e-07	6.696461e-07	-1.042925e-08	4.830452e+00	-6.886249e+02
9.000000e-07	7.700790e-07	-9.600407e-09	5.554919e+00	-6.360222e+02
9.100000e-07	8.702666e-07	-8.683682e-09	6.277616e+00	-5.775831e+02
9.200000e-07	9.702241e-07	-7.658451e-09	6.998653e+00	-5.114676e+02
9.300000e-07	1.069937e-06	-6.500985e-09	7.717924e+00	-4.357400e+02
9.400000e-07	1.169360e-06	-5.187379e-09	8.435111e+00	-3.487240e+02
9.500000e-07	1.268420e-06	-3.697184e-09	9.149674e+00	-2.493909e+02
9.600000e-07	1.366929e-06	-2.017117e-09	9.860261e+00	-1.376996e+02
9.700000e-07	1.464728e-06	-1.500781e-10	1.056572e+01	-1.481183e+01
9.800000e-07	1.561745e-06	1.874307e-09	1.126555e+01	1.168731e+02
9.900000e-07	1.658042e-06	3.998220e-09	1.196018e+01	2.538885e+02
1.000000e-06	1.753739e-06	6.140634e-09	1.265049e+01	3.920551e+02
1.010000e-06	1.848812e-06	8.215365e-09	1.333630e+01	5.269648e+02
1.020000e-06	1.943247e-06	1.014858e-08	1.401749e+01	6.545063e+02
1.030000e-06	2.037015e-06	1.189198e-08	1.469388e+01	7.713421e+02
1.040000e-06	2.130069e-06	1.342606e-08	1.536513e+01	8.752494e+02
1.050000e-06	2.222456e-06	1.475182e-08	1.603155e+01	9.652740e+02
1.060000e-06	2.314243e-06	1.588579e-08	1.669365e+01	1.041678e+03
1.070000e-06	2.405331e-06	1.685253e-08	1.735071e+01	1.105707e+03
1.080000e-06	2.495408e-06	1.767702e-08	1.800048e+01	1.159242e+03
1.090000e-06	2.584295e-06	1.838031e-08	1.864165e+01	1.204404e+03
1.100000e-06	2.672127e-06	1.898432e-08	1.927523e+01	1.243196e+03
1.110000e-06	2.759074e-06	1.950946e-08	1.990241e+01	1.277249e+03
1.120000e-06	2.845147e-06	1.996831e-08	2.052329e+01	1.307698e+03
1.130000e-06	2.930296e-06	2.037036e-08	2.113752e+01	1.335195e+03
1.140000e-06	3.014541e-06	2.072606e-08	2.174521e+01	1.360021e+03
1.150000e-06	3.097934e-06	2.104426e-08	2.234676e+01	1.382258e+03
1.160000e-06	3.180265e-06	2.133116e-08	2.294065e+01	1.401961e+03
1.170000e-06	3.261296e-06	2.159204e-08	2.352516e+01	1.419283e+03
1.180000e-06	3.341137e-06	2.182912e-08	2.410109e+01	1.434526e+03
1.190000e-06	3.419855e-06	2.204840e-08	2.466892e+01	1.448129e+03
1.200000e-06	3.497360e-06	2.225123e-08	2.522800e+01	1.460580e+03
1.210000e-06	3.573632e-06	2.243771e-08	2.577818e+01	1.472324e+03
1.220000e-06	3.648488e-06	2.261132e-08	2.631814e+01	1.483673e+03
1.230000e-06	3.721719e-06	2.277557e-08	2.684639e+01	1.494754e+03
1.240000e-06	3.793458e-06	2.293050e-08	2.736388e+01	1.505513e+03
1.250000e-06	3.863873e-06	2.307606e-08	2.787181e+01	1.515774e+03
1.260000e-06	3.932927e-06	2.321122e-08	2.836993e+01	1.525317e+03
1.270000e-06	4.000736e-06	2.333597e-08	2.885907e+01	1.533970e+03
1.280000e-06	4.067162e-06	2.345264e-08	2.933823e+01	1.541672e+03
1.290000e-06	4.131845e-06	2.356182e-08	2.980481e+01	1.548502e+03
1.300000e-06	4.194995e-06	2.366510e-08	3.026034e+01	1.554658e+03
1.310000e-06	4.256799e-06	2.376097e-08	3.070616e+01	1.560402e+03
1.320000e-06	4.317245e-06	2.384991e-08	3.114219e+01	1.565986e+03
1.330000e-06	4.376325e-06	2.393364e-08	3.156835e+01	1.571588e+03
1.340000e-06	4.433657e-06	2.401437e-08	3.198192e+01	1.577268e+03
1.350000e-06	4.489201e-06	2.409407e-08	3.238258e+01	1.582966e+03
1.360000e-06	4.543217e-06	2.417051e-08	3.277222e+01	1.588533e+03
1.370000e-06	4.595527e-06	2.424098e-08	3.314956e+01	1.593788e+03
1.380000e-06	4.645838e-06	2.430694e-08	3.351247e+01	1.598581e+03
1.390000e-06	4.694146e-06	2.437077e-08	3.386094e+01	1.602844e+03
1.400000e-06	4.740734e-06	2.443278e-08	3.419700e+01	1.606607e+03
1.410000e-06	4.785785e-06	2.449205e-08	3.452197e+01	1.609992e+03
1.420000e-06	4.829296e-06	2.454876e-08	3.483584e+01	1.613169e+03
1.430000e-06	4.871046e-06	2.460029e-08	3.513700e+01	1.616303e+03
1.440000e-06	4.910958e-06	2.464739e-08	3.542490e+01	1.619504e+03
1.450000e-06	4.949200e-06	2.469213e-08	3.570076e+01	1.622792e+03
1.460000e-06	4.985874e-06	2.473417e-08	3.596530e+01	1.626095e+03
1.470000e-06	5.020904e-06	2.477330e-08	3.621798e+01	1.629275e+03
1.480000e-06	5.053970e-06	2.480876e-08	3.645651e+01	1.632175e+03
1.490000e-06	5.085152e-06	2.484065e-08	3.668144e+01	1.634668e+03
1.500000e-06	5.114698e-06	2.486946e-08	3.689456e+01	1.636697e+03
1.510000e-06	5.142601e-06	2.489514e-08	3.709584e+01	1.638299e+03
1.520000e-06	5.168573e-06	2.491869e-08	3.728319e+01	1.639586e+03
1.530000e-06	5.192497e-06	2.494112e-08	3.745576e+01	1.640715e+03
1.540000e-06	5.214574e-06	2.496176e-08	3.761502e+01	1.641837e+03
1.550000e-06	5.234956e-06	2.498145e-08	3.776204e+01	1.643055e+03
1.560000e-06	5.253560e-06	2.499952e-08	3.789623e+01	1.644389e+03
1.570000e-06	5.270144e-06	2.501381e-08	3.801587e+01	1.645775e+03
1.580000e-06	5.284781e-06	2.502470e-08	3.812145e+01	1.647086e+03
1.590000e-06	5.297504e-06	2.503354e-08	3.821323e+01	1.648174e+03
1.600000e-06	5.308075e-06	2.504180e-08	3.828948e+01	1.648918e+03
1.610000e-06	5.316502e-06	2.504872e-08	3.835027e+01	1.649266e+03
1.620000e-06	5.323006e-06	2.505330e-08	3.839718e+01	1.649247e+03
1.630000e-06	5.327768e-06	2.505617e-08	3.843153e+01	1.648967e+03
1.640000e-06	5.330751e-06	2.505752e-08	3.845305e+01	1.648577e+03
1.650000e-06	5.331715e-06	2.505819e-08	3.846000e+01	1.648223e+03
1.660000e-06	5.330781e-06	2.505724e-08	3.845326e+01	1.648003e+03
1.670000e-06	5.328196e-06	2.505508e-08	3.843462e+01	1.647936e+03
1.680000e-06	5.324064e-06	2.505230e-08	3.840482e+01	1.647950e+03
1.690000e-06	5.318143e-06	2.504632e-08	3.836210e+01	1.647908e+03
1.700000e-06	5.310291e-06	2.503663e-08	3.830546e+01	1.647646e+03
1.710000e-06	5.300814e-06	2.502522e-08	3.823710e+01	1.647021e+03
1.720000e-06	5.289767e-06	2.501828e-08	3.815741e+01	1.645958e+03
1.730000e-06	5.276893e-06	2.502349e-08	3.806455e+01	1.644474e+03
1.740000e-06	5.261979e-06	2.499136e-08	3.795697e+01	1.642676e+03
1.750000e-06	5.244867e-06	2.495472e-08	3.783353e+01	1.640734e+03
1.760000e-06	5.225269e-06	2.492963e-08	3.769216e+01	1.638834e+03
1.770000e-06	5.203147e-06	2.489001e-08	3.753259e+01	1.637127e+03
1.780000e-06	5.179314e-06	2.490094e-08	3.736067e+01	1.635690e+03
1.790000e-06	5.154670e-06	2.486717e-08	3.718290e+01	1.634506e+03
1.800000e-06	5.128922e-06	2.483242e-08	3.699717e+01	1.633472e+03
1.810000e-06	5.101292e-06	2.488390e-08	3.679786e+01	1.632425e+03
1.820000e-06	5.071818e-06	2.477942e-08	3.658525e+01	1.631192e+03
1.830000e-06	5.040583e-06	2.470254e-08	3.635994e+01	1.629637e+03
1.840000e-06	5.007373e-06	2.481903e-08	3.612038e+01	1.627685e+03
1.850000e-06	4.972554e-06	2.482142e-08	3.586922e+01	1.625347e+03
1.860000e-06	4.936067e-06	2.476025e-08	3.560602e+01	1.622696e+03
1.870000e-06	4.897479e-06	2.468049e-08	3.532767e+01	1.619843e+03
1.880000e-06	4.857187e-06	2.460831e-08	3.503703e+01	1.616896e+03
1.890000e-06	4.815261e-06	2.464419e-08	3.473460e+01	1.613923e+03
1.900000e-06	4.771604e-06	2.455021e-08	3.441968e+01	1.610931e+03
1.910000e-06	4.726233e-06	2.444399e-08	3.409240e+01	1.607867e+03
1.920000e-06	4.678995e-06	2.448370e-08	3.375164e+01	1.604636e+03
1.930000e-06	4.630120e-06	2.445342e-08	3.339909e+01	1.601136e+03
1.940000e-06	4.579580e-06	2.438609e-08	3.303452e+01	1.597290e+03
1.950000e-06	4.527111e-06	2.428019e-08	3.265604e+01	1.593074e+03
1.960000e-06	4.472733e-06	2.421564e-08	3.226379e+01	1.588522e+03
1.970000e-06	4.416516e-06	2.420685e-08	3.185827e+01	1.583717e+03
1.980000e-06	4.358667e-06	2.408537e-08	3.144098e+01	1.578763e+03
1.990000e-06	4.299420e-06	2.399892e-08	3.101361e+01	1.573750e+03
2.000000e-06	4.238730e-06	2.395920e-08	3.057582e+01	1.568727e+03
2.010000e-06	4.176378e-06	2.388800e-08	3.012605e+01	1.563684e+03
2.020000e-06	4.112333e-06	2.378573e-08	2.966406e+01	1.558556e+03
2.030000e-06	4.046868e-06	2.367176e-08	2.919184e+01	1.553246e+03
2.040000e-06	3.980062e-06	2.362670e-08	2.870994e+01	1.547657e+03
2.050000e-06	3.911908e-06	2.354769e-08	2.821831e+01	1.541722e+03
2.060000e-06	3.842228e-06	2.343359e-08	2.771568e+01	1.535428e+03
2.070000e-06	3.771028e-06	2.333887e-08	2.720208e+01	1.528821e+03
2.080000e-06	3.698568e-06	2.324892e-08	2.667940e+01	1.521988e+03
2.090000e-06	3.624798e-06	2.315543e-08	2.614726e+01	1.515030e+03
2.100000e-06	3.549743e-06	2.302707e-08	2.560586e+01	1.508025e+03
2.110000e-06	3.473300e-06	2.292531e-08	2.505444e+01	1.500999e+03
2.120000e-06	3.395268e-06	2.282616e-08	2.449156e+01	1.493917e+03
2.130000e-06	3.315884e-06	2.270750e-08	2.391893e+01	1.486685e+03
2.140000e-06	3.235387e-06	2.258810e-08	2.333827e+01	1.479182e+03
2.150000e-06	3.153813e-06	2.246912e-08	2.274984e+01	1.471294e+03
2.160000e-06	3.071167e-06	2.235185e-08	2.215367e+01	1.462951e+03
2.170000e-06	2.987549e-06	2.220986e-08	2.155050e+01	1.454149e+03
2.180000e-06	2.902863e-06	2.207465e-08	2.093963e+01	1.444950e+03
2.190000e-06	2.816858e-06	2.194469e-08	2.031924e+01	1.435462e+03
2.200000e-06	2.729675e-06	2.180320e-08	1.969035e+01	1.425803e+03
2.210000e-06	2.641536e-06	2.165205e-08	1.905456e+01	1.416057e+03
2.220000e-06	2.552481e-06	2.149976e-08	1.841217e+01	1.406242e+03
2.230000e-06	2.462547e-06	2.135290e-08	1.776344e+01	1.396297e+03
2.240000e-06	2.371884e-06	2.119337e-08	1.710944e+01	1.386093e+03
2.250000e-06	2.280574e-06	2.102709e-08	1.645078e+01	1.375470e+03
2.260000e-06	2.188585e-06	2.085794e-08	1.578722e+01	1.364280e+03
2.270000e-06	2.095721e-06	2.068073e-08	1.511736e+01	1.352434e+03
2.280000e-06	2.001837e-06	2.049159e-08	1.444013e+01	1.339926e+03
2.290000e-06	1.907066e-06	2.029582e-08	1.375651e+01	1.326839e+03
2.300000e-06	1.811591e-06	2.010166e-08	1.306780e+01	1.313311e+03
2.310000e-06	1.715566e-06	1.990357e-08	1.237513e+01	1.299489e+03
2.320000e-06	1.619053e-06	1.969226e-08	1.167894e+01	1.285474e+03
2.330000e-06	1.522011e-06	1.947124e-08	1.097893e+01	1.271278e+03
2.340000e-06	1.424427e-06	1.924384e-08	1.027502e+01	1.256803e+03
2.350000e-06	1.326371e-06	1.900274e-08	9.567695e+00	1.241860e+03
2.360000e-06	1.227879e-06	1.875070e-08	8.857229e+00	1.226213e+03
2.370000e-06	1.129045e-06	1.849238e-08	8.144300e+00	1.209639e+03
2.380000e-06	1.029928e-06	1.822930e-08	7.429323e+00	1.191994e+03
2.390000e-06	9.305274e-07	1.795575e-08	6.712303e+00	1.173246e+03
2.400000e-06	8.309034e-07	1.766579e-08	5.993671e+00	1.153474e+03
2.410000e-06	7.310878e-07	1.736298e-08	5.273657e+00	1.132831e+03
2.420000e-06	6.310607e-07	1.704556e-08	4.552118e+00	1.111473e+03
2.430000e-06	5.308214e-07	1.670859e-08	3.829048e+00	1.089475e+03
2.440000e-06	4.304292e-07	1.635356e-08	3.104875e+00	1.066767e+03
2.450000e-06	3.299055e-07	1.598308e-08	2.379753e+00	1.043106e+03
2.460000e-06	2.292210e-07	1.558964e-08	1.653472e+00	1.018097e+03
2.470000e-06	1.284069e-07	1.516830e-08	9.262557e-01	9.912645e+02
2.480000e-06	2.751209e-08	1.472039e-08	1.984568e-01	9.621521e+02
2.490000e-06	-7.340852e-08	1.424442e-08	-5.295279e-01	9.304165e+02
2.500000e-06	-1.742652e-07	1.373295e-08	-1.257051e+00	8.958876e+02
2.510000e-06	-2.750675e-07	1.318087e-08	-1.984183e+00	8.585619e+02
2.520000e-06	-3.757660e-07	1.258726e-08	-2.710566e+00	8.185198e+02
2.530000e-06	-4.763226e-07	1.194574e-08	-3.435924e+00	7.757780e+02
2.540000e-06	-5.767376e-07	1.124663e-08	-4.160262e+00	7.301099e+02
2.550000e-06	-6.769805e-07	1.047908e-08	-4.883358e+00	6.808847e+02
2.560000e-06	-7.770459e-07	9.632271e-09	-5.605174e+00	6.269785e+02
2.570000e-06	-8.768956e-07	8.693913e-09	-6.325433e+00	5.668012e+02
2.580000e-06	-9.764474e-07	7.645570e-09	-7.043544e+00	4.984600e+02
2.590000e-06	-1.075653e-06	6.462865e-09	-7.759161e+00	4.200480e+02
2.600000e-06	-1.174548e-06	5.121330e-09	-8.472532e+00	3.300150e+02
2.610000e-06	-1.273114e-06	3.600252e-09	-9.183532e+00	2.275510e+02
2.620000e-06	-1.371251e-06	1.887536e-09	-9.891433e+00	1.129017e+02
2.630000e-06	-1.468881e-06	-1.201119e-11	-1.059569e+01	-1.245712e+01
2.640000e-06	-1.565950e-06	-2.062615e-09	-1.129589e+01	-1.458355e+02
2.650000e-06	-1.662472e-06	-4.199993e-09	-1.199214e+01	-2.835490e+02
2.660000e-06	-1.758561e-06	-6.345477e-09	-1.268527e+01	-4.213127e+02
2.670000e-06	-1.854157e-06	-8.415573e-09	-1.337485e+01	-5.547435e+02
2.680000e-06	-1.949003e-06	-1.033725e-08	-1.405901e+01	-6.798832e+02
2.690000e-06	-2.042853e-06	-1.206194e-08	-1.473600e+01	-7.936473e+02
2.700000e-06	-2.135721e-06	-1.357288e-08	-1.540589e+01	-8.941242e+02
2.710000e-06	-2.227834e-06	-1.487844e-08	-1.607034e+01	-9.806760e+02
2.720000e-06	-2.319228e-06	-1.599701e-08	-1.672961e+01	-1.053839e+03
2.730000e-06	-2.409781e-06	-1.695122e-08	-1.738281e+01	-1.115053e+03
2.740000e-06	-2.499421e-06	-1.776547e-08	-1.802942e+01	-1.166296e+03
2.750000e-06	-2.588168e-06	-1.846236e-08	-1.866960e+01	-1.209689e+03
2.760000e-06	-2.676205e-06	-1.906121e-08	-1.930465e+01	-1.247162e+03
2.770000e-06	-2.763487e-06	-1.957779e-08	-1.993425e+01	-1.280228e+03
2.780000e-06	-2.849652e-06	-2.002779e-08	-2.055579e+01	-1.309896e+03
2.790000e-06	-2.934578e-06	-2.042581e-08	-2.116840e+01	-1.336711e+03
2.800000e-06	-3.018439e-06	-2.078021e-08	-2.177332e+01	-1.360886e+03
2.810000e-06	-3.101327e-06	-2.109661e-08	-2.237123e+01	-1.382483e+03
2.820000e-06	-3.183196e-06	-2.138087e-08	-2.296180e+01	-1.401572e+03
2.830000e-06	-3.264033e-06	-2.163933e-08	-2.354491e+01	-1.418340e+03
2.840000e-06	-3.343800e-06	-2.187735e-08	-2.412030e+01	-1.433129e+03
2.850000e-06	-3.422212e-06	-2.209860e-08	-2.468592e+01	-1.446398e+03
2.860000e-06	-3.499088e-06	-2.230483e-08	-2.524046e+01	-1.458635e+03
2.870000e-06	-3.574597e-06	-2.249420e-08	-2.578514e+01	-1.470260e+03
2.880000e-06	-3.648776e-06	-2.266775e-08	-2.632022e+01	-1.481538e+03
2.890000e-06	-3.721604e-06	-2.282776e-08	-2.684557e+01	-1.492549e+03
2.900000e-06	-3.793210e-06	-2.297769e-08	-2.736209e+01	-1.503205e+03
2.910000e-06	-3.863345e-06	-2.311979e-08	-2.786801e+01	-1.513307e+03
2.920000e-06	-3.931901e-06	-2.325431e-08	-2.836253e+01	-1.522641e+03
2.930000e-06	-3.999137e-06	-2.338086e-08	-2.884754e+01	-1.531057e+03
2.940000e-06	-4.065027e-06	-2.349942e-08	-2.932283e+01	-1.538529e+03
