# Temperatura_=_63.25
# Concentracion g/m^3_=_41000.0
# C_Vs_to_Am_M_A/Vsm_=_65563218390.804596
# pendiente_HvsI_1/m_=_3716.3
# ordenada_HvsI_A/m_=_1297.0
# frecuencia_Hz_=_301634.87017457414

Tiempo_(s)	Campo_(V.s)	Magnetizacion_(V.s)	Campo_(kA/m)	Magnetizacion_(A/m)
0.000000e+00	-5.305200e-06	-2.149584e-08	-3.833697e+01	-1.405436e+03
1.000000e-08	-5.303012e-06	-2.149451e-08	-3.832116e+01	-1.405313e+03
2.000000e-08	-5.298932e-06	-2.148600e-08	-3.829168e+01	-1.405240e+03
3.000000e-08	-5.293288e-06	-2.147880e-08	-3.825089e+01	-1.405139e+03
4.000000e-08	-5.286109e-06	-2.147027e-08	-3.819901e+01	-1.404905e+03
5.000000e-08	-5.277257e-06	-2.145734e-08	-3.813505e+01	-1.404443e+03
6.000000e-08	-5.266358e-06	-2.144251e-08	-3.805629e+01	-1.403693e+03
7.000000e-08	-5.253524e-06	-2.141771e-08	-3.796355e+01	-1.402656e+03
8.000000e-08	-5.238781e-06	-2.141045e-08	-3.785701e+01	-1.401386e+03
9.000000e-08	-5.221643e-06	-2.146061e-08	-3.773316e+01	-1.399979e+03
1.000000e-07	-5.202312e-06	-2.143844e-08	-3.759347e+01	-1.398544e+03
1.100000e-07	-5.181211e-06	-2.137501e-08	-3.744099e+01	-1.397169e+03
1.200000e-07	-5.158439e-06	-2.134593e-08	-3.727643e+01	-1.395897e+03
1.300000e-07	-5.134353e-06	-2.122078e-08	-3.710238e+01	-1.394714e+03
1.400000e-07	-5.108805e-06	-2.124887e-08	-3.691776e+01	-1.393554e+03
1.500000e-07	-5.081381e-06	-2.134937e-08	-3.671959e+01	-1.392322e+03
1.600000e-07	-5.052400e-06	-2.118316e-08	-3.651017e+01	-1.390920e+03
1.700000e-07	-5.022031e-06	-2.124060e-08	-3.629071e+01	-1.389279e+03
1.800000e-07	-4.989773e-06	-2.127778e-08	-3.605760e+01	-1.387377e+03
1.900000e-07	-4.955356e-06	-2.104122e-08	-3.580889e+01	-1.385242e+03
2.000000e-07	-4.919358e-06	-2.108547e-08	-3.554876e+01	-1.382943e+03
2.100000e-07	-4.881808e-06	-2.108267e-08	-3.527742e+01	-1.380561e+03
2.200000e-07	-4.842491e-06	-2.096173e-08	-3.499330e+01	-1.378164e+03
2.300000e-07	-4.801348e-06	-2.100745e-08	-3.469599e+01	-1.375784e+03
2.400000e-07	-4.758198e-06	-2.095369e-08	-3.438417e+01	-1.373401e+03
2.500000e-07	-4.713292e-06	-2.089460e-08	-3.405967e+01	-1.370955e+03
2.600000e-07	-4.666635e-06	-2.088153e-08	-3.372251e+01	-1.368356e+03
2.700000e-07	-4.618081e-06	-2.078452e-08	-3.337165e+01	-1.365520e+03
2.800000e-07	-4.567443e-06	-2.077110e-08	-3.300572e+01	-1.362391e+03
2.900000e-07	-4.514796e-06	-2.073215e-08	-3.262528e+01	-1.358958e+03
3.000000e-07	-4.460490e-06	-2.064243e-08	-3.223285e+01	-1.355261e+03
3.100000e-07	-4.404640e-06	-2.059429e-08	-3.182926e+01	-1.351378e+03
3.200000e-07	-4.347051e-06	-2.055080e-08	-3.141310e+01	-1.347397e+03
3.300000e-07	-4.287696e-06	-2.049115e-08	-3.098418e+01	-1.343392e+03
3.400000e-07	-4.226847e-06	-2.040828e-08	-3.054447e+01	-1.339396e+03
3.500000e-07	-4.164608e-06	-2.036352e-08	-3.009471e+01	-1.335392e+03
3.600000e-07	-4.101074e-06	-2.028828e-08	-2.963560e+01	-1.331316e+03
3.700000e-07	-4.036169e-06	-2.020931e-08	-2.916657e+01	-1.327078e+03
3.800000e-07	-3.969566e-06	-2.015916e-08	-2.868528e+01	-1.322591e+03
3.900000e-07	-3.901302e-06	-2.006488e-08	-2.819198e+01	-1.317795e+03
4.000000e-07	-3.831766e-06	-1.999030e-08	-2.768950e+01	-1.312679e+03
4.100000e-07	-3.761011e-06	-1.991866e-08	-2.717820e+01	-1.307285e+03
4.200000e-07	-3.689136e-06	-1.983265e-08	-2.665881e+01	-1.301690e+03
4.300000e-07	-3.615948e-06	-1.974844e-08	-2.612993e+01	-1.295983e+03
4.400000e-07	-3.541055e-06	-1.966712e-08	-2.558873e+01	-1.290237e+03
4.500000e-07	-3.464672e-06	-1.958529e-08	-2.503676e+01	-1.284480e+03
4.600000e-07	-3.387039e-06	-1.948033e-08	-2.447577e+01	-1.278684e+03
4.700000e-07	-3.308105e-06	-1.937618e-08	-2.390537e+01	-1.272774e+03
4.800000e-07	-3.227788e-06	-1.928081e-08	-2.332497e+01	-1.266646e+03
4.900000e-07	-3.146186e-06	-1.918106e-08	-2.273529e+01	-1.260201e+03
5.000000e-07	-3.063468e-06	-1.907753e-08	-2.213754e+01	-1.253373e+03
5.100000e-07	-2.979843e-06	-1.896658e-08	-2.153324e+01	-1.246149e+03
5.200000e-07	-2.895451e-06	-1.885756e-08	-2.092340e+01	-1.238575e+03
5.300000e-07	-2.810159e-06	-1.874150e-08	-2.030706e+01	-1.230737e+03
5.400000e-07	-2.723894e-06	-1.861829e-08	-1.968368e+01	-1.222731e+03
5.500000e-07	-2.636762e-06	-1.850314e-08	-1.905404e+01	-1.214631e+03
5.600000e-07	-2.548775e-06	-1.837785e-08	-1.841822e+01	-1.206458e+03
5.700000e-07	-2.459768e-06	-1.824132e-08	-1.777503e+01	-1.198167e+03
5.800000e-07	-2.369558e-06	-1.809625e-08	-1.712314e+01	-1.189654e+03
5.900000e-07	-2.278287e-06	-1.795174e-08	-1.646359e+01	-1.180785e+03
6.000000e-07	-2.186306e-06	-1.780473e-08	-1.579891e+01	-1.171433e+03
6.100000e-07	-2.093665e-06	-1.765473e-08	-1.512946e+01	-1.161512e+03
6.200000e-07	-2.000221e-06	-1.750188e-08	-1.445420e+01	-1.151006e+03
6.300000e-07	-1.906022e-06	-1.733862e-08	-1.377349e+01	-1.139969e+03
6.400000e-07	-1.811177e-06	-1.716909e-08	-1.308811e+01	-1.128509e+03
6.500000e-07	-1.715730e-06	-1.699214e-08	-1.239838e+01	-1.116745e+03
6.600000e-07	-1.619748e-06	-1.681096e-08	-1.170478e+01	-1.104764e+03
6.700000e-07	-1.523242e-06	-1.662236e-08	-1.100740e+01	-1.092584e+03
6.800000e-07	-1.426117e-06	-1.642549e-08	-1.030555e+01	-1.080138e+03
6.900000e-07	-1.328297e-06	-1.622057e-08	-9.598675e+00	-1.067277e+03
7.000000e-07	-1.229917e-06	-1.600795e-08	-8.887751e+00	-1.053811e+03
7.100000e-07	-1.131047e-06	-1.578764e-08	-8.173283e+00	-1.039555e+03
7.200000e-07	-1.031746e-06	-1.555833e-08	-7.455707e+00	-1.024376e+03
7.300000e-07	-9.321979e-07	-1.531981e-08	-6.736343e+00	-1.008233e+03
7.400000e-07	-8.324131e-07	-1.506891e-08	-6.015268e+00	-9.911762e+02
7.500000e-07	-7.323603e-07	-1.480718e-08	-5.292256e+00	-9.733227e+02
7.600000e-07	-6.320596e-07	-1.453205e-08	-4.567453e+00	-9.548001e+02
7.700000e-07	-5.316055e-07	-1.423981e-08	-3.841542e+00	-9.356823e+02
7.800000e-07	-4.310625e-07	-1.393057e-08	-3.114988e+00	-9.159334e+02
7.900000e-07	-3.303743e-07	-1.360304e-08	-2.387384e+00	-8.953795e+02
8.000000e-07	-2.295708e-07	-1.325777e-08	-1.658948e+00	-8.737198e+02
8.100000e-07	-1.287024e-07	-1.289543e-08	-9.300420e-01	-8.505778e+02
8.200000e-07	-2.772801e-08	-1.251371e-08	-2.003710e-01	-8.255766e+02
8.300000e-07	7.329247e-08	-1.210653e-08	5.296335e-01	-7.984178e+02
8.400000e-07	1.742825e-07	-1.166904e-08	1.259418e+00	-7.689336e+02
8.500000e-07	2.752124e-07	-1.119622e-08	1.988767e+00	-7.370905e+02
8.600000e-07	3.760721e-07	-1.068602e-08	2.717610e+00	-7.029335e+02
8.700000e-07	4.768713e-07	-1.013464e-08	3.446016e+00	-6.664755e+02
8.800000e-07	5.775423e-07	-9.536048e-09	4.173494e+00	-6.275577e+02
8.900000e-07	6.780552e-07	-8.884686e-09	4.899831e+00	-5.857183e+02
9.000000e-07	7.783949e-07	-8.168650e-09	5.624916e+00	-5.401118e+02
9.100000e-07	8.785376e-07	-7.376553e-09	6.348577e+00	-4.895156e+02
9.200000e-07	9.784215e-07	-6.494025e-09	7.070368e+00	-4.324435e+02
9.300000e-07	1.078019e-06	-5.504990e-09	7.790093e+00	-3.673605e+02
9.400000e-07	1.177266e-06	-4.386843e-09	8.507282e+00	-2.929697e+02
9.500000e-07	1.276001e-06	-3.118646e-09	9.220767e+00	-2.085171e+02
9.600000e-07	1.374099e-06	-1.691212e-09	9.929650e+00	-1.140544e+02
9.700000e-07	1.471511e-06	-1.132079e-10	1.063358e+01	-1.059761e+01
9.800000e-07	1.568284e-06	1.587410e-09	1.133289e+01	9.985936e+01
9.900000e-07	1.664409e-06	3.365276e-09	1.202752e+01	2.144913e+02
1.000000e-06	1.759881e-06	5.153363e-09	1.271743e+01	3.299313e+02
1.010000e-06	1.854727e-06	6.883064e-09	1.340282e+01	4.426564e+02
1.020000e-06	1.948954e-06	8.498177e-09	1.408373e+01	5.494005e+02
1.030000e-06	2.042504e-06	9.961549e-09	1.475975e+01	6.475229e+02
1.040000e-06	2.135333e-06	1.125941e-08	1.543056e+01	7.352680e+02
1.050000e-06	2.227490e-06	1.239299e-08	1.609651e+01	8.118759e+02
1.060000e-06	2.319045e-06	1.337380e-08	1.675812e+01	8.775339e+02
1.070000e-06	2.409774e-06	1.421631e-08	1.741376e+01	9.331913e+02
1.080000e-06	2.499439e-06	1.494074e-08	1.806170e+01	9.802851e+02
1.090000e-06	2.588057e-06	1.556521e-08	1.870208e+01	1.020437e+03
1.100000e-06	2.675689e-06	1.610647e-08	1.933534e+01	1.055181e+03
1.110000e-06	2.762407e-06	1.657541e-08	1.996199e+01	1.085774e+03
1.120000e-06	2.848250e-06	1.698499e-08	2.058231e+01	1.113104e+03
1.130000e-06	2.933188e-06	1.734650e-08	2.119610e+01	1.137701e+03
1.140000e-06	3.017244e-06	1.766733e-08	2.180351e+01	1.159828e+03
1.150000e-06	3.100387e-06	1.795447e-08	2.240433e+01	1.179605e+03
1.160000e-06	3.182364e-06	1.821179e-08	2.299672e+01	1.197136e+03
1.170000e-06	3.263081e-06	1.844544e-08	2.358000e+01	1.212595e+03
1.180000e-06	3.342627e-06	1.865855e-08	2.415483e+01	1.226265e+03
1.190000e-06	3.421001e-06	1.885496e-08	2.472118e+01	1.238514e+03
1.200000e-06	3.498164e-06	1.903465e-08	2.527879e+01	1.249733e+03
1.210000e-06	3.574143e-06	1.920098e-08	2.582783e+01	1.260268e+03
1.220000e-06	3.648702e-06	1.935671e-08	2.636662e+01	1.270352e+03
1.230000e-06	3.721653e-06	1.950371e-08	2.689378e+01	1.280075e+03
1.240000e-06	3.793170e-06	1.963889e-08	2.741059e+01	1.289397e+03
1.250000e-06	3.863388e-06	1.976324e-08	2.791800e+01	1.298187e+03
1.260000e-06	3.932318e-06	1.987789e-08	2.841612e+01	1.306296e+03
1.270000e-06	3.999942e-06	1.998399e-08	2.890478e+01	1.313621e+03
1.280000e-06	4.066039e-06	2.008312e-08	2.938242e+01	1.320145e+03
1.290000e-06	4.130459e-06	2.017690e-08	2.984794e+01	1.325962e+03
1.300000e-06	4.193348e-06	2.026708e-08	3.030239e+01	1.331247e+03
1.310000e-06	4.254845e-06	2.035099e-08	3.074679e+01	1.336217e+03
1.320000e-06	4.315078e-06	2.042855e-08	3.118205e+01	1.341069e+03
1.330000e-06	4.373916e-06	2.050067e-08	3.160724e+01	1.345932e+03
1.340000e-06	4.430980e-06	2.057005e-08	3.201959e+01	1.350840e+03
1.350000e-06	4.486311e-06	2.063798e-08	3.241943e+01	1.355731e+03
1.360000e-06	4.540107e-06	2.070432e-08	3.280818e+01	1.360476e+03
1.370000e-06	4.592134e-06	2.076692e-08	3.318415e+01	1.364928e+03
1.380000e-06	4.642085e-06	2.082444e-08	3.354510e+01	1.368969e+03
1.390000e-06	4.690095e-06	2.087874e-08	3.389204e+01	1.372547e+03
1.400000e-06	4.736466e-06	2.093117e-08	3.422713e+01	1.375694e+03
1.410000e-06	4.781300e-06	2.098166e-08	3.455111e+01	1.378511e+03
1.420000e-06	4.824581e-06	2.102906e-08	3.486388e+01	1.381137e+03
1.430000e-06	4.865971e-06	2.107084e-08	3.516297e+01	1.383705e+03
1.440000e-06	4.905521e-06	2.110712e-08	3.544877e+01	1.386304e+03
1.450000e-06	4.943479e-06	2.114118e-08	3.572307e+01	1.388955e+03
1.460000e-06	4.979913e-06	2.117508e-08	3.598635e+01	1.391606e+03
1.470000e-06	5.014743e-06	2.120796e-08	3.623804e+01	1.394153e+03
1.480000e-06	5.047605e-06	2.123893e-08	3.647551e+01	1.396480e+03
1.490000e-06	5.078621e-06	2.126758e-08	3.669965e+01	1.398490e+03
1.500000e-06	5.107993e-06	2.129348e-08	3.691190e+01	1.400144e+03
1.510000e-06	5.135696e-06	2.131589e-08	3.711209e+01	1.401466e+03
1.520000e-06	5.161460e-06	2.133575e-08	3.729827e+01	1.402543e+03
1.530000e-06	5.185173e-06	2.135341e-08	3.746962e+01	1.403490e+03
1.540000e-06	5.207087e-06	2.136900e-08	3.762798e+01	1.404423e+03
1.550000e-06	5.227344e-06	2.138448e-08	3.777436e+01	1.405416e+03
1.560000e-06	5.245786e-06	2.139986e-08	3.790763e+01	1.406487e+03
1.570000e-06	5.262198e-06	2.141346e-08	3.802623e+01	1.407590e+03
1.580000e-06	5.276685e-06	2.142526e-08	3.813091e+01	1.408635e+03
1.590000e-06	5.289242e-06	2.143615e-08	3.822166e+01	1.409513e+03
1.600000e-06	5.299606e-06	2.144560e-08	3.829655e+01	1.410139e+03
1.610000e-06	5.307827e-06	2.145278e-08	3.835596e+01	1.410469e+03
1.620000e-06	5.314148e-06	2.145762e-08	3.840163e+01	1.410524e+03
1.630000e-06	5.318725e-06	2.146097e-08	3.843471e+01	1.410375e+03
1.640000e-06	5.321488e-06	2.146312e-08	3.845467e+01	1.410123e+03
1.650000e-06	5.322225e-06	2.146581e-08	3.846000e+01	1.409871e+03
1.660000e-06	5.321088e-06	2.146380e-08	3.845178e+01	1.409685e+03
1.670000e-06	5.318310e-06	2.145969e-08	3.843171e+01	1.409578e+03
1.680000e-06	5.313996e-06	2.145849e-08	3.840054e+01	1.409507e+03
1.690000e-06	5.307820e-06	2.145351e-08	3.835590e+01	1.409382e+03
1.700000e-06	5.299764e-06	2.144588e-08	3.829769e+01	1.409098e+03
1.710000e-06	5.290245e-06	2.143933e-08	3.822891e+01	1.408567e+03
1.720000e-06	5.279152e-06	2.143871e-08	3.814874e+01	1.407743e+03
1.730000e-06	5.266196e-06	2.143954e-08	3.805512e+01	1.406640e+03
1.740000e-06	5.251184e-06	2.134218e-08	3.794664e+01	1.405325e+03
1.750000e-06	5.233865e-06	2.131165e-08	3.782149e+01	1.403901e+03
1.760000e-06	5.214037e-06	2.134073e-08	3.767820e+01	1.402473e+03
1.770000e-06	5.191739e-06	2.134182e-08	3.751707e+01	1.401121e+03
1.780000e-06	5.167811e-06	2.144812e-08	3.734416e+01	1.399874e+03
1.790000e-06	5.143173e-06	2.131116e-08	3.716612e+01	1.398704e+03
1.800000e-06	5.117377e-06	2.119927e-08	3.697971e+01	1.397535e+03
1.810000e-06	5.089597e-06	2.133851e-08	3.677896e+01	1.396269e+03
1.820000e-06	5.060027e-06	2.115570e-08	3.656528e+01	1.394811e+03
1.830000e-06	5.028719e-06	2.112958e-08	3.633904e+01	1.393104e+03
1.840000e-06	4.995408e-06	2.132517e-08	3.609832e+01	1.391139e+03
1.850000e-06	4.960511e-06	2.113758e-08	3.584615e+01	1.388955e+03
1.860000e-06	4.923950e-06	2.115208e-08	3.558195e+01	1.386627e+03
1.870000e-06	4.885283e-06	2.121178e-08	3.530253e+01	1.384236e+03
1.880000e-06	4.844976e-06	2.101432e-08	3.501126e+01	1.381842e+03
1.890000e-06	4.802972e-06	2.106490e-08	3.470773e+01	1.379464e+03
1.900000e-06	4.759234e-06	2.096849e-08	3.439166e+01	1.377072e+03
1.910000e-06	4.713876e-06	2.091783e-08	3.406389e+01	1.374595e+03
1.920000e-06	4.666588e-06	2.101763e-08	3.372217e+01	1.371944e+03
1.930000e-06	4.617698e-06	2.081515e-08	3.336888e+01	1.369038e+03
1.940000e-06	4.567113e-06	2.082450e-08	3.300334e+01	1.365831e+03
1.950000e-06	4.514467e-06	2.081187e-08	3.262290e+01	1.362326e+03
1.960000e-06	4.459882e-06	2.069571e-08	3.222845e+01	1.358574e+03
1.970000e-06	4.403550e-06	2.069995e-08	3.182138e+01	1.354658e+03
1.980000e-06	4.345646e-06	2.057296e-08	3.140295e+01	1.350664e+03
1.990000e-06	4.286359e-06	2.057111e-08	3.097452e+01	1.346660e+03
2.000000e-06	4.225715e-06	2.050001e-08	3.053629e+01	1.342665e+03
2.010000e-06	4.163384e-06	2.039778e-08	3.008587e+01	1.338649e+03
2.020000e-06	4.099330e-06	2.038167e-08	2.962300e+01	1.334541e+03
2.030000e-06	4.033899e-06	2.026236e-08	2.915017e+01	1.330248e+03
2.040000e-06	3.967122e-06	2.024884e-08	2.866762e+01	1.325687e+03
2.050000e-06	3.899076e-06	2.015342e-08	2.817589e+01	1.320809e+03
2.060000e-06	3.829511e-06	2.006385e-08	2.767320e+01	1.315618e+03
2.070000e-06	3.758269e-06	2.002596e-08	2.715839e+01	1.310165e+03
2.080000e-06	3.685773e-06	1.990592e-08	2.663450e+01	1.304533e+03
2.090000e-06	3.612031e-06	1.983625e-08	2.610162e+01	1.298811e+03
2.100000e-06	3.536971e-06	1.972025e-08	2.555922e+01	1.293061e+03
2.110000e-06	3.460526e-06	1.965592e-08	2.500680e+01	1.287298e+03
2.120000e-06	3.382551e-06	1.957536e-08	2.444333e+01	1.281482e+03
2.130000e-06	3.303189e-06	1.946030e-08	2.386984e+01	1.275527e+03
2.140000e-06	3.222651e-06	1.938104e-08	2.328785e+01	1.269328e+03
2.150000e-06	3.141092e-06	1.927199e-08	2.269847e+01	1.262790e+03
2.160000e-06	3.058476e-06	1.917843e-08	2.210147e+01	1.255861e+03
2.170000e-06	2.974851e-06	1.905513e-08	2.149717e+01	1.248543e+03
2.180000e-06	2.890248e-06	1.895224e-08	2.088580e+01	1.240893e+03
2.190000e-06	2.804371e-06	1.884410e-08	2.026523e+01	1.233004e+03
2.200000e-06	2.717204e-06	1.871062e-08	1.963534e+01	1.224969e+03
2.210000e-06	2.629097e-06	1.858755e-08	1.899865e+01	1.216851e+03
2.220000e-06	2.540165e-06	1.846091e-08	1.835599e+01	1.208655e+03
2.230000e-06	2.450308e-06	1.834552e-08	1.770666e+01	1.200319e+03
2.240000e-06	2.359675e-06	1.821006e-08	1.705172e+01	1.191729e+03
2.250000e-06	2.268342e-06	1.807366e-08	1.639172e+01	1.182750e+03
2.260000e-06	2.176313e-06	1.792656e-08	1.572669e+01	1.173260e+03
2.270000e-06	2.083524e-06	1.776792e-08	1.505617e+01	1.163191e+03
2.280000e-06	1.989778e-06	1.760773e-08	1.437874e+01	1.152544e+03
2.290000e-06	1.895142e-06	1.744339e-08	1.369486e+01	1.141390e+03
2.300000e-06	1.799726e-06	1.727991e-08	1.300536e+01	1.129843e+03
2.310000e-06	1.703697e-06	1.710733e-08	1.231142e+01	1.118017e+03
2.320000e-06	1.607253e-06	1.692601e-08	1.161450e+01	1.105988e+03
2.330000e-06	1.510352e-06	1.673379e-08	1.091426e+01	1.093751e+03
2.340000e-06	1.412861e-06	1.653728e-08	1.020976e+01	1.081216e+03
2.350000e-06	1.314893e-06	1.633176e-08	9.501811e+00	1.068223e+03
2.360000e-06	1.216536e-06	1.611702e-08	8.791054e+00	1.054575e+03
2.370000e-06	1.117770e-06	1.589297e-08	8.077344e+00	1.040096e+03
2.380000e-06	1.018746e-06	1.566014e-08	7.361764e+00	1.024676e+03
2.390000e-06	9.195103e-07	1.541770e-08	6.644659e+00	1.008296e+03
2.400000e-06	8.200263e-07	1.516017e-08	5.925757e+00	9.910269e+02
2.410000e-06	7.203378e-07	1.489329e-08	5.205378e+00	9.729946e+02
2.420000e-06	6.204538e-07	1.461625e-08	4.483586e+00	9.543191e+02
2.430000e-06	5.203831e-07	1.432416e-08	3.760445e+00	9.350516e+02
2.440000e-06	4.201314e-07	1.401573e-08	3.035996e+00	9.151226e+02
2.450000e-06	3.197450e-07	1.369015e-08	2.310574e+00	8.943240e+02
2.460000e-06	2.192205e-07	1.334331e-08	1.584153e+00	8.723299e+02
2.470000e-06	1.185093e-07	1.297350e-08	8.563836e-01	8.487560e+02
2.480000e-06	1.767767e-08	1.258136e-08	1.277442e-01	8.232383e+02
2.490000e-06	-8.315649e-08	1.216547e-08	-6.009139e-01	7.955077e+02
2.500000e-06	-1.839115e-07	1.172156e-08	-1.329000e+00	7.654318e+02
2.510000e-06	-2.845640e-07	1.124524e-08	-2.056345e+00	7.330046e+02
2.520000e-06	-3.850935e-07	1.072951e-08	-2.782802e+00	6.982747e+02
2.530000e-06	-4.855036e-07	1.016743e-08	-3.508395e+00	6.612259e+02
2.540000e-06	-5.858152e-07	9.557799e-09	-4.233277e+00	6.216346e+02
2.550000e-06	-6.859710e-07	8.892481e-09	-4.957033e+00	5.789478e+02
2.560000e-06	-7.858814e-07	8.160776e-09	-5.679016e+00	5.322210e+02
2.570000e-06	-8.854918e-07	7.349555e-09	-6.398830e+00	4.801509e+02
2.580000e-06	-9.848049e-07	6.446382e-09	-7.116497e+00	4.212153e+02
2.590000e-06	-1.083842e-06	5.434204e-09	-7.832165e+00	3.539103e+02
2.600000e-06	-1.182560e-06	4.289070e-09	-8.545535e+00	2.770466e+02
2.610000e-06	-1.280845e-06	2.995154e-09	-9.255770e+00	1.900501e+02
2.620000e-06	-1.378610e-06	1.543538e-09	-9.962254e+00	9.320387e+01
2.630000e-06	-1.475822e-06	-5.633861e-11	-1.066473e+01	-1.222670e+01
2.640000e-06	-1.572571e-06	-1.774655e-09	-1.136387e+01	-1.240199e+02
2.650000e-06	-1.668967e-06	-3.562365e-09	-1.206046e+01	-2.391832e+02
2.660000e-06	-1.764889e-06	-5.351098e-09	-1.275362e+01	-3.542723e+02
2.670000e-06	-1.860169e-06	-7.074929e-09	-1.344214e+01	-4.657901e+02
2.680000e-06	-1.954628e-06	-8.679883e-09	-1.412473e+01	-5.705957e+02
2.690000e-06	-2.048164e-06	-1.012876e-08	-1.480065e+01	-6.662507e+02
2.700000e-06	-2.140864e-06	-1.140916e-08	-1.547053e+01	-7.512443e+02
2.710000e-06	-2.232771e-06	-1.252580e-08	-1.613467e+01	-8.250639e+02
2.720000e-06	-2.323879e-06	-1.349247e-08	-1.679305e+01	-8.881092e+02
2.730000e-06	-2.414177e-06	-1.432522e-08	-1.744557e+01	-9.414792e+02
2.740000e-06	-2.503587e-06	-1.504094e-08	-1.809167e+01	-9.866852e+02
2.750000e-06	-2.592205e-06	-1.565739e-08	-1.873205e+01	-1.025350e+03
2.760000e-06	-2.680098e-06	-1.618874e-08	-1.936719e+01	-1.058953e+03
2.770000e-06	-2.767102e-06	-1.664861e-08	-1.999591e+01	-1.088662e+03
2.780000e-06	-2.852999e-06	-1.705190e-08	-2.061663e+01	-1.115272e+03
2.790000e-06	-2.937686e-06	-1.740842e-08	-2.122861e+01	-1.139236e+03
2.800000e-06	-3.021274e-06	-1.772558e-08	-2.183264e+01	-1.160767e+03
2.810000e-06	-3.103907e-06	-1.800989e-08	-2.242977e+01	-1.179972e+03
2.820000e-06	-3.185573e-06	-1.826514e-08	-2.301991e+01	-1.196965e+03
2.830000e-06	-3.266179e-06	-1.849795e-08	-2.360239e+01	-1.211947e+03
2.840000e-06	-3.345598e-06	-1.871240e-08	-2.417630e+01	-1.225226e+03
2.850000e-06	-3.423660e-06	-1.890855e-08	-2.474040e+01	-1.237181e+03
2.860000e-06	-3.500268e-06	-1.908792e-08	-2.529399e+01	-1.248201e+03
2.870000e-06	-3.575466e-06	-1.925243e-08	-2.583740e+01	-1.258607e+03
2.880000e-06	-3.649311e-06	-1.940445e-08	-2.637102e+01	-1.268599e+03
2.890000e-06	-3.721926e-06	-1.954656e-08	-2.689575e+01	-1.278230e+03
2.900000e-06	-3.793344e-06	-1.967945e-08	-2.741185e+01	-1.287434e+03
2.910000e-06	-3.863248e-06	-1.980427e-08	-2.791700e+01	-1.296068e+03
2.920000e-06	-3.931608e-06	-1.992005e-08	-2.841098e+01	-1.303988e+03
2.930000e-06	-3.998611e-06	-2.002706e-08	-2.889517e+01	-1.311110e+03
2.940000e-06	-4.064218e-06	-2.012710e-08	-2.936927e+01	-1.317446e+03
