# Temperatura_=_92.3
# Concentracion g/m^3_=_41000.0
# C_Vs_to_Am_M_A/Vsm_=_65563218390.804596
# pendiente_HvsI_1/m_=_3716.3
# ordenada_HvsI_A/m_=_1297.0
# frecuencia_Hz_=_301637.3606842286

Tiempo_(s)	Campo_(V.s)	Magnetizacion_(V.s)	Campo_(kA/m)	Magnetizacion_(A/m)
0.000000e+00	-5.310605e-06	-2.464817e-08	-3.834155e+01	-1.611083e+03
1.000000e-08	-5.308815e-06	-2.464173e-08	-3.832862e+01	-1.610862e+03
2.000000e-08	-5.305105e-06	-2.463228e-08	-3.830184e+01	-1.610720e+03
3.000000e-08	-5.299755e-06	-2.462233e-08	-3.826321e+01	-1.610569e+03
4.000000e-08	-5.292809e-06	-2.461301e-08	-3.821306e+01	-1.610284e+03
5.000000e-08	-5.284251e-06	-2.459999e-08	-3.815128e+01	-1.609743e+03
6.000000e-08	-5.273734e-06	-2.458360e-08	-3.807534e+01	-1.608860e+03
7.000000e-08	-5.261216e-06	-2.456281e-08	-3.798497e+01	-1.607617e+03
8.000000e-08	-5.246759e-06	-2.454311e-08	-3.788059e+01	-1.606067e+03
9.000000e-08	-5.230011e-06	-2.455788e-08	-3.775967e+01	-1.604316e+03
1.000000e-07	-5.211093e-06	-2.455321e-08	-3.762309e+01	-1.602495e+03
1.100000e-07	-5.190322e-06	-2.449798e-08	-3.747313e+01	-1.600719e+03
1.200000e-07	-5.167772e-06	-2.445566e-08	-3.731032e+01	-1.599052e+03
1.300000e-07	-5.143744e-06	-2.437728e-08	-3.713684e+01	-1.597490e+03
1.400000e-07	-5.118270e-06	-2.432643e-08	-3.695293e+01	-1.595965e+03
1.500000e-07	-5.091008e-06	-2.439262e-08	-3.675610e+01	-1.594367e+03
1.600000e-07	-5.062144e-06	-2.432201e-08	-3.654770e+01	-1.592580e+03
1.700000e-07	-5.031914e-06	-2.427346e-08	-3.632945e+01	-1.590515e+03
1.800000e-07	-4.999922e-06	-2.433010e-08	-3.609848e+01	-1.588141e+03
1.900000e-07	-4.965833e-06	-2.419502e-08	-3.585235e+01	-1.585487e+03
2.000000e-07	-4.930037e-06	-2.411830e-08	-3.559392e+01	-1.582638e+03
2.100000e-07	-4.892664e-06	-2.412734e-08	-3.532409e+01	-1.579698e+03
2.200000e-07	-4.853569e-06	-2.401412e-08	-3.504184e+01	-1.576758e+03
2.300000e-07	-4.812743e-06	-2.397993e-08	-3.474708e+01	-1.573867e+03
2.400000e-07	-4.769891e-06	-2.397207e-08	-3.443770e+01	-1.571008e+03
2.500000e-07	-4.725195e-06	-2.390153e-08	-3.411500e+01	-1.568109e+03
2.600000e-07	-4.678832e-06	-2.388053e-08	-3.378026e+01	-1.565055e+03
2.700000e-07	-4.630566e-06	-2.380488e-08	-3.343179e+01	-1.561729e+03
2.800000e-07	-4.580224e-06	-2.373428e-08	-3.306834e+01	-1.558043e+03
2.900000e-07	-4.527854e-06	-2.368614e-08	-3.269023e+01	-1.553969e+03
3.000000e-07	-4.473778e-06	-2.360152e-08	-3.229982e+01	-1.549542e+03
3.100000e-07	-4.418136e-06	-2.353882e-08	-3.189809e+01	-1.544850e+03
3.200000e-07	-4.360796e-06	-2.349019e-08	-3.148411e+01	-1.540011e+03
3.300000e-07	-4.301698e-06	-2.341710e-08	-3.105743e+01	-1.535128e+03
3.400000e-07	-4.241050e-06	-2.331869e-08	-3.061956e+01	-1.530263e+03
3.500000e-07	-4.178963e-06	-2.324259e-08	-3.017131e+01	-1.525417e+03
3.600000e-07	-4.115512e-06	-2.317329e-08	-2.971321e+01	-1.520528e+03
3.700000e-07	-4.050732e-06	-2.308739e-08	-2.924550e+01	-1.515493e+03
3.800000e-07	-3.984316e-06	-2.301755e-08	-2.876600e+01	-1.510203e+03
3.900000e-07	-3.916283e-06	-2.292363e-08	-2.827481e+01	-1.504572e+03
4.000000e-07	-3.846943e-06	-2.280932e-08	-2.777419e+01	-1.498572e+03
4.100000e-07	-3.776391e-06	-2.271807e-08	-2.726482e+01	-1.492234e+03
4.200000e-07	-3.704649e-06	-2.262384e-08	-2.674685e+01	-1.485642e+03
4.300000e-07	-3.631590e-06	-2.252978e-08	-2.621938e+01	-1.478901e+03
4.400000e-07	-3.556924e-06	-2.243387e-08	-2.568031e+01	-1.472103e+03
4.500000e-07	-3.480704e-06	-2.233871e-08	-2.513002e+01	-1.465292e+03
4.600000e-07	-3.403177e-06	-2.222697e-08	-2.457028e+01	-1.458451e+03
4.700000e-07	-3.324368e-06	-2.210029e-08	-2.400129e+01	-1.451496e+03
4.800000e-07	-3.244296e-06	-2.198201e-08	-2.342319e+01	-1.444309e+03
4.900000e-07	-3.162974e-06	-2.186176e-08	-2.283606e+01	-1.436767e+03
5.000000e-07	-3.080493e-06	-2.174229e-08	-2.224056e+01	-1.428782e+03
5.100000e-07	-2.997007e-06	-2.161510e-08	-2.163781e+01	-1.420331e+03
5.200000e-07	-2.912706e-06	-2.148586e-08	-2.102917e+01	-1.411462e+03
5.300000e-07	-2.827549e-06	-2.135045e-08	-2.041436e+01	-1.402276e+03
5.400000e-07	-2.741406e-06	-2.120683e-08	-1.979242e+01	-1.392896e+03
5.500000e-07	-2.654358e-06	-2.106921e-08	-1.916395e+01	-1.383425e+03
5.600000e-07	-2.566402e-06	-2.092870e-08	-1.852893e+01	-1.373903e+03
5.700000e-07	-2.477442e-06	-2.077637e-08	-1.788665e+01	-1.364292e+03
5.800000e-07	-2.387342e-06	-2.061117e-08	-1.723615e+01	-1.354477e+03
5.900000e-07	-2.296125e-06	-2.043956e-08	-1.657758e+01	-1.344297e+03
6.000000e-07	-2.204103e-06	-2.026358e-08	-1.591320e+01	-1.333591e+03
6.100000e-07	-2.111455e-06	-2.008588e-08	-1.524430e+01	-1.322243e+03
6.200000e-07	-2.018113e-06	-1.990966e-08	-1.457039e+01	-1.310219e+03
6.300000e-07	-1.924013e-06	-1.972829e-08	-1.389101e+01	-1.297575e+03
6.400000e-07	-1.829266e-06	-1.953677e-08	-1.320694e+01	-1.284437e+03
6.500000e-07	-1.733918e-06	-1.933681e-08	-1.251855e+01	-1.270959e+03
6.600000e-07	-1.637918e-06	-1.912933e-08	-1.182546e+01	-1.257266e+03
6.700000e-07	-1.541327e-06	-1.891476e-08	-1.112809e+01	-1.243405e+03
6.800000e-07	-1.444172e-06	-1.869219e-08	-1.042664e+01	-1.229316e+03
6.900000e-07	-1.346373e-06	-1.846081e-08	-9.720553e+00	-1.214836e+03
7.000000e-07	-1.247967e-06	-1.822175e-08	-9.010083e+00	-1.199741e+03
7.100000e-07	-1.149087e-06	-1.797296e-08	-8.296189e+00	-1.183796e+03
7.200000e-07	-1.049802e-06	-1.771463e-08	-7.579366e+00	-1.166828e+03
7.300000e-07	-9.501615e-07	-1.744530e-08	-6.859983e+00	-1.148765e+03
7.400000e-07	-8.502085e-07	-1.716267e-08	-6.138342e+00	-1.129653e+03
7.500000e-07	-7.500444e-07	-1.686860e-08	-5.415176e+00	-1.109631e+03
7.600000e-07	-6.497263e-07	-1.656233e-08	-4.690899e+00	-1.088863e+03
7.700000e-07	-5.492354e-07	-1.623902e-08	-3.965374e+00	-1.067461e+03
7.800000e-07	-4.485849e-07	-1.589655e-08	-3.238696e+00	-1.045413e+03
7.900000e-07	-3.478453e-07	-1.553280e-08	-2.511376e+00	-1.022535e+03
8.000000e-07	-2.469966e-07	-1.514456e-08	-1.783268e+00	-9.984818e+02
8.100000e-07	-1.460454e-07	-1.473635e-08	-1.054420e+00	-9.727976e+02
8.200000e-07	-4.503763e-08	-1.430880e-08	-3.251630e-01	-9.450097e+02
8.300000e-07	5.602656e-08	-1.385386e-08	4.045010e-01	-9.147283e+02
8.400000e-07	1.571182e-07	-1.336325e-08	1.134363e+00	-8.817213e+02
8.500000e-07	2.581610e-07	-1.283317e-08	1.863872e+00	-8.459324e+02
8.600000e-07	3.591199e-07	-1.226121e-08	2.592777e+00	-8.074259e+02
8.700000e-07	4.599869e-07	-1.164258e-08	3.321017e+00	-7.662601e+02
8.800000e-07	5.607100e-07	-1.097148e-08	4.048218e+00	-7.223164e+02
8.900000e-07	6.612911e-07	-1.023770e-08	4.774395e+00	-6.751294e+02
9.000000e-07	7.617341e-07	-9.429436e-09	5.499574e+00	-6.237686e+02
9.100000e-07	8.620254e-07	-8.533381e-09	6.223658e+00	-5.668234e+02
9.200000e-07	9.621233e-07	-7.532640e-09	6.946345e+00	-5.025169e+02
9.300000e-07	1.061925e-06	-6.407286e-09	7.666892e+00	-4.289514e+02
9.400000e-07	1.161296e-06	-5.132261e-09	8.384335e+00	-3.444513e+02
9.500000e-07	1.260140e-06	-3.683201e-09	9.097969e+00	-2.479438e+02
9.600000e-07	1.358363e-06	-2.048236e-09	9.807123e+00	-1.392997e+02
9.700000e-07	1.455945e-06	-2.310460e-10	1.051165e+01	-1.955794e+01
9.800000e-07	1.552937e-06	1.744231e-09	1.121190e+01	1.090237e+02
9.900000e-07	1.649305e-06	3.822977e-09	1.190767e+01	2.431181e+02
1.000000e-06	1.744990e-06	5.926878e-09	1.259849e+01	3.786639e+02
1.010000e-06	1.839982e-06	7.970206e-09	1.328431e+01	5.113311e+02
1.020000e-06	1.934373e-06	9.880344e-09	1.396580e+01	6.370389e+02
1.030000e-06	2.028101e-06	1.160626e-08	1.464250e+01	7.524306e+02
1.040000e-06	2.121085e-06	1.312457e-08	1.531382e+01	8.552239e+02
1.050000e-06	2.213487e-06	1.443707e-08	1.598095e+01	9.443792e+02
1.060000e-06	2.305319e-06	1.555876e-08	1.664396e+01	1.020066e+03
1.070000e-06	2.396310e-06	1.651462e-08	1.730090e+01	1.083448e+03
1.080000e-06	2.486242e-06	1.732875e-08	1.795018e+01	1.136348e+03
1.090000e-06	2.575139e-06	1.802249e-08	1.859200e+01	1.180860e+03
1.100000e-06	2.663050e-06	1.861870e-08	1.922671e+01	1.218988e+03
1.110000e-06	2.750023e-06	1.913555e-08	1.985463e+01	1.252388e+03
1.120000e-06	2.836082e-06	1.958623e-08	2.047597e+01	1.282231e+03
1.130000e-06	2.921201e-06	1.998183e-08	2.109051e+01	1.309199e+03
1.140000e-06	3.005446e-06	2.033279e-08	2.169874e+01	1.333593e+03
1.150000e-06	3.088797e-06	2.064683e-08	2.230052e+01	1.355497e+03
1.160000e-06	3.171007e-06	2.092974e-08	2.289406e+01	1.374949e+03
1.170000e-06	3.252013e-06	2.118688e-08	2.347890e+01	1.392072e+03
1.180000e-06	3.331870e-06	2.142116e-08	2.405546e+01	1.407138e+03
1.190000e-06	3.410561e-06	2.163608e-08	2.462359e+01	1.420553e+03
1.200000e-06	3.488068e-06	2.183538e-08	2.518318e+01	1.432790e+03
1.210000e-06	3.564362e-06	2.201998e-08	2.573401e+01	1.444291e+03
1.220000e-06	3.639314e-06	2.219254e-08	2.627515e+01	1.455378e+03
1.230000e-06	3.712676e-06	2.235587e-08	2.680480e+01	1.466196e+03
1.240000e-06	3.784527e-06	2.250834e-08	2.732356e+01	1.476716e+03
1.250000e-06	3.855014e-06	2.265017e-08	2.783246e+01	1.486775e+03
1.260000e-06	3.924176e-06	2.278251e-08	2.833179e+01	1.496159e+03
1.270000e-06	3.992095e-06	2.290480e-08	2.882215e+01	1.504689e+03
1.280000e-06	4.058561e-06	2.301869e-08	2.930203e+01	1.512292e+03
1.290000e-06	4.123350e-06	2.312831e-08	2.976979e+01	1.519025e+03
1.300000e-06	4.186609e-06	2.323232e-08	3.022651e+01	1.525069e+03
1.310000e-06	4.248444e-06	2.332818e-08	3.067295e+01	1.530677e+03
1.320000e-06	4.308923e-06	2.341694e-08	3.110959e+01	1.536101e+03
1.330000e-06	4.368025e-06	2.349986e-08	3.153630e+01	1.541528e+03
1.340000e-06	4.425404e-06	2.357828e-08	3.195056e+01	1.547036e+03
1.350000e-06	4.481027e-06	2.365347e-08	3.235215e+01	1.552584e+03
1.360000e-06	4.535090e-06	2.372685e-08	3.274247e+01	1.558034e+03
1.370000e-06	4.587450e-06	2.379733e-08	3.312051e+01	1.563212e+03
1.380000e-06	4.637803e-06	2.386407e-08	3.348404e+01	1.567961e+03
1.390000e-06	4.686181e-06	2.392894e-08	3.383333e+01	1.572196e+03
1.400000e-06	4.732883e-06	2.399220e-08	3.417051e+01	1.575929e+03
1.410000e-06	4.778063e-06	2.405326e-08	3.449670e+01	1.579262e+03
1.420000e-06	4.821735e-06	2.411041e-08	3.481200e+01	1.582355e+03
1.430000e-06	4.863594e-06	2.416118e-08	3.511421e+01	1.585371e+03
1.440000e-06	4.903551e-06	2.420708e-08	3.540269e+01	1.588429e+03
1.450000e-06	4.941835e-06	2.425061e-08	3.567910e+01	1.591569e+03
1.460000e-06	4.978552e-06	2.429295e-08	3.594418e+01	1.594739e+03
1.470000e-06	5.013632e-06	2.433338e-08	3.619746e+01	1.597820e+03
1.480000e-06	5.046755e-06	2.436978e-08	3.643660e+01	1.600662e+03
1.490000e-06	5.078001e-06	2.440289e-08	3.666219e+01	1.603134e+03
1.500000e-06	5.107644e-06	2.443324e-08	3.687621e+01	1.605168e+03
1.510000e-06	5.135720e-06	2.446085e-08	3.707891e+01	1.606775e+03
1.520000e-06	5.161915e-06	2.448601e-08	3.726803e+01	1.608047e+03
1.530000e-06	5.185976e-06	2.450847e-08	3.744174e+01	1.609123e+03
1.540000e-06	5.208165e-06	2.452805e-08	3.760195e+01	1.610150e+03
1.550000e-06	5.228685e-06	2.454617e-08	3.775010e+01	1.611237e+03
1.560000e-06	5.247475e-06	2.456293e-08	3.788576e+01	1.612425e+03
1.570000e-06	5.264300e-06	2.457679e-08	3.800723e+01	1.613675e+03
1.580000e-06	5.279115e-06	2.458969e-08	3.811419e+01	1.614887e+03
1.590000e-06	5.291984e-06	2.460213e-08	3.820711e+01	1.615932e+03
1.600000e-06	5.302728e-06	2.461228e-08	3.828468e+01	1.616693e+03
1.610000e-06	5.311302e-06	2.461891e-08	3.834658e+01	1.617106e+03
1.620000e-06	5.317966e-06	2.462376e-08	3.839469e+01	1.617175e+03
1.630000e-06	5.322879e-06	2.462788e-08	3.843016e+01	1.616975e+03
1.640000e-06	5.325950e-06	2.463041e-08	3.845234e+01	1.616626e+03
1.650000e-06	5.327012e-06	2.463209e-08	3.846000e+01	1.616254e+03
1.660000e-06	5.326197e-06	2.463191e-08	3.845412e+01	1.615954e+03
1.670000e-06	5.323770e-06	2.462859e-08	3.843659e+01	1.615757e+03
1.680000e-06	5.319778e-06	2.462425e-08	3.840777e+01	1.615621e+03
1.690000e-06	5.313993e-06	2.461722e-08	3.836600e+01	1.615449e+03
1.700000e-06	5.306315e-06	2.460730e-08	3.831057e+01	1.615110e+03
1.710000e-06	5.297004e-06	2.459702e-08	3.824335e+01	1.614488e+03
1.720000e-06	5.286096e-06	2.458899e-08	3.816459e+01	1.613513e+03
1.730000e-06	5.273411e-06	2.458222e-08	3.807301e+01	1.612185e+03
1.740000e-06	5.258739e-06	2.452963e-08	3.796708e+01	1.610571e+03
1.750000e-06	5.241855e-06	2.447197e-08	3.784519e+01	1.608790e+03
1.760000e-06	5.222520e-06	2.447997e-08	3.770559e+01	1.606971e+03
1.770000e-06	5.200610e-06	2.447648e-08	3.754740e+01	1.605217e+03
1.780000e-06	5.176896e-06	2.451387e-08	3.737619e+01	1.603578e+03
1.790000e-06	5.152423e-06	2.448373e-08	3.719951e+01	1.602033e+03
1.800000e-06	5.126951e-06	2.434312e-08	3.701560e+01	1.600500e+03
1.810000e-06	5.099587e-06	2.437971e-08	3.681804e+01	1.598865e+03
1.820000e-06	5.070278e-06	2.431892e-08	3.660643e+01	1.597014e+03
1.830000e-06	5.039193e-06	2.418345e-08	3.638201e+01	1.594871e+03
1.840000e-06	5.006169e-06	2.428976e-08	3.614357e+01	1.592420e+03
1.850000e-06	4.971495e-06	2.424380e-08	3.589323e+01	1.589708e+03
1.860000e-06	4.935188e-06	2.414454e-08	3.563111e+01	1.586825e+03
1.870000e-06	4.896820e-06	2.421650e-08	3.535410e+01	1.583877e+03
1.880000e-06	4.856718e-06	2.410070e-08	3.506457e+01	1.580946e+03
1.890000e-06	4.814976e-06	2.403440e-08	3.476320e+01	1.578066e+03
1.900000e-06	4.771478e-06	2.401803e-08	3.444916e+01	1.575205e+03
1.910000e-06	4.726345e-06	2.390893e-08	3.412330e+01	1.572278e+03
1.920000e-06	4.679320e-06	2.394914e-08	3.378379e+01	1.569165e+03
1.930000e-06	4.630596e-06	2.386583e-08	3.343201e+01	1.565754e+03
1.940000e-06	4.580237e-06	2.378571e-08	3.306843e+01	1.561971e+03
1.950000e-06	4.527951e-06	2.378730e-08	3.269093e+01	1.557802e+03
1.960000e-06	4.473705e-06	2.365931e-08	3.229929e+01	1.553298e+03
1.970000e-06	4.417635e-06	2.360780e-08	3.189447e+01	1.548557e+03
1.980000e-06	4.360027e-06	2.352891e-08	3.147856e+01	1.543698e+03
1.990000e-06	4.300986e-06	2.345423e-08	3.105229e+01	1.538815e+03
2.000000e-06	4.240524e-06	2.342299e-08	3.061577e+01	1.533956e+03
2.010000e-06	4.178505e-06	2.330310e-08	3.016800e+01	1.529106e+03
2.020000e-06	4.114698e-06	2.324239e-08	2.970733e+01	1.524190e+03
2.030000e-06	4.049337e-06	2.313756e-08	2.923543e+01	1.519101e+03
2.040000e-06	3.982642e-06	2.305980e-08	2.875391e+01	1.513730e+03
2.050000e-06	3.914613e-06	2.300922e-08	2.826275e+01	1.508007e+03
2.060000e-06	3.845115e-06	2.289065e-08	2.776099e+01	1.501916e+03
2.070000e-06	3.774054e-06	2.282319e-08	2.724795e+01	1.495505e+03
2.080000e-06	3.701705e-06	2.271093e-08	2.672560e+01	1.488864e+03
2.090000e-06	3.628137e-06	2.260376e-08	2.619445e+01	1.482101e+03
2.100000e-06	3.553234e-06	2.249638e-08	2.565367e+01	1.475297e+03
2.110000e-06	3.476925e-06	2.239041e-08	2.510273e+01	1.468482e+03
2.120000e-06	3.399114e-06	2.231112e-08	2.454095e+01	1.461621e+03
2.130000e-06	3.319868e-06	2.218476e-08	2.396881e+01	1.454619e+03
2.140000e-06	3.239449e-06	2.207644e-08	2.338820e+01	1.447353e+03
2.150000e-06	3.158019e-06	2.195412e-08	2.280029e+01	1.439705e+03
2.160000e-06	3.075520e-06	2.182984e-08	2.220467e+01	1.431603e+03
2.170000e-06	2.992041e-06	2.170223e-08	2.160196e+01	1.423039e+03
2.180000e-06	2.907575e-06	2.157071e-08	2.099213e+01	1.414078e+03
2.190000e-06	2.821874e-06	2.144981e-08	2.037339e+01	1.404832e+03
2.200000e-06	2.734882e-06	2.130069e-08	1.974532e+01	1.395421e+03
2.210000e-06	2.646831e-06	2.115327e-08	1.910961e+01	1.385935e+03
2.220000e-06	2.557950e-06	2.100387e-08	1.846790e+01	1.376397e+03
2.230000e-06	2.468192e-06	2.086022e-08	1.781987e+01	1.366747e+03
2.240000e-06	2.377642e-06	2.071213e-08	1.716612e+01	1.356856e+03
2.250000e-06	2.286433e-06	2.055662e-08	1.650761e+01	1.346558e+03
2.260000e-06	2.194499e-06	2.039356e-08	1.584386e+01	1.335698e+03
2.270000e-06	2.101722e-06	2.021084e-08	1.517403e+01	1.324180e+03
2.280000e-06	2.008039e-06	2.002432e-08	1.449766e+01	1.311992e+03
2.290000e-06	1.913481e-06	1.983442e-08	1.381496e+01	1.299209e+03
2.300000e-06	1.818108e-06	1.964426e-08	1.312639e+01	1.285971e+03
2.310000e-06	1.722108e-06	1.945093e-08	1.243329e+01	1.272429e+03
2.320000e-06	1.625657e-06	1.924879e-08	1.173693e+01	1.258692e+03
2.330000e-06	1.528733e-06	1.903367e-08	1.103716e+01	1.244783e+03
2.340000e-06	1.431280e-06	1.880659e-08	1.033357e+01	1.230614e+03
2.350000e-06	1.333346e-06	1.856932e-08	9.626502e+00	1.216002e+03
2.360000e-06	1.234999e-06	1.832517e-08	8.916458e+00	1.200714e+03
2.370000e-06	1.136338e-06	1.807578e-08	8.204141e+00	1.184526e+03
2.380000e-06	1.037381e-06	1.781707e-08	7.489688e+00	1.167285e+03
2.390000e-06	9.381397e-07	1.754901e-08	6.773188e+00	1.148950e+03
2.400000e-06	8.386365e-07	1.726550e-08	6.054794e+00	1.129595e+03
2.410000e-06	7.388677e-07	1.696705e-08	5.334483e+00	1.109370e+03
2.420000e-06	6.388436e-07	1.665512e-08	4.612328e+00	1.088436e+03
2.430000e-06	5.385636e-07	1.632840e-08	3.888326e+00	1.066879e+03
2.440000e-06	4.381147e-07	1.598549e-08	3.163104e+00	1.044647e+03
2.450000e-06	3.375361e-07	1.562353e-08	2.436946e+00	1.021512e+03
2.460000e-06	2.368135e-07	1.523855e-08	1.709748e+00	9.970952e+02
2.470000e-06	1.359766e-07	1.482724e-08	9.817248e-01	9.709269e+02
2.480000e-06	3.504290e-08	1.438824e-08	2.530030e-01	9.425460e+02
2.490000e-06	-6.591638e-08	1.392061e-08	-4.759035e-01	9.115970e+02
2.500000e-06	-1.668232e-07	1.342112e-08	-1.204432e+00	8.778926e+02
2.510000e-06	-2.676427e-07	1.288599e-08	-1.932329e+00	8.414150e+02
2.520000e-06	-3.683546e-07	1.230964e-08	-2.659449e+00	8.022411e+02
2.530000e-06	-4.689606e-07	1.168076e-08	-3.385805e+00	7.604018e+02
2.540000e-06	-5.694525e-07	1.099397e-08	-4.111337e+00	7.157068e+02
2.550000e-06	-6.697786e-07	1.024164e-08	-4.835673e+00	6.675821e+02
2.560000e-06	-7.698945e-07	9.415045e-09	-5.558490e+00	6.149738e+02
2.570000e-06	-8.697614e-07	8.501708e-09	-6.279510e+00	5.563638e+02
2.580000e-06	-9.692528e-07	7.481427e-09	-6.997818e+00	4.899173e+02
2.590000e-06	-1.068320e-06	6.331103e-09	-7.713065e+00	4.137572e+02
2.600000e-06	-1.167055e-06	5.026326e-09	-8.425913e+00	3.263233e+02
2.610000e-06	-1.265487e-06	3.548011e-09	-9.136576e+00	2.267499e+02
2.620000e-06	-1.363456e-06	1.884911e-09	-9.843891e+00	1.151847e+02
2.630000e-06	-1.460869e-06	4.003554e-11	-1.054720e+01	-7.025417e+00
2.640000e-06	-1.557823e-06	-1.956988e-09	-1.124718e+01	-1.373337e+02
2.650000e-06	-1.654331e-06	-4.049555e-09	-1.194395e+01	-2.721919e+02
2.660000e-06	-1.750392e-06	-6.159466e-09	-1.263749e+01	-4.074239e+02
2.670000e-06	-1.845953e-06	-8.198968e-09	-1.332743e+01	-5.387139e+02
2.680000e-06	-1.940711e-06	-1.009564e-08	-1.401156e+01	-6.621211e+02
2.690000e-06	-2.034460e-06	-1.180027e-08	-1.468841e+01	-7.745308e+02
2.700000e-06	-2.127308e-06	-1.329403e-08	-1.535876e+01	-8.739637e+02
2.710000e-06	-2.219427e-06	-1.458446e-08	-1.602383e+01	-9.596931e+02
2.720000e-06	-2.310816e-06	-1.569028e-08	-1.668364e+01	-1.032163e+03
2.730000e-06	-2.401375e-06	-1.663393e-08	-1.733747e+01	-1.092738e+03
2.740000e-06	-2.491021e-06	-1.743699e-08	-1.798469e+01	-1.143343e+03
2.750000e-06	-2.579770e-06	-1.812131e-08	-1.862544e+01	-1.186082e+03
2.760000e-06	-2.667729e-06	-1.870899e-08	-1.926049e+01	-1.222892e+03
2.770000e-06	-2.754872e-06	-1.921578e-08	-1.988964e+01	-1.255314e+03
2.780000e-06	-2.840951e-06	-1.965790e-08	-2.051112e+01	-1.284392e+03
2.790000e-06	-2.925859e-06	-2.004943e-08	-2.112414e+01	-1.310701e+03
2.800000e-06	-3.009725e-06	-2.039807e-08	-2.172964e+01	-1.334470e+03
2.810000e-06	-3.092592e-06	-2.071036e-08	-2.232792e+01	-1.355756e+03
2.820000e-06	-3.174418e-06	-2.099045e-08	-2.291869e+01	-1.374610e+03
2.830000e-06	-3.255208e-06	-2.124309e-08	-2.350198e+01	-1.391189e+03
2.840000e-06	-3.334928e-06	-2.147501e-08	-2.407754e+01	-1.405801e+03
2.850000e-06	-3.413399e-06	-2.169135e-08	-2.464409e+01	-1.418877e+03
2.860000e-06	-3.490464e-06	-2.189334e-08	-2.520048e+01	-1.430893e+03
2.870000e-06	-3.566082e-06	-2.207882e-08	-2.574643e+01	-1.442268e+03
2.880000e-06	-3.640290e-06	-2.224941e-08	-2.628220e+01	-1.453282e+03
2.890000e-06	-3.713189e-06	-2.240743e-08	-2.680851e+01	-1.464036e+03
2.900000e-06	-3.784859e-06	-2.255411e-08	-2.732595e+01	-1.474460e+03
2.910000e-06	-3.855047e-06	-2.269340e-08	-2.783270e+01	-1.484371e+03
2.920000e-06	-3.923657e-06	-2.282436e-08	-2.832805e+01	-1.493556e+03
2.930000e-06	-3.990887e-06	-2.294701e-08	-2.881344e+01	-1.501858e+03
2.940000e-06	-4.056729e-06	-2.306189e-08	-2.928880e+01	-1.509233e+03
