# Temperatura_=_55.43
# Concentracion g/m^3_=_41000.0
# C_Vs_to_Am_M_A/Vsm_=_65563218390.804596
# pendiente_HvsI_1/m_=_3716.3
# ordenada_HvsI_A/m_=_1297.0
# frecuencia_Hz_=_302473.5371825849

Tiempo_(s)	Campo_(V.s)	Magnetizacion_(V.s)	Campo_(kA/m)	Magnetizacion_(A/m)
0.000000e+00	-8.056841e-06	-2.495994e-08	-5.688148e+01	-1.635699e+03
1.000000e-08	-8.054114e-06	-2.496071e-08	-5.686222e+01	-1.635509e+03
2.000000e-08	-8.048716e-06	-2.495226e-08	-5.682411e+01	-1.634851e+03
3.000000e-08	-8.040760e-06	-2.494283e-08	-5.676794e+01	-1.633817e+03
4.000000e-08	-8.029976e-06	-2.493520e-08	-5.669181e+01	-1.632582e+03
5.000000e-08	-8.016159e-06	-2.492419e-08	-5.659426e+01	-1.631352e+03
6.000000e-08	-7.999449e-06	-2.490771e-08	-5.647628e+01	-1.630298e+03
7.000000e-08	-7.980290e-06	-2.489273e-08	-5.634102e+01	-1.629510e+03
8.000000e-08	-7.958794e-06	-2.490192e-08	-5.618926e+01	-1.628967e+03
9.000000e-08	-7.934418e-06	-2.494922e-08	-5.601716e+01	-1.628556e+03
1.000000e-07	-7.906763e-06	-2.490555e-08	-5.582192e+01	-1.628105e+03
1.100000e-07	-7.876002e-06	-2.483840e-08	-5.560475e+01	-1.627446e+03
1.200000e-07	-7.842380e-06	-2.482053e-08	-5.536737e+01	-1.626466e+03
1.300000e-07	-7.806080e-06	-2.478113e-08	-5.511110e+01	-1.625140e+03
1.400000e-07	-7.767491e-06	-2.469511e-08	-5.483865e+01	-1.623540e+03
1.500000e-07	-7.726709e-06	-2.468483e-08	-5.455074e+01	-1.621802e+03
1.600000e-07	-7.683446e-06	-2.478937e-08	-5.424530e+01	-1.620074e+03
1.700000e-07	-7.637461e-06	-2.466074e-08	-5.392064e+01	-1.618469e+03
1.800000e-07	-7.588661e-06	-2.463724e-08	-5.357611e+01	-1.617014e+03
1.900000e-07	-7.536776e-06	-2.465926e-08	-5.320981e+01	-1.615638e+03
2.000000e-07	-7.481912e-06	-2.454769e-08	-5.282246e+01	-1.614191e+03
2.100000e-07	-7.424375e-06	-2.453636e-08	-5.241625e+01	-1.612487e+03
2.200000e-07	-7.364170e-06	-2.450593e-08	-5.199120e+01	-1.610362e+03
2.300000e-07	-7.301311e-06	-2.450229e-08	-5.154741e+01	-1.607730e+03
2.400000e-07	-7.235731e-06	-2.442776e-08	-5.108442e+01	-1.604609e+03
2.500000e-07	-7.167400e-06	-2.435431e-08	-5.060200e+01	-1.601123e+03
2.600000e-07	-7.096320e-06	-2.434701e-08	-5.010018e+01	-1.597462e+03
2.700000e-07	-7.022377e-06	-2.430265e-08	-4.957813e+01	-1.593827e+03
2.800000e-07	-6.945615e-06	-2.423827e-08	-4.903619e+01	-1.590366e+03
2.900000e-07	-6.866052e-06	-2.417171e-08	-4.847448e+01	-1.587126e+03
3.000000e-07	-6.783849e-06	-2.414095e-08	-4.789412e+01	-1.584038e+03
3.100000e-07	-6.699370e-06	-2.407100e-08	-4.729770e+01	-1.580936e+03
3.200000e-07	-6.612618e-06	-2.398486e-08	-4.668523e+01	-1.577609e+03
3.300000e-07	-6.523448e-06	-2.396007e-08	-4.605569e+01	-1.573861e+03
3.400000e-07	-6.431870e-06	-2.389056e-08	-4.540914e+01	-1.569582e+03
3.500000e-07	-6.338011e-06	-2.381570e-08	-4.474650e+01	-1.564773e+03
3.600000e-07	-6.241841e-06	-2.374837e-08	-4.406754e+01	-1.559554e+03
3.700000e-07	-6.143300e-06	-2.368172e-08	-4.337183e+01	-1.554121e+03
3.800000e-07	-6.042607e-06	-2.360187e-08	-4.266093e+01	-1.548687e+03
3.900000e-07	-5.939748e-06	-2.351881e-08	-4.193475e+01	-1.543412e+03
4.000000e-07	-5.834769e-06	-2.344560e-08	-4.119360e+01	-1.538345e+03
4.100000e-07	-5.727742e-06	-2.334657e-08	-4.043799e+01	-1.533410e+03
4.200000e-07	-5.618688e-06	-2.326213e-08	-3.966806e+01	-1.528422e+03
4.300000e-07	-5.507681e-06	-2.317705e-08	-3.888435e+01	-1.523142e+03
4.400000e-07	-5.394548e-06	-2.308777e-08	-3.808563e+01	-1.517352e+03
4.500000e-07	-5.279368e-06	-2.298079e-08	-3.727245e+01	-1.510919e+03
4.600000e-07	-5.162272e-06	-2.287595e-08	-3.644576e+01	-1.503842e+03
4.700000e-07	-5.043235e-06	-2.277193e-08	-3.560535e+01	-1.496248e+03
4.800000e-07	-4.922327e-06	-2.265786e-08	-3.475173e+01	-1.488352e+03
4.900000e-07	-4.799652e-06	-2.254687e-08	-3.388565e+01	-1.480387e+03
5.000000e-07	-4.675220e-06	-2.243580e-08	-3.300715e+01	-1.472522e+03
5.100000e-07	-4.549094e-06	-2.231823e-08	-3.211670e+01	-1.464804e+03
5.200000e-07	-4.421319e-06	-2.217941e-08	-3.121461e+01	-1.457130e+03
5.300000e-07	-4.291933e-06	-2.204113e-08	-3.030114e+01	-1.449272e+03
5.400000e-07	-4.160901e-06	-2.190154e-08	-2.937605e+01	-1.440944e+03
5.500000e-07	-4.028280e-06	-2.175680e-08	-2.843974e+01	-1.431884e+03
5.600000e-07	-3.894207e-06	-2.160499e-08	-2.749319e+01	-1.421936e+03
5.700000e-07	-3.758628e-06	-2.144603e-08	-2.653599e+01	-1.411103e+03
5.800000e-07	-3.621585e-06	-2.128036e-08	-2.556847e+01	-1.399542e+03
5.900000e-07	-3.483165e-06	-2.110537e-08	-2.459122e+01	-1.387513e+03
6.000000e-07	-3.343304e-06	-2.093035e-08	-2.360380e+01	-1.375295e+03
6.100000e-07	-3.201970e-06	-2.074670e-08	-2.260598e+01	-1.363080e+03
6.200000e-07	-3.059365e-06	-2.055251e-08	-2.159918e+01	-1.350899e+03
6.300000e-07	-2.915550e-06	-2.034581e-08	-2.058385e+01	-1.338590e+03
6.400000e-07	-2.770600e-06	-2.013033e-08	-1.956050e+01	-1.325830e+03
6.500000e-07	-2.624745e-06	-1.990449e-08	-1.853075e+01	-1.312220e+03
6.600000e-07	-2.478041e-06	-1.966965e-08	-1.749503e+01	-1.297397e+03
6.700000e-07	-2.330486e-06	-1.942756e-08	-1.645328e+01	-1.281144e+03
6.800000e-07	-2.182157e-06	-1.917111e-08	-1.540608e+01	-1.263453e+03
6.900000e-07	-2.033167e-06	-1.890055e-08	-1.435420e+01	-1.244527e+03
7.000000e-07	-1.883519e-06	-1.861284e-08	-1.329769e+01	-1.224701e+03
7.100000e-07	-1.733256e-06	-1.831205e-08	-1.223683e+01	-1.204322e+03
7.200000e-07	-1.582358e-06	-1.799306e-08	-1.117149e+01	-1.183595e+03
7.300000e-07	-1.430836e-06	-1.765597e-08	-1.010173e+01	-1.162476e+03
7.400000e-07	-1.278825e-06	-1.729870e-08	-9.028535e+00	-1.140619e+03
7.500000e-07	-1.126446e-06	-1.691871e-08	-7.952735e+00	-1.117424e+03
7.600000e-07	-9.737476e-07	-1.651593e-08	-6.874679e+00	-1.092163e+03
7.700000e-07	-8.207052e-07	-1.608404e-08	-5.794196e+00	-1.064164e+03
7.800000e-07	-6.673779e-07	-1.561978e-08	-4.711703e+00	-1.032976e+03
7.900000e-07	-5.138241e-07	-1.511688e-08	-3.627610e+00	-9.984740e+02
8.000000e-07	-3.600391e-07	-1.457327e-08	-2.541884e+00	-9.608503e+02
8.100000e-07	-2.060818e-07	-1.398272e-08	-1.454942e+00	-9.204624e+02
8.200000e-07	-5.200117e-08	-1.333824e-08	-3.671294e-01	-8.775735e+02
8.300000e-07	1.021519e-07	-1.262806e-08	7.211945e-01	-8.320365e+02
8.400000e-07	2.563010e-07	-1.184108e-08	1.809490e+00	-7.830131e+02
8.500000e-07	4.103719e-07	-1.096524e-08	2.897235e+00	-7.288182e+02
8.600000e-07	5.643092e-07	-9.983489e-09	3.984036e+00	-6.669649e+02
8.700000e-07	7.180544e-07	-8.870425e-09	5.069479e+00	-5.944421e+02
8.800000e-07	8.715300e-07	-7.585957e-09	6.153021e+00	-5.082012e+02
8.900000e-07	1.024706e-06	-6.079700e-09	7.234444e+00	-4.057741e+02
9.000000e-07	1.177553e-06	-4.286257e-09	8.313547e+00	-2.859011e+02
9.100000e-07	1.330073e-06	-2.167396e-09	9.390345e+00	-1.490323e+02
9.200000e-07	1.482230e-06	1.904384e-10	1.046457e+01	2.419524e+00
9.300000e-07	1.633876e-06	2.633495e-09	1.153520e+01	1.641513e+02
9.400000e-07	1.784865e-06	5.084404e-09	1.260118e+01	3.303796e+02
9.500000e-07	1.935130e-06	7.532199e-09	1.366206e+01	4.945288e+02
9.600000e-07	2.084657e-06	9.947353e-09	1.471772e+01	6.500777e+02
9.700000e-07	2.233423e-06	1.217565e-08	1.576801e+01	7.914087e+02
9.800000e-07	2.381382e-06	1.403806e-08	1.681261e+01	9.145030e+02
9.900000e-07	2.528413e-06	1.551477e-08	1.785065e+01	1.017356e+03
1.000000e-06	2.674388e-06	1.667691e-08	1.888124e+01	1.100049e+03
1.010000e-06	2.819374e-06	1.760002e-08	1.990484e+01	1.164476e+03
1.020000e-06	2.963374e-06	1.834427e-08	2.092149e+01	1.213810e+03
1.030000e-06	3.106200e-06	1.895577e-08	2.192984e+01	1.251828e+03
1.040000e-06	3.247849e-06	1.946752e-08	2.292988e+01	1.282227e+03
1.050000e-06	3.388302e-06	1.990301e-08	2.392148e+01	1.308087e+03
1.060000e-06	3.527440e-06	2.028014e-08	2.490380e+01	1.331538e+03
1.070000e-06	3.665166e-06	2.061190e-08	2.587615e+01	1.353692e+03
1.080000e-06	3.801441e-06	2.090805e-08	2.683826e+01	1.374796e+03
1.090000e-06	3.936268e-06	2.117238e-08	2.779014e+01	1.394541e+03
1.100000e-06	4.069632e-06	2.141317e-08	2.873169e+01	1.412417e+03
1.110000e-06	4.201565e-06	2.163381e-08	2.966314e+01	1.428030e+03
1.120000e-06	4.332050e-06	2.183662e-08	3.058437e+01	1.441308e+03
1.130000e-06	4.461093e-06	2.202278e-08	3.149541e+01	1.452544e+03
1.140000e-06	4.588575e-06	2.219539e-08	3.239544e+01	1.462323e+03
1.150000e-06	4.714389e-06	2.235768e-08	3.328369e+01	1.471342e+03
1.160000e-06	4.838607e-06	2.251014e-08	3.416067e+01	1.480219e+03
1.170000e-06	4.961189e-06	2.265485e-08	3.502610e+01	1.489330e+03
1.180000e-06	5.081994e-06	2.279368e-08	3.587899e+01	1.498741e+03
1.190000e-06	5.200920e-06	2.292528e-08	3.671861e+01	1.508230e+03
1.200000e-06	5.317925e-06	2.304754e-08	3.754467e+01	1.517395e+03
1.210000e-06	5.432904e-06	2.315977e-08	3.835642e+01	1.525810e+03
1.220000e-06	5.545713e-06	2.326314e-08	3.915285e+01	1.533165e+03
1.230000e-06	5.656457e-06	2.335894e-08	3.993471e+01	1.539373e+03
1.240000e-06	5.765284e-06	2.345054e-08	4.070303e+01	1.544587e+03
1.250000e-06	5.872147e-06	2.353887e-08	4.145749e+01	1.549148e+03
1.260000e-06	5.976834e-06	2.362416e-08	4.219658e+01	1.553477e+03
1.270000e-06	6.079204e-06	2.370637e-08	4.291932e+01	1.557953e+03
1.280000e-06	6.179365e-06	2.378501e-08	4.362645e+01	1.562802e+03
1.290000e-06	6.277233e-06	2.385843e-08	4.431740e+01	1.568046e+03
1.300000e-06	6.372710e-06	2.392600e-08	4.499147e+01	1.573515e+03
1.310000e-06	6.465871e-06	2.398979e-08	4.564919e+01	1.578915e+03
1.320000e-06	6.556721e-06	2.405251e-08	4.629059e+01	1.583929e+03
1.330000e-06	6.645181e-06	2.411600e-08	4.691512e+01	1.588323e+03
1.340000e-06	6.731256e-06	2.417814e-08	4.752281e+01	1.592014e+03
1.350000e-06	6.815055e-06	2.423825e-08	4.811444e+01	1.595090e+03
1.360000e-06	6.896458e-06	2.429431e-08	4.868914e+01	1.597775e+03
1.370000e-06	6.975337e-06	2.434663e-08	4.924603e+01	1.600354e+03
1.380000e-06	7.051650e-06	2.439553e-08	4.978480e+01	1.603078e+03
1.390000e-06	7.125287e-06	2.444215e-08	5.030468e+01	1.606088e+03
1.400000e-06	7.196277e-06	2.448640e-08	5.080587e+01	1.609378e+03
1.410000e-06	7.264775e-06	2.452804e-08	5.128947e+01	1.612795e+03
1.420000e-06	7.330709e-06	2.456747e-08	5.175497e+01	1.616103e+03
1.430000e-06	7.394000e-06	2.460570e-08	5.220180e+01	1.619053e+03
1.440000e-06	7.454806e-06	2.464190e-08	5.263109e+01	1.621468e+03
1.450000e-06	7.513104e-06	2.467538e-08	5.304268e+01	1.623295e+03
1.460000e-06	7.568695e-06	2.470736e-08	5.343515e+01	1.624625e+03
1.470000e-06	7.621415e-06	2.473573e-08	5.380736e+01	1.625658e+03
1.480000e-06	7.671047e-06	2.476192e-08	5.415776e+01	1.626638e+03
1.490000e-06	7.717701e-06	2.478628e-08	5.448714e+01	1.627781e+03
1.500000e-06	7.761676e-06	2.480983e-08	5.479760e+01	1.629205e+03
1.510000e-06	7.802807e-06	2.483117e-08	5.508799e+01	1.630898e+03
1.520000e-06	7.841080e-06	2.484929e-08	5.535820e+01	1.632721e+03
1.530000e-06	7.876701e-06	2.486644e-08	5.560968e+01	1.634462e+03
1.540000e-06	7.909521e-06	2.488262e-08	5.584139e+01	1.635897e+03
1.550000e-06	7.939489e-06	2.489693e-08	5.605296e+01	1.636867e+03
1.560000e-06	7.966684e-06	2.490887e-08	5.624497e+01	1.637324e+03
1.570000e-06	7.991001e-06	2.491993e-08	5.641664e+01	1.637349e+03
1.580000e-06	8.012412e-06	2.492975e-08	5.656781e+01	1.637122e+03
1.590000e-06	8.031011e-06	2.493725e-08	5.669911e+01	1.636870e+03
1.600000e-06	8.046678e-06	2.494226e-08	5.680972e+01	1.636793e+03
1.610000e-06	8.059281e-06	2.494630e-08	5.689870e+01	1.637006e+03
1.620000e-06	8.068728e-06	2.495112e-08	5.696540e+01	1.637504e+03
1.630000e-06	8.075119e-06	2.495462e-08	5.701052e+01	1.638163e+03
1.640000e-06	8.078731e-06	2.495689e-08	5.703601e+01	1.638786e+03
1.650000e-06	8.079508e-06	2.495944e-08	5.704150e+01	1.639159e+03
1.660000e-06	8.077485e-06	2.495311e-08	5.702722e+01	1.639120e+03
1.670000e-06	8.072819e-06	2.494716e-08	5.699428e+01	1.638608e+03
1.680000e-06	8.065414e-06	2.494186e-08	5.694200e+01	1.637679e+03
1.690000e-06	8.055337e-06	2.493287e-08	5.687086e+01	1.636487e+03
1.700000e-06	8.042498e-06	2.492373e-08	5.678021e+01	1.635234e+03
1.710000e-06	8.026881e-06	2.491993e-08	5.666996e+01	1.634110e+03
1.720000e-06	8.008825e-06	2.491534e-08	5.654248e+01	1.633234e+03
1.730000e-06	7.988367e-06	2.485661e-08	5.639805e+01	1.632621e+03
1.740000e-06	7.965013e-06	2.477948e-08	5.623317e+01	1.632185e+03
1.750000e-06	7.938100e-06	2.481349e-08	5.604316e+01	1.631767e+03
1.760000e-06	7.907512e-06	2.482450e-08	5.582721e+01	1.631191e+03
1.770000e-06	7.873948e-06	2.479081e-08	5.559024e+01	1.630322e+03
1.780000e-06	7.838130e-06	2.484047e-08	5.533737e+01	1.629104e+03
1.790000e-06	7.800060e-06	2.488788e-08	5.506859e+01	1.627581e+03
1.800000e-06	7.759876e-06	2.477594e-08	5.478489e+01	1.625870e+03
1.810000e-06	7.717380e-06	2.480430e-08	5.448487e+01	1.624125e+03
1.820000e-06	7.672184e-06	2.480196e-08	5.416578e+01	1.622473e+03
1.830000e-06	7.624346e-06	2.471440e-08	5.382805e+01	1.620973e+03
1.840000e-06	7.573490e-06	2.478599e-08	5.346901e+01	1.619585e+03
1.850000e-06	7.519553e-06	2.470346e-08	5.308821e+01	1.618181e+03
1.860000e-06	7.462841e-06	2.471277e-08	5.268782e+01	1.616580e+03
1.870000e-06	7.403501e-06	2.463581e-08	5.226888e+01	1.614605e+03
1.880000e-06	7.341542e-06	2.454488e-08	5.183145e+01	1.612140e+03
1.890000e-06	7.276732e-06	2.460933e-08	5.137388e+01	1.609168e+03
1.900000e-06	7.209135e-06	2.450037e-08	5.089665e+01	1.605781e+03
1.910000e-06	7.138707e-06	2.449315e-08	5.039943e+01	1.602154e+03
1.920000e-06	7.065426e-06	2.444412e-08	4.988206e+01	1.598491e+03
1.930000e-06	6.989464e-06	2.437535e-08	4.934577e+01	1.594964e+03
1.940000e-06	6.910675e-06	2.432869e-08	4.878952e+01	1.591655e+03
1.950000e-06	6.829290e-06	2.424200e-08	4.821493e+01	1.588533e+03
1.960000e-06	6.745460e-06	2.425254e-08	4.762310e+01	1.585459e+03
1.970000e-06	6.659079e-06	2.414599e-08	4.701324e+01	1.582227e+03
1.980000e-06	6.570242e-06	2.409991e-08	4.638605e+01	1.578632e+03
1.990000e-06	6.479043e-06	2.404162e-08	4.574219e+01	1.574530e+03
2.000000e-06	6.385626e-06	2.397066e-08	4.508266e+01	1.569884e+03
2.010000e-06	6.289944e-06	2.390147e-08	4.440714e+01	1.564778e+03
2.020000e-06	6.192040e-06	2.381028e-08	4.371594e+01	1.559391e+03
2.030000e-06	6.091987e-06	2.375926e-08	4.300956e+01	1.553937e+03
2.040000e-06	5.989690e-06	2.366478e-08	4.228734e+01	1.548599e+03
2.050000e-06	5.885197e-06	2.360257e-08	4.154962e+01	1.543468e+03
2.060000e-06	5.778730e-06	2.351585e-08	4.079796e+01	1.538507e+03
2.070000e-06	5.670325e-06	2.343433e-08	4.003262e+01	1.533561e+03
2.080000e-06	5.559888e-06	2.333494e-08	3.925293e+01	1.528402e+03
2.090000e-06	5.447356e-06	2.324487e-08	3.845845e+01	1.522796e+03
2.100000e-06	5.332735e-06	2.315630e-08	3.764923e+01	1.516577e+03
2.110000e-06	5.216100e-06	2.305962e-08	3.682578e+01	1.509699e+03
2.120000e-06	5.097429e-06	2.296218e-08	3.598796e+01	1.502251e+03
2.130000e-06	4.976851e-06	2.284914e-08	3.513668e+01	1.494426e+03
2.140000e-06	4.854489e-06	2.273361e-08	3.427280e+01	1.486461e+03
2.150000e-06	4.730356e-06	2.261061e-08	3.339642e+01	1.478553e+03
2.160000e-06	4.604486e-06	2.250347e-08	3.250777e+01	1.470792e+03
2.170000e-06	4.476969e-06	2.238117e-08	3.160750e+01	1.463124e+03
2.180000e-06	4.347851e-06	2.225300e-08	3.069592e+01	1.455356e+03
2.190000e-06	4.217168e-06	2.211221e-08	2.977330e+01	1.447211e+03
2.200000e-06	4.084905e-06	2.197226e-08	2.883952e+01	1.438410e+03
2.210000e-06	3.951124e-06	2.182340e-08	2.789502e+01	1.428756e+03
2.220000e-06	3.815854e-06	2.167398e-08	2.694002e+01	1.418197e+03
2.230000e-06	3.679050e-06	2.152235e-08	2.597417e+01	1.406845e+03
2.240000e-06	3.540843e-06	2.135829e-08	2.499843e+01	1.394936e+03
2.250000e-06	3.401282e-06	2.118401e-08	2.401313e+01	1.382752e+03
2.260000e-06	3.260436e-06	2.100097e-08	2.301875e+01	1.370525e+03
2.270000e-06	3.118358e-06	2.081377e-08	2.201567e+01	1.358341e+03
2.280000e-06	2.975035e-06	2.061727e-08	2.100381e+01	1.346102e+03
2.290000e-06	2.830604e-06	2.041514e-08	1.998412e+01	1.333530e+03
2.300000e-06	2.685197e-06	2.019913e-08	1.895755e+01	1.320237e+03
2.310000e-06	2.538880e-06	1.997031e-08	1.792455e+01	1.305837e+03
2.320000e-06	2.391650e-06	1.972791e-08	1.688510e+01	1.290056e+03
2.330000e-06	2.243553e-06	1.947664e-08	1.583954e+01	1.272815e+03
2.340000e-06	2.094697e-06	1.921613e-08	1.478861e+01	1.254253e+03
2.350000e-06	1.945198e-06	1.894239e-08	1.373314e+01	1.234677e+03
2.360000e-06	1.795129e-06	1.865349e-08	1.267365e+01	1.214444e+03
2.370000e-06	1.644419e-06	1.834491e-08	1.160964e+01	1.193821e+03
2.380000e-06	1.493148e-06	1.801457e-08	1.054166e+01	1.172852e+03
2.390000e-06	1.341393e-06	1.766315e-08	9.470267e+00	1.151287e+03
2.400000e-06	1.189134e-06	1.729356e-08	8.395310e+00	1.128599e+03
2.410000e-06	1.036467e-06	1.690265e-08	7.317478e+00	1.104083e+03
2.420000e-06	8.834730e-07	1.648346e-08	6.237338e+00	1.077027e+03
2.430000e-06	7.302161e-07	1.603305e-08	5.155342e+00	1.046894e+03
2.440000e-06	5.767989e-07	1.554651e-08	4.072213e+00	1.013451e+03
2.450000e-06	4.232464e-07	1.501885e-08	2.988129e+00	9.767955e+02
2.460000e-06	2.695037e-07	1.444562e-08	1.902702e+00	9.372571e+02
2.470000e-06	1.156089e-07	1.381999e-08	8.162017e-01	8.951625e+02
2.480000e-06	-3.835808e-08	1.313436e-08	-2.708089e-01	8.505306e+02
2.490000e-06	-1.923567e-07	1.237902e-08	-1.358042e+00	8.027702e+02
2.500000e-06	-3.462944e-07	1.154182e-08	-2.444846e+00	7.504741e+02
2.510000e-06	-5.001222e-07	1.060717e-08	-3.530874e+00	6.913941e+02
2.520000e-06	-6.538394e-07	9.547617e-09	-4.616121e+00	6.226435e+02
2.530000e-06	-8.073311e-07	8.331593e-09	-5.699775e+00	5.411226e+02
2.540000e-06	-9.605644e-07	6.916926e-09	-6.781606e+00	4.441060e+02
2.550000e-06	-1.113567e-06	5.244782e-09	-7.861807e+00	3.298820e+02
2.560000e-06	-1.266237e-06	3.250303e-09	-8.939664e+00	1.983094e+02
2.570000e-06	-1.418439e-06	9.408018e-10	-1.001421e+01	5.116176e+01
2.580000e-06	-1.570113e-06	-1.538188e-09	-1.108503e+01	-1.078366e+02
2.590000e-06	-1.721147e-06	-4.052653e-09	-1.215134e+01	-2.733143e+02
2.600000e-06	-1.871436e-06	-6.568699e-09	-1.321238e+01	-4.388630e+02
2.610000e-06	-2.021022e-06	-9.069681e-09	-1.426846e+01	-5.978480e+02
2.620000e-06	-2.169925e-06	-1.144038e-08	-1.531972e+01	-7.442750e+02
2.630000e-06	-2.318053e-06	-1.348078e-08	-1.636550e+01	-8.735508e+02
2.640000e-06	-2.465255e-06	-1.511286e-08	-1.740476e+01	-9.829987e+02
2.650000e-06	-2.611479e-06	-1.639766e-08	-1.843710e+01	-1.072043e+03
2.660000e-06	-2.756786e-06	-1.741390e-08	-1.946297e+01	-1.142043e+03
2.670000e-06	-2.901177e-06	-1.822792e-08	-2.048237e+01	-1.195831e+03
2.680000e-06	-3.044442e-06	-1.889156e-08	-2.149383e+01	-1.237066e+03
2.690000e-06	-3.186410e-06	-1.944212e-08	-2.249613e+01	-1.269539e+03
2.700000e-06	-3.327106e-06	-1.990594e-08	-2.348944e+01	-1.296576e+03
2.710000e-06	-3.466455e-06	-2.030451e-08	-2.447325e+01	-1.320631e+03
2.720000e-06	-3.604433e-06	-2.065152e-08	-2.544737e+01	-1.343138e+03
2.730000e-06	-3.741158e-06	-2.095721e-08	-2.641266e+01	-1.364594e+03
2.740000e-06	-3.876537e-06	-2.123057e-08	-2.736843e+01	-1.384829e+03
2.750000e-06	-4.010503e-06	-2.147966e-08	-2.831424e+01	-1.403359e+03
2.760000e-06	-4.143078e-06	-2.170960e-08	-2.925022e+01	-1.419725e+03
2.770000e-06	-4.274182e-06	-2.192192e-08	-3.017582e+01	-1.433738e+03
2.780000e-06	-4.403789e-06	-2.211772e-08	-3.109084e+01	-1.445577e+03
2.790000e-06	-4.531934e-06	-2.229709e-08	-3.199555e+01	-1.455749e+03
2.800000e-06	-4.658504e-06	-2.245988e-08	-3.288914e+01	-1.464937e+03
2.810000e-06	-4.783402e-06	-2.261019e-08	-3.377092e+01	-1.473804e+03
2.820000e-06	-4.906615e-06	-2.275280e-08	-3.464081e+01	-1.482817e+03
2.830000e-06	-5.028041e-06	-2.288832e-08	-3.549808e+01	-1.492144e+03
2.840000e-06	-5.147639e-06	-2.301725e-08	-3.634245e+01	-1.501645e+03
2.850000e-06	-5.265230e-06	-2.313745e-08	-3.717264e+01	-1.510962e+03
2.860000e-06	-5.380611e-06	-2.325138e-08	-3.798723e+01	-1.519659e+03
2.870000e-06	-5.493844e-06	-2.335834e-08	-3.878666e+01	-1.527376e+03
2.880000e-06	-5.604977e-06	-2.345663e-08	-3.957126e+01	-1.533947e+03
2.890000e-06	-5.714014e-06	-2.354885e-08	-4.034106e+01	-1.539450e+03
2.900000e-06	-5.821098e-06	-2.363524e-08	-4.109708e+01	-1.544176e+03
2.910000e-06	-5.926205e-06	-2.371732e-08	-4.183914e+01	-1.548533e+03
2.920000e-06	-6.029034e-06	-2.379511e-08	-4.256511e+01	-1.552928e+03
2.930000e-06	-6.129522e-06	-2.386936e-08	-4.327456e+01	-1.557644e+03
2.940000e-06	-6.227819e-06	-2.394170e-08	-4.396854e+01	-1.562771e+03
