# Temperatura_=_86.38
# Concentracion g/m^3_=_41000.0
# C_Vs_to_Am_M_A/Vsm_=_65563218390.804596
# pendiente_HvsI_1/m_=_3716.3
# ordenada_HvsI_A/m_=_1297.0
# frecuencia_Hz_=_302480.30485823

Tiempo_(s)	Campo_(V.s)	Magnetizacion_(V.s)	Campo_(kA/m)	Magnetizacion_(A/m)
0.000000e+00	-7.981269e-06	-2.552426e-08	-5.688230e+01	-1.672345e+03
1.000000e-08	-7.978899e-06	-2.552379e-08	-5.686541e+01	-1.671953e+03
2.000000e-08	-7.973864e-06	-2.551604e-08	-5.682952e+01	-1.671130e+03
3.000000e-08	-7.966267e-06	-2.550448e-08	-5.677538e+01	-1.669988e+03
4.000000e-08	-7.955843e-06	-2.549411e-08	-5.670109e+01	-1.668697e+03
5.000000e-08	-7.942519e-06	-2.547942e-08	-5.660613e+01	-1.667429e+03
6.000000e-08	-7.926360e-06	-2.545976e-08	-5.649097e+01	-1.666306e+03
7.000000e-08	-7.907675e-06	-2.543844e-08	-5.635780e+01	-1.665369e+03
8.000000e-08	-7.886706e-06	-2.542196e-08	-5.620835e+01	-1.664566e+03
9.000000e-08	-7.862979e-06	-2.546296e-08	-5.603925e+01	-1.663781e+03
1.000000e-07	-7.835996e-06	-2.546751e-08	-5.584694e+01	-1.662869e+03
1.100000e-07	-7.805891e-06	-2.539657e-08	-5.563239e+01	-1.661713e+03
1.200000e-07	-7.772976e-06	-2.534873e-08	-5.539780e+01	-1.660259e+03
1.300000e-07	-7.737361e-06	-2.531546e-08	-5.514397e+01	-1.658533e+03
1.400000e-07	-7.699317e-06	-2.523167e-08	-5.487283e+01	-1.656627e+03
1.500000e-07	-7.659151e-06	-2.516607e-08	-5.458657e+01	-1.654665e+03
1.600000e-07	-7.616598e-06	-2.525721e-08	-5.428330e+01	-1.652753e+03
1.700000e-07	-7.571307e-06	-2.521769e-08	-5.396051e+01	-1.650935e+03
1.800000e-07	-7.523413e-06	-2.511288e-08	-5.361917e+01	-1.649173e+03
1.900000e-07	-7.472528e-06	-2.513643e-08	-5.325652e+01	-1.647347e+03
2.000000e-07	-7.418561e-06	-2.503221e-08	-5.287189e+01	-1.645289e+03
2.100000e-07	-7.361913e-06	-2.493997e-08	-5.246817e+01	-1.642834e+03
2.200000e-07	-7.302553e-06	-2.493631e-08	-5.204511e+01	-1.639873e+03
2.300000e-07	-7.240586e-06	-2.493206e-08	-5.160347e+01	-1.636387e+03
2.400000e-07	-7.175967e-06	-2.488186e-08	-5.114293e+01	-1.632460e+03
2.500000e-07	-7.108555e-06	-2.477496e-08	-5.066249e+01	-1.628258e+03
2.600000e-07	-7.038449e-06	-2.475733e-08	-5.016284e+01	-1.623976e+03
2.700000e-07	-6.965594e-06	-2.469539e-08	-4.964361e+01	-1.619785e+03
2.800000e-07	-6.889953e-06	-2.460095e-08	-4.910451e+01	-1.615772e+03
2.900000e-07	-6.811523e-06	-2.455529e-08	-4.854555e+01	-1.611920e+03
3.000000e-07	-6.730315e-06	-2.450993e-08	-4.796678e+01	-1.608104e+03
3.100000e-07	-6.646707e-06	-2.443439e-08	-4.737091e+01	-1.604131e+03
3.200000e-07	-6.560946e-06	-2.432322e-08	-4.675969e+01	-1.599802e+03
3.300000e-07	-6.472925e-06	-2.426872e-08	-4.613237e+01	-1.594969e+03
3.400000e-07	-6.382507e-06	-2.418453e-08	-4.548796e+01	-1.589587e+03
3.500000e-07	-6.289756e-06	-2.409692e-08	-4.482693e+01	-1.583724e+03
3.600000e-07	-6.194782e-06	-2.402862e-08	-4.415005e+01	-1.577545e+03
3.700000e-07	-6.097473e-06	-2.394405e-08	-4.345653e+01	-1.571259e+03
3.800000e-07	-5.997930e-06	-2.384784e-08	-4.274710e+01	-1.565052e+03
3.900000e-07	-5.896318e-06	-2.374355e-08	-4.202291e+01	-1.559025e+03
4.000000e-07	-5.792640e-06	-2.365293e-08	-4.128400e+01	-1.553161e+03
4.100000e-07	-5.686892e-06	-2.354286e-08	-4.053033e+01	-1.547325e+03
4.200000e-07	-5.579161e-06	-2.344407e-08	-3.976253e+01	-1.541302e+03
4.300000e-07	-5.469475e-06	-2.335034e-08	-3.898081e+01	-1.534863e+03
4.400000e-07	-5.357789e-06	-2.324744e-08	-3.818482e+01	-1.527834e+03
4.500000e-07	-5.244040e-06	-2.312105e-08	-3.737414e+01	-1.520153e+03
4.600000e-07	-5.128203e-06	-2.299606e-08	-3.654857e+01	-1.511885e+03
4.700000e-07	-5.010499e-06	-2.287773e-08	-3.570970e+01	-1.503208e+03
4.800000e-07	-4.891014e-06	-2.274944e-08	-3.485813e+01	-1.494348e+03
4.900000e-07	-4.769713e-06	-2.262203e-08	-3.399362e+01	-1.485511e+03
5.000000e-07	-4.646628e-06	-2.249489e-08	-3.311640e+01	-1.476808e+03
5.100000e-07	-4.521834e-06	-2.235917e-08	-3.222699e+01	-1.468211e+03
5.200000e-07	-4.395434e-06	-2.220339e-08	-3.132614e+01	-1.459559e+03
5.300000e-07	-4.267480e-06	-2.204569e-08	-3.041422e+01	-1.450596e+03
5.400000e-07	-4.137959e-06	-2.188710e-08	-2.949112e+01	-1.441050e+03
5.500000e-07	-4.006811e-06	-2.173131e-08	-2.855644e+01	-1.430714e+03
5.600000e-07	-3.874124e-06	-2.156770e-08	-2.761078e+01	-1.419512e+03
5.700000e-07	-3.740071e-06	-2.139447e-08	-2.665539e+01	-1.407525e+03
5.800000e-07	-3.604628e-06	-2.120880e-08	-2.569009e+01	-1.394960e+03
5.900000e-07	-3.467786e-06	-2.101595e-08	-2.471482e+01	-1.382088e+03
6.000000e-07	-3.329584e-06	-2.082439e-08	-2.372986e+01	-1.369142e+03
6.100000e-07	-3.189921e-06	-2.062749e-08	-2.273448e+01	-1.356237e+03
6.200000e-07	-3.048849e-06	-2.042314e-08	-2.172907e+01	-1.343312e+03
6.300000e-07	-2.906586e-06	-2.020430e-08	-2.071516e+01	-1.330128e+03
6.400000e-07	-2.763208e-06	-1.997382e-08	-1.969331e+01	-1.316334e+03
6.500000e-07	-2.618698e-06	-1.973032e-08	-1.866339e+01	-1.301554e+03
6.600000e-07	-2.473250e-06	-1.948171e-08	-1.762679e+01	-1.285505e+03
6.700000e-07	-2.327050e-06	-1.922792e-08	-1.658483e+01	-1.268077e+03
6.800000e-07	-2.180092e-06	-1.896173e-08	-1.553746e+01	-1.249367e+03
6.900000e-07	-2.032399e-06	-1.867779e-08	-1.448485e+01	-1.229639e+03
7.000000e-07	-1.884084e-06	-1.837607e-08	-1.342782e+01	-1.209228e+03
7.100000e-07	-1.735223e-06	-1.805943e-08	-1.236689e+01	-1.188403e+03
7.200000e-07	-1.585827e-06	-1.772484e-08	-1.130215e+01	-1.167238e+03
7.300000e-07	-1.435980e-06	-1.737543e-08	-1.023419e+01	-1.145540e+03
7.400000e-07	-1.285669e-06	-1.700782e-08	-9.162933e+00	-1.122842e+03
7.500000e-07	-1.134811e-06	-1.661751e-08	-8.087768e+00	-1.098496e+03
7.600000e-07	-9.835310e-07	-1.619872e-08	-7.009600e+00	-1.071819e+03
7.700000e-07	-8.319518e-07	-1.574926e-08	-5.929299e+00	-1.042265e+03
7.800000e-07	-6.800466e-07	-1.526607e-08	-4.846674e+00	-1.009555e+03
7.900000e-07	-5.278846e-07	-1.474512e-08	-3.762220e+00	-9.737173e+02
8.000000e-07	-3.756260e-07	-1.418314e-08	-2.677077e+00	-9.349969e+02
8.100000e-07	-2.232579e-07	-1.357064e-08	-1.591153e+00	-8.936496e+02
8.200000e-07	-7.068670e-08	-1.289637e-08	-5.037823e-01	-8.496524e+02
8.300000e-07	8.197986e-08	-1.214620e-08	5.842683e-01	-8.024101e+02
8.400000e-07	2.345530e-07	-1.131018e-08	1.671653e+00	-7.505468e+02
8.500000e-07	3.870644e-07	-1.037369e-08	2.758598e+00	-6.918654e+02
8.600000e-07	5.395232e-07	-9.315869e-09	3.845168e+00	-6.235257e+02
8.700000e-07	6.918228e-07	-8.101515e-09	4.930603e+00	-5.424449e+02
8.800000e-07	8.439386e-07	-6.678705e-09	6.014728e+00	-4.458645e+02
8.900000e-07	9.958454e-07	-4.985055e-09	7.097365e+00	-3.319837e+02
9.000000e-07	1.147413e-06	-2.956877e-09	8.177583e+00	-2.005257e+02
9.100000e-07	1.298569e-06	-6.395270e-10	9.254867e+00	-5.310875e+01
9.200000e-07	1.449228e-06	1.797510e-09	1.032861e+01	1.066798e+02
9.300000e-07	1.599304e-06	4.248765e-09	1.139819e+01	2.735479e+02
9.400000e-07	1.748811e-06	6.700582e-09	1.246373e+01	4.410762e+02
9.500000e-07	1.897781e-06	9.148196e-09	1.352543e+01	6.025146e+02
9.600000e-07	2.046153e-06	1.152146e-08	1.458288e+01	7.516556e+02
9.700000e-07	2.193761e-06	1.360412e-08	1.563488e+01	8.836259e+02
9.800000e-07	2.340462e-06	1.525322e-08	1.668041e+01	9.954489e+02
9.900000e-07	2.486198e-06	1.652337e-08	1.771907e+01	1.086284e+03
1.000000e-06	2.630983e-06	1.751094e-08	1.875095e+01	1.157313e+03
1.010000e-06	2.774785e-06	1.829184e-08	1.977582e+01	1.211306e+03
1.020000e-06	2.917537e-06	1.892170e-08	2.079321e+01	1.251993e+03
1.030000e-06	3.059166e-06	1.944432e-08	2.180260e+01	1.283348e+03
1.040000e-06	3.199631e-06	1.988687e-08	2.280369e+01	1.308951e+03
1.050000e-06	3.338784e-06	2.026822e-08	2.379542e+01	1.331537e+03
1.060000e-06	3.476525e-06	2.060053e-08	2.477711e+01	1.352785e+03
1.070000e-06	3.612956e-06	2.089848e-08	2.574944e+01	1.373363e+03
1.080000e-06	3.748078e-06	2.117082e-08	2.671245e+01	1.393175e+03
1.090000e-06	3.881811e-06	2.141736e-08	2.766556e+01	1.411711e+03
1.100000e-06	4.014235e-06	2.164450e-08	2.860935e+01	1.428408e+03
1.110000e-06	4.145263e-06	2.185609e-08	2.954318e+01	1.442935e+03
1.120000e-06	4.274741e-06	2.205214e-08	3.046597e+01	1.455331e+03
1.130000e-06	4.402750e-06	2.223350e-08	3.137829e+01	1.465999e+03
1.140000e-06	4.529260e-06	2.240480e-08	3.227992e+01	1.475581e+03
1.150000e-06	4.654285e-06	2.256894e-08	3.317097e+01	1.484761e+03
1.160000e-06	4.777747e-06	2.272538e-08	3.405088e+01	1.494074e+03
1.170000e-06	4.899436e-06	2.287389e-08	3.491815e+01	1.503782e+03
1.180000e-06	5.019303e-06	2.301496e-08	3.577244e+01	1.513829e+03
1.190000e-06	5.137370e-06	2.315133e-08	3.661390e+01	1.523905e+03
1.200000e-06	5.253579e-06	2.328262e-08	3.744212e+01	1.533575e+03
1.210000e-06	5.367674e-06	2.340750e-08	3.825527e+01	1.542428e+03
1.220000e-06	5.479599e-06	2.352639e-08	3.905296e+01	1.550214e+03
1.230000e-06	5.589549e-06	2.363641e-08	3.983657e+01	1.556914e+03
1.240000e-06	5.697651e-06	2.373802e-08	4.060701e+01	1.562733e+03
1.250000e-06	5.803726e-06	2.383408e-08	4.136300e+01	1.568029e+03
1.260000e-06	5.907574e-06	2.392737e-08	4.210313e+01	1.573199e+03
1.270000e-06	6.009265e-06	2.401783e-08	4.282787e+01	1.578558e+03
1.280000e-06	6.108747e-06	2.410503e-08	4.353688e+01	1.584256e+03
1.290000e-06	6.205841e-06	2.418909e-08	4.422887e+01	1.590248e+03
1.300000e-06	6.300620e-06	2.426933e-08	4.490436e+01	1.596326e+03
1.310000e-06	6.393293e-06	2.434396e-08	4.556483e+01	1.602199e+03
1.320000e-06	6.483662e-06	2.441541e-08	4.620889e+01	1.607595e+03
1.330000e-06	6.571599e-06	2.448689e-08	4.683562e+01	1.612348e+03
1.340000e-06	6.657255e-06	2.455675e-08	4.744608e+01	1.616448e+03
1.350000e-06	6.740627e-06	2.462395e-08	4.804027e+01	1.620038e+03
1.360000e-06	6.821559e-06	2.468843e-08	4.861708e+01	1.623363e+03
1.370000e-06	6.900003e-06	2.474990e-08	4.917614e+01	1.626691e+03
1.380000e-06	6.975945e-06	2.480763e-08	4.971738e+01	1.630226e+03
1.390000e-06	7.049251e-06	2.486317e-08	5.023983e+01	1.634046e+03
1.400000e-06	7.119952e-06	2.491791e-08	5.074371e+01	1.638086e+03
1.410000e-06	7.188156e-06	2.496964e-08	5.122980e+01	1.642159e+03
1.420000e-06	7.253741e-06	2.501821e-08	5.169722e+01	1.646021e+03
1.430000e-06	7.316758e-06	2.506555e-08	5.214635e+01	1.649450e+03
1.440000e-06	7.377391e-06	2.511040e-08	5.257847e+01	1.652315e+03
1.450000e-06	7.435435e-06	2.515264e-08	5.299215e+01	1.654610e+03
1.460000e-06	7.490807e-06	2.519248e-08	5.338679e+01	1.656459e+03
1.470000e-06	7.543350e-06	2.522931e-08	5.376126e+01	1.658070e+03
1.480000e-06	7.592737e-06	2.526289e-08	5.411324e+01	1.659667e+03
1.490000e-06	7.639200e-06	2.529350e-08	5.444438e+01	1.661424e+03
1.500000e-06	7.683085e-06	2.532363e-08	5.475715e+01	1.663406e+03
1.510000e-06	7.724249e-06	2.535229e-08	5.505052e+01	1.665560e+03
1.520000e-06	7.762565e-06	2.537690e-08	5.532360e+01	1.667728e+03
1.530000e-06	7.798232e-06	2.539801e-08	5.557780e+01	1.669705e+03
1.540000e-06	7.831165e-06	2.541694e-08	5.581251e+01	1.671302e+03
1.550000e-06	7.861265e-06	2.543435e-08	5.602703e+01	1.672407e+03
1.560000e-06	7.888601e-06	2.545012e-08	5.622186e+01	1.673022e+03
1.570000e-06	7.912970e-06	2.546454e-08	5.639554e+01	1.673258e+03
1.580000e-06	7.934489e-06	2.547758e-08	5.654890e+01	1.673299e+03
1.590000e-06	7.953314e-06	2.548807e-08	5.668306e+01	1.673347e+03
1.600000e-06	7.969203e-06	2.549633e-08	5.679630e+01	1.673559e+03
1.610000e-06	7.982070e-06	2.550333e-08	5.688801e+01	1.673999e+03
1.620000e-06	7.991825e-06	2.550894e-08	5.695753e+01	1.674620e+03
1.630000e-06	7.998524e-06	2.551195e-08	5.700527e+01	1.675282e+03
1.640000e-06	8.002469e-06	2.551260e-08	5.703339e+01	1.675796e+03
1.650000e-06	8.003607e-06	2.551329e-08	5.704150e+01	1.675987e+03
1.660000e-06	8.001982e-06	2.550892e-08	5.702992e+01	1.675743e+03
1.670000e-06	7.997823e-06	2.550001e-08	5.700028e+01	1.675050e+03
1.680000e-06	7.990969e-06	2.549385e-08	5.695143e+01	1.673994e+03
1.690000e-06	7.981370e-06	2.548443e-08	5.688301e+01	1.672731e+03
1.700000e-06	7.968994e-06	2.547165e-08	5.679482e+01	1.671439e+03
1.710000e-06	7.953842e-06	2.546351e-08	5.668683e+01	1.670261e+03
1.720000e-06	7.936169e-06	2.546003e-08	5.656087e+01	1.669265e+03
1.730000e-06	7.916215e-06	2.543014e-08	5.641866e+01	1.668430e+03
1.740000e-06	7.893599e-06	2.532224e-08	5.625748e+01	1.667654e+03
1.750000e-06	7.867506e-06	2.530792e-08	5.607151e+01	1.666798e+03
1.760000e-06	7.837668e-06	2.533800e-08	5.585886e+01	1.665730e+03
1.770000e-06	7.804718e-06	2.530875e-08	5.562402e+01	1.664373e+03
1.780000e-06	7.769460e-06	2.531911e-08	5.537274e+01	1.662727e+03
1.790000e-06	7.731940e-06	2.538799e-08	5.510534e+01	1.660866e+03
1.800000e-06	7.692344e-06	2.531403e-08	5.482313e+01	1.658908e+03
1.810000e-06	7.650577e-06	2.525201e-08	5.452547e+01	1.656971e+03
1.820000e-06	7.606159e-06	2.530442e-08	5.420890e+01	1.655123e+03
1.830000e-06	7.559093e-06	2.520556e-08	5.387346e+01	1.653353e+03
1.840000e-06	7.509163e-06	2.525058e-08	5.351761e+01	1.651564e+03
1.850000e-06	7.456246e-06	2.524532e-08	5.314047e+01	1.649600e+03
1.860000e-06	7.400492e-06	2.517531e-08	5.274312e+01	1.647289e+03
1.870000e-06	7.342063e-06	2.513380e-08	5.232670e+01	1.644497e+03
1.880000e-06	7.281100e-06	2.497343e-08	5.189221e+01	1.641175e+03
1.890000e-06	7.217263e-06	2.500809e-08	5.143725e+01	1.637375e+03
1.900000e-06	7.150555e-06	2.494050e-08	5.096182e+01	1.633241e+03
1.910000e-06	7.081162e-06	2.487859e-08	5.046726e+01	1.628963e+03
1.920000e-06	7.008994e-06	2.489753e-08	4.995292e+01	1.624728e+03
1.930000e-06	6.934173e-06	2.477169e-08	4.941967e+01	1.620655e+03
1.940000e-06	6.856564e-06	2.470900e-08	4.886656e+01	1.616760e+03
1.950000e-06	6.776245e-06	2.459869e-08	4.829413e+01	1.612951e+03
1.960000e-06	6.693488e-06	2.457742e-08	4.770432e+01	1.609051e+03
1.970000e-06	6.608274e-06	2.451069e-08	4.709700e+01	1.604856e+03
1.980000e-06	6.520539e-06	2.442185e-08	4.647172e+01	1.600196e+03
1.990000e-06	6.430436e-06	2.438263e-08	4.582955e+01	1.594988e+03
2.000000e-06	6.338183e-06	2.426457e-08	4.517207e+01	1.589266e+03
2.010000e-06	6.243611e-06	2.419064e-08	4.449806e+01	1.583167e+03
2.020000e-06	6.146786e-06	2.408469e-08	4.380798e+01	1.576893e+03
2.030000e-06	6.047869e-06	2.402334e-08	4.310301e+01	1.570644e+03
2.040000e-06	5.946837e-06	2.393199e-08	4.238295e+01	1.564554e+03
2.050000e-06	5.843625e-06	2.383956e-08	4.164737e+01	1.558647e+03
2.060000e-06	5.738317e-06	2.374776e-08	4.089684e+01	1.552823e+03
2.070000e-06	5.631127e-06	2.362820e-08	4.013290e+01	1.546886e+03
2.080000e-06	5.522040e-06	2.352228e-08	3.935544e+01	1.540604e+03
2.090000e-06	5.410968e-06	2.341026e-08	3.856383e+01	1.533778e+03
2.100000e-06	5.297816e-06	2.331677e-08	3.775739e+01	1.526305e+03
2.110000e-06	5.182647e-06	2.319917e-08	3.693659e+01	1.518211e+03
2.120000e-06	5.065444e-06	2.308937e-08	3.610129e+01	1.509641e+03
2.130000e-06	4.946212e-06	2.295860e-08	3.525152e+01	1.500815e+03
2.140000e-06	4.825168e-06	2.282380e-08	3.438885e+01	1.491953e+03
2.150000e-06	4.702457e-06	2.268579e-08	3.351429e+01	1.483203e+03
2.160000e-06	4.578049e-06	2.256013e-08	3.262764e+01	1.474584e+03
2.170000e-06	4.451944e-06	2.242651e-08	3.172889e+01	1.465974e+03
2.180000e-06	4.324167e-06	2.227930e-08	3.081823e+01	1.457142e+03
2.190000e-06	4.194819e-06	2.212769e-08	2.989637e+01	1.447810e+03
2.200000e-06	4.064029e-06	2.196831e-08	2.896423e+01	1.437744e+03
2.210000e-06	3.931769e-06	2.180806e-08	2.802161e+01	1.426819e+03
2.220000e-06	3.798033e-06	2.164132e-08	2.706848e+01	1.415066e+03
2.230000e-06	3.662773e-06	2.147798e-08	2.610449e+01	1.402659e+03
2.240000e-06	3.526119e-06	2.129781e-08	2.513056e+01	1.389856e+03
2.250000e-06	3.388171e-06	2.110703e-08	2.414741e+01	1.376914e+03
2.260000e-06	3.248914e-06	2.090506e-08	2.315493e+01	1.363994e+03
2.270000e-06	3.108324e-06	2.070059e-08	2.215294e+01	1.351093e+03
2.280000e-06	2.966506e-06	2.049040e-08	2.114221e+01	1.338027e+03
2.290000e-06	2.823547e-06	2.027598e-08	2.012335e+01	1.324471e+03
2.300000e-06	2.679469e-06	2.005148e-08	1.909651e+01	1.310045e+03
2.310000e-06	2.534470e-06	1.981005e-08	1.806310e+01	1.294426e+03
2.320000e-06	2.388672e-06	1.955154e-08	1.702401e+01	1.277440e+03
2.330000e-06	2.242135e-06	1.928149e-08	1.597964e+01	1.259120e+03
2.340000e-06	2.094805e-06	1.900558e-08	1.492962e+01	1.239684e+03
2.350000e-06	1.946727e-06	1.872109e-08	1.387427e+01	1.219457e+03
2.360000e-06	1.798122e-06	1.842367e-08	1.281517e+01	1.198745e+03
2.370000e-06	1.649012e-06	1.810518e-08	1.175247e+01	1.177697e+03
2.380000e-06	1.499336e-06	1.776159e-08	1.068573e+01	1.156209e+03
2.390000e-06	1.349120e-06	1.739343e-08	9.615143e+00	1.133897e+03
2.400000e-06	1.198397e-06	1.700870e-08	8.540947e+00	1.110158e+03
2.410000e-06	1.047159e-06	1.660455e-08	7.463075e+00	1.084299e+03
2.420000e-06	8.954376e-07	1.617338e-08	6.381760e+00	1.055715e+03
2.430000e-06	7.434554e-07	1.570923e-08	5.298587e+00	1.024030e+03
2.440000e-06	5.913072e-07	1.520427e-08	4.214231e+00	9.891783e+02
2.450000e-06	4.389642e-07	1.465422e-08	3.128487e+00	9.513517e+02
2.460000e-06	2.864059e-07	1.405659e-08	2.041207e+00	9.108316e+02
2.470000e-06	1.336700e-07	1.340274e-08	9.526625e-01	8.677182e+02
2.480000e-06	-1.911495e-08	1.268324e-08	-1.362318e-01	8.216288e+02
2.490000e-06	-1.718623e-07	1.188564e-08	-1.224858e+00	7.714524e+02
2.500000e-06	-3.245504e-07	1.099380e-08	-2.313063e+00	7.152475e+02
2.510000e-06	-4.772196e-07	9.988266e-09	-3.401132e+00	6.503470e+02
2.520000e-06	-6.297715e-07	8.834057e-09	-4.488365e+00	5.736905e+02
2.530000e-06	-7.821158e-07	7.489947e-09	-5.574119e+00	4.823472e+02
2.540000e-06	-9.342249e-07	5.906263e-09	-6.658197e+00	3.741404e+02
2.550000e-06	-1.085972e-06	4.012300e-09	-7.739694e+00	2.482513e+02
2.560000e-06	-1.237299e-06	1.773579e-09	-8.818199e+00	1.056653e+02
2.570000e-06	-1.388148e-06	-6.845778e-10	-9.893292e+00	-5.065089e+01
2.580000e-06	-1.538339e-06	-3.195421e-09	-1.096370e+01	-2.159039e+02
2.590000e-06	-1.687861e-06	-5.710618e-09	-1.202934e+01	-3.839578e+02
2.600000e-06	-1.836804e-06	-8.225989e-09	-1.309085e+01	-5.480741e+02
2.610000e-06	-1.985107e-06	-1.070428e-08	-1.414780e+01	-7.017775e+02
2.620000e-06	-2.132673e-06	-1.295961e-08	-1.519951e+01	-8.396908e+02
2.630000e-06	-2.279383e-06	-1.479687e-08	-1.624511e+01	-9.581849e+02
2.640000e-06	-2.425277e-06	-1.621718e-08	-1.728488e+01	-1.055729e+03
2.650000e-06	-2.570418e-06	-1.731624e-08	-1.831930e+01	-1.132886e+03
2.660000e-06	-2.714682e-06	-1.817865e-08	-1.934747e+01	-1.191980e+03
2.670000e-06	-2.857839e-06	-1.886640e-08	-2.036774e+01	-1.236509e+03
2.680000e-06	-2.999716e-06	-1.942771e-08	-2.137890e+01	-1.270442e+03
2.690000e-06	-3.140301e-06	-1.989472e-08	-2.238084e+01	-1.297549e+03
2.700000e-06	-3.279574e-06	-2.029447e-08	-2.337344e+01	-1.320870e+03
2.710000e-06	-3.417579e-06	-2.064466e-08	-2.435700e+01	-1.342429e+03
2.720000e-06	-3.554459e-06	-2.095549e-08	-2.533254e+01	-1.363203e+03
2.730000e-06	-3.690087e-06	-2.123507e-08	-2.629915e+01	-1.383305e+03
2.740000e-06	-3.824241e-06	-2.148886e-08	-2.725527e+01	-1.402316e+03
2.750000e-06	-3.957035e-06	-2.172337e-08	-2.820169e+01	-1.419656e+03
2.760000e-06	-4.088422e-06	-2.194361e-08	-2.913808e+01	-1.434895e+03
2.770000e-06	-4.218393e-06	-2.214810e-08	-3.006438e+01	-1.447948e+03
2.780000e-06	-4.347069e-06	-2.233673e-08	-3.098145e+01	-1.459110e+03
2.790000e-06	-4.474220e-06	-2.251060e-08	-3.188765e+01	-1.468964e+03
2.800000e-06	-4.599713e-06	-2.267030e-08	-3.278204e+01	-1.478204e+03
2.810000e-06	-4.723633e-06	-2.282075e-08	-3.366521e+01	-1.487431e+03
2.820000e-06	-4.845944e-06	-2.296625e-08	-3.453692e+01	-1.497004e+03
2.830000e-06	-4.966527e-06	-2.310903e-08	-3.539631e+01	-1.506965e+03
2.840000e-06	-5.085221e-06	-2.324757e-08	-3.624224e+01	-1.517077e+03
2.850000e-06	-5.201855e-06	-2.337737e-08	-3.707349e+01	-1.526926e+03
2.860000e-06	-5.316354e-06	-2.349985e-08	-3.788951e+01	-1.536078e+03
2.870000e-06	-5.428678e-06	-2.361520e-08	-3.869005e+01	-1.544222e+03
2.880000e-06	-5.538902e-06	-2.372243e-08	-3.947561e+01	-1.551258e+03
2.890000e-06	-5.647172e-06	-2.382573e-08	-4.024725e+01	-1.557326e+03
2.900000e-06	-5.753557e-06	-2.392382e-08	-4.100545e+01	-1.562747e+03
2.910000e-06	-5.857943e-06	-2.401773e-08	-4.174941e+01	-1.567917e+03
2.920000e-06	-5.960084e-06	-2.410696e-08	-4.247736e+01	-1.573190e+03
2.930000e-06	-6.059967e-06	-2.419105e-08	-4.318923e+01	-1.578775e+03
2.940000e-06	-6.157763e-06	-2.427209e-08	-4.388622e+01	-1.584688e+03
