# Temperatura_=_61.47
# Concentracion g/m^3_=_41000.0
# C_Vs_to_Am_M_A/Vsm_=_65563218390.804596
# pendiente_HvsI_1/m_=_3716.3
# ordenada_HvsI_A/m_=_1297.0
# frecuencia_Hz_=_302478.549180189

Tiempo_(s)	Campo_(V.s)	Magnetizacion_(V.s)	Campo_(kA/m)	Magnetizacion_(A/m)
0.000000e+00	-8.086093e-06	-2.191877e-08	-5.688317e+01	-1.437723e+03
1.000000e-08	-8.083764e-06	-2.191801e-08	-5.686679e+01	-1.437030e+03
2.000000e-08	-8.078696e-06	-2.191365e-08	-5.683113e+01	-1.435863e+03
3.000000e-08	-8.071035e-06	-2.190610e-08	-5.677724e+01	-1.434478e+03
4.000000e-08	-8.060564e-06	-2.189880e-08	-5.670358e+01	-1.433166e+03
5.000000e-08	-8.047142e-06	-2.188800e-08	-5.660916e+01	-1.432165e+03
6.000000e-08	-8.030779e-06	-2.187418e-08	-5.649405e+01	-1.431585e+03
7.000000e-08	-8.011878e-06	-2.186421e-08	-5.636109e+01	-1.431376e+03
8.000000e-08	-7.990701e-06	-2.186952e-08	-5.621211e+01	-1.431354e+03
9.000000e-08	-7.966674e-06	-2.189639e-08	-5.604310e+01	-1.431259e+03
1.000000e-07	-7.939322e-06	-2.188079e-08	-5.585068e+01	-1.430843e+03
1.100000e-07	-7.908838e-06	-2.183009e-08	-5.563623e+01	-1.429949e+03
1.200000e-07	-7.875492e-06	-2.179925e-08	-5.540165e+01	-1.428564e+03
1.300000e-07	-7.839396e-06	-2.176562e-08	-5.514773e+01	-1.426816e+03
1.400000e-07	-7.800908e-06	-2.170405e-08	-5.487698e+01	-1.424935e+03
1.500000e-07	-7.760225e-06	-2.166839e-08	-5.459079e+01	-1.423170e+03
1.600000e-07	-7.717106e-06	-2.172053e-08	-5.428746e+01	-1.421704e+03
1.700000e-07	-7.671265e-06	-2.168627e-08	-5.396498e+01	-1.420591e+03
1.800000e-07	-7.622589e-06	-2.162979e-08	-5.362256e+01	-1.419730e+03
1.900000e-07	-7.570912e-06	-2.164160e-08	-5.325903e+01	-1.418890e+03
2.000000e-07	-7.516291e-06	-2.157255e-08	-5.287478e+01	-1.417782e+03
2.100000e-07	-7.458924e-06	-2.150174e-08	-5.247123e+01	-1.416148e+03
2.200000e-07	-7.398812e-06	-2.149482e-08	-5.204836e+01	-1.413843e+03
2.300000e-07	-7.336019e-06	-2.149121e-08	-5.160663e+01	-1.410883e+03
2.400000e-07	-7.270529e-06	-2.143226e-08	-5.114593e+01	-1.407446e+03
2.500000e-07	-7.202311e-06	-2.137147e-08	-5.066603e+01	-1.403819e+03
2.600000e-07	-7.131303e-06	-2.136469e-08	-5.016651e+01	-1.400311e+03
2.700000e-07	-7.057428e-06	-2.132588e-08	-4.964683e+01	-1.397153e+03
2.800000e-07	-6.980790e-06	-2.125778e-08	-4.910770e+01	-1.394429e+03
2.900000e-07	-6.901325e-06	-2.121225e-08	-4.854869e+01	-1.392045e+03
3.000000e-07	-6.819222e-06	-2.117905e-08	-4.797112e+01	-1.389755e+03
3.100000e-07	-6.734818e-06	-2.111758e-08	-4.737737e+01	-1.387238e+03
3.200000e-07	-6.648077e-06	-2.103830e-08	-4.676717e+01	-1.384193e+03
3.300000e-07	-6.558937e-06	-2.099764e-08	-4.614009e+01	-1.380441e+03
3.400000e-07	-6.467379e-06	-2.094411e-08	-4.549602e+01	-1.375976e+03
3.500000e-07	-6.373498e-06	-2.087126e-08	-4.483559e+01	-1.370973e+03
3.600000e-07	-6.277315e-06	-2.081033e-08	-4.415898e+01	-1.365732e+03
3.700000e-07	-6.178814e-06	-2.075569e-08	-4.346605e+01	-1.360588e+03
3.800000e-07	-6.078141e-06	-2.068540e-08	-4.275785e+01	-1.355801e+03
3.900000e-07	-5.975290e-06	-2.060655e-08	-4.203432e+01	-1.351471e+03
4.000000e-07	-5.870249e-06	-2.053738e-08	-4.129539e+01	-1.347502e+03
4.100000e-07	-5.763130e-06	-2.045577e-08	-4.054184e+01	-1.343627e+03
4.200000e-07	-5.654000e-06	-2.037512e-08	-3.977414e+01	-1.339486e+03
4.300000e-07	-5.542858e-06	-2.030287e-08	-3.899230e+01	-1.334739e+03
4.400000e-07	-5.429583e-06	-2.022587e-08	-3.819544e+01	-1.329171e+03
4.500000e-07	-5.314211e-06	-2.012933e-08	-3.738383e+01	-1.322762e+03
4.600000e-07	-5.196896e-06	-2.003186e-08	-3.655856e+01	-1.315698e+03
4.700000e-07	-5.077656e-06	-1.993714e-08	-3.571974e+01	-1.308312e+03
4.800000e-07	-4.956537e-06	-1.983438e-08	-3.486771e+01	-1.300981e+03
4.900000e-07	-4.833633e-06	-1.973153e-08	-3.400312e+01	-1.294000e+03
5.000000e-07	-4.709011e-06	-1.963213e-08	-3.312644e+01	-1.287486e+03
5.100000e-07	-4.582695e-06	-1.952823e-08	-3.223784e+01	-1.281327e+03
5.200000e-07	-4.454666e-06	-1.940723e-08	-3.133720e+01	-1.275208e+03
5.300000e-07	-4.324986e-06	-1.928354e-08	-3.042494e+01	-1.268701e+03
5.400000e-07	-4.193740e-06	-1.916123e-08	-2.950167e+01	-1.261394e+03
5.500000e-07	-4.060967e-06	-1.903522e-08	-2.856765e+01	-1.253022e+03
5.600000e-07	-3.926668e-06	-1.890253e-08	-2.762290e+01	-1.243549e+03
5.700000e-07	-3.790828e-06	-1.876542e-08	-2.666731e+01	-1.233188e+03
5.800000e-07	-3.653495e-06	-1.862046e-08	-2.570121e+01	-1.222334e+03
5.900000e-07	-3.514701e-06	-1.846440e-08	-2.472484e+01	-1.211439e+03
6.000000e-07	-3.374425e-06	-1.830598e-08	-2.373804e+01	-1.200861e+03
6.100000e-07	-3.232725e-06	-1.814377e-08	-2.274122e+01	-1.190732e+03
6.200000e-07	-3.089697e-06	-1.797377e-08	-2.173507e+01	-1.180898e+03
6.300000e-07	-2.945467e-06	-1.779474e-08	-2.072045e+01	-1.170945e+03
6.400000e-07	-2.800153e-06	-1.760700e-08	-1.969821e+01	-1.160307e+03
6.500000e-07	-2.653964e-06	-1.740799e-08	-1.866981e+01	-1.148434e+03
6.600000e-07	-2.506952e-06	-1.720250e-08	-1.763563e+01	-1.134959e+03
6.700000e-07	-2.359052e-06	-1.699279e-08	-1.659520e+01	-1.119819e+03
6.800000e-07	-2.210408e-06	-1.677275e-08	-1.554954e+01	-1.103283e+03
6.900000e-07	-2.061070e-06	-1.653640e-08	-1.449899e+01	-1.085862e+03
7.000000e-07	-1.911029e-06	-1.628375e-08	-1.344350e+01	-1.068148e+03
7.100000e-07	-1.760336e-06	-1.601823e-08	-1.238342e+01	-1.050593e+03
7.200000e-07	-1.608973e-06	-1.573619e-08	-1.131863e+01	-1.033322e+03
7.300000e-07	-1.456958e-06	-1.544021e-08	-1.024925e+01	-1.016036e+03
7.400000e-07	-1.304438e-06	-1.512920e-08	-9.176321e+00	-9.980325e+02
7.500000e-07	-1.151491e-06	-1.479804e-08	-8.100384e+00	-9.783619e+02
7.600000e-07	-9.981694e-07	-1.444239e-08	-7.021813e+00	-9.560767e+02
7.700000e-07	-8.445330e-07	-1.405934e-08	-5.941029e+00	-9.304950e+02
7.800000e-07	-6.905680e-07	-1.364813e-08	-4.857933e+00	-9.013979e+02
7.900000e-07	-5.363234e-07	-1.320299e-08	-3.772869e+00	-8.690822e+02
8.000000e-07	-3.818932e-07	-1.271907e-08	-2.686501e+00	-8.342279e+02
8.100000e-07	-2.273169e-07	-1.219014e-08	-1.599104e+00	-7.975915e+02
8.200000e-07	-7.258632e-08	-1.160834e-08	-5.106224e-01	-7.595925e+02
8.300000e-07	8.219907e-08	-1.096271e-08	5.782451e-01	-7.198990e+02
8.400000e-07	2.369821e-07	-1.024084e-08	1.667096e+00	-6.771395e+02
8.500000e-07	3.917062e-07	-9.426988e-09	2.755532e+00	-6.288468e+02
8.600000e-07	5.462698e-07	-8.501929e-09	3.842839e+00	-5.716948e+02
8.700000e-07	7.006856e-07	-7.440447e-09	4.929107e+00	-5.020188e+02
8.800000e-07	8.548850e-07	-6.200304e-09	6.013852e+00	-4.165366e+02
8.900000e-07	1.008791e-06	-4.725959e-09	7.096533e+00	-3.131266e+02
9.000000e-07	1.162392e-06	-2.956250e-09	8.177067e+00	-1.914933e+02
9.100000e-07	1.315594e-06	-8.618279e-10	9.254799e+00	-5.355918e+01
9.200000e-07	1.468354e-06	1.473602e-09	1.032941e+01	9.652707e+01
9.300000e-07	1.620617e-06	3.906887e-09	1.140054e+01	2.527962e+02
9.400000e-07	1.772243e-06	6.344374e-09	1.246718e+01	4.082186e+02
9.500000e-07	1.923150e-06	8.668735e-09	1.352876e+01	5.556803e+02
9.600000e-07	2.073315e-06	1.070340e-08	1.458513e+01	6.889878e+02
9.700000e-07	2.222652e-06	1.235255e-08	1.563567e+01	8.037052e+02
9.800000e-07	2.371082e-06	1.364766e-08	1.667983e+01	8.976650e+02
9.900000e-07	2.518648e-06	1.466170e-08	1.771791e+01	9.710661e+02
1.000000e-06	2.665274e-06	1.546114e-08	1.874938e+01	1.026159e+03
1.010000e-06	2.810926e-06	1.609935e-08	1.977400e+01	1.066611e+03
1.020000e-06	2.955600e-06	1.661921e-08	2.079173e+01	1.096696e+03
1.030000e-06	3.099119e-06	1.705102e-08	2.180134e+01	1.120492e+03
1.040000e-06	3.241407e-06	1.741898e-08	2.280230e+01	1.141250e+03
1.050000e-06	3.382427e-06	1.773800e-08	2.379433e+01	1.161032e+03
1.060000e-06	3.522167e-06	1.801728e-08	2.477736e+01	1.180670e+03
1.070000e-06	3.660550e-06	1.826670e-08	2.575084e+01	1.199999e+03
1.080000e-06	3.797510e-06	1.849509e-08	2.671431e+01	1.218269e+03
1.090000e-06	3.932996e-06	1.870382e-08	2.766742e+01	1.234605e+03
1.100000e-06	4.067031e-06	1.889425e-08	2.861031e+01	1.248401e+03
1.110000e-06	4.199663e-06	1.907064e-08	2.954333e+01	1.259546e+03
1.120000e-06	4.330861e-06	1.923430e-08	3.046627e+01	1.268457e+03
1.130000e-06	4.460576e-06	1.938622e-08	3.137877e+01	1.275936e+03
1.140000e-06	4.588665e-06	1.952922e-08	3.227984e+01	1.282917e+03
1.150000e-06	4.715151e-06	1.966438e-08	3.316963e+01	1.290193e+03
1.160000e-06	4.840067e-06	1.978940e-08	3.404838e+01	1.298210e+03
1.170000e-06	4.963321e-06	1.990668e-08	3.491543e+01	1.306976e+03
1.180000e-06	5.084780e-06	2.001802e-08	3.576985e+01	1.316113e+03
1.190000e-06	5.204321e-06	2.012609e-08	3.661079e+01	1.325012e+03
1.200000e-06	5.321981e-06	2.022917e-08	3.743849e+01	1.333058e+03
1.210000e-06	5.437715e-06	2.032498e-08	3.825264e+01	1.339820e+03
1.220000e-06	5.551291e-06	2.041410e-08	3.905162e+01	1.345189e+03
1.230000e-06	5.662665e-06	2.049638e-08	3.983510e+01	1.349392e+03
1.240000e-06	5.772077e-06	2.057454e-08	4.060478e+01	1.352917e+03
1.250000e-06	5.879577e-06	2.065016e-08	4.136101e+01	1.356346e+03
1.260000e-06	5.984883e-06	2.072327e-08	4.210180e+01	1.360187e+03
1.270000e-06	6.087883e-06	2.079492e-08	4.282638e+01	1.364722e+03
1.280000e-06	6.188654e-06	2.086555e-08	4.353527e+01	1.369941e+03
1.290000e-06	6.287156e-06	2.093292e-08	4.422820e+01	1.375565e+03
1.300000e-06	6.383252e-06	2.099426e-08	4.490421e+01	1.381150e+03
1.310000e-06	6.477021e-06	2.105063e-08	4.556385e+01	1.386236e+03
1.320000e-06	6.568583e-06	2.110672e-08	4.620795e+01	1.390491e+03
1.330000e-06	6.657774e-06	2.116428e-08	4.683539e+01	1.393810e+03
1.340000e-06	6.744535e-06	2.122072e-08	4.744572e+01	1.396336e+03
1.350000e-06	6.828960e-06	2.127429e-08	4.803963e+01	1.398406e+03
1.360000e-06	6.910957e-06	2.132331e-08	4.861645e+01	1.400439e+03
1.370000e-06	6.990426e-06	2.136952e-08	4.917549e+01	1.402801e+03
1.380000e-06	7.067347e-06	2.141432e-08	4.971660e+01	1.405691e+03
1.390000e-06	7.141593e-06	2.145726e-08	5.023890e+01	1.409091e+03
1.400000e-06	7.213199e-06	2.149938e-08	5.074263e+01	1.412775e+03
1.410000e-06	7.282310e-06	2.153751e-08	5.122880e+01	1.416390e+03
1.420000e-06	7.348830e-06	2.157268e-08	5.169675e+01	1.419572e+03
1.430000e-06	7.412688e-06	2.160724e-08	5.214597e+01	1.422060e+03
1.440000e-06	7.474018e-06	2.164124e-08	5.257741e+01	1.423775e+03
1.450000e-06	7.532744e-06	2.167438e-08	5.299053e+01	1.424845e+03
1.460000e-06	7.588815e-06	2.170402e-08	5.338497e+01	1.425554e+03
1.470000e-06	7.642136e-06	2.173079e-08	5.376007e+01	1.426254e+03
1.480000e-06	7.692284e-06	2.175510e-08	5.411284e+01	1.427253e+03
1.490000e-06	7.739345e-06	2.177757e-08	5.444390e+01	1.428720e+03
1.500000e-06	7.783746e-06	2.179845e-08	5.475625e+01	1.430634e+03
1.510000e-06	7.825391e-06	2.181756e-08	5.504921e+01	1.432798e+03
1.520000e-06	7.864166e-06	2.183552e-08	5.532198e+01	1.434904e+03
1.530000e-06	7.900313e-06	2.185179e-08	5.557626e+01	1.436630e+03
1.540000e-06	7.933703e-06	2.186700e-08	5.581115e+01	1.437748e+03
1.550000e-06	7.964196e-06	2.188011e-08	5.602566e+01	1.438189e+03
1.560000e-06	7.991915e-06	2.189071e-08	5.622066e+01	1.438064e+03
1.570000e-06	8.016661e-06	2.190063e-08	5.639474e+01	1.437631e+03
1.580000e-06	8.038497e-06	2.190986e-08	5.654835e+01	1.437209e+03
1.590000e-06	8.057587e-06	2.191845e-08	5.668263e+01	1.437079e+03
1.600000e-06	8.073693e-06	2.192518e-08	5.679594e+01	1.437400e+03
1.610000e-06	8.086717e-06	2.193018e-08	5.688756e+01	1.438158e+03
1.620000e-06	8.096617e-06	2.193457e-08	5.695720e+01	1.439176e+03
1.630000e-06	8.103473e-06	2.193682e-08	5.700543e+01	1.440169e+03
1.640000e-06	8.107490e-06	2.193772e-08	5.703369e+01	1.440838e+03
1.650000e-06	8.108600e-06	2.193842e-08	5.704150e+01	1.440959e+03
1.660000e-06	8.106884e-06	2.193459e-08	5.702943e+01	1.440455e+03
1.670000e-06	8.102549e-06	2.192728e-08	5.699893e+01	1.439416e+03
1.680000e-06	8.095509e-06	2.192022e-08	5.694941e+01	1.438068e+03
1.690000e-06	8.085804e-06	2.191121e-08	5.688114e+01	1.436702e+03
1.700000e-06	8.073330e-06	2.190062e-08	5.679338e+01	1.435582e+03
1.710000e-06	8.058000e-06	2.189314e-08	5.668555e+01	1.434864e+03
1.720000e-06	8.040159e-06	2.188364e-08	5.656004e+01	1.434550e+03
1.730000e-06	8.020027e-06	2.184453e-08	5.641842e+01	1.434494e+03
1.740000e-06	7.997131e-06	2.178122e-08	5.625735e+01	1.434451e+03
1.750000e-06	7.970684e-06	2.178270e-08	5.607130e+01	1.434160e+03
1.760000e-06	7.940522e-06	2.179981e-08	5.585912e+01	1.433429e+03
1.770000e-06	7.907220e-06	2.178016e-08	5.562485e+01	1.432193e+03
1.780000e-06	7.871491e-06	2.179452e-08	5.537351e+01	1.430540e+03
1.790000e-06	7.833518e-06	2.183979e-08	5.510638e+01	1.428674e+03
1.800000e-06	7.793493e-06	2.179902e-08	5.482482e+01	1.426846e+03
1.810000e-06	7.751198e-06	2.176338e-08	5.452729e+01	1.425270e+03
1.820000e-06	7.706150e-06	2.177608e-08	5.421039e+01	1.424047e+03
1.830000e-06	7.658435e-06	2.171711e-08	5.387472e+01	1.423125e+03
1.840000e-06	7.607836e-06	2.171868e-08	5.351878e+01	1.422308e+03
1.850000e-06	7.554210e-06	2.172390e-08	5.314154e+01	1.421317e+03
1.860000e-06	7.497712e-06	2.169716e-08	5.274409e+01	1.419875e+03
1.870000e-06	7.438522e-06	2.163666e-08	5.232770e+01	1.417791e+03
1.880000e-06	7.376733e-06	2.155657e-08	5.189304e+01	1.415029e+03
1.890000e-06	7.312054e-06	2.156262e-08	5.143804e+01	1.411717e+03
1.900000e-06	7.244508e-06	2.150198e-08	5.096288e+01	1.408117e+03
1.910000e-06	7.174134e-06	2.146822e-08	5.046782e+01	1.404539e+03
1.920000e-06	7.100909e-06	2.145613e-08	4.995271e+01	1.401251e+03
1.930000e-06	7.024963e-06	2.138213e-08	4.941845e+01	1.398388e+03
1.940000e-06	6.946286e-06	2.132842e-08	4.886498e+01	1.395915e+03
1.950000e-06	6.865006e-06	2.126618e-08	4.829320e+01	1.393628e+03
1.960000e-06	6.781160e-06	2.123876e-08	4.770337e+01	1.391219e+03
1.970000e-06	6.694770e-06	2.117733e-08	4.709564e+01	1.388371e+03
1.980000e-06	6.605980e-06	2.111836e-08	4.647103e+01	1.384856e+03
1.990000e-06	6.514862e-06	2.107626e-08	4.583004e+01	1.380608e+03
2.000000e-06	6.421421e-06	2.101147e-08	4.517271e+01	1.375749e+03
2.010000e-06	6.325673e-06	2.094187e-08	4.449916e+01	1.370547e+03
2.020000e-06	6.227713e-06	2.086748e-08	4.381004e+01	1.365338e+03
2.030000e-06	6.127486e-06	2.081090e-08	4.310498e+01	1.360416e+03
2.040000e-06	6.025045e-06	2.073402e-08	4.238433e+01	1.355940e+03
2.050000e-06	5.920487e-06	2.066354e-08	4.164880e+01	1.351876e+03
2.060000e-06	5.813897e-06	2.059552e-08	4.089897e+01	1.348007e+03
2.070000e-06	5.705282e-06	2.051520e-08	4.013490e+01	1.343992e+03
2.080000e-06	5.594587e-06	2.042491e-08	3.935619e+01	1.339470e+03
2.090000e-06	5.481863e-06	2.033915e-08	3.856322e+01	1.334178e+03
2.100000e-06	5.367090e-06	2.025809e-08	3.775582e+01	1.328028e+03
2.110000e-06	5.250213e-06	2.017096e-08	3.693363e+01	1.321143e+03
2.120000e-06	5.131353e-06	2.008388e-08	3.609749e+01	1.313819e+03
2.130000e-06	5.010653e-06	1.998821e-08	3.524840e+01	1.306431e+03
2.140000e-06	4.888099e-06	1.988396e-08	3.438627e+01	1.299314e+03
2.150000e-06	4.763756e-06	1.977574e-08	3.351155e+01	1.292651e+03
2.160000e-06	4.637654e-06	1.967392e-08	3.262446e+01	1.286403e+03
2.170000e-06	4.509878e-06	1.956794e-08	3.172560e+01	1.280315e+03
2.180000e-06	4.380513e-06	1.945387e-08	3.081556e+01	1.273980e+03
2.190000e-06	4.249598e-06	1.933189e-08	2.989461e+01	1.266969e+03
2.200000e-06	4.117065e-06	1.920508e-08	2.896228e+01	1.258954e+03
2.210000e-06	3.982917e-06	1.907113e-08	2.801859e+01	1.249823e+03
2.220000e-06	3.847308e-06	1.893517e-08	2.706463e+01	1.239710e+03
2.230000e-06	3.710285e-06	1.880205e-08	2.610071e+01	1.228965e+03
2.240000e-06	3.571832e-06	1.866171e-08	2.512673e+01	1.218036e+03
2.250000e-06	3.431890e-06	1.850959e-08	2.414228e+01	1.207328e+03
2.260000e-06	3.290598e-06	1.834935e-08	2.314834e+01	1.197057e+03
2.270000e-06	3.148093e-06	1.818236e-08	2.214587e+01	1.187163e+03
2.280000e-06	3.004393e-06	1.800735e-08	2.113497e+01	1.177305e+03
2.290000e-06	2.859639e-06	1.782725e-08	2.011668e+01	1.166951e+03
2.300000e-06	2.713896e-06	1.763938e-08	1.909142e+01	1.155526e+03
2.310000e-06	2.567225e-06	1.743857e-08	1.805964e+01	1.142589e+03
2.320000e-06	2.419718e-06	1.722586e-08	1.702197e+01	1.127970e+03
2.330000e-06	2.271268e-06	1.700484e-08	1.597767e+01	1.111835e+03
2.340000e-06	2.121913e-06	1.677517e-08	1.492701e+01	1.094633e+03
2.350000e-06	1.971880e-06	1.653612e-08	1.387157e+01	1.076953e+03
2.360000e-06	1.821234e-06	1.628463e-08	1.281182e+01	1.059313e+03
2.370000e-06	1.669960e-06	1.601525e-08	1.174765e+01	1.041962e+03
2.380000e-06	1.518137e-06	1.572547e-08	1.067963e+01	1.024740e+03
2.390000e-06	1.365852e-06	1.541463e-08	9.608345e+00	1.007063e+03
2.400000e-06	1.213167e-06	1.508711e-08	8.534257e+00	9.880366e+02
2.410000e-06	1.060178e-06	1.473932e-08	7.458022e+00	9.666835e+02
2.420000e-06	9.068763e-07	1.436802e-08	6.379595e+00	9.422098e+02
2.430000e-06	7.532134e-07	1.397078e-08	5.298624e+00	9.142337e+02
2.440000e-06	5.992530e-07	1.354025e-08	4.215560e+00	8.828917e+02
2.450000e-06	4.450689e-07	1.307207e-08	3.130923e+00	8.487664e+02
2.460000e-06	2.907089e-07	1.255824e-08	2.045048e+00	8.126316e+02
2.470000e-06	1.362037e-07	1.199345e-08	9.581508e-01	7.750628e+02
2.480000e-06	-1.842489e-08	1.137029e-08	-1.296134e-01	7.360095e+02
2.490000e-06	-1.730819e-07	1.067834e-08	-1.217578e+00	6.944534e+02
2.500000e-06	-3.276381e-07	9.903865e-09	-2.304833e+00	6.482683e+02
2.510000e-06	-4.820444e-07	9.029850e-09	-3.391034e+00	5.943601e+02
2.520000e-06	-6.363097e-07	8.027274e-09	-4.476243e+00	5.291014e+02
2.530000e-06	-7.904064e-07	6.857903e-09	-5.560265e+00	4.490017e+02
2.540000e-06	-9.441954e-07	5.477811e-09	-6.642123e+00	3.514847e+02
2.550000e-06	-1.097627e-06	3.829631e-09	-7.721468e+00	2.356095e+02
2.560000e-06	-1.250741e-06	1.857972e-09	-8.798579e+00	1.025646e+02
2.570000e-06	-1.403468e-06	-4.221597e-10	-9.872961e+00	-4.419197e+01
2.580000e-06	-1.555722e-06	-2.881652e-09	-1.094402e+01	-1.992083e+02
2.590000e-06	-1.707387e-06	-5.388045e-09	-1.201094e+01	-3.556958e+02
2.600000e-06	-1.858354e-06	-7.827310e-09	-1.307295e+01	-5.064556e+02
2.610000e-06	-2.008575e-06	-1.002052e-08	-1.412970e+01	-6.448951e+02
2.620000e-06	-2.158050e-06	-1.183354e-08	-1.518121e+01	-7.659397e+02
2.630000e-06	-2.306817e-06	-1.326887e-08	-1.622775e+01	-8.666613e+02
2.640000e-06	-2.454682e-06	-1.439111e-08	-1.726793e+01	-9.465137e+02
2.650000e-06	-2.601583e-06	-1.527312e-08	-1.830133e+01	-1.007145e+03
2.660000e-06	-2.747566e-06	-1.597521e-08	-1.932828e+01	-1.051850e+03
2.670000e-06	-2.892519e-06	-1.654213e-08	-2.034798e+01	-1.084798e+03
2.680000e-06	-3.036383e-06	-1.700874e-08	-2.136002e+01	-1.110211e+03
2.690000e-06	-3.179052e-06	-1.739968e-08	-2.236365e+01	-1.131661e+03
2.700000e-06	-3.320475e-06	-1.773509e-08	-2.335852e+01	-1.151609e+03
2.710000e-06	-3.460567e-06	-1.803024e-08	-2.434402e+01	-1.171271e+03
2.720000e-06	-3.599252e-06	-1.829249e-08	-2.531963e+01	-1.190763e+03
2.730000e-06	-3.736596e-06	-1.852786e-08	-2.628580e+01	-1.209472e+03
2.740000e-06	-3.872612e-06	-1.874197e-08	-2.724263e+01	-1.226516e+03
2.750000e-06	-4.007245e-06	-1.893731e-08	-2.818973e+01	-1.241167e+03
2.760000e-06	-4.140419e-06	-1.911578e-08	-2.912657e+01	-1.253143e+03
2.770000e-06	-4.272062e-06	-1.928015e-08	-3.005263e+01	-1.262699e+03
2.780000e-06	-4.402227e-06	-1.943392e-08	-3.096831e+01	-1.270537e+03
2.790000e-06	-4.530939e-06	-1.957962e-08	-3.187375e+01	-1.277580e+03
2.800000e-06	-4.658115e-06	-1.971568e-08	-3.276840e+01	-1.284693e+03
2.810000e-06	-4.783683e-06	-1.984169e-08	-3.365174e+01	-1.292451e+03
2.820000e-06	-4.907491e-06	-1.996083e-08	-3.452269e+01	-1.301002e+03
2.830000e-06	-5.029531e-06	-2.007446e-08	-3.538120e+01	-1.310079e+03
2.840000e-06	-5.149836e-06	-2.018187e-08	-3.622751e+01	-1.319126e+03
2.850000e-06	-5.268197e-06	-2.028104e-08	-3.706014e+01	-1.327506e+03
2.860000e-06	-5.384451e-06	-2.037486e-08	-3.787795e+01	-1.334710e+03
2.870000e-06	-5.498475e-06	-2.046379e-08	-3.868007e+01	-1.340518e+03
2.880000e-06	-5.610272e-06	-2.054721e-08	-3.946653e+01	-1.345053e+03
2.890000e-06	-5.719999e-06	-2.062697e-08	-4.023843e+01	-1.348733e+03
2.900000e-06	-5.827697e-06	-2.070329e-08	-4.099605e+01	-1.352131e+03
2.910000e-06	-5.933405e-06	-2.077795e-08	-4.173967e+01	-1.355797e+03
2.920000e-06	-6.036985e-06	-2.084942e-08	-4.246833e+01	-1.360096e+03
2.930000e-06	-6.138166e-06	-2.091581e-08	-4.318010e+01	-1.365114e+03
2.940000e-06	-6.237080e-06	-2.097951e-08	-4.387593e+01	-1.370651e+03
