# Temperatura_=_40.1
# Concentracion g/m^3_=_41000.0
# C_Vs_to_Am_M_A/Vsm_=_65563218390.804596
# pendiente_HvsI_1/m_=_3716.3
# ordenada_HvsI_A/m_=_1297.0
# frecuencia_Hz_=_302468.8177182006

Tiempo_(s)	Campo_(V.s)	Magnetizacion_(V.s)	Campo_(kA/m)	Magnetizacion_(A/m)
0.000000e+00	-8.040633e-06	-2.517611e-08	-5.688766e+01	-1.649147e+03
1.000000e-08	-8.038191e-06	-2.517514e-08	-5.687038e+01	-1.649228e+03
2.000000e-08	-8.033020e-06	-2.516931e-08	-5.683379e+01	-1.648843e+03
3.000000e-08	-8.025253e-06	-2.516146e-08	-5.677884e+01	-1.647994e+03
4.000000e-08	-8.014769e-06	-2.515385e-08	-5.670466e+01	-1.646798e+03
5.000000e-08	-8.001316e-06	-2.514233e-08	-5.660948e+01	-1.645445e+03
6.000000e-08	-7.984882e-06	-2.512599e-08	-5.649322e+01	-1.644146e+03
7.000000e-08	-7.965943e-06	-2.511120e-08	-5.635922e+01	-1.643061e+03
8.000000e-08	-7.944716e-06	-2.511116e-08	-5.620904e+01	-1.642264e+03
9.000000e-08	-7.920616e-06	-2.513231e-08	-5.603853e+01	-1.641715e+03
1.000000e-07	-7.893236e-06	-2.511521e-08	-5.584482e+01	-1.641284e+03
1.100000e-07	-7.862774e-06	-2.507194e-08	-5.562930e+01	-1.640796e+03
1.200000e-07	-7.829462e-06	-2.504389e-08	-5.539361e+01	-1.640083e+03
1.300000e-07	-7.793442e-06	-2.500007e-08	-5.513877e+01	-1.639041e+03
1.400000e-07	-7.755073e-06	-2.492406e-08	-5.486731e+01	-1.637657e+03
1.500000e-07	-7.714542e-06	-2.490001e-08	-5.458055e+01	-1.636006e+03
1.600000e-07	-7.671538e-06	-2.494725e-08	-5.427630e+01	-1.634221e+03
1.700000e-07	-7.625858e-06	-2.490047e-08	-5.395311e+01	-1.632443e+03
1.800000e-07	-7.577480e-06	-2.487713e-08	-5.361083e+01	-1.630766e+03
1.900000e-07	-7.526066e-06	-2.486342e-08	-5.324708e+01	-1.629202e+03
2.000000e-07	-7.471672e-06	-2.477702e-08	-5.286224e+01	-1.627670e+03
2.100000e-07	-7.414533e-06	-2.472960e-08	-5.245798e+01	-1.626021e+03
2.200000e-07	-7.354640e-06	-2.473349e-08	-5.203424e+01	-1.624084e+03
2.300000e-07	-7.292070e-06	-2.473565e-08	-5.159155e+01	-1.621722e+03
2.400000e-07	-7.226793e-06	-2.464357e-08	-5.112972e+01	-1.618877e+03
2.500000e-07	-7.158840e-06	-2.456280e-08	-5.064895e+01	-1.615595e+03
2.600000e-07	-7.088183e-06	-2.455948e-08	-5.014905e+01	-1.612012e+03
2.700000e-07	-7.014671e-06	-2.452642e-08	-4.962895e+01	-1.608317e+03
2.800000e-07	-6.938375e-06	-2.444622e-08	-4.908916e+01	-1.604690e+03
2.900000e-07	-6.859343e-06	-2.440083e-08	-4.853000e+01	-1.601248e+03
3.000000e-07	-6.777655e-06	-2.437321e-08	-4.795206e+01	-1.598001e+03
3.100000e-07	-6.693546e-06	-2.428421e-08	-4.735698e+01	-1.594852e+03
3.200000e-07	-6.607166e-06	-2.419405e-08	-4.674584e+01	-1.591621e+03
3.300000e-07	-6.518378e-06	-2.417494e-08	-4.611767e+01	-1.588101e+03
3.400000e-07	-6.427136e-06	-2.413123e-08	-4.547213e+01	-1.584122e+03
3.500000e-07	-6.333676e-06	-2.403724e-08	-4.481089e+01	-1.579607e+03
3.600000e-07	-6.237931e-06	-2.395917e-08	-4.413350e+01	-1.574593e+03
3.700000e-07	-6.139822e-06	-2.390180e-08	-4.343937e+01	-1.569227e+03
3.800000e-07	-6.039567e-06	-2.383071e-08	-4.273007e+01	-1.563712e+03
3.900000e-07	-5.937254e-06	-2.375139e-08	-4.200620e+01	-1.558248e+03
4.000000e-07	-5.832770e-06	-2.368045e-08	-4.126697e+01	-1.552962e+03
4.100000e-07	-5.726183e-06	-2.358952e-08	-4.051287e+01	-1.547865e+03
4.200000e-07	-5.617644e-06	-2.349020e-08	-3.974496e+01	-1.542842e+03
4.300000e-07	-5.507129e-06	-2.340239e-08	-3.896306e+01	-1.537684e+03
4.400000e-07	-5.394453e-06	-2.331737e-08	-3.816587e+01	-1.532149e+03
4.500000e-07	-5.279654e-06	-2.321391e-08	-3.735367e+01	-1.526038e+03
4.600000e-07	-5.162901e-06	-2.310418e-08	-3.652763e+01	-1.519255e+03
4.700000e-07	-5.044300e-06	-2.299794e-08	-3.568853e+01	-1.511840e+03
4.800000e-07	-4.923813e-06	-2.288230e-08	-3.483608e+01	-1.503956e+03
4.900000e-07	-4.801455e-06	-2.276926e-08	-3.397040e+01	-1.495837e+03
5.000000e-07	-4.677383e-06	-2.266587e-08	-3.309258e+01	-1.487711e+03
5.100000e-07	-4.551657e-06	-2.255515e-08	-3.220307e+01	-1.479722e+03
5.200000e-07	-4.424360e-06	-2.241877e-08	-3.130244e+01	-1.471877e+03
5.300000e-07	-4.295393e-06	-2.227469e-08	-3.039000e+01	-1.464035e+03
5.400000e-07	-4.164780e-06	-2.213562e-08	-2.946591e+01	-1.455939e+03
5.500000e-07	-4.032663e-06	-2.199447e-08	-2.853118e+01	-1.447292e+03
5.600000e-07	-3.899111e-06	-2.184650e-08	-2.758629e+01	-1.437847e+03
5.700000e-07	-3.764171e-06	-2.169280e-08	-2.663159e+01	-1.427480e+03
5.800000e-07	-3.627709e-06	-2.153173e-08	-2.566612e+01	-1.416233e+03
5.900000e-07	-3.489724e-06	-2.135844e-08	-2.468987e+01	-1.404297e+03
6.000000e-07	-3.350345e-06	-2.118060e-08	-2.370376e+01	-1.391950e+03
6.100000e-07	-3.209606e-06	-2.099746e-08	-2.270803e+01	-1.379462e+03
6.200000e-07	-3.067400e-06	-2.080571e-08	-2.170192e+01	-1.366995e+03
6.300000e-07	-2.923857e-06	-2.060292e-08	-2.068635e+01	-1.354536e+03
6.400000e-07	-2.779265e-06	-2.038924e-08	-1.966336e+01	-1.341878e+03
6.500000e-07	-2.633672e-06	-2.016492e-08	-1.863328e+01	-1.328668e+03
6.600000e-07	-2.487182e-06	-1.993537e-08	-1.759687e+01	-1.314500e+03
6.700000e-07	-2.339986e-06	-1.970106e-08	-1.655545e+01	-1.299033e+03
6.800000e-07	-2.192109e-06	-1.945147e-08	-1.550922e+01	-1.282094e+03
6.900000e-07	-2.043496e-06	-1.918462e-08	-1.445778e+01	-1.263728e+03
7.000000e-07	-1.894190e-06	-1.890092e-08	-1.340144e+01	-1.244181e+03
7.100000e-07	-1.744290e-06	-1.860365e-08	-1.234089e+01	-1.223810e+03
7.200000e-07	-1.593854e-06	-1.828984e-08	-1.127655e+01	-1.202945e+03
7.300000e-07	-1.442967e-06	-1.796052e-08	-1.020903e+01	-1.181749e+03
7.400000e-07	-1.291609e-06	-1.761627e-08	-9.138159e+00	-1.160106e+03
7.500000e-07	-1.139702e-06	-1.725009e-08	-8.063415e+00	-1.137605e+03
7.600000e-07	-9.872972e-07	-1.685899e-08	-6.985149e+00	-1.113597e+03
7.700000e-07	-8.344860e-07	-1.644228e-08	-5.904006e+00	-1.087345e+03
7.800000e-07	-6.813611e-07	-1.599903e-08	-4.820644e+00	-1.058206e+03
7.900000e-07	-5.279671e-07	-1.551968e-08	-3.735378e+00	-1.025796e+03
8.000000e-07	-3.743487e-07	-1.499979e-08	-2.648525e+00	-9.900741e+02
8.100000e-07	-2.205443e-07	-1.443812e-08	-1.560356e+00	-9.512983e+02
8.200000e-07	-6.656163e-08	-1.382792e-08	-4.709250e-01	-9.098508e+02
8.300000e-07	8.747856e-08	-1.315974e-08	6.189127e-01	-8.659567e+02
8.400000e-07	2.414743e-07	-1.242502e-08	1.708436e+00	-8.193662e+02
8.500000e-07	3.954112e-07	-1.161525e-08	2.797543e+00	-7.690905e+02
8.600000e-07	5.492301e-07	-1.071653e-08	3.885815e+00	-7.132817e+02
8.700000e-07	7.028467e-07	-9.710538e-09	4.972655e+00	-6.493253e+02
8.800000e-07	8.562191e-07	-8.565231e-09	6.057769e+00	-5.741640e+02
8.900000e-07	1.009243e-06	-7.239097e-09	7.140418e+00	-4.848190e+02
9.000000e-07	1.161831e-06	-5.681250e-09	8.219978e+00	-3.790194e+02
9.100000e-07	1.313952e-06	-3.829938e-09	9.296242e+00	-2.558132e+02
9.200000e-07	1.465589e-06	-1.660404e-09	1.036907e+01	-1.160237e+02
9.300000e-07	1.616779e-06	7.252784e-10	1.143875e+01	3.756151e+01
9.400000e-07	1.767387e-06	3.173278e-09	1.250430e+01	2.003350e+02
9.500000e-07	1.917308e-06	5.623012e-09	1.356500e+01	3.663416e+02
9.600000e-07	2.066549e-06	8.069634e-09	1.462088e+01	5.290058e+02
9.700000e-07	2.215041e-06	1.045998e-08	1.567147e+01	6.819860e+02
9.800000e-07	2.362709e-06	1.261806e-08	1.671622e+01	8.199957e+02
9.900000e-07	2.509549e-06	1.439860e-08	1.775512e+01	9.394416e+02
1.000000e-06	2.655420e-06	1.581480e-08	1.878716e+01	1.038765e+03
1.010000e-06	2.800225e-06	1.694013e-08	1.981165e+01	1.118434e+03
1.020000e-06	2.944006e-06	1.784383e-08	2.082890e+01	1.180614e+03
1.030000e-06	3.086676e-06	1.858111e-08	2.183830e+01	1.228594e+03
1.040000e-06	3.228156e-06	1.919255e-08	2.283927e+01	1.266109e+03
1.050000e-06	3.368373e-06	1.970685e-08	2.383131e+01	1.296688e+03
1.060000e-06	3.507236e-06	2.014526e-08	2.481377e+01	1.323160e+03
1.070000e-06	3.644646e-06	2.052623e-08	2.578595e+01	1.347391e+03
1.080000e-06	3.780685e-06	2.086318e-08	2.674843e+01	1.370265e+03
1.090000e-06	3.915384e-06	2.116255e-08	2.770142e+01	1.391883e+03
1.100000e-06	4.048653e-06	2.143226e-08	2.864431e+01	1.411878e+03
1.110000e-06	4.180492e-06	2.167813e-08	2.957707e+01	1.429775e+03
1.120000e-06	4.310793e-06	2.190298e-08	3.049895e+01	1.445272e+03
1.130000e-06	4.439563e-06	2.210779e-08	3.141000e+01	1.458409e+03
1.140000e-06	4.566898e-06	2.229601e-08	3.231090e+01	1.469579e+03
1.150000e-06	4.692678e-06	2.247106e-08	3.320080e+01	1.479421e+03
1.160000e-06	4.816825e-06	2.263377e-08	3.407914e+01	1.488636e+03
1.170000e-06	4.939276e-06	2.278725e-08	3.494548e+01	1.497797e+03
1.180000e-06	5.059941e-06	2.293334e-08	3.579919e+01	1.507208e+03
1.190000e-06	5.178802e-06	2.307273e-08	3.664014e+01	1.516857e+03
1.200000e-06	5.295759e-06	2.320378e-08	3.746761e+01	1.526467e+03
1.210000e-06	5.410662e-06	2.332544e-08	3.828055e+01	1.535616e+03
1.220000e-06	5.523448e-06	2.343907e-08	3.907852e+01	1.543896e+03
1.230000e-06	5.634165e-06	2.354208e-08	3.986184e+01	1.551050e+03
1.240000e-06	5.742932e-06	2.363772e-08	4.063137e+01	1.557051e+03
1.250000e-06	5.849681e-06	2.372928e-08	4.138662e+01	1.562110e+03
1.260000e-06	5.954244e-06	2.381771e-08	4.212640e+01	1.566601e+03
1.270000e-06	6.056617e-06	2.390244e-08	4.285070e+01	1.570951e+03
1.280000e-06	6.156780e-06	2.398252e-08	4.355935e+01	1.575510e+03
1.290000e-06	6.254620e-06	2.405808e-08	4.425158e+01	1.580458e+03
1.300000e-06	6.350091e-06	2.412913e-08	4.492703e+01	1.585766e+03
1.310000e-06	6.443315e-06	2.419605e-08	4.558659e+01	1.591224e+03
1.320000e-06	6.534248e-06	2.426049e-08	4.622995e+01	1.596522e+03
1.330000e-06	6.622821e-06	2.432460e-08	4.685660e+01	1.601352e+03
1.340000e-06	6.709096e-06	2.438641e-08	4.746700e+01	1.605510e+03
1.350000e-06	6.793035e-06	2.444494e-08	4.806087e+01	1.608956e+03
1.360000e-06	6.874535e-06	2.450056e-08	4.863749e+01	1.611817e+03
1.370000e-06	6.953558e-06	2.455447e-08	4.919657e+01	1.614345e+03
1.380000e-06	7.029976e-06	2.460548e-08	4.973723e+01	1.616828e+03
1.390000e-06	7.103709e-06	2.465282e-08	5.025889e+01	1.619501e+03
1.400000e-06	7.174828e-06	2.469783e-08	5.076206e+01	1.622477e+03
1.410000e-06	7.243449e-06	2.473864e-08	5.124756e+01	1.625713e+03
1.420000e-06	7.309508e-06	2.477605e-08	5.171493e+01	1.629030e+03
1.430000e-06	7.372936e-06	2.481287e-08	5.216368e+01	1.632180e+03
1.440000e-06	7.433860e-06	2.484884e-08	5.259472e+01	1.634921e+03
1.450000e-06	7.492182e-06	2.488307e-08	5.300735e+01	1.637099e+03
1.460000e-06	7.547863e-06	2.491456e-08	5.340130e+01	1.638695e+03
1.470000e-06	7.600705e-06	2.494371e-08	5.377515e+01	1.639827e+03
1.480000e-06	7.650406e-06	2.497139e-08	5.412679e+01	1.640713e+03
1.490000e-06	7.697154e-06	2.499547e-08	5.445753e+01	1.641601e+03
1.500000e-06	7.741201e-06	2.501669e-08	5.476916e+01	1.642694e+03
1.510000e-06	7.782519e-06	2.503592e-08	5.506149e+01	1.644082e+03
1.520000e-06	7.821062e-06	2.505359e-08	5.533418e+01	1.645726e+03
1.530000e-06	7.856853e-06	2.506956e-08	5.558741e+01	1.647467e+03
1.540000e-06	7.889846e-06	2.508329e-08	5.582083e+01	1.649083e+03
1.550000e-06	7.920081e-06	2.509647e-08	5.603474e+01	1.650358e+03
1.560000e-06	7.947509e-06	2.510875e-08	5.622880e+01	1.651154e+03
1.570000e-06	7.971960e-06	2.512089e-08	5.640179e+01	1.651449e+03
1.580000e-06	7.993524e-06	2.513237e-08	5.655435e+01	1.651348e+03
1.590000e-06	8.012329e-06	2.514094e-08	5.668740e+01	1.651045e+03
1.600000e-06	8.028256e-06	2.514635e-08	5.680008e+01	1.650766e+03
1.610000e-06	8.041115e-06	2.515085e-08	5.689106e+01	1.650695e+03
1.620000e-06	8.050789e-06	2.515454e-08	5.695950e+01	1.650920e+03
1.630000e-06	8.057476e-06	2.515567e-08	5.700682e+01	1.651407e+03
1.640000e-06	8.061364e-06	2.515553e-08	5.703433e+01	1.652012e+03
1.650000e-06	8.062378e-06	2.515664e-08	5.704150e+01	1.652525e+03
1.660000e-06	8.060637e-06	2.515401e-08	5.702918e+01	1.652738e+03
1.670000e-06	8.056278e-06	2.514958e-08	5.699834e+01	1.652509e+03
1.680000e-06	8.049238e-06	2.514466e-08	5.694854e+01	1.651803e+03
1.690000e-06	8.039518e-06	2.513672e-08	5.687976e+01	1.650701e+03
1.700000e-06	8.026988e-06	2.512632e-08	5.679111e+01	1.649376e+03
1.710000e-06	8.011636e-06	2.511820e-08	5.668250e+01	1.648039e+03
1.720000e-06	7.993804e-06	2.510882e-08	5.655633e+01	1.646874e+03
1.730000e-06	7.973642e-06	2.506849e-08	5.641369e+01	1.645984e+03
1.740000e-06	7.950696e-06	2.500959e-08	5.625135e+01	1.645366e+03
1.750000e-06	7.924287e-06	2.500852e-08	5.606450e+01	1.644917e+03
1.760000e-06	7.894214e-06	2.501300e-08	5.585174e+01	1.644468e+03
1.770000e-06	7.861025e-06	2.499138e-08	5.561693e+01	1.643844e+03
1.780000e-06	7.825457e-06	2.502147e-08	5.536528e+01	1.642914e+03
1.790000e-06	7.787627e-06	2.506392e-08	5.509763e+01	1.641636e+03
1.800000e-06	7.747710e-06	2.503109e-08	5.481522e+01	1.640059e+03
1.810000e-06	7.705542e-06	2.501682e-08	5.451688e+01	1.638302e+03
1.820000e-06	7.660654e-06	2.498855e-08	5.419929e+01	1.636510e+03
1.830000e-06	7.613141e-06	2.493559e-08	5.386313e+01	1.634795e+03
1.840000e-06	7.562775e-06	2.495012e-08	5.350679e+01	1.633200e+03
1.850000e-06	7.509389e-06	2.493769e-08	5.312909e+01	1.631672e+03
1.860000e-06	7.453166e-06	2.491912e-08	5.273131e+01	1.630081e+03
1.870000e-06	7.394223e-06	2.483208e-08	5.231429e+01	1.628255e+03
1.880000e-06	7.332649e-06	2.476761e-08	5.187865e+01	1.626042e+03
1.890000e-06	7.268242e-06	2.480102e-08	5.142297e+01	1.623353e+03
1.900000e-06	7.201025e-06	2.473728e-08	5.094741e+01	1.620201e+03
1.910000e-06	7.131001e-06	2.469194e-08	5.045198e+01	1.616697e+03
1.920000e-06	7.058130e-06	2.465527e-08	4.993642e+01	1.613017e+03
1.930000e-06	6.982556e-06	2.457951e-08	4.940174e+01	1.609353e+03
1.940000e-06	6.904231e-06	2.452126e-08	4.884758e+01	1.605845e+03
1.950000e-06	6.823341e-06	2.448124e-08	4.827528e+01	1.602542e+03
1.960000e-06	6.739943e-06	2.448160e-08	4.768524e+01	1.599379e+03
1.970000e-06	6.653975e-06	2.438692e-08	4.707702e+01	1.596198e+03
1.980000e-06	6.565554e-06	2.429950e-08	4.645144e+01	1.592794e+03
1.990000e-06	6.474865e-06	2.425208e-08	4.580981e+01	1.588977e+03
2.000000e-06	6.381942e-06	2.419176e-08	4.515238e+01	1.584636e+03
2.010000e-06	6.286636e-06	2.412474e-08	4.447809e+01	1.579772e+03
2.020000e-06	6.189103e-06	2.404197e-08	4.378804e+01	1.574499e+03
2.030000e-06	6.089424e-06	2.397621e-08	4.308281e+01	1.569010e+03
2.040000e-06	5.987544e-06	2.388222e-08	4.236200e+01	1.563512e+03
2.050000e-06	5.883493e-06	2.380657e-08	4.162584e+01	1.558163e+03
2.060000e-06	5.777458e-06	2.374343e-08	4.087564e+01	1.553012e+03
2.070000e-06	5.669521e-06	2.366563e-08	4.011198e+01	1.547986e+03
2.080000e-06	5.559547e-06	2.356685e-08	3.933392e+01	1.542898e+03
2.090000e-06	5.447507e-06	2.346919e-08	3.854123e+01	1.537510e+03
2.100000e-06	5.333424e-06	2.338087e-08	3.773409e+01	1.531601e+03
2.110000e-06	5.217287e-06	2.328334e-08	3.691242e+01	1.525038e+03
2.120000e-06	5.099065e-06	2.318873e-08	3.607600e+01	1.517815e+03
2.130000e-06	4.978943e-06	2.308685e-08	3.522613e+01	1.510059e+03
2.140000e-06	4.857043e-06	2.297228e-08	3.436369e+01	1.501990e+03
2.150000e-06	4.733391e-06	2.284700e-08	3.348884e+01	1.493845e+03
2.160000e-06	4.607985e-06	2.272965e-08	3.260159e+01	1.485805e+03
2.170000e-06	4.480846e-06	2.260996e-08	3.170208e+01	1.477924e+03
2.180000e-06	4.352075e-06	2.248387e-08	3.079102e+01	1.470105e+03
2.190000e-06	4.221784e-06	2.235113e-08	2.986922e+01	1.462124e+03
2.200000e-06	4.089993e-06	2.221291e-08	2.893679e+01	1.453686e+03
2.210000e-06	3.956587e-06	2.206398e-08	2.799294e+01	1.444519e+03
2.220000e-06	3.821643e-06	2.190885e-08	2.703821e+01	1.434453e+03
2.230000e-06	3.685270e-06	2.175504e-08	2.607337e+01	1.423475e+03
2.240000e-06	3.547560e-06	2.159540e-08	2.509906e+01	1.411733e+03
2.250000e-06	3.408555e-06	2.142762e-08	2.411560e+01	1.399487e+03
2.260000e-06	3.268163e-06	2.125041e-08	2.312232e+01	1.387021e+03
2.270000e-06	3.126369e-06	2.106506e-08	2.211913e+01	1.374540e+03
2.280000e-06	2.983364e-06	2.086976e-08	2.110736e+01	1.362093e+03
2.290000e-06	2.839266e-06	2.066814e-08	2.008787e+01	1.349533e+03
2.300000e-06	2.694121e-06	2.045582e-08	1.906097e+01	1.336546e+03
2.310000e-06	2.548093e-06	2.022900e-08	1.802782e+01	1.322729e+03
2.320000e-06	2.401328e-06	1.999074e-08	1.698945e+01	1.307709e+03
2.330000e-06	2.253823e-06	1.974436e-08	1.594585e+01	1.291250e+03
2.340000e-06	2.105465e-06	1.948783e-08	1.489621e+01	1.273325e+03
2.350000e-06	1.956268e-06	1.921934e-08	1.384064e+01	1.254122e+03
2.360000e-06	1.806340e-06	1.893805e-08	1.277990e+01	1.233977e+03
2.370000e-06	1.655847e-06	1.863696e-08	1.171515e+01	1.213244e+03
2.380000e-06	1.504890e-06	1.831299e-08	1.064713e+01	1.192152e+03
2.390000e-06	1.353493e-06	1.797073e-08	9.575996e+00	1.170685e+03
2.400000e-06	1.201694e-06	1.761393e-08	8.502012e+00	1.148523e+03
2.410000e-06	1.049450e-06	1.723565e-08	7.424879e+00	1.125080e+03
2.420000e-06	8.967940e-07	1.682842e-08	6.344837e+00	1.099628e+03
2.430000e-06	7.438352e-07	1.639279e-08	5.262650e+00	1.071475e+03
2.440000e-06	5.906433e-07	1.592694e-08	4.178814e+00	1.040139e+03
2.450000e-06	4.372279e-07	1.542553e-08	3.093397e+00	1.005466e+03
2.460000e-06	2.836643e-07	1.488219e-08	2.006931e+00	9.676323e+02
2.470000e-06	1.299745e-07	1.429233e-08	9.195723e-01	9.270059e+02
2.480000e-06	-2.385687e-08	1.364860e-08	-1.687879e-01	8.838973e+02
2.490000e-06	-1.777010e-07	1.294186e-08	-1.257238e+00	8.382426e+02
2.500000e-06	-3.314820e-07	1.216517e-08	-2.345243e+00	7.893123e+02
2.510000e-06	-4.851874e-07	1.130647e-08	-3.432711e+00	7.355356e+02
2.520000e-06	-6.387927e-07	1.034302e-08	-4.519472e+00	6.745201e+02
2.530000e-06	-7.921602e-07	9.248750e-09	-5.604551e+00	6.033020e+02
2.540000e-06	-9.451830e-07	7.994561e-09	-6.687190e+00	5.188116e+02
2.550000e-06	-1.097822e-06	6.536677e-09	-7.767114e+00	4.184803e+02
2.560000e-06	-1.250064e-06	4.810287e-09	-8.844229e+00	3.008721e+02
2.570000e-06	-1.401903e-06	2.753868e-09	-9.918496e+00	1.662046e+02
2.580000e-06	-1.553320e-06	4.033551e-10	-1.098977e+01	1.663299e+01
2.590000e-06	-1.704281e-06	-2.088261e-09	-1.205782e+01	-1.437837e+02
2.600000e-06	-1.854558e-06	-4.602981e-09	-1.312104e+01	-3.094541e+02
2.610000e-06	-2.003907e-06	-7.116251e-09	-1.417769e+01	-4.739121e+02
2.620000e-06	-2.152355e-06	-9.600177e-09	-1.522796e+01	-6.306465e+02
2.630000e-06	-2.300062e-06	-1.190919e-08	-1.627299e+01	-7.739505e+02
2.640000e-06	-2.446924e-06	-1.386422e-08	-1.731204e+01	-8.996333e+02
2.650000e-06	-2.592902e-06	-1.543013e-08	-1.834484e+01	-1.005466e+03
2.660000e-06	-2.738066e-06	-1.667038e-08	-1.937187e+01	-1.091287e+03
2.670000e-06	-2.882235e-06	-1.765981e-08	-2.039188e+01	-1.158770e+03
2.680000e-06	-3.025291e-06	-1.845987e-08	-2.140400e+01	-1.210913e+03
2.690000e-06	-3.167013e-06	-1.911894e-08	-2.240668e+01	-1.251385e+03
2.700000e-06	-3.307383e-06	-1.967050e-08	-2.339981e+01	-1.283842e+03
2.710000e-06	-3.446494e-06	-2.013705e-08	-2.438402e+01	-1.311381e+03
2.720000e-06	-3.584276e-06	-2.053799e-08	-2.535883e+01	-1.336190e+03
2.730000e-06	-3.720741e-06	-2.088892e-08	-2.632432e+01	-1.359457e+03
2.740000e-06	-3.855935e-06	-2.120150e-08	-2.728082e+01	-1.381502e+03
2.750000e-06	-3.989723e-06	-2.148190e-08	-2.822738e+01	-1.402072e+03
2.760000e-06	-4.122050e-06	-2.173498e-08	-2.916359e+01	-1.420688e+03
2.770000e-06	-4.252974e-06	-2.196538e-08	-3.008988e+01	-1.436969e+03
2.780000e-06	-4.382476e-06	-2.217817e-08	-3.100611e+01	-1.450837e+03
2.790000e-06	-4.510522e-06	-2.237527e-08	-3.191204e+01	-1.462577e+03
2.800000e-06	-4.636921e-06	-2.255501e-08	-3.280632e+01	-1.472767e+03
2.810000e-06	-4.761683e-06	-2.271753e-08	-3.368901e+01	-1.482111e+03
2.820000e-06	-4.884790e-06	-2.286973e-08	-3.456000e+01	-1.491240e+03
2.830000e-06	-5.006211e-06	-2.301564e-08	-3.541905e+01	-1.500556e+03
2.840000e-06	-5.125806e-06	-2.315495e-08	-3.626519e+01	-1.510147e+03
2.850000e-06	-5.243256e-06	-2.328548e-08	-3.709615e+01	-1.519811e+03
2.860000e-06	-5.358579e-06	-2.340716e-08	-3.791206e+01	-1.529155e+03
2.870000e-06	-5.471834e-06	-2.352001e-08	-3.871335e+01	-1.537752e+03
2.880000e-06	-5.582906e-06	-2.362325e-08	-3.949918e+01	-1.545282e+03
2.890000e-06	-5.691894e-06	-2.372003e-08	-4.027027e+01	-1.551640e+03
2.900000e-06	-5.798935e-06	-2.381059e-08	-4.102759e+01	-1.556966e+03
2.910000e-06	-5.903956e-06	-2.389685e-08	-4.177061e+01	-1.561592e+03
2.920000e-06	-6.006760e-06	-2.397938e-08	-4.249796e+01	-1.565942e+03
2.930000e-06	-6.107286e-06	-2.405729e-08	-4.320918e+01	-1.570404e+03
2.940000e-06	-6.205619e-06	-2.413162e-08	-4.390489e+01	-1.575219e+03
