# Temperatura_=_54.74
# Concentracion g/m^3_=_28200.0
# C_Vs_to_Am_M_A/Vsm_=_65563218390.804596
# pendiente_HvsI_1/m_=_3716.3
# ordenada_HvsI_A/m_=_1297.0
# frecuencia_Hz_=_301771.93830315466

Tiempo_(s)	Campo_(V.s)	Magnetizacion_(V.s)	Campo_(kA/m)	Magnetizacion_(A/m)
0.000000e+00	-5.306630e-06	-2.078800e-08	-3.829590e+01	-1.359014e+03
1.000000e-08	-5.304731e-06	-2.078173e-08	-3.828219e+01	-1.358708e+03
2.000000e-08	-5.300944e-06	-2.076972e-08	-3.825486e+01	-1.358276e+03
3.000000e-08	-5.295500e-06	-2.075454e-08	-3.821558e+01	-1.357704e+03
4.000000e-08	-5.288486e-06	-2.074061e-08	-3.816495e+01	-1.356967e+03
5.000000e-08	-5.279692e-06	-2.072565e-08	-3.810149e+01	-1.356036e+03
6.000000e-08	-5.268830e-06	-2.070844e-08	-3.802311e+01	-1.354886e+03
7.000000e-08	-5.256061e-06	-2.068741e-08	-3.793096e+01	-1.353504e+03
8.000000e-08	-5.241478e-06	-2.066217e-08	-3.782572e+01	-1.351895e+03
9.000000e-08	-5.224743e-06	-2.065948e-08	-3.770495e+01	-1.350083e+03
1.000000e-07	-5.205806e-06	-2.065386e-08	-3.756829e+01	-1.348108e+03
1.100000e-07	-5.184935e-06	-2.059840e-08	-3.741767e+01	-1.346020e+03
1.200000e-07	-5.162318e-06	-2.054268e-08	-3.725445e+01	-1.343863e+03
1.300000e-07	-5.138169e-06	-2.048471e-08	-3.708018e+01	-1.341672e+03
1.400000e-07	-5.112490e-06	-2.042154e-08	-3.689486e+01	-1.339460e+03
1.500000e-07	-5.085165e-06	-2.044796e-08	-3.669767e+01	-1.337214e+03
1.600000e-07	-5.056272e-06	-2.040461e-08	-3.648916e+01	-1.334901e+03
1.700000e-07	-5.025929e-06	-2.030308e-08	-3.627019e+01	-1.332468e+03
1.800000e-07	-4.993832e-06	-2.033116e-08	-3.603856e+01	-1.329854e+03
1.900000e-07	-4.959671e-06	-2.026646e-08	-3.579203e+01	-1.327005e+03
2.000000e-07	-4.923855e-06	-2.018579e-08	-3.553356e+01	-1.323875e+03
2.100000e-07	-4.886520e-06	-2.020721e-08	-3.526412e+01	-1.320439e+03
2.200000e-07	-4.847406e-06	-2.008464e-08	-3.498185e+01	-1.316694e+03
2.300000e-07	-4.806502e-06	-1.996114e-08	-3.468666e+01	-1.312651e+03
2.400000e-07	-4.763676e-06	-1.992739e-08	-3.437760e+01	-1.308335e+03
2.500000e-07	-4.718979e-06	-1.985474e-08	-3.405504e+01	-1.303774e+03
2.600000e-07	-4.672565e-06	-1.983646e-08	-3.372009e+01	-1.298991e+03
2.700000e-07	-4.624303e-06	-1.977530e-08	-3.337181e+01	-1.293997e+03
2.800000e-07	-4.573962e-06	-1.961417e-08	-3.300851e+01	-1.288794e+03
2.900000e-07	-4.521596e-06	-1.950432e-08	-3.263061e+01	-1.283372e+03
3.000000e-07	-4.467518e-06	-1.945409e-08	-3.224035e+01	-1.277713e+03
3.100000e-07	-4.411868e-06	-1.939449e-08	-3.183874e+01	-1.271799e+03
3.200000e-07	-4.354453e-06	-1.929637e-08	-3.142440e+01	-1.265613e+03
3.300000e-07	-4.295257e-06	-1.919683e-08	-3.099721e+01	-1.259148e+03
3.400000e-07	-4.234602e-06	-1.907730e-08	-3.055948e+01	-1.252400e+03
3.500000e-07	-4.172516e-06	-1.893241e-08	-3.011143e+01	-1.245376e+03
3.600000e-07	-4.108978e-06	-1.883139e-08	-2.965290e+01	-1.238082e+03
3.700000e-07	-4.043997e-06	-1.875118e-08	-2.918396e+01	-1.230527e+03
3.800000e-07	-3.977434e-06	-1.865273e-08	-2.870360e+01	-1.222712e+03
3.900000e-07	-3.909371e-06	-1.850973e-08	-2.821242e+01	-1.214633e+03
4.000000e-07	-3.839971e-06	-1.834702e-08	-2.771159e+01	-1.206279e+03
4.100000e-07	-3.769323e-06	-1.822175e-08	-2.720174e+01	-1.197633e+03
4.200000e-07	-3.697508e-06	-1.809520e-08	-2.668349e+01	-1.188675e+03
4.300000e-07	-3.624372e-06	-1.795632e-08	-2.615569e+01	-1.179385e+03
4.400000e-07	-3.549645e-06	-1.780670e-08	-2.561641e+01	-1.169743e+03
4.500000e-07	-3.473427e-06	-1.764184e-08	-2.506638e+01	-1.159736e+03
4.600000e-07	-3.395929e-06	-1.747578e-08	-2.450711e+01	-1.149351e+03
4.700000e-07	-3.316966e-06	-1.732138e-08	-2.393726e+01	-1.138576e+03
4.800000e-07	-3.236560e-06	-1.716849e-08	-2.335700e+01	-1.127401e+03
4.900000e-07	-3.154990e-06	-1.698680e-08	-2.276834e+01	-1.115815e+03
5.000000e-07	-3.072401e-06	-1.679272e-08	-2.217233e+01	-1.103800e+03
5.100000e-07	-2.988908e-06	-1.659809e-08	-2.156979e+01	-1.091337e+03
5.200000e-07	-2.904579e-06	-1.639426e-08	-2.096122e+01	-1.078403e+03
5.300000e-07	-2.819363e-06	-1.618597e-08	-2.034625e+01	-1.064974e+03
5.400000e-07	-2.733181e-06	-1.597567e-08	-1.972431e+01	-1.051023e+03
5.500000e-07	-2.646060e-06	-1.575343e-08	-1.909559e+01	-1.036522e+03
5.600000e-07	-2.558039e-06	-1.551505e-08	-1.846038e+01	-1.021443e+03
5.700000e-07	-2.469000e-06	-1.527380e-08	-1.781782e+01	-1.005755e+03
5.800000e-07	-2.378777e-06	-1.503428e-08	-1.716671e+01	-9.894263e+02
5.900000e-07	-2.287525e-06	-1.478165e-08	-1.650819e+01	-9.724198e+02
6.000000e-07	-2.195561e-06	-1.450633e-08	-1.584451e+01	-9.546951e+02
6.100000e-07	-2.102902e-06	-1.421273e-08	-1.517583e+01	-9.362079e+02
6.200000e-07	-2.009426e-06	-1.391195e-08	-1.450125e+01	-9.169105e+02
6.300000e-07	-1.915129e-06	-1.360610e-08	-1.382075e+01	-8.967533e+02
6.400000e-07	-1.820202e-06	-1.329113e-08	-1.313570e+01	-8.756855e+02
6.500000e-07	-1.724785e-06	-1.295863e-08	-1.244711e+01	-8.536556e+02
6.600000e-07	-1.628787e-06	-1.260206e-08	-1.175433e+01	-8.306110e+02
6.700000e-07	-1.532122e-06	-1.222664e-08	-1.105673e+01	-8.064968e+02
6.800000e-07	-1.434757e-06	-1.183798e-08	-1.035409e+01	-7.812547e+02
6.900000e-07	-1.336758e-06	-1.143812e-08	-9.646865e+00	-7.548224e+02
7.000000e-07	-1.238228e-06	-1.102233e-08	-8.935810e+00	-7.271342e+02
7.100000e-07	-1.139222e-06	-1.058367e-08	-8.221325e+00	-6.981248e+02
7.200000e-07	-1.039853e-06	-1.011539e-08	-7.504219e+00	-6.677340e+02
7.300000e-07	-9.402025e-07	-9.620090e-09	-6.785077e+00	-6.359151e+02
7.400000e-07	-8.403038e-07	-9.108032e-09	-6.064147e+00	-6.026438e+02
7.500000e-07	-7.402101e-07	-8.582767e-09	-5.341810e+00	-5.679271e+02
7.600000e-07	-6.399463e-07	-8.038616e-09	-4.618245e+00	-5.318104e+02
7.700000e-07	-5.394646e-07	-7.471924e-09	-3.893107e+00	-4.943812e+02
7.800000e-07	-4.388253e-07	-6.886118e-09	-3.166832e+00	-4.557681e+02
7.900000e-07	-3.380619e-07	-6.282791e-09	-2.439662e+00	-4.161344e+02
8.000000e-07	-2.370999e-07	-5.663126e-09	-1.711058e+00	-3.756672e+02
8.100000e-07	-1.360467e-07	-5.034167e-09	-9.817963e-01	-3.345624e+02
8.200000e-07	-3.493324e-08	-4.401687e-09	-2.520997e-01	-2.930073e+02
8.300000e-07	6.627646e-08	-3.766138e-09	4.782916e-01	-2.511639e+02
8.400000e-07	1.674620e-07	-3.127850e-09	1.208509e+00	-2.091535e+02
8.500000e-07	2.686093e-07	-2.488337e-09	1.938449e+00	-1.670462e+02
8.600000e-07	3.697013e-07	-1.847392e-09	2.667991e+00	-1.248554e+02
8.700000e-07	4.706660e-07	-1.203043e-09	3.396614e+00	-8.253893e+01
8.800000e-07	5.715202e-07	-5.545192e-10	4.124440e+00	-4.000677e+01
8.900000e-07	6.722188e-07	9.826857e-11	4.851143e+00	2.864912e+00
9.000000e-07	7.726843e-07	7.585224e-10	5.576164e+00	4.621527e+01
9.100000e-07	8.729620e-07	1.427632e-09	6.299829e+00	9.017695e+01
9.200000e-07	9.729849e-07	2.105311e-09	7.021656e+00	1.348534e+02
9.300000e-07	1.072681e-06	2.795383e-09	7.741122e+00	1.802979e+02
9.400000e-07	1.172075e-06	3.499714e-09	8.458413e+00	2.264961e+02
9.500000e-07	1.271060e-06	4.213402e-09	9.172752e+00	2.733553e+02
9.600000e-07	1.369498e-06	4.931774e-09	9.883138e+00	3.207017e+02
9.700000e-07	1.467240e-06	5.654744e-09	1.058850e+01	3.682856e+02
9.800000e-07	1.564236e-06	6.378595e-09	1.128849e+01	4.157965e+02
9.900000e-07	1.660469e-06	7.097669e-09	1.198296e+01	4.628840e+02
1.000000e-06	1.756023e-06	7.805069e-09	1.267254e+01	5.091842e+02
1.010000e-06	1.851039e-06	8.492261e-09	1.335823e+01	5.543480e+02
1.020000e-06	1.945453e-06	9.154802e-09	1.403958e+01	5.980664e+02
1.030000e-06	2.039189e-06	9.789225e-09	1.471604e+01	6.400911e+02
1.040000e-06	2.132214e-06	1.039364e-08	1.538736e+01	6.802475e+02
1.050000e-06	2.224551e-06	1.096997e-08	1.605373e+01	7.184385e+02
1.060000e-06	2.316231e-06	1.151889e-08	1.671534e+01	7.546387e+02
1.070000e-06	2.407173e-06	1.203874e-08	1.737163e+01	7.888830e+02
1.080000e-06	2.497110e-06	1.253078e-08	1.802068e+01	8.212487e+02
1.090000e-06	2.585893e-06	1.299669e-08	1.866139e+01	8.518382e+02
1.100000e-06	2.673675e-06	1.343739e-08	1.929488e+01	8.807616e+02
1.110000e-06	2.760580e-06	1.385329e-08	1.992204e+01	9.081249e+02
1.120000e-06	2.846571e-06	1.424566e-08	2.054260e+01	9.340225e+02
1.130000e-06	2.931633e-06	1.461607e-08	2.115646e+01	9.585356e+02
1.140000e-06	3.015821e-06	1.496632e-08	2.176401e+01	9.817347e+02
1.150000e-06	3.099133e-06	1.529904e-08	2.236524e+01	1.003684e+03
1.160000e-06	3.181392e-06	1.561574e-08	2.295888e+01	1.024447e+03
1.170000e-06	3.262400e-06	1.591545e-08	2.354348e+01	1.044090e+03
1.180000e-06	3.342259e-06	1.619704e-08	2.411979e+01	1.062682e+03
1.190000e-06	3.420975e-06	1.646303e-08	2.468786e+01	1.080294e+03
1.200000e-06	3.498458e-06	1.671474e-08	2.524702e+01	1.096998e+03
1.210000e-06	3.574744e-06	1.695310e-08	2.579754e+01	1.112859e+03
1.220000e-06	3.649676e-06	1.717966e-08	2.633830e+01	1.127936e+03
1.230000e-06	3.722984e-06	1.739653e-08	2.686733e+01	1.142277e+03
1.240000e-06	3.794750e-06	1.760393e-08	2.738524e+01	1.155921e+03
1.250000e-06	3.865164e-06	1.780025e-08	2.789339e+01	1.168903e+03
1.260000e-06	3.934235e-06	1.798552e-08	2.839185e+01	1.181252e+03
1.270000e-06	4.002022e-06	1.816065e-08	2.888105e+01	1.192998e+03
1.280000e-06	4.068347e-06	1.832706e-08	2.935968e+01	1.204172e+03
1.290000e-06	4.132954e-06	1.848708e-08	2.982593e+01	1.214805e+03
1.300000e-06	4.196012e-06	1.864191e-08	3.028099e+01	1.224926e+03
1.310000e-06	4.257689e-06	1.879122e-08	3.072610e+01	1.234563e+03
1.320000e-06	4.318061e-06	1.893387e-08	3.116177e+01	1.243736e+03
1.330000e-06	4.377109e-06	1.906790e-08	3.158790e+01	1.252455e+03
1.340000e-06	4.434423e-06	1.919448e-08	3.200151e+01	1.260726e+03
1.350000e-06	4.489940e-06	1.931283e-08	3.240216e+01	1.268550e+03
1.360000e-06	4.543839e-06	1.942230e-08	3.279113e+01	1.275927e+03
1.370000e-06	4.595990e-06	1.952436e-08	3.316748e+01	1.282863e+03
1.380000e-06	4.646167e-06	1.962101e-08	3.352959e+01	1.289375e+03
1.390000e-06	4.694367e-06	1.971425e-08	3.387743e+01	1.295491e+03
1.400000e-06	4.740871e-06	1.980168e-08	3.421303e+01	1.301247e+03
1.410000e-06	4.785831e-06	1.988368e-08	3.453749e+01	1.306687e+03
1.420000e-06	4.829273e-06	1.996266e-08	3.485099e+01	1.311854e+03
1.430000e-06	4.870868e-06	2.003759e-08	3.515117e+01	1.316783e+03
1.440000e-06	4.910585e-06	2.010812e-08	3.543779e+01	1.321498e+03
1.450000e-06	4.948698e-06	2.017584e-08	3.571284e+01	1.326003e+03
1.460000e-06	4.985212e-06	2.024089e-08	3.597635e+01	1.330291e+03
1.470000e-06	5.020068e-06	2.030172e-08	3.622789e+01	1.334341e+03
1.480000e-06	5.053045e-06	2.035782e-08	3.646587e+01	1.338126e+03
1.490000e-06	5.084190e-06	2.041010e-08	3.669063e+01	1.341626e+03
1.500000e-06	5.113690e-06	2.045909e-08	3.690352e+01	1.344826e+03
1.510000e-06	5.141506e-06	2.050499e-08	3.710426e+01	1.347725e+03
1.520000e-06	5.167395e-06	2.054663e-08	3.729109e+01	1.350338e+03
1.530000e-06	5.191202e-06	2.058155e-08	3.746290e+01	1.352684e+03
1.540000e-06	5.213152e-06	2.060949e-08	3.762130e+01	1.354791e+03
1.550000e-06	5.233485e-06	2.063491e-08	3.776804e+01	1.356683e+03
1.560000e-06	5.252076e-06	2.065967e-08	3.790220e+01	1.358376e+03
1.570000e-06	5.268659e-06	2.068229e-08	3.802187e+01	1.359875e+03
1.580000e-06	5.283239e-06	2.070299e-08	3.812709e+01	1.361179e+03
1.590000e-06	5.295821e-06	2.072138e-08	3.821789e+01	1.362276e+03
1.600000e-06	5.306268e-06	2.073675e-08	3.829328e+01	1.363158e+03
1.610000e-06	5.314602e-06	2.074854e-08	3.835343e+01	1.363820e+03
1.620000e-06	5.321028e-06	2.075684e-08	3.839980e+01	1.364268e+03
1.630000e-06	5.325682e-06	2.076163e-08	3.843339e+01	1.364514e+03
1.640000e-06	5.328511e-06	2.076280e-08	3.845380e+01	1.364582e+03
1.650000e-06	5.329370e-06	2.076167e-08	3.846000e+01	1.364495e+03
1.660000e-06	5.328339e-06	2.075850e-08	3.845256e+01	1.364274e+03
1.670000e-06	5.325613e-06	2.075352e-08	3.843289e+01	1.363927e+03
1.680000e-06	5.321253e-06	2.075057e-08	3.840142e+01	1.363451e+03
1.690000e-06	5.315100e-06	2.074535e-08	3.835702e+01	1.362828e+03
1.700000e-06	5.307162e-06	2.073423e-08	3.829973e+01	1.362031e+03
1.710000e-06	5.297619e-06	2.071800e-08	3.823087e+01	1.361031e+03
1.720000e-06	5.286380e-06	2.070123e-08	3.814976e+01	1.359806e+03
1.730000e-06	5.273273e-06	2.068817e-08	3.805517e+01	1.358349e+03
1.740000e-06	5.258210e-06	2.064212e-08	3.794647e+01	1.356670e+03
1.750000e-06	5.240984e-06	2.057907e-08	3.782216e+01	1.354800e+03
1.760000e-06	5.221302e-06	2.057210e-08	3.768012e+01	1.352783e+03
1.770000e-06	5.199138e-06	2.056458e-08	3.752017e+01	1.350667e+03
1.780000e-06	5.175157e-06	2.056544e-08	3.734710e+01	1.348496e+03
1.790000e-06	5.150259e-06	2.053851e-08	3.716742e+01	1.346297e+03
1.800000e-06	5.124435e-06	2.041872e-08	3.698106e+01	1.344075e+03
1.810000e-06	5.096823e-06	2.043257e-08	3.678180e+01	1.341812e+03
1.820000e-06	5.067120e-06	2.043011e-08	3.656744e+01	1.339466e+03
1.830000e-06	5.035698e-06	2.031070e-08	3.634068e+01	1.336980e+03
1.840000e-06	5.002455e-06	2.034410e-08	3.610078e+01	1.334296e+03
1.850000e-06	4.967473e-06	2.029410e-08	3.584833e+01	1.331359e+03
1.860000e-06	4.930890e-06	2.015864e-08	3.558432e+01	1.328132e+03
1.870000e-06	4.892360e-06	2.020210e-08	3.530627e+01	1.324595e+03
1.880000e-06	4.852080e-06	2.014945e-08	3.501559e+01	1.320751e+03
1.890000e-06	4.810173e-06	2.007772e-08	3.471315e+01	1.316617e+03
1.900000e-06	4.766545e-06	2.003632e-08	3.439831e+01	1.312219e+03
1.910000e-06	4.721273e-06	1.984904e-08	3.407160e+01	1.307583e+03
1.920000e-06	4.674121e-06	1.984441e-08	3.373132e+01	1.302730e+03
1.930000e-06	4.625178e-06	1.986098e-08	3.337812e+01	1.297669e+03
1.940000e-06	4.574520e-06	1.972223e-08	3.301254e+01	1.292396e+03
1.950000e-06	4.521873e-06	1.963307e-08	3.263261e+01	1.286899e+03
1.960000e-06	4.467324e-06	1.953209e-08	3.223895e+01	1.281159e+03
1.970000e-06	4.411042e-06	1.945287e-08	3.183278e+01	1.275158e+03
1.980000e-06	4.353146e-06	1.932424e-08	3.141497e+01	1.268883e+03
1.990000e-06	4.293865e-06	1.922987e-08	3.098716e+01	1.262325e+03
2.000000e-06	4.233212e-06	1.921944e-08	3.054945e+01	1.255487e+03
2.010000e-06	4.170945e-06	1.906414e-08	3.010009e+01	1.248375e+03
2.020000e-06	4.106948e-06	1.891144e-08	2.963825e+01	1.240996e+03
2.030000e-06	4.041444e-06	1.878729e-08	2.916553e+01	1.233356e+03
2.040000e-06	3.974582e-06	1.868848e-08	2.868302e+01	1.225456e+03
2.050000e-06	3.906373e-06	1.860665e-08	2.819078e+01	1.217289e+03
2.060000e-06	3.836715e-06	1.844605e-08	2.768809e+01	1.208842e+03
2.070000e-06	3.765497e-06	1.832736e-08	2.717413e+01	1.200098e+03
2.080000e-06	3.692961e-06	1.817885e-08	2.665067e+01	1.191034e+03
2.090000e-06	3.619185e-06	1.802689e-08	2.611826e+01	1.181632e+03
2.100000e-06	3.544036e-06	1.790285e-08	2.557594e+01	1.171874e+03
2.110000e-06	3.467447e-06	1.774328e-08	2.502322e+01	1.161746e+03
2.120000e-06	3.389342e-06	1.758262e-08	2.445957e+01	1.151235e+03
2.130000e-06	3.309917e-06	1.739876e-08	2.388639e+01	1.140332e+03
2.140000e-06	3.229358e-06	1.723513e-08	2.330503e+01	1.129026e+03
2.150000e-06	3.147717e-06	1.705875e-08	2.271585e+01	1.117303e+03
2.160000e-06	3.065043e-06	1.687729e-08	2.211923e+01	1.105145e+03
2.170000e-06	2.981374e-06	1.670557e-08	2.151542e+01	1.092533e+03
2.180000e-06	2.896696e-06	1.650096e-08	2.090434e+01	1.079442e+03
2.190000e-06	2.810794e-06	1.628590e-08	2.028441e+01	1.065847e+03
2.200000e-06	2.723620e-06	1.606733e-08	1.965531e+01	1.051721e+03
2.210000e-06	2.635444e-06	1.585883e-08	1.901898e+01	1.037037e+03
2.220000e-06	2.546424e-06	1.563001e-08	1.837655e+01	1.021765e+03
2.230000e-06	2.456513e-06	1.537665e-08	1.772770e+01	1.005874e+03
2.240000e-06	2.365783e-06	1.511901e-08	1.707294e+01	9.893303e+02
2.250000e-06	2.274371e-06	1.486455e-08	1.641325e+01	9.720967e+02
2.260000e-06	2.182264e-06	1.460321e-08	1.574855e+01	9.541310e+02
2.270000e-06	2.089355e-06	1.431656e-08	1.507807e+01	9.353878e+02
2.280000e-06	1.995513e-06	1.401781e-08	1.440084e+01	9.158187e+02
2.290000e-06	1.900703e-06	1.370342e-08	1.371664e+01	8.953735e+02
2.300000e-06	1.805107e-06	1.337452e-08	1.302676e+01	8.740013e+02
2.310000e-06	1.708956e-06	1.303418e-08	1.233288e+01	8.516502e+02
2.320000e-06	1.612342e-06	1.268419e-08	1.163565e+01	8.282671e+02
2.330000e-06	1.515211e-06	1.231835e-08	1.093469e+01	8.037960e+02
2.340000e-06	1.417546e-06	1.192509e-08	1.022988e+01	7.781775e+02
2.350000e-06	1.319404e-06	1.150848e-08	9.521629e+00	7.513478e+02
2.360000e-06	1.220878e-06	1.107914e-08	8.810605e+00	7.232412e+02
2.370000e-06	1.122054e-06	1.064067e-08	8.097429e+00	6.937929e+02
2.380000e-06	1.022952e-06	1.018042e-08	7.382246e+00	6.629465e+02
2.390000e-06	9.235797e-07	9.688588e-09	6.665117e+00	6.306612e+02
2.400000e-06	8.239927e-07	9.166882e-09	5.946436e+00	5.969219e+02
2.410000e-06	7.242017e-07	8.623586e-09	5.226283e+00	5.617474e+02
2.420000e-06	6.241375e-07	8.061296e-09	4.504158e+00	5.251964e+02
2.430000e-06	5.238976e-07	7.481814e-09	3.780766e+00	4.873700e+02
2.440000e-06	4.235829e-07	6.890315e-09	3.056834e+00	4.484087e+02
2.450000e-06	3.231205e-07	6.284959e-09	2.331836e+00	4.084851e+02
2.460000e-06	2.225006e-07	5.663306e-09	1.605700e+00	3.677908e+02
2.470000e-06	1.217549e-07	5.031770e-09	8.786578e-01	3.265208e+02
2.480000e-06	2.090570e-08	4.396539e-09	1.508684e-01	2.848562e+02
2.490000e-06	-7.997144e-08	3.757618e-09	-5.771229e-01	2.429473e+02
2.500000e-06	-1.808554e-07	3.113244e-09	-1.305164e+00	2.009000e+02
2.510000e-06	-2.817015e-07	2.466053e-09	-2.032931e+00	1.587663e+02
2.520000e-06	-3.823782e-07	1.820025e-09	-2.759476e+00	1.165413e+02
2.530000e-06	-4.828745e-07	1.173400e-09	-3.484719e+00	7.416643e+01
2.540000e-06	-5.832546e-07	5.244598e-10	-4.209123e+00	3.153893e+01
2.550000e-06	-6.834803e-07	-1.300510e-10	-4.932413e+00	-1.147215e+01
2.560000e-06	-7.835011e-07	-7.943572e-10	-5.654224e+00	-5.500635e+01
2.570000e-06	-8.832688e-07	-1.471171e-09	-6.374209e+00	-9.918939e+01
2.580000e-06	-9.827537e-07	-2.159857e-09	-7.092153e+00	-1.441107e+02
2.590000e-06	-1.081937e-06	-2.857951e-09	-7.807917e+00	-1.898035e+02
2.600000e-06	-1.180811e-06	-3.567208e-09	-8.521453e+00	-2.362291e+02
2.610000e-06	-1.279298e-06	-4.287708e-09	-9.232201e+00	-2.832685e+02
2.620000e-06	-1.377271e-06	-5.015316e-09	-9.939235e+00	-3.307226e+02
2.630000e-06	-1.474654e-06	-5.744769e-09	-1.064201e+01	-3.783202e+02
2.640000e-06	-1.571481e-06	-6.467234e-09	-1.134077e+01	-4.257353e+02
2.650000e-06	-1.667851e-06	-7.179699e-09	-1.203624e+01	-4.726101e+02
2.660000e-06	-1.763776e-06	-7.882335e-09	-1.272849e+01	-5.185826e+02
2.670000e-06	-1.859158e-06	-8.569607e-09	-1.341683e+01	-5.633137e+02
2.680000e-06	-1.953761e-06	-9.234541e-09	-1.409954e+01	-6.065123e+02
2.690000e-06	-2.047417e-06	-9.870476e-09	-1.477542e+01	-6.479526e+02
2.700000e-06	-2.140146e-06	-1.047760e-08	-1.544460e+01	-6.874852e+02
2.710000e-06	-2.232062e-06	-1.105574e-08	-1.610793e+01	-7.250367e+02
2.720000e-06	-2.323253e-06	-1.160511e-08	-1.676601e+01	-7.606028e+02
2.730000e-06	-2.413657e-06	-1.212430e-08	-1.741843e+01	-7.942341e+02
2.740000e-06	-2.503139e-06	-1.261090e-08	-1.806418e+01	-8.260180e+02
2.750000e-06	-2.591733e-06	-1.306859e-08	-1.870353e+01	-8.560608e+02
2.760000e-06	-2.679622e-06	-1.350011e-08	-1.933780e+01	-8.844725e+02
2.770000e-06	-2.766699e-06	-1.390937e-08	-1.996619e+01	-9.113559e+02
2.780000e-06	-2.852631e-06	-1.430046e-08	-2.058633e+01	-9.368010e+02
2.790000e-06	-2.937338e-06	-1.467343e-08	-2.119763e+01	-9.608854e+02
2.800000e-06	-3.021013e-06	-1.502548e-08	-2.180148e+01	-9.836768e+02
2.810000e-06	-3.103760e-06	-1.535569e-08	-2.239863e+01	-1.005239e+03
2.820000e-06	-3.185497e-06	-1.566680e-08	-2.298850e+01	-1.025635e+03
2.830000e-06	-3.266220e-06	-1.596194e-08	-2.357105e+01	-1.044933e+03
2.840000e-06	-3.345882e-06	-1.624181e-08	-2.414594e+01	-1.063203e+03
2.850000e-06	-3.424217e-06	-1.650775e-08	-2.471125e+01	-1.080517e+03
2.860000e-06	-3.500998e-06	-1.675969e-08	-2.526535e+01	-1.096944e+03
2.870000e-06	-3.576337e-06	-1.699906e-08	-2.580904e+01	-1.112548e+03
2.880000e-06	-3.650351e-06	-1.722814e-08	-2.634317e+01	-1.127384e+03
2.890000e-06	-3.723065e-06	-1.744758e-08	-2.686792e+01	-1.141498e+03
2.900000e-06	-3.794527e-06	-1.765683e-08	-2.738363e+01	-1.154927e+03
2.910000e-06	-3.864452e-06	-1.785465e-08	-2.788826e+01	-1.167703e+03
2.920000e-06	-3.932797e-06	-1.804298e-08	-2.838148e+01	-1.179856e+03
2.930000e-06	-3.999824e-06	-1.822112e-08	-2.886518e+01	-1.191416e+03
2.940000e-06	-4.065506e-06	-1.838827e-08	-2.933918e+01	-1.202413e+03
