# Temperatura_=_25.64
# Concentracion g/m^3_=_28200.0
# C_Vs_to_Am_M_A/Vsm_=_65563218390.804596
# pendiente_HvsI_1/m_=_3716.3
# ordenada_HvsI_A/m_=_1297.0
# frecuencia_Hz_=_301783.8653933923

Tiempo_(s)	Campo_(V.s)	Magnetizacion_(V.s)	Campo_(kA/m)	Magnetizacion_(A/m)
0.000000e+00	-5.309789e-06	-1.800348e-08	-3.829677e+01	-1.176963e+03
1.000000e-08	-5.308100e-06	-1.800085e-08	-3.828458e+01	-1.176670e+03
2.000000e-08	-5.304535e-06	-1.799349e-08	-3.825888e+01	-1.176259e+03
3.000000e-08	-5.299363e-06	-1.798182e-08	-3.822157e+01	-1.175727e+03
4.000000e-08	-5.292585e-06	-1.797036e-08	-3.817268e+01	-1.175060e+03
5.000000e-08	-5.284126e-06	-1.795568e-08	-3.811168e+01	-1.174238e+03
6.000000e-08	-5.273716e-06	-1.793650e-08	-3.803660e+01	-1.173238e+03
7.000000e-08	-5.261325e-06	-1.791157e-08	-3.794722e+01	-1.172041e+03
8.000000e-08	-5.247015e-06	-1.787724e-08	-3.784401e+01	-1.170646e+03
9.000000e-08	-5.230489e-06	-1.788683e-08	-3.772482e+01	-1.169063e+03
1.000000e-07	-5.211859e-06	-1.790529e-08	-3.759045e+01	-1.167321e+03
1.100000e-07	-5.191356e-06	-1.784452e-08	-3.744257e+01	-1.165460e+03
1.200000e-07	-5.168975e-06	-1.779170e-08	-3.728115e+01	-1.163525e+03
1.300000e-07	-5.145020e-06	-1.773604e-08	-3.710837e+01	-1.161554e+03
1.400000e-07	-5.119585e-06	-1.763755e-08	-3.692492e+01	-1.159569e+03
1.500000e-07	-5.092489e-06	-1.771410e-08	-3.672949e+01	-1.157574e+03
1.600000e-07	-5.063806e-06	-1.769353e-08	-3.652262e+01	-1.155547e+03
1.700000e-07	-5.033759e-06	-1.753502e-08	-3.630590e+01	-1.153449e+03
1.800000e-07	-5.002113e-06	-1.761564e-08	-3.607766e+01	-1.151227e+03
1.900000e-07	-4.968316e-06	-1.754872e-08	-3.583390e+01	-1.148826e+03
2.000000e-07	-4.932748e-06	-1.742791e-08	-3.557736e+01	-1.146198e+03
2.100000e-07	-4.895676e-06	-1.752775e-08	-3.530998e+01	-1.143308e+03
2.200000e-07	-4.856812e-06	-1.743164e-08	-3.502968e+01	-1.140140e+03
2.300000e-07	-4.816233e-06	-1.730043e-08	-3.473700e+01	-1.136698e+03
2.400000e-07	-4.773734e-06	-1.727495e-08	-3.443048e+01	-1.132996e+03
2.500000e-07	-4.729305e-06	-1.716309e-08	-3.411004e+01	-1.129057e+03
2.600000e-07	-4.683116e-06	-1.715589e-08	-3.377690e+01	-1.124904e+03
2.700000e-07	-4.635048e-06	-1.713793e-08	-3.343021e+01	-1.120552e+03
2.800000e-07	-4.584947e-06	-1.700014e-08	-3.306885e+01	-1.116007e+03
2.900000e-07	-4.532763e-06	-1.689156e-08	-3.269248e+01	-1.111263e+03
3.000000e-07	-4.478771e-06	-1.682890e-08	-3.230307e+01	-1.106307e+03
3.100000e-07	-4.423254e-06	-1.677737e-08	-3.190265e+01	-1.101122e+03
3.200000e-07	-4.366073e-06	-1.669139e-08	-3.149023e+01	-1.095694e+03
3.300000e-07	-4.307154e-06	-1.661736e-08	-3.106528e+01	-1.090011e+03
3.400000e-07	-4.246755e-06	-1.652807e-08	-3.062965e+01	-1.084072e+03
3.500000e-07	-4.184890e-06	-1.638851e-08	-3.018346e+01	-1.077879e+03
3.600000e-07	-4.121599e-06	-1.628365e-08	-2.972697e+01	-1.071438e+03
3.700000e-07	-4.056864e-06	-1.620332e-08	-2.926007e+01	-1.064757e+03
3.800000e-07	-3.990480e-06	-1.613504e-08	-2.878127e+01	-1.057840e+03
3.900000e-07	-3.922542e-06	-1.602654e-08	-2.829127e+01	-1.050685e+03
4.000000e-07	-3.853266e-06	-1.587348e-08	-2.779162e+01	-1.043283e+03
4.100000e-07	-3.782832e-06	-1.576076e-08	-2.728362e+01	-1.035622e+03
4.200000e-07	-3.711224e-06	-1.564290e-08	-2.676714e+01	-1.027685e+03
4.300000e-07	-3.638293e-06	-1.551708e-08	-2.624113e+01	-1.019455e+03
4.400000e-07	-3.563819e-06	-1.538574e-08	-2.570399e+01	-1.010917e+03
4.500000e-07	-3.487752e-06	-1.524291e-08	-2.515536e+01	-1.002058e+03
4.600000e-07	-3.410301e-06	-1.509303e-08	-2.459674e+01	-9.928690e+02
4.700000e-07	-3.331496e-06	-1.494975e-08	-2.402836e+01	-9.833380e+02
4.800000e-07	-3.251382e-06	-1.481961e-08	-2.345054e+01	-9.734536e+02
4.900000e-07	-3.170023e-06	-1.466218e-08	-2.286374e+01	-9.632002e+02
5.000000e-07	-3.087539e-06	-1.449032e-08	-2.226882e+01	-9.525578e+02
5.100000e-07	-3.004102e-06	-1.431626e-08	-2.166704e+01	-9.415028e+02
5.200000e-07	-2.919860e-06	-1.413658e-08	-2.105944e+01	-9.300090e+02
5.300000e-07	-2.834771e-06	-1.395182e-08	-2.044574e+01	-9.180500e+02
5.400000e-07	-2.748709e-06	-1.376373e-08	-1.982502e+01	-9.056015e+02
5.500000e-07	-2.661783e-06	-1.356658e-08	-1.919807e+01	-8.926416e+02
5.600000e-07	-2.573949e-06	-1.335222e-08	-1.856457e+01	-8.791510e+02
5.700000e-07	-2.485052e-06	-1.313171e-08	-1.792340e+01	-8.651111e+02
5.800000e-07	-2.394982e-06	-1.291343e-08	-1.727377e+01	-8.505014e+02
5.900000e-07	-2.303818e-06	-1.269035e-08	-1.661625e+01	-8.352966e+02
6.000000e-07	-2.211828e-06	-1.245100e-08	-1.595277e+01	-8.194649e+02
6.100000e-07	-2.119170e-06	-1.219052e-08	-1.528448e+01	-8.029672e+02
6.200000e-07	-2.025759e-06	-1.191756e-08	-1.461075e+01	-7.857587e+02
6.300000e-07	-1.931557e-06	-1.164059e-08	-1.393133e+01	-7.677909e+02
6.400000e-07	-1.836723e-06	-1.135897e-08	-1.324734e+01	-7.490157e+02
6.500000e-07	-1.741334e-06	-1.106598e-08	-1.255935e+01	-7.293881e+02
6.600000e-07	-1.645360e-06	-1.075219e-08	-1.186713e+01	-7.088684e+02
6.700000e-07	-1.548720e-06	-1.041850e-08	-1.117012e+01	-6.874229e+02
6.800000e-07	-1.451397e-06	-1.007156e-08	-1.046818e+01	-6.650228e+02
6.900000e-07	-1.353432e-06	-9.713413e-09	-9.761604e+00	-6.416420e+02
7.000000e-07	-1.254899e-06	-9.344634e-09	-9.050937e+00	-6.172558e+02
7.100000e-07	-1.155891e-06	-8.961756e-09	-8.336843e+00	-5.918397e+02
7.200000e-07	-1.056522e-06	-8.555890e-09	-7.620148e+00	-5.653717e+02
7.300000e-07	-9.568502e-07	-8.127053e-09	-6.901267e+00	-5.378363e+02
7.400000e-07	-8.569022e-07	-7.685333e-09	-6.180394e+00	-5.092312e+02
7.500000e-07	-7.567250e-07	-7.236036e-09	-5.457867e+00	-4.795748e+02
7.600000e-07	-6.563437e-07	-6.773200e-09	-4.733869e+00	-4.489132e+02
7.700000e-07	-5.558237e-07	-6.293079e-09	-4.008870e+00	-4.173249e+02
7.800000e-07	-4.551613e-07	-5.800764e-09	-3.282844e+00	-3.849214e+02
7.900000e-07	-3.543111e-07	-5.298444e-09	-2.555463e+00	-3.518427e+02
8.000000e-07	-2.533181e-07	-4.785536e-09	-1.827053e+00	-3.182484e+02
8.100000e-07	-1.522434e-07	-4.266848e-09	-1.098053e+00	-2.843052e+02
8.200000e-07	-5.109160e-08	-3.746619e-09	-3.684974e-01	-2.501715e+02
8.300000e-07	5.014143e-08	-3.225779e-09	3.616443e-01	-2.159833e+02
8.400000e-07	1.514517e-07	-2.705344e-09	1.092343e+00	-1.818418e+02
8.500000e-07	2.526939e-07	-2.190364e-09	1.822551e+00	-1.478047e+02
8.600000e-07	3.537907e-07	-1.681561e-09	2.551710e+00	-1.138833e+02
8.700000e-07	4.547935e-07	-1.173211e-09	3.280191e+00	-8.004345e+01
8.800000e-07	5.556535e-07	-6.623887e-10	4.007642e+00	-4.621252e+01
8.900000e-07	6.563355e-07	-1.480815e-10	4.733809e+00	-1.228873e+01
9.000000e-07	7.568247e-07	3.719295e-10	5.458586e+00	2.184657e+01
9.100000e-07	8.570999e-07	8.997008e-10	6.181819e+00	5.631558e+01
9.200000e-07	9.571353e-07	1.432214e-09	6.903323e+00	9.123061e+01
9.300000e-07	1.056911e-06	1.972094e-09	7.622952e+00	1.266813e+02
9.400000e-07	1.156408e-06	2.522180e-09	8.340573e+00	1.627228e+02
9.500000e-07	1.255570e-06	3.079611e-09	9.055776e+00	1.993668e+02
9.600000e-07	1.354236e-06	3.641883e-09	9.767403e+00	2.365738e+02
9.700000e-07	1.452195e-06	4.209660e-09	1.047393e+01	2.742506e+02
9.800000e-07	1.549316e-06	4.783935e-09	1.117442e+01	3.122507e+02
9.900000e-07	1.645691e-06	5.364387e-09	1.186952e+01	3.503803e+02
1.000000e-06	1.741456e-06	5.946127e-09	1.256023e+01	3.884091e+02
1.010000e-06	1.836617e-06	6.522493e-09	1.324657e+01	4.260850e+02
1.020000e-06	1.931144e-06	7.087926e-09	1.392835e+01	4.631523e+02
1.030000e-06	2.025001e-06	7.637258e-09	1.460529e+01	4.993699e+02
1.040000e-06	2.118138e-06	8.167493e-09	1.527704e+01	5.345285e+02
1.050000e-06	2.210550e-06	8.677560e-09	1.594356e+01	5.684630e+02
1.060000e-06	2.302316e-06	9.169996e-09	1.660542e+01	6.010602e+02
1.070000e-06	2.393384e-06	9.643965e-09	1.726224e+01	6.322591e+02
1.080000e-06	2.483479e-06	1.009691e-08	1.791206e+01	6.620453e+02
1.090000e-06	2.572427e-06	1.052801e-08	1.855359e+01	6.904406e+02
1.100000e-06	2.660358e-06	1.093910e-08	1.918779e+01	7.174903e+02
1.110000e-06	2.747456e-06	1.133205e-08	1.981598e+01	7.432504e+02
1.120000e-06	2.833674e-06	1.170525e-08	2.043783e+01	7.677769e+02
1.130000e-06	2.918945e-06	1.205973e-08	2.105284e+01	7.911194e+02
1.140000e-06	3.003313e-06	1.239560e-08	2.166135e+01	8.133193e+02
1.150000e-06	3.086849e-06	1.271432e-08	2.226385e+01	8.344113e+02
1.160000e-06	3.169376e-06	1.301689e-08	2.285908e+01	8.544279e+02
1.170000e-06	3.250656e-06	1.330440e-08	2.344531e+01	8.734049e+02
1.180000e-06	3.330718e-06	1.357680e-08	2.402275e+01	8.913848e+02
1.190000e-06	3.409580e-06	1.383465e-08	2.459154e+01	9.084191e+02
1.200000e-06	3.487283e-06	1.408017e-08	2.515197e+01	9.245665e+02
1.210000e-06	3.563828e-06	1.431218e-08	2.570405e+01	9.398902e+02
1.220000e-06	3.639051e-06	1.453156e-08	2.624660e+01	9.544525e+02
1.230000e-06	3.712612e-06	1.474023e-08	2.677715e+01	9.683101e+02
1.240000e-06	3.784539e-06	1.493893e-08	2.729593e+01	9.815106e+02
1.250000e-06	3.855122e-06	1.512773e-08	2.780501e+01	9.940910e+02
1.260000e-06	3.924384e-06	1.530777e-08	2.830456e+01	1.006079e+03
1.270000e-06	3.992384e-06	1.547984e-08	2.879501e+01	1.017494e+03
1.280000e-06	4.059032e-06	1.564386e-08	2.927570e+01	1.028352e+03
1.290000e-06	4.123986e-06	1.580016e-08	2.974419e+01	1.038669e+03
1.300000e-06	4.187320e-06	1.594916e-08	3.020098e+01	1.048462e+03
1.310000e-06	4.249295e-06	1.609007e-08	3.064797e+01	1.057749e+03
1.320000e-06	4.309907e-06	1.622463e-08	3.108513e+01	1.066550e+03
1.330000e-06	4.369154e-06	1.635275e-08	3.151246e+01	1.074886e+03
1.340000e-06	4.426690e-06	1.647463e-08	3.192743e+01	1.082774e+03
1.350000e-06	4.482472e-06	1.659016e-08	3.232976e+01	1.090231e+03
1.360000e-06	4.536701e-06	1.669613e-08	3.272089e+01	1.097270e+03
1.370000e-06	4.589223e-06	1.679186e-08	3.309970e+01	1.103905e+03
1.380000e-06	4.639767e-06	1.688152e-08	3.346425e+01	1.110154e+03
1.390000e-06	4.688273e-06	1.696888e-08	3.381409e+01	1.116039e+03
1.400000e-06	4.735084e-06	1.705365e-08	3.415172e+01	1.121585e+03
1.410000e-06	4.780382e-06	1.713508e-08	3.447843e+01	1.126823e+03
1.420000e-06	4.824176e-06	1.721316e-08	3.479429e+01	1.131784e+03
1.430000e-06	4.866192e-06	1.728636e-08	3.509733e+01	1.136497e+03
1.440000e-06	4.906366e-06	1.735437e-08	3.538708e+01	1.140982e+03
1.450000e-06	4.944891e-06	1.741863e-08	3.566495e+01	1.145251e+03
1.460000e-06	4.981800e-06	1.747995e-08	3.593116e+01	1.149302e+03
1.470000e-06	5.017106e-06	1.753784e-08	3.618580e+01	1.153123e+03
1.480000e-06	5.050480e-06	1.759159e-08	3.642651e+01	1.156698e+03
1.490000e-06	5.081878e-06	1.763987e-08	3.665296e+01	1.160006e+03
1.500000e-06	5.111594e-06	1.768448e-08	3.686729e+01	1.163036e+03
1.510000e-06	5.139736e-06	1.772629e-08	3.707027e+01	1.165781e+03
1.520000e-06	5.166035e-06	1.776352e-08	3.725995e+01	1.168250e+03
1.530000e-06	5.190229e-06	1.779676e-08	3.743445e+01	1.170459e+03
1.540000e-06	5.212491e-06	1.782587e-08	3.759501e+01	1.172432e+03
1.550000e-06	5.233051e-06	1.785224e-08	3.774330e+01	1.174195e+03
1.560000e-06	5.251961e-06	1.787625e-08	3.787968e+01	1.175769e+03
1.570000e-06	5.268918e-06	1.789671e-08	3.800199e+01	1.177166e+03
1.580000e-06	5.283801e-06	1.791406e-08	3.810933e+01	1.178391e+03
1.590000e-06	5.296779e-06	1.792859e-08	3.820294e+01	1.179438e+03
1.600000e-06	5.307673e-06	1.794081e-08	3.828151e+01	1.180298e+03
1.610000e-06	5.316365e-06	1.795129e-08	3.834420e+01	1.180963e+03
1.620000e-06	5.323117e-06	1.796024e-08	3.839290e+01	1.181429e+03
1.630000e-06	5.328107e-06	1.796717e-08	3.842889e+01	1.181701e+03
1.640000e-06	5.331279e-06	1.797119e-08	3.845177e+01	1.181792e+03
1.650000e-06	5.332421e-06	1.797301e-08	3.846000e+01	1.181724e+03
1.660000e-06	5.331654e-06	1.797133e-08	3.845447e+01	1.181516e+03
1.670000e-06	5.329221e-06	1.796413e-08	3.843692e+01	1.181184e+03
1.680000e-06	5.325230e-06	1.795843e-08	3.840814e+01	1.180734e+03
1.690000e-06	5.319484e-06	1.795073e-08	3.836669e+01	1.180160e+03
1.700000e-06	5.311800e-06	1.793939e-08	3.831127e+01	1.179445e+03
1.710000e-06	5.302458e-06	1.792667e-08	3.824389e+01	1.178567e+03
1.720000e-06	5.291548e-06	1.791607e-08	3.816521e+01	1.177504e+03
1.730000e-06	5.278811e-06	1.792181e-08	3.807334e+01	1.176243e+03
1.740000e-06	5.264075e-06	1.787778e-08	3.796705e+01	1.174784e+03
1.750000e-06	5.247276e-06	1.779541e-08	3.784589e+01	1.173145e+03
1.760000e-06	5.228068e-06	1.779838e-08	3.770736e+01	1.171360e+03
1.770000e-06	5.206231e-06	1.778807e-08	3.754986e+01	1.169470e+03
1.780000e-06	5.182393e-06	1.781102e-08	3.737793e+01	1.167519e+03
1.790000e-06	5.157564e-06	1.781760e-08	3.719885e+01	1.165541e+03
1.800000e-06	5.131954e-06	1.762967e-08	3.701413e+01	1.163552e+03
1.810000e-06	5.104688e-06	1.768423e-08	3.681748e+01	1.161549e+03
1.820000e-06	5.075299e-06	1.772785e-08	3.660551e+01	1.159504e+03
1.830000e-06	5.044191e-06	1.752813e-08	3.638114e+01	1.157371e+03
1.840000e-06	5.011202e-06	1.763919e-08	3.614322e+01	1.155097e+03
1.850000e-06	4.976408e-06	1.763029e-08	3.589227e+01	1.152627e+03
1.860000e-06	4.940099e-06	1.740806e-08	3.563038e+01	1.149916e+03
1.870000e-06	4.901837e-06	1.747610e-08	3.535442e+01	1.146937e+03
1.880000e-06	4.861787e-06	1.741405e-08	3.506556e+01	1.143680e+03
1.890000e-06	4.820123e-06	1.737820e-08	3.476506e+01	1.140151e+03
1.900000e-06	4.776735e-06	1.742025e-08	3.445212e+01	1.136369e+03
1.910000e-06	4.731753e-06	1.716931e-08	3.412769e+01	1.132359e+03
1.920000e-06	4.684892e-06	1.716809e-08	3.378971e+01	1.128140e+03
1.930000e-06	4.636196e-06	1.720942e-08	3.343849e+01	1.123725e+03
1.940000e-06	4.585884e-06	1.706962e-08	3.307562e+01	1.119115e+03
1.950000e-06	4.533592e-06	1.702150e-08	3.269846e+01	1.114304e+03
1.960000e-06	4.479292e-06	1.691981e-08	3.230682e+01	1.109276e+03
1.970000e-06	4.423232e-06	1.688207e-08	3.190249e+01	1.104013e+03
1.980000e-06	4.365555e-06	1.674759e-08	3.148649e+01	1.098503e+03
1.990000e-06	4.306456e-06	1.661308e-08	3.106024e+01	1.092738e+03
2.000000e-06	4.245961e-06	1.665003e-08	3.062393e+01	1.086715e+03
2.010000e-06	4.183861e-06	1.652445e-08	3.017603e+01	1.080441e+03
2.020000e-06	4.120016e-06	1.639736e-08	2.971555e+01	1.073921e+03
2.030000e-06	4.054708e-06	1.625875e-08	2.924452e+01	1.067164e+03
2.040000e-06	3.988106e-06	1.615734e-08	2.876415e+01	1.060170e+03
2.050000e-06	3.920102e-06	1.610947e-08	2.827367e+01	1.052935e+03
2.060000e-06	3.850564e-06	1.594397e-08	2.777213e+01	1.045451e+03
2.070000e-06	3.779494e-06	1.585660e-08	2.725954e+01	1.037702e+03
2.080000e-06	3.707137e-06	1.573379e-08	2.673767e+01	1.029672e+03
2.090000e-06	3.633535e-06	1.559419e-08	2.620681e+01	1.021344e+03
2.100000e-06	3.558620e-06	1.547994e-08	2.566649e+01	1.012703e+03
2.110000e-06	3.482285e-06	1.533394e-08	2.511593e+01	1.003739e+03
2.120000e-06	3.404429e-06	1.520846e-08	2.455439e+01	9.944400e+02
2.130000e-06	3.325184e-06	1.503531e-08	2.398284e+01	9.847961e+02
2.140000e-06	3.244749e-06	1.488937e-08	2.340270e+01	9.747941e+02
2.150000e-06	3.163212e-06	1.473386e-08	2.281462e+01	9.644173e+02
2.160000e-06	3.080582e-06	1.457287e-08	2.221865e+01	9.536442e+02
2.170000e-06	2.997009e-06	1.442088e-08	2.161588e+01	9.424502e+02
2.180000e-06	2.912481e-06	1.423701e-08	2.100622e+01	9.308089e+02
2.190000e-06	2.826689e-06	1.405117e-08	2.038745e+01	9.186943e+02
2.200000e-06	2.739622e-06	1.385073e-08	1.975948e+01	9.060828e+02
2.210000e-06	2.651557e-06	1.366179e-08	1.912431e+01	8.929536e+02
2.220000e-06	2.562645e-06	1.345837e-08	1.848304e+01	8.792877e+02
2.230000e-06	2.472858e-06	1.323825e-08	1.783545e+01	8.650662e+02
2.240000e-06	2.382234e-06	1.300794e-08	1.718183e+01	8.502675e+02
2.250000e-06	2.290890e-06	1.277377e-08	1.652301e+01	8.348641e+02
2.260000e-06	2.198836e-06	1.254046e-08	1.585907e+01	8.188221e+02
2.270000e-06	2.105974e-06	1.228717e-08	1.518930e+01	8.021003e+02
2.280000e-06	2.012203e-06	1.202312e-08	1.451298e+01	7.846522e+02
2.290000e-06	1.917552e-06	1.174151e-08	1.383032e+01	7.664293e+02
2.300000e-06	1.822054e-06	1.144732e-08	1.314154e+01	7.473839e+02
2.310000e-06	1.725910e-06	1.114275e-08	1.244810e+01	7.274728e+02
2.320000e-06	1.629408e-06	1.082935e-08	1.175208e+01	7.066581e+02
2.330000e-06	1.532447e-06	1.050716e-08	1.105275e+01	6.849080e+02
2.340000e-06	1.434876e-06	1.016452e-08	1.034902e+01	6.621946e+02
2.350000e-06	1.336784e-06	9.797889e-09	9.641533e+00	6.384925e+02
2.360000e-06	1.238237e-06	9.415741e-09	8.930762e+00	6.137770e+02
2.370000e-06	1.139360e-06	9.028844e-09	8.217616e+00	5.880242e+02
2.380000e-06	1.040255e-06	8.629756e-09	7.502823e+00	5.612135e+02
2.390000e-06	9.408853e-07	8.208032e-09	6.786121e+00	5.333329e+02
2.400000e-06	8.412617e-07	7.763597e-09	6.067587e+00	5.043858e+02
2.410000e-06	7.414027e-07	7.302349e-09	5.347355e+00	4.743990e+02
2.420000e-06	6.413244e-07	6.826554e-09	4.625542e+00	4.434285e+02
2.430000e-06	5.410038e-07	6.337635e-09	3.901982e+00	4.115638e+02
2.440000e-06	4.405123e-07	5.841391e-09	3.177188e+00	3.789260e+02
2.450000e-06	3.399123e-07	5.339487e-09	2.451612e+00	3.456627e+02
2.460000e-06	2.391430e-07	4.825318e-09	1.724815e+00	3.119374e+02
2.470000e-06	1.382510e-07	4.301465e-09	9.971330e-01	2.779156e+02
2.480000e-06	3.723346e-08	3.777615e-09	2.685458e-01	2.437502e+02
2.490000e-06	-6.385246e-08	3.255939e-09	-4.605349e-01	2.095671e+02
2.500000e-06	-1.648504e-07	2.732959e-09	-1.188981e+00	1.754543e+02
2.510000e-06	-2.656762e-07	2.208216e-09	-1.916185e+00	1.414546e+02
2.520000e-06	-3.664114e-07	1.686670e-09	-2.642736e+00	1.075643e+02
2.530000e-06	-4.670965e-07	1.166742e-09	-3.368926e+00	7.373608e+01
2.540000e-06	-5.676172e-07	6.469001e-10	-4.093930e+00	3.988666e+01
2.550000e-06	-6.679246e-07	1.260400e-10	-4.817396e+00	5.907455e+00
2.560000e-06	-7.680235e-07	-3.980528e-10	-5.539357e+00	-2.832280e+01
2.570000e-06	-8.678896e-07	-9.260809e-10	-6.259640e+00	-6.292458e+01
2.580000e-06	-9.674595e-07	-1.461145e-09	-6.977786e+00	-9.800425e+01
2.590000e-06	-1.066705e-06	-2.004848e-09	-7.693596e+00	-1.336416e+02
2.600000e-06	-1.165616e-06	-2.559644e-09	-8.406986e+00	-1.698786e+02
2.610000e-06	-1.264132e-06	-3.123845e-09	-9.117530e+00	-2.067112e+02
2.620000e-06	-1.362158e-06	-3.696876e-09	-9.824541e+00	-2.440829e+02
2.630000e-06	-1.459625e-06	-4.278604e-09	-1.052752e+01	-2.818828e+02
2.640000e-06	-1.556580e-06	-4.862676e-09	-1.122681e+01	-3.199485e+02
2.650000e-06	-1.653066e-06	-5.444765e-09	-1.192271e+01	-3.580730e+02
2.660000e-06	-1.749112e-06	-6.023084e-09	-1.261544e+01	-3.960172e+02
2.670000e-06	-1.844666e-06	-6.595541e-09	-1.330463e+01	-4.335258e+02
2.680000e-06	-1.939512e-06	-7.160095e-09	-1.398870e+01	-4.703459e+02
2.690000e-06	-2.033370e-06	-7.712250e-09	-1.466565e+01	-5.062449e+02
2.700000e-06	-2.126231e-06	-8.247898e-09	-1.533540e+01	-5.410264e+02
2.710000e-06	-2.218326e-06	-8.763919e-09	-1.599964e+01	-5.745417e+02
2.720000e-06	-2.309649e-06	-9.256526e-09	-1.665831e+01	-6.066945e+02
2.730000e-06	-2.400191e-06	-9.725794e-09	-1.731134e+01	-6.374397e+02
2.740000e-06	-2.489916e-06	-1.017477e-08	-1.795848e+01	-6.667758e+02
2.750000e-06	-2.578726e-06	-1.060262e-08	-1.859902e+01	-6.947338e+02
2.760000e-06	-2.666749e-06	-1.100959e-08	-1.923388e+01	-7.213635e+02
2.770000e-06	-2.754033e-06	-1.139879e-08	-1.986342e+01	-7.467220e+02
2.780000e-06	-2.840264e-06	-1.177058e-08	-2.048536e+01	-7.708637e+02
2.790000e-06	-2.925231e-06	-1.212484e-08	-2.109818e+01	-7.938357e+02
2.800000e-06	-3.009125e-06	-1.245957e-08	-2.170327e+01	-8.156767e+02
2.810000e-06	-3.092057e-06	-1.277499e-08	-2.230142e+01	-8.364202e+02
2.820000e-06	-3.174003e-06	-1.307443e-08	-2.289244e+01	-8.560993e+02
2.830000e-06	-3.254917e-06	-1.336051e-08	-2.347604e+01	-8.747516e+02
2.840000e-06	-3.334766e-06	-1.363365e-08	-2.405195e+01	-8.924224e+02
2.850000e-06	-3.413313e-06	-1.389159e-08	-2.461847e+01	-9.091657e+02
2.860000e-06	-3.490331e-06	-1.413353e-08	-2.517396e+01	-9.250422e+02
2.870000e-06	-3.565976e-06	-1.436423e-08	-2.571954e+01	-9.401154e+02
2.880000e-06	-3.640270e-06	-1.458681e-08	-2.625539e+01	-9.544461e+02
2.890000e-06	-3.713222e-06	-1.480038e-08	-2.678155e+01	-9.680886e+02
2.900000e-06	-3.784940e-06	-1.500266e-08	-2.729882e+01	-9.810871e+02
2.910000e-06	-3.855214e-06	-1.519331e-08	-2.780567e+01	-9.934753e+02
2.920000e-06	-3.923917e-06	-1.537552e-08	-2.830119e+01	-1.005278e+03
2.930000e-06	-3.991240e-06	-1.554855e-08	-2.878676e+01	-1.016513e+03
2.940000e-06	-4.057218e-06	-1.571081e-08	-2.926262e+01	-1.027196e+03
