# Temperatura_=_78.05
# Concentracion g/m^3_=_28200.0
# C_Vs_to_Am_M_A/Vsm_=_65563218390.804596
# pendiente_HvsI_1/m_=_3716.3
# ordenada_HvsI_A/m_=_1297.0
# frecuencia_Hz_=_301763.94680691493

Tiempo_(s)	Campo_(V.s)	Magnetizacion_(V.s)	Campo_(kA/m)	Magnetizacion_(A/m)
0.000000e+00	-5.317773e-06	-2.409356e-08	-3.829320e+01	-1.575788e+03
1.000000e-08	-5.315681e-06	-2.408661e-08	-3.827813e+01	-1.575372e+03
2.000000e-08	-5.311686e-06	-2.407204e-08	-3.824937e+01	-1.574783e+03
3.000000e-08	-5.306031e-06	-2.405593e-08	-3.820865e+01	-1.574010e+03
4.000000e-08	-5.298810e-06	-2.403980e-08	-3.815664e+01	-1.573036e+03
5.000000e-08	-5.289936e-06	-2.401911e-08	-3.809275e+01	-1.571839e+03
6.000000e-08	-5.279089e-06	-2.399455e-08	-3.801464e+01	-1.570400e+03
7.000000e-08	-5.266299e-06	-2.396323e-08	-3.792254e+01	-1.568711e+03
8.000000e-08	-5.251550e-06	-2.393435e-08	-3.781633e+01	-1.566775e+03
9.000000e-08	-5.234550e-06	-2.395274e-08	-3.769391e+01	-1.564614e+03
1.000000e-07	-5.215448e-06	-2.393693e-08	-3.755636e+01	-1.562261e+03
1.100000e-07	-5.194510e-06	-2.385338e-08	-3.740559e+01	-1.559758e+03
1.200000e-07	-5.171802e-06	-2.379587e-08	-3.724206e+01	-1.557146e+03
1.300000e-07	-5.147513e-06	-2.370487e-08	-3.706716e+01	-1.554459e+03
1.400000e-07	-5.121665e-06	-2.363573e-08	-3.688103e+01	-1.551715e+03
1.500000e-07	-5.094165e-06	-2.371726e-08	-3.668300e+01	-1.548910e+03
1.600000e-07	-5.065140e-06	-2.361738e-08	-3.647399e+01	-1.546020e+03
1.700000e-07	-5.034679e-06	-2.351166e-08	-3.625465e+01	-1.543004e+03
1.800000e-07	-5.002415e-06	-2.356724e-08	-3.602231e+01	-1.539809e+03
1.900000e-07	-4.968061e-06	-2.341583e-08	-3.577493e+01	-1.536382e+03
2.000000e-07	-4.932127e-06	-2.334762e-08	-3.551617e+01	-1.532672e+03
2.100000e-07	-4.894641e-06	-2.338442e-08	-3.524624e+01	-1.528643e+03
2.200000e-07	-4.855339e-06	-2.323725e-08	-3.496322e+01	-1.524274e+03
2.300000e-07	-4.814211e-06	-2.314454e-08	-3.466706e+01	-1.519561e+03
2.400000e-07	-4.771153e-06	-2.309042e-08	-3.435700e+01	-1.514512e+03
2.500000e-07	-4.726311e-06	-2.298667e-08	-3.403409e+01	-1.509144e+03
2.600000e-07	-4.679703e-06	-2.294742e-08	-3.369847e+01	-1.503475e+03
2.700000e-07	-4.631156e-06	-2.283087e-08	-3.334888e+01	-1.497521e+03
2.800000e-07	-4.580537e-06	-2.269577e-08	-3.298438e+01	-1.491293e+03
2.900000e-07	-4.527914e-06	-2.259256e-08	-3.260544e+01	-1.484791e+03
3.000000e-07	-4.473565e-06	-2.250214e-08	-3.221407e+01	-1.478012e+03
3.100000e-07	-4.417608e-06	-2.242172e-08	-3.181112e+01	-1.470948e+03
3.200000e-07	-4.359875e-06	-2.229644e-08	-3.139539e+01	-1.463590e+03
3.300000e-07	-4.300488e-06	-2.217817e-08	-3.096775e+01	-1.455929e+03
3.400000e-07	-4.239688e-06	-2.204477e-08	-3.052993e+01	-1.447962e+03
3.500000e-07	-4.177416e-06	-2.189918e-08	-3.008151e+01	-1.439687e+03
3.600000e-07	-4.113752e-06	-2.177783e-08	-2.962306e+01	-1.431104e+03
3.700000e-07	-4.048643e-06	-2.166530e-08	-2.915421e+01	-1.422212e+03
3.800000e-07	-3.981885e-06	-2.153906e-08	-2.867349e+01	-1.413009e+03
3.900000e-07	-3.913586e-06	-2.136271e-08	-2.818167e+01	-1.403487e+03
4.000000e-07	-3.843976e-06	-2.119627e-08	-2.768041e+01	-1.393636e+03
4.100000e-07	-3.773172e-06	-2.106214e-08	-2.717055e+01	-1.383439e+03
4.200000e-07	-3.701165e-06	-2.090324e-08	-2.665203e+01	-1.372880e+03
4.300000e-07	-3.627689e-06	-2.073674e-08	-2.612293e+01	-1.361941e+03
4.400000e-07	-3.552626e-06	-2.055828e-08	-2.558240e+01	-1.350605e+03
4.500000e-07	-3.476174e-06	-2.036793e-08	-2.503187e+01	-1.338857e+03
4.600000e-07	-3.398415e-06	-2.017511e-08	-2.447193e+01	-1.326683e+03
4.700000e-07	-3.319258e-06	-1.999234e-08	-2.390193e+01	-1.314071e+03
4.800000e-07	-3.238762e-06	-1.980925e-08	-2.332227e+01	-1.301007e+03
4.900000e-07	-3.157063e-06	-1.959600e-08	-2.273396e+01	-1.287474e+03
5.000000e-07	-3.074271e-06	-1.937441e-08	-2.213778e+01	-1.273452e+03
5.100000e-07	-2.990546e-06	-1.914802e-08	-2.153488e+01	-1.258918e+03
5.200000e-07	-2.905920e-06	-1.891423e-08	-2.092548e+01	-1.243843e+03
5.300000e-07	-2.820358e-06	-1.867343e-08	-2.030935e+01	-1.228199e+03
5.400000e-07	-2.733872e-06	-1.842691e-08	-1.968657e+01	-1.211955e+03
5.500000e-07	-2.646527e-06	-1.816852e-08	-1.905760e+01	-1.195082e+03
5.600000e-07	-2.558211e-06	-1.789280e-08	-1.842164e+01	-1.177550e+03
5.700000e-07	-2.468729e-06	-1.761451e-08	-1.777728e+01	-1.159332e+03
5.800000e-07	-2.378166e-06	-1.733025e-08	-1.712513e+01	-1.140396e+03
5.900000e-07	-2.286714e-06	-1.703313e-08	-1.646659e+01	-1.120710e+03
6.000000e-07	-2.194444e-06	-1.671873e-08	-1.580216e+01	-1.100234e+03
6.100000e-07	-2.101414e-06	-1.638829e-08	-1.513225e+01	-1.078921e+03
6.200000e-07	-2.007648e-06	-1.604587e-08	-1.445704e+01	-1.056716e+03
6.300000e-07	-1.913124e-06	-1.569137e-08	-1.377638e+01	-1.033558e+03
6.400000e-07	-1.817983e-06	-1.532333e-08	-1.309127e+01	-1.009374e+03
6.500000e-07	-1.722333e-06	-1.493666e-08	-1.240250e+01	-9.840925e+02
6.600000e-07	-1.626053e-06	-1.452930e-08	-1.170918e+01	-9.576342e+02
6.700000e-07	-1.529072e-06	-1.410257e-08	-1.101082e+01	-9.299214e+02
6.800000e-07	-1.431422e-06	-1.365941e-08	-1.030764e+01	-9.008762e+02
6.900000e-07	-1.333159e-06	-1.319849e-08	-9.600059e+00	-8.704225e+02
7.000000e-07	-1.234423e-06	-1.271503e-08	-8.889060e+00	-8.384870e+02
7.100000e-07	-1.135309e-06	-1.220369e-08	-8.175339e+00	-8.050013e+02
7.200000e-07	-1.035831e-06	-1.166164e-08	-7.459001e+00	-7.699043e+02
7.300000e-07	-9.359918e-07	-1.109451e-08	-6.740062e+00	-7.331479e+02
7.400000e-07	-8.358631e-07	-1.050958e-08	-6.019037e+00	-6.947029e+02
7.500000e-07	-7.354808e-07	-9.905395e-09	-5.296186e+00	-6.545673e+02
7.600000e-07	-6.348580e-07	-9.273231e-09	-4.571602e+00	-6.127737e+02
7.700000e-07	-5.340547e-07	-8.613052e-09	-3.845720e+00	-5.693959e+02
7.800000e-07	-4.330982e-07	-7.929143e-09	-3.118733e+00	-5.245522e+02
7.900000e-07	-3.320225e-07	-7.223772e-09	-2.390889e+00	-4.784030e+02
8.000000e-07	-2.308132e-07	-6.501614e-09	-1.662082e+00	-4.311438e+02
8.100000e-07	-1.294923e-07	-5.768689e-09	-9.324720e-01	-3.829913e+02
8.200000e-07	-2.814620e-08	-5.027497e-09	-2.026804e-01	-3.341642e+02
8.300000e-07	7.320962e-08	-4.278871e-09	5.271814e-01	-2.848621e+02
8.400000e-07	1.745468e-07	-3.525404e-09	1.256909e+00	-2.352432e+02
8.500000e-07	2.758495e-07	-2.771011e-09	1.986388e+00	-1.854057e+02
8.600000e-07	3.770481e-07	-2.015587e-09	2.715118e+00	-1.353766e+02
8.700000e-07	4.781511e-07	-1.251961e-09	3.443159e+00	-8.510878e+01
8.800000e-07	5.791886e-07	-4.788142e-10	4.170728e+00	-3.449013e+01
8.900000e-07	6.800849e-07	3.045937e-10	4.897281e+00	1.663722e+01
9.000000e-07	7.808213e-07	1.099469e-09	5.622682e+00	6.844852e+01
9.100000e-07	8.813445e-07	1.902837e-09	6.346548e+00	1.211026e+02
9.200000e-07	9.815588e-07	2.715550e-09	7.068190e+00	1.747072e+02
9.300000e-07	1.081377e-06	3.541338e-09	7.786978e+00	2.292885e+02
9.400000e-07	1.180829e-06	4.382735e-09	8.503132e+00	2.847693e+02
9.500000e-07	1.279912e-06	5.236503e-09	9.216629e+00	3.409598e+02
9.600000e-07	1.378505e-06	6.096756e-09	9.926596e+00	3.975623e+02
9.700000e-07	1.476475e-06	6.959742e-09	1.063207e+01	4.541896e+02
9.800000e-07	1.573690e-06	7.817219e-09	1.133212e+01	5.103954e+02
9.900000e-07	1.670106e-06	8.660953e-09	1.202641e+01	5.657105e+02
1.000000e-06	1.765851e-06	9.483459e-09	1.271587e+01	6.196829e+02
1.010000e-06	1.861055e-06	1.027803e-08	1.340143e+01	6.719123e+02
1.020000e-06	1.955645e-06	1.103799e-08	1.408257e+01	7.220789e+02
1.030000e-06	2.049501e-06	1.175923e-08	1.475842e+01	7.699587e+02
1.040000e-06	2.142637e-06	1.244243e-08	1.542909e+01	8.154281e+02
1.050000e-06	2.235136e-06	1.309211e-08	1.609518e+01	8.584556e+02
1.060000e-06	2.326926e-06	1.370903e-08	1.675616e+01	8.990854e+02
1.070000e-06	2.417849e-06	1.429237e-08	1.741090e+01	9.374149e+02
1.080000e-06	2.507780e-06	1.484295e-08	1.805849e+01	9.735720e+02
1.090000e-06	2.596663e-06	1.536217e-08	1.869853e+01	1.007694e+03
1.100000e-06	2.684617e-06	1.585228e-08	1.933189e+01	1.039914e+03
1.110000e-06	2.771710e-06	1.631416e-08	1.995904e+01	1.070351e+03
1.120000e-06	2.857854e-06	1.674845e-08	2.057936e+01	1.099110e+03
1.130000e-06	2.943048e-06	1.715579e-08	2.119284e+01	1.126282e+03
1.140000e-06	3.027374e-06	1.754266e-08	2.180007e+01	1.151956e+03
1.150000e-06	3.110859e-06	1.791281e-08	2.240125e+01	1.176217e+03
1.160000e-06	3.193262e-06	1.826537e-08	2.299463e+01	1.199153e+03
1.170000e-06	3.274359e-06	1.859917e-08	2.357861e+01	1.220858e+03
1.180000e-06	3.354267e-06	1.891400e-08	2.415402e+01	1.241425e+03
1.190000e-06	3.432972e-06	1.921009e-08	2.472078e+01	1.260944e+03
1.200000e-06	3.510448e-06	1.948853e-08	2.527868e+01	1.279499e+03
1.210000e-06	3.586695e-06	1.975310e-08	2.582773e+01	1.297157e+03
1.220000e-06	3.661565e-06	2.000626e-08	2.636687e+01	1.313975e+03
1.230000e-06	3.734867e-06	2.024859e-08	2.689472e+01	1.329994e+03
1.240000e-06	3.806678e-06	2.048083e-08	2.741183e+01	1.345246e+03
1.250000e-06	3.877195e-06	2.070077e-08	2.791962e+01	1.359761e+03
1.260000e-06	3.946364e-06	2.090855e-08	2.841770e+01	1.373567e+03
1.270000e-06	4.014239e-06	2.110483e-08	2.890648e+01	1.386698e+03
1.280000e-06	4.080625e-06	2.129043e-08	2.938452e+01	1.399195e+03
1.290000e-06	4.145288e-06	2.146871e-08	2.985016e+01	1.411101e+03
1.300000e-06	4.208463e-06	2.164170e-08	3.030508e+01	1.422460e+03
1.310000e-06	4.270238e-06	2.180920e-08	3.074992e+01	1.433310e+03
1.320000e-06	4.330670e-06	2.196980e-08	3.118509e+01	1.443681e+03
1.330000e-06	4.389674e-06	2.212267e-08	3.160997e+01	1.453590e+03
1.340000e-06	4.446885e-06	2.226757e-08	3.202195e+01	1.463040e+03
1.350000e-06	4.502389e-06	2.240562e-08	3.242163e+01	1.472027e+03
1.360000e-06	4.556299e-06	2.253479e-08	3.280984e+01	1.480543e+03
1.370000e-06	4.608446e-06	2.265456e-08	3.318535e+01	1.488582e+03
1.380000e-06	4.658586e-06	2.276804e-08	3.354641e+01	1.496147e+03
1.390000e-06	4.706765e-06	2.287660e-08	3.389334e+01	1.503254e+03
1.400000e-06	4.753284e-06	2.297919e-08	3.422833e+01	1.509929e+03
1.410000e-06	4.798272e-06	2.307619e-08	3.455228e+01	1.516210e+03
1.420000e-06	4.841678e-06	2.316863e-08	3.486485e+01	1.522141e+03
1.430000e-06	4.883233e-06	2.325407e-08	3.516409e+01	1.527761e+03
1.440000e-06	4.922998e-06	2.333255e-08	3.545043e+01	1.533101e+03
1.450000e-06	4.961169e-06	2.340654e-08	3.572530e+01	1.538181e+03
1.460000e-06	4.997785e-06	2.347769e-08	3.598897e+01	1.543005e+03
1.470000e-06	5.032668e-06	2.354682e-08	3.624016e+01	1.547566e+03
1.480000e-06	5.065589e-06	2.361333e-08	3.647723e+01	1.551848e+03
1.490000e-06	5.096716e-06	2.367591e-08	3.670137e+01	1.555835e+03
1.500000e-06	5.126219e-06	2.373379e-08	3.691382e+01	1.559513e+03
1.510000e-06	5.154045e-06	2.378616e-08	3.711420e+01	1.562876e+03
1.520000e-06	5.179884e-06	2.383202e-08	3.730026e+01	1.565927e+03
1.530000e-06	5.203657e-06	2.387220e-08	3.747145e+01	1.568679e+03
1.540000e-06	5.225572e-06	2.390795e-08	3.762926e+01	1.571147e+03
1.550000e-06	5.245833e-06	2.394093e-08	3.777516e+01	1.573351e+03
1.560000e-06	5.264366e-06	2.397075e-08	3.790862e+01	1.575304e+03
1.570000e-06	5.280873e-06	2.399734e-08	3.802749e+01	1.577014e+03
1.580000e-06	5.295333e-06	2.402014e-08	3.813161e+01	1.578486e+03
1.590000e-06	5.307817e-06	2.403904e-08	3.822150e+01	1.579716e+03
1.600000e-06	5.318144e-06	2.405595e-08	3.829587e+01	1.580704e+03
1.610000e-06	5.326364e-06	2.406902e-08	3.835507e+01	1.581448e+03
1.620000e-06	5.332763e-06	2.407766e-08	3.840115e+01	1.581955e+03
1.630000e-06	5.337427e-06	2.408328e-08	3.843472e+01	1.582236e+03
1.640000e-06	5.340205e-06	2.408606e-08	3.845473e+01	1.582307e+03
1.650000e-06	5.340936e-06	2.408635e-08	3.846000e+01	1.582185e+03
1.660000e-06	5.339819e-06	2.408097e-08	3.845195e+01	1.581884e+03
1.670000e-06	5.337070e-06	2.407221e-08	3.843216e+01	1.581412e+03
1.680000e-06	5.332681e-06	2.406587e-08	3.840056e+01	1.580764e+03
1.690000e-06	5.326414e-06	2.405735e-08	3.835542e+01	1.579927e+03
1.700000e-06	5.318360e-06	2.404328e-08	3.829743e+01	1.578883e+03
1.710000e-06	5.308753e-06	2.402538e-08	3.822824e+01	1.577608e+03
1.720000e-06	5.297442e-06	2.400999e-08	3.814680e+01	1.576088e+03
1.730000e-06	5.284173e-06	2.400046e-08	3.805124e+01	1.574317e+03
1.740000e-06	5.268938e-06	2.391712e-08	3.794154e+01	1.572305e+03
1.750000e-06	5.251622e-06	2.385006e-08	3.781685e+01	1.570077e+03
1.760000e-06	5.231768e-06	2.385389e-08	3.767388e+01	1.567670e+03
1.770000e-06	5.209401e-06	2.383189e-08	3.751282e+01	1.565126e+03
1.780000e-06	5.185301e-06	2.387559e-08	3.733927e+01	1.562486e+03
1.790000e-06	5.160315e-06	2.380052e-08	3.715935e+01	1.559779e+03
1.800000e-06	5.134348e-06	2.363005e-08	3.697236e+01	1.557015e+03
1.810000e-06	5.106491e-06	2.371210e-08	3.677177e+01	1.554185e+03
1.820000e-06	5.076586e-06	2.364425e-08	3.655642e+01	1.551259e+03
1.830000e-06	5.045026e-06	2.352084e-08	3.632916e+01	1.548190e+03
1.840000e-06	5.011581e-06	2.364047e-08	3.608832e+01	1.544925e+03
1.850000e-06	4.976412e-06	2.349764e-08	3.583507e+01	1.541411e+03
1.860000e-06	4.939672e-06	2.336442e-08	3.557050e+01	1.537600e+03
1.870000e-06	4.901031e-06	2.341405e-08	3.529225e+01	1.533462e+03
1.880000e-06	4.860675e-06	2.328198e-08	3.500164e+01	1.528981e+03
1.890000e-06	4.818606e-06	2.326536e-08	3.469871e+01	1.524158e+03
1.900000e-06	4.774829e-06	2.318672e-08	3.438347e+01	1.519003e+03
1.910000e-06	4.729367e-06	2.301345e-08	3.405610e+01	1.513535e+03
1.920000e-06	4.681952e-06	2.306242e-08	3.371467e+01	1.507772e+03
1.930000e-06	4.632839e-06	2.294963e-08	3.336100e+01	1.501729e+03
1.940000e-06	4.582037e-06	2.282612e-08	3.299518e+01	1.495411e+03
1.950000e-06	4.529144e-06	2.274008e-08	3.261429e+01	1.488820e+03
1.960000e-06	4.474311e-06	2.259782e-08	3.221944e+01	1.481949e+03
1.970000e-06	4.417752e-06	2.254152e-08	3.181216e+01	1.474790e+03
1.980000e-06	4.359602e-06	2.236365e-08	3.139342e+01	1.467334e+03
1.990000e-06	4.300060e-06	2.227764e-08	3.096466e+01	1.459575e+03
2.000000e-06	4.239006e-06	2.222406e-08	3.052501e+01	1.451507e+03
2.010000e-06	4.176298e-06	2.202994e-08	3.007345e+01	1.443132e+03
2.020000e-06	4.111981e-06	2.189137e-08	2.961031e+01	1.434449e+03
2.030000e-06	4.046248e-06	2.173361e-08	2.913697e+01	1.425456e+03
2.040000e-06	3.979228e-06	2.164040e-08	2.865436e+01	1.416150e+03
2.050000e-06	3.910752e-06	2.149998e-08	2.816126e+01	1.406523e+03
2.060000e-06	3.840687e-06	2.131087e-08	2.765673e+01	1.396561e+03
2.070000e-06	3.769190e-06	2.118470e-08	2.714188e+01	1.386249e+03
2.080000e-06	3.696435e-06	2.099520e-08	2.661797e+01	1.375569e+03
2.090000e-06	3.622351e-06	2.083767e-08	2.608449e+01	1.364502e+03
2.100000e-06	3.546929e-06	2.067084e-08	2.554138e+01	1.353034e+03
2.110000e-06	3.470049e-06	2.049584e-08	2.498777e+01	1.341150e+03
2.120000e-06	3.391631e-06	2.030681e-08	2.442308e+01	1.328835e+03
2.130000e-06	3.311979e-06	2.008857e-08	2.384951e+01	1.316078e+03
2.140000e-06	3.231250e-06	1.990154e-08	2.326818e+01	1.302864e+03
2.150000e-06	3.149430e-06	1.968876e-08	2.267900e+01	1.289175e+03
2.160000e-06	3.066568e-06	1.948632e-08	2.208231e+01	1.274990e+03
2.170000e-06	2.982736e-06	1.927168e-08	2.147864e+01	1.260284e+03
2.180000e-06	2.897719e-06	1.903604e-08	2.086643e+01	1.245029e+03
2.190000e-06	2.811397e-06	1.878905e-08	2.024482e+01	1.229194e+03
2.200000e-06	2.724000e-06	1.853559e-08	1.961548e+01	1.212750e+03
2.210000e-06	2.635673e-06	1.828932e-08	1.897944e+01	1.195667e+03
2.220000e-06	2.546489e-06	1.801694e-08	1.833723e+01	1.177916e+03
2.230000e-06	2.456403e-06	1.773306e-08	1.768852e+01	1.159469e+03
2.240000e-06	2.365538e-06	1.743743e-08	1.703420e+01	1.140295e+03
2.250000e-06	2.274095e-06	1.713841e-08	1.637572e+01	1.120358e+03
2.260000e-06	2.181907e-06	1.682451e-08	1.571188e+01	1.099618e+03
2.270000e-06	2.088628e-06	1.649546e-08	1.504018e+01	1.078024e+03
2.280000e-06	1.994306e-06	1.615590e-08	1.436097e+01	1.055518e+03
2.290000e-06	1.899240e-06	1.579765e-08	1.367640e+01	1.032037e+03
2.300000e-06	1.803514e-06	1.542446e-08	1.298708e+01	1.007508e+03
2.310000e-06	1.707190e-06	1.503284e-08	1.229345e+01	9.818552e+02
2.320000e-06	1.610365e-06	1.462794e-08	1.159621e+01	9.550011e+02
2.330000e-06	1.513039e-06	1.420252e-08	1.089537e+01	9.268672e+02
2.340000e-06	1.415237e-06	1.375123e-08	1.019110e+01	8.973763e+02
2.350000e-06	1.316962e-06	1.327468e-08	9.483426e+00	8.664530e+02
2.360000e-06	1.218274e-06	1.278117e-08	8.772769e+00	8.340252e+02
2.370000e-06	1.119288e-06	1.227043e-08	8.059976e+00	8.000265e+02
2.380000e-06	1.020090e-06	1.173151e-08	7.345649e+00	7.643995e+02
2.390000e-06	9.206599e-07	1.116111e-08	6.629657e+00	7.271012e+02
2.400000e-06	8.209743e-07	1.056192e-08	5.911823e+00	6.881104e+02
2.410000e-06	7.210074e-07	9.938700e-09	5.191963e+00	6.474352e+02
2.420000e-06	6.207444e-07	9.290066e-09	4.469971e+00	6.051211e+02
2.430000e-06	5.202149e-07	8.619347e-09	3.746059e+00	5.612560e+02
2.440000e-06	4.194546e-07	7.929673e-09	3.020486e+00	5.159720e+02
2.450000e-06	3.184552e-07	7.219839e-09	2.293191e+00	4.694422e+02
2.460000e-06	2.171915e-07	6.489735e-09	1.563992e+00	4.218706e+02
2.470000e-06	1.158316e-07	5.747400e-09	8.341015e-01	3.734767e+02
2.480000e-06	1.447264e-08	5.000688e-09	1.042172e-01	3.244756e+02
2.490000e-06	-8.687221e-08	4.247675e-09	-6.255654e-01	2.750558e+02
2.500000e-06	-1.881496e-07	3.486396e-09	-1.354862e+00	2.253580e+02
2.510000e-06	-2.893475e-07	2.720824e-09	-2.083587e+00	1.754585e+02
2.520000e-06	-3.904285e-07	1.952832e-09	-2.811469e+00	1.253600e+02
2.530000e-06	-4.913445e-07	1.181720e-09	-3.538164e+00	7.499312e+01
2.540000e-06	-5.920653e-07	4.068703e-10	-4.263453e+00	2.422849e+01
2.550000e-06	-6.925089e-07	-3.769800e-10	-4.986746e+00	-2.710084e+01
2.560000e-06	-7.926262e-07	-1.171591e-09	-5.707689e+00	-7.916865e+01
2.570000e-06	-8.924267e-07	-1.978524e-09	-6.426351e+00	-1.321211e+02
2.580000e-06	-9.919335e-07	-2.800697e-09	-7.142897e+00	-1.860426e+02
2.590000e-06	-1.091158e-06	-3.638366e-09	-7.857415e+00	-2.409279e+02
2.600000e-06	-1.190085e-06	-4.491096e-09	-8.569782e+00	-2.966641e+02
2.610000e-06	-1.288675e-06	-5.353489e-09	-9.279727e+00	-3.530254e+02
2.620000e-06	-1.386787e-06	-6.221192e-09	-9.986233e+00	-4.096828e+02
2.630000e-06	-1.484339e-06	-7.089521e-09	-1.068870e+01	-4.662264e+02
2.640000e-06	-1.581366e-06	-7.947587e-09	-1.138739e+01	-5.221981e+02
2.650000e-06	-1.677868e-06	-8.788061e-09	-1.208230e+01	-5.771303e+02
2.660000e-06	-1.773858e-06	-9.604531e-09	-1.277352e+01	-6.305838e+02
2.670000e-06	-1.869301e-06	-1.039384e-08	-1.346081e+01	-6.821819e+02
2.680000e-06	-1.964126e-06	-1.115125e-08	-1.414364e+01	-7.316342e+02
2.690000e-06	-2.058167e-06	-1.187183e-08	-1.482083e+01	-7.787492e+02
2.700000e-06	-2.151211e-06	-1.255668e-08	-1.549084e+01	-8.234342e+02
2.710000e-06	-2.243236e-06	-1.320598e-08	-1.615351e+01	-8.656843e+02
2.720000e-06	-2.334460e-06	-1.382074e-08	-1.681041e+01	-9.055634e+02
2.730000e-06	-2.424998e-06	-1.440197e-08	-1.746237e+01	-9.431811e+02
2.740000e-06	-2.514663e-06	-1.495063e-08	-1.810805e+01	-9.786702e+02
2.750000e-06	-2.603380e-06	-1.546552e-08	-1.874690e+01	-1.012168e+03
2.760000e-06	-2.691300e-06	-1.594811e-08	-1.938001e+01	-1.043804e+03
2.770000e-06	-2.778424e-06	-1.640369e-08	-2.000739e+01	-1.073692e+03
2.780000e-06	-2.864488e-06	-1.683398e-08	-2.062713e+01	-1.101932e+03
2.790000e-06	-2.949289e-06	-1.724120e-08	-2.123778e+01	-1.128615e+03
2.800000e-06	-3.033007e-06	-1.762875e-08	-2.184064e+01	-1.153826e+03
2.810000e-06	-3.115809e-06	-1.799624e-08	-2.243689e+01	-1.177652e+03
2.820000e-06	-3.197602e-06	-1.834124e-08	-2.302588e+01	-1.200183e+03
2.830000e-06	-3.278323e-06	-1.866700e-08	-2.360715e+01	-1.221513e+03
2.840000e-06	-3.357999e-06	-1.897777e-08	-2.418090e+01	-1.241735e+03
2.850000e-06	-3.436504e-06	-1.927414e-08	-2.474621e+01	-1.260938e+03
2.860000e-06	-3.513533e-06	-1.955526e-08	-2.530090e+01	-1.279198e+03
2.870000e-06	-3.589077e-06	-1.982165e-08	-2.584489e+01	-1.296582e+03
2.880000e-06	-3.663195e-06	-2.007443e-08	-2.637861e+01	-1.313140e+03
2.890000e-06	-3.735894e-06	-2.031537e-08	-2.690211e+01	-1.328911e+03
2.900000e-06	-3.807346e-06	-2.054642e-08	-2.741664e+01	-1.343924e+03
2.910000e-06	-3.877403e-06	-2.076818e-08	-2.792112e+01	-1.358209e+03
2.920000e-06	-3.945878e-06	-2.098138e-08	-2.841421e+01	-1.371795e+03
2.930000e-06	-4.012967e-06	-2.118303e-08	-2.889731e+01	-1.384720e+03
2.940000e-06	-4.078675e-06	-2.137295e-08	-2.937047e+01	-1.397023e+03
