# Temperatura_=_64.13
# Concentracion g/m^3_=_28200.0
# C_Vs_to_Am_M_A/Vsm_=_65563218390.804596
# pendiente_HvsI_1/m_=_3716.3
# ordenada_HvsI_A/m_=_1297.0
# frecuencia_Hz_=_301766.1144557498

Tiempo_(s)	Campo_(V.s)	Magnetizacion_(V.s)	Campo_(kA/m)	Magnetizacion_(A/m)
0.000000e+00	-5.283660e-06	-2.166047e-08	-3.829970e+01	-1.416418e+03
1.000000e-08	-5.281859e-06	-2.165255e-08	-3.828665e+01	-1.416090e+03
2.000000e-08	-5.278192e-06	-2.164312e-08	-3.826007e+01	-1.415641e+03
3.000000e-08	-5.272882e-06	-2.163062e-08	-3.822158e+01	-1.415055e+03
4.000000e-08	-5.265967e-06	-2.161668e-08	-3.817145e+01	-1.414306e+03
5.000000e-08	-5.257420e-06	-2.160043e-08	-3.810950e+01	-1.413363e+03
6.000000e-08	-5.246994e-06	-2.158154e-08	-3.803392e+01	-1.412197e+03
7.000000e-08	-5.234593e-06	-2.156034e-08	-3.794403e+01	-1.410793e+03
8.000000e-08	-5.220283e-06	-2.153761e-08	-3.784031e+01	-1.409149e+03
9.000000e-08	-5.203796e-06	-2.151584e-08	-3.772080e+01	-1.407288e+03
1.000000e-07	-5.185111e-06	-2.151120e-08	-3.758535e+01	-1.405242e+03
1.100000e-07	-5.164487e-06	-2.147124e-08	-3.743585e+01	-1.403057e+03
1.200000e-07	-5.142100e-06	-2.140123e-08	-3.727358e+01	-1.400773e+03
1.300000e-07	-5.118148e-06	-2.135078e-08	-3.709996e+01	-1.398424e+03
1.400000e-07	-5.092709e-06	-2.130235e-08	-3.691556e+01	-1.396021e+03
1.500000e-07	-5.065645e-06	-2.127721e-08	-3.671938e+01	-1.393556e+03
1.600000e-07	-5.036973e-06	-2.127451e-08	-3.651154e+01	-1.391000e+03
1.700000e-07	-5.006909e-06	-2.118529e-08	-3.629362e+01	-1.388310e+03
1.800000e-07	-4.975236e-06	-2.114842e-08	-3.606403e+01	-1.385438e+03
1.900000e-07	-4.941538e-06	-2.113850e-08	-3.581976e+01	-1.382338e+03
2.000000e-07	-4.906058e-06	-2.102866e-08	-3.556258e+01	-1.378978e+03
2.100000e-07	-4.869018e-06	-2.099859e-08	-3.529408e+01	-1.375339e+03
2.200000e-07	-4.830263e-06	-2.093572e-08	-3.501316e+01	-1.371421e+03
2.300000e-07	-4.789724e-06	-2.079950e-08	-3.471931e+01	-1.367235e+03
2.400000e-07	-4.747227e-06	-2.076077e-08	-3.441126e+01	-1.362799e+03
2.500000e-07	-4.702930e-06	-2.072506e-08	-3.409017e+01	-1.358130e+03
2.600000e-07	-4.656995e-06	-2.064886e-08	-3.375720e+01	-1.353238e+03
2.700000e-07	-4.609150e-06	-2.057402e-08	-3.341038e+01	-1.348123e+03
2.800000e-07	-4.559252e-06	-2.043927e-08	-3.304868e+01	-1.342774e+03
2.900000e-07	-4.507341e-06	-2.033216e-08	-3.267240e+01	-1.337172e+03
3.000000e-07	-4.453607e-06	-2.027657e-08	-3.228290e+01	-1.331295e+03
3.100000e-07	-4.398257e-06	-2.022359e-08	-3.188168e+01	-1.325125e+03
3.200000e-07	-4.341244e-06	-2.011715e-08	-3.146841e+01	-1.318650e+03
3.300000e-07	-4.282445e-06	-1.998258e-08	-3.104219e+01	-1.311868e+03
3.400000e-07	-4.222063e-06	-1.987209e-08	-3.060450e+01	-1.304787e+03
3.500000e-07	-4.160308e-06	-1.973155e-08	-3.015686e+01	-1.297420e+03
3.600000e-07	-4.097241e-06	-1.962332e-08	-2.969970e+01	-1.289782e+03
3.700000e-07	-4.032806e-06	-1.954848e-08	-2.923263e+01	-1.281883e+03
3.800000e-07	-3.966819e-06	-1.942843e-08	-2.875431e+01	-1.273725e+03
3.900000e-07	-3.899241e-06	-1.927008e-08	-2.826446e+01	-1.265301e+03
4.000000e-07	-3.830257e-06	-1.911073e-08	-2.776441e+01	-1.256595e+03
4.100000e-07	-3.760028e-06	-1.898259e-08	-2.725534e+01	-1.247582e+03
4.200000e-07	-3.688618e-06	-1.885621e-08	-2.673771e+01	-1.238235e+03
4.300000e-07	-3.615957e-06	-1.871384e-08	-2.621102e+01	-1.228527e+03
4.400000e-07	-3.541767e-06	-1.856022e-08	-2.567323e+01	-1.218437e+03
4.500000e-07	-3.465971e-06	-1.838253e-08	-2.512381e+01	-1.207947e+03
4.600000e-07	-3.388855e-06	-1.820577e-08	-2.456482e+01	-1.197049e+03
4.700000e-07	-3.310508e-06	-1.804098e-08	-2.399691e+01	-1.185737e+03
4.800000e-07	-3.230782e-06	-1.787536e-08	-2.341899e+01	-1.174007e+03
4.900000e-07	-3.149775e-06	-1.769016e-08	-2.283180e+01	-1.161853e+03
5.000000e-07	-3.067679e-06	-1.748798e-08	-2.223671e+01	-1.149266e+03
5.100000e-07	-2.984571e-06	-1.728791e-08	-2.163428e+01	-1.136230e+03
5.200000e-07	-2.900593e-06	-1.707647e-08	-2.102555e+01	-1.122724e+03
5.300000e-07	-2.815781e-06	-1.685784e-08	-2.041077e+01	-1.108722e+03
5.400000e-07	-2.730007e-06	-1.663776e-08	-1.978902e+01	-1.094191e+03
5.500000e-07	-2.643244e-06	-1.640719e-08	-1.916010e+01	-1.079099e+03
5.600000e-07	-2.555604e-06	-1.616246e-08	-1.852482e+01	-1.063410e+03
5.700000e-07	-2.467127e-06	-1.591109e-08	-1.788348e+01	-1.047086e+03
5.800000e-07	-2.377554e-06	-1.565787e-08	-1.723420e+01	-1.030091e+03
5.900000e-07	-2.286798e-06	-1.538816e-08	-1.657633e+01	-1.012386e+03
6.000000e-07	-2.195195e-06	-1.510201e-08	-1.591233e+01	-9.939316e+02
6.100000e-07	-2.102949e-06	-1.480279e-08	-1.524367e+01	-9.746864e+02
6.200000e-07	-2.009958e-06	-1.449703e-08	-1.456960e+01	-9.546079e+02
6.300000e-07	-1.916191e-06	-1.418172e-08	-1.388991e+01	-9.336516e+02
6.400000e-07	-1.821722e-06	-1.384931e-08	-1.320513e+01	-9.117712e+02
6.500000e-07	-1.726651e-06	-1.349751e-08	-1.251599e+01	-8.889171e+02
6.600000e-07	-1.631058e-06	-1.312504e-08	-1.182306e+01	-8.650362e+02
6.700000e-07	-1.535007e-06	-1.273860e-08	-1.112681e+01	-8.400701e+02
6.800000e-07	-1.438439e-06	-1.234063e-08	-1.042682e+01	-8.139547e+02
6.900000e-07	-1.341195e-06	-1.192970e-08	-9.721933e+00	-7.866205e+02
7.000000e-07	-1.243235e-06	-1.149816e-08	-9.011843e+00	-7.579944e+02
7.100000e-07	-1.144597e-06	-1.104019e-08	-8.296845e+00	-7.280035e+02
7.200000e-07	-1.045488e-06	-1.055319e-08	-7.578434e+00	-6.965819e+02
7.300000e-07	-9.461006e-07	-1.004219e-08	-6.858007e+00	-6.636781e+02
7.400000e-07	-8.465125e-07	-9.515575e-09	-6.136121e+00	-6.292642e+02
7.500000e-07	-7.467624e-07	-8.972322e-09	-5.413062e+00	-5.933441e+02
7.600000e-07	-6.468713e-07	-8.406856e-09	-4.688981e+00	-5.559603e+02
7.700000e-07	-5.468269e-07	-7.816172e-09	-3.963788e+00	-5.171975e+02
7.800000e-07	-4.466164e-07	-7.204876e-09	-3.237392e+00	-4.771811e+02
7.900000e-07	-3.462854e-07	-6.578057e-09	-2.510122e+00	-4.360723e+02
8.000000e-07	-2.458538e-07	-5.938550e-09	-1.782122e+00	-3.940572e+02
8.100000e-07	-1.452888e-07	-5.289162e-09	-1.053156e+00	-3.513334e+02
8.200000e-07	-4.465119e-08	-4.632998e-09	-3.236634e-01	-3.080929e+02
8.300000e-07	5.599484e-08	-3.971127e-09	4.058902e-01	-2.645059e+02
8.400000e-07	1.567074e-07	-3.302875e-09	1.135926e+00	-2.207046e+02
8.500000e-07	2.574296e-07	-2.633703e-09	1.866032e+00	-1.767712e+02
8.600000e-07	3.580322e-07	-1.967270e-09	2.595270e+00	-1.327309e+02
8.700000e-07	4.584883e-07	-1.300166e-09	3.323448e+00	-8.855099e+01
8.800000e-07	5.587924e-07	-6.287581e-10	4.050523e+00	-4.414669e+01
8.900000e-07	6.589802e-07	5.022034e-11	4.776754e+00	6.056131e-01
9.000000e-07	7.590304e-07	7.408361e-10	5.501990e+00	4.584966e+01
9.100000e-07	8.589128e-07	1.441229e-09	6.226008e+00	9.172622e+01
9.200000e-07	9.586412e-07	2.150533e-09	6.948910e+00	1.383481e+02
9.300000e-07	1.058130e-06	2.870345e-09	7.670075e+00	1.857763e+02
9.400000e-07	1.157256e-06	3.601184e-09	8.388607e+00	2.339999e+02
9.500000e-07	1.255863e-06	4.343934e-09	9.103382e+00	2.829237e+02
9.600000e-07	1.353802e-06	5.095973e-09	9.813315e+00	3.323635e+02
9.700000e-07	1.450997e-06	5.854096e-09	1.051785e+01	3.820533e+02
9.800000e-07	1.547505e-06	6.610906e-09	1.121741e+01	4.316607e+02
9.900000e-07	1.643382e-06	7.359987e-09	1.191240e+01	4.808117e+02
1.000000e-06	1.738608e-06	8.095613e-09	1.260266e+01	5.291197e+02
1.010000e-06	1.833231e-06	8.810800e-09	1.328856e+01	5.762167e+02
1.020000e-06	1.927290e-06	9.501393e-09	1.397036e+01	6.217805e+02
1.030000e-06	2.020691e-06	1.016337e-08	1.464740e+01	6.655566e+02
1.040000e-06	2.113355e-06	1.079560e-08	1.531909e+01	7.073703e+02
1.050000e-06	2.205383e-06	1.139468e-08	1.598618e+01	7.471287e+02
1.060000e-06	2.296809e-06	1.196391e-08	1.664889e+01	7.848137e+02
1.070000e-06	2.387371e-06	1.250455e-08	1.730535e+01	8.204672e+02
1.080000e-06	2.476816e-06	1.301743e-08	1.795372e+01	8.541724e+02
1.090000e-06	2.565193e-06	1.350383e-08	1.859433e+01	8.860350e+02
1.100000e-06	2.652693e-06	1.396445e-08	1.922859e+01	9.161661e+02
1.110000e-06	2.739393e-06	1.439761e-08	1.985706e+01	9.446713e+02
1.120000e-06	2.825175e-06	1.480460e-08	2.047887e+01	9.716445e+02
1.130000e-06	2.909980e-06	1.518797e-08	2.109360e+01	9.971676e+02
1.140000e-06	2.993941e-06	1.555004e-08	2.170220e+01	1.021314e+03
1.150000e-06	3.077019e-06	1.589718e-08	2.230441e+01	1.044155e+03
1.160000e-06	3.158982e-06	1.622921e-08	2.289853e+01	1.065759e+03
1.170000e-06	3.239745e-06	1.654428e-08	2.348396e+01	1.086203e+03
1.180000e-06	3.319351e-06	1.683968e-08	2.406101e+01	1.105564e+03
1.190000e-06	3.397759e-06	1.711723e-08	2.462936e+01	1.123919e+03
1.200000e-06	3.474954e-06	1.737825e-08	2.518892e+01	1.141342e+03
1.210000e-06	3.550956e-06	1.762670e-08	2.573984e+01	1.157900e+03
1.220000e-06	3.625567e-06	1.786414e-08	2.628067e+01	1.173647e+03
1.230000e-06	3.698591e-06	1.809090e-08	2.681000e+01	1.188630e+03
1.240000e-06	3.770161e-06	1.830684e-08	2.732880e+01	1.202883e+03
1.250000e-06	3.840411e-06	1.851158e-08	2.783802e+01	1.216440e+03
1.260000e-06	3.909293e-06	1.870550e-08	2.833732e+01	1.229330e+03
1.270000e-06	3.976862e-06	1.888944e-08	2.882711e+01	1.241587e+03
1.280000e-06	4.043010e-06	1.906414e-08	2.930659e+01	1.253247e+03
1.290000e-06	4.107537e-06	1.923180e-08	2.977433e+01	1.264351e+03
1.300000e-06	4.170540e-06	1.939407e-08	3.023103e+01	1.274934e+03
1.310000e-06	4.232145e-06	1.954919e-08	3.067758e+01	1.285029e+03
1.320000e-06	4.292429e-06	1.969766e-08	3.111456e+01	1.294658e+03
1.330000e-06	4.351369e-06	1.983874e-08	3.154180e+01	1.303832e+03
1.340000e-06	4.408577e-06	1.997299e-08	3.195649e+01	1.312553e+03
1.350000e-06	4.463972e-06	2.009920e-08	3.235803e+01	1.320815e+03
1.360000e-06	4.517790e-06	2.021582e-08	3.274813e+01	1.328613e+03
1.370000e-06	4.569912e-06	2.032453e-08	3.312595e+01	1.335947e+03
1.380000e-06	4.620009e-06	2.042585e-08	3.348909e+01	1.342829e+03
1.390000e-06	4.668150e-06	2.052391e-08	3.383805e+01	1.349286e+03
1.400000e-06	4.714686e-06	2.061778e-08	3.417538e+01	1.355354e+03
1.410000e-06	4.759690e-06	2.070653e-08	3.450160e+01	1.361081e+03
1.420000e-06	4.803114e-06	2.079143e-08	3.481637e+01	1.366511e+03
1.430000e-06	4.844737e-06	2.087074e-08	3.511808e+01	1.371685e+03
1.440000e-06	4.884529e-06	2.094522e-08	3.540652e+01	1.376629e+03
1.450000e-06	4.922667e-06	2.101582e-08	3.568297e+01	1.381351e+03
1.460000e-06	4.959238e-06	2.108376e-08	3.594807e+01	1.385844e+03
1.470000e-06	4.994152e-06	2.114823e-08	3.620115e+01	1.390087e+03
1.480000e-06	5.027199e-06	2.120855e-08	3.644069e+01	1.394056e+03
1.490000e-06	5.058389e-06	2.126370e-08	3.666678e+01	1.397727e+03
1.500000e-06	5.087883e-06	2.131480e-08	3.688058e+01	1.401087e+03
1.510000e-06	5.115736e-06	2.136204e-08	3.708247e+01	1.404134e+03
1.520000e-06	5.141705e-06	2.140337e-08	3.727072e+01	1.406881e+03
1.530000e-06	5.165636e-06	2.143948e-08	3.744418e+01	1.409350e+03
1.540000e-06	5.187746e-06	2.147219e-08	3.760445e+01	1.411566e+03
1.550000e-06	5.208173e-06	2.150226e-08	3.775252e+01	1.413553e+03
1.560000e-06	5.226851e-06	2.152852e-08	3.788791e+01	1.415326e+03
1.570000e-06	5.243580e-06	2.155150e-08	3.800918e+01	1.416889e+03
1.580000e-06	5.258265e-06	2.157150e-08	3.811562e+01	1.418240e+03
1.590000e-06	5.270994e-06	2.158819e-08	3.820789e+01	1.419368e+03
1.600000e-06	5.281660e-06	2.160256e-08	3.828521e+01	1.420265e+03
1.610000e-06	5.290182e-06	2.161307e-08	3.834698e+01	1.420929e+03
1.620000e-06	5.296779e-06	2.161986e-08	3.839480e+01	1.421366e+03
1.630000e-06	5.301603e-06	2.162554e-08	3.842977e+01	1.421594e+03
1.640000e-06	5.304652e-06	2.162903e-08	3.845187e+01	1.421640e+03
1.650000e-06	5.305774e-06	2.162851e-08	3.846000e+01	1.421531e+03
1.660000e-06	5.304965e-06	2.162593e-08	3.845414e+01	1.421290e+03
1.670000e-06	5.302496e-06	2.162047e-08	3.843624e+01	1.420927e+03
1.680000e-06	5.298435e-06	2.161351e-08	3.840680e+01	1.420440e+03
1.690000e-06	5.292554e-06	2.160631e-08	3.836417e+01	1.419810e+03
1.700000e-06	5.284803e-06	2.159487e-08	3.830799e+01	1.419008e+03
1.710000e-06	5.275403e-06	2.157889e-08	3.823985e+01	1.418003e+03
1.720000e-06	5.264417e-06	2.156142e-08	3.816022e+01	1.416769e+03
1.730000e-06	5.251665e-06	2.154009e-08	3.806778e+01	1.415294e+03
1.740000e-06	5.236909e-06	2.151917e-08	3.796082e+01	1.413585e+03
1.750000e-06	5.220026e-06	2.145774e-08	3.783844e+01	1.411666e+03
1.760000e-06	5.200741e-06	2.142801e-08	3.769865e+01	1.409575e+03
1.770000e-06	5.178906e-06	2.143271e-08	3.754037e+01	1.407357e+03
1.780000e-06	5.155157e-06	2.140310e-08	3.736823e+01	1.405051e+03
1.790000e-06	5.130459e-06	2.138581e-08	3.718920e+01	1.402685e+03
1.800000e-06	5.104895e-06	2.130904e-08	3.700389e+01	1.400265e+03
1.810000e-06	5.077597e-06	2.124501e-08	3.680601e+01	1.397777e+03
1.820000e-06	5.048285e-06	2.127210e-08	3.659354e+01	1.395187e+03
1.830000e-06	5.017264e-06	2.119691e-08	3.636868e+01	1.392450e+03
1.840000e-06	4.984374e-06	2.115885e-08	3.613027e+01	1.389516e+03
1.850000e-06	4.949712e-06	2.118569e-08	3.587901e+01	1.386344e+03
1.860000e-06	4.913490e-06	2.105160e-08	3.561646e+01	1.382904e+03
1.870000e-06	4.875388e-06	2.101517e-08	3.534026e+01	1.379184e+03
1.880000e-06	4.835454e-06	2.102007e-08	3.505079e+01	1.375187e+03
1.890000e-06	4.793880e-06	2.088981e-08	3.474943e+01	1.370926e+03
1.900000e-06	4.750580e-06	2.084287e-08	3.443556e+01	1.366422e+03
1.910000e-06	4.705662e-06	2.073819e-08	3.410997e+01	1.361687e+03
1.920000e-06	4.658936e-06	2.067766e-08	3.377127e+01	1.356732e+03
1.930000e-06	4.610396e-06	2.071459e-08	3.341941e+01	1.351550e+03
1.940000e-06	4.560184e-06	2.056697e-08	3.305544e+01	1.346130e+03
1.950000e-06	4.508091e-06	2.045215e-08	3.267783e+01	1.340451e+03
1.960000e-06	4.454103e-06	2.035793e-08	3.228649e+01	1.334491e+03
1.970000e-06	4.398279e-06	2.025893e-08	3.188184e+01	1.328233e+03
1.980000e-06	4.340738e-06	2.017812e-08	3.146474e+01	1.321670e+03
1.990000e-06	4.281759e-06	2.005334e-08	3.103722e+01	1.314801e+03
2.000000e-06	4.221487e-06	2.002458e-08	3.060033e+01	1.307636e+03
2.010000e-06	4.159726e-06	1.988165e-08	3.015263e+01	1.300189e+03
2.020000e-06	4.096216e-06	1.969196e-08	2.969227e+01	1.292475e+03
2.030000e-06	4.031100e-06	1.960233e-08	2.922026e+01	1.284501e+03
2.040000e-06	3.964638e-06	1.948703e-08	2.873850e+01	1.276268e+03
2.050000e-06	3.896858e-06	1.940038e-08	2.824718e+01	1.267765e+03
2.060000e-06	3.827686e-06	1.924352e-08	2.774578e+01	1.258973e+03
2.070000e-06	3.756971e-06	1.909192e-08	2.723318e+01	1.249866e+03
2.080000e-06	3.684836e-06	1.895242e-08	2.671030e+01	1.240418e+03
2.090000e-06	3.611437e-06	1.878035e-08	2.617825e+01	1.230602e+03
2.100000e-06	3.536723e-06	1.865830e-08	2.563667e+01	1.220398e+03
2.110000e-06	3.460695e-06	1.849380e-08	2.508557e+01	1.209792e+03
2.120000e-06	3.383220e-06	1.832878e-08	2.452397e+01	1.198775e+03
2.130000e-06	3.304315e-06	1.814536e-08	2.395201e+01	1.187343e+03
2.140000e-06	3.224222e-06	1.795801e-08	2.337144e+01	1.175491e+03
2.150000e-06	3.143066e-06	1.777851e-08	2.278317e+01	1.163214e+03
2.160000e-06	3.060829e-06	1.757994e-08	2.218706e+01	1.150500e+03
2.170000e-06	2.977535e-06	1.740361e-08	2.158328e+01	1.137331e+03
2.180000e-06	2.893320e-06	1.719433e-08	2.097283e+01	1.123686e+03
2.190000e-06	2.808012e-06	1.697161e-08	2.035446e+01	1.109535e+03
2.200000e-06	2.721348e-06	1.674707e-08	1.972626e+01	1.094847e+03
2.210000e-06	2.633577e-06	1.651996e-08	1.909003e+01	1.079587e+03
2.220000e-06	2.544997e-06	1.628006e-08	1.844794e+01	1.063719e+03
2.230000e-06	2.455559e-06	1.601902e-08	1.779963e+01	1.047207e+03
2.240000e-06	2.365286e-06	1.576181e-08	1.714527e+01	1.030012e+03
2.250000e-06	2.274291e-06	1.549459e-08	1.648567e+01	1.012096e+03
2.260000e-06	2.182576e-06	1.521746e-08	1.582085e+01	9.934188e+02
2.270000e-06	2.090222e-06	1.491709e-08	1.515141e+01	9.739391e+02
2.280000e-06	1.997092e-06	1.460503e-08	1.447634e+01	9.536136e+02
2.290000e-06	1.902935e-06	1.428270e-08	1.379382e+01	9.323973e+02
2.300000e-06	1.807793e-06	1.394624e-08	1.310416e+01	9.102430e+02
2.310000e-06	1.712016e-06	1.359663e-08	1.240990e+01	8.871004e+02
2.320000e-06	1.615827e-06	1.322808e-08	1.171266e+01	8.629147e+02
2.330000e-06	1.519208e-06	1.284323e-08	1.101230e+01	8.376262e+02
2.340000e-06	1.422083e-06	1.243568e-08	1.030826e+01	8.111691e+02
2.350000e-06	1.324461e-06	1.201097e-08	9.600633e+00	7.834725e+02
2.360000e-06	1.226459e-06	1.157364e-08	8.890242e+00	7.544629e+02
2.370000e-06	1.128127e-06	1.112287e-08	8.177466e+00	7.240687e+02
2.380000e-06	1.029495e-06	1.064447e-08	7.462508e+00	6.922271e+02
2.390000e-06	9.305595e-07	1.013208e-08	6.745354e+00	6.588926e+02
2.400000e-06	8.313096e-07	9.593263e-09	6.025920e+00	6.240455e+02
2.410000e-06	7.317488e-07	9.034413e-09	5.304233e+00	5.877002e+02
2.420000e-06	6.319399e-07	8.456863e-09	4.580747e+00	5.499112e+02
2.430000e-06	5.319777e-07	7.860366e-09	3.856151e+00	5.107748e+02
2.440000e-06	4.319508e-07	7.249254e-09	3.131085e+00	4.704277e+02
2.450000e-06	3.318559e-07	6.620033e-09	2.405527e+00	4.290393e+02
2.460000e-06	2.316773e-07	5.971362e-09	1.679361e+00	3.868007e+02
2.470000e-06	1.314238e-07	5.310349e-09	9.526526e-01	3.439094e+02
2.480000e-06	3.110274e-08	4.647676e-09	2.254546e-01	3.005532e+02
2.490000e-06	-6.926478e-08	3.983678e-09	-5.020802e-01	2.568926e+02
2.500000e-06	-1.696250e-07	3.312921e-09	-1.229562e+00	2.130467e+02
2.510000e-06	-2.699289e-07	2.637333e-09	-1.956636e+00	1.690820e+02
2.520000e-06	-3.701626e-07	1.959417e-09	-2.683200e+00	1.250068e+02
2.530000e-06	-4.703487e-07	1.279702e-09	-3.409420e+00	8.077252e+01
2.540000e-06	-5.704710e-07	5.974563e-10	-4.135178e+00	3.628184e+01
2.550000e-06	-6.704386e-07	-9.080060e-11	-4.859813e+00	-8.596797e+00
2.560000e-06	-7.701771e-07	-7.869049e-10	-5.582788e+00	-5.400879e+01
2.570000e-06	-8.696175e-07	-1.490455e-09	-6.303603e+00	-1.000895e+02
2.580000e-06	-9.687630e-07	-2.204262e-09	-7.022280e+00	-1.469391e+02
2.590000e-06	-1.067603e-06	-2.931170e-09	-7.738742e+00	-1.946001e+02
2.600000e-06	-1.166038e-06	-3.672342e-09	-8.452269e+00	-2.430382e+02
2.610000e-06	-1.264064e-06	-4.423870e-09	-9.162827e+00	-2.921328e+02
2.620000e-06	-1.361636e-06	-5.181665e-09	-9.870102e+00	-3.416753e+02
2.630000e-06	-1.458680e-06	-5.944537e-09	-1.057355e+01	-3.913787e+02
2.640000e-06	-1.555211e-06	-6.704441e-09	-1.127327e+01	-4.408958e+02
2.650000e-06	-1.651320e-06	-7.452857e-09	-1.196993e+01	-4.898460e+02
2.660000e-06	-1.747051e-06	-8.185747e-09	-1.266386e+01	-5.378448e+02
2.670000e-06	-1.842132e-06	-8.900375e-09	-1.335307e+01	-5.845348e+02
2.680000e-06	-1.936236e-06	-9.591403e-09	-1.403521e+01	-6.296113e+02
2.690000e-06	-2.029329e-06	-1.025194e-08	-1.471001e+01	-6.728418e+02
2.700000e-06	-2.121618e-06	-1.088439e-08	-1.537899e+01	-7.140751e+02
2.710000e-06	-2.213255e-06	-1.148950e-08	-1.604324e+01	-7.532409e+02
2.720000e-06	-2.304192e-06	-1.206336e-08	-1.670242e+01	-7.903398e+02
2.730000e-06	-2.394266e-06	-1.260384e-08	-1.735533e+01	-8.254277e+02
2.740000e-06	-2.483378e-06	-1.311223e-08	-1.800128e+01	-8.585960e+02
2.750000e-06	-2.571716e-06	-1.359179e-08	-1.864162e+01	-8.899534e+02
2.760000e-06	-2.659389e-06	-1.404540e-08	-1.927714e+01	-9.196105e+02
2.770000e-06	-2.746128e-06	-1.447313e-08	-1.990588e+01	-9.476698e+02
2.780000e-06	-2.831681e-06	-1.487758e-08	-2.052603e+01	-9.742216e+02
2.790000e-06	-2.916114e-06	-1.526322e-08	-2.113806e+01	-9.993450e+02
2.800000e-06	-2.999586e-06	-1.562978e-08	-2.174312e+01	-1.023112e+03
2.810000e-06	-3.082093e-06	-1.597395e-08	-2.234119e+01	-1.045593e+03
2.820000e-06	-3.163548e-06	-1.629730e-08	-2.293163e+01	-1.066859e+03
2.830000e-06	-3.243991e-06	-1.660569e-08	-2.351474e+01	-1.086986e+03
2.840000e-06	-3.323388e-06	-1.690060e-08	-2.409027e+01	-1.106053e+03
2.850000e-06	-3.401469e-06	-1.718031e-08	-2.465626e+01	-1.124135e+03
2.860000e-06	-3.478067e-06	-1.744408e-08	-2.521149e+01	-1.141306e+03
2.870000e-06	-3.553199e-06	-1.769327e-08	-2.575610e+01	-1.157627e+03
2.880000e-06	-3.626956e-06	-1.792882e-08	-2.629074e+01	-1.173153e+03
2.890000e-06	-3.699448e-06	-1.815461e-08	-2.681622e+01	-1.187924e+03
2.900000e-06	-3.770655e-06	-1.837302e-08	-2.733237e+01	-1.201976e+03
2.910000e-06	-3.840417e-06	-1.858199e-08	-2.783806e+01	-1.215340e+03
2.920000e-06	-3.908686e-06	-1.878052e-08	-2.833292e+01	-1.228046e+03
2.930000e-06	-3.975605e-06	-1.896865e-08	-2.881800e+01	-1.240130e+03
2.940000e-06	-4.041152e-06	-1.914493e-08	-2.929313e+01	-1.251629e+03
