# Temperatura_=_52.65
# Concentracion g/m^3_=_28200.0
# C_Vs_to_Am_M_A/Vsm_=_65563218390.804596
# pendiente_HvsI_1/m_=_3716.3
# ordenada_HvsI_A/m_=_1297.0
# frecuencia_Hz_=_301767.14200861077

Tiempo_(s)	Campo_(V.s)	Magnetizacion_(V.s)	Campo_(kA/m)	Magnetizacion_(A/m)
0.000000e+00	-5.306295e-06	-2.058665e-08	-3.829771e+01	-1.346486e+03
1.000000e-08	-5.304308e-06	-2.058246e-08	-3.828337e+01	-1.346164e+03
2.000000e-08	-5.300492e-06	-2.057120e-08	-3.825583e+01	-1.345707e+03
3.000000e-08	-5.295095e-06	-2.055731e-08	-3.821688e+01	-1.345110e+03
4.000000e-08	-5.288132e-06	-2.054444e-08	-3.816663e+01	-1.344358e+03
5.000000e-08	-5.279525e-06	-2.052809e-08	-3.810450e+01	-1.343431e+03
6.000000e-08	-5.268930e-06	-2.050832e-08	-3.802803e+01	-1.342310e+03
7.000000e-08	-5.256341e-06	-2.048289e-08	-3.793718e+01	-1.340982e+03
8.000000e-08	-5.241833e-06	-2.045054e-08	-3.783247e+01	-1.339445e+03
9.000000e-08	-5.225098e-06	-2.046438e-08	-3.771168e+01	-1.337710e+03
1.000000e-07	-5.206237e-06	-2.048060e-08	-3.757555e+01	-1.335799e+03
1.100000e-07	-5.185541e-06	-2.040944e-08	-3.742618e+01	-1.333742e+03
1.200000e-07	-5.163031e-06	-2.034917e-08	-3.726372e+01	-1.331573e+03
1.300000e-07	-5.138939e-06	-2.028686e-08	-3.708984e+01	-1.329317e+03
1.400000e-07	-5.113314e-06	-2.018268e-08	-3.690489e+01	-1.326991e+03
1.500000e-07	-5.086021e-06	-2.026592e-08	-3.670791e+01	-1.324594e+03
1.600000e-07	-5.057163e-06	-2.024590e-08	-3.649963e+01	-1.322109e+03
1.700000e-07	-5.026885e-06	-2.007686e-08	-3.628110e+01	-1.319505e+03
1.800000e-07	-4.994926e-06	-2.015698e-08	-3.605044e+01	-1.316744e+03
1.900000e-07	-4.960848e-06	-2.007918e-08	-3.580448e+01	-1.313784e+03
2.000000e-07	-4.925086e-06	-1.993879e-08	-3.554637e+01	-1.310591e+03
2.100000e-07	-4.887832e-06	-2.003020e-08	-3.527749e+01	-1.307138e+03
2.200000e-07	-4.848805e-06	-1.992197e-08	-3.499582e+01	-1.303415e+03
2.300000e-07	-4.808012e-06	-1.978134e-08	-3.470140e+01	-1.299422e+03
2.400000e-07	-4.765254e-06	-1.976708e-08	-3.439280e+01	-1.295172e+03
2.500000e-07	-4.720593e-06	-1.966937e-08	-3.407046e+01	-1.290679e+03
2.600000e-07	-4.674163e-06	-1.963494e-08	-3.373535e+01	-1.285961e+03
2.700000e-07	-4.625880e-06	-1.957108e-08	-3.338688e+01	-1.281027e+03
2.800000e-07	-4.575580e-06	-1.943295e-08	-3.302384e+01	-1.275881e+03
2.900000e-07	-4.523236e-06	-1.933937e-08	-3.264605e+01	-1.270520e+03
3.000000e-07	-4.469146e-06	-1.927383e-08	-3.225567e+01	-1.264932e+03
3.100000e-07	-4.413531e-06	-1.922015e-08	-3.185427e+01	-1.259102e+03
3.200000e-07	-4.356209e-06	-1.911434e-08	-3.144056e+01	-1.253018e+03
3.300000e-07	-4.297106e-06	-1.900989e-08	-3.101398e+01	-1.246668e+03
3.400000e-07	-4.236507e-06	-1.890631e-08	-3.057661e+01	-1.240046e+03
3.500000e-07	-4.174520e-06	-1.876612e-08	-3.012923e+01	-1.233152e+03
3.600000e-07	-4.111165e-06	-1.866897e-08	-2.967197e+01	-1.225987e+03
3.700000e-07	-4.046337e-06	-1.858535e-08	-2.920408e+01	-1.218554e+03
3.800000e-07	-3.979829e-06	-1.848511e-08	-2.872406e+01	-1.210856e+03
3.900000e-07	-3.911746e-06	-1.834297e-08	-2.823268e+01	-1.202889e+03
4.000000e-07	-3.842335e-06	-1.818346e-08	-2.773171e+01	-1.194645e+03
4.100000e-07	-3.771717e-06	-1.806954e-08	-2.722204e+01	-1.186113e+03
4.200000e-07	-3.699934e-06	-1.794239e-08	-2.670395e+01	-1.177274e+03
4.300000e-07	-3.626822e-06	-1.780739e-08	-2.617627e+01	-1.168111e+03
4.400000e-07	-3.552141e-06	-1.765881e-08	-2.563726e+01	-1.158604e+03
4.500000e-07	-3.475934e-06	-1.749312e-08	-2.508724e+01	-1.148738e+03
4.600000e-07	-3.398436e-06	-1.732714e-08	-2.452791e+01	-1.138497e+03
4.700000e-07	-3.319603e-06	-1.717006e-08	-2.395894e+01	-1.127869e+03
4.800000e-07	-3.239369e-06	-1.702215e-08	-2.337986e+01	-1.116843e+03
4.900000e-07	-3.157883e-06	-1.684409e-08	-2.279174e+01	-1.105407e+03
5.000000e-07	-3.075297e-06	-1.665314e-08	-2.219568e+01	-1.093548e+03
5.100000e-07	-2.991798e-06	-1.646121e-08	-2.159303e+01	-1.081248e+03
5.200000e-07	-2.907466e-06	-1.626130e-08	-2.098438e+01	-1.068486e+03
5.300000e-07	-2.822229e-06	-1.605682e-08	-2.036919e+01	-1.055237e+03
5.400000e-07	-2.736034e-06	-1.585041e-08	-1.974709e+01	-1.041473e+03
5.500000e-07	-2.648933e-06	-1.563282e-08	-1.911844e+01	-1.027160e+03
5.600000e-07	-2.560963e-06	-1.539625e-08	-1.848352e+01	-1.012265e+03
5.700000e-07	-2.471946e-06	-1.515526e-08	-1.784105e+01	-9.967533e+02
5.800000e-07	-2.381722e-06	-1.491416e-08	-1.718986e+01	-9.805874e+02
5.900000e-07	-2.290488e-06	-1.466146e-08	-1.653139e+01	-9.637299e+02
6.000000e-07	-2.198521e-06	-1.439147e-08	-1.586763e+01	-9.461427e+02
6.100000e-07	-2.105873e-06	-1.410540e-08	-1.519895e+01	-9.277863e+02
6.200000e-07	-2.012436e-06	-1.380946e-08	-1.452458e+01	-9.086201e+02
6.300000e-07	-1.918232e-06	-1.350442e-08	-1.384467e+01	-8.886019e+02
6.400000e-07	-1.823375e-06	-1.318585e-08	-1.316005e+01	-8.676875e+02
6.500000e-07	-1.727943e-06	-1.285221e-08	-1.247128e+01	-8.458299e+02
6.600000e-07	-1.631950e-06	-1.250051e-08	-1.177845e+01	-8.229788e+02
6.700000e-07	-1.535318e-06	-1.213194e-08	-1.108102e+01	-7.990794e+02
6.800000e-07	-1.438019e-06	-1.174910e-08	-1.037878e+01	-7.740721e+02
6.900000e-07	-1.340060e-06	-1.135143e-08	-9.671766e+00	-7.478931e+02
7.000000e-07	-1.241555e-06	-1.093620e-08	-8.960815e+00	-7.204762e+02
7.100000e-07	-1.142567e-06	-1.049939e-08	-8.246377e+00	-6.917560e+02
7.200000e-07	-1.043141e-06	-1.003687e-08	-7.528774e+00	-6.616736e+02
7.300000e-07	-9.434370e-07	-9.549340e-09	-6.809173e+00	-6.301840e+02
7.400000e-07	-8.435200e-07	-9.045204e-09	-6.088031e+00	-5.972638e+02
7.500000e-07	-7.434071e-07	-8.526554e-09	-5.365475e+00	-5.629195e+02
7.600000e-07	-6.431192e-07	-7.986468e-09	-4.641656e+00	-5.271943e+02
7.700000e-07	-5.426314e-07	-7.422730e-09	-3.916394e+00	-4.901719e+02
7.800000e-07	-4.419347e-07	-6.841387e-09	-3.189624e+00	-4.519761e+02
7.900000e-07	-3.411274e-07	-6.245513e-09	-2.462057e+00	-4.127665e+02
8.000000e-07	-2.402357e-07	-5.634835e-09	-1.733879e+00	-3.727278e+02
8.100000e-07	-1.391491e-07	-5.014886e-09	-1.004296e+00	-3.320567e+02
8.200000e-07	-3.792127e-08	-4.389181e-09	-2.736934e-01	-2.909444e+02
8.300000e-07	6.328624e-08	-3.759499e-09	4.567628e-01	-2.495589e+02
8.400000e-07	1.644620e-07	-3.127371e-09	1.186990e+00	-2.080288e+02
8.500000e-07	2.656645e-07	-2.494768e-09	1.917410e+00	-1.664302e+02
8.600000e-07	3.668185e-07	-1.863494e-09	2.647480e+00	-1.247798e+02
8.700000e-07	4.677937e-07	-1.230601e-09	3.376259e+00	-8.303470e+01
8.800000e-07	5.685742e-07	-5.925113e-10	4.103634e+00	-4.109983e+01
8.900000e-07	6.691853e-07	5.288616e-11	4.829786e+00	1.157277e+00
9.000000e-07	7.696457e-07	7.070262e-10	5.554850e+00	4.388634e+01
9.100000e-07	8.698796e-07	1.369679e-09	6.278279e+00	8.723040e+01
9.200000e-07	9.698491e-07	2.039492e-09	6.999799e+00	1.313012e+02
9.300000e-07	1.069583e-06	2.719333e-09	7.719618e+00	1.761569e+02
9.400000e-07	1.169003e-06	3.412153e-09	8.437175e+00	2.217843e+02
9.500000e-07	1.268044e-06	4.115968e-09	9.151995e+00	2.680896e+02
9.600000e-07	1.366550e-06	4.826784e-09	9.862956e+00	3.148963e+02
9.700000e-07	1.464310e-06	5.542654e-09	1.056853e+01	3.619535e+02
9.800000e-07	1.561252e-06	6.258769e-09	1.126819e+01	4.089519e+02
9.900000e-07	1.657466e-06	6.969963e-09	1.196261e+01	4.555461e+02
1.000000e-06	1.753062e-06	7.668586e-09	1.265257e+01	5.013805e+02
1.010000e-06	1.848067e-06	8.347825e-09	1.333826e+01	5.461158e+02
1.020000e-06	1.942483e-06	9.005709e-09	1.401970e+01	5.894522e+02
1.030000e-06	2.036247e-06	9.637260e-09	1.469643e+01	6.311480e+02
1.040000e-06	2.129259e-06	1.023830e-08	1.536774e+01	6.710297e+02
1.050000e-06	2.221547e-06	1.081000e-08	1.603381e+01	7.089956e+02
1.060000e-06	2.313236e-06	1.135427e-08	1.669558e+01	7.450104e+02
1.070000e-06	2.404285e-06	1.187102e-08	1.735272e+01	7.790953e+02
1.080000e-06	2.494315e-06	1.236030e-08	1.800250e+01	8.113137e+02
1.090000e-06	2.583090e-06	1.282367e-08	1.864322e+01	8.417555e+02
1.100000e-06	2.670884e-06	1.326342e-08	1.927686e+01	8.705234e+02
1.110000e-06	2.757846e-06	1.367688e-08	1.990451e+01	8.977216e+02
1.120000e-06	2.843864e-06	1.406504e-08	2.052534e+01	9.234483e+02
1.130000e-06	2.928933e-06	1.443290e-08	2.113931e+01	9.477926e+02
1.140000e-06	3.013134e-06	1.478184e-08	2.174703e+01	9.708343e+02
1.150000e-06	3.096516e-06	1.511348e-08	2.234883e+01	9.926459e+02
1.160000e-06	3.178813e-06	1.542762e-08	2.294280e+01	1.013295e+03
1.170000e-06	3.259836e-06	1.572463e-08	2.352758e+01	1.032848e+03
1.180000e-06	3.339697e-06	1.600523e-08	2.410397e+01	1.051369e+03
1.190000e-06	3.418387e-06	1.627023e-08	2.467190e+01	1.068922e+03
1.200000e-06	3.495860e-06	1.652099e-08	2.523106e+01	1.085569e+03
1.210000e-06	3.572135e-06	1.676016e-08	2.578156e+01	1.101369e+03
1.220000e-06	3.647068e-06	1.698920e-08	2.632239e+01	1.116375e+03
1.230000e-06	3.720391e-06	1.720595e-08	2.685159e+01	1.130635e+03
1.240000e-06	3.792153e-06	1.741034e-08	2.736953e+01	1.144194e+03
1.250000e-06	3.862573e-06	1.760209e-08	2.787778e+01	1.157089e+03
1.260000e-06	3.931652e-06	1.778269e-08	2.837635e+01	1.169359e+03
1.270000e-06	3.999457e-06	1.795585e-08	2.886573e+01	1.181036e+03
1.280000e-06	4.065839e-06	1.812320e-08	2.934483e+01	1.192156e+03
1.290000e-06	4.130487e-06	1.828471e-08	2.981142e+01	1.202747e+03
1.300000e-06	4.193599e-06	1.844015e-08	3.026693e+01	1.212837e+03
1.310000e-06	4.255370e-06	1.858852e-08	3.071275e+01	1.222449e+03
1.320000e-06	4.315768e-06	1.872922e-08	3.114867e+01	1.231598e+03
1.330000e-06	4.374733e-06	1.886194e-08	3.157425e+01	1.240294e+03
1.340000e-06	4.431948e-06	1.898783e-08	3.198719e+01	1.248542e+03
1.350000e-06	4.487413e-06	1.910678e-08	3.238750e+01	1.256345e+03
1.360000e-06	4.541322e-06	1.921687e-08	3.277659e+01	1.263708e+03
1.370000e-06	4.593485e-06	1.931745e-08	3.315307e+01	1.270640e+03
1.380000e-06	4.643660e-06	1.941256e-08	3.351520e+01	1.277159e+03
1.390000e-06	4.691893e-06	1.950595e-08	3.386332e+01	1.283291e+03
1.400000e-06	4.738423e-06	1.959626e-08	3.419914e+01	1.289070e+03
1.410000e-06	4.783381e-06	1.968262e-08	3.452363e+01	1.294532e+03
1.420000e-06	4.826830e-06	1.976307e-08	3.483722e+01	1.299713e+03
1.430000e-06	4.868510e-06	1.983760e-08	3.513804e+01	1.304643e+03
1.440000e-06	4.908343e-06	1.990758e-08	3.542553e+01	1.309342e+03
1.450000e-06	4.946514e-06	1.997308e-08	3.570102e+01	1.313817e+03
1.460000e-06	4.983097e-06	2.003540e-08	3.596506e+01	1.318064e+03
1.470000e-06	5.018104e-06	2.009477e-08	3.621772e+01	1.322068e+03
1.480000e-06	5.051207e-06	2.015100e-08	3.645664e+01	1.325812e+03
1.490000e-06	5.082410e-06	2.020308e-08	3.668184e+01	1.329279e+03
1.500000e-06	5.111941e-06	2.025165e-08	3.689498e+01	1.332458e+03
1.510000e-06	5.139811e-06	2.029671e-08	3.709613e+01	1.335347e+03
1.520000e-06	5.165783e-06	2.033699e-08	3.728358e+01	1.337954e+03
1.530000e-06	5.189710e-06	2.037144e-08	3.745627e+01	1.340296e+03
1.540000e-06	5.211801e-06	2.040059e-08	3.761571e+01	1.342393e+03
1.550000e-06	5.232182e-06	2.042708e-08	3.776281e+01	1.344264e+03
1.560000e-06	5.250748e-06	2.045126e-08	3.789681e+01	1.345926e+03
1.570000e-06	5.267323e-06	2.047241e-08	3.801643e+01	1.347388e+03
1.580000e-06	5.281942e-06	2.049081e-08	3.812195e+01	1.348652e+03
1.590000e-06	5.294640e-06	2.050619e-08	3.821359e+01	1.349716e+03
1.600000e-06	5.305195e-06	2.051883e-08	3.828977e+01	1.350575e+03
1.610000e-06	5.313596e-06	2.052991e-08	3.835041e+01	1.351228e+03
1.620000e-06	5.320099e-06	2.053916e-08	3.839735e+01	1.351678e+03
1.630000e-06	5.324864e-06	2.054641e-08	3.843173e+01	1.351933e+03
1.640000e-06	5.327824e-06	2.055064e-08	3.845310e+01	1.352010e+03
1.650000e-06	5.328781e-06	2.055215e-08	3.846000e+01	1.351926e+03
1.660000e-06	5.327823e-06	2.054969e-08	3.845309e+01	1.351696e+03
1.670000e-06	5.325170e-06	2.054209e-08	3.843394e+01	1.351330e+03
1.680000e-06	5.320921e-06	2.053590e-08	3.840327e+01	1.350828e+03
1.690000e-06	5.314884e-06	2.052716e-08	3.835970e+01	1.350182e+03
1.700000e-06	5.306986e-06	2.051483e-08	3.830270e+01	1.349375e+03
1.710000e-06	5.297468e-06	2.050192e-08	3.823400e+01	1.348386e+03
1.720000e-06	5.286334e-06	2.049290e-08	3.815365e+01	1.347199e+03
1.730000e-06	5.273373e-06	2.049496e-08	3.806010e+01	1.345803e+03
1.740000e-06	5.258410e-06	2.043572e-08	3.795211e+01	1.344200e+03
1.750000e-06	5.241266e-06	2.034622e-08	3.782837e+01	1.342404e+03
1.760000e-06	5.221621e-06	2.035407e-08	3.768658e+01	1.340442e+03
1.770000e-06	5.199425e-06	2.034657e-08	3.752639e+01	1.338345e+03
1.780000e-06	5.175429e-06	2.037200e-08	3.735320e+01	1.336144e+03
1.790000e-06	5.150589e-06	2.036415e-08	3.717392e+01	1.333864e+03
1.800000e-06	5.124877e-06	2.015966e-08	3.698834e+01	1.331515e+03
1.810000e-06	5.097321e-06	2.021652e-08	3.678946e+01	1.329091e+03
1.820000e-06	5.067636e-06	2.025220e-08	3.657521e+01	1.326571e+03
1.830000e-06	5.036277e-06	2.006546e-08	3.634888e+01	1.323920e+03
1.840000e-06	5.003073e-06	2.019574e-08	3.610924e+01	1.321099e+03
1.850000e-06	4.968128e-06	2.016070e-08	3.585702e+01	1.318066e+03
1.860000e-06	4.931650e-06	1.993521e-08	3.559374e+01	1.314791e+03
1.870000e-06	4.893212e-06	2.002077e-08	3.531632e+01	1.311251e+03
1.880000e-06	4.853058e-06	1.994382e-08	3.502652e+01	1.307440e+03
1.890000e-06	4.811285e-06	1.987972e-08	3.472502e+01	1.303362e+03
1.900000e-06	4.767704e-06	1.989048e-08	3.441048e+01	1.299031e+03
1.910000e-06	4.722453e-06	1.966742e-08	3.408389e+01	1.294463e+03
1.920000e-06	4.675305e-06	1.970192e-08	3.374360e+01	1.289674e+03
1.930000e-06	4.626406e-06	1.968937e-08	3.339067e+01	1.284671e+03
1.940000e-06	4.575889e-06	1.952410e-08	3.302607e+01	1.279456e+03
1.950000e-06	4.523347e-06	1.947410e-08	3.264685e+01	1.274022e+03
1.960000e-06	4.468836e-06	1.934408e-08	3.225343e+01	1.268357e+03
1.970000e-06	4.412563e-06	1.930273e-08	3.184728e+01	1.262446e+03
1.980000e-06	4.354650e-06	1.917100e-08	3.142930e+01	1.256276e+03
1.990000e-06	4.295370e-06	1.905120e-08	3.100145e+01	1.249838e+03
2.000000e-06	4.234725e-06	1.906833e-08	3.056375e+01	1.243128e+03
2.010000e-06	4.172477e-06	1.889194e-08	3.011448e+01	1.236145e+03
2.020000e-06	4.108486e-06	1.876021e-08	2.965263e+01	1.228893e+03
2.030000e-06	4.042972e-06	1.863562e-08	2.917979e+01	1.221374e+03
2.040000e-06	3.976159e-06	1.853275e-08	2.869757e+01	1.213589e+03
2.050000e-06	3.907991e-06	1.845786e-08	2.820558e+01	1.205534e+03
2.060000e-06	3.838294e-06	1.827264e-08	2.770255e+01	1.197198e+03
2.070000e-06	3.767072e-06	1.817053e-08	2.718851e+01	1.188568e+03
2.080000e-06	3.694585e-06	1.802206e-08	2.666534e+01	1.179626e+03
2.090000e-06	3.620838e-06	1.787729e-08	2.613308e+01	1.170354e+03
2.100000e-06	3.545748e-06	1.775830e-08	2.559112e+01	1.160732e+03
2.110000e-06	3.469255e-06	1.760035e-08	2.503904e+01	1.150746e+03
2.120000e-06	3.391199e-06	1.745405e-08	2.447567e+01	1.140381e+03
2.130000e-06	3.311803e-06	1.725745e-08	2.390265e+01	1.129625e+03
2.140000e-06	3.231341e-06	1.709417e-08	2.332192e+01	1.118468e+03
2.150000e-06	3.149797e-06	1.691614e-08	2.273338e+01	1.106897e+03
2.160000e-06	3.067127e-06	1.673871e-08	2.213672e+01	1.094897e+03
2.170000e-06	2.983491e-06	1.657311e-08	2.153308e+01	1.082450e+03
2.180000e-06	2.898891e-06	1.637310e-08	2.092249e+01	1.069534e+03
2.190000e-06	2.812968e-06	1.616677e-08	2.030234e+01	1.056122e+03
2.200000e-06	2.725800e-06	1.594644e-08	1.967322e+01	1.042184e+03
2.210000e-06	2.637685e-06	1.573852e-08	1.903726e+01	1.027687e+03
2.220000e-06	2.548717e-06	1.551025e-08	1.839514e+01	1.012597e+03
2.230000e-06	2.458916e-06	1.526566e-08	1.774701e+01	9.968780e+02
2.240000e-06	2.368317e-06	1.501325e-08	1.709312e+01	9.804930e+02
2.250000e-06	2.276999e-06	1.475406e-08	1.643404e+01	9.634043e+02
2.260000e-06	2.184992e-06	1.448886e-08	1.576999e+01	9.455733e+02
2.270000e-06	2.092215e-06	1.420463e-08	1.510037e+01	9.269602e+02
2.280000e-06	1.998419e-06	1.391397e-08	1.442341e+01	9.075239e+02
2.290000e-06	1.903595e-06	1.360721e-08	1.373903e+01	8.872217e+02
2.300000e-06	1.808055e-06	1.328458e-08	1.304948e+01	8.660085e+02
2.310000e-06	1.711996e-06	1.294491e-08	1.235618e+01	8.438364e+02
2.320000e-06	1.615450e-06	1.259177e-08	1.165937e+01	8.206536e+02
2.330000e-06	1.518440e-06	1.222479e-08	1.095920e+01	7.964039e+02
2.340000e-06	1.420898e-06	1.183689e-08	1.025521e+01	7.710262e+02
2.350000e-06	1.322835e-06	1.142941e-08	9.547448e+00	7.444557e+02
2.360000e-06	1.224368e-06	1.100668e-08	8.836771e+00	7.166259e+02
2.370000e-06	1.125590e-06	1.057131e-08	8.123848e+00	6.874729e+02
2.380000e-06	1.026529e-06	1.011226e-08	7.408883e+00	6.569413e+02
2.390000e-06	9.271779e-07	9.623962e-09	6.691824e+00	6.249923e+02
2.400000e-06	8.275948e-07	9.108692e-09	5.973092e+00	5.916110e+02
2.410000e-06	7.278016e-07	8.574006e-09	5.252844e+00	5.568154e+02
2.420000e-06	6.277605e-07	8.020232e-09	4.530806e+00	5.206612e+02
2.430000e-06	5.274975e-07	7.447987e-09	3.807166e+00	4.832454e+02
2.440000e-06	4.271205e-07	6.862134e-09	3.082704e+00	4.447040e+02
2.450000e-06	3.266691e-07	6.260841e-09	2.357705e+00	4.052060e+02
2.460000e-06	2.261038e-07	5.643093e-09	1.631884e+00	3.649416e+02
2.470000e-06	1.253893e-07	5.016726e-09	9.049861e-01	3.241077e+02
2.480000e-06	2.452864e-08	4.388812e-09	1.770333e-01	2.828899e+02
2.490000e-06	-7.633507e-08	3.756553e-09	-5.509416e-01	2.414454e+02
2.500000e-06	-1.771267e-07	3.119394e-09	-1.278396e+00	1.998868e+02
2.510000e-06	-2.778622e-07	2.481682e-09	-2.005445e+00	1.582718e+02
2.520000e-06	-3.784839e-07	1.844857e-09	-2.731674e+00	1.165975e+02
2.530000e-06	-4.790051e-07	1.206402e-09	-3.457177e+00	7.480296e+01
2.540000e-06	-5.794300e-07	5.660620e-10	-4.181985e+00	3.277936e+01
2.550000e-06	-6.796451e-07	-7.977888e-11	-4.905278e+00	-9.613843e+00
2.560000e-06	-7.796157e-07	-7.351473e-10	-5.626807e+00	-5.252690e+01
2.570000e-06	-8.793687e-07	-1.401717e-09	-6.346766e+00	-9.609543e+01
2.580000e-06	-9.788649e-07	-2.080812e-09	-7.064871e+00	-1.404162e+02
2.590000e-06	-1.078056e-06	-2.771962e-09	-7.780777e+00	-1.855260e+02
2.600000e-06	-1.176924e-06	-3.473800e-09	-8.494342e+00	-2.313865e+02
2.610000e-06	-1.275383e-06	-4.183096e-09	-9.204963e+00	-2.778769e+02
2.620000e-06	-1.373323e-06	-4.899281e-09	-9.911836e+00	-3.247956e+02
2.630000e-06	-1.470744e-06	-5.620330e-09	-1.061496e+01	-3.718708e+02
2.640000e-06	-1.567603e-06	-6.337454e-09	-1.131403e+01	-4.187788e+02
2.650000e-06	-1.663957e-06	-7.045813e-09	-1.200946e+01	-4.651682e+02
2.660000e-06	-1.759921e-06	-7.743767e-09	-1.270207e+01	-5.106858e+02
2.670000e-06	-1.855410e-06	-8.425852e-09	-1.339125e+01	-5.550025e+02
2.680000e-06	-1.950154e-06	-9.084151e-09	-1.407506e+01	-5.978357e+02
2.690000e-06	-2.043848e-06	-9.713735e-09	-1.475129e+01	-6.389647e+02
2.700000e-06	-2.136498e-06	-1.031590e-08	-1.541999e+01	-6.782393e+02
2.710000e-06	-2.228406e-06	-1.089115e-08	-1.608332e+01	-7.155798e+02
2.720000e-06	-2.319643e-06	-1.143803e-08	-1.674182e+01	-7.509705e+02
2.730000e-06	-2.410049e-06	-1.195335e-08	-1.739432e+01	-7.844479e+02
2.740000e-06	-2.499560e-06	-1.243757e-08	-1.804035e+01	-8.160854e+02
2.750000e-06	-2.588202e-06	-1.289510e-08	-1.868012e+01	-8.459786e+02
2.760000e-06	-2.676105e-06	-1.332788e-08	-1.931455e+01	-8.742317e+02
2.770000e-06	-2.763210e-06	-1.373671e-08	-1.994322e+01	-9.009475e+02
2.780000e-06	-2.849092e-06	-1.412463e-08	-2.056307e+01	-9.262215e+02
2.790000e-06	-2.933717e-06	-1.449306e-08	-2.117384e+01	-9.501398e+02
2.800000e-06	-3.017405e-06	-1.483966e-08	-2.177785e+01	-9.727793e+02
2.810000e-06	-3.100166e-06	-1.516623e-08	-2.237517e+01	-9.942109e+02
2.820000e-06	-3.181964e-06	-1.547708e-08	-2.296554e+01	-1.014501e+03
2.830000e-06	-3.262762e-06	-1.577282e-08	-2.354870e+01	-1.033716e+03
2.840000e-06	-3.342513e-06	-1.605407e-08	-2.412429e+01	-1.051920e+03
2.850000e-06	-3.420916e-06	-1.631935e-08	-2.469016e+01	-1.069177e+03
2.860000e-06	-3.497733e-06	-1.656904e-08	-2.524458e+01	-1.085546e+03
2.870000e-06	-3.573131e-06	-1.680679e-08	-2.578875e+01	-1.101086e+03
2.880000e-06	-3.647153e-06	-1.703458e-08	-2.632300e+01	-1.115848e+03
2.890000e-06	-3.719881e-06	-1.725420e-08	-2.684791e+01	-1.129879e+03
2.900000e-06	-3.791441e-06	-1.746339e-08	-2.736439e+01	-1.143221e+03
2.910000e-06	-3.861544e-06	-1.766024e-08	-2.787035e+01	-1.155913e+03
2.920000e-06	-3.930032e-06	-1.784659e-08	-2.836466e+01	-1.167989e+03
2.930000e-06	-3.997146e-06	-1.802402e-08	-2.884904e+01	-1.179485e+03
2.940000e-06	-4.062905e-06	-1.819240e-08	-2.932365e+01	-1.190432e+03
