# Temperatura_=_32.61
# Concentracion g/m^3_=_28200.0
# C_Vs_to_Am_M_A/Vsm_=_65563218390.804596
# pendiente_HvsI_1/m_=_3716.3
# ordenada_HvsI_A/m_=_1297.0
# frecuencia_Hz_=_301781.1386172861

Tiempo_(s)	Campo_(V.s)	Magnetizacion_(V.s)	Campo_(kA/m)	Magnetizacion_(A/m)
0.000000e+00	-5.312624e-06	-1.812287e-08	-3.829168e+01	-1.184400e+03
1.000000e-08	-5.311120e-06	-1.811643e-08	-3.828083e+01	-1.184165e+03
2.000000e-08	-5.307700e-06	-1.810911e-08	-3.825618e+01	-1.183816e+03
3.000000e-08	-5.302559e-06	-1.809804e-08	-3.821913e+01	-1.183344e+03
4.000000e-08	-5.295800e-06	-1.808769e-08	-3.817042e+01	-1.182730e+03
5.000000e-08	-5.287368e-06	-1.807548e-08	-3.810964e+01	-1.181949e+03
6.000000e-08	-5.277079e-06	-1.805877e-08	-3.803548e+01	-1.180980e+03
7.000000e-08	-5.264864e-06	-1.803955e-08	-3.794744e+01	-1.179810e+03
8.000000e-08	-5.250709e-06	-1.801636e-08	-3.784541e+01	-1.178441e+03
9.000000e-08	-5.234395e-06	-1.799801e-08	-3.772783e+01	-1.176891e+03
1.000000e-07	-5.215941e-06	-1.800530e-08	-3.759481e+01	-1.175192e+03
1.100000e-07	-5.195575e-06	-1.797265e-08	-3.744803e+01	-1.173383e+03
1.200000e-07	-5.173383e-06	-1.791050e-08	-3.728807e+01	-1.171505e+03
1.300000e-07	-5.149520e-06	-1.787260e-08	-3.711607e+01	-1.169585e+03
1.400000e-07	-5.124107e-06	-1.781482e-08	-3.693291e+01	-1.167638e+03
1.500000e-07	-5.097089e-06	-1.779174e-08	-3.673817e+01	-1.165655e+03
1.600000e-07	-5.068496e-06	-1.781921e-08	-3.653208e+01	-1.163609e+03
1.700000e-07	-5.038456e-06	-1.772097e-08	-3.631557e+01	-1.161459e+03
1.800000e-07	-5.006809e-06	-1.768137e-08	-3.608746e+01	-1.159155e+03
1.900000e-07	-4.973148e-06	-1.768723e-08	-3.584484e+01	-1.156654e+03
2.000000e-07	-4.937648e-06	-1.757543e-08	-3.558897e+01	-1.153919e+03
2.100000e-07	-4.900592e-06	-1.756669e-08	-3.532188e+01	-1.150932e+03
2.200000e-07	-4.861795e-06	-1.753839e-08	-3.504225e+01	-1.147689e+03
2.300000e-07	-4.821207e-06	-1.743378e-08	-3.474970e+01	-1.144201e+03
2.400000e-07	-4.778723e-06	-1.740546e-08	-3.444349e+01	-1.140489e+03
2.500000e-07	-4.734369e-06	-1.733621e-08	-3.412380e+01	-1.136573e+03
2.600000e-07	-4.688301e-06	-1.726551e-08	-3.379176e+01	-1.132470e+03
2.700000e-07	-4.640390e-06	-1.723228e-08	-3.344643e+01	-1.128186e+03
2.800000e-07	-4.590450e-06	-1.710552e-08	-3.308648e+01	-1.123718e+03
2.900000e-07	-4.538433e-06	-1.701937e-08	-3.271156e+01	-1.119053e+03
3.000000e-07	-4.484557e-06	-1.697178e-08	-3.232324e+01	-1.114176e+03
3.100000e-07	-4.429107e-06	-1.690395e-08	-3.192357e+01	-1.109070e+03
3.200000e-07	-4.372015e-06	-1.683018e-08	-3.151207e+01	-1.103724e+03
3.300000e-07	-4.313160e-06	-1.673708e-08	-3.108786e+01	-1.098133e+03
3.400000e-07	-4.252745e-06	-1.663912e-08	-3.065241e+01	-1.092299e+03
3.500000e-07	-4.190917e-06	-1.652343e-08	-3.020677e+01	-1.086229e+03
3.600000e-07	-4.127668e-06	-1.643087e-08	-2.975090e+01	-1.079927e+03
3.700000e-07	-4.063021e-06	-1.634764e-08	-2.928494e+01	-1.073399e+03
3.800000e-07	-3.996764e-06	-1.625590e-08	-2.880738e+01	-1.066641e+03
3.900000e-07	-3.928888e-06	-1.615294e-08	-2.831816e+01	-1.059644e+03
4.000000e-07	-3.859683e-06	-1.601528e-08	-2.781935e+01	-1.052392e+03
4.100000e-07	-3.789258e-06	-1.589606e-08	-2.731175e+01	-1.044867e+03
4.200000e-07	-3.717652e-06	-1.578950e-08	-2.679563e+01	-1.037052e+03
4.300000e-07	-3.644760e-06	-1.566488e-08	-2.627025e+01	-1.028934e+03
4.400000e-07	-3.570310e-06	-1.554017e-08	-2.573364e+01	-1.020502e+03
4.500000e-07	-3.494278e-06	-1.540032e-08	-2.518563e+01	-1.011753e+03
4.600000e-07	-3.416886e-06	-1.525181e-08	-2.462781e+01	-1.002684e+03
4.700000e-07	-3.338150e-06	-1.510679e-08	-2.406031e+01	-9.932926e+02
4.800000e-07	-3.257992e-06	-1.496601e-08	-2.348256e+01	-9.835694e+02
4.900000e-07	-3.176582e-06	-1.481658e-08	-2.289578e+01	-9.734994e+02
5.000000e-07	-3.094152e-06	-1.465235e-08	-2.230165e+01	-9.630593e+02
5.100000e-07	-3.010760e-06	-1.448606e-08	-2.170059e+01	-9.522198e+02
5.200000e-07	-2.926500e-06	-1.430693e-08	-2.109326e+01	-9.409480e+02
5.300000e-07	-2.841366e-06	-1.412244e-08	-2.047964e+01	-9.292119e+02
5.400000e-07	-2.755251e-06	-1.393504e-08	-1.985896e+01	-9.169835e+02
5.500000e-07	-2.668175e-06	-1.374124e-08	-1.923135e+01	-9.042404e+02
5.600000e-07	-2.580237e-06	-1.353590e-08	-1.859751e+01	-8.909657e+02
5.700000e-07	-2.491293e-06	-1.331879e-08	-1.795643e+01	-8.771455e+02
5.800000e-07	-2.401157e-06	-1.310093e-08	-1.730676e+01	-8.627650e+02
5.900000e-07	-2.309996e-06	-1.287399e-08	-1.664971e+01	-8.478039e+02
6.000000e-07	-2.218074e-06	-1.263563e-08	-1.598716e+01	-8.322334e+02
6.100000e-07	-2.125432e-06	-1.238608e-08	-1.531943e+01	-8.160143e+02
6.200000e-07	-2.032030e-06	-1.212848e-08	-1.464621e+01	-7.990982e+02
6.300000e-07	-1.937814e-06	-1.185857e-08	-1.396714e+01	-7.814301e+02
6.400000e-07	-1.842894e-06	-1.157559e-08	-1.328299e+01	-7.629534e+02
6.500000e-07	-1.747479e-06	-1.128022e-08	-1.259526e+01	-7.436141e+02
6.600000e-07	-1.651541e-06	-1.096800e-08	-1.190378e+01	-7.233644e+02
6.700000e-07	-1.554969e-06	-1.064033e-08	-1.120771e+01	-7.021640e+02
6.800000e-07	-1.457663e-06	-1.029895e-08	-1.050636e+01	-6.799795e+02
6.900000e-07	-1.359653e-06	-9.946043e-09	-9.799939e+00	-6.567814e+02
7.000000e-07	-1.261038e-06	-9.577810e-09	-9.089153e+00	-6.325413e+02
7.100000e-07	-1.161943e-06	-9.192232e-09	-8.374910e+00	-6.072294e+02
7.200000e-07	-1.062485e-06	-8.786118e-09	-7.658048e+00	-5.808144e+02
7.300000e-07	-9.627274e-07	-8.360152e-09	-6.939028e+00	-5.532665e+02
7.400000e-07	-8.627771e-07	-7.919540e-09	-6.218618e+00	-5.245635e+02
7.500000e-07	-7.626365e-07	-7.465128e-09	-5.496837e+00	-4.946995e+02
7.600000e-07	-6.622477e-07	-6.994459e-09	-4.773268e+00	-4.636940e+02
7.700000e-07	-5.616321e-07	-6.504918e-09	-4.048062e+00	-4.315995e+02
7.800000e-07	-4.608547e-07	-6.000787e-09	-3.321692e+00	-3.985056e+02
7.900000e-07	-3.599289e-07	-5.485473e-09	-2.594251e+00	-3.645382e+02
8.000000e-07	-2.588771e-07	-4.957919e-09	-1.865902e+00	-3.298526e+02
8.100000e-07	-1.577228e-07	-4.420522e-09	-1.136815e+00	-2.946217e+02
8.200000e-07	-5.648654e-08	-3.879299e-09	-4.071367e-01	-2.590195e+02
8.300000e-07	4.476279e-08	-3.336340e-09	3.226357e-01	-2.232045e+02
8.400000e-07	1.460387e-07	-2.789873e-09	1.052600e+00	-1.873019e+02
8.500000e-07	2.473036e-07	-2.242801e-09	1.782485e+00	-1.513918e+02
8.600000e-07	3.485181e-07	-1.699377e-09	2.512006e+00	-1.155006e+02
8.700000e-07	4.496256e-07	-1.157980e-09	3.240756e+00	-7.960115e+01
8.800000e-07	5.505577e-07	-6.118595e-10	3.968242e+00	-4.361780e+01
8.900000e-07	6.513593e-07	-5.976673e-11	4.694788e+00	-7.439153e+00
9.000000e-07	7.520070e-07	4.982693e-10	5.420224e+00	2.906540e+01
9.100000e-07	8.524304e-07	1.062629e-09	6.144043e+00	6.602616e+01
9.200000e-07	9.525542e-07	1.632385e-09	6.865702e+00	1.035531e+02
9.300000e-07	1.052400e-06	2.208977e-09	7.585360e+00	1.417178e+02
9.400000e-07	1.151968e-06	2.796207e-09	8.303012e+00	1.805382e+02
9.500000e-07	1.251163e-06	3.394985e-09	9.017978e+00	2.199694e+02
9.600000e-07	1.349855e-06	4.001687e-09	9.729321e+00	2.598999e+02
9.700000e-07	1.447888e-06	4.614748e-09	1.043591e+01	3.001548e+02
9.800000e-07	1.545168e-06	5.229515e-09	1.113707e+01	3.405050e+02
9.900000e-07	1.641744e-06	5.840608e-09	1.183316e+01	3.806824e+02
1.000000e-06	1.737654e-06	6.442294e-09	1.252445e+01	4.203987e+02
1.010000e-06	1.832922e-06	7.031838e-09	1.321111e+01	4.593664e+02
1.020000e-06	1.927625e-06	7.607007e-09	1.389370e+01	4.973195e+02
1.030000e-06	2.021667e-06	8.163854e-09	1.457152e+01	5.340311e+02
1.040000e-06	2.114981e-06	8.699015e-09	1.524410e+01	5.693262e+02
1.050000e-06	2.207566e-06	9.209029e-09	1.591143e+01	6.030887e+02
1.060000e-06	2.299451e-06	9.695339e-09	1.657370e+01	6.352609e+02
1.070000e-06	2.390618e-06	1.015775e-08	1.723080e+01	6.658375e+02
1.080000e-06	2.480843e-06	1.059872e-08	1.788112e+01	6.948540e+02
1.090000e-06	2.569936e-06	1.101842e-08	1.852327e+01	7.223736e+02
1.100000e-06	2.657992e-06	1.141560e-08	1.915795e+01	7.484730e+02
1.110000e-06	2.745202e-06	1.179112e-08	1.978653e+01	7.732306e+02
1.120000e-06	2.831511e-06	1.214661e-08	2.040862e+01	7.967189e+02
1.130000e-06	2.916851e-06	1.248402e-08	2.102372e+01	8.190002e+02
1.140000e-06	3.001316e-06	1.280368e-08	2.163252e+01	8.401277e+02
1.150000e-06	3.084931e-06	1.310742e-08	2.223519e+01	8.601483e+02
1.160000e-06	3.167569e-06	1.339637e-08	2.283081e+01	8.791078e+02
1.170000e-06	3.249004e-06	1.367043e-08	2.341777e+01	8.970547e+02
1.180000e-06	3.329166e-06	1.392742e-08	2.399556e+01	9.140434e+02
1.190000e-06	3.408184e-06	1.416976e-08	2.456509e+01	9.301339e+02
1.200000e-06	3.486036e-06	1.440063e-08	2.512622e+01	9.453899e+02
1.210000e-06	3.562624e-06	1.462027e-08	2.567824e+01	9.598747e+02
1.220000e-06	3.637860e-06	1.482865e-08	2.622052e+01	9.736471e+02
1.230000e-06	3.711541e-06	1.502758e-08	2.675158e+01	9.867580e+02
1.240000e-06	3.783678e-06	1.521572e-08	2.727153e+01	9.992478e+02
1.250000e-06	3.854486e-06	1.539272e-08	2.778189e+01	1.011147e+03
1.260000e-06	3.923982e-06	1.556170e-08	2.828280e+01	1.022478e+03
1.270000e-06	3.992153e-06	1.572332e-08	2.877415e+01	1.033259e+03
1.280000e-06	4.058856e-06	1.587765e-08	2.925492e+01	1.043504e+03
1.290000e-06	4.123843e-06	1.602666e-08	2.972333e+01	1.053230e+03
1.300000e-06	4.187263e-06	1.616938e-08	3.018044e+01	1.062455e+03
1.310000e-06	4.249329e-06	1.630447e-08	3.062779e+01	1.071201e+03
1.320000e-06	4.310039e-06	1.643218e-08	3.106537e+01	1.079487e+03
1.330000e-06	4.369366e-06	1.655219e-08	3.149298e+01	1.087334e+03
1.340000e-06	4.427076e-06	1.666412e-08	3.190893e+01	1.094763e+03
1.350000e-06	4.483018e-06	1.676809e-08	3.231214e+01	1.101788e+03
1.360000e-06	4.537276e-06	1.686589e-08	3.270322e+01	1.108427e+03
1.370000e-06	4.589877e-06	1.695807e-08	3.308235e+01	1.114696e+03
1.380000e-06	4.640591e-06	1.704658e-08	3.344788e+01	1.120613e+03
1.390000e-06	4.689253e-06	1.713196e-08	3.379862e+01	1.126202e+03
1.400000e-06	4.736188e-06	1.721426e-08	3.413691e+01	1.131486e+03
1.410000e-06	4.781631e-06	1.729366e-08	3.446445e+01	1.136493e+03
1.420000e-06	4.825537e-06	1.736930e-08	3.478091e+01	1.141250e+03
1.430000e-06	4.867645e-06	1.743826e-08	3.508441e+01	1.145776e+03
1.440000e-06	4.907814e-06	1.750006e-08	3.537394e+01	1.150084e+03
1.450000e-06	4.946317e-06	1.755809e-08	3.565146e+01	1.154178e+03
1.460000e-06	4.983267e-06	1.761413e-08	3.591778e+01	1.158052e+03
1.470000e-06	5.018576e-06	1.766867e-08	3.617228e+01	1.161694e+03
1.480000e-06	5.052016e-06	1.772151e-08	3.641330e+01	1.165087e+03
1.490000e-06	5.083566e-06	1.777181e-08	3.664070e+01	1.168220e+03
1.500000e-06	5.113419e-06	1.781726e-08	3.685587e+01	1.171086e+03
1.510000e-06	5.141606e-06	1.785534e-08	3.705903e+01	1.173688e+03
1.520000e-06	5.167944e-06	1.788792e-08	3.724887e+01	1.176037e+03
1.530000e-06	5.192204e-06	1.791763e-08	3.742373e+01	1.178155e+03
1.540000e-06	5.214594e-06	1.794456e-08	3.758511e+01	1.180061e+03
1.550000e-06	5.235334e-06	1.796984e-08	3.773460e+01	1.181777e+03
1.560000e-06	5.254333e-06	1.799424e-08	3.787153e+01	1.183317e+03
1.570000e-06	5.271399e-06	1.801609e-08	3.799454e+01	1.184686e+03
1.580000e-06	5.286456e-06	1.803491e-08	3.810307e+01	1.185882e+03
1.590000e-06	5.299557e-06	1.805099e-08	3.819749e+01	1.186898e+03
1.600000e-06	5.310554e-06	1.806472e-08	3.827676e+01	1.187726e+03
1.610000e-06	5.319350e-06	1.807520e-08	3.834015e+01	1.188361e+03
1.620000e-06	5.326217e-06	1.808205e-08	3.838965e+01	1.188806e+03
1.630000e-06	5.331349e-06	1.808655e-08	3.842664e+01	1.189072e+03
1.640000e-06	5.334652e-06	1.808943e-08	3.845045e+01	1.189177e+03
1.650000e-06	5.335977e-06	1.809110e-08	3.846000e+01	1.189142e+03
1.660000e-06	5.335382e-06	1.809255e-08	3.845571e+01	1.188983e+03
1.670000e-06	5.333091e-06	1.809146e-08	3.843920e+01	1.188711e+03
1.680000e-06	5.329214e-06	1.808847e-08	3.841125e+01	1.188324e+03
1.690000e-06	5.323534e-06	1.808311e-08	3.837031e+01	1.187808e+03
1.700000e-06	5.315937e-06	1.807298e-08	3.831556e+01	1.187143e+03
1.710000e-06	5.306691e-06	1.805906e-08	3.824892e+01	1.186303e+03
1.720000e-06	5.295852e-06	1.804299e-08	3.817079e+01	1.185269e+03
1.730000e-06	5.283159e-06	1.802864e-08	3.807930e+01	1.184034e+03
1.740000e-06	5.268447e-06	1.801134e-08	3.797326e+01	1.182603e+03
1.750000e-06	5.251654e-06	1.794298e-08	3.785223e+01	1.181000e+03
1.760000e-06	5.232455e-06	1.792162e-08	3.771385e+01	1.179261e+03
1.770000e-06	5.210679e-06	1.793352e-08	3.755689e+01	1.177426e+03
1.780000e-06	5.186894e-06	1.791529e-08	3.738546e+01	1.175531e+03
1.790000e-06	5.162070e-06	1.792979e-08	3.720653e+01	1.173601e+03
1.800000e-06	5.136445e-06	1.783129e-08	3.702184e+01	1.171644e+03
1.810000e-06	5.109168e-06	1.775656e-08	3.682523e+01	1.169644e+03
1.820000e-06	5.079757e-06	1.782637e-08	3.661325e+01	1.167568e+03
1.830000e-06	5.048612e-06	1.772799e-08	3.638876e+01	1.165374e+03
1.840000e-06	5.015715e-06	1.768821e-08	3.615166e+01	1.163011e+03
1.850000e-06	4.981039e-06	1.775497e-08	3.590172e+01	1.160437e+03
1.860000e-06	4.944816e-06	1.761075e-08	3.564063e+01	1.157621e+03
1.870000e-06	4.906750e-06	1.757480e-08	3.536627e+01	1.154551e+03
1.880000e-06	4.866840e-06	1.756053e-08	3.507861e+01	1.151227e+03
1.890000e-06	4.825282e-06	1.743947e-08	3.477907e+01	1.147664e+03
1.900000e-06	4.781960e-06	1.746667e-08	3.446683e+01	1.143884e+03
1.910000e-06	4.736915e-06	1.735014e-08	3.414215e+01	1.139906e+03
1.920000e-06	4.690005e-06	1.726994e-08	3.380404e+01	1.135744e+03
1.930000e-06	4.641286e-06	1.734110e-08	3.345289e+01	1.131401e+03
1.940000e-06	4.590963e-06	1.719151e-08	3.309018e+01	1.126870e+03
1.950000e-06	4.538741e-06	1.710721e-08	3.271378e+01	1.122138e+03
1.960000e-06	4.484508e-06	1.704879e-08	3.232288e+01	1.117189e+03
1.970000e-06	4.428497e-06	1.695133e-08	3.191917e+01	1.112006e+03
1.980000e-06	4.370886e-06	1.689551e-08	3.150393e+01	1.106581e+03
1.990000e-06	4.311815e-06	1.677292e-08	3.107817e+01	1.100911e+03
2.000000e-06	4.251303e-06	1.674324e-08	3.064202e+01	1.094999e+03
2.010000e-06	4.189187e-06	1.664354e-08	3.019430e+01	1.088853e+03
2.020000e-06	4.125394e-06	1.649847e-08	2.973451e+01	1.082478e+03
2.030000e-06	4.060100e-06	1.641510e-08	2.926389e+01	1.075876e+03
2.040000e-06	3.993483e-06	1.629572e-08	2.878374e+01	1.069042e+03
2.050000e-06	3.925517e-06	1.623945e-08	2.829386e+01	1.061964e+03
2.060000e-06	3.856121e-06	1.610692e-08	2.779368e+01	1.054626e+03
2.070000e-06	3.785195e-06	1.597625e-08	2.728246e+01	1.047009e+03
2.080000e-06	3.712887e-06	1.587188e-08	2.676129e+01	1.039097e+03
2.090000e-06	3.639329e-06	1.571914e-08	2.623111e+01	1.030878e+03
2.100000e-06	3.564334e-06	1.561774e-08	2.569057e+01	1.022344e+03
2.110000e-06	3.487934e-06	1.547965e-08	2.513990e+01	1.013492e+03
2.120000e-06	3.410101e-06	1.534899e-08	2.457891e+01	1.004320e+03
2.130000e-06	3.330871e-06	1.520026e-08	2.400784e+01	9.948218e+02
2.140000e-06	3.250511e-06	1.503793e-08	2.342863e+01	9.849886e+02
2.150000e-06	3.169053e-06	1.489113e-08	2.284151e+01	9.748019e+02
2.160000e-06	3.086472e-06	1.472370e-08	2.224629e+01	9.642363e+02
2.170000e-06	3.002893e-06	1.457685e-08	2.164388e+01	9.532608e+02
2.180000e-06	2.918330e-06	1.440251e-08	2.103438e+01	9.418425e+02
2.190000e-06	2.832498e-06	1.422091e-08	2.041573e+01	9.299504e+02
2.200000e-06	2.745408e-06	1.403136e-08	1.978801e+01	9.175580e+02
2.210000e-06	2.657387e-06	1.383636e-08	1.915359e+01	9.046451e+02
2.220000e-06	2.568518e-06	1.364189e-08	1.851305e+01	8.911959e+02
2.230000e-06	2.478709e-06	1.342411e-08	1.786573e+01	8.771967e+02
2.240000e-06	2.388034e-06	1.320230e-08	1.721218e+01	8.626316e+02
2.250000e-06	2.296657e-06	1.297066e-08	1.655356e+01	8.474776e+02
2.260000e-06	2.204600e-06	1.273392e-08	1.589004e+01	8.317028e+02
2.270000e-06	2.111784e-06	1.247956e-08	1.522105e+01	8.152647e+02
2.280000e-06	2.018062e-06	1.221833e-08	1.454554e+01	7.981124e+02
2.290000e-06	1.923303e-06	1.194908e-08	1.386254e+01	7.801899e+02
2.300000e-06	1.827719e-06	1.166520e-08	1.317361e+01	7.614410e+02
2.310000e-06	1.731657e-06	1.136874e-08	1.248123e+01	7.418133e+02
2.320000e-06	1.635094e-06	1.105572e-08	1.178523e+01	7.212615e+02
2.330000e-06	1.537968e-06	1.073034e-08	1.108518e+01	6.997475e+02
2.340000e-06	1.440338e-06	1.038583e-08	1.038149e+01	6.772397e+02
2.350000e-06	1.342248e-06	1.002569e-08	9.674490e+00	6.537092e+02
2.360000e-06	1.243698e-06	9.651982e-09	8.964175e+00	6.291273e+02
2.370000e-06	1.144751e-06	9.266932e-09	8.250994e+00	6.034637e+02
2.380000e-06	1.045526e-06	8.865597e-09	7.535812e+00	5.766870e+02
2.390000e-06	9.460632e-07	8.442003e-09	6.818918e+00	5.487689e+02
2.400000e-06	8.463883e-07	7.994994e-09	6.100493e+00	5.196918e+02
2.410000e-06	7.465192e-07	7.530164e-09	5.380669e+00	4.894567e+02
2.420000e-06	6.464312e-07	7.052648e-09	4.659267e+00	4.580930e+02
2.430000e-06	5.461234e-07	6.558550e-09	3.936281e+00	4.256651e+02
2.440000e-06	4.456683e-07	6.048881e-09	3.212233e+00	3.922745e+02
2.450000e-06	3.450895e-07	5.526333e-09	2.487293e+00	3.580575e+02
2.460000e-06	2.443304e-07	4.992093e-09	1.761055e+00	3.231768e+02
2.470000e-06	1.433559e-07	4.447954e-09	1.033263e+00	2.878073e+02
2.480000e-06	4.232756e-08	3.901365e-09	3.050834e-01	2.521201e+02
2.490000e-06	-5.863503e-08	3.354916e-09	-4.226223e-01	2.162646e+02
2.500000e-06	-1.596314e-07	2.807449e-09	-1.150571e+00	1.803527e+02
2.510000e-06	-2.606309e-07	2.258338e-09	-1.878543e+00	1.444478e+02
2.520000e-06	-3.614939e-07	1.708491e-09	-2.605531e+00	1.085589e+02
2.530000e-06	-4.621532e-07	1.158898e-09	-3.331051e+00	7.264208e+01
2.540000e-06	-5.626525e-07	6.066015e-10	-4.055417e+00	3.660878e+01
2.550000e-06	-6.629995e-07	5.075600e-11	-4.778686e+00	3.393961e-01
2.560000e-06	-7.631389e-07	-5.104521e-10	-5.500458e+00	-3.629878e+01
2.570000e-06	-8.629906e-07	-1.078273e-09	-6.220158e+00	-7.343167e+01
2.580000e-06	-9.625526e-07	-1.654984e-09	-6.937768e+00	-1.111588e+02
2.590000e-06	-1.061859e-06	-2.241774e-09	-7.653535e+00	-1.495357e+02
2.600000e-06	-1.160843e-06	-2.838451e-09	-8.366980e+00	-1.885612e+02
2.610000e-06	-1.259434e-06	-3.444930e-09	-9.077595e+00	-2.281688e+02
2.620000e-06	-1.357547e-06	-4.059653e-09	-9.784757e+00	-2.682261e+02
2.630000e-06	-1.455176e-06	-4.679661e-09	-1.048844e+01	-3.085395e+02
2.640000e-06	-1.552312e-06	-5.298168e-09	-1.118856e+01	-3.488654e+02
2.650000e-06	-1.648856e-06	-5.909611e-09	-1.188442e+01	-3.889270e+02
2.660000e-06	-1.744903e-06	-6.513631e-09	-1.257670e+01	-4.284340e+02
2.670000e-06	-1.840524e-06	-7.107819e-09	-1.326590e+01	-4.671037e+02
2.680000e-06	-1.935552e-06	-7.686653e-09	-1.395083e+01	-5.046808e+02
2.690000e-06	-2.029700e-06	-8.245248e-09	-1.462942e+01	-5.409540e+02
2.700000e-06	-2.122778e-06	-8.781488e-09	-1.530030e+01	-5.757669e+02
2.710000e-06	-2.214913e-06	-9.293152e-09	-1.596438e+01	-6.090225e+02
2.720000e-06	-2.306303e-06	-9.777794e-09	-1.662309e+01	-6.406808e+02
2.730000e-06	-2.396940e-06	-1.023771e-08	-1.727637e+01	-6.707510e+02
2.740000e-06	-2.486758e-06	-1.067445e-08	-1.792375e+01	-6.992792e+02
2.750000e-06	-2.575728e-06	-1.108900e-08	-1.856501e+01	-7.263343e+02
2.760000e-06	-2.663853e-06	-1.148411e-08	-1.920019e+01	-7.519946e+02
2.770000e-06	-2.751243e-06	-1.186010e-08	-1.983007e+01	-7.763374e+02
2.780000e-06	-2.837701e-06	-1.221547e-08	-2.045323e+01	-7.994320e+02
2.790000e-06	-2.922879e-06	-1.255100e-08	-2.106717e+01	-8.213377e+02
2.800000e-06	-3.006863e-06	-1.286834e-08	-2.167250e+01	-8.421050e+02
2.810000e-06	-3.089892e-06	-1.316849e-08	-2.227094e+01	-8.617802e+02
2.820000e-06	-3.171911e-06	-1.345273e-08	-2.286211e+01	-8.804092e+02
2.830000e-06	-3.252871e-06	-1.372332e-08	-2.344565e+01	-8.980426e+02
2.840000e-06	-3.332793e-06	-1.398054e-08	-2.402170e+01	-9.147364e+02
2.850000e-06	-3.411468e-06	-1.422389e-08	-2.458876e+01	-9.305522e+02
2.860000e-06	-3.488655e-06	-1.445464e-08	-2.514509e+01	-9.455542e+02
2.870000e-06	-3.564359e-06	-1.467521e-08	-2.569075e+01	-9.598045e+02
2.880000e-06	-3.638709e-06	-1.488602e-08	-2.622664e+01	-9.733599e+02
2.890000e-06	-3.711773e-06	-1.508616e-08	-2.675326e+01	-9.862678e+02
2.900000e-06	-3.783606e-06	-1.527578e-08	-2.727101e+01	-9.985655e+02
2.910000e-06	-3.854050e-06	-1.545544e-08	-2.777875e+01	-1.010281e+03
2.920000e-06	-3.922895e-06	-1.562736e-08	-2.827496e+01	-1.021434e+03
2.930000e-06	-3.990339e-06	-1.579058e-08	-2.876107e+01	-1.032041e+03
2.940000e-06	-4.056431e-06	-1.594499e-08	-2.923744e+01	-1.042118e+03
