# Temperatura_=_39.74
# Concentracion g/m^3_=_28200.0
# C_Vs_to_Am_M_A/Vsm_=_65563218390.804596
# pendiente_HvsI_1/m_=_3716.3
# ordenada_HvsI_A/m_=_1297.0
# frecuencia_Hz_=_301771.8258940904

Tiempo_(s)	Campo_(V.s)	Magnetizacion_(V.s)	Campo_(kA/m)	Magnetizacion_(A/m)
0.000000e+00	-5.297297e-06	-1.920651e-08	-3.829747e+01	-1.255917e+03
1.000000e-08	-5.295636e-06	-1.920294e-08	-3.828546e+01	-1.255632e+03
2.000000e-08	-5.292089e-06	-1.919428e-08	-3.825981e+01	-1.255232e+03
3.000000e-08	-5.286883e-06	-1.918143e-08	-3.822218e+01	-1.254701e+03
4.000000e-08	-5.280078e-06	-1.916835e-08	-3.817298e+01	-1.254015e+03
5.000000e-08	-5.271649e-06	-1.915230e-08	-3.811204e+01	-1.253151e+03
6.000000e-08	-5.261264e-06	-1.913211e-08	-3.803696e+01	-1.252087e+03
7.000000e-08	-5.248850e-06	-1.910952e-08	-3.794721e+01	-1.250819e+03
8.000000e-08	-5.234624e-06	-1.907790e-08	-3.784436e+01	-1.249357e+03
9.000000e-08	-5.218262e-06	-1.908575e-08	-3.772607e+01	-1.247726e+03
1.000000e-07	-5.199666e-06	-1.911095e-08	-3.759163e+01	-1.245963e+03
1.100000e-07	-5.179175e-06	-1.904890e-08	-3.744349e+01	-1.244105e+03
1.200000e-07	-5.156856e-06	-1.898233e-08	-3.728213e+01	-1.242185e+03
1.300000e-07	-5.132976e-06	-1.892724e-08	-3.710949e+01	-1.240218e+03
1.400000e-07	-5.107616e-06	-1.882793e-08	-3.692614e+01	-1.238205e+03
1.500000e-07	-5.080542e-06	-1.889372e-08	-3.673041e+01	-1.236123e+03
1.600000e-07	-5.051836e-06	-1.890936e-08	-3.652288e+01	-1.233937e+03
1.700000e-07	-5.021762e-06	-1.875962e-08	-3.630545e+01	-1.231605e+03
1.800000e-07	-4.990160e-06	-1.882896e-08	-3.607698e+01	-1.229086e+03
1.900000e-07	-4.956445e-06	-1.876311e-08	-3.583324e+01	-1.226347e+03
2.000000e-07	-4.920914e-06	-1.858574e-08	-3.557636e+01	-1.223372e+03
2.100000e-07	-4.883947e-06	-1.864304e-08	-3.530910e+01	-1.220157e+03
2.200000e-07	-4.845260e-06	-1.854062e-08	-3.502941e+01	-1.216713e+03
2.300000e-07	-4.804773e-06	-1.842759e-08	-3.473671e+01	-1.213056e+03
2.400000e-07	-4.762303e-06	-1.845344e-08	-3.442966e+01	-1.209202e+03
2.500000e-07	-4.717952e-06	-1.836522e-08	-3.410902e+01	-1.205161e+03
2.600000e-07	-4.671904e-06	-1.834078e-08	-3.377611e+01	-1.200931e+03
2.700000e-07	-4.624009e-06	-1.828465e-08	-3.342985e+01	-1.196502e+03
2.800000e-07	-4.574082e-06	-1.812204e-08	-3.306890e+01	-1.191856e+03
2.900000e-07	-4.522048e-06	-1.805522e-08	-3.269271e+01	-1.186970e+03
3.000000e-07	-4.468191e-06	-1.801050e-08	-3.230334e+01	-1.181827e+03
3.100000e-07	-4.412814e-06	-1.794245e-08	-3.190299e+01	-1.176416e+03
3.200000e-07	-4.355770e-06	-1.785066e-08	-3.149058e+01	-1.170737e+03
3.300000e-07	-4.296913e-06	-1.775314e-08	-3.106507e+01	-1.164798e+03
3.400000e-07	-4.236581e-06	-1.764782e-08	-3.062889e+01	-1.158612e+03
3.500000e-07	-4.174864e-06	-1.752427e-08	-3.018270e+01	-1.152195e+03
3.600000e-07	-4.111727e-06	-1.744533e-08	-2.972624e+01	-1.145556e+03
3.700000e-07	-4.047233e-06	-1.735533e-08	-2.925997e+01	-1.138698e+03
3.800000e-07	-3.981162e-06	-1.725698e-08	-2.878230e+01	-1.131613e+03
3.900000e-07	-3.913475e-06	-1.712986e-08	-2.829295e+01	-1.124285e+03
4.000000e-07	-3.844359e-06	-1.696871e-08	-2.779327e+01	-1.116692e+03
4.100000e-07	-3.773964e-06	-1.686818e-08	-2.728434e+01	-1.108812e+03
4.200000e-07	-3.702423e-06	-1.676365e-08	-2.676713e+01	-1.100623e+03
4.300000e-07	-3.629670e-06	-1.663915e-08	-2.624115e+01	-1.092110e+03
4.400000e-07	-3.555374e-06	-1.650349e-08	-2.570402e+01	-1.083262e+03
4.500000e-07	-3.479499e-06	-1.635392e-08	-2.515547e+01	-1.074074e+03
4.600000e-07	-3.402324e-06	-1.620207e-08	-2.459752e+01	-1.064540e+03
4.700000e-07	-3.323857e-06	-1.605076e-08	-2.403024e+01	-1.054653e+03
4.800000e-07	-3.244011e-06	-1.590611e-08	-2.345298e+01	-1.044402e+03
4.900000e-07	-3.162884e-06	-1.573768e-08	-2.286646e+01	-1.033768e+03
5.000000e-07	-3.080633e-06	-1.556061e-08	-2.227182e+01	-1.022730e+03
5.100000e-07	-2.997376e-06	-1.538444e-08	-2.166990e+01	-1.011264e+03
5.200000e-07	-2.913281e-06	-1.520003e-08	-2.106193e+01	-9.993425e+02
5.300000e-07	-2.828315e-06	-1.501084e-08	-2.044765e+01	-9.869442e+02
5.400000e-07	-2.742369e-06	-1.481658e-08	-1.982629e+01	-9.740484e+02
5.500000e-07	-2.655510e-06	-1.461348e-08	-1.919834e+01	-9.606370e+02
5.600000e-07	-2.567836e-06	-1.439583e-08	-1.856449e+01	-9.466918e+02
5.700000e-07	-2.479235e-06	-1.417065e-08	-1.792394e+01	-9.321910e+02
5.800000e-07	-2.389421e-06	-1.394260e-08	-1.727461e+01	-9.171064e+02
5.900000e-07	-2.298453e-06	-1.370136e-08	-1.661695e+01	-9.014014e+02
6.000000e-07	-2.206697e-06	-1.344371e-08	-1.595359e+01	-8.850310e+02
6.100000e-07	-2.114287e-06	-1.317630e-08	-1.528550e+01	-8.679443e+02
6.200000e-07	-2.021107e-06	-1.290632e-08	-1.461184e+01	-8.500876e+02
6.300000e-07	-1.927139e-06	-1.262834e-08	-1.393249e+01	-8.314090e+02
6.400000e-07	-1.832516e-06	-1.233542e-08	-1.324840e+01	-8.118613e+02
6.500000e-07	-1.737345e-06	-1.202343e-08	-1.256035e+01	-7.914033e+02
6.600000e-07	-1.641632e-06	-1.168988e-08	-1.186838e+01	-7.699993e+02
6.700000e-07	-1.545300e-06	-1.134147e-08	-1.117194e+01	-7.476154e+02
6.800000e-07	-1.448296e-06	-1.098295e-08	-1.047063e+01	-7.242155e+02
6.900000e-07	-1.350658e-06	-1.061286e-08	-9.764750e+00	-6.997573e+02
7.000000e-07	-1.252428e-06	-1.022518e-08	-9.054587e+00	-6.741903e+02
7.100000e-07	-1.153659e-06	-9.817396e-09	-8.340519e+00	-6.474571e+02
7.200000e-07	-1.054490e-06	-9.387265e-09	-7.623569e+00	-6.194988e+02
7.300000e-07	-9.550256e-07	-8.935692e-09	-6.904476e+00	-5.902640e+02
7.400000e-07	-8.552741e-07	-8.467663e-09	-6.183310e+00	-5.597196e+02
7.500000e-07	-7.552618e-07	-7.985787e-09	-5.460259e+00	-5.278624e+02
7.600000e-07	-6.550234e-07	-7.484939e-09	-4.735573e+00	-4.947280e+02
7.700000e-07	-5.545770e-07	-6.959749e-09	-4.009383e+00	-4.603957e+02
7.800000e-07	-4.539938e-07	-6.417957e-09	-3.282204e+00	-4.249874e+02
7.900000e-07	-3.533679e-07	-5.864885e-09	-2.554717e+00	-3.886614e+02
8.000000e-07	-2.526786e-07	-5.300436e-09	-1.826771e+00	-3.515998e+02
8.100000e-07	-1.518922e-07	-4.728538e-09	-1.098124e+00	-3.139926e+02
8.200000e-07	-5.103939e-08	-4.151425e-09	-3.689956e-01	-2.760207e+02
8.300000e-07	4.988909e-08	-3.572468e-09	3.606794e-01	-2.378391e+02
8.400000e-07	1.508482e-07	-2.991434e-09	1.090576e+00	-1.995631e+02
8.500000e-07	2.517663e-07	-2.409668e-09	1.820175e+00	-1.612597e+02
8.600000e-07	3.526151e-07	-1.829690e-09	2.549275e+00	-1.229432e+02
8.700000e-07	4.533808e-07	-1.249584e-09	3.277773e+00	-8.457782e+01
8.800000e-07	5.540372e-07	-6.676063e-10	4.005480e+00	-4.608386e+01
8.900000e-07	6.545907e-07	-8.065058e-11	4.732445e+00	-7.349798e+00
9.000000e-07	7.550202e-07	5.132614e-10	5.458513e+00	3.175288e+01
9.100000e-07	8.552226e-07	1.116617e-09	6.182938e+00	7.135233e+01
9.200000e-07	9.551607e-07	1.729480e-09	6.905453e+00	1.115579e+02
9.300000e-07	1.054759e-06	2.352172e-09	7.625508e+00	1.524424e+02
9.400000e-07	1.153926e-06	2.986045e-09	8.342448e+00	1.940258e+02
9.500000e-07	1.252603e-06	3.628896e-09	9.055847e+00	2.362640e+02
9.600000e-07	1.350721e-06	4.277736e-09	9.765206e+00	2.790419e+02
9.700000e-07	1.448248e-06	4.933148e-09	1.047029e+01	3.221741e+02
9.800000e-07	1.545228e-06	5.591836e-09	1.117142e+01	3.654133e+02
9.900000e-07	1.641590e-06	6.249681e-09	1.186808e+01	4.084651e+02
1.000000e-06	1.737223e-06	6.901218e-09	1.255947e+01	4.510096e+02
1.010000e-06	1.832176e-06	7.538235e-09	1.324594e+01	4.927252e+02
1.020000e-06	1.926538e-06	8.154715e-09	1.392815e+01	5.333141e+02
1.030000e-06	2.020246e-06	8.746453e-09	1.460562e+01	5.725230e+02
1.040000e-06	2.113206e-06	9.313306e-09	1.527768e+01	6.101593e+02
1.050000e-06	2.205532e-06	9.856104e-09	1.594517e+01	6.460988e+02
1.060000e-06	2.297211e-06	1.037625e-08	1.660797e+01	6.802844e+02
1.070000e-06	2.387999e-06	1.087104e-08	1.726434e+01	7.127178e+02
1.080000e-06	2.477768e-06	1.133844e-08	1.791333e+01	7.434460e+02
1.090000e-06	2.566558e-06	1.178113e-08	1.855525e+01	7.725441e+02
1.100000e-06	2.654315e-06	1.220024e-08	1.918970e+01	8.001001e+02
1.110000e-06	2.741128e-06	1.259777e-08	1.981732e+01	8.262018e+02
1.120000e-06	2.827125e-06	1.297271e-08	2.043905e+01	8.509293e+02
1.130000e-06	2.912248e-06	1.332792e-08	2.105446e+01	8.743518e+02
1.140000e-06	2.996497e-06	1.366331e-08	2.166354e+01	8.965299e+02
1.150000e-06	3.079757e-06	1.398024e-08	2.226549e+01	9.175195e+02
1.160000e-06	3.161934e-06	1.428094e-08	2.285959e+01	9.373764e+02
1.170000e-06	3.242974e-06	1.456691e-08	2.344549e+01	9.561604e+02
1.180000e-06	3.322825e-06	1.483831e-08	2.402278e+01	9.739364e+02
1.190000e-06	3.401518e-06	1.509408e-08	2.459170e+01	9.907728e+02
1.200000e-06	3.479058e-06	1.533624e-08	2.515228e+01	1.006739e+03
1.210000e-06	3.555393e-06	1.556453e-08	2.570415e+01	1.021899e+03
1.220000e-06	3.630327e-06	1.578115e-08	2.624590e+01	1.036311e+03
1.230000e-06	3.703722e-06	1.598793e-08	2.677652e+01	1.050023e+03
1.240000e-06	3.775579e-06	1.618449e-08	2.729602e+01	1.063073e+03
1.250000e-06	3.846024e-06	1.636970e-08	2.780531e+01	1.075491e+03
1.260000e-06	3.915201e-06	1.654562e-08	2.830543e+01	1.087303e+03
1.270000e-06	3.983073e-06	1.671447e-08	2.879612e+01	1.098532e+03
1.280000e-06	4.049451e-06	1.687667e-08	2.927601e+01	1.109202e+03
1.290000e-06	4.114203e-06	1.703180e-08	2.974414e+01	1.119338e+03
1.300000e-06	4.177431e-06	1.718081e-08	3.020126e+01	1.128964e+03
1.310000e-06	4.239273e-06	1.732300e-08	3.064835e+01	1.138103e+03
1.320000e-06	4.299770e-06	1.745735e-08	3.108572e+01	1.146775e+03
1.330000e-06	4.358809e-06	1.758244e-08	3.151255e+01	1.154994e+03
1.340000e-06	4.416206e-06	1.769847e-08	3.192751e+01	1.162772e+03
1.350000e-06	4.471917e-06	1.780812e-08	3.233028e+01	1.170117e+03
1.360000e-06	4.526015e-06	1.791076e-08	3.272139e+01	1.177041e+03
1.370000e-06	4.578401e-06	1.800555e-08	3.310012e+01	1.183559e+03
1.380000e-06	4.628778e-06	1.809614e-08	3.346433e+01	1.189695e+03
1.390000e-06	4.677150e-06	1.818529e-08	3.381404e+01	1.195480e+03
1.400000e-06	4.723859e-06	1.827149e-08	3.415173e+01	1.200949e+03
1.410000e-06	4.769082e-06	1.835338e-08	3.447867e+01	1.206141e+03
1.420000e-06	4.812737e-06	1.843110e-08	3.479428e+01	1.211087e+03
1.430000e-06	4.854543e-06	1.850242e-08	3.509652e+01	1.215811e+03
1.440000e-06	4.894496e-06	1.856819e-08	3.538536e+01	1.220321e+03
1.450000e-06	4.932828e-06	1.863093e-08	3.566250e+01	1.224613e+03
1.460000e-06	4.969610e-06	1.869177e-08	3.592841e+01	1.228670e+03
1.470000e-06	5.004798e-06	1.874963e-08	3.618281e+01	1.232470e+03
1.480000e-06	5.038075e-06	1.880255e-08	3.642339e+01	1.235991e+03
1.490000e-06	5.069434e-06	1.885064e-08	3.665010e+01	1.239220e+03
1.500000e-06	5.099150e-06	1.889446e-08	3.686494e+01	1.242154e+03
1.510000e-06	5.127246e-06	1.893462e-08	3.706806e+01	1.244805e+03
1.520000e-06	5.153407e-06	1.897117e-08	3.725720e+01	1.247196e+03
1.530000e-06	5.177493e-06	1.900362e-08	3.743133e+01	1.249354e+03
1.540000e-06	5.199741e-06	1.903211e-08	3.759217e+01	1.251309e+03
1.550000e-06	5.220312e-06	1.905810e-08	3.774089e+01	1.253080e+03
1.560000e-06	5.239203e-06	1.908118e-08	3.787747e+01	1.254680e+03
1.570000e-06	5.256154e-06	1.910150e-08	3.800002e+01	1.256105e+03
1.580000e-06	5.271097e-06	1.912003e-08	3.810805e+01	1.257346e+03
1.590000e-06	5.284072e-06	1.913578e-08	3.820186e+01	1.258389e+03
1.600000e-06	5.294934e-06	1.914834e-08	3.828038e+01	1.259221e+03
1.610000e-06	5.303644e-06	1.915796e-08	3.834335e+01	1.259838e+03
1.620000e-06	5.310381e-06	1.916552e-08	3.839206e+01	1.260248e+03
1.630000e-06	5.315366e-06	1.917136e-08	3.842810e+01	1.260469e+03
1.640000e-06	5.318585e-06	1.917438e-08	3.845137e+01	1.260525e+03
1.650000e-06	5.319779e-06	1.917609e-08	3.846000e+01	1.260441e+03
1.660000e-06	5.319033e-06	1.917438e-08	3.845461e+01	1.260236e+03
1.670000e-06	5.316676e-06	1.916595e-08	3.843757e+01	1.259919e+03
1.680000e-06	5.312733e-06	1.915986e-08	3.840906e+01	1.259482e+03
1.690000e-06	5.306941e-06	1.915317e-08	3.836719e+01	1.258909e+03
1.700000e-06	5.299254e-06	1.914293e-08	3.831162e+01	1.258174e+03
1.710000e-06	5.289959e-06	1.913113e-08	3.824442e+01	1.257253e+03
1.720000e-06	5.279077e-06	1.912124e-08	3.816574e+01	1.256131e+03
1.730000e-06	5.266387e-06	1.912523e-08	3.807400e+01	1.254805e+03
1.740000e-06	5.251712e-06	1.908031e-08	3.796790e+01	1.253291e+03
1.750000e-06	5.234939e-06	1.898198e-08	3.784664e+01	1.251617e+03
1.760000e-06	5.215772e-06	1.898608e-08	3.770807e+01	1.249823e+03
1.770000e-06	5.193977e-06	1.898910e-08	3.755050e+01	1.247943e+03
1.780000e-06	5.170220e-06	1.900719e-08	3.737875e+01	1.246008e+03
1.790000e-06	5.145507e-06	1.903161e-08	3.720008e+01	1.244029e+03
1.800000e-06	5.119949e-06	1.883254e-08	3.701531e+01	1.241998e+03
1.810000e-06	5.092688e-06	1.884776e-08	3.681822e+01	1.239889e+03
1.820000e-06	5.063343e-06	1.890948e-08	3.660607e+01	1.237666e+03
1.830000e-06	5.032291e-06	1.870323e-08	3.638157e+01	1.235284e+03
1.840000e-06	4.999394e-06	1.881495e-08	3.614374e+01	1.232704e+03
1.850000e-06	4.964686e-06	1.885255e-08	3.589281e+01	1.229898e+03
1.860000e-06	4.928475e-06	1.862853e-08	3.563102e+01	1.226853e+03
1.870000e-06	4.890378e-06	1.871883e-08	3.535559e+01	1.223570e+03
1.880000e-06	4.850441e-06	1.863321e-08	3.506686e+01	1.220063e+03
1.890000e-06	4.808854e-06	1.850959e-08	3.476620e+01	1.216347e+03
1.900000e-06	4.765527e-06	1.855375e-08	3.445297e+01	1.212439e+03
1.910000e-06	4.720626e-06	1.832958e-08	3.412835e+01	1.208343e+03
1.920000e-06	4.673876e-06	1.837605e-08	3.379037e+01	1.204058e+03
1.930000e-06	4.625303e-06	1.842463e-08	3.343920e+01	1.199568e+03
1.940000e-06	4.575136e-06	1.821391e-08	3.307652e+01	1.194855e+03
1.950000e-06	4.523058e-06	1.817511e-08	3.270001e+01	1.189896e+03
1.960000e-06	4.468973e-06	1.805463e-08	3.230900e+01	1.184677e+03
1.970000e-06	4.413114e-06	1.799836e-08	3.190515e+01	1.179188e+03
1.980000e-06	4.355584e-06	1.790917e-08	3.148924e+01	1.173433e+03
1.990000e-06	4.296568e-06	1.777735e-08	3.106257e+01	1.167421e+03
2.000000e-06	4.236187e-06	1.780433e-08	3.062604e+01	1.161167e+03
2.010000e-06	4.174219e-06	1.763639e-08	3.017803e+01	1.154685e+03
2.020000e-06	4.110499e-06	1.751038e-08	2.971737e+01	1.147983e+03
2.030000e-06	4.045296e-06	1.740749e-08	2.924597e+01	1.141060e+03
2.040000e-06	3.978792e-06	1.730795e-08	2.876517e+01	1.133907e+03
2.050000e-06	3.910972e-06	1.727154e-08	2.827486e+01	1.126505e+03
2.060000e-06	3.841702e-06	1.707800e-08	2.777406e+01	1.118832e+03
2.070000e-06	3.770811e-06	1.697396e-08	2.726155e+01	1.110864e+03
2.080000e-06	3.698571e-06	1.684010e-08	2.673928e+01	1.102584e+03
2.090000e-06	3.625110e-06	1.669004e-08	2.620818e+01	1.093975e+03
2.100000e-06	3.550322e-06	1.658537e-08	2.566750e+01	1.085030e+03
2.110000e-06	3.474219e-06	1.642786e-08	2.511730e+01	1.075743e+03
2.120000e-06	3.396590e-06	1.630904e-08	2.455607e+01	1.066108e+03
2.130000e-06	3.317511e-06	1.613200e-08	2.398436e+01	1.056118e+03
2.140000e-06	3.237276e-06	1.597920e-08	2.340429e+01	1.045759e+03
2.150000e-06	3.155997e-06	1.581797e-08	2.281668e+01	1.035011e+03
2.160000e-06	3.073641e-06	1.564795e-08	2.222127e+01	1.023853e+03
2.170000e-06	2.990266e-06	1.549167e-08	2.161850e+01	1.012258e+03
2.180000e-06	2.905986e-06	1.529122e-08	2.100919e+01	1.000202e+03
2.190000e-06	2.820491e-06	1.510097e-08	2.039109e+01	9.876631e+02
2.200000e-06	2.733649e-06	1.489699e-08	1.976325e+01	9.746211e+02
2.210000e-06	2.645803e-06	1.470351e-08	1.912816e+01	9.610584e+02
2.220000e-06	2.557137e-06	1.449156e-08	1.848714e+01	9.469563e+02
2.230000e-06	2.467577e-06	1.426335e-08	1.783966e+01	9.322912e+02
2.240000e-06	2.377159e-06	1.403527e-08	1.718596e+01	9.170327e+02
2.250000e-06	2.286029e-06	1.379778e-08	1.652713e+01	9.011418e+02
2.260000e-06	2.194236e-06	1.355216e-08	1.586350e+01	8.845714e+02
2.270000e-06	2.101745e-06	1.328086e-08	1.519483e+01	8.672695e+02
2.280000e-06	2.008404e-06	1.300413e-08	1.452000e+01	8.491824e+02
2.290000e-06	1.914019e-06	1.271273e-08	1.383764e+01	8.302594e+02
2.300000e-06	1.818721e-06	1.241149e-08	1.314867e+01	8.104548e+02
2.310000e-06	1.722822e-06	1.210104e-08	1.245536e+01	7.897293e+02
2.320000e-06	1.626467e-06	1.177588e-08	1.175874e+01	7.680480e+02
2.330000e-06	1.529667e-06	1.143148e-08	1.105891e+01	7.453770e+02
2.340000e-06	1.432343e-06	1.106437e-08	1.035530e+01	7.216788e+02
2.350000e-06	1.334503e-06	1.068278e-08	9.647953e+00	6.969086e+02
2.360000e-06	1.236195e-06	1.028977e-08	8.937228e+00	6.710137e+02
2.370000e-06	1.137532e-06	9.885520e-09	8.223928e+00	6.439357e+02
2.380000e-06	1.038649e-06	9.459153e-09	7.509041e+00	6.156166e+02
2.390000e-06	9.395348e-07	9.007189e-09	6.792483e+00	5.860092e+02
2.400000e-06	8.401653e-07	8.531272e-09	6.074079e+00	5.550878e+02
2.410000e-06	7.405676e-07	8.038428e-09	5.354025e+00	5.228595e+02
2.420000e-06	6.407302e-07	7.527503e-09	4.632239e+00	4.893721e+02
2.430000e-06	5.406074e-07	6.997264e-09	3.908388e+00	4.547174e+02
2.440000e-06	4.402913e-07	6.453253e-09	3.183140e+00	4.190287e+02
2.450000e-06	3.399043e-07	5.897343e-09	2.457380e+00	3.824726e+02
2.460000e-06	2.393415e-07	5.327737e-09	1.730349e+00	3.452351e+02
2.470000e-06	1.385910e-07	4.747041e-09	1.001961e+00	3.075054e+02
2.480000e-06	3.779467e-08	4.164039e-09	2.732412e-01	2.694586e+02
2.490000e-06	-6.303567e-08	3.580127e-09	-4.557242e-01	2.312395e+02
2.500000e-06	-1.638608e-07	2.993177e-09	-1.184652e+00	1.929504e+02
2.510000e-06	-2.646544e-07	2.404469e-09	-1.913352e+00	1.546434e+02
2.520000e-06	-3.653667e-07	1.817866e-09	-2.641464e+00	1.163180e+02
2.530000e-06	-4.659681e-07	1.230195e-09	-3.368774e+00	7.792490e+01
2.540000e-06	-5.664504e-07	6.378520e-10	-4.095224e+00	3.937406e+01
2.550000e-06	-6.666857e-07	4.010260e-11	-4.819887e+00	5.474075e-01
2.560000e-06	-7.665809e-07	-5.644824e-10	-5.542092e+00	-3.868531e+01
2.570000e-06	-8.661219e-07	-1.174218e-09	-6.261736e+00	-7.844877e+01
2.580000e-06	-9.653512e-07	-1.790109e-09	-6.979126e+00	-1.188437e+02
2.590000e-06	-1.064303e-06	-2.414680e-09	-7.694508e+00	-1.599291e+02
2.600000e-06	-1.162954e-06	-3.050284e-09	-8.407719e+00	-2.017079e+02
2.610000e-06	-1.261224e-06	-3.697280e-09	-9.118174e+00	-2.441159e+02
2.620000e-06	-1.359007e-06	-4.352679e-09	-9.825111e+00	-2.870175e+02
2.630000e-06	-1.456293e-06	-5.014266e-09	-1.052845e+01	-3.302086e+02
2.640000e-06	-1.553144e-06	-5.676017e-09	-1.122865e+01	-3.734266e+02
2.650000e-06	-1.649611e-06	-6.332885e-09	-1.192607e+01	-4.163674e+02
2.660000e-06	-1.745589e-06	-6.980684e-09	-1.261995e+01	-4.587079e+02
2.670000e-06	-1.840892e-06	-7.615198e-09	-1.330896e+01	-5.001312e+02
2.680000e-06	-1.935440e-06	-8.232511e-09	-1.399250e+01	-5.403499e+02
2.690000e-06	-2.029170e-06	-8.825119e-09	-1.467014e+01	-5.791269e+02
2.700000e-06	-2.122028e-06	-9.392615e-09	-1.534146e+01	-6.162888e+02
2.710000e-06	-2.213959e-06	-9.937180e-09	-1.600609e+01	-6.517309e+02
2.720000e-06	-2.305012e-06	-1.045588e-08	-1.666437e+01	-6.854141e+02
2.730000e-06	-2.395285e-06	-1.094522e-08	-1.731701e+01	-7.173547e+02
2.740000e-06	-2.484693e-06	-1.140789e-08	-1.796339e+01	-7.476093e+02
2.750000e-06	-2.573324e-06	-1.184563e-08	-1.860416e+01	-7.762584e+02
2.760000e-06	-2.661227e-06	-1.225994e-08	-1.923967e+01	-8.033909e+02
2.770000e-06	-2.748140e-06	-1.265470e-08	-1.986802e+01	-8.290929e+02
2.780000e-06	-2.833970e-06	-1.303005e-08	-2.048854e+01	-8.534416e+02
2.790000e-06	-2.918762e-06	-1.338463e-08	-2.110155e+01	-8.765035e+02
2.800000e-06	-3.002452e-06	-1.371742e-08	-2.170660e+01	-8.983371e+02
2.810000e-06	-3.085136e-06	-1.403104e-08	-2.230437e+01	-9.189979e+02
2.820000e-06	-3.166895e-06	-1.432823e-08	-2.289546e+01	-9.385427e+02
2.830000e-06	-3.247641e-06	-1.461154e-08	-2.347922e+01	-9.570326e+02
2.840000e-06	-3.327249e-06	-1.488212e-08	-2.405476e+01	-9.745337e+02
2.850000e-06	-3.405586e-06	-1.513868e-08	-2.462111e+01	-9.911152e+02
2.860000e-06	-3.482471e-06	-1.538119e-08	-2.517696e+01	-1.006845e+03
2.870000e-06	-3.557872e-06	-1.561185e-08	-2.572208e+01	-1.021787e+03
2.880000e-06	-3.631937e-06	-1.583167e-08	-2.625754e+01	-1.035995e+03
2.890000e-06	-3.704712e-06	-1.604065e-08	-2.678368e+01	-1.049515e+03
2.900000e-06	-3.776196e-06	-1.623903e-08	-2.730048e+01	-1.062383e+03
2.910000e-06	-3.846233e-06	-1.642702e-08	-2.780682e+01	-1.074626e+03
2.920000e-06	-3.914745e-06	-1.660651e-08	-2.830213e+01	-1.086270e+03
2.930000e-06	-3.981869e-06	-1.677681e-08	-2.878742e+01	-1.097337e+03
2.940000e-06	-4.047646e-06	-1.693811e-08	-2.926296e+01	-1.107853e+03
