# Temperatura_=_48.95
# Concentracion g/m^3_=_28200.0
# C_Vs_to_Am_M_A/Vsm_=_65563218390.804596
# pendiente_HvsI_1/m_=_3716.3
# ordenada_HvsI_A/m_=_1297.0
# frecuencia_Hz_=_301770.78083211026

Tiempo_(s)	Campo_(V.s)	Magnetizacion_(V.s)	Campo_(kA/m)	Magnetizacion_(A/m)
0.000000e+00	-5.306661e-06	-2.045537e-08	-3.829533e+01	-1.337975e+03
1.000000e-08	-5.304815e-06	-2.045219e-08	-3.828201e+01	-1.337668e+03
2.000000e-08	-5.301074e-06	-2.044162e-08	-3.825501e+01	-1.337235e+03
3.000000e-08	-5.295706e-06	-2.042875e-08	-3.821627e+01	-1.336674e+03
4.000000e-08	-5.288749e-06	-2.041703e-08	-3.816607e+01	-1.335970e+03
5.000000e-08	-5.280130e-06	-2.040224e-08	-3.810387e+01	-1.335099e+03
6.000000e-08	-5.269543e-06	-2.038450e-08	-3.802747e+01	-1.334039e+03
7.000000e-08	-5.256997e-06	-2.035877e-08	-3.793693e+01	-1.332770e+03
8.000000e-08	-5.242554e-06	-2.032323e-08	-3.783270e+01	-1.331286e+03
9.000000e-08	-5.225913e-06	-2.034914e-08	-3.771261e+01	-1.329594e+03
1.000000e-07	-5.207122e-06	-2.036538e-08	-3.757701e+01	-1.327719e+03
1.100000e-07	-5.186425e-06	-2.028267e-08	-3.742765e+01	-1.325695e+03
1.200000e-07	-5.163977e-06	-2.023045e-08	-3.726565e+01	-1.323561e+03
1.300000e-07	-5.139956e-06	-2.015920e-08	-3.709231e+01	-1.321352e+03
1.400000e-07	-5.114321e-06	-2.004775e-08	-3.690731e+01	-1.319090e+03
1.500000e-07	-5.087036e-06	-2.017222e-08	-3.671041e+01	-1.316780e+03
1.600000e-07	-5.058202e-06	-2.012468e-08	-3.650233e+01	-1.314407e+03
1.700000e-07	-5.027980e-06	-1.994525e-08	-3.628424e+01	-1.311939e+03
1.800000e-07	-4.996081e-06	-2.007064e-08	-3.605404e+01	-1.309333e+03
1.900000e-07	-4.962038e-06	-1.995811e-08	-3.580837e+01	-1.306542e+03
2.000000e-07	-4.926339e-06	-1.981681e-08	-3.555075e+01	-1.303525e+03
2.100000e-07	-4.889183e-06	-1.993660e-08	-3.528261e+01	-1.300251e+03
2.200000e-07	-4.850217e-06	-1.981158e-08	-3.500142e+01	-1.296706e+03
2.300000e-07	-4.809467e-06	-1.967567e-08	-3.470735e+01	-1.292888e+03
2.400000e-07	-4.766734e-06	-1.966099e-08	-3.439897e+01	-1.288808e+03
2.500000e-07	-4.722104e-06	-1.955266e-08	-3.407690e+01	-1.284482e+03
2.600000e-07	-4.675812e-06	-1.954461e-08	-3.374283e+01	-1.279925e+03
2.700000e-07	-4.627641e-06	-1.948497e-08	-3.339520e+01	-1.275147e+03
2.800000e-07	-4.577382e-06	-1.934406e-08	-3.303251e+01	-1.270151e+03
2.900000e-07	-4.525079e-06	-1.924548e-08	-3.265507e+01	-1.264927e+03
3.000000e-07	-4.471040e-06	-1.917601e-08	-3.226510e+01	-1.259464e+03
3.100000e-07	-4.415494e-06	-1.912634e-08	-3.186425e+01	-1.253746e+03
3.200000e-07	-4.358236e-06	-1.902240e-08	-3.145106e+01	-1.247757e+03
3.300000e-07	-4.299137e-06	-1.892961e-08	-3.102457e+01	-1.241491e+03
3.400000e-07	-4.238540e-06	-1.882966e-08	-3.058727e+01	-1.234943e+03
3.500000e-07	-4.176582e-06	-1.868623e-08	-3.014016e+01	-1.228119e+03
3.600000e-07	-4.113222e-06	-1.858036e-08	-2.968292e+01	-1.221026e+03
3.700000e-07	-4.048401e-06	-1.849426e-08	-2.921514e+01	-1.213673e+03
3.800000e-07	-3.981942e-06	-1.840724e-08	-2.873554e+01	-1.206063e+03
3.900000e-07	-3.913957e-06	-1.826828e-08	-2.824493e+01	-1.198195e+03
4.000000e-07	-3.844661e-06	-1.810700e-08	-2.774486e+01	-1.190062e+03
4.100000e-07	-3.774161e-06	-1.799619e-08	-2.723609e+01	-1.181646e+03
4.200000e-07	-3.702474e-06	-1.786694e-08	-2.671877e+01	-1.172930e+03
4.300000e-07	-3.629408e-06	-1.773255e-08	-2.619149e+01	-1.163891e+03
4.400000e-07	-3.554708e-06	-1.758738e-08	-2.565242e+01	-1.154508e+03
4.500000e-07	-3.478475e-06	-1.742695e-08	-2.510229e+01	-1.144762e+03
4.600000e-07	-3.400933e-06	-1.726137e-08	-2.454271e+01	-1.134639e+03
4.700000e-07	-3.322140e-06	-1.710442e-08	-2.397410e+01	-1.124127e+03
4.800000e-07	-3.242033e-06	-1.696133e-08	-2.339601e+01	-1.113214e+03
4.900000e-07	-3.160624e-06	-1.678337e-08	-2.280853e+01	-1.101889e+03
5.000000e-07	-3.078156e-06	-1.659305e-08	-2.221340e+01	-1.090140e+03
5.100000e-07	-2.994754e-06	-1.640290e-08	-2.161154e+01	-1.077948e+03
5.200000e-07	-2.910483e-06	-1.620577e-08	-2.100339e+01	-1.065293e+03
5.300000e-07	-2.825303e-06	-1.600263e-08	-2.038870e+01	-1.052152e+03
5.400000e-07	-2.739202e-06	-1.579683e-08	-1.976736e+01	-1.038496e+03
5.500000e-07	-2.652205e-06	-1.558066e-08	-1.913954e+01	-1.024298e+03
5.600000e-07	-2.564229e-06	-1.534462e-08	-1.850466e+01	-1.009528e+03
5.700000e-07	-2.475179e-06	-1.510636e-08	-1.786204e+01	-9.941527e+02
5.800000e-07	-2.384999e-06	-1.486793e-08	-1.721126e+01	-9.781399e+02
5.900000e-07	-2.293835e-06	-1.461923e-08	-1.655338e+01	-9.614527e+02
6.000000e-07	-2.201872e-06	-1.435254e-08	-1.588973e+01	-9.440511e+02
6.100000e-07	-2.109185e-06	-1.406843e-08	-1.522086e+01	-9.258915e+02
6.200000e-07	-2.015733e-06	-1.377427e-08	-1.454646e+01	-9.069272e+02
6.300000e-07	-1.921530e-06	-1.347196e-08	-1.386665e+01	-8.871090e+02
6.400000e-07	-1.826698e-06	-1.315848e-08	-1.318230e+01	-8.663861e+02
6.500000e-07	-1.731311e-06	-1.282843e-08	-1.249394e+01	-8.447069e+02
6.600000e-07	-1.635363e-06	-1.247784e-08	-1.180154e+01	-8.220193e+02
6.700000e-07	-1.538791e-06	-1.210854e-08	-1.110463e+01	-7.982702e+02
6.800000e-07	-1.441542e-06	-1.172553e-08	-1.040284e+01	-7.734046e+02
6.900000e-07	-1.343613e-06	-1.133022e-08	-9.696136e+00	-7.473657e+02
7.000000e-07	-1.245094e-06	-1.091974e-08	-8.985179e+00	-7.200943e+02
7.100000e-07	-1.146142e-06	-1.048678e-08	-8.271093e+00	-6.915320e+02
7.200000e-07	-1.046822e-06	-1.002692e-08	-7.554353e+00	-6.616246e+02
7.300000e-07	-9.471896e-07	-9.541547e-09	-6.835360e+00	-6.303287e+02
7.400000e-07	-8.473522e-07	-9.038836e-09	-6.114887e+00	-5.976205e+02
7.500000e-07	-7.473126e-07	-8.522386e-09	-5.392955e+00	-5.635038e+02
7.600000e-07	-6.470238e-07	-7.985332e-09	-4.669224e+00	-5.280181e+02
7.700000e-07	-5.465267e-07	-7.426056e-09	-3.943990e+00	-4.912437e+02
7.800000e-07	-4.458843e-07	-6.849883e-09	-3.217708e+00	-4.533024e+02
7.900000e-07	-3.451020e-07	-6.259665e-09	-2.490416e+00	-4.143536e+02
8.000000e-07	-2.442083e-07	-5.654009e-09	-1.762320e+00	-3.745842e+02
8.100000e-07	-1.431932e-07	-5.037320e-09	-1.033348e+00	-3.341947e+02
8.200000e-07	-4.204918e-08	-4.415621e-09	-3.034464e-01	-2.933810e+02
8.300000e-07	5.914548e-08	-3.788939e-09	4.268212e-01	-2.523166e+02
8.400000e-07	1.603180e-07	-3.159422e-09	1.156929e+00	-2.111347e+02
8.500000e-07	2.614487e-07	-2.533007e-09	1.886735e+00	-1.699156e+02
8.600000e-07	3.625376e-07	-1.909494e-09	2.616240e+00	-1.286786e+02
8.700000e-07	4.635077e-07	-1.284198e-09	3.344887e+00	-8.738222e+01
8.800000e-07	5.643104e-07	-6.543065e-10	4.072326e+00	-4.593170e+01
8.900000e-07	6.649044e-07	-1.862840e-11	4.798259e+00	-4.193003e+00
9.000000e-07	7.653027e-07	6.252206e-10	5.522779e+00	3.798694e+01
9.100000e-07	8.655307e-07	1.278537e-09	6.246071e+00	8.075696e+01
9.200000e-07	9.654953e-07	1.940150e-09	6.967462e+00	1.242375e+02
9.300000e-07	1.065169e-06	2.612136e-09	7.686756e+00	1.684983e+02
9.400000e-07	1.164564e-06	3.295726e-09	8.404037e+00	2.135411e+02
9.500000e-07	1.263648e-06	3.990295e-09	9.119069e+00	2.592889e+02
9.600000e-07	1.362258e-06	4.692281e-09	9.830688e+00	3.055830e+02
9.700000e-07	1.460126e-06	5.398647e-09	1.053695e+01	3.521896e+02
9.800000e-07	1.557086e-06	6.107027e-09	1.123666e+01	3.988132e+02
9.900000e-07	1.653271e-06	6.813144e-09	1.193077e+01	4.451184e+02
1.000000e-06	1.748867e-06	7.508498e-09	1.262064e+01	4.907536e+02
1.010000e-06	1.843905e-06	8.185619e-09	1.330647e+01	5.353778e+02
1.020000e-06	1.938300e-06	8.841846e-09	1.398767e+01	5.786845e+02
1.030000e-06	2.032024e-06	9.474680e-09	1.466403e+01	6.204211e+02
1.040000e-06	2.125087e-06	1.007905e-08	1.533562e+01	6.604016e+02
1.050000e-06	2.217403e-06	1.065253e-08	1.600181e+01	6.985109e+02
1.060000e-06	2.309050e-06	1.119820e-08	1.666318e+01	7.347023e+02
1.070000e-06	2.400083e-06	1.171711e-08	1.732011e+01	7.689874e+02
1.080000e-06	2.490201e-06	1.220909e-08	1.797045e+01	8.014221e+02
1.090000e-06	2.579073e-06	1.267581e-08	1.861179e+01	8.320908e+02
1.100000e-06	2.666877e-06	1.311799e-08	1.924542e+01	8.610910e+02
1.110000e-06	2.753860e-06	1.353540e-08	1.987313e+01	8.885220e+02
1.120000e-06	2.839924e-06	1.392835e-08	2.049421e+01	9.144760e+02
1.130000e-06	2.925042e-06	1.429901e-08	2.110846e+01	9.390353e+02
1.140000e-06	3.009271e-06	1.465006e-08	2.171630e+01	9.622727e+02
1.150000e-06	3.092683e-06	1.498434e-08	2.231824e+01	9.842544e+02
1.160000e-06	3.175091e-06	1.530128e-08	2.291293e+01	1.005044e+03
1.170000e-06	3.256183e-06	1.559892e-08	2.349813e+01	1.024706e+03
1.180000e-06	3.336060e-06	1.587989e-08	2.407456e+01	1.043306e+03
1.190000e-06	3.414788e-06	1.614675e-08	2.464270e+01	1.060915e+03
1.200000e-06	3.492289e-06	1.639946e-08	2.520197e+01	1.077600e+03
1.210000e-06	3.568604e-06	1.663854e-08	2.575270e+01	1.093429e+03
1.220000e-06	3.643637e-06	1.686592e-08	2.629417e+01	1.108462e+03
1.230000e-06	3.717076e-06	1.708184e-08	2.682414e+01	1.122753e+03
1.240000e-06	3.788947e-06	1.728677e-08	2.734280e+01	1.136347e+03
1.250000e-06	3.859459e-06	1.748059e-08	2.785164e+01	1.149283e+03
1.260000e-06	3.928617e-06	1.766407e-08	2.835072e+01	1.161595e+03
1.270000e-06	3.996533e-06	1.783843e-08	2.884083e+01	1.173311e+03
1.280000e-06	4.063082e-06	1.800495e-08	2.932109e+01	1.184463e+03
1.290000e-06	4.127929e-06	1.816662e-08	2.978905e+01	1.195076e+03
1.300000e-06	4.191129e-06	1.832311e-08	3.024513e+01	1.205177e+03
1.310000e-06	4.252876e-06	1.847165e-08	3.069073e+01	1.214789e+03
1.320000e-06	4.313304e-06	1.861216e-08	3.112680e+01	1.223928e+03
1.330000e-06	4.372440e-06	1.874466e-08	3.155356e+01	1.232608e+03
1.340000e-06	4.429856e-06	1.886916e-08	3.196789e+01	1.240833e+03
1.350000e-06	4.485449e-06	1.898668e-08	3.236908e+01	1.248609e+03
1.360000e-06	4.539468e-06	1.909718e-08	3.275891e+01	1.255939e+03
1.370000e-06	4.591836e-06	1.919941e-08	3.313682e+01	1.262831e+03
1.380000e-06	4.642225e-06	1.929447e-08	3.350045e+01	1.269302e+03
1.390000e-06	4.690603e-06	1.938631e-08	3.384957e+01	1.275375e+03
1.400000e-06	4.737267e-06	1.947465e-08	3.418632e+01	1.281086e+03
1.410000e-06	4.782341e-06	1.955865e-08	3.451159e+01	1.286473e+03
1.420000e-06	4.825909e-06	1.963816e-08	3.482600e+01	1.291578e+03
1.430000e-06	4.867663e-06	1.971110e-08	3.512731e+01	1.296434e+03
1.440000e-06	4.907538e-06	1.977900e-08	3.541507e+01	1.301066e+03
1.450000e-06	4.945819e-06	1.984287e-08	3.569133e+01	1.305484e+03
1.460000e-06	4.982530e-06	1.990483e-08	3.595625e+01	1.309684e+03
1.470000e-06	5.017621e-06	1.996579e-08	3.620948e+01	1.313652e+03
1.480000e-06	5.050755e-06	2.002400e-08	3.644859e+01	1.317365e+03
1.490000e-06	5.081948e-06	2.007729e-08	3.667370e+01	1.320803e+03
1.500000e-06	5.111481e-06	2.012508e-08	3.688682e+01	1.323950e+03
1.510000e-06	5.139412e-06	2.016841e-08	3.708838e+01	1.326803e+03
1.520000e-06	5.165456e-06	2.020622e-08	3.727633e+01	1.329371e+03
1.530000e-06	5.189409e-06	2.023976e-08	3.744918e+01	1.331671e+03
1.540000e-06	5.211509e-06	2.026901e-08	3.760867e+01	1.333728e+03
1.550000e-06	5.231967e-06	2.029503e-08	3.775630e+01	1.335568e+03
1.560000e-06	5.250694e-06	2.031915e-08	3.789144e+01	1.337212e+03
1.570000e-06	5.267419e-06	2.034101e-08	3.801214e+01	1.338670e+03
1.580000e-06	5.282147e-06	2.036179e-08	3.811842e+01	1.339946e+03
1.590000e-06	5.294969e-06	2.037916e-08	3.821095e+01	1.341032e+03
1.600000e-06	5.305632e-06	2.039148e-08	3.828790e+01	1.341921e+03
1.610000e-06	5.314107e-06	2.040049e-08	3.834906e+01	1.342604e+03
1.620000e-06	5.320690e-06	2.040690e-08	3.839657e+01	1.343080e+03
1.630000e-06	5.325494e-06	2.041220e-08	3.843124e+01	1.343355e+03
1.640000e-06	5.328498e-06	2.041582e-08	3.845292e+01	1.343446e+03
1.650000e-06	5.329480e-06	2.041867e-08	3.846000e+01	1.343371e+03
1.660000e-06	5.328541e-06	2.041671e-08	3.845322e+01	1.343153e+03
1.670000e-06	5.325947e-06	2.040826e-08	3.843451e+01	1.342804e+03
1.680000e-06	5.321735e-06	2.040309e-08	3.840411e+01	1.342330e+03
1.690000e-06	5.315700e-06	2.039560e-08	3.836056e+01	1.341724e+03
1.700000e-06	5.307812e-06	2.038336e-08	3.830364e+01	1.340968e+03
1.710000e-06	5.298351e-06	2.036994e-08	3.823536e+01	1.340039e+03
1.720000e-06	5.287318e-06	2.036135e-08	3.815574e+01	1.338912e+03
1.730000e-06	5.274463e-06	2.036983e-08	3.806297e+01	1.337573e+03
1.740000e-06	5.259606e-06	2.029675e-08	3.795576e+01	1.336020e+03
1.750000e-06	5.242570e-06	2.020563e-08	3.783282e+01	1.334265e+03
1.760000e-06	5.223012e-06	2.022563e-08	3.769168e+01	1.332337e+03
1.770000e-06	5.200872e-06	2.021134e-08	3.753190e+01	1.330273e+03
1.780000e-06	5.176918e-06	2.026316e-08	3.735904e+01	1.328110e+03
1.790000e-06	5.152133e-06	2.024320e-08	3.718018e+01	1.325882e+03
1.800000e-06	5.126449e-06	2.000731e-08	3.699483e+01	1.323604e+03
1.810000e-06	5.098928e-06	2.011352e-08	3.679623e+01	1.321275e+03
1.820000e-06	5.069391e-06	2.012736e-08	3.658308e+01	1.318875e+03
1.830000e-06	5.038218e-06	1.991549e-08	3.635812e+01	1.316367e+03
1.840000e-06	5.005125e-06	2.009799e-08	3.611930e+01	1.313705e+03
1.850000e-06	4.970211e-06	2.003196e-08	3.586735e+01	1.310845e+03
1.860000e-06	4.933783e-06	1.980244e-08	3.560446e+01	1.307747e+03
1.870000e-06	4.895418e-06	1.992038e-08	3.532761e+01	1.304386e+03
1.880000e-06	4.855267e-06	1.982255e-08	3.503786e+01	1.300752e+03
1.890000e-06	4.813458e-06	1.979015e-08	3.473615e+01	1.296847e+03
1.900000e-06	4.769904e-06	1.979085e-08	3.442184e+01	1.292686e+03
1.910000e-06	4.724769e-06	1.953618e-08	3.409613e+01	1.288283e+03
1.920000e-06	4.677737e-06	1.960679e-08	3.375672e+01	1.283653e+03
1.930000e-06	4.628919e-06	1.958162e-08	3.340443e+01	1.278805e+03
1.940000e-06	4.578460e-06	1.943042e-08	3.304029e+01	1.273735e+03
1.950000e-06	4.526000e-06	1.939408e-08	3.266172e+01	1.268436e+03
1.960000e-06	4.471641e-06	1.925456e-08	3.226944e+01	1.262892e+03
1.970000e-06	4.415506e-06	1.923135e-08	3.186434e+01	1.257087e+03
1.980000e-06	4.357688e-06	1.907311e-08	3.144710e+01	1.251009e+03
1.990000e-06	4.298452e-06	1.895544e-08	3.101963e+01	1.244651e+03
2.000000e-06	4.237860e-06	1.898892e-08	3.058236e+01	1.238013e+03
2.010000e-06	4.175725e-06	1.881226e-08	3.013397e+01	1.231101e+03
2.020000e-06	4.111839e-06	1.868708e-08	2.967294e+01	1.223922e+03
2.030000e-06	4.046377e-06	1.854598e-08	2.920053e+01	1.216485e+03
2.040000e-06	3.979568e-06	1.845727e-08	2.871841e+01	1.208792e+03
2.050000e-06	3.911420e-06	1.838512e-08	2.822662e+01	1.200840e+03
2.060000e-06	3.841746e-06	1.819620e-08	2.772382e+01	1.192616e+03
2.070000e-06	3.770495e-06	1.810831e-08	2.720965e+01	1.184106e+03
2.080000e-06	3.697999e-06	1.795490e-08	2.668648e+01	1.175288e+03
2.090000e-06	3.624330e-06	1.781386e-08	2.615484e+01	1.166139e+03
2.100000e-06	3.549358e-06	1.768942e-08	2.561382e+01	1.156640e+03
2.110000e-06	3.472989e-06	1.753296e-08	2.506270e+01	1.146774e+03
2.120000e-06	3.395069e-06	1.739122e-08	2.450039e+01	1.136526e+03
2.130000e-06	3.315740e-06	1.719396e-08	2.392792e+01	1.125885e+03
2.140000e-06	3.235250e-06	1.704071e-08	2.334707e+01	1.114841e+03
2.150000e-06	3.153658e-06	1.686362e-08	2.275826e+01	1.103380e+03
2.160000e-06	3.071006e-06	1.668783e-08	2.216180e+01	1.091490e+03
2.170000e-06	2.987415e-06	1.651926e-08	2.155857e+01	1.079151e+03
2.180000e-06	2.902838e-06	1.631671e-08	2.094823e+01	1.066342e+03
2.190000e-06	2.817041e-06	1.611096e-08	2.032908e+01	1.053037e+03
2.200000e-06	2.729977e-06	1.589348e-08	1.970078e+01	1.039209e+03
2.210000e-06	2.641897e-06	1.569425e-08	1.906515e+01	1.024830e+03
2.220000e-06	2.552972e-06	1.546760e-08	1.842343e+01	1.009868e+03
2.230000e-06	2.463141e-06	1.522252e-08	1.777517e+01	9.942907e+02
2.240000e-06	2.372489e-06	1.496811e-08	1.712098e+01	9.780644e+02
2.250000e-06	2.281162e-06	1.471176e-08	1.646192e+01	9.611512e+02
2.260000e-06	2.189149e-06	1.445235e-08	1.579791e+01	9.435100e+02
2.270000e-06	2.096331e-06	1.417356e-08	1.512810e+01	9.250962e+02
2.280000e-06	2.002560e-06	1.388627e-08	1.445140e+01	9.058620e+02
2.290000e-06	1.907816e-06	1.357905e-08	1.376768e+01	8.857577e+02
2.300000e-06	1.812275e-06	1.325678e-08	1.307822e+01	8.647323e+02
2.310000e-06	1.716197e-06	1.292063e-08	1.238488e+01	8.427338e+02
2.320000e-06	1.619668e-06	1.257482e-08	1.168827e+01	8.197100e+02
2.330000e-06	1.522668e-06	1.221302e-08	1.098828e+01	7.956072e+02
2.340000e-06	1.425114e-06	1.182595e-08	1.028429e+01	7.703700e+02
2.350000e-06	1.326996e-06	1.141725e-08	9.576217e+00	7.439405e+02
2.360000e-06	1.228449e-06	1.099629e-08	8.865059e+00	7.162597e+02
2.370000e-06	1.129602e-06	1.056439e-08	8.151734e+00	6.872697e+02
2.380000e-06	1.030533e-06	1.011039e-08	7.436802e+00	6.569190e+02
2.390000e-06	9.311758e-07	9.628227e-09	6.719797e+00	6.251698e+02
2.400000e-06	8.315105e-07	9.117589e-09	6.000566e+00	5.920061e+02
2.410000e-06	7.316411e-07	8.584364e-09	5.279862e+00	5.574423e+02
2.420000e-06	6.315923e-07	8.030226e-09	4.557863e+00	5.215307e+02
2.430000e-06	5.313213e-07	7.459024e-09	3.834261e+00	4.843651e+02
2.440000e-06	4.308915e-07	6.875639e-09	3.109513e+00	4.460802e+02
2.450000e-06	3.303791e-07	6.280608e-09	2.384169e+00	4.068454e+02
2.460000e-06	2.297388e-07	5.671872e-09	1.657902e+00	3.668538e+02
2.470000e-06	1.289543e-07	5.053003e-09	9.305942e-01	3.263064e+02
2.480000e-06	2.806429e-08	4.429504e-09	2.025249e-01	2.853940e+02
2.490000e-06	-7.285446e-08	3.800964e-09	-5.257516e-01	2.442788e+02
2.500000e-06	-1.737219e-07	3.168834e-09	-1.253658e+00	2.030782e+02
2.510000e-06	-2.744898e-07	2.536048e-09	-1.980845e+00	1.618533e+02
2.520000e-06	-3.751834e-07	1.904455e-09	-2.707497e+00	1.206036e+02
2.530000e-06	-4.757584e-07	1.272718e-09	-3.433294e+00	7.926947e+01
2.540000e-06	-5.761638e-07	6.388542e-10	-4.157865e+00	3.774144e+01
2.550000e-06	-6.764294e-07	1.809083e-13	-4.881428e+00	-4.122962e+00
2.560000e-06	-7.764985e-07	-6.456041e-10	-5.603573e+00	-4.647809e+01
2.570000e-06	-8.763189e-07	-1.300821e-09	-6.323924e+00	-8.946621e+01
2.580000e-06	-9.758359e-07	-1.968887e-09	-7.042084e+00	-1.331937e+02
2.590000e-06	-1.075004e-06	-2.650678e-09	-7.757727e+00	-1.777102e+02
2.600000e-06	-1.173894e-06	-3.346185e-09	-8.471366e+00	-2.229929e+02
2.610000e-06	-1.272420e-06	-4.051032e-09	-9.182374e+00	-2.689382e+02
2.620000e-06	-1.370428e-06	-4.762496e-09	-9.889647e+00	-3.153625e+02
2.630000e-06	-1.467886e-06	-5.477699e-09	-1.059295e+01	-3.620100e+02
2.640000e-06	-1.564794e-06	-6.189176e-09	-1.129228e+01	-4.085700e+02
2.650000e-06	-1.661200e-06	-6.893298e-09	-1.198799e+01	-4.546990e+02
2.660000e-06	-1.757182e-06	-7.587472e-09	-1.268064e+01	-5.000461e+02
2.670000e-06	-1.852711e-06	-8.267640e-09	-1.337002e+01	-5.442789e+02
2.680000e-06	-1.947495e-06	-8.926231e-09	-1.405403e+01	-5.871063e+02
2.690000e-06	-2.041265e-06	-9.556942e-09	-1.473071e+01	-6.282962e+02
2.700000e-06	-2.134002e-06	-1.016090e-08	-1.539995e+01	-6.676851e+02
2.710000e-06	-2.225961e-06	-1.073876e-08	-1.606356e+01	-7.051809e+02
2.720000e-06	-2.317207e-06	-1.128785e-08	-1.672204e+01	-7.407568e+02
2.730000e-06	-2.407592e-06	-1.180621e-08	-1.737430e+01	-7.744402e+02
2.740000e-06	-2.497047e-06	-1.229404e-08	-1.801985e+01	-8.062979e+02
2.750000e-06	-2.585654e-06	-1.275533e-08	-1.865928e+01	-8.364202e+02
2.760000e-06	-2.673626e-06	-1.319116e-08	-1.929413e+01	-8.649063e+02
2.770000e-06	-2.760869e-06	-1.360231e-08	-1.992371e+01	-8.918538e+02
2.780000e-06	-2.846866e-06	-1.399419e-08	-2.054431e+01	-9.173519e+02
2.790000e-06	-2.931505e-06	-1.436654e-08	-2.115510e+01	-9.414796e+02
2.800000e-06	-3.015187e-06	-1.471679e-08	-2.175899e+01	-9.643073e+02
2.810000e-06	-3.097983e-06	-1.504714e-08	-2.235648e+01	-9.858997e+02
2.820000e-06	-3.179763e-06	-1.535937e-08	-2.294665e+01	-1.006320e+03
2.830000e-06	-3.260508e-06	-1.565567e-08	-2.352934e+01	-1.025635e+03
2.840000e-06	-3.340193e-06	-1.593704e-08	-2.410439e+01	-1.043909e+03
2.850000e-06	-3.418571e-06	-1.620281e-08	-2.466999e+01	-1.061215e+03
2.860000e-06	-3.495453e-06	-1.645443e-08	-2.522481e+01	-1.077618e+03
2.870000e-06	-3.570920e-06	-1.669417e-08	-2.576942e+01	-1.093186e+03
2.880000e-06	-3.645019e-06	-1.692286e-08	-2.630415e+01	-1.107976e+03
2.890000e-06	-3.717818e-06	-1.714100e-08	-2.682950e+01	-1.122039e+03
2.900000e-06	-3.789373e-06	-1.734900e-08	-2.734588e+01	-1.135419e+03
2.910000e-06	-3.859375e-06	-1.754599e-08	-2.785104e+01	-1.148152e+03
2.920000e-06	-3.927774e-06	-1.773443e-08	-2.834464e+01	-1.160269e+03
2.930000e-06	-3.994889e-06	-1.791361e-08	-2.882898e+01	-1.171802e+03
2.940000e-06	-4.060691e-06	-1.808156e-08	-2.930383e+01	-1.182779e+03
