# Temperatura_=_38.79
# Concentracion g/m^3_=_28200.0
# C_Vs_to_Am_M_A/Vsm_=_65563218390.804596
# pendiente_HvsI_1/m_=_3716.3
# ordenada_HvsI_A/m_=_1297.0
# frecuencia_Hz_=_301774.93675876554

Tiempo_(s)	Campo_(V.s)	Magnetizacion_(V.s)	Campo_(kA/m)	Magnetizacion_(A/m)
0.000000e+00	-5.309309e-06	-1.839766e-08	-3.829013e+01	-1.202589e+03
1.000000e-08	-5.307527e-06	-1.839639e-08	-3.827728e+01	-1.202298e+03
2.000000e-08	-5.303874e-06	-1.838726e-08	-3.825093e+01	-1.201890e+03
3.000000e-08	-5.298592e-06	-1.837480e-08	-3.821284e+01	-1.201359e+03
4.000000e-08	-5.291707e-06	-1.836330e-08	-3.816318e+01	-1.200693e+03
5.000000e-08	-5.283191e-06	-1.834792e-08	-3.810177e+01	-1.199867e+03
6.000000e-08	-5.272689e-06	-1.832806e-08	-3.802603e+01	-1.198862e+03
7.000000e-08	-5.260195e-06	-1.830271e-08	-3.793593e+01	-1.197660e+03
8.000000e-08	-5.245855e-06	-1.826891e-08	-3.783251e+01	-1.196259e+03
9.000000e-08	-5.229363e-06	-1.829330e-08	-3.771356e+01	-1.194672e+03
1.000000e-07	-5.210670e-06	-1.831203e-08	-3.757875e+01	-1.192927e+03
1.100000e-07	-5.189985e-06	-1.823360e-08	-3.742958e+01	-1.191062e+03
1.200000e-07	-5.167480e-06	-1.818112e-08	-3.726727e+01	-1.189118e+03
1.300000e-07	-5.143466e-06	-1.811737e-08	-3.709409e+01	-1.187131e+03
1.400000e-07	-5.117964e-06	-1.801945e-08	-3.691017e+01	-1.185120e+03
1.500000e-07	-5.090768e-06	-1.813568e-08	-3.671404e+01	-1.183086e+03
1.600000e-07	-5.061989e-06	-1.809172e-08	-3.650649e+01	-1.181009e+03
1.700000e-07	-5.031833e-06	-1.792106e-08	-3.628900e+01	-1.178849e+03
1.800000e-07	-4.999979e-06	-1.803050e-08	-3.605927e+01	-1.176555e+03
1.900000e-07	-4.965915e-06	-1.792164e-08	-3.581361e+01	-1.174075e+03
2.000000e-07	-4.930150e-06	-1.780078e-08	-3.555568e+01	-1.171360e+03
2.100000e-07	-4.892965e-06	-1.792773e-08	-3.528750e+01	-1.168378e+03
2.200000e-07	-4.854044e-06	-1.781754e-08	-3.500681e+01	-1.165113e+03
2.300000e-07	-4.813376e-06	-1.771119e-08	-3.471351e+01	-1.161566e+03
2.400000e-07	-4.770749e-06	-1.769645e-08	-3.440610e+01	-1.157754e+03
2.500000e-07	-4.726219e-06	-1.756252e-08	-3.408495e+01	-1.153702e+03
2.600000e-07	-4.679953e-06	-1.754851e-08	-3.375128e+01	-1.149436e+03
2.700000e-07	-4.631797e-06	-1.749775e-08	-3.340399e+01	-1.144978e+03
2.800000e-07	-4.581569e-06	-1.736876e-08	-3.304175e+01	-1.140339e+03
2.900000e-07	-4.529284e-06	-1.729202e-08	-3.266468e+01	-1.135521e+03
3.000000e-07	-4.475268e-06	-1.722076e-08	-3.227512e+01	-1.130518e+03
3.100000e-07	-4.419727e-06	-1.716530e-08	-3.187456e+01	-1.125316e+03
3.200000e-07	-4.362474e-06	-1.708617e-08	-3.146166e+01	-1.119899e+03
3.300000e-07	-4.303396e-06	-1.700504e-08	-3.103560e+01	-1.114251e+03
3.400000e-07	-4.242814e-06	-1.690459e-08	-3.059869e+01	-1.108362e+03
3.500000e-07	-4.180835e-06	-1.678202e-08	-3.015170e+01	-1.102223e+03
3.600000e-07	-4.117445e-06	-1.668927e-08	-2.969454e+01	-1.095833e+03
3.700000e-07	-4.052624e-06	-1.659374e-08	-2.922706e+01	-1.089190e+03
3.800000e-07	-3.986166e-06	-1.651845e-08	-2.874777e+01	-1.082291e+03
3.900000e-07	-3.918204e-06	-1.640561e-08	-2.825764e+01	-1.075133e+03
4.000000e-07	-3.848923e-06	-1.625438e-08	-2.775799e+01	-1.067711e+03
4.100000e-07	-3.778372e-06	-1.615232e-08	-2.724919e+01	-1.060016e+03
4.200000e-07	-3.706700e-06	-1.603499e-08	-2.673229e+01	-1.052036e+03
4.300000e-07	-3.633743e-06	-1.590997e-08	-2.620614e+01	-1.043761e+03
4.400000e-07	-3.559152e-06	-1.577541e-08	-2.566820e+01	-1.035179e+03
4.500000e-07	-3.482993e-06	-1.562739e-08	-2.511894e+01	-1.026279e+03
4.600000e-07	-3.405543e-06	-1.547236e-08	-2.456039e+01	-1.017050e+03
4.700000e-07	-3.326727e-06	-1.532480e-08	-2.399197e+01	-1.007481e+03
4.800000e-07	-3.246457e-06	-1.519621e-08	-2.341308e+01	-9.975586e+02
4.900000e-07	-3.164995e-06	-1.504250e-08	-2.282558e+01	-9.872661e+02
5.000000e-07	-3.082455e-06	-1.487659e-08	-2.223031e+01	-9.765852e+02
5.100000e-07	-2.998935e-06	-1.470108e-08	-2.162797e+01	-9.654945e+02
5.200000e-07	-2.914562e-06	-1.451667e-08	-2.101949e+01	-9.539711e+02
5.300000e-07	-2.829273e-06	-1.432845e-08	-2.040440e+01	-9.419914e+02
5.400000e-07	-2.743061e-06	-1.413737e-08	-1.978264e+01	-9.295318e+02
5.500000e-07	-2.655944e-06	-1.394092e-08	-1.915437e+01	-9.165690e+02
5.600000e-07	-2.568001e-06	-1.372712e-08	-1.852013e+01	-9.030791e+02
5.700000e-07	-2.479075e-06	-1.350504e-08	-1.787880e+01	-8.890369e+02
5.800000e-07	-2.388857e-06	-1.328213e-08	-1.722816e+01	-8.744142e+02
5.900000e-07	-2.297603e-06	-1.305575e-08	-1.657005e+01	-8.591788e+02
6.000000e-07	-2.205657e-06	-1.281906e-08	-1.590695e+01	-8.432940e+02
6.100000e-07	-2.112978e-06	-1.256690e-08	-1.523856e+01	-8.267194e+02
6.200000e-07	-2.019503e-06	-1.229851e-08	-1.456442e+01	-8.094121e+02
6.300000e-07	-1.925220e-06	-1.201689e-08	-1.388446e+01	-7.913286e+02
6.400000e-07	-1.830245e-06	-1.172535e-08	-1.319952e+01	-7.724263e+02
6.500000e-07	-1.734801e-06	-1.142432e-08	-1.251119e+01	-7.526650e+02
6.600000e-07	-1.638950e-06	-1.110781e-08	-1.181992e+01	-7.320065e+02
6.700000e-07	-1.542501e-06	-1.077382e-08	-1.112434e+01	-7.104134e+02
6.800000e-07	-1.445250e-06	-1.042757e-08	-1.042298e+01	-6.878470e+02
6.900000e-07	-1.347229e-06	-1.006769e-08	-9.716060e+00	-6.642656e+02
7.000000e-07	-1.248576e-06	-9.691760e-09	-9.004584e+00	-6.396234e+02
7.100000e-07	-1.149449e-06	-9.299245e-09	-8.289696e+00	-6.138718e+02
7.200000e-07	-1.050013e-06	-8.887494e-09	-7.572570e+00	-5.869628e+02
7.300000e-07	-9.503221e-07	-8.454157e-09	-6.853614e+00	-5.588559e+02
7.400000e-07	-8.504002e-07	-8.002069e-09	-6.132989e+00	-5.295261e+02
7.500000e-07	-7.502780e-07	-7.536660e-09	-5.410919e+00	-4.989730e+02
7.600000e-07	-6.499618e-07	-7.053848e-09	-4.687450e+00	-4.672290e+02
7.700000e-07	-5.494161e-07	-6.551664e-09	-3.962326e+00	-4.343646e+02
7.800000e-07	-4.486301e-07	-6.036406e-09	-3.235469e+00	-4.004889e+02
7.900000e-07	-3.477112e-07	-5.508976e-09	-2.507654e+00	-3.657459e+02
8.000000e-07	-2.467336e-07	-4.969089e-09	-1.779414e+00	-3.303048e+02
8.100000e-07	-1.456639e-07	-4.422097e-09	-1.050511e+00	-2.943461e+02
8.200000e-07	-4.446778e-08	-3.871129e-09	-3.206965e-01	-2.580460e+02
8.300000e-07	5.680292e-08	-3.315839e-09	4.096561e-01	-2.215587e+02
8.400000e-07	1.580524e-07	-2.756681e-09	1.139856e+00	-1.850017e+02
8.500000e-07	2.592340e-07	-2.198618e-09	1.869566e+00	-1.484447e+02
8.600000e-07	3.603257e-07	-1.645107e-09	2.598628e+00	-1.119032e+02
8.700000e-07	4.613000e-07	-1.093377e-09	3.326843e+00	-7.534002e+01
8.800000e-07	5.621838e-07	-5.391073e-10	4.054405e+00	-3.867109e+01
8.900000e-07	6.628862e-07	2.144723e-11	4.780659e+00	-1.778774e+00
9.000000e-07	7.633516e-07	5.889333e-10	5.505204e+00	3.547143e+01
9.100000e-07	8.636420e-07	1.165095e-09	6.228487e+00	7.321122e+01
9.200000e-07	9.636795e-07	1.749068e-09	6.949946e+00	1.115492e+02
9.300000e-07	1.063456e-06	2.340364e-09	7.669520e+00	1.505525e+02
9.400000e-07	1.162977e-06	2.941709e-09	8.387254e+00	1.902311e+02
9.500000e-07	1.262160e-06	3.554366e-09	9.102552e+00	2.305289e+02
9.600000e-07	1.360869e-06	4.175158e-09	9.814433e+00	2.713195e+02
9.700000e-07	1.458857e-06	4.801386e-09	1.052111e+01	3.124109e+02
9.800000e-07	1.555934e-06	5.427235e-09	1.122122e+01	3.535560e+02
9.900000e-07	1.652240e-06	6.048213e-09	1.191577e+01	3.944695e+02
1.000000e-06	1.747969e-06	6.660823e-09	1.260615e+01	4.348491e+02
1.010000e-06	1.843175e-06	7.260596e-09	1.329277e+01	4.743979e+02
1.020000e-06	1.937765e-06	7.844411e-09	1.397494e+01	5.128466e+02
1.030000e-06	2.031621e-06	8.408719e-09	1.465181e+01	5.499713e+02
1.040000e-06	2.124750e-06	8.951059e-09	1.532345e+01	5.856055e+02
1.050000e-06	2.217174e-06	9.466528e-09	1.599001e+01	6.196454e+02
1.060000e-06	2.308992e-06	9.954425e-09	1.665219e+01	6.520477e+02
1.070000e-06	2.400141e-06	1.041751e-08	1.730954e+01	6.828205e+02
1.080000e-06	2.490276e-06	1.085712e-08	1.795959e+01	7.120107e+02
1.090000e-06	2.579158e-06	1.127712e-08	1.860059e+01	7.396885e+02
1.100000e-06	2.666999e-06	1.167697e-08	1.923409e+01	7.659340e+02
1.110000e-06	2.754069e-06	1.205880e-08	1.986203e+01	7.908253e+02
1.120000e-06	2.840259e-06	1.242058e-08	2.048362e+01	8.144322e+02
1.130000e-06	2.925424e-06	1.276168e-08	2.109782e+01	8.368142e+02
1.140000e-06	3.009710e-06	1.308221e-08	2.170568e+01	8.580220e+02
1.150000e-06	3.093188e-06	1.338422e-08	2.230772e+01	8.781029e+02
1.160000e-06	3.175598e-06	1.367100e-08	2.290205e+01	8.971049e+02
1.170000e-06	3.256745e-06	1.394255e-08	2.348727e+01	9.150817e+02
1.180000e-06	3.336664e-06	1.420059e-08	2.406364e+01	9.320938e+02
1.190000e-06	3.415457e-06	1.444438e-08	2.463188e+01	9.482075e+02
1.200000e-06	3.493104e-06	1.467576e-08	2.519186e+01	9.634919e+02
1.210000e-06	3.569531e-06	1.489587e-08	2.574305e+01	9.780136e+02
1.220000e-06	3.644634e-06	1.510511e-08	2.628468e+01	9.918322e+02
1.230000e-06	3.718136e-06	1.530380e-08	2.681477e+01	1.004997e+03
1.240000e-06	3.790068e-06	1.549304e-08	2.733354e+01	1.017544e+03
1.250000e-06	3.860614e-06	1.567165e-08	2.784230e+01	1.029501e+03
1.260000e-06	3.929817e-06	1.584172e-08	2.834139e+01	1.040885e+03
1.270000e-06	3.997775e-06	1.600282e-08	2.883150e+01	1.051712e+03
1.280000e-06	4.064287e-06	1.615621e-08	2.931117e+01	1.061994e+03
1.290000e-06	4.129106e-06	1.630394e-08	2.977864e+01	1.071749e+03
1.300000e-06	4.192410e-06	1.644553e-08	3.023518e+01	1.080996e+03
1.310000e-06	4.254296e-06	1.658098e-08	3.068150e+01	1.089758e+03
1.320000e-06	4.314837e-06	1.670962e-08	3.111811e+01	1.098058e+03
1.330000e-06	4.374016e-06	1.683053e-08	3.154490e+01	1.105917e+03
1.340000e-06	4.431462e-06	1.694309e-08	3.195920e+01	1.113356e+03
1.350000e-06	4.487148e-06	1.704933e-08	3.236079e+01	1.120391e+03
1.360000e-06	4.541268e-06	1.714814e-08	3.275111e+01	1.127036e+03
1.370000e-06	4.593707e-06	1.723939e-08	3.312929e+01	1.133309e+03
1.380000e-06	4.644126e-06	1.732601e-08	3.349290e+01	1.139226e+03
1.390000e-06	4.692535e-06	1.740940e-08	3.384203e+01	1.144810e+03
1.400000e-06	4.739271e-06	1.749054e-08	3.417908e+01	1.150087e+03
1.410000e-06	4.784468e-06	1.756887e-08	3.450504e+01	1.155087e+03
1.420000e-06	4.828148e-06	1.764394e-08	3.482005e+01	1.159836e+03
1.430000e-06	4.870005e-06	1.771425e-08	3.512192e+01	1.164358e+03
1.440000e-06	4.909971e-06	1.777935e-08	3.541015e+01	1.168667e+03
1.450000e-06	4.948310e-06	1.783945e-08	3.568665e+01	1.172767e+03
1.460000e-06	4.985070e-06	1.789557e-08	3.595175e+01	1.176649e+03
1.470000e-06	5.020149e-06	1.794829e-08	3.620474e+01	1.180299e+03
1.480000e-06	5.053283e-06	1.799854e-08	3.644370e+01	1.183699e+03
1.490000e-06	5.084542e-06	1.804605e-08	3.666913e+01	1.186832e+03
1.500000e-06	5.114167e-06	1.808969e-08	3.688278e+01	1.189689e+03
1.510000e-06	5.142175e-06	1.812945e-08	3.708478e+01	1.192272e+03
1.520000e-06	5.168251e-06	1.816426e-08	3.727283e+01	1.194593e+03
1.530000e-06	5.192226e-06	1.819510e-08	3.744574e+01	1.196675e+03
1.540000e-06	5.214344e-06	1.822196e-08	3.760525e+01	1.198543e+03
1.550000e-06	5.234817e-06	1.824630e-08	3.775290e+01	1.200221e+03
1.560000e-06	5.253567e-06	1.826836e-08	3.788812e+01	1.201729e+03
1.570000e-06	5.270307e-06	1.828745e-08	3.800885e+01	1.203075e+03
1.580000e-06	5.285054e-06	1.830457e-08	3.811521e+01	1.204259e+03
1.590000e-06	5.297937e-06	1.831959e-08	3.820812e+01	1.205272e+03
1.600000e-06	5.308686e-06	1.833245e-08	3.828563e+01	1.206103e+03
1.610000e-06	5.317218e-06	1.834190e-08	3.834717e+01	1.206741e+03
1.620000e-06	5.323858e-06	1.834959e-08	3.839506e+01	1.207186e+03
1.630000e-06	5.328735e-06	1.835555e-08	3.843022e+01	1.207442e+03
1.640000e-06	5.331786e-06	1.835829e-08	3.845223e+01	1.207523e+03
1.650000e-06	5.332863e-06	1.836074e-08	3.846000e+01	1.207450e+03
1.660000e-06	5.332044e-06	1.835862e-08	3.845409e+01	1.207242e+03
1.670000e-06	5.329552e-06	1.835069e-08	3.843612e+01	1.206912e+03
1.680000e-06	5.325460e-06	1.834638e-08	3.840660e+01	1.206465e+03
1.690000e-06	5.319513e-06	1.833893e-08	3.836372e+01	1.205892e+03
1.700000e-06	5.311667e-06	1.832842e-08	3.830713e+01	1.205176e+03
1.710000e-06	5.302227e-06	1.831721e-08	3.823906e+01	1.204294e+03
1.720000e-06	5.291206e-06	1.830912e-08	3.815957e+01	1.203226e+03
1.730000e-06	5.278313e-06	1.831786e-08	3.806659e+01	1.201959e+03
1.740000e-06	5.263402e-06	1.825067e-08	3.795905e+01	1.200496e+03
1.750000e-06	5.246401e-06	1.816208e-08	3.783644e+01	1.198853e+03
1.760000e-06	5.226928e-06	1.818320e-08	3.769600e+01	1.197064e+03
1.770000e-06	5.204847e-06	1.817408e-08	3.753676e+01	1.195169e+03
1.780000e-06	5.180882e-06	1.822014e-08	3.736393e+01	1.193207e+03
1.790000e-06	5.156061e-06	1.820276e-08	3.718492e+01	1.191209e+03
1.800000e-06	5.130408e-06	1.797617e-08	3.699992e+01	1.189191e+03
1.810000e-06	5.102875e-06	1.808131e-08	3.680135e+01	1.187146e+03
1.820000e-06	5.073207e-06	1.810543e-08	3.658739e+01	1.185046e+03
1.830000e-06	5.041910e-06	1.789302e-08	3.636167e+01	1.182849e+03
1.840000e-06	5.008781e-06	1.806876e-08	3.612276e+01	1.180500e+03
1.850000e-06	4.973947e-06	1.801119e-08	3.587154e+01	1.177948e+03
1.860000e-06	4.937620e-06	1.777802e-08	3.560955e+01	1.175150e+03
1.870000e-06	4.899338e-06	1.788529e-08	3.533346e+01	1.172076e+03
1.880000e-06	4.859282e-06	1.776565e-08	3.504458e+01	1.168719e+03
1.890000e-06	4.817552e-06	1.773928e-08	3.474363e+01	1.165084e+03
1.900000e-06	4.774050e-06	1.778012e-08	3.442990e+01	1.161191e+03
1.910000e-06	4.728912e-06	1.753121e-08	3.410437e+01	1.157067e+03
1.920000e-06	4.681846e-06	1.759662e-08	3.376494e+01	1.152736e+03
1.930000e-06	4.632995e-06	1.756826e-08	3.341263e+01	1.148217e+03
1.940000e-06	4.582508e-06	1.741214e-08	3.304853e+01	1.143521e+03
1.950000e-06	4.530059e-06	1.739762e-08	3.267026e+01	1.138644e+03
1.960000e-06	4.475646e-06	1.726121e-08	3.227785e+01	1.133578e+03
1.970000e-06	4.419466e-06	1.724759e-08	3.187268e+01	1.128308e+03
1.980000e-06	4.361682e-06	1.712057e-08	3.145595e+01	1.122817e+03
1.990000e-06	4.302438e-06	1.699597e-08	3.102869e+01	1.117091e+03
2.000000e-06	4.241761e-06	1.702089e-08	3.059110e+01	1.111122e+03
2.010000e-06	4.179454e-06	1.686088e-08	3.014174e+01	1.104902e+03
2.020000e-06	4.115431e-06	1.676360e-08	2.968002e+01	1.098430e+03
2.030000e-06	4.049971e-06	1.662825e-08	2.920793e+01	1.091703e+03
2.040000e-06	3.983205e-06	1.653976e-08	2.872642e+01	1.084721e+03
2.050000e-06	3.915086e-06	1.648443e-08	2.823515e+01	1.077479e+03
2.060000e-06	3.845423e-06	1.629990e-08	2.773275e+01	1.069969e+03
2.070000e-06	3.774225e-06	1.622626e-08	2.721928e+01	1.062183e+03
2.080000e-06	3.701816e-06	1.608891e-08	2.669707e+01	1.054109e+03
2.090000e-06	3.628148e-06	1.595993e-08	2.616579e+01	1.045735e+03
2.100000e-06	3.553089e-06	1.584880e-08	2.562447e+01	1.037051e+03
2.110000e-06	3.476565e-06	1.570532e-08	2.507259e+01	1.028046e+03
2.120000e-06	3.398495e-06	1.558682e-08	2.450956e+01	1.018709e+03
2.130000e-06	3.319118e-06	1.540038e-08	2.393710e+01	1.009027e+03
2.140000e-06	3.238640e-06	1.525357e-08	2.335670e+01	9.989860e+02
2.150000e-06	3.157076e-06	1.509014e-08	2.276847e+01	9.885701e+02
2.160000e-06	3.074449e-06	1.493301e-08	2.217258e+01	9.777590e+02
2.170000e-06	2.990866e-06	1.478232e-08	2.156978e+01	9.665310e+02
2.180000e-06	2.906262e-06	1.460270e-08	2.095963e+01	9.548627e+02
2.190000e-06	2.820286e-06	1.442553e-08	2.033958e+01	9.427305e+02
2.200000e-06	2.733022e-06	1.422182e-08	1.971024e+01	9.301109e+02
2.210000e-06	2.644837e-06	1.403250e-08	1.907426e+01	9.169805e+02
2.220000e-06	2.555845e-06	1.382823e-08	1.843246e+01	9.033152e+02
2.230000e-06	2.465975e-06	1.361452e-08	1.778433e+01	8.890888e+02
2.240000e-06	2.375232e-06	1.338361e-08	1.712990e+01	8.742720e+02
2.250000e-06	2.283815e-06	1.314201e-08	1.647061e+01	8.588312e+02
2.260000e-06	2.191820e-06	1.289774e-08	1.580716e+01	8.427285e+02
2.270000e-06	2.099001e-06	1.263979e-08	1.513775e+01	8.259224e+02
2.280000e-06	2.005064e-06	1.238217e-08	1.446029e+01	8.083695e+02
2.290000e-06	1.910129e-06	1.210817e-08	1.377563e+01	7.900265e+02
2.300000e-06	1.814549e-06	1.181876e-08	1.308632e+01	7.708516e+02
2.310000e-06	1.718494e-06	1.150997e-08	1.239358e+01	7.508052e+02
2.320000e-06	1.621937e-06	1.118938e-08	1.169722e+01	7.298495e+02
2.330000e-06	1.524853e-06	1.085760e-08	1.099707e+01	7.079471e+02
2.340000e-06	1.427219e-06	1.050943e-08	1.029294e+01	6.850584e+02
2.350000e-06	1.329056e-06	1.014489e-08	9.585002e+00	6.611404e+02
2.360000e-06	1.230426e-06	9.765190e-09	8.873693e+00	6.361462e+02
2.370000e-06	1.131468e-06	9.373802e-09	8.160018e+00	6.100267e+02
2.380000e-06	1.032273e-06	8.964167e-09	7.444634e+00	5.827358e+02
2.390000e-06	9.328327e-07	8.533939e-09	6.727482e+00	5.542367e+02
2.400000e-06	8.332071e-07	8.080851e-09	6.008994e+00	5.245114e+02
2.410000e-06	7.334052e-07	7.608118e-09	5.289234e+00	4.935695e+02
2.420000e-06	6.334023e-07	7.115322e-09	4.568025e+00	4.614550e+02
2.430000e-06	5.332576e-07	6.603495e-09	3.845793e+00	4.282510e+02
2.440000e-06	4.329845e-07	6.078729e-09	3.122634e+00	3.940786e+02
2.450000e-06	3.325193e-07	5.544868e-09	2.398091e+00	3.590910e+02
2.460000e-06	2.318809e-07	5.001371e-09	1.672298e+00	3.234629e+02
2.470000e-06	1.310520e-07	4.451286e-09	9.451322e-01	2.873752e+02
2.480000e-06	3.006608e-08	3.900500e-09	2.168331e-01	2.509988e+02
2.490000e-06	-7.092027e-08	3.346115e-09	-5.114689e-01	2.144776e+02
2.500000e-06	-1.718314e-07	2.785931e-09	-1.239228e+00	1.779147e+02
2.510000e-06	-2.726619e-07	2.222054e-09	-1.966406e+00	1.413627e+02
2.520000e-06	-3.734091e-07	1.659251e-09	-2.692984e+00	1.048200e+02
2.530000e-06	-4.740315e-07	1.097350e-09	-3.418661e+00	6.823308e+01
2.540000e-06	-5.744782e-07	5.347934e-10	-4.143071e+00	3.150555e+01
2.550000e-06	-6.746889e-07	-2.939504e-11	-4.865779e+00	-5.487672e+00
2.560000e-06	-7.746886e-07	-5.982782e-10	-5.586965e+00	-4.288240e+01
2.570000e-06	-8.744548e-07	-1.177078e-09	-6.306468e+00	-8.080509e+01
2.580000e-06	-9.739230e-07	-1.767349e-09	-7.023821e+00	-1.193529e+02
2.590000e-06	-1.073142e-06	-2.366825e-09	-7.739377e+00	-1.585760e+02
2.600000e-06	-1.172119e-06	-2.976658e-09	-8.453186e+00	-1.984640e+02
2.610000e-06	-1.270709e-06	-3.596041e-09	-9.164210e+00	-2.389380e+02
2.620000e-06	-1.368754e-06	-4.223727e-09	-9.871294e+00	-2.798500e+02
2.630000e-06	-1.466244e-06	-4.856250e-09	-1.057439e+01	-3.209886e+02
2.640000e-06	-1.563212e-06	-5.486241e-09	-1.127371e+01	-3.620925e+02
2.650000e-06	-1.659688e-06	-6.109030e-09	-1.196948e+01	-4.028683e+02
2.660000e-06	-1.755687e-06	-6.722714e-09	-1.266181e+01	-4.430132e+02
2.670000e-06	-1.851198e-06	-7.323206e-09	-1.335063e+01	-4.822367e+02
2.680000e-06	-1.946107e-06	-7.906250e-09	-1.403510e+01	-5.202825e+02
2.690000e-06	-2.040109e-06	-8.469068e-09	-1.471303e+01	-5.569441e+02
2.700000e-06	-2.132996e-06	-9.010594e-09	-1.538292e+01	-5.920749e+02
2.710000e-06	-2.224967e-06	-9.526728e-09	-1.604621e+01	-6.255913e+02
2.720000e-06	-2.316246e-06	-1.001591e-08	-1.670450e+01	-6.574677e+02
2.730000e-06	-2.406778e-06	-1.048123e-08	-1.735741e+01	-6.877260e+02
2.740000e-06	-2.496446e-06	-1.092306e-08	-1.800408e+01	-7.164225e+02
2.750000e-06	-2.585156e-06	-1.134076e-08	-1.864385e+01	-7.436320e+02
2.760000e-06	-2.673046e-06	-1.173715e-08	-1.927770e+01	-7.694348e+02
2.770000e-06	-2.760233e-06	-1.211344e-08	-1.990649e+01	-7.939069e+02
2.780000e-06	-2.846407e-06	-1.246754e-08	-2.052796e+01	-8.171149e+02
2.790000e-06	-2.931285e-06	-1.280187e-08	-2.114009e+01	-8.391150e+02
2.800000e-06	-3.015031e-06	-1.311906e-08	-2.174406e+01	-8.599564e+02
2.810000e-06	-3.097869e-06	-1.342081e-08	-2.234148e+01	-8.796858e+02
2.820000e-06	-3.179768e-06	-1.370918e-08	-2.293212e+01	-8.983529e+02
2.830000e-06	-3.260643e-06	-1.398264e-08	-2.351539e+01	-9.160135e+02
2.840000e-06	-3.340409e-06	-1.424012e-08	-2.409065e+01	-9.327302e+02
2.850000e-06	-3.418856e-06	-1.448280e-08	-2.465640e+01	-9.485707e+02
2.860000e-06	-3.495759e-06	-1.471255e-08	-2.521101e+01	-9.636037e+02
2.870000e-06	-3.571228e-06	-1.493298e-08	-2.575528e+01	-9.778942e+02
2.880000e-06	-3.645396e-06	-1.514379e-08	-2.629018e+01	-9.914985e+02
2.890000e-06	-3.718257e-06	-1.534484e-08	-2.681564e+01	-1.004462e+03
2.900000e-06	-3.789889e-06	-1.553644e-08	-2.733224e+01	-1.016818e+03
2.910000e-06	-3.860121e-06	-1.571879e-08	-2.783875e+01	-1.028590e+03
2.920000e-06	-3.928755e-06	-1.589267e-08	-2.833373e+01	-1.039794e+03
2.930000e-06	-3.995957e-06	-1.605620e-08	-2.881838e+01	-1.050445e+03
2.940000e-06	-4.061806e-06	-1.621096e-08	-2.929328e+01	-1.060557e+03
