# Temperatura_=_67.87
# Concentracion g/m^3_=_28200.0
# C_Vs_to_Am_M_A/Vsm_=_65563218390.804596
# pendiente_HvsI_1/m_=_3716.3
# ordenada_HvsI_A/m_=_1297.0
# frecuencia_Hz_=_301766.1440930871

Tiempo_(s)	Campo_(V.s)	Magnetizacion_(V.s)	Campo_(kA/m)	Magnetizacion_(A/m)
0.000000e+00	-5.296610e-06	-2.233999e-08	-3.829566e+01	-1.460803e+03
1.000000e-08	-5.294725e-06	-2.233757e-08	-3.828203e+01	-1.460443e+03
2.000000e-08	-5.290946e-06	-2.232559e-08	-3.825471e+01	-1.459937e+03
3.000000e-08	-5.285509e-06	-2.231186e-08	-3.821539e+01	-1.459273e+03
4.000000e-08	-5.278507e-06	-2.229907e-08	-3.816477e+01	-1.458430e+03
5.000000e-08	-5.269859e-06	-2.228038e-08	-3.810225e+01	-1.457381e+03
6.000000e-08	-5.259213e-06	-2.225657e-08	-3.802527e+01	-1.456101e+03
7.000000e-08	-5.246630e-06	-2.222558e-08	-3.793429e+01	-1.454575e+03
8.000000e-08	-5.232156e-06	-2.218246e-08	-3.782964e+01	-1.452804e+03
9.000000e-08	-5.215413e-06	-2.221784e-08	-3.770859e+01	-1.450810e+03
1.000000e-07	-5.196505e-06	-2.223673e-08	-3.757188e+01	-1.448630e+03
1.100000e-07	-5.175754e-06	-2.214296e-08	-3.742184e+01	-1.446315e+03
1.200000e-07	-5.153231e-06	-2.208835e-08	-3.725900e+01	-1.443914e+03
1.300000e-07	-5.129150e-06	-2.199714e-08	-3.708488e+01	-1.441470e+03
1.400000e-07	-5.103547e-06	-2.186647e-08	-3.689977e+01	-1.439004e+03
1.500000e-07	-5.076298e-06	-2.202964e-08	-3.670275e+01	-1.436514e+03
1.600000e-07	-5.047495e-06	-2.195218e-08	-3.649450e+01	-1.433970e+03
1.700000e-07	-5.017285e-06	-2.176074e-08	-3.627607e+01	-1.431320e+03
1.800000e-07	-4.985405e-06	-2.192073e-08	-3.604558e+01	-1.428500e+03
1.900000e-07	-4.951381e-06	-2.174553e-08	-3.579958e+01	-1.425441e+03
2.000000e-07	-4.915684e-06	-2.160679e-08	-3.554148e+01	-1.422086e+03
2.100000e-07	-4.878507e-06	-2.174678e-08	-3.527268e+01	-1.418395e+03
2.200000e-07	-4.839521e-06	-2.155817e-08	-3.499081e+01	-1.414350e+03
2.300000e-07	-4.798773e-06	-2.143415e-08	-3.469619e+01	-1.409956e+03
2.400000e-07	-4.756091e-06	-2.143413e-08	-3.438759e+01	-1.405238e+03
2.500000e-07	-4.711544e-06	-2.129490e-08	-3.406550e+01	-1.400228e+03
2.600000e-07	-4.665296e-06	-2.131847e-08	-3.373112e+01	-1.394960e+03
2.700000e-07	-4.617216e-06	-2.122817e-08	-3.338349e+01	-1.389460e+03
2.800000e-07	-4.567141e-06	-2.104354e-08	-3.302143e+01	-1.383739e+03
2.900000e-07	-4.515012e-06	-2.094948e-08	-3.264454e+01	-1.377795e+03
3.000000e-07	-4.461058e-06	-2.087814e-08	-3.225443e+01	-1.371613e+03
3.100000e-07	-4.405551e-06	-2.081786e-08	-3.185310e+01	-1.365171e+03
3.200000e-07	-4.348322e-06	-2.071063e-08	-3.143932e+01	-1.358446e+03
3.300000e-07	-4.289335e-06	-2.060980e-08	-3.101284e+01	-1.351419e+03
3.400000e-07	-4.228837e-06	-2.047597e-08	-3.057542e+01	-1.344081e+03
3.500000e-07	-4.166882e-06	-2.031680e-08	-3.012747e+01	-1.336432e+03
3.600000e-07	-4.103582e-06	-2.020907e-08	-2.966981e+01	-1.328481e+03
3.700000e-07	-4.038898e-06	-2.010766e-08	-2.920212e+01	-1.320239e+03
3.800000e-07	-3.972603e-06	-2.001469e-08	-2.872279e+01	-1.311716e+03
3.900000e-07	-3.904709e-06	-1.985825e-08	-2.823191e+01	-1.302916e+03
4.000000e-07	-3.835460e-06	-1.966882e-08	-2.773122e+01	-1.293833e+03
4.100000e-07	-3.764946e-06	-1.955045e-08	-2.722139e+01	-1.284453e+03
4.200000e-07	-3.693292e-06	-1.940981e-08	-2.670331e+01	-1.274751e+03
4.300000e-07	-3.620410e-06	-1.926351e-08	-2.617636e+01	-1.264702e+03
4.400000e-07	-3.545910e-06	-1.910033e-08	-2.563771e+01	-1.254277e+03
4.500000e-07	-3.469857e-06	-1.892402e-08	-2.508783e+01	-1.243452e+03
4.600000e-07	-3.392532e-06	-1.874326e-08	-2.452876e+01	-1.232209e+03
4.700000e-07	-3.313872e-06	-1.856826e-08	-2.396002e+01	-1.220536e+03
4.800000e-07	-3.233765e-06	-1.840821e-08	-2.338084e+01	-1.208425e+03
4.900000e-07	-3.152402e-06	-1.820670e-08	-2.279256e+01	-1.195869e+03
5.000000e-07	-3.069973e-06	-1.799888e-08	-2.219658e+01	-1.182860e+03
5.100000e-07	-2.986608e-06	-1.778873e-08	-2.159383e+01	-1.169384e+03
5.200000e-07	-2.902336e-06	-1.757289e-08	-2.098453e+01	-1.155420e+03
5.300000e-07	-2.817143e-06	-1.735234e-08	-2.036856e+01	-1.140942e+03
5.400000e-07	-2.731036e-06	-1.712608e-08	-1.974599e+01	-1.125915e+03
5.500000e-07	-2.644027e-06	-1.688881e-08	-1.911690e+01	-1.110305e+03
5.600000e-07	-2.556204e-06	-1.663084e-08	-1.848192e+01	-1.094074e+03
5.700000e-07	-2.467429e-06	-1.636988e-08	-1.784006e+01	-1.077186e+03
5.800000e-07	-2.377475e-06	-1.610772e-08	-1.718967e+01	-1.059606e+03
5.900000e-07	-2.286423e-06	-1.583580e-08	-1.653135e+01	-1.041300e+03
6.000000e-07	-2.194531e-06	-1.554071e-08	-1.586694e+01	-1.022236e+03
6.100000e-07	-2.101933e-06	-1.522914e-08	-1.519744e+01	-1.002377e+03
6.200000e-07	-2.008670e-06	-1.491008e-08	-1.452313e+01	-9.816820e+02
6.300000e-07	-1.914646e-06	-1.458167e-08	-1.384331e+01	-9.601032e+02
6.400000e-07	-1.819914e-06	-1.424172e-08	-1.315838e+01	-9.375860e+02
6.500000e-07	-1.724677e-06	-1.388466e-08	-1.246979e+01	-9.140685e+02
6.600000e-07	-1.628900e-06	-1.350413e-08	-1.177730e+01	-8.894833e+02
6.700000e-07	-1.532552e-06	-1.310271e-08	-1.108069e+01	-8.637590e+02
6.800000e-07	-1.435604e-06	-1.268999e-08	-1.037973e+01	-8.368221e+02
6.900000e-07	-1.338032e-06	-1.226395e-08	-9.674268e+00	-8.085995e+02
7.000000e-07	-1.239834e-06	-1.181973e-08	-8.964273e+00	-7.790207e+02
7.100000e-07	-1.141089e-06	-1.134989e-08	-8.250327e+00	-7.480204e+02
7.200000e-07	-1.041955e-06	-1.084927e-08	-7.533563e+00	-7.155421e+02
7.300000e-07	-9.425037e-07	-1.032100e-08	-6.814509e+00	-6.815427e+02
7.400000e-07	-8.427475e-07	-9.774416e-09	-6.093250e+00	-6.459984e+02
7.500000e-07	-7.427234e-07	-9.213538e-09	-5.370054e+00	-6.089116e+02
7.600000e-07	-6.424902e-07	-8.630541e-09	-4.645346e+00	-5.703170e+02
7.700000e-07	-5.420792e-07	-8.021828e-09	-3.919352e+00	-5.302880e+02
7.800000e-07	-4.415332e-07	-7.391319e-09	-3.192382e+00	-4.889382e+02
7.900000e-07	-3.408967e-07	-6.743384e-09	-2.464758e+00	-4.464209e+02
8.000000e-07	-2.401646e-07	-6.078667e-09	-1.736443e+00	-4.029213e+02
8.100000e-07	-1.393086e-07	-5.405043e-09	-1.007232e+00	-3.586448e+02
8.200000e-07	-3.841444e-08	-4.725788e-09	-2.777449e-01	-3.137993e+02
8.300000e-07	6.250188e-08	-4.040559e-09	4.519024e-01	-2.685755e+02
8.400000e-07	1.634824e-07	-3.350572e-09	1.182014e+00	-2.231262e+02
8.500000e-07	2.644469e-07	-2.659148e-09	1.912009e+00	-1.775487e+02
8.600000e-07	3.652814e-07	-1.967811e-09	2.641065e+00	-1.318728e+02
8.700000e-07	4.660180e-07	-1.270487e-09	3.369413e+00	-8.605810e+01
8.800000e-07	5.666590e-07	-5.680169e-10	4.097069e+00	-4.000002e+01
8.900000e-07	6.671300e-07	1.418101e-10	4.823497e+00	6.452882e+00
9.000000e-07	7.674464e-07	8.596454e-10	5.548807e+00	5.347386e+01
9.100000e-07	8.675757e-07	1.586092e-09	6.272763e+00	1.012273e+02
9.200000e-07	9.674457e-07	2.322842e-09	6.994846e+00	1.498366e+02
9.300000e-07	1.067051e-06	3.072912e-09	7.715016e+00	1.993552e+02
9.400000e-07	1.166343e-06	3.839181e-09	8.432916e+00	2.497453e+02
9.500000e-07	1.265138e-06	4.617924e-09	9.147226e+00	3.008668e+02
9.600000e-07	1.363291e-06	5.404076e-09	9.856895e+00	3.524793e+02
9.700000e-07	1.460721e-06	6.193690e-09	1.056134e+01	4.042563e+02
9.800000e-07	1.557436e-06	6.982781e-09	1.126060e+01	4.558099e+02
9.900000e-07	1.653544e-06	7.762976e-09	1.195549e+01	5.067230e+02
1.000000e-06	1.749065e-06	8.523688e-09	1.264612e+01	5.565833e+02
1.010000e-06	1.843949e-06	9.257104e-09	1.333216e+01	6.050167e+02
1.020000e-06	1.938184e-06	9.962755e-09	1.401350e+01	6.517126e+02
1.030000e-06	2.031753e-06	1.063878e-08	1.469002e+01	6.964417e+02
1.040000e-06	2.124631e-06	1.128241e-08	1.536155e+01	7.390615e+02
1.050000e-06	2.216837e-06	1.189475e-08	1.602822e+01	7.795129e+02
1.060000e-06	2.308415e-06	1.247599e-08	1.669035e+01	8.178074e+02
1.070000e-06	2.399202e-06	1.302808e-08	1.734676e+01	8.540094e+02
1.080000e-06	2.488886e-06	1.354772e-08	1.799519e+01	8.882161e+02
1.090000e-06	2.577471e-06	1.403878e-08	1.863568e+01	9.205402e+02
1.100000e-06	2.665175e-06	1.450247e-08	1.926980e+01	9.510949e+02
1.110000e-06	2.752040e-06	1.494078e-08	1.989785e+01	9.799859e+02
1.120000e-06	2.837976e-06	1.535565e-08	2.051919e+01	1.007308e+03
1.130000e-06	2.922984e-06	1.574627e-08	2.113382e+01	1.033145e+03
1.140000e-06	3.007195e-06	1.611465e-08	2.174268e+01	1.057577e+03
1.150000e-06	3.090516e-06	1.646304e-08	2.234511e+01	1.080682e+03
1.160000e-06	3.172657e-06	1.679554e-08	2.293901e+01	1.102537e+03
1.170000e-06	3.253592e-06	1.711205e-08	2.352419e+01	1.123225e+03
1.180000e-06	3.333361e-06	1.741123e-08	2.410093e+01	1.142829e+03
1.190000e-06	3.411879e-06	1.769326e-08	2.466863e+01	1.161428e+03
1.200000e-06	3.489181e-06	1.796035e-08	2.522754e+01	1.179098e+03
1.210000e-06	3.565290e-06	1.821384e-08	2.577784e+01	1.195902e+03
1.220000e-06	3.640021e-06	1.845574e-08	2.631815e+01	1.211895e+03
1.230000e-06	3.713166e-06	1.868485e-08	2.684701e+01	1.227119e+03
1.240000e-06	3.784844e-06	1.890294e-08	2.736526e+01	1.241609e+03
1.250000e-06	3.855167e-06	1.910932e-08	2.787370e+01	1.255398e+03
1.260000e-06	3.924138e-06	1.930459e-08	2.837238e+01	1.268516e+03
1.270000e-06	3.991898e-06	1.949026e-08	2.886230e+01	1.280998e+03
1.280000e-06	4.058163e-06	1.966896e-08	2.934141e+01	1.292882e+03
1.290000e-06	4.122721e-06	1.984238e-08	2.980818e+01	1.304209e+03
1.300000e-06	4.185764e-06	2.000921e-08	3.026400e+01	1.315016e+03
1.310000e-06	4.247392e-06	2.016829e-08	3.070958e+01	1.325338e+03
1.320000e-06	4.307747e-06	2.031946e-08	3.114596e+01	1.335198e+03
1.330000e-06	4.366682e-06	2.046302e-08	3.157207e+01	1.344609e+03
1.340000e-06	4.423839e-06	2.059918e-08	3.198533e+01	1.353572e+03
1.350000e-06	4.479302e-06	2.072775e-08	3.238634e+01	1.362082e+03
1.360000e-06	4.533198e-06	2.084768e-08	3.277602e+01	1.370132e+03
1.370000e-06	4.585288e-06	2.095937e-08	3.315264e+01	1.377718e+03
1.380000e-06	4.635317e-06	2.106522e-08	3.351437e+01	1.384847e+03
1.390000e-06	4.683429e-06	2.116783e-08	3.386222e+01	1.391537e+03
1.400000e-06	4.729878e-06	2.126538e-08	3.419806e+01	1.397821e+03
1.410000e-06	4.774817e-06	2.135769e-08	3.452298e+01	1.403738e+03
1.420000e-06	4.818280e-06	2.144440e-08	3.483723e+01	1.409334e+03
1.430000e-06	4.859841e-06	2.152414e-08	3.513772e+01	1.414648e+03
1.440000e-06	4.899545e-06	2.159982e-08	3.542479e+01	1.419712e+03
1.450000e-06	4.937671e-06	2.167225e-08	3.570045e+01	1.424540e+03
1.460000e-06	4.974243e-06	2.174077e-08	3.596487e+01	1.429133e+03
1.470000e-06	5.009127e-06	2.180528e-08	3.621709e+01	1.433478e+03
1.480000e-06	5.042091e-06	2.186618e-08	3.645543e+01	1.437555e+03
1.490000e-06	5.073284e-06	2.192324e-08	3.668096e+01	1.441341e+03
1.500000e-06	5.102777e-06	2.197663e-08	3.689420e+01	1.444819e+03
1.510000e-06	5.130641e-06	2.202661e-08	3.709567e+01	1.447984e+03
1.520000e-06	5.156579e-06	2.207157e-08	3.728320e+01	1.450841e+03
1.530000e-06	5.180394e-06	2.211050e-08	3.745539e+01	1.453406e+03
1.540000e-06	5.202359e-06	2.214291e-08	3.761420e+01	1.455699e+03
1.550000e-06	5.222692e-06	2.217183e-08	3.776121e+01	1.457744e+03
1.560000e-06	5.241348e-06	2.219802e-08	3.789610e+01	1.459560e+03
1.570000e-06	5.257999e-06	2.222124e-08	3.801649e+01	1.461157e+03
1.580000e-06	5.272644e-06	2.224197e-08	3.812238e+01	1.462538e+03
1.590000e-06	5.285355e-06	2.225930e-08	3.821428e+01	1.463700e+03
1.600000e-06	5.295874e-06	2.227470e-08	3.829034e+01	1.464638e+03
1.610000e-06	5.304226e-06	2.228736e-08	3.835072e+01	1.465347e+03
1.620000e-06	5.310717e-06	2.229629e-08	3.839766e+01	1.465832e+03
1.630000e-06	5.315474e-06	2.230168e-08	3.843205e+01	1.466104e+03
1.640000e-06	5.318413e-06	2.230428e-08	3.845330e+01	1.466180e+03
1.650000e-06	5.319340e-06	2.230652e-08	3.846000e+01	1.466081e+03
1.660000e-06	5.318378e-06	2.230239e-08	3.845304e+01	1.465826e+03
1.670000e-06	5.315736e-06	2.229077e-08	3.843394e+01	1.465424e+03
1.680000e-06	5.311501e-06	2.228413e-08	3.840332e+01	1.464873e+03
1.690000e-06	5.305416e-06	2.227548e-08	3.835933e+01	1.464160e+03
1.700000e-06	5.297469e-06	2.226229e-08	3.830187e+01	1.463260e+03
1.710000e-06	5.287997e-06	2.224655e-08	3.823338e+01	1.462146e+03
1.720000e-06	5.276928e-06	2.223456e-08	3.815335e+01	1.460796e+03
1.730000e-06	5.263959e-06	2.224666e-08	3.805959e+01	1.459198e+03
1.740000e-06	5.249015e-06	2.215270e-08	3.795153e+01	1.457359e+03
1.750000e-06	5.231987e-06	2.205054e-08	3.782842e+01	1.455307e+03
1.760000e-06	5.212455e-06	2.207756e-08	3.768720e+01	1.453082e+03
1.770000e-06	5.190349e-06	2.205356e-08	3.752736e+01	1.450736e+03
1.780000e-06	5.166397e-06	2.213024e-08	3.735419e+01	1.448319e+03
1.790000e-06	5.141581e-06	2.209813e-08	3.717476e+01	1.445866e+03
1.800000e-06	5.115933e-06	2.181007e-08	3.698932e+01	1.443394e+03
1.810000e-06	5.088378e-06	2.196828e-08	3.679009e+01	1.440892e+03
1.820000e-06	5.058653e-06	2.196029e-08	3.657517e+01	1.438323e+03
1.830000e-06	5.027382e-06	2.171629e-08	3.634908e+01	1.435630e+03
1.840000e-06	4.994320e-06	2.197208e-08	3.611004e+01	1.432748e+03
1.850000e-06	4.959482e-06	2.185399e-08	3.585815e+01	1.429609e+03
1.860000e-06	4.923119e-06	2.160410e-08	3.559524e+01	1.426160e+03
1.870000e-06	4.884793e-06	2.177582e-08	3.531813e+01	1.422367e+03
1.880000e-06	4.844716e-06	2.160713e-08	3.502837e+01	1.418220e+03
1.890000e-06	4.802971e-06	2.158474e-08	3.472654e+01	1.413730e+03
1.900000e-06	4.759442e-06	2.158196e-08	3.441182e+01	1.408924e+03
1.910000e-06	4.714250e-06	2.125382e-08	3.408507e+01	1.403837e+03
1.920000e-06	4.667113e-06	2.138527e-08	3.374426e+01	1.398499e+03
1.930000e-06	4.618285e-06	2.134180e-08	3.339122e+01	1.392934e+03
1.940000e-06	4.567898e-06	2.116534e-08	3.302691e+01	1.387150e+03
1.950000e-06	4.515497e-06	2.113435e-08	3.264803e+01	1.381139e+03
1.960000e-06	4.461066e-06	2.094828e-08	3.225449e+01	1.374884e+03
1.970000e-06	4.404857e-06	2.092650e-08	3.184809e+01	1.368363e+03
1.980000e-06	4.347103e-06	2.074197e-08	3.143051e+01	1.361552e+03
1.990000e-06	4.288013e-06	2.063313e-08	3.100328e+01	1.354436e+03
2.000000e-06	4.227453e-06	2.067835e-08	3.056542e+01	1.347008e+03
2.010000e-06	4.165207e-06	2.046147e-08	3.011536e+01	1.339271e+03
2.020000e-06	4.101296e-06	2.033577e-08	2.965328e+01	1.331234e+03
2.030000e-06	4.035919e-06	2.015373e-08	2.918058e+01	1.322910e+03
2.040000e-06	3.969181e-06	2.006717e-08	2.869805e+01	1.314307e+03
2.050000e-06	3.901130e-06	1.999647e-08	2.820603e+01	1.305426e+03
2.060000e-06	3.831593e-06	1.977439e-08	2.770326e+01	1.296260e+03
2.070000e-06	3.760501e-06	1.968969e-08	2.718925e+01	1.286789e+03
2.080000e-06	3.688137e-06	1.950247e-08	2.666604e+01	1.276990e+03
2.090000e-06	3.614532e-06	1.934975e-08	2.613386e+01	1.266835e+03
2.100000e-06	3.539626e-06	1.920596e-08	2.559228e+01	1.256297e+03
2.110000e-06	3.463318e-06	1.903008e-08	2.504055e+01	1.245354e+03
2.120000e-06	3.385471e-06	1.888103e-08	2.447770e+01	1.233988e+03
2.130000e-06	3.306309e-06	1.865835e-08	2.390534e+01	1.222190e+03
2.140000e-06	3.225990e-06	1.849559e-08	2.332462e+01	1.209951e+03
2.150000e-06	3.144511e-06	1.829212e-08	2.273550e+01	1.197266e+03
2.160000e-06	3.061968e-06	1.810217e-08	2.213870e+01	1.184125e+03
2.170000e-06	2.978524e-06	1.791530e-08	2.153539e+01	1.170511e+03
2.180000e-06	2.894085e-06	1.768969e-08	2.092487e+01	1.156402e+03
2.190000e-06	2.808366e-06	1.746619e-08	2.030511e+01	1.141770e+03
2.200000e-06	2.721462e-06	1.722287e-08	1.967677e+01	1.126579e+03
2.210000e-06	2.633577e-06	1.700261e-08	1.904134e+01	1.110795e+03
2.220000e-06	2.544800e-06	1.674728e-08	1.839947e+01	1.094379e+03
2.230000e-06	2.455083e-06	1.648054e-08	1.775079e+01	1.077295e+03
2.240000e-06	2.364524e-06	1.620347e-08	1.709603e+01	1.059510e+03
2.250000e-06	2.273327e-06	1.592781e-08	1.643666e+01	1.040991e+03
2.260000e-06	2.181463e-06	1.564600e-08	1.577246e+01	1.021702e+03
2.270000e-06	2.088810e-06	1.533898e-08	1.510255e+01	1.001608e+03
2.280000e-06	1.995181e-06	1.502437e-08	1.442560e+01	9.806648e+02
2.290000e-06	1.900571e-06	1.468747e-08	1.374155e+01	9.588229e+02
2.300000e-06	1.805203e-06	1.433927e-08	1.305202e+01	9.360256e+02
2.310000e-06	1.709314e-06	1.397533e-08	1.235872e+01	9.122092e+02
2.320000e-06	1.612977e-06	1.359959e-08	1.166218e+01	8.873051e+02
2.330000e-06	1.516136e-06	1.320569e-08	1.096200e+01	8.612409e+02
2.340000e-06	1.418787e-06	1.278549e-08	1.025814e+01	8.339432e+02
2.350000e-06	1.320967e-06	1.234072e-08	9.550883e+00	8.053393e+02
2.360000e-06	1.222700e-06	1.188391e-08	8.840391e+00	7.753599e+02
2.370000e-06	1.124082e-06	1.141874e-08	8.127363e+00	7.439416e+02
2.380000e-06	1.025216e-06	1.092864e-08	7.412537e+00	7.110315e+02
2.390000e-06	9.260924e-07	1.040450e-08	6.695852e+00	6.765913e+02
2.400000e-06	8.267420e-07	9.848112e-09	5.977527e+00	6.406038e+02
2.410000e-06	7.271875e-07	9.268600e-09	5.257726e+00	6.030802e+02
2.420000e-06	6.273819e-07	8.666685e-09	4.536109e+00	5.640657e+02
2.430000e-06	5.273219e-07	8.047478e-09	3.812654e+00	5.236450e+02
2.440000e-06	4.271167e-07	7.415249e-09	3.088148e+00	4.819436e+02
2.450000e-06	3.268043e-07	6.767533e-09	2.362867e+00	4.391246e+02
2.460000e-06	2.263312e-07	6.098426e-09	1.636424e+00	3.953808e+02
2.470000e-06	1.256726e-07	5.414844e-09	9.086407e-01	3.509199e+02
2.480000e-06	2.491649e-08	4.727484e-09	1.801517e-01	3.059473e+02
2.490000e-06	-7.588919e-08	4.034957e-09	-5.486956e-01	2.606447e+02
2.500000e-06	-1.766921e-07	3.336019e-09	-1.277523e+00	2.151508e+02
2.510000e-06	-2.773528e-07	2.634838e-09	-2.005322e+00	1.695443e+02
2.520000e-06	-3.778785e-07	1.933750e-09	-2.732144e+00	1.238351e+02
2.530000e-06	-4.782753e-07	1.230740e-09	-3.458036e+00	7.796303e+01
2.540000e-06	-5.785182e-07	5.249638e-10	-4.182814e+00	3.180820e+01
2.550000e-06	-6.785628e-07	-1.873090e-10	-4.906159e+00	-1.479000e+01
2.560000e-06	-7.783562e-07	-9.076576e-10	-5.627687e+00	-6.200557e+01
2.570000e-06	-8.779281e-07	-1.638200e-09	-6.347613e+00	-1.099944e+02
2.580000e-06	-9.771860e-07	-2.382991e-09	-7.065270e+00	-1.588626e+02
2.590000e-06	-1.076100e-06	-3.142735e-09	-7.780438e+00	-2.086393e+02
2.600000e-06	-1.174717e-06	-3.918387e-09	-8.493462e+00	-2.592581e+02
2.610000e-06	-1.272975e-06	-4.704693e-09	-9.203893e+00	-3.105494e+02
2.620000e-06	-1.370806e-06	-5.495047e-09	-9.911232e+00	-3.622463e+02
2.630000e-06	-1.468082e-06	-6.286456e-09	-1.061456e+01	-4.140019e+02
2.640000e-06	-1.564743e-06	-7.072023e-09	-1.131344e+01	-4.654164e+02
2.650000e-06	-1.660959e-06	-7.845128e-09	-1.200910e+01	-5.160705e+02
2.660000e-06	-1.756813e-06	-8.600697e-09	-1.270214e+01	-5.655599e+02
2.670000e-06	-1.852190e-06	-9.333918e-09	-1.339175e+01	-6.135261e+02
2.680000e-06	-1.946771e-06	-1.004165e-08	-1.407559e+01	-6.596806e+02
2.690000e-06	-2.040253e-06	-1.071714e-08	-1.475148e+01	-7.038186e+02
2.700000e-06	-2.132751e-06	-1.135936e-08	-1.542026e+01	-7.458224e+02
2.710000e-06	-2.224503e-06	-1.197299e-08	-1.608364e+01	-7.856546e+02
2.720000e-06	-2.315551e-06	-1.255568e-08	-1.674195e+01	-8.233437e+02
2.730000e-06	-2.405783e-06	-1.310670e-08	-1.739434e+01	-8.589656e+02
2.740000e-06	-2.495072e-06	-1.362491e-08	-1.803992e+01	-8.926236e+02
2.750000e-06	-2.583476e-06	-1.411024e-08	-1.867910e+01	-9.244317e+02
2.760000e-06	-2.671228e-06	-1.456753e-08	-1.931357e+01	-9.545016e+02
2.770000e-06	-2.758221e-06	-1.499938e-08	-1.994254e+01	-9.829360e+02
2.780000e-06	-2.843999e-06	-1.540875e-08	-2.056274e+01	-1.009826e+03
2.790000e-06	-2.928560e-06	-1.579929e-08	-2.117414e+01	-1.035255e+03
2.800000e-06	-3.012195e-06	-1.617190e-08	-2.177884e+01	-1.059301e+03
2.810000e-06	-3.094861e-06	-1.652360e-08	-2.237653e+01	-1.082041e+03
2.820000e-06	-3.176422e-06	-1.685254e-08	-2.296623e+01	-1.103556e+03
2.830000e-06	-3.256964e-06	-1.716338e-08	-2.354857e+01	-1.123926e+03
2.840000e-06	-3.336575e-06	-1.746053e-08	-2.412417e+01	-1.143236e+03
2.850000e-06	-3.414868e-06	-1.774361e-08	-2.469025e+01	-1.161563e+03
2.860000e-06	-3.491549e-06	-1.801103e-08	-2.524467e+01	-1.178980e+03
2.870000e-06	-3.566811e-06	-1.826390e-08	-2.578883e+01	-1.195548e+03
2.880000e-06	-3.640741e-06	-1.850483e-08	-2.632336e+01	-1.211318e+03
2.890000e-06	-3.713345e-06	-1.873559e-08	-2.684831e+01	-1.226330e+03
2.900000e-06	-3.784751e-06	-1.895672e-08	-2.736459e+01	-1.240618e+03
2.910000e-06	-3.854673e-06	-1.916837e-08	-2.787014e+01	-1.254213e+03
2.920000e-06	-3.922974e-06	-1.937189e-08	-2.836396e+01	-1.267146e+03
2.930000e-06	-3.989951e-06	-1.956496e-08	-2.884822e+01	-1.279455e+03
2.940000e-06	-4.055557e-06	-1.974611e-08	-2.932257e+01	-1.291176e+03
