# Temperatura_=_88.9
# Concentracion g/m^3_=_28200.0
# C_Vs_to_Am_M_A/Vsm_=_65563218390.804596
# pendiente_HvsI_1/m_=_3716.3
# ordenada_HvsI_A/m_=_1297.0
# frecuencia_Hz_=_301765.0293275844

Tiempo_(s)	Campo_(V.s)	Magnetizacion_(V.s)	Campo_(kA/m)	Magnetizacion_(A/m)
0.000000e+00	-5.325375e-06	-2.659969e-08	-3.829972e+01	-1.740447e+03
1.000000e-08	-5.323355e-06	-2.659131e-08	-3.828519e+01	-1.739980e+03
2.000000e-08	-5.319475e-06	-2.657767e-08	-3.825728e+01	-1.739330e+03
3.000000e-08	-5.313956e-06	-2.656188e-08	-3.821759e+01	-1.738488e+03
4.000000e-08	-5.306809e-06	-2.654516e-08	-3.816619e+01	-1.737437e+03
5.000000e-08	-5.297962e-06	-2.652389e-08	-3.810256e+01	-1.736152e+03
6.000000e-08	-5.287111e-06	-2.649790e-08	-3.802452e+01	-1.734608e+03
7.000000e-08	-5.274315e-06	-2.646521e-08	-3.793249e+01	-1.732789e+03
8.000000e-08	-5.259670e-06	-2.643319e-08	-3.782717e+01	-1.730692e+03
9.000000e-08	-5.242826e-06	-2.644057e-08	-3.770603e+01	-1.728334e+03
1.000000e-07	-5.223806e-06	-2.642662e-08	-3.756924e+01	-1.725746e+03
1.100000e-07	-5.202866e-06	-2.634548e-08	-3.741864e+01	-1.722975e+03
1.200000e-07	-5.180148e-06	-2.627650e-08	-3.725526e+01	-1.720073e+03
1.300000e-07	-5.155921e-06	-2.619242e-08	-3.708101e+01	-1.717084e+03
1.400000e-07	-5.130131e-06	-2.612634e-08	-3.689553e+01	-1.714038e+03
1.500000e-07	-5.102631e-06	-2.617221e-08	-3.669776e+01	-1.710939e+03
1.600000e-07	-5.073614e-06	-2.609381e-08	-3.648906e+01	-1.707767e+03
1.700000e-07	-5.043176e-06	-2.598331e-08	-3.627016e+01	-1.704476e+03
1.800000e-07	-5.011001e-06	-2.600035e-08	-3.603876e+01	-1.701001e+03
1.900000e-07	-4.976740e-06	-2.587857e-08	-3.579235e+01	-1.697272e+03
2.000000e-07	-4.940783e-06	-2.579417e-08	-3.553376e+01	-1.693223e+03
2.100000e-07	-4.903281e-06	-2.581680e-08	-3.526405e+01	-1.688803e+03
2.200000e-07	-4.864042e-06	-2.569508e-08	-3.498184e+01	-1.683983e+03
2.300000e-07	-4.823003e-06	-2.558700e-08	-3.468669e+01	-1.678758e+03
2.400000e-07	-4.779988e-06	-2.551000e-08	-3.437733e+01	-1.673144e+03
2.500000e-07	-4.735138e-06	-2.538547e-08	-3.405477e+01	-1.667173e+03
2.600000e-07	-4.688539e-06	-2.531945e-08	-3.371964e+01	-1.660879e+03
2.700000e-07	-4.639976e-06	-2.521676e-08	-3.337037e+01	-1.654294e+03
2.800000e-07	-4.589289e-06	-2.508877e-08	-3.300583e+01	-1.647437e+03
2.900000e-07	-4.536624e-06	-2.497495e-08	-3.262707e+01	-1.640311e+03
3.000000e-07	-4.482272e-06	-2.486264e-08	-3.223618e+01	-1.632907e+03
3.100000e-07	-4.426377e-06	-2.476536e-08	-3.183418e+01	-1.625205e+03
3.200000e-07	-4.368731e-06	-2.463521e-08	-3.141960e+01	-1.617178e+03
3.300000e-07	-4.309324e-06	-2.450714e-08	-3.099235e+01	-1.608804e+03
3.400000e-07	-4.248446e-06	-2.437317e-08	-3.055452e+01	-1.600068e+03
3.500000e-07	-4.186157e-06	-2.421397e-08	-3.010654e+01	-1.590962e+03
3.600000e-07	-4.122483e-06	-2.406899e-08	-2.964860e+01	-1.581490e+03
3.700000e-07	-4.057279e-06	-2.393446e-08	-2.917966e+01	-1.571659e+03
3.800000e-07	-3.990434e-06	-2.379620e-08	-2.869892e+01	-1.561478e+03
3.900000e-07	-3.922113e-06	-2.362212e-08	-2.820756e+01	-1.550952e+03
4.000000e-07	-3.852480e-06	-2.344506e-08	-2.770676e+01	-1.540078e+03
4.100000e-07	-3.781600e-06	-2.328672e-08	-2.719699e+01	-1.528844e+03
4.200000e-07	-3.709526e-06	-2.310487e-08	-2.667865e+01	-1.517231e+03
4.300000e-07	-3.636065e-06	-2.291906e-08	-2.615032e+01	-1.505215e+03
4.400000e-07	-3.560976e-06	-2.272660e-08	-2.561029e+01	-1.492772e+03
4.500000e-07	-3.484451e-06	-2.252290e-08	-2.505992e+01	-1.479877e+03
4.600000e-07	-3.406692e-06	-2.231484e-08	-2.450068e+01	-1.466514e+03
4.700000e-07	-3.327568e-06	-2.210887e-08	-2.393163e+01	-1.452667e+03
4.800000e-07	-3.247050e-06	-2.190192e-08	-2.335255e+01	-1.438324e+03
4.900000e-07	-3.165291e-06	-2.167038e-08	-2.276455e+01	-1.423474e+03
5.000000e-07	-3.082424e-06	-2.142949e-08	-2.216857e+01	-1.408100e+03
5.100000e-07	-2.998668e-06	-2.118255e-08	-2.156621e+01	-1.392179e+03
5.200000e-07	-2.914056e-06	-2.092745e-08	-2.095768e+01	-1.375681e+03
5.300000e-07	-2.828516e-06	-2.066605e-08	-2.034249e+01	-1.358570e+03
5.400000e-07	-2.742052e-06	-2.039663e-08	-1.972064e+01	-1.340807e+03
5.500000e-07	-2.654636e-06	-2.011424e-08	-1.909195e+01	-1.322351e+03
5.600000e-07	-2.566270e-06	-1.981374e-08	-1.845643e+01	-1.303163e+03
5.700000e-07	-2.476795e-06	-1.950698e-08	-1.781293e+01	-1.283208e+03
5.800000e-07	-2.386086e-06	-1.919248e-08	-1.716056e+01	-1.262454e+03
5.900000e-07	-2.294422e-06	-1.886513e-08	-1.650132e+01	-1.240867e+03
6.000000e-07	-2.202063e-06	-1.852326e-08	-1.583708e+01	-1.218411e+03
6.100000e-07	-2.109003e-06	-1.816447e-08	-1.516780e+01	-1.195040e+03
6.200000e-07	-2.015136e-06	-1.778969e-08	-1.449271e+01	-1.170699e+03
6.300000e-07	-1.920543e-06	-1.739936e-08	-1.381241e+01	-1.145319e+03
6.400000e-07	-1.825386e-06	-1.699439e-08	-1.312804e+01	-1.118819e+03
6.500000e-07	-1.729673e-06	-1.657068e-08	-1.243968e+01	-1.091109e+03
6.600000e-07	-1.633302e-06	-1.612557e-08	-1.174659e+01	-1.062096e+03
6.700000e-07	-1.536205e-06	-1.566018e-08	-1.104828e+01	-1.031687e+03
6.800000e-07	-1.438385e-06	-1.517358e-08	-1.034476e+01	-9.997914e+02
6.900000e-07	-1.339966e-06	-1.466410e-08	-9.636941e+00	-9.663256e+02
7.000000e-07	-1.241084e-06	-1.413076e-08	-8.925786e+00	-9.312125e+02
7.100000e-07	-1.141766e-06	-1.357172e-08	-8.211498e+00	-8.943817e+02
7.200000e-07	-1.042080e-06	-1.298282e-08	-7.494568e+00	-8.557691e+02
7.300000e-07	-9.420848e-07	-1.236208e-08	-6.775406e+00	-8.153194e+02
7.400000e-07	-8.418611e-07	-1.171340e-08	-6.054604e+00	-7.729903e+02
7.500000e-07	-7.414276e-07	-1.104027e-08	-5.332294e+00	-7.287608e+02
7.600000e-07	-6.407662e-07	-1.033776e-08	-4.608345e+00	-6.826410e+02
7.700000e-07	-5.398802e-07	-9.607367e-09	-3.882780e+00	-6.346831e+02
7.800000e-07	-4.388240e-07	-8.853556e-09	-3.155990e+00	-5.849894e+02
7.900000e-07	-3.376697e-07	-8.074002e-09	-2.428496e+00	-5.337163e+02
8.000000e-07	-2.364208e-07	-7.270408e-09	-1.700321e+00	-4.810695e+02
8.100000e-07	-1.350597e-07	-6.449517e-09	-9.713398e-01	-4.272918e+02
8.200000e-07	-3.359131e-08	-5.617398e-09	-2.415863e-01	-3.726413e+02
8.300000e-07	6.794417e-08	-4.777208e-09	4.886496e-01	-3.173639e+02
8.400000e-07	1.694734e-07	-3.931436e-09	1.218841e+00	-2.616644e+02
8.500000e-07	2.709332e-07	-3.082859e-09	1.948532e+00	-2.056797e+02
8.600000e-07	3.723104e-07	-2.231337e-09	2.677630e+00	-1.494603e+02
8.700000e-07	4.736025e-07	-1.372208e-09	3.406115e+00	-9.296450e+01
8.800000e-07	5.747597e-07	-5.039228e-10	4.133630e+00	-3.606765e+01
8.900000e-07	6.757622e-07	3.734235e-10	4.860033e+00	2.141436e+01
9.000000e-07	7.765710e-07	1.261942e-09	5.585043e+00	7.968877e+01
9.100000e-07	8.771445e-07	2.164446e-09	6.308360e+00	1.389426e+02
9.200000e-07	9.774341e-07	3.081714e-09	7.029636e+00	1.992986e+02
9.300000e-07	1.077400e-06	4.016045e-09	7.748583e+00	2.607769e+02
9.400000e-07	1.177048e-06	4.967969e-09	8.465247e+00	3.232699e+02
9.500000e-07	1.276291e-06	5.930496e-09	9.178996e+00	3.865328e+02
9.600000e-07	1.375072e-06	6.898052e-09	9.889422e+00	4.501930e+02
9.700000e-07	1.473256e-06	7.866889e-09	1.059555e+01	5.137764e+02
9.800000e-07	1.570699e-06	8.828798e-09	1.129636e+01	5.767467e+02
9.900000e-07	1.667398e-06	9.771872e-09	1.199180e+01	6.385523e+02
1.000000e-06	1.763380e-06	1.068566e-08	1.268210e+01	6.986725e+02
1.010000e-06	1.858707e-06	1.156471e-08	1.336769e+01	7.566596e+02
1.020000e-06	1.953440e-06	1.240590e-08	1.404900e+01	8.121677e+02
1.030000e-06	2.047513e-06	1.320552e-08	1.472556e+01	8.649687e+02
1.040000e-06	2.140843e-06	1.395981e-08	1.539679e+01	9.149525e+02
1.050000e-06	2.233452e-06	1.467085e-08	1.606283e+01	9.621144e+02
1.060000e-06	2.325353e-06	1.534267e-08	1.672377e+01	1.006533e+03
1.070000e-06	2.416485e-06	1.597832e-08	1.737919e+01	1.048343e+03
1.080000e-06	2.506605e-06	1.657851e-08	1.802732e+01	1.087708e+03
1.090000e-06	2.595640e-06	1.714517e-08	1.866765e+01	1.124799e+03
1.100000e-06	2.683718e-06	1.767813e-08	1.930111e+01	1.159775e+03
1.110000e-06	2.770903e-06	1.817753e-08	1.992814e+01	1.192779e+03
1.120000e-06	2.857207e-06	1.864754e-08	2.054883e+01	1.223931e+03
1.130000e-06	2.942601e-06	1.909240e-08	2.116297e+01	1.253341e+03
1.140000e-06	3.027064e-06	1.951224e-08	2.177043e+01	1.281104e+03
1.150000e-06	3.110586e-06	1.990848e-08	2.237111e+01	1.307319e+03
1.160000e-06	3.193071e-06	2.028579e-08	2.296434e+01	1.332083e+03
1.170000e-06	3.274388e-06	2.064480e-08	2.354917e+01	1.355501e+03
1.180000e-06	3.354469e-06	2.098496e-08	2.412510e+01	1.377677e+03
1.190000e-06	3.433283e-06	2.130612e-08	2.469193e+01	1.398716e+03
1.200000e-06	3.510908e-06	2.161135e-08	2.525020e+01	1.418711e+03
1.210000e-06	3.587353e-06	2.190073e-08	2.579998e+01	1.437746e+03
1.220000e-06	3.662457e-06	2.217252e-08	2.634012e+01	1.455886e+03
1.230000e-06	3.736027e-06	2.242987e-08	2.686924e+01	1.473182e+03
1.240000e-06	3.808065e-06	2.267693e-08	2.738733e+01	1.489670e+03
1.250000e-06	3.878718e-06	2.291370e-08	2.789546e+01	1.505380e+03
1.260000e-06	3.948049e-06	2.314039e-08	2.839408e+01	1.520338e+03
1.270000e-06	4.016033e-06	2.335600e-08	2.888302e+01	1.534572e+03
1.280000e-06	4.082539e-06	2.356052e-08	2.936133e+01	1.548118e+03
1.290000e-06	4.147461e-06	2.375500e-08	2.982824e+01	1.561015e+03
1.300000e-06	4.210845e-06	2.394014e-08	3.028410e+01	1.573307e+03
1.310000e-06	4.272751e-06	2.411724e-08	3.072932e+01	1.585038e+03
1.320000e-06	4.333322e-06	2.428735e-08	3.116494e+01	1.596244e+03
1.330000e-06	4.392478e-06	2.445140e-08	3.159039e+01	1.606955e+03
1.340000e-06	4.449902e-06	2.460903e-08	3.200337e+01	1.617186e+03
1.350000e-06	4.505582e-06	2.475902e-08	3.240382e+01	1.626945e+03
1.360000e-06	4.559591e-06	2.490107e-08	3.279225e+01	1.636228e+03
1.370000e-06	4.611841e-06	2.503394e-08	3.316803e+01	1.645029e+03
1.380000e-06	4.662163e-06	2.515818e-08	3.352994e+01	1.653345e+03
1.390000e-06	4.710570e-06	2.527676e-08	3.387808e+01	1.661179e+03
1.400000e-06	4.757242e-06	2.539022e-08	3.421374e+01	1.668545e+03
1.410000e-06	4.802335e-06	2.549847e-08	3.453805e+01	1.675468e+03
1.420000e-06	4.845844e-06	2.559984e-08	3.485096e+01	1.681979e+03
1.430000e-06	4.887545e-06	2.569195e-08	3.515088e+01	1.688114e+03
1.440000e-06	4.927432e-06	2.577687e-08	3.543774e+01	1.693908e+03
1.450000e-06	4.965678e-06	2.585694e-08	3.571280e+01	1.699388e+03
1.460000e-06	5.002298e-06	2.593278e-08	3.597617e+01	1.704574e+03
1.470000e-06	5.037221e-06	2.600657e-08	3.622733e+01	1.709471e+03
1.480000e-06	5.070283e-06	2.607881e-08	3.646511e+01	1.714078e+03
1.490000e-06	5.101503e-06	2.614670e-08	3.668964e+01	1.718388e+03
1.500000e-06	5.131071e-06	2.620865e-08	3.690229e+01	1.722390e+03
1.510000e-06	5.158999e-06	2.626503e-08	3.710315e+01	1.726079e+03
1.520000e-06	5.184988e-06	2.631609e-08	3.729006e+01	1.729452e+03
1.530000e-06	5.208915e-06	2.636213e-08	3.746214e+01	1.732513e+03
1.540000e-06	5.230975e-06	2.640374e-08	3.762079e+01	1.735270e+03
1.550000e-06	5.251312e-06	2.644139e-08	3.776706e+01	1.737736e+03
1.560000e-06	5.269881e-06	2.647447e-08	3.790060e+01	1.739920e+03
1.570000e-06	5.286487e-06	2.650275e-08	3.802003e+01	1.741828e+03
1.580000e-06	5.301090e-06	2.652677e-08	3.812506e+01	1.743465e+03
1.590000e-06	5.313737e-06	2.654729e-08	3.821601e+01	1.744829e+03
1.600000e-06	5.324281e-06	2.656500e-08	3.829184e+01	1.745920e+03
1.610000e-06	5.332700e-06	2.657810e-08	3.835240e+01	1.746740e+03
1.620000e-06	5.339198e-06	2.658657e-08	3.839913e+01	1.747295e+03
1.630000e-06	5.343948e-06	2.659296e-08	3.843329e+01	1.747598e+03
1.640000e-06	5.346843e-06	2.659706e-08	3.845411e+01	1.747667e+03
1.650000e-06	5.347662e-06	2.659747e-08	3.846000e+01	1.747521e+03
1.660000e-06	5.346605e-06	2.659212e-08	3.845240e+01	1.747180e+03
1.670000e-06	5.343919e-06	2.658268e-08	3.843308e+01	1.746653e+03
1.680000e-06	5.339596e-06	2.657336e-08	3.840199e+01	1.745941e+03
1.690000e-06	5.333411e-06	2.656107e-08	3.835751e+01	1.745033e+03
1.700000e-06	5.325360e-06	2.654409e-08	3.829961e+01	1.743908e+03
1.710000e-06	5.315735e-06	2.652522e-08	3.823038e+01	1.742541e+03
1.720000e-06	5.304480e-06	2.650802e-08	3.814944e+01	1.740909e+03
1.730000e-06	5.291302e-06	2.649261e-08	3.805467e+01	1.738999e+03
1.740000e-06	5.276132e-06	2.641624e-08	3.794556e+01	1.736814e+03
1.750000e-06	5.258838e-06	2.634171e-08	3.782118e+01	1.734376e+03
1.760000e-06	5.239066e-06	2.633824e-08	3.767899e+01	1.731723e+03
1.770000e-06	5.216769e-06	2.632208e-08	3.751863e+01	1.728903e+03
1.780000e-06	5.192695e-06	2.633918e-08	3.734549e+01	1.725967e+03
1.790000e-06	5.167762e-06	2.626916e-08	3.716617e+01	1.722956e+03
1.800000e-06	5.141863e-06	2.610865e-08	3.697991e+01	1.719892e+03
1.810000e-06	5.114084e-06	2.615073e-08	3.678013e+01	1.716773e+03
1.820000e-06	5.084253e-06	2.611905e-08	3.656558e+01	1.713567e+03
1.830000e-06	5.052727e-06	2.601000e-08	3.633885e+01	1.710223e+03
1.840000e-06	5.019352e-06	2.608978e-08	3.609882e+01	1.706673e+03
1.850000e-06	4.984294e-06	2.597767e-08	3.584668e+01	1.702846e+03
1.860000e-06	4.947677e-06	2.582643e-08	3.558333e+01	1.698681e+03
1.870000e-06	4.909092e-06	2.584633e-08	3.530583e+01	1.694133e+03
1.880000e-06	4.868730e-06	2.572537e-08	3.501556e+01	1.689181e+03
1.890000e-06	4.826717e-06	2.568810e-08	3.471340e+01	1.683827e+03
1.900000e-06	4.782965e-06	2.563952e-08	3.439874e+01	1.678094e+03
1.910000e-06	4.737488e-06	2.545939e-08	3.407167e+01	1.672014e+03
1.920000e-06	4.690039e-06	2.545107e-08	3.373042e+01	1.665622e+03
1.930000e-06	4.640861e-06	2.534884e-08	3.337674e+01	1.658946e+03
1.940000e-06	4.590065e-06	2.521536e-08	3.301142e+01	1.652002e+03
1.950000e-06	4.537215e-06	2.513235e-08	3.263133e+01	1.644787e+03
1.960000e-06	4.482374e-06	2.498293e-08	3.223691e+01	1.637289e+03
1.970000e-06	4.425833e-06	2.490938e-08	3.183027e+01	1.629483e+03
1.980000e-06	4.367742e-06	2.473746e-08	3.141249e+01	1.621346e+03
1.990000e-06	4.308260e-06	2.460685e-08	3.098470e+01	1.612856e+03
2.000000e-06	4.247323e-06	2.453977e-08	3.054644e+01	1.603999e+03
2.010000e-06	4.184700e-06	2.434982e-08	3.009607e+01	1.594774e+03
2.020000e-06	4.120417e-06	2.420383e-08	2.963375e+01	1.585184e+03
2.030000e-06	4.054679e-06	2.403690e-08	2.916096e+01	1.575239e+03
2.040000e-06	3.987575e-06	2.390731e-08	2.867835e+01	1.564945e+03
2.050000e-06	3.919113e-06	2.376096e-08	2.818598e+01	1.554306e+03
2.060000e-06	3.849173e-06	2.355365e-08	2.768297e+01	1.543317e+03
2.070000e-06	3.777742e-06	2.340944e-08	2.716925e+01	1.531962e+03
2.080000e-06	3.705006e-06	2.321055e-08	2.664614e+01	1.520221e+03
2.090000e-06	3.630980e-06	2.302918e-08	2.611375e+01	1.508069e+03
2.100000e-06	3.555604e-06	2.284789e-08	2.557165e+01	1.495482e+03
2.110000e-06	3.478711e-06	2.264966e-08	2.501864e+01	1.482437e+03
2.120000e-06	3.400233e-06	2.245038e-08	2.445423e+01	1.468918e+03
2.130000e-06	3.320514e-06	2.221473e-08	2.388090e+01	1.454912e+03
2.140000e-06	3.239743e-06	2.200820e-08	2.330000e+01	1.440406e+03
2.150000e-06	3.157883e-06	2.177803e-08	2.271127e+01	1.425389e+03
2.160000e-06	3.074970e-06	2.154911e-08	2.211496e+01	1.409840e+03
2.170000e-06	2.991075e-06	2.131199e-08	2.151160e+01	1.393736e+03
2.180000e-06	2.906083e-06	2.105197e-08	2.090034e+01	1.377044e+03
2.190000e-06	2.819790e-06	2.078506e-08	2.027972e+01	1.359726e+03
2.200000e-06	2.732327e-06	2.050493e-08	1.965070e+01	1.341743e+03
2.210000e-06	2.643918e-06	2.023310e-08	1.901487e+01	1.323055e+03
2.220000e-06	2.554658e-06	1.994012e-08	1.837292e+01	1.303623e+03
2.230000e-06	2.464548e-06	1.963419e-08	1.772485e+01	1.283413e+03
2.240000e-06	2.373622e-06	1.931146e-08	1.707092e+01	1.262394e+03
2.250000e-06	2.282034e-06	1.897763e-08	1.641222e+01	1.240530e+03
2.260000e-06	2.189724e-06	1.863247e-08	1.574834e+01	1.217784e+03
2.270000e-06	2.096470e-06	1.827229e-08	1.507766e+01	1.194107e+03
2.280000e-06	2.002157e-06	1.790198e-08	1.439937e+01	1.169439e+03
2.290000e-06	1.906919e-06	1.751050e-08	1.371443e+01	1.143707e+03
2.300000e-06	1.811034e-06	1.710208e-08	1.302483e+01	1.116827e+03
2.310000e-06	1.714661e-06	1.667171e-08	1.233172e+01	1.088707e+03
2.320000e-06	1.617784e-06	1.622336e-08	1.163499e+01	1.059254e+03
2.330000e-06	1.520402e-06	1.575377e-08	1.093462e+01	1.028375e+03
2.340000e-06	1.422481e-06	1.525947e-08	1.023038e+01	9.959825e+02
2.350000e-06	1.324044e-06	1.474000e-08	9.522430e+00	9.619940e+02
2.360000e-06	1.225235e-06	1.419681e-08	8.811802e+00	9.263348e+02
2.370000e-06	1.126163e-06	1.363101e-08	8.099283e+00	8.889366e+02
2.380000e-06	1.026870e-06	1.303685e-08	7.385178e+00	8.497377e+02
2.390000e-06	9.273506e-07	1.241129e-08	6.669439e+00	8.086864e+02
2.400000e-06	8.275936e-07	1.175273e-08	5.951994e+00	7.657461e+02
2.410000e-06	7.275254e-07	1.106502e-08	5.232310e+00	7.209048e+02
2.420000e-06	6.271204e-07	1.034929e-08	4.510205e+00	6.741849e+02
2.430000e-06	5.264376e-07	9.608298e-09	3.786101e+00	6.256539e+02
2.440000e-06	4.255456e-07	8.843277e-09	3.060493e+00	5.754317e+02
2.450000e-06	3.245496e-07	8.055590e-09	2.334137e+00	5.236911e+02
2.460000e-06	2.234277e-07	7.245705e-09	1.606876e+00	4.706518e+02
2.470000e-06	1.221582e-07	6.418255e-09	8.785532e-01	4.165641e+02
2.480000e-06	2.074604e-08	5.579807e-09	1.492040e-01	3.616853e+02
2.490000e-06	-8.073240e-08	4.732027e-09	-5.806217e-01	3.062514e+02
2.500000e-06	-1.821761e-07	3.877112e-09	-1.310197e+00	2.504479e+02
2.510000e-06	-2.835402e-07	3.018498e-09	-2.039201e+00	1.943853e+02
2.520000e-06	-3.847576e-07	2.157128e-09	-2.767149e+00	1.380845e+02
2.530000e-06	-4.858432e-07	1.291346e-09	-3.494149e+00	8.147561e+01
2.540000e-06	-5.867737e-07	4.190724e-10	-4.220034e+00	2.441135e+01
2.550000e-06	-6.874188e-07	-4.634325e-10	-4.943866e+00	-3.330414e+01
2.560000e-06	-7.877064e-07	-1.358177e-09	-5.665128e+00	-9.187654e+01
2.570000e-06	-8.877235e-07	-2.268115e-09	-6.384444e+00	-1.514768e+02
2.580000e-06	-9.874715e-07	-3.193952e-09	-7.101824e+00	-2.121984e+02
2.590000e-06	-1.086864e-06	-4.135469e-09	-7.816645e+00	-2.740226e+02
2.600000e-06	-1.185917e-06	-5.093757e-09	-8.529033e+00	-3.367975e+02
2.610000e-06	-1.284608e-06	-6.063586e-09	-9.238806e+00	-4.002356e+02
2.620000e-06	-1.382844e-06	-7.038171e-09	-9.945315e+00	-4.639280e+02
2.630000e-06	-1.480545e-06	-8.010196e-09	-1.064798e+01	-5.273759e+02
2.640000e-06	-1.577698e-06	-8.969466e-09	-1.134669e+01	-5.900328e+02
2.650000e-06	-1.674384e-06	-9.907879e-09	-1.204205e+01	-6.513519e+02
2.660000e-06	-1.770616e-06	-1.081829e-08	-1.273414e+01	-7.108323e+02
2.670000e-06	-1.866308e-06	-1.169521e-08	-1.342235e+01	-7.680561e+02
2.680000e-06	-1.961269e-06	-1.253359e-08	-1.410531e+01	-8.227144e+02
2.690000e-06	-2.055342e-06	-1.332787e-08	-1.478187e+01	-8.746178e+02
2.700000e-06	-2.148514e-06	-1.407893e-08	-1.545196e+01	-9.236919e+02
2.710000e-06	-2.240763e-06	-1.479022e-08	-1.611540e+01	-9.699616e+02
2.720000e-06	-2.332172e-06	-1.546007e-08	-1.677281e+01	-1.013526e+03
2.730000e-06	-2.422807e-06	-1.609060e-08	-1.742466e+01	-1.054533e+03
2.740000e-06	-2.512604e-06	-1.668677e-08	-1.807047e+01	-1.093150e+03
2.750000e-06	-2.601549e-06	-1.724826e-08	-1.871015e+01	-1.129546e+03
2.760000e-06	-2.689705e-06	-1.777514e-08	-1.934417e+01	-1.163875e+03
2.770000e-06	-2.776983e-06	-1.826876e-08	-1.997186e+01	-1.196273e+03
2.780000e-06	-2.863200e-06	-1.873520e-08	-2.059193e+01	-1.226855e+03
2.790000e-06	-2.948318e-06	-1.917635e-08	-2.120409e+01	-1.255726e+03
2.800000e-06	-3.032331e-06	-1.959189e-08	-2.180830e+01	-1.282983e+03
2.810000e-06	-3.115314e-06	-1.998728e-08	-2.240511e+01	-1.308721e+03
2.820000e-06	-3.197281e-06	-2.036296e-08	-2.299462e+01	-1.333043e+03
2.830000e-06	-3.278178e-06	-2.071717e-08	-2.357642e+01	-1.356051e+03
2.840000e-06	-3.357986e-06	-2.105074e-08	-2.415039e+01	-1.377852e+03
2.850000e-06	-3.436585e-06	-2.136656e-08	-2.471567e+01	-1.398547e+03
2.860000e-06	-3.513761e-06	-2.166758e-08	-2.527072e+01	-1.418227e+03
2.870000e-06	-3.589460e-06	-2.195527e-08	-2.581514e+01	-1.436969e+03
2.880000e-06	-3.663739e-06	-2.222994e-08	-2.634935e+01	-1.454834e+03
2.890000e-06	-3.736682e-06	-2.249120e-08	-2.687395e+01	-1.471868e+03
2.900000e-06	-3.808347e-06	-2.273962e-08	-2.738936e+01	-1.488105e+03
2.910000e-06	-3.878582e-06	-2.297775e-08	-2.789448e+01	-1.503571e+03
2.920000e-06	-3.947248e-06	-2.320677e-08	-2.838833e+01	-1.518295e+03
2.930000e-06	-4.014486e-06	-2.342519e-08	-2.887190e+01	-1.532305e+03
2.940000e-06	-4.080404e-06	-2.363343e-08	-2.934597e+01	-1.545639e+03
