# Temperatura_=_78.96
# Concentracion g/m^3_=_28200.0
# C_Vs_to_Am_M_A/Vsm_=_65563218390.804596
# pendiente_HvsI_1/m_=_3716.3
# ordenada_HvsI_A/m_=_1297.0
# frecuencia_Hz_=_301763.98392475524

Tiempo_(s)	Campo_(V.s)	Magnetizacion_(V.s)	Campo_(kA/m)	Magnetizacion_(A/m)
0.000000e+00	-5.302138e-06	-2.415566e-08	-3.829424e+01	-1.579403e+03
1.000000e-08	-5.299861e-06	-2.415097e-08	-3.827780e+01	-1.578972e+03
2.000000e-08	-5.295753e-06	-2.413495e-08	-3.824813e+01	-1.578380e+03
3.000000e-08	-5.290045e-06	-2.411842e-08	-3.820690e+01	-1.577612e+03
4.000000e-08	-5.282698e-06	-2.410321e-08	-3.815384e+01	-1.576645e+03
5.000000e-08	-5.273730e-06	-2.408275e-08	-3.808907e+01	-1.575450e+03
6.000000e-08	-5.262791e-06	-2.405801e-08	-3.801006e+01	-1.574000e+03
7.000000e-08	-5.249860e-06	-2.402374e-08	-3.791667e+01	-1.572284e+03
8.000000e-08	-5.235011e-06	-2.398874e-08	-3.780942e+01	-1.570307e+03
9.000000e-08	-5.217871e-06	-2.402767e-08	-3.768563e+01	-1.568096e+03
1.000000e-07	-5.198598e-06	-2.401565e-08	-3.754643e+01	-1.565696e+03
1.100000e-07	-5.177512e-06	-2.391114e-08	-3.739414e+01	-1.563161e+03
1.200000e-07	-5.154663e-06	-2.385878e-08	-3.722912e+01	-1.560544e+03
1.300000e-07	-5.130312e-06	-2.374617e-08	-3.705324e+01	-1.557884e+03
1.400000e-07	-5.104485e-06	-2.366459e-08	-3.686671e+01	-1.555200e+03
1.500000e-07	-5.076946e-06	-2.382043e-08	-3.666781e+01	-1.552477e+03
1.600000e-07	-5.047849e-06	-2.367249e-08	-3.645766e+01	-1.549678e+03
1.700000e-07	-5.017400e-06	-2.355095e-08	-3.623775e+01	-1.546740e+03
1.800000e-07	-4.985146e-06	-2.368902e-08	-3.600479e+01	-1.543591e+03
1.900000e-07	-4.950743e-06	-2.345724e-08	-3.575632e+01	-1.540161e+03
2.000000e-07	-4.914702e-06	-2.338925e-08	-3.549602e+01	-1.536394e+03
2.100000e-07	-4.877119e-06	-2.348633e-08	-3.522458e+01	-1.532257e+03
2.200000e-07	-4.837794e-06	-2.326578e-08	-3.494056e+01	-1.527742e+03
2.300000e-07	-4.796711e-06	-2.318297e-08	-3.464384e+01	-1.522866e+03
2.400000e-07	-4.753612e-06	-2.315683e-08	-3.433256e+01	-1.517659e+03
2.500000e-07	-4.708678e-06	-2.301429e-08	-3.400803e+01	-1.512160e+03
2.600000e-07	-4.662061e-06	-2.302002e-08	-3.367134e+01	-1.506401e+03
2.700000e-07	-4.613578e-06	-2.289651e-08	-3.332117e+01	-1.500401e+03
2.800000e-07	-4.563077e-06	-2.272359e-08	-3.295644e+01	-1.494166e+03
2.900000e-07	-4.510478e-06	-2.264062e-08	-3.257655e+01	-1.487683e+03
3.000000e-07	-4.456073e-06	-2.257780e-08	-3.218361e+01	-1.480930e+03
3.100000e-07	-4.400166e-06	-2.248964e-08	-3.177982e+01	-1.473881e+03
3.200000e-07	-4.342595e-06	-2.234995e-08	-3.136402e+01	-1.466512e+03
3.300000e-07	-4.283254e-06	-2.223845e-08	-3.093544e+01	-1.458810e+03
3.400000e-07	-4.222412e-06	-2.208429e-08	-3.049601e+01	-1.450774e+03
3.500000e-07	-4.160182e-06	-2.193244e-08	-3.004656e+01	-1.442411e+03
3.600000e-07	-4.096555e-06	-2.183028e-08	-2.958702e+01	-1.433737e+03
3.700000e-07	-4.031533e-06	-2.171958e-08	-2.911740e+01	-1.424765e+03
3.800000e-07	-3.964877e-06	-2.160228e-08	-2.863599e+01	-1.415503e+03
3.900000e-07	-3.896603e-06	-2.141743e-08	-2.814288e+01	-1.405949e+03
4.000000e-07	-3.826981e-06	-2.122927e-08	-2.764005e+01	-1.396086e+03
4.100000e-07	-3.756177e-06	-2.110058e-08	-2.712867e+01	-1.385891e+03
4.200000e-07	-3.684245e-06	-2.094540e-08	-2.660915e+01	-1.375332e+03
4.300000e-07	-3.611037e-06	-2.078162e-08	-2.608041e+01	-1.364377e+03
4.400000e-07	-3.536277e-06	-2.060146e-08	-2.554046e+01	-1.352999e+03
4.500000e-07	-3.459984e-06	-2.041017e-08	-2.498944e+01	-1.341178e+03
4.600000e-07	-3.382338e-06	-2.021447e-08	-2.442865e+01	-1.328904e+03
4.700000e-07	-3.303325e-06	-2.002957e-08	-2.385799e+01	-1.316172e+03
4.800000e-07	-3.222947e-06	-1.984772e-08	-2.327746e+01	-1.302979e+03
4.900000e-07	-3.141293e-06	-1.962659e-08	-2.268772e+01	-1.289324e+03
5.000000e-07	-3.058591e-06	-1.940647e-08	-2.209041e+01	-1.275194e+03
5.100000e-07	-2.974979e-06	-1.917871e-08	-2.148653e+01	-1.260571e+03
5.200000e-07	-2.890563e-06	-1.894002e-08	-2.087684e+01	-1.245425e+03
5.300000e-07	-2.805258e-06	-1.869913e-08	-2.026073e+01	-1.229722e+03
5.400000e-07	-2.718954e-06	-1.845364e-08	-1.963742e+01	-1.213420e+03
5.500000e-07	-2.631741e-06	-1.819660e-08	-1.900752e+01	-1.196480e+03
5.600000e-07	-2.543601e-06	-1.791879e-08	-1.837094e+01	-1.178864e+03
5.700000e-07	-2.454481e-06	-1.763834e-08	-1.772728e+01	-1.160540e+03
5.800000e-07	-2.364254e-06	-1.735145e-08	-1.707562e+01	-1.141476e+03
5.900000e-07	-2.272946e-06	-1.705055e-08	-1.641616e+01	-1.121643e+03
6.000000e-07	-2.180824e-06	-1.672841e-08	-1.575082e+01	-1.101010e+03
6.100000e-07	-2.088041e-06	-1.639437e-08	-1.508070e+01	-1.079536e+03
6.200000e-07	-1.994537e-06	-1.605400e-08	-1.440538e+01	-1.057172e+03
6.300000e-07	-1.900278e-06	-1.570001e-08	-1.372459e+01	-1.033859e+03
6.400000e-07	-1.805383e-06	-1.532997e-08	-1.303922e+01	-1.009527e+03
6.500000e-07	-1.709900e-06	-1.493881e-08	-1.234961e+01	-9.840966e+02
6.600000e-07	-1.613833e-06	-1.452612e-08	-1.165577e+01	-9.574869e+02
6.700000e-07	-1.517243e-06	-1.409566e-08	-1.095816e+01	-9.296143e+02
6.800000e-07	-1.420109e-06	-1.365183e-08	-1.025662e+01	-9.003977e+02
6.900000e-07	-1.322330e-06	-1.318965e-08	-9.550419e+00	-8.697599e+02
7.000000e-07	-1.223915e-06	-1.270406e-08	-8.839621e+00	-8.376290e+02
7.100000e-07	-1.124957e-06	-1.218824e-08	-8.124905e+00	-8.039398e+02
7.200000e-07	-1.025572e-06	-1.164024e-08	-7.407105e+00	-7.686362e+02
7.300000e-07	-9.258997e-07	-1.106740e-08	-6.687232e+00	-7.316746e+02
7.400000e-07	-8.259884e-07	-1.047723e-08	-5.965631e+00	-6.930301e+02
7.500000e-07	-7.258549e-07	-9.869743e-09	-5.242425e+00	-6.527034e+02
7.600000e-07	-6.255077e-07	-9.233505e-09	-4.517676e+00	-6.107288e+02
7.700000e-07	-5.249492e-07	-8.569089e-09	-3.791401e+00	-5.671812e+02
7.800000e-07	-4.242610e-07	-7.882804e-09	-3.064189e+00	-5.221791e+02
7.900000e-07	-3.234616e-07	-7.176156e-09	-2.336174e+00	-4.758837e+02
8.000000e-07	-2.224922e-07	-6.451687e-09	-1.606931e+00	-4.284914e+02
8.100000e-07	-1.214334e-07	-5.717375e-09	-8.770424e-01	-3.802191e+02
8.200000e-07	-2.037976e-08	-4.975984e-09	-1.471911e-01	-3.312860e+02
8.300000e-07	8.066768e-08	-4.224307e-09	5.826155e-01	-2.818903e+02
8.400000e-07	1.816801e-07	-3.464653e-09	1.312169e+00	-2.321874e+02
8.500000e-07	2.826506e-07	-2.705413e-09	2.041420e+00	-1.822711e+02
8.600000e-07	3.835834e-07	-1.949467e-09	2.770398e+00	-1.321626e+02
8.700000e-07	4.844171e-07	-1.187958e-09	3.498661e+00	-8.180885e+01
8.800000e-07	5.851331e-07	-4.174764e-10	4.226074e+00	-3.109255e+01
8.900000e-07	6.857245e-07	3.651119e-10	4.952587e+00	2.014759e+01
9.000000e-07	7.861256e-07	1.161018e-09	5.677725e+00	7.208763e+01
9.100000e-07	8.863591e-07	1.969191e-09	6.401653e+00	1.248843e+02
9.200000e-07	9.863746e-07	2.787298e-09	7.124006e+00	1.786407e+02
9.300000e-07	1.086042e-06	3.615720e-09	7.843848e+00	2.333767e+02
9.400000e-07	1.185309e-06	4.459209e-09	8.560794e+00	2.890079e+02
9.500000e-07	1.284017e-06	5.314894e-09	9.273707e+00	3.453377e+02
9.600000e-07	1.382088e-06	6.178210e-09	9.982014e+00	4.020627e+02
9.700000e-07	1.479482e-06	7.042394e-09	1.068543e+01	4.587917e+02
9.800000e-07	1.576160e-06	7.899708e-09	1.138368e+01	5.150754e+02
9.900000e-07	1.672248e-06	8.742476e-09	1.207767e+01	5.704434e+02
1.000000e-06	1.767775e-06	9.563551e-09	1.276760e+01	6.244426e+02
1.010000e-06	1.862705e-06	1.035685e-08	1.345323e+01	6.766730e+02
1.020000e-06	1.956981e-06	1.111700e-08	1.413413e+01	7.268149e+02
1.030000e-06	2.050562e-06	1.184012e-08	1.481001e+01	7.746456e+02
1.040000e-06	2.143472e-06	1.252378e-08	1.548105e+01	8.200439e+02
1.050000e-06	2.235752e-06	1.317169e-08	1.614753e+01	8.629824e+02
1.060000e-06	2.327326e-06	1.378500e-08	1.680892e+01	9.035109e+02
1.070000e-06	2.417877e-06	1.436485e-08	1.746291e+01	9.417339e+02
1.080000e-06	2.507244e-06	1.491292e-08	1.810836e+01	9.777869e+02
1.090000e-06	2.595697e-06	1.543295e-08	1.874720e+01	1.011815e+03
1.100000e-06	2.683396e-06	1.592333e-08	1.938060e+01	1.043955e+03
1.110000e-06	2.770201e-06	1.638514e-08	2.000754e+01	1.074331e+03
1.120000e-06	2.856021e-06	1.681967e-08	2.062737e+01	1.103046e+03
1.130000e-06	2.940917e-06	1.722743e-08	2.124053e+01	1.130190e+03
1.140000e-06	3.025018e-06	1.761317e-08	2.184793e+01	1.155845e+03
1.150000e-06	3.108224e-06	1.798080e-08	2.244888e+01	1.180092e+03
1.160000e-06	3.190228e-06	1.833192e-08	2.304115e+01	1.203015e+03
1.170000e-06	3.271025e-06	1.866494e-08	2.362470e+01	1.224704e+03
1.180000e-06	3.350677e-06	1.897995e-08	2.419998e+01	1.245254e+03
1.190000e-06	3.429089e-06	1.927726e-08	2.476630e+01	1.264757e+03
1.200000e-06	3.506278e-06	1.955791e-08	2.532379e+01	1.283298e+03
1.210000e-06	3.582199e-06	1.982205e-08	2.587213e+01	1.300952e+03
1.220000e-06	3.656617e-06	2.007480e-08	2.640961e+01	1.317774e+03
1.230000e-06	3.729479e-06	2.031691e-08	2.693584e+01	1.333807e+03
1.240000e-06	3.801012e-06	2.054852e-08	2.745249e+01	1.349080e+03
1.250000e-06	3.871222e-06	2.076823e-08	2.795957e+01	1.363617e+03
1.260000e-06	3.940088e-06	2.097467e-08	2.845695e+01	1.377441e+03
1.270000e-06	4.007648e-06	2.116975e-08	2.894490e+01	1.390581e+03
1.280000e-06	4.073633e-06	2.135584e-08	2.942147e+01	1.403075e+03
1.290000e-06	4.137990e-06	2.153663e-08	2.988628e+01	1.414967e+03
1.300000e-06	4.200909e-06	2.171255e-08	3.034071e+01	1.426304e+03
1.310000e-06	4.262412e-06	2.188010e-08	3.078491e+01	1.437133e+03
1.320000e-06	4.322616e-06	2.203872e-08	3.121973e+01	1.447489e+03
1.330000e-06	4.381327e-06	2.218884e-08	3.164376e+01	1.457397e+03
1.340000e-06	4.438225e-06	2.233289e-08	3.205470e+01	1.466864e+03
1.350000e-06	4.493403e-06	2.247112e-08	3.245322e+01	1.475884e+03
1.360000e-06	4.547009e-06	2.260034e-08	3.284038e+01	1.484446e+03
1.370000e-06	4.598813e-06	2.272023e-08	3.321454e+01	1.492537e+03
1.380000e-06	4.648557e-06	2.283289e-08	3.357381e+01	1.500150e+03
1.390000e-06	4.696480e-06	2.294175e-08	3.391993e+01	1.507294e+03
1.400000e-06	4.742772e-06	2.304624e-08	3.425426e+01	1.513991e+03
1.410000e-06	4.787523e-06	2.314567e-08	3.457747e+01	1.520278e+03
1.420000e-06	4.830650e-06	2.323804e-08	3.488896e+01	1.526200e+03
1.430000e-06	4.871904e-06	2.332154e-08	3.518691e+01	1.531802e+03
1.440000e-06	4.911406e-06	2.339815e-08	3.547222e+01	1.537123e+03
1.450000e-06	4.949350e-06	2.347224e-08	3.574626e+01	1.542189e+03
1.460000e-06	4.985758e-06	2.354546e-08	3.600922e+01	1.547009e+03
1.470000e-06	5.020375e-06	2.361505e-08	3.625923e+01	1.551575e+03
1.480000e-06	5.053044e-06	2.367973e-08	3.649518e+01	1.555872e+03
1.490000e-06	5.083942e-06	2.374134e-08	3.671834e+01	1.559877e+03
1.500000e-06	5.113167e-06	2.380051e-08	3.692942e+01	1.563570e+03
1.510000e-06	5.140715e-06	2.385334e-08	3.712838e+01	1.566942e+03
1.520000e-06	5.166282e-06	2.389761e-08	3.731303e+01	1.569992e+03
1.530000e-06	5.189829e-06	2.393757e-08	3.748310e+01	1.572732e+03
1.540000e-06	5.211633e-06	2.397514e-08	3.764058e+01	1.575179e+03
1.550000e-06	5.231762e-06	2.400931e-08	3.778596e+01	1.577356e+03
1.560000e-06	5.250077e-06	2.403881e-08	3.791824e+01	1.579278e+03
1.570000e-06	5.266381e-06	2.406379e-08	3.803599e+01	1.580958e+03
1.580000e-06	5.280692e-06	2.408593e-08	3.813935e+01	1.582398e+03
1.590000e-06	5.293016e-06	2.410343e-08	3.822836e+01	1.583597e+03
1.600000e-06	5.303162e-06	2.411580e-08	3.830164e+01	1.584551e+03
1.610000e-06	5.311219e-06	2.412564e-08	3.835983e+01	1.585258e+03
1.620000e-06	5.317451e-06	2.413438e-08	3.840484e+01	1.585724e+03
1.630000e-06	5.321941e-06	2.414098e-08	3.843727e+01	1.585963e+03
1.640000e-06	5.324521e-06	2.414465e-08	3.845590e+01	1.585993e+03
1.650000e-06	5.325089e-06	2.414748e-08	3.846000e+01	1.585838e+03
1.660000e-06	5.323868e-06	2.414301e-08	3.845118e+01	1.585514e+03
1.670000e-06	5.321043e-06	2.413265e-08	3.843078e+01	1.585031e+03
1.680000e-06	5.316535e-06	2.412544e-08	3.839822e+01	1.584383e+03
1.690000e-06	5.310070e-06	2.411387e-08	3.835153e+01	1.583553e+03
1.700000e-06	5.301813e-06	2.409706e-08	3.829189e+01	1.582515e+03
1.710000e-06	5.292050e-06	2.407886e-08	3.822138e+01	1.581239e+03
1.720000e-06	5.280618e-06	2.406808e-08	3.813882e+01	1.579703e+03
1.730000e-06	5.267198e-06	2.407073e-08	3.804189e+01	1.577900e+03
1.740000e-06	5.251813e-06	2.396157e-08	3.793078e+01	1.575842e+03
1.750000e-06	5.234347e-06	2.388272e-08	3.780462e+01	1.573564e+03
1.760000e-06	5.214323e-06	2.390808e-08	3.766000e+01	1.571113e+03
1.770000e-06	5.191821e-06	2.388039e-08	3.749748e+01	1.568545e+03
1.780000e-06	5.167633e-06	2.396395e-08	3.732279e+01	1.565909e+03
1.790000e-06	5.142639e-06	2.386716e-08	3.714228e+01	1.563240e+03
1.800000e-06	5.116673e-06	2.362991e-08	3.695474e+01	1.560545e+03
1.810000e-06	5.088702e-06	2.380376e-08	3.675272e+01	1.557802e+03
1.820000e-06	5.058651e-06	2.370143e-08	3.653568e+01	1.554964e+03
1.830000e-06	5.027005e-06	2.351493e-08	3.630712e+01	1.551965e+03
1.840000e-06	4.993517e-06	2.374811e-08	3.606525e+01	1.548732e+03
1.850000e-06	4.958346e-06	2.354879e-08	3.581123e+01	1.545197e+03
1.860000e-06	4.921593e-06	2.338166e-08	3.554579e+01	1.541312e+03
1.870000e-06	4.882868e-06	2.351806e-08	3.526610e+01	1.537052e+03
1.880000e-06	4.842471e-06	2.331095e-08	3.497434e+01	1.532418e+03
1.890000e-06	4.800412e-06	2.332320e-08	3.467057e+01	1.527430e+03
1.900000e-06	4.756575e-06	2.325269e-08	3.435396e+01	1.522124e+03
1.910000e-06	4.711081e-06	2.298472e-08	3.402538e+01	1.516537e+03
1.920000e-06	4.663647e-06	2.313124e-08	3.368279e+01	1.510698e+03
1.930000e-06	4.614495e-06	2.301700e-08	3.332780e+01	1.504622e+03
1.940000e-06	4.563687e-06	2.284452e-08	3.296084e+01	1.498308e+03
1.950000e-06	4.510795e-06	2.277270e-08	3.257883e+01	1.491739e+03
1.960000e-06	4.455992e-06	2.261812e-08	3.218302e+01	1.484893e+03
1.970000e-06	4.399491e-06	2.258722e-08	3.177495e+01	1.477741e+03
1.980000e-06	4.341458e-06	2.237787e-08	3.135581e+01	1.470265e+03
1.990000e-06	4.282060e-06	2.231512e-08	3.092681e+01	1.462454e+03
2.000000e-06	4.221138e-06	2.228927e-08	3.048681e+01	1.454310e+03
2.010000e-06	4.158520e-06	2.204560e-08	3.003456e+01	1.445845e+03
2.020000e-06	4.094238e-06	2.191899e-08	2.957029e+01	1.437072e+03
2.030000e-06	4.028559e-06	2.174124e-08	2.909592e+01	1.428006e+03
2.040000e-06	3.961567e-06	2.167457e-08	2.861208e+01	1.418649e+03
2.050000e-06	3.893210e-06	2.155500e-08	2.811838e+01	1.408997e+03
2.060000e-06	3.823352e-06	2.133564e-08	2.761383e+01	1.399029e+03
2.070000e-06	3.751979e-06	2.122755e-08	2.709835e+01	1.388720e+03
2.080000e-06	3.679378e-06	2.101722e-08	2.657400e+01	1.378035e+03
2.090000e-06	3.605489e-06	2.086422e-08	2.604034e+01	1.366946e+03
2.100000e-06	3.530210e-06	2.069826e-08	2.549664e+01	1.355426e+03
2.110000e-06	3.453468e-06	2.051894e-08	2.494238e+01	1.343459e+03
2.120000e-06	3.375228e-06	2.034251e-08	2.437729e+01	1.331036e+03
2.130000e-06	3.295773e-06	2.011363e-08	2.380344e+01	1.318155e+03
2.140000e-06	3.215217e-06	1.993268e-08	2.322163e+01	1.304813e+03
2.150000e-06	3.133512e-06	1.970824e-08	2.263152e+01	1.291005e+03
2.160000e-06	3.050782e-06	1.950891e-08	2.203402e+01	1.276718e+03
2.170000e-06	2.967116e-06	1.929493e-08	2.142974e+01	1.261929e+03
2.180000e-06	2.882293e-06	1.905072e-08	2.081712e+01	1.246608e+03
2.190000e-06	2.796212e-06	1.880534e-08	2.019541e+01	1.230715e+03
2.200000e-06	2.709018e-06	1.854670e-08	1.956565e+01	1.214211e+03
2.210000e-06	2.620838e-06	1.830532e-08	1.892878e+01	1.197057e+03
2.220000e-06	2.531781e-06	1.802995e-08	1.828557e+01	1.179215e+03
2.230000e-06	2.441850e-06	1.774666e-08	1.763606e+01	1.160655e+03
2.240000e-06	2.351174e-06	1.745072e-08	1.698116e+01	1.141346e+03
2.250000e-06	2.259854e-06	1.715263e-08	1.632160e+01	1.121258e+03
2.260000e-06	2.167775e-06	1.683580e-08	1.565657e+01	1.100358e+03
2.270000e-06	2.074808e-06	1.649856e-08	1.498513e+01	1.078603e+03
2.280000e-06	1.980845e-06	1.615884e-08	1.430648e+01	1.055940e+03
2.290000e-06	1.885962e-06	1.579853e-08	1.362120e+01	1.032306e+03
2.300000e-06	1.790392e-06	1.542393e-08	1.293096e+01	1.007628e+03
2.310000e-06	1.694270e-06	1.503169e-08	1.223672e+01	9.818269e+02
2.320000e-06	1.597653e-06	1.462682e-08	1.153891e+01	9.548190e+02
2.330000e-06	1.500529e-06	1.419687e-08	1.083744e+01	9.265219e+02
2.340000e-06	1.402958e-06	1.373814e-08	1.013275e+01	8.968554e+02
2.350000e-06	1.304963e-06	1.325760e-08	9.424982e+00	8.657440e+02
2.360000e-06	1.206560e-06	1.276566e-08	8.714276e+00	8.331177e+02
2.370000e-06	1.107851e-06	1.225605e-08	8.001359e+00	7.989139e+02
2.380000e-06	1.008837e-06	1.171368e-08	7.286239e+00	7.630801e+02
2.390000e-06	9.095737e-07	1.113871e-08	6.569318e+00	7.255780e+02
2.400000e-06	8.100792e-07	1.053486e-08	5.850728e+00	6.863900e+02
2.410000e-06	7.103470e-07	9.909548e-09	5.130421e+00	6.455267e+02
2.420000e-06	6.104012e-07	9.260474e-09	4.408571e+00	6.030351e+02
2.430000e-06	5.102285e-07	8.589704e-09	3.685082e+00	5.590036e+02
2.440000e-06	4.098104e-07	7.899229e-09	2.959821e+00	5.135651e+02
2.450000e-06	3.092003e-07	7.187616e-09	2.233173e+00	4.668931e+02
2.460000e-06	2.084612e-07	6.453931e-09	1.505593e+00	4.191925e+02
2.470000e-06	1.076231e-07	5.709882e-09	7.772990e-01	3.706832e+02
2.480000e-06	6.760376e-09	4.964900e-09	4.882624e-02	3.215802e+02
2.490000e-06	-9.404663e-08	4.211455e-09	-6.792438e-01	2.720701e+02
2.500000e-06	-1.948036e-07	3.447657e-09	-1.406953e+00	2.222905e+02
2.510000e-06	-2.954986e-07	2.680534e-09	-2.134214e+00	1.723125e+02
2.520000e-06	-3.960967e-07	1.912032e-09	-2.860775e+00	1.221330e+02
2.530000e-06	-4.965627e-07	1.138862e-09	-3.586382e+00	7.167694e+01
2.540000e-06	-5.968473e-07	3.611427e-10	-4.310679e+00	2.080996e+01
2.550000e-06	-6.969188e-07	-4.248878e-10	-5.033437e+00	-3.063743e+01
2.560000e-06	-7.967584e-07	-1.221464e-09	-5.754520e+00	-8.283888e+01
2.570000e-06	-8.963459e-07	-2.030514e-09	-6.473782e+00	-1.359375e+02
2.580000e-06	-9.956271e-07	-2.854185e-09	-7.190832e+00	-1.900126e+02
2.590000e-06	-1.094568e-06	-3.693297e-09	-7.905426e+00	-2.450521e+02
2.600000e-06	-1.193132e-06	-4.549151e-09	-8.617294e+00	-3.009359e+02
2.610000e-06	-1.291320e-06	-5.414835e-09	-9.326453e+00	-3.574319e+02
2.620000e-06	-1.389124e-06	-6.285184e-09	-1.003283e+01	-4.142056e+02
2.630000e-06	-1.486368e-06	-7.153994e-09	-1.073517e+01	-4.708435e+02
2.640000e-06	-1.583021e-06	-8.011625e-09	-1.143323e+01	-5.268853e+02
2.650000e-06	-1.679207e-06	-8.853120e-09	-1.212793e+01	-5.818621e+02
2.660000e-06	-1.774962e-06	-9.673147e-09	-1.281951e+01	-6.353343e+02
2.670000e-06	-1.870219e-06	-1.046530e-08	-1.350749e+01	-6.869250e+02
2.680000e-06	-1.964747e-06	-1.122294e-08	-1.419022e+01	-7.363447e+02
2.690000e-06	-2.058279e-06	-1.194239e-08	-1.486574e+01	-7.834033e+02
2.700000e-06	-2.150855e-06	-1.262597e-08	-1.553437e+01	-8.280110e+02
2.710000e-06	-2.242695e-06	-1.327537e-08	-1.619767e+01	-8.701676e+02
2.720000e-06	-2.333766e-06	-1.388873e-08	-1.685543e+01	-9.099429e+02
2.730000e-06	-2.423981e-06	-1.446752e-08	-1.750700e+01	-9.474541e+02
2.740000e-06	-2.513267e-06	-1.501388e-08	-1.815186e+01	-9.828416e+02
2.750000e-06	-2.601634e-06	-1.552615e-08	-1.879008e+01	-1.016250e+03
2.760000e-06	-2.689256e-06	-1.600647e-08	-1.942292e+01	-1.047812e+03
2.770000e-06	-2.776103e-06	-1.646098e-08	-2.005016e+01	-1.077644e+03
2.780000e-06	-2.861847e-06	-1.689234e-08	-2.066945e+01	-1.105846e+03
2.790000e-06	-2.946375e-06	-1.730137e-08	-2.127995e+01	-1.132504e+03
2.800000e-06	-3.029881e-06	-1.768817e-08	-2.188306e+01	-1.157699e+03
2.810000e-06	-3.112398e-06	-1.805330e-08	-2.247903e+01	-1.181512e+03
2.820000e-06	-3.193870e-06	-1.839793e-08	-2.306746e+01	-1.204030e+03
2.830000e-06	-3.274332e-06	-1.872418e-08	-2.364858e+01	-1.225344e+03
2.840000e-06	-3.353776e-06	-1.903522e-08	-2.422236e+01	-1.245548e+03
2.850000e-06	-3.431897e-06	-1.933144e-08	-2.478658e+01	-1.264735e+03
2.860000e-06	-3.508495e-06	-1.961301e-08	-2.533981e+01	-1.282985e+03
2.870000e-06	-3.583657e-06	-1.987929e-08	-2.588266e+01	-1.300367e+03
2.880000e-06	-3.657424e-06	-2.013075e-08	-2.641544e+01	-1.316933e+03
2.890000e-06	-3.729903e-06	-2.037134e-08	-2.693891e+01	-1.332720e+03
2.900000e-06	-3.801131e-06	-2.060340e-08	-2.745335e+01	-1.347755e+03
2.910000e-06	-3.870875e-06	-2.082707e-08	-2.795706e+01	-1.362061e+03
2.920000e-06	-3.939041e-06	-2.104175e-08	-2.844939e+01	-1.375663e+03
2.930000e-06	-4.005811e-06	-2.124487e-08	-2.893163e+01	-1.388593e+03
2.940000e-06	-4.071219e-06	-2.143446e-08	-2.940403e+01	-1.400889e+03
