# Temperatura_=_65.5
# Concentracion g/m^3_=_28200.0
# C_Vs_to_Am_M_A/Vsm_=_65563218390.804596
# pendiente_HvsI_1/m_=_3716.3
# ordenada_HvsI_A/m_=_1297.0
# frecuencia_Hz_=_301763.83415564767

Tiempo_(s)	Campo_(V.s)	Magnetizacion_(V.s)	Campo_(kA/m)	Magnetizacion_(A/m)
0.000000e+00	-5.314825e-06	-2.181367e-08	-3.829795e+01	-1.427331e+03
1.000000e-08	-5.313050e-06	-2.180802e-08	-3.828516e+01	-1.426986e+03
2.000000e-08	-5.309357e-06	-2.179721e-08	-3.825855e+01	-1.426498e+03
3.000000e-08	-5.304011e-06	-2.178300e-08	-3.822002e+01	-1.425859e+03
4.000000e-08	-5.297139e-06	-2.176893e-08	-3.817051e+01	-1.425051e+03
5.000000e-08	-5.288564e-06	-2.175202e-08	-3.810872e+01	-1.424054e+03
6.000000e-08	-5.277996e-06	-2.173140e-08	-3.803257e+01	-1.422846e+03
7.000000e-08	-5.265493e-06	-2.170693e-08	-3.794247e+01	-1.421412e+03
8.000000e-08	-5.251093e-06	-2.167858e-08	-3.783871e+01	-1.419753e+03
9.000000e-08	-5.234496e-06	-2.167724e-08	-3.771911e+01	-1.417880e+03
1.000000e-07	-5.215720e-06	-2.167893e-08	-3.758381e+01	-1.415821e+03
1.100000e-07	-5.195063e-06	-2.162374e-08	-3.743496e+01	-1.413611e+03
1.200000e-07	-5.172604e-06	-2.156314e-08	-3.727312e+01	-1.411289e+03
1.300000e-07	-5.148469e-06	-2.149944e-08	-3.709921e+01	-1.408890e+03
1.400000e-07	-5.122755e-06	-2.142425e-08	-3.691391e+01	-1.406435e+03
1.500000e-07	-5.095478e-06	-2.144764e-08	-3.671736e+01	-1.403928e+03
1.600000e-07	-5.066694e-06	-2.141949e-08	-3.650995e+01	-1.401354e+03
1.700000e-07	-5.036520e-06	-2.130795e-08	-3.629252e+01	-1.398680e+03
1.800000e-07	-5.004681e-06	-2.132210e-08	-3.606309e+01	-1.395861e+03
1.900000e-07	-4.970689e-06	-2.126153e-08	-3.581815e+01	-1.392847e+03
2.000000e-07	-4.934945e-06	-2.117083e-08	-3.556058e+01	-1.389589e+03
2.100000e-07	-4.897738e-06	-2.119839e-08	-3.529248e+01	-1.386048e+03
2.200000e-07	-4.858824e-06	-2.109594e-08	-3.501207e+01	-1.382202e+03
2.300000e-07	-4.818078e-06	-2.097012e-08	-3.471846e+01	-1.378041e+03
2.400000e-07	-4.775383e-06	-2.091927e-08	-3.441080e+01	-1.373571e+03
2.500000e-07	-4.730816e-06	-2.082653e-08	-3.408965e+01	-1.368809e+03
2.600000e-07	-4.684495e-06	-2.079804e-08	-3.375587e+01	-1.363774e+03
2.700000e-07	-4.636332e-06	-2.074287e-08	-3.340882e+01	-1.358487e+03
2.800000e-07	-4.586066e-06	-2.059137e-08	-3.304661e+01	-1.352962e+03
2.900000e-07	-4.533687e-06	-2.048599e-08	-3.266917e+01	-1.347205e+03
3.000000e-07	-4.479598e-06	-2.041616e-08	-3.227941e+01	-1.341213e+03
3.100000e-07	-4.423956e-06	-2.033737e-08	-3.187846e+01	-1.334975e+03
3.200000e-07	-4.366580e-06	-2.024224e-08	-3.146502e+01	-1.328478e+03
3.300000e-07	-4.307449e-06	-2.014426e-08	-3.103893e+01	-1.321705e+03
3.400000e-07	-4.246806e-06	-2.002465e-08	-3.060194e+01	-1.314643e+03
3.500000e-07	-4.184712e-06	-1.988124e-08	-3.015450e+01	-1.307285e+03
3.600000e-07	-4.121246e-06	-1.976951e-08	-2.969717e+01	-1.299627e+03
3.700000e-07	-4.056358e-06	-1.967196e-08	-2.922960e+01	-1.291669e+03
3.800000e-07	-3.989845e-06	-1.956981e-08	-2.875031e+01	-1.283415e+03
3.900000e-07	-3.921784e-06	-1.943010e-08	-2.825987e+01	-1.274865e+03
4.000000e-07	-3.852355e-06	-1.926109e-08	-2.775958e+01	-1.266020e+03
4.100000e-07	-3.781739e-06	-1.912541e-08	-2.725073e+01	-1.256872e+03
4.200000e-07	-3.709954e-06	-1.898974e-08	-2.673345e+01	-1.247411e+03
4.300000e-07	-3.636816e-06	-1.884242e-08	-2.620643e+01	-1.237620e+03
4.400000e-07	-3.562172e-06	-1.868815e-08	-2.566856e+01	-1.227479e+03
4.500000e-07	-3.486003e-06	-1.851812e-08	-2.511970e+01	-1.216966e+03
4.600000e-07	-3.408431e-06	-1.834341e-08	-2.456072e+01	-1.206061e+03
4.700000e-07	-3.329502e-06	-1.817785e-08	-2.399197e+01	-1.194743e+03
4.800000e-07	-3.249219e-06	-1.801576e-08	-2.341346e+01	-1.182996e+03
4.900000e-07	-3.167727e-06	-1.782776e-08	-2.282623e+01	-1.170806e+03
5.000000e-07	-3.085166e-06	-1.762542e-08	-2.223131e+01	-1.158160e+03
5.100000e-07	-3.001643e-06	-1.742060e-08	-2.162946e+01	-1.145045e+03
5.200000e-07	-2.917239e-06	-1.720853e-08	-2.102125e+01	-1.131445e+03
5.300000e-07	-2.831962e-06	-1.699384e-08	-2.040676e+01	-1.117340e+03
5.400000e-07	-2.745735e-06	-1.677340e-08	-1.978542e+01	-1.102705e+03
5.500000e-07	-2.658602e-06	-1.654092e-08	-1.915755e+01	-1.087511e+03
5.600000e-07	-2.570550e-06	-1.629180e-08	-1.852306e+01	-1.071722e+03
5.700000e-07	-2.481372e-06	-1.603736e-08	-1.788045e+01	-1.055301e+03
5.800000e-07	-2.391064e-06	-1.578467e-08	-1.722970e+01	-1.038206e+03
5.900000e-07	-2.299779e-06	-1.552175e-08	-1.657191e+01	-1.020398e+03
6.000000e-07	-2.207691e-06	-1.523754e-08	-1.590834e+01	-1.001836e+03
6.100000e-07	-2.114901e-06	-1.493317e-08	-1.523971e+01	-9.824787e+02
6.200000e-07	-2.021330e-06	-1.462054e-08	-1.456544e+01	-9.622863e+02
6.300000e-07	-1.927020e-06	-1.429964e-08	-1.388586e+01	-9.412163e+02
6.400000e-07	-1.832120e-06	-1.396897e-08	-1.320202e+01	-9.192227e+02
6.500000e-07	-1.736593e-06	-1.362300e-08	-1.251366e+01	-8.962541e+02
6.600000e-07	-1.640412e-06	-1.325348e-08	-1.182060e+01	-8.722521e+02
6.700000e-07	-1.543575e-06	-1.286327e-08	-1.112280e+01	-8.471506e+02
6.800000e-07	-1.446044e-06	-1.245698e-08	-1.042001e+01	-8.208767e+02
6.900000e-07	-1.347882e-06	-1.203869e-08	-9.712662e+00	-7.933529e+02
7.000000e-07	-1.249228e-06	-1.160519e-08	-9.001775e+00	-7.645009e+02
7.100000e-07	-1.150186e-06	-1.114872e-08	-8.288096e+00	-7.342468e+02
7.200000e-07	-1.050834e-06	-1.066193e-08	-7.572174e+00	-7.025271e+02
7.300000e-07	-9.511904e-07	-1.014569e-08	-6.854156e+00	-6.692960e+02
7.400000e-07	-8.512267e-07	-9.609440e-09	-6.133831e+00	-6.345321e+02
7.500000e-07	-7.510106e-07	-9.057919e-09	-5.411687e+00	-5.982450e+02
7.600000e-07	-6.506048e-07	-8.485993e-09	-4.688175e+00	-5.604795e+02
7.700000e-07	-5.499678e-07	-7.891755e-09	-3.962998e+00	-5.213192e+02
7.800000e-07	-4.491205e-07	-7.277707e-09	-3.236305e+00	-4.808853e+02
7.900000e-07	-3.481662e-07	-6.644877e-09	-2.508841e+00	-4.393331e+02
8.000000e-07	-2.471280e-07	-5.995858e-09	-1.780773e+00	-3.968441e+02
8.100000e-07	-1.459764e-07	-5.336225e-09	-1.051887e+00	-3.536143e+02
8.200000e-07	-4.468260e-08	-4.671130e-09	-3.219771e-01	-3.098394e+02
8.300000e-07	5.665682e-08	-4.001914e-09	4.082618e-01	-2.656975e+02
8.400000e-07	1.579395e-07	-3.328809e-09	1.138092e+00	-2.213326e+02
8.500000e-07	2.591849e-07	-2.655030e-09	1.867653e+00	-1.768392e+02
8.600000e-07	3.603771e-07	-1.982370e-09	2.596831e+00	-1.322519e+02
8.700000e-07	4.614647e-07	-1.306165e-09	3.325256e+00	-8.754156e+01
8.800000e-07	5.624493e-07	-6.225285e-10	4.052938e+00	-4.261948e+01
8.900000e-07	6.632987e-07	6.786406e-11	4.779646e+00	2.649263e+00
9.000000e-07	7.639481e-07	7.666084e-10	5.504912e+00	4.842481e+01
9.100000e-07	8.644075e-07	1.473906e-09	6.228810e+00	9.486543e+01
9.200000e-07	9.645830e-07	2.190912e-09	6.950662e+00	1.420979e+02
9.300000e-07	1.064380e-06	2.921017e-09	7.669787e+00	1.901891e+02
9.400000e-07	1.163842e-06	3.664464e-09	8.386498e+00	2.391233e+02
9.500000e-07	1.262923e-06	4.418992e-09	9.100459e+00	2.887888e+02
9.600000e-07	1.361508e-06	5.180384e-09	9.810851e+00	3.389758e+02
9.700000e-07	1.459519e-06	5.947137e-09	1.051710e+01	3.893866e+02
9.800000e-07	1.556839e-06	6.713172e-09	1.121838e+01	4.396577e+02
9.900000e-07	1.653355e-06	7.471829e-09	1.191387e+01	4.893888e+02
1.000000e-06	1.749147e-06	8.216611e-09	1.260413e+01	5.381769e+02
1.010000e-06	1.844328e-06	8.939334e-09	1.328999e+01	5.856492e+02
1.020000e-06	1.938899e-06	9.634803e-09	1.397146e+01	6.314905e+02
1.030000e-06	2.032832e-06	1.030004e-08	1.464833e+01	6.754621e+02
1.040000e-06	2.126051e-06	1.093413e-08	1.532005e+01	7.174098e+02
1.050000e-06	2.218548e-06	1.153631e-08	1.598657e+01	7.572620e+02
1.060000e-06	2.310331e-06	1.210854e-08	1.664795e+01	7.950178e+02
1.070000e-06	2.401382e-06	1.265116e-08	1.730405e+01	8.307303e+02
1.080000e-06	2.491556e-06	1.316380e-08	1.795383e+01	8.644869e+02
1.090000e-06	2.580690e-06	1.365015e-08	1.859613e+01	8.963917e+02
1.100000e-06	2.668710e-06	1.411066e-08	1.923038e+01	9.265513e+02
1.110000e-06	2.755769e-06	1.454538e-08	1.985772e+01	9.550660e+02
1.120000e-06	2.842000e-06	1.495416e-08	2.047909e+01	9.820268e+02
1.130000e-06	2.927286e-06	1.533883e-08	2.109365e+01	1.007517e+03
1.140000e-06	3.011679e-06	1.570189e-08	2.170178e+01	1.031613e+03
1.150000e-06	3.095210e-06	1.604599e-08	2.230369e+01	1.054395e+03
1.160000e-06	3.177728e-06	1.637361e-08	2.289830e+01	1.075940e+03
1.170000e-06	3.259002e-06	1.668602e-08	2.348395e+01	1.096332e+03
1.180000e-06	3.339006e-06	1.698136e-08	2.406045e+01	1.115652e+03
1.190000e-06	3.417846e-06	1.725936e-08	2.462856e+01	1.133980e+03
1.200000e-06	3.495516e-06	1.752269e-08	2.518824e+01	1.151388e+03
1.210000e-06	3.571993e-06	1.777230e-08	2.573933e+01	1.167937e+03
1.220000e-06	3.647132e-06	1.800995e-08	2.628077e+01	1.183681e+03
1.230000e-06	3.720696e-06	1.823650e-08	2.681086e+01	1.198659e+03
1.240000e-06	3.792730e-06	1.845209e-08	2.732993e+01	1.212906e+03
1.250000e-06	3.863385e-06	1.865559e-08	2.783906e+01	1.226455e+03
1.260000e-06	3.932676e-06	1.884855e-08	2.833836e+01	1.239337e+03
1.270000e-06	4.000640e-06	1.903193e-08	2.882810e+01	1.251589e+03
1.280000e-06	4.067198e-06	1.920674e-08	2.930771e+01	1.263250e+03
1.290000e-06	4.132134e-06	1.937499e-08	2.977563e+01	1.274358e+03
1.300000e-06	4.195481e-06	1.953691e-08	3.023210e+01	1.284952e+03
1.310000e-06	4.257426e-06	1.969352e-08	3.067847e+01	1.295061e+03
1.320000e-06	4.318037e-06	1.984400e-08	3.111522e+01	1.304707e+03
1.330000e-06	4.377263e-06	1.998564e-08	3.154200e+01	1.313898e+03
1.340000e-06	4.434798e-06	2.011924e-08	3.195659e+01	1.322636e+03
1.350000e-06	4.490567e-06	2.024612e-08	3.235845e+01	1.330915e+03
1.360000e-06	4.544718e-06	2.036443e-08	3.274865e+01	1.338733e+03
1.370000e-06	4.597146e-06	2.047332e-08	3.312645e+01	1.346090e+03
1.380000e-06	4.647632e-06	2.057505e-08	3.349024e+01	1.352999e+03
1.390000e-06	4.696109e-06	2.067163e-08	3.383956e+01	1.359484e+03
1.400000e-06	4.742829e-06	2.076456e-08	3.417622e+01	1.365582e+03
1.410000e-06	4.788004e-06	2.085422e-08	3.450175e+01	1.371336e+03
1.420000e-06	4.831648e-06	2.093980e-08	3.481624e+01	1.376788e+03
1.430000e-06	4.873535e-06	2.101981e-08	3.511807e+01	1.381978e+03
1.440000e-06	4.913583e-06	2.109509e-08	3.540665e+01	1.386930e+03
1.450000e-06	4.951978e-06	2.116633e-08	3.568332e+01	1.391658e+03
1.460000e-06	4.988800e-06	2.123402e-08	3.594865e+01	1.396157e+03
1.470000e-06	5.023962e-06	2.129888e-08	3.620203e+01	1.400415e+03
1.480000e-06	5.057205e-06	2.136009e-08	3.644157e+01	1.404409e+03
1.490000e-06	5.088542e-06	2.141699e-08	3.666739e+01	1.408120e+03
1.500000e-06	5.118191e-06	2.146938e-08	3.688103e+01	1.411533e+03
1.510000e-06	5.146175e-06	2.151768e-08	3.708268e+01	1.414643e+03
1.520000e-06	5.172284e-06	2.156025e-08	3.727082e+01	1.417456e+03
1.530000e-06	5.196336e-06	2.159812e-08	3.744414e+01	1.419986e+03
1.540000e-06	5.218498e-06	2.163329e-08	3.760383e+01	1.422252e+03
1.550000e-06	5.239000e-06	2.166475e-08	3.775156e+01	1.424274e+03
1.560000e-06	5.257790e-06	2.169170e-08	3.788696e+01	1.426067e+03
1.570000e-06	5.274615e-06	2.171406e-08	3.800820e+01	1.427641e+03
1.580000e-06	5.289451e-06	2.173305e-08	3.811511e+01	1.428997e+03
1.590000e-06	5.302345e-06	2.175004e-08	3.820802e+01	1.430135e+03
1.600000e-06	5.313108e-06	2.176432e-08	3.828558e+01	1.431050e+03
1.610000e-06	5.321701e-06	2.177428e-08	3.834749e+01	1.431743e+03
1.620000e-06	5.328345e-06	2.178282e-08	3.839538e+01	1.432219e+03
1.630000e-06	5.333216e-06	2.179052e-08	3.843047e+01	1.432488e+03
1.640000e-06	5.336258e-06	2.179552e-08	3.845240e+01	1.432569e+03
1.650000e-06	5.337314e-06	2.179836e-08	3.846000e+01	1.432481e+03
1.660000e-06	5.336476e-06	2.179658e-08	3.845397e+01	1.432238e+03
1.670000e-06	5.333967e-06	2.178925e-08	3.843589e+01	1.431852e+03
1.680000e-06	5.329887e-06	2.178076e-08	3.840649e+01	1.431321e+03
1.690000e-06	5.323985e-06	2.177002e-08	3.836396e+01	1.430635e+03
1.700000e-06	5.316132e-06	2.175649e-08	3.830737e+01	1.429775e+03
1.710000e-06	5.306673e-06	2.174247e-08	3.823921e+01	1.428718e+03
1.720000e-06	5.295658e-06	2.172933e-08	3.815984e+01	1.427446e+03
1.730000e-06	5.282792e-06	2.171988e-08	3.806712e+01	1.425947e+03
1.740000e-06	5.267886e-06	2.167094e-08	3.795972e+01	1.424223e+03
1.750000e-06	5.250826e-06	2.159803e-08	3.783678e+01	1.422293e+03
1.760000e-06	5.231366e-06	2.158811e-08	3.769656e+01	1.420186e+03
1.770000e-06	5.209371e-06	2.158094e-08	3.753806e+01	1.417939e+03
1.780000e-06	5.185464e-06	2.158586e-08	3.736579e+01	1.415591e+03
1.790000e-06	5.160598e-06	2.156116e-08	3.718661e+01	1.413174e+03
1.800000e-06	5.134799e-06	2.142267e-08	3.700071e+01	1.410704e+03
1.810000e-06	5.107265e-06	2.142955e-08	3.680230e+01	1.408179e+03
1.820000e-06	5.077690e-06	2.144588e-08	3.658919e+01	1.405580e+03
1.830000e-06	5.046356e-06	2.132482e-08	3.636340e+01	1.402869e+03
1.840000e-06	5.013190e-06	2.137106e-08	3.612441e+01	1.399998e+03
1.850000e-06	4.978311e-06	2.133584e-08	3.587307e+01	1.396918e+03
1.860000e-06	4.941902e-06	2.117926e-08	3.561072e+01	1.393582e+03
1.870000e-06	4.903594e-06	2.121151e-08	3.533468e+01	1.389955e+03
1.880000e-06	4.863473e-06	2.115341e-08	3.504557e+01	1.386018e+03
1.890000e-06	4.821692e-06	2.108864e-08	3.474450e+01	1.381767e+03
1.900000e-06	4.778170e-06	2.106571e-08	3.443088e+01	1.377211e+03
1.910000e-06	4.732980e-06	2.087222e-08	3.410525e+01	1.372367e+03
1.920000e-06	4.685879e-06	2.085756e-08	3.376584e+01	1.367258e+03
1.930000e-06	4.636948e-06	2.086642e-08	3.341326e+01	1.361901e+03
1.940000e-06	4.586434e-06	2.071965e-08	3.304926e+01	1.356309e+03
1.950000e-06	4.534018e-06	2.064082e-08	3.267156e+01	1.350485e+03
1.960000e-06	4.479587e-06	2.053321e-08	3.227933e+01	1.344423e+03
1.970000e-06	4.423362e-06	2.044289e-08	3.187418e+01	1.338111e+03
1.980000e-06	4.365512e-06	2.031514e-08	3.145732e+01	1.331536e+03
1.990000e-06	4.306254e-06	2.020608e-08	3.103032e+01	1.324681e+03
2.000000e-06	4.245617e-06	2.018612e-08	3.059337e+01	1.317534e+03
2.010000e-06	4.183398e-06	2.003578e-08	3.014503e+01	1.310090e+03
2.020000e-06	4.119473e-06	1.988351e-08	2.968440e+01	1.302345e+03
2.030000e-06	4.053970e-06	1.974641e-08	2.921239e+01	1.294301e+03
2.040000e-06	3.987090e-06	1.963248e-08	2.873046e+01	1.285962e+03
2.050000e-06	3.918933e-06	1.954563e-08	2.823933e+01	1.277327e+03
2.060000e-06	3.849316e-06	1.937858e-08	2.773768e+01	1.268395e+03
2.070000e-06	3.778165e-06	1.925479e-08	2.722497e+01	1.259159e+03
2.080000e-06	3.705698e-06	1.910243e-08	2.670278e+01	1.249604e+03
2.090000e-06	3.631916e-06	1.893915e-08	2.617112e+01	1.239715e+03
2.100000e-06	3.556796e-06	1.880163e-08	2.562981e+01	1.229469e+03
2.110000e-06	3.480283e-06	1.863281e-08	2.507847e+01	1.218845e+03
2.120000e-06	3.402198e-06	1.846725e-08	2.451580e+01	1.207823e+03
2.130000e-06	3.322762e-06	1.827653e-08	2.394340e+01	1.196383e+03
2.140000e-06	3.242235e-06	1.810416e-08	2.336313e+01	1.184510e+03
2.150000e-06	3.160622e-06	1.792073e-08	2.277504e+01	1.172190e+03
2.160000e-06	3.077940e-06	1.772930e-08	2.217924e+01	1.159411e+03
2.170000e-06	2.994274e-06	1.754263e-08	2.157635e+01	1.146158e+03
2.180000e-06	2.909594e-06	1.732703e-08	2.096616e+01	1.132415e+03
2.190000e-06	2.823633e-06	1.710441e-08	2.034674e+01	1.118160e+03
2.200000e-06	2.736420e-06	1.687465e-08	1.971829e+01	1.103368e+03
2.210000e-06	2.648262e-06	1.665280e-08	1.908303e+01	1.088007e+03
2.220000e-06	2.559251e-06	1.641199e-08	1.844164e+01	1.072041e+03
2.230000e-06	2.469354e-06	1.614800e-08	1.779385e+01	1.055430e+03
2.240000e-06	2.378589e-06	1.587980e-08	1.713981e+01	1.038136e+03
2.250000e-06	2.287099e-06	1.561196e-08	1.648055e+01	1.020115e+03
2.260000e-06	2.194982e-06	1.533688e-08	1.581676e+01	1.001329e+03
2.270000e-06	2.102079e-06	1.503850e-08	1.514731e+01	9.817367e+02
2.280000e-06	2.008179e-06	1.472707e-08	1.447068e+01	9.612971e+02
2.290000e-06	1.913328e-06	1.439801e-08	1.378719e+01	9.399673e+02
2.300000e-06	1.817745e-06	1.405409e-08	1.309844e+01	9.176998e+02
2.310000e-06	1.721586e-06	1.369814e-08	1.240553e+01	8.944414e+02
2.320000e-06	1.624919e-06	1.333286e-08	1.170896e+01	8.701315e+02
2.330000e-06	1.527718e-06	1.295343e-08	1.100854e+01	8.447019e+02
2.340000e-06	1.429963e-06	1.254790e-08	1.030413e+01	8.180780e+02
2.350000e-06	1.331769e-06	1.211707e-08	9.596556e+00	7.901819e+02
2.360000e-06	1.233184e-06	1.166983e-08	8.886166e+00	7.609356e+02
2.370000e-06	1.134273e-06	1.121021e-08	8.173424e+00	7.302677e+02
2.380000e-06	1.035144e-06	1.072796e-08	7.459117e+00	6.981191e+02
2.390000e-06	9.357599e-07	1.021604e-08	6.742966e+00	6.644502e+02
2.400000e-06	8.361361e-07	9.674490e-09	6.025090e+00	6.292478e+02
2.410000e-06	7.362968e-07	9.109499e-09	5.305661e+00	5.925312e+02
2.420000e-06	6.362080e-07	8.524096e-09	4.584433e+00	5.543562e+02
2.430000e-06	5.358445e-07	7.920231e-09	3.861227e+00	5.148172e+02
2.440000e-06	4.352717e-07	7.301291e-09	3.136513e+00	4.740457e+02
2.450000e-06	3.345236e-07	6.666280e-09	2.410535e+00	4.322056e+02
2.460000e-06	2.335843e-07	6.013867e-09	1.683178e+00	3.894839e+02
2.470000e-06	1.325430e-07	5.348342e-09	9.550883e-01	3.460780e+02
2.480000e-06	3.139871e-08	4.676030e-09	2.262551e-01	3.021804e+02
2.490000e-06	-6.982369e-08	3.998713e-09	-5.031406e-01	2.579611e+02
2.500000e-06	-1.710281e-07	3.316238e-09	-1.232407e+00	2.135515e+02
2.510000e-06	-2.721890e-07	2.631139e-09	-1.961359e+00	1.690297e+02
2.520000e-06	-3.732386e-07	1.946573e-09	-2.689510e+00	1.244122e+02
2.530000e-06	-4.741049e-07	1.262089e-09	-3.416340e+00	7.965186e+01
2.540000e-06	-5.747780e-07	5.743371e-10	-4.141777e+00	3.464522e+01
2.550000e-06	-6.752119e-07	-1.207865e-10	-4.865491e+00	-1.075236e+01
2.560000e-06	-7.753633e-07	-8.255308e-10	-5.587169e+00	-5.670343e+01
2.570000e-06	-8.751881e-07	-1.539018e-09	-6.306494e+00	-1.033603e+02
2.580000e-06	-9.746917e-07	-2.261576e-09	-7.023504e+00	-1.508354e+02
2.590000e-06	-1.073912e-06	-2.996303e-09	-7.738471e+00	-1.991739e+02
2.600000e-06	-1.172838e-06	-3.746673e-09	-8.451323e+00	-2.483337e+02
2.610000e-06	-1.271400e-06	-4.510096e-09	-9.161549e+00	-2.981746e+02
2.620000e-06	-1.369458e-06	-5.282137e-09	-9.868137e+00	-3.484601e+02
2.630000e-06	-1.466988e-06	-6.057811e-09	-1.057093e+01	-3.988711e+02
2.640000e-06	-1.564020e-06	-6.827114e-09	-1.127013e+01	-4.490304e+02
2.650000e-06	-1.660566e-06	-7.583039e-09	-1.196583e+01	-4.985333e+02
2.660000e-06	-1.756674e-06	-8.321806e-09	-1.265837e+01	-5.469823e+02
2.670000e-06	-1.852241e-06	-9.040688e-09	-1.334701e+01	-5.940185e+02
2.680000e-06	-1.947088e-06	-9.736489e-09	-1.403047e+01	-6.393471e+02
2.690000e-06	-2.041067e-06	-1.040235e-08	-1.470767e+01	-6.827533e+02
2.700000e-06	-2.134104e-06	-1.103522e-08	-1.537808e+01	-7.241071e+02
2.710000e-06	-2.226305e-06	-1.163740e-08	-1.604247e+01	-7.633585e+02
2.720000e-06	-2.317721e-06	-1.220983e-08	-1.670120e+01	-8.005241e+02
2.730000e-06	-2.408321e-06	-1.275308e-08	-1.735406e+01	-8.356686e+02
2.740000e-06	-2.498035e-06	-1.326473e-08	-1.800052e+01	-8.688860e+02
2.750000e-06	-2.586864e-06	-1.374458e-08	-1.864061e+01	-9.002823e+02
2.760000e-06	-2.674939e-06	-1.419647e-08	-1.927527e+01	-9.299629e+02
2.770000e-06	-2.762166e-06	-1.462324e-08	-1.990381e+01	-9.580256e+02
2.780000e-06	-2.848322e-06	-1.502801e-08	-2.052465e+01	-9.845588e+02
2.790000e-06	-2.933337e-06	-1.541396e-08	-2.113725e+01	-1.009643e+03
2.800000e-06	-3.017267e-06	-1.578024e-08	-2.174204e+01	-1.033357e+03
2.810000e-06	-3.100209e-06	-1.612400e-08	-2.233971e+01	-1.055778e+03
2.820000e-06	-3.182144e-06	-1.644724e-08	-2.293012e+01	-1.076987e+03
2.830000e-06	-3.263052e-06	-1.675489e-08	-2.351314e+01	-1.097065e+03
2.840000e-06	-3.342949e-06	-1.704930e-08	-2.408886e+01	-1.116094e+03
2.850000e-06	-3.421631e-06	-1.732820e-08	-2.465584e+01	-1.134153e+03
2.860000e-06	-3.498813e-06	-1.759077e-08	-2.521200e+01	-1.151311e+03
2.870000e-06	-3.574468e-06	-1.783943e-08	-2.575716e+01	-1.167626e+03
2.880000e-06	-3.648693e-06	-1.807587e-08	-2.629202e+01	-1.183148e+03
2.890000e-06	-3.721595e-06	-1.830183e-08	-2.681734e+01	-1.197914e+03
2.900000e-06	-3.793207e-06	-1.851902e-08	-2.733336e+01	-1.211960e+03
2.910000e-06	-3.863377e-06	-1.872846e-08	-2.783900e+01	-1.225315e+03
2.920000e-06	-3.932032e-06	-1.892858e-08	-2.833372e+01	-1.238015e+03
2.930000e-06	-3.999299e-06	-1.911717e-08	-2.881844e+01	-1.250095e+03
2.940000e-06	-4.065208e-06	-1.929380e-08	-2.929337e+01	-1.261594e+03
