# Temperatura_=_41.9
# Concentracion g/m^3_=_28200.0
# C_Vs_to_Am_M_A/Vsm_=_65563218390.804596
# pendiente_HvsI_1/m_=_3716.3
# ordenada_HvsI_A/m_=_1297.0
# frecuencia_Hz_=_301774.24110477755

Tiempo_(s)	Campo_(V.s)	Magnetizacion_(V.s)	Campo_(kA/m)	Magnetizacion_(A/m)
0.000000e+00	-5.303471e-06	-1.867374e-08	-3.829150e+01	-1.221045e+03
1.000000e-08	-5.301393e-06	-1.867033e-08	-3.827649e+01	-1.220742e+03
2.000000e-08	-5.297457e-06	-1.866217e-08	-3.824807e+01	-1.220329e+03
3.000000e-08	-5.291958e-06	-1.865238e-08	-3.820837e+01	-1.219798e+03
4.000000e-08	-5.284872e-06	-1.864186e-08	-3.815721e+01	-1.219130e+03
5.000000e-08	-5.276088e-06	-1.862701e-08	-3.809379e+01	-1.218299e+03
6.000000e-08	-5.265327e-06	-1.860846e-08	-3.801609e+01	-1.217282e+03
7.000000e-08	-5.252621e-06	-1.858271e-08	-3.792435e+01	-1.216061e+03
8.000000e-08	-5.238012e-06	-1.855203e-08	-3.781888e+01	-1.214635e+03
9.000000e-08	-5.221177e-06	-1.856562e-08	-3.769733e+01	-1.213018e+03
1.000000e-07	-5.202222e-06	-1.857172e-08	-3.756047e+01	-1.211242e+03
1.100000e-07	-5.181389e-06	-1.850643e-08	-3.741005e+01	-1.209346e+03
1.200000e-07	-5.158748e-06	-1.845748e-08	-3.724658e+01	-1.207372e+03
1.300000e-07	-5.134569e-06	-1.840087e-08	-3.707201e+01	-1.205356e+03
1.400000e-07	-5.108882e-06	-1.832660e-08	-3.688655e+01	-1.203316e+03
1.500000e-07	-5.081524e-06	-1.839576e-08	-3.668902e+01	-1.201252e+03
1.600000e-07	-5.052605e-06	-1.834159e-08	-3.648022e+01	-1.199139e+03
1.700000e-07	-5.022316e-06	-1.821017e-08	-3.626153e+01	-1.196936e+03
1.800000e-07	-4.990295e-06	-1.827940e-08	-3.603034e+01	-1.194593e+03
1.900000e-07	-4.956083e-06	-1.818796e-08	-3.578332e+01	-1.192055e+03
2.000000e-07	-4.920164e-06	-1.809797e-08	-3.552399e+01	-1.189278e+03
2.100000e-07	-4.882745e-06	-1.817670e-08	-3.525382e+01	-1.186228e+03
2.200000e-07	-4.843608e-06	-1.807284e-08	-3.497125e+01	-1.182892e+03
2.300000e-07	-4.802693e-06	-1.797801e-08	-3.467583e+01	-1.179274e+03
2.400000e-07	-4.759807e-06	-1.794523e-08	-3.436620e+01	-1.175390e+03
2.500000e-07	-4.715086e-06	-1.782847e-08	-3.404331e+01	-1.171266e+03
2.600000e-07	-4.668635e-06	-1.781109e-08	-3.370793e+01	-1.166927e+03
2.700000e-07	-4.620328e-06	-1.775628e-08	-3.335915e+01	-1.162392e+03
2.800000e-07	-4.570013e-06	-1.762556e-08	-3.299587e+01	-1.157673e+03
2.900000e-07	-4.517664e-06	-1.754480e-08	-3.261791e+01	-1.152770e+03
3.000000e-07	-4.463555e-06	-1.748364e-08	-3.222723e+01	-1.147675e+03
3.100000e-07	-4.407848e-06	-1.742304e-08	-3.182503e+01	-1.142374e+03
3.200000e-07	-4.350377e-06	-1.733627e-08	-3.141008e+01	-1.136852e+03
3.300000e-07	-4.291174e-06	-1.725056e-08	-3.098263e+01	-1.131093e+03
3.400000e-07	-4.230508e-06	-1.714890e-08	-3.054461e+01	-1.125088e+03
3.500000e-07	-4.168428e-06	-1.702613e-08	-3.009639e+01	-1.118830e+03
3.600000e-07	-4.104988e-06	-1.693009e-08	-2.963835e+01	-1.112317e+03
3.700000e-07	-4.040156e-06	-1.684112e-08	-2.917026e+01	-1.105549e+03
3.800000e-07	-3.973687e-06	-1.676205e-08	-2.869035e+01	-1.098526e+03
3.900000e-07	-3.905622e-06	-1.664342e-08	-2.819891e+01	-1.091244e+03
4.000000e-07	-3.836207e-06	-1.649375e-08	-2.769773e+01	-1.083698e+03
4.100000e-07	-3.765613e-06	-1.638336e-08	-2.718803e+01	-1.075882e+03
4.200000e-07	-3.693845e-06	-1.626324e-08	-2.666986e+01	-1.067784e+03
4.300000e-07	-3.620750e-06	-1.613675e-08	-2.614211e+01	-1.059394e+03
4.400000e-07	-3.546078e-06	-1.600351e-08	-2.560298e+01	-1.050698e+03
4.500000e-07	-3.469841e-06	-1.585688e-08	-2.505254e+01	-1.041684e+03
4.600000e-07	-3.392284e-06	-1.570237e-08	-2.449257e+01	-1.032339e+03
4.700000e-07	-3.313394e-06	-1.555611e-08	-2.392298e+01	-1.022649e+03
4.800000e-07	-3.233119e-06	-1.542357e-08	-2.334339e+01	-1.012596e+03
4.900000e-07	-3.151611e-06	-1.526663e-08	-2.275489e+01	-1.002161e+03
5.000000e-07	-3.069058e-06	-1.509539e-08	-2.215885e+01	-9.913252e+02
5.100000e-07	-2.985583e-06	-1.491593e-08	-2.155615e+01	-9.800646e+02
5.200000e-07	-2.901261e-06	-1.472835e-08	-2.094734e+01	-9.683564e+02
5.300000e-07	-2.816020e-06	-1.453791e-08	-2.033190e+01	-9.561778e+02
5.400000e-07	-2.729793e-06	-1.434569e-08	-1.970933e+01	-9.435068e+02
5.500000e-07	-2.642714e-06	-1.414647e-08	-1.908061e+01	-9.303218e+02
5.600000e-07	-2.554773e-06	-1.393054e-08	-1.844567e+01	-9.166006e+02
5.700000e-07	-2.465732e-06	-1.370606e-08	-1.780279e+01	-9.023192e+02
5.800000e-07	-2.375488e-06	-1.348107e-08	-1.715122e+01	-8.874499e+02
5.900000e-07	-2.284222e-06	-1.325056e-08	-1.649227e+01	-8.719603e+02
6.000000e-07	-2.192178e-06	-1.300662e-08	-1.582770e+01	-8.558125e+02
6.100000e-07	-2.099448e-06	-1.274610e-08	-1.515819e+01	-8.389643e+02
6.200000e-07	-2.005993e-06	-1.247183e-08	-1.448343e+01	-8.213703e+02
6.300000e-07	-1.911813e-06	-1.218728e-08	-1.380345e+01	-8.029837e+02
6.400000e-07	-1.816981e-06	-1.189405e-08	-1.311875e+01	-7.837590e+02
6.500000e-07	-1.721573e-06	-1.159054e-08	-1.242990e+01	-7.636520e+02
6.600000e-07	-1.625650e-06	-1.126895e-08	-1.173732e+01	-7.426212e+02
6.700000e-07	-1.529175e-06	-1.092851e-08	-1.104077e+01	-7.206255e+02
6.800000e-07	-1.432038e-06	-1.057457e-08	-1.033943e+01	-6.976239e+02
6.900000e-07	-1.334158e-06	-1.020790e-08	-9.632733e+00	-6.735727e+02
7.000000e-07	-1.235607e-06	-9.824525e-09	-8.921186e+00	-6.484261e+02
7.100000e-07	-1.136540e-06	-9.423470e-09	-8.205912e+00	-6.221369e+02
7.200000e-07	-1.037137e-06	-9.002349e-09	-7.488218e+00	-5.946608e+02
7.300000e-07	-9.375026e-07	-8.559412e-09	-6.768846e+00	-5.659625e+02
7.400000e-07	-8.376743e-07	-8.100099e-09	-6.048078e+00	-5.360238e+02
7.500000e-07	-7.376350e-07	-7.627370e-09	-5.325785e+00	-5.048519e+02
7.600000e-07	-6.373869e-07	-7.136921e-09	-4.601985e+00	-4.724866e+02
7.700000e-07	-5.369636e-07	-6.626954e-09	-3.876921e+00	-4.390045e+02
7.800000e-07	-4.363399e-07	-6.102095e-09	-3.150410e+00	-4.045196e+02
7.900000e-07	-3.355662e-07	-5.563537e-09	-2.422816e+00	-3.691779e+02
8.000000e-07	-2.347093e-07	-5.012407e-09	-1.694620e+00	-3.331484e+02
8.100000e-07	-1.337315e-07	-4.455124e-09	-9.655527e-01	-2.966091e+02
8.200000e-07	-3.260517e-08	-3.895398e-09	-2.354120e-01	-2.597317e+02
8.300000e-07	6.853533e-08	-3.332687e-09	4.948307e-01	-2.226653e+02
8.400000e-07	1.696682e-07	-2.767546e-09	1.225018e+00	-1.855220e+02
8.500000e-07	2.708026e-07	-2.204144e-09	1.955217e+00	-1.483668e+02
8.600000e-07	3.718189e-07	-1.643098e-09	2.684563e+00	-1.112121e+02
8.700000e-07	4.727173e-07	-1.079926e-09	3.413058e+00	-7.401859e+01
8.800000e-07	5.734782e-07	-5.123882e-10	4.140560e+00	-3.670239e+01
8.900000e-07	6.740120e-07	5.939430e-11	4.866422e+00	8.529165e-01
9.000000e-07	7.743421e-07	6.376228e-10	5.590814e+00	3.877946e+01
9.100000e-07	8.744842e-07	1.223996e-09	6.313848e+00	7.720593e+01
9.200000e-07	9.744150e-07	1.816615e-09	7.035356e+00	1.162378e+02
9.300000e-07	1.074107e-06	2.417241e-09	7.755140e+00	1.559387e+02
9.400000e-07	1.173496e-06	3.029965e-09	8.472738e+00	1.963159e+02
9.500000e-07	1.272474e-06	3.655330e-09	9.187368e+00	2.373101e+02
9.600000e-07	1.370869e-06	4.288796e-09	9.897784e+00	2.787920e+02
9.700000e-07	1.468508e-06	4.925967e-09	1.060275e+01	3.205666e+02
9.800000e-07	1.565383e-06	5.562592e-09	1.130220e+01	3.623834e+02
9.900000e-07	1.661603e-06	6.195985e-09	1.199691e+01	4.039534e+02
1.000000e-06	1.757204e-06	6.820474e-09	1.268716e+01	4.449700e+02
1.010000e-06	1.852233e-06	7.429877e-09	1.337327e+01	4.851319e+02
1.020000e-06	1.946658e-06	8.021610e-09	1.405503e+01	5.241649e+02
1.030000e-06	2.040396e-06	8.591880e-09	1.473182e+01	5.618404e+02
1.040000e-06	2.133385e-06	9.137973e-09	1.540321e+01	5.979877e+02
1.050000e-06	2.225683e-06	9.658509e-09	1.606961e+01	6.324995e+02
1.060000e-06	2.317363e-06	1.015518e-08	1.673155e+01	6.653301e+02
1.070000e-06	2.408223e-06	1.062862e-08	1.738757e+01	6.964872e+02
1.080000e-06	2.497976e-06	1.107633e-08	1.803559e+01	7.260189e+02
1.090000e-06	2.586614e-06	1.149974e-08	1.867556e+01	7.539991e+02
1.100000e-06	2.674327e-06	1.190190e-08	1.930886e+01	7.805131e+02
1.110000e-06	2.761196e-06	1.228537e-08	1.993606e+01	8.056460e+02
1.120000e-06	2.847157e-06	1.264898e-08	2.055671e+01	8.294754e+02
1.130000e-06	2.932167e-06	1.299122e-08	2.117048e+01	8.520681e+02
1.140000e-06	3.016314e-06	1.331499e-08	2.177804e+01	8.734813e+02
1.150000e-06	3.099589e-06	1.362292e-08	2.237929e+01	8.937665e+02
1.160000e-06	3.181762e-06	1.391426e-08	2.297258e+01	9.129736e+02
1.170000e-06	3.262684e-06	1.418962e-08	2.355685e+01	9.311553e+02
1.180000e-06	3.342449e-06	1.445110e-08	2.413276e+01	9.483689e+02
1.190000e-06	3.421056e-06	1.469849e-08	2.470030e+01	9.646761e+02
1.200000e-06	3.498463e-06	1.493206e-08	2.525919e+01	9.801410e+02
1.210000e-06	3.574655e-06	1.515371e-08	2.580931e+01	9.948260e+02
1.220000e-06	3.649433e-06	1.536484e-08	2.634921e+01	1.008788e+03
1.230000e-06	3.722601e-06	1.556537e-08	2.687749e+01	1.022077e+03
1.240000e-06	3.794274e-06	1.575435e-08	2.739497e+01	1.034731e+03
1.250000e-06	3.864590e-06	1.593325e-08	2.790265e+01	1.046783e+03
1.260000e-06	3.933561e-06	1.610617e-08	2.840063e+01	1.058255e+03
1.270000e-06	4.001242e-06	1.627051e-08	2.888929e+01	1.069167e+03
1.280000e-06	4.067418e-06	1.642691e-08	2.936709e+01	1.079537e+03
1.290000e-06	4.131925e-06	1.657798e-08	2.983284e+01	1.089383e+03
1.300000e-06	4.194949e-06	1.672205e-08	3.028788e+01	1.098724e+03
1.310000e-06	4.256588e-06	1.685743e-08	3.073292e+01	1.107579e+03
1.320000e-06	4.316891e-06	1.698439e-08	3.116831e+01	1.115969e+03
1.330000e-06	4.375776e-06	1.710563e-08	3.159347e+01	1.123910e+03
1.340000e-06	4.432957e-06	1.722053e-08	3.200631e+01	1.131420e+03
1.350000e-06	4.488430e-06	1.732844e-08	3.240683e+01	1.138514e+03
1.360000e-06	4.542269e-06	1.742818e-08	3.279555e+01	1.145208e+03
1.370000e-06	4.594291e-06	1.752045e-08	3.317116e+01	1.151521e+03
1.380000e-06	4.644312e-06	1.760880e-08	3.353231e+01	1.157475e+03
1.390000e-06	4.692401e-06	1.769368e-08	3.387952e+01	1.163096e+03
1.400000e-06	4.738839e-06	1.777488e-08	3.421481e+01	1.168413e+03
1.410000e-06	4.783798e-06	1.785343e-08	3.453942e+01	1.173457e+03
1.420000e-06	4.827232e-06	1.792840e-08	3.485301e+01	1.178255e+03
1.430000e-06	4.868848e-06	1.799812e-08	3.515348e+01	1.182825e+03
1.440000e-06	4.908621e-06	1.806213e-08	3.544065e+01	1.187179e+03
1.450000e-06	4.946755e-06	1.812244e-08	3.571598e+01	1.191316e+03
1.460000e-06	4.983305e-06	1.818046e-08	3.597987e+01	1.195225e+03
1.470000e-06	5.018146e-06	1.823538e-08	3.623143e+01	1.198891e+03
1.480000e-06	5.051027e-06	1.828740e-08	3.646883e+01	1.202297e+03
1.490000e-06	5.082081e-06	1.833544e-08	3.669304e+01	1.205431e+03
1.500000e-06	5.111479e-06	1.837788e-08	3.690530e+01	1.208289e+03
1.510000e-06	5.139253e-06	1.841442e-08	3.710583e+01	1.210877e+03
1.520000e-06	5.165124e-06	1.844747e-08	3.729262e+01	1.213210e+03
1.530000e-06	5.188908e-06	1.847874e-08	3.746434e+01	1.215313e+03
1.540000e-06	5.210835e-06	1.850837e-08	3.762266e+01	1.217209e+03
1.550000e-06	5.231101e-06	1.853523e-08	3.776898e+01	1.218919e+03
1.560000e-06	5.249643e-06	1.855812e-08	3.790286e+01	1.220457e+03
1.570000e-06	5.266162e-06	1.857748e-08	3.802213e+01	1.221824e+03
1.580000e-06	5.280673e-06	1.859457e-08	3.812689e+01	1.223017e+03
1.590000e-06	5.293266e-06	1.860925e-08	3.821782e+01	1.224023e+03
1.600000e-06	5.303749e-06	1.862140e-08	3.829350e+01	1.224832e+03
1.610000e-06	5.312089e-06	1.863127e-08	3.835372e+01	1.225437e+03
1.620000e-06	5.318545e-06	1.863923e-08	3.840033e+01	1.225841e+03
1.630000e-06	5.323244e-06	1.864495e-08	3.843426e+01	1.226055e+03
1.640000e-06	5.326031e-06	1.864735e-08	3.845438e+01	1.226099e+03
1.650000e-06	5.326809e-06	1.864912e-08	3.846000e+01	1.225997e+03
1.660000e-06	5.325762e-06	1.864706e-08	3.845244e+01	1.225771e+03
1.670000e-06	5.323059e-06	1.864052e-08	3.843292e+01	1.225432e+03
1.680000e-06	5.318727e-06	1.863570e-08	3.840165e+01	1.224981e+03
1.690000e-06	5.312545e-06	1.862728e-08	3.835701e+01	1.224408e+03
1.700000e-06	5.304522e-06	1.861497e-08	3.829908e+01	1.223690e+03
1.710000e-06	5.294941e-06	1.860151e-08	3.822991e+01	1.222801e+03
1.720000e-06	5.283741e-06	1.859249e-08	3.814905e+01	1.221718e+03
1.730000e-06	5.270619e-06	1.859233e-08	3.805430e+01	1.220430e+03
1.740000e-06	5.255478e-06	1.853567e-08	3.794499e+01	1.218939e+03
1.750000e-06	5.238220e-06	1.846368e-08	3.782038e+01	1.217266e+03
1.760000e-06	5.218442e-06	1.847197e-08	3.767758e+01	1.215446e+03
1.770000e-06	5.196131e-06	1.846447e-08	3.751650e+01	1.213519e+03
1.780000e-06	5.172059e-06	1.848822e-08	3.734269e+01	1.211528e+03
1.790000e-06	5.147117e-06	1.845858e-08	3.716261e+01	1.209502e+03
1.800000e-06	5.121232e-06	1.829498e-08	3.697572e+01	1.207455e+03
1.810000e-06	5.093471e-06	1.836663e-08	3.677528e+01	1.205377e+03
1.820000e-06	5.063632e-06	1.836852e-08	3.655984e+01	1.203240e+03
1.830000e-06	5.032133e-06	1.820967e-08	3.633241e+01	1.200997e+03
1.840000e-06	4.998821e-06	1.832042e-08	3.609190e+01	1.198596e+03
1.850000e-06	4.963796e-06	1.826004e-08	3.583901e+01	1.195985e+03
1.860000e-06	4.927239e-06	1.808252e-08	3.557507e+01	1.193121e+03
1.870000e-06	4.888738e-06	1.814059e-08	3.529709e+01	1.189979e+03
1.880000e-06	4.848494e-06	1.804478e-08	3.500653e+01	1.186551e+03
1.890000e-06	4.806652e-06	1.802137e-08	3.470442e+01	1.182844e+03
1.900000e-06	4.763045e-06	1.802361e-08	3.438958e+01	1.178880e+03
1.910000e-06	4.717726e-06	1.781105e-08	3.406237e+01	1.174683e+03
1.920000e-06	4.670435e-06	1.785192e-08	3.372093e+01	1.170278e+03
1.930000e-06	4.621376e-06	1.783634e-08	3.336672e+01	1.165682e+03
1.940000e-06	4.570685e-06	1.769252e-08	3.300072e+01	1.160904e+03
1.950000e-06	4.518020e-06	1.764730e-08	3.262047e+01	1.155939e+03
1.960000e-06	4.463436e-06	1.753174e-08	3.222638e+01	1.150779e+03
1.970000e-06	4.407113e-06	1.749084e-08	3.181972e+01	1.145408e+03
1.980000e-06	4.349169e-06	1.736777e-08	3.140136e+01	1.139810e+03
1.990000e-06	4.289815e-06	1.725910e-08	3.097282e+01	1.133972e+03
2.000000e-06	4.229074e-06	1.726356e-08	3.053426e+01	1.127885e+03
2.010000e-06	4.166723e-06	1.712098e-08	3.008409e+01	1.121545e+03
2.020000e-06	4.102671e-06	1.700610e-08	2.962162e+01	1.114949e+03
2.030000e-06	4.037129e-06	1.687461e-08	2.914840e+01	1.108098e+03
2.040000e-06	3.970306e-06	1.678549e-08	2.866593e+01	1.100991e+03
2.050000e-06	3.902194e-06	1.671847e-08	2.817416e+01	1.093624e+03
2.060000e-06	3.832566e-06	1.655240e-08	2.767144e+01	1.085992e+03
2.070000e-06	3.761326e-06	1.646270e-08	2.715708e+01	1.078085e+03
2.080000e-06	3.688775e-06	1.632590e-08	2.663326e+01	1.069894e+03
2.090000e-06	3.614997e-06	1.619314e-08	2.610057e+01	1.061406e+03
2.100000e-06	3.539877e-06	1.608041e-08	2.555820e+01	1.052608e+03
2.110000e-06	3.463289e-06	1.593977e-08	2.500523e+01	1.043489e+03
2.120000e-06	3.385176e-06	1.580945e-08	2.444125e+01	1.034033e+03
2.130000e-06	3.305762e-06	1.562930e-08	2.386787e+01	1.024227e+03
2.140000e-06	3.225233e-06	1.547706e-08	2.328645e+01	1.014053e+03
2.150000e-06	3.143615e-06	1.531207e-08	2.269716e+01	1.003491e+03
2.160000e-06	3.060949e-06	1.514919e-08	2.210030e+01	9.925200e+02
2.170000e-06	2.977367e-06	1.499543e-08	2.149683e+01	9.811171e+02
2.180000e-06	2.892731e-06	1.481701e-08	2.088576e+01	9.692593e+02
2.190000e-06	2.806725e-06	1.463244e-08	2.026478e+01	9.569240e+02
2.200000e-06	2.719479e-06	1.442958e-08	1.963486e+01	9.440892e+02
2.210000e-06	2.631318e-06	1.423881e-08	1.899833e+01	9.307334e+02
2.220000e-06	2.542307e-06	1.403177e-08	1.835567e+01	9.168341e+02
2.230000e-06	2.452449e-06	1.380809e-08	1.770688e+01	9.023661e+02
2.240000e-06	2.361817e-06	1.357149e-08	1.705251e+01	8.873003e+02
2.250000e-06	2.270525e-06	1.332939e-08	1.639338e+01	8.716026e+02
2.260000e-06	2.178583e-06	1.308372e-08	1.572955e+01	8.552336e+02
2.270000e-06	2.085718e-06	1.282366e-08	1.505905e+01	8.381498e+02
2.280000e-06	1.991767e-06	1.256035e-08	1.438072e+01	8.203053e+02
2.290000e-06	1.896885e-06	1.228085e-08	1.369566e+01	8.016533e+02
2.300000e-06	1.801327e-06	1.198464e-08	1.300573e+01	7.821488e+02
2.310000e-06	1.705295e-06	1.167153e-08	1.231237e+01	7.617485e+02
2.320000e-06	1.608829e-06	1.134746e-08	1.161587e+01	7.404111e+02
2.330000e-06	1.511835e-06	1.101033e-08	1.091557e+01	7.180958e+02
2.340000e-06	1.414259e-06	1.065374e-08	1.021107e+01	6.947608e+02
2.350000e-06	1.316152e-06	1.027991e-08	9.502722e+00	6.703617e+02
2.360000e-06	1.217562e-06	9.891771e-09	8.790895e+00	6.448521e+02
2.370000e-06	1.118688e-06	9.492007e-09	8.077016e+00	6.181850e+02
2.380000e-06	1.019614e-06	9.073749e-09	7.361700e+00	5.903184e+02
2.390000e-06	9.202916e-07	8.633372e-09	6.644581e+00	5.612214e+02
2.400000e-06	8.207400e-07	8.170463e-09	5.925811e+00	5.308832e+02
2.410000e-06	7.209872e-07	7.688104e-09	5.205587e+00	4.993208e+02
2.420000e-06	6.210571e-07	7.186040e-09	4.484083e+00	4.665854e+02
2.430000e-06	5.209558e-07	6.665036e-09	3.761344e+00	4.327660e+02
2.440000e-06	4.207047e-07	6.131158e-09	3.037522e+00	3.979876e+02
2.450000e-06	3.202868e-07	5.588260e-09	2.312497e+00	3.624048e+02
2.460000e-06	2.197247e-07	5.035332e-09	1.586431e+00	3.261910e+02
2.470000e-06	1.190380e-07	4.475557e-09	8.594640e-01	2.895243e+02
2.480000e-06	1.825151e-08	3.914103e-09	1.317774e-01	2.525705e+02
2.490000e-06	-8.251584e-08	3.351020e-09	-5.957712e-01	2.154684e+02
2.500000e-06	-1.832041e-07	2.783273e-09	-1.322749e+00	1.783157e+02
2.510000e-06	-2.838315e-07	2.211050e-09	-2.049287e+00	1.411610e+02
2.520000e-06	-3.843832e-07	1.638170e-09	-2.775279e+00	1.039995e+02
2.530000e-06	-4.848063e-07	1.064767e-09	-3.500341e+00	6.677673e+01
2.540000e-06	-5.850575e-07	4.918514e-10	-4.224164e+00	2.939660e+01
2.550000e-06	-6.851193e-07	-8.274846e-11	-4.946618e+00	-8.264268e+00
2.560000e-06	-7.850026e-07	-6.632402e-10	-5.667783e+00	-4.633907e+01
2.570000e-06	-8.846640e-07	-1.252568e-09	-6.387346e+00	-8.495117e+01
2.580000e-06	-9.840585e-07	-1.852646e-09	-7.104983e+00	-1.241945e+02
2.590000e-06	-1.083170e-06	-2.462348e-09	-7.820573e+00	-1.641160e+02
2.600000e-06	-1.181937e-06	-3.081522e-09	-8.533685e+00	-2.047022e+02
2.610000e-06	-1.280278e-06	-3.710191e-09	-9.243711e+00	-2.458714e+02
2.620000e-06	-1.378129e-06	-4.347136e-09	-9.950202e+00	-2.874725e+02
2.630000e-06	-1.475474e-06	-4.988156e-09	-1.065304e+01	-3.292911e+02
2.640000e-06	-1.572294e-06	-5.626469e-09	-1.135209e+01	-3.710623e+02
2.650000e-06	-1.668617e-06	-6.258971e-09	-1.204755e+01	-4.124889e+02
2.660000e-06	-1.764495e-06	-6.882211e-09	-1.273980e+01	-4.532636e+02
2.670000e-06	-1.859896e-06	-7.491628e-09	-1.342860e+01	-4.930916e+02
2.680000e-06	-1.954575e-06	-8.084404e-09	-1.411219e+01	-5.317115e+02
2.690000e-06	-2.048236e-06	-8.655919e-09	-1.478843e+01	-5.689123e+02
2.700000e-06	-2.140885e-06	-9.204609e-09	-1.545737e+01	-6.045434e+02
2.710000e-06	-2.232713e-06	-9.728004e-09	-1.612037e+01	-6.385179e+02
2.720000e-06	-2.323818e-06	-1.022304e-08	-1.677816e+01	-6.708084e+02
2.730000e-06	-2.414136e-06	-1.069209e-08	-1.743026e+01	-7.014371e+02
2.740000e-06	-2.503573e-06	-1.113729e-08	-1.807600e+01	-7.304621e+02
2.750000e-06	-2.592175e-06	-1.155860e-08	-1.871572e+01	-7.579624e+02
2.760000e-06	-2.680019e-06	-1.195789e-08	-1.934996e+01	-7.840244e+02
2.770000e-06	-2.767032e-06	-1.233855e-08	-1.997820e+01	-8.087313e+02
2.780000e-06	-2.852912e-06	-1.269998e-08	-2.059826e+01	-8.321572e+02
2.790000e-06	-2.937553e-06	-1.304055e-08	-2.120938e+01	-8.543658e+02
2.800000e-06	-3.021160e-06	-1.336133e-08	-2.181303e+01	-8.754119e+02
2.810000e-06	-3.103837e-06	-1.366508e-08	-2.240996e+01	-8.953459e+02
2.820000e-06	-3.185523e-06	-1.395391e-08	-2.299974e+01	-9.142184e+02
2.830000e-06	-3.266144e-06	-1.422793e-08	-2.358183e+01	-9.320833e+02
2.840000e-06	-3.345725e-06	-1.448743e-08	-2.415641e+01	-9.489995e+02
2.850000e-06	-3.423978e-06	-1.473296e-08	-2.472141e+01	-9.650299e+02
2.860000e-06	-3.500657e-06	-1.496687e-08	-2.527503e+01	-9.802384e+02
2.870000e-06	-3.575956e-06	-1.519170e-08	-2.581870e+01	-9.946861e+02
2.880000e-06	-3.649935e-06	-1.540685e-08	-2.635283e+01	-1.008428e+03
2.890000e-06	-3.722551e-06	-1.561116e-08	-2.687712e+01	-1.021510e+03
2.900000e-06	-3.793903e-06	-1.580429e-08	-2.739229e+01	-1.033968e+03
2.910000e-06	-3.863791e-06	-1.598668e-08	-2.789689e+01	-1.045832e+03
2.920000e-06	-3.932093e-06	-1.615911e-08	-2.839003e+01	-1.057123e+03
2.930000e-06	-3.999042e-06	-1.632230e-08	-2.887341e+01	-1.067860e+03
2.940000e-06	-4.064616e-06	-1.647704e-08	-2.934686e+01	-1.078060e+03
