# Temperatura_=_50.17
# Concentracion g/m^3_=_28200.0
# C_Vs_to_Am_M_A/Vsm_=_65563218390.804596
# pendiente_HvsI_1/m_=_3716.3
# ordenada_HvsI_A/m_=_1297.0
# frecuencia_Hz_=_301769.85660014185

Tiempo_(s)	Campo_(V.s)	Magnetizacion_(V.s)	Campo_(kA/m)	Magnetizacion_(A/m)
0.000000e+00	-5.294792e-06	-2.048169e-08	-3.829776e+01	-1.339126e+03
1.000000e-08	-5.292969e-06	-2.047837e-08	-3.828457e+01	-1.338814e+03
2.000000e-08	-5.289271e-06	-2.046725e-08	-3.825783e+01	-1.338375e+03
3.000000e-08	-5.283953e-06	-2.045498e-08	-3.821936e+01	-1.337799e+03
4.000000e-08	-5.277077e-06	-2.044402e-08	-3.816963e+01	-1.337066e+03
5.000000e-08	-5.268554e-06	-2.042875e-08	-3.810798e+01	-1.336152e+03
6.000000e-08	-5.257983e-06	-2.040848e-08	-3.803151e+01	-1.335034e+03
7.000000e-08	-5.245431e-06	-2.038210e-08	-3.794073e+01	-1.333701e+03
8.000000e-08	-5.231032e-06	-2.034821e-08	-3.783658e+01	-1.332156e+03
9.000000e-08	-5.214451e-06	-2.037281e-08	-3.771665e+01	-1.330420e+03
1.000000e-07	-5.195671e-06	-2.038172e-08	-3.758081e+01	-1.328526e+03
1.100000e-07	-5.174999e-06	-2.030591e-08	-3.743129e+01	-1.326517e+03
1.200000e-07	-5.152563e-06	-2.025759e-08	-3.726901e+01	-1.324433e+03
1.300000e-07	-5.128500e-06	-2.017868e-08	-3.709496e+01	-1.322306e+03
1.400000e-07	-5.102929e-06	-2.007808e-08	-3.690999e+01	-1.320147e+03
1.500000e-07	-5.075757e-06	-2.019861e-08	-3.671346e+01	-1.317948e+03
1.600000e-07	-5.047033e-06	-2.013327e-08	-3.650569e+01	-1.315678e+03
1.700000e-07	-5.016899e-06	-1.999273e-08	-3.628773e+01	-1.313292e+03
1.800000e-07	-4.985083e-06	-2.010568e-08	-3.605761e+01	-1.310737e+03
1.900000e-07	-4.951164e-06	-1.996329e-08	-3.581227e+01	-1.307964e+03
2.000000e-07	-4.915572e-06	-1.984372e-08	-3.555483e+01	-1.304931e+03
2.100000e-07	-4.878486e-06	-1.992883e-08	-3.528658e+01	-1.301617e+03
2.200000e-07	-4.839619e-06	-1.979068e-08	-3.500545e+01	-1.298015e+03
2.300000e-07	-4.798982e-06	-1.968284e-08	-3.471152e+01	-1.294136e+03
2.400000e-07	-4.756416e-06	-1.966956e-08	-3.440363e+01	-1.290000e+03
2.500000e-07	-4.712018e-06	-1.957685e-08	-3.408249e+01	-1.285628e+03
2.600000e-07	-4.665942e-06	-1.957475e-08	-3.374923e+01	-1.281039e+03
2.700000e-07	-4.618000e-06	-1.948003e-08	-3.340245e+01	-1.276241e+03
2.800000e-07	-4.567956e-06	-1.934089e-08	-3.304048e+01	-1.271231e+03
2.900000e-07	-4.515870e-06	-1.926155e-08	-3.266374e+01	-1.265997e+03
3.000000e-07	-4.462045e-06	-1.919676e-08	-3.227441e+01	-1.260522e+03
3.100000e-07	-4.406609e-06	-1.914196e-08	-3.187344e+01	-1.254785e+03
3.200000e-07	-4.349416e-06	-1.903331e-08	-3.145976e+01	-1.248772e+03
3.300000e-07	-4.290498e-06	-1.893426e-08	-3.103360e+01	-1.242476e+03
3.400000e-07	-4.230093e-06	-1.882932e-08	-3.059668e+01	-1.235897e+03
3.500000e-07	-4.168276e-06	-1.869651e-08	-3.014956e+01	-1.229044e+03
3.600000e-07	-4.105123e-06	-1.859416e-08	-2.969277e+01	-1.221928e+03
3.700000e-07	-4.040561e-06	-1.851085e-08	-2.922578e+01	-1.214558e+03
3.800000e-07	-3.974379e-06	-1.841670e-08	-2.874708e+01	-1.206941e+03
3.900000e-07	-3.906621e-06	-1.826173e-08	-2.825698e+01	-1.199072e+03
4.000000e-07	-3.837436e-06	-1.810250e-08	-2.775656e+01	-1.190940e+03
4.100000e-07	-3.767039e-06	-1.800108e-08	-2.724737e+01	-1.182527e+03
4.200000e-07	-3.695547e-06	-1.787585e-08	-2.673026e+01	-1.173809e+03
4.300000e-07	-3.622770e-06	-1.774238e-08	-2.620386e+01	-1.164763e+03
4.400000e-07	-3.548387e-06	-1.759511e-08	-2.566584e+01	-1.155365e+03
4.500000e-07	-3.472456e-06	-1.743438e-08	-2.511662e+01	-1.145599e+03
4.600000e-07	-3.395230e-06	-1.727357e-08	-2.455804e+01	-1.135451e+03
4.700000e-07	-3.316635e-06	-1.711860e-08	-2.398955e+01	-1.124910e+03
4.800000e-07	-3.236649e-06	-1.696999e-08	-2.341100e+01	-1.113971e+03
4.900000e-07	-3.155468e-06	-1.678859e-08	-2.282382e+01	-1.102623e+03
5.000000e-07	-3.073239e-06	-1.660161e-08	-2.222905e+01	-1.090855e+03
5.100000e-07	-2.990007e-06	-1.641186e-08	-2.162702e+01	-1.078650e+03
5.200000e-07	-2.905906e-06	-1.621453e-08	-2.101871e+01	-1.065989e+03
5.300000e-07	-2.820963e-06	-1.601289e-08	-2.040431e+01	-1.052846e+03
5.400000e-07	-2.735090e-06	-1.580858e-08	-1.978318e+01	-1.039191e+03
5.500000e-07	-2.648305e-06	-1.559294e-08	-1.915545e+01	-1.024993e+03
5.600000e-07	-2.560547e-06	-1.535665e-08	-1.852069e+01	-1.010220e+03
5.700000e-07	-2.471756e-06	-1.512068e-08	-1.787846e+01	-9.948352e+02
5.800000e-07	-2.381881e-06	-1.488274e-08	-1.722838e+01	-9.788046e+02
5.900000e-07	-2.290949e-06	-1.462983e-08	-1.657066e+01	-9.620900e+02
6.000000e-07	-2.199199e-06	-1.435793e-08	-1.590703e+01	-9.446519e+02
6.100000e-07	-2.106794e-06	-1.407538e-08	-1.523865e+01	-9.264483e+02
6.200000e-07	-2.013645e-06	-1.378356e-08	-1.456490e+01	-9.074355e+02
6.300000e-07	-1.919677e-06	-1.347984e-08	-1.388521e+01	-8.875681e+02
6.400000e-07	-1.825017e-06	-1.316531e-08	-1.320053e+01	-8.667991e+02
6.500000e-07	-1.729818e-06	-1.283463e-08	-1.251195e+01	-8.450804e+02
6.600000e-07	-1.634079e-06	-1.248459e-08	-1.181945e+01	-8.223618e+02
6.700000e-07	-1.537696e-06	-1.211795e-08	-1.112231e+01	-7.985905e+02
6.800000e-07	-1.440674e-06	-1.173885e-08	-1.042054e+01	-7.737102e+02
6.900000e-07	-1.343012e-06	-1.134424e-08	-9.714140e+00	-7.476608e+02
7.000000e-07	-1.244756e-06	-1.093077e-08	-9.003444e+00	-7.203797e+02
7.100000e-07	-1.146031e-06	-1.049331e-08	-8.289357e+00	-6.918046e+02
7.200000e-07	-1.046935e-06	-1.003028e-08	-7.572588e+00	-6.618791e+02
7.300000e-07	-9.474764e-07	-9.544469e-09	-6.853192e+00	-6.305597e+02
7.400000e-07	-8.476960e-07	-9.044329e-09	-6.131470e+00	-5.978242e+02
7.500000e-07	-7.477071e-07	-8.531544e-09	-5.408240e+00	-5.636805e+02
7.600000e-07	-6.475134e-07	-7.995316e-09	-4.683529e+00	-5.281733e+02
7.700000e-07	-5.471757e-07	-7.435320e-09	-3.957777e+00	-4.913885e+02
7.800000e-07	-4.467332e-07	-6.858295e-09	-3.231266e+00	-4.534520e+02
7.900000e-07	-3.462070e-07	-6.267386e-09	-2.504150e+00	-4.145252e+02
8.000000e-07	-2.455925e-07	-5.661320e-09	-1.776395e+00	-3.747939e+02
8.100000e-07	-1.448617e-07	-5.045995e-09	-1.047799e+00	-3.344541e+02
8.200000e-07	-4.406858e-08	-4.425883e-09	-3.187525e-01	-2.936954e+02
8.300000e-07	5.676028e-08	-3.800257e-09	4.105528e-01	-2.526827e+02
8.400000e-07	1.575968e-07	-3.171599e-09	1.139913e+00	-2.115414e+02
8.500000e-07	2.584357e-07	-2.544213e-09	1.869291e+00	-1.703449e+02
8.600000e-07	3.592426e-07	-1.920697e-09	2.598438e+00	-1.291088e+02
8.700000e-07	4.599296e-07	-1.295455e-09	3.326717e+00	-8.779101e+01
8.800000e-07	5.605116e-07	-6.647512e-10	4.054237e+00	-4.629929e+01
8.900000e-07	6.609430e-07	-2.679969e-11	4.780667e+00	-4.504930e+00
9.000000e-07	7.611866e-07	6.197274e-10	5.505739e+00	3.773827e+01
9.100000e-07	8.613030e-07	1.275355e-09	6.229891e+00	8.057193e+01
9.200000e-07	9.612066e-07	1.938717e-09	6.952503e+00	1.241100e+02
9.300000e-07	1.060804e-06	2.612116e-09	7.672904e+00	1.684175e+02
9.400000e-07	1.160065e-06	3.296321e-09	8.390863e+00	2.134933e+02
9.500000e-07	1.258908e-06	3.989566e-09	9.105806e+00	2.592594e+02
9.600000e-07	1.357194e-06	4.691203e-09	9.816717e+00	3.055580e+02
9.700000e-07	1.454749e-06	5.400090e-09	1.052234e+01	3.521568e+02
9.800000e-07	1.551549e-06	6.111248e-09	1.122251e+01	3.987629e+02
9.900000e-07	1.647642e-06	6.817323e-09	1.191756e+01	4.450428e+02
1.000000e-06	1.743072e-06	7.512264e-09	1.260782e+01	4.906472e+02
1.010000e-06	1.837904e-06	8.189422e-09	1.329374e+01	5.352367e+02
1.020000e-06	1.932136e-06	8.845995e-09	1.397533e+01	5.785064e+02
1.030000e-06	2.025708e-06	9.478424e-09	1.465215e+01	6.202050e+02
1.040000e-06	2.118549e-06	1.008229e-08	1.532368e+01	6.601474e+02
1.050000e-06	2.210691e-06	1.065754e-08	1.599015e+01	6.982197e+02
1.060000e-06	2.302261e-06	1.120528e-08	1.665248e+01	7.343755e+02
1.070000e-06	2.393173e-06	1.172464e-08	1.731006e+01	7.686265e+02
1.080000e-06	2.483020e-06	1.221540e-08	1.795993e+01	8.010278e+02
1.090000e-06	2.571651e-06	1.268232e-08	1.860101e+01	8.316631e+02
1.100000e-06	2.659308e-06	1.312427e-08	1.923504e+01	8.606289e+02
1.110000e-06	2.746085e-06	1.353993e-08	1.986271e+01	8.880234e+02
1.120000e-06	2.831920e-06	1.393228e-08	2.048356e+01	9.139388e+02
1.130000e-06	2.916861e-06	1.430380e-08	2.109795e+01	9.384584e+02
1.140000e-06	3.000994e-06	1.465597e-08	2.170649e+01	9.616566e+02
1.150000e-06	3.084273e-06	1.498880e-08	2.230886e+01	9.836023e+02
1.160000e-06	3.166466e-06	1.530470e-08	2.290336e+01	1.004362e+03
1.170000e-06	3.247389e-06	1.560376e-08	2.348869e+01	1.024002e+03
1.180000e-06	3.327110e-06	1.588559e-08	2.406532e+01	1.042590e+03
1.190000e-06	3.405686e-06	1.615053e-08	2.463367e+01	1.060197e+03
1.200000e-06	3.483095e-06	1.640204e-08	2.519357e+01	1.076889e+03
1.210000e-06	3.559318e-06	1.664209e-08	2.574491e+01	1.092730e+03
1.220000e-06	3.634192e-06	1.687122e-08	2.628647e+01	1.107778e+03
1.230000e-06	3.707462e-06	1.708841e-08	2.681645e+01	1.122083e+03
1.240000e-06	3.779196e-06	1.729308e-08	2.733530e+01	1.135690e+03
1.250000e-06	3.849581e-06	1.748637e-08	2.784440e+01	1.148636e+03
1.260000e-06	3.918604e-06	1.767053e-08	2.834365e+01	1.160957e+03
1.270000e-06	3.986373e-06	1.784623e-08	2.883383e+01	1.172684e+03
1.280000e-06	4.052731e-06	1.801360e-08	2.931381e+01	1.183849e+03
1.290000e-06	4.117381e-06	1.817518e-08	2.978143e+01	1.194482e+03
1.300000e-06	4.180514e-06	1.833010e-08	3.023807e+01	1.204611e+03
1.310000e-06	4.242249e-06	1.847797e-08	3.068461e+01	1.214259e+03
1.320000e-06	4.302613e-06	1.861937e-08	3.112123e+01	1.223440e+03
1.330000e-06	4.361613e-06	1.875380e-08	3.154798e+01	1.232165e+03
1.340000e-06	4.418867e-06	1.888101e-08	3.196211e+01	1.240437e+03
1.350000e-06	4.474289e-06	1.899993e-08	3.236298e+01	1.248257e+03
1.360000e-06	4.528129e-06	1.910933e-08	3.275241e+01	1.255628e+03
1.370000e-06	4.580348e-06	1.920926e-08	3.313012e+01	1.262559e+03
1.380000e-06	4.630577e-06	1.930376e-08	3.349342e+01	1.269068e+03
1.390000e-06	4.678781e-06	1.939565e-08	3.384209e+01	1.275182e+03
1.400000e-06	4.725303e-06	1.948363e-08	3.417859e+01	1.280939e+03
1.410000e-06	4.770289e-06	1.956865e-08	3.450398e+01	1.286381e+03
1.420000e-06	4.813830e-06	1.965053e-08	3.481891e+01	1.291546e+03
1.430000e-06	4.855581e-06	1.972634e-08	3.512090e+01	1.296469e+03
1.440000e-06	4.895413e-06	1.979592e-08	3.540902e+01	1.301170e+03
1.450000e-06	4.933619e-06	1.986217e-08	3.568536e+01	1.305655e+03
1.460000e-06	4.970257e-06	1.992638e-08	3.595037e+01	1.309915e+03
1.470000e-06	5.005253e-06	1.998642e-08	3.620350e+01	1.313933e+03
1.480000e-06	5.038353e-06	2.004159e-08	3.644291e+01	1.317687e+03
1.490000e-06	5.069585e-06	2.009374e-08	3.666882e+01	1.321157e+03
1.500000e-06	5.099130e-06	2.014248e-08	3.688252e+01	1.324332e+03
1.510000e-06	5.127094e-06	2.018669e-08	3.708479e+01	1.327212e+03
1.520000e-06	5.153159e-06	2.022635e-08	3.727331e+01	1.329809e+03
1.530000e-06	5.177101e-06	2.026098e-08	3.744649e+01	1.332145e+03
1.540000e-06	5.199194e-06	2.029213e-08	3.760629e+01	1.334243e+03
1.550000e-06	5.219635e-06	2.032107e-08	3.775414e+01	1.336127e+03
1.560000e-06	5.238365e-06	2.034662e-08	3.788961e+01	1.337812e+03
1.570000e-06	5.255066e-06	2.036770e-08	3.801042e+01	1.339305e+03
1.580000e-06	5.269719e-06	2.038485e-08	3.811641e+01	1.340604e+03
1.590000e-06	5.282461e-06	2.039953e-08	3.820857e+01	1.341699e+03
1.600000e-06	5.293164e-06	2.041292e-08	3.828598e+01	1.342583e+03
1.610000e-06	5.301734e-06	2.042390e-08	3.834797e+01	1.343251e+03
1.620000e-06	5.308337e-06	2.043219e-08	3.839573e+01	1.343707e+03
1.630000e-06	5.313185e-06	2.044000e-08	3.843080e+01	1.343961e+03
1.640000e-06	5.316206e-06	2.044519e-08	3.845265e+01	1.344036e+03
1.650000e-06	5.317222e-06	2.044762e-08	3.846000e+01	1.343953e+03
1.660000e-06	5.316394e-06	2.044366e-08	3.845401e+01	1.343731e+03
1.670000e-06	5.313882e-06	2.043362e-08	3.843584e+01	1.343382e+03
1.680000e-06	5.309769e-06	2.042695e-08	3.840609e+01	1.342905e+03
1.690000e-06	5.303856e-06	2.041841e-08	3.836332e+01	1.342285e+03
1.700000e-06	5.296044e-06	2.040618e-08	3.830682e+01	1.341502e+03
1.710000e-06	5.286644e-06	2.039330e-08	3.823883e+01	1.340531e+03
1.720000e-06	5.275691e-06	2.038342e-08	3.815960e+01	1.339352e+03
1.730000e-06	5.262917e-06	2.039122e-08	3.806720e+01	1.337957e+03
1.740000e-06	5.248104e-06	2.031613e-08	3.796006e+01	1.336353e+03
1.750000e-06	5.231131e-06	2.023703e-08	3.783729e+01	1.334567e+03
1.760000e-06	5.211735e-06	2.025022e-08	3.769700e+01	1.332635e+03
1.770000e-06	5.189771e-06	2.022858e-08	3.753813e+01	1.330600e+03
1.780000e-06	5.165895e-06	2.029029e-08	3.736544e+01	1.328501e+03
1.790000e-06	5.141180e-06	2.025509e-08	3.718667e+01	1.326364e+03
1.800000e-06	5.115638e-06	2.003518e-08	3.700192e+01	1.324194e+03
1.810000e-06	5.088236e-06	2.014659e-08	3.680372e+01	1.321978e+03
1.820000e-06	5.058781e-06	2.012920e-08	3.659067e+01	1.319679e+03
1.830000e-06	5.027739e-06	1.994994e-08	3.636614e+01	1.317250e+03
1.840000e-06	4.994766e-06	2.013583e-08	3.612764e+01	1.314637e+03
1.850000e-06	4.959914e-06	2.004719e-08	3.587556e+01	1.311792e+03
1.860000e-06	4.923548e-06	1.985677e-08	3.561252e+01	1.308680e+03
1.870000e-06	4.885296e-06	1.996023e-08	3.533583e+01	1.305282e+03
1.880000e-06	4.845284e-06	1.983678e-08	3.504643e+01	1.301599e+03
1.890000e-06	4.803575e-06	1.980455e-08	3.474474e+01	1.297644e+03
1.900000e-06	4.760082e-06	1.977059e-08	3.443015e+01	1.293437e+03
1.910000e-06	4.715038e-06	1.954812e-08	3.410434e+01	1.289001e+03
1.920000e-06	4.668179e-06	1.964951e-08	3.376540e+01	1.284350e+03
1.930000e-06	4.619561e-06	1.959587e-08	3.341375e+01	1.279492e+03
1.940000e-06	4.569259e-06	1.945108e-08	3.304991e+01	1.274419e+03
1.950000e-06	4.516938e-06	1.940039e-08	3.267146e+01	1.269118e+03
1.960000e-06	4.462698e-06	1.925122e-08	3.227914e+01	1.263568e+03
1.970000e-06	4.406705e-06	1.922981e-08	3.187414e+01	1.257753e+03
1.980000e-06	4.349058e-06	1.907480e-08	3.145717e+01	1.251659e+03
1.990000e-06	4.290015e-06	1.897722e-08	3.103011e+01	1.245281e+03
2.000000e-06	4.229618e-06	1.899629e-08	3.059325e+01	1.238622e+03
2.010000e-06	4.167639e-06	1.881074e-08	3.014495e+01	1.231692e+03
2.020000e-06	4.103873e-06	1.868652e-08	2.968372e+01	1.224501e+03
2.030000e-06	4.038571e-06	1.855477e-08	2.921138e+01	1.217060e+03
2.040000e-06	3.971925e-06	1.848489e-08	2.872933e+01	1.209371e+03
2.050000e-06	3.903962e-06	1.840031e-08	2.823775e+01	1.201427e+03
2.060000e-06	3.834652e-06	1.820930e-08	2.773642e+01	1.193217e+03
2.070000e-06	3.763763e-06	1.811584e-08	2.722368e+01	1.184718e+03
2.080000e-06	3.691459e-06	1.795189e-08	2.670070e+01	1.175908e+03
2.090000e-06	3.617877e-06	1.781486e-08	2.616846e+01	1.166763e+03
2.100000e-06	3.543023e-06	1.768953e-08	2.562704e+01	1.157261e+03
2.110000e-06	3.466844e-06	1.753658e-08	2.507603e+01	1.147386e+03
2.120000e-06	3.389154e-06	1.739433e-08	2.451409e+01	1.137125e+03
2.130000e-06	3.310090e-06	1.720256e-08	2.394221e+01	1.126471e+03
2.140000e-06	3.229841e-06	1.705201e-08	2.336176e+01	1.115415e+03
2.150000e-06	3.148437e-06	1.687006e-08	2.277296e+01	1.103947e+03
2.160000e-06	3.065970e-06	1.669354e-08	2.217647e+01	1.092056e+03
2.170000e-06	2.982549e-06	1.651999e-08	2.157307e+01	1.079723e+03
2.180000e-06	2.898141e-06	1.631461e-08	2.096254e+01	1.066926e+03
2.190000e-06	2.812641e-06	1.610687e-08	2.034411e+01	1.053639e+03
2.200000e-06	2.725931e-06	1.589226e-08	1.971693e+01	1.039831e+03
2.210000e-06	2.638064e-06	1.569453e-08	1.908138e+01	1.025472e+03
2.220000e-06	2.549304e-06	1.546502e-08	1.843937e+01	1.010526e+03
2.230000e-06	2.459675e-06	1.522306e-08	1.779108e+01	9.949602e+02
2.240000e-06	2.369184e-06	1.497570e-08	1.713655e+01	9.787373e+02
2.250000e-06	2.278007e-06	1.472528e-08	1.647705e+01	9.618193e+02
2.260000e-06	2.186171e-06	1.446069e-08	1.581279e+01	9.441661e+02
2.270000e-06	2.093622e-06	1.417335e-08	1.514338e+01	9.257351e+02
2.280000e-06	2.000264e-06	1.388009e-08	1.446811e+01	9.064821e+02
2.290000e-06	1.905959e-06	1.357149e-08	1.378599e+01	8.863611e+02
2.300000e-06	1.810726e-06	1.325225e-08	1.309716e+01	8.653250e+02
2.310000e-06	1.714815e-06	1.291911e-08	1.240343e+01	8.433251e+02
2.320000e-06	1.618429e-06	1.257519e-08	1.170626e+01	8.203105e+02
2.330000e-06	1.521579e-06	1.221137e-08	1.100573e+01	7.962275e+02
2.340000e-06	1.424261e-06	1.182288e-08	1.030182e+01	7.710186e+02
2.350000e-06	1.326470e-06	1.141403e-08	9.594490e+00	7.446230e+02
2.360000e-06	1.228224e-06	1.099358e-08	8.883869e+00	7.169776e+02
2.370000e-06	1.129627e-06	1.056250e-08	8.170708e+00	6.880213e+02
2.380000e-06	1.030750e-06	1.010533e-08	7.455519e+00	6.577004e+02
2.390000e-06	9.316031e-07	9.619269e-09	6.738378e+00	6.259767e+02
2.400000e-06	8.322243e-07	9.107903e-09	6.019562e+00	5.928358e+02
2.410000e-06	7.326278e-07	8.578557e-09	5.299170e+00	5.582955e+02
2.420000e-06	6.327722e-07	8.030222e-09	4.576905e+00	5.224119e+02
2.430000e-06	5.326856e-07	7.462604e-09	3.852968e+00	4.852827e+02
2.440000e-06	4.324697e-07	6.880813e-09	3.128097e+00	4.470448e+02
2.450000e-06	3.321636e-07	6.283062e-09	2.402572e+00	4.078676e+02
2.460000e-06	2.317313e-07	5.668728e-09	1.676135e+00	3.679416e+02
2.470000e-06	1.311366e-07	5.046773e-09	9.485241e-01	3.274628e+02
2.480000e-06	3.046369e-08	4.424225e-09	2.203469e-01	2.866154e+02
2.490000e-06	-7.018613e-08	3.798706e-09	-5.076633e-01	2.455545e+02
2.500000e-06	-1.708122e-07	3.168533e-09	-1.235502e+00	2.043916e+02
2.510000e-06	-2.713876e-07	2.537202e-09	-1.962973e+00	1.631841e+02
2.520000e-06	-3.718696e-07	1.906821e-09	-2.689770e+00	1.219305e+02
2.530000e-06	-4.722010e-07	1.275751e-09	-3.415477e+00	8.057359e+01
2.540000e-06	-5.724011e-07	6.433773e-10	-4.140234e+00	3.900892e+01
2.550000e-06	-6.724568e-07	4.716839e-12	-4.863947e+00	-2.899296e+00
2.560000e-06	-7.723133e-07	-6.452514e-10	-5.586219e+00	-4.529830e+01
2.570000e-06	-8.719152e-07	-1.305950e-09	-6.306650e+00	-8.832412e+01
2.580000e-06	-9.711934e-07	-1.974852e-09	-7.024739e+00	-1.320788e+02
2.590000e-06	-1.070184e-06	-2.652901e-09	-7.740749e+00	-1.766099e+02
2.600000e-06	-1.168929e-06	-3.344394e-09	-8.454983e+00	-2.218951e+02
2.610000e-06	-1.267329e-06	-4.047190e-09	-9.166717e+00	-2.678337e+02
2.620000e-06	-1.365183e-06	-4.757501e-09	-9.874504e+00	-3.142455e+02
2.630000e-06	-1.462446e-06	-5.472189e-09	-1.057802e+01	-3.608793e+02
2.640000e-06	-1.559164e-06	-6.185048e-09	-1.127759e+01	-4.074282e+02
2.650000e-06	-1.655413e-06	-6.890658e-09	-1.197377e+01	-4.535515e+02
2.660000e-06	-1.751258e-06	-7.585065e-09	-1.266702e+01	-4.989003e+02
2.670000e-06	-1.846497e-06	-8.263808e-09	-1.335590e+01	-5.431425e+02
2.680000e-06	-1.940900e-06	-8.920951e-09	-1.403873e+01	-5.859870e+02
2.690000e-06	-2.034365e-06	-9.551389e-09	-1.471477e+01	-6.272004e+02
2.700000e-06	-2.126937e-06	-1.015445e-08	-1.538435e+01	-6.666178e+02
2.710000e-06	-2.218756e-06	-1.073146e-08	-1.604848e+01	-7.041453e+02
2.720000e-06	-2.309855e-06	-1.128127e-08	-1.670741e+01	-7.397542e+02
2.730000e-06	-2.400138e-06	-1.180089e-08	-1.736044e+01	-7.734703e+02
2.740000e-06	-2.489547e-06	-1.228864e-08	-1.800714e+01	-8.053585e+02
2.750000e-06	-2.578136e-06	-1.274807e-08	-1.864792e+01	-8.355074e+02
2.760000e-06	-2.666010e-06	-1.318392e-08	-1.928352e+01	-8.640151e+02
2.770000e-06	-2.753004e-06	-1.359608e-08	-1.991275e+01	-8.909788e+02
2.780000e-06	-2.838781e-06	-1.398677e-08	-2.053319e+01	-9.164881e+02
2.790000e-06	-2.923362e-06	-1.435852e-08	-2.114497e+01	-9.406237e+02
2.800000e-06	-3.007014e-06	-1.470988e-08	-2.175003e+01	-9.634579e+02
2.810000e-06	-3.089752e-06	-1.504061e-08	-2.234848e+01	-9.850587e+02
2.820000e-06	-3.171405e-06	-1.535082e-08	-2.293909e+01	-1.005492e+03
2.830000e-06	-3.252058e-06	-1.564582e-08	-2.352246e+01	-1.024826e+03
2.840000e-06	-3.331680e-06	-1.592885e-08	-2.409837e+01	-1.043127e+03
2.850000e-06	-3.409879e-06	-1.619722e-08	-2.466399e+01	-1.060466e+03
2.860000e-06	-3.486538e-06	-1.644918e-08	-2.521848e+01	-1.076910e+03
2.870000e-06	-3.561820e-06	-1.668757e-08	-2.576300e+01	-1.092519e+03
2.880000e-06	-3.635768e-06	-1.691529e-08	-2.629787e+01	-1.107351e+03
2.890000e-06	-3.708463e-06	-1.713395e-08	-2.682368e+01	-1.121454e+03
2.900000e-06	-3.779888e-06	-1.734354e-08	-2.734031e+01	-1.134869e+03
2.910000e-06	-3.849728e-06	-1.754185e-08	-2.784547e+01	-1.147634e+03
2.920000e-06	-3.918049e-06	-1.772929e-08	-2.833964e+01	-1.159782e+03
2.930000e-06	-3.985108e-06	-1.790624e-08	-2.882468e+01	-1.171346e+03
2.940000e-06	-4.050806e-06	-1.807516e-08	-2.929988e+01	-1.182357e+03
