# Temperatura_=_88.32
# Concentracion g/m^3_=_28200.0
# C_Vs_to_Am_M_A/Vsm_=_65563218390.804596
# pendiente_HvsI_1/m_=_3716.3
# ordenada_HvsI_A/m_=_1297.0
# frecuencia_Hz_=_301762.0771270315

Tiempo_(s)	Campo_(V.s)	Magnetizacion_(V.s)	Campo_(kA/m)	Magnetizacion_(A/m)
0.000000e+00	-5.319854e-06	-2.633840e-08	-3.829622e+01	-1.722409e+03
1.000000e-08	-5.317624e-06	-2.632871e-08	-3.828017e+01	-1.721919e+03
2.000000e-08	-5.313558e-06	-2.631390e-08	-3.825090e+01	-1.721263e+03
3.000000e-08	-5.307852e-06	-2.629751e-08	-3.820982e+01	-1.720427e+03
4.000000e-08	-5.300580e-06	-2.628053e-08	-3.815747e+01	-1.719384e+03
5.000000e-08	-5.291623e-06	-2.625915e-08	-3.809299e+01	-1.718101e+03
6.000000e-08	-5.280637e-06	-2.623333e-08	-3.801391e+01	-1.716544e+03
7.000000e-08	-5.267687e-06	-2.620513e-08	-3.792069e+01	-1.714696e+03
8.000000e-08	-5.252768e-06	-2.617429e-08	-3.781329e+01	-1.712557e+03
9.000000e-08	-5.235664e-06	-2.616899e-08	-3.769016e+01	-1.710156e+03
1.000000e-07	-5.216478e-06	-2.614679e-08	-3.755205e+01	-1.707542e+03
1.100000e-07	-5.195394e-06	-2.607180e-08	-3.740027e+01	-1.704779e+03
1.200000e-07	-5.172578e-06	-2.600507e-08	-3.723602e+01	-1.701931e+03
1.300000e-07	-5.148208e-06	-2.593708e-08	-3.706059e+01	-1.699049e+03
1.400000e-07	-5.122270e-06	-2.586905e-08	-3.687387e+01	-1.696159e+03
1.500000e-07	-5.094666e-06	-2.588592e-08	-3.667516e+01	-1.693251e+03
1.600000e-07	-5.065489e-06	-2.581888e-08	-3.646512e+01	-1.690281e+03
1.700000e-07	-5.034855e-06	-2.572794e-08	-3.624459e+01	-1.687180e+03
1.800000e-07	-5.002476e-06	-2.574304e-08	-3.601150e+01	-1.683858e+03
1.900000e-07	-4.968103e-06	-2.563962e-08	-3.576406e+01	-1.680232e+03
2.000000e-07	-4.932054e-06	-2.554907e-08	-3.550455e+01	-1.676229e+03
2.100000e-07	-4.894405e-06	-2.552600e-08	-3.523353e+01	-1.671806e+03
2.200000e-07	-4.854999e-06	-2.539034e-08	-3.494986e+01	-1.666951e+03
2.300000e-07	-4.813739e-06	-2.529290e-08	-3.465283e+01	-1.661682e+03
2.400000e-07	-4.770523e-06	-2.523697e-08	-3.434173e+01	-1.656037e+03
2.500000e-07	-4.725528e-06	-2.514399e-08	-3.401783e+01	-1.650065e+03
2.600000e-07	-4.678801e-06	-2.509269e-08	-3.368145e+01	-1.643810e+03
2.700000e-07	-4.630159e-06	-2.495689e-08	-3.333129e+01	-1.637300e+03
2.800000e-07	-4.579434e-06	-2.479036e-08	-3.296614e+01	-1.630543e+03
2.900000e-07	-4.526683e-06	-2.469584e-08	-3.258639e+01	-1.623528e+03
3.000000e-07	-4.472242e-06	-2.461910e-08	-3.219449e+01	-1.616227e+03
3.100000e-07	-4.416219e-06	-2.452296e-08	-3.179119e+01	-1.608607e+03
3.200000e-07	-4.358427e-06	-2.438624e-08	-3.137516e+01	-1.600635e+03
3.300000e-07	-4.298948e-06	-2.424763e-08	-3.094699e+01	-1.592293e+03
3.400000e-07	-4.237990e-06	-2.409704e-08	-3.050817e+01	-1.583574e+03
3.500000e-07	-4.175621e-06	-2.394005e-08	-3.005920e+01	-1.574489e+03
3.600000e-07	-4.111904e-06	-2.381541e-08	-2.960051e+01	-1.565055e+03
3.700000e-07	-4.046692e-06	-2.369653e-08	-2.913107e+01	-1.555290e+03
3.800000e-07	-3.979802e-06	-2.355246e-08	-2.864954e+01	-1.545210e+03
3.900000e-07	-3.911383e-06	-2.336095e-08	-2.815701e+01	-1.534815e+03
4.000000e-07	-3.841658e-06	-2.317122e-08	-2.765508e+01	-1.524091e+03
4.100000e-07	-3.770712e-06	-2.302072e-08	-2.714436e+01	-1.513013e+03
4.200000e-07	-3.698548e-06	-2.285377e-08	-2.662487e+01	-1.501546e+03
4.300000e-07	-3.624981e-06	-2.267489e-08	-2.609528e+01	-1.489655e+03
4.400000e-07	-3.549825e-06	-2.248280e-08	-2.555425e+01	-1.477308e+03
4.500000e-07	-3.473270e-06	-2.227452e-08	-2.500316e+01	-1.464484e+03
4.600000e-07	-3.395419e-06	-2.206671e-08	-2.444272e+01	-1.451169e+03
4.700000e-07	-3.316140e-06	-2.186606e-08	-2.387202e+01	-1.437360e+03
4.800000e-07	-3.235554e-06	-2.165934e-08	-2.329190e+01	-1.423054e+03
4.900000e-07	-3.153823e-06	-2.142562e-08	-2.270354e+01	-1.408247e+03
5.000000e-07	-3.070985e-06	-2.118550e-08	-2.210721e+01	-1.392926e+03
5.100000e-07	-2.987160e-06	-2.093826e-08	-2.150378e+01	-1.377070e+03
5.200000e-07	-2.902475e-06	-2.068275e-08	-2.089415e+01	-1.360643e+03
5.300000e-07	-2.816831e-06	-2.042065e-08	-2.027762e+01	-1.343606e+03
5.400000e-07	-2.730202e-06	-2.015215e-08	-1.965400e+01	-1.325915e+03
5.500000e-07	-2.642753e-06	-1.987141e-08	-1.902448e+01	-1.307528e+03
5.600000e-07	-2.554427e-06	-1.957362e-08	-1.838865e+01	-1.288407e+03
5.700000e-07	-2.464970e-06	-1.927143e-08	-1.774467e+01	-1.268522e+03
5.800000e-07	-2.374352e-06	-1.896111e-08	-1.709233e+01	-1.247845e+03
5.900000e-07	-2.282765e-06	-1.863307e-08	-1.643302e+01	-1.226349e+03
6.000000e-07	-2.190370e-06	-1.828428e-08	-1.576790e+01	-1.203998e+03
6.100000e-07	-2.097264e-06	-1.792356e-08	-1.509765e+01	-1.180748e+03
6.200000e-07	-2.003435e-06	-1.755387e-08	-1.442220e+01	-1.156538e+03
6.300000e-07	-1.908875e-06	-1.717033e-08	-1.374149e+01	-1.131293e+03
6.400000e-07	-1.813694e-06	-1.677053e-08	-1.305631e+01	-1.104929e+03
6.500000e-07	-1.717990e-06	-1.634907e-08	-1.236735e+01	-1.077350e+03
6.600000e-07	-1.621660e-06	-1.590365e-08	-1.167390e+01	-1.048462e+03
6.700000e-07	-1.524620e-06	-1.543821e-08	-1.097533e+01	-1.018175e+03
6.800000e-07	-1.426920e-06	-1.495547e-08	-1.027202e+01	-9.864036e+02
6.900000e-07	-1.328601e-06	-1.445170e-08	-9.564250e+00	-9.530712e+02
7.000000e-07	-1.229781e-06	-1.392251e-08	-8.852871e+00	-9.181070e+02
7.100000e-07	-1.130544e-06	-1.336338e-08	-8.138489e+00	-8.814452e+02
7.200000e-07	-1.030968e-06	-1.277164e-08	-7.421664e+00	-8.430235e+02
7.300000e-07	-9.311185e-07	-1.215122e-08	-6.702876e+00	-8.027864e+02
7.400000e-07	-8.309969e-07	-1.150819e-08	-5.982127e+00	-7.606903e+02
7.500000e-07	-7.306316e-07	-1.084273e-08	-5.259624e+00	-7.167141e+02
7.600000e-07	-6.300267e-07	-1.014755e-08	-4.535396e+00	-6.708705e+02
7.700000e-07	-5.292163e-07	-9.421481e-09	-3.809688e+00	-6.232181e+02
7.800000e-07	-4.282523e-07	-8.668450e-09	-3.082875e+00	-5.738694e+02
7.900000e-07	-3.271710e-07	-7.890974e-09	-2.355217e+00	-5.229928e+02
8.000000e-07	-2.259673e-07	-7.093391e-09	-1.626679e+00	-4.708060e+02
8.100000e-07	-1.246519e-07	-6.281627e-09	-8.973361e-01	-4.175596e+02
8.200000e-07	-2.326561e-08	-5.460132e-09	-1.674830e-01	-3.635137e+02
8.300000e-07	7.817508e-08	-4.631448e-09	5.627618e-01	-3.089086e+02
8.400000e-07	1.796377e-07	-3.796435e-09	1.293164e+00	-2.539363e+02
8.500000e-07	2.810648e-07	-2.958505e-09	2.023311e+00	-1.987156e+02
8.600000e-07	3.823939e-07	-2.119680e-09	2.752753e+00	-1.432772e+02
8.700000e-07	4.836185e-07	-1.274978e-09	3.481442e+00	-8.756191e+01
8.800000e-07	5.847432e-07	-4.214334e-10	4.209412e+00	-3.143329e+01
8.900000e-07	6.856683e-07	4.436021e-10	4.935945e+00	2.529655e+01
9.000000e-07	7.863578e-07	1.322908e-09	5.660782e+00	8.283036e+01
9.100000e-07	8.868498e-07	2.215788e-09	6.384197e+00	1.413441e+02
9.200000e-07	9.871069e-07	3.121054e-09	7.105922e+00	2.009458e+02
9.300000e-07	1.087073e-06	4.042091e-09	7.825552e+00	2.616422e+02
9.400000e-07	1.186654e-06	4.979871e-09	8.542411e+00	3.233161e+02
9.500000e-07	1.285793e-06	5.929650e-09	9.256084e+00	3.857208e+02
9.600000e-07	1.384379e-06	6.886577e-09	9.965779e+00	4.484895e+02
9.700000e-07	1.482312e-06	7.843638e-09	1.067077e+01	5.111611e+02
9.800000e-07	1.579607e-06	8.790973e-09	1.137117e+01	5.732169e+02
9.900000e-07	1.676215e-06	9.718897e-09	1.206663e+01	6.341237e+02
1.000000e-06	1.772073e-06	1.062044e-08	1.275669e+01	6.933777e+02
1.010000e-06	1.867242e-06	1.148812e-08	1.344178e+01	7.505427e+02
1.020000e-06	1.961815e-06	1.231744e-08	1.412259e+01	8.052793e+02
1.030000e-06	2.055706e-06	1.310595e-08	1.479848e+01	8.573603e+02
1.040000e-06	2.148854e-06	1.384917e-08	1.546903e+01	9.066730e+02
1.050000e-06	2.241316e-06	1.454951e-08	1.613464e+01	9.532083e+02
1.060000e-06	2.333086e-06	1.521128e-08	1.679527e+01	9.970411e+02
1.070000e-06	2.424051e-06	1.583699e-08	1.745011e+01	1.038304e+03
1.080000e-06	2.514012e-06	1.642810e-08	1.809771e+01	1.077161e+03
1.090000e-06	2.602910e-06	1.698601e-08	1.873766e+01	1.113785e+03
1.100000e-06	2.690837e-06	1.751201e-08	1.937062e+01	1.148337e+03
1.110000e-06	2.777895e-06	1.800691e-08	1.999733e+01	1.180959e+03
1.120000e-06	2.864062e-06	1.847211e-08	2.061763e+01	1.211772e+03
1.130000e-06	2.949240e-06	1.890996e-08	2.123080e+01	1.240878e+03
1.140000e-06	3.033507e-06	1.932316e-08	2.183741e+01	1.268371e+03
1.150000e-06	3.116882e-06	1.971548e-08	2.243761e+01	1.294338e+03
1.160000e-06	3.199192e-06	2.008962e-08	2.303014e+01	1.318874e+03
1.170000e-06	3.280257e-06	2.044473e-08	2.361370e+01	1.342079e+03
1.180000e-06	3.360063e-06	2.078026e-08	2.418821e+01	1.364055e+03
1.190000e-06	3.438662e-06	2.109706e-08	2.475402e+01	1.384908e+03
1.200000e-06	3.516074e-06	2.139736e-08	2.531128e+01	1.404734e+03
1.210000e-06	3.592327e-06	2.168224e-08	2.586022e+01	1.423616e+03
1.220000e-06	3.667169e-06	2.195314e-08	2.639898e+01	1.441621e+03
1.230000e-06	3.740357e-06	2.221110e-08	2.692584e+01	1.458794e+03
1.240000e-06	3.812087e-06	2.245774e-08	2.744220e+01	1.475168e+03
1.250000e-06	3.882493e-06	2.269312e-08	2.794904e+01	1.490764e+03
1.260000e-06	3.951548e-06	2.291677e-08	2.844615e+01	1.505602e+03
1.270000e-06	4.019327e-06	2.312804e-08	2.893407e+01	1.519705e+03
1.280000e-06	4.085648e-06	2.332866e-08	2.941150e+01	1.533107e+03
1.290000e-06	4.150291e-06	2.352177e-08	2.987685e+01	1.545851e+03
1.300000e-06	4.213392e-06	2.370663e-08	3.033109e+01	1.557986e+03
1.310000e-06	4.275086e-06	2.388307e-08	3.077522e+01	1.569566e+03
1.320000e-06	4.335442e-06	2.405166e-08	3.120970e+01	1.580635e+03
1.330000e-06	4.394363e-06	2.421253e-08	3.163386e+01	1.591227e+03
1.340000e-06	4.451566e-06	2.436604e-08	3.204565e+01	1.601363e+03
1.350000e-06	4.507032e-06	2.451398e-08	3.244493e+01	1.611043e+03
1.360000e-06	4.560875e-06	2.465475e-08	3.283253e+01	1.620259e+03
1.370000e-06	4.612933e-06	2.478690e-08	3.320729e+01	1.628997e+03
1.380000e-06	4.662982e-06	2.491301e-08	3.356757e+01	1.637246e+03
1.390000e-06	4.711115e-06	2.503227e-08	3.391407e+01	1.645004e+03
1.400000e-06	4.757599e-06	2.514365e-08	3.424870e+01	1.652283e+03
1.410000e-06	4.802533e-06	2.524851e-08	3.457217e+01	1.659111e+03
1.420000e-06	4.845869e-06	2.534593e-08	3.488413e+01	1.665525e+03
1.430000e-06	4.887384e-06	2.543546e-08	3.518299e+01	1.671569e+03
1.440000e-06	4.927049e-06	2.551984e-08	3.546852e+01	1.677281e+03
1.450000e-06	4.965048e-06	2.560105e-08	3.574207e+01	1.682693e+03
1.460000e-06	5.001493e-06	2.567906e-08	3.600442e+01	1.687822e+03
1.470000e-06	5.036185e-06	2.575282e-08	3.625416e+01	1.692668e+03
1.480000e-06	5.068936e-06	2.582240e-08	3.648993e+01	1.697224e+03
1.490000e-06	5.099933e-06	2.588785e-08	3.671307e+01	1.701473e+03
1.500000e-06	5.129322e-06	2.594975e-08	3.692463e+01	1.705401e+03
1.510000e-06	5.157057e-06	2.600666e-08	3.712429e+01	1.709000e+03
1.520000e-06	5.182782e-06	2.605634e-08	3.730948e+01	1.712270e+03
1.530000e-06	5.206443e-06	2.610008e-08	3.747981e+01	1.715224e+03
1.540000e-06	5.228293e-06	2.613971e-08	3.763710e+01	1.717876e+03
1.550000e-06	5.248461e-06	2.617601e-08	3.778228e+01	1.720246e+03
1.560000e-06	5.266831e-06	2.620844e-08	3.791452e+01	1.722349e+03
1.570000e-06	5.283201e-06	2.623726e-08	3.803237e+01	1.724192e+03
1.580000e-06	5.297625e-06	2.626208e-08	3.813620e+01	1.725776e+03
1.590000e-06	5.310098e-06	2.628156e-08	3.822599e+01	1.727093e+03
1.600000e-06	5.320369e-06	2.629627e-08	3.829993e+01	1.728137e+03
1.610000e-06	5.328469e-06	2.630725e-08	3.835824e+01	1.728905e+03
1.620000e-06	5.334739e-06	2.631544e-08	3.840338e+01	1.729401e+03
1.630000e-06	5.339274e-06	2.632187e-08	3.843602e+01	1.729641e+03
1.640000e-06	5.341930e-06	2.632515e-08	3.845514e+01	1.729649e+03
1.650000e-06	5.342605e-06	2.632507e-08	3.846000e+01	1.729452e+03
1.660000e-06	5.341447e-06	2.632058e-08	3.845167e+01	1.729075e+03
1.670000e-06	5.338643e-06	2.631194e-08	3.843148e+01	1.728530e+03
1.680000e-06	5.334190e-06	2.630270e-08	3.839942e+01	1.727817e+03
1.690000e-06	5.327848e-06	2.629048e-08	3.835377e+01	1.726916e+03
1.700000e-06	5.319667e-06	2.627245e-08	3.829487e+01	1.725799e+03
1.710000e-06	5.309896e-06	2.625086e-08	3.822454e+01	1.724429e+03
1.720000e-06	5.298432e-06	2.622963e-08	3.814201e+01	1.722778e+03
1.730000e-06	5.285020e-06	2.621271e-08	3.804546e+01	1.720834e+03
1.740000e-06	5.269608e-06	2.614902e-08	3.793451e+01	1.718605e+03
1.750000e-06	5.252062e-06	2.608131e-08	3.780821e+01	1.716128e+03
1.760000e-06	5.231990e-06	2.606904e-08	3.766371e+01	1.713457e+03
1.770000e-06	5.209457e-06	2.604775e-08	3.750151e+01	1.710658e+03
1.780000e-06	5.185269e-06	2.604843e-08	3.732738e+01	1.707794e+03
1.790000e-06	5.160219e-06	2.599737e-08	3.714705e+01	1.704907e+03
1.800000e-06	5.134156e-06	2.586255e-08	3.695943e+01	1.702012e+03
1.810000e-06	5.106184e-06	2.588026e-08	3.675807e+01	1.699089e+03
1.820000e-06	5.076148e-06	2.585162e-08	3.654185e+01	1.696084e+03
1.830000e-06	5.044423e-06	2.574553e-08	3.631347e+01	1.692920e+03
1.840000e-06	5.010891e-06	2.580016e-08	3.607208e+01	1.689508e+03
1.850000e-06	4.975698e-06	2.572566e-08	3.581873e+01	1.685766e+03
1.860000e-06	4.938852e-06	2.560350e-08	3.555349e+01	1.681630e+03
1.870000e-06	4.900055e-06	2.560569e-08	3.527420e+01	1.677067e+03
1.880000e-06	4.859558e-06	2.548751e-08	3.498268e+01	1.672074e+03
1.890000e-06	4.817392e-06	2.542138e-08	3.467913e+01	1.666677e+03
1.900000e-06	4.773469e-06	2.533804e-08	3.436294e+01	1.660921e+03
1.910000e-06	4.727844e-06	2.517294e-08	3.403450e+01	1.654852e+03
1.920000e-06	4.680297e-06	2.520777e-08	3.369222e+01	1.648511e+03
1.930000e-06	4.631045e-06	2.512459e-08	3.333767e+01	1.641920e+03
1.940000e-06	4.580098e-06	2.495240e-08	3.297092e+01	1.635081e+03
1.950000e-06	4.527087e-06	2.485324e-08	3.258930e+01	1.627977e+03
1.960000e-06	4.472127e-06	2.471011e-08	3.219366e+01	1.620575e+03
1.970000e-06	4.415461e-06	2.462129e-08	3.178574e+01	1.612843e+03
1.980000e-06	4.357250e-06	2.447286e-08	3.136669e+01	1.604752e+03
1.990000e-06	4.297595e-06	2.436728e-08	3.093725e+01	1.596287e+03
2.000000e-06	4.236407e-06	2.429836e-08	3.049677e+01	1.587448e+03
2.010000e-06	4.173591e-06	2.409274e-08	3.004458e+01	1.578247e+03
2.020000e-06	4.109203e-06	2.392711e-08	2.958106e+01	1.568703e+03
2.030000e-06	4.043425e-06	2.377513e-08	2.910755e+01	1.558835e+03
2.040000e-06	3.976371e-06	2.366122e-08	2.862485e+01	1.548652e+03
2.050000e-06	3.907885e-06	2.352112e-08	2.813183e+01	1.538152e+03
2.060000e-06	3.837795e-06	2.331606e-08	2.762727e+01	1.527316e+03
2.070000e-06	3.766289e-06	2.316353e-08	2.711252e+01	1.516116e+03
2.080000e-06	3.693552e-06	2.296321e-08	2.658891e+01	1.504515e+03
2.090000e-06	3.619471e-06	2.278431e-08	2.605561e+01	1.492479e+03
2.100000e-06	3.543985e-06	2.261172e-08	2.551221e+01	1.479979e+03
2.110000e-06	3.467008e-06	2.241312e-08	2.495807e+01	1.466997e+03
2.120000e-06	3.388536e-06	2.220959e-08	2.439318e+01	1.453522e+03
2.130000e-06	3.308832e-06	2.197717e-08	2.381941e+01	1.439551e+03
2.140000e-06	3.228018e-06	2.176751e-08	2.323765e+01	1.425084e+03
2.150000e-06	3.146092e-06	2.153611e-08	2.264789e+01	1.410112e+03
2.160000e-06	3.063160e-06	2.131073e-08	2.205088e+01	1.394621e+03
2.170000e-06	2.979293e-06	2.108091e-08	2.144714e+01	1.378584e+03
2.180000e-06	2.894258e-06	2.082295e-08	2.083500e+01	1.361964e+03
2.190000e-06	2.807883e-06	2.055294e-08	2.021321e+01	1.344720e+03
2.200000e-06	2.720393e-06	2.027635e-08	1.958339e+01	1.326808e+03
2.210000e-06	2.631994e-06	2.000713e-08	1.894703e+01	1.308188e+03
2.220000e-06	2.542690e-06	1.970801e-08	1.830415e+01	1.288823e+03
2.230000e-06	2.452493e-06	1.939553e-08	1.765485e+01	1.268685e+03
2.240000e-06	2.361562e-06	1.908033e-08	1.700026e+01	1.247746e+03
2.250000e-06	2.270012e-06	1.875929e-08	1.634122e+01	1.225978e+03
2.260000e-06	2.177700e-06	1.841673e-08	1.567668e+01	1.203342e+03
2.270000e-06	2.084429e-06	1.805291e-08	1.500525e+01	1.179789e+03
2.280000e-06	1.990175e-06	1.767941e-08	1.432674e+01	1.155254e+03
2.290000e-06	1.895025e-06	1.728699e-08	1.364179e+01	1.129658e+03
2.300000e-06	1.799204e-06	1.688025e-08	1.295199e+01	1.102912e+03
2.310000e-06	1.702900e-06	1.645545e-08	1.225873e+01	1.074921e+03
2.320000e-06	1.606073e-06	1.601362e-08	1.156170e+01	1.045592e+03
2.330000e-06	1.508742e-06	1.554602e-08	1.086104e+01	1.014835e+03
2.340000e-06	1.410942e-06	1.504773e-08	1.015700e+01	9.825683e+02
2.350000e-06	1.312648e-06	1.452508e-08	9.449408e+00	9.487174e+02
2.360000e-06	1.213949e-06	1.398613e-08	8.738895e+00	9.132132e+02
2.370000e-06	1.114950e-06	1.342732e-08	8.026227e+00	8.759907e+02
2.380000e-06	1.015709e-06	1.283712e-08	7.311823e+00	8.369897e+02
2.390000e-06	9.162252e-07	1.221265e-08	6.595663e+00	7.961574e+02
2.400000e-06	8.164983e-07	1.155626e-08	5.877756e+00	7.534565e+02
2.410000e-06	7.164483e-07	1.087447e-08	5.157522e+00	7.088752e+02
2.420000e-06	6.160797e-07	1.016528e-08	4.434995e+00	6.624399e+02
2.430000e-06	5.154447e-07	9.430483e-09	3.710550e+00	6.142258e+02
2.440000e-06	4.145843e-07	8.671819e-09	2.984483e+00	5.643636e+02
2.450000e-06	3.135932e-07	7.888100e-09	2.257474e+00	5.130387e+02
2.460000e-06	2.124426e-07	7.081962e-09	1.529318e+00	4.604815e+02
2.470000e-06	1.111731e-07	6.262321e-09	8.003055e-01	4.069486e+02
2.480000e-06	9.878519e-09	5.436193e-09	7.111285e-02	3.526970e+02
2.490000e-06	-9.146005e-08	4.602213e-09	-6.583967e-01	2.979546e+02
2.500000e-06	-1.927629e-07	3.759144e-09	-1.387649e+00	2.428921e+02
2.510000e-06	-2.939494e-07	2.910525e-09	-2.116064e+00	1.876010e+02
2.520000e-06	-3.950665e-07	2.058995e-09	-2.843979e+00	1.320827e+02
2.530000e-06	-4.960526e-07	1.203122e-09	-3.570952e+00	7.625107e+01
2.540000e-06	-5.968060e-07	3.400844e-10	-4.296249e+00	1.994974e+01
2.550000e-06	-6.972504e-07	-5.325119e-10	-5.019321e+00	-3.701831e+01
2.560000e-06	-7.973897e-07	-1.415973e-09	-5.740198e+00	-9.485183e+01
2.570000e-06	-8.972434e-07	-2.312546e-09	-6.459018e+00	-1.537092e+02
2.580000e-06	-9.968080e-07	-3.224902e-09	-7.175757e+00	-2.136692e+02
2.590000e-06	-1.096096e-06	-4.154643e-09	-7.890502e+00	-2.747003e+02
2.600000e-06	-1.195053e-06	-5.099650e-09	-8.602873e+00	-3.366436e+02
2.610000e-06	-1.293626e-06	-6.055338e-09	-9.312468e+00	-3.992119e+02
2.620000e-06	-1.391746e-06	-7.016182e-09	-1.001881e+01	-4.620048e+02
2.630000e-06	-1.489321e-06	-7.974931e-09	-1.072123e+01	-5.245381e+02
2.640000e-06	-1.586352e-06	-8.920637e-09	-1.141973e+01	-5.862837e+02
2.650000e-06	-1.682892e-06	-9.845065e-09	-1.211470e+01	-6.467130e+02
2.660000e-06	-1.778967e-06	-1.074130e-08	-1.280631e+01	-7.053404e+02
2.670000e-06	-1.874457e-06	-1.160477e-08	-1.349372e+01	-7.617581e+02
2.680000e-06	-1.969213e-06	-1.243048e-08	-1.417585e+01	-8.156618e+02
2.690000e-06	-2.063131e-06	-1.321264e-08	-1.485193e+01	-8.668615e+02
2.700000e-06	-2.156113e-06	-1.395496e-08	-1.552128e+01	-9.152794e+02
2.710000e-06	-2.248212e-06	-1.465919e-08	-1.618429e+01	-9.609360e+02
2.720000e-06	-2.339514e-06	-1.532286e-08	-1.684154e+01	-1.003928e+03
2.730000e-06	-2.429972e-06	-1.594664e-08	-1.749273e+01	-1.044400e+03
2.740000e-06	-2.519550e-06	-1.653416e-08	-1.813757e+01	-1.082523e+03
2.750000e-06	-2.608342e-06	-1.708801e-08	-1.877676e+01	-1.118465e+03
2.760000e-06	-2.696376e-06	-1.760820e-08	-1.941050e+01	-1.152383e+03
2.770000e-06	-2.783519e-06	-1.809620e-08	-2.003782e+01	-1.184413e+03
2.780000e-06	-2.869555e-06	-1.855683e-08	-2.065717e+01	-1.214668e+03
2.790000e-06	-2.954421e-06	-1.899282e-08	-2.126809e+01	-1.243248e+03
2.800000e-06	-3.038210e-06	-1.940435e-08	-2.187127e+01	-1.270242e+03
2.810000e-06	-3.120973e-06	-1.979523e-08	-2.246706e+01	-1.295740e+03
2.820000e-06	-3.202709e-06	-2.016783e-08	-2.305545e+01	-1.319839e+03
2.830000e-06	-3.283421e-06	-2.052054e-08	-2.363648e+01	-1.342638e+03
2.840000e-06	-3.363073e-06	-2.085385e-08	-2.420988e+01	-1.364244e+03
2.850000e-06	-3.441478e-06	-2.116939e-08	-2.477429e+01	-1.384758e+03
2.860000e-06	-3.518494e-06	-2.146854e-08	-2.532871e+01	-1.404274e+03
2.870000e-06	-3.594070e-06	-2.175380e-08	-2.587276e+01	-1.422869e+03
2.880000e-06	-3.668190e-06	-2.202408e-08	-2.640633e+01	-1.440604e+03
2.890000e-06	-3.740921e-06	-2.228048e-08	-2.692990e+01	-1.457519e+03
2.900000e-06	-3.812364e-06	-2.252679e-08	-2.744420e+01	-1.473642e+03
2.910000e-06	-3.882418e-06	-2.276437e-08	-2.794850e+01	-1.488994e+03
2.920000e-06	-3.950927e-06	-2.299289e-08	-2.844168e+01	-1.503594e+03
2.930000e-06	-4.018013e-06	-2.321126e-08	-2.892461e+01	-1.517469e+03
2.940000e-06	-4.083760e-06	-2.341775e-08	-2.939791e+01	-1.530656e+03
