# Temperatura_=_31.89
# Concentracion g/m^3_=_28200.0
# C_Vs_to_Am_M_A/Vsm_=_65563218390.804596
# pendiente_HvsI_1/m_=_3716.3
# ordenada_HvsI_A/m_=_1297.0
# frecuencia_Hz_=_301780.81283977616

Tiempo_(s)	Campo_(V.s)	Magnetizacion_(V.s)	Campo_(kA/m)	Magnetizacion_(A/m)
0.000000e+00	-5.340643e-06	-1.818162e-08	-3.828957e+01	-1.189528e+03
1.000000e-08	-5.338719e-06	-1.817862e-08	-3.827578e+01	-1.189240e+03
2.000000e-08	-5.334917e-06	-1.816833e-08	-3.824852e+01	-1.188831e+03
3.000000e-08	-5.329442e-06	-1.815643e-08	-3.820927e+01	-1.188297e+03
4.000000e-08	-5.322316e-06	-1.814563e-08	-3.815818e+01	-1.187626e+03
5.000000e-08	-5.313529e-06	-1.813205e-08	-3.809518e+01	-1.186799e+03
6.000000e-08	-5.302798e-06	-1.811595e-08	-3.801825e+01	-1.185799e+03
7.000000e-08	-5.290120e-06	-1.809210e-08	-3.792735e+01	-1.184612e+03
8.000000e-08	-5.275489e-06	-1.806883e-08	-3.782246e+01	-1.183236e+03
9.000000e-08	-5.258624e-06	-1.809123e-08	-3.770154e+01	-1.181681e+03
1.000000e-07	-5.239617e-06	-1.808280e-08	-3.756527e+01	-1.179970e+03
1.100000e-07	-5.218696e-06	-1.801613e-08	-3.741528e+01	-1.178132e+03
1.200000e-07	-5.195961e-06	-1.797890e-08	-3.725228e+01	-1.176202e+03
1.300000e-07	-5.171650e-06	-1.790238e-08	-3.707798e+01	-1.174206e+03
1.400000e-07	-5.145778e-06	-1.783897e-08	-3.689250e+01	-1.172159e+03
1.500000e-07	-5.118278e-06	-1.792214e-08	-3.669533e+01	-1.170060e+03
1.600000e-07	-5.089232e-06	-1.784247e-08	-3.648709e+01	-1.167890e+03
1.700000e-07	-5.058735e-06	-1.775437e-08	-3.626845e+01	-1.165616e+03
1.800000e-07	-5.026518e-06	-1.781949e-08	-3.603746e+01	-1.163195e+03
1.900000e-07	-4.992207e-06	-1.769239e-08	-3.579147e+01	-1.160586e+03
2.000000e-07	-4.956226e-06	-1.764849e-08	-3.553351e+01	-1.157751e+03
2.100000e-07	-4.918680e-06	-1.770330e-08	-3.526432e+01	-1.154668e+03
2.200000e-07	-4.879338e-06	-1.756949e-08	-3.498226e+01	-1.151328e+03
2.300000e-07	-4.838152e-06	-1.749371e-08	-3.468698e+01	-1.147739e+03
2.400000e-07	-4.795028e-06	-1.745758e-08	-3.437781e+01	-1.143919e+03
2.500000e-07	-4.750127e-06	-1.735637e-08	-3.405589e+01	-1.139891e+03
2.600000e-07	-4.703426e-06	-1.734934e-08	-3.372106e+01	-1.135675e+03
2.700000e-07	-4.654710e-06	-1.729739e-08	-3.337180e+01	-1.131287e+03
2.800000e-07	-4.603944e-06	-1.717731e-08	-3.300784e+01	-1.126727e+03
2.900000e-07	-4.551241e-06	-1.707957e-08	-3.262998e+01	-1.121987e+03
3.000000e-07	-4.496830e-06	-1.701629e-08	-3.223988e+01	-1.117051e+03
3.100000e-07	-4.440838e-06	-1.695568e-08	-3.183845e+01	-1.111897e+03
3.200000e-07	-4.383057e-06	-1.687607e-08	-3.142419e+01	-1.106506e+03
3.300000e-07	-4.323552e-06	-1.681046e-08	-3.099757e+01	-1.100861e+03
3.400000e-07	-4.262567e-06	-1.670227e-08	-3.056035e+01	-1.094957e+03
3.500000e-07	-4.200164e-06	-1.658052e-08	-3.011294e+01	-1.088795e+03
3.600000e-07	-4.136401e-06	-1.648202e-08	-2.965580e+01	-1.082381e+03
3.700000e-07	-4.071048e-06	-1.639231e-08	-2.918725e+01	-1.075726e+03
3.800000e-07	-4.004029e-06	-1.631742e-08	-2.870676e+01	-1.068836e+03
3.900000e-07	-3.935547e-06	-1.620353e-08	-2.821578e+01	-1.061714e+03
4.000000e-07	-3.865724e-06	-1.606782e-08	-2.771519e+01	-1.054356e+03
4.100000e-07	-3.794703e-06	-1.595295e-08	-2.720601e+01	-1.046748e+03
4.200000e-07	-3.722475e-06	-1.583137e-08	-2.668817e+01	-1.038873e+03
4.300000e-07	-3.648781e-06	-1.570649e-08	-2.615982e+01	-1.030711e+03
4.400000e-07	-3.573484e-06	-1.557719e-08	-2.561998e+01	-1.022241e+03
4.500000e-07	-3.496754e-06	-1.543830e-08	-2.506987e+01	-1.013447e+03
4.600000e-07	-3.418621e-06	-1.528895e-08	-2.450970e+01	-1.004316e+03
4.700000e-07	-3.339022e-06	-1.514776e-08	-2.393901e+01	-9.948377e+02
4.800000e-07	-3.258139e-06	-1.501020e-08	-2.335912e+01	-9.850035e+02
4.900000e-07	-3.176114e-06	-1.485020e-08	-2.277105e+01	-9.748046e+02
5.000000e-07	-3.093082e-06	-1.468459e-08	-2.217576e+01	-9.642288e+02
5.100000e-07	-3.009164e-06	-1.451353e-08	-2.157411e+01	-9.532587e+02
5.200000e-07	-2.924333e-06	-1.433579e-08	-2.096591e+01	-9.418716e+02
5.300000e-07	-2.838562e-06	-1.415306e-08	-2.035098e+01	-9.300399e+02
5.400000e-07	-2.751839e-06	-1.396588e-08	-1.972923e+01	-9.177326e+02
5.500000e-07	-2.664282e-06	-1.377143e-08	-1.910149e+01	-9.049176e+02
5.600000e-07	-2.575750e-06	-1.356106e-08	-1.846676e+01	-8.915630e+02
5.700000e-07	-2.485958e-06	-1.334472e-08	-1.782300e+01	-8.776382e+02
5.800000e-07	-2.395082e-06	-1.312464e-08	-1.717146e+01	-8.631141e+02
5.900000e-07	-2.303350e-06	-1.289852e-08	-1.651380e+01	-8.479619e+02
6.000000e-07	-2.210797e-06	-1.265752e-08	-1.585024e+01	-8.321519e+02
6.100000e-07	-2.117475e-06	-1.239870e-08	-1.518117e+01	-8.156523e+02
6.200000e-07	-2.023351e-06	-1.212849e-08	-1.450635e+01	-7.984280e+02
6.300000e-07	-1.928493e-06	-1.185068e-08	-1.382627e+01	-7.804404e+02
6.400000e-07	-1.833057e-06	-1.156718e-08	-1.314204e+01	-7.616481e+02
6.500000e-07	-1.737077e-06	-1.127184e-08	-1.245392e+01	-7.420075e+02
6.600000e-07	-1.640427e-06	-1.095720e-08	-1.176099e+01	-7.214741e+02
6.700000e-07	-1.542959e-06	-1.062328e-08	-1.106220e+01	-7.000035e+02
6.800000e-07	-1.444767e-06	-1.027647e-08	-1.035821e+01	-6.775517e+02
6.900000e-07	-1.346046e-06	-9.918200e-09	-9.650435e+00	-6.540753e+02
7.000000e-07	-1.246906e-06	-9.547503e-09	-8.939652e+00	-6.295325e+02
7.100000e-07	-1.147417e-06	-9.160400e-09	-8.226372e+00	-6.038832e+02
7.200000e-07	-1.047616e-06	-8.749466e-09	-7.510850e+00	-5.770923e+02
7.300000e-07	-9.474737e-07	-8.314225e-09	-6.792883e+00	-5.491331e+02
7.400000e-07	-8.470341e-07	-7.862714e-09	-6.072784e+00	-5.199930e+02
7.500000e-07	-7.463341e-07	-7.402713e-09	-5.350819e+00	-4.896802e+02
7.600000e-07	-6.453439e-07	-6.927852e-09	-4.626773e+00	-4.582296e+02
7.700000e-07	-5.441264e-07	-6.435013e-09	-3.901097e+00	-4.257083e+02
7.800000e-07	-4.427505e-07	-5.927863e-09	-3.174286e+00	-3.922174e+02
7.900000e-07	-3.412458e-07	-5.406278e-09	-2.446551e+00	-3.578895e+02
8.000000e-07	-2.396428e-07	-4.870749e-09	-1.718112e+00	-3.228822e+02
8.100000e-07	-1.379051e-07	-4.327846e-09	-9.887062e-01	-2.873665e+02
8.200000e-07	-3.607655e-08	-3.783375e-09	-2.586497e-01	-2.515124e+02
8.300000e-07	6.574178e-08	-3.236664e-09	4.713337e-01	-2.154719e+02
8.400000e-07	1.675594e-07	-2.688357e-09	1.201312e+00	-1.793640e+02
8.500000e-07	2.693548e-07	-2.140052e-09	1.931131e+00	-1.432613e+02
8.600000e-07	3.710576e-07	-1.594197e-09	2.660286e+00	-1.071831e+02
8.700000e-07	4.726238e-07	-1.047716e-09	3.388462e+00	-7.109384e+01
8.800000e-07	5.740497e-07	-4.972275e-10	4.115631e+00	-3.490992e+01
8.900000e-07	6.753347e-07	5.776999e-11	4.841791e+00	1.488090e+00
9.000000e-07	7.764128e-07	6.190343e-10	5.566468e+00	3.823728e+01
9.100000e-07	8.772259e-07	1.186974e-09	6.289244e+00	7.547141e+01
9.200000e-07	9.777247e-07	1.761349e-09	7.009767e+00	1.132995e+02
9.300000e-07	1.077872e-06	2.343880e-09	7.727772e+00	1.517862e+02
9.400000e-07	1.177664e-06	2.937234e-09	8.443226e+00	1.909372e+02
9.500000e-07	1.277121e-06	3.541237e-09	9.156283e+00	2.306904e+02
9.600000e-07	1.376229e-06	4.152829e-09	9.866835e+00	2.709146e+02
9.700000e-07	1.474870e-06	4.769643e-09	1.057404e+01	3.114148e+02
9.800000e-07	1.572779e-06	5.387239e-09	1.127599e+01	3.519456e+02
9.900000e-07	1.669826e-06	6.001004e-09	1.197177e+01	3.922279e+02
1.000000e-06	1.766096e-06	6.606285e-09	1.266197e+01	4.319698e+02
1.010000e-06	1.861711e-06	7.197125e-09	1.334748e+01	4.708876e+02
1.020000e-06	1.956743e-06	7.769018e-09	1.402881e+01	5.087253e+02
1.030000e-06	2.051101e-06	8.321944e-09	1.470530e+01	5.452701e+02
1.040000e-06	2.144688e-06	8.851872e-09	1.537627e+01	5.803624e+02
1.050000e-06	2.237512e-06	9.357322e-09	1.604177e+01	6.139003e+02
1.060000e-06	2.329619e-06	9.840154e-09	1.670213e+01	6.458371e+02
1.070000e-06	2.421059e-06	1.029988e-08	1.735771e+01	6.761745e+02
1.080000e-06	2.511703e-06	1.073774e-08	1.800757e+01	7.049516e+02
1.090000e-06	2.601196e-06	1.115297e-08	1.864920e+01	7.322323e+02
1.100000e-06	2.689496e-06	1.154621e-08	1.928226e+01	7.580931e+02
1.110000e-06	2.776874e-06	1.192070e-08	1.990871e+01	7.826126e+02
1.120000e-06	2.863430e-06	1.227553e-08	2.052928e+01	8.058647e+02
1.130000e-06	2.949043e-06	1.261072e-08	2.114307e+01	8.279147e+02
1.140000e-06	3.033687e-06	1.292651e-08	2.174993e+01	8.488192e+02
1.150000e-06	3.117463e-06	1.322583e-08	2.235056e+01	8.686288e+02
1.160000e-06	3.200262e-06	1.351097e-08	2.294418e+01	8.873914e+02
1.170000e-06	3.281827e-06	1.378030e-08	2.352896e+01	9.051560e+02
1.180000e-06	3.362167e-06	1.403544e-08	2.410495e+01	9.219752e+02
1.190000e-06	3.441352e-06	1.427676e-08	2.467267e+01	9.379058e+02
1.200000e-06	3.519342e-06	1.450587e-08	2.523181e+01	9.530080e+02
1.210000e-06	3.596058e-06	1.472235e-08	2.578182e+01	9.673424e+02
1.220000e-06	3.671432e-06	1.492706e-08	2.632222e+01	9.809669e+02
1.230000e-06	3.745275e-06	1.512213e-08	2.685163e+01	9.939337e+02
1.240000e-06	3.817532e-06	1.530886e-08	2.736968e+01	1.006286e+03
1.250000e-06	3.888470e-06	1.548638e-08	2.787826e+01	1.018060e+03
1.260000e-06	3.958085e-06	1.565430e-08	2.837736e+01	1.029281e+03
1.270000e-06	4.026341e-06	1.581298e-08	2.886673e+01	1.039968e+03
1.280000e-06	4.093192e-06	1.596427e-08	2.934601e+01	1.050136e+03
1.290000e-06	4.158321e-06	1.611112e-08	2.981295e+01	1.059799e+03
1.300000e-06	4.221805e-06	1.625311e-08	3.026810e+01	1.068970e+03
1.310000e-06	4.283879e-06	1.638878e-08	3.071314e+01	1.077662e+03
1.320000e-06	4.344607e-06	1.651679e-08	3.114853e+01	1.085892e+03
1.330000e-06	4.404023e-06	1.663631e-08	3.157451e+01	1.093678e+03
1.340000e-06	4.461763e-06	1.674762e-08	3.198847e+01	1.101037e+03
1.350000e-06	4.517719e-06	1.685149e-08	3.238964e+01	1.107991e+03
1.360000e-06	4.572049e-06	1.694879e-08	3.277916e+01	1.114561e+03
1.370000e-06	4.624634e-06	1.703927e-08	3.315617e+01	1.120767e+03
1.380000e-06	4.675178e-06	1.712470e-08	3.351854e+01	1.126635e+03
1.390000e-06	4.723678e-06	1.720719e-08	3.386627e+01	1.132190e+03
1.400000e-06	4.770489e-06	1.728731e-08	3.420187e+01	1.137455e+03
1.410000e-06	4.815767e-06	1.736566e-08	3.452649e+01	1.142455e+03
1.420000e-06	4.859550e-06	1.744051e-08	3.484039e+01	1.147210e+03
1.430000e-06	4.901561e-06	1.750891e-08	3.514159e+01	1.151736e+03
1.440000e-06	4.941653e-06	1.757125e-08	3.542902e+01	1.156039e+03
1.450000e-06	4.980097e-06	1.763173e-08	3.570465e+01	1.160119e+03
1.460000e-06	5.016967e-06	1.769032e-08	3.596899e+01	1.163970e+03
1.470000e-06	5.052130e-06	1.774448e-08	3.622109e+01	1.167581e+03
1.480000e-06	5.085375e-06	1.779419e-08	3.645943e+01	1.170939e+03
1.490000e-06	5.116766e-06	1.783910e-08	3.668449e+01	1.174033e+03
1.500000e-06	5.146460e-06	1.788021e-08	3.689738e+01	1.176862e+03
1.510000e-06	5.174491e-06	1.791823e-08	3.709835e+01	1.179427e+03
1.520000e-06	5.200627e-06	1.795326e-08	3.728573e+01	1.181740e+03
1.530000e-06	5.224667e-06	1.798537e-08	3.745809e+01	1.183819e+03
1.540000e-06	5.246818e-06	1.801321e-08	3.761690e+01	1.185685e+03
1.550000e-06	5.267285e-06	1.803757e-08	3.776364e+01	1.187355e+03
1.560000e-06	5.286005e-06	1.805873e-08	3.789785e+01	1.188845e+03
1.570000e-06	5.302806e-06	1.807675e-08	3.801831e+01	1.190162e+03
1.580000e-06	5.317585e-06	1.809348e-08	3.812426e+01	1.191308e+03
1.590000e-06	5.330328e-06	1.810875e-08	3.821562e+01	1.192279e+03
1.600000e-06	5.340975e-06	1.812150e-08	3.829196e+01	1.193068e+03
1.610000e-06	5.349433e-06	1.813124e-08	3.835259e+01	1.193671e+03
1.620000e-06	5.355934e-06	1.813891e-08	3.839920e+01	1.194090e+03
1.630000e-06	5.360687e-06	1.814491e-08	3.843328e+01	1.194331e+03
1.640000e-06	5.363551e-06	1.814885e-08	3.845381e+01	1.194408e+03
1.650000e-06	5.364414e-06	1.815210e-08	3.846000e+01	1.194336e+03
1.660000e-06	5.363428e-06	1.815019e-08	3.845293e+01	1.194131e+03
1.670000e-06	5.360786e-06	1.814336e-08	3.843399e+01	1.193803e+03
1.680000e-06	5.356476e-06	1.813675e-08	3.840309e+01	1.193354e+03
1.690000e-06	5.350304e-06	1.812782e-08	3.835884e+01	1.192777e+03
1.700000e-06	5.342320e-06	1.811601e-08	3.830160e+01	1.192057e+03
1.710000e-06	5.332730e-06	1.810403e-08	3.823284e+01	1.191175e+03
1.720000e-06	5.321448e-06	1.809668e-08	3.815195e+01	1.190115e+03
1.730000e-06	5.308281e-06	1.809373e-08	3.805756e+01	1.188866e+03
1.740000e-06	5.293173e-06	1.802342e-08	3.794924e+01	1.187430e+03
1.750000e-06	5.275923e-06	1.797035e-08	3.782557e+01	1.185821e+03
1.760000e-06	5.256160e-06	1.798014e-08	3.768388e+01	1.184065e+03
1.770000e-06	5.233828e-06	1.796207e-08	3.752377e+01	1.182194e+03
1.780000e-06	5.209632e-06	1.800782e-08	3.735030e+01	1.180239e+03
1.790000e-06	5.184567e-06	1.794636e-08	3.717059e+01	1.178224e+03
1.800000e-06	5.158638e-06	1.779548e-08	3.698469e+01	1.176161e+03
1.810000e-06	5.130773e-06	1.788010e-08	3.678492e+01	1.174041e+03
1.820000e-06	5.100712e-06	1.784062e-08	3.656940e+01	1.171841e+03
1.830000e-06	5.069025e-06	1.774201e-08	3.634222e+01	1.169524e+03
1.840000e-06	5.035601e-06	1.786021e-08	3.610258e+01	1.167046e+03
1.850000e-06	5.000521e-06	1.774771e-08	3.585108e+01	1.164367e+03
1.860000e-06	4.963831e-06	1.764024e-08	3.558803e+01	1.161453e+03
1.870000e-06	4.925132e-06	1.769257e-08	3.531058e+01	1.158287e+03
1.880000e-06	4.884688e-06	1.757674e-08	3.502062e+01	1.154865e+03
1.890000e-06	4.842570e-06	1.758851e-08	3.471866e+01	1.151198e+03
1.900000e-06	4.798721e-06	1.754628e-08	3.440428e+01	1.147308e+03
1.910000e-06	4.753200e-06	1.736098e-08	3.407792e+01	1.143217e+03
1.920000e-06	4.705689e-06	1.738530e-08	3.373729e+01	1.138944e+03
1.930000e-06	4.656404e-06	1.733925e-08	3.338394e+01	1.134500e+03
1.940000e-06	4.605476e-06	1.726063e-08	3.301882e+01	1.129883e+03
1.950000e-06	4.552502e-06	1.719375e-08	3.263902e+01	1.125082e+03
1.960000e-06	4.497534e-06	1.710022e-08	3.224493e+01	1.120077e+03
1.970000e-06	4.440879e-06	1.705324e-08	3.183875e+01	1.114848e+03
1.980000e-06	4.382707e-06	1.689399e-08	3.142168e+01	1.109376e+03
1.990000e-06	4.323056e-06	1.682885e-08	3.099401e+01	1.103647e+03
2.000000e-06	4.261842e-06	1.680429e-08	3.055514e+01	1.097659e+03
2.010000e-06	4.199017e-06	1.668224e-08	3.010472e+01	1.091414e+03
2.020000e-06	4.134537e-06	1.658127e-08	2.964243e+01	1.084921e+03
2.030000e-06	4.068545e-06	1.643444e-08	2.916930e+01	1.078189e+03
2.040000e-06	4.001207e-06	1.635494e-08	2.868653e+01	1.071224e+03
2.050000e-06	3.932432e-06	1.625980e-08	2.819345e+01	1.064026e+03
2.060000e-06	3.862138e-06	1.612620e-08	2.768948e+01	1.056588e+03
2.070000e-06	3.790428e-06	1.603867e-08	2.717535e+01	1.048896e+03
2.080000e-06	3.717461e-06	1.590021e-08	2.665222e+01	1.040930e+03
2.090000e-06	3.643174e-06	1.577666e-08	2.611963e+01	1.032670e+03
2.100000e-06	3.567500e-06	1.564765e-08	2.557708e+01	1.024097e+03
2.110000e-06	3.490346e-06	1.551977e-08	2.502393e+01	1.015196e+03
2.120000e-06	3.411762e-06	1.538255e-08	2.446052e+01	1.005953e+03
2.130000e-06	3.331967e-06	1.522405e-08	2.388843e+01	9.963601e+02
2.140000e-06	3.251041e-06	1.508224e-08	2.330824e+01	9.864090e+02
2.150000e-06	3.168990e-06	1.491789e-08	2.271997e+01	9.760897e+02
2.160000e-06	3.085866e-06	1.476116e-08	2.212402e+01	9.653885e+02
2.170000e-06	3.001786e-06	1.459834e-08	2.152121e+01	9.542863e+02
2.180000e-06	2.916492e-06	1.442557e-08	2.090970e+01	9.427587e+02
2.190000e-06	2.829893e-06	1.424185e-08	2.028883e+01	9.307768e+02
2.200000e-06	2.742267e-06	1.404871e-08	1.966060e+01	9.183090e+02
2.210000e-06	2.653674e-06	1.386126e-08	1.902543e+01	9.053232e+02
2.220000e-06	2.564175e-06	1.365929e-08	1.838377e+01	8.917878e+02
2.230000e-06	2.473768e-06	1.344340e-08	1.773560e+01	8.776727e+02
2.240000e-06	2.382565e-06	1.321016e-08	1.708173e+01	8.629491e+02
2.250000e-06	2.290732e-06	1.297809e-08	1.642333e+01	8.475880e+02
2.260000e-06	2.198082e-06	1.273935e-08	1.575908e+01	8.315591e+02
2.270000e-06	2.104444e-06	1.248769e-08	1.508775e+01	8.148298e+02
2.280000e-06	2.009861e-06	1.222611e-08	1.440964e+01	7.973637e+02
2.290000e-06	1.914486e-06	1.194877e-08	1.372585e+01	7.791213e+02
2.300000e-06	1.818463e-06	1.165686e-08	1.303742e+01	7.600603e+02
2.310000e-06	1.721849e-06	1.135099e-08	1.234474e+01	7.401368e+02
2.320000e-06	1.624715e-06	1.103740e-08	1.164835e+01	7.193062e+02
2.330000e-06	1.527096e-06	1.071096e-08	1.094846e+01	6.975242e+02
2.340000e-06	1.428952e-06	1.036510e-08	1.024483e+01	6.747469e+02
2.350000e-06	1.330279e-06	9.997103e-09	9.537393e+00	6.509315e+02
2.360000e-06	1.231167e-06	9.615758e-09	8.826813e+00	6.260364e+02
2.370000e-06	1.131792e-06	9.225232e-09	8.114344e+00	6.000229e+02
2.380000e-06	1.032212e-06	8.819249e-09	7.400412e+00	5.728580e+02
2.390000e-06	9.324597e-07	8.391146e-09	6.685241e+00	5.445190e+02
2.400000e-06	8.324751e-07	7.939256e-09	5.968405e+00	5.149991e+02
2.410000e-06	7.321617e-07	7.468386e-09	5.249211e+00	4.843144e+02
2.420000e-06	6.314758e-07	6.979836e-09	4.527346e+00	4.525099e+02
2.430000e-06	5.303821e-07	6.475282e-09	3.802558e+00	4.196636e+02
2.440000e-06	4.290460e-07	5.960114e-09	3.076032e+00	3.858870e+02
2.450000e-06	3.275991e-07	5.436263e-09	2.348712e+00	3.513218e+02
2.460000e-06	2.259459e-07	4.899424e-09	1.619912e+00	3.161313e+02
2.470000e-06	1.240756e-07	4.351327e-09	8.895560e-01	2.804881e+02
2.480000e-06	2.213534e-08	3.798846e-09	1.586987e-01	2.445580e+02
2.490000e-06	-7.976203e-08	3.245900e-09	-5.718514e-01	2.084841e+02
2.500000e-06	-1.815657e-07	2.694316e-09	-1.301730e+00	1.723716e+02
2.510000e-06	-2.832883e-07	2.144210e-09	-2.031027e+00	1.362765e+02
2.520000e-06	-3.849013e-07	1.594117e-09	-2.759538e+00	1.002003e+02
2.530000e-06	-4.863350e-07	1.042692e-09	-3.486764e+00	6.409103e+01
2.540000e-06	-5.876144e-07	4.877886e-10	-4.212883e+00	2.785176e+01
2.550000e-06	-6.885836e-07	-7.399238e-11	-4.936779e+00	-8.644695e+00
2.560000e-06	-7.891364e-07	-6.406671e-10	-5.657689e+00	-4.553674e+01
2.570000e-06	-8.893387e-07	-1.211743e-09	-6.376086e+00	-8.295245e+01
2.580000e-06	-9.892082e-07	-1.790623e-09	-7.092098e+00	-1.209885e+02
2.590000e-06	-1.088796e-06	-2.381254e-09	-7.806090e+00	-1.596921e+02
2.600000e-06	-1.188109e-06	-2.984555e-09	-8.518112e+00	-1.990476e+02
2.610000e-06	-1.287111e-06	-3.596649e-09	-9.227900e+00	-2.389706e+02
2.620000e-06	-1.385672e-06	-4.215149e-09	-9.934530e+00	-2.793083e+02
2.630000e-06	-1.483649e-06	-4.836343e-09	-1.063698e+01	-3.198479e+02
2.640000e-06	-1.581078e-06	-5.453762e-09	-1.133549e+01	-3.603311e+02
2.650000e-06	-1.677957e-06	-6.064989e-09	-1.203006e+01	-4.004724e+02
2.660000e-06	-1.774288e-06	-6.669004e-09	-1.272071e+01	-4.399802e+02
2.670000e-06	-1.870103e-06	-7.261886e-09	-1.340765e+01	-4.785777e+02
2.680000e-06	-1.965369e-06	-7.839436e-09	-1.409065e+01	-5.160214e+02
2.690000e-06	-2.059884e-06	-8.397039e-09	-1.476827e+01	-5.521148e+02
2.700000e-06	-2.153403e-06	-8.931686e-09	-1.543876e+01	-5.867166e+02
2.710000e-06	-2.245884e-06	-9.439564e-09	-1.610180e+01	-6.197433e+02
2.720000e-06	-2.337531e-06	-9.920062e-09	-1.675886e+01	-6.511646e+02
2.730000e-06	-2.428470e-06	-1.037586e-08	-1.741084e+01	-6.809955e+02
2.740000e-06	-2.518622e-06	-1.080842e-08	-1.805718e+01	-7.092846e+02
2.750000e-06	-2.607873e-06	-1.121889e-08	-1.869706e+01	-7.361011e+02
2.760000e-06	-2.696222e-06	-1.160969e-08	-1.933048e+01	-7.615231e+02
2.770000e-06	-2.783810e-06	-1.198044e-08	-1.995844e+01	-7.856284e+02
2.780000e-06	-2.870511e-06	-1.232965e-08	-2.058004e+01	-8.084882e+02
2.790000e-06	-2.955962e-06	-1.265986e-08	-2.119268e+01	-8.301649e+02
2.800000e-06	-3.040162e-06	-1.297371e-08	-2.179635e+01	-8.507130e+02
2.810000e-06	-3.123394e-06	-1.327186e-08	-2.239308e+01	-8.701816e+02
2.820000e-06	-3.205658e-06	-1.355352e-08	-2.298286e+01	-8.886188e+02
2.830000e-06	-3.286878e-06	-1.382088e-08	-2.356517e+01	-9.060743e+02
2.840000e-06	-3.367033e-06	-1.407468e-08	-2.413984e+01	-9.226023e+02
2.850000e-06	-3.445944e-06	-1.431493e-08	-2.470559e+01	-9.382608e+02
2.860000e-06	-3.523330e-06	-1.454375e-08	-2.526041e+01	-9.531105e+02
2.870000e-06	-3.599170e-06	-1.476340e-08	-2.580413e+01	-9.672114e+02
2.880000e-06	-3.673617e-06	-1.497270e-08	-2.633788e+01	-9.806200e+02
2.890000e-06	-3.746706e-06	-1.516983e-08	-2.686189e+01	-9.933858e+02
2.900000e-06	-3.818571e-06	-1.535566e-08	-2.737713e+01	-1.005550e+03
2.910000e-06	-3.889094e-06	-1.553205e-08	-2.788274e+01	-1.017144e+03
2.920000e-06	-3.957953e-06	-1.570192e-08	-2.837642e+01	-1.028192e+03
2.930000e-06	-4.025359e-06	-1.586462e-08	-2.885968e+01	-1.038712e+03
2.940000e-06	-4.091462e-06	-1.601861e-08	-2.933361e+01	-1.048717e+03
