# Temperatura_=_77.5
# Concentracion g/m^3_=_28200.0
# C_Vs_to_Am_M_A/Vsm_=_65563218390.804596
# pendiente_HvsI_1/m_=_3716.3
# ordenada_HvsI_A/m_=_1297.0
# frecuencia_Hz_=_301763.13580758433

Tiempo_(s)	Campo_(V.s)	Magnetizacion_(V.s)	Campo_(kA/m)	Magnetizacion_(A/m)
0.000000e+00	-5.323013e-06	-2.387536e-08	-3.829346e+01	-1.561879e+03
1.000000e-08	-5.320655e-06	-2.386862e-08	-3.827649e+01	-1.561415e+03
2.000000e-08	-5.316465e-06	-2.385408e-08	-3.824635e+01	-1.560790e+03
3.000000e-08	-5.310655e-06	-2.383926e-08	-3.820456e+01	-1.560000e+03
4.000000e-08	-5.303227e-06	-2.382384e-08	-3.815112e+01	-1.559027e+03
5.000000e-08	-5.294112e-06	-2.380261e-08	-3.808554e+01	-1.557850e+03
6.000000e-08	-5.283013e-06	-2.377724e-08	-3.800570e+01	-1.556443e+03
7.000000e-08	-5.269971e-06	-2.374388e-08	-3.791188e+01	-1.554789e+03
8.000000e-08	-5.254967e-06	-2.371559e-08	-3.780394e+01	-1.552886e+03
9.000000e-08	-5.237713e-06	-2.374609e-08	-3.767981e+01	-1.550745e+03
1.000000e-07	-5.218314e-06	-2.372611e-08	-3.754026e+01	-1.548399e+03
1.100000e-07	-5.197028e-06	-2.363103e-08	-3.738713e+01	-1.545887e+03
1.200000e-07	-5.174001e-06	-2.357888e-08	-3.722147e+01	-1.543254e+03
1.300000e-07	-5.149471e-06	-2.347784e-08	-3.704501e+01	-1.540540e+03
1.400000e-07	-5.123407e-06	-2.340980e-08	-3.685751e+01	-1.537765e+03
1.500000e-07	-5.095670e-06	-2.352596e-08	-3.665797e+01	-1.534929e+03
1.600000e-07	-5.066434e-06	-2.340280e-08	-3.644764e+01	-1.532009e+03
1.700000e-07	-5.035815e-06	-2.329623e-08	-3.622737e+01	-1.528960e+03
1.800000e-07	-5.003366e-06	-2.338857e-08	-3.599394e+01	-1.525725e+03
1.900000e-07	-4.968767e-06	-2.319176e-08	-3.574504e+01	-1.522244e+03
2.000000e-07	-4.932554e-06	-2.312551e-08	-3.548452e+01	-1.518466e+03
2.100000e-07	-4.894781e-06	-2.319375e-08	-3.521278e+01	-1.514355e+03
2.200000e-07	-4.855262e-06	-2.300392e-08	-3.492848e+01	-1.509898e+03
2.300000e-07	-4.813926e-06	-2.291564e-08	-3.463112e+01	-1.505100e+03
2.400000e-07	-4.770594e-06	-2.288296e-08	-3.431939e+01	-1.499981e+03
2.500000e-07	-4.725451e-06	-2.275989e-08	-3.399463e+01	-1.494571e+03
2.600000e-07	-4.678544e-06	-2.273231e-08	-3.365718e+01	-1.488897e+03
2.700000e-07	-4.629758e-06	-2.262366e-08	-3.330622e+01	-1.482978e+03
2.800000e-07	-4.578918e-06	-2.247857e-08	-3.294048e+01	-1.476819e+03
2.900000e-07	-4.526023e-06	-2.237943e-08	-3.255996e+01	-1.470412e+03
3.000000e-07	-4.471400e-06	-2.231253e-08	-3.216700e+01	-1.463739e+03
3.100000e-07	-4.415262e-06	-2.222541e-08	-3.176315e+01	-1.456778e+03
3.200000e-07	-4.357343e-06	-2.208362e-08	-3.134648e+01	-1.449505e+03
3.300000e-07	-4.297626e-06	-2.198039e-08	-3.091688e+01	-1.441908e+03
3.400000e-07	-4.236472e-06	-2.184034e-08	-3.047695e+01	-1.433980e+03
3.500000e-07	-4.173933e-06	-2.168725e-08	-3.002704e+01	-1.425727e+03
3.600000e-07	-4.110058e-06	-2.158210e-08	-2.956753e+01	-1.417159e+03
3.700000e-07	-4.044670e-06	-2.147029e-08	-2.909713e+01	-1.408288e+03
3.800000e-07	-3.977592e-06	-2.133982e-08	-2.861457e+01	-1.399121e+03
3.900000e-07	-3.909041e-06	-2.116401e-08	-2.812143e+01	-1.389656e+03
4.000000e-07	-3.839170e-06	-2.099583e-08	-2.761877e+01	-1.379880e+03
4.100000e-07	-3.768089e-06	-2.086274e-08	-2.710742e+01	-1.369770e+03
4.200000e-07	-3.695875e-06	-2.070761e-08	-2.658792e+01	-1.359297e+03
4.300000e-07	-3.622306e-06	-2.054450e-08	-2.605866e+01	-1.348431e+03
4.400000e-07	-3.547140e-06	-2.036266e-08	-2.551792e+01	-1.337144e+03
4.500000e-07	-3.470492e-06	-2.017439e-08	-2.496652e+01	-1.325416e+03
4.600000e-07	-3.392517e-06	-1.998341e-08	-2.440558e+01	-1.313237e+03
4.700000e-07	-3.313147e-06	-1.979864e-08	-2.383459e+01	-1.300602e+03
4.800000e-07	-3.232365e-06	-1.961116e-08	-2.325345e+01	-1.287511e+03
4.900000e-07	-3.150340e-06	-1.939133e-08	-2.266337e+01	-1.273964e+03
5.000000e-07	-3.067272e-06	-1.917289e-08	-2.206578e+01	-1.259954e+03
5.100000e-07	-2.983335e-06	-1.895007e-08	-2.146194e+01	-1.245466e+03
5.200000e-07	-2.898601e-06	-1.871821e-08	-2.085238e+01	-1.230472e+03
5.300000e-07	-2.812932e-06	-1.848251e-08	-2.023607e+01	-1.214936e+03
5.400000e-07	-2.726249e-06	-1.823893e-08	-1.961248e+01	-1.198818e+03
5.500000e-07	-2.638684e-06	-1.797899e-08	-1.898254e+01	-1.182071e+03
5.600000e-07	-2.550154e-06	-1.770318e-08	-1.834567e+01	-1.164652e+03
5.700000e-07	-2.460457e-06	-1.742798e-08	-1.770039e+01	-1.146525e+03
5.800000e-07	-2.369693e-06	-1.714497e-08	-1.704744e+01	-1.127653e+03
5.900000e-07	-2.278071e-06	-1.684848e-08	-1.638832e+01	-1.108007e+03
6.000000e-07	-2.185661e-06	-1.653264e-08	-1.572352e+01	-1.087555e+03
6.100000e-07	-2.092494e-06	-1.620202e-08	-1.505328e+01	-1.066262e+03
6.200000e-07	-1.998572e-06	-1.586206e-08	-1.437762e+01	-1.044084e+03
6.300000e-07	-1.903880e-06	-1.550992e-08	-1.369641e+01	-1.020969e+03
6.400000e-07	-1.808545e-06	-1.514374e-08	-1.301057e+01	-9.968492e+02
6.500000e-07	-1.712718e-06	-1.475868e-08	-1.232120e+01	-9.716508e+02
6.600000e-07	-1.616283e-06	-1.435273e-08	-1.162745e+01	-9.452911e+02
6.700000e-07	-1.519088e-06	-1.392699e-08	-1.092824e+01	-9.176840e+02
6.800000e-07	-1.421205e-06	-1.348605e-08	-1.022407e+01	-8.887438e+02
6.900000e-07	-1.322747e-06	-1.302687e-08	-9.515767e+00	-8.583881e+02
7.000000e-07	-1.223793e-06	-1.254423e-08	-8.803897e+00	-8.265408e+02
7.100000e-07	-1.124435e-06	-1.203300e-08	-8.089121e+00	-7.931347e+02
7.200000e-07	-1.024758e-06	-1.149216e-08	-7.372055e+00	-7.581138e+02
7.300000e-07	-9.248033e-07	-1.092810e-08	-6.652983e+00	-7.214376e+02
7.400000e-07	-8.246074e-07	-1.034493e-08	-5.932180e+00	-6.830861e+02
7.500000e-07	-7.241809e-07	-9.740953e-09	-5.209717e+00	-6.430658e+02
7.600000e-07	-6.234873e-07	-9.109163e-09	-4.485333e+00	-6.014172e+02
7.700000e-07	-5.225796e-07	-8.450708e-09	-3.759408e+00	-5.582198e+02
7.800000e-07	-4.215391e-07	-7.771121e-09	-3.032529e+00	-5.135959e+02
7.900000e-07	-3.203556e-07	-7.070845e-09	-2.304620e+00	-4.677084e+02
8.000000e-07	-2.190265e-07	-6.353497e-09	-1.575664e+00	-4.207536e+02
8.100000e-07	-1.175902e-07	-5.626230e-09	-8.459373e-01	-3.729477e+02
8.200000e-07	-1.613042e-08	-4.892247e-09	-1.160413e-01	-3.245073e+02
8.300000e-07	8.533499e-08	-4.150564e-09	6.138952e-01	-2.756276e+02
8.400000e-07	1.867997e-07	-3.402273e-09	1.343826e+00	-2.264601e+02
8.500000e-07	2.882092e-07	-2.652247e-09	2.073361e+00	-1.770936e+02
8.600000e-07	3.895606e-07	-1.901700e-09	2.802477e+00	-1.275438e+02
8.700000e-07	4.908241e-07	-1.146205e-09	3.530961e+00	-7.775173e+01
8.800000e-07	5.919648e-07	-3.843918e-10	4.258561e+00	-2.759424e+01
8.900000e-07	6.929862e-07	3.877558e-10	4.985304e+00	2.309430e+01
9.000000e-07	7.937807e-07	1.173953e-09	5.710414e+00	7.449200e+01
9.100000e-07	8.942584e-07	1.972156e-09	6.433245e+00	1.267544e+02
9.200000e-07	9.944302e-07	2.782520e-09	7.153875e+00	1.799799e+02
9.300000e-07	1.094281e-06	3.606170e-09	7.872197e+00	2.341802e+02
9.400000e-07	1.193802e-06	4.443224e-09	8.588147e+00	2.892611e+02
9.500000e-07	1.292915e-06	5.290011e-09	9.301161e+00	3.450156e+02
9.600000e-07	1.391488e-06	6.142064e-09	1.001029e+01	4.011324e+02
9.700000e-07	1.489474e-06	6.994306e-09	1.071519e+01	4.572164e+02
9.800000e-07	1.586780e-06	7.839869e-09	1.141521e+01	5.128200e+02
9.900000e-07	1.683276e-06	8.672286e-09	1.210940e+01	5.674806e+02
1.000000e-06	1.779060e-06	9.484204e-09	1.279846e+01	6.207583e+02
1.010000e-06	1.874256e-06	1.026843e-08	1.348329e+01	6.722692e+02
1.020000e-06	1.968850e-06	1.101737e-08	1.416380e+01	7.217102e+02
1.030000e-06	2.062738e-06	1.172836e-08	1.483922e+01	7.688733e+02
1.040000e-06	2.155938e-06	1.240232e-08	1.550970e+01	8.136467e+02
1.050000e-06	2.248475e-06	1.304243e-08	1.617540e+01	8.560068e+02
1.060000e-06	2.340243e-06	1.364863e-08	1.683558e+01	8.960008e+02
1.070000e-06	2.431221e-06	1.421998e-08	1.749007e+01	9.337260e+02
1.080000e-06	2.521250e-06	1.475940e-08	1.813773e+01	9.693079e+02
1.090000e-06	2.610116e-06	1.527227e-08	1.877703e+01	1.002882e+03
1.100000e-06	2.697965e-06	1.575685e-08	1.940901e+01	1.034578e+03
1.110000e-06	2.784971e-06	1.621186e-08	2.003493e+01	1.064515e+03
1.120000e-06	2.871081e-06	1.663913e-08	2.065440e+01	1.092800e+03
1.130000e-06	2.956272e-06	1.704017e-08	2.126726e+01	1.119527e+03
1.140000e-06	3.040563e-06	1.741994e-08	2.187364e+01	1.144784e+03
1.150000e-06	3.123937e-06	1.778181e-08	2.247343e+01	1.168659e+03
1.160000e-06	3.206236e-06	1.812833e-08	2.306548e+01	1.191239e+03
1.170000e-06	3.287257e-06	1.845843e-08	2.364834e+01	1.212617e+03
1.180000e-06	3.367079e-06	1.876986e-08	2.422257e+01	1.232882e+03
1.190000e-06	3.445710e-06	1.906194e-08	2.478825e+01	1.252121e+03
1.200000e-06	3.523116e-06	1.933610e-08	2.534510e+01	1.270413e+03
1.210000e-06	3.599287e-06	1.959509e-08	2.589307e+01	1.287824e+03
1.220000e-06	3.674070e-06	1.984207e-08	2.643106e+01	1.304405e+03
1.230000e-06	3.747314e-06	2.007894e-08	2.695797e+01	1.320199e+03
1.240000e-06	3.819036e-06	2.030707e-08	2.747393e+01	1.335239e+03
1.250000e-06	3.889387e-06	2.052444e-08	2.798003e+01	1.349552e+03
1.260000e-06	3.958375e-06	2.073014e-08	2.847633e+01	1.363169e+03
1.270000e-06	4.026040e-06	2.092371e-08	2.896311e+01	1.376124e+03
1.280000e-06	4.092275e-06	2.110755e-08	2.943960e+01	1.388457e+03
1.290000e-06	4.156858e-06	2.128589e-08	2.990421e+01	1.400211e+03
1.300000e-06	4.219905e-06	2.145756e-08	3.035776e+01	1.411429e+03
1.310000e-06	4.281583e-06	2.162131e-08	3.080147e+01	1.422148e+03
1.320000e-06	4.341913e-06	2.177672e-08	3.123548e+01	1.432395e+03
1.330000e-06	4.400729e-06	2.192453e-08	3.165860e+01	1.442184e+03
1.340000e-06	4.457745e-06	2.206709e-08	3.206877e+01	1.451518e+03
1.350000e-06	4.513056e-06	2.220327e-08	3.246668e+01	1.460389e+03
1.360000e-06	4.566785e-06	2.233141e-08	3.285319e+01	1.468787e+03
1.370000e-06	4.618717e-06	2.245156e-08	3.322679e+01	1.476704e+03
1.380000e-06	4.668628e-06	2.256422e-08	3.358585e+01	1.484143e+03
1.390000e-06	4.716624e-06	2.267039e-08	3.393113e+01	1.491120e+03
1.400000e-06	4.762989e-06	2.276976e-08	3.426468e+01	1.497664e+03
1.410000e-06	4.807836e-06	2.286417e-08	3.458730e+01	1.503818e+03
1.420000e-06	4.851068e-06	2.295404e-08	3.489831e+01	1.509628e+03
1.430000e-06	4.892440e-06	2.303761e-08	3.519594e+01	1.515138e+03
1.440000e-06	4.932028e-06	2.311591e-08	3.548073e+01	1.520385e+03
1.450000e-06	4.970051e-06	2.319073e-08	3.575427e+01	1.525387e+03
1.460000e-06	5.006490e-06	2.326264e-08	3.601641e+01	1.530149e+03
1.470000e-06	5.041183e-06	2.333117e-08	3.626599e+01	1.534659e+03
1.480000e-06	5.073971e-06	2.339620e-08	3.650186e+01	1.538896e+03
1.490000e-06	5.104980e-06	2.345693e-08	3.672494e+01	1.542835e+03
1.500000e-06	5.134325e-06	2.351260e-08	3.693605e+01	1.546458e+03
1.510000e-06	5.161944e-06	2.356267e-08	3.713473e+01	1.549754e+03
1.520000e-06	5.187580e-06	2.360759e-08	3.731916e+01	1.552727e+03
1.530000e-06	5.211197e-06	2.364719e-08	3.748906e+01	1.555390e+03
1.540000e-06	5.233015e-06	2.368275e-08	3.764602e+01	1.557765e+03
1.550000e-06	5.253139e-06	2.371449e-08	3.779079e+01	1.559879e+03
1.560000e-06	5.271456e-06	2.374244e-08	3.792256e+01	1.561751e+03
1.570000e-06	5.287773e-06	2.376784e-08	3.803995e+01	1.563396e+03
1.580000e-06	5.302085e-06	2.378981e-08	3.814291e+01	1.564818e+03
1.590000e-06	5.314371e-06	2.380839e-08	3.823129e+01	1.566013e+03
1.600000e-06	5.324490e-06	2.382294e-08	3.830408e+01	1.566974e+03
1.610000e-06	5.332510e-06	2.383316e-08	3.836178e+01	1.567695e+03
1.620000e-06	5.338642e-06	2.384038e-08	3.840589e+01	1.568174e+03
1.630000e-06	5.343016e-06	2.384523e-08	3.843736e+01	1.568420e+03
1.640000e-06	5.345591e-06	2.384739e-08	3.845588e+01	1.568446e+03
1.650000e-06	5.346163e-06	2.384829e-08	3.846000e+01	1.568273e+03
1.660000e-06	5.344877e-06	2.384347e-08	3.845075e+01	1.567921e+03
1.670000e-06	5.341975e-06	2.383515e-08	3.842987e+01	1.567404e+03
1.680000e-06	5.337343e-06	2.382896e-08	3.839655e+01	1.566726e+03
1.690000e-06	5.330787e-06	2.381778e-08	3.834938e+01	1.565878e+03
1.700000e-06	5.322491e-06	2.380137e-08	3.828970e+01	1.564841e+03
1.710000e-06	5.312647e-06	2.378389e-08	3.821888e+01	1.563590e+03
1.720000e-06	5.301086e-06	2.377199e-08	3.813572e+01	1.562104e+03
1.730000e-06	5.287592e-06	2.376159e-08	3.803864e+01	1.560368e+03
1.740000e-06	5.272112e-06	2.366223e-08	3.792728e+01	1.558385e+03
1.750000e-06	5.254447e-06	2.359747e-08	3.780020e+01	1.556173e+03
1.760000e-06	5.234185e-06	2.361670e-08	3.765443e+01	1.553767e+03
1.770000e-06	5.211495e-06	2.359747e-08	3.749120e+01	1.551210e+03
1.780000e-06	5.187201e-06	2.365596e-08	3.731644e+01	1.548547e+03
1.790000e-06	5.162066e-06	2.356078e-08	3.713561e+01	1.545810e+03
1.800000e-06	5.135944e-06	2.336717e-08	3.694769e+01	1.543015e+03
1.810000e-06	5.107899e-06	2.349120e-08	3.674594e+01	1.540155e+03
1.820000e-06	5.077738e-06	2.340777e-08	3.652897e+01	1.537198e+03
1.830000e-06	5.045872e-06	2.328242e-08	3.629972e+01	1.534094e+03
1.840000e-06	5.012191e-06	2.346039e-08	3.605742e+01	1.530785e+03
1.850000e-06	4.976898e-06	2.328314e-08	3.580353e+01	1.527212e+03
1.860000e-06	4.939997e-06	2.315133e-08	3.553806e+01	1.523328e+03
1.870000e-06	4.901060e-06	2.324887e-08	3.525795e+01	1.519106e+03
1.880000e-06	4.860410e-06	2.307883e-08	3.496552e+01	1.514536e+03
1.890000e-06	4.818083e-06	2.307101e-08	3.466102e+01	1.509630e+03
1.900000e-06	4.774015e-06	2.299239e-08	3.434400e+01	1.504414e+03
1.910000e-06	4.728225e-06	2.278498e-08	3.401458e+01	1.498915e+03
1.920000e-06	4.680489e-06	2.286650e-08	3.367117e+01	1.493159e+03
1.930000e-06	4.631090e-06	2.275255e-08	3.331580e+01	1.487161e+03
1.940000e-06	4.579977e-06	2.262079e-08	3.294810e+01	1.480922e+03
1.950000e-06	4.526769e-06	2.252824e-08	3.256532e+01	1.474431e+03
1.960000e-06	4.471673e-06	2.239384e-08	3.216897e+01	1.467667e+03
1.970000e-06	4.414885e-06	2.235190e-08	3.176044e+01	1.460606e+03
1.980000e-06	4.356533e-06	2.214793e-08	3.134066e+01	1.453229e+03
1.990000e-06	4.296801e-06	2.209068e-08	3.091095e+01	1.445524e+03
2.000000e-06	4.235525e-06	2.203984e-08	3.047013e+01	1.437490e+03
2.010000e-06	4.172538e-06	2.181872e-08	3.001700e+01	1.429133e+03
2.020000e-06	4.107948e-06	2.169668e-08	2.955235e+01	1.420465e+03
2.030000e-06	4.041959e-06	2.153273e-08	2.907763e+01	1.411497e+03
2.040000e-06	3.974683e-06	2.145486e-08	2.859365e+01	1.402233e+03
2.050000e-06	3.905986e-06	2.131787e-08	2.809945e+01	1.392669e+03
2.060000e-06	3.835690e-06	2.112093e-08	2.759374e+01	1.382787e+03
2.070000e-06	3.763969e-06	2.100094e-08	2.707778e+01	1.372563e+03
2.080000e-06	3.691016e-06	2.080143e-08	2.655296e+01	1.361965e+03
2.090000e-06	3.616768e-06	2.065270e-08	2.601883e+01	1.350965e+03
2.100000e-06	3.541146e-06	2.048295e-08	2.547481e+01	1.339537e+03
2.110000e-06	3.463999e-06	2.030824e-08	2.491982e+01	1.327663e+03
2.120000e-06	3.385323e-06	2.012328e-08	2.435383e+01	1.315336e+03
2.130000e-06	3.305437e-06	1.990644e-08	2.377913e+01	1.302553e+03
2.140000e-06	3.224459e-06	1.972579e-08	2.319658e+01	1.289315e+03
2.150000e-06	3.142401e-06	1.950600e-08	2.260626e+01	1.275619e+03
2.160000e-06	3.059370e-06	1.930849e-08	2.200893e+01	1.261456e+03
2.170000e-06	2.975391e-06	1.909282e-08	2.140480e+01	1.246807e+03
2.180000e-06	2.890225e-06	1.885145e-08	2.079212e+01	1.231642e+03
2.190000e-06	2.803756e-06	1.860516e-08	2.017006e+01	1.215922e+03
2.200000e-06	2.716217e-06	1.835506e-08	1.954032e+01	1.199605e+03
2.210000e-06	2.627760e-06	1.811239e-08	1.890396e+01	1.182645e+03
2.220000e-06	2.538373e-06	1.783912e-08	1.826092e+01	1.165002e+03
2.230000e-06	2.448032e-06	1.755950e-08	1.761100e+01	1.146637e+03
2.240000e-06	2.356966e-06	1.726662e-08	1.695588e+01	1.127518e+03
2.250000e-06	2.265338e-06	1.697118e-08	1.629671e+01	1.107615e+03
2.260000e-06	2.172860e-06	1.665851e-08	1.563144e+01	1.086896e+03
2.270000e-06	2.079327e-06	1.632655e-08	1.495856e+01	1.065322e+03
2.280000e-06	1.984822e-06	1.598461e-08	1.427870e+01	1.042848e+03
2.290000e-06	1.889541e-06	1.562503e-08	1.359325e+01	1.019416e+03
2.300000e-06	1.793700e-06	1.525205e-08	1.290378e+01	9.949573e+02
2.310000e-06	1.697307e-06	1.486221e-08	1.221033e+01	9.693935e+02
2.320000e-06	1.600361e-06	1.446078e-08	1.151291e+01	9.426410e+02
2.330000e-06	1.502912e-06	1.403749e-08	1.081187e+01	9.146133e+02
2.340000e-06	1.404966e-06	1.358763e-08	1.010725e+01	8.852254e+02
2.350000e-06	1.306569e-06	1.311348e-08	9.399385e+00	8.543969e+02
2.360000e-06	1.207798e-06	1.262382e-08	8.688829e+00	8.220540e+02
2.370000e-06	1.108753e-06	1.211268e-08	7.976304e+00	7.881329e+02
2.380000e-06	1.009465e-06	1.157109e-08	7.262036e+00	7.525821e+02
2.390000e-06	9.099071e-07	1.100103e-08	6.545821e+00	7.153671e+02
2.400000e-06	8.101056e-07	1.040429e-08	5.827854e+00	6.764756e+02
2.410000e-06	7.100433e-07	9.784357e-09	5.108012e+00	6.359244e+02
2.420000e-06	6.096493e-07	9.139287e-09	4.385783e+00	5.937659e+02
2.430000e-06	5.089668e-07	8.472681e-09	3.661479e+00	5.500933e+02
2.440000e-06	4.080901e-07	7.786367e-09	2.935778e+00	5.050423e+02
2.450000e-06	3.070178e-07	7.080093e-09	2.208669e+00	4.587876e+02
2.460000e-06	2.057073e-07	6.354935e-09	1.479847e+00	4.115339e+02
2.470000e-06	1.042033e-07	5.619274e-09	7.496328e-01	3.634996e+02
2.480000e-06	2.725252e-09	4.879703e-09	1.960531e-02	3.148970e+02
2.490000e-06	-9.865081e-08	4.132578e-09	-7.096884e-01	2.659096e+02
2.500000e-06	-1.999939e-07	3.377622e-09	-1.438745e+00	2.166704e+02
2.510000e-06	-3.013160e-07	2.618152e-09	-2.167650e+00	1.672457e+02
2.520000e-06	-4.025866e-07	1.856086e-09	-2.896185e+00	1.176264e+02
2.530000e-06	-5.036729e-07	1.091999e-09	-3.623395e+00	6.773153e+01
2.540000e-06	-6.045315e-07	3.249162e-10	-4.348966e+00	1.742131e+01
2.550000e-06	-7.051184e-07	-4.513856e-10	-5.072582e+00	-3.347748e+01
2.560000e-06	-8.053827e-07	-1.240396e-09	-5.793879e+00	-8.513960e+01
2.570000e-06	-9.052787e-07	-2.041931e-09	-6.512525e+00	-1.377059e+02
2.580000e-06	-1.004766e-06	-2.857674e-09	-7.228233e+00	-1.912496e+02
2.590000e-06	-1.103954e-06	-3.689751e-09	-7.941780e+00	-2.457500e+02
2.600000e-06	-1.202884e-06	-4.536817e-09	-8.653484e+00	-3.010766e+02
2.610000e-06	-1.301493e-06	-5.392514e-09	-9.362867e+00	-3.569875e+02
2.620000e-06	-1.399675e-06	-6.252775e-09	-1.006918e+01	-4.131414e+02
2.630000e-06	-1.497295e-06	-7.112425e-09	-1.077146e+01	-4.691227e+02
2.640000e-06	-1.594357e-06	-7.960582e-09	-1.146972e+01	-5.244747e+02
2.650000e-06	-1.690872e-06	-8.790700e-09	-1.216404e+01	-5.787381e+02
2.660000e-06	-1.786827e-06	-9.598160e-09	-1.285433e+01	-6.314876e+02
2.670000e-06	-1.882245e-06	-1.037939e-08	-1.354077e+01	-6.823632e+02
2.680000e-06	-1.977056e-06	-1.112834e-08	-1.422283e+01	-7.310914e+02
2.690000e-06	-2.071079e-06	-1.184008e-08	-1.489922e+01	-7.774954e+02
2.700000e-06	-2.164136e-06	-1.251556e-08	-1.556868e+01	-8.214932e+02
2.710000e-06	-2.256198e-06	-1.315347e-08	-1.623096e+01	-8.630861e+02
2.720000e-06	-2.347443e-06	-1.375686e-08	-1.688737e+01	-9.023399e+02
2.730000e-06	-2.437995e-06	-1.432766e-08	-1.753880e+01	-9.393631e+02
2.740000e-06	-2.527672e-06	-1.486620e-08	-1.818393e+01	-9.742861e+02
2.750000e-06	-2.616365e-06	-1.537230e-08	-1.882198e+01	-1.007244e+03
2.760000e-06	-2.704184e-06	-1.584822e-08	-1.945375e+01	-1.038364e+03
2.770000e-06	-2.791214e-06	-1.629884e-08	-2.007984e+01	-1.067761e+03
2.780000e-06	-2.877296e-06	-1.672419e-08	-2.069911e+01	-1.095536e+03
2.790000e-06	-2.962169e-06	-1.712565e-08	-2.130968e+01	-1.121782e+03
2.800000e-06	-3.045866e-06	-1.750568e-08	-2.191179e+01	-1.146587e+03
2.810000e-06	-3.128555e-06	-1.786304e-08	-2.250665e+01	-1.170037e+03
2.820000e-06	-3.210262e-06	-1.819884e-08	-2.309445e+01	-1.192222e+03
2.830000e-06	-3.290946e-06	-1.851916e-08	-2.367488e+01	-1.213234e+03
2.840000e-06	-3.370580e-06	-1.882665e-08	-2.424777e+01	-1.233162e+03
2.850000e-06	-3.449032e-06	-1.912189e-08	-2.481215e+01	-1.252090e+03
2.860000e-06	-3.525946e-06	-1.940186e-08	-2.536546e+01	-1.270093e+03
2.870000e-06	-3.601298e-06	-1.966621e-08	-2.590754e+01	-1.287233e+03
2.880000e-06	-3.675314e-06	-1.991602e-08	-2.644000e+01	-1.303559e+03
2.890000e-06	-3.747985e-06	-2.015324e-08	-2.696280e+01	-1.319109e+03
2.900000e-06	-3.819330e-06	-2.038107e-08	-2.747605e+01	-1.333913e+03
2.910000e-06	-3.889293e-06	-2.059995e-08	-2.797936e+01	-1.348000e+03
2.920000e-06	-3.957685e-06	-2.080949e-08	-2.847136e+01	-1.361402e+03
2.930000e-06	-4.024604e-06	-2.100746e-08	-2.895278e+01	-1.374154e+03
2.940000e-06	-4.090161e-06	-2.119433e-08	-2.942439e+01	-1.386298e+03
