# Temperatura_=_55.65
# Concentracion g/m^3_=_28200.0
# C_Vs_to_Am_M_A/Vsm_=_65563218390.804596
# pendiente_HvsI_1/m_=_3716.3
# ordenada_HvsI_A/m_=_1297.0
# frecuencia_Hz_=_301767.8980196449

Tiempo_(s)	Campo_(V.s)	Magnetizacion_(V.s)	Campo_(kA/m)	Magnetizacion_(A/m)
0.000000e+00	-5.313369e-06	-2.084881e-08	-3.829410e+01	-1.364307e+03
1.000000e-08	-5.311082e-06	-2.084399e-08	-3.827762e+01	-1.363922e+03
2.000000e-08	-5.306952e-06	-2.083245e-08	-3.824786e+01	-1.363396e+03
3.000000e-08	-5.301238e-06	-2.082044e-08	-3.820668e+01	-1.362722e+03
4.000000e-08	-5.293955e-06	-2.080870e-08	-3.815419e+01	-1.361888e+03
5.000000e-08	-5.284960e-06	-2.079127e-08	-3.808936e+01	-1.360876e+03
6.000000e-08	-5.273950e-06	-2.076845e-08	-3.801001e+01	-1.359670e+03
7.000000e-08	-5.261013e-06	-2.073518e-08	-3.791677e+01	-1.358261e+03
8.000000e-08	-5.246121e-06	-2.070945e-08	-3.780944e+01	-1.356649e+03
9.000000e-08	-5.229023e-06	-2.074582e-08	-3.768621e+01	-1.354845e+03
1.000000e-07	-5.209853e-06	-2.073406e-08	-3.754805e+01	-1.352872e+03
1.100000e-07	-5.188796e-06	-2.065062e-08	-3.739629e+01	-1.350759e+03
1.200000e-07	-5.165955e-06	-2.060850e-08	-3.723168e+01	-1.348533e+03
1.300000e-07	-5.141582e-06	-2.050390e-08	-3.705601e+01	-1.346218e+03
1.400000e-07	-5.115643e-06	-2.044698e-08	-3.686907e+01	-1.343825e+03
1.500000e-07	-5.088036e-06	-2.057239e-08	-3.667010e+01	-1.341349e+03
1.600000e-07	-5.058901e-06	-2.043639e-08	-3.646012e+01	-1.338774e+03
1.700000e-07	-5.028342e-06	-2.034942e-08	-3.623988e+01	-1.336069e+03
1.800000e-07	-4.995974e-06	-2.045091e-08	-3.600660e+01	-1.333199e+03
1.900000e-07	-4.961520e-06	-2.026585e-08	-3.575828e+01	-1.330128e+03
2.000000e-07	-4.925507e-06	-2.022776e-08	-3.549873e+01	-1.326827e+03
2.100000e-07	-4.887938e-06	-2.028644e-08	-3.522797e+01	-1.323274e+03
2.200000e-07	-4.848569e-06	-2.011103e-08	-3.494423e+01	-1.319463e+03
2.300000e-07	-4.807407e-06	-2.004323e-08	-3.464758e+01	-1.315395e+03
2.400000e-07	-4.764268e-06	-1.999978e-08	-3.433666e+01	-1.311079e+03
2.500000e-07	-4.719307e-06	-1.990620e-08	-3.401263e+01	-1.306526e+03
2.600000e-07	-4.672572e-06	-1.991501e-08	-3.367580e+01	-1.301746e+03
2.700000e-07	-4.623871e-06	-1.979715e-08	-3.332481e+01	-1.296742e+03
2.800000e-07	-4.573117e-06	-1.965071e-08	-3.295902e+01	-1.291513e+03
2.900000e-07	-4.520418e-06	-1.957250e-08	-3.257921e+01	-1.286049e+03
3.000000e-07	-4.466031e-06	-1.951671e-08	-3.218723e+01	-1.280338e+03
3.100000e-07	-4.410038e-06	-1.945782e-08	-3.178368e+01	-1.274367e+03
3.200000e-07	-4.352287e-06	-1.935212e-08	-3.136747e+01	-1.268125e+03
3.300000e-07	-4.292827e-06	-1.925024e-08	-3.093893e+01	-1.261607e+03
3.400000e-07	-4.231863e-06	-1.911739e-08	-3.049955e+01	-1.254812e+03
3.500000e-07	-4.169431e-06	-1.898644e-08	-3.004960e+01	-1.247744e+03
3.600000e-07	-4.105634e-06	-1.888989e-08	-2.958981e+01	-1.240408e+03
3.700000e-07	-4.040386e-06	-1.880625e-08	-2.911956e+01	-1.232808e+03
3.800000e-07	-3.973502e-06	-1.871233e-08	-2.863752e+01	-1.224944e+03
3.900000e-07	-3.905166e-06	-1.854581e-08	-2.814501e+01	-1.216810e+03
4.000000e-07	-3.835559e-06	-1.838725e-08	-2.764334e+01	-1.208395e+03
4.100000e-07	-3.764705e-06	-1.827738e-08	-2.713269e+01	-1.199683e+03
4.200000e-07	-3.692645e-06	-1.814734e-08	-2.661335e+01	-1.190652e+03
4.300000e-07	-3.619152e-06	-1.800881e-08	-2.608367e+01	-1.181283e+03
4.400000e-07	-3.544097e-06	-1.785506e-08	-2.554274e+01	-1.171557e+03
4.500000e-07	-3.467579e-06	-1.768731e-08	-2.499126e+01	-1.161459e+03
4.600000e-07	-3.389672e-06	-1.751689e-08	-2.442978e+01	-1.150975e+03
4.700000e-07	-3.310431e-06	-1.736301e-08	-2.385869e+01	-1.140096e+03
4.800000e-07	-3.229911e-06	-1.720934e-08	-2.327837e+01	-1.128810e+03
4.900000e-07	-3.148182e-06	-1.702161e-08	-2.268934e+01	-1.117108e+03
5.000000e-07	-3.065377e-06	-1.682988e-08	-2.209255e+01	-1.104973e+03
5.100000e-07	-2.981688e-06	-1.663349e-08	-2.148939e+01	-1.092386e+03
5.200000e-07	-2.897136e-06	-1.642913e-08	-2.088002e+01	-1.079325e+03
5.300000e-07	-2.811604e-06	-1.622047e-08	-2.026358e+01	-1.065762e+03
5.400000e-07	-2.725062e-06	-1.600681e-08	-1.963985e+01	-1.051667e+03
5.500000e-07	-2.637703e-06	-1.578156e-08	-1.901025e+01	-1.037009e+03
5.600000e-07	-2.549505e-06	-1.553849e-08	-1.837460e+01	-1.021756e+03
5.700000e-07	-2.460136e-06	-1.529694e-08	-1.773050e+01	-1.005878e+03
5.800000e-07	-2.369583e-06	-1.505143e-08	-1.707788e+01	-9.893417e+02
5.900000e-07	-2.278138e-06	-1.479170e-08	-1.641882e+01	-9.721155e+02
6.000000e-07	-2.185973e-06	-1.451229e-08	-1.575458e+01	-9.541637e+02
6.100000e-07	-2.093031e-06	-1.421937e-08	-1.508473e+01	-9.354477e+02
6.200000e-07	-1.999289e-06	-1.391964e-08	-1.440912e+01	-9.159244e+02
6.300000e-07	-1.904828e-06	-1.361057e-08	-1.372833e+01	-8.955462e+02
6.400000e-07	-1.809734e-06	-1.328954e-08	-1.304297e+01	-8.742610e+02
6.500000e-07	-1.714113e-06	-1.294798e-08	-1.235382e+01	-8.520126e+02
6.600000e-07	-1.617900e-06	-1.258546e-08	-1.166041e+01	-8.287413e+02
6.700000e-07	-1.520988e-06	-1.220711e-08	-1.096195e+01	-8.043847e+02
6.800000e-07	-1.423383e-06	-1.181801e-08	-1.025850e+01	-7.788785e+02
6.900000e-07	-1.325102e-06	-1.141566e-08	-9.550172e+00	-7.521577e+02
7.000000e-07	-1.226276e-06	-1.099487e-08	-8.837920e+00	-7.241584e+02
7.100000e-07	-1.127057e-06	-1.054771e-08	-8.122836e+00	-6.948211e+02
7.200000e-07	-1.027516e-06	-1.007058e-08	-7.405437e+00	-6.640948e+02
7.300000e-07	-9.277762e-07	-9.570434e-09	-6.686597e+00	-6.319433e+02
7.400000e-07	-8.278067e-07	-9.055728e-09	-5.966105e+00	-5.983512e+02
7.500000e-07	-7.275821e-07	-8.527801e-09	-5.243774e+00	-5.633313e+02
7.600000e-07	-6.271189e-07	-7.977525e-09	-4.519723e+00	-5.269307e+02
7.700000e-07	-5.263990e-07	-7.406270e-09	-3.793822e+00	-4.892341e+02
7.800000e-07	-4.255375e-07	-6.818053e-09	-3.066901e+00	-4.503644e+02
7.900000e-07	-3.246026e-07	-6.212053e-09	-2.339451e+00	-4.104783e+02
8.000000e-07	-2.235792e-07	-5.589013e-09	-1.611363e+00	-3.697578e+02
8.100000e-07	-1.224318e-07	-4.956159e-09	-8.823807e-01	-3.283966e+02
8.200000e-07	-2.117748e-08	-4.319343e-09	-1.526287e-01	-2.865836e+02
8.300000e-07	8.012418e-08	-3.676270e-09	5.774648e-01	-2.444856e+02
8.400000e-07	1.814127e-07	-3.031204e-09	1.307464e+00	-2.022304e+02
8.500000e-07	2.826619e-07	-2.388629e-09	2.037179e+00	-1.598930e+02
8.600000e-07	3.838638e-07	-1.747192e-09	2.766554e+00	-1.174887e+02
8.700000e-07	4.849930e-07	-1.101751e-09	3.495404e+00	-7.497218e+01
8.800000e-07	5.859825e-07	-4.525939e-10	4.223248e+00	-3.224551e+01
8.900000e-07	6.867135e-07	1.999200e-10	4.949229e+00	1.082675e+01
9.000000e-07	7.872258e-07	8.611264e-10	5.673633e+00	5.439586e+01
9.100000e-07	8.875281e-07	1.535109e-09	6.396524e+00	9.860364e+01
9.200000e-07	9.875715e-07	2.220895e-09	7.117550e+00	1.435564e+02
9.300000e-07	1.087344e-06	2.918860e-09	7.836620e+00	1.893019e+02
9.400000e-07	1.186836e-06	3.629720e-09	8.553671e+00	2.358113e+02
9.500000e-07	1.285973e-06	4.347820e-09	9.268164e+00	2.829704e+02
9.600000e-07	1.384547e-06	5.068650e-09	9.978600e+00	3.305803e+02
9.700000e-07	1.482367e-06	5.791917e-09	1.068360e+01	3.783670e+02
9.800000e-07	1.579359e-06	6.516039e-09	1.138263e+01	4.260008e+02
9.900000e-07	1.675586e-06	7.234759e-09	1.207615e+01	4.731213e+02
1.000000e-06	1.771169e-06	7.940421e-09	1.276503e+01	5.193651e+02
1.010000e-06	1.866164e-06	8.626178e-09	1.344967e+01	5.643932e+02
1.020000e-06	1.960493e-06	9.287735e-09	1.412951e+01	6.079146e+02
1.030000e-06	2.054140e-06	9.922455e-09	1.480444e+01	6.497026e+02
1.040000e-06	2.147116e-06	1.052629e-08	1.547453e+01	6.896040e+02
1.050000e-06	2.239450e-06	1.109883e-08	1.613999e+01	7.275383e+02
1.060000e-06	2.331197e-06	1.164098e-08	1.680122e+01	7.634912e+02
1.070000e-06	2.422213e-06	1.215418e-08	1.745719e+01	7.975014e+02
1.080000e-06	2.512138e-06	1.264132e-08	1.810529e+01	8.296449e+02
1.090000e-06	2.600827e-06	1.310385e-08	1.874448e+01	8.600193e+02
1.100000e-06	2.688561e-06	1.354148e-08	1.937679e+01	8.887303e+02
1.110000e-06	2.775450e-06	1.395496e-08	2.000301e+01	9.158810e+02
1.120000e-06	2.861416e-06	1.434642e-08	2.062258e+01	9.415668e+02
1.130000e-06	2.946443e-06	1.471514e-08	2.123538e+01	9.658731e+02
1.140000e-06	3.030602e-06	1.506381e-08	2.184192e+01	9.888768e+02
1.150000e-06	3.113947e-06	1.539359e-08	2.244260e+01	1.010649e+03
1.160000e-06	3.196208e-06	1.570560e-08	2.303546e+01	1.031257e+03
1.170000e-06	3.277195e-06	1.600215e-08	2.361914e+01	1.050769e+03
1.180000e-06	3.356970e-06	1.628264e-08	2.419409e+01	1.069251e+03
1.190000e-06	3.435565e-06	1.654764e-08	2.476054e+01	1.086771e+03
1.200000e-06	3.512980e-06	1.679824e-08	2.531848e+01	1.103391e+03
1.210000e-06	3.589174e-06	1.703694e-08	2.586762e+01	1.119173e+03
1.220000e-06	3.663985e-06	1.726588e-08	2.640679e+01	1.134169e+03
1.230000e-06	3.737187e-06	1.748415e-08	2.693437e+01	1.148429e+03
1.240000e-06	3.808861e-06	1.769074e-08	2.745093e+01	1.161995e+03
1.250000e-06	3.879169e-06	1.788491e-08	2.795765e+01	1.174906e+03
1.260000e-06	3.948121e-06	1.806605e-08	2.845460e+01	1.187198e+03
1.270000e-06	4.015821e-06	1.823761e-08	2.894251e+01	1.198905e+03
1.280000e-06	4.082022e-06	1.840390e-08	2.941963e+01	1.210060e+03
1.290000e-06	4.146505e-06	1.856663e-08	2.988437e+01	1.220692e+03
1.300000e-06	4.209474e-06	1.872541e-08	3.033820e+01	1.230827e+03
1.310000e-06	4.271048e-06	1.887715e-08	3.078197e+01	1.240486e+03
1.320000e-06	4.331316e-06	1.901983e-08	3.121633e+01	1.249682e+03
1.330000e-06	4.390131e-06	1.915370e-08	3.164021e+01	1.258424e+03
1.340000e-06	4.447171e-06	1.927946e-08	3.205131e+01	1.266714e+03
1.350000e-06	4.502490e-06	1.939784e-08	3.245000e+01	1.274555e+03
1.360000e-06	4.556217e-06	1.950719e-08	3.283722e+01	1.281950e+03
1.370000e-06	4.608210e-06	1.960877e-08	3.321194e+01	1.288910e+03
1.380000e-06	4.658176e-06	1.970653e-08	3.357205e+01	1.295452e+03
1.390000e-06	4.706223e-06	1.980099e-08	3.391833e+01	1.301604e+03
1.400000e-06	4.752653e-06	1.989086e-08	3.425295e+01	1.307400e+03
1.410000e-06	4.797524e-06	1.997682e-08	3.457634e+01	1.312878e+03
1.420000e-06	4.840839e-06	2.005788e-08	3.488852e+01	1.318073e+03
1.430000e-06	4.882255e-06	2.013246e-08	3.518701e+01	1.323015e+03
1.440000e-06	4.921807e-06	2.020141e-08	3.547207e+01	1.327722e+03
1.450000e-06	4.959794e-06	2.026659e-08	3.574584e+01	1.332200e+03
1.460000e-06	4.996237e-06	2.032966e-08	3.600849e+01	1.336445e+03
1.470000e-06	5.030983e-06	2.039037e-08	3.625891e+01	1.340442e+03
1.480000e-06	5.063733e-06	2.044701e-08	3.649495e+01	1.344173e+03
1.490000e-06	5.094654e-06	2.049900e-08	3.671780e+01	1.347624e+03
1.500000e-06	5.123981e-06	2.054899e-08	3.692916e+01	1.350784e+03
1.510000e-06	5.151616e-06	2.059610e-08	3.712833e+01	1.353655e+03
1.520000e-06	5.177256e-06	2.063650e-08	3.731312e+01	1.356245e+03
1.530000e-06	5.200868e-06	2.066976e-08	3.748329e+01	1.358571e+03
1.540000e-06	5.222665e-06	2.069845e-08	3.764039e+01	1.360654e+03
1.550000e-06	5.242791e-06	2.072580e-08	3.778544e+01	1.362512e+03
1.560000e-06	5.261140e-06	2.075144e-08	3.791768e+01	1.364161e+03
1.570000e-06	5.277490e-06	2.077369e-08	3.803552e+01	1.365607e+03
1.580000e-06	5.291849e-06	2.079229e-08	3.813900e+01	1.366853e+03
1.590000e-06	5.304204e-06	2.080770e-08	3.822805e+01	1.367895e+03
1.600000e-06	5.314406e-06	2.082043e-08	3.830158e+01	1.368728e+03
1.610000e-06	5.322483e-06	2.082989e-08	3.835979e+01	1.369349e+03
1.620000e-06	5.328654e-06	2.083743e-08	3.840426e+01	1.369763e+03
1.630000e-06	5.333130e-06	2.084264e-08	3.843652e+01	1.369978e+03
1.640000e-06	5.335769e-06	2.084478e-08	3.845554e+01	1.370009e+03
1.650000e-06	5.336387e-06	2.084581e-08	3.846000e+01	1.369873e+03
1.660000e-06	5.335152e-06	2.084109e-08	3.845110e+01	1.369585e+03
1.670000e-06	5.332266e-06	2.083392e-08	3.843029e+01	1.369154e+03
1.680000e-06	5.327794e-06	2.082835e-08	3.839807e+01	1.368580e+03
1.690000e-06	5.321477e-06	2.081799e-08	3.835254e+01	1.367855e+03
1.700000e-06	5.313314e-06	2.080225e-08	3.829370e+01	1.366965e+03
1.710000e-06	5.303557e-06	2.078599e-08	3.822339e+01	1.365891e+03
1.720000e-06	5.292110e-06	2.077922e-08	3.814089e+01	1.364619e+03
1.730000e-06	5.278732e-06	2.077612e-08	3.804447e+01	1.363143e+03
1.740000e-06	5.263417e-06	2.068191e-08	3.793409e+01	1.361467e+03
1.750000e-06	5.245967e-06	2.062449e-08	3.780833e+01	1.359605e+03
1.760000e-06	5.225885e-06	2.064238e-08	3.766360e+01	1.357582e+03
1.770000e-06	5.203297e-06	2.062305e-08	3.750080e+01	1.355429e+03
1.780000e-06	5.179084e-06	2.069360e-08	3.732630e+01	1.353171e+03
1.790000e-06	5.154077e-06	2.058943e-08	3.714607e+01	1.350829e+03
1.800000e-06	5.128045e-06	2.041840e-08	3.695845e+01	1.348409e+03
1.810000e-06	5.100021e-06	2.055760e-08	3.675648e+01	1.345903e+03
1.820000e-06	5.070026e-06	2.044554e-08	3.654030e+01	1.343289e+03
1.830000e-06	5.038414e-06	2.032732e-08	3.631247e+01	1.340534e+03
1.840000e-06	5.004861e-06	2.050489e-08	3.607065e+01	1.337602e+03
1.850000e-06	4.969604e-06	2.032136e-08	3.581655e+01	1.334459e+03
1.860000e-06	4.932745e-06	2.020609e-08	3.555090e+01	1.331077e+03
1.870000e-06	4.893931e-06	2.028878e-08	3.527116e+01	1.327441e+03
1.880000e-06	4.853417e-06	2.014358e-08	3.497917e+01	1.323545e+03
1.890000e-06	4.811205e-06	2.017109e-08	3.467494e+01	1.319395e+03
1.900000e-06	4.767317e-06	2.005941e-08	3.435864e+01	1.315000e+03
1.910000e-06	4.721773e-06	1.986339e-08	3.403040e+01	1.310372e+03
1.920000e-06	4.674203e-06	1.998689e-08	3.368755e+01	1.305519e+03
1.930000e-06	4.624924e-06	1.989008e-08	3.333239e+01	1.300443e+03
1.940000e-06	4.573991e-06	1.977156e-08	3.296531e+01	1.295138e+03
1.950000e-06	4.521030e-06	1.969128e-08	3.258362e+01	1.289595e+03
1.960000e-06	4.466177e-06	1.956144e-08	3.218829e+01	1.283801e+03
1.970000e-06	4.409586e-06	1.952438e-08	3.178043e+01	1.277742e+03
1.980000e-06	4.351412e-06	1.934532e-08	3.136116e+01	1.271411e+03
1.990000e-06	4.291813e-06	1.930584e-08	3.093163e+01	1.264803e+03
2.000000e-06	4.230808e-06	1.928471e-08	3.049195e+01	1.257918e+03
2.010000e-06	4.168205e-06	1.909440e-08	3.004077e+01	1.250762e+03
2.020000e-06	4.103891e-06	1.896179e-08	2.957725e+01	1.243340e+03
2.030000e-06	4.038096e-06	1.880995e-08	2.910305e+01	1.235654e+03
2.040000e-06	3.970982e-06	1.875976e-08	2.861935e+01	1.227703e+03
2.050000e-06	3.902493e-06	1.864450e-08	2.812575e+01	1.219480e+03
2.060000e-06	3.832442e-06	1.847383e-08	2.762088e+01	1.210970e+03
2.070000e-06	3.760939e-06	1.837676e-08	2.710555e+01	1.202156e+03
2.080000e-06	3.688203e-06	1.820266e-08	2.658133e+01	1.193018e+03
2.090000e-06	3.614158e-06	1.807186e-08	2.604768e+01	1.183535e+03
2.100000e-06	3.538775e-06	1.792978e-08	2.550439e+01	1.173690e+03
2.110000e-06	3.461872e-06	1.778302e-08	2.495013e+01	1.163468e+03
2.120000e-06	3.383342e-06	1.762146e-08	2.438416e+01	1.152857e+03
2.130000e-06	3.303542e-06	1.742721e-08	2.380903e+01	1.141847e+03
2.140000e-06	3.222684e-06	1.726824e-08	2.322628e+01	1.130427e+03
2.150000e-06	3.140748e-06	1.707749e-08	2.263576e+01	1.118587e+03
2.160000e-06	3.057803e-06	1.690599e-08	2.203796e+01	1.106308e+03
2.170000e-06	2.973946e-06	1.672442e-08	2.143359e+01	1.093571e+03
2.180000e-06	2.889003e-06	1.652111e-08	2.082140e+01	1.080350e+03
2.190000e-06	2.802738e-06	1.630738e-08	2.019968e+01	1.066618e+03
2.200000e-06	2.715333e-06	1.608816e-08	1.956974e+01	1.052344e+03
2.210000e-06	2.627010e-06	1.587864e-08	1.893319e+01	1.037497e+03
2.220000e-06	2.537780e-06	1.563703e-08	1.829010e+01	1.022046e+03
2.230000e-06	2.447621e-06	1.538517e-08	1.764030e+01	1.005958e+03
2.240000e-06	2.356704e-06	1.512649e-08	1.698505e+01	9.892031e+02
2.250000e-06	2.265196e-06	1.487089e-08	1.632555e+01	9.717466e+02
2.260000e-06	2.172976e-06	1.459927e-08	1.566091e+01	9.535525e+02
2.270000e-06	2.079789e-06	1.430842e-08	1.498930e+01	9.345808e+02
2.280000e-06	1.985569e-06	1.400867e-08	1.431024e+01	9.147870e+02
2.290000e-06	1.890501e-06	1.369189e-08	1.362507e+01	8.941220e+02
2.300000e-06	1.794760e-06	1.336385e-08	1.293506e+01	8.725324e+02
2.310000e-06	1.698496e-06	1.302110e-08	1.224127e+01	8.499607e+02
2.320000e-06	1.601736e-06	1.266700e-08	1.154391e+01	8.263464e+02
2.330000e-06	1.504440e-06	1.229223e-08	1.084268e+01	8.016262e+02
2.340000e-06	1.406618e-06	1.189227e-08	1.013767e+01	7.757356e+02
2.350000e-06	1.308314e-06	1.147255e-08	9.429181e+00	7.486095e+02
2.360000e-06	1.209601e-06	1.104355e-08	8.717740e+00	7.201852e+02
2.370000e-06	1.110604e-06	1.060210e-08	8.004259e+00	6.904053e+02
2.380000e-06	1.011391e-06	1.013499e-08	7.289218e+00	6.592229e+02
2.390000e-06	9.119524e-07	9.636240e-09	6.572553e+00	6.266077e+02
2.400000e-06	8.123039e-07	9.108726e-09	5.854374e+00	5.925526e+02
2.410000e-06	7.124175e-07	8.561390e-09	5.134480e+00	5.570809e+02
2.420000e-06	6.122613e-07	7.995098e-09	4.412643e+00	5.202515e+02
2.430000e-06	5.118885e-07	7.412645e-09	3.689243e+00	4.821615e+02
2.440000e-06	4.113818e-07	6.816885e-09	2.964879e+00	4.429455e+02
2.450000e-06	3.107285e-07	6.205813e-09	2.239459e+00	4.027694e+02
2.460000e-06	2.098799e-07	5.577914e-09	1.512630e+00	3.618206e+02
2.470000e-06	1.088588e-07	4.941969e-09	7.845588e-01	3.202931e+02
2.480000e-06	7.734414e-09	4.305736e-09	5.574287e-02	2.783708e+02
2.490000e-06	-9.347086e-08	3.665196e-09	-6.736560e-01	2.362095e+02
2.500000e-06	-1.946538e-07	3.017721e-09	-1.402894e+00	1.939213e+02
2.510000e-06	-2.956792e-07	2.368138e-09	-2.130996e+00	1.515626e+02
2.520000e-06	-3.965735e-07	1.718323e-09	-2.858154e+00	1.091288e+02
2.530000e-06	-4.973061e-07	1.064501e-09	-3.584146e+00	6.655654e+01
2.540000e-06	-5.978714e-07	4.081124e-10	-4.308933e+00	2.373367e+01
2.550000e-06	-6.982310e-07	-2.520306e-10	-5.032237e+00	-1.948283e+01
2.560000e-06	-7.983160e-07	-9.186590e-10	-5.753562e+00	-6.324407e+01
2.570000e-06	-8.981131e-07	-1.595418e-09	-6.472811e+00	-1.076832e+02
2.580000e-06	-9.976309e-07	-2.284137e-09	-7.190048e+00	-1.528901e+02
2.590000e-06	-1.096889e-06	-2.985646e-09	-7.905414e+00	-1.988894e+02
2.600000e-06	-1.195854e-06	-3.701958e-09	-8.618667e+00	-2.456254e+02
2.610000e-06	-1.294440e-06	-4.427660e-09	-9.329187e+00	-2.929561e+02
2.620000e-06	-1.392494e-06	-5.157962e-09	-1.003588e+01	-3.406569e+02
2.630000e-06	-1.489929e-06	-5.889405e-09	-1.073810e+01	-3.884336e+02
2.640000e-06	-1.586796e-06	-6.615255e-09	-1.143623e+01	-4.359436e+02
2.650000e-06	-1.683171e-06	-7.330183e-09	-1.213082e+01	-4.828224e+02
2.660000e-06	-1.779080e-06	-8.031465e-09	-1.282205e+01	-5.287116e+02
2.670000e-06	-1.874516e-06	-8.715493e-09	-1.350987e+01	-5.732854e+02
2.680000e-06	-1.969252e-06	-9.374833e-09	-1.419264e+01	-6.162721e+02
2.690000e-06	-2.062974e-06	-1.000448e-08	-1.486811e+01	-6.574680e+02
2.700000e-06	-2.155663e-06	-1.060633e-08	-1.553613e+01	-6.967435e+02
2.710000e-06	-2.247556e-06	-1.118154e-08	-1.619841e+01	-7.340408e+02
2.720000e-06	-2.338776e-06	-1.172879e-08	-1.685585e+01	-7.693641e+02
2.730000e-06	-2.429180e-06	-1.224447e-08	-1.750740e+01	-8.027657e+02
2.740000e-06	-2.518617e-06	-1.272798e-08	-1.815198e+01	-8.343304e+02
2.750000e-06	-2.607163e-06	-1.318267e-08	-1.879015e+01	-8.641597e+02
2.760000e-06	-2.695002e-06	-1.361168e-08	-1.942321e+01	-8.923593e+02
2.770000e-06	-2.782069e-06	-1.401811e-08	-2.005071e+01	-9.190304e+02
2.780000e-06	-2.867993e-06	-1.440513e-08	-2.066998e+01	-9.442650e+02
2.790000e-06	-2.952662e-06	-1.477442e-08	-2.128020e+01	-9.681457e+02
2.800000e-06	-3.036282e-06	-1.512205e-08	-2.188286e+01	-9.907471e+02
2.810000e-06	-3.118926e-06	-1.544895e-08	-2.247849e+01	-1.012139e+03
2.820000e-06	-3.200585e-06	-1.575782e-08	-2.306701e+01	-1.032388e+03
2.830000e-06	-3.281251e-06	-1.605123e-08	-2.364838e+01	-1.051563e+03
2.840000e-06	-3.360864e-06	-1.633161e-08	-2.422216e+01	-1.069730e+03
2.850000e-06	-3.439078e-06	-1.659605e-08	-2.478586e+01	-1.086955e+03
2.860000e-06	-3.515690e-06	-1.684521e-08	-2.533801e+01	-1.103300e+03
2.870000e-06	-3.590915e-06	-1.708253e-08	-2.588016e+01	-1.118825e+03
2.880000e-06	-3.664788e-06	-1.730944e-08	-2.641258e+01	-1.133581e+03
2.890000e-06	-3.737360e-06	-1.752613e-08	-2.693561e+01	-1.147614e+03
2.900000e-06	-3.808759e-06	-1.773312e-08	-2.745019e+01	-1.160967e+03
2.910000e-06	-3.878671e-06	-1.793018e-08	-2.795406e+01	-1.173676e+03
2.920000e-06	-3.946991e-06	-1.811904e-08	-2.844645e+01	-1.185778e+03
2.930000e-06	-4.013932e-06	-1.829791e-08	-2.892890e+01	-1.197305e+03
2.940000e-06	-4.079472e-06	-1.846554e-08	-2.940126e+01	-1.208290e+03
