# Temperatura_=_60.96
# Concentracion g/m^3_=_28200.0
# C_Vs_to_Am_M_A/Vsm_=_65563218390.804596
# pendiente_HvsI_1/m_=_3716.3
# ordenada_HvsI_A/m_=_1297.0
# frecuencia_Hz_=_301767.0931982588

Tiempo_(s)	Campo_(V.s)	Magnetizacion_(V.s)	Campo_(kA/m)	Magnetizacion_(A/m)
0.000000e+00	-5.307156e-06	-2.127216e-08	-3.829664e+01	-1.391702e+03
1.000000e-08	-5.305408e-06	-2.126771e-08	-3.828402e+01	-1.391322e+03
2.000000e-08	-5.301750e-06	-2.125686e-08	-3.825763e+01	-1.390799e+03
3.000000e-08	-5.296422e-06	-2.124165e-08	-3.821918e+01	-1.390123e+03
4.000000e-08	-5.289517e-06	-2.122729e-08	-3.816935e+01	-1.389280e+03
5.000000e-08	-5.280974e-06	-2.120985e-08	-3.810770e+01	-1.388251e+03
6.000000e-08	-5.270458e-06	-2.118793e-08	-3.803182e+01	-1.387019e+03
7.000000e-08	-5.257983e-06	-2.116016e-08	-3.794180e+01	-1.385574e+03
8.000000e-08	-5.243603e-06	-2.112362e-08	-3.783803e+01	-1.383919e+03
9.000000e-08	-5.227018e-06	-2.114089e-08	-3.771836e+01	-1.382068e+03
1.000000e-07	-5.208314e-06	-2.116169e-08	-3.758339e+01	-1.380045e+03
1.100000e-07	-5.187717e-06	-2.108506e-08	-3.743476e+01	-1.377882e+03
1.200000e-07	-5.165283e-06	-2.101922e-08	-3.727288e+01	-1.375609e+03
1.300000e-07	-5.141274e-06	-2.094917e-08	-3.709963e+01	-1.373248e+03
1.400000e-07	-5.115704e-06	-2.084124e-08	-3.691511e+01	-1.370811e+03
1.500000e-07	-5.088459e-06	-2.093228e-08	-3.671851e+01	-1.368290e+03
1.600000e-07	-5.059697e-06	-2.090778e-08	-3.651096e+01	-1.365667e+03
1.700000e-07	-5.029562e-06	-2.073450e-08	-3.629351e+01	-1.362911e+03
1.800000e-07	-4.997791e-06	-2.082195e-08	-3.606424e+01	-1.359985e+03
1.900000e-07	-4.963876e-06	-2.072766e-08	-3.581951e+01	-1.356854e+03
2.000000e-07	-4.928198e-06	-2.057586e-08	-3.556206e+01	-1.353487e+03
2.100000e-07	-4.891018e-06	-2.066366e-08	-3.529377e+01	-1.349867e+03
2.200000e-07	-4.852076e-06	-2.053238e-08	-3.501276e+01	-1.345985e+03
2.300000e-07	-4.811358e-06	-2.040801e-08	-3.471894e+01	-1.341844e+03
2.400000e-07	-4.768674e-06	-2.041208e-08	-3.441093e+01	-1.337454e+03
2.500000e-07	-4.724133e-06	-2.030016e-08	-3.408952e+01	-1.332824e+03
2.600000e-07	-4.677928e-06	-2.028152e-08	-3.375610e+01	-1.327963e+03
2.700000e-07	-4.629861e-06	-2.021100e-08	-3.340925e+01	-1.322875e+03
2.800000e-07	-4.579649e-06	-2.003716e-08	-3.304692e+01	-1.317557e+03
2.900000e-07	-4.527353e-06	-1.994893e-08	-3.266955e+01	-1.312001e+03
3.000000e-07	-4.473337e-06	-1.989566e-08	-3.227977e+01	-1.306193e+03
3.100000e-07	-4.417801e-06	-1.983660e-08	-3.187902e+01	-1.300123e+03
3.200000e-07	-4.360540e-06	-1.973240e-08	-3.146582e+01	-1.293779e+03
3.300000e-07	-4.301481e-06	-1.962296e-08	-3.103965e+01	-1.287155e+03
3.400000e-07	-4.240942e-06	-1.950239e-08	-3.060279e+01	-1.280251e+03
3.500000e-07	-4.178973e-06	-1.935921e-08	-3.015563e+01	-1.273069e+03
3.600000e-07	-4.115633e-06	-1.926655e-08	-2.969856e+01	-1.265612e+03
3.700000e-07	-4.050908e-06	-1.917315e-08	-2.923150e+01	-1.257885e+03
3.800000e-07	-3.984536e-06	-1.907209e-08	-2.875256e+01	-1.249886e+03
3.900000e-07	-3.916595e-06	-1.892372e-08	-2.826230e+01	-1.241613e+03
4.000000e-07	-3.847355e-06	-1.874429e-08	-2.776266e+01	-1.233054e+03
4.100000e-07	-3.776895e-06	-1.862986e-08	-2.725421e+01	-1.224196e+03
4.200000e-07	-3.705234e-06	-1.850665e-08	-2.673711e+01	-1.215020e+03
4.300000e-07	-3.632198e-06	-1.836940e-08	-2.621008e+01	-1.205507e+03
4.400000e-07	-3.557580e-06	-1.821698e-08	-2.567163e+01	-1.195636e+03
4.500000e-07	-3.481432e-06	-1.804676e-08	-2.512214e+01	-1.185388e+03
4.600000e-07	-3.404005e-06	-1.787306e-08	-2.456343e+01	-1.174747e+03
4.700000e-07	-3.325256e-06	-1.770845e-08	-2.399517e+01	-1.163698e+03
4.800000e-07	-3.245101e-06	-1.755545e-08	-2.341677e+01	-1.152227e+03
4.900000e-07	-3.163782e-06	-1.736877e-08	-2.282997e+01	-1.140322e+03
5.000000e-07	-3.081333e-06	-1.717006e-08	-2.223502e+01	-1.127973e+03
5.100000e-07	-2.997920e-06	-1.696915e-08	-2.163310e+01	-1.115164e+03
5.200000e-07	-2.913712e-06	-1.676056e-08	-2.102545e+01	-1.101882e+03
5.300000e-07	-2.828604e-06	-1.655044e-08	-2.041131e+01	-1.088106e+03
5.400000e-07	-2.742482e-06	-1.633689e-08	-1.978986e+01	-1.073815e+03
5.500000e-07	-2.655431e-06	-1.611236e-08	-1.916169e+01	-1.058982e+03
5.600000e-07	-2.567617e-06	-1.586865e-08	-1.852802e+01	-1.043573e+03
5.700000e-07	-2.478758e-06	-1.561884e-08	-1.788681e+01	-1.027552e+03
5.800000e-07	-2.388584e-06	-1.536841e-08	-1.723611e+01	-1.010879e+03
5.900000e-07	-2.297363e-06	-1.510626e-08	-1.657786e+01	-9.935086e+02
6.000000e-07	-2.205438e-06	-1.482537e-08	-1.591452e+01	-9.753960e+02
6.100000e-07	-2.112816e-06	-1.453144e-08	-1.524616e+01	-9.564955e+02
6.200000e-07	-2.019449e-06	-1.423148e-08	-1.457242e+01	-9.367620e+02
6.300000e-07	-1.925288e-06	-1.392063e-08	-1.389295e+01	-9.161519e+02
6.400000e-07	-1.830400e-06	-1.359474e-08	-1.320823e+01	-8.946215e+02
6.500000e-07	-1.735010e-06	-1.325111e-08	-1.251990e+01	-8.721265e+02
6.600000e-07	-1.639152e-06	-1.288539e-08	-1.182818e+01	-8.486189e+02
6.700000e-07	-1.542658e-06	-1.250265e-08	-1.113188e+01	-8.240452e+02
6.800000e-07	-1.445354e-06	-1.210941e-08	-1.042973e+01	-7.983448e+02
6.900000e-07	-1.347315e-06	-1.170442e-08	-9.722276e+00	-7.714501e+02
7.000000e-07	-1.248722e-06	-1.128061e-08	-9.010828e+00	-7.432882e+02
7.100000e-07	-1.149666e-06	-1.083059e-08	-8.296030e+00	-7.137857e+02
7.200000e-07	-1.050284e-06	-1.035229e-08	-7.578888e+00	-6.828754e+02
7.300000e-07	-9.506865e-07	-9.850720e-09	-6.860189e+00	-6.505050e+02
7.400000e-07	-8.508826e-07	-9.333275e-09	-6.140001e+00	-6.166460e+02
7.500000e-07	-7.508649e-07	-8.800449e-09	-5.418269e+00	-5.813025e+02
7.600000e-07	-6.505995e-07	-8.244738e-09	-4.694751e+00	-5.445173e+02
7.700000e-07	-5.501051e-07	-7.663373e-09	-3.969579e+00	-5.063751e+02
7.800000e-07	-4.494382e-07	-7.062951e-09	-3.243163e+00	-4.670011e+02
7.900000e-07	-3.486302e-07	-6.446845e-09	-2.515729e+00	-4.265552e+02
8.000000e-07	-2.476772e-07	-5.815676e-09	-1.787248e+00	-3.852220e+02
8.100000e-07	-1.466294e-07	-5.175620e-09	-1.058083e+00	-3.431965e+02
8.200000e-07	-4.550784e-08	-4.530404e-09	-3.283863e-01	-3.006684e+02
8.300000e-07	5.568650e-08	-3.879569e-09	4.018359e-01	-2.578051e+02
8.400000e-07	1.568855e-07	-3.222353e-09	1.132092e+00	-2.147366e+02
8.500000e-07	2.580474e-07	-2.563907e-09	1.862079e+00	-1.715436e+02
8.600000e-07	3.591398e-07	-1.908411e-09	2.591566e+00	-1.282500e+02
8.700000e-07	4.601141e-07	-1.252129e-09	3.320201e+00	-8.482222e+01
8.800000e-07	5.609427e-07	-5.908234e-10	4.047783e+00	-4.117517e+01
8.900000e-07	6.615961e-07	7.823423e-11	4.774102e+00	2.814631e+00
9.000000e-07	7.620746e-07	7.571261e-10	5.499159e+00	4.729027e+01
9.100000e-07	8.623471e-07	1.445862e-09	6.222729e+00	9.239118e+01
9.200000e-07	9.623674e-07	2.143658e-09	6.944480e+00	1.382282e+02
9.300000e-07	1.062116e-06	2.852039e-09	7.664270e+00	1.848595e+02
9.400000e-07	1.161563e-06	3.571862e-09	8.381881e+00	2.322718e+02
9.500000e-07	1.260638e-06	4.302239e-09	9.096813e+00	2.803672e+02
9.600000e-07	1.359154e-06	5.039808e-09	9.807704e+00	3.289605e+02
9.700000e-07	1.457022e-06	5.783112e-09	1.051392e+01	3.777860e+02
9.800000e-07	1.554175e-06	6.526415e-09	1.121499e+01	4.265144e+02
9.900000e-07	1.650548e-06	7.264104e-09	1.191042e+01	4.747766e+02
1.000000e-06	1.746240e-06	7.989579e-09	1.260093e+01	5.221932e+02
1.010000e-06	1.841297e-06	8.693005e-09	1.328687e+01	5.684039e+02
1.020000e-06	1.935739e-06	9.369657e-09	1.396837e+01	6.130944e+02
1.030000e-06	2.029544e-06	1.001704e-08	1.464526e+01	6.560169e+02
1.040000e-06	2.122598e-06	1.063493e-08	1.531675e+01	6.970011e+02
1.050000e-06	2.214961e-06	1.122323e-08	1.598324e+01	7.359560e+02
1.060000e-06	2.306712e-06	1.178316e-08	1.664532e+01	7.728633e+02
1.070000e-06	2.397712e-06	1.231497e-08	1.730198e+01	8.077634e+02
1.080000e-06	2.487710e-06	1.281664e-08	1.795141e+01	8.407379e+02
1.090000e-06	2.576631e-06	1.329125e-08	1.859306e+01	8.718915e+02
1.100000e-06	2.664512e-06	1.373985e-08	1.922722e+01	9.013362e+02
1.110000e-06	2.751473e-06	1.416227e-08	1.985473e+01	9.291805e+02
1.120000e-06	2.837591e-06	1.455892e-08	2.047616e+01	9.555228e+02
1.130000e-06	2.922756e-06	1.493446e-08	2.109072e+01	9.804503e+02
1.140000e-06	3.007026e-06	1.529206e-08	2.169881e+01	1.004041e+03
1.150000e-06	3.090429e-06	1.563414e-08	2.230065e+01	1.026367e+03
1.160000e-06	3.172768e-06	1.595828e-08	2.289482e+01	1.047500e+03
1.170000e-06	3.253962e-06	1.626471e-08	2.348071e+01	1.067510e+03
1.180000e-06	3.333947e-06	1.655349e-08	2.405788e+01	1.086471e+03
1.190000e-06	3.412699e-06	1.682362e-08	2.462616e+01	1.104453e+03
1.200000e-06	3.490266e-06	1.707930e-08	2.518589e+01	1.121525e+03
1.210000e-06	3.566670e-06	1.732248e-08	2.573723e+01	1.137747e+03
1.220000e-06	3.641756e-06	1.755661e-08	2.627905e+01	1.153174e+03
1.230000e-06	3.715237e-06	1.778012e-08	2.680929e+01	1.167851e+03
1.240000e-06	3.787151e-06	1.799226e-08	2.732822e+01	1.181818e+03
1.250000e-06	3.857674e-06	1.819309e-08	2.783712e+01	1.195110e+03
1.260000e-06	3.926855e-06	1.838301e-08	2.833633e+01	1.207761e+03
1.270000e-06	3.994738e-06	1.856280e-08	2.882618e+01	1.219805e+03
1.280000e-06	4.061196e-06	1.873318e-08	2.930574e+01	1.231277e+03
1.290000e-06	4.126035e-06	1.889675e-08	2.977363e+01	1.242211e+03
1.300000e-06	4.189313e-06	1.905602e-08	3.023024e+01	1.252638e+03
1.310000e-06	4.251135e-06	1.920936e-08	3.067635e+01	1.262584e+03
1.320000e-06	4.311608e-06	1.935649e-08	3.111273e+01	1.272066e+03
1.330000e-06	4.370722e-06	1.949666e-08	3.153930e+01	1.281092e+03
1.340000e-06	4.428150e-06	1.963018e-08	3.195369e+01	1.289665e+03
1.350000e-06	4.483807e-06	1.975541e-08	3.235532e+01	1.297782e+03
1.360000e-06	4.537851e-06	1.986999e-08	3.274530e+01	1.305443e+03
1.370000e-06	4.590192e-06	1.997496e-08	3.312300e+01	1.312656e+03
1.380000e-06	4.640584e-06	2.007337e-08	3.348663e+01	1.319434e+03
1.390000e-06	4.689007e-06	2.016912e-08	3.383605e+01	1.325806e+03
1.400000e-06	4.735698e-06	2.026275e-08	3.417298e+01	1.331808e+03
1.410000e-06	4.780845e-06	2.035196e-08	3.449876e+01	1.337479e+03
1.420000e-06	4.824450e-06	2.043557e-08	3.481341e+01	1.342861e+03
1.430000e-06	4.866233e-06	2.051313e-08	3.511492e+01	1.347985e+03
1.440000e-06	4.906197e-06	2.058703e-08	3.540330e+01	1.352871e+03
1.450000e-06	4.944578e-06	2.065705e-08	3.568026e+01	1.357526e+03
1.460000e-06	4.981366e-06	2.072414e-08	3.594572e+01	1.361941e+03
1.470000e-06	5.016418e-06	2.078881e-08	3.619866e+01	1.366100e+03
1.480000e-06	5.049572e-06	2.084752e-08	3.643790e+01	1.369981e+03
1.490000e-06	5.080925e-06	2.090066e-08	3.666414e+01	1.373566e+03
1.500000e-06	5.110588e-06	2.094906e-08	3.687820e+01	1.376845e+03
1.510000e-06	5.138606e-06	2.099417e-08	3.708037e+01	1.379819e+03
1.520000e-06	5.164766e-06	2.103611e-08	3.726914e+01	1.382499e+03
1.530000e-06	5.188874e-06	2.107292e-08	3.744311e+01	1.384905e+03
1.540000e-06	5.211089e-06	2.110487e-08	3.760342e+01	1.387060e+03
1.550000e-06	5.231585e-06	2.113365e-08	3.775131e+01	1.388988e+03
1.560000e-06	5.250384e-06	2.115847e-08	3.788697e+01	1.390703e+03
1.570000e-06	5.267212e-06	2.118021e-08	3.800840e+01	1.392214e+03
1.580000e-06	5.281971e-06	2.119990e-08	3.811490e+01	1.393520e+03
1.590000e-06	5.294800e-06	2.121672e-08	3.820748e+01	1.394615e+03
1.600000e-06	5.305549e-06	2.123134e-08	3.828504e+01	1.395494e+03
1.610000e-06	5.314139e-06	2.124284e-08	3.834702e+01	1.396154e+03
1.620000e-06	5.320772e-06	2.125147e-08	3.839489e+01	1.396597e+03
1.630000e-06	5.325637e-06	2.125761e-08	3.842999e+01	1.396835e+03
1.640000e-06	5.328726e-06	2.125957e-08	3.845229e+01	1.396884e+03
1.650000e-06	5.329795e-06	2.125970e-08	3.846000e+01	1.396762e+03
1.660000e-06	5.328964e-06	2.125676e-08	3.845400e+01	1.396486e+03
1.670000e-06	5.326458e-06	2.124822e-08	3.843592e+01	1.396065e+03
1.680000e-06	5.322346e-06	2.124167e-08	3.840625e+01	1.395498e+03
1.690000e-06	5.316429e-06	2.123261e-08	3.836355e+01	1.394775e+03
1.700000e-06	5.308609e-06	2.121906e-08	3.830712e+01	1.393880e+03
1.710000e-06	5.299204e-06	2.120409e-08	3.823925e+01	1.392793e+03
1.720000e-06	5.288219e-06	2.119235e-08	3.815999e+01	1.391500e+03
1.730000e-06	5.275427e-06	2.119589e-08	3.806768e+01	1.389994e+03
1.740000e-06	5.260659e-06	2.113104e-08	3.796111e+01	1.388280e+03
1.750000e-06	5.243762e-06	2.102998e-08	3.783918e+01	1.386375e+03
1.760000e-06	5.224357e-06	2.103868e-08	3.769916e+01	1.384309e+03
1.770000e-06	5.202341e-06	2.103007e-08	3.754029e+01	1.382110e+03
1.780000e-06	5.178456e-06	2.106529e-08	3.736793e+01	1.379809e+03
1.790000e-06	5.153681e-06	2.106674e-08	3.718916e+01	1.377425e+03
1.800000e-06	5.128071e-06	2.084420e-08	3.700435e+01	1.374964e+03
1.810000e-06	5.100668e-06	2.090403e-08	3.680661e+01	1.372416e+03
1.820000e-06	5.071151e-06	2.093240e-08	3.659362e+01	1.369758e+03
1.830000e-06	5.039947e-06	2.071413e-08	3.636844e+01	1.366956e+03
1.840000e-06	5.006906e-06	2.085882e-08	3.613002e+01	1.363974e+03
1.850000e-06	4.972052e-06	2.082112e-08	3.587851e+01	1.360777e+03
1.860000e-06	4.935679e-06	2.058445e-08	3.561605e+01	1.357338e+03
1.870000e-06	4.897395e-06	2.069501e-08	3.533978e+01	1.353642e+03
1.880000e-06	4.857303e-06	2.057769e-08	3.505048e+01	1.349685e+03
1.890000e-06	4.815580e-06	2.049816e-08	3.474941e+01	1.345471e+03
1.900000e-06	4.772087e-06	2.052405e-08	3.443556e+01	1.341010e+03
1.910000e-06	4.726980e-06	2.026071e-08	3.411007e+01	1.336312e+03
1.920000e-06	4.680012e-06	2.033570e-08	3.377115e+01	1.331386e+03
1.930000e-06	4.631235e-06	2.035202e-08	3.341917e+01	1.326232e+03
1.940000e-06	4.580855e-06	2.014212e-08	3.305562e+01	1.320846e+03
1.950000e-06	4.528479e-06	2.008893e-08	3.267767e+01	1.315218e+03
1.960000e-06	4.474064e-06	1.994940e-08	3.228502e+01	1.309336e+03
1.970000e-06	4.417889e-06	1.990437e-08	3.187965e+01	1.303187e+03
1.980000e-06	4.360119e-06	1.977558e-08	3.146278e+01	1.296762e+03
1.990000e-06	4.300926e-06	1.965865e-08	3.103564e+01	1.290058e+03
2.000000e-06	4.240316e-06	1.968419e-08	3.059828e+01	1.283073e+03
2.010000e-06	4.178072e-06	1.948574e-08	3.014912e+01	1.275811e+03
2.020000e-06	4.114120e-06	1.934821e-08	2.968764e+01	1.268276e+03
2.030000e-06	4.048780e-06	1.920908e-08	2.921615e+01	1.260470e+03
2.040000e-06	3.982089e-06	1.911486e-08	2.873490e+01	1.252393e+03
2.050000e-06	3.914045e-06	1.906032e-08	2.824389e+01	1.244038e+03
2.060000e-06	3.844513e-06	1.885087e-08	2.774215e+01	1.235394e+03
2.070000e-06	3.773369e-06	1.874546e-08	2.722877e+01	1.226446e+03
2.080000e-06	3.700966e-06	1.858276e-08	2.670631e+01	1.217175e+03
2.090000e-06	3.627309e-06	1.842756e-08	2.617480e+01	1.207561e+03
2.100000e-06	3.552365e-06	1.830692e-08	2.563400e+01	1.197583e+03
2.110000e-06	3.476123e-06	1.814131e-08	2.508384e+01	1.187224e+03
2.120000e-06	3.398246e-06	1.799871e-08	2.452187e+01	1.176467e+03
2.130000e-06	3.318924e-06	1.779047e-08	2.394948e+01	1.165297e+03
2.140000e-06	3.238492e-06	1.762238e-08	2.336908e+01	1.153702e+03
2.150000e-06	3.156939e-06	1.743507e-08	2.278059e+01	1.141671e+03
2.160000e-06	3.074283e-06	1.725159e-08	2.218414e+01	1.129191e+03
2.170000e-06	2.990686e-06	1.707962e-08	2.158090e+01	1.116248e+03
2.180000e-06	2.906164e-06	1.686435e-08	2.097099e+01	1.102825e+03
2.190000e-06	2.820379e-06	1.665162e-08	2.035196e+01	1.088904e+03
2.200000e-06	2.733307e-06	1.642159e-08	1.972365e+01	1.074460e+03
2.210000e-06	2.645277e-06	1.621022e-08	1.908841e+01	1.059465e+03
2.220000e-06	2.556368e-06	1.597574e-08	1.844685e+01	1.043884e+03
2.230000e-06	2.466574e-06	1.572203e-08	1.779889e+01	1.027681e+03
2.240000e-06	2.375911e-06	1.546150e-08	1.714466e+01	1.010812e+03
2.250000e-06	2.284524e-06	1.519729e-08	1.648521e+01	9.932330e+02
2.260000e-06	2.192558e-06	1.492580e-08	1.582158e+01	9.748990e+02
2.270000e-06	2.099850e-06	1.462976e-08	1.515260e+01	9.557641e+02
2.280000e-06	2.006145e-06	1.432915e-08	1.447642e+01	9.357837e+02
2.290000e-06	1.911396e-06	1.401030e-08	1.379271e+01	9.149141e+02
2.300000e-06	1.815853e-06	1.367789e-08	1.310326e+01	8.931118e+02
2.310000e-06	1.719785e-06	1.333001e-08	1.241003e+01	8.703316e+02
2.320000e-06	1.623252e-06	1.297126e-08	1.171345e+01	8.465242e+02
2.330000e-06	1.526222e-06	1.259581e-08	1.101327e+01	8.216341e+02
2.340000e-06	1.428675e-06	1.219479e-08	1.030937e+01	7.955988e+02
2.350000e-06	1.330616e-06	1.177392e-08	9.601774e+00	7.683487e+02
2.360000e-06	1.232138e-06	1.134041e-08	8.891154e+00	7.398101e+02
2.370000e-06	1.133324e-06	1.089621e-08	8.178110e+00	7.099108e+02
2.380000e-06	1.034223e-06	1.042562e-08	7.462992e+00	6.785868e+02
2.390000e-06	9.348511e-07	9.923298e-09	6.745920e+00	6.457918e+02
2.400000e-06	8.352106e-07	9.392394e-09	6.026911e+00	6.115057e+02
2.410000e-06	7.353846e-07	8.842790e-09	5.306563e+00	5.757431e+02
2.420000e-06	6.353902e-07	8.274697e-09	4.585000e+00	5.385588e+02
2.430000e-06	5.351754e-07	7.686718e-09	3.861846e+00	5.000492e+02
2.440000e-06	4.348152e-07	7.083153e-09	3.137643e+00	4.603504e+02
2.450000e-06	3.343243e-07	6.463746e-09	2.412497e+00	4.196305e+02
2.460000e-06	2.336912e-07	5.825521e-09	1.686325e+00	3.780786e+02
2.470000e-06	1.329267e-07	5.176428e-09	9.592038e-01	3.358898e+02
2.480000e-06	3.202862e-08	4.526667e-09	2.311197e-01	2.932492e+02
2.490000e-06	-6.892485e-08	3.874807e-09	-4.973643e-01	2.503150e+02
2.500000e-06	-1.699162e-07	3.215178e-09	-1.226121e+00	2.072043e+02
2.510000e-06	-2.708428e-07	2.549014e-09	-1.954412e+00	1.639817e+02
2.520000e-06	-3.716061e-07	1.883112e-09	-2.681523e+00	1.206546e+02
2.530000e-06	-4.722492e-07	1.216462e-09	-3.407768e+00	7.717387e+01
2.540000e-06	-5.727721e-07	5.491369e-10	-4.133145e+00	3.344180e+01
2.550000e-06	-6.731221e-07	-1.242134e-10	-4.857274e+00	-1.067287e+01
2.560000e-06	-7.732474e-07	-8.075849e-10	-5.579783e+00	-5.531467e+01
2.570000e-06	-8.730998e-07	-1.501274e-09	-6.300321e+00	-1.006174e+02
2.580000e-06	-9.726608e-07	-2.206610e-09	-7.018757e+00	-1.466792e+02
2.590000e-06	-1.071852e-06	-2.921994e-09	-7.734523e+00	-1.935395e+02
2.600000e-06	-1.170686e-06	-3.649590e-09	-8.447717e+00	-2.411618e+02
2.610000e-06	-1.269160e-06	-4.386939e-09	-9.158303e+00	-2.894230e+02
2.620000e-06	-1.367146e-06	-5.130503e-09	-9.865379e+00	-3.381138e+02
2.630000e-06	-1.464595e-06	-5.878616e-09	-1.056857e+01	-3.869484e+02
2.640000e-06	-1.561538e-06	-6.623889e-09	-1.126812e+01	-4.355833e+02
2.650000e-06	-1.658037e-06	-7.358317e-09	-1.196446e+01	-4.836433e+02
2.660000e-06	-1.754062e-06	-8.077750e-09	-1.265737e+01	-5.307514e+02
2.670000e-06	-1.849492e-06	-8.779096e-09	-1.334600e+01	-5.765582e+02
2.680000e-06	-1.944119e-06	-9.457494e-09	-1.402883e+01	-6.207667e+02
2.690000e-06	-2.037873e-06	-1.010608e-08	-1.470537e+01	-6.631501e+02
2.700000e-06	-2.130797e-06	-1.072470e-08	-1.537591e+01	-7.035613e+02
2.710000e-06	-2.222901e-06	-1.131545e-08	-1.604054e+01	-7.419312e+02
2.720000e-06	-2.314224e-06	-1.187645e-08	-1.669952e+01	-7.782597e+02
2.730000e-06	-2.404719e-06	-1.240600e-08	-1.735254e+01	-8.126010e+02
2.740000e-06	-2.494326e-06	-1.290318e-08	-1.799915e+01	-8.450449e+02
2.750000e-06	-2.583094e-06	-1.337067e-08	-1.863970e+01	-8.756997e+02
2.760000e-06	-2.671053e-06	-1.381256e-08	-1.927442e+01	-9.046774e+02
2.770000e-06	-2.758132e-06	-1.423064e-08	-1.990279e+01	-9.320840e+02
2.780000e-06	-2.844159e-06	-1.462747e-08	-2.052356e+01	-9.580146e+02
2.790000e-06	-2.929056e-06	-1.500451e-08	-2.113618e+01	-9.825534e+02
2.800000e-06	-3.012914e-06	-1.536095e-08	-2.174130e+01	-1.005776e+03
2.810000e-06	-3.095806e-06	-1.569702e-08	-2.233945e+01	-1.027755e+03
2.820000e-06	-3.177679e-06	-1.601439e-08	-2.293025e+01	-1.048561e+03
2.830000e-06	-3.258490e-06	-1.631582e-08	-2.351339e+01	-1.068265e+03
2.840000e-06	-3.338241e-06	-1.660352e-08	-2.408887e+01	-1.086940e+03
2.850000e-06	-3.416671e-06	-1.687686e-08	-2.465483e+01	-1.104656e+03
2.860000e-06	-3.493572e-06	-1.713461e-08	-2.520974e+01	-1.121480e+03
2.870000e-06	-3.569037e-06	-1.737893e-08	-2.575430e+01	-1.137471e+03
2.880000e-06	-3.643137e-06	-1.761167e-08	-2.628901e+01	-1.152680e+03
2.890000e-06	-3.715949e-06	-1.783416e-08	-2.681443e+01	-1.167152e+03
2.900000e-06	-3.787504e-06	-1.804700e-08	-2.733077e+01	-1.180924e+03
2.910000e-06	-3.857556e-06	-1.825103e-08	-2.783627e+01	-1.194030e+03
2.920000e-06	-3.926087e-06	-1.844661e-08	-2.833079e+01	-1.206505e+03
2.930000e-06	-3.993262e-06	-1.863219e-08	-2.881553e+01	-1.218383e+03
2.940000e-06	-4.059105e-06	-1.880652e-08	-2.929066e+01	-1.229698e+03
