# Temperatura_=_89.78
# Concentracion g/m^3_=_28200.0
# C_Vs_to_Am_M_A/Vsm_=_65563218390.804596
# pendiente_HvsI_1/m_=_3716.3
# ordenada_HvsI_A/m_=_1297.0
# frecuencia_Hz_=_301764.06151755655

Tiempo_(s)	Campo_(V.s)	Magnetizacion_(V.s)	Campo_(kA/m)	Magnetizacion_(A/m)
0.000000e+00	-5.325130e-06	-2.675247e-08	-3.829887e+01	-1.750598e+03
1.000000e-08	-5.323275e-06	-2.674700e-08	-3.828553e+01	-1.750148e+03
2.000000e-08	-5.319491e-06	-2.673332e-08	-3.825832e+01	-1.749517e+03
3.000000e-08	-5.314002e-06	-2.671449e-08	-3.821884e+01	-1.748698e+03
4.000000e-08	-5.306919e-06	-2.669707e-08	-3.816790e+01	-1.747669e+03
5.000000e-08	-5.298212e-06	-2.667741e-08	-3.810528e+01	-1.746402e+03
6.000000e-08	-5.287535e-06	-2.665300e-08	-3.802849e+01	-1.744870e+03
7.000000e-08	-5.274883e-06	-2.662829e-08	-3.793749e+01	-1.743054e+03
8.000000e-08	-5.260376e-06	-2.658155e-08	-3.783315e+01	-1.740951e+03
9.000000e-08	-5.243674e-06	-2.657471e-08	-3.771303e+01	-1.738575e+03
1.000000e-07	-5.224785e-06	-2.659848e-08	-3.757718e+01	-1.735963e+03
1.100000e-07	-5.203976e-06	-2.651294e-08	-3.742752e+01	-1.733163e+03
1.200000e-07	-5.181331e-06	-2.642649e-08	-3.726466e+01	-1.730229e+03
1.300000e-07	-5.157118e-06	-2.638724e-08	-3.709051e+01	-1.727208e+03
1.400000e-07	-5.131369e-06	-2.622590e-08	-3.690533e+01	-1.724130e+03
1.500000e-07	-5.103996e-06	-2.628217e-08	-3.670846e+01	-1.720998e+03
1.600000e-07	-5.075092e-06	-2.632178e-08	-3.650057e+01	-1.717789e+03
1.700000e-07	-5.044695e-06	-2.607592e-08	-3.628195e+01	-1.714451e+03
1.800000e-07	-5.012640e-06	-2.616265e-08	-3.605141e+01	-1.710919e+03
1.900000e-07	-4.978513e-06	-2.611837e-08	-3.580597e+01	-1.707121e+03
2.000000e-07	-4.942642e-06	-2.588086e-08	-3.554798e+01	-1.702992e+03
2.100000e-07	-4.905304e-06	-2.598262e-08	-3.527944e+01	-1.698485e+03
2.200000e-07	-4.866140e-06	-2.586037e-08	-3.499777e+01	-1.693578e+03
2.300000e-07	-4.825180e-06	-2.567025e-08	-3.470318e+01	-1.688274e+03
2.400000e-07	-4.782298e-06	-2.567308e-08	-3.439477e+01	-1.682597e+03
2.500000e-07	-4.737506e-06	-2.552172e-08	-3.407262e+01	-1.676581e+03
2.600000e-07	-4.690987e-06	-2.547108e-08	-3.373805e+01	-1.670262e+03
2.700000e-07	-4.642568e-06	-2.541195e-08	-3.338981e+01	-1.663667e+03
2.800000e-07	-4.592063e-06	-2.522277e-08	-3.302658e+01	-1.656808e+03
2.900000e-07	-4.539505e-06	-2.510634e-08	-3.264858e+01	-1.649679e+03
3.000000e-07	-4.485216e-06	-2.501323e-08	-3.225813e+01	-1.642262e+03
3.100000e-07	-4.429424e-06	-2.492078e-08	-3.185686e+01	-1.634527e+03
3.200000e-07	-4.371916e-06	-2.478458e-08	-3.144326e+01	-1.626447e+03
3.300000e-07	-4.312613e-06	-2.465570e-08	-3.101675e+01	-1.618000e+03
3.400000e-07	-4.251829e-06	-2.452429e-08	-3.057958e+01	-1.609176e+03
3.500000e-07	-4.189667e-06	-2.433903e-08	-3.013250e+01	-1.599979e+03
3.600000e-07	-4.126102e-06	-2.421282e-08	-2.967534e+01	-1.590421e+03
3.700000e-07	-4.061009e-06	-2.407997e-08	-2.920719e+01	-1.580520e+03
3.800000e-07	-3.994292e-06	-2.394249e-08	-2.872735e+01	-1.570289e+03
3.900000e-07	-3.926077e-06	-2.378410e-08	-2.823675e+01	-1.559734e+03
4.000000e-07	-3.856561e-06	-2.356988e-08	-2.773678e+01	-1.548846e+03
4.100000e-07	-3.785841e-06	-2.341352e-08	-2.722815e+01	-1.537605e+03
4.200000e-07	-3.713905e-06	-2.324252e-08	-2.671078e+01	-1.525983e+03
4.300000e-07	-3.640611e-06	-2.306257e-08	-2.618364e+01	-1.513944e+03
4.400000e-07	-3.565741e-06	-2.286827e-08	-2.564517e+01	-1.501456e+03
4.500000e-07	-3.489349e-06	-2.266028e-08	-2.509575e+01	-1.488495e+03
4.600000e-07	-3.411618e-06	-2.245055e-08	-2.453670e+01	-1.475043e+03
4.700000e-07	-3.332513e-06	-2.223690e-08	-2.396777e+01	-1.461092e+03
4.800000e-07	-3.252018e-06	-2.203784e-08	-2.338884e+01	-1.446639e+03
4.900000e-07	-3.170331e-06	-2.180526e-08	-2.280134e+01	-1.431680e+03
5.000000e-07	-3.087600e-06	-2.156038e-08	-2.220633e+01	-1.416206e+03
5.100000e-07	-3.003895e-06	-2.131079e-08	-2.160432e+01	-1.400196e+03
5.200000e-07	-2.919312e-06	-2.105237e-08	-2.099599e+01	-1.383620e+03
5.300000e-07	-2.833807e-06	-2.078869e-08	-2.038103e+01	-1.366439e+03
5.400000e-07	-2.747339e-06	-2.051955e-08	-1.975914e+01	-1.348608e+03
5.500000e-07	-2.659993e-06	-2.023771e-08	-1.913094e+01	-1.330081e+03
5.600000e-07	-2.571701e-06	-1.993657e-08	-1.849593e+01	-1.310815e+03
5.700000e-07	-2.482285e-06	-1.962632e-08	-1.785284e+01	-1.290775e+03
5.800000e-07	-2.391723e-06	-1.931183e-08	-1.720152e+01	-1.269928e+03
5.900000e-07	-2.300190e-06	-1.898663e-08	-1.654320e+01	-1.248245e+03
6.000000e-07	-2.207917e-06	-1.864262e-08	-1.587956e+01	-1.225693e+03
6.100000e-07	-2.114953e-06	-1.827863e-08	-1.521096e+01	-1.202231e+03
6.200000e-07	-2.021206e-06	-1.790220e-08	-1.453672e+01	-1.177803e+03
6.300000e-07	-1.926691e-06	-1.751332e-08	-1.385695e+01	-1.152339e+03
6.400000e-07	-1.831579e-06	-1.710806e-08	-1.317290e+01	-1.125754e+03
6.500000e-07	-1.735885e-06	-1.668742e-08	-1.248466e+01	-1.097956e+03
6.600000e-07	-1.639551e-06	-1.624338e-08	-1.179181e+01	-1.068845e+03
6.700000e-07	-1.542506e-06	-1.577570e-08	-1.109386e+01	-1.038325e+03
6.800000e-07	-1.444750e-06	-1.528667e-08	-1.039079e+01	-1.006305e+03
6.900000e-07	-1.346380e-06	-1.477689e-08	-9.683300e+00	-9.727049e+02
7.000000e-07	-1.247515e-06	-1.424402e-08	-8.972256e+00	-9.374511e+02
7.100000e-07	-1.148306e-06	-1.368355e-08	-8.258734e+00	-9.004786e+02
7.200000e-07	-1.048728e-06	-1.309146e-08	-7.542556e+00	-8.617276e+02
7.300000e-07	-9.487970e-07	-1.246613e-08	-6.823843e+00	-8.211448e+02
7.400000e-07	-8.485673e-07	-1.181588e-08	-6.102982e+00	-7.786867e+02
7.500000e-07	-7.481205e-07	-1.114367e-08	-5.380558e+00	-7.343277e+02
7.600000e-07	-6.474800e-07	-1.044396e-08	-4.656742e+00	-6.880709e+02
7.700000e-07	-5.465953e-07	-9.712014e-09	-3.931168e+00	-6.399607e+02
7.800000e-07	-4.455805e-07	-8.952441e-09	-3.204660e+00	-5.900925e+02
7.900000e-07	-3.444995e-07	-8.168148e-09	-2.477675e+00	-5.386185e+02
8.000000e-07	-2.432866e-07	-7.359514e-09	-1.749742e+00	-4.857439e+02
8.100000e-07	-1.419120e-07	-6.535343e-09	-1.020646e+00	-4.317145e+02
8.200000e-07	-4.040469e-08	-5.700960e-09	-2.905946e-01	-3.767944e+02
8.300000e-07	6.117167e-08	-4.859269e-09	4.399528e-01	-3.212370e+02
8.400000e-07	1.626990e-07	-4.007821e-09	1.170148e+00	-2.652538e+02
8.500000e-07	2.641685e-07	-3.151934e-09	1.899927e+00	-2.089864e+02
8.600000e-07	3.655694e-07	-2.295811e-09	2.629212e+00	-1.524870e+02
8.700000e-07	4.668349e-07	-1.433879e-09	3.357524e+00	-9.571223e+01
8.800000e-07	5.679814e-07	-5.632421e-10	4.084980e+00	-3.853317e+01
8.900000e-07	6.690010e-07	3.184450e-10	4.811523e+00	1.923956e+01
9.000000e-07	7.698345e-07	1.211155e-09	5.536727e+00	7.781804e+01
9.100000e-07	8.704361e-07	2.119318e-09	6.260264e+00	1.373923e+02
9.200000e-07	9.707605e-07	3.042307e-09	6.981807e+00	1.980853e+02
9.300000e-07	1.070775e-06	3.980947e-09	7.701124e+00	2.599149e+02
9.400000e-07	1.170427e-06	4.936294e-09	8.417827e+00	3.227693e+02
9.500000e-07	1.269674e-06	5.904637e-09	9.131621e+00	3.863988e+02
9.600000e-07	1.368473e-06	6.879839e-09	9.842199e+00	4.504266e+02
9.700000e-07	1.466722e-06	7.853521e-09	1.054881e+01	5.143762e+02
9.800000e-07	1.564276e-06	8.818805e-09	1.125043e+01	5.777110e+02
9.900000e-07	1.661051e-06	9.767109e-09	1.194645e+01	6.398806e+02
1.000000e-06	1.757090e-06	1.068718e-08	1.263717e+01	7.003670e+02
1.010000e-06	1.852444e-06	1.157315e-08	1.332296e+01	7.587240e+02
1.020000e-06	1.947208e-06	1.242211e-08	1.400451e+01	8.146057e+02
1.030000e-06	2.041337e-06	1.322835e-08	1.468150e+01	8.677812e+02
1.040000e-06	2.134669e-06	1.398985e-08	1.535275e+01	9.181350e+02
1.050000e-06	2.227233e-06	1.470757e-08	1.601848e+01	9.656550e+02
1.060000e-06	2.319124e-06	1.538551e-08	1.667937e+01	1.010412e+03
1.070000e-06	2.410300e-06	1.602605e-08	1.733512e+01	1.052533e+03
1.080000e-06	2.500576e-06	1.662888e-08	1.798440e+01	1.092177e+03
1.090000e-06	2.589764e-06	1.719855e-08	1.862584e+01	1.129515e+03
1.100000e-06	2.677900e-06	1.773426e-08	1.925972e+01	1.164710e+03
1.110000e-06	2.765117e-06	1.823960e-08	1.988700e+01	1.197910e+03
1.120000e-06	2.851456e-06	1.871491e-08	2.050796e+01	1.229244e+03
1.130000e-06	2.936854e-06	1.916247e-08	2.112215e+01	1.258829e+03
1.140000e-06	3.021328e-06	1.958310e-08	2.172970e+01	1.286768e+03
1.150000e-06	3.104923e-06	1.998112e-08	2.233092e+01	1.313162e+03
1.160000e-06	3.187517e-06	2.036015e-08	2.292494e+01	1.338109e+03
1.170000e-06	3.268930e-06	2.071960e-08	2.351048e+01	1.361709e+03
1.180000e-06	3.349060e-06	2.106159e-08	2.408677e+01	1.384062e+03
1.190000e-06	3.427982e-06	2.138547e-08	2.465440e+01	1.405266e+03
1.200000e-06	3.505707e-06	2.169341e-08	2.521340e+01	1.425410e+03
1.210000e-06	3.582191e-06	2.198394e-08	2.576348e+01	1.444573e+03
1.220000e-06	3.657336e-06	2.225821e-08	2.630393e+01	1.462821e+03
1.230000e-06	3.730954e-06	2.251953e-08	2.683340e+01	1.480207e+03
1.240000e-06	3.803058e-06	2.277025e-08	2.735197e+01	1.496773e+03
1.250000e-06	3.873786e-06	2.300820e-08	2.786066e+01	1.512552e+03
1.260000e-06	3.943204e-06	2.323412e-08	2.835992e+01	1.527578e+03
1.270000e-06	4.011285e-06	2.344776e-08	2.884956e+01	1.541881e+03
1.280000e-06	4.077905e-06	2.365117e-08	2.932871e+01	1.555500e+03
1.290000e-06	4.142875e-06	2.384790e-08	2.979598e+01	1.568473e+03
1.300000e-06	4.206296e-06	2.403736e-08	3.025210e+01	1.580844e+03
1.310000e-06	4.268334e-06	2.421827e-08	3.069829e+01	1.592653e+03
1.320000e-06	4.328980e-06	2.439167e-08	3.113446e+01	1.603937e+03
1.330000e-06	4.388191e-06	2.455645e-08	3.156031e+01	1.614723e+03
1.340000e-06	4.445694e-06	2.471201e-08	3.197388e+01	1.625028e+03
1.350000e-06	4.501457e-06	2.486040e-08	3.237493e+01	1.634859e+03
1.360000e-06	4.555673e-06	2.500166e-08	3.276486e+01	1.644214e+03
1.370000e-06	4.608233e-06	2.513481e-08	3.314288e+01	1.653090e+03
1.380000e-06	4.658806e-06	2.526245e-08	3.350660e+01	1.661485e+03
1.390000e-06	4.707330e-06	2.538555e-08	3.385559e+01	1.669403e+03
1.400000e-06	4.754107e-06	2.550209e-08	3.419201e+01	1.676859e+03
1.410000e-06	4.799276e-06	2.561165e-08	3.451688e+01	1.683876e+03
1.420000e-06	4.842894e-06	2.571359e-08	3.483058e+01	1.690485e+03
1.430000e-06	4.884736e-06	2.580706e-08	3.513152e+01	1.696719e+03
1.440000e-06	4.924718e-06	2.589410e-08	3.541907e+01	1.702610e+03
1.450000e-06	4.963078e-06	2.597633e-08	3.569496e+01	1.708183e+03
1.460000e-06	4.999846e-06	2.605390e-08	3.595940e+01	1.713455e+03
1.470000e-06	5.034939e-06	2.612720e-08	3.621179e+01	1.718430e+03
1.480000e-06	5.068111e-06	2.619748e-08	3.645036e+01	1.723106e+03
1.490000e-06	5.099429e-06	2.626541e-08	3.667561e+01	1.727474e+03
1.500000e-06	5.129092e-06	2.632996e-08	3.688895e+01	1.731524e+03
1.510000e-06	5.157101e-06	2.639010e-08	3.709039e+01	1.735251e+03
1.520000e-06	5.183249e-06	2.644342e-08	3.727845e+01	1.738653e+03
1.530000e-06	5.207297e-06	2.648917e-08	3.745141e+01	1.741737e+03
1.540000e-06	5.229439e-06	2.652984e-08	3.761065e+01	1.744513e+03
1.550000e-06	5.249905e-06	2.656610e-08	3.775785e+01	1.746994e+03
1.560000e-06	5.268647e-06	2.659846e-08	3.789264e+01	1.749192e+03
1.570000e-06	5.285444e-06	2.662796e-08	3.801345e+01	1.751116e+03
1.580000e-06	5.300250e-06	2.665337e-08	3.811993e+01	1.752768e+03
1.590000e-06	5.313082e-06	2.667381e-08	3.821222e+01	1.754149e+03
1.600000e-06	5.323751e-06	2.668997e-08	3.828895e+01	1.755257e+03
1.610000e-06	5.332221e-06	2.670191e-08	3.834987e+01	1.756093e+03
1.620000e-06	5.338771e-06	2.671116e-08	3.839698e+01	1.756664e+03
1.630000e-06	5.343577e-06	2.671932e-08	3.843154e+01	1.756982e+03
1.640000e-06	5.346577e-06	2.672253e-08	3.845312e+01	1.757066e+03
1.650000e-06	5.347533e-06	2.672279e-08	3.846000e+01	1.756938e+03
1.660000e-06	5.346615e-06	2.672118e-08	3.845339e+01	1.756617e+03
1.670000e-06	5.344024e-06	2.670883e-08	3.843476e+01	1.756114e+03
1.680000e-06	5.339789e-06	2.669910e-08	3.840430e+01	1.755430e+03
1.690000e-06	5.333759e-06	2.668846e-08	3.836093e+01	1.754552e+03
1.700000e-06	5.325884e-06	2.667261e-08	3.830429e+01	1.753456e+03
1.710000e-06	5.316430e-06	2.665300e-08	3.823630e+01	1.752116e+03
1.720000e-06	5.305331e-06	2.662817e-08	3.815647e+01	1.750503e+03
1.730000e-06	5.292337e-06	2.662423e-08	3.806302e+01	1.748603e+03
1.740000e-06	5.277250e-06	2.657568e-08	3.795451e+01	1.746418e+03
1.750000e-06	5.260074e-06	2.645270e-08	3.783098e+01	1.743970e+03
1.760000e-06	5.240545e-06	2.645557e-08	3.769052e+01	1.741297e+03
1.770000e-06	5.218394e-06	2.644032e-08	3.753121e+01	1.738452e+03
1.780000e-06	5.194339e-06	2.642268e-08	3.735821e+01	1.735488e+03
1.790000e-06	5.169412e-06	2.648243e-08	3.717893e+01	1.732448e+03
1.800000e-06	5.143629e-06	2.621195e-08	3.699350e+01	1.729355e+03
1.810000e-06	5.116027e-06	2.621823e-08	3.679498e+01	1.726203e+03
1.820000e-06	5.086193e-06	2.634883e-08	3.658041e+01	1.722962e+03
1.830000e-06	5.054671e-06	2.606487e-08	3.635370e+01	1.719575e+03
1.840000e-06	5.021437e-06	2.618788e-08	3.611468e+01	1.715973e+03
1.850000e-06	4.986437e-06	2.624062e-08	3.586296e+01	1.712085e+03
1.860000e-06	4.949925e-06	2.591778e-08	3.560036e+01	1.707850e+03
1.870000e-06	4.911490e-06	2.603327e-08	3.532393e+01	1.703229e+03
1.880000e-06	4.871198e-06	2.593141e-08	3.503415e+01	1.698207e+03
1.890000e-06	4.829246e-06	2.578168e-08	3.473242e+01	1.692792e+03
1.900000e-06	4.785531e-06	2.587938e-08	3.441803e+01	1.687013e+03
1.910000e-06	4.740166e-06	2.555613e-08	3.409175e+01	1.680906e+03
1.920000e-06	4.692876e-06	2.555591e-08	3.375163e+01	1.674504e+03
1.930000e-06	4.643791e-06	2.558828e-08	3.339861e+01	1.667832e+03
1.940000e-06	4.593110e-06	2.534074e-08	3.303411e+01	1.660897e+03
1.950000e-06	4.540466e-06	2.530520e-08	3.265549e+01	1.653687e+03
1.960000e-06	4.485857e-06	2.512247e-08	3.226273e+01	1.646181e+03
1.970000e-06	4.429513e-06	2.505510e-08	3.185751e+01	1.638349e+03
1.980000e-06	4.371578e-06	2.491381e-08	3.144083e+01	1.630165e+03
1.990000e-06	4.312187e-06	2.470609e-08	3.101368e+01	1.621609e+03
2.000000e-06	4.251331e-06	2.473188e-08	3.057600e+01	1.612677e+03
2.010000e-06	4.188877e-06	2.450543e-08	3.012682e+01	1.603374e+03
2.020000e-06	4.124750e-06	2.435457e-08	2.966562e+01	1.593715e+03
2.030000e-06	4.059113e-06	2.418953e-08	2.919355e+01	1.583718e+03
2.040000e-06	3.992123e-06	2.401871e-08	2.871175e+01	1.573393e+03
2.050000e-06	3.923737e-06	2.395452e-08	2.821991e+01	1.562743e+03
2.060000e-06	3.853799e-06	2.369871e-08	2.771691e+01	1.551756e+03
2.070000e-06	3.782388e-06	2.356534e-08	2.720331e+01	1.540408e+03
2.080000e-06	3.709712e-06	2.337105e-08	2.668062e+01	1.528669e+03
2.090000e-06	3.635741e-06	2.316971e-08	2.614861e+01	1.516504e+03
2.100000e-06	3.560419e-06	2.301422e-08	2.560689e+01	1.503882e+03
2.110000e-06	3.483641e-06	2.278813e-08	2.505469e+01	1.490780e+03
2.120000e-06	3.405299e-06	2.261451e-08	2.449125e+01	1.477185e+03
2.130000e-06	3.325685e-06	2.236394e-08	2.391866e+01	1.463090e+03
2.140000e-06	3.244945e-06	2.215932e-08	2.333797e+01	1.448493e+03
2.150000e-06	3.163064e-06	2.192720e-08	2.274907e+01	1.433387e+03
2.160000e-06	3.080154e-06	2.168705e-08	2.215278e+01	1.417760e+03
2.170000e-06	2.996302e-06	2.146754e-08	2.154971e+01	1.401591e+03
2.180000e-06	2.911440e-06	2.119754e-08	2.093937e+01	1.384846e+03
2.190000e-06	2.825334e-06	2.093605e-08	2.032009e+01	1.367483e+03
2.200000e-06	2.738032e-06	2.064802e-08	1.969220e+01	1.349456e+03
2.210000e-06	2.649722e-06	2.037944e-08	1.905707e+01	1.330721e+03
2.220000e-06	2.560526e-06	2.008537e-08	1.841556e+01	1.311236e+03
2.230000e-06	2.470425e-06	1.977162e-08	1.776755e+01	1.290967e+03
2.240000e-06	2.379491e-06	1.944806e-08	1.711354e+01	1.269883e+03
2.250000e-06	2.287913e-06	1.911462e-08	1.645490e+01	1.247955e+03
2.260000e-06	2.195632e-06	1.877789e-08	1.579121e+01	1.225147e+03
2.270000e-06	2.102388e-06	1.841165e-08	1.512058e+01	1.201413e+03
2.280000e-06	2.008102e-06	1.803839e-08	1.444247e+01	1.176696e+03
2.290000e-06	1.912939e-06	1.764401e-08	1.375805e+01	1.150920e+03
2.300000e-06	1.817109e-06	1.723197e-08	1.306883e+01	1.123998e+03
2.310000e-06	1.720760e-06	1.680100e-08	1.237588e+01	1.095833e+03
2.320000e-06	1.623931e-06	1.635444e-08	1.167948e+01	1.066328e+03
2.330000e-06	1.526621e-06	1.588718e-08	1.097962e+01	1.035387e+03
2.340000e-06	1.428762e-06	1.538874e-08	1.027580e+01	1.002923e+03
2.350000e-06	1.330398e-06	1.486256e-08	9.568360e+00	9.688560e+02
2.360000e-06	1.231628e-06	1.431552e-08	8.857991e+00	9.331165e+02
2.370000e-06	1.132558e-06	1.375192e-08	8.145471e+00	8.956406e+02
2.380000e-06	1.033257e-06	1.315811e-08	7.431286e+00	8.563702e+02
2.390000e-06	9.337464e-07	1.253032e-08	6.715598e+00	8.152543e+02
2.400000e-06	8.339874e-07	1.186880e-08	5.998121e+00	7.722536e+02
2.410000e-06	7.339210e-07	1.117968e-08	5.278434e+00	7.273494e+02
2.420000e-06	6.335489e-07	1.046458e-08	4.556547e+00	6.805553e+02
2.430000e-06	5.328490e-07	9.722496e-09	3.832304e+00	6.319295e+02
2.440000e-06	4.319232e-07	8.955089e-09	3.106435e+00	5.815834e+02
2.450000e-06	3.309078e-07	8.165222e-09	2.379922e+00	5.296851e+02
2.460000e-06	2.297402e-07	7.350762e-09	1.652315e+00	4.764531e+02
2.470000e-06	1.283932e-07	6.517940e-09	9.234171e-01	4.221410e+02
2.480000e-06	2.696773e-08	5.676915e-09	1.939546e-01	3.670131e+02
2.490000e-06	-7.450109e-08	4.827790e-09	-5.358194e-01	3.113139e+02
2.500000e-06	-1.759743e-07	3.969216e-09	-1.265625e+00	2.552377e+02
2.510000e-06	-2.773825e-07	3.104574e-09	-1.994963e+00	1.989018e+02
2.520000e-06	-3.786270e-07	2.238078e-09	-2.723124e+00	1.423310e+02
2.530000e-06	-4.797169e-07	1.367981e-09	-3.450172e+00	8.545602e+01
2.540000e-06	-5.806299e-07	4.926909e-10	-4.175949e+00	2.812734e+01
2.550000e-06	-6.812304e-07	-3.928231e-10	-4.899478e+00	-2.985517e+01
2.560000e-06	-7.815462e-07	-1.291536e-09	-5.620959e+00	-8.870200e+01
2.570000e-06	-8.815887e-07	-2.205737e-09	-6.340474e+00	-1.485884e+02
2.580000e-06	-9.812598e-07	-3.137154e-09	-7.057319e+00	-2.096108e+02
2.590000e-06	-1.080580e-06	-4.084741e-09	-7.771643e+00	-2.717518e+02
2.600000e-06	-1.179640e-06	-5.048066e-09	-8.484089e+00	-3.348601e+02
2.610000e-06	-1.278392e-06	-6.022316e-09	-9.194328e+00	-3.986480e+02
2.620000e-06	-1.376679e-06	-7.000481e-09	-9.901212e+00	-4.627066e+02
2.630000e-06	-1.474379e-06	-7.978834e-09	-1.060388e+01	-5.265379e+02
2.640000e-06	-1.571584e-06	-8.946751e-09	-1.130299e+01	-5.895965e+02
2.650000e-06	-1.668368e-06	-9.892994e-09	-1.199907e+01	-6.513367e+02
2.660000e-06	-1.764638e-06	-1.081066e-08	-1.269146e+01	-7.112574e+02
2.670000e-06	-1.860312e-06	-1.169334e-08	-1.337955e+01	-7.689386e+02
2.680000e-06	-1.955254e-06	-1.253777e-08	-1.406239e+01	-8.240666e+02
2.690000e-06	-2.049404e-06	-1.333941e-08	-1.473952e+01	-8.764440e+02
2.700000e-06	-2.142685e-06	-1.409823e-08	-1.541041e+01	-9.259865e+02
2.710000e-06	-2.235011e-06	-1.481695e-08	-1.607443e+01	-9.727078e+02
2.720000e-06	-2.326488e-06	-1.549449e-08	-1.673234e+01	-1.016698e+03
2.730000e-06	-2.417219e-06	-1.613073e-08	-1.738488e+01	-1.058095e+03
2.740000e-06	-2.507118e-06	-1.672967e-08	-1.803144e+01	-1.097065e+03
2.750000e-06	-2.596136e-06	-1.729418e-08	-1.867167e+01	-1.133775e+03
2.760000e-06	-2.684332e-06	-1.782522e-08	-1.930599e+01	-1.168387e+03
2.770000e-06	-2.771669e-06	-1.832405e-08	-1.993412e+01	-1.201042e+03
2.780000e-06	-2.857982e-06	-1.879502e-08	-2.055490e+01	-1.231867e+03
2.790000e-06	-2.943114e-06	-1.924141e-08	-2.116717e+01	-1.260972e+03
2.800000e-06	-3.027127e-06	-1.966245e-08	-2.177140e+01	-1.288461e+03
2.810000e-06	-3.110167e-06	-2.005950e-08	-2.236863e+01	-1.314432e+03
2.820000e-06	-3.192152e-06	-2.043662e-08	-2.295828e+01	-1.338985e+03
2.830000e-06	-3.273043e-06	-2.079519e-08	-2.354006e+01	-1.362220e+03
2.840000e-06	-3.352908e-06	-2.113485e-08	-2.411445e+01	-1.384236e+03
2.850000e-06	-3.431606e-06	-2.145557e-08	-2.468046e+01	-1.405129e+03
2.860000e-06	-3.508865e-06	-2.175863e-08	-2.523611e+01	-1.424987e+03
2.870000e-06	-3.584598e-06	-2.204934e-08	-2.578079e+01	-1.443883e+03
2.880000e-06	-3.658918e-06	-2.232717e-08	-2.631531e+01	-1.461881e+03
2.890000e-06	-3.731935e-06	-2.258993e-08	-2.684045e+01	-1.479030e+03
2.900000e-06	-3.803648e-06	-2.283931e-08	-2.735622e+01	-1.495369e+03
2.910000e-06	-3.873967e-06	-2.307848e-08	-2.786196e+01	-1.510931e+03
2.920000e-06	-3.942778e-06	-2.330936e-08	-2.835685e+01	-1.525748e+03
2.930000e-06	-4.010135e-06	-2.352934e-08	-2.884130e+01	-1.539853e+03
2.940000e-06	-4.076150e-06	-2.373754e-08	-2.931608e+01	-1.553284e+03
