# Temperatura_=_48.14
# Concentracion g/m^3_=_28200.0
# C_Vs_to_Am_M_A/Vsm_=_65563218390.804596
# pendiente_HvsI_1/m_=_3716.3
# ordenada_HvsI_A/m_=_1297.0
# frecuencia_Hz_=_301773.30551517865

Tiempo_(s)	Campo_(V.s)	Magnetizacion_(V.s)	Campo_(kA/m)	Magnetizacion_(A/m)
0.000000e+00	-5.326072e-06	-2.049131e-08	-3.829628e+01	-1.340350e+03
1.000000e-08	-5.324228e-06	-2.048748e-08	-3.828302e+01	-1.340045e+03
2.000000e-08	-5.320514e-06	-2.047648e-08	-3.825631e+01	-1.339617e+03
3.000000e-08	-5.315184e-06	-2.046321e-08	-3.821799e+01	-1.339061e+03
4.000000e-08	-5.308269e-06	-2.045155e-08	-3.816827e+01	-1.338356e+03
5.000000e-08	-5.299654e-06	-2.043607e-08	-3.810632e+01	-1.337480e+03
6.000000e-08	-5.289053e-06	-2.041716e-08	-3.803009e+01	-1.336407e+03
7.000000e-08	-5.276525e-06	-2.039363e-08	-3.794001e+01	-1.335120e+03
8.000000e-08	-5.262002e-06	-2.036374e-08	-3.783559e+01	-1.333617e+03
9.000000e-08	-5.245250e-06	-2.038450e-08	-3.771514e+01	-1.331908e+03
1.000000e-07	-5.226408e-06	-2.038814e-08	-3.757966e+01	-1.330020e+03
1.100000e-07	-5.205665e-06	-2.031072e-08	-3.743051e+01	-1.327992e+03
1.200000e-07	-5.183134e-06	-2.025987e-08	-3.726850e+01	-1.325863e+03
1.300000e-07	-5.159028e-06	-2.019117e-08	-3.709517e+01	-1.323670e+03
1.400000e-07	-5.133307e-06	-2.010109e-08	-3.691023e+01	-1.321435e+03
1.500000e-07	-5.105955e-06	-2.019924e-08	-3.671356e+01	-1.319162e+03
1.600000e-07	-5.077114e-06	-2.014661e-08	-3.650618e+01	-1.316833e+03
1.700000e-07	-5.046830e-06	-2.000363e-08	-3.628843e+01	-1.314414e+03
1.800000e-07	-5.014853e-06	-2.009168e-08	-3.605850e+01	-1.311857e+03
1.900000e-07	-4.980807e-06	-1.998078e-08	-3.581370e+01	-1.309108e+03
2.000000e-07	-4.945094e-06	-1.987800e-08	-3.555691e+01	-1.306121e+03
2.100000e-07	-4.907841e-06	-1.995925e-08	-3.528905e+01	-1.302859e+03
2.200000e-07	-4.868797e-06	-1.983064e-08	-3.500831e+01	-1.299304e+03
2.300000e-07	-4.827959e-06	-1.972687e-08	-3.471467e+01	-1.295453e+03
2.400000e-07	-4.785147e-06	-1.970715e-08	-3.440684e+01	-1.291319e+03
2.500000e-07	-4.740496e-06	-1.959570e-08	-3.408578e+01	-1.286923e+03
2.600000e-07	-4.694133e-06	-1.958190e-08	-3.375242e+01	-1.282289e+03
2.700000e-07	-4.645887e-06	-1.951416e-08	-3.340551e+01	-1.277439e+03
2.800000e-07	-4.595554e-06	-1.937325e-08	-3.304360e+01	-1.272382e+03
2.900000e-07	-4.543212e-06	-1.928083e-08	-3.266725e+01	-1.267119e+03
3.000000e-07	-4.489129e-06	-1.921774e-08	-3.227837e+01	-1.261640e+03
3.100000e-07	-4.433413e-06	-1.915945e-08	-3.187775e+01	-1.255929e+03
3.200000e-07	-4.375923e-06	-1.906034e-08	-3.146438e+01	-1.249965e+03
3.300000e-07	-4.316698e-06	-1.896782e-08	-3.103853e+01	-1.243732e+03
3.400000e-07	-4.256006e-06	-1.885425e-08	-3.060213e+01	-1.237218e+03
3.500000e-07	-4.193841e-06	-1.872191e-08	-3.015515e+01	-1.230417e+03
3.600000e-07	-4.130295e-06	-1.862534e-08	-2.969823e+01	-1.223332e+03
3.700000e-07	-4.065230e-06	-1.853428e-08	-2.923039e+01	-1.215969e+03
3.800000e-07	-3.998530e-06	-1.844419e-08	-2.875080e+01	-1.208337e+03
3.900000e-07	-3.930396e-06	-1.830593e-08	-2.826089e+01	-1.200440e+03
4.000000e-07	-3.860898e-06	-1.814462e-08	-2.776117e+01	-1.192279e+03
4.100000e-07	-3.790185e-06	-1.802997e-08	-2.725273e+01	-1.183846e+03
4.200000e-07	-3.718328e-06	-1.790307e-08	-2.673605e+01	-1.175127e+03
4.300000e-07	-3.644998e-06	-1.776853e-08	-2.620878e+01	-1.166100e+03
4.400000e-07	-3.570029e-06	-1.762348e-08	-2.566973e+01	-1.156742e+03
4.500000e-07	-3.493648e-06	-1.746409e-08	-2.512052e+01	-1.147027e+03
4.600000e-07	-3.415907e-06	-1.729792e-08	-2.456154e+01	-1.136931e+03
4.700000e-07	-3.336757e-06	-1.714219e-08	-2.399242e+01	-1.126434e+03
4.800000e-07	-3.256331e-06	-1.699684e-08	-2.341413e+01	-1.115520e+03
4.900000e-07	-3.174714e-06	-1.681983e-08	-2.282728e+01	-1.104175e+03
5.000000e-07	-3.092014e-06	-1.663353e-08	-2.223264e+01	-1.092389e+03
5.100000e-07	-3.008399e-06	-1.644230e-08	-2.163142e+01	-1.080151e+03
5.200000e-07	-2.923934e-06	-1.624233e-08	-2.102408e+01	-1.067449e+03
5.300000e-07	-2.838520e-06	-1.603750e-08	-2.040993e+01	-1.054266e+03
5.400000e-07	-2.752081e-06	-1.582937e-08	-1.978840e+01	-1.040581e+03
5.500000e-07	-2.664784e-06	-1.561375e-08	-1.916071e+01	-1.026368e+03
5.600000e-07	-2.576600e-06	-1.537973e-08	-1.852663e+01	-1.011594e+03
5.700000e-07	-2.487273e-06	-1.513989e-08	-1.788434e+01	-9.962230e+02
5.800000e-07	-2.396785e-06	-1.489815e-08	-1.723370e+01	-9.802148e+02
5.900000e-07	-2.305344e-06	-1.464925e-08	-1.657621e+01	-9.635268e+02
6.000000e-07	-2.213135e-06	-1.438312e-08	-1.591320e+01	-9.461153e+02
6.100000e-07	-2.120205e-06	-1.409944e-08	-1.524500e+01	-9.279368e+02
6.200000e-07	-2.026476e-06	-1.380494e-08	-1.457106e+01	-9.089477e+02
6.300000e-07	-1.931970e-06	-1.350041e-08	-1.389152e+01	-8.891051e+02
6.400000e-07	-1.836857e-06	-1.318551e-08	-1.320763e+01	-8.683652e+02
6.500000e-07	-1.741192e-06	-1.285541e-08	-1.251977e+01	-8.466827e+02
6.600000e-07	-1.644898e-06	-1.250665e-08	-1.182737e+01	-8.240086e+02
6.700000e-07	-1.547877e-06	-1.213956e-08	-1.112977e+01	-8.002891e+02
6.800000e-07	-1.450124e-06	-1.175722e-08	-1.042689e+01	-7.754648e+02
6.900000e-07	-1.351707e-06	-1.136052e-08	-9.719237e+00	-7.494708e+02
7.000000e-07	-1.252752e-06	-1.094800e-08	-9.007716e+00	-7.222389e+02
7.100000e-07	-1.153459e-06	-1.051468e-08	-8.293763e+00	-6.937017e+02
7.200000e-07	-1.053897e-06	-1.005540e-08	-7.577876e+00	-6.637987e+02
7.300000e-07	-9.539959e-07	-9.570776e-09	-6.859556e+00	-6.324841e+02
7.400000e-07	-8.538601e-07	-9.068665e-09	-6.139546e+00	-5.997349e+02
7.500000e-07	-7.535139e-07	-8.552906e-09	-5.418022e+00	-5.655595e+02
7.600000e-07	-6.528815e-07	-8.016372e-09	-4.694441e+00	-5.300039e+02
7.700000e-07	-5.520397e-07	-7.457069e-09	-3.969354e+00	-4.931549e+02
7.800000e-07	-4.510201e-07	-6.879297e-09	-3.242989e+00	-4.551397e+02
7.900000e-07	-3.498831e-07	-6.286291e-09	-2.515779e+00	-4.161207e+02
8.000000e-07	-2.486305e-07	-5.678548e-09	-1.787738e+00	-3.762848e+02
8.100000e-07	-1.471910e-07	-5.061905e-09	-1.058354e+00	-3.358301e+02
8.200000e-07	-4.564779e-08	-4.440174e-09	-3.282232e-01	-2.949488e+02
8.300000e-07	5.593166e-08	-3.813294e-09	4.021677e-01	-2.538098e+02
8.400000e-07	1.575359e-07	-3.183755e-09	1.132737e+00	-2.125430e+02
8.500000e-07	2.591238e-07	-2.555926e-09	1.863188e+00	-1.712266e+02
8.600000e-07	3.606129e-07	-1.930759e-09	2.592930e+00	-1.298800e+02
8.700000e-07	4.619853e-07	-1.302770e-09	3.321832e+00	-8.846342e+01
8.800000e-07	5.632052e-07	-6.699682e-10	4.049638e+00	-4.688461e+01
8.900000e-07	6.641752e-07	-3.060908e-11	4.775646e+00	-5.012673e+00
9.000000e-07	7.649375e-07	6.172338e-10	5.500162e+00	3.730270e+01
9.100000e-07	8.655028e-07	1.273299e-09	6.223260e+00	8.020832e+01
9.200000e-07	9.657718e-07	1.935688e-09	6.944229e+00	1.238234e+02
9.300000e-07	1.065711e-06	2.606580e-09	7.662824e+00	1.682173e+02
9.400000e-07	1.165367e-06	3.290956e-09	8.379385e+00	2.133917e+02
9.500000e-07	1.264722e-06	3.987089e-09	9.093785e+00	2.592694e+02
9.600000e-07	1.363677e-06	4.690958e-09	9.805303e+00	3.056918e+02
9.700000e-07	1.462042e-06	5.401711e-09	1.051258e+01	3.524247e+02
9.800000e-07	1.559605e-06	6.113580e-09	1.121409e+01	3.991726e+02
9.900000e-07	1.656367e-06	6.820506e-09	1.190985e+01	4.455997e+02
1.000000e-06	1.752430e-06	7.517319e-09	1.260057e+01	4.913545e+02
1.010000e-06	1.847864e-06	8.197105e-09	1.328677e+01	5.360962e+02
1.020000e-06	1.942684e-06	8.855116e-09	1.396856e+01	5.795181e+02
1.030000e-06	2.036803e-06	9.488438e-09	1.464531e+01	6.213670e+02
1.040000e-06	2.130145e-06	1.009295e-08	1.531647e+01	6.614556e+02
1.050000e-06	2.222769e-06	1.066846e-08	1.598247e+01	6.996668e+02
1.060000e-06	2.314772e-06	1.121669e-08	1.664400e+01	7.359509e+02
1.070000e-06	2.406167e-06	1.173844e-08	1.730116e+01	7.703165e+02
1.080000e-06	2.496755e-06	1.223180e-08	1.795252e+01	8.028171e+02
1.090000e-06	2.586140e-06	1.269907e-08	1.859523e+01	8.335362e+02
1.100000e-06	2.674339e-06	1.314130e-08	1.922941e+01	8.625726e+02
1.110000e-06	2.761620e-06	1.355920e-08	1.985699e+01	8.900289e+02
1.120000e-06	2.847972e-06	1.395323e-08	2.047789e+01	9.160026e+02
1.130000e-06	2.933407e-06	1.432463e-08	2.109220e+01	9.405825e+02
1.140000e-06	3.017949e-06	1.467656e-08	2.170009e+01	9.638476e+02
1.150000e-06	3.101599e-06	1.501139e-08	2.230155e+01	9.858688e+02
1.160000e-06	3.184264e-06	1.533020e-08	2.289594e+01	1.006712e+03
1.170000e-06	3.265669e-06	1.563087e-08	2.348128e+01	1.026440e+03
1.180000e-06	3.345849e-06	1.591437e-08	2.405780e+01	1.045116e+03
1.190000e-06	3.424894e-06	1.618063e-08	2.462615e+01	1.062803e+03
1.200000e-06	3.502735e-06	1.643252e-08	2.518586e+01	1.079563e+03
1.210000e-06	3.579375e-06	1.667142e-08	2.573693e+01	1.095458e+03
1.220000e-06	3.654722e-06	1.689960e-08	2.627870e+01	1.110543e+03
1.230000e-06	3.728503e-06	1.711761e-08	2.680921e+01	1.124872e+03
1.240000e-06	3.800664e-06	1.732632e-08	2.732807e+01	1.138490e+03
1.250000e-06	3.871389e-06	1.752411e-08	2.783661e+01	1.151440e+03
1.260000e-06	3.940759e-06	1.770867e-08	2.833540e+01	1.163759e+03
1.270000e-06	4.008870e-06	1.788263e-08	2.882514e+01	1.175480e+03
1.280000e-06	4.075594e-06	1.804932e-08	2.930491e+01	1.186634e+03
1.290000e-06	4.140663e-06	1.821158e-08	2.977278e+01	1.197247e+03
1.300000e-06	4.204151e-06	1.836773e-08	3.022928e+01	1.207343e+03
1.310000e-06	4.266193e-06	1.851534e-08	3.067538e+01	1.216941e+03
1.320000e-06	4.326873e-06	1.865561e-08	3.111169e+01	1.226057e+03
1.330000e-06	4.386224e-06	1.878912e-08	3.153845e+01	1.234700e+03
1.340000e-06	4.443912e-06	1.891553e-08	3.195324e+01	1.242881e+03
1.350000e-06	4.499771e-06	1.903507e-08	3.235489e+01	1.250608e+03
1.360000e-06	4.554009e-06	1.914653e-08	3.274488e+01	1.257889e+03
1.370000e-06	4.606611e-06	1.924789e-08	3.312310e+01	1.264743e+03
1.380000e-06	4.657291e-06	1.934148e-08	3.348751e+01	1.271189e+03
1.390000e-06	4.705919e-06	1.943065e-08	3.383716e+01	1.277257e+03
1.400000e-06	4.752751e-06	1.951619e-08	3.417391e+01	1.282981e+03
1.410000e-06	4.798046e-06	1.959991e-08	3.449959e+01	1.288395e+03
1.420000e-06	4.841848e-06	1.968152e-08	3.481454e+01	1.293534e+03
1.430000e-06	4.883883e-06	1.975736e-08	3.511679e+01	1.298425e+03
1.440000e-06	4.924051e-06	1.982818e-08	3.540561e+01	1.303083e+03
1.450000e-06	4.962512e-06	1.989588e-08	3.568216e+01	1.307517e+03
1.460000e-06	4.999362e-06	1.995932e-08	3.594712e+01	1.311720e+03
1.470000e-06	5.034560e-06	2.001807e-08	3.620020e+01	1.315683e+03
1.480000e-06	5.067839e-06	2.007308e-08	3.643949e+01	1.319391e+03
1.490000e-06	5.099270e-06	2.012296e-08	3.666549e+01	1.322830e+03
1.500000e-06	5.129000e-06	2.016850e-08	3.687926e+01	1.325995e+03
1.510000e-06	5.157059e-06	2.021264e-08	3.708101e+01	1.328885e+03
1.520000e-06	5.183266e-06	2.025423e-08	3.726945e+01	1.331510e+03
1.530000e-06	5.207416e-06	2.029148e-08	3.744310e+01	1.333884e+03
1.540000e-06	5.229675e-06	2.032419e-08	3.760315e+01	1.336025e+03
1.550000e-06	5.250257e-06	2.035340e-08	3.775114e+01	1.337948e+03
1.560000e-06	5.269114e-06	2.037740e-08	3.788672e+01	1.339662e+03
1.570000e-06	5.285984e-06	2.039666e-08	3.800803e+01	1.341172e+03
1.580000e-06	5.300824e-06	2.041393e-08	3.811474e+01	1.342475e+03
1.590000e-06	5.313737e-06	2.042892e-08	3.820758e+01	1.343566e+03
1.600000e-06	5.324544e-06	2.044183e-08	3.828529e+01	1.344439e+03
1.610000e-06	5.333150e-06	2.045257e-08	3.834717e+01	1.345093e+03
1.620000e-06	5.339799e-06	2.046178e-08	3.839498e+01	1.345535e+03
1.630000e-06	5.344680e-06	2.046903e-08	3.843007e+01	1.345780e+03
1.640000e-06	5.347766e-06	2.047344e-08	3.845226e+01	1.345847e+03
1.650000e-06	5.348842e-06	2.047613e-08	3.846000e+01	1.345760e+03
1.660000e-06	5.348013e-06	2.047264e-08	3.845404e+01	1.345538e+03
1.670000e-06	5.345522e-06	2.046367e-08	3.843613e+01	1.345192e+03
1.680000e-06	5.341403e-06	2.045736e-08	3.840651e+01	1.344724e+03
1.690000e-06	5.335422e-06	2.044875e-08	3.836351e+01	1.344121e+03
1.700000e-06	5.327550e-06	2.043532e-08	3.830690e+01	1.343363e+03
1.710000e-06	5.318056e-06	2.042084e-08	3.823864e+01	1.342425e+03
1.720000e-06	5.306975e-06	2.041185e-08	3.815896e+01	1.341284e+03
1.730000e-06	5.294101e-06	2.041769e-08	3.806639e+01	1.339927e+03
1.740000e-06	5.279230e-06	2.035008e-08	3.795946e+01	1.338355e+03
1.750000e-06	5.262220e-06	2.027473e-08	3.783716e+01	1.336584e+03
1.760000e-06	5.242757e-06	2.028883e-08	3.769721e+01	1.334645e+03
1.770000e-06	5.220692e-06	2.027016e-08	3.753856e+01	1.332579e+03
1.780000e-06	5.196726e-06	2.031010e-08	3.736623e+01	1.330426e+03
1.790000e-06	5.171889e-06	2.027704e-08	3.718765e+01	1.328217e+03
1.800000e-06	5.146192e-06	2.007429e-08	3.700288e+01	1.325969e+03
1.810000e-06	5.118672e-06	2.016121e-08	3.680500e+01	1.323680e+03
1.820000e-06	5.089048e-06	2.015998e-08	3.659199e+01	1.321327e+03
1.830000e-06	5.057747e-06	1.998975e-08	3.636693e+01	1.318868e+03
1.840000e-06	5.024556e-06	2.013807e-08	3.612827e+01	1.316253e+03
1.850000e-06	4.989579e-06	2.005410e-08	3.587677e+01	1.313432e+03
1.860000e-06	4.953119e-06	1.986717e-08	3.561462e+01	1.310359e+03
1.870000e-06	4.914700e-06	1.995472e-08	3.533837e+01	1.307003e+03
1.880000e-06	4.874460e-06	1.983366e-08	3.504903e+01	1.303352e+03
1.890000e-06	4.832549e-06	1.981280e-08	3.474768e+01	1.299407e+03
1.900000e-06	4.788881e-06	1.980696e-08	3.443369e+01	1.295185e+03
1.910000e-06	4.743593e-06	1.957395e-08	3.410805e+01	1.290709e+03
1.920000e-06	4.696370e-06	1.963885e-08	3.376851e+01	1.286003e+03
1.930000e-06	4.647367e-06	1.961070e-08	3.341615e+01	1.281085e+03
1.940000e-06	4.596761e-06	1.946556e-08	3.305228e+01	1.275961e+03
1.950000e-06	4.544161e-06	1.940936e-08	3.267407e+01	1.270629e+03
1.960000e-06	4.489543e-06	1.927832e-08	3.228134e+01	1.265077e+03
1.970000e-06	4.433154e-06	1.924094e-08	3.187589e+01	1.259286e+03
1.980000e-06	4.375134e-06	1.909230e-08	3.145870e+01	1.253237e+03
1.990000e-06	4.315673e-06	1.899913e-08	3.103116e+01	1.246913e+03
2.000000e-06	4.254849e-06	1.900271e-08	3.059382e+01	1.240306e+03
2.010000e-06	4.192416e-06	1.883287e-08	3.014490e+01	1.233413e+03
2.020000e-06	4.128268e-06	1.871478e-08	2.968366e+01	1.226237e+03
2.030000e-06	4.062660e-06	1.856765e-08	2.921191e+01	1.218785e+03
2.040000e-06	3.995739e-06	1.848354e-08	2.873073e+01	1.211067e+03
2.050000e-06	3.927448e-06	1.840347e-08	2.823969e+01	1.203084e+03
2.060000e-06	3.857614e-06	1.822359e-08	2.773756e+01	1.194836e+03
2.070000e-06	3.786253e-06	1.812917e-08	2.722445e+01	1.186312e+03
2.080000e-06	3.713655e-06	1.797065e-08	2.670245e+01	1.177496e+03
2.090000e-06	3.639762e-06	1.783247e-08	2.617113e+01	1.168365e+03
2.100000e-06	3.564442e-06	1.770713e-08	2.562956e+01	1.158894e+03
2.110000e-06	3.487693e-06	1.755868e-08	2.507771e+01	1.149058e+03
2.120000e-06	3.409410e-06	1.741260e-08	2.451482e+01	1.138834e+03
2.130000e-06	3.329796e-06	1.721945e-08	2.394237e+01	1.128204e+03
2.140000e-06	3.249072e-06	1.706459e-08	2.336193e+01	1.117152e+03
2.150000e-06	3.167235e-06	1.688329e-08	2.277350e+01	1.105665e+03
2.160000e-06	3.084351e-06	1.670828e-08	2.217753e+01	1.093734e+03
2.170000e-06	3.000580e-06	1.653626e-08	2.157519e+01	1.081348e+03
2.180000e-06	2.915770e-06	1.633953e-08	2.096538e+01	1.068492e+03
2.190000e-06	2.829620e-06	1.613486e-08	2.034594e+01	1.055150e+03
2.200000e-06	2.742256e-06	1.591406e-08	1.971776e+01	1.041297e+03
2.210000e-06	2.653889e-06	1.571104e-08	1.908237e+01	1.026907e+03
2.220000e-06	2.564687e-06	1.548623e-08	1.844097e+01	1.011944e+03
2.230000e-06	2.474656e-06	1.524529e-08	1.779362e+01	9.963722e+02
2.240000e-06	2.383758e-06	1.499312e-08	1.714004e+01	9.801493e+02
2.250000e-06	2.292197e-06	1.474033e-08	1.648168e+01	9.632327e+02
2.260000e-06	2.200023e-06	1.447801e-08	1.581891e+01	9.455785e+02
2.270000e-06	2.107008e-06	1.419459e-08	1.515011e+01	9.271433e+02
2.280000e-06	2.012904e-06	1.390558e-08	1.447347e+01	9.078837e+02
2.290000e-06	1.917800e-06	1.359964e-08	1.378964e+01	8.877567e+02
2.300000e-06	1.821957e-06	1.327797e-08	1.310049e+01	8.667180e+02
2.310000e-06	1.725523e-06	1.293943e-08	1.240710e+01	8.447214e+02
2.320000e-06	1.628605e-06	1.259153e-08	1.171023e+01	8.217165e+02
2.330000e-06	1.531226e-06	1.223029e-08	1.101004e+01	7.976479e+02
2.340000e-06	1.433337e-06	1.184872e-08	1.030618e+01	7.724540e+02
2.350000e-06	1.334930e-06	1.144540e-08	9.598605e+00	7.460687e+02
2.360000e-06	1.236064e-06	1.102499e-08	8.887723e+00	7.184236e+02
2.370000e-06	1.136869e-06	1.058961e-08	8.174477e+00	6.894526e+02
2.380000e-06	1.037457e-06	1.013197e-08	7.459667e+00	6.590990e+02
2.390000e-06	9.378166e-07	9.647678e-09	6.743221e+00	6.273236e+02
2.400000e-06	8.379496e-07	9.134745e-09	6.025144e+00	5.941125e+02
2.410000e-06	7.378637e-07	8.600814e-09	5.305492e+00	5.594857e+02
2.420000e-06	6.375525e-07	8.047758e-09	4.584220e+00	5.235020e+02
2.430000e-06	5.369998e-07	7.478992e-09	3.861212e+00	4.862616e+02
2.440000e-06	4.362175e-07	6.897326e-09	3.136552e+00	4.479038e+02
2.450000e-06	3.352688e-07	6.300773e-09	2.410697e+00	4.086001e+02
2.460000e-06	2.342098e-07	5.687700e-09	1.684049e+00	3.685428e+02
2.470000e-06	1.329723e-07	5.064424e-09	9.561163e-01	3.279298e+02
2.480000e-06	3.152832e-08	4.437751e-09	2.266994e-01	2.869480e+02
2.490000e-06	-6.994165e-08	3.808201e-09	-5.029043e-01	2.457551e+02
2.500000e-06	-1.713139e-07	3.176589e-09	-1.231805e+00	2.044658e+02
2.510000e-06	-2.725207e-07	2.544112e-09	-1.959517e+00	1.631396e+02
2.520000e-06	-3.735781e-07	1.912069e-09	-2.686154e+00	1.217767e+02
2.530000e-06	-4.745936e-07	1.278575e-09	-3.412490e+00	8.031933e+01
2.540000e-06	-5.754761e-07	6.435392e-10	-4.137870e+00	3.866108e+01
2.550000e-06	-6.760934e-07	4.703578e-12	-4.861342e+00	-3.337550e+00
2.560000e-06	-7.764009e-07	-6.434283e-10	-5.582588e+00	-4.582835e+01
2.570000e-06	-8.763885e-07	-1.302730e-09	-6.301533e+00	-8.895185e+01
2.580000e-06	-9.761225e-07	-1.974456e-09	-7.018654e+00	-1.328135e+02
2.590000e-06	-1.075641e-06	-2.659694e-09	-7.734224e+00	-1.774626e+02
2.600000e-06	-1.174860e-06	-3.357052e-09	-8.447645e+00	-2.228763e+02
2.610000e-06	-1.273686e-06	-4.063085e-09	-9.158240e+00	-2.689511e+02
2.620000e-06	-1.372049e-06	-4.774314e-09	-9.865502e+00	-3.155030e+02
2.630000e-06	-1.469879e-06	-5.490115e-09	-1.056894e+01	-3.622762e+02
2.640000e-06	-1.567127e-06	-6.203192e-09	-1.126817e+01	-4.089598e+02
2.650000e-06	-1.663836e-06	-6.908748e-09	-1.196355e+01	-4.552100e+02
2.660000e-06	-1.760107e-06	-7.605366e-09	-1.265577e+01	-5.006760e+02
2.670000e-06	-1.855866e-06	-8.286299e-09	-1.334431e+01	-5.450255e+02
2.680000e-06	-1.950968e-06	-8.945930e-09	-1.402812e+01	-5.879673e+02
2.690000e-06	-2.045213e-06	-9.579384e-09	-1.470578e+01	-6.292683e+02
2.700000e-06	-2.138447e-06	-1.018703e-08	-1.537616e+01	-6.687638e+02
2.710000e-06	-2.230791e-06	-1.076799e-08	-1.604015e+01	-7.063588e+02
2.720000e-06	-2.322398e-06	-1.131732e-08	-1.669883e+01	-7.420237e+02
2.730000e-06	-2.413199e-06	-1.183522e-08	-1.735172e+01	-7.757831e+02
2.740000e-06	-2.503073e-06	-1.232424e-08	-1.799795e+01	-8.077018e+02
2.750000e-06	-2.592022e-06	-1.278640e-08	-1.863753e+01	-8.378698e+02
2.760000e-06	-2.680223e-06	-1.322167e-08	-1.927172e+01	-8.663881e+02
2.770000e-06	-2.767700e-06	-1.363237e-08	-1.990071e+01	-8.933584e+02
2.780000e-06	-2.854083e-06	-1.402465e-08	-2.052183e+01	-9.188758e+02
2.790000e-06	-2.939190e-06	-1.439832e-08	-2.113378e+01	-9.430258e+02
2.800000e-06	-3.023261e-06	-1.475006e-08	-2.173828e+01	-9.658845e+02
2.810000e-06	-3.106415e-06	-1.508102e-08	-2.233619e+01	-9.875208e+02
2.820000e-06	-3.188523e-06	-1.539414e-08	-2.292657e+01	-1.007999e+03
2.830000e-06	-3.269525e-06	-1.569092e-08	-2.350900e+01	-1.027383e+03
2.840000e-06	-3.349538e-06	-1.597198e-08	-2.408432e+01	-1.045735e+03
2.850000e-06	-3.428349e-06	-1.623751e-08	-2.465100e+01	-1.063119e+03
2.860000e-06	-3.505600e-06	-1.648905e-08	-2.520646e+01	-1.079595e+03
2.870000e-06	-3.581374e-06	-1.672943e-08	-2.575130e+01	-1.095224e+03
2.880000e-06	-3.655780e-06	-1.695912e-08	-2.628630e+01	-1.110062e+03
2.890000e-06	-3.728860e-06	-1.717861e-08	-2.681177e+01	-1.124158e+03
2.900000e-06	-3.800706e-06	-1.738781e-08	-2.732838e+01	-1.137559e+03
2.910000e-06	-3.871092e-06	-1.758411e-08	-2.783448e+01	-1.150303e+03
2.920000e-06	-3.939879e-06	-1.776883e-08	-2.832907e+01	-1.162427e+03
2.930000e-06	-4.007257e-06	-1.794463e-08	-2.881355e+01	-1.173964e+03
2.940000e-06	-4.073310e-06	-1.811194e-08	-2.928849e+01	-1.184941e+03
