# Temperatura_=_65.1
# Concentracion g/m^3_=_28200.0
# C_Vs_to_Am_M_A/Vsm_=_65563218390.804596
# pendiente_HvsI_1/m_=_3716.3
# ordenada_HvsI_A/m_=_1297.0
# frecuencia_Hz_=_301764.39537539176

Tiempo_(s)	Campo_(V.s)	Magnetizacion_(V.s)	Campo_(kA/m)	Magnetizacion_(A/m)
0.000000e+00	-5.340524e-06	-2.193338e-08	-3.829886e+01	-1.434169e+03
1.000000e-08	-5.338369e-06	-2.193187e-08	-3.828341e+01	-1.433783e+03
2.000000e-08	-5.334354e-06	-2.191921e-08	-3.825462e+01	-1.433263e+03
3.000000e-08	-5.328725e-06	-2.190326e-08	-3.821425e+01	-1.432605e+03
4.000000e-08	-5.321514e-06	-2.188808e-08	-3.816254e+01	-1.431793e+03
5.000000e-08	-5.312590e-06	-2.186980e-08	-3.809854e+01	-1.430799e+03
6.000000e-08	-5.301629e-06	-2.184817e-08	-3.801993e+01	-1.429594e+03
7.000000e-08	-5.288747e-06	-2.181613e-08	-3.792755e+01	-1.428154e+03
8.000000e-08	-5.273910e-06	-2.178169e-08	-3.782115e+01	-1.426468e+03
9.000000e-08	-5.256815e-06	-2.183148e-08	-3.769856e+01	-1.424547e+03
1.000000e-07	-5.237645e-06	-2.183335e-08	-3.756108e+01	-1.422422e+03
1.100000e-07	-5.216584e-06	-2.173098e-08	-3.741005e+01	-1.420140e+03
1.200000e-07	-5.193676e-06	-2.168950e-08	-3.724576e+01	-1.417753e+03
1.300000e-07	-5.169210e-06	-2.158582e-08	-3.707031e+01	-1.415312e+03
1.400000e-07	-5.143197e-06	-2.147287e-08	-3.688376e+01	-1.412849e+03
1.500000e-07	-5.115538e-06	-2.164550e-08	-3.668541e+01	-1.410371e+03
1.600000e-07	-5.086369e-06	-2.152162e-08	-3.647622e+01	-1.407859e+03
1.700000e-07	-5.055770e-06	-2.136404e-08	-3.625679e+01	-1.405265e+03
1.800000e-07	-5.023364e-06	-2.153144e-08	-3.602440e+01	-1.402524e+03
1.900000e-07	-4.988840e-06	-2.132776e-08	-3.577681e+01	-1.399562e+03
2.000000e-07	-4.952760e-06	-2.125296e-08	-3.551806e+01	-1.396314e+03
2.100000e-07	-4.915128e-06	-2.138548e-08	-3.524819e+01	-1.392728e+03
2.200000e-07	-4.875691e-06	-2.116956e-08	-3.496538e+01	-1.388782e+03
2.300000e-07	-4.834443e-06	-2.106516e-08	-3.466957e+01	-1.384475e+03
2.400000e-07	-4.791197e-06	-2.103600e-08	-3.435944e+01	-1.379833e+03
2.500000e-07	-4.746136e-06	-2.089424e-08	-3.403629e+01	-1.374894e+03
2.600000e-07	-4.699308e-06	-2.093958e-08	-3.370047e+01	-1.369701e+03
2.700000e-07	-4.650467e-06	-2.085733e-08	-3.335021e+01	-1.364290e+03
2.800000e-07	-4.599517e-06	-2.067964e-08	-3.298483e+01	-1.358682e+03
2.900000e-07	-4.546570e-06	-2.057307e-08	-3.260513e+01	-1.352879e+03
3.000000e-07	-4.491906e-06	-2.050454e-08	-3.221311e+01	-1.346866e+03
3.100000e-07	-4.435734e-06	-2.044020e-08	-3.181028e+01	-1.340616e+03
3.200000e-07	-4.377788e-06	-2.033850e-08	-3.139473e+01	-1.334095e+03
3.300000e-07	-4.318133e-06	-2.025770e-08	-3.096692e+01	-1.327275e+03
3.400000e-07	-4.257042e-06	-2.011203e-08	-3.052882e+01	-1.320137e+03
3.500000e-07	-4.194499e-06	-1.995599e-08	-3.008030e+01	-1.312674e+03
3.600000e-07	-4.130590e-06	-1.984775e-08	-2.962198e+01	-1.304892e+03
3.700000e-07	-4.065132e-06	-1.974533e-08	-2.915256e+01	-1.296804e+03
3.800000e-07	-3.998050e-06	-1.966586e-08	-2.867149e+01	-1.288428e+03
3.900000e-07	-3.929511e-06	-1.951375e-08	-2.817997e+01	-1.279776e+03
4.000000e-07	-3.859645e-06	-1.933093e-08	-2.767893e+01	-1.270850e+03
4.100000e-07	-3.788600e-06	-1.920523e-08	-2.716945e+01	-1.261641e+03
4.200000e-07	-3.716295e-06	-1.906186e-08	-2.665092e+01	-1.252130e+03
4.300000e-07	-3.642443e-06	-1.891671e-08	-2.612130e+01	-1.242288e+03
4.400000e-07	-3.566986e-06	-1.875777e-08	-2.558017e+01	-1.232084e+03
4.500000e-07	-3.490151e-06	-1.858899e-08	-2.502916e+01	-1.221488e+03
4.600000e-07	-3.412026e-06	-1.840871e-08	-2.446890e+01	-1.210475e+03
4.700000e-07	-3.332470e-06	-1.823908e-08	-2.389837e+01	-1.199029e+03
4.800000e-07	-3.251581e-06	-1.807902e-08	-2.331828e+01	-1.187141e+03
4.900000e-07	-3.169520e-06	-1.787867e-08	-2.272980e+01	-1.174806e+03
5.000000e-07	-3.086442e-06	-1.767729e-08	-2.213401e+01	-1.162020e+03
5.100000e-07	-3.002504e-06	-1.747183e-08	-2.153206e+01	-1.148775e+03
5.200000e-07	-2.917609e-06	-1.726121e-08	-2.092325e+01	-1.135056e+03
5.300000e-07	-2.831735e-06	-1.704526e-08	-2.030741e+01	-1.120840e+03
5.400000e-07	-2.744939e-06	-1.682171e-08	-1.968497e+01	-1.106096e+03
5.500000e-07	-2.657328e-06	-1.658646e-08	-1.905668e+01	-1.090787e+03
5.600000e-07	-2.568737e-06	-1.633013e-08	-1.842136e+01	-1.074872e+03
5.700000e-07	-2.478858e-06	-1.607384e-08	-1.777680e+01	-1.058308e+03
5.800000e-07	-2.387884e-06	-1.581951e-08	-1.712440e+01	-1.041056e+03
5.900000e-07	-2.296093e-06	-1.555702e-08	-1.646613e+01	-1.023078e+03
6.000000e-07	-2.203521e-06	-1.526666e-08	-1.580226e+01	-1.004335e+03
6.100000e-07	-2.110181e-06	-1.495585e-08	-1.513289e+01	-9.847921e+02
6.200000e-07	-2.016044e-06	-1.463895e-08	-1.445779e+01	-9.644083e+02
6.300000e-07	-1.921206e-06	-1.431564e-08	-1.377767e+01	-9.431395e+02
6.400000e-07	-1.825780e-06	-1.398419e-08	-1.309334e+01	-9.209346e+02
6.500000e-07	-1.729721e-06	-1.363516e-08	-1.240447e+01	-8.977358e+02
6.600000e-07	-1.632970e-06	-1.326067e-08	-1.171063e+01	-8.734786e+02
6.700000e-07	-1.535489e-06	-1.286117e-08	-1.101156e+01	-8.480935e+02
6.800000e-07	-1.437315e-06	-1.244867e-08	-1.030752e+01	-8.215075e+02
6.900000e-07	-1.338592e-06	-1.202724e-08	-9.599534e+00	-7.936465e+02
7.000000e-07	-1.239482e-06	-1.159204e-08	-8.888781e+00	-7.644383e+02
7.100000e-07	-1.140005e-06	-1.112991e-08	-8.175397e+00	-7.338156e+02
7.200000e-07	-1.040173e-06	-1.063419e-08	-7.459461e+00	-7.017201e+02
7.300000e-07	-9.400243e-07	-1.010917e-08	-6.741260e+00	-6.681078e+02
7.400000e-07	-8.395790e-07	-9.565418e-09	-6.020930e+00	-6.329553e+02
7.500000e-07	-7.388587e-07	-9.008766e-09	-5.298627e+00	-5.962665e+02
7.600000e-07	-6.378720e-07	-8.430538e-09	-4.574415e+00	-5.580797e+02
7.700000e-07	-5.366907e-07	-7.829993e-09	-3.848806e+00	-5.184725e+02
7.800000e-07	-4.353632e-07	-7.209543e-09	-3.122149e+00	-4.775647e+02
7.900000e-07	-3.339045e-07	-6.569031e-09	-2.394552e+00	-4.355152e+02
8.000000e-07	-2.323110e-07	-5.911000e-09	-1.665988e+00	-3.925152e+02
8.100000e-07	-1.306008e-07	-5.244066e-09	-9.365861e-01	-3.487741e+02
8.200000e-07	-2.882429e-08	-4.572708e-09	-2.067096e-01	-3.045024e+02
8.300000e-07	7.303031e-08	-3.896407e-09	5.237273e-01	-2.598902e+02
8.400000e-07	1.748536e-07	-3.216307e-09	1.253939e+00	-2.150872e+02
8.500000e-07	2.765570e-07	-2.536427e-09	1.983292e+00	-1.701849e+02
8.600000e-07	3.781890e-07	-1.857087e-09	2.712132e+00	-1.252059e+02
8.700000e-07	4.797202e-07	-1.173029e-09	3.440250e+00	-8.010192e+01
8.800000e-07	5.811080e-07	-4.847319e-10	4.167339e+00	-3.476210e+01
8.900000e-07	6.823464e-07	2.108971e-10	4.893357e+00	1.096910e+01
9.000000e-07	7.833904e-07	9.176123e-10	5.617981e+00	5.726567e+01
9.100000e-07	8.842138e-07	1.636076e-09	6.341022e+00	1.042891e+02
9.200000e-07	9.847565e-07	2.364023e-09	7.062052e+00	1.521570e+02
9.300000e-07	1.084950e-06	3.103417e-09	7.780578e+00	2.009153e+02
9.400000e-07	1.184783e-06	3.858202e-09	8.496514e+00	2.505188e+02
9.500000e-07	1.284228e-06	4.624321e-09	9.209675e+00	3.008219e+02
9.600000e-07	1.383252e-06	5.395675e-09	9.919806e+00	3.515823e+02
9.700000e-07	1.481791e-06	6.168656e-09	1.062647e+01	4.024758e+02
9.800000e-07	1.579659e-06	6.939871e-09	1.132832e+01	4.531211e+02
9.900000e-07	1.676670e-06	7.702746e-09	1.202402e+01	5.031107e+02
1.000000e-06	1.772836e-06	8.449573e-09	1.271366e+01	5.520440e+02
1.010000e-06	1.868307e-06	9.173196e-09	1.339831e+01	5.995580e+02
1.020000e-06	1.963204e-06	9.867890e-09	1.407886e+01	6.453515e+02
1.030000e-06	2.057440e-06	1.053036e-08	1.475466e+01	6.892011e+02
1.040000e-06	2.150973e-06	1.115884e-08	1.542542e+01	7.309671e+02
1.050000e-06	2.243848e-06	1.175660e-08	1.609146e+01	7.705902e+02
1.060000e-06	2.336030e-06	1.232494e-08	1.675253e+01	8.080796e+02
1.070000e-06	2.427484e-06	1.286414e-08	1.740838e+01	8.434976e+02
1.080000e-06	2.518103e-06	1.337195e-08	1.805824e+01	8.769405e+02
1.090000e-06	2.607680e-06	1.385161e-08	1.870063e+01	9.085219e+02
1.100000e-06	2.696063e-06	1.430473e-08	1.933446e+01	9.383584e+02
1.110000e-06	2.783375e-06	1.473214e-08	1.996061e+01	9.665608e+02
1.120000e-06	2.869759e-06	1.513634e-08	2.058010e+01	9.932290e+02
1.130000e-06	2.955227e-06	1.551950e-08	2.119302e+01	1.018452e+03
1.140000e-06	3.039806e-06	1.588273e-08	2.179957e+01	1.042311e+03
1.150000e-06	3.123543e-06	1.622434e-08	2.240008e+01	1.064881e+03
1.160000e-06	3.206305e-06	1.654764e-08	2.299359e+01	1.086238e+03
1.170000e-06	3.287797e-06	1.685393e-08	2.357800e+01	1.106456e+03
1.180000e-06	3.368041e-06	1.714576e-08	2.415346e+01	1.125610e+03
1.190000e-06	3.447076e-06	1.742130e-08	2.472025e+01	1.143775e+03
1.200000e-06	3.524868e-06	1.768100e-08	2.527813e+01	1.161020e+03
1.210000e-06	3.601521e-06	1.792751e-08	2.582784e+01	1.177409e+03
1.220000e-06	3.676899e-06	1.816290e-08	2.636840e+01	1.192997e+03
1.230000e-06	3.750629e-06	1.838738e-08	2.689714e+01	1.207832e+03
1.240000e-06	3.822740e-06	1.860061e-08	2.741427e+01	1.221953e+03
1.250000e-06	3.893481e-06	1.880340e-08	2.792159e+01	1.235395e+03
1.260000e-06	3.962847e-06	1.899515e-08	2.841904e+01	1.248192e+03
1.270000e-06	4.030968e-06	1.917537e-08	2.890756e+01	1.260375e+03
1.280000e-06	4.097713e-06	1.934780e-08	2.938621e+01	1.271976e+03
1.290000e-06	4.162693e-06	1.951500e-08	2.985221e+01	1.283029e+03
1.300000e-06	4.226051e-06	1.967592e-08	3.030657e+01	1.293563e+03
1.310000e-06	4.288030e-06	1.983067e-08	3.075104e+01	1.303604e+03
1.320000e-06	4.348673e-06	1.997932e-08	3.118593e+01	1.313169e+03
1.330000e-06	4.407947e-06	2.012121e-08	3.161101e+01	1.322271e+03
1.340000e-06	4.465474e-06	2.025500e-08	3.202355e+01	1.330914e+03
1.350000e-06	4.521181e-06	2.037994e-08	3.242305e+01	1.339099e+03
1.360000e-06	4.575288e-06	2.049508e-08	3.281108e+01	1.346827e+03
1.370000e-06	4.627717e-06	2.060135e-08	3.318706e+01	1.354104e+03
1.380000e-06	4.678174e-06	2.070189e-08	3.354891e+01	1.360946e+03
1.390000e-06	4.726578e-06	2.079886e-08	3.389603e+01	1.367378e+03
1.400000e-06	4.773246e-06	2.089180e-08	3.423070e+01	1.373435e+03
1.410000e-06	4.818390e-06	2.098088e-08	3.455445e+01	1.379156e+03
1.420000e-06	4.862003e-06	2.106596e-08	3.486721e+01	1.384583e+03
1.430000e-06	4.903736e-06	2.114411e-08	3.516649e+01	1.389751e+03
1.440000e-06	4.943596e-06	2.121643e-08	3.545235e+01	1.394684e+03
1.450000e-06	4.981866e-06	2.128647e-08	3.572679e+01	1.399390e+03
1.460000e-06	5.018560e-06	2.135515e-08	3.598994e+01	1.403865e+03
1.470000e-06	5.053605e-06	2.142025e-08	3.624126e+01	1.408092e+03
1.480000e-06	5.086695e-06	2.147926e-08	3.647856e+01	1.412050e+03
1.490000e-06	5.117882e-06	2.153265e-08	3.670222e+01	1.415716e+03
1.500000e-06	5.147426e-06	2.158356e-08	3.691409e+01	1.419077e+03
1.510000e-06	5.175354e-06	2.163186e-08	3.711437e+01	1.422131e+03
1.520000e-06	5.201305e-06	2.167603e-08	3.730047e+01	1.424887e+03
1.530000e-06	5.225132e-06	2.171397e-08	3.747135e+01	1.427367e+03
1.540000e-06	5.247135e-06	2.174549e-08	3.762914e+01	1.429597e+03
1.550000e-06	5.267472e-06	2.177366e-08	3.777498e+01	1.431602e+03
1.560000e-06	5.286034e-06	2.179965e-08	3.790810e+01	1.433401e+03
1.570000e-06	5.302636e-06	2.182339e-08	3.802716e+01	1.435003e+03
1.580000e-06	5.317268e-06	2.184429e-08	3.813209e+01	1.436406e+03
1.590000e-06	5.329883e-06	2.186223e-08	3.822255e+01	1.437601e+03
1.600000e-06	5.340289e-06	2.187762e-08	3.829718e+01	1.438573e+03
1.610000e-06	5.348512e-06	2.188928e-08	3.835615e+01	1.439310e+03
1.620000e-06	5.354828e-06	2.189757e-08	3.840144e+01	1.439810e+03
1.630000e-06	5.359413e-06	2.190331e-08	3.843432e+01	1.440079e+03
1.640000e-06	5.362194e-06	2.190669e-08	3.845427e+01	1.440137e+03
1.650000e-06	5.362993e-06	2.191009e-08	3.846000e+01	1.440009e+03
1.660000e-06	5.361937e-06	2.190636e-08	3.845243e+01	1.439719e+03
1.670000e-06	5.359206e-06	2.189765e-08	3.843284e+01	1.439288e+03
1.680000e-06	5.354863e-06	2.189235e-08	3.840169e+01	1.438723e+03
1.690000e-06	5.348661e-06	2.188370e-08	3.835722e+01	1.438017e+03
1.700000e-06	5.340545e-06	2.187010e-08	3.829901e+01	1.437149e+03
1.710000e-06	5.330834e-06	2.185440e-08	3.822937e+01	1.436089e+03
1.720000e-06	5.319483e-06	2.184529e-08	3.814797e+01	1.434809e+03
1.730000e-06	5.306147e-06	2.185353e-08	3.805234e+01	1.433289e+03
1.740000e-06	5.290781e-06	2.174182e-08	3.794214e+01	1.431524e+03
1.750000e-06	5.273350e-06	2.166082e-08	3.781713e+01	1.429533e+03
1.760000e-06	5.253390e-06	2.169780e-08	3.767400e+01	1.427350e+03
1.770000e-06	5.230845e-06	2.166614e-08	3.751231e+01	1.425028e+03
1.780000e-06	5.206552e-06	2.176145e-08	3.733810e+01	1.422618e+03
1.790000e-06	5.181471e-06	2.169329e-08	3.715824e+01	1.420166e+03
1.800000e-06	5.155492e-06	2.142667e-08	3.697193e+01	1.417697e+03
1.810000e-06	5.127498e-06	2.161251e-08	3.677117e+01	1.415211e+03
1.820000e-06	5.097379e-06	2.154074e-08	3.655518e+01	1.412677e+03
1.830000e-06	5.065683e-06	2.133078e-08	3.632788e+01	1.410043e+03
1.840000e-06	5.032123e-06	2.158863e-08	3.608721e+01	1.407237e+03
1.850000e-06	4.996875e-06	2.139716e-08	3.583443e+01	1.404189e+03
1.860000e-06	4.960073e-06	2.121766e-08	3.557051e+01	1.400836e+03
1.870000e-06	4.921243e-06	2.138686e-08	3.529205e+01	1.397134e+03
1.880000e-06	4.880688e-06	2.119595e-08	3.500121e+01	1.393069e+03
1.890000e-06	4.838513e-06	2.123810e-08	3.469875e+01	1.388650e+03
1.900000e-06	4.794568e-06	2.117605e-08	3.438361e+01	1.383907e+03
1.910000e-06	4.748887e-06	2.085584e-08	3.405601e+01	1.378881e+03
1.920000e-06	4.701200e-06	2.100209e-08	3.371403e+01	1.373613e+03
1.930000e-06	4.651816e-06	2.092700e-08	3.335988e+01	1.368137e+03
1.940000e-06	4.600822e-06	2.079877e-08	3.299419e+01	1.362466e+03
1.950000e-06	4.547735e-06	2.074806e-08	3.261348e+01	1.356596e+03
1.960000e-06	4.492739e-06	2.059067e-08	3.221909e+01	1.350509e+03
1.970000e-06	4.436070e-06	2.056495e-08	3.181269e+01	1.344174e+03
1.980000e-06	4.377786e-06	2.034053e-08	3.139472e+01	1.337559e+03
1.990000e-06	4.318072e-06	2.028423e-08	3.096648e+01	1.330637e+03
2.000000e-06	4.256839e-06	2.029642e-08	3.052736e+01	1.323393e+03
2.010000e-06	4.193959e-06	2.009524e-08	3.007643e+01	1.315826e+03
2.020000e-06	4.129465e-06	1.998212e-08	2.961391e+01	1.307942e+03
2.030000e-06	4.063499e-06	1.978021e-08	2.914084e+01	1.299759e+03
2.040000e-06	3.996134e-06	1.972083e-08	2.865775e+01	1.291292e+03
2.050000e-06	3.927326e-06	1.962326e-08	2.816430e+01	1.282551e+03
2.060000e-06	3.857014e-06	1.942682e-08	2.766007e+01	1.273535e+03
2.070000e-06	3.785270e-06	1.934419e-08	2.714556e+01	1.264230e+03
2.080000e-06	3.712256e-06	1.915214e-08	2.662195e+01	1.254615e+03
2.090000e-06	3.637876e-06	1.901430e-08	2.608855e+01	1.244659e+03
2.100000e-06	3.562095e-06	1.885732e-08	2.554510e+01	1.234331e+03
2.110000e-06	3.484849e-06	1.870054e-08	2.499114e+01	1.223602e+03
2.120000e-06	3.406123e-06	1.854143e-08	2.442656e+01	1.212450e+03
2.130000e-06	3.326221e-06	1.833167e-08	2.385356e+01	1.200862e+03
2.140000e-06	3.245217e-06	1.817517e-08	2.327265e+01	1.188829e+03
2.150000e-06	3.163085e-06	1.796851e-08	2.268365e+01	1.176349e+03
2.160000e-06	3.079919e-06	1.778693e-08	2.208723e+01	1.163415e+03
2.170000e-06	2.995761e-06	1.759267e-08	2.148371e+01	1.150018e+03
2.180000e-06	2.910358e-06	1.737749e-08	2.087125e+01	1.136142e+03
2.190000e-06	2.823643e-06	1.715490e-08	2.024938e+01	1.121759e+03
2.200000e-06	2.735908e-06	1.691835e-08	1.962020e+01	1.106837e+03
2.210000e-06	2.647239e-06	1.670408e-08	1.898433e+01	1.091336e+03
2.220000e-06	2.557667e-06	1.645476e-08	1.834197e+01	1.075216e+03
2.230000e-06	2.467247e-06	1.619009e-08	1.769354e+01	1.058434e+03
2.240000e-06	2.376049e-06	1.591093e-08	1.703952e+01	1.040951e+03
2.250000e-06	2.284192e-06	1.564487e-08	1.638078e+01	1.022730e+03
2.260000e-06	2.191534e-06	1.536820e-08	1.571629e+01	1.003733e+03
2.270000e-06	2.097803e-06	1.506751e-08	1.504412e+01	9.839234e+02
2.280000e-06	2.003096e-06	1.475560e-08	1.436494e+01	9.632591e+02
2.290000e-06	1.907657e-06	1.442202e-08	1.368051e+01	9.416942e+02
2.300000e-06	1.811595e-06	1.407607e-08	1.299162e+01	9.191753e+02
2.310000e-06	1.714941e-06	1.371455e-08	1.229847e+01	8.956425e+02
2.320000e-06	1.617737e-06	1.334654e-08	1.160138e+01	8.710295e+02
2.330000e-06	1.520050e-06	1.296064e-08	1.090084e+01	8.452653e+02
2.340000e-06	1.421852e-06	1.254798e-08	1.019662e+01	8.182763e+02
2.350000e-06	1.323191e-06	1.210735e-08	9.489092e+00	7.899889e+02
2.360000e-06	1.224200e-06	1.165320e-08	8.779189e+00	7.603319e+02
2.370000e-06	1.124962e-06	1.119163e-08	8.067518e+00	7.292404e+02
2.380000e-06	1.025502e-06	1.070974e-08	7.354253e+00	6.966602e+02
2.390000e-06	9.258245e-07	1.019446e-08	6.639428e+00	6.625532e+02
2.400000e-06	8.258592e-07	9.643584e-09	5.922541e+00	6.269038e+02
2.410000e-06	7.254955e-07	9.067369e-09	5.202795e+00	5.897263e+02
2.420000e-06	6.247215e-07	8.469167e-09	4.480108e+00	5.510713e+02
2.430000e-06	5.236171e-07	7.855050e-09	3.755051e+00	5.110299e+02
2.440000e-06	4.223212e-07	7.230149e-09	3.028621e+00	4.697349e+02
2.450000e-06	3.208097e-07	6.591838e-09	2.300645e+00	4.273567e+02
2.460000e-06	2.190661e-07	5.932491e-09	1.571004e+00	3.840941e+02
2.470000e-06	1.172295e-07	5.258093e-09	8.406960e-01	3.401589e+02
2.480000e-06	1.528915e-08	4.578121e-09	1.096441e-01	2.957574e+02
2.490000e-06	-8.677765e-08	3.893116e-09	-6.223144e-01	2.510690e+02
2.500000e-06	-1.888087e-07	3.202749e-09	-1.354016e+00	2.062261e+02
2.510000e-06	-2.905933e-07	2.511238e-09	-2.083951e+00	1.612990e+02
2.520000e-06	-3.921870e-07	1.820749e-09	-2.812518e+00	1.162872e+02
2.530000e-06	-4.937172e-07	1.128960e-09	-3.540628e+00	7.112102e+01
2.540000e-06	-5.950689e-07	4.332925e-10	-4.267458e+00	2.567270e+01
2.550000e-06	-6.960460e-07	-2.695028e-10	-4.991602e+00	-2.022234e+01
2.560000e-06	-7.965916e-07	-9.798873e-10	-5.712652e+00	-6.673755e+01
2.570000e-06	-8.967181e-07	-1.699858e-09	-6.430696e+00	-1.140237e+02
2.580000e-06	-9.964658e-07	-2.431900e-09	-7.146023e+00	-1.621779e+02
2.590000e-06	-1.095967e-06	-3.177622e-09	-7.859584e+00	-2.112187e+02
2.600000e-06	-1.195240e-06	-3.938979e-09	-8.571503e+00	-2.610689e+02
2.610000e-06	-1.294228e-06	-4.713443e-09	-9.281387e+00	-3.115510e+02
2.620000e-06	-1.392775e-06	-5.494436e-09	-9.988103e+00	-3.623940e+02
2.630000e-06	-1.490752e-06	-6.275274e-09	-1.069073e+01	-4.132523e+02
2.640000e-06	-1.588169e-06	-7.048320e-09	-1.138934e+01	-4.637327e+02
2.650000e-06	-1.685044e-06	-7.806759e-09	-1.208407e+01	-5.134264e+02
2.660000e-06	-1.781339e-06	-8.545271e-09	-1.277464e+01	-5.619417e+02
2.670000e-06	-1.877044e-06	-9.262541e-09	-1.346097e+01	-6.089331e+02
2.680000e-06	-1.972212e-06	-9.956830e-09	-1.414346e+01	-6.541233e+02
2.690000e-06	-2.066693e-06	-1.061865e-08	-1.482102e+01	-6.973155e+02
2.700000e-06	-2.160202e-06	-1.124784e-08	-1.549160e+01	-7.383968e+02
2.710000e-06	-2.252639e-06	-1.184798e-08	-1.615451e+01	-7.773312e+02
2.720000e-06	-2.344229e-06	-1.241790e-08	-1.681133e+01	-8.141472e+02
2.730000e-06	-2.435112e-06	-1.295731e-08	-1.746309e+01	-8.489197e+02
2.740000e-06	-2.525140e-06	-1.346294e-08	-1.810871e+01	-8.817526e+02
2.750000e-06	-2.614218e-06	-1.393666e-08	-1.874752e+01	-9.127618e+02
2.760000e-06	-2.702421e-06	-1.438251e-08	-1.938005e+01	-9.420626e+02
2.770000e-06	-2.789881e-06	-1.480222e-08	-2.000726e+01	-9.697626e+02
2.780000e-06	-2.876426e-06	-1.520047e-08	-2.062791e+01	-9.959582e+02
2.790000e-06	-2.961702e-06	-1.558166e-08	-2.123945e+01	-1.020735e+03
2.800000e-06	-3.045776e-06	-1.594505e-08	-2.184238e+01	-1.044173e+03
2.810000e-06	-3.128924e-06	-1.628784e-08	-2.243866e+01	-1.066346e+03
2.820000e-06	-3.211045e-06	-1.660860e-08	-2.302759e+01	-1.087330e+03
2.830000e-06	-3.291996e-06	-1.691129e-08	-2.360812e+01	-1.107199e+03
2.840000e-06	-3.371938e-06	-1.720057e-08	-2.418141e+01	-1.126028e+03
2.850000e-06	-3.450723e-06	-1.747607e-08	-2.474641e+01	-1.143891e+03
2.860000e-06	-3.528004e-06	-1.773622e-08	-2.530062e+01	-1.160856e+03
2.870000e-06	-3.603782e-06	-1.798243e-08	-2.584404e+01	-1.176983e+03
2.880000e-06	-3.678159e-06	-1.821781e-08	-2.637743e+01	-1.192325e+03
2.890000e-06	-3.751220e-06	-1.844367e-08	-2.690138e+01	-1.206928e+03
2.900000e-06	-3.823080e-06	-1.865958e-08	-2.741671e+01	-1.220828e+03
2.910000e-06	-3.893531e-06	-1.886504e-08	-2.792195e+01	-1.234060e+03
2.920000e-06	-3.962325e-06	-1.906187e-08	-2.841529e+01	-1.246657e+03
2.930000e-06	-4.029677e-06	-1.924961e-08	-2.889829e+01	-1.258651e+03
2.940000e-06	-4.095666e-06	-1.942565e-08	-2.937153e+01	-1.270074e+03
