# Temperatura_=_84.71
# Concentracion g/m^3_=_28200.0
# C_Vs_to_Am_M_A/Vsm_=_65563218390.804596
# pendiente_HvsI_1/m_=_3716.3
# ordenada_HvsI_A/m_=_1297.0
# frecuencia_Hz_=_301768.4684378565

Tiempo_(s)	Campo_(V.s)	Magnetizacion_(V.s)	Campo_(kA/m)	Magnetizacion_(A/m)
0.000000e+00	-5.310709e-06	-2.581079e-08	-3.829412e+01	-1.688476e+03
1.000000e-08	-5.308538e-06	-2.580404e-08	-3.827847e+01	-1.688005e+03
2.000000e-08	-5.304464e-06	-2.578909e-08	-3.824909e+01	-1.687353e+03
3.000000e-08	-5.298745e-06	-2.577204e-08	-3.820786e+01	-1.686508e+03
4.000000e-08	-5.291437e-06	-2.575415e-08	-3.815516e+01	-1.685451e+03
5.000000e-08	-5.282428e-06	-2.573213e-08	-3.809019e+01	-1.684158e+03
6.000000e-08	-5.271475e-06	-2.570529e-08	-3.801122e+01	-1.682609e+03
7.000000e-08	-5.258660e-06	-2.567000e-08	-3.791882e+01	-1.680793e+03
8.000000e-08	-5.243884e-06	-2.563814e-08	-3.781226e+01	-1.678714e+03
9.000000e-08	-5.226842e-06	-2.565887e-08	-3.768938e+01	-1.676393e+03
1.000000e-07	-5.207704e-06	-2.563945e-08	-3.755138e+01	-1.673865e+03
1.100000e-07	-5.186682e-06	-2.554877e-08	-3.739980e+01	-1.671175e+03
1.200000e-07	-5.163845e-06	-2.548951e-08	-3.723513e+01	-1.668370e+03
1.300000e-07	-5.139462e-06	-2.538762e-08	-3.705931e+01	-1.665487e+03
1.400000e-07	-5.113524e-06	-2.532337e-08	-3.687228e+01	-1.662546e+03
1.500000e-07	-5.085931e-06	-2.541516e-08	-3.667331e+01	-1.659544e+03
1.600000e-07	-5.056849e-06	-2.529093e-08	-3.646361e+01	-1.656456e+03
1.700000e-07	-5.026366e-06	-2.519119e-08	-3.624380e+01	-1.653233e+03
1.800000e-07	-4.994074e-06	-2.525722e-08	-3.601096e+01	-1.649816e+03
1.900000e-07	-4.959643e-06	-2.507896e-08	-3.576268e+01	-1.646142e+03
2.000000e-07	-4.923641e-06	-2.501816e-08	-3.550308e+01	-1.642156e+03
2.100000e-07	-4.886143e-06	-2.506260e-08	-3.523269e+01	-1.637818e+03
2.200000e-07	-4.846841e-06	-2.489497e-08	-3.494929e+01	-1.633108e+03
2.300000e-07	-4.805635e-06	-2.479883e-08	-3.465217e+01	-1.628026e+03
2.400000e-07	-4.762449e-06	-2.473874e-08	-3.434077e+01	-1.622590e+03
2.500000e-07	-4.717512e-06	-2.462206e-08	-3.401674e+01	-1.616824e+03
2.600000e-07	-4.670863e-06	-2.457890e-08	-3.368036e+01	-1.610755e+03
2.700000e-07	-4.622348e-06	-2.445648e-08	-3.333054e+01	-1.604404e+03
2.800000e-07	-4.571771e-06	-2.431943e-08	-3.296583e+01	-1.597779e+03
2.900000e-07	-4.519122e-06	-2.421147e-08	-3.258620e+01	-1.590878e+03
3.000000e-07	-4.464714e-06	-2.411760e-08	-3.219388e+01	-1.583688e+03
3.100000e-07	-4.408757e-06	-2.402942e-08	-3.179039e+01	-1.576190e+03
3.200000e-07	-4.351069e-06	-2.389000e-08	-3.137441e+01	-1.568365e+03
3.300000e-07	-4.291687e-06	-2.376555e-08	-3.094622e+01	-1.560199e+03
3.400000e-07	-4.230858e-06	-2.362454e-08	-3.050760e+01	-1.551685e+03
3.500000e-07	-4.168556e-06	-2.347140e-08	-3.005836e+01	-1.542825e+03
3.600000e-07	-4.104896e-06	-2.334256e-08	-2.959933e+01	-1.533625e+03
3.700000e-07	-4.039783e-06	-2.322132e-08	-2.912981e+01	-1.524094e+03
3.800000e-07	-3.973006e-06	-2.308583e-08	-2.864830e+01	-1.514236e+03
3.900000e-07	-3.904689e-06	-2.289498e-08	-2.815569e+01	-1.504050e+03
4.000000e-07	-3.835049e-06	-2.271658e-08	-2.765353e+01	-1.493524e+03
4.100000e-07	-3.764245e-06	-2.257397e-08	-2.714298e+01	-1.482639e+03
4.200000e-07	-3.692304e-06	-2.240601e-08	-2.662423e+01	-1.471369e+03
4.300000e-07	-3.618907e-06	-2.222908e-08	-2.609499e+01	-1.459687e+03
4.400000e-07	-3.543880e-06	-2.203587e-08	-2.555399e+01	-1.447568e+03
4.500000e-07	-3.467480e-06	-2.182964e-08	-2.500309e+01	-1.434993e+03
4.600000e-07	-3.389819e-06	-2.162172e-08	-2.444309e+01	-1.421948e+03
4.700000e-07	-3.310764e-06	-2.142762e-08	-2.387305e+01	-1.408424e+03
4.800000e-07	-3.230288e-06	-2.123467e-08	-2.329276e+01	-1.394417e+03
4.900000e-07	-3.148613e-06	-2.100807e-08	-2.270382e+01	-1.379917e+03
5.000000e-07	-3.065915e-06	-2.077208e-08	-2.210751e+01	-1.364912e+03
5.100000e-07	-2.982299e-06	-2.052823e-08	-2.150457e+01	-1.349379e+03
5.200000e-07	-2.897837e-06	-2.027778e-08	-2.089554e+01	-1.333290e+03
5.300000e-07	-2.812440e-06	-2.002232e-08	-2.027977e+01	-1.316605e+03
5.400000e-07	-2.726007e-06	-1.976048e-08	-1.965652e+01	-1.299283e+03
5.500000e-07	-2.638667e-06	-1.948508e-08	-1.902674e+01	-1.281282e+03
5.600000e-07	-2.550505e-06	-1.918997e-08	-1.839102e+01	-1.262563e+03
5.700000e-07	-2.461211e-06	-1.889182e-08	-1.774715e+01	-1.243089e+03
5.800000e-07	-2.370701e-06	-1.858691e-08	-1.709450e+01	-1.222829e+03
5.900000e-07	-2.279276e-06	-1.827009e-08	-1.643526e+01	-1.201751e+03
6.000000e-07	-2.187149e-06	-1.793577e-08	-1.577095e+01	-1.179823e+03
6.100000e-07	-2.094334e-06	-1.758394e-08	-1.510169e+01	-1.157001e+03
6.200000e-07	-2.000763e-06	-1.721719e-08	-1.442698e+01	-1.133235e+03
6.300000e-07	-1.906432e-06	-1.683544e-08	-1.374678e+01	-1.108460e+03
6.400000e-07	-1.811408e-06	-1.644114e-08	-1.306159e+01	-1.082597e+03
6.500000e-07	-1.715800e-06	-1.602807e-08	-1.237218e+01	-1.055562e+03
6.600000e-07	-1.619651e-06	-1.559436e-08	-1.167888e+01	-1.027261e+03
6.700000e-07	-1.522890e-06	-1.514025e-08	-1.098116e+01	-9.976024e+02
6.800000e-07	-1.425441e-06	-1.466581e-08	-1.027848e+01	-9.664953e+02
6.900000e-07	-1.327386e-06	-1.416972e-08	-9.571429e+00	-9.338560e+02
7.000000e-07	-1.228756e-06	-1.364977e-08	-8.860239e+00	-8.996082e+02
7.100000e-07	-1.129612e-06	-1.310310e-08	-8.145336e+00	-8.636842e+02
7.200000e-07	-1.030125e-06	-1.252583e-08	-7.427961e+00	-8.260257e+02
7.300000e-07	-9.303697e-07	-1.191936e-08	-6.708651e+00	-7.865869e+02
7.400000e-07	-8.304111e-07	-1.128825e-08	-5.987876e+00	-7.453379e+02
7.500000e-07	-7.302275e-07	-1.063381e-08	-5.265478e+00	-7.022720e+02
7.600000e-07	-6.298004e-07	-9.950377e-09	-4.541325e+00	-6.574135e+02
7.700000e-07	-5.291852e-07	-9.239811e-09	-3.815815e+00	-6.108264e+02
7.800000e-07	-4.283922e-07	-8.506695e-09	-3.089024e+00	-5.626199e+02
7.900000e-07	-3.274801e-07	-7.751930e-09	-2.361373e+00	-5.129503e+02
8.000000e-07	-2.264688e-07	-6.975969e-09	-1.633007e+00	-4.620161e+02
8.100000e-07	-1.253412e-07	-6.183237e-09	-9.038022e-01	-4.100453e+02
8.200000e-07	-2.413137e-08	-5.379092e-09	-1.740049e-01	-3.572763e+02
8.300000e-07	7.711532e-08	-4.564812e-09	5.560582e-01	-3.039335e+02
8.400000e-07	1.783416e-07	-3.745732e-09	1.285974e+00	-2.502017e+02
8.500000e-07	2.795487e-07	-2.927515e-09	2.015752e+00	-1.962029e+02
8.600000e-07	3.807493e-07	-2.109021e-09	2.745483e+00	-1.419805e+02
8.700000e-07	4.818291e-07	-1.283628e-09	3.474343e+00	-8.749514e+01
8.800000e-07	5.827030e-07	-4.500780e-10	4.201718e+00	-3.263229e+01
8.900000e-07	6.833680e-07	3.950464e-10	4.927586e+00	2.277603e+01
9.000000e-07	7.838506e-07	1.254596e-09	5.652140e+00	7.891915e+01
9.100000e-07	8.841245e-07	2.125281e-09	6.375189e+00	1.359689e+02
9.200000e-07	9.841522e-07	3.006298e-09	7.096462e+00	1.940399e+02
9.300000e-07	1.083956e-06	3.901182e-09	7.816124e+00	2.531548e+02
9.400000e-07	1.183470e-06	4.812527e-09	8.533693e+00	3.132201e+02
9.500000e-07	1.282543e-06	5.737050e-09	9.248077e+00	3.740167e+02
9.600000e-07	1.381025e-06	6.669502e-09	9.958209e+00	4.352067e+02
9.700000e-07	1.478745e-06	7.602027e-09	1.066284e+01	4.963557e+02
9.800000e-07	1.575685e-06	8.523929e-09	1.136185e+01	5.569672e+02
9.900000e-07	1.671991e-06	9.429796e-09	1.205629e+01	6.165250e+02
1.000000e-06	1.767677e-06	1.031346e-08	1.274625e+01	6.745359e+02
1.010000e-06	1.862708e-06	1.116560e-08	1.343150e+01	7.305690e+02
1.020000e-06	1.957108e-06	1.198067e-08	1.411219e+01	7.842844e+02
1.030000e-06	2.050861e-06	1.275472e-08	1.478822e+01	8.354502e+02
1.040000e-06	2.143854e-06	1.348481e-08	1.545877e+01	8.839453e+02
1.050000e-06	2.236119e-06	1.417370e-08	1.612406e+01	9.297496e+02
1.060000e-06	2.327779e-06	1.482618e-08	1.678500e+01	9.729253e+02
1.070000e-06	2.418655e-06	1.544527e-08	1.744028e+01	1.013592e+03
1.080000e-06	2.508470e-06	1.603026e-08	1.808792e+01	1.051903e+03
1.090000e-06	2.597193e-06	1.658165e-08	1.872768e+01	1.088020e+03
1.100000e-06	2.685031e-06	1.709956e-08	1.936105e+01	1.122098e+03
1.110000e-06	2.771998e-06	1.758543e-08	1.998814e+01	1.154277e+03
1.120000e-06	2.858006e-06	1.804213e-08	2.060833e+01	1.184678e+03
1.130000e-06	2.943061e-06	1.847319e-08	2.122164e+01	1.213405e+03
1.140000e-06	3.027236e-06	1.888304e-08	2.182860e+01	1.240551e+03
1.150000e-06	3.110568e-06	1.927265e-08	2.242949e+01	1.266206e+03
1.160000e-06	3.192783e-06	1.964325e-08	2.302232e+01	1.290460e+03
1.170000e-06	3.273751e-06	1.999501e-08	2.360615e+01	1.313406e+03
1.180000e-06	3.353505e-06	2.032868e-08	2.418124e+01	1.335138e+03
1.190000e-06	3.432009e-06	2.064194e-08	2.474731e+01	1.355750e+03
1.200000e-06	3.509324e-06	2.093588e-08	2.530481e+01	1.375328e+03
1.210000e-06	3.585484e-06	2.121490e-08	2.585398e+01	1.393950e+03
1.220000e-06	3.660261e-06	2.148146e-08	2.639318e+01	1.411681e+03
1.230000e-06	3.733427e-06	2.173627e-08	2.692076e+01	1.428572e+03
1.240000e-06	3.805110e-06	2.198026e-08	2.743764e+01	1.444664e+03
1.250000e-06	3.875454e-06	2.221317e-08	2.794488e+01	1.459990e+03
1.260000e-06	3.944451e-06	2.243477e-08	2.844240e+01	1.474583e+03
1.270000e-06	4.012130e-06	2.264308e-08	2.893041e+01	1.488476e+03
1.280000e-06	4.078280e-06	2.283951e-08	2.940741e+01	1.501705e+03
1.290000e-06	4.142742e-06	2.302948e-08	2.987222e+01	1.514311e+03
1.300000e-06	4.205710e-06	2.321281e-08	3.032627e+01	1.526336e+03
1.310000e-06	4.267311e-06	2.338734e-08	3.077046e+01	1.537818e+03
1.320000e-06	4.327621e-06	2.355361e-08	3.120533e+01	1.548790e+03
1.330000e-06	4.386523e-06	2.371398e-08	3.163006e+01	1.559274e+03
1.340000e-06	4.443628e-06	2.386897e-08	3.204183e+01	1.569283e+03
1.350000e-06	4.498946e-06	2.401690e-08	3.244071e+01	1.578817e+03
1.360000e-06	4.552703e-06	2.415423e-08	3.282835e+01	1.587874e+03
1.370000e-06	4.604739e-06	2.428213e-08	3.320356e+01	1.596447e+03
1.380000e-06	4.654791e-06	2.440280e-08	3.356447e+01	1.604535e+03
1.390000e-06	4.702886e-06	2.451690e-08	3.391127e+01	1.612147e+03
1.400000e-06	4.749268e-06	2.462693e-08	3.424572e+01	1.619299e+03
1.410000e-06	4.794110e-06	2.473312e-08	3.456906e+01	1.626021e+03
1.420000e-06	4.837375e-06	2.483211e-08	3.488104e+01	1.632345e+03
1.430000e-06	4.878833e-06	2.492174e-08	3.517998e+01	1.638310e+03
1.440000e-06	4.918475e-06	2.500449e-08	3.546583e+01	1.643948e+03
1.450000e-06	4.956505e-06	2.508371e-08	3.574005e+01	1.649285e+03
1.460000e-06	4.992977e-06	2.516023e-08	3.600304e+01	1.654337e+03
1.470000e-06	5.027742e-06	2.523214e-08	3.625372e+01	1.659108e+03
1.480000e-06	5.060605e-06	2.529970e-08	3.649069e+01	1.663592e+03
1.490000e-06	5.091622e-06	2.536489e-08	3.671434e+01	1.667780e+03
1.500000e-06	5.120961e-06	2.542714e-08	3.692590e+01	1.671661e+03
1.510000e-06	5.148623e-06	2.548318e-08	3.712537e+01	1.675228e+03
1.520000e-06	5.174310e-06	2.553256e-08	3.731059e+01	1.678479e+03
1.530000e-06	5.197940e-06	2.557660e-08	3.748097e+01	1.681419e+03
1.540000e-06	5.219763e-06	2.561632e-08	3.763834e+01	1.684055e+03
1.550000e-06	5.239916e-06	2.565181e-08	3.778366e+01	1.686399e+03
1.560000e-06	5.258299e-06	2.568211e-08	3.791621e+01	1.688461e+03
1.570000e-06	5.274690e-06	2.570915e-08	3.803440e+01	1.690250e+03
1.580000e-06	5.289076e-06	2.573235e-08	3.813813e+01	1.691771e+03
1.590000e-06	5.301452e-06	2.575177e-08	3.822737e+01	1.693026e+03
1.600000e-06	5.311666e-06	2.576793e-08	3.830102e+01	1.694017e+03
1.610000e-06	5.319787e-06	2.578005e-08	3.835958e+01	1.694751e+03
1.620000e-06	5.326029e-06	2.578967e-08	3.840459e+01	1.695237e+03
1.630000e-06	5.330519e-06	2.579581e-08	3.843697e+01	1.695488e+03
1.640000e-06	5.333129e-06	2.579851e-08	3.845579e+01	1.695522e+03
1.650000e-06	5.333713e-06	2.579994e-08	3.846000e+01	1.695358e+03
1.660000e-06	5.332493e-06	2.579451e-08	3.845120e+01	1.695008e+03
1.670000e-06	5.329680e-06	2.578424e-08	3.843092e+01	1.694478e+03
1.680000e-06	5.325249e-06	2.577510e-08	3.839897e+01	1.693765e+03
1.690000e-06	5.318937e-06	2.576358e-08	3.835346e+01	1.692853e+03
1.700000e-06	5.310751e-06	2.574747e-08	3.829442e+01	1.691721e+03
1.710000e-06	5.300989e-06	2.572852e-08	3.822403e+01	1.690346e+03
1.720000e-06	5.289567e-06	2.571290e-08	3.814168e+01	1.688711e+03
1.730000e-06	5.276190e-06	2.570137e-08	3.804521e+01	1.686808e+03
1.740000e-06	5.260834e-06	2.560981e-08	3.793449e+01	1.684646e+03
1.750000e-06	5.243358e-06	2.554287e-08	3.780848e+01	1.682252e+03
1.760000e-06	5.223371e-06	2.555085e-08	3.766436e+01	1.679666e+03
1.770000e-06	5.200935e-06	2.552858e-08	3.750257e+01	1.676933e+03
1.780000e-06	5.176751e-06	2.557258e-08	3.732819e+01	1.674098e+03
1.790000e-06	5.151721e-06	2.547113e-08	3.714771e+01	1.671194e+03
1.800000e-06	5.125744e-06	2.529279e-08	3.696039e+01	1.668233e+03
1.810000e-06	5.097808e-06	2.539638e-08	3.675895e+01	1.665206e+03
1.820000e-06	5.067810e-06	2.531582e-08	3.654264e+01	1.662079e+03
1.830000e-06	5.036151e-06	2.520299e-08	3.631436e+01	1.658800e+03
1.840000e-06	5.002619e-06	2.534849e-08	3.607257e+01	1.655306e+03
1.850000e-06	4.967446e-06	2.517871e-08	3.581894e+01	1.651536e+03
1.860000e-06	4.930683e-06	2.503776e-08	3.555385e+01	1.647439e+03
1.870000e-06	4.891950e-06	2.509205e-08	3.527457e+01	1.642981e+03
1.880000e-06	4.851523e-06	2.494412e-08	3.498305e+01	1.638149e+03
1.890000e-06	4.809405e-06	2.493769e-08	3.467935e+01	1.632949e+03
1.900000e-06	4.765584e-06	2.485296e-08	3.436337e+01	1.627402e+03
1.910000e-06	4.720089e-06	2.466822e-08	3.403532e+01	1.621535e+03
1.920000e-06	4.672639e-06	2.471912e-08	3.369317e+01	1.615372e+03
1.930000e-06	4.623485e-06	2.459093e-08	3.333873e+01	1.608931e+03
1.940000e-06	4.572664e-06	2.446755e-08	3.297227e+01	1.602217e+03
1.950000e-06	4.519742e-06	2.437189e-08	3.259067e+01	1.595224e+03
1.960000e-06	4.464865e-06	2.422623e-08	3.219497e+01	1.587936e+03
1.970000e-06	4.408299e-06	2.417652e-08	3.178708e+01	1.580334e+03
1.980000e-06	4.350177e-06	2.397465e-08	3.136798e+01	1.572399e+03
1.990000e-06	4.290710e-06	2.388220e-08	3.093918e+01	1.564120e+03
2.000000e-06	4.229795e-06	2.382152e-08	3.049994e+01	1.555493e+03
2.010000e-06	4.167172e-06	2.361265e-08	3.004838e+01	1.546521e+03
2.020000e-06	4.102832e-06	2.347130e-08	2.958444e+01	1.537212e+03
2.030000e-06	4.037045e-06	2.330519e-08	2.911007e+01	1.527575e+03
2.040000e-06	3.969984e-06	2.321097e-08	2.862651e+01	1.517611e+03
2.050000e-06	3.901549e-06	2.305585e-08	2.813304e+01	1.507315e+03
2.060000e-06	3.831529e-06	2.284941e-08	2.762815e+01	1.496675e+03
2.070000e-06	3.760041e-06	2.271411e-08	2.711267e+01	1.485668e+03
2.080000e-06	3.687375e-06	2.250981e-08	2.658869e+01	1.474267e+03
2.090000e-06	3.613438e-06	2.234621e-08	2.605555e+01	1.462446e+03
2.100000e-06	3.538126e-06	2.216890e-08	2.551249e+01	1.450181e+03
2.110000e-06	3.461349e-06	2.198550e-08	2.495888e+01	1.437454e+03
2.120000e-06	3.383024e-06	2.178341e-08	2.439410e+01	1.424255e+03
2.130000e-06	3.303409e-06	2.154347e-08	2.382001e+01	1.410575e+03
2.140000e-06	3.222722e-06	2.133976e-08	2.323820e+01	1.396409e+03
2.150000e-06	3.140955e-06	2.111001e-08	2.264860e+01	1.381747e+03
2.160000e-06	3.058109e-06	2.089594e-08	2.205122e+01	1.366574e+03
2.170000e-06	2.974320e-06	2.066688e-08	2.144704e+01	1.350865e+03
2.180000e-06	2.889433e-06	2.041578e-08	2.083494e+01	1.334587e+03
2.190000e-06	2.803189e-06	2.015190e-08	2.021306e+01	1.317701e+03
2.200000e-06	2.715766e-06	1.987836e-08	1.958268e+01	1.300164e+03
2.210000e-06	2.627457e-06	1.961460e-08	1.894590e+01	1.281935e+03
2.220000e-06	2.538335e-06	1.932509e-08	1.830327e+01	1.262975e+03
2.230000e-06	2.448313e-06	1.902555e-08	1.765414e+01	1.243250e+03
2.240000e-06	2.357509e-06	1.870857e-08	1.699938e+01	1.222730e+03
2.250000e-06	2.266054e-06	1.838572e-08	1.633992e+01	1.201381e+03
2.260000e-06	2.173867e-06	1.804851e-08	1.567518e+01	1.179169e+03
2.270000e-06	2.080789e-06	1.769597e-08	1.500402e+01	1.156049e+03
2.280000e-06	1.986655e-06	1.733475e-08	1.432525e+01	1.131965e+03
2.290000e-06	1.891588e-06	1.695337e-08	1.363974e+01	1.106848e+03
2.300000e-06	1.795891e-06	1.655390e-08	1.294970e+01	1.080617e+03
2.310000e-06	1.699701e-06	1.613275e-08	1.225610e+01	1.053183e+03
2.320000e-06	1.603040e-06	1.569637e-08	1.155910e+01	1.024455e+03
2.330000e-06	1.505871e-06	1.523972e-08	1.085844e+01	9.943388e+02
2.340000e-06	1.408132e-06	1.475819e-08	1.015367e+01	9.627467e+02
2.350000e-06	1.309879e-06	1.425068e-08	9.445189e+00	9.295970e+02
2.360000e-06	1.211251e-06	1.372238e-08	8.734010e+00	8.948160e+02
2.370000e-06	1.112331e-06	1.317086e-08	8.020724e+00	8.583389e+02
2.380000e-06	1.013144e-06	1.258967e-08	7.305513e+00	8.201112e+02
2.390000e-06	9.137182e-07	1.197907e-08	6.588581e+00	7.800915e+02
2.400000e-06	8.140357e-07	1.133991e-08	5.869797e+00	7.382565e+02
2.410000e-06	7.141084e-07	1.067349e-08	5.149248e+00	6.946087e+02
2.420000e-06	6.139718e-07	9.978029e-09	4.427189e+00	6.491842e+02
2.430000e-06	5.136923e-07	9.257610e-09	3.704100e+00	6.020610e+02
2.440000e-06	4.132104e-07	8.514805e-09	2.979551e+00	5.533636e+02
2.450000e-06	3.124815e-07	7.749366e-09	2.253222e+00	5.032628e+02
2.460000e-06	2.116704e-07	6.962774e-09	1.526299e+00	4.519682e+02
2.470000e-06	1.108050e-07	6.163320e-09	7.989858e-01	3.997136e+02
2.480000e-06	9.899970e-09	5.358565e-09	7.138608e-02	3.467358e+02
2.490000e-06	-9.102688e-08	4.545628e-09	-6.563709e-01	2.932491e+02
2.500000e-06	-1.919479e-07	3.721051e-09	-1.384086e+00	2.394203e+02
2.510000e-06	-2.927087e-07	2.890614e-09	-2.110645e+00	1.853475e+02
2.520000e-06	-3.933432e-07	2.057335e-09	-2.836294e+00	1.310474e+02
2.530000e-06	-4.939318e-07	1.219477e-09	-3.561612e+00	7.645499e+01
2.540000e-06	-5.944439e-07	3.780679e-10	-4.286378e+00	2.143553e+01
2.550000e-06	-6.947675e-07	-4.718526e-10	-5.009786e+00	-3.418970e+01
2.560000e-06	-7.948053e-07	-1.334296e-09	-5.731131e+00	-9.060884e+01
2.570000e-06	-8.945842e-07	-2.210854e-09	-6.450611e+00	-1.479795e+02
2.580000e-06	-9.941079e-07	-3.101601e-09	-7.168250e+00	-2.063902e+02
2.590000e-06	-1.093295e-06	-4.007002e-09	-7.883460e+00	-2.658281e+02
2.600000e-06	-1.192078e-06	-4.928092e-09	-8.595757e+00	-3.261596e+02
2.610000e-06	-1.290476e-06	-5.859735e-09	-9.305283e+00	-3.871261e+02
2.620000e-06	-1.388411e-06	-6.797189e-09	-1.001147e+01	-4.483555e+02
2.630000e-06	-1.485833e-06	-7.734703e-09	-1.071395e+01	-5.093890e+02
2.640000e-06	-1.582717e-06	-8.661099e-09	-1.141256e+01	-5.697193e+02
2.650000e-06	-1.679064e-06	-9.565701e-09	-1.210729e+01	-6.288327e+02
2.660000e-06	-1.774980e-06	-1.044344e-08	-1.279892e+01	-6.862523e+02
2.670000e-06	-1.870416e-06	-1.129084e-08	-1.348708e+01	-7.415738e+02
2.680000e-06	-1.965137e-06	-1.210142e-08	-1.417009e+01	-7.944910e+02
2.690000e-06	-2.058872e-06	-1.287020e-08	-1.484598e+01	-8.448078e+02
2.700000e-06	-2.151594e-06	-1.359990e-08	-1.551458e+01	-8.924371e+02
2.710000e-06	-2.243504e-06	-1.429237e-08	-1.617732e+01	-9.373878e+02
2.720000e-06	-2.334679e-06	-1.494500e-08	-1.683475e+01	-9.797434e+02
2.730000e-06	-2.425057e-06	-1.555944e-08	-1.748645e+01	-1.019637e+03
2.740000e-06	-2.514522e-06	-1.613908e-08	-1.813156e+01	-1.057226e+03
2.750000e-06	-2.603132e-06	-1.668528e-08	-1.877050e+01	-1.092673e+03
2.760000e-06	-2.691022e-06	-1.719817e-08	-1.940425e+01	-1.126128e+03
2.770000e-06	-2.778062e-06	-1.767961e-08	-2.003187e+01	-1.157725e+03
2.780000e-06	-2.863965e-06	-1.813471e-08	-2.065129e+01	-1.187578e+03
2.790000e-06	-2.948651e-06	-1.856594e-08	-2.126194e+01	-1.215788e+03
2.800000e-06	-3.032312e-06	-1.897313e-08	-2.186521e+01	-1.242447e+03
2.810000e-06	-3.115001e-06	-1.935995e-08	-2.246145e+01	-1.267643e+03
2.820000e-06	-3.196664e-06	-1.972802e-08	-2.305030e+01	-1.291467e+03
2.830000e-06	-3.277314e-06	-2.007603e-08	-2.363185e+01	-1.314014e+03
2.840000e-06	-3.356879e-06	-2.040494e-08	-2.420557e+01	-1.335377e+03
2.850000e-06	-3.435043e-06	-2.071582e-08	-2.476919e+01	-1.355649e+03
2.860000e-06	-3.511718e-06	-2.101067e-08	-2.532207e+01	-1.374913e+03
2.870000e-06	-3.587040e-06	-2.129158e-08	-2.586520e+01	-1.393244e+03
2.880000e-06	-3.661006e-06	-2.155895e-08	-2.639855e+01	-1.410701e+03
2.890000e-06	-3.733679e-06	-2.181268e-08	-2.692258e+01	-1.427333e+03
2.900000e-06	-3.805075e-06	-2.205525e-08	-2.743740e+01	-1.443176e+03
2.910000e-06	-3.874957e-06	-2.228848e-08	-2.794129e+01	-1.458265e+03
2.920000e-06	-3.943267e-06	-2.251318e-08	-2.843386e+01	-1.472630e+03
2.930000e-06	-4.010187e-06	-2.272768e-08	-2.891640e+01	-1.486307e+03
2.940000e-06	-4.075748e-06	-2.293139e-08	-2.938914e+01	-1.499333e+03
