# Temperatura_=_83.63
# Concentracion g/m^3_=_28200.0
# C_Vs_to_Am_M_A/Vsm_=_65563218390.804596
# pendiente_HvsI_1/m_=_3716.3
# ordenada_HvsI_A/m_=_1297.0
# frecuencia_Hz_=_301763.210117836

Tiempo_(s)	Campo_(V.s)	Magnetizacion_(V.s)	Campo_(kA/m)	Magnetizacion_(A/m)
0.000000e+00	-5.336671e-06	-2.562529e-08	-3.829416e+01	-1.676956e+03
1.000000e-08	-5.334300e-06	-2.561891e-08	-3.827714e+01	-1.676490e+03
2.000000e-08	-5.330077e-06	-2.560496e-08	-3.824684e+01	-1.675846e+03
3.000000e-08	-5.324208e-06	-2.559015e-08	-3.820472e+01	-1.675013e+03
4.000000e-08	-5.316746e-06	-2.557333e-08	-3.815118e+01	-1.673973e+03
5.000000e-08	-5.307534e-06	-2.555065e-08	-3.808508e+01	-1.672702e+03
6.000000e-08	-5.296269e-06	-2.552477e-08	-3.800424e+01	-1.671178e+03
7.000000e-08	-5.283124e-06	-2.548781e-08	-3.790992e+01	-1.669387e+03
8.000000e-08	-5.268046e-06	-2.545998e-08	-3.780173e+01	-1.667331e+03
9.000000e-08	-5.250720e-06	-2.549861e-08	-3.767740e+01	-1.665030e+03
1.000000e-07	-5.231280e-06	-2.547289e-08	-3.753790e+01	-1.662516e+03
1.100000e-07	-5.209951e-06	-2.537310e-08	-3.738485e+01	-1.659835e+03
1.200000e-07	-5.186904e-06	-2.532140e-08	-3.721948e+01	-1.657029e+03
1.300000e-07	-5.162300e-06	-2.519864e-08	-3.704292e+01	-1.654136e+03
1.400000e-07	-5.136089e-06	-2.513766e-08	-3.685485e+01	-1.651173e+03
1.500000e-07	-5.108273e-06	-2.526298e-08	-3.665524e+01	-1.648138e+03
1.600000e-07	-5.078991e-06	-2.510461e-08	-3.644513e+01	-1.645004e+03
1.700000e-07	-5.048262e-06	-2.502253e-08	-3.622463e+01	-1.641726e+03
1.800000e-07	-5.015645e-06	-2.511327e-08	-3.599058e+01	-1.638246e+03
1.900000e-07	-4.980922e-06	-2.488784e-08	-3.574141e+01	-1.634508e+03
2.000000e-07	-4.944649e-06	-2.486063e-08	-3.548113e+01	-1.630461e+03
2.100000e-07	-4.906789e-06	-2.490349e-08	-3.520946e+01	-1.626071e+03
2.200000e-07	-4.867135e-06	-2.468742e-08	-3.492492e+01	-1.621324e+03
2.300000e-07	-4.825642e-06	-2.461956e-08	-3.462718e+01	-1.616224e+03
2.400000e-07	-4.782152e-06	-2.455626e-08	-3.431511e+01	-1.610787e+03
2.500000e-07	-4.736819e-06	-2.443384e-08	-3.398982e+01	-1.605038e+03
2.600000e-07	-4.689732e-06	-2.443700e-08	-3.365194e+01	-1.598997e+03
2.700000e-07	-4.640735e-06	-2.430673e-08	-3.330035e+01	-1.592680e+03
2.800000e-07	-4.589593e-06	-2.414554e-08	-3.293337e+01	-1.586088e+03
2.900000e-07	-4.536483e-06	-2.403929e-08	-3.255228e+01	-1.579214e+03
3.000000e-07	-4.481719e-06	-2.394639e-08	-3.215931e+01	-1.572041e+03
3.100000e-07	-4.425385e-06	-2.385090e-08	-3.175507e+01	-1.564550e+03
3.200000e-07	-4.367223e-06	-2.372964e-08	-3.133772e+01	-1.556722e+03
3.300000e-07	-4.307331e-06	-2.362030e-08	-3.090796e+01	-1.548546e+03
3.400000e-07	-4.246080e-06	-2.345478e-08	-3.046844e+01	-1.540021e+03
3.500000e-07	-4.183431e-06	-2.330095e-08	-3.001889e+01	-1.531153e+03
3.600000e-07	-4.119337e-06	-2.317464e-08	-2.955897e+01	-1.521952e+03
3.700000e-07	-4.053665e-06	-2.304695e-08	-2.908774e+01	-1.512428e+03
3.800000e-07	-3.986366e-06	-2.292547e-08	-2.860482e+01	-1.502589e+03
3.900000e-07	-3.917594e-06	-2.273828e-08	-2.811133e+01	-1.492430e+03
4.000000e-07	-3.847525e-06	-2.255436e-08	-2.760854e+01	-1.481940e+03
4.100000e-07	-3.776252e-06	-2.240933e-08	-2.709711e+01	-1.471097e+03
4.200000e-07	-3.703759e-06	-2.223971e-08	-2.657693e+01	-1.459874e+03
4.300000e-07	-3.629817e-06	-2.206342e-08	-2.604635e+01	-1.448241e+03
4.400000e-07	-3.554267e-06	-2.187445e-08	-2.550423e+01	-1.436170e+03
4.500000e-07	-3.477317e-06	-2.167641e-08	-2.495206e+01	-1.423641e+03
4.600000e-07	-3.399078e-06	-2.147094e-08	-2.439064e+01	-1.410637e+03
4.700000e-07	-3.319434e-06	-2.127566e-08	-2.381914e+01	-1.397148e+03
4.800000e-07	-3.238433e-06	-2.107597e-08	-2.323790e+01	-1.383168e+03
4.900000e-07	-3.156241e-06	-2.084167e-08	-2.264812e+01	-1.368688e+03
5.000000e-07	-3.073041e-06	-2.060662e-08	-2.205110e+01	-1.353696e+03
5.100000e-07	-2.989022e-06	-2.036578e-08	-2.144821e+01	-1.338173e+03
5.200000e-07	-2.904117e-06	-2.012018e-08	-2.083897e+01	-1.322093e+03
5.300000e-07	-2.818185e-06	-1.986793e-08	-2.022234e+01	-1.305424e+03
5.400000e-07	-2.731253e-06	-1.960480e-08	-1.959855e+01	-1.288130e+03
5.500000e-07	-2.643453e-06	-1.932811e-08	-1.896853e+01	-1.270172e+03
5.600000e-07	-2.554666e-06	-1.903366e-08	-1.833142e+01	-1.251512e+03
5.700000e-07	-2.464645e-06	-1.873763e-08	-1.768546e+01	-1.232113e+03
5.800000e-07	-2.373571e-06	-1.843474e-08	-1.703195e+01	-1.211941e+03
5.900000e-07	-2.281707e-06	-1.811831e-08	-1.637276e+01	-1.190957e+03
6.000000e-07	-2.189066e-06	-1.777985e-08	-1.570800e+01	-1.169121e+03
6.100000e-07	-2.095672e-06	-1.742560e-08	-1.503784e+01	-1.146385e+03
6.200000e-07	-2.001507e-06	-1.706167e-08	-1.436214e+01	-1.122692e+03
6.300000e-07	-1.906591e-06	-1.668533e-08	-1.368105e+01	-1.097973e+03
6.400000e-07	-1.811076e-06	-1.629506e-08	-1.299567e+01	-1.072154e+03
6.500000e-07	-1.715017e-06	-1.588329e-08	-1.230639e+01	-1.045150e+03
6.600000e-07	-1.618280e-06	-1.544705e-08	-1.161223e+01	-1.016875e+03
6.700000e-07	-1.520801e-06	-1.498934e-08	-1.091276e+01	-9.872410e+02
6.800000e-07	-1.422632e-06	-1.451533e-08	-1.020833e+01	-9.561612e+02
6.900000e-07	-1.323910e-06	-1.402217e-08	-9.499935e+00	-9.235539e+02
7.000000e-07	-1.224737e-06	-1.350601e-08	-8.788301e+00	-8.893426e+02
7.100000e-07	-1.125166e-06	-1.296101e-08	-8.073813e+00	-8.534573e+02
7.200000e-07	-1.025312e-06	-1.238327e-08	-7.357296e+00	-8.158372e+02
7.300000e-07	-9.251688e-07	-1.177487e-08	-6.638700e+00	-7.764345e+02
7.400000e-07	-8.247146e-07	-1.114222e-08	-5.917874e+00	-7.352198e+02
7.500000e-07	-7.239933e-07	-1.048985e-08	-5.195132e+00	-6.921897e+02
7.600000e-07	-6.230595e-07	-9.809356e-09	-4.470865e+00	-6.473751e+02
7.700000e-07	-5.219469e-07	-9.101582e-09	-3.745315e+00	-6.008485e+02
7.800000e-07	-4.206503e-07	-8.371410e-09	-3.018445e+00	-5.527285e+02
7.900000e-07	-3.192254e-07	-7.616631e-09	-2.290654e+00	-5.031794e+02
8.000000e-07	-2.177459e-07	-6.837842e-09	-1.562471e+00	-4.524045e+02
8.100000e-07	-1.161718e-07	-6.043616e-09	-8.336096e-01	-4.006325e+02
8.200000e-07	-1.447957e-08	-5.241621e-09	-1.039005e-01	-3.480975e+02
8.300000e-07	8.726146e-08	-4.433353e-09	6.261588e-01	-2.950155e+02
8.400000e-07	1.889716e-07	-3.620865e-09	1.355997e+00	-2.415602e+02
8.500000e-07	2.906465e-07	-2.806223e-09	2.085582e+00	-1.878415e+02
8.600000e-07	3.922155e-07	-1.989501e-09	2.814407e+00	-1.338923e+02
8.700000e-07	4.936387e-07	-1.164841e-09	3.542185e+00	-7.966504e+01
8.800000e-07	5.949668e-07	-3.331118e-10	4.269282e+00	-2.504144e+01
8.900000e-07	6.961670e-07	5.069879e-10	4.995460e+00	3.014607e+01
9.000000e-07	7.971413e-07	1.359358e-09	5.720018e+00	8.608241e+01
9.100000e-07	8.978406e-07	2.225867e-09	6.442602e+00	1.429319e+02
9.200000e-07	9.982799e-07	3.106489e-09	7.163321e+00	2.007994e+02
9.300000e-07	1.098388e-06	4.000543e-09	7.881662e+00	2.596970e+02
9.400000e-07	1.198123e-06	4.910609e-09	8.597329e+00	3.195203e+02
9.500000e-07	1.297476e-06	5.831645e-09	9.310252e+00	3.800396e+02
9.600000e-07	1.396398e-06	6.756882e-09	1.002008e+01	4.409076e+02
9.700000e-07	1.494740e-06	7.679934e-09	1.072575e+01	5.016817e+02
9.800000e-07	1.592327e-06	8.594959e-09	1.142600e+01	5.618594e+02
9.900000e-07	1.689126e-06	9.495339e-09	1.212060e+01	6.209212e+02
1.000000e-06	1.785194e-06	1.037255e-08	1.280995e+01	6.783750e+02
1.010000e-06	1.880629e-06	1.121800e-08	1.349476e+01	7.337952e+02
1.020000e-06	1.975448e-06	1.202396e-08	1.417515e+01	7.868522e+02
1.030000e-06	2.069575e-06	1.278754e-08	1.485057e+01	8.373292e+02
1.040000e-06	2.162994e-06	1.350633e-08	1.552092e+01	8.851228e+02
1.050000e-06	2.255656e-06	1.418495e-08	1.618583e+01	9.302324e+02
1.060000e-06	2.347558e-06	1.482656e-08	1.684528e+01	9.727380e+02
1.070000e-06	2.438772e-06	1.543390e-08	1.749980e+01	1.012774e+03
1.080000e-06	2.529104e-06	1.600906e-08	1.814800e+01	1.050499e+03
1.090000e-06	2.618232e-06	1.655259e-08	1.878755e+01	1.086080e+03
1.100000e-06	2.706268e-06	1.706362e-08	1.941926e+01	1.119665e+03
1.110000e-06	2.793457e-06	1.754403e-08	2.004491e+01	1.151384e+03
1.120000e-06	2.879728e-06	1.799718e-08	2.066396e+01	1.181348e+03
1.130000e-06	2.965036e-06	1.842441e-08	2.127610e+01	1.209648e+03
1.140000e-06	3.049410e-06	1.882805e-08	2.188154e+01	1.236372e+03
1.150000e-06	3.132932e-06	1.920849e-08	2.248086e+01	1.261608e+03
1.160000e-06	3.215462e-06	1.956995e-08	2.307307e+01	1.285448e+03
1.170000e-06	3.296731e-06	1.991387e-08	2.365623e+01	1.307993e+03
1.180000e-06	3.376801e-06	2.024132e-08	2.423079e+01	1.329349e+03
1.190000e-06	3.455636e-06	2.055094e-08	2.479648e+01	1.349618e+03
1.200000e-06	3.533206e-06	2.084470e-08	2.535309e+01	1.368892e+03
1.210000e-06	3.609527e-06	2.112288e-08	2.590075e+01	1.387250e+03
1.220000e-06	3.684500e-06	2.138555e-08	2.643873e+01	1.404752e+03
1.230000e-06	3.757937e-06	2.163536e-08	2.696569e+01	1.421437e+03
1.240000e-06	3.829800e-06	2.187411e-08	2.748136e+01	1.437335e+03
1.250000e-06	3.900327e-06	2.210280e-08	2.798743e+01	1.452467e+03
1.260000e-06	3.969572e-06	2.232103e-08	2.848431e+01	1.466854e+03
1.270000e-06	4.037476e-06	2.252611e-08	2.897157e+01	1.480525e+03
1.280000e-06	4.103814e-06	2.271955e-08	2.944759e+01	1.493518e+03
1.290000e-06	4.168442e-06	2.290567e-08	2.991134e+01	1.505880e+03
1.300000e-06	4.231589e-06	2.308478e-08	3.036446e+01	1.517661e+03
1.310000e-06	4.293409e-06	2.325551e-08	3.080805e+01	1.528911e+03
1.320000e-06	4.353865e-06	2.341958e-08	3.124187e+01	1.539669e+03
1.330000e-06	4.412813e-06	2.357853e-08	3.166486e+01	1.549964e+03
1.340000e-06	4.470004e-06	2.372977e-08	3.207524e+01	1.559805e+03
1.350000e-06	4.525443e-06	2.387339e-08	3.247306e+01	1.569192e+03
1.360000e-06	4.579325e-06	2.400804e-08	3.285969e+01	1.578113e+03
1.370000e-06	4.631531e-06	2.413461e-08	3.323430e+01	1.586557e+03
1.380000e-06	4.681697e-06	2.425568e-08	3.359428e+01	1.594517e+03
1.390000e-06	4.729872e-06	2.437132e-08	3.393997e+01	1.602000e+03
1.400000e-06	4.776349e-06	2.447964e-08	3.427347e+01	1.609026e+03
1.410000e-06	4.821265e-06	2.458209e-08	3.459578e+01	1.615629e+03
1.420000e-06	4.864567e-06	2.467857e-08	3.490650e+01	1.621849e+03
1.430000e-06	4.905982e-06	2.476552e-08	3.520368e+01	1.627731e+03
1.440000e-06	4.945610e-06	2.484591e-08	3.548803e+01	1.633309e+03
1.450000e-06	4.983662e-06	2.492467e-08	3.576108e+01	1.638609e+03
1.460000e-06	5.020114e-06	2.500131e-08	3.602265e+01	1.643640e+03
1.470000e-06	5.054808e-06	2.507450e-08	3.627160e+01	1.648397e+03
1.480000e-06	5.087581e-06	2.514352e-08	3.650677e+01	1.652863e+03
1.490000e-06	5.118585e-06	2.520736e-08	3.672925e+01	1.657020e+03
1.500000e-06	5.147938e-06	2.526616e-08	3.693987e+01	1.660848e+03
1.510000e-06	5.175576e-06	2.531970e-08	3.713819e+01	1.664338e+03
1.520000e-06	5.201252e-06	2.536804e-08	3.732243e+01	1.667491e+03
1.530000e-06	5.224876e-06	2.541104e-08	3.749195e+01	1.670317e+03
1.540000e-06	5.246667e-06	2.544874e-08	3.764832e+01	1.672836e+03
1.550000e-06	5.266806e-06	2.548157e-08	3.779283e+01	1.675069e+03
1.560000e-06	5.285156e-06	2.550989e-08	3.792450e+01	1.677036e+03
1.570000e-06	5.301478e-06	2.553561e-08	3.804162e+01	1.678751e+03
1.580000e-06	5.315794e-06	2.555843e-08	3.814434e+01	1.680221e+03
1.590000e-06	5.328111e-06	2.557617e-08	3.823273e+01	1.681447e+03
1.600000e-06	5.338224e-06	2.559001e-08	3.830530e+01	1.682428e+03
1.610000e-06	5.346228e-06	2.560097e-08	3.836273e+01	1.683162e+03
1.620000e-06	5.352411e-06	2.561055e-08	3.840710e+01	1.683653e+03
1.630000e-06	5.356830e-06	2.561704e-08	3.843881e+01	1.683911e+03
1.640000e-06	5.359326e-06	2.562049e-08	3.845672e+01	1.683951e+03
1.650000e-06	5.359783e-06	2.562336e-08	3.846000e+01	1.683790e+03
1.660000e-06	5.358385e-06	2.561752e-08	3.844997e+01	1.683444e+03
1.670000e-06	5.355350e-06	2.560640e-08	3.842818e+01	1.682920e+03
1.680000e-06	5.350644e-06	2.559638e-08	3.839442e+01	1.682215e+03
1.690000e-06	5.344052e-06	2.558321e-08	3.834712e+01	1.681317e+03
1.700000e-06	5.335680e-06	2.556676e-08	3.828704e+01	1.680204e+03
1.710000e-06	5.325726e-06	2.554899e-08	3.821561e+01	1.678852e+03
1.720000e-06	5.314072e-06	2.553811e-08	3.813199e+01	1.677241e+03
1.730000e-06	5.300499e-06	2.552650e-08	3.803459e+01	1.675363e+03
1.740000e-06	5.284993e-06	2.540945e-08	3.792333e+01	1.673224e+03
1.750000e-06	5.267281e-06	2.534794e-08	3.779624e+01	1.670849e+03
1.760000e-06	5.246968e-06	2.536788e-08	3.765048e+01	1.668275e+03
1.770000e-06	5.224224e-06	2.534124e-08	3.748727e+01	1.665548e+03
1.780000e-06	5.199849e-06	2.541778e-08	3.731236e+01	1.662709e+03
1.790000e-06	5.174699e-06	2.528804e-08	3.713190e+01	1.659791e+03
1.800000e-06	5.148503e-06	2.509595e-08	3.694393e+01	1.656806e+03
1.810000e-06	5.120268e-06	2.524721e-08	3.674132e+01	1.653742e+03
1.820000e-06	5.089998e-06	2.510637e-08	3.652411e+01	1.650566e+03
1.830000e-06	5.058087e-06	2.499161e-08	3.629513e+01	1.647228e+03
1.840000e-06	5.024272e-06	2.518839e-08	3.605248e+01	1.643670e+03
1.850000e-06	4.988837e-06	2.496372e-08	3.579822e+01	1.639835e+03
1.860000e-06	4.951792e-06	2.486811e-08	3.553239e+01	1.635679e+03
1.870000e-06	4.912775e-06	2.494705e-08	3.525242e+01	1.631174e+03
1.880000e-06	4.872084e-06	2.474643e-08	3.496043e+01	1.626312e+03
1.890000e-06	4.829632e-06	2.479041e-08	3.465581e+01	1.621100e+03
1.900000e-06	4.785450e-06	2.465959e-08	3.433878e+01	1.615558e+03
1.910000e-06	4.739585e-06	2.443764e-08	3.400966e+01	1.609712e+03
1.920000e-06	4.691731e-06	2.455039e-08	3.366628e+01	1.603580e+03
1.930000e-06	4.642160e-06	2.440391e-08	3.331058e+01	1.597173e+03
1.940000e-06	4.590863e-06	2.428639e-08	3.294249e+01	1.590491e+03
1.950000e-06	4.537411e-06	2.419571e-08	3.255894e+01	1.583522e+03
1.960000e-06	4.482071e-06	2.404877e-08	3.216183e+01	1.576247e+03
1.970000e-06	4.425156e-06	2.398615e-08	3.175343e+01	1.568647e+03
1.980000e-06	4.366688e-06	2.375921e-08	3.133388e+01	1.560707e+03
1.990000e-06	4.306786e-06	2.370918e-08	3.090405e+01	1.552418e+03
2.000000e-06	4.245351e-06	2.363681e-08	3.046321e+01	1.543780e+03
2.010000e-06	4.182211e-06	2.342789e-08	3.001014e+01	1.534802e+03
2.020000e-06	4.117467e-06	2.329620e-08	2.954555e+01	1.525495e+03
2.030000e-06	4.051320e-06	2.309973e-08	2.907090e+01	1.515868e+03
2.040000e-06	3.983860e-06	2.302630e-08	2.858684e+01	1.505926e+03
2.050000e-06	3.915010e-06	2.286511e-08	2.809280e+01	1.495661e+03
2.060000e-06	3.844611e-06	2.266639e-08	2.758764e+01	1.485059e+03
2.070000e-06	3.772773e-06	2.254253e-08	2.707215e+01	1.474096e+03
2.080000e-06	3.699663e-06	2.232793e-08	2.654753e+01	1.462743e+03
2.090000e-06	3.625228e-06	2.216977e-08	2.601342e+01	1.450970e+03
2.100000e-06	3.549423e-06	2.197683e-08	2.546947e+01	1.438753e+03
2.110000e-06	3.472075e-06	2.179385e-08	2.491444e+01	1.426071e+03
2.120000e-06	3.393247e-06	2.159117e-08	2.434880e+01	1.412911e+03
2.130000e-06	3.313208e-06	2.136243e-08	2.377446e+01	1.399264e+03
2.140000e-06	3.232002e-06	2.117104e-08	2.319176e+01	1.385122e+03
2.150000e-06	3.149696e-06	2.093799e-08	2.260116e+01	1.370478e+03
2.160000e-06	3.066459e-06	2.072693e-08	2.200387e+01	1.355316e+03
2.170000e-06	2.982230e-06	2.048841e-08	2.139948e+01	1.339616e+03
2.180000e-06	2.896735e-06	2.023561e-08	2.078599e+01	1.323350e+03
2.190000e-06	2.809944e-06	1.997170e-08	2.016321e+01	1.306483e+03
2.200000e-06	2.722084e-06	1.970077e-08	1.953276e+01	1.288978e+03
2.210000e-06	2.633304e-06	1.943979e-08	1.889571e+01	1.270796e+03
2.220000e-06	2.543634e-06	1.914795e-08	1.825226e+01	1.251902e+03
2.230000e-06	2.453111e-06	1.884713e-08	1.760270e+01	1.232257e+03
2.240000e-06	2.361891e-06	1.853192e-08	1.694813e+01	1.211827e+03
2.250000e-06	2.269984e-06	1.822078e-08	1.628864e+01	1.190572e+03
2.260000e-06	2.177190e-06	1.789001e-08	1.562278e+01	1.168452e+03
2.270000e-06	2.083410e-06	1.753928e-08	1.494985e+01	1.145413e+03
2.280000e-06	1.988726e-06	1.717422e-08	1.427042e+01	1.121397e+03
2.290000e-06	1.893269e-06	1.678572e-08	1.358546e+01	1.096332e+03
2.300000e-06	1.797133e-06	1.638358e-08	1.289562e+01	1.070140e+03
2.310000e-06	1.700445e-06	1.596615e-08	1.220182e+01	1.042736e+03
2.320000e-06	1.603290e-06	1.553726e-08	1.150467e+01	1.014032e+03
2.330000e-06	1.505576e-06	1.508292e-08	1.080351e+01	9.839409e+02
2.340000e-06	1.407343e-06	1.459923e-08	1.009862e+01	9.523775e+02
2.350000e-06	1.308697e-06	1.408751e-08	9.390768e+00	9.192613e+02
2.360000e-06	1.209718e-06	1.355837e-08	8.680527e+00	8.845178e+02
2.370000e-06	1.110492e-06	1.301034e-08	7.968520e+00	8.480797e+02
2.380000e-06	1.011014e-06	1.243357e-08	7.254696e+00	8.098897e+02
2.390000e-06	9.112558e-07	1.182377e-08	6.538865e+00	7.699054e+02
2.400000e-06	8.111592e-07	1.118085e-08	5.820605e+00	7.281047e+02
2.410000e-06	7.107415e-07	1.051018e-08	5.100041e+00	6.844945e+02
2.420000e-06	6.099843e-07	9.812463e-09	4.377042e+00	6.391182e+02
2.430000e-06	5.088301e-07	9.095584e-09	3.651193e+00	5.920629e+02
2.440000e-06	4.074370e-07	8.361017e-09	2.923631e+00	5.434622e+02
2.450000e-06	3.059623e-07	7.604517e-09	2.195482e+00	4.934940e+02
2.460000e-06	2.044301e-07	6.824490e-09	1.466921e+00	4.423716e+02
2.470000e-06	1.027524e-07	6.027905e-09	7.373167e-01	3.903278e+02
2.480000e-06	9.535961e-10	5.222271e-09	6.842685e-03	3.375937e+02
2.490000e-06	-1.008239e-07	4.408638e-09	-7.234782e-01	2.843741e+02
2.500000e-06	-2.025332e-07	3.588050e-09	-1.453310e+00	2.308243e+02
2.510000e-06	-3.041658e-07	2.765291e-09	-2.182591e+00	1.770305e+02
2.520000e-06	-4.057123e-07	1.941024e-09	-2.911255e+00	1.229994e+02
2.530000e-06	-5.071225e-07	1.110592e-09	-3.638940e+00	6.865927e+01
2.540000e-06	-6.082986e-07	2.731891e-10	-4.364946e+00	1.387289e+01
2.550000e-06	-7.091560e-07	-5.755569e-10	-5.088664e+00	-4.153668e+01
2.560000e-06	-8.096606e-07	-1.436938e-09	-5.809851e+00	-9.775204e+01
2.570000e-06	-9.098047e-07	-2.310333e-09	-6.528452e+00	-1.549225e+02
2.580000e-06	-1.009562e-06	-3.197289e-09	-7.244275e+00	-2.131264e+02
2.590000e-06	-1.108956e-06	-4.099645e-09	-7.957493e+00	-2.723402e+02
2.600000e-06	-1.208091e-06	-5.018389e-09	-8.668853e+00	-3.324196e+02
2.610000e-06	-1.306928e-06	-5.947164e-09	-9.378072e+00	-3.930954e+02
2.620000e-06	-1.405289e-06	-6.880376e-09	-1.008388e+01	-4.539866e+02
2.630000e-06	-1.503086e-06	-7.811677e-09	-1.078564e+01	-5.146268e+02
2.640000e-06	-1.600372e-06	-8.727641e-09	-1.148373e+01	-5.745033e+02
2.650000e-06	-1.697151e-06	-9.619354e-09	-1.217819e+01	-6.331009e+02
2.660000e-06	-1.793331e-06	-1.048647e-08	-1.286834e+01	-6.899446e+02
2.670000e-06	-1.888925e-06	-1.132597e-08	-1.355429e+01	-7.446372e+02
2.680000e-06	-1.983956e-06	-1.212908e-08	-1.423620e+01	-7.968844e+02
2.690000e-06	-2.078210e-06	-1.288860e-08	-1.491254e+01	-8.465062e+02
2.700000e-06	-2.171481e-06	-1.360771e-08	-1.558181e+01	-8.934342e+02
2.710000e-06	-2.263783e-06	-1.428916e-08	-1.624414e+01	-9.376963e+02
2.720000e-06	-2.355228e-06	-1.493041e-08	-1.690032e+01	-9.793928e+02
2.730000e-06	-2.445929e-06	-1.553413e-08	-1.755116e+01	-1.018669e+03
2.740000e-06	-2.535867e-06	-1.610482e-08	-1.819652e+01	-1.055689e+03
2.750000e-06	-2.624890e-06	-1.664308e-08	-1.883533e+01	-1.090614e+03
2.760000e-06	-2.713030e-06	-1.714597e-08	-1.946779e+01	-1.123588e+03
2.770000e-06	-2.800333e-06	-1.761821e-08	-2.009424e+01	-1.154733e+03
2.780000e-06	-2.886649e-06	-1.806784e-08	-2.071362e+01	-1.184154e+03
2.790000e-06	-2.971775e-06	-1.849494e-08	-2.132446e+01	-1.211940e+03
2.800000e-06	-3.055671e-06	-1.889822e-08	-2.192646e+01	-1.238177e+03
2.810000e-06	-3.138504e-06	-1.927981e-08	-2.252085e+01	-1.262954e+03
2.820000e-06	-3.220373e-06	-1.963998e-08	-2.310831e+01	-1.286368e+03
2.830000e-06	-3.301189e-06	-1.997826e-08	-2.368822e+01	-1.308521e+03
2.840000e-06	-3.380945e-06	-2.029854e-08	-2.426052e+01	-1.329518e+03
2.850000e-06	-3.459482e-06	-2.060414e-08	-2.482408e+01	-1.349459e+03
2.860000e-06	-3.536540e-06	-2.089669e-08	-2.537702e+01	-1.368433e+03
2.870000e-06	-3.612069e-06	-2.117682e-08	-2.591899e+01	-1.386511e+03
2.880000e-06	-3.686177e-06	-2.144233e-08	-2.645077e+01	-1.403748e+03
2.890000e-06	-3.758989e-06	-2.169276e-08	-2.697324e+01	-1.420179e+03
2.900000e-06	-3.830546e-06	-2.193113e-08	-2.748671e+01	-1.435830e+03
2.910000e-06	-3.900700e-06	-2.216056e-08	-2.799011e+01	-1.450721e+03
2.920000e-06	-3.969278e-06	-2.238164e-08	-2.848220e+01	-1.464876e+03
2.930000e-06	-4.036398e-06	-2.259220e-08	-2.896383e+01	-1.478326e+03
2.940000e-06	-4.102148e-06	-2.279188e-08	-2.943563e+01	-1.491112e+03
