# Temperatura_=_39.32
# Concentracion g/m^3_=_28200.0
# C_Vs_to_Am_M_A/Vsm_=_65563218390.804596
# pendiente_HvsI_1/m_=_3716.3
# ordenada_HvsI_A/m_=_1297.0
# frecuencia_Hz_=_301775.01012406364

Tiempo_(s)	Campo_(V.s)	Magnetizacion_(V.s)	Campo_(kA/m)	Magnetizacion_(A/m)
0.000000e+00	-5.315856e-06	-1.915612e-08	-3.829526e+01	-1.252261e+03
1.000000e-08	-5.313971e-06	-1.915515e-08	-3.828169e+01	-1.251971e+03
2.000000e-08	-5.310199e-06	-1.914717e-08	-3.825451e+01	-1.251563e+03
3.000000e-08	-5.304807e-06	-1.913574e-08	-3.821567e+01	-1.251030e+03
4.000000e-08	-5.297824e-06	-1.912330e-08	-3.816536e+01	-1.250357e+03
5.000000e-08	-5.289182e-06	-1.910720e-08	-3.810311e+01	-1.249521e+03
6.000000e-08	-5.278557e-06	-1.908714e-08	-3.802657e+01	-1.248501e+03
7.000000e-08	-5.265974e-06	-1.906198e-08	-3.793592e+01	-1.247282e+03
8.000000e-08	-5.251531e-06	-1.902926e-08	-3.783187e+01	-1.245862e+03
9.000000e-08	-5.234880e-06	-1.904683e-08	-3.771191e+01	-1.244254e+03
1.000000e-07	-5.216099e-06	-1.906287e-08	-3.757662e+01	-1.242487e+03
1.100000e-07	-5.195412e-06	-1.899041e-08	-3.742759e+01	-1.240595e+03
1.200000e-07	-5.172849e-06	-1.893859e-08	-3.726505e+01	-1.238618e+03
1.300000e-07	-5.148717e-06	-1.887935e-08	-3.709120e+01	-1.236585e+03
1.400000e-07	-5.123145e-06	-1.877721e-08	-3.690698e+01	-1.234515e+03
1.500000e-07	-5.095930e-06	-1.887392e-08	-3.671092e+01	-1.232404e+03
1.600000e-07	-5.067097e-06	-1.884200e-08	-3.650322e+01	-1.230231e+03
1.700000e-07	-5.036857e-06	-1.867295e-08	-3.628537e+01	-1.227960e+03
1.800000e-07	-5.004935e-06	-1.876834e-08	-3.605540e+01	-1.225543e+03
1.900000e-07	-4.970879e-06	-1.867871e-08	-3.581006e+01	-1.222933e+03
2.000000e-07	-4.935086e-06	-1.854581e-08	-3.555221e+01	-1.220089e+03
2.100000e-07	-4.897819e-06	-1.864482e-08	-3.528374e+01	-1.216983e+03
2.200000e-07	-4.858771e-06	-1.854049e-08	-3.500244e+01	-1.213603e+03
2.300000e-07	-4.817885e-06	-1.843211e-08	-3.470790e+01	-1.209952e+03
2.400000e-07	-4.775049e-06	-1.842116e-08	-3.439931e+01	-1.206044e+03
2.500000e-07	-4.730355e-06	-1.829669e-08	-3.407733e+01	-1.201900e+03
2.600000e-07	-4.683981e-06	-1.827000e-08	-3.374326e+01	-1.197539e+03
2.700000e-07	-4.635754e-06	-1.822735e-08	-3.339583e+01	-1.192975e+03
2.800000e-07	-4.585513e-06	-1.810443e-08	-3.303390e+01	-1.188215e+03
2.900000e-07	-4.533239e-06	-1.801412e-08	-3.265732e+01	-1.183257e+03
3.000000e-07	-4.479173e-06	-1.793626e-08	-3.226783e+01	-1.178089e+03
3.100000e-07	-4.423539e-06	-1.787808e-08	-3.186704e+01	-1.172699e+03
3.200000e-07	-4.366177e-06	-1.779599e-08	-3.145381e+01	-1.167072e+03
3.300000e-07	-4.307032e-06	-1.771341e-08	-3.102773e+01	-1.161196e+03
3.400000e-07	-4.246324e-06	-1.761706e-08	-3.059039e+01	-1.155066e+03
3.500000e-07	-4.184198e-06	-1.749078e-08	-3.014283e+01	-1.148677e+03
3.600000e-07	-4.120735e-06	-1.738639e-08	-2.968565e+01	-1.142032e+03
3.700000e-07	-4.055784e-06	-1.728380e-08	-2.921775e+01	-1.135131e+03
3.800000e-07	-3.989183e-06	-1.720116e-08	-2.873796e+01	-1.127976e+03
3.900000e-07	-3.921092e-06	-1.709189e-08	-2.824743e+01	-1.120566e+03
4.000000e-07	-3.851681e-06	-1.694539e-08	-2.774739e+01	-1.112894e+03
4.100000e-07	-3.781089e-06	-1.683400e-08	-2.723885e+01	-1.104952e+03
4.200000e-07	-3.709305e-06	-1.670801e-08	-2.672172e+01	-1.096728e+03
4.300000e-07	-3.636114e-06	-1.657693e-08	-2.619445e+01	-1.088208e+03
4.400000e-07	-3.561351e-06	-1.644057e-08	-2.565587e+01	-1.079378e+03
4.500000e-07	-3.485119e-06	-1.629400e-08	-2.510669e+01	-1.070222e+03
4.600000e-07	-3.407571e-06	-1.613959e-08	-2.454804e+01	-1.060725e+03
4.700000e-07	-3.328638e-06	-1.598594e-08	-2.397940e+01	-1.050871e+03
4.800000e-07	-3.248314e-06	-1.584535e-08	-2.340076e+01	-1.040642e+03
4.900000e-07	-3.166742e-06	-1.568305e-08	-2.281312e+01	-1.030022e+03
5.000000e-07	-3.084108e-06	-1.550984e-08	-2.221782e+01	-1.018990e+03
5.100000e-07	-3.000593e-06	-1.533115e-08	-2.161618e+01	-1.007528e+03
5.200000e-07	-2.916231e-06	-1.514559e-08	-2.100844e+01	-9.956131e+02
5.300000e-07	-2.830920e-06	-1.495353e-08	-2.039386e+01	-9.832266e+02
5.400000e-07	-2.744587e-06	-1.475577e-08	-1.977192e+01	-9.703472e+02
5.500000e-07	-2.657352e-06	-1.455051e-08	-1.914348e+01	-9.569532e+02
5.600000e-07	-2.569279e-06	-1.433148e-08	-1.850901e+01	-9.430203e+02
5.700000e-07	-2.480152e-06	-1.410629e-08	-1.786694e+01	-9.285210e+02
5.800000e-07	-2.389806e-06	-1.387798e-08	-1.721609e+01	-9.134228e+02
5.900000e-07	-2.298423e-06	-1.364275e-08	-1.655777e+01	-8.976881e+02
6.000000e-07	-2.206312e-06	-1.339475e-08	-1.589420e+01	-8.812747e+02
6.100000e-07	-2.113510e-06	-1.312918e-08	-1.522567e+01	-8.641371e+02
6.200000e-07	-2.019916e-06	-1.284973e-08	-1.455142e+01	-8.462285e+02
6.300000e-07	-1.925568e-06	-1.256073e-08	-1.387173e+01	-8.275030e+02
6.400000e-07	-1.830582e-06	-1.226112e-08	-1.318745e+01	-8.079169e+02
6.500000e-07	-1.735049e-06	-1.194971e-08	-1.249924e+01	-7.874292e+02
6.600000e-07	-1.638944e-06	-1.162129e-08	-1.180690e+01	-7.660005e+02
6.700000e-07	-1.542149e-06	-1.127558e-08	-1.110960e+01	-7.435911e+02
6.800000e-07	-1.444634e-06	-1.091556e-08	-1.040710e+01	-7.201582e+02
6.900000e-07	-1.346448e-06	-1.054141e-08	-9.699773e+00	-6.956543e+02
7.000000e-07	-1.247646e-06	-1.015220e-08	-8.988006e+00	-6.700264e+02
7.100000e-07	-1.148425e-06	-9.744538e-09	-8.273216e+00	-6.432186e+02
7.200000e-07	-1.048923e-06	-9.315535e-09	-7.556410e+00	-6.151768e+02
7.300000e-07	-9.491521e-07	-8.862402e-09	-6.837663e+00	-5.858566e+02
7.400000e-07	-8.491252e-07	-8.388854e-09	-6.117072e+00	-5.552326e+02
7.500000e-07	-7.488625e-07	-7.901805e-09	-5.394783e+00	-5.233083e+02
7.600000e-07	-6.483450e-07	-7.400498e-09	-4.670658e+00	-4.901232e+02
7.700000e-07	-5.475927e-07	-6.880833e-09	-3.944842e+00	-4.557578e+02
7.800000e-07	-4.467259e-07	-6.344785e-09	-3.218200e+00	-4.203333e+02
7.900000e-07	-3.457806e-07	-5.793220e-09	-2.490993e+00	-3.840055e+02
8.000000e-07	-2.446817e-07	-5.226885e-09	-1.762680e+00	-3.469541e+02
8.100000e-07	-1.434548e-07	-4.651929e-09	-1.033444e+00	-3.093685e+02
8.200000e-07	-4.215026e-08	-4.073312e-09	-3.036492e-01	-2.714301e+02
8.300000e-07	5.922611e-08	-3.494423e-09	4.266631e-01	-2.332956e+02
8.400000e-07	1.606146e-07	-2.915164e-09	1.157063e+00	-1.950828e+02
8.500000e-07	2.619389e-07	-2.337796e-09	1.887000e+00	-1.568591e+02
8.600000e-07	3.631660e-07	-1.762009e-09	2.616237e+00	-1.186374e+02
8.700000e-07	4.642460e-07	-1.183702e-09	3.344414e+00	-8.037634e+01
8.800000e-07	5.651993e-07	-6.023733e-10	4.071679e+00	-4.198845e+01
8.900000e-07	6.660656e-07	-1.610379e-11	4.798317e+00	-3.352518e+00
9.000000e-07	7.667413e-07	5.772030e-10	5.523581e+00	3.566907e+01
9.100000e-07	8.671225e-07	1.179836e-09	6.246724e+00	7.521065e+01
9.200000e-07	9.671943e-07	1.792310e-09	6.967639e+00	1.153829e+02
9.300000e-07	1.066996e-06	2.414843e-09	7.686604e+00	1.562540e+02
9.400000e-07	1.166524e-06	3.049375e-09	8.403602e+00	1.978339e+02
9.500000e-07	1.265740e-06	3.693527e-09	9.118356e+00	2.400640e+02
9.600000e-07	1.364500e-06	4.342009e-09	9.829819e+00	2.828136e+02
9.700000e-07	1.462621e-06	4.994657e-09	1.053667e+01	3.258829e+02
9.800000e-07	1.559947e-06	5.648982e-09	1.123781e+01	3.690141e+02
9.900000e-07	1.656441e-06	6.302216e-09	1.193295e+01	4.119083e+02
1.000000e-06	1.752276e-06	6.949828e-09	1.262335e+01	4.542470e+02
1.010000e-06	1.847549e-06	7.582967e-09	1.330969e+01	4.957159e+02
1.020000e-06	1.942191e-06	8.198084e-09	1.399149e+01	5.360274e+02
1.030000e-06	2.036119e-06	8.789020e-09	1.466814e+01	5.749401e+02
1.040000e-06	2.129305e-06	9.352863e-09	1.533945e+01	6.122722e+02
1.050000e-06	2.221802e-06	9.890351e-09	1.600579e+01	6.479075e+02
1.060000e-06	2.313656e-06	1.040151e-08	1.666751e+01	6.817942e+02
1.070000e-06	2.404840e-06	1.088834e-08	1.732440e+01	7.139362e+02
1.080000e-06	2.495018e-06	1.135033e-08	1.797403e+01	7.443807e+02
1.090000e-06	2.583883e-06	1.178908e-08	1.861422e+01	7.732031e+02
1.100000e-06	2.671726e-06	1.220511e-08	1.924704e+01	8.004917e+02
1.110000e-06	2.758855e-06	1.259862e-08	1.987471e+01	8.263359e+02
1.120000e-06	2.845109e-06	1.296985e-08	2.049608e+01	8.508185e+02
1.130000e-06	2.930342e-06	1.332298e-08	2.111009e+01	8.740118e+02
1.140000e-06	3.014636e-06	1.365640e-08	2.171735e+01	8.959784e+02
1.150000e-06	3.098115e-06	1.397095e-08	2.231873e+01	9.167750e+02
1.160000e-06	3.180600e-06	1.426812e-08	2.291295e+01	9.364558e+02
1.170000e-06	3.261834e-06	1.454920e-08	2.349815e+01	9.550773e+02
1.180000e-06	3.341899e-06	1.481593e-08	2.407494e+01	9.726997e+02
1.190000e-06	3.420825e-06	1.506743e-08	2.464352e+01	9.893868e+02
1.200000e-06	3.498542e-06	1.530814e-08	2.520339e+01	1.005204e+03
1.210000e-06	3.575057e-06	1.553682e-08	2.575460e+01	1.020215e+03
1.220000e-06	3.650218e-06	1.575345e-08	2.629606e+01	1.034479e+03
1.230000e-06	3.723673e-06	1.595822e-08	2.682523e+01	1.048045e+03
1.240000e-06	3.795521e-06	1.615149e-08	2.734282e+01	1.060957e+03
1.250000e-06	3.866085e-06	1.633367e-08	2.785116e+01	1.073248e+03
1.260000e-06	3.935316e-06	1.650663e-08	2.834990e+01	1.084944e+03
1.270000e-06	4.003273e-06	1.667163e-08	2.883946e+01	1.096071e+03
1.280000e-06	4.069874e-06	1.682917e-08	2.931925e+01	1.106650e+03
1.290000e-06	4.134753e-06	1.698232e-08	2.978664e+01	1.116701e+03
1.300000e-06	4.198018e-06	1.713206e-08	3.024239e+01	1.126246e+03
1.310000e-06	4.259946e-06	1.727414e-08	3.068853e+01	1.135305e+03
1.320000e-06	4.320527e-06	1.740612e-08	3.112495e+01	1.143896e+03
1.330000e-06	4.379793e-06	1.753033e-08	3.155190e+01	1.152034e+03
1.340000e-06	4.437369e-06	1.764730e-08	3.196667e+01	1.159733e+03
1.350000e-06	4.493112e-06	1.775651e-08	3.236824e+01	1.167003e+03
1.360000e-06	4.547256e-06	1.785805e-08	3.275830e+01	1.173858e+03
1.370000e-06	4.599659e-06	1.795218e-08	3.313580e+01	1.180314e+03
1.380000e-06	4.650039e-06	1.804063e-08	3.349874e+01	1.186393e+03
1.390000e-06	4.698402e-06	1.812566e-08	3.384715e+01	1.192124e+03
1.400000e-06	4.745067e-06	1.820860e-08	3.418332e+01	1.197541e+03
1.410000e-06	4.790227e-06	1.828963e-08	3.450865e+01	1.202677e+03
1.420000e-06	4.833930e-06	1.836734e-08	3.482349e+01	1.207565e+03
1.430000e-06	4.875760e-06	1.843723e-08	3.512483e+01	1.212231e+03
1.440000e-06	4.915672e-06	1.850188e-08	3.541235e+01	1.216688e+03
1.450000e-06	4.954011e-06	1.856501e-08	3.568854e+01	1.220938e+03
1.460000e-06	4.990772e-06	1.862620e-08	3.595337e+01	1.224971e+03
1.470000e-06	5.025899e-06	1.868368e-08	3.620642e+01	1.228768e+03
1.480000e-06	5.059097e-06	1.873568e-08	3.644558e+01	1.232310e+03
1.490000e-06	5.090422e-06	1.878347e-08	3.667124e+01	1.235580e+03
1.500000e-06	5.120090e-06	1.882764e-08	3.688498e+01	1.238570e+03
1.510000e-06	5.148171e-06	1.886828e-08	3.708727e+01	1.241280e+03
1.520000e-06	5.174373e-06	1.890560e-08	3.727603e+01	1.243726e+03
1.530000e-06	5.198419e-06	1.893919e-08	3.744925e+01	1.245928e+03
1.540000e-06	5.220550e-06	1.896865e-08	3.760869e+01	1.247912e+03
1.550000e-06	5.240994e-06	1.899617e-08	3.775596e+01	1.249699e+03
1.560000e-06	5.259722e-06	1.901944e-08	3.789088e+01	1.251305e+03
1.570000e-06	5.276452e-06	1.903828e-08	3.801140e+01	1.252736e+03
1.580000e-06	5.291194e-06	1.905603e-08	3.811760e+01	1.253989e+03
1.590000e-06	5.304026e-06	1.907171e-08	3.821004e+01	1.255055e+03
1.600000e-06	5.314703e-06	1.908517e-08	3.828696e+01	1.255922e+03
1.610000e-06	5.323187e-06	1.909567e-08	3.834808e+01	1.256583e+03
1.620000e-06	5.329779e-06	1.910471e-08	3.839556e+01	1.257040e+03
1.630000e-06	5.334620e-06	1.911191e-08	3.843044e+01	1.257301e+03
1.640000e-06	5.337673e-06	1.911576e-08	3.845243e+01	1.257385e+03
1.650000e-06	5.338723e-06	1.911803e-08	3.846000e+01	1.257313e+03
1.660000e-06	5.337821e-06	1.911538e-08	3.845350e+01	1.257107e+03
1.670000e-06	5.335264e-06	1.910632e-08	3.843508e+01	1.256778e+03
1.680000e-06	5.331131e-06	1.909952e-08	3.840531e+01	1.256330e+03
1.690000e-06	5.325140e-06	1.909165e-08	3.836215e+01	1.255753e+03
1.700000e-06	5.317251e-06	1.908239e-08	3.830531e+01	1.255030e+03
1.710000e-06	5.307768e-06	1.907324e-08	3.823700e+01	1.254136e+03
1.720000e-06	5.296685e-06	1.906636e-08	3.815716e+01	1.253052e+03
1.730000e-06	5.283753e-06	1.907245e-08	3.806400e+01	1.251767e+03
1.740000e-06	5.268832e-06	1.901169e-08	3.795650e+01	1.250284e+03
1.750000e-06	5.251782e-06	1.892613e-08	3.783368e+01	1.248620e+03
1.760000e-06	5.232213e-06	1.893939e-08	3.769270e+01	1.246808e+03
1.770000e-06	5.210031e-06	1.892821e-08	3.753291e+01	1.244884e+03
1.780000e-06	5.186006e-06	1.896652e-08	3.735983e+01	1.242885e+03
1.790000e-06	5.161107e-06	1.896016e-08	3.718046e+01	1.240839e+03
1.800000e-06	5.135393e-06	1.875019e-08	3.699522e+01	1.238756e+03
1.810000e-06	5.107911e-06	1.883113e-08	3.679724e+01	1.236628e+03
1.820000e-06	5.078292e-06	1.886543e-08	3.658386e+01	1.234427e+03
1.830000e-06	5.046996e-06	1.867050e-08	3.635841e+01	1.232113e+03
1.840000e-06	5.013858e-06	1.881271e-08	3.611968e+01	1.229639e+03
1.850000e-06	4.978953e-06	1.876647e-08	3.586822e+01	1.226956e+03
1.860000e-06	4.942545e-06	1.855179e-08	3.560594e+01	1.224030e+03
1.870000e-06	4.904152e-06	1.863829e-08	3.532937e+01	1.220835e+03
1.880000e-06	4.863916e-06	1.852853e-08	3.503951e+01	1.217366e+03
1.890000e-06	4.822084e-06	1.849296e-08	3.473814e+01	1.213630e+03
1.900000e-06	4.778456e-06	1.853287e-08	3.442386e+01	1.209643e+03
1.910000e-06	4.733108e-06	1.829847e-08	3.409717e+01	1.205427e+03
1.920000e-06	4.685903e-06	1.832927e-08	3.375711e+01	1.200998e+03
1.930000e-06	4.636972e-06	1.830990e-08	3.340460e+01	1.196371e+03
1.940000e-06	4.586464e-06	1.816389e-08	3.304075e+01	1.191547e+03
1.950000e-06	4.533974e-06	1.813970e-08	3.266261e+01	1.186521e+03
1.960000e-06	4.479457e-06	1.801058e-08	3.226987e+01	1.181283e+03
1.970000e-06	4.423194e-06	1.797135e-08	3.186455e+01	1.175817e+03
1.980000e-06	4.365306e-06	1.784461e-08	3.144754e+01	1.170111e+03
1.990000e-06	4.305929e-06	1.771757e-08	3.101978e+01	1.164153e+03
2.000000e-06	4.245180e-06	1.772826e-08	3.058215e+01	1.157939e+03
2.010000e-06	4.182886e-06	1.758794e-08	3.013339e+01	1.151467e+03
2.020000e-06	4.118816e-06	1.748743e-08	2.967183e+01	1.144738e+03
2.030000e-06	4.053239e-06	1.734755e-08	2.919941e+01	1.137755e+03
2.040000e-06	3.986393e-06	1.724151e-08	2.871785e+01	1.130518e+03
2.050000e-06	3.918183e-06	1.717705e-08	2.822647e+01	1.123023e+03
2.060000e-06	3.848408e-06	1.700419e-08	2.772382e+01	1.115265e+03
2.070000e-06	3.777116e-06	1.692016e-08	2.721023e+01	1.107233e+03
2.080000e-06	3.704598e-06	1.678555e-08	2.668781e+01	1.098915e+03
2.090000e-06	3.630781e-06	1.664743e-08	2.615604e+01	1.090296e+03
2.100000e-06	3.555587e-06	1.652635e-08	2.561434e+01	1.081362e+03
2.110000e-06	3.479007e-06	1.637750e-08	2.506266e+01	1.072097e+03
2.120000e-06	3.400882e-06	1.625293e-08	2.449985e+01	1.062486e+03
2.130000e-06	3.321466e-06	1.607656e-08	2.392774e+01	1.052513e+03
2.140000e-06	3.240974e-06	1.592816e-08	2.334788e+01	1.042160e+03
2.150000e-06	3.159325e-06	1.576259e-08	2.275968e+01	1.031408e+03
2.160000e-06	3.076573e-06	1.559271e-08	2.216354e+01	1.020239e+03
2.170000e-06	2.992838e-06	1.542952e-08	2.156031e+01	1.008633e+03
2.180000e-06	2.908121e-06	1.524316e-08	2.095001e+01	9.965680e+02
2.190000e-06	2.822128e-06	1.505700e-08	2.033052e+01	9.840246e+02
2.200000e-06	2.734845e-06	1.485001e-08	1.970174e+01	9.709815e+02
2.210000e-06	2.646603e-06	1.465451e-08	1.906605e+01	9.574162e+02
2.220000e-06	2.557492e-06	1.444548e-08	1.842410e+01	9.433037e+02
2.230000e-06	2.467492e-06	1.422185e-08	1.777574e+01	9.286149e+02
2.240000e-06	2.376671e-06	1.398368e-08	1.712147e+01	9.133156e+02
2.250000e-06	2.285112e-06	1.373703e-08	1.646188e+01	8.973667e+02
2.260000e-06	2.192913e-06	1.348689e-08	1.579768e+01	8.807248e+02
2.270000e-06	2.099983e-06	1.322113e-08	1.512821e+01	8.633437e+02
2.280000e-06	2.006043e-06	1.295128e-08	1.445148e+01	8.451767e+02
2.290000e-06	1.911105e-06	1.266507e-08	1.376754e+01	8.261783e+02
2.300000e-06	1.815464e-06	1.236311e-08	1.307855e+01	8.063060e+02
2.310000e-06	1.719323e-06	1.204476e-08	1.238595e+01	7.855193e+02
2.320000e-06	1.622677e-06	1.171574e-08	1.168972e+01	7.637790e+02
2.330000e-06	1.525506e-06	1.137538e-08	1.098970e+01	7.410446e+02
2.340000e-06	1.427813e-06	1.101463e-08	1.028592e+01	7.172722e+02
2.350000e-06	1.329571e-06	1.063214e-08	9.578191e+00	6.924122e+02
2.360000e-06	1.230880e-06	1.023182e-08	8.867223e+00	6.664104e+02
2.370000e-06	1.131859e-06	9.820375e-09	8.153880e+00	6.392107e+02
2.380000e-06	1.032591e-06	9.393422e-09	7.438752e+00	6.107612e+02
2.390000e-06	9.331155e-07	8.945907e-09	6.722136e+00	5.810228e+02
2.400000e-06	8.333947e-07	8.474390e-09	6.003750e+00	5.499781e+02
2.410000e-06	7.334303e-07	7.980774e-09	5.283610e+00	5.176414e+02
2.420000e-06	6.332484e-07	7.464286e-09	4.561902e+00	4.840653e+02
2.430000e-06	5.328264e-07	6.929365e-09	3.838465e+00	4.493437e+02
2.440000e-06	4.322061e-07	6.383115e-09	3.113600e+00	4.136096e+02
2.450000e-06	3.314980e-07	5.826234e-09	2.388101e+00	3.770280e+02
2.460000e-06	2.306235e-07	5.256092e-09	1.661405e+00	3.397836e+02
2.470000e-06	1.295875e-07	4.676186e-09	9.335444e-01	3.020648e+02
2.480000e-06	2.850065e-08	4.095334e-09	2.053179e-01	2.640470e+02
2.490000e-06	-7.262174e-08	3.514159e-09	-5.231649e-01	2.258760e+02
2.500000e-06	-1.737020e-07	2.929686e-09	-1.251344e+00	1.876541e+02
2.510000e-06	-2.747292e-07	2.342157e-09	-1.979141e+00	1.494315e+02
2.520000e-06	-3.756719e-07	1.754577e-09	-2.706329e+00	1.112033e+02
2.530000e-06	-4.764714e-07	1.166583e-09	-3.432486e+00	7.291212e+01
2.540000e-06	-5.770732e-07	5.762207e-10	-4.157218e+00	3.445807e+01
2.550000e-06	-6.774168e-07	-1.897784e-11	-4.880090e+00	-4.287363e+00
2.560000e-06	-7.775549e-07	-6.209386e-10	-5.601482e+00	-4.346298e+01
2.570000e-06	-8.774465e-07	-1.228214e-09	-6.321098e+00	-8.319771e+01
2.580000e-06	-9.770221e-07	-1.842094e-09	-7.038438e+00	-1.235905e+02
2.590000e-06	-1.076277e-06	-2.465131e-09	-7.753469e+00	-1.646923e+02
2.600000e-06	-1.175216e-06	-3.101379e-09	-8.466219e+00	-2.064918e+02
2.610000e-06	-1.273832e-06	-3.750535e-09	-9.176646e+00	-2.489074e+02
2.620000e-06	-1.372008e-06	-4.408943e-09	-9.883901e+00	-2.917854e+02
2.630000e-06	-1.469651e-06	-5.072060e-09	-1.058732e+01	-3.349059e+02
2.640000e-06	-1.566775e-06	-5.732896e-09	-1.128700e+01	-3.779957e+02
2.650000e-06	-1.663349e-06	-6.385936e-09	-1.198271e+01	-4.207472e+02
2.660000e-06	-1.759464e-06	-7.027321e-09	-1.267512e+01	-4.628406e+02
2.670000e-06	-1.855155e-06	-7.655281e-09	-1.336448e+01	-5.039678e+02
2.680000e-06	-1.950180e-06	-8.267367e-09	-1.404904e+01	-5.438541e+02
2.690000e-06	-2.044264e-06	-8.857126e-09	-1.472682e+01	-5.822763e+02
2.700000e-06	-2.137283e-06	-9.420677e-09	-1.539692e+01	-6.190733e+02
2.710000e-06	-2.229347e-06	-9.960432e-09	-1.606015e+01	-6.541501e+02
2.720000e-06	-2.320654e-06	-1.047366e-08	-1.671792e+01	-6.874740e+02
2.730000e-06	-2.411215e-06	-1.095895e-08	-1.737032e+01	-7.190644e+02
2.740000e-06	-2.500918e-06	-1.141863e-08	-1.801654e+01	-7.489792e+02
2.750000e-06	-2.589765e-06	-1.185305e-08	-1.865659e+01	-7.772995e+02
2.760000e-06	-2.677836e-06	-1.226383e-08	-1.929105e+01	-8.041151e+02
2.770000e-06	-2.765102e-06	-1.265286e-08	-1.991971e+01	-8.295139e+02
2.780000e-06	-2.851337e-06	-1.302213e-08	-2.054094e+01	-8.535755e+02
2.790000e-06	-2.936389e-06	-1.337200e-08	-2.115366e+01	-8.763688e+02
2.800000e-06	-3.020323e-06	-1.370133e-08	-2.175832e+01	-8.979542e+02
2.810000e-06	-3.103252e-06	-1.401304e-08	-2.235574e+01	-9.183870e+02
2.820000e-06	-3.185179e-06	-1.430945e-08	-2.294594e+01	-9.377218e+02
2.830000e-06	-3.266056e-06	-1.459114e-08	-2.352857e+01	-9.560162e+02
2.840000e-06	-3.345832e-06	-1.485879e-08	-2.410327e+01	-9.733316e+02
2.850000e-06	-3.424345e-06	-1.511118e-08	-2.466888e+01	-9.897328e+02
2.860000e-06	-3.501396e-06	-1.534917e-08	-2.522395e+01	-1.005285e+03
2.870000e-06	-3.576986e-06	-1.557612e-08	-2.576850e+01	-1.020051e+03
2.880000e-06	-3.651207e-06	-1.579439e-08	-2.630319e+01	-1.034086e+03
2.890000e-06	-3.724120e-06	-1.600361e-08	-2.682845e+01	-1.047439e+03
2.900000e-06	-3.795853e-06	-1.620117e-08	-2.734521e+01	-1.060148e+03
2.910000e-06	-3.866161e-06	-1.638721e-08	-2.785171e+01	-1.072246e+03
2.920000e-06	-3.934804e-06	-1.656541e-08	-2.834621e+01	-1.083758e+03
2.930000e-06	-4.002022e-06	-1.673602e-08	-2.883045e+01	-1.094707e+03
2.940000e-06	-4.067945e-06	-1.689701e-08	-2.930535e+01	-1.105114e+03
