# Temperatura_=_27.76
# Concentracion g/m^3_=_28200.0
# C_Vs_to_Am_M_A/Vsm_=_65563218390.804596
# pendiente_HvsI_1/m_=_3716.3
# ordenada_HvsI_A/m_=_1297.0
# frecuencia_Hz_=_301781.3957106448

Tiempo_(s)	Campo_(V.s)	Magnetizacion_(V.s)	Campo_(kA/m)	Magnetizacion_(A/m)
0.000000e+00	-5.314777e-06	-1.812269e-08	-3.829704e+01	-1.185097e+03
1.000000e-08	-5.313354e-06	-1.812217e-08	-3.828679e+01	-1.184866e+03
2.000000e-08	-5.310001e-06	-1.811450e-08	-3.826263e+01	-1.184525e+03
3.000000e-08	-5.304991e-06	-1.810185e-08	-3.822652e+01	-1.184063e+03
4.000000e-08	-5.298332e-06	-1.808995e-08	-3.817854e+01	-1.183463e+03
5.000000e-08	-5.290036e-06	-1.807561e-08	-3.811876e+01	-1.182698e+03
6.000000e-08	-5.279851e-06	-1.805652e-08	-3.804537e+01	-1.181746e+03
7.000000e-08	-5.267708e-06	-1.803463e-08	-3.795787e+01	-1.180593e+03
8.000000e-08	-5.253702e-06	-1.800100e-08	-3.785694e+01	-1.179239e+03
9.000000e-08	-5.237515e-06	-1.801442e-08	-3.774031e+01	-1.177701e+03
1.000000e-07	-5.219124e-06	-1.804536e-08	-3.760779e+01	-1.176009e+03
1.100000e-07	-5.198773e-06	-1.797838e-08	-3.746114e+01	-1.174203e+03
1.200000e-07	-5.176618e-06	-1.791612e-08	-3.730150e+01	-1.172320e+03
1.300000e-07	-5.152882e-06	-1.786910e-08	-3.713046e+01	-1.170389e+03
1.400000e-07	-5.127617e-06	-1.774264e-08	-3.694841e+01	-1.168422e+03
1.500000e-07	-5.100736e-06	-1.782957e-08	-3.675471e+01	-1.166411e+03
1.600000e-07	-5.072260e-06	-1.785603e-08	-3.654952e+01	-1.164329e+03
1.700000e-07	-5.042400e-06	-1.766187e-08	-3.633435e+01	-1.162134e+03
1.800000e-07	-5.010948e-06	-1.775829e-08	-3.610772e+01	-1.159778e+03
1.900000e-07	-4.977334e-06	-1.771005e-08	-3.586550e+01	-1.157215e+03
2.000000e-07	-4.941941e-06	-1.751724e-08	-3.561047e+01	-1.154413e+03
2.100000e-07	-4.905073e-06	-1.761738e-08	-3.534481e+01	-1.151353e+03
2.200000e-07	-4.866479e-06	-1.752946e-08	-3.506671e+01	-1.148034e+03
2.300000e-07	-4.826121e-06	-1.738187e-08	-3.477590e+01	-1.144471e+03
2.400000e-07	-4.783798e-06	-1.740245e-08	-3.447093e+01	-1.140686e+03
2.500000e-07	-4.739587e-06	-1.730718e-08	-3.415235e+01	-1.136704e+03
2.600000e-07	-4.693633e-06	-1.727959e-08	-3.382122e+01	-1.132544e+03
2.700000e-07	-4.645840e-06	-1.724551e-08	-3.347684e+01	-1.128216e+03
2.800000e-07	-4.596032e-06	-1.710405e-08	-3.311793e+01	-1.123717e+03
2.900000e-07	-4.544108e-06	-1.701111e-08	-3.274378e+01	-1.119033e+03
3.000000e-07	-4.490277e-06	-1.695479e-08	-3.235589e+01	-1.114147e+03
3.100000e-07	-4.434893e-06	-1.691328e-08	-3.195680e+01	-1.109038e+03
3.200000e-07	-4.377877e-06	-1.683139e-08	-3.154595e+01	-1.103689e+03
3.300000e-07	-4.319077e-06	-1.674531e-08	-3.112226e+01	-1.098091e+03
3.400000e-07	-4.258800e-06	-1.665055e-08	-3.068792e+01	-1.092241e+03
3.500000e-07	-4.197107e-06	-1.651502e-08	-3.024337e+01	-1.086145e+03
3.600000e-07	-4.133965e-06	-1.642497e-08	-2.978838e+01	-1.079810e+03
3.700000e-07	-4.069400e-06	-1.634331e-08	-2.932315e+01	-1.073242e+03
3.800000e-07	-4.003218e-06	-1.626617e-08	-2.884626e+01	-1.066444e+03
3.900000e-07	-3.935437e-06	-1.615836e-08	-2.835784e+01	-1.059413e+03
4.000000e-07	-3.866286e-06	-1.599932e-08	-2.785955e+01	-1.052138e+03
4.100000e-07	-3.795928e-06	-1.589258e-08	-2.735257e+01	-1.044603e+03
4.200000e-07	-3.724364e-06	-1.578644e-08	-2.683689e+01	-1.036791e+03
4.300000e-07	-3.651473e-06	-1.566873e-08	-2.631166e+01	-1.028683e+03
4.400000e-07	-3.577041e-06	-1.553884e-08	-2.577532e+01	-1.020265e+03
4.500000e-07	-3.501053e-06	-1.539917e-08	-2.522777e+01	-1.011523e+03
4.600000e-07	-3.423728e-06	-1.525271e-08	-2.467058e+01	-1.002447e+03
4.700000e-07	-3.345019e-06	-1.510409e-08	-2.410342e+01	-9.930291e+02
4.800000e-07	-3.264880e-06	-1.497390e-08	-2.352596e+01	-9.832593e+02
4.900000e-07	-3.183529e-06	-1.481854e-08	-2.293977e+01	-9.731249e+02
5.000000e-07	-3.101151e-06	-1.464912e-08	-2.234617e+01	-9.626099e+02
5.100000e-07	-3.017810e-06	-1.447809e-08	-2.174563e+01	-9.516947e+02
5.200000e-07	-2.933646e-06	-1.430172e-08	-2.113917e+01	-9.403572e+02
5.300000e-07	-2.848632e-06	-1.411969e-08	-2.052658e+01	-9.285744e+02
5.400000e-07	-2.762637e-06	-1.393382e-08	-1.990691e+01	-9.163238e+02
5.500000e-07	-2.675702e-06	-1.374219e-08	-1.928048e+01	-9.035837e+02
5.600000e-07	-2.587856e-06	-1.353378e-08	-1.864749e+01	-8.903330e+02
5.700000e-07	-2.498958e-06	-1.331642e-08	-1.800690e+01	-8.765496e+02
5.800000e-07	-2.408864e-06	-1.309736e-08	-1.735771e+01	-8.622078e+02
5.900000e-07	-2.317718e-06	-1.287229e-08	-1.670093e+01	-8.472770e+02
6.000000e-07	-2.225827e-06	-1.263445e-08	-1.603879e+01	-8.317200e+02
6.100000e-07	-2.133234e-06	-1.238148e-08	-1.537158e+01	-8.154934e+02
6.200000e-07	-2.039828e-06	-1.211954e-08	-1.469852e+01	-7.985494e+02
6.300000e-07	-1.945626e-06	-1.185075e-08	-1.401972e+01	-7.808379e+02
6.400000e-07	-1.850809e-06	-1.157121e-08	-1.333649e+01	-7.623103e+02
6.500000e-07	-1.755473e-06	-1.127775e-08	-1.264953e+01	-7.429215e+02
6.600000e-07	-1.659519e-06	-1.096514e-08	-1.195810e+01	-7.226319e+02
6.700000e-07	-1.562903e-06	-1.063528e-08	-1.126191e+01	-7.014064e+02
6.800000e-07	-1.465622e-06	-1.029362e-08	-1.056093e+01	-6.792136e+02
6.900000e-07	-1.367662e-06	-9.941306e-09	-9.855050e+00	-6.560226e+02
7.000000e-07	-1.269109e-06	-9.576128e-09	-9.144901e+00	-6.318014e+02
7.100000e-07	-1.170095e-06	-9.193657e-09	-8.431429e+00	-6.065162e+02
7.200000e-07	-1.070690e-06	-8.789240e-09	-7.715142e+00	-5.801328e+02
7.300000e-07	-9.709767e-07	-8.361846e-09	-6.996631e+00	-5.526215e+02
7.400000e-07	-8.710448e-07	-7.920062e-09	-6.276545e+00	-5.239642e+02
7.500000e-07	-7.709146e-07	-7.468454e-09	-5.555031e+00	-4.941621e+02
7.600000e-07	-6.705609e-07	-7.001257e-09	-4.831905e+00	-4.632445e+02
7.700000e-07	-5.699816e-07	-6.514433e-09	-4.107154e+00	-4.312744e+02
7.800000e-07	-4.691970e-07	-6.013456e-09	-3.380924e+00	-3.983506e+02
7.900000e-07	-3.682633e-07	-5.501560e-09	-2.653619e+00	-3.646056e+02
8.000000e-07	-2.672145e-07	-4.976108e-09	-1.925485e+00	-3.301974e+02
8.100000e-07	-1.660343e-07	-4.442274e-09	-1.196404e+00	-2.952976e+02
8.200000e-07	-6.476004e-08	-3.907209e-09	-4.666457e-01	-2.600762e+02
8.300000e-07	3.658886e-08	-3.372361e-09	2.636508e-01	-2.246857e+02
8.400000e-07	1.379304e-07	-2.833805e-09	9.938945e-01	-1.892461e+02
8.500000e-07	2.392600e-07	-2.295282e-09	1.724052e+00	-1.538336e+02
8.600000e-07	3.406038e-07	-1.760272e-09	2.454312e+00	-1.184739e+02
8.700000e-07	4.418254e-07	-1.226605e-09	3.183690e+00	-8.314164e+01
8.800000e-07	5.428275e-07	-6.929306e-10	3.911488e+00	-4.776548e+01
8.900000e-07	6.436055e-07	-1.554424e-10	4.637671e+00	-1.223861e+01
9.000000e-07	7.442182e-07	3.891350e-10	5.362662e+00	2.356659e+01
9.100000e-07	8.446542e-07	9.433311e-10	6.086381e+00	5.978117e+01
9.200000e-07	9.448408e-07	1.505079e-09	6.808302e+00	9.652142e+01
9.300000e-07	1.044743e-06	2.073878e-09	7.528177e+00	1.338715e+02
9.400000e-07	1.144378e-06	2.650597e-09	8.246118e+00	1.718687e+02
9.500000e-07	1.243641e-06	3.235967e-09	8.961384e+00	2.104929e+02
9.600000e-07	1.342424e-06	3.828440e-09	9.673190e+00	2.496608e+02
9.700000e-07	1.440608e-06	4.428148e-09	1.038069e+01	2.892268e+02
9.800000e-07	1.538009e-06	5.032801e-09	1.108253e+01	3.289895e+02
9.900000e-07	1.634645e-06	5.636904e-09	1.177887e+01	3.687042e+02
1.000000e-06	1.730627e-06	6.235487e-09	1.247049e+01	4.080996e+02
1.010000e-06	1.826008e-06	6.824450e-09	1.315779e+01	4.468970e+02
1.020000e-06	1.920791e-06	7.401309e-09	1.384077e+01	4.848307e+02
1.030000e-06	2.014941e-06	7.960792e-09	1.451920e+01	5.216658e+02
1.040000e-06	2.108380e-06	8.499850e-09	1.519249e+01	5.572122e+02
1.050000e-06	2.201024e-06	9.015688e-09	1.586006e+01	5.913328e+02
1.060000e-06	2.292961e-06	9.508135e-09	1.652254e+01	6.239458e+02
1.070000e-06	2.384244e-06	9.977995e-09	1.718030e+01	6.550205e+02
1.080000e-06	2.474596e-06	1.042448e-08	1.783136e+01	6.845684e+02
1.090000e-06	2.563789e-06	1.085183e-08	1.847407e+01	7.126316e+02
1.100000e-06	2.651961e-06	1.125910e-08	1.910941e+01	7.392700e+02
1.110000e-06	2.739280e-06	1.164636e-08	1.973861e+01	7.645505e+02
1.120000e-06	2.825718e-06	1.201238e-08	2.036147e+01	7.885388e+02
1.130000e-06	2.911176e-06	1.235863e-08	2.097726e+01	8.112951e+02
1.140000e-06	2.995668e-06	1.268581e-08	2.158608e+01	8.328732e+02
1.150000e-06	3.079348e-06	1.299559e-08	2.218906e+01	8.533229e+02
1.160000e-06	3.162103e-06	1.328955e-08	2.278537e+01	8.726929e+02
1.170000e-06	3.243629e-06	1.356705e-08	2.337283e+01	8.910345e+02
1.180000e-06	3.323916e-06	1.383030e-08	2.395136e+01	9.084031e+02
1.190000e-06	3.403026e-06	1.408008e-08	2.452141e+01	9.248586e+02
1.200000e-06	3.480953e-06	1.431702e-08	2.508294e+01	9.404636e+02
1.210000e-06	3.557699e-06	1.454168e-08	2.563595e+01	9.552798e+02
1.220000e-06	3.633124e-06	1.475492e-08	2.617944e+01	9.693647e+02
1.230000e-06	3.706957e-06	1.495712e-08	2.671146e+01	9.827687e+02
1.240000e-06	3.779212e-06	1.515042e-08	2.723212e+01	9.955331e+02
1.250000e-06	3.850125e-06	1.533366e-08	2.774310e+01	1.007690e+03
1.260000e-06	3.919691e-06	1.550749e-08	2.824438e+01	1.019265e+03
1.270000e-06	3.987931e-06	1.567245e-08	2.873610e+01	1.030276e+03
1.280000e-06	4.054834e-06	1.582980e-08	2.921819e+01	1.040741e+03
1.290000e-06	4.120119e-06	1.598083e-08	2.968861e+01	1.050677e+03
1.300000e-06	4.183778e-06	1.612630e-08	3.014733e+01	1.060101e+03
1.310000e-06	4.245982e-06	1.626556e-08	3.059555e+01	1.069031e+03
1.320000e-06	4.306808e-06	1.639617e-08	3.103385e+01	1.077485e+03
1.330000e-06	4.366309e-06	1.651796e-08	3.146260e+01	1.085482e+03
1.340000e-06	4.424152e-06	1.663327e-08	3.187940e+01	1.093041e+03
1.350000e-06	4.480199e-06	1.674237e-08	3.228327e+01	1.100179e+03
1.360000e-06	4.534658e-06	1.684353e-08	3.267568e+01	1.106915e+03
1.370000e-06	4.587464e-06	1.693679e-08	3.305619e+01	1.113271e+03
1.380000e-06	4.638321e-06	1.702385e-08	3.342266e+01	1.119269e+03
1.390000e-06	4.687136e-06	1.710827e-08	3.377441e+01	1.124938e+03
1.400000e-06	4.734201e-06	1.719111e-08	3.411354e+01	1.130305e+03
1.410000e-06	4.779699e-06	1.727064e-08	3.444140e+01	1.135400e+03
1.420000e-06	4.823712e-06	1.734724e-08	3.475854e+01	1.140246e+03
1.430000e-06	4.865987e-06	1.741856e-08	3.506316e+01	1.144862e+03
1.440000e-06	4.906364e-06	1.748446e-08	3.535411e+01	1.149256e+03
1.450000e-06	4.945049e-06	1.754824e-08	3.563287e+01	1.153427e+03
1.460000e-06	4.982102e-06	1.760890e-08	3.589986e+01	1.157366e+03
1.470000e-06	5.017567e-06	1.766447e-08	3.615541e+01	1.161058e+03
1.480000e-06	5.051165e-06	1.771394e-08	3.639751e+01	1.164489e+03
1.490000e-06	5.082817e-06	1.775887e-08	3.662559e+01	1.167650e+03
1.500000e-06	5.112768e-06	1.780127e-08	3.684141e+01	1.170539e+03
1.510000e-06	5.141118e-06	1.784138e-08	3.704569e+01	1.173167e+03
1.520000e-06	5.167646e-06	1.787988e-08	3.723685e+01	1.175549e+03
1.530000e-06	5.192081e-06	1.791467e-08	3.741292e+01	1.177710e+03
1.540000e-06	5.214587e-06	1.794416e-08	3.757509e+01	1.179673e+03
1.550000e-06	5.235369e-06	1.797008e-08	3.772485e+01	1.181457e+03
1.560000e-06	5.254495e-06	1.799351e-08	3.786266e+01	1.183074e+03
1.570000e-06	5.271724e-06	1.801368e-08	3.798681e+01	1.184523e+03
1.580000e-06	5.286884e-06	1.803155e-08	3.809605e+01	1.185798e+03
1.590000e-06	5.300089e-06	1.804715e-08	3.819120e+01	1.186885e+03
1.600000e-06	5.311203e-06	1.806065e-08	3.827129e+01	1.187774e+03
1.610000e-06	5.320137e-06	1.807203e-08	3.833566e+01	1.188457e+03
1.620000e-06	5.327150e-06	1.808131e-08	3.838620e+01	1.188937e+03
1.630000e-06	5.332419e-06	1.808889e-08	3.842416e+01	1.189227e+03
1.640000e-06	5.335904e-06	1.809312e-08	3.844927e+01	1.189347e+03
1.650000e-06	5.337392e-06	1.809587e-08	3.846000e+01	1.189322e+03
1.660000e-06	5.336897e-06	1.809571e-08	3.845643e+01	1.189172e+03
1.670000e-06	5.334671e-06	1.808867e-08	3.844039e+01	1.188909e+03
1.680000e-06	5.330838e-06	1.808442e-08	3.841277e+01	1.188535e+03
1.690000e-06	5.325242e-06	1.807800e-08	3.837245e+01	1.188035e+03
1.700000e-06	5.317726e-06	1.806741e-08	3.831829e+01	1.187390e+03
1.710000e-06	5.308565e-06	1.805601e-08	3.825228e+01	1.186573e+03
1.720000e-06	5.297875e-06	1.804583e-08	3.817525e+01	1.185564e+03
1.730000e-06	5.285472e-06	1.805553e-08	3.808587e+01	1.184352e+03
1.740000e-06	5.271070e-06	1.800882e-08	3.798210e+01	1.182943e+03
1.750000e-06	5.254471e-06	1.790710e-08	3.786249e+01	1.181357e+03
1.760000e-06	5.235503e-06	1.791847e-08	3.772581e+01	1.179628e+03
1.770000e-06	5.213921e-06	1.791873e-08	3.757030e+01	1.177795e+03
1.780000e-06	5.190250e-06	1.794566e-08	3.739973e+01	1.175896e+03
1.790000e-06	5.165550e-06	1.798762e-08	3.722174e+01	1.173954e+03
1.800000e-06	5.140122e-06	1.775096e-08	3.703852e+01	1.171975e+03
1.810000e-06	5.113075e-06	1.778248e-08	3.684363e+01	1.169947e+03
1.820000e-06	5.083889e-06	1.787540e-08	3.663332e+01	1.167837e+03
1.830000e-06	5.052980e-06	1.763223e-08	3.641059e+01	1.165600e+03
1.840000e-06	5.020214e-06	1.776299e-08	3.617449e+01	1.163189e+03
1.850000e-06	4.985599e-06	1.780987e-08	3.592506e+01	1.160560e+03
1.860000e-06	4.949509e-06	1.754830e-08	3.566501e+01	1.157685e+03
1.870000e-06	4.911546e-06	1.765030e-08	3.539145e+01	1.154549e+03
1.880000e-06	4.871698e-06	1.757584e-08	3.510432e+01	1.151158e+03
1.890000e-06	4.830240e-06	1.746851e-08	3.480558e+01	1.147529e+03
1.900000e-06	4.787032e-06	1.753623e-08	3.449423e+01	1.143685e+03
1.910000e-06	4.742216e-06	1.728602e-08	3.417130e+01	1.139650e+03
1.920000e-06	4.695538e-06	1.731230e-08	3.383495e+01	1.135441e+03
1.930000e-06	4.646973e-06	1.736203e-08	3.348500e+01	1.131064e+03
1.940000e-06	4.596838e-06	1.718648e-08	3.312374e+01	1.126513e+03
1.950000e-06	4.544753e-06	1.715104e-08	3.274842e+01	1.121774e+03
1.960000e-06	4.490586e-06	1.701232e-08	3.235811e+01	1.116825e+03
1.970000e-06	4.434648e-06	1.698378e-08	3.195504e+01	1.111648e+03
1.980000e-06	4.377088e-06	1.688937e-08	3.154027e+01	1.106228e+03
1.990000e-06	4.318053e-06	1.674365e-08	3.111488e+01	1.100558e+03
2.000000e-06	4.257637e-06	1.679099e-08	3.067954e+01	1.094636e+03
2.010000e-06	4.195702e-06	1.664425e-08	3.023325e+01	1.088470e+03
2.020000e-06	4.132052e-06	1.652093e-08	2.977460e+01	1.082068e+03
2.030000e-06	4.066832e-06	1.639195e-08	2.930464e+01	1.075434e+03
2.040000e-06	4.000287e-06	1.628889e-08	2.882513e+01	1.068569e+03
2.050000e-06	3.932416e-06	1.626858e-08	2.833607e+01	1.061469e+03
2.060000e-06	3.863051e-06	1.609268e-08	2.783624e+01	1.054121e+03
2.070000e-06	3.792066e-06	1.600274e-08	2.732474e+01	1.046509e+03
2.080000e-06	3.719783e-06	1.587376e-08	2.680388e+01	1.038613e+03
2.090000e-06	3.646261e-06	1.572872e-08	2.627410e+01	1.030418e+03
2.100000e-06	3.571359e-06	1.561933e-08	2.573438e+01	1.021907e+03
2.110000e-06	3.495106e-06	1.547150e-08	2.518491e+01	1.013070e+03
2.120000e-06	3.417302e-06	1.536201e-08	2.462428e+01	1.003897e+03
2.130000e-06	3.338092e-06	1.518980e-08	2.405351e+01	9.943795e+02
2.140000e-06	3.257756e-06	1.504801e-08	2.347463e+01	9.845063e+02
2.150000e-06	3.176288e-06	1.489154e-08	2.288759e+01	9.742645e+02
2.160000e-06	3.093726e-06	1.472550e-08	2.229266e+01	9.636368e+02
2.170000e-06	3.010210e-06	1.457658e-08	2.169087e+01	9.526027e+02
2.180000e-06	2.925718e-06	1.439765e-08	2.108204e+01	9.411398e+02
2.190000e-06	2.839934e-06	1.422042e-08	2.046390e+01	9.292251e+02
2.200000e-06	2.752887e-06	1.401870e-08	1.983666e+01	9.168362e+02
2.210000e-06	2.664845e-06	1.383198e-08	1.920225e+01	9.039519e+02
2.220000e-06	2.575950e-06	1.363240e-08	1.856169e+01	8.905509e+02
2.230000e-06	2.486221e-06	1.341917e-08	1.791513e+01	8.766102e+02
2.240000e-06	2.395636e-06	1.319867e-08	1.726239e+01	8.621030e+02
2.250000e-06	2.304320e-06	1.297233e-08	1.660439e+01	8.469968e+02
2.260000e-06	2.212351e-06	1.274182e-08	1.594168e+01	8.312527e+02
2.270000e-06	2.119605e-06	1.248546e-08	1.527338e+01	8.148256e+02
2.280000e-06	2.025923e-06	1.222355e-08	1.459833e+01	7.976669e+02
2.290000e-06	1.931246e-06	1.194987e-08	1.391610e+01	7.797266e+02
2.300000e-06	1.835719e-06	1.166435e-08	1.322776e+01	7.609568e+02
2.310000e-06	1.739590e-06	1.136541e-08	1.253508e+01	7.413139e+02
2.320000e-06	1.642996e-06	1.105492e-08	1.183905e+01	7.207597e+02
2.330000e-06	1.545916e-06	1.073022e-08	1.113951e+01	6.992605e+02
2.340000e-06	1.448286e-06	1.038528e-08	1.043601e+01	6.767851e+02
2.350000e-06	1.350196e-06	1.002263e-08	9.729193e+00	6.533026e+02
2.360000e-06	1.251658e-06	9.646990e-09	9.019158e+00	6.287804e+02
2.370000e-06	1.152753e-06	9.264660e-09	8.306465e+00	6.031843e+02
2.380000e-06	1.053578e-06	8.865495e-09	7.591838e+00	5.764808e+02
2.390000e-06	9.541652e-07	8.442688e-09	6.875491e+00	5.486428e+02
2.400000e-06	8.545391e-07	7.994864e-09	6.157609e+00	5.196566e+02
2.410000e-06	7.546308e-07	7.530098e-09	5.437693e+00	4.895309e+02
2.420000e-06	6.544737e-07	7.052410e-09	4.715984e+00	4.583041e+02
2.430000e-06	5.541461e-07	6.559698e-09	3.993047e+00	4.260493e+02
2.440000e-06	4.536582e-07	6.054890e-09	3.268955e+00	3.928756e+02
2.450000e-06	3.530372e-07	5.540014e-09	2.543904e+00	3.589236e+02
2.460000e-06	2.522300e-07	5.012414e-09	1.817510e+00	3.243566e+02
2.470000e-06	1.512499e-07	4.472961e-09	1.089872e+00	2.893475e+02
2.480000e-06	5.018108e-08	3.929533e-09	3.615931e-01	2.540629e+02
2.490000e-06	-5.086494e-08	3.387284e-09	-3.665208e-01	2.186474e+02
2.500000e-06	-1.518853e-07	2.845093e-09	-1.094450e+00	1.832093e+02
2.510000e-06	-2.529149e-07	2.301875e-09	-1.822446e+00	1.478110e+02
2.520000e-06	-3.538225e-07	1.759339e-09	-2.549562e+00	1.124634e+02
2.530000e-06	-4.545501e-07	1.217011e-09	-3.275382e+00	7.712716e+01
2.540000e-06	-5.551587e-07	6.734236e-10	-4.000343e+00	4.171953e+01
2.550000e-06	-6.555743e-07	1.264705e-10	-4.723915e+00	6.126123e+00
2.560000e-06	-7.557487e-07	-4.242241e-10	-5.445749e+00	-2.978350e+01
2.570000e-06	-8.556775e-07	-9.788300e-10	-6.165812e+00	-6.613802e+01
2.580000e-06	-9.552748e-07	-1.541461e-09	-6.883487e+00	-1.030462e+02
2.590000e-06	-1.054601e-06	-2.113569e-09	-7.599205e+00	-1.405803e+02
2.600000e-06	-1.153654e-06	-2.697451e-09	-8.312959e+00	-1.787620e+02
2.610000e-06	-1.252305e-06	-3.293070e-09	-9.023815e+00	-2.175533e+02
2.620000e-06	-1.350496e-06	-3.895885e-09	-9.731359e+00	-2.568529e+02
2.630000e-06	-1.448184e-06	-4.504553e-09	-1.043528e+01	-2.964983e+02
2.640000e-06	-1.545321e-06	-5.114872e-09	-1.113522e+01	-3.362744e+02
2.650000e-06	-1.641973e-06	-5.722160e-09	-1.183168e+01	-3.759267e+02
2.660000e-06	-1.738192e-06	-6.323126e-09	-1.252501e+01	-4.151800e+02
2.670000e-06	-1.833969e-06	-6.913983e-09	-1.321516e+01	-4.537572e+02
2.680000e-06	-1.929062e-06	-7.491575e-09	-1.390037e+01	-4.913999e+02
2.690000e-06	-2.023171e-06	-8.052274e-09	-1.457850e+01	-5.278845e+02
2.700000e-06	-2.116283e-06	-8.593742e-09	-1.524944e+01	-5.630355e+02
2.710000e-06	-2.208547e-06	-9.112608e-09	-1.591427e+01	-5.967319e+02
2.720000e-06	-2.300061e-06	-9.606085e-09	-1.657370e+01	-6.289070e+02
2.730000e-06	-2.390772e-06	-1.007407e-08	-1.722735e+01	-6.595432e+02
2.740000e-06	-2.480639e-06	-1.051826e-08	-1.787490e+01	-6.886622e+02
2.750000e-06	-2.569641e-06	-1.093975e-08	-1.851623e+01	-7.163122e+02
2.760000e-06	-2.657857e-06	-1.134119e-08	-1.915190e+01	-7.425562e+02
2.770000e-06	-2.745289e-06	-1.172452e-08	-1.978191e+01	-7.674616e+02
2.780000e-06	-2.831648e-06	-1.208800e-08	-2.040419e+01	-7.910925e+02
2.790000e-06	-2.916826e-06	-1.243148e-08	-2.101796e+01	-8.135075e+02
2.800000e-06	-3.000929e-06	-1.275504e-08	-2.162399e+01	-8.347587e+02
2.810000e-06	-3.084079e-06	-1.306110e-08	-2.222315e+01	-8.548955e+02
2.820000e-06	-3.166258e-06	-1.335176e-08	-2.281531e+01	-8.739668e+02
2.830000e-06	-3.247390e-06	-1.362753e-08	-2.339993e+01	-8.920250e+02
2.840000e-06	-3.327496e-06	-1.388947e-08	-2.397716e+01	-9.091269e+02
2.850000e-06	-3.406342e-06	-1.413920e-08	-2.454531e+01	-9.253335e+02
2.860000e-06	-3.483663e-06	-1.437693e-08	-2.510246e+01	-9.407075e+02
2.870000e-06	-3.559539e-06	-1.460316e-08	-2.564921e+01	-9.553097e+02
2.880000e-06	-3.634043e-06	-1.481789e-08	-2.618607e+01	-9.691958e+02
2.890000e-06	-3.707173e-06	-1.502189e-08	-2.671302e+01	-9.824138e+02
2.900000e-06	-3.779092e-06	-1.521509e-08	-2.723125e+01	-9.950023e+02
2.910000e-06	-3.849616e-06	-1.539702e-08	-2.773943e+01	-1.006991e+03
2.920000e-06	-3.918538e-06	-1.557230e-08	-2.823607e+01	-1.018403e+03
2.930000e-06	-3.986083e-06	-1.574104e-08	-2.872278e+01	-1.029258e+03
2.940000e-06	-4.052266e-06	-1.590015e-08	-2.919968e+01	-1.039571e+03
