# Temperatura_=_88.9
# Concentracion g/m^3_=_28200.0
# C_Vs_to_Am_M_A/Vsm_=_65563218390.804596
# pendiente_HvsI_1/m_=_3716.3
# ordenada_HvsI_A/m_=_1297.0
# frecuencia_Hz_=_301764.3026424168

Tiempo_(s)	Campo_(V.s)	Magnetizacion_(V.s)	Campo_(kA/m)	Magnetizacion_(A/m)
0.000000e+00	-5.304648e-06	-2.652344e-08	-3.829404e+01	-1.734787e+03
1.000000e-08	-5.302333e-06	-2.651635e-08	-3.827733e+01	-1.734285e+03
2.000000e-08	-5.298304e-06	-2.650017e-08	-3.824824e+01	-1.733603e+03
3.000000e-08	-5.292660e-06	-2.648257e-08	-3.820750e+01	-1.732732e+03
4.000000e-08	-5.285401e-06	-2.646465e-08	-3.815510e+01	-1.731656e+03
5.000000e-08	-5.276460e-06	-2.644213e-08	-3.809055e+01	-1.730348e+03
6.000000e-08	-5.265469e-06	-2.641669e-08	-3.801121e+01	-1.728783e+03
7.000000e-08	-5.252578e-06	-2.638104e-08	-3.791814e+01	-1.726945e+03
8.000000e-08	-5.237833e-06	-2.635020e-08	-3.781170e+01	-1.724831e+03
9.000000e-08	-5.220829e-06	-2.638131e-08	-3.768895e+01	-1.722457e+03
1.000000e-07	-5.201650e-06	-2.635834e-08	-3.755050e+01	-1.719857e+03
1.100000e-07	-5.180620e-06	-2.625889e-08	-3.739868e+01	-1.717080e+03
1.200000e-07	-5.157828e-06	-2.619948e-08	-3.723415e+01	-1.714176e+03
1.300000e-07	-5.133490e-06	-2.608214e-08	-3.705846e+01	-1.711190e+03
1.400000e-07	-5.107586e-06	-2.602432e-08	-3.687145e+01	-1.708148e+03
1.500000e-07	-5.080002e-06	-2.613543e-08	-3.667233e+01	-1.705050e+03
1.600000e-07	-5.050915e-06	-2.597880e-08	-3.646235e+01	-1.701871e+03
1.700000e-07	-5.020421e-06	-2.588759e-08	-3.624221e+01	-1.698560e+03
1.800000e-07	-4.988198e-06	-2.596347e-08	-3.600960e+01	-1.695051e+03
1.900000e-07	-4.953879e-06	-2.574250e-08	-3.576185e+01	-1.691273e+03
2.000000e-07	-4.917896e-06	-2.570554e-08	-3.550209e+01	-1.687164e+03
2.100000e-07	-4.880384e-06	-2.575377e-08	-3.523129e+01	-1.682677e+03
2.200000e-07	-4.841128e-06	-2.555658e-08	-3.494791e+01	-1.677791e+03
2.300000e-07	-4.800055e-06	-2.549339e-08	-3.465140e+01	-1.672509e+03
2.400000e-07	-4.756973e-06	-2.542348e-08	-3.434039e+01	-1.666851e+03
2.500000e-07	-4.712023e-06	-2.526709e-08	-3.401590e+01	-1.660851e+03
2.600000e-07	-4.665348e-06	-2.524955e-08	-3.367896e+01	-1.654541e+03
2.700000e-07	-4.616831e-06	-2.513091e-08	-3.332871e+01	-1.647948e+03
2.800000e-07	-4.566257e-06	-2.497445e-08	-3.296362e+01	-1.641085e+03
2.900000e-07	-4.513606e-06	-2.488027e-08	-3.258354e+01	-1.633948e+03
3.000000e-07	-4.459225e-06	-2.478413e-08	-3.219097e+01	-1.626523e+03
3.100000e-07	-4.403353e-06	-2.466330e-08	-3.178762e+01	-1.618788e+03
3.200000e-07	-4.345700e-06	-2.452697e-08	-3.137143e+01	-1.610717e+03
3.300000e-07	-4.286241e-06	-2.441465e-08	-3.094220e+01	-1.602296e+03
3.400000e-07	-4.225355e-06	-2.425503e-08	-3.050266e+01	-1.593513e+03
3.500000e-07	-4.163097e-06	-2.410747e-08	-3.005323e+01	-1.584371e+03
3.600000e-07	-4.099464e-06	-2.397937e-08	-2.959386e+01	-1.574878e+03
3.700000e-07	-4.034370e-06	-2.383397e-08	-2.912395e+01	-1.565044e+03
3.800000e-07	-3.967644e-06	-2.369929e-08	-2.864226e+01	-1.554874e+03
3.900000e-07	-3.899383e-06	-2.351389e-08	-2.814949e+01	-1.544369e+03
4.000000e-07	-3.829809e-06	-2.332677e-08	-2.764724e+01	-1.533517e+03
4.100000e-07	-3.759070e-06	-2.317716e-08	-2.713657e+01	-1.522297e+03
4.200000e-07	-3.687201e-06	-2.300271e-08	-2.661776e+01	-1.510683e+03
4.300000e-07	-3.613960e-06	-2.281627e-08	-2.608903e+01	-1.498646e+03
4.400000e-07	-3.539088e-06	-2.261777e-08	-2.554853e+01	-1.486162e+03
4.500000e-07	-3.462731e-06	-2.241121e-08	-2.499732e+01	-1.473210e+03
4.600000e-07	-3.385076e-06	-2.219790e-08	-2.443672e+01	-1.459777e+03
4.700000e-07	-3.306058e-06	-2.199654e-08	-2.386630e+01	-1.445856e+03
4.800000e-07	-3.225648e-06	-2.179533e-08	-2.328582e+01	-1.431441e+03
4.900000e-07	-3.144050e-06	-2.156038e-08	-2.269677e+01	-1.416523e+03
5.000000e-07	-3.061389e-06	-2.131888e-08	-2.210004e+01	-1.401086e+03
5.100000e-07	-2.977786e-06	-2.106639e-08	-2.149652e+01	-1.385106e+03
5.200000e-07	-2.893339e-06	-2.080762e-08	-2.088690e+01	-1.368551e+03
5.300000e-07	-2.807958e-06	-2.054619e-08	-2.027053e+01	-1.351382e+03
5.400000e-07	-2.721569e-06	-2.027671e-08	-1.964689e+01	-1.333556e+03
5.500000e-07	-2.634246e-06	-1.999517e-08	-1.901652e+01	-1.315036e+03
5.600000e-07	-2.546096e-06	-1.969276e-08	-1.838016e+01	-1.295783e+03
5.700000e-07	-2.456945e-06	-1.938311e-08	-1.773658e+01	-1.275768e+03
5.800000e-07	-2.366583e-06	-1.906636e-08	-1.708426e+01	-1.254960e+03
5.900000e-07	-2.275164e-06	-1.874091e-08	-1.642431e+01	-1.233329e+03
6.000000e-07	-2.183022e-06	-1.839834e-08	-1.575915e+01	-1.210839e+03
6.100000e-07	-2.090239e-06	-1.803930e-08	-1.508935e+01	-1.187440e+03
6.200000e-07	-1.996675e-06	-1.766578e-08	-1.441392e+01	-1.163071e+03
6.300000e-07	-1.902371e-06	-1.727310e-08	-1.373314e+01	-1.137655e+03
6.400000e-07	-1.807434e-06	-1.686592e-08	-1.304779e+01	-1.111107e+03
6.500000e-07	-1.711953e-06	-1.644140e-08	-1.235852e+01	-1.083332e+03
6.600000e-07	-1.615981e-06	-1.599611e-08	-1.166570e+01	-1.054238e+03
6.700000e-07	-1.519429e-06	-1.552956e-08	-1.096870e+01	-1.023735e+03
6.800000e-07	-1.422189e-06	-1.504266e-08	-1.026673e+01	-9.917399e+02
6.900000e-07	-1.324302e-06	-1.453233e-08	-9.560079e+00	-9.581790e+02
7.000000e-07	-1.225811e-06	-1.399752e-08	-8.849078e+00	-9.229841e+02
7.100000e-07	-1.126768e-06	-1.343627e-08	-8.134091e+00	-8.860922e+02
7.200000e-07	-1.027335e-06	-1.284553e-08	-7.416286e+00	-8.474432e+02
7.300000e-07	-9.276249e-07	-1.222524e-08	-6.696486e+00	-8.069826e+02
7.400000e-07	-8.276562e-07	-1.157686e-08	-5.974816e+00	-7.646663e+02
7.500000e-07	-7.274471e-07	-1.090467e-08	-5.251411e+00	-7.204699e+02
7.600000e-07	-6.270846e-07	-1.020177e-08	-4.526898e+00	-6.744012e+02
7.700000e-07	-5.265386e-07	-9.470421e-09	-3.801061e+00	-6.265120e+02
7.800000e-07	-4.258424e-07	-8.717340e-09	-3.074139e+00	-5.769076e+02
7.900000e-07	-3.250516e-07	-7.940290e-09	-2.346534e+00	-5.257499e+02
8.000000e-07	-2.241659e-07	-7.141062e-09	-1.618244e+00	-4.732519e+02
8.100000e-07	-1.231900e-07	-6.325500e-09	-8.893034e-01	-4.196628e+02
8.200000e-07	-2.213669e-08	-5.497878e-09	-1.598039e-01	-3.652444e+02
8.300000e-07	7.891292e-08	-4.659302e-09	5.696691e-01	-3.102418e+02
8.400000e-07	1.799912e-07	-3.814128e-09	1.299349e+00	-2.548533e+02
8.500000e-07	2.810567e-07	-2.968506e-09	2.028937e+00	-1.992045e+02
8.600000e-07	3.820146e-07	-2.123992e-09	2.757748e+00	-1.433314e+02
8.700000e-07	4.829030e-07	-1.274055e-09	3.486057e+00	-8.717761e+01
8.800000e-07	5.837350e-07	-4.147037e-10	4.213959e+00	-3.060645e+01
8.900000e-07	6.844251e-07	4.570295e-10	4.940837e+00	2.657285e+01
9.000000e-07	7.848872e-07	1.342124e-09	5.666069e+00	8.456726e+01
9.100000e-07	8.851432e-07	2.241800e-09	6.389813e+00	1.435566e+02
9.200000e-07	9.851355e-07	3.155989e-09	7.111653e+00	2.036506e+02
9.300000e-07	1.084823e-06	4.086267e-09	7.831296e+00	2.648542e+02
9.400000e-07	1.184175e-06	5.035261e-09	8.548512e+00	3.270445e+02
9.500000e-07	1.283044e-06	5.995771e-09	9.262244e+00	3.899653e+02
9.600000e-07	1.381270e-06	6.959902e-09	9.971330e+00	4.532387e+02
9.700000e-07	1.478775e-06	7.921766e-09	1.067521e+01	5.163924e+02
9.800000e-07	1.575593e-06	8.873846e-09	1.137414e+01	5.788988e+02
9.900000e-07	1.671781e-06	9.806409e-09	1.206852e+01	6.402195e+02
1.000000e-06	1.767332e-06	1.071169e-08	1.275830e+01	6.998503e+02
1.010000e-06	1.862237e-06	1.158537e-08	1.344342e+01	7.573593e+02
1.020000e-06	1.956544e-06	1.242111e-08	1.412421e+01	8.124140e+02
1.030000e-06	2.050175e-06	1.321413e-08	1.480013e+01	8.647955e+02
1.040000e-06	2.143106e-06	1.396175e-08	1.547099e+01	9.143980e+02
1.050000e-06	2.235403e-06	1.466683e-08	1.613728e+01	9.612171e+02
1.060000e-06	2.327001e-06	1.533383e-08	1.679852e+01	1.005328e+03
1.070000e-06	2.417754e-06	1.596572e-08	1.745367e+01	1.046862e+03
1.080000e-06	2.507453e-06	1.656226e-08	1.810120e+01	1.085978e+03
1.090000e-06	2.596011e-06	1.712436e-08	1.874050e+01	1.122842e+03
1.100000e-06	2.683597e-06	1.765182e-08	1.937278e+01	1.157612e+03
1.110000e-06	2.770375e-06	1.814680e-08	1.999923e+01	1.190427e+03
1.120000e-06	2.856277e-06	1.861315e-08	2.061935e+01	1.221410e+03
1.130000e-06	2.941263e-06	1.905453e-08	2.123286e+01	1.250667e+03
1.140000e-06	3.025396e-06	1.947311e-08	2.184021e+01	1.278295e+03
1.150000e-06	3.108626e-06	1.986985e-08	2.244105e+01	1.304389e+03
1.160000e-06	3.190736e-06	2.024670e-08	2.303379e+01	1.329047e+03
1.170000e-06	3.271553e-06	2.060311e-08	2.361721e+01	1.352370e+03
1.180000e-06	3.351132e-06	2.093917e-08	2.419169e+01	1.374461e+03
1.190000e-06	3.429522e-06	2.125577e-08	2.475758e+01	1.395422e+03
1.200000e-06	3.506776e-06	2.155757e-08	2.531527e+01	1.415345e+03
1.210000e-06	3.582808e-06	2.184541e-08	2.586414e+01	1.434312e+03
1.220000e-06	3.657385e-06	2.211891e-08	2.640251e+01	1.452387e+03
1.230000e-06	3.730388e-06	2.237811e-08	2.692952e+01	1.469616e+03
1.240000e-06	3.801947e-06	2.262497e-08	2.744610e+01	1.486035e+03
1.250000e-06	3.872189e-06	2.286052e-08	2.795317e+01	1.501670e+03
1.260000e-06	3.941091e-06	2.308554e-08	2.845058e+01	1.516544e+03
1.270000e-06	4.008711e-06	2.329936e-08	2.893872e+01	1.530686e+03
1.280000e-06	4.074802e-06	2.350278e-08	2.941583e+01	1.544131e+03
1.290000e-06	4.139152e-06	2.369625e-08	2.988037e+01	1.556920e+03
1.300000e-06	4.202055e-06	2.387957e-08	3.033446e+01	1.569102e+03
1.310000e-06	4.263626e-06	2.405475e-08	3.077895e+01	1.580725e+03
1.320000e-06	4.323836e-06	2.422338e-08	3.121359e+01	1.591832e+03
1.330000e-06	4.382591e-06	2.438575e-08	3.163774e+01	1.602457e+03
1.340000e-06	4.439584e-06	2.454174e-08	3.204917e+01	1.612619e+03
1.350000e-06	4.494828e-06	2.469161e-08	3.244798e+01	1.622323e+03
1.360000e-06	4.548471e-06	2.483254e-08	3.283523e+01	1.631567e+03
1.370000e-06	4.600381e-06	2.496342e-08	3.320996e+01	1.640340e+03
1.380000e-06	4.650314e-06	2.508645e-08	3.357043e+01	1.648635e+03
1.390000e-06	4.698317e-06	2.520491e-08	3.391696e+01	1.656452e+03
1.400000e-06	4.744632e-06	2.531825e-08	3.425130e+01	1.663802e+03
1.410000e-06	4.789418e-06	2.542449e-08	3.457461e+01	1.670707e+03
1.420000e-06	4.832619e-06	2.552453e-08	3.488648e+01	1.677200e+03
1.430000e-06	4.873940e-06	2.561746e-08	3.518477e+01	1.683318e+03
1.440000e-06	4.913459e-06	2.570366e-08	3.547006e+01	1.689098e+03
1.450000e-06	4.951372e-06	2.578556e-08	3.574375e+01	1.694568e+03
1.460000e-06	4.987722e-06	2.586455e-08	3.600616e+01	1.699746e+03
1.470000e-06	5.022346e-06	2.593963e-08	3.625611e+01	1.704636e+03
1.480000e-06	5.055027e-06	2.601052e-08	3.649204e+01	1.709233e+03
1.490000e-06	5.085904e-06	2.607610e-08	3.671494e+01	1.713526e+03
1.500000e-06	5.115142e-06	2.613581e-08	3.692600e+01	1.717502e+03
1.510000e-06	5.142763e-06	2.619043e-08	3.712540e+01	1.721151e+03
1.520000e-06	5.168461e-06	2.624081e-08	3.731091e+01	1.724471e+03
1.530000e-06	5.192067e-06	2.628773e-08	3.748132e+01	1.727469e+03
1.540000e-06	5.213828e-06	2.632941e-08	3.763841e+01	1.730157e+03
1.550000e-06	5.233922e-06	2.636767e-08	3.778347e+01	1.732551e+03
1.560000e-06	5.252235e-06	2.640029e-08	3.791567e+01	1.734665e+03
1.570000e-06	5.268563e-06	2.642575e-08	3.803354e+01	1.736510e+03
1.580000e-06	5.282925e-06	2.644668e-08	3.813722e+01	1.738091e+03
1.590000e-06	5.295347e-06	2.646469e-08	3.822690e+01	1.739408e+03
1.600000e-06	5.305581e-06	2.648106e-08	3.830077e+01	1.740458e+03
1.610000e-06	5.313652e-06	2.649310e-08	3.835903e+01	1.741241e+03
1.620000e-06	5.319890e-06	2.650230e-08	3.840407e+01	1.741761e+03
1.630000e-06	5.324389e-06	2.650872e-08	3.843655e+01	1.742028e+03
1.640000e-06	5.327010e-06	2.651207e-08	3.845547e+01	1.742060e+03
1.650000e-06	5.327638e-06	2.651324e-08	3.846000e+01	1.741877e+03
1.660000e-06	5.326412e-06	2.650716e-08	3.845115e+01	1.741499e+03
1.670000e-06	5.323533e-06	2.649708e-08	3.843037e+01	1.740937e+03
1.680000e-06	5.319019e-06	2.648656e-08	3.839778e+01	1.740194e+03
1.690000e-06	5.312647e-06	2.647136e-08	3.835178e+01	1.739258e+03
1.700000e-06	5.304507e-06	2.645281e-08	3.829302e+01	1.738109e+03
1.710000e-06	5.294841e-06	2.643437e-08	3.822324e+01	1.736720e+03
1.720000e-06	5.283463e-06	2.642209e-08	3.814110e+01	1.735067e+03
1.730000e-06	5.270118e-06	2.641464e-08	3.804477e+01	1.733138e+03
1.740000e-06	5.254810e-06	2.630959e-08	3.793426e+01	1.730936e+03
1.750000e-06	5.237349e-06	2.624237e-08	3.780821e+01	1.728483e+03
1.760000e-06	5.217298e-06	2.625488e-08	3.766346e+01	1.725820e+03
1.770000e-06	5.194723e-06	2.622845e-08	3.750050e+01	1.722995e+03
1.780000e-06	5.170485e-06	2.629014e-08	3.732552e+01	1.720059e+03
1.790000e-06	5.145489e-06	2.616572e-08	3.714508e+01	1.717052e+03
1.800000e-06	5.119526e-06	2.597714e-08	3.695765e+01	1.713991e+03
1.810000e-06	5.091550e-06	2.611371e-08	3.675569e+01	1.710870e+03
1.820000e-06	5.061518e-06	2.599530e-08	3.653889e+01	1.707653e+03
1.830000e-06	5.029880e-06	2.587200e-08	3.631050e+01	1.704285e+03
1.840000e-06	4.996388e-06	2.604598e-08	3.606872e+01	1.700696e+03
1.850000e-06	4.961264e-06	2.583596e-08	3.581516e+01	1.696816e+03
1.860000e-06	4.924550e-06	2.571210e-08	3.555012e+01	1.692588e+03
1.870000e-06	4.885837e-06	2.577804e-08	3.527066e+01	1.687973e+03
1.880000e-06	4.845433e-06	2.558011e-08	3.497898e+01	1.682957e+03
1.890000e-06	4.803375e-06	2.560942e-08	3.467537e+01	1.677549e+03
1.900000e-06	4.759593e-06	2.551659e-08	3.435931e+01	1.671776e+03
1.910000e-06	4.714061e-06	2.529680e-08	3.403061e+01	1.665671e+03
1.920000e-06	4.666527e-06	2.538467e-08	3.368747e+01	1.659267e+03
1.930000e-06	4.617350e-06	2.523865e-08	3.333246e+01	1.652585e+03
1.940000e-06	4.566583e-06	2.509673e-08	3.296598e+01	1.645633e+03
1.950000e-06	4.513755e-06	2.501764e-08	3.258461e+01	1.638405e+03
1.960000e-06	4.459000e-06	2.487423e-08	3.218934e+01	1.630881e+03
1.970000e-06	4.402589e-06	2.480945e-08	3.178211e+01	1.623038e+03
1.980000e-06	4.344582e-06	2.459592e-08	3.136336e+01	1.614855e+03
1.990000e-06	4.285145e-06	2.451529e-08	3.093429e+01	1.606317e+03
2.000000e-06	4.224232e-06	2.443234e-08	3.049456e+01	1.597417e+03
2.010000e-06	4.161665e-06	2.422079e-08	3.004289e+01	1.588159e+03
2.020000e-06	4.097438e-06	2.409649e-08	2.957924e+01	1.578554e+03
2.030000e-06	4.031753e-06	2.390958e-08	2.910506e+01	1.568610e+03
2.040000e-06	3.964760e-06	2.381864e-08	2.862144e+01	1.558332e+03
2.050000e-06	3.896489e-06	2.365591e-08	2.812859e+01	1.547715e+03
2.060000e-06	3.826682e-06	2.343680e-08	2.762466e+01	1.536746e+03
2.070000e-06	3.755295e-06	2.330278e-08	2.710932e+01	1.525401e+03
2.080000e-06	3.682605e-06	2.309058e-08	2.658457e+01	1.513653e+03
2.090000e-06	3.608588e-06	2.292642e-08	2.605025e+01	1.501473e+03
2.100000e-06	3.533267e-06	2.273861e-08	2.550651e+01	1.488839e+03
2.110000e-06	3.456490e-06	2.255051e-08	2.495226e+01	1.475732e+03
2.120000e-06	3.378172e-06	2.234440e-08	2.438689e+01	1.462141e+03
2.130000e-06	3.298632e-06	2.209949e-08	2.381269e+01	1.448061e+03
2.140000e-06	3.217997e-06	2.189397e-08	2.323059e+01	1.433484e+03
2.150000e-06	3.136253e-06	2.165753e-08	2.264049e+01	1.418400e+03
2.160000e-06	3.053470e-06	2.143913e-08	2.204288e+01	1.402790e+03
2.170000e-06	2.969822e-06	2.119628e-08	2.143902e+01	1.386628e+03
2.180000e-06	2.885129e-06	2.093671e-08	2.082763e+01	1.369878e+03
2.190000e-06	2.799056e-06	2.066979e-08	2.020627e+01	1.352501e+03
2.200000e-06	2.711809e-06	2.038829e-08	1.957644e+01	1.334455e+03
2.210000e-06	2.623691e-06	2.011817e-08	1.894032e+01	1.315701e+03
2.220000e-06	2.534683e-06	1.982287e-08	1.829777e+01	1.296205e+03
2.230000e-06	2.444721e-06	1.951714e-08	1.764834e+01	1.275936e+03
2.240000e-06	2.353969e-06	1.919032e-08	1.699321e+01	1.254866e+03
2.250000e-06	2.262576e-06	1.885824e-08	1.633344e+01	1.232963e+03
2.260000e-06	2.170467e-06	1.851087e-08	1.566852e+01	1.210184e+03
2.270000e-06	2.077486e-06	1.814973e-08	1.499728e+01	1.186480e+03
2.280000e-06	1.983513e-06	1.778180e-08	1.431890e+01	1.161781e+03
2.290000e-06	1.888589e-06	1.739068e-08	1.363365e+01	1.136010e+03
2.300000e-06	1.792980e-06	1.697959e-08	1.294345e+01	1.109076e+03
2.310000e-06	1.696842e-06	1.654572e-08	1.224943e+01	1.080886e+03
2.320000e-06	1.600219e-06	1.609675e-08	1.155191e+01	1.051347e+03
2.330000e-06	1.503148e-06	1.562622e-08	1.085116e+01	1.020372e+03
2.340000e-06	1.405573e-06	1.513174e-08	1.014678e+01	9.878797e+02
2.350000e-06	1.307499e-06	1.461135e-08	9.438780e+00	9.537992e+02
2.360000e-06	1.208992e-06	1.406894e-08	8.727664e+00	9.180642e+02
2.370000e-06	1.110168e-06	1.350242e-08	8.014255e+00	8.806123e+02
2.380000e-06	1.011078e-06	1.290585e-08	7.298928e+00	8.413852e+02
2.390000e-06	9.117444e-07	1.227898e-08	6.581845e+00	8.003307e+02
2.400000e-06	8.122022e-07	1.162196e-08	5.863254e+00	7.574100e+02
2.410000e-06	7.124303e-07	1.093700e-08	5.143005e+00	7.126076e+02
2.420000e-06	6.124174e-07	1.022322e-08	4.421016e+00	6.659442e+02
2.430000e-06	5.121257e-07	9.482926e-09	3.697014e+00	6.174880e+02
2.440000e-06	4.116055e-07	8.718669e-09	2.971363e+00	5.673625e+02
2.450000e-06	3.109868e-07	7.932217e-09	2.245001e+00	5.157472e+02
2.460000e-06	2.102954e-07	7.122916e-09	1.518114e+00	4.628687e+02
2.470000e-06	1.095507e-07	6.298211e-09	7.908417e-01	4.089832e+02
2.480000e-06	8.714009e-09	5.465473e-09	6.290607e-02	3.543504e+02
2.490000e-06	-9.222376e-08	4.625021e-09	-6.657596e-01	2.992038e+02
2.500000e-06	-1.931664e-07	3.775196e-09	-1.394460e+00	2.437205e+02
2.510000e-06	-2.940288e-07	2.918951e-09	-2.122582e+00	1.879987e+02
2.520000e-06	-3.947524e-07	2.061013e-09	-2.849702e+00	1.320443e+02
2.530000e-06	-4.953062e-07	1.199766e-09	-3.575595e+00	7.577308e+01
2.540000e-06	-5.956997e-07	3.321111e-10	-4.300332e+00	1.902739e+01
2.550000e-06	-6.958387e-07	-5.450891e-10	-5.023231e+00	-3.839322e+01
2.560000e-06	-7.956761e-07	-1.434352e-09	-5.743953e+00	-9.669182e+01
2.570000e-06	-8.952835e-07	-2.339800e-09	-6.463015e+00	-1.560302e+02
2.580000e-06	-9.946254e-07	-3.261284e-09	-7.180160e+00	-2.164876e+02
2.590000e-06	-1.093653e-06	-4.197634e-09	-7.895035e+00	-2.780297e+02
2.600000e-06	-1.192360e-06	-5.149613e-09	-8.607598e+00	-3.404904e+02
2.610000e-06	-1.290687e-06	-6.112031e-09	-9.317417e+00	-4.035724e+02
2.620000e-06	-1.388526e-06	-7.079832e-09	-1.002371e+01	-4.668639e+02
2.630000e-06	-1.485843e-06	-8.046704e-09	-1.072624e+01	-5.298700e+02
2.640000e-06	-1.582643e-06	-9.000615e-09	-1.142504e+01	-5.920546e+02
2.650000e-06	-1.678929e-06	-9.930915e-09	-1.212012e+01	-6.528858e+02
2.660000e-06	-1.774692e-06	-1.083207e-08	-1.281143e+01	-7.118789e+02
2.670000e-06	-1.869894e-06	-1.170130e-08	-1.349869e+01	-7.686314e+02
2.680000e-06	-1.964391e-06	-1.253242e-08	-1.418086e+01	-8.228467e+02
2.690000e-06	-2.057969e-06	-1.332016e-08	-1.485639e+01	-8.743427e+02
2.700000e-06	-2.150596e-06	-1.406585e-08	-1.552507e+01	-9.230481e+02
2.710000e-06	-2.242426e-06	-1.477362e-08	-1.618798e+01	-9.689869e+02
2.720000e-06	-2.333496e-06	-1.544228e-08	-1.684541e+01	-1.012255e+03
2.730000e-06	-2.423710e-06	-1.607029e-08	-1.749666e+01	-1.052995e+03
2.740000e-06	-2.513049e-06	-1.666155e-08	-1.814160e+01	-1.091371e+03
2.750000e-06	-2.601592e-06	-1.721768e-08	-1.878079e+01	-1.127547e+03
2.760000e-06	-2.689374e-06	-1.773967e-08	-1.941448e+01	-1.161675e+03
2.770000e-06	-2.776294e-06	-1.822971e-08	-2.004195e+01	-1.193891e+03
2.780000e-06	-2.862132e-06	-1.869244e-08	-2.066161e+01	-1.224309e+03
2.790000e-06	-2.946756e-06	-1.913161e-08	-2.127251e+01	-1.253033e+03
2.800000e-06	-3.030301e-06	-1.954705e-08	-2.187562e+01	-1.280159e+03
2.810000e-06	-3.112897e-06	-1.994239e-08	-2.247188e+01	-1.305783e+03
2.820000e-06	-3.194493e-06	-2.031878e-08	-2.306091e+01	-1.330002e+03
2.830000e-06	-3.275017e-06	-2.067280e-08	-2.364221e+01	-1.352919e+03
2.840000e-06	-3.354434e-06	-2.100510e-08	-2.421552e+01	-1.374637e+03
2.850000e-06	-3.432586e-06	-2.131891e-08	-2.477970e+01	-1.395257e+03
2.860000e-06	-3.509234e-06	-2.161805e-08	-2.533301e+01	-1.414866e+03
2.870000e-06	-3.584453e-06	-2.190452e-08	-2.587602e+01	-1.433542e+03
2.880000e-06	-3.658351e-06	-2.217780e-08	-2.640949e+01	-1.451341e+03
2.890000e-06	-3.730920e-06	-2.243805e-08	-2.693336e+01	-1.468308e+03
2.900000e-06	-3.802191e-06	-2.268658e-08	-2.744786e+01	-1.484474e+03
2.910000e-06	-3.871950e-06	-2.292407e-08	-2.795145e+01	-1.499863e+03
2.920000e-06	-3.940116e-06	-2.315167e-08	-2.844353e+01	-1.514500e+03
2.930000e-06	-4.006936e-06	-2.336834e-08	-2.892591e+01	-1.528415e+03
2.940000e-06	-4.072474e-06	-2.357390e-08	-2.939902e+01	-1.541646e+03
