# Temperatura_=_29.56
# Concentracion g/m^3_=_28200.0
# C_Vs_to_Am_M_A/Vsm_=_65563218390.804596
# pendiente_HvsI_1/m_=_3716.3
# ordenada_HvsI_A/m_=_1297.0
# frecuencia_Hz_=_301778.26766503

Tiempo_(s)	Campo_(V.s)	Magnetizacion_(V.s)	Campo_(kA/m)	Magnetizacion_(A/m)
0.000000e+00	-5.314475e-06	-1.814892e-08	-3.829401e+01	-1.186000e+03
1.000000e-08	-5.312495e-06	-1.814789e-08	-3.827974e+01	-1.185736e+03
2.000000e-08	-5.308574e-06	-1.813486e-08	-3.825149e+01	-1.185357e+03
3.000000e-08	-5.303022e-06	-1.812198e-08	-3.821148e+01	-1.184853e+03
4.000000e-08	-5.295918e-06	-1.811177e-08	-3.816029e+01	-1.184200e+03
5.000000e-08	-5.287185e-06	-1.809705e-08	-3.809737e+01	-1.183375e+03
6.000000e-08	-5.276457e-06	-1.807837e-08	-3.802007e+01	-1.182356e+03
7.000000e-08	-5.263770e-06	-1.804906e-08	-3.792865e+01	-1.181130e+03
8.000000e-08	-5.249194e-06	-1.801430e-08	-3.782362e+01	-1.179705e+03
9.000000e-08	-5.232339e-06	-1.806748e-08	-3.770217e+01	-1.178101e+03
1.000000e-07	-5.213293e-06	-1.807840e-08	-3.756493e+01	-1.176356e+03
1.100000e-07	-5.192365e-06	-1.797967e-08	-3.741413e+01	-1.174515e+03
1.200000e-07	-5.169669e-06	-1.794119e-08	-3.725059e+01	-1.172617e+03
1.300000e-07	-5.145506e-06	-1.784326e-08	-3.707648e+01	-1.170694e+03
1.400000e-07	-5.119799e-06	-1.773774e-08	-3.689125e+01	-1.168754e+03
1.500000e-07	-5.092376e-06	-1.793319e-08	-3.669365e+01	-1.166787e+03
1.600000e-07	-5.063420e-06	-1.781980e-08	-3.648501e+01	-1.164757e+03
1.700000e-07	-5.033091e-06	-1.766431e-08	-3.626646e+01	-1.162616e+03
1.800000e-07	-5.001082e-06	-1.785280e-08	-3.603582e+01	-1.160309e+03
1.900000e-07	-4.966899e-06	-1.763376e-08	-3.578951e+01	-1.157787e+03
2.000000e-07	-4.931069e-06	-1.753574e-08	-3.553134e+01	-1.155011e+03
2.100000e-07	-4.893755e-06	-1.768738e-08	-3.526246e+01	-1.151962e+03
2.200000e-07	-4.854641e-06	-1.748506e-08	-3.498063e+01	-1.148642e+03
2.300000e-07	-4.813771e-06	-1.741420e-08	-3.468613e+01	-1.145066e+03
2.400000e-07	-4.770868e-06	-1.742977e-08	-3.437699e+01	-1.141261e+03
2.500000e-07	-4.726069e-06	-1.728817e-08	-3.405419e+01	-1.137253e+03
2.600000e-07	-4.679573e-06	-1.732226e-08	-3.371915e+01	-1.133064e+03
2.700000e-07	-4.631171e-06	-1.724076e-08	-3.337039e+01	-1.128702e+03
2.800000e-07	-4.580654e-06	-1.709412e-08	-3.300639e+01	-1.124165e+03
2.900000e-07	-4.528086e-06	-1.702618e-08	-3.262760e+01	-1.119438e+03
3.000000e-07	-4.473790e-06	-1.697547e-08	-3.223636e+01	-1.114501e+03
3.100000e-07	-4.418036e-06	-1.692435e-08	-3.183462e+01	-1.109330e+03
3.200000e-07	-4.360572e-06	-1.682343e-08	-3.142056e+01	-1.103911e+03
3.300000e-07	-4.301294e-06	-1.675037e-08	-3.099343e+01	-1.098233e+03
3.400000e-07	-4.240517e-06	-1.663085e-08	-3.055549e+01	-1.092297e+03
3.500000e-07	-4.178280e-06	-1.650315e-08	-3.010704e+01	-1.086110e+03
3.600000e-07	-4.114728e-06	-1.642718e-08	-2.964910e+01	-1.079682e+03
3.700000e-07	-4.049736e-06	-1.633934e-08	-2.918080e+01	-1.073023e+03
3.800000e-07	-3.983004e-06	-1.626727e-08	-2.869996e+01	-1.066136e+03
3.900000e-07	-3.914790e-06	-1.613453e-08	-2.820843e+01	-1.059020e+03
4.000000e-07	-3.845310e-06	-1.597821e-08	-2.770779e+01	-1.051664e+03
4.100000e-07	-3.774555e-06	-1.588588e-08	-2.719795e+01	-1.044052e+03
4.200000e-07	-3.702613e-06	-1.576898e-08	-2.667957e+01	-1.036163e+03
4.300000e-07	-3.629325e-06	-1.564994e-08	-2.615148e+01	-1.027980e+03
4.400000e-07	-3.554494e-06	-1.551577e-08	-2.561228e+01	-1.019485e+03
4.500000e-07	-3.478205e-06	-1.537467e-08	-2.506257e+01	-1.010664e+03
4.600000e-07	-3.400511e-06	-1.522433e-08	-2.450274e+01	-1.001507e+03
4.700000e-07	-3.321331e-06	-1.508136e-08	-2.393220e+01	-9.920050e+02
4.800000e-07	-3.240836e-06	-1.495484e-08	-2.335218e+01	-9.821470e+02
4.900000e-07	-3.159223e-06	-1.478897e-08	-2.276411e+01	-9.719203e+02
5.000000e-07	-3.076507e-06	-1.462117e-08	-2.216809e+01	-9.613079e+02
5.100000e-07	-2.992845e-06	-1.444642e-08	-2.156526e+01	-9.502890e+02
5.200000e-07	-2.908356e-06	-1.426651e-08	-2.095646e+01	-9.388397e+02
5.300000e-07	-2.822924e-06	-1.408405e-08	-2.034087e+01	-9.269352e+02
5.400000e-07	-2.736497e-06	-1.389729e-08	-1.971811e+01	-9.145508e+02
5.500000e-07	-2.649203e-06	-1.370424e-08	-1.908911e+01	-9.016629e+02
5.600000e-07	-2.561047e-06	-1.349211e-08	-1.845390e+01	-8.882486e+02
5.700000e-07	-2.471842e-06	-1.327618e-08	-1.781112e+01	-8.742844e+02
5.800000e-07	-2.381460e-06	-1.305462e-08	-1.715986e+01	-8.597447e+02
5.900000e-07	-2.290066e-06	-1.282557e-08	-1.650131e+01	-8.445993e+02
6.000000e-07	-2.197907e-06	-1.258015e-08	-1.583725e+01	-8.288129e+02
6.100000e-07	-2.105062e-06	-1.232332e-08	-1.516825e+01	-8.123447e+02
6.200000e-07	-2.011418e-06	-1.206041e-08	-1.449349e+01	-7.951503e+02
6.300000e-07	-1.917033e-06	-1.178753e-08	-1.381338e+01	-7.771833e+02
6.400000e-07	-1.822055e-06	-1.150359e-08	-1.312901e+01	-7.583980e+02
6.500000e-07	-1.726501e-06	-1.120579e-08	-1.244048e+01	-7.387518e+02
6.600000e-07	-1.630361e-06	-1.088953e-08	-1.174774e+01	-7.182053e+02
6.700000e-07	-1.533543e-06	-1.055534e-08	-1.105011e+01	-6.967222e+02
6.800000e-07	-1.436041e-06	-1.021186e-08	-1.034754e+01	-6.742676e+02
6.900000e-07	-1.337876e-06	-9.855149e-09	-9.640203e+00	-6.508058e+02
7.000000e-07	-1.239094e-06	-9.482754e-09	-8.928421e+00	-6.262988e+02
7.100000e-07	-1.139893e-06	-9.091108e-09	-8.213617e+00	-6.007074e+02
7.200000e-07	-1.040398e-06	-8.677993e-09	-7.496699e+00	-5.739933e+02
7.300000e-07	-9.406231e-07	-8.245944e-09	-6.777758e+00	-5.461253e+02
7.400000e-07	-8.405871e-07	-7.799987e-09	-6.056938e+00	-5.170869e+02
7.500000e-07	-7.403359e-07	-7.343660e-09	-5.334568e+00	-4.868847e+02
7.600000e-07	-6.398745e-07	-6.868739e-09	-4.610683e+00	-4.555559e+02
7.700000e-07	-5.391989e-07	-6.375233e-09	-3.885254e+00	-4.231737e+02
7.800000e-07	-4.383646e-07	-5.869295e-09	-3.158682e+00	-3.898476e+02
7.900000e-07	-3.373915e-07	-5.351571e-09	-2.431110e+00	-3.557192e+02
8.000000e-07	-2.363119e-07	-4.821014e-09	-1.702770e+00	-3.209528e+02
8.100000e-07	-1.351321e-07	-4.284107e-09	-9.737083e-01	-2.857222e+02
8.200000e-07	-3.382721e-08	-3.744577e-09	-2.437455e-01	-2.501945e+02
8.300000e-07	6.751819e-08	-3.202237e-09	4.865094e-01	-2.145146e+02
8.400000e-07	1.688591e-07	-2.657898e-09	1.216732e+00	-1.787909e+02
8.500000e-07	2.701619e-07	-2.116552e-09	1.946680e+00	-1.430856e+02
8.600000e-07	3.713671e-07	-1.580735e-09	2.675925e+00	-1.074097e+02
8.700000e-07	4.724547e-07	-1.041978e-09	3.404322e+00	-7.172403e+01
8.800000e-07	5.734082e-07	-4.989375e-10	4.131753e+00	-3.594688e+01
8.900000e-07	6.742059e-07	4.971903e-11	4.858061e+00	3.465910e-02
9.000000e-07	7.748317e-07	6.048847e-10	5.583131e+00	3.634873e+01
9.100000e-07	8.752597e-07	1.167031e-09	6.306775e+00	7.312097e+01
9.200000e-07	9.754208e-07	1.735435e-09	7.028497e+00	1.104564e+02
9.300000e-07	1.075222e-06	2.310665e-09	7.747628e+00	1.484224e+02
9.400000e-07	1.174629e-06	2.896369e-09	8.463912e+00	1.870353e+02
9.500000e-07	1.273624e-06	3.492580e-09	9.177230e+00	2.262505e+02
9.600000e-07	1.372150e-06	4.095502e-09	9.887170e+00	2.659589e+02
9.700000e-07	1.470105e-06	4.702490e-09	1.059299e+01	3.059890e+02
9.800000e-07	1.567343e-06	5.312323e-09	1.129366e+01	3.461158e+02
9.900000e-07	1.663813e-06	5.920410e-09	1.198878e+01	3.860744e+02
1.000000e-06	1.759595e-06	6.520523e-09	1.267895e+01	4.255792e+02
1.010000e-06	1.854767e-06	7.107267e-09	1.336472e+01	4.643441e+02
1.020000e-06	1.949367e-06	7.680025e-09	1.404637e+01	5.021039e+02
1.030000e-06	2.043326e-06	8.234416e-09	1.472340e+01	5.386317e+02
1.040000e-06	2.136510e-06	8.764202e-09	1.539484e+01	5.737524e+02
1.050000e-06	2.228960e-06	9.270702e-09	1.606101e+01	6.073501e+02
1.060000e-06	2.320741e-06	9.754382e-09	1.672234e+01	6.393670e+02
1.070000e-06	2.411758e-06	1.021671e-08	1.737818e+01	6.697981e+02
1.080000e-06	2.501811e-06	1.065556e-08	1.802706e+01	6.986792e+02
1.090000e-06	2.590734e-06	1.107246e-08	1.866781e+01	7.260734e+02
1.100000e-06	2.678590e-06	1.146765e-08	1.930086e+01	7.520573e+02
1.110000e-06	2.765578e-06	1.184403e-08	1.992766e+01	7.767092e+02
1.120000e-06	2.851687e-06	1.220151e-08	2.054813e+01	8.001011e+02
1.130000e-06	2.936826e-06	1.253886e-08	2.116161e+01	8.222953e+02
1.140000e-06	3.021104e-06	1.285730e-08	2.176888e+01	8.433450e+02
1.150000e-06	3.104536e-06	1.315817e-08	2.237006e+01	8.632972e+02
1.160000e-06	3.186925e-06	1.344476e-08	2.296372e+01	8.821976e+02
1.170000e-06	3.268127e-06	1.371706e-08	2.354884e+01	9.000943e+02
1.180000e-06	3.348107e-06	1.397550e-08	2.412514e+01	9.170404e+02
1.190000e-06	3.426910e-06	1.421813e-08	2.469296e+01	9.330937e+02
1.200000e-06	3.504510e-06	1.444817e-08	2.525211e+01	9.483151e+02
1.210000e-06	3.580829e-06	1.466767e-08	2.580204e+01	9.627646e+02
1.220000e-06	3.655782e-06	1.487583e-08	2.634212e+01	9.764979e+02
1.230000e-06	3.729165e-06	1.507175e-08	2.687089e+01	9.895632e+02
1.240000e-06	3.800945e-06	1.525817e-08	2.738811e+01	1.002000e+03
1.250000e-06	3.871326e-06	1.543596e-08	2.789525e+01	1.013840e+03
1.260000e-06	3.940435e-06	1.560635e-08	2.839322e+01	1.025107e+03
1.270000e-06	4.008302e-06	1.576751e-08	2.888224e+01	1.035823e+03
1.280000e-06	4.074679e-06	1.592044e-08	2.936053e+01	1.046006e+03
1.290000e-06	4.139342e-06	1.606846e-08	2.982646e+01	1.055677e+03
1.300000e-06	4.202519e-06	1.621083e-08	3.028169e+01	1.064856e+03
1.310000e-06	4.264311e-06	1.634643e-08	3.072694e+01	1.073563e+03
1.320000e-06	4.324736e-06	1.647426e-08	3.116234e+01	1.081819e+03
1.330000e-06	4.383752e-06	1.659448e-08	3.158759e+01	1.089642e+03
1.340000e-06	4.441072e-06	1.670676e-08	3.200061e+01	1.097047e+03
1.350000e-06	4.496634e-06	1.681207e-08	3.240097e+01	1.104048e+03
1.360000e-06	4.550610e-06	1.690927e-08	3.278990e+01	1.110660e+03
1.370000e-06	4.602902e-06	1.699937e-08	3.316669e+01	1.116898e+03
1.380000e-06	4.653175e-06	1.708609e-08	3.352894e+01	1.122784e+03
1.390000e-06	4.701485e-06	1.717007e-08	3.387704e+01	1.128342e+03
1.400000e-06	4.748113e-06	1.725164e-08	3.421303e+01	1.133601e+03
1.410000e-06	4.793200e-06	1.733092e-08	3.453790e+01	1.138592e+03
1.420000e-06	4.836724e-06	1.740622e-08	3.485152e+01	1.143339e+03
1.430000e-06	4.878389e-06	1.747504e-08	3.515174e+01	1.147865e+03
1.440000e-06	4.918200e-06	1.753904e-08	3.543860e+01	1.152178e+03
1.450000e-06	4.956366e-06	1.760074e-08	3.571362e+01	1.156278e+03
1.460000e-06	4.992960e-06	1.766069e-08	3.597730e+01	1.160154e+03
1.470000e-06	5.027907e-06	1.771604e-08	3.622911e+01	1.163789e+03
1.480000e-06	5.060899e-06	1.776581e-08	3.646684e+01	1.167165e+03
1.490000e-06	5.092053e-06	1.781136e-08	3.669132e+01	1.170268e+03
1.500000e-06	5.121579e-06	1.785273e-08	3.690407e+01	1.173095e+03
1.510000e-06	5.149474e-06	1.789111e-08	3.710507e+01	1.175652e+03
1.520000e-06	5.175448e-06	1.792688e-08	3.729223e+01	1.177956e+03
1.530000e-06	5.199306e-06	1.795968e-08	3.746415e+01	1.180031e+03
1.540000e-06	5.221305e-06	1.798918e-08	3.762266e+01	1.181902e+03
1.550000e-06	5.241643e-06	1.801483e-08	3.776921e+01	1.183592e+03
1.560000e-06	5.260194e-06	1.803729e-08	3.790288e+01	1.185114e+03
1.570000e-06	5.276706e-06	1.805642e-08	3.802186e+01	1.186472e+03
1.580000e-06	5.291227e-06	1.807323e-08	3.812649e+01	1.187660e+03
1.590000e-06	5.303845e-06	1.808772e-08	3.821741e+01	1.188667e+03
1.600000e-06	5.314363e-06	1.809944e-08	3.829320e+01	1.189483e+03
1.610000e-06	5.322710e-06	1.810902e-08	3.835335e+01	1.190101e+03
1.620000e-06	5.329144e-06	1.811713e-08	3.839970e+01	1.190524e+03
1.630000e-06	5.333830e-06	1.812440e-08	3.843347e+01	1.190765e+03
1.640000e-06	5.336679e-06	1.812921e-08	3.845400e+01	1.190842e+03
1.650000e-06	5.337512e-06	1.813378e-08	3.846000e+01	1.190778e+03
1.660000e-06	5.336448e-06	1.813183e-08	3.845234e+01	1.190590e+03
1.670000e-06	5.333736e-06	1.812311e-08	3.843280e+01	1.190289e+03
1.680000e-06	5.329474e-06	1.811770e-08	3.840208e+01	1.189871e+03
1.690000e-06	5.323337e-06	1.810873e-08	3.835787e+01	1.189320e+03
1.700000e-06	5.315267e-06	1.809791e-08	3.829972e+01	1.188615e+03
1.710000e-06	5.305629e-06	1.808853e-08	3.823026e+01	1.187728e+03
1.720000e-06	5.294428e-06	1.808643e-08	3.814955e+01	1.186642e+03
1.730000e-06	5.281346e-06	1.810521e-08	3.805529e+01	1.185350e+03
1.740000e-06	5.266251e-06	1.800244e-08	3.794652e+01	1.183863e+03
1.750000e-06	5.249055e-06	1.792166e-08	3.782262e+01	1.182209e+03
1.760000e-06	5.229359e-06	1.796614e-08	3.768069e+01	1.180428e+03
1.770000e-06	5.207051e-06	1.794041e-08	3.751995e+01	1.178563e+03
1.780000e-06	5.182924e-06	1.803836e-08	3.734610e+01	1.176654e+03
1.790000e-06	5.158042e-06	1.798091e-08	3.716681e+01	1.174725e+03
1.800000e-06	5.132313e-06	1.771076e-08	3.698142e+01	1.172778e+03
1.810000e-06	5.104649e-06	1.791078e-08	3.678208e+01	1.170795e+03
1.820000e-06	5.074796e-06	1.784149e-08	3.656697e+01	1.168734e+03
1.830000e-06	5.043307e-06	1.760230e-08	3.634008e+01	1.166545e+03
1.840000e-06	5.009996e-06	1.788829e-08	3.610005e+01	1.164173e+03
1.850000e-06	4.974977e-06	1.771613e-08	3.584772e+01	1.161572e+03
1.860000e-06	4.938433e-06	1.751076e-08	3.558440e+01	1.158708e+03
1.870000e-06	4.899826e-06	1.769952e-08	3.530621e+01	1.155571e+03
1.880000e-06	4.859487e-06	1.748840e-08	3.501554e+01	1.152165e+03
1.890000e-06	4.817539e-06	1.751781e-08	3.471328e+01	1.148512e+03
1.900000e-06	4.773822e-06	1.751393e-08	3.439828e+01	1.144638e+03
1.910000e-06	4.728468e-06	1.721731e-08	3.407147e+01	1.140570e+03
1.920000e-06	4.681150e-06	1.739369e-08	3.373052e+01	1.136324e+03
1.930000e-06	4.632085e-06	1.731745e-08	3.337697e+01	1.131906e+03
1.940000e-06	4.581458e-06	1.717033e-08	3.301218e+01	1.127310e+03
1.950000e-06	4.528814e-06	1.714256e-08	3.263285e+01	1.122517e+03
1.960000e-06	4.474174e-06	1.699078e-08	3.223913e+01	1.117506e+03
1.970000e-06	4.417787e-06	1.701498e-08	3.183283e+01	1.112256e+03
1.980000e-06	4.359798e-06	1.682317e-08	3.141498e+01	1.106753e+03
1.990000e-06	4.300440e-06	1.676200e-08	3.098727e+01	1.100991e+03
2.000000e-06	4.239655e-06	1.679544e-08	3.054928e+01	1.094973e+03
2.010000e-06	4.177162e-06	1.658987e-08	3.009898e+01	1.088706e+03
2.020000e-06	4.112911e-06	1.651581e-08	2.963601e+01	1.082203e+03
2.030000e-06	4.047252e-06	1.635000e-08	2.916290e+01	1.075469e+03
2.040000e-06	3.980336e-06	1.631257e-08	2.868073e+01	1.068509e+03
2.050000e-06	3.912053e-06	1.624933e-08	2.818871e+01	1.061317e+03
2.060000e-06	3.842193e-06	1.605203e-08	2.768533e+01	1.053879e+03
2.070000e-06	3.770748e-06	1.599523e-08	2.717052e+01	1.046180e+03
2.080000e-06	3.698061e-06	1.582363e-08	2.664676e+01	1.038198e+03
2.090000e-06	3.624119e-06	1.571300e-08	2.611397e+01	1.029915e+03
2.100000e-06	3.548855e-06	1.558774e-08	2.557165e+01	1.021316e+03
2.110000e-06	3.472144e-06	1.545454e-08	2.501890e+01	1.012388e+03
2.120000e-06	3.393823e-06	1.533951e-08	2.445455e+01	1.003120e+03
2.130000e-06	3.314224e-06	1.515196e-08	2.388099e+01	9.935038e+02
2.140000e-06	3.233527e-06	1.502355e-08	2.329952e+01	9.835281e+02
2.150000e-06	3.151714e-06	1.484737e-08	2.271000e+01	9.731788e+02
2.160000e-06	3.068878e-06	1.470122e-08	2.211312e+01	9.624374e+02
2.170000e-06	2.985138e-06	1.454210e-08	2.150973e+01	9.512821e+02
2.180000e-06	2.900348e-06	1.435668e-08	2.089876e+01	9.396885e+02
2.190000e-06	2.814185e-06	1.417706e-08	2.027791e+01	9.276317e+02
2.200000e-06	2.726840e-06	1.397462e-08	1.964853e+01	9.150872e+02
2.210000e-06	2.638621e-06	1.379357e-08	1.901286e+01	9.020319e+02
2.220000e-06	2.549517e-06	1.358261e-08	1.837081e+01	8.884427e+02
2.230000e-06	2.459475e-06	1.337113e-08	1.772201e+01	8.742958e+02
2.240000e-06	2.368679e-06	1.314258e-08	1.706777e+01	8.595642e+02
2.250000e-06	2.277244e-06	1.291511e-08	1.640892e+01	8.442161e+02
2.260000e-06	2.185106e-06	1.267633e-08	1.574501e+01	8.282145e+02
2.270000e-06	2.092097e-06	1.241603e-08	1.507483e+01	8.115172e+02
2.280000e-06	1.998005e-06	1.215449e-08	1.439683e+01	7.940788e+02
2.290000e-06	1.902958e-06	1.187587e-08	1.371196e+01	7.758529e+02
2.300000e-06	1.807232e-06	1.158838e-08	1.302220e+01	7.567947e+02
2.310000e-06	1.710995e-06	1.128376e-08	1.232876e+01	7.368624e+02
2.320000e-06	1.614319e-06	1.097024e-08	1.163215e+01	7.160180e+02
2.330000e-06	1.517146e-06	1.063974e-08	1.093196e+01	6.942258e+02
2.340000e-06	1.419409e-06	1.028992e-08	1.022770e+01	6.714506e+02
2.350000e-06	1.321138e-06	9.922459e-09	9.519601e+00	6.476564e+02
2.360000e-06	1.222476e-06	9.545872e-09	8.808676e+00	6.228044e+02
2.370000e-06	1.123524e-06	9.161482e-09	8.095670e+00	5.968554e+02
2.380000e-06	1.024312e-06	8.755974e-09	7.380785e+00	5.697725e+02
2.390000e-06	9.248438e-07	8.325694e-09	6.664059e+00	5.415285e+02
2.400000e-06	8.251055e-07	7.872434e-09	5.945384e+00	5.121132e+02
2.410000e-06	7.251149e-07	7.404824e-09	5.224891e+00	4.815424e+02
2.420000e-06	6.248550e-07	6.920378e-09	4.502458e+00	4.498646e+02
2.430000e-06	5.244017e-07	6.419433e-09	3.778631e+00	4.171646e+02
2.440000e-06	4.237968e-07	5.907572e-09	3.053712e+00	3.835631e+02
2.450000e-06	3.229927e-07	5.385621e-09	2.327358e+00	3.492103e+02
2.460000e-06	2.220205e-07	4.849851e-09	1.599792e+00	3.142750e+02
2.470000e-06	1.209612e-07	4.306002e-09	8.715989e-01	2.789306e+02
2.480000e-06	1.982723e-08	3.761210e-09	1.428672e-01	2.433390e+02
2.490000e-06	-8.131646e-08	3.215467e-09	-5.859343e-01	2.076345e+02
2.500000e-06	-1.824387e-07	2.668227e-09	-1.314582e+00	1.719117e+02
2.510000e-06	-2.835538e-07	2.120170e-09	-2.043177e+00	1.362164e+02
2.520000e-06	-3.845495e-07	1.574072e-09	-2.770912e+00	1.005431e+02
2.530000e-06	-4.853867e-07	1.027840e-09	-3.497505e+00	6.483798e+01
2.540000e-06	-5.860186e-07	4.789114e-10	-4.222619e+00	2.900779e+01
2.550000e-06	-6.864207e-07	-7.503551e-11	-4.946076e+00	-7.067141e+00
2.560000e-06	-7.865735e-07	-6.338290e-10	-5.667738e+00	-4.351614e+01
2.570000e-06	-8.864098e-07	-1.198305e-09	-6.387119e+00	-8.046016e+01
2.580000e-06	-9.859005e-07	-1.769952e-09	-7.104009e+00	-1.179939e+02
2.590000e-06	-1.085091e-06	-2.350849e-09	-7.818733e+00	-1.561696e+02
2.600000e-06	-1.183988e-06	-2.943898e-09	-8.531351e+00	-1.949847e+02
2.610000e-06	-1.282551e-06	-3.546539e-09	-9.241554e+00	-2.343742e+02
2.620000e-06	-1.380624e-06	-4.157747e-09	-9.948228e+00	-2.742082e+02
2.630000e-06	-1.478130e-06	-4.775089e-09	-1.065082e+01	-3.142969e+02
2.640000e-06	-1.575128e-06	-5.390142e-09	-1.134975e+01	-3.544006e+02
2.650000e-06	-1.671610e-06	-5.998886e-09	-1.204496e+01	-3.942457e+02
2.660000e-06	-1.767608e-06	-6.601212e-09	-1.273668e+01	-4.335440e+02
2.670000e-06	-1.863076e-06	-7.194001e-09	-1.342459e+01	-4.720140e+02
2.680000e-06	-1.957770e-06	-7.770462e-09	-1.410691e+01	-5.094010e+02
2.690000e-06	-2.051587e-06	-8.324566e-09	-1.478292e+01	-5.454936e+02
2.700000e-06	-2.144549e-06	-8.855950e-09	-1.545278e+01	-5.801353e+02
2.710000e-06	-2.236622e-06	-9.364854e-09	-1.611622e+01	-6.132291e+02
2.720000e-06	-2.327916e-06	-9.848083e-09	-1.677405e+01	-6.447354e+02
2.730000e-06	-2.418461e-06	-1.030720e-08	-1.742648e+01	-6.746635e+02
2.740000e-06	-2.508090e-06	-1.074308e-08	-1.807231e+01	-7.030596e+02
2.750000e-06	-2.596817e-06	-1.115493e-08	-1.871164e+01	-7.299926e+02
2.760000e-06	-2.684773e-06	-1.154669e-08	-1.934541e+01	-7.555407e+02
2.770000e-06	-2.771913e-06	-1.191922e-08	-1.997331e+01	-7.797809e+02
2.780000e-06	-2.858040e-06	-1.227247e-08	-2.059391e+01	-8.027823e+02
2.790000e-06	-2.942979e-06	-1.260651e-08	-2.120594e+01	-8.246039e+02
2.800000e-06	-3.026800e-06	-1.292191e-08	-2.180992e+01	-8.452966e+02
2.810000e-06	-3.109637e-06	-1.322145e-08	-2.240681e+01	-8.649064e+02
2.820000e-06	-3.191459e-06	-1.350606e-08	-2.299640e+01	-8.834794e+02
2.830000e-06	-3.272251e-06	-1.377519e-08	-2.357854e+01	-9.010653e+02
2.840000e-06	-3.351983e-06	-1.403082e-08	-2.415307e+01	-9.177186e+02
2.850000e-06	-3.430348e-06	-1.427344e-08	-2.471773e+01	-9.334986e+02
2.860000e-06	-3.507170e-06	-1.450358e-08	-2.527128e+01	-9.484663e+02
2.870000e-06	-3.582593e-06	-1.472486e-08	-2.581475e+01	-9.626805e+02
2.880000e-06	-3.656650e-06	-1.493577e-08	-2.634837e+01	-9.761949e+02
2.890000e-06	-3.729388e-06	-1.513422e-08	-2.687249e+01	-9.890551e+02
2.900000e-06	-3.800911e-06	-1.532116e-08	-2.738787e+01	-1.001298e+03
2.910000e-06	-3.870991e-06	-1.549858e-08	-2.789283e+01	-1.012952e+03
2.920000e-06	-3.939485e-06	-1.566992e-08	-2.838637e+01	-1.024040e+03
2.930000e-06	-4.006630e-06	-1.583333e-08	-2.887019e+01	-1.034583e+03
2.940000e-06	-4.072460e-06	-1.598586e-08	-2.934454e+01	-1.044600e+03
