# Temperatura_=_76.54
# Concentracion g/m^3_=_26700.0
# C_Vs_to_Am_M_A/Vsm_=_65563218390.804596
# pendiente_HvsI_1/m_=_3716.3
# ordenada_HvsI_A/m_=_1297.0
# frecuencia_Hz_=_302192.74473154196

Tiempo_(s)	Campo_(V.s)	Magnetizacion_(V.s)	Campo_(kA/m)	Magnetizacion_(A/m)
0.000000e+00	-6.662574e-06	-2.641104e-08	-4.771135e+01	-1.727681e+03
1.000000e-08	-6.660585e-06	-2.640846e-08	-4.769711e+01	-1.727607e+03
2.000000e-08	-6.656223e-06	-2.640356e-08	-4.766587e+01	-1.727356e+03
3.000000e-08	-6.649776e-06	-2.639524e-08	-4.761970e+01	-1.726913e+03
4.000000e-08	-6.641234e-06	-2.638204e-08	-4.755853e+01	-1.726266e+03
5.000000e-08	-6.630320e-06	-2.636536e-08	-4.748038e+01	-1.725410e+03
6.000000e-08	-6.616907e-06	-2.634765e-08	-4.738433e+01	-1.724350e+03
7.000000e-08	-6.601086e-06	-2.633063e-08	-4.727102e+01	-1.723104e+03
8.000000e-08	-6.583128e-06	-2.631619e-08	-4.714243e+01	-1.721699e+03
9.000000e-08	-6.563123e-06	-2.629995e-08	-4.699917e+01	-1.720169e+03
1.000000e-07	-6.540637e-06	-2.629529e-08	-4.683814e+01	-1.718552e+03
1.100000e-07	-6.515429e-06	-2.626651e-08	-4.665763e+01	-1.716882e+03
1.200000e-07	-6.487713e-06	-2.621350e-08	-4.645915e+01	-1.715184e+03
1.300000e-07	-6.457834e-06	-2.616425e-08	-4.624519e+01	-1.713469e+03
1.400000e-07	-6.426086e-06	-2.612709e-08	-4.601783e+01	-1.711732e+03
1.500000e-07	-6.392511e-06	-2.609261e-08	-4.577740e+01	-1.709951e+03
1.600000e-07	-6.357003e-06	-2.607190e-08	-4.552313e+01	-1.708086e+03
1.700000e-07	-6.319505e-06	-2.606481e-08	-4.525460e+01	-1.706091e+03
1.800000e-07	-6.280022e-06	-2.599369e-08	-4.497186e+01	-1.703916e+03
1.900000e-07	-6.238232e-06	-2.596442e-08	-4.467260e+01	-1.701517e+03
2.000000e-07	-6.193967e-06	-2.592544e-08	-4.435561e+01	-1.698862e+03
2.100000e-07	-6.147455e-06	-2.583956e-08	-4.402253e+01	-1.695938e+03
2.200000e-07	-6.098482e-06	-2.580439e-08	-4.367183e+01	-1.692750e+03
2.300000e-07	-6.046855e-06	-2.574838e-08	-4.330213e+01	-1.689321e+03
2.400000e-07	-5.992790e-06	-2.569392e-08	-4.291496e+01	-1.685686e+03
2.500000e-07	-5.936475e-06	-2.564949e-08	-4.251168e+01	-1.681881e+03
2.600000e-07	-5.877893e-06	-2.559023e-08	-4.209217e+01	-1.677941e+03
2.700000e-07	-5.817093e-06	-2.553602e-08	-4.165677e+01	-1.673888e+03
2.800000e-07	-5.754244e-06	-2.546978e-08	-4.120671e+01	-1.669728e+03
2.900000e-07	-5.689335e-06	-2.540783e-08	-4.074189e+01	-1.665453e+03
3.000000e-07	-5.622227e-06	-2.534044e-08	-4.026132e+01	-1.661039e+03
3.100000e-07	-5.552987e-06	-2.525998e-08	-3.976549e+01	-1.656459e+03
3.200000e-07	-5.481731e-06	-2.518077e-08	-3.925521e+01	-1.651683e+03
3.300000e-07	-5.408411e-06	-2.509251e-08	-3.873017e+01	-1.646693e+03
3.400000e-07	-5.332916e-06	-2.502451e-08	-3.818954e+01	-1.641480e+03
3.500000e-07	-5.255205e-06	-2.494706e-08	-3.763304e+01	-1.636049e+03
3.600000e-07	-5.175346e-06	-2.486278e-08	-3.706116e+01	-1.630417e+03
3.700000e-07	-5.093565e-06	-2.477815e-08	-3.647552e+01	-1.624606e+03
3.800000e-07	-5.010134e-06	-2.467947e-08	-3.587806e+01	-1.618637e+03
3.900000e-07	-4.925130e-06	-2.458314e-08	-3.526934e+01	-1.612524e+03
4.000000e-07	-4.838588e-06	-2.448331e-08	-3.464960e+01	-1.606270e+03
4.100000e-07	-4.750385e-06	-2.438941e-08	-3.401797e+01	-1.599866e+03
4.200000e-07	-4.660433e-06	-2.428716e-08	-3.337382e+01	-1.593292e+03
4.300000e-07	-4.568826e-06	-2.418197e-08	-3.271781e+01	-1.586524e+03
4.400000e-07	-4.475667e-06	-2.407675e-08	-3.205070e+01	-1.579539e+03
4.500000e-07	-4.381002e-06	-2.396790e-08	-3.137279e+01	-1.572319e+03
4.600000e-07	-4.284707e-06	-2.385727e-08	-3.068321e+01	-1.564859e+03
4.700000e-07	-4.186792e-06	-2.373671e-08	-2.998203e+01	-1.557159e+03
4.800000e-07	-4.087334e-06	-2.361441e-08	-2.926980e+01	-1.549232e+03
4.900000e-07	-3.986418e-06	-2.348806e-08	-2.854713e+01	-1.541089e+03
5.000000e-07	-3.884126e-06	-2.335846e-08	-2.781461e+01	-1.532738e+03
5.100000e-07	-3.780390e-06	-2.322200e-08	-2.707174e+01	-1.524180e+03
5.200000e-07	-3.675280e-06	-2.308432e-08	-2.631904e+01	-1.515404e+03
5.300000e-07	-3.568847e-06	-2.294370e-08	-2.555687e+01	-1.506389e+03
5.400000e-07	-3.461027e-06	-2.279938e-08	-2.478475e+01	-1.497108e+03
5.500000e-07	-3.351958e-06	-2.265597e-08	-2.400370e+01	-1.487534e+03
5.600000e-07	-3.241765e-06	-2.250830e-08	-2.321460e+01	-1.477644e+03
5.700000e-07	-3.130381e-06	-2.235467e-08	-2.241697e+01	-1.467424e+03
5.800000e-07	-3.017691e-06	-2.219034e-08	-2.160998e+01	-1.456873e+03
5.900000e-07	-2.903676e-06	-2.201852e-08	-2.079351e+01	-1.445997e+03
6.000000e-07	-2.788452e-06	-2.184071e-08	-1.996838e+01	-1.434807e+03
6.100000e-07	-2.672104e-06	-2.166180e-08	-1.913520e+01	-1.423314e+03
6.200000e-07	-2.554755e-06	-2.147977e-08	-1.829486e+01	-1.411522e+03
6.300000e-07	-2.436540e-06	-2.129442e-08	-1.744831e+01	-1.399425e+03
6.400000e-07	-2.317426e-06	-2.110663e-08	-1.659532e+01	-1.387004e+03
6.500000e-07	-2.197375e-06	-2.091328e-08	-1.573562e+01	-1.374232e+03
6.600000e-07	-2.076495e-06	-2.071300e-08	-1.486998e+01	-1.361079e+03
6.700000e-07	-1.954919e-06	-2.050468e-08	-1.399937e+01	-1.347514e+03
6.800000e-07	-1.832706e-06	-2.028990e-08	-1.312419e+01	-1.333514e+03
6.900000e-07	-1.709834e-06	-2.006764e-08	-1.224429e+01	-1.319063e+03
7.000000e-07	-1.586303e-06	-1.983909e-08	-1.135968e+01	-1.304154e+03
7.100000e-07	-1.462184e-06	-1.960337e-08	-1.047085e+01	-1.288782e+03
7.200000e-07	-1.337571e-06	-1.936165e-08	-9.578479e+00	-1.272941e+03
7.300000e-07	-1.212540e-06	-1.911372e-08	-8.683121e+00	-1.256617e+03
7.400000e-07	-1.087152e-06	-1.885802e-08	-7.785202e+00	-1.239783e+03
7.500000e-07	-9.615023e-07	-1.859507e-08	-6.885413e+00	-1.222401e+03
7.600000e-07	-8.355881e-07	-1.832451e-08	-5.983729e+00	-1.204420e+03
7.700000e-07	-7.094512e-07	-1.804400e-08	-5.080450e+00	-1.185786e+03
7.800000e-07	-5.831272e-07	-1.774880e-08	-4.175831e+00	-1.166444e+03
7.900000e-07	-4.566322e-07	-1.743980e-08	-3.269988e+00	-1.146348e+03
8.000000e-07	-3.300174e-07	-1.711874e-08	-2.363287e+00	-1.125458e+03
8.100000e-07	-2.032720e-07	-1.678640e-08	-1.455651e+00	-1.103744e+03
8.200000e-07	-7.640864e-08	-1.644410e-08	-5.471698e-01	-1.081174e+03
8.300000e-07	5.053635e-08	-1.608833e-08	3.618958e-01	-1.057708e+03
8.400000e-07	1.774951e-07	-1.571638e-08	1.271060e+00	-1.033289e+03
8.500000e-07	3.044262e-07	-1.532874e-08	2.180026e+00	-1.007830e+03
8.600000e-07	4.312815e-07	-1.492314e-08	3.088450e+00	-9.812177e+02
8.700000e-07	5.580130e-07	-1.449810e-08	3.995986e+00	-9.533061e+02
8.800000e-07	6.845656e-07	-1.405092e-08	4.902242e+00	-9.239281e+02
8.900000e-07	8.109286e-07	-1.357701e-08	5.807139e+00	-8.929015e+02
9.000000e-07	9.370522e-07	-1.307514e-08	6.710323e+00	-8.600371e+02
9.100000e-07	1.062901e-06	-1.254183e-08	7.611539e+00	-8.251436e+02
9.200000e-07	1.188441e-06	-1.197574e-08	8.510544e+00	-7.880248e+02
9.300000e-07	1.313579e-06	-1.137451e-08	9.406672e+00	-7.484716e+02
9.400000e-07	1.438298e-06	-1.073392e-08	1.029980e+01	-7.062486e+02
9.500000e-07	1.562560e-06	-1.004869e-08	1.118964e+01	-6.610803e+02
9.600000e-07	1.686281e-06	-9.310038e-09	1.207562e+01	-6.126417e+02
9.700000e-07	1.809334e-06	-8.512726e-09	1.295682e+01	-5.605596e+02
9.800000e-07	1.931638e-06	-7.653632e-09	1.383265e+01	-5.044285e+02
9.900000e-07	2.053180e-06	-6.726814e-09	1.470303e+01	-4.438432e+02
1.000000e-06	2.173939e-06	-5.724740e-09	1.556779e+01	-3.784460e+02
1.010000e-06	2.293854e-06	-4.645900e-09	1.642651e+01	-3.079840e+02
1.020000e-06	2.412841e-06	-3.491732e-09	1.727859e+01	-2.323678e+02
1.030000e-06	2.530937e-06	-2.262335e-09	1.812429e+01	-1.517217e+02
1.040000e-06	2.648148e-06	-9.611471e-10	1.896365e+01	-6.641739e+01
1.050000e-06	2.764297e-06	4.015009e-10	1.979541e+01	2.291744e+01
1.060000e-06	2.879249e-06	1.811931e-09	2.061858e+01	1.154180e+02
1.070000e-06	2.992982e-06	3.256110e-09	2.143304e+01	2.100283e+02
1.080000e-06	3.105510e-06	4.714690e-09	2.223887e+01	3.055680e+02
1.090000e-06	3.216842e-06	6.168223e-09	2.303612e+01	4.008125e+02
1.100000e-06	3.327059e-06	7.597370e-09	2.382540e+01	4.945749e+02
1.110000e-06	3.436256e-06	8.985350e-09	2.460737e+01	5.857789e+02
1.120000e-06	3.544391e-06	1.031790e-08	2.538174e+01	6.735158e+02
1.130000e-06	3.651283e-06	1.158524e-08	2.614720e+01	7.570790e+02
1.140000e-06	3.756805e-06	1.278216e-08	2.690285e+01	8.359744e+02
1.150000e-06	3.860899e-06	1.390218e-08	2.764828e+01	9.099110e+02
1.160000e-06	3.963556e-06	1.494558e-08	2.838341e+01	9.787742e+02
1.170000e-06	4.064891e-06	1.591352e-08	2.910909e+01	1.042591e+03
1.180000e-06	4.164918e-06	1.680687e-08	2.982539e+01	1.101493e+03
1.190000e-06	4.263473e-06	1.762889e-08	3.053115e+01	1.155679e+03
1.200000e-06	4.360321e-06	1.838224e-08	3.122469e+01	1.205393e+03
1.210000e-06	4.455488e-06	1.907042e-08	3.190619e+01	1.250899e+03
1.220000e-06	4.549131e-06	1.969938e-08	3.257678e+01	1.292473e+03
1.230000e-06	4.641268e-06	2.027364e-08	3.323658e+01	1.330396e+03
1.240000e-06	4.731842e-06	2.079533e-08	3.388519e+01	1.364948e+03
1.250000e-06	4.820628e-06	2.126758e-08	3.452099e+01	1.396411e+03
1.260000e-06	4.907551e-06	2.169744e-08	3.514346e+01	1.425061e+03
1.270000e-06	4.992724e-06	2.209142e-08	3.575339e+01	1.451167e+03
1.280000e-06	5.076236e-06	2.245324e-08	3.635143e+01	1.474984e+03
1.290000e-06	5.157929e-06	2.278605e-08	3.693644e+01	1.496747e+03
1.300000e-06	5.237597e-06	2.309137e-08	3.750695e+01	1.516672e+03
1.310000e-06	5.315354e-06	2.336900e-08	3.806377e+01	1.534948e+03
1.320000e-06	5.391172e-06	2.362170e-08	3.860671e+01	1.551740e+03
1.330000e-06	5.464824e-06	2.385456e-08	3.913414e+01	1.567192e+03
1.340000e-06	5.536383e-06	2.406875e-08	3.964659e+01	1.581427e+03
1.350000e-06	5.605997e-06	2.426377e-08	4.014510e+01	1.594551e+03
1.360000e-06	5.673627e-06	2.444295e-08	4.062940e+01	1.606659e+03
1.370000e-06	5.739147e-06	2.461194e-08	4.109860e+01	1.617833e+03
1.380000e-06	5.802564e-06	2.477168e-08	4.155273e+01	1.628145e+03
1.390000e-06	5.864051e-06	2.492115e-08	4.199305e+01	1.637660e+03
1.400000e-06	5.923642e-06	2.505789e-08	4.241978e+01	1.646433e+03
1.410000e-06	5.981107e-06	2.518221e-08	4.283130e+01	1.654516e+03
1.420000e-06	6.036332e-06	2.529588e-08	4.322677e+01	1.661954e+03
1.430000e-06	6.089255e-06	2.539875e-08	4.360576e+01	1.668791e+03
1.440000e-06	6.139642e-06	2.549286e-08	4.396658e+01	1.675069e+03
1.450000e-06	6.187554e-06	2.557936e-08	4.430968e+01	1.680834e+03
1.460000e-06	6.233299e-06	2.565818e-08	4.463727e+01	1.686132e+03
1.470000e-06	6.277048e-06	2.573145e-08	4.495056e+01	1.691007e+03
1.480000e-06	6.318552e-06	2.580062e-08	4.524777e+01	1.695501e+03
1.490000e-06	6.357647e-06	2.586570e-08	4.552774e+01	1.699654e+03
1.500000e-06	6.394554e-06	2.592544e-08	4.579203e+01	1.703492e+03
1.510000e-06	6.429342e-06	2.597883e-08	4.604116e+01	1.707036e+03
1.520000e-06	6.461785e-06	2.602843e-08	4.627348e+01	1.710295e+03
1.530000e-06	6.491899e-06	2.607497e-08	4.648913e+01	1.713270e+03
1.540000e-06	6.519847e-06	2.611715e-08	4.668927e+01	1.715956e+03
1.550000e-06	6.545461e-06	2.615268e-08	4.687269e+01	1.718348e+03
1.560000e-06	6.568565e-06	2.618148e-08	4.703814e+01	1.720442e+03
1.570000e-06	6.589312e-06	2.620579e-08	4.718671e+01	1.722243e+03
1.580000e-06	6.607806e-06	2.622696e-08	4.731915e+01	1.723763e+03
1.590000e-06	6.623937e-06	2.624672e-08	4.743467e+01	1.725020e+03
1.600000e-06	6.637588e-06	2.626429e-08	4.753243e+01	1.726039e+03
1.610000e-06	6.648612e-06	2.627749e-08	4.761137e+01	1.726849e+03
1.620000e-06	6.656986e-06	2.628841e-08	4.767133e+01	1.727474e+03
1.630000e-06	6.662964e-06	2.629806e-08	4.771414e+01	1.727935e+03
1.640000e-06	6.666742e-06	2.630492e-08	4.774120e+01	1.728244e+03
1.650000e-06	6.668076e-06	2.630749e-08	4.775075e+01	1.728403e+03
1.660000e-06	6.666986e-06	2.630683e-08	4.774294e+01	1.728405e+03
1.670000e-06	6.663789e-06	2.630231e-08	4.772005e+01	1.728238e+03
1.680000e-06	6.658448e-06	2.629570e-08	4.768181e+01	1.727887e+03
1.690000e-06	6.650836e-06	2.628699e-08	4.762729e+01	1.727335e+03
1.700000e-06	6.641049e-06	2.627745e-08	4.755721e+01	1.726576e+03
1.710000e-06	6.629130e-06	2.626724e-08	4.747185e+01	1.725610e+03
1.720000e-06	6.614830e-06	2.625334e-08	4.736945e+01	1.724448e+03
1.730000e-06	6.598283e-06	2.623281e-08	4.725095e+01	1.723112e+03
1.740000e-06	6.579748e-06	2.620610e-08	4.711822e+01	1.721636e+03
1.750000e-06	6.558652e-06	2.615656e-08	4.696715e+01	1.720055e+03
1.760000e-06	6.534381e-06	2.613605e-08	4.679335e+01	1.718405e+03
1.770000e-06	6.507264e-06	2.613079e-08	4.659916e+01	1.716718e+03
1.780000e-06	6.477882e-06	2.611974e-08	4.638875e+01	1.715010e+03
1.790000e-06	6.446625e-06	2.610890e-08	4.616492e+01	1.713286e+03
1.800000e-06	6.413957e-06	2.607988e-08	4.593098e+01	1.711529e+03
1.810000e-06	6.379562e-06	2.600648e-08	4.568467e+01	1.709708e+03
1.820000e-06	6.342756e-06	2.601821e-08	4.542110e+01	1.707780e+03
1.830000e-06	6.303702e-06	2.602953e-08	4.514143e+01	1.705695e+03
1.840000e-06	6.262481e-06	2.597464e-08	4.484624e+01	1.703404e+03
1.850000e-06	6.219079e-06	2.597149e-08	4.453544e+01	1.700871e+03
1.860000e-06	6.173579e-06	2.589544e-08	4.420961e+01	1.698072e+03
1.870000e-06	6.125769e-06	2.585368e-08	4.386723e+01	1.695005e+03
1.880000e-06	6.075700e-06	2.582678e-08	4.350869e+01	1.691685e+03
1.890000e-06	6.023234e-06	2.573617e-08	4.313297e+01	1.688141e+03
1.900000e-06	5.968099e-06	2.570316e-08	4.273815e+01	1.684410e+03
1.910000e-06	5.910655e-06	2.563564e-08	4.232678e+01	1.680529e+03
1.920000e-06	5.851060e-06	2.557108e-08	4.190002e+01	1.676527e+03
1.930000e-06	5.789312e-06	2.551615e-08	4.145783e+01	1.672417e+03
1.940000e-06	5.725430e-06	2.543205e-08	4.100037e+01	1.668197e+03
1.950000e-06	5.659398e-06	2.539996e-08	4.052751e+01	1.663851e+03
1.960000e-06	5.591247e-06	2.531033e-08	4.003947e+01	1.659352e+03
1.970000e-06	5.520824e-06	2.524500e-08	3.953517e+01	1.654670e+03
1.980000e-06	5.448277e-06	2.516981e-08	3.901565e+01	1.649782e+03
1.990000e-06	5.373737e-06	2.508033e-08	3.848186e+01	1.644672e+03
2.000000e-06	5.297140e-06	2.501956e-08	3.793334e+01	1.639341e+03
2.010000e-06	5.218490e-06	2.491412e-08	3.737013e+01	1.633800e+03
2.020000e-06	5.137870e-06	2.484460e-08	3.679279e+01	1.628069e+03
2.030000e-06	5.055439e-06	2.475883e-08	3.620250e+01	1.622171e+03
2.040000e-06	4.971180e-06	2.466980e-08	3.559911e+01	1.616124e+03
2.050000e-06	4.885148e-06	2.457438e-08	3.498303e+01	1.609936e+03
2.060000e-06	4.797395e-06	2.446624e-08	3.435462e+01	1.603603e+03
2.070000e-06	4.707966e-06	2.437714e-08	3.371421e+01	1.597111e+03
2.080000e-06	4.616992e-06	2.426393e-08	3.306274e+01	1.590437e+03
2.090000e-06	4.524422e-06	2.416258e-08	3.239983e+01	1.583555e+03
2.100000e-06	4.430231e-06	2.405165e-08	3.172532e+01	1.576446e+03
2.110000e-06	4.334380e-06	2.394561e-08	3.103892e+01	1.569097e+03
2.120000e-06	4.237028e-06	2.383520e-08	3.034178e+01	1.561508e+03
2.130000e-06	4.138372e-06	2.371585e-08	2.963529e+01	1.553685e+03
2.140000e-06	4.038281e-06	2.359808e-08	2.891853e+01	1.545640e+03
2.150000e-06	3.936597e-06	2.347035e-08	2.819036e+01	1.537385e+03
2.160000e-06	3.833331e-06	2.334473e-08	2.745086e+01	1.528924e+03
2.170000e-06	3.728605e-06	2.320972e-08	2.670091e+01	1.520251e+03
2.180000e-06	3.622600e-06	2.307796e-08	2.594180e+01	1.511350e+03
2.190000e-06	3.515437e-06	2.293881e-08	2.517439e+01	1.502197e+03
2.200000e-06	3.407060e-06	2.279841e-08	2.439829e+01	1.492762e+03
2.210000e-06	3.297407e-06	2.265147e-08	2.361305e+01	1.483021e+03
2.220000e-06	3.186381e-06	2.250072e-08	2.281799e+01	1.472955e+03
2.230000e-06	3.074064e-06	2.234451e-08	2.201367e+01	1.462558e+03
2.240000e-06	2.960586e-06	2.218061e-08	2.120105e+01	1.451831e+03
2.250000e-06	2.846016e-06	2.201339e-08	2.038060e+01	1.440785e+03
2.260000e-06	2.730315e-06	2.184282e-08	1.955205e+01	1.429432e+03
2.270000e-06	2.613409e-06	2.166995e-08	1.871488e+01	1.417779e+03
2.280000e-06	2.495420e-06	2.148974e-08	1.786995e+01	1.405826e+03
2.290000e-06	2.376413e-06	2.130475e-08	1.701773e+01	1.393558e+03
2.300000e-06	2.256480e-06	2.111146e-08	1.615888e+01	1.380953e+03
2.310000e-06	2.135708e-06	2.091434e-08	1.529402e+01	1.367981e+03
2.320000e-06	2.014203e-06	2.070969e-08	1.442391e+01	1.354610e+03
2.330000e-06	1.892083e-06	2.050001e-08	1.354939e+01	1.340815e+03
2.340000e-06	1.769408e-06	2.028379e-08	1.267090e+01	1.326574e+03
2.350000e-06	1.646211e-06	2.006119e-08	1.178868e+01	1.311879e+03
2.360000e-06	1.522483e-06	1.983163e-08	1.090265e+01	1.296722e+03
2.370000e-06	1.398162e-06	1.959255e-08	1.001237e+01	1.281100e+03
2.380000e-06	1.273292e-06	1.934619e-08	9.118169e+00	1.265003e+03
2.390000e-06	1.148006e-06	1.909180e-08	8.220984e+00	1.248410e+03
2.400000e-06	1.022367e-06	1.882949e-08	7.321274e+00	1.231288e+03
2.410000e-06	8.963997e-07	1.855803e-08	6.419206e+00	1.213592e+03
2.420000e-06	7.701692e-07	1.827823e-08	5.515257e+00	1.195268e+03
2.430000e-06	6.437259e-07	1.798715e-08	4.609785e+00	1.176261e+03
2.440000e-06	5.170668e-07	1.768461e-08	3.702767e+00	1.156520e+03
2.450000e-06	3.902164e-07	1.737052e-08	2.794378e+00	1.136003e+03
2.460000e-06	2.631417e-07	1.704550e-08	1.884384e+00	1.114676e+03
2.470000e-06	1.358533e-07	1.670901e-08	9.728587e-01	1.092507e+03
2.480000e-06	8.441999e-09	1.635683e-08	6.045399e-02	1.069463e+03
2.490000e-06	-1.190138e-07	1.598970e-08	-8.522695e-01	1.045496e+03
2.500000e-06	-2.463998e-07	1.560955e-08	-1.764493e+00	1.020532e+03
2.510000e-06	-3.736905e-07	1.521362e-08	-2.676034e+00	9.944716e+02
2.520000e-06	-5.008752e-07	1.479764e-08	-3.586816e+00	9.671828e+02
2.530000e-06	-6.279074e-07	1.435921e-08	-4.496507e+00	9.385077e+02
2.540000e-06	-7.547146e-07	1.389598e-08	-5.404586e+00	9.082697e+02
2.550000e-06	-8.812317e-07	1.340698e-08	-6.310587e+00	8.762823e+02
2.560000e-06	-1.007454e-06	1.288826e-08	-7.214477e+00	8.423549e+02
2.570000e-06	-1.133313e-06	1.233685e-08	-8.115768e+00	8.062943e+02
2.580000e-06	-1.258792e-06	1.175102e-08	-9.014337e+00	7.678987e+02
2.590000e-06	-1.383818e-06	1.112708e-08	-9.909658e+00	7.269468e+02
2.600000e-06	-1.508262e-06	1.046026e-08	-1.080081e+01	6.831833e+02
2.610000e-06	-1.632081e-06	9.745602e-09	-1.168749e+01	6.363068e+02
2.620000e-06	-1.755222e-06	8.978125e-09	-1.256932e+01	5.859654e+02
2.630000e-06	-1.877731e-06	8.151394e-09	-1.344662e+01	5.317656e+02
2.640000e-06	-1.999587e-06	7.260465e-09	-1.431924e+01	4.732969e+02
2.650000e-06	-2.120742e-06	6.299110e-09	-1.518684e+01	4.101730e+02
2.660000e-06	-2.241174e-06	5.262747e-09	-1.604927e+01	3.420850e+02
2.670000e-06	-2.360698e-06	4.148812e-09	-1.690519e+01	2.688604e+02
2.680000e-06	-2.479234e-06	2.957249e-09	-1.775404e+01	1.905189e+02
2.690000e-06	-2.596764e-06	1.690278e-09	-1.859568e+01	1.073148e+02
2.700000e-06	-2.713122e-06	3.558473e-10	-1.942893e+01	1.975735e+01
2.710000e-06	-2.828303e-06	-1.033351e-09	-2.025376e+01	-7.139446e+01
2.720000e-06	-2.942333e-06	-2.462689e-09	-2.107034e+01	-1.651662e+02
2.730000e-06	-3.055167e-06	-3.915276e-09	-2.187835e+01	-2.604259e+02
2.740000e-06	-3.166821e-06	-5.374010e-09	-2.267792e+01	-3.559592e+02
2.750000e-06	-3.277173e-06	-6.820632e-09	-2.346816e+01	-4.505518e+02
2.760000e-06	-3.386391e-06	-8.236528e-09	-2.425028e+01	-5.430678e+02
2.770000e-06	-3.494616e-06	-9.604977e-09	-2.502529e+01	-6.325151e+02
2.780000e-06	-3.601735e-06	-1.091424e-08	-2.579238e+01	-7.180903e+02
2.790000e-06	-3.707737e-06	-1.215606e-08	-2.655147e+01	-7.992009e+02
2.800000e-06	-3.812495e-06	-1.332361e-08	-2.730165e+01	-8.754640e+02
2.810000e-06	-3.915870e-06	-1.441443e-08	-2.804193e+01	-9.466870e+02
2.820000e-06	-4.017704e-06	-1.542943e-08	-2.877117e+01	-1.012836e+03
2.830000e-06	-4.117975e-06	-1.637044e-08	-2.948922e+01	-1.073998e+03
2.840000e-06	-4.216853e-06	-1.723865e-08	-3.019730e+01	-1.130346e+03
2.850000e-06	-4.314378e-06	-1.803393e-08	-3.089569e+01	-1.182104e+03
2.860000e-06	-4.410460e-06	-1.876158e-08	-3.158374e+01	-1.229530e+03
2.870000e-06	-4.504921e-06	-1.942871e-08	-3.226018e+01	-1.272895e+03
2.880000e-06	-4.597691e-06	-2.003891e-08	-3.292452e+01	-1.312478e+03
2.890000e-06	-4.688878e-06	-2.059451e-08	-3.357752e+01	-1.348560e+03
2.900000e-06	-4.778475e-06	-2.109926e-08	-3.421913e+01	-1.381422e+03
2.910000e-06	-4.866349e-06	-2.155817e-08	-3.484841e+01	-1.411344e+03
2.920000e-06	-4.952319e-06	-2.197660e-08	-3.546404e+01	-1.438599e+03
2.930000e-06	-5.036409e-06	-2.235838e-08	-3.606623e+01	-1.463448e+03
2.940000e-06	-5.118792e-06	-2.270730e-08	-3.665618e+01	-1.486136e+03
