# Temperatura_=_94.06
# Concentracion g/m^3_=_26700.0
# C_Vs_to_Am_M_A/Vsm_=_65563218390.804596
# pendiente_HvsI_1/m_=_3716.3
# ordenada_HvsI_A/m_=_1297.0
# frecuencia_Hz_=_302192.8190226762

Tiempo_(s)	Campo_(V.s)	Magnetizacion_(V.s)	Campo_(kA/m)	Magnetizacion_(A/m)
0.000000e+00	-6.682784e-06	-2.497446e-08	-4.769946e+01	-1.634651e+03
1.000000e-08	-6.680510e-06	-2.496894e-08	-4.768323e+01	-1.634514e+03
2.000000e-08	-6.675973e-06	-2.496476e-08	-4.765084e+01	-1.634199e+03
3.000000e-08	-6.669396e-06	-2.496040e-08	-4.760390e+01	-1.633703e+03
4.000000e-08	-6.660617e-06	-2.495180e-08	-4.754124e+01	-1.633027e+03
5.000000e-08	-6.649384e-06	-2.493936e-08	-4.746106e+01	-1.632181e+03
6.000000e-08	-6.635698e-06	-2.492393e-08	-4.736338e+01	-1.631180e+03
7.000000e-08	-6.619619e-06	-2.490826e-08	-4.724861e+01	-1.630039e+03
8.000000e-08	-6.601327e-06	-2.489811e-08	-4.711805e+01	-1.628774e+03
9.000000e-08	-6.580965e-06	-2.489242e-08	-4.697271e+01	-1.627401e+03
1.000000e-07	-6.558152e-06	-2.485412e-08	-4.680987e+01	-1.625934e+03
1.100000e-07	-6.532539e-06	-2.482718e-08	-4.662706e+01	-1.624387e+03
1.200000e-07	-6.504410e-06	-2.479908e-08	-4.642629e+01	-1.622771e+03
1.300000e-07	-6.474245e-06	-2.475209e-08	-4.621097e+01	-1.621098e+03
1.400000e-07	-6.442248e-06	-2.471723e-08	-4.598260e+01	-1.619375e+03
1.500000e-07	-6.408372e-06	-2.472455e-08	-4.574080e+01	-1.617602e+03
1.600000e-07	-6.372509e-06	-2.466067e-08	-4.548482e+01	-1.615771e+03
1.700000e-07	-6.334642e-06	-2.459843e-08	-4.521454e+01	-1.613859e+03
1.800000e-07	-6.294750e-06	-2.460364e-08	-4.492980e+01	-1.611834e+03
1.900000e-07	-6.252466e-06	-2.451332e-08	-4.462799e+01	-1.609657e+03
2.000000e-07	-6.207713e-06	-2.450775e-08	-4.430856e+01	-1.607283e+03
2.100000e-07	-6.160776e-06	-2.448943e-08	-4.397354e+01	-1.604675e+03
2.200000e-07	-6.111334e-06	-2.441295e-08	-4.362064e+01	-1.601808e+03
2.300000e-07	-6.059245e-06	-2.440192e-08	-4.324885e+01	-1.598674e+03
2.400000e-07	-6.004812e-06	-2.432642e-08	-4.286033e+01	-1.595285e+03
2.500000e-07	-5.948108e-06	-2.425280e-08	-4.245559e+01	-1.591672e+03
2.600000e-07	-5.889082e-06	-2.421102e-08	-4.203428e+01	-1.587876e+03
2.700000e-07	-5.827865e-06	-2.414334e-08	-4.159733e+01	-1.583942e+03
2.800000e-07	-5.764661e-06	-2.408387e-08	-4.114621e+01	-1.579905e+03
2.900000e-07	-5.699324e-06	-2.402621e-08	-4.067985e+01	-1.575787e+03
3.000000e-07	-5.631705e-06	-2.397005e-08	-4.019721e+01	-1.571589e+03
3.100000e-07	-5.561960e-06	-2.388434e-08	-3.969939e+01	-1.567294e+03
3.200000e-07	-5.490252e-06	-2.381260e-08	-3.918757e+01	-1.562870e+03
3.300000e-07	-5.416521e-06	-2.375102e-08	-3.866130e+01	-1.558281e+03
3.400000e-07	-5.340539e-06	-2.367146e-08	-3.811897e+01	-1.553494e+03
3.500000e-07	-5.262371e-06	-2.361166e-08	-3.756103e+01	-1.548489e+03
3.600000e-07	-5.182103e-06	-2.352508e-08	-3.698810e+01	-1.543261e+03
3.700000e-07	-5.099881e-06	-2.343861e-08	-3.640123e+01	-1.537824e+03
3.800000e-07	-5.016038e-06	-2.335856e-08	-3.580279e+01	-1.532201e+03
3.900000e-07	-4.930604e-06	-2.326617e-08	-3.519299e+01	-1.526421e+03
4.000000e-07	-4.843547e-06	-2.317711e-08	-3.457160e+01	-1.520506e+03
4.100000e-07	-4.754890e-06	-2.308799e-08	-3.393880e+01	-1.514471e+03
4.200000e-07	-4.664492e-06	-2.299483e-08	-3.329357e+01	-1.508311e+03
4.300000e-07	-4.572436e-06	-2.288779e-08	-3.263651e+01	-1.502012e+03
4.400000e-07	-4.478843e-06	-2.278517e-08	-3.196847e+01	-1.495546e+03
4.500000e-07	-4.383742e-06	-2.268533e-08	-3.128967e+01	-1.488887e+03
4.600000e-07	-4.287025e-06	-2.257934e-08	-3.059934e+01	-1.482012e+03
4.700000e-07	-4.188535e-06	-2.247403e-08	-2.989635e+01	-1.474907e+03
4.800000e-07	-4.088506e-06	-2.236385e-08	-2.918238e+01	-1.467572e+03
4.900000e-07	-3.987134e-06	-2.225441e-08	-2.845882e+01	-1.460015e+03
5.000000e-07	-3.884363e-06	-2.213608e-08	-2.772527e+01	-1.452251e+03
5.100000e-07	-3.780241e-06	-2.200983e-08	-2.698208e+01	-1.444290e+03
5.200000e-07	-3.674718e-06	-2.188152e-08	-2.622890e+01	-1.436139e+03
5.300000e-07	-3.567688e-06	-2.174984e-08	-2.546496e+01	-1.427789e+03
5.400000e-07	-3.459358e-06	-2.161504e-08	-2.469173e+01	-1.419223e+03
5.500000e-07	-3.349878e-06	-2.147822e-08	-2.391030e+01	-1.410416e+03
5.600000e-07	-3.239242e-06	-2.134008e-08	-2.312062e+01	-1.401341e+03
5.700000e-07	-3.127396e-06	-2.119688e-08	-2.232230e+01	-1.391973e+03
5.800000e-07	-3.014180e-06	-2.105216e-08	-2.151420e+01	-1.382300e+03
5.900000e-07	-2.899597e-06	-2.090144e-08	-2.069634e+01	-1.372320e+03
6.000000e-07	-2.783800e-06	-2.074408e-08	-1.986982e+01	-1.362038e+03
6.100000e-07	-2.666863e-06	-2.058054e-08	-1.903517e+01	-1.351467e+03
6.200000e-07	-2.548973e-06	-2.041162e-08	-1.819371e+01	-1.340614e+03
6.300000e-07	-2.430268e-06	-2.023852e-08	-1.734644e+01	-1.329482e+03
6.400000e-07	-2.310716e-06	-2.006099e-08	-1.649311e+01	-1.318061e+03
6.500000e-07	-2.190330e-06	-1.988099e-08	-1.563384e+01	-1.306329e+03
6.600000e-07	-2.069104e-06	-1.969648e-08	-1.476856e+01	-1.294257e+03
6.700000e-07	-1.947027e-06	-1.950796e-08	-1.389722e+01	-1.281814e+03
6.800000e-07	-1.824205e-06	-1.931289e-08	-1.302056e+01	-1.268971e+03
6.900000e-07	-1.700746e-06	-1.911006e-08	-1.213935e+01	-1.255712e+03
7.000000e-07	-1.576718e-06	-1.889932e-08	-1.125408e+01	-1.242025e+03
7.100000e-07	-1.452195e-06	-1.868173e-08	-1.036528e+01	-1.227912e+03
7.200000e-07	-1.327194e-06	-1.846023e-08	-9.473062e+00	-1.213373e+03
7.300000e-07	-1.201775e-06	-1.823358e-08	-8.577863e+00	-1.198406e+03
7.400000e-07	-1.075991e-06	-1.800195e-08	-7.680059e+00	-1.182998e+03
7.500000e-07	-9.498750e-07	-1.776171e-08	-6.779887e+00	-1.167121e+03
7.600000e-07	-8.235159e-07	-1.751251e-08	-5.877979e+00	-1.150730e+03
7.700000e-07	-6.969697e-07	-1.725372e-08	-4.974735e+00	-1.133774e+03
7.800000e-07	-5.702040e-07	-1.698542e-08	-4.069924e+00	-1.116193e+03
7.900000e-07	-4.432746e-07	-1.670691e-08	-3.163944e+00	-1.097933e+03
8.000000e-07	-3.162541e-07	-1.641689e-08	-2.257315e+00	-1.078947e+03
8.100000e-07	-1.891116e-07	-1.611551e-08	-1.349815e+00	-1.059195e+03
8.200000e-07	-6.188382e-08	-1.580219e-08	-4.417058e-01	-1.038640e+03
8.300000e-07	6.540061e-08	-1.547795e-08	4.668075e-01	-1.017242e+03
8.400000e-07	1.926688e-07	-1.513799e-08	1.375205e+00	-9.949464e+02
8.500000e-07	3.198787e-07	-1.478097e-08	2.283186e+00	-9.716724e+02
8.600000e-07	4.470501e-07	-1.440663e-08	3.190893e+00	-9.473112e+02
8.700000e-07	5.740952e-07	-1.401510e-08	4.097698e+00	-9.217235e+02
8.800000e-07	7.009502e-07	-1.360392e-08	5.003146e+00	-8.947452e+02
8.900000e-07	8.275986e-07	-1.316873e-08	5.907119e+00	-8.661950e+02
9.000000e-07	9.540649e-07	-1.270714e-08	6.809794e+00	-8.358825e+02
9.100000e-07	1.080331e-06	-1.221564e-08	7.711041e+00	-8.036113e+02
9.200000e-07	1.206258e-06	-1.169247e-08	8.609860e+00	-7.691758e+02
9.300000e-07	1.331753e-06	-1.113413e-08	9.505607e+00	-7.323501e+02
9.400000e-07	1.456828e-06	-1.053553e-08	1.039835e+01	-6.928703e+02
9.500000e-07	1.581420e-06	-9.888646e-09	1.128765e+01	-6.504172e+02
9.600000e-07	1.705442e-06	-9.186081e-09	1.217287e+01	-6.046035e+02
9.700000e-07	1.828784e-06	-8.422738e-09	1.305324e+01	-5.549752e+02
9.800000e-07	1.951417e-06	-7.597026e-09	1.392856e+01	-5.010315e+02
9.900000e-07	2.073388e-06	-6.700482e-09	1.479915e+01	-4.422656e+02
1.000000e-06	2.194567e-06	-5.723663e-09	1.566408e+01	-3.782249e+02
1.010000e-06	2.314794e-06	-4.663385e-09	1.652222e+01	-3.085846e+02
1.020000e-06	2.434051e-06	-3.514452e-09	1.737343e+01	-2.332210e+02
1.030000e-06	2.552430e-06	-2.278000e-09	1.821839e+01	-1.522759e+02
1.040000e-06	2.669916e-06	-9.599519e-10	1.905696e+01	-6.619633e+01
1.050000e-06	2.786351e-06	4.235001e-10	1.988804e+01	2.425752e+01
1.060000e-06	2.901632e-06	1.855602e-09	2.071087e+01	1.180413e+02
1.070000e-06	3.015756e-06	3.317440e-09	2.152545e+01	2.138900e+02
1.080000e-06	3.128671e-06	4.787571e-09	2.233140e+01	3.104078e+02
1.090000e-06	3.240278e-06	6.245009e-09	2.312801e+01	4.061728e+02
1.100000e-06	3.350716e-06	7.669074e-09	2.391628e+01	4.998410e+02
1.110000e-06	3.460111e-06	9.042233e-09	2.469711e+01	5.902353e+02
1.120000e-06	3.568381e-06	1.034846e-08	2.546990e+01	6.764099e+02
1.130000e-06	3.675422e-06	1.158124e-08	2.623392e+01	7.576829e+02
1.140000e-06	3.781115e-06	1.273479e-08	2.698833e+01	8.336367e+02
1.150000e-06	3.885332e-06	1.380474e-08	2.773219e+01	9.040928e+02
1.160000e-06	3.988157e-06	1.479010e-08	2.846612e+01	9.690667e+02
1.170000e-06	4.089707e-06	1.569547e-08	2.919095e+01	1.028716e+03
1.180000e-06	4.189860e-06	1.652304e-08	2.990581e+01	1.083288e+03
1.190000e-06	4.288460e-06	1.727635e-08	3.060958e+01	1.133080e+03
1.200000e-06	4.385382e-06	1.796103e-08	3.130138e+01	1.178407e+03
1.210000e-06	4.480642e-06	1.858287e-08	3.198131e+01	1.219587e+03
1.220000e-06	4.574405e-06	1.914658e-08	3.265056e+01	1.256934e+03
1.230000e-06	4.666675e-06	1.965595e-08	3.330915e+01	1.290758e+03
1.240000e-06	4.757290e-06	2.011669e-08	3.395593e+01	1.321364e+03
1.250000e-06	4.846115e-06	2.053406e-08	3.458994e+01	1.349058e+03
1.260000e-06	4.933134e-06	2.091258e-08	3.521105e+01	1.374138e+03
1.270000e-06	5.018421e-06	2.125646e-08	3.581980e+01	1.396893e+03
1.280000e-06	5.102031e-06	2.157130e-08	3.641657e+01	1.417589e+03
1.290000e-06	5.183812e-06	2.185924e-08	3.700030e+01	1.436467e+03
1.300000e-06	5.263601e-06	2.212136e-08	3.756981e+01	1.453735e+03
1.310000e-06	5.341432e-06	2.236125e-08	3.812534e+01	1.469566e+03
1.320000e-06	5.417265e-06	2.258253e-08	3.866661e+01	1.484105e+03
1.330000e-06	5.491021e-06	2.278449e-08	3.919306e+01	1.497470e+03
1.340000e-06	5.562688e-06	2.296718e-08	3.970459e+01	1.509761e+03
1.350000e-06	5.632318e-06	2.313587e-08	4.020158e+01	1.521068e+03
1.360000e-06	5.699985e-06	2.329397e-08	4.068457e+01	1.531471e+03
1.370000e-06	5.765579e-06	2.344123e-08	4.115276e+01	1.541044e+03
1.380000e-06	5.829038e-06	2.357725e-08	4.160571e+01	1.549860e+03
1.390000e-06	5.890492e-06	2.370360e-08	4.204435e+01	1.557981e+03
1.400000e-06	5.949912e-06	2.382103e-08	4.246846e+01	1.565465e+03
1.410000e-06	6.007179e-06	2.392898e-08	4.287722e+01	1.572361e+03
1.420000e-06	6.062310e-06	2.402834e-08	4.327072e+01	1.578715e+03
1.430000e-06	6.115218e-06	2.411823e-08	4.364837e+01	1.584566e+03
1.440000e-06	6.165614e-06	2.419859e-08	4.400807e+01	1.589953e+03
1.450000e-06	6.213534e-06	2.427099e-08	4.435011e+01	1.594918e+03
1.460000e-06	6.259274e-06	2.433791e-08	4.467659e+01	1.599500e+03
1.470000e-06	6.302925e-06	2.440168e-08	4.498815e+01	1.603738e+03
1.480000e-06	6.344284e-06	2.446376e-08	4.528336e+01	1.607667e+03
1.490000e-06	6.383293e-06	2.452391e-08	4.556180e+01	1.611313e+03
1.500000e-06	6.420178e-06	2.457911e-08	4.582507e+01	1.614693e+03
1.510000e-06	6.454821e-06	2.462840e-08	4.607234e+01	1.617811e+03
1.520000e-06	6.487047e-06	2.467194e-08	4.630236e+01	1.620661e+03
1.530000e-06	6.516990e-06	2.470977e-08	4.651608e+01	1.623232e+03
1.540000e-06	6.544755e-06	2.474226e-08	4.671425e+01	1.625513e+03
1.550000e-06	6.570117e-06	2.476957e-08	4.689528e+01	1.627498e+03
1.560000e-06	6.592962e-06	2.479310e-08	4.705834e+01	1.629193e+03
1.570000e-06	6.613570e-06	2.481413e-08	4.720543e+01	1.630613e+03
1.580000e-06	6.631911e-06	2.483372e-08	4.733634e+01	1.631786e+03
1.590000e-06	6.647765e-06	2.485189e-08	4.744950e+01	1.632746e+03
1.600000e-06	6.661122e-06	2.486680e-08	4.754484e+01	1.633525e+03
1.610000e-06	6.671868e-06	2.487745e-08	4.762154e+01	1.634154e+03
1.620000e-06	6.679944e-06	2.488608e-08	4.767919e+01	1.634651e+03
1.630000e-06	6.685606e-06	2.489408e-08	4.771960e+01	1.635022e+03
1.640000e-06	6.688995e-06	2.489916e-08	4.774379e+01	1.635264e+03
1.650000e-06	6.689970e-06	2.489983e-08	4.775075e+01	1.635363e+03
1.660000e-06	6.688587e-06	2.489615e-08	4.774088e+01	1.635304e+03
1.670000e-06	6.685131e-06	2.489425e-08	4.771621e+01	1.635072e+03
1.680000e-06	6.679455e-06	2.488743e-08	4.767570e+01	1.634661e+03
1.690000e-06	6.671464e-06	2.487820e-08	4.761866e+01	1.634067e+03
1.700000e-06	6.661367e-06	2.486924e-08	4.754659e+01	1.633299e+03
1.710000e-06	6.649094e-06	2.485796e-08	4.745899e+01	1.632368e+03
1.720000e-06	6.634494e-06	2.484270e-08	4.735478e+01	1.631290e+03
1.730000e-06	6.617712e-06	2.480750e-08	4.723500e+01	1.630080e+03
1.740000e-06	6.598881e-06	2.477463e-08	4.710058e+01	1.628756e+03
1.750000e-06	6.577373e-06	2.477121e-08	4.694707e+01	1.627331e+03
1.760000e-06	6.552666e-06	2.473930e-08	4.677072e+01	1.625819e+03
1.770000e-06	6.525207e-06	2.471837e-08	4.657473e+01	1.624234e+03
1.780000e-06	6.495415e-06	2.473617e-08	4.636208e+01	1.622586e+03
1.790000e-06	6.463785e-06	2.467042e-08	4.613632e+01	1.620886e+03
1.800000e-06	6.430834e-06	2.463458e-08	4.590113e+01	1.619137e+03
1.810000e-06	6.396034e-06	2.467529e-08	4.565273e+01	1.617335e+03
1.820000e-06	6.358734e-06	2.460200e-08	4.538650e+01	1.615463e+03
1.830000e-06	6.319201e-06	2.464382e-08	4.510432e+01	1.613496e+03
1.840000e-06	6.277603e-06	2.463384e-08	4.480741e+01	1.611394e+03
1.850000e-06	6.233928e-06	2.450639e-08	4.449568e+01	1.609117e+03
1.860000e-06	6.188064e-06	2.453580e-08	4.416831e+01	1.606622e+03
1.870000e-06	6.139793e-06	2.444149e-08	4.382377e+01	1.603877e+03
1.880000e-06	6.089327e-06	2.439401e-08	4.346356e+01	1.600867e+03
1.890000e-06	6.036331e-06	2.439545e-08	4.308529e+01	1.597593e+03
1.900000e-06	5.980722e-06	2.429961e-08	4.268838e+01	1.594080e+03
1.910000e-06	5.922905e-06	2.430106e-08	4.227570e+01	1.590363e+03
1.920000e-06	5.862863e-06	2.421654e-08	4.184714e+01	1.586488e+03
1.930000e-06	5.800620e-06	2.413159e-08	4.140287e+01	1.582495e+03
1.940000e-06	5.736212e-06	2.408711e-08	4.094314e+01	1.578413e+03
1.950000e-06	5.669699e-06	2.400948e-08	4.046840e+01	1.574254e+03
1.960000e-06	5.601077e-06	2.398771e-08	3.997860e+01	1.570007e+03
1.970000e-06	5.530192e-06	2.388271e-08	3.947265e+01	1.565647e+03
1.980000e-06	5.457212e-06	2.383131e-08	3.895174e+01	1.561140e+03
1.990000e-06	5.382219e-06	2.376214e-08	3.841647e+01	1.556448e+03
2.000000e-06	5.305098e-06	2.366746e-08	3.786600e+01	1.551545e+03
2.010000e-06	5.225858e-06	2.360969e-08	3.730041e+01	1.546421e+03
2.020000e-06	5.144706e-06	2.350593e-08	3.672117e+01	1.541078e+03
2.030000e-06	5.061892e-06	2.344916e-08	3.613008e+01	1.535538e+03
2.040000e-06	4.977276e-06	2.334943e-08	3.552612e+01	1.529828e+03
2.050000e-06	4.890691e-06	2.325333e-08	3.490811e+01	1.523973e+03
2.060000e-06	4.802322e-06	2.316392e-08	3.427735e+01	1.517993e+03
2.070000e-06	4.712391e-06	2.307339e-08	3.363546e+01	1.511892e+03
2.080000e-06	4.620961e-06	2.298933e-08	3.298286e+01	1.505661e+03
2.090000e-06	4.527871e-06	2.288216e-08	3.231842e+01	1.499276e+03
2.100000e-06	4.433051e-06	2.279468e-08	3.164162e+01	1.492710e+03
2.110000e-06	4.336696e-06	2.268627e-08	3.095387e+01	1.485938e+03
2.120000e-06	4.238957e-06	2.258087e-08	3.025625e+01	1.478940e+03
2.130000e-06	4.139853e-06	2.246304e-08	2.954888e+01	1.471711e+03
2.140000e-06	4.039269e-06	2.234880e-08	2.883094e+01	1.464256e+03
2.150000e-06	3.936993e-06	2.223715e-08	2.810093e+01	1.456586e+03
2.160000e-06	3.833145e-06	2.211733e-08	2.735969e+01	1.448715e+03
2.170000e-06	3.727961e-06	2.199787e-08	2.660893e+01	1.440653e+03
2.180000e-06	3.621507e-06	2.187027e-08	2.584910e+01	1.432396e+03
2.190000e-06	3.513868e-06	2.174638e-08	2.508080e+01	1.423934e+03
2.200000e-06	3.404994e-06	2.161392e-08	2.430370e+01	1.415242e+03
2.210000e-06	3.294773e-06	2.148388e-08	2.351698e+01	1.406295e+03
2.220000e-06	3.183182e-06	2.134313e-08	2.272048e+01	1.397065e+03
2.230000e-06	3.070375e-06	2.119695e-08	2.191530e+01	1.387535e+03
2.240000e-06	2.956428e-06	2.104303e-08	2.110199e+01	1.377697e+03
2.250000e-06	2.841385e-06	2.088717e-08	2.028085e+01	1.367554e+03
2.260000e-06	2.725169e-06	2.073129e-08	1.945134e+01	1.357116e+03
2.270000e-06	2.607647e-06	2.057227e-08	1.861250e+01	1.346393e+03
2.280000e-06	2.488968e-06	2.040843e-08	1.776542e+01	1.335391e+03
2.290000e-06	2.369342e-06	2.023723e-08	1.691156e+01	1.324106e+03
2.300000e-06	2.248857e-06	2.006272e-08	1.605158e+01	1.312521e+03
2.310000e-06	2.127632e-06	1.987979e-08	1.518632e+01	1.300611e+03
2.320000e-06	2.005785e-06	1.969204e-08	1.431662e+01	1.288344e+03
2.330000e-06	1.883330e-06	1.949774e-08	1.344257e+01	1.275690e+03
2.340000e-06	1.760286e-06	1.930001e-08	1.256433e+01	1.262626e+03
2.350000e-06	1.636693e-06	1.909743e-08	1.168216e+01	1.249138e+03
2.360000e-06	1.512545e-06	1.888770e-08	1.079603e+01	1.235223e+03
2.370000e-06	1.387801e-06	1.866733e-08	9.905658e+00	1.220882e+03
2.380000e-06	1.262547e-06	1.843974e-08	9.011632e+00	1.206115e+03
2.390000e-06	1.136847e-06	1.820793e-08	8.114430e+00	1.190914e+03
2.400000e-06	1.010743e-06	1.796898e-08	7.214344e+00	1.175259e+03
2.410000e-06	8.842864e-07	1.772402e-08	6.311738e+00	1.159113e+03
2.420000e-06	7.575259e-07	1.746782e-08	5.406964e+00	1.142426e+03
2.430000e-06	6.305018e-07	1.719933e-08	4.500309e+00	1.125142e+03
2.440000e-06	5.032641e-07	1.692034e-08	3.592130e+00	1.107204e+03
2.450000e-06	3.758476e-07	1.663352e-08	2.682673e+00	1.088561e+03
2.460000e-06	2.482794e-07	1.634190e-08	1.772135e+00	1.069169e+03
2.470000e-06	1.205795e-07	1.604044e-08	8.606558e-01	1.048991e+03
2.480000e-06	-7.250439e-09	1.572532e-08	-5.175119e-02	1.027991e+03
2.490000e-06	-1.351214e-07	1.539277e-08	-9.644510e-01	1.006120e+03
2.500000e-06	-2.629114e-07	1.504225e-08	-1.876573e+00	9.833118e+02
2.510000e-06	-3.906267e-07	1.467605e-08	-2.788162e+00	9.594709e+02
2.520000e-06	-5.182429e-07	1.429252e-08	-3.699043e+00	9.344717e+02
2.530000e-06	-6.456897e-07	1.388995e-08	-4.608715e+00	9.081607e+02
2.540000e-06	-7.729306e-07	1.346460e-08	-5.516918e+00	8.803636e+02
2.550000e-06	-8.998683e-07	1.301595e-08	-6.422956e+00	8.508934e+02
2.560000e-06	-1.026501e-06	1.254063e-08	-7.326816e+00	8.195564e+02
2.570000e-06	-1.152802e-06	1.203180e-08	-8.228310e+00	7.861524e+02
2.580000e-06	-1.278697e-06	1.148800e-08	-9.126904e+00	7.504665e+02
2.590000e-06	-1.404104e-06	1.090456e-08	-1.002202e+01	7.122549e+02
2.600000e-06	-1.528922e-06	1.027738e-08	-1.091293e+01	6.712261e+02
2.610000e-06	-1.653028e-06	9.602303e-09	-1.179876e+01	6.270253e+02
2.620000e-06	-1.776406e-06	8.872114e-09	-1.267939e+01	5.792283e+02
2.630000e-06	-1.899134e-06	8.079810e-09	-1.355538e+01	5.273521e+02
2.640000e-06	-2.021234e-06	7.218843e-09	-1.442688e+01	4.708862e+02
2.650000e-06	-2.142663e-06	6.282137e-09	-1.529360e+01	4.093445e+02
2.660000e-06	-2.263260e-06	5.263795e-09	-1.615439e+01	3.423332e+02
2.670000e-06	-2.382968e-06	4.159500e-09	-1.700882e+01	2.696266e+02
2.680000e-06	-2.501800e-06	2.968584e-09	-1.785701e+01	1.912365e+02
2.690000e-06	-2.619687e-06	1.693091e-09	-1.869844e+01	1.074650e+02
2.700000e-06	-2.736481e-06	3.428299e-10	-1.953208e+01	1.892835e+01
2.710000e-06	-2.852011e-06	-1.066418e-09	-2.035670e+01	-7.345517e+01
2.720000e-06	-2.966346e-06	-2.516919e-09	-2.117278e+01	-1.685131e+02
2.730000e-06	-3.079513e-06	-3.988661e-09	-2.198053e+01	-2.648979e+02
2.740000e-06	-3.191415e-06	-5.460567e-09	-2.277925e+01	-3.611867e+02
2.750000e-06	-3.302040e-06	-6.911444e-09	-2.356885e+01	-4.559868e+02
2.760000e-06	-3.411433e-06	-8.320726e-09	-2.434966e+01	-5.480339e+02
2.770000e-06	-3.519708e-06	-9.670124e-09	-2.512249e+01	-6.362688e+02
2.780000e-06	-3.626914e-06	-1.094959e-08	-2.588769e+01	-7.198851e+02
2.790000e-06	-3.732988e-06	-1.215143e-08	-2.664481e+01	-7.983444e+02
2.800000e-06	-3.837794e-06	-1.326991e-08	-2.739288e+01	-8.713617e+02
2.810000e-06	-3.941236e-06	-1.430533e-08	-2.813122e+01	-9.388687e+02
2.820000e-06	-4.043250e-06	-1.525950e-08	-2.885935e+01	-1.000963e+03
2.830000e-06	-4.143696e-06	-1.613521e-08	-2.957631e+01	-1.057858e+03
2.840000e-06	-4.242647e-06	-1.693548e-08	-3.028259e+01	-1.109830e+03
2.850000e-06	-4.340235e-06	-1.766290e-08	-3.097913e+01	-1.157191e+03
2.860000e-06	-4.436372e-06	-1.832438e-08	-3.166533e+01	-1.200257e+03
2.870000e-06	-4.530930e-06	-1.892623e-08	-3.234025e+01	-1.239346e+03
2.880000e-06	-4.623792e-06	-1.947295e-08	-3.300307e+01	-1.274767e+03
2.890000e-06	-4.715013e-06	-1.996687e-08	-3.365417e+01	-1.306828e+03
2.900000e-06	-4.804622e-06	-2.041273e-08	-3.429377e+01	-1.335837e+03
2.910000e-06	-4.892475e-06	-2.081672e-08	-3.492083e+01	-1.362094e+03
2.920000e-06	-4.978466e-06	-2.118426e-08	-3.553461e+01	-1.385894e+03
2.930000e-06	-5.062612e-06	-2.151715e-08	-3.613522e+01	-1.407514e+03
2.940000e-06	-5.145003e-06	-2.181906e-08	-3.672330e+01	-1.427208e+03
