# Temperatura_=_56.01
# Concentracion g/m^3_=_26700.0
# C_Vs_to_Am_M_A/Vsm_=_65563218390.804596
# pendiente_HvsI_1/m_=_3716.3
# ordenada_HvsI_A/m_=_1297.0
# frecuencia_Hz_=_302195.58625190554

Tiempo_(s)	Campo_(V.s)	Magnetizacion_(V.s)	Campo_(kA/m)	Magnetizacion_(A/m)
0.000000e+00	-6.638997e-06	-2.601892e-08	-4.770416e+01	-1.701841e+03
1.000000e-08	-6.637120e-06	-2.601841e-08	-4.769067e+01	-1.701802e+03
2.000000e-08	-6.632923e-06	-2.601299e-08	-4.766051e+01	-1.701604e+03
3.000000e-08	-6.626652e-06	-2.600540e-08	-4.761545e+01	-1.701226e+03
4.000000e-08	-6.618258e-06	-2.599524e-08	-4.755514e+01	-1.700649e+03
5.000000e-08	-6.607547e-06	-2.598039e-08	-4.747818e+01	-1.699856e+03
6.000000e-08	-6.594351e-06	-2.596422e-08	-4.738336e+01	-1.698843e+03
7.000000e-08	-6.578726e-06	-2.594295e-08	-4.727109e+01	-1.697616e+03
8.000000e-08	-6.560876e-06	-2.591761e-08	-4.714282e+01	-1.696201e+03
9.000000e-08	-6.541011e-06	-2.591382e-08	-4.700009e+01	-1.694632e+03
1.000000e-07	-6.518784e-06	-2.592157e-08	-4.684037e+01	-1.692953e+03
1.100000e-07	-6.493746e-06	-2.587879e-08	-4.666046e+01	-1.691208e+03
1.200000e-07	-6.466127e-06	-2.582489e-08	-4.646201e+01	-1.689431e+03
1.300000e-07	-6.436441e-06	-2.579047e-08	-4.624871e+01	-1.687644e+03
1.400000e-07	-6.404972e-06	-2.572928e-08	-4.602258e+01	-1.685845e+03
1.500000e-07	-6.371639e-06	-2.566877e-08	-4.578307e+01	-1.684015e+03
1.600000e-07	-6.336347e-06	-2.570989e-08	-4.552948e+01	-1.682117e+03
1.700000e-07	-6.299071e-06	-2.566824e-08	-4.526164e+01	-1.680099e+03
1.800000e-07	-6.259803e-06	-2.559752e-08	-4.497948e+01	-1.677908e+03
1.900000e-07	-6.218224e-06	-2.561277e-08	-4.468072e+01	-1.675497e+03
2.000000e-07	-6.174170e-06	-2.551405e-08	-4.436417e+01	-1.672829e+03
2.100000e-07	-6.127945e-06	-2.544716e-08	-4.403202e+01	-1.669888e+03
2.200000e-07	-6.079323e-06	-2.540549e-08	-4.368265e+01	-1.666678e+03
2.300000e-07	-6.028062e-06	-2.532936e-08	-4.331432e+01	-1.663218e+03
2.400000e-07	-5.974361e-06	-2.530116e-08	-4.292845e+01	-1.659543e+03
2.500000e-07	-5.918349e-06	-2.524230e-08	-4.252598e+01	-1.655690e+03
2.600000e-07	-5.860064e-06	-2.519340e-08	-4.210718e+01	-1.651693e+03
2.700000e-07	-5.799597e-06	-2.514913e-08	-4.167269e+01	-1.647579e+03
2.800000e-07	-5.737102e-06	-2.505986e-08	-4.122364e+01	-1.643357e+03
2.900000e-07	-5.672588e-06	-2.498959e-08	-4.076008e+01	-1.639023e+03
3.000000e-07	-5.605823e-06	-2.492503e-08	-4.028034e+01	-1.634562e+03
3.100000e-07	-5.536894e-06	-2.485756e-08	-3.978505e+01	-1.629948e+03
3.200000e-07	-5.466027e-06	-2.477433e-08	-3.927584e+01	-1.625156e+03
3.300000e-07	-5.393166e-06	-2.470646e-08	-3.875231e+01	-1.620163e+03
3.400000e-07	-5.318103e-06	-2.462886e-08	-3.821294e+01	-1.614956e+03
3.500000e-07	-5.240817e-06	-2.452687e-08	-3.765761e+01	-1.609533e+03
3.600000e-07	-5.161333e-06	-2.445651e-08	-3.708649e+01	-1.603900e+03
3.700000e-07	-5.079855e-06	-2.437164e-08	-3.650103e+01	-1.598073e+03
3.800000e-07	-4.996748e-06	-2.427616e-08	-3.590387e+01	-1.592067e+03
3.900000e-07	-4.912061e-06	-2.418134e-08	-3.529535e+01	-1.585896e+03
4.000000e-07	-4.825800e-06	-2.407967e-08	-3.467553e+01	-1.579568e+03
4.100000e-07	-4.737995e-06	-2.397331e-08	-3.404461e+01	-1.573080e+03
4.200000e-07	-4.648520e-06	-2.386535e-08	-3.340169e+01	-1.566426e+03
4.300000e-07	-4.557348e-06	-2.376881e-08	-3.274658e+01	-1.559590e+03
4.400000e-07	-4.464618e-06	-2.366731e-08	-3.208027e+01	-1.552555e+03
4.500000e-07	-4.370328e-06	-2.355975e-08	-3.140275e+01	-1.545309e+03
4.600000e-07	-4.274431e-06	-2.344700e-08	-3.071370e+01	-1.537839e+03
4.700000e-07	-4.176925e-06	-2.332567e-08	-3.001307e+01	-1.530142e+03
4.800000e-07	-4.077859e-06	-2.319882e-08	-2.930124e+01	-1.522219e+03
4.900000e-07	-3.977391e-06	-2.307034e-08	-2.857933e+01	-1.514074e+03
5.000000e-07	-3.875527e-06	-2.294514e-08	-2.784739e+01	-1.505708e+03
5.100000e-07	-3.772276e-06	-2.281302e-08	-2.710549e+01	-1.497122e+03
5.200000e-07	-3.667710e-06	-2.267525e-08	-2.635413e+01	-1.488310e+03
5.300000e-07	-3.561689e-06	-2.253471e-08	-2.559232e+01	-1.479258e+03
5.400000e-07	-3.454253e-06	-2.238973e-08	-2.482035e+01	-1.469950e+03
5.500000e-07	-3.345635e-06	-2.224315e-08	-2.403988e+01	-1.460364e+03
5.600000e-07	-3.235879e-06	-2.209624e-08	-2.325124e+01	-1.450482e+03
5.700000e-07	-3.124935e-06	-2.194466e-08	-2.245405e+01	-1.440291e+03
5.800000e-07	-3.012772e-06	-2.178211e-08	-2.164811e+01	-1.429781e+03
5.900000e-07	-2.899388e-06	-2.160994e-08	-2.083339e+01	-1.418953e+03
6.000000e-07	-2.784707e-06	-2.143129e-08	-2.000936e+01	-1.407809e+03
6.100000e-07	-2.668781e-06	-2.124992e-08	-1.917638e+01	-1.396358e+03
6.200000e-07	-2.551853e-06	-2.106819e-08	-1.833621e+01	-1.384602e+03
6.300000e-07	-2.433987e-06	-2.088721e-08	-1.748928e+01	-1.372542e+03
6.400000e-07	-2.315240e-06	-2.070291e-08	-1.663603e+01	-1.360172e+03
6.500000e-07	-2.195738e-06	-2.050986e-08	-1.577735e+01	-1.347475e+03
6.600000e-07	-2.075518e-06	-2.030965e-08	-1.491352e+01	-1.334433e+03
6.700000e-07	-1.954599e-06	-2.010228e-08	-1.404467e+01	-1.321021e+03
6.800000e-07	-1.832902e-06	-1.988916e-08	-1.317022e+01	-1.307216e+03
6.900000e-07	-1.710421e-06	-1.967124e-08	-1.229014e+01	-1.292997e+03
7.000000e-07	-1.587275e-06	-1.944888e-08	-1.140528e+01	-1.278348e+03
7.100000e-07	-1.463548e-06	-1.921960e-08	-1.051625e+01	-1.263254e+03
7.200000e-07	-1.339345e-06	-1.898047e-08	-9.623791e+00	-1.247706e+03
7.300000e-07	-1.214754e-06	-1.873439e-08	-8.728552e+00	-1.231688e+03
7.400000e-07	-1.089872e-06	-1.848196e-08	-7.831220e+00	-1.215186e+03
7.500000e-07	-9.647258e-07	-1.822415e-08	-6.931986e+00	-1.198173e+03
7.600000e-07	-8.393004e-07	-1.796107e-08	-6.030748e+00	-1.180620e+03
7.700000e-07	-7.136309e-07	-1.768969e-08	-5.127757e+00	-1.162488e+03
7.800000e-07	-5.876738e-07	-1.740476e-08	-4.222699e+00	-1.143736e+03
7.900000e-07	-4.615138e-07	-1.710524e-08	-3.316183e+00	-1.124321e+03
8.000000e-07	-3.352378e-07	-1.679348e-08	-2.408833e+00	-1.104203e+03
8.100000e-07	-2.087752e-07	-1.647155e-08	-1.500143e+00	-1.083341e+03
8.200000e-07	-8.212021e-08	-1.614214e-08	-5.900703e-01	-1.061698e+03
8.300000e-07	4.466430e-08	-1.580308e-08	3.209329e-01	-1.039231e+03
8.400000e-07	1.714260e-07	-1.545065e-08	1.231772e+00	-1.015891e+03
8.500000e-07	2.981081e-07	-1.508125e-08	2.142040e+00	-9.916133e+02
8.600000e-07	4.246780e-07	-1.469283e-08	3.051501e+00	-9.663179e+02
8.700000e-07	5.510940e-07	-1.428749e-08	3.959856e+00	-9.399036e+02
8.800000e-07	6.773396e-07	-1.386571e-08	4.866988e+00	-9.122503e+02
8.900000e-07	8.033490e-07	-1.342378e-08	5.772421e+00	-8.832212e+02
9.000000e-07	9.290240e-07	-1.295845e-08	6.675452e+00	-8.526671e+02
9.100000e-07	1.054367e-06	-1.246742e-08	7.576097e+00	-8.204296e+02
9.200000e-07	1.179436e-06	-1.194708e-08	8.474778e+00	-7.863424e+02
9.300000e-07	1.304215e-06	-1.139682e-08	9.371370e+00	-7.502296e+02
9.400000e-07	1.428677e-06	-1.081524e-08	1.026568e+01	-7.119005e+02
9.500000e-07	1.552660e-06	-1.019664e-08	1.115655e+01	-6.711422e+02
9.600000e-07	1.676044e-06	-9.535494e-09	1.204313e+01	-6.277125e+02
9.700000e-07	1.798739e-06	-8.828809e-09	1.292474e+01	-5.813366e+02
9.800000e-07	1.920602e-06	-8.071000e-09	1.380039e+01	-5.317100e+02
9.900000e-07	2.041627e-06	-7.255337e-09	1.467000e+01	-4.785117e+02
1.000000e-06	2.161905e-06	-6.378948e-09	1.553426e+01	-4.214273e+02
1.010000e-06	2.281442e-06	-5.440334e-09	1.639318e+01	-3.601826e+02
1.020000e-06	2.400137e-06	-4.439754e-09	1.724606e+01	-2.945830e+02
1.030000e-06	2.517864e-06	-3.372995e-09	1.809198e+01	-2.245554e+02
1.040000e-06	2.634659e-06	-2.238719e-09	1.893120e+01	-1.501851e+02
1.050000e-06	2.750488e-06	-1.043364e-09	1.976349e+01	-7.174212e+01
1.060000e-06	2.865100e-06	2.086927e-10	2.058702e+01	1.030806e+01
1.070000e-06	2.978388e-06	1.507436e-09	2.140105e+01	9.531271e+01
1.080000e-06	3.090508e-06	2.838930e-09	2.220668e+01	1.824592e+02
1.090000e-06	3.201596e-06	4.187278e-09	2.300490e+01	2.708187e+02
1.100000e-06	3.311579e-06	5.537220e-09	2.379517e+01	3.594018e+02
1.110000e-06	3.420461e-06	6.874081e-09	2.457754e+01	4.472184e+02
1.120000e-06	3.528289e-06	8.184041e-09	2.535233e+01	5.333356e+02
1.130000e-06	3.634829e-06	9.453240e-09	2.611787e+01	6.169260e+02
1.140000e-06	3.739942e-06	1.067142e-08	2.687315e+01	6.973034e+02
1.150000e-06	3.843680e-06	1.183281e-08	2.761856e+01	7.739410e+02
1.160000e-06	3.946020e-06	1.293349e-08	2.835391e+01	8.464746e+02
1.170000e-06	4.047048e-06	1.397013e-08	2.907985e+01	9.146912e+02
1.180000e-06	4.146826e-06	1.494099e-08	2.979680e+01	9.785080e+02
1.190000e-06	4.245044e-06	1.584504e-08	3.050254e+01	1.037947e+03
1.200000e-06	4.341523e-06	1.668233e-08	3.119578e+01	1.093108e+03
1.210000e-06	4.436389e-06	1.745400e-08	3.187743e+01	1.144143e+03
1.220000e-06	4.529741e-06	1.816325e-08	3.254821e+01	1.191241e+03
1.230000e-06	4.621661e-06	1.881737e-08	3.320870e+01	1.234610e+03
1.240000e-06	4.711941e-06	1.941924e-08	3.385740e+01	1.274471e+03
1.250000e-06	4.800384e-06	1.997170e-08	3.449290e+01	1.311051e+03
1.260000e-06	4.887056e-06	2.047769e-08	3.511568e+01	1.344584e+03
1.270000e-06	4.972062e-06	2.094143e-08	3.572649e+01	1.375303e+03
1.280000e-06	5.055467e-06	2.136762e-08	3.632579e+01	1.403440e+03
1.290000e-06	5.137034e-06	2.175989e-08	3.691189e+01	1.429221e+03
1.300000e-06	5.216596e-06	2.211984e-08	3.748357e+01	1.452864e+03
1.310000e-06	5.294240e-06	2.244934e-08	3.804148e+01	1.474570e+03
1.320000e-06	5.369901e-06	2.275177e-08	3.858513e+01	1.494524e+03
1.330000e-06	5.443396e-06	2.302856e-08	3.911323e+01	1.512891e+03
1.340000e-06	5.514783e-06	2.328193e-08	3.962618e+01	1.529817e+03
1.350000e-06	5.584239e-06	2.351660e-08	4.012525e+01	1.545427e+03
1.360000e-06	5.651825e-06	2.373452e-08	4.061089e+01	1.559830e+03
1.370000e-06	5.717340e-06	2.393583e-08	4.108164e+01	1.573123e+03
1.380000e-06	5.780661e-06	2.412116e-08	4.153663e+01	1.585390e+03
1.390000e-06	5.842009e-06	2.429171e-08	4.197745e+01	1.596704e+03
1.400000e-06	5.901444e-06	2.444935e-08	4.240451e+01	1.607135e+03
1.410000e-06	5.958745e-06	2.459683e-08	4.281624e+01	1.616743e+03
1.420000e-06	6.013877e-06	2.473484e-08	4.321239e+01	1.625584e+03
1.430000e-06	6.066775e-06	2.486148e-08	4.359249e+01	1.633709e+03
1.440000e-06	6.117159e-06	2.497536e-08	4.395452e+01	1.641168e+03
1.450000e-06	6.165085e-06	2.507759e-08	4.429889e+01	1.648007e+03
1.460000e-06	6.210797e-06	2.516968e-08	4.462735e+01	1.654270e+03
1.470000e-06	6.254423e-06	2.525415e-08	4.494082e+01	1.660002e+03
1.480000e-06	6.295790e-06	2.533312e-08	4.523806e+01	1.665247e+03
1.490000e-06	6.334838e-06	2.540678e-08	4.551864e+01	1.670046e+03
1.500000e-06	6.371752e-06	2.547515e-08	4.578389e+01	1.674437e+03
1.510000e-06	6.406480e-06	2.553801e-08	4.603342e+01	1.678454e+03
1.520000e-06	6.438842e-06	2.559552e-08	4.626595e+01	1.682121e+03
1.530000e-06	6.468934e-06	2.564828e-08	4.648218e+01	1.685457e+03
1.540000e-06	6.496949e-06	2.569556e-08	4.668348e+01	1.688469e+03
1.550000e-06	6.522603e-06	2.573507e-08	4.686781e+01	1.691162e+03
1.560000e-06	6.545674e-06	2.576796e-08	4.703359e+01	1.693536e+03
1.570000e-06	6.566467e-06	2.579616e-08	4.718300e+01	1.695593e+03
1.580000e-06	6.585024e-06	2.582156e-08	4.731634e+01	1.697337e+03
1.590000e-06	6.601144e-06	2.584518e-08	4.743217e+01	1.698780e+03
1.600000e-06	6.614816e-06	2.586425e-08	4.753041e+01	1.699944e+03
1.610000e-06	6.625911e-06	2.587804e-08	4.761013e+01	1.700853e+03
1.620000e-06	6.634350e-06	2.588913e-08	4.767077e+01	1.701540e+03
1.630000e-06	6.640345e-06	2.589987e-08	4.771384e+01	1.702034e+03
1.640000e-06	6.644108e-06	2.590738e-08	4.774088e+01	1.702362e+03
1.650000e-06	6.645481e-06	2.591013e-08	4.775075e+01	1.702539e+03
1.660000e-06	6.644451e-06	2.590935e-08	4.774335e+01	1.702570e+03
1.670000e-06	6.641341e-06	2.590453e-08	4.772100e+01	1.702448e+03
1.680000e-06	6.636053e-06	2.590034e-08	4.768301e+01	1.702156e+03
1.690000e-06	6.628462e-06	2.589311e-08	4.762846e+01	1.701674e+03
1.700000e-06	6.618733e-06	2.588464e-08	4.755855e+01	1.700983e+03
1.710000e-06	6.606917e-06	2.587589e-08	4.747365e+01	1.700072e+03
1.720000e-06	6.592719e-06	2.586549e-08	4.737163e+01	1.698942e+03
1.730000e-06	6.576223e-06	2.585528e-08	4.725310e+01	1.697611e+03
1.740000e-06	6.557778e-06	2.580172e-08	4.712056e+01	1.696108e+03
1.750000e-06	6.536897e-06	2.574536e-08	4.697053e+01	1.694475e+03
1.760000e-06	6.512848e-06	2.574606e-08	4.679772e+01	1.692755e+03
1.770000e-06	6.485924e-06	2.573070e-08	4.660426e+01	1.690990e+03
1.780000e-06	6.456725e-06	2.571065e-08	4.639445e+01	1.689206e+03
1.790000e-06	6.425541e-06	2.574366e-08	4.617038e+01	1.687414e+03
1.800000e-06	6.392999e-06	2.567269e-08	4.593655e+01	1.685602e+03
1.810000e-06	6.358840e-06	2.560967e-08	4.569110e+01	1.683741e+03
1.820000e-06	6.322292e-06	2.564454e-08	4.542849e+01	1.681786e+03
1.830000e-06	6.283485e-06	2.555429e-08	4.514964e+01	1.679682e+03
1.840000e-06	6.242478e-06	2.557230e-08	4.485499e+01	1.677378e+03
1.850000e-06	6.199296e-06	2.558899e-08	4.454471e+01	1.674833e+03
1.860000e-06	6.154064e-06	2.548708e-08	4.421970e+01	1.672020e+03
1.870000e-06	6.106506e-06	2.550337e-08	4.387797e+01	1.668933e+03
1.880000e-06	6.056702e-06	2.540791e-08	4.352011e+01	1.665586e+03
1.890000e-06	6.004513e-06	2.533817e-08	4.314511e+01	1.662006e+03
1.900000e-06	5.949642e-06	2.530806e-08	4.275084e+01	1.658231e+03
1.910000e-06	5.892483e-06	2.519682e-08	4.234012e+01	1.654297e+03
1.920000e-06	5.833178e-06	2.520097e-08	4.191399e+01	1.650235e+03
1.930000e-06	5.771809e-06	2.512337e-08	4.147302e+01	1.646062e+03
1.940000e-06	5.708339e-06	2.504656e-08	4.101696e+01	1.641782e+03
1.950000e-06	5.642626e-06	2.499738e-08	4.054479e+01	1.637383e+03
1.960000e-06	5.574861e-06	2.489200e-08	4.005786e+01	1.632843e+03
1.970000e-06	5.504844e-06	2.484685e-08	3.955476e+01	1.628137e+03
1.980000e-06	5.432615e-06	2.474311e-08	3.903577e+01	1.623239e+03
1.990000e-06	5.358413e-06	2.468903e-08	3.850259e+01	1.618133e+03
2.000000e-06	5.282163e-06	2.461644e-08	3.795470e+01	1.612810e+03
2.010000e-06	5.203778e-06	2.451364e-08	3.739147e+01	1.607273e+03
2.020000e-06	5.123371e-06	2.444878e-08	3.681371e+01	1.601535e+03
2.030000e-06	5.041209e-06	2.433797e-08	3.622333e+01	1.595610e+03
2.040000e-06	4.957323e-06	2.426337e-08	3.562058e+01	1.589514e+03
2.050000e-06	4.871672e-06	2.416219e-08	3.500514e+01	1.583258e+03
2.060000e-06	4.784124e-06	2.406959e-08	3.437607e+01	1.576845e+03
2.070000e-06	4.694929e-06	2.397087e-08	3.373516e+01	1.570270e+03
2.080000e-06	4.604301e-06	2.385827e-08	3.308396e+01	1.563520e+03
2.090000e-06	4.512099e-06	2.375679e-08	3.242144e+01	1.556580e+03
2.100000e-06	4.418288e-06	2.363545e-08	3.174737e+01	1.549433e+03
2.110000e-06	4.322809e-06	2.353297e-08	3.106131e+01	1.542068e+03
2.120000e-06	4.225841e-06	2.341893e-08	3.036456e+01	1.534477e+03
2.130000e-06	4.127546e-06	2.330942e-08	2.965826e+01	1.526659e+03
2.140000e-06	4.027854e-06	2.318455e-08	2.894193e+01	1.518616e+03
2.150000e-06	3.926617e-06	2.305673e-08	2.821450e+01	1.510352e+03
2.160000e-06	3.823767e-06	2.293032e-08	2.747547e+01	1.501869e+03
2.170000e-06	3.719444e-06	2.279609e-08	2.672587e+01	1.493163e+03
2.180000e-06	3.613862e-06	2.266359e-08	2.596721e+01	1.484225e+03
2.190000e-06	3.507063e-06	2.252326e-08	2.519981e+01	1.475038e+03
2.200000e-06	3.398997e-06	2.238201e-08	2.442331e+01	1.465583e+03
2.210000e-06	3.289730e-06	2.222925e-08	2.363818e+01	1.455841e+03
2.220000e-06	3.179178e-06	2.207724e-08	2.284381e+01	1.445795e+03
2.230000e-06	3.067378e-06	2.192339e-08	2.204048e+01	1.435434e+03
2.240000e-06	2.954447e-06	2.176778e-08	2.122902e+01	1.424753e+03
2.250000e-06	2.840367e-06	2.160416e-08	2.040930e+01	1.413755e+03
2.260000e-06	2.725111e-06	2.143503e-08	1.958114e+01	1.402446e+03
2.270000e-06	2.608758e-06	2.125721e-08	1.874509e+01	1.390831e+03
2.280000e-06	2.491310e-06	2.107318e-08	1.790118e+01	1.378913e+03
2.290000e-06	2.372688e-06	2.088824e-08	1.704882e+01	1.366689e+03
2.300000e-06	2.253134e-06	2.069803e-08	1.618977e+01	1.354146e+03
2.310000e-06	2.132785e-06	2.050440e-08	1.532501e+01	1.341267e+03
2.320000e-06	2.011686e-06	2.030361e-08	1.445486e+01	1.328030e+03
2.330000e-06	1.890016e-06	2.009836e-08	1.358061e+01	1.314410e+03
2.340000e-06	1.767801e-06	1.988366e-08	1.270244e+01	1.300386e+03
2.350000e-06	1.644958e-06	1.966188e-08	1.181976e+01	1.285938e+03
2.360000e-06	1.521527e-06	1.943505e-08	1.093285e+01	1.271052e+03
2.370000e-06	1.397653e-06	1.920167e-08	1.004276e+01	1.255716e+03
2.380000e-06	1.273395e-06	1.896092e-08	9.149914e+00	1.239918e+03
2.390000e-06	1.148768e-06	1.871368e-08	8.254412e+00	1.223644e+03
2.400000e-06	1.023786e-06	1.845855e-08	7.356358e+00	1.206871e+03
2.410000e-06	8.984169e-07	1.819239e-08	6.455527e+00	1.189573e+03
2.420000e-06	7.726558e-07	1.791805e-08	5.551877e+00	1.171715e+03
2.430000e-06	6.465668e-07	1.763499e-08	4.645871e+00	1.153256e+03
2.440000e-06	5.202496e-07	1.734316e-08	3.738226e+00	1.134155e+03
2.450000e-06	3.937243e-07	1.704184e-08	2.829085e+00	1.114368e+03
2.460000e-06	2.669638e-07	1.673117e-08	1.918254e+00	1.093856e+03
2.470000e-06	1.400679e-07	1.640774e-08	1.006450e+00	1.072581e+03
2.480000e-06	1.308930e-08	1.606941e-08	9.405249e-02	1.050502e+03
2.490000e-06	-1.139178e-07	1.571937e-08	-8.185500e-01	1.027574e+03
2.500000e-06	-2.408964e-07	1.535552e-08	-1.730948e+00	1.003741e+03
2.510000e-06	-3.678011e-07	1.497845e-08	-2.642815e+00	9.789295e+02
2.520000e-06	-4.946010e-07	1.458661e-08	-3.553929e+00	9.530486e+02
2.530000e-06	-6.212536e-07	1.417339e-08	-4.463985e+00	9.259866e+02
2.540000e-06	-7.476224e-07	1.373785e-08	-5.372001e+00	8.976143e+02
2.550000e-06	-8.736298e-07	1.328178e-08	-6.277420e+00	8.677875e+02
2.560000e-06	-9.992701e-07	1.280370e-08	-7.180202e+00	8.363518e+02
2.570000e-06	-1.124567e-06	1.229684e-08	-8.080517e+00	8.031446e+02
2.580000e-06	-1.249518e-06	1.175870e-08	-8.978346e+00	7.679949e+02
2.590000e-06	-1.374036e-06	1.118745e-08	-9.873064e+00	7.307198e+02
2.600000e-06	-1.498082e-06	1.058061e-08	-1.076439e+01	6.911176e+02
2.610000e-06	-1.621589e-06	9.937745e-09	-1.165184e+01	6.489605e+02
2.620000e-06	-1.744349e-06	9.254153e-09	-1.253393e+01	6.039888e+02
2.630000e-06	-1.866369e-06	8.523439e-09	-1.341069e+01	5.559108e+02
2.640000e-06	-1.987808e-06	7.739929e-09	-1.428329e+01	5.044110e+02
2.650000e-06	-2.108673e-06	6.898107e-09	-1.515176e+01	4.491684e+02
2.660000e-06	-2.228828e-06	5.993867e-09	-1.601512e+01	3.898853e+02
2.670000e-06	-2.348031e-06	5.024917e-09	-1.687165e+01	3.263250e+02
2.680000e-06	-2.466118e-06	3.989434e-09	-1.772016e+01	2.583531e+02
2.690000e-06	-2.583153e-06	2.887986e-09	-1.856111e+01	1.859772e+02
2.700000e-06	-2.699128e-06	1.722509e-09	-1.939444e+01	1.093791e+02
2.710000e-06	-2.813948e-06	4.969149e-10	-2.021947e+01	2.893354e+01
2.720000e-06	-2.927590e-06	-7.790256e-10	-2.103604e+01	-5.479156e+01
2.730000e-06	-3.039938e-06	-2.094285e-09	-2.184331e+01	-1.410532e+02
2.740000e-06	-3.151093e-06	-3.434933e-09	-2.264201e+01	-2.289702e+02
2.750000e-06	-3.261142e-06	-4.787271e-09	-2.343276e+01	-3.175740e+02
2.760000e-06	-3.370089e-06	-6.138224e-09	-2.421559e+01	-4.058672e+02
2.770000e-06	-3.478009e-06	-7.471364e-09	-2.499105e+01	-4.928836e+02
2.780000e-06	-3.584763e-06	-8.771447e-09	-2.575812e+01	-5.777416e+02
2.790000e-06	-3.690319e-06	-1.002581e-08	-2.651659e+01	-6.596862e+02
2.800000e-06	-3.794647e-06	-1.122633e-08	-2.726623e+01	-7.381151e+02
2.810000e-06	-3.897589e-06	-1.236525e-08	-2.800592e+01	-8.125894e+02
2.820000e-06	-3.999032e-06	-1.343953e-08	-2.873483e+01	-8.828279e+02
2.830000e-06	-4.098990e-06	-1.444925e-08	-2.945307e+01	-9.486904e+02
2.840000e-06	-4.197631e-06	-1.539213e-08	-3.016185e+01	-1.010154e+03
2.850000e-06	-4.294941e-06	-1.626946e-08	-3.086107e+01	-1.067284e+03
2.860000e-06	-4.390812e-06	-1.708448e-08	-3.154994e+01	-1.120214e+03
2.870000e-06	-4.485033e-06	-1.783755e-08	-3.222697e+01	-1.169115e+03
2.880000e-06	-4.577605e-06	-1.853170e-08	-3.289214e+01	-1.214188e+03
2.890000e-06	-4.668615e-06	-1.917003e-08	-3.354609e+01	-1.255649e+03
2.900000e-06	-4.757921e-06	-1.975638e-08	-3.418779e+01	-1.293724e+03
2.910000e-06	-4.845444e-06	-2.029364e-08	-3.481668e+01	-1.328643e+03
2.920000e-06	-4.931147e-06	-2.078395e-08	-3.543250e+01	-1.360639e+03
2.930000e-06	-5.015086e-06	-2.123311e-08	-3.603563e+01	-1.389946e+03
2.940000e-06	-5.097300e-06	-2.164482e-08	-3.662638e+01	-1.416793e+03
