# Temperatura_=_36.22
# Concentracion g/m^3_=_26700.0
# C_Vs_to_Am_M_A/Vsm_=_65563218390.804596
# pendiente_HvsI_1/m_=_3716.3
# ordenada_HvsI_A/m_=_1297.0
# frecuencia_Hz_=_302194.4971418793

Tiempo_(s)	Campo_(V.s)	Magnetizacion_(V.s)	Campo_(kA/m)	Magnetizacion_(A/m)
0.000000e+00	-6.628816e-06	-2.521607e-08	-4.770054e+01	-1.649473e+03
1.000000e-08	-6.626868e-06	-2.521570e-08	-4.768653e+01	-1.649485e+03
2.000000e-08	-6.622549e-06	-2.521029e-08	-4.765545e+01	-1.649323e+03
3.000000e-08	-6.616126e-06	-2.520332e-08	-4.760923e+01	-1.648964e+03
4.000000e-08	-6.607595e-06	-2.519404e-08	-4.754784e+01	-1.648383e+03
5.000000e-08	-6.596726e-06	-2.518038e-08	-4.746963e+01	-1.647567e+03
6.000000e-08	-6.583425e-06	-2.516364e-08	-4.737392e+01	-1.646515e+03
7.000000e-08	-6.567684e-06	-2.514180e-08	-4.726065e+01	-1.645244e+03
8.000000e-08	-6.549720e-06	-2.511891e-08	-4.713138e+01	-1.643789e+03
9.000000e-08	-6.529734e-06	-2.511611e-08	-4.698755e+01	-1.642199e+03
1.000000e-07	-6.507377e-06	-2.510995e-08	-4.682668e+01	-1.640523e+03
1.100000e-07	-6.482251e-06	-2.507370e-08	-4.664587e+01	-1.638807e+03
1.200000e-07	-6.454546e-06	-2.503006e-08	-4.644651e+01	-1.637081e+03
1.300000e-07	-6.424764e-06	-2.498390e-08	-4.623220e+01	-1.635353e+03
1.400000e-07	-6.393219e-06	-2.491444e-08	-4.600521e+01	-1.633606e+03
1.500000e-07	-6.359843e-06	-2.487616e-08	-4.576503e+01	-1.631801e+03
1.600000e-07	-6.324506e-06	-2.489440e-08	-4.551075e+01	-1.629886e+03
1.700000e-07	-6.287169e-06	-2.485678e-08	-4.524207e+01	-1.627802e+03
1.800000e-07	-6.247811e-06	-2.484094e-08	-4.495886e+01	-1.625494e+03
1.900000e-07	-6.206127e-06	-2.480837e-08	-4.465890e+01	-1.622924e+03
2.000000e-07	-6.161976e-06	-2.468899e-08	-4.434119e+01	-1.620073e+03
2.100000e-07	-6.115639e-06	-2.460813e-08	-4.400776e+01	-1.616945e+03
2.200000e-07	-6.066846e-06	-2.456935e-08	-4.365665e+01	-1.613562e+03
2.300000e-07	-6.015429e-06	-2.456998e-08	-4.328665e+01	-1.609962e+03
2.400000e-07	-5.961677e-06	-2.453334e-08	-4.289985e+01	-1.606184e+03
2.500000e-07	-5.905659e-06	-2.443260e-08	-4.249675e+01	-1.602265e+03
2.600000e-07	-5.847346e-06	-2.437597e-08	-4.207714e+01	-1.598230e+03
2.700000e-07	-5.786827e-06	-2.431233e-08	-4.164165e+01	-1.594090e+03
2.800000e-07	-5.724310e-06	-2.422780e-08	-4.119178e+01	-1.589840e+03
2.900000e-07	-5.659743e-06	-2.419517e-08	-4.072716e+01	-1.585462e+03
3.000000e-07	-5.592939e-06	-2.414718e-08	-4.024644e+01	-1.580935e+03
3.100000e-07	-5.523979e-06	-2.403312e-08	-3.975021e+01	-1.576233e+03
3.200000e-07	-5.453020e-06	-2.392064e-08	-3.923959e+01	-1.571339e+03
3.300000e-07	-5.380088e-06	-2.387355e-08	-3.871478e+01	-1.566242e+03
3.400000e-07	-5.304941e-06	-2.380955e-08	-3.817402e+01	-1.560942e+03
3.500000e-07	-5.227597e-06	-2.371651e-08	-3.761746e+01	-1.555446e+03
3.600000e-07	-5.148157e-06	-2.364137e-08	-3.704581e+01	-1.549766e+03
3.700000e-07	-5.066672e-06	-2.354936e-08	-3.645946e+01	-1.543912e+03
3.800000e-07	-4.983515e-06	-2.344719e-08	-3.586106e+01	-1.537894e+03
3.900000e-07	-4.898879e-06	-2.335192e-08	-3.525203e+01	-1.531713e+03
4.000000e-07	-4.812696e-06	-2.326417e-08	-3.463186e+01	-1.525364e+03
4.100000e-07	-4.724974e-06	-2.315902e-08	-3.400062e+01	-1.518838e+03
4.200000e-07	-4.635556e-06	-2.303748e-08	-3.335717e+01	-1.512122e+03
4.300000e-07	-4.544398e-06	-2.293204e-08	-3.270120e+01	-1.505205e+03
4.400000e-07	-4.451690e-06	-2.283527e-08	-3.203408e+01	-1.498081e+03
4.500000e-07	-4.357507e-06	-2.273031e-08	-3.135635e+01	-1.490746e+03
4.600000e-07	-4.261774e-06	-2.261325e-08	-3.066746e+01	-1.483203e+03
4.700000e-07	-4.164322e-06	-2.249246e-08	-2.996620e+01	-1.475457e+03
4.800000e-07	-4.065256e-06	-2.236306e-08	-2.925333e+01	-1.467514e+03
4.900000e-07	-3.964839e-06	-2.223148e-08	-2.853074e+01	-1.459376e+03
5.000000e-07	-3.863044e-06	-2.211003e-08	-2.779822e+01	-1.451040e+03
5.100000e-07	-3.759873e-06	-2.198400e-08	-2.705581e+01	-1.442494e+03
5.200000e-07	-3.655385e-06	-2.184488e-08	-2.630392e+01	-1.433724e+03
5.300000e-07	-3.549434e-06	-2.170041e-08	-2.554151e+01	-1.424709e+03
5.400000e-07	-3.442091e-06	-2.155803e-08	-2.476907e+01	-1.415428e+03
5.500000e-07	-3.333595e-06	-2.141646e-08	-2.398834e+01	-1.405863e+03
5.600000e-07	-3.223933e-06	-2.127096e-08	-2.319922e+01	-1.396003e+03
5.700000e-07	-3.113091e-06	-2.111691e-08	-2.240161e+01	-1.385840e+03
5.800000e-07	-3.001060e-06	-2.095233e-08	-2.159544e+01	-1.375377e+03
5.900000e-07	-2.887746e-06	-2.077830e-08	-2.078004e+01	-1.364617e+03
6.000000e-07	-2.773054e-06	-2.060263e-08	-1.995473e+01	-1.353567e+03
6.100000e-07	-2.657143e-06	-2.042755e-08	-1.912064e+01	-1.342232e+03
6.200000e-07	-2.540248e-06	-2.025209e-08	-1.827947e+01	-1.330609e+03
6.300000e-07	-2.422449e-06	-2.007318e-08	-1.743179e+01	-1.318692e+03
6.400000e-07	-2.303900e-06	-1.988737e-08	-1.657872e+01	-1.306464e+03
6.500000e-07	-2.184613e-06	-1.969440e-08	-1.572034e+01	-1.293907e+03
6.600000e-07	-2.064509e-06	-1.949587e-08	-1.485608e+01	-1.280997e+03
6.700000e-07	-1.943616e-06	-1.929298e-08	-1.398614e+01	-1.267713e+03
6.800000e-07	-1.822009e-06	-1.908269e-08	-1.311106e+01	-1.254035e+03
6.900000e-07	-1.699668e-06	-1.886553e-08	-1.223070e+01	-1.239949e+03
7.000000e-07	-1.576589e-06	-1.864411e-08	-1.134504e+01	-1.225446e+03
7.100000e-07	-1.452931e-06	-1.841542e-08	-1.045520e+01	-1.210521e+03
7.200000e-07	-1.328838e-06	-1.817976e-08	-9.562234e+00	-1.195166e+03
7.300000e-07	-1.204417e-06	-1.794077e-08	-8.666907e+00	-1.179373e+03
7.400000e-07	-1.079687e-06	-1.769706e-08	-7.769363e+00	-1.163128e+03
7.500000e-07	-9.546675e-07	-1.744571e-08	-6.869728e+00	-1.146410e+03
7.600000e-07	-8.293524e-07	-1.718558e-08	-5.967968e+00	-1.129188e+03
7.700000e-07	-7.036688e-07	-1.691653e-08	-5.063557e+00	-1.111428e+03
7.800000e-07	-5.777099e-07	-1.663651e-08	-4.157164e+00	-1.093091e+03
7.900000e-07	-4.516005e-07	-1.634517e-08	-3.249689e+00	-1.074134e+03
8.000000e-07	-3.253732e-07	-1.604435e-08	-2.341365e+00	-1.054520e+03
8.100000e-07	-1.990221e-07	-1.573375e-08	-1.432151e+00	-1.034209e+03
8.200000e-07	-7.259504e-08	-1.541240e-08	-5.223893e-01	-1.013163e+03
8.300000e-07	5.381825e-08	-1.507949e-08	3.872728e-01	-9.913415e+02
8.400000e-07	1.802075e-07	-1.473443e-08	1.296762e+00	-9.686973e+02
8.500000e-07	3.065857e-07	-1.437547e-08	2.206171e+00	-9.451727e+02
8.600000e-07	4.329153e-07	-1.399909e-08	3.115231e+00	-9.206959e+02
8.700000e-07	5.591569e-07	-1.360693e-08	4.023658e+00	-8.951791e+02
8.800000e-07	6.852511e-07	-1.320042e-08	4.931024e+00	-8.685187e+02
8.900000e-07	8.111393e-07	-1.277625e-08	5.836908e+00	-8.405970e+02
9.000000e-07	9.367418e-07	-1.233041e-08	6.740736e+00	-8.112852e+02
9.100000e-07	1.061993e-06	-1.186016e-08	7.642035e+00	-7.804457e+02
9.200000e-07	1.186866e-06	-1.136541e-08	8.540610e+00	-7.479336e+02
9.300000e-07	1.311378e-06	-1.084379e-08	9.436594e+00	-7.135952e+02
9.400000e-07	1.435577e-06	-1.029290e-08	1.033032e+01	-6.772650e+02
9.500000e-07	1.559338e-06	-9.709395e-09	1.122090e+01	-6.387598e+02
9.600000e-07	1.682469e-06	-9.086339e-09	1.210694e+01	-5.978736e+02
9.700000e-07	1.804849e-06	-8.421799e-09	1.298758e+01	-5.543741e+02
9.800000e-07	1.926476e-06	-7.714480e-09	1.386280e+01	-5.080046e+02
9.900000e-07	2.047417e-06	-6.956926e-09	1.473309e+01	-4.584925e+02
1.000000e-06	2.167530e-06	-6.145259e-09	1.559741e+01	-4.055661e+02
1.010000e-06	2.286697e-06	-5.279365e-09	1.645493e+01	-3.489804e+02
1.020000e-06	2.405062e-06	-4.356310e-09	1.730667e+01	-2.885480e+02
1.030000e-06	2.522644e-06	-3.374401e-09	1.815279e+01	-2.241736e+02
1.040000e-06	2.639304e-06	-2.333454e-09	1.899227e+01	-1.558864e+02
1.050000e-06	2.754889e-06	-1.236569e-09	1.982401e+01	-8.386609e+01
1.060000e-06	2.869232e-06	-8.565280e-11	2.064682e+01	-8.456732e+00
1.070000e-06	2.982365e-06	1.111072e-09	2.146091e+01	6.983353e+01
1.080000e-06	3.094296e-06	2.342470e-09	2.226636e+01	1.503488e+02
1.090000e-06	3.205030e-06	3.595896e-09	2.306320e+01	2.323168e+02
1.100000e-06	3.314673e-06	4.856441e-09	2.385218e+01	3.148917e+02
1.110000e-06	3.423306e-06	6.109694e-09	2.463390e+01	3.972037e+02
1.120000e-06	3.530833e-06	7.344703e-09	2.540765e+01	4.784094e+02
1.130000e-06	3.637095e-06	8.550866e-09	2.617231e+01	5.577371e+02
1.140000e-06	3.742021e-06	9.717298e-09	2.692735e+01	6.345221e+02
1.150000e-06	3.845531e-06	1.083426e-08	2.767220e+01	7.082295e+02
1.160000e-06	3.947682e-06	1.189923e-08	2.840727e+01	7.784624e+02
1.170000e-06	4.048543e-06	1.291068e-08	2.913306e+01	8.449579e+02
1.180000e-06	4.147984e-06	1.386237e-08	2.984863e+01	9.075729e+02
1.190000e-06	4.245822e-06	1.475326e-08	3.055267e+01	9.662637e+02
1.200000e-06	4.342014e-06	1.558565e-08	3.124486e+01	1.021064e+03
1.210000e-06	4.436636e-06	1.635962e-08	3.192576e+01	1.072062e+03
1.220000e-06	4.529808e-06	1.707396e-08	3.259621e+01	1.119386e+03
1.230000e-06	4.621487e-06	1.773499e-08	3.325593e+01	1.163189e+03
1.240000e-06	4.711493e-06	1.834606e-08	3.390361e+01	1.203644e+03
1.250000e-06	4.799645e-06	1.890976e-08	3.453794e+01	1.240934e+03
1.260000e-06	4.885973e-06	1.942836e-08	3.515915e+01	1.275255e+03
1.270000e-06	4.970703e-06	1.990475e-08	3.576887e+01	1.306812e+03
1.280000e-06	5.053863e-06	2.034274e-08	3.636728e+01	1.335813e+03
1.290000e-06	5.135162e-06	2.074718e-08	3.695231e+01	1.362468e+03
1.300000e-06	5.214460e-06	2.112022e-08	3.752292e+01	1.386984e+03
1.310000e-06	5.291860e-06	2.146270e-08	3.807989e+01	1.409555e+03
1.320000e-06	5.367274e-06	2.177910e-08	3.862257e+01	1.430362e+03
1.330000e-06	5.440503e-06	2.207065e-08	3.914952e+01	1.449565e+03
1.340000e-06	5.511611e-06	2.233629e-08	3.966121e+01	1.467308e+03
1.350000e-06	5.580798e-06	2.258103e-08	4.015907e+01	1.483710e+03
1.360000e-06	5.648090e-06	2.280996e-08	4.064331e+01	1.498877e+03
1.370000e-06	5.713335e-06	2.302323e-08	4.111280e+01	1.512900e+03
1.380000e-06	5.776443e-06	2.321989e-08	4.156692e+01	1.525857e+03
1.390000e-06	5.837574e-06	2.340020e-08	4.200682e+01	1.537821e+03
1.400000e-06	5.896788e-06	2.356715e-08	4.243292e+01	1.548857e+03
1.410000e-06	5.953906e-06	2.372181e-08	4.284393e+01	1.559027e+03
1.420000e-06	6.008854e-06	2.386487e-08	4.323934e+01	1.568387e+03
1.430000e-06	6.061551e-06	2.399792e-08	4.361854e+01	1.576990e+03
1.440000e-06	6.111646e-06	2.412053e-08	4.397902e+01	1.584888e+03
1.450000e-06	6.159218e-06	2.423199e-08	4.432135e+01	1.592128e+03
1.460000e-06	6.204695e-06	2.433201e-08	4.464860e+01	1.598758e+03
1.470000e-06	6.248181e-06	2.442216e-08	4.496152e+01	1.604823e+03
1.480000e-06	6.289335e-06	2.450450e-08	4.525766e+01	1.610370e+03
1.490000e-06	6.328107e-06	2.458067e-08	4.553666e+01	1.615442e+03
1.500000e-06	6.364821e-06	2.465139e-08	4.580085e+01	1.620082e+03
1.510000e-06	6.399326e-06	2.471631e-08	4.604915e+01	1.624327e+03
1.520000e-06	6.431466e-06	2.477747e-08	4.628043e+01	1.628204e+03
1.530000e-06	6.461361e-06	2.483397e-08	4.649555e+01	1.631734e+03
1.540000e-06	6.489107e-06	2.488311e-08	4.669521e+01	1.634929e+03
1.550000e-06	6.514526e-06	2.492488e-08	4.687812e+01	1.637791e+03
1.560000e-06	6.537463e-06	2.496049e-08	4.704318e+01	1.640320e+03
1.570000e-06	6.558132e-06	2.499176e-08	4.719191e+01	1.642516e+03
1.580000e-06	6.576580e-06	2.502003e-08	4.732466e+01	1.644383e+03
1.590000e-06	6.592550e-06	2.504508e-08	4.743957e+01	1.645933e+03
1.600000e-06	6.605985e-06	2.506448e-08	4.753626e+01	1.647187e+03
1.610000e-06	6.616862e-06	2.507920e-08	4.761452e+01	1.648175e+03
1.620000e-06	6.625110e-06	2.509179e-08	4.767387e+01	1.648932e+03
1.630000e-06	6.630910e-06	2.510280e-08	4.771561e+01	1.649492e+03
1.640000e-06	6.634525e-06	2.511100e-08	4.774163e+01	1.649883e+03
1.650000e-06	6.635793e-06	2.511514e-08	4.775075e+01	1.650121e+03
1.660000e-06	6.634654e-06	2.511491e-08	4.774255e+01	1.650206e+03
1.670000e-06	6.631417e-06	2.511152e-08	4.771926e+01	1.650127e+03
1.680000e-06	6.625951e-06	2.510649e-08	4.767993e+01	1.649863e+03
1.690000e-06	6.618204e-06	2.509883e-08	4.762418e+01	1.649388e+03
1.700000e-06	6.608353e-06	2.508886e-08	4.755329e+01	1.648682e+03
1.710000e-06	6.596376e-06	2.507810e-08	4.746711e+01	1.647739e+03
1.720000e-06	6.582060e-06	2.506782e-08	4.736409e+01	1.646566e+03
1.730000e-06	6.565498e-06	2.505317e-08	4.724491e+01	1.645191e+03
1.740000e-06	6.546954e-06	2.500319e-08	4.711147e+01	1.643658e+03
1.750000e-06	6.525895e-06	2.496480e-08	4.695993e+01	1.642015e+03
1.760000e-06	6.501656e-06	2.495303e-08	4.678551e+01	1.640314e+03
1.770000e-06	6.474611e-06	2.492918e-08	4.659090e+01	1.638590e+03
1.780000e-06	6.445342e-06	2.492510e-08	4.638028e+01	1.636863e+03
1.790000e-06	6.414167e-06	2.493406e-08	4.615594e+01	1.635128e+03
1.800000e-06	6.381609e-06	2.487332e-08	4.592166e+01	1.633356e+03
1.810000e-06	6.347319e-06	2.485139e-08	4.567491e+01	1.631500e+03
1.820000e-06	6.310623e-06	2.483130e-08	4.541085e+01	1.629501e+03
1.830000e-06	6.271663e-06	2.475131e-08	4.513049e+01	1.627303e+03
1.840000e-06	6.230505e-06	2.478150e-08	4.483432e+01	1.624859e+03
1.850000e-06	6.187243e-06	2.478379e-08	4.452301e+01	1.622140e+03
1.860000e-06	6.141908e-06	2.474234e-08	4.419678e+01	1.619138e+03
1.870000e-06	6.094184e-06	2.468342e-08	4.385337e+01	1.615870e+03
1.880000e-06	6.044257e-06	2.453873e-08	4.349409e+01	1.612366e+03
1.890000e-06	5.991941e-06	2.449628e-08	4.311763e+01	1.608665e+03
1.900000e-06	5.936941e-06	2.446629e-08	4.272185e+01	1.604808e+03
1.910000e-06	5.879664e-06	2.442441e-08	4.230970e+01	1.600825e+03
1.920000e-06	5.820318e-06	2.440978e-08	4.188264e+01	1.596733e+03
1.930000e-06	5.758845e-06	2.427874e-08	4.144029e+01	1.592536e+03
1.940000e-06	5.695175e-06	2.420445e-08	4.098212e+01	1.588220e+03
1.950000e-06	5.629357e-06	2.416103e-08	4.050850e+01	1.583765e+03
1.960000e-06	5.561481e-06	2.410193e-08	4.002007e+01	1.579147e+03
1.970000e-06	5.491366e-06	2.403215e-08	3.951552e+01	1.574345e+03
1.980000e-06	5.419078e-06	2.392421e-08	3.899534e+01	1.569342e+03
1.990000e-06	5.344875e-06	2.386858e-08	3.846139e+01	1.564136e+03
2.000000e-06	5.268727e-06	2.376461e-08	3.791343e+01	1.558730e+03
2.010000e-06	5.190435e-06	2.368205e-08	3.735004e+01	1.553134e+03
2.020000e-06	5.110066e-06	2.362389e-08	3.677172e+01	1.547360e+03
2.030000e-06	5.027932e-06	2.352847e-08	3.618068e+01	1.541418e+03
2.040000e-06	4.944103e-06	2.343386e-08	3.557746e+01	1.535312e+03
2.050000e-06	4.858492e-06	2.331751e-08	3.496141e+01	1.529042e+03
2.060000e-06	4.770999e-06	2.324157e-08	3.433181e+01	1.522600e+03
2.070000e-06	4.681837e-06	2.313922e-08	3.369021e+01	1.515974e+03
2.080000e-06	4.591199e-06	2.302210e-08	3.303798e+01	1.509151e+03
2.090000e-06	4.499069e-06	2.291553e-08	3.237502e+01	1.502124e+03
2.100000e-06	4.405251e-06	2.280644e-08	3.169991e+01	1.494887e+03
2.110000e-06	4.309724e-06	2.270646e-08	3.101250e+01	1.487440e+03
2.120000e-06	4.212784e-06	2.258960e-08	3.031493e+01	1.479788e+03
2.130000e-06	4.114475e-06	2.248010e-08	2.960750e+01	1.471936e+03
2.140000e-06	4.014803e-06	2.235233e-08	2.889027e+01	1.463889e+03
2.150000e-06	3.913630e-06	2.222376e-08	2.816224e+01	1.455645e+03
2.160000e-06	3.810767e-06	2.209416e-08	2.742204e+01	1.447198e+03
2.170000e-06	3.706421e-06	2.195820e-08	2.667118e+01	1.438535e+03
2.180000e-06	3.600798e-06	2.182245e-08	2.591112e+01	1.429636e+03
2.190000e-06	3.493991e-06	2.168713e-08	2.514254e+01	1.420481e+03
2.200000e-06	3.386062e-06	2.155022e-08	2.436589e+01	1.411050e+03
2.210000e-06	3.276956e-06	2.139946e-08	2.358077e+01	1.401328e+03
2.220000e-06	3.166486e-06	2.124743e-08	2.278584e+01	1.391307e+03
2.230000e-06	3.054706e-06	2.109599e-08	2.198147e+01	1.380982e+03
2.240000e-06	2.941756e-06	2.093969e-08	2.116869e+01	1.370360e+03
2.250000e-06	2.827698e-06	2.077209e-08	2.034794e+01	1.359444e+03
2.260000e-06	2.712581e-06	2.060258e-08	1.951956e+01	1.348241e+03
2.270000e-06	2.596365e-06	2.042546e-08	1.868328e+01	1.336752e+03
2.280000e-06	2.478993e-06	2.024257e-08	1.783868e+01	1.324973e+03
2.290000e-06	2.360458e-06	2.006038e-08	1.698570e+01	1.312892e+03
2.300000e-06	2.240945e-06	1.987954e-08	1.612570e+01	1.300491e+03
2.310000e-06	2.120687e-06	1.969230e-08	1.526033e+01	1.287747e+03
2.320000e-06	1.999760e-06	1.948977e-08	1.439015e+01	1.274639e+03
2.330000e-06	1.878161e-06	1.927880e-08	1.351513e+01	1.261146e+03
2.340000e-06	1.755940e-06	1.906542e-08	1.263564e+01	1.247251e+03
2.350000e-06	1.633178e-06	1.885141e-08	1.175225e+01	1.232943e+03
2.360000e-06	1.509989e-06	1.862980e-08	1.086578e+01	1.218215e+03
2.370000e-06	1.386408e-06	1.839736e-08	9.976503e+00	1.203060e+03
2.380000e-06	1.262355e-06	1.815547e-08	9.083829e+00	1.187472e+03
2.390000e-06	1.137861e-06	1.790863e-08	8.187976e+00	1.171439e+03
2.400000e-06	1.012938e-06	1.765615e-08	7.289037e+00	1.154944e+03
2.410000e-06	8.876136e-07	1.739846e-08	6.387212e+00	1.137960e+03
2.420000e-06	7.619648e-07	1.713354e-08	5.483051e+00	1.120455e+03
2.430000e-06	6.360171e-07	1.685557e-08	4.576739e+00	1.102391e+03
2.440000e-06	5.098795e-07	1.656604e-08	3.669061e+00	1.083727e+03
2.450000e-06	3.836148e-07	1.626850e-08	2.760468e+00	1.064423e+03
2.460000e-06	2.572357e-07	1.596562e-08	1.851052e+00	1.044440e+03
2.470000e-06	1.307218e-07	1.565306e-08	9.406656e-01	1.023740e+03
2.480000e-06	4.037688e-09	1.532694e-08	2.905495e-02	1.002284e+03
2.490000e-06	-1.227167e-07	1.498890e-08	-8.830615e-01	9.800285e+02
2.500000e-06	-2.494142e-07	1.463893e-08	-1.794769e+00	9.569207e+02
2.510000e-06	-3.759857e-07	1.427498e-08	-2.705569e+00	9.328960e+02
2.520000e-06	-5.024361e-07	1.389532e-08	-3.615499e+00	9.078741e+02
2.530000e-06	-6.287718e-07	1.349638e-08	-4.524603e+00	8.817585e+02
2.540000e-06	-7.549571e-07	1.307637e-08	-5.432624e+00	8.544379e+02
2.550000e-06	-8.809189e-07	1.263703e-08	-6.339038e+00	8.257883e+02
2.560000e-06	-1.006519e-06	1.217926e-08	-7.242851e+00	7.956757e+02
2.570000e-06	-1.131708e-06	1.169643e-08	-8.143698e+00	7.639588e+02
2.580000e-06	-1.256446e-06	1.118216e-08	-9.041309e+00	7.304881e+02
2.590000e-06	-1.380686e-06	1.063773e-08	-9.935331e+00	6.951043e+02
2.600000e-06	-1.504351e-06	1.006374e-08	-1.082522e+01	6.576331e+02
2.610000e-06	-1.627480e-06	9.458318e-09	-1.171124e+01	6.178797e+02
2.620000e-06	-1.750071e-06	8.816261e-09	-1.259340e+01	5.756242e+02
2.630000e-06	-1.871983e-06	8.131856e-09	-1.347067e+01	5.306205e+02
2.640000e-06	-1.993231e-06	7.400495e-09	-1.434316e+01	4.826018e+02
2.650000e-06	-2.113797e-06	6.616876e-09	-1.521075e+01	4.312935e+02
2.660000e-06	-2.233588e-06	5.779015e-09	-1.607276e+01	3.764344e+02
2.670000e-06	-2.352475e-06	4.886004e-09	-1.692826e+01	3.178063e+02
2.680000e-06	-2.470364e-06	3.934768e-09	-1.777658e+01	2.552668e+02
2.690000e-06	-2.587205e-06	2.922163e-09	-1.861737e+01	1.887836e+02
2.700000e-06	-2.702937e-06	1.851572e-09	-1.945017e+01	1.184639e+02
2.710000e-06	-2.817499e-06	7.279973e-10	-2.027454e+01	4.457472e+01
2.720000e-06	-2.930878e-06	-4.440523e-10	-2.109041e+01	-3.245108e+01
2.730000e-06	-3.043081e-06	-1.656475e-09	-2.189782e+01	-1.120231e+02
2.740000e-06	-3.154043e-06	-2.898827e-09	-2.269629e+01	-1.934184e+02
2.750000e-06	-3.263839e-06	-4.157388e-09	-2.348638e+01	-2.758194e+02
2.760000e-06	-3.372585e-06	-5.418060e-09	-2.426891e+01	-3.583610e+02
2.770000e-06	-3.480257e-06	-6.668572e-09	-2.504371e+01	-4.401815e+02
2.780000e-06	-3.586819e-06	-7.895966e-09	-2.581052e+01	-5.204709e+02
2.790000e-06	-3.692276e-06	-9.089832e-09	-2.656939e+01	-5.985111e+02
2.800000e-06	-3.796437e-06	-1.023925e-08	-2.731893e+01	-6.737052e+02
2.810000e-06	-3.899118e-06	-1.133724e-08	-2.805781e+01	-7.455918e+02
2.820000e-06	-4.000317e-06	-1.238326e-08	-2.878603e+01	-8.138471e+02
2.830000e-06	-4.100090e-06	-1.337410e-08	-2.950399e+01	-8.782746e+02
2.840000e-06	-4.198497e-06	-1.430423e-08	-3.021212e+01	-9.387872e+02
2.850000e-06	-4.295533e-06	-1.517169e-08	-3.091039e+01	-9.953854e+02
2.860000e-06	-4.391110e-06	-1.598065e-08	-3.159815e+01	-1.048135e+03
2.870000e-06	-4.485064e-06	-1.673375e-08	-3.227424e+01	-1.097147e+03
2.880000e-06	-4.577362e-06	-1.743170e-08	-3.293841e+01	-1.142564e+03
2.890000e-06	-4.668042e-06	-1.807605e-08	-3.359094e+01	-1.184551e+03
2.900000e-06	-4.757061e-06	-1.867240e-08	-3.423151e+01	-1.223287e+03
2.910000e-06	-4.844303e-06	-1.922360e-08	-3.485930e+01	-1.258961e+03
2.920000e-06	-4.929731e-06	-1.972850e-08	-3.547404e+01	-1.291776e+03
2.930000e-06	-5.013438e-06	-2.018987e-08	-3.607639e+01	-1.321937e+03
2.940000e-06	-5.095466e-06	-2.061412e-08	-3.666665e+01	-1.349655e+03
