# Temperatura_=_35.41
# Concentracion g/m^3_=_28200.0
# C_Vs_to_Am_M_A/Vsm_=_65563218390.804596
# pendiente_HvsI_1/m_=_3716.3
# ordenada_HvsI_A/m_=_1297.0
# frecuencia_Hz_=_302096.0961917028

Tiempo_(s)	Campo_(V.s)	Magnetizacion_(V.s)	Campo_(kA/m)	Magnetizacion_(A/m)
0.000000e+00	-6.378151e-06	-1.883712e-08	-4.557715e+01	-1.233167e+03
1.000000e-08	-6.374511e-06	-1.883166e-08	-4.555114e+01	-1.232784e+03
2.000000e-08	-6.368810e-06	-1.882353e-08	-4.551040e+01	-1.232263e+03
3.000000e-08	-6.361122e-06	-1.881581e-08	-4.545546e+01	-1.231608e+03
4.000000e-08	-6.351257e-06	-1.880365e-08	-4.538497e+01	-1.230825e+03
5.000000e-08	-6.339019e-06	-1.878799e-08	-4.529752e+01	-1.229920e+03
6.000000e-08	-6.324478e-06	-1.876664e-08	-4.519362e+01	-1.228901e+03
7.000000e-08	-6.307719e-06	-1.873687e-08	-4.507386e+01	-1.227775e+03
8.000000e-08	-6.288896e-06	-1.873573e-08	-4.493935e+01	-1.226546e+03
9.000000e-08	-6.267919e-06	-1.877573e-08	-4.478945e+01	-1.225214e+03
1.000000e-07	-6.244410e-06	-1.872105e-08	-4.462147e+01	-1.223775e+03
1.100000e-07	-6.218251e-06	-1.865880e-08	-4.443454e+01	-1.222220e+03
1.200000e-07	-6.189868e-06	-1.865432e-08	-4.423172e+01	-1.220533e+03
1.300000e-07	-6.159755e-06	-1.858416e-08	-4.401653e+01	-1.218697e+03
1.400000e-07	-6.128086e-06	-1.846823e-08	-4.379023e+01	-1.216693e+03
1.500000e-07	-6.094552e-06	-1.859072e-08	-4.355061e+01	-1.214504e+03
1.600000e-07	-6.058933e-06	-1.855178e-08	-4.329608e+01	-1.212117e+03
1.700000e-07	-6.021469e-06	-1.841551e-08	-4.302837e+01	-1.209524e+03
1.800000e-07	-5.982001e-06	-1.853511e-08	-4.274634e+01	-1.206725e+03
1.900000e-07	-5.940087e-06	-1.838861e-08	-4.244683e+01	-1.203729e+03
2.000000e-07	-5.895940e-06	-1.831078e-08	-4.213136e+01	-1.200550e+03
2.100000e-07	-5.849731e-06	-1.832801e-08	-4.180116e+01	-1.197209e+03
2.200000e-07	-5.801220e-06	-1.818702e-08	-4.145450e+01	-1.193724e+03
2.300000e-07	-5.750199e-06	-1.814944e-08	-4.108992e+01	-1.190111e+03
2.400000e-07	-5.696674e-06	-1.810307e-08	-4.070744e+01	-1.186378e+03
2.500000e-07	-5.640947e-06	-1.804452e-08	-4.030923e+01	-1.182524e+03
2.600000e-07	-5.583040e-06	-1.800143e-08	-3.989543e+01	-1.178536e+03
2.700000e-07	-5.523059e-06	-1.791672e-08	-3.946682e+01	-1.174392e+03
2.800000e-07	-5.461159e-06	-1.785980e-08	-3.902449e+01	-1.170063e+03
2.900000e-07	-5.397307e-06	-1.775248e-08	-3.856822e+01	-1.165516e+03
3.000000e-07	-5.331421e-06	-1.769587e-08	-3.809740e+01	-1.160723e+03
3.100000e-07	-5.263421e-06	-1.764591e-08	-3.761149e+01	-1.155660e+03
3.200000e-07	-5.193462e-06	-1.756419e-08	-3.711158e+01	-1.150315e+03
3.300000e-07	-5.121669e-06	-1.747798e-08	-3.659855e+01	-1.144687e+03
3.400000e-07	-5.047970e-06	-1.735215e-08	-3.607191e+01	-1.138784e+03
3.500000e-07	-4.972185e-06	-1.727657e-08	-3.553037e+01	-1.132620e+03
3.600000e-07	-4.894245e-06	-1.717542e-08	-3.497342e+01	-1.126210e+03
3.700000e-07	-4.814310e-06	-1.707826e-08	-3.440222e+01	-1.119566e+03
3.800000e-07	-4.732622e-06	-1.699300e-08	-3.381849e+01	-1.112692e+03
3.900000e-07	-4.649402e-06	-1.686874e-08	-3.322381e+01	-1.105581e+03
4.000000e-07	-4.564798e-06	-1.673906e-08	-3.261925e+01	-1.098218e+03
4.100000e-07	-4.478798e-06	-1.661603e-08	-3.200471e+01	-1.090578e+03
4.200000e-07	-4.391294e-06	-1.650954e-08	-3.137942e+01	-1.082632e+03
4.300000e-07	-4.302339e-06	-1.638449e-08	-3.074376e+01	-1.074353e+03
4.400000e-07	-4.211754e-06	-1.625171e-08	-3.009646e+01	-1.065718e+03
4.500000e-07	-4.119449e-06	-1.611975e-08	-2.943686e+01	-1.056711e+03
4.600000e-07	-4.025701e-06	-1.596529e-08	-2.876696e+01	-1.047324e+03
4.700000e-07	-3.930654e-06	-1.581170e-08	-2.808777e+01	-1.037554e+03
4.800000e-07	-3.834308e-06	-1.565792e-08	-2.739930e+01	-1.027402e+03
4.900000e-07	-3.736521e-06	-1.549906e-08	-2.670052e+01	-1.016865e+03
5.000000e-07	-3.637198e-06	-1.532568e-08	-2.599078e+01	-1.005936e+03
5.100000e-07	-3.536536e-06	-1.514887e-08	-2.527147e+01	-9.945962e+02
5.200000e-07	-3.434636e-06	-1.497218e-08	-2.454331e+01	-9.828207e+02
5.300000e-07	-3.331491e-06	-1.478414e-08	-2.380626e+01	-9.705745e+02
5.400000e-07	-3.227137e-06	-1.459186e-08	-2.306055e+01	-9.578177e+02
5.500000e-07	-3.121585e-06	-1.438902e-08	-2.230630e+01	-9.445085e+02
5.600000e-07	-3.014761e-06	-1.417524e-08	-2.154295e+01	-9.306060e+02
5.700000e-07	-2.906672e-06	-1.394692e-08	-2.077057e+01	-9.160727e+02
5.800000e-07	-2.797595e-06	-1.371007e-08	-1.999113e+01	-9.008747e+02
5.900000e-07	-2.687608e-06	-1.346489e-08	-1.920517e+01	-8.849804e+02
6.000000e-07	-2.576669e-06	-1.320765e-08	-1.841243e+01	-8.683579e+02
6.100000e-07	-2.464687e-06	-1.294077e-08	-1.761222e+01	-8.509726e+02
6.200000e-07	-2.351724e-06	-1.266430e-08	-1.680501e+01	-8.327842e+02
6.300000e-07	-2.237838e-06	-1.237715e-08	-1.599120e+01	-8.137451e+02
6.400000e-07	-2.122922e-06	-1.207391e-08	-1.517003e+01	-7.938000e+02
6.500000e-07	-2.007028e-06	-1.175371e-08	-1.434187e+01	-7.728858e+02
6.600000e-07	-1.890320e-06	-1.141199e-08	-1.350790e+01	-7.509331e+02
6.700000e-07	-1.773002e-06	-1.105400e-08	-1.266956e+01	-7.278667e+02
6.800000e-07	-1.655133e-06	-1.068209e-08	-1.182729e+01	-7.036071e+02
6.900000e-07	-1.536724e-06	-1.029249e-08	-1.098116e+01	-6.780711e+02
7.000000e-07	-1.417821e-06	-9.884452e-09	-1.013150e+01	-6.511738e+02
7.100000e-07	-1.298416e-06	-9.452490e-09	-9.278255e+00	-6.228321e+02
7.200000e-07	-1.178513e-06	-8.997959e-09	-8.421446e+00	-5.929706e+02
7.300000e-07	-1.058227e-06	-8.516659e-09	-7.561907e+00	-5.615304e+02
7.400000e-07	-9.375530e-07	-8.010250e-09	-6.699590e+00	-5.284809e+02
7.500000e-07	-8.165093e-07	-7.482238e-09	-5.834633e+00	-4.938327e+02
7.600000e-07	-6.952653e-07	-6.930851e-09	-4.968245e+00	-4.576491e+02
7.700000e-07	-5.738868e-07	-6.357578e-09	-4.100895e+00	-4.200541e+02
7.800000e-07	-4.523613e-07	-5.765299e-09	-3.232495e+00	-3.812331e+02
7.900000e-07	-3.306960e-07	-5.159416e-09	-2.363096e+00	-3.414239e+02
8.000000e-07	-2.088596e-07	-4.542597e-09	-1.492474e+00	-3.008989e+02
8.100000e-07	-8.689108e-08	-3.919807e-09	-6.209085e-01	-2.599373e+02
8.200000e-07	3.515811e-08	-3.296218e-09	2.512337e-01	-2.187929e+02
8.300000e-07	1.572792e-07	-2.673695e-09	1.123890e+00	-1.776609e+02
8.400000e-07	2.793577e-07	-2.050222e-09	1.996241e+00	-1.366505e+02
8.500000e-07	4.013538e-07	-1.425736e-09	2.868004e+00	-9.576869e+01
8.600000e-07	5.232387e-07	-7.995267e-10	3.738972e+00	-5.491938e+01
8.700000e-07	6.449843e-07	-1.728225e-10	4.608945e+00	-1.391943e+01
8.800000e-07	7.665914e-07	4.593922e-10	5.477928e+00	2.746918e+01
8.900000e-07	8.880011e-07	1.100501e-09	6.345501e+00	6.949576e+01
9.000000e-07	1.009168e-06	1.751266e-09	7.211341e+00	1.123723e+02
9.100000e-07	1.130015e-06	2.416489e-09	8.074892e+00	1.562277e+02
9.200000e-07	1.250414e-06	3.095548e-09	8.935238e+00	2.010731e+02
9.300000e-07	1.370203e-06	3.787816e-09	9.791232e+00	2.467826e+02
9.400000e-07	1.489373e-06	4.491652e-09	1.064280e+01	2.930955e+02
9.500000e-07	1.608016e-06	5.203430e-09	1.149060e+01	3.396358e+02
9.600000e-07	1.726160e-06	5.911715e-09	1.233484e+01	3.859499e+02
9.700000e-07	1.843729e-06	6.604654e-09	1.317497e+01	4.315524e+02
9.800000e-07	1.960590e-06	7.277166e-09	1.401004e+01	4.759754e+02
9.900000e-07	2.076690e-06	7.925317e-09	1.483967e+01	5.188118e+02
1.000000e-06	2.191897e-06	8.544462e-09	1.566291e+01	5.597475e+02
1.010000e-06	2.306098e-06	9.131061e-09	1.647897e+01	5.985792e+02
1.020000e-06	2.419371e-06	9.687663e-09	1.728840e+01	6.352150e+02
1.030000e-06	2.531627e-06	1.021248e-08	1.809057e+01	6.696624e+02
1.040000e-06	2.642934e-06	1.070565e-08	1.888594e+01	7.020059e+02
1.050000e-06	2.753410e-06	1.116786e-08	1.967539e+01	7.323791e+02
1.060000e-06	2.862942e-06	1.160146e-08	2.045808e+01	7.609387e+02
1.070000e-06	2.971582e-06	1.200922e-08	2.123441e+01	7.878412e+02
1.080000e-06	3.079265e-06	1.239466e-08	2.200389e+01	8.132287e+02
1.090000e-06	3.185773e-06	1.276064e-08	2.276498e+01	8.372209e+02
1.100000e-06	3.291082e-06	1.310817e-08	2.351750e+01	8.599147e+02
1.110000e-06	3.395084e-06	1.343669e-08	2.426067e+01	8.813888e+02
1.120000e-06	3.497753e-06	1.374523e-08	2.499433e+01	9.017099e+02
1.130000e-06	3.599284e-06	1.403596e-08	2.571985e+01	9.209398e+02
1.140000e-06	3.699649e-06	1.431034e-08	2.643705e+01	9.391394e+02
1.150000e-06	3.798753e-06	1.457147e-08	2.714523e+01	9.563714e+02
1.160000e-06	3.896438e-06	1.481859e-08	2.784327e+01	9.726995e+02
1.170000e-06	3.992610e-06	1.505241e-08	2.853049e+01	9.881870e+02
1.180000e-06	4.087301e-06	1.527607e-08	2.920714e+01	1.002894e+03
1.190000e-06	4.180617e-06	1.549054e-08	2.987396e+01	1.016874e+03
1.200000e-06	4.272654e-06	1.569197e-08	3.053164e+01	1.030176e+03
1.210000e-06	4.363225e-06	1.588132e-08	3.117884e+01	1.042840e+03
1.220000e-06	4.452046e-06	1.606086e-08	3.181354e+01	1.054901e+03
1.230000e-06	4.539191e-06	1.623310e-08	3.243627e+01	1.066387e+03
1.240000e-06	4.624830e-06	1.639972e-08	3.304822e+01	1.077325e+03
1.250000e-06	4.708948e-06	1.656084e-08	3.364932e+01	1.087736e+03
1.260000e-06	4.791494e-06	1.671589e-08	3.423918e+01	1.097640e+03
1.270000e-06	4.872211e-06	1.686270e-08	3.481597e+01	1.107053e+03
1.280000e-06	4.950989e-06	1.699873e-08	3.537891e+01	1.115990e+03
1.290000e-06	5.027963e-06	1.712544e-08	3.592895e+01	1.124462e+03
1.300000e-06	5.103050e-06	1.724742e-08	3.646550e+01	1.132481e+03
1.310000e-06	5.176069e-06	1.736363e-08	3.698729e+01	1.140059e+03
1.320000e-06	5.247128e-06	1.747200e-08	3.749506e+01	1.147211e+03
1.330000e-06	5.316406e-06	1.757409e-08	3.799011e+01	1.153959e+03
1.340000e-06	5.383957e-06	1.767112e-08	3.847281e+01	1.160326e+03
1.350000e-06	5.449456e-06	1.776265e-08	3.894086e+01	1.166343e+03
1.360000e-06	5.512850e-06	1.785092e-08	3.939386e+01	1.172044e+03
1.370000e-06	5.574425e-06	1.793626e-08	3.983387e+01	1.177462e+03
1.380000e-06	5.634246e-06	1.801585e-08	4.026134e+01	1.182628e+03
1.390000e-06	5.692037e-06	1.808976e-08	4.067431e+01	1.187567e+03
1.400000e-06	5.747631e-06	1.815978e-08	4.107157e+01	1.192294e+03
1.410000e-06	5.801186e-06	1.822714e-08	4.145427e+01	1.196818e+03
1.420000e-06	5.852465e-06	1.829260e-08	4.182069e+01	1.201135e+03
1.430000e-06	5.901252e-06	1.835534e-08	4.216932e+01	1.205239e+03
1.440000e-06	5.947843e-06	1.841486e-08	4.250225e+01	1.209115e+03
1.450000e-06	5.992552e-06	1.847068e-08	4.282173e+01	1.212753e+03
1.460000e-06	6.035193e-06	1.852309e-08	4.312643e+01	1.216143e+03
1.470000e-06	6.075537e-06	1.857044e-08	4.341473e+01	1.219278e+03
1.480000e-06	6.113721e-06	1.861282e-08	4.368758e+01	1.222159e+03
1.490000e-06	6.149958e-06	1.865146e-08	4.394652e+01	1.224792e+03
1.500000e-06	6.183956e-06	1.868602e-08	4.418947e+01	1.227186e+03
1.510000e-06	6.215592e-06	1.871839e-08	4.441554e+01	1.229353e+03
1.520000e-06	6.245174e-06	1.874778e-08	4.462693e+01	1.231306e+03
1.530000e-06	6.272753e-06	1.877341e-08	4.482400e+01	1.233056e+03
1.540000e-06	6.297984e-06	1.879450e-08	4.500430e+01	1.234614e+03
1.550000e-06	6.320776e-06	1.881351e-08	4.516716e+01	1.235990e+03
1.560000e-06	6.341452e-06	1.883224e-08	4.531491e+01	1.237189e+03
1.570000e-06	6.360033e-06	1.884826e-08	4.544769e+01	1.238219e+03
1.580000e-06	6.376216e-06	1.886216e-08	4.556333e+01	1.239086e+03
1.590000e-06	6.389895e-06	1.887324e-08	4.566107e+01	1.239793e+03
1.600000e-06	6.401095e-06	1.888168e-08	4.574110e+01	1.240346e+03
1.610000e-06	6.409757e-06	1.888888e-08	4.580300e+01	1.240749e+03
1.620000e-06	6.416110e-06	1.889375e-08	4.584840e+01	1.241006e+03
1.630000e-06	6.420343e-06	1.889727e-08	4.587865e+01	1.241119e+03
1.640000e-06	6.422295e-06	1.889935e-08	4.589260e+01	1.241088e+03
1.650000e-06	6.421894e-06	1.889855e-08	4.588973e+01	1.240915e+03
1.660000e-06	6.419330e-06	1.888751e-08	4.587141e+01	1.240600e+03
1.670000e-06	6.414762e-06	1.888238e-08	4.583877e+01	1.240146e+03
1.680000e-06	6.407970e-06	1.887764e-08	4.579024e+01	1.239556e+03
1.690000e-06	6.399006e-06	1.887043e-08	4.572618e+01	1.238834e+03
1.700000e-06	6.388108e-06	1.886320e-08	4.564831e+01	1.237987e+03
1.710000e-06	6.374997e-06	1.885435e-08	4.555462e+01	1.237022e+03
1.720000e-06	6.359638e-06	1.885371e-08	4.544487e+01	1.235947e+03
1.730000e-06	6.342311e-06	1.879755e-08	4.532105e+01	1.234768e+03
1.740000e-06	6.322821e-06	1.871425e-08	4.518177e+01	1.233486e+03
1.750000e-06	6.300354e-06	1.874353e-08	4.502123e+01	1.232099e+03
1.760000e-06	6.274774e-06	1.874229e-08	4.483844e+01	1.230601e+03
1.770000e-06	6.246998e-06	1.869173e-08	4.463996e+01	1.228980e+03
1.780000e-06	6.217415e-06	1.878765e-08	4.442857e+01	1.227219e+03
1.790000e-06	6.186235e-06	1.871332e-08	4.420576e+01	1.225300e+03
1.800000e-06	6.153614e-06	1.859383e-08	4.397265e+01	1.223204e+03
1.810000e-06	6.118876e-06	1.868195e-08	4.372442e+01	1.220915e+03
1.820000e-06	6.082021e-06	1.847160e-08	4.346106e+01	1.218423e+03
1.830000e-06	6.043083e-06	1.845886e-08	4.318281e+01	1.215725e+03
1.840000e-06	6.001803e-06	1.856040e-08	4.288784e+01	1.212824e+03
1.850000e-06	5.958604e-06	1.835115e-08	4.257915e+01	1.209733e+03
1.860000e-06	5.913376e-06	1.842125e-08	4.225595e+01	1.206469e+03
1.870000e-06	5.865877e-06	1.834792e-08	4.191653e+01	1.203051e+03
1.880000e-06	5.816269e-06	1.825272e-08	4.156204e+01	1.199498e+03
1.890000e-06	5.764133e-06	1.829383e-08	4.118949e+01	1.195823e+03
1.900000e-06	5.709531e-06	1.810193e-08	4.079931e+01	1.192028e+03
1.910000e-06	5.652783e-06	1.812359e-08	4.039380e+01	1.188108e+03
1.920000e-06	5.593985e-06	1.807363e-08	3.997364e+01	1.184044e+03
1.930000e-06	5.533316e-06	1.798393e-08	3.954011e+01	1.179809e+03
1.940000e-06	5.470448e-06	1.799175e-08	3.909086e+01	1.175373e+03
1.950000e-06	5.405493e-06	1.782135e-08	3.862671e+01	1.170705e+03
1.960000e-06	5.338583e-06	1.780084e-08	3.814858e+01	1.165777e+03
1.970000e-06	5.269656e-06	1.767116e-08	3.765604e+01	1.160572e+03
1.980000e-06	5.198686e-06	1.758495e-08	3.714890e+01	1.155084e+03
1.990000e-06	5.125773e-06	1.755471e-08	3.662788e+01	1.149315e+03
2.000000e-06	5.051106e-06	1.743230e-08	3.609432e+01	1.143277e+03
2.010000e-06	4.974368e-06	1.738851e-08	3.554596e+01	1.136986e+03
2.020000e-06	4.895558e-06	1.721819e-08	3.498280e+01	1.130456e+03
2.030000e-06	4.814916e-06	1.713110e-08	3.440655e+01	1.123695e+03
2.040000e-06	4.732648e-06	1.703725e-08	3.381868e+01	1.116703e+03
2.050000e-06	4.648881e-06	1.692253e-08	3.322009e+01	1.109467e+03
2.060000e-06	4.563496e-06	1.682875e-08	3.260994e+01	1.101967e+03
2.070000e-06	4.476435e-06	1.668705e-08	3.198782e+01	1.094175e+03
2.080000e-06	4.387741e-06	1.658429e-08	3.135403e+01	1.086064e+03
2.090000e-06	4.297575e-06	1.643122e-08	3.070972e+01	1.077608e+03
2.100000e-06	4.205960e-06	1.631627e-08	3.005506e+01	1.068786e+03
2.110000e-06	4.112926e-06	1.618059e-08	2.939025e+01	1.059588e+03
2.120000e-06	4.018506e-06	1.603332e-08	2.871554e+01	1.050007e+03
2.130000e-06	3.922553e-06	1.587879e-08	2.802988e+01	1.040045e+03
2.140000e-06	3.825160e-06	1.571145e-08	2.733393e+01	1.029699e+03
2.150000e-06	3.726506e-06	1.555891e-08	2.662896e+01	1.018965e+03
2.160000e-06	3.626464e-06	1.538252e-08	2.591408e+01	1.007832e+03
2.170000e-06	3.525068e-06	1.522260e-08	2.518952e+01	9.962761e+02
2.180000e-06	3.422381e-06	1.503880e-08	2.445574e+01	9.842681e+02
2.190000e-06	3.318297e-06	1.485148e-08	2.371197e+01	9.717699e+02
2.200000e-06	3.212985e-06	1.464836e-08	2.295943e+01	9.587402e+02
2.210000e-06	3.106624e-06	1.444346e-08	2.219939e+01	9.451374e+02
2.220000e-06	2.999200e-06	1.422805e-08	2.143176e+01	9.309221e+02
2.230000e-06	2.890707e-06	1.399918e-08	2.065649e+01	9.160587e+02
2.240000e-06	2.781251e-06	1.376614e-08	1.987433e+01	9.005145e+02
2.250000e-06	2.670816e-06	1.352324e-08	1.908518e+01	8.842582e+02
2.260000e-06	2.559276e-06	1.327066e-08	1.828814e+01	8.672571e+02
2.270000e-06	2.446694e-06	1.299763e-08	1.748364e+01	8.494738e+02
2.280000e-06	2.333161e-06	1.271750e-08	1.667236e+01	8.308646e+02
2.290000e-06	2.218745e-06	1.241986e-08	1.585477e+01	8.113781e+02
2.300000e-06	2.103462e-06	1.210909e-08	1.503097e+01	7.909548e+02
2.310000e-06	1.987270e-06	1.178133e-08	1.420068e+01	7.695285e+02
2.320000e-06	1.870276e-06	1.144144e-08	1.336467e+01	7.470268e+02
2.330000e-06	1.752678e-06	1.108455e-08	1.252433e+01	7.233721e+02
2.340000e-06	1.634523e-06	1.070266e-08	1.168001e+01	6.984829e+02
2.350000e-06	1.515636e-06	1.029932e-08	1.083047e+01	6.722750e+02
2.360000e-06	1.396111e-06	9.879562e-09	9.976364e+00	6.446638e+02
2.370000e-06	1.276105e-06	9.442050e-09	9.118824e+00	6.155689e+02
2.380000e-06	1.155638e-06	8.979218e-09	8.257987e+00	5.849220e+02
2.390000e-06	1.034834e-06	8.490618e-09	7.394744e+00	5.526768e+02
2.400000e-06	9.137562e-07	7.971546e-09	6.529542e+00	5.188217e+02
2.410000e-06	7.923846e-07	7.427277e-09	5.662242e+00	4.833923e+02
2.420000e-06	6.707569e-07	6.860159e-09	4.793111e+00	4.464817e+02
2.430000e-06	5.489745e-07	6.275732e-09	3.922876e+00	4.082451e+02
2.440000e-06	4.270563e-07	5.676091e-09	3.051669e+00	3.688957e+02
2.450000e-06	3.050431e-07	5.060828e-09	2.179785e+00	3.286915e+02
2.460000e-06	1.829270e-07	4.437512e-09	1.307164e+00	2.879122e+02
2.470000e-06	6.065709e-08	3.809207e-09	4.334450e-01	2.468285e+02
2.480000e-06	-6.165791e-08	3.181158e-09	-4.405966e-01	2.056688e+02
2.490000e-06	-1.838821e-07	2.555644e-09	-1.313990e+00	1.645882e+02
2.500000e-06	-3.060425e-07	1.931622e-09	-2.186926e+00	1.236460e+02
2.510000e-06	-4.281194e-07	1.306583e-09	-3.059267e+00	8.279659e+01
2.520000e-06	-5.500326e-07	6.793032e-10	-3.930437e+00	4.189732e+01
2.530000e-06	-6.718236e-07	4.962154e-11	-4.800734e+00	7.327179e-01
2.540000e-06	-7.934692e-07	-5.882247e-10	-5.669993e+00	-4.094680e+01
2.550000e-06	-9.148462e-07	-1.237507e-09	-6.537331e+00	-8.337793e+01
2.560000e-06	-1.035903e-06	-1.899657e-09	-7.402385e+00	-1.267364e+02
2.570000e-06	-1.156574e-06	-2.575644e-09	-8.264677e+00	-1.710956e+02
2.580000e-06	-1.276892e-06	-3.264907e-09	-9.124444e+00	-2.163994e+02
2.590000e-06	-1.396778e-06	-3.968062e-09	-9.981129e+00	-2.624530e+02
2.600000e-06	-1.516048e-06	-4.680089e-09	-1.083342e+01	-3.089343e+02
2.610000e-06	-1.634672e-06	-5.394671e-09	-1.168108e+01	-3.554233e+02
2.620000e-06	-1.752588e-06	-6.102206e-09	-1.252369e+01	-4.014442e+02
2.630000e-06	-1.869722e-06	-6.793698e-09	-1.336071e+01	-4.465144e+02
2.640000e-06	-1.986024e-06	-7.463008e-09	-1.419178e+01	-4.901917e+02
2.650000e-06	-2.101450e-06	-8.104094e-09	-1.501659e+01	-5.321122e+02
2.660000e-06	-2.215957e-06	-8.714502e-09	-1.583484e+01	-5.720161e+02
2.670000e-06	-2.329513e-06	-9.293148e-09	-1.664630e+01	-6.097565e+02
2.680000e-06	-2.442028e-06	-9.838019e-09	-1.745030e+01	-6.452937e+02
2.690000e-06	-2.553523e-06	-1.034690e-08	-1.824703e+01	-6.786767e+02
2.700000e-06	-2.663980e-06	-1.082422e-08	-1.903634e+01	-7.100182e+02
2.710000e-06	-2.773433e-06	-1.127541e-08	-1.981846e+01	-7.394665e+02
2.720000e-06	-2.882050e-06	-1.170172e-08	-2.059462e+01	-7.671805e+02
2.730000e-06	-2.989779e-06	-1.210427e-08	-2.136444e+01	-7.933110e+02
2.740000e-06	-3.096535e-06	-1.248406e-08	-2.212730e+01	-8.179892e+02
2.750000e-06	-3.202258e-06	-1.283982e-08	-2.288278e+01	-8.413233e+02
2.760000e-06	-3.306825e-06	-1.317299e-08	-2.362999e+01	-8.634001e+02
2.770000e-06	-3.410158e-06	-1.348900e-08	-2.436840e+01	-8.842918e+02
2.780000e-06	-3.512205e-06	-1.379107e-08	-2.509761e+01	-9.040616e+02
2.790000e-06	-3.612887e-06	-1.407853e-08	-2.581706e+01	-9.227705e+02
2.800000e-06	-3.712325e-06	-1.435052e-08	-2.652763e+01	-9.404803e+02
2.810000e-06	-3.810538e-06	-1.460774e-08	-2.722944e+01	-9.572542e+02
2.820000e-06	-3.907428e-06	-1.485175e-08	-2.792180e+01	-9.731562e+02
2.830000e-06	-4.003037e-06	-1.508358e-08	-2.860500e+01	-9.882480e+02
2.840000e-06	-4.097205e-06	-1.530474e-08	-2.927791e+01	-1.002587e+03
2.850000e-06	-4.189812e-06	-1.551690e-08	-2.993966e+01	-1.016225e+03
2.860000e-06	-4.280979e-06	-1.571890e-08	-3.059113e+01	-1.029205e+03
2.870000e-06	-4.370671e-06	-1.590809e-08	-3.123205e+01	-1.041565e+03
2.880000e-06	-4.458784e-06	-1.608589e-08	-3.186169e+01	-1.053337e+03
2.890000e-06	-4.545191e-06	-1.625608e-08	-3.247914e+01	-1.064548e+03
2.900000e-06	-4.629823e-06	-1.641782e-08	-3.308391e+01	-1.075222e+03
2.910000e-06	-4.712917e-06	-1.657097e-08	-3.367768e+01	-1.085379e+03
2.920000e-06	-4.794503e-06	-1.671813e-08	-3.426068e+01	-1.095038e+03
2.930000e-06	-4.874407e-06	-1.686034e-08	-3.483166e+01	-1.104213e+03
2.940000e-06	-4.952222e-06	-1.699463e-08	-3.538771e+01	-1.112918e+03
