# Temperatura_=_42.24
# Concentracion g/m^3_=_28200.0
# C_Vs_to_Am_M_A/Vsm_=_65563218390.804596
# pendiente_HvsI_1/m_=_3716.3
# ordenada_HvsI_A/m_=_1297.0
# frecuencia_Hz_=_302099.05205544404

Tiempo_(s)	Campo_(V.s)	Magnetizacion_(V.s)	Campo_(kA/m)	Magnetizacion_(A/m)
0.000000e+00	-6.382763e-06	-1.997640e-08	-4.557792e+01	-1.309715e+03
1.000000e-08	-6.379418e-06	-1.997408e-08	-4.555404e+01	-1.309348e+03
2.000000e-08	-6.373993e-06	-1.996565e-08	-4.551530e+01	-1.308768e+03
3.000000e-08	-6.366637e-06	-1.995356e-08	-4.546277e+01	-1.307995e+03
4.000000e-08	-6.357117e-06	-1.994000e-08	-4.539479e+01	-1.307072e+03
5.000000e-08	-6.345225e-06	-1.992744e-08	-4.530988e+01	-1.306056e+03
6.000000e-08	-6.330963e-06	-1.991060e-08	-4.520803e+01	-1.305002e+03
7.000000e-08	-6.314333e-06	-1.988509e-08	-4.508928e+01	-1.303945e+03
8.000000e-08	-6.295678e-06	-1.988017e-08	-4.495607e+01	-1.302893e+03
9.000000e-08	-6.274984e-06	-1.989283e-08	-4.480829e+01	-1.301815e+03
1.000000e-07	-6.251774e-06	-1.986636e-08	-4.464256e+01	-1.300644e+03
1.100000e-07	-6.225985e-06	-1.981712e-08	-4.445840e+01	-1.299294e+03
1.200000e-07	-6.197981e-06	-1.979527e-08	-4.425843e+01	-1.297668e+03
1.300000e-07	-6.168113e-06	-1.974892e-08	-4.404515e+01	-1.295686e+03
1.400000e-07	-6.136577e-06	-1.967467e-08	-4.381996e+01	-1.293301e+03
1.500000e-07	-6.103283e-06	-1.970142e-08	-4.358222e+01	-1.290505e+03
1.600000e-07	-6.067937e-06	-1.969006e-08	-4.332982e+01	-1.287338e+03
1.700000e-07	-6.030678e-06	-1.960234e-08	-4.306376e+01	-1.283876e+03
1.800000e-07	-5.991352e-06	-1.961451e-08	-4.278294e+01	-1.280215e+03
1.900000e-07	-5.949609e-06	-1.954792e-08	-4.248487e+01	-1.276454e+03
2.000000e-07	-5.905709e-06	-1.946567e-08	-4.217138e+01	-1.272675e+03
2.100000e-07	-5.859790e-06	-1.945435e-08	-4.184349e+01	-1.268925e+03
2.200000e-07	-5.811617e-06	-1.935822e-08	-4.149950e+01	-1.265214e+03
2.300000e-07	-5.760873e-06	-1.927517e-08	-4.113714e+01	-1.261514e+03
2.400000e-07	-5.707632e-06	-1.922970e-08	-4.075696e+01	-1.257769e+03
2.500000e-07	-5.652211e-06	-1.917348e-08	-4.036121e+01	-1.253908e+03
2.600000e-07	-5.594644e-06	-1.911263e-08	-3.995013e+01	-1.249862e+03
2.700000e-07	-5.535006e-06	-1.904288e-08	-3.952427e+01	-1.245577e+03
2.800000e-07	-5.473415e-06	-1.896740e-08	-3.908447e+01	-1.241018e+03
2.900000e-07	-5.409829e-06	-1.885715e-08	-3.863042e+01	-1.236172e+03
3.000000e-07	-5.344076e-06	-1.878586e-08	-3.816088e+01	-1.231046e+03
3.100000e-07	-5.276220e-06	-1.874873e-08	-3.767634e+01	-1.225657e+03
3.200000e-07	-5.206451e-06	-1.865984e-08	-3.717813e+01	-1.220021e+03
3.300000e-07	-5.134869e-06	-1.855264e-08	-3.666698e+01	-1.214150e+03
3.400000e-07	-5.061456e-06	-1.844733e-08	-3.614275e+01	-1.208046e+03
3.500000e-07	-4.985924e-06	-1.835598e-08	-3.560340e+01	-1.201698e+03
3.600000e-07	-4.908225e-06	-1.825363e-08	-3.504857e+01	-1.195092e+03
3.700000e-07	-4.828459e-06	-1.815508e-08	-3.447898e+01	-1.188210e+03
3.800000e-07	-4.746898e-06	-1.805826e-08	-3.389657e+01	-1.181037e+03
3.900000e-07	-4.663861e-06	-1.792419e-08	-3.330362e+01	-1.173564e+03
4.000000e-07	-4.579432e-06	-1.779048e-08	-3.270073e+01	-1.165786e+03
4.100000e-07	-4.493574e-06	-1.767079e-08	-3.208763e+01	-1.157707e+03
4.200000e-07	-4.406249e-06	-1.755082e-08	-3.146406e+01	-1.149325e+03
4.300000e-07	-4.317458e-06	-1.741449e-08	-3.083003e+01	-1.140641e+03
4.400000e-07	-4.226973e-06	-1.727478e-08	-3.018389e+01	-1.131643e+03
4.500000e-07	-4.134827e-06	-1.713291e-08	-2.952590e+01	-1.122316e+03
4.600000e-07	-4.041260e-06	-1.697749e-08	-2.885776e+01	-1.112635e+03
4.700000e-07	-3.946320e-06	-1.682360e-08	-2.817982e+01	-1.102574e+03
4.800000e-07	-3.850031e-06	-1.667024e-08	-2.749224e+01	-1.092105e+03
4.900000e-07	-3.752300e-06	-1.649994e-08	-2.679436e+01	-1.081203e+03
5.000000e-07	-3.653030e-06	-1.631290e-08	-2.608550e+01	-1.069850e+03
5.100000e-07	-3.552359e-06	-1.612777e-08	-2.536662e+01	-1.058029e+03
5.200000e-07	-3.450534e-06	-1.594231e-08	-2.463951e+01	-1.045727e+03
5.300000e-07	-3.347580e-06	-1.574612e-08	-2.390434e+01	-1.032928e+03
5.400000e-07	-3.243423e-06	-1.554179e-08	-2.316058e+01	-1.019611e+03
5.500000e-07	-3.138015e-06	-1.532954e-08	-2.240788e+01	-1.005747e+03
5.600000e-07	-3.031199e-06	-1.510349e-08	-2.164513e+01	-9.912980e+02
5.700000e-07	-2.923199e-06	-1.486743e-08	-2.087393e+01	-9.762203e+02
5.800000e-07	-2.814216e-06	-1.462717e-08	-2.009571e+01	-9.604644e+02
5.900000e-07	-2.704245e-06	-1.437700e-08	-1.931042e+01	-9.439797e+02
6.000000e-07	-2.593383e-06	-1.411091e-08	-1.851878e+01	-9.267172e+02
6.100000e-07	-2.481527e-06	-1.382974e-08	-1.772004e+01	-9.086304e+02
6.200000e-07	-2.368732e-06	-1.353769e-08	-1.691460e+01	-8.896755e+02
6.300000e-07	-2.254931e-06	-1.323387e-08	-1.610197e+01	-8.698083e+02
6.400000e-07	-2.139926e-06	-1.291654e-08	-1.528075e+01	-8.489815e+02
6.500000e-07	-2.023972e-06	-1.258125e-08	-1.445275e+01	-8.271400e+02
6.600000e-07	-1.907371e-06	-1.222548e-08	-1.362012e+01	-8.042180e+02
6.700000e-07	-1.790069e-06	-1.185289e-08	-1.278249e+01	-7.801366e+02
6.800000e-07	-1.672127e-06	-1.146393e-08	-1.194030e+01	-7.548039e+02
6.900000e-07	-1.553711e-06	-1.105454e-08	-1.109472e+01	-7.281174e+02
7.000000e-07	-1.434809e-06	-1.062469e-08	-1.024566e+01	-6.999683e+02
7.100000e-07	-1.315443e-06	-1.017076e-08	-9.393291e+00	-6.702488e+02
7.200000e-07	-1.195631e-06	-9.688353e-09	-8.537739e+00	-6.388615e+02
7.300000e-07	-1.075401e-06	-9.179017e-09	-7.679203e+00	-6.057301e+02
7.400000e-07	-9.548342e-07	-8.643590e-09	-6.818264e+00	-5.708118e+02
7.500000e-07	-8.339335e-07	-8.085486e-09	-5.954938e+00	-5.341094e+02
7.600000e-07	-7.126781e-07	-7.500606e-09	-5.089079e+00	-4.956820e+02
7.700000e-07	-5.911463e-07	-6.887617e-09	-4.221247e+00	-4.556515e+02
7.800000e-07	-4.694320e-07	-6.252182e-09	-3.352112e+00	-4.142032e+02
7.900000e-07	-3.475571e-07	-5.600558e-09	-2.481830e+00	-3.715781e+02
8.000000e-07	-2.254944e-07	-4.936242e-09	-1.610207e+00	-3.280555e+02
8.100000e-07	-1.032538e-07	-4.264579e-09	-7.373130e-01	-2.839280e+02
8.200000e-07	1.910214e-08	-3.592366e-09	1.364042e-01	-2.394686e+02
8.300000e-07	1.415388e-07	-2.919276e-09	1.010698e+00	-1.948966e+02
8.400000e-07	2.638953e-07	-2.244605e-09	1.884419e+00	-1.503475e+02
8.500000e-07	3.861312e-07	-1.567445e-09	2.757279e+00	-1.058519e+02
8.600000e-07	5.082329e-07	-8.875130e-10	3.629180e+00	-6.133051e+01
8.700000e-07	6.300821e-07	-2.053451e-10	4.499279e+00	-1.660666e+01
8.800000e-07	7.517093e-07	4.808270e-10	5.367793e+00	2.856178e+01
8.900000e-07	8.731102e-07	1.176516e-09	6.234690e+00	7.443621e+01
9.000000e-07	9.942404e-07	1.888142e-09	7.099655e+00	1.212427e+02
9.100000e-07	1.115011e-06	2.615735e-09	7.962050e+00	1.691186e+02
9.200000e-07	1.235399e-06	3.357541e-09	8.821714e+00	2.180693e+02
9.300000e-07	1.355369e-06	4.113972e-09	9.678398e+00	2.679435e+02
9.400000e-07	1.474817e-06	4.884901e-09	1.053135e+01	3.184333e+02
9.500000e-07	1.593704e-06	5.661957e-09	1.138029e+01	3.690968e+02
9.600000e-07	1.712055e-06	6.430523e-09	1.222541e+01	4.194035e+02
9.700000e-07	1.829812e-06	7.181161e-09	1.306629e+01	4.687910e+02
9.800000e-07	1.946881e-06	7.907248e-09	1.390226e+01	5.167262e+02
9.900000e-07	2.063239e-06	8.601656e-09	1.473314e+01	5.627586e+02
1.000000e-06	2.178828e-06	9.261417e-09	1.555854e+01	6.065584e+02
1.010000e-06	2.293416e-06	9.887306e-09	1.637678e+01	6.479340e+02
1.020000e-06	2.406845e-06	1.047882e-08	1.718676e+01	6.868277e+02
1.030000e-06	2.519251e-06	1.103659e-08	1.798942e+01	7.232940e+02
1.040000e-06	2.630718e-06	1.155737e-08	1.878539e+01	7.574658e+02
1.050000e-06	2.741201e-06	1.204514e-08	1.957432e+01	7.895171e+02
1.060000e-06	2.850798e-06	1.250379e-08	2.035693e+01	8.196292e+02
1.070000e-06	2.959542e-06	1.293637e-08	2.113344e+01	8.479675e+02
1.080000e-06	3.067333e-06	1.334233e-08	2.190316e+01	8.746689e+02
1.090000e-06	3.174081e-06	1.372385e-08	2.266542e+01	8.998419e+02
1.100000e-06	3.279564e-06	1.408593e-08	2.341865e+01	9.235743e+02
1.110000e-06	3.383792e-06	1.442766e-08	2.416292e+01	9.459449e+02
1.120000e-06	3.486727e-06	1.474921e-08	2.489796e+01	9.670336e+02
1.130000e-06	3.588427e-06	1.505027e-08	2.562418e+01	9.869280e+02
1.140000e-06	3.689040e-06	1.533525e-08	2.634263e+01	1.005723e+03
1.150000e-06	3.788463e-06	1.560675e-08	2.705259e+01	1.023516e+03
1.160000e-06	3.886453e-06	1.586518e-08	2.775232e+01	1.040397e+03
1.170000e-06	3.982815e-06	1.610885e-08	2.844042e+01	1.056445e+03
1.180000e-06	4.077706e-06	1.633841e-08	2.911801e+01	1.071719e+03
1.190000e-06	4.171284e-06	1.655644e-08	2.978623e+01	1.086258e+03
1.200000e-06	4.263577e-06	1.676466e-08	3.044528e+01	1.100088e+03
1.210000e-06	4.354437e-06	1.696256e-08	3.109409e+01	1.113228e+03
1.220000e-06	4.443605e-06	1.715154e-08	3.173082e+01	1.125697e+03
1.230000e-06	4.531103e-06	1.733210e-08	3.235562e+01	1.137524e+03
1.240000e-06	4.617019e-06	1.750399e-08	3.296913e+01	1.148743e+03
1.250000e-06	4.701383e-06	1.766790e-08	3.357155e+01	1.159400e+03
1.260000e-06	4.784240e-06	1.782418e-08	3.416322e+01	1.169540e+03
1.270000e-06	4.865322e-06	1.797440e-08	3.474221e+01	1.179201e+03
1.280000e-06	4.944465e-06	1.811644e-08	3.530735e+01	1.188413e+03
1.290000e-06	5.021792e-06	1.824832e-08	3.585953e+01	1.197187e+03
1.300000e-06	5.097275e-06	1.837352e-08	3.639853e+01	1.205524e+03
1.310000e-06	5.170698e-06	1.849476e-08	3.692283e+01	1.213416e+03
1.320000e-06	5.242117e-06	1.861041e-08	3.743282e+01	1.220855e+03
1.330000e-06	5.311699e-06	1.871691e-08	3.792969e+01	1.227845e+03
1.340000e-06	5.379448e-06	1.881702e-08	3.841347e+01	1.234404e+03
1.350000e-06	5.445272e-06	1.891247e-08	3.888350e+01	1.240566e+03
1.360000e-06	5.509055e-06	1.900306e-08	3.933896e+01	1.246382e+03
1.370000e-06	5.570885e-06	1.908938e-08	3.978048e+01	1.251905e+03
1.380000e-06	5.630896e-06	1.917010e-08	4.020900e+01	1.257185e+03
1.390000e-06	5.688953e-06	1.924714e-08	4.062357e+01	1.262260e+03
1.400000e-06	5.744880e-06	1.931999e-08	4.102294e+01	1.267146e+03
1.410000e-06	5.798758e-06	1.938953e-08	4.140767e+01	1.271841e+03
1.420000e-06	5.850412e-06	1.945815e-08	4.177652e+01	1.276323e+03
1.430000e-06	5.899583e-06	1.952465e-08	4.212764e+01	1.280567e+03
1.440000e-06	5.946481e-06	1.958573e-08	4.246253e+01	1.284544e+03
1.450000e-06	5.991440e-06	1.964039e-08	4.278357e+01	1.288241e+03
1.460000e-06	6.034392e-06	1.969086e-08	4.309028e+01	1.291656e+03
1.470000e-06	6.075040e-06	1.973792e-08	4.338054e+01	1.294805e+03
1.480000e-06	6.113481e-06	1.978286e-08	4.365504e+01	1.297712e+03
1.490000e-06	6.150018e-06	1.982522e-08	4.391594e+01	1.300406e+03
1.500000e-06	6.184479e-06	1.986291e-08	4.416202e+01	1.302908e+03
1.510000e-06	6.216568e-06	1.989655e-08	4.439116e+01	1.305230e+03
1.520000e-06	6.246395e-06	1.992788e-08	4.460415e+01	1.307368e+03
1.530000e-06	6.274186e-06	1.995713e-08	4.480260e+01	1.309306e+03
1.540000e-06	6.299720e-06	1.998304e-08	4.498493e+01	1.311026e+03
1.550000e-06	6.322807e-06	2.000482e-08	4.514979e+01	1.312513e+03
1.560000e-06	6.343734e-06	2.002355e-08	4.529923e+01	1.313761e+03
1.570000e-06	6.362592e-06	2.004018e-08	4.543389e+01	1.314784e+03
1.580000e-06	6.379080e-06	2.005440e-08	4.555162e+01	1.315609e+03
1.590000e-06	6.393116e-06	2.006514e-08	4.565185e+01	1.316270e+03
1.600000e-06	6.404704e-06	2.007343e-08	4.573460e+01	1.316805e+03
1.610000e-06	6.413638e-06	2.008099e-08	4.579839e+01	1.317239e+03
1.620000e-06	6.420172e-06	2.008700e-08	4.584505e+01	1.317581e+03
1.630000e-06	6.424625e-06	2.009192e-08	4.587685e+01	1.317819e+03
1.640000e-06	6.426831e-06	2.009540e-08	4.589260e+01	1.317924e+03
1.650000e-06	6.426688e-06	2.009606e-08	4.589158e+01	1.317862e+03
1.660000e-06	6.424387e-06	2.009039e-08	4.587515e+01	1.317601e+03
1.670000e-06	6.420095e-06	2.008064e-08	4.584450e+01	1.317125e+03
1.680000e-06	6.413627e-06	2.007224e-08	4.579832e+01	1.316443e+03
1.690000e-06	6.405001e-06	2.006424e-08	4.573672e+01	1.315587e+03
1.700000e-06	6.394396e-06	2.005690e-08	4.566099e+01	1.314609e+03
1.710000e-06	6.381606e-06	2.004694e-08	4.556966e+01	1.313566e+03
1.720000e-06	6.366477e-06	2.003693e-08	4.546163e+01	1.312506e+03
1.730000e-06	6.349329e-06	1.999674e-08	4.533918e+01	1.311451e+03
1.740000e-06	6.330124e-06	1.994056e-08	4.520204e+01	1.310391e+03
1.750000e-06	6.308041e-06	1.993527e-08	4.504435e+01	1.309275e+03
1.760000e-06	6.282810e-06	1.994105e-08	4.486418e+01	1.308024e+03
1.770000e-06	6.255157e-06	1.990919e-08	4.466671e+01	1.306546e+03
1.780000e-06	6.225717e-06	1.991172e-08	4.445649e+01	1.304749e+03
1.790000e-06	6.194718e-06	1.990791e-08	4.423514e+01	1.302568e+03
1.800000e-06	6.162248e-06	1.986716e-08	4.400327e+01	1.299973e+03
1.810000e-06	6.127773e-06	1.981177e-08	4.375709e+01	1.296983e+03
1.820000e-06	6.091287e-06	1.964715e-08	4.349656e+01	1.293655e+03
1.830000e-06	6.052800e-06	1.955584e-08	4.322173e+01	1.290080e+03
1.840000e-06	6.011916e-06	1.958264e-08	4.292978e+01	1.286356e+03
1.850000e-06	5.968978e-06	1.947832e-08	4.262318e+01	1.282576e+03
1.860000e-06	5.924025e-06	1.940830e-08	4.230218e+01	1.278806e+03
1.870000e-06	5.876857e-06	1.939295e-08	4.196536e+01	1.275075e+03
1.880000e-06	5.827536e-06	1.933812e-08	4.161316e+01	1.271374e+03
1.890000e-06	5.775706e-06	1.932164e-08	4.124306e+01	1.267658e+03
1.900000e-06	5.721289e-06	1.921150e-08	4.085448e+01	1.263862e+03
1.910000e-06	5.664706e-06	1.914315e-08	4.045043e+01	1.259916e+03
1.920000e-06	5.606122e-06	1.911338e-08	4.003210e+01	1.255754e+03
1.930000e-06	5.545669e-06	1.904683e-08	3.960041e+01	1.251333e+03
1.940000e-06	5.483065e-06	1.902413e-08	3.915337e+01	1.246629e+03
1.950000e-06	5.418317e-06	1.890920e-08	3.869102e+01	1.241641e+03
1.960000e-06	5.351667e-06	1.881996e-08	3.821509e+01	1.236379e+03
1.970000e-06	5.283045e-06	1.874183e-08	3.772508e+01	1.230863e+03
1.980000e-06	5.212335e-06	1.861889e-08	3.722015e+01	1.225107e+03
1.990000e-06	5.139535e-06	1.855481e-08	3.670030e+01	1.219119e+03
2.000000e-06	5.065008e-06	1.847492e-08	3.616812e+01	1.212893e+03
2.010000e-06	4.988552e-06	1.839413e-08	3.562216e+01	1.206417e+03
2.020000e-06	4.909936e-06	1.827128e-08	3.506078e+01	1.199673e+03
2.030000e-06	4.829420e-06	1.815412e-08	3.448584e+01	1.192646e+03
2.040000e-06	4.747241e-06	1.806223e-08	3.389901e+01	1.185322e+03
2.050000e-06	4.663621e-06	1.793425e-08	3.330191e+01	1.177695e+03
2.060000e-06	4.578426e-06	1.781835e-08	3.269354e+01	1.169764e+03
2.070000e-06	4.491442e-06	1.768729e-08	3.207241e+01	1.161532e+03
2.080000e-06	4.402815e-06	1.756537e-08	3.143954e+01	1.152999e+03
2.090000e-06	4.312728e-06	1.743862e-08	3.079626e+01	1.144158e+03
2.100000e-06	4.221239e-06	1.730945e-08	3.014295e+01	1.134996e+03
2.110000e-06	4.128349e-06	1.716872e-08	2.947965e+01	1.125494e+03
2.120000e-06	4.033942e-06	1.700497e-08	2.880550e+01	1.115625e+03
2.130000e-06	3.937991e-06	1.684586e-08	2.812034e+01	1.105361e+03
2.140000e-06	3.840679e-06	1.668431e-08	2.742545e+01	1.094677e+03
2.150000e-06	3.742080e-06	1.652112e-08	2.672138e+01	1.083550e+03
2.160000e-06	3.642255e-06	1.634334e-08	2.600855e+01	1.071963e+03
2.170000e-06	3.541130e-06	1.616887e-08	2.528644e+01	1.059902e+03
2.180000e-06	3.438502e-06	1.598037e-08	2.455360e+01	1.047352e+03
2.190000e-06	3.334399e-06	1.577909e-08	2.381022e+01	1.034296e+03
2.200000e-06	3.229097e-06	1.557775e-08	2.305828e+01	1.020708e+03
2.210000e-06	3.122765e-06	1.536984e-08	2.229898e+01	1.006555e+03
2.220000e-06	3.015385e-06	1.514460e-08	2.153221e+01	9.917961e+02
2.230000e-06	2.907002e-06	1.490129e-08	2.075827e+01	9.763841e+02
2.240000e-06	2.797611e-06	1.465614e-08	1.997713e+01	9.602685e+02
2.250000e-06	2.687145e-06	1.440506e-08	1.918832e+01	9.433993e+02
2.260000e-06	2.575583e-06	1.414168e-08	1.839168e+01	9.257287e+02
2.270000e-06	2.463075e-06	1.386041e-08	1.758828e+01	9.072117e+02
2.280000e-06	2.349624e-06	1.356606e-08	1.677815e+01	8.878047e+02
2.290000e-06	2.235192e-06	1.325813e-08	1.596102e+01	8.674625e+02
2.300000e-06	2.119923e-06	1.293570e-08	1.513791e+01	8.461343e+02
2.310000e-06	2.003867e-06	1.259701e-08	1.430918e+01	8.237600e+02
2.320000e-06	1.887030e-06	1.224323e-08	1.347487e+01	8.002674e+02
2.330000e-06	1.769441e-06	1.187147e-08	1.263520e+01	7.755711e+02
2.340000e-06	1.651075e-06	1.147407e-08	1.178997e+01	7.495733e+02
2.350000e-06	1.532028e-06	1.105484e-08	1.093988e+01	7.221676e+02
2.360000e-06	1.412435e-06	1.061625e-08	1.008589e+01	6.932448e+02
2.370000e-06	1.292335e-06	1.015579e-08	9.228283e+00	6.627010e+02
2.380000e-06	1.171844e-06	9.667532e-09	8.367883e+00	6.304479e+02
2.390000e-06	1.051063e-06	9.149681e-09	7.505414e+00	5.964242e+02
2.400000e-06	9.299840e-07	8.605450e-09	6.640814e+00	5.606086e+02
2.410000e-06	8.086511e-07	8.033968e-09	5.774402e+00	5.230309e+02
2.420000e-06	6.870752e-07	7.434802e-09	4.906254e+00	4.837812e+02
2.430000e-06	5.652557e-07	6.814160e-09	4.036368e+00	4.430133e+02
2.440000e-06	4.432801e-07	6.174937e-09	3.165367e+00	4.009420e+02
2.450000e-06	3.211664e-07	5.515714e-09	2.293380e+00	3.578302e+02
2.460000e-06	1.988982e-07	4.841692e-09	1.420289e+00	3.139675e+02
2.470000e-06	7.648397e-08	4.162084e-09	5.461554e-01	2.696409e+02
2.480000e-06	-4.595756e-08	3.485118e-09	-3.281730e-01	2.251008e+02
2.490000e-06	-1.683419e-07	2.806514e-09	-1.202093e+00	1.805280e+02
2.500000e-06	-2.906918e-07	2.122200e-09	-2.075767e+00	1.360072e+02
2.510000e-06	-4.129489e-07	1.438104e-09	-2.948778e+00	9.151368e+01
2.520000e-06	-5.350750e-07	7.518783e-10	-3.820854e+00	4.691660e+01
2.530000e-06	-6.570758e-07	6.310384e-11	-4.692035e+00	2.001591e+00
2.540000e-06	-7.788591e-07	-6.322331e-10	-5.561664e+00	-4.348962e+01
2.550000e-06	-9.003596e-07	-1.339511e-09	-6.429272e+00	-8.980777e+01
2.560000e-06	-1.021542e-06	-2.062833e-09	-7.294606e+00	-1.371408e+02
2.570000e-06	-1.142386e-06	-2.803660e-09	-8.157533e+00	-1.855644e+02
2.580000e-06	-1.262837e-06	-3.556823e-09	-9.017641e+00	-2.350074e+02
2.590000e-06	-1.382876e-06	-4.322347e-09	-9.874814e+00	-2.852386e+02
2.600000e-06	-1.502430e-06	-5.097735e-09	-1.072852e+01	-3.358788e+02
2.610000e-06	-1.621291e-06	-5.873064e-09	-1.157729e+01	-3.864353e+02
2.620000e-06	-1.739320e-06	-6.637634e-09	-1.242011e+01	-4.363537e+02
2.630000e-06	-1.856535e-06	-7.382554e-09	-1.325711e+01	-4.850793e+02
2.640000e-06	-1.972983e-06	-8.101792e-09	-1.408864e+01	-5.321141e+02
2.650000e-06	-2.088633e-06	-8.790010e-09	-1.491447e+01	-5.770645e+02
2.660000e-06	-2.203413e-06	-9.441980e-09	-1.573409e+01	-6.196690e+02
2.670000e-06	-2.317208e-06	-1.005837e-08	-1.654668e+01	-6.598046e+02
2.680000e-06	-2.429873e-06	-1.063856e-08	-1.735120e+01	-6.974736e+02
2.690000e-06	-2.541402e-06	-1.118049e-08	-1.814760e+01	-7.327742e+02
2.700000e-06	-2.651992e-06	-1.168413e-08	-1.893730e+01	-7.658644e+02
2.710000e-06	-2.761691e-06	-1.215654e-08	-1.972063e+01	-7.969256e+02
2.720000e-06	-2.870442e-06	-1.260405e-08	-2.049720e+01	-8.261334e+02
2.730000e-06	-2.978340e-06	-1.302436e-08	-2.126768e+01	-8.536395e+02
2.740000e-06	-3.085310e-06	-1.342006e-08	-2.203153e+01	-8.795663e+02
2.750000e-06	-3.191250e-06	-1.379304e-08	-2.278802e+01	-9.040104e+02
2.760000e-06	-3.296071e-06	-1.414232e-08	-2.353653e+01	-9.270537e+02
2.770000e-06	-3.399655e-06	-1.447185e-08	-2.427620e+01	-9.487745e+02
2.780000e-06	-3.501921e-06	-1.478583e-08	-2.500646e+01	-9.692562e+02
2.790000e-06	-3.602879e-06	-1.508442e-08	-2.572737e+01	-9.885903e+02
2.800000e-06	-3.702567e-06	-1.536640e-08	-2.643923e+01	-1.006874e+03
2.810000e-06	-3.800956e-06	-1.563213e-08	-2.714180e+01	-1.024202e+03
2.820000e-06	-3.898093e-06	-1.588196e-08	-2.783544e+01	-1.040659e+03
2.830000e-06	-3.994014e-06	-1.612045e-08	-2.852038e+01	-1.056315e+03
2.840000e-06	-4.088481e-06	-1.635060e-08	-2.919496e+01	-1.071219e+03
2.850000e-06	-4.181376e-06	-1.657076e-08	-2.985830e+01	-1.085403e+03
2.860000e-06	-4.272831e-06	-1.677944e-08	-3.051136e+01	-1.098887e+03
2.870000e-06	-4.362752e-06	-1.697602e-08	-3.115347e+01	-1.111690e+03
2.880000e-06	-4.451113e-06	-1.716134e-08	-3.178443e+01	-1.123836e+03
2.890000e-06	-4.537792e-06	-1.733578e-08	-3.240338e+01	-1.135356e+03
2.900000e-06	-4.622690e-06	-1.750058e-08	-3.300962e+01	-1.146290e+03
2.910000e-06	-4.706005e-06	-1.765740e-08	-3.360456e+01	-1.156684e+03
2.920000e-06	-4.787799e-06	-1.780816e-08	-3.418863e+01	-1.166582e+03
2.930000e-06	-4.867866e-06	-1.795358e-08	-3.476037e+01	-1.176017e+03
2.940000e-06	-4.945929e-06	-1.809171e-08	-3.531781e+01	-1.185011e+03
