# Temperatura_=_49.88
# Concentracion g/m^3_=_28200.0
# C_Vs_to_Am_M_A/Vsm_=_65563218390.804596
# pendiente_HvsI_1/m_=_3716.3
# ordenada_HvsI_A/m_=_1297.0
# frecuencia_Hz_=_302098.25257279794

Tiempo_(s)	Campo_(V.s)	Magnetizacion_(V.s)	Campo_(kA/m)	Magnetizacion_(A/m)
0.000000e+00	-6.389359e-06	-2.004857e-08	-4.557223e+01	-1.310801e+03
1.000000e-08	-6.385608e-06	-2.004401e-08	-4.554548e+01	-1.310449e+03
2.000000e-08	-6.379874e-06	-2.003620e-08	-4.550458e+01	-1.309968e+03
3.000000e-08	-6.372258e-06	-2.003009e-08	-4.545025e+01	-1.309342e+03
4.000000e-08	-6.362485e-06	-2.001813e-08	-4.538055e+01	-1.308553e+03
5.000000e-08	-6.350264e-06	-2.000069e-08	-4.529338e+01	-1.307585e+03
6.000000e-08	-6.335643e-06	-1.997783e-08	-4.518910e+01	-1.306427e+03
7.000000e-08	-6.318732e-06	-1.994310e-08	-4.506848e+01	-1.305084e+03
8.000000e-08	-6.299797e-06	-1.994338e-08	-4.493343e+01	-1.303573e+03
9.000000e-08	-6.278706e-06	-2.002049e-08	-4.478299e+01	-1.301926e+03
1.000000e-07	-6.255148e-06	-1.993065e-08	-4.461497e+01	-1.300188e+03
1.100000e-07	-6.228956e-06	-1.983517e-08	-4.442815e+01	-1.298405e+03
1.200000e-07	-6.200470e-06	-1.984526e-08	-4.422498e+01	-1.296615e+03
1.300000e-07	-6.170205e-06	-1.977276e-08	-4.400911e+01	-1.294844e+03
1.400000e-07	-6.138389e-06	-1.963637e-08	-4.378218e+01	-1.293092e+03
1.500000e-07	-6.104713e-06	-1.984194e-08	-4.354199e+01	-1.291333e+03
1.600000e-07	-6.069027e-06	-1.977839e-08	-4.328745e+01	-1.289517e+03
1.700000e-07	-6.031552e-06	-1.955665e-08	-4.302017e+01	-1.287577e+03
1.800000e-07	-5.991894e-06	-1.975985e-08	-4.273730e+01	-1.285440e+03
1.900000e-07	-5.949749e-06	-1.953809e-08	-4.243670e+01	-1.283039e+03
2.000000e-07	-5.905448e-06	-1.947538e-08	-4.212073e+01	-1.280327e+03
2.100000e-07	-5.859033e-06	-1.954514e-08	-4.178967e+01	-1.277281e+03
2.200000e-07	-5.810337e-06	-1.931488e-08	-4.144234e+01	-1.273907e+03
2.300000e-07	-5.759212e-06	-1.932274e-08	-4.107769e+01	-1.270235e+03
2.400000e-07	-5.705524e-06	-1.930777e-08	-4.069476e+01	-1.266308e+03
2.500000e-07	-5.649742e-06	-1.922864e-08	-4.029690e+01	-1.262176e+03
2.600000e-07	-5.591778e-06	-1.920889e-08	-3.988347e+01	-1.257877e+03
2.700000e-07	-5.531616e-06	-1.910704e-08	-3.945436e+01	-1.253430e+03
2.800000e-07	-5.469569e-06	-1.903129e-08	-3.901181e+01	-1.248834e+03
2.900000e-07	-5.405606e-06	-1.890402e-08	-3.855559e+01	-1.244066e+03
3.000000e-07	-5.339530e-06	-1.887971e-08	-3.808431e+01	-1.239087e+03
3.100000e-07	-5.271315e-06	-1.882801e-08	-3.759776e+01	-1.233856e+03
3.200000e-07	-5.201098e-06	-1.871789e-08	-3.709693e+01	-1.228336e+03
3.300000e-07	-5.129085e-06	-1.864122e-08	-3.658330e+01	-1.222506e+03
3.400000e-07	-5.055180e-06	-1.848923e-08	-3.605617e+01	-1.216364e+03
3.500000e-07	-4.979128e-06	-1.842930e-08	-3.551373e+01	-1.209921e+03
3.600000e-07	-4.901006e-06	-1.833135e-08	-3.495652e+01	-1.203204e+03
3.700000e-07	-4.820858e-06	-1.822636e-08	-3.438486e+01	-1.196238e+03
3.800000e-07	-4.738953e-06	-1.813773e-08	-3.380068e+01	-1.189043e+03
3.900000e-07	-4.655590e-06	-1.798799e-08	-3.320609e+01	-1.181624e+03
4.000000e-07	-4.570807e-06	-1.785519e-08	-3.260137e+01	-1.173966e+03
4.100000e-07	-4.484554e-06	-1.773989e-08	-3.198617e+01	-1.166039e+03
4.200000e-07	-4.396915e-06	-1.764136e-08	-3.136109e+01	-1.157802e+03
4.300000e-07	-4.307746e-06	-1.750202e-08	-3.072508e+01	-1.149213e+03
4.400000e-07	-4.216856e-06	-1.735310e-08	-3.007681e+01	-1.140235e+03
4.500000e-07	-4.124359e-06	-1.721664e-08	-2.941707e+01	-1.130842e+03
4.600000e-07	-4.030371e-06	-1.705367e-08	-2.874670e+01	-1.121026e+03
4.700000e-07	-3.935087e-06	-1.690705e-08	-2.806708e+01	-1.110789e+03
4.800000e-07	-3.838530e-06	-1.674971e-08	-2.737839e+01	-1.100141e+03
4.900000e-07	-3.740451e-06	-1.657818e-08	-2.667884e+01	-1.089089e+03
5.000000e-07	-3.640862e-06	-1.638982e-08	-2.596852e+01	-1.077632e+03
5.100000e-07	-3.540016e-06	-1.620201e-08	-2.524923e+01	-1.065756e+03
5.200000e-07	-3.437951e-06	-1.601898e-08	-2.452125e+01	-1.053431e+03
5.300000e-07	-3.334670e-06	-1.582289e-08	-2.378460e+01	-1.040613e+03
5.400000e-07	-3.230198e-06	-1.562447e-08	-2.303945e+01	-1.027251e+03
5.500000e-07	-3.124413e-06	-1.541021e-08	-2.228494e+01	-1.013294e+03
5.600000e-07	-3.017293e-06	-1.518600e-08	-2.152090e+01	-9.986966e+02
5.700000e-07	-2.909005e-06	-1.494636e-08	-2.074854e+01	-9.834208e+02
5.800000e-07	-2.799690e-06	-1.470145e-08	-1.996885e+01	-9.674374e+02
5.900000e-07	-2.689449e-06	-1.444513e-08	-1.918255e+01	-9.507218e+02
6.000000e-07	-2.578291e-06	-1.417145e-08	-1.838971e+01	-9.332483e+02
6.100000e-07	-2.466110e-06	-1.388928e-08	-1.758958e+01	-9.149837e+02
6.200000e-07	-2.352909e-06	-1.359992e-08	-1.678217e+01	-8.958827e+02
6.300000e-07	-2.238665e-06	-1.330081e-08	-1.596732e+01	-8.758857e+02
6.400000e-07	-2.123390e-06	-1.298062e-08	-1.514512e+01	-8.549198e+02
6.500000e-07	-2.007285e-06	-1.264393e-08	-1.431700e+01	-8.329021e+02
6.600000e-07	-1.890482e-06	-1.228406e-08	-1.348390e+01	-8.097446e+02
6.700000e-07	-1.772988e-06	-1.190595e-08	-1.264587e+01	-7.853580e+02
6.800000e-07	-1.654879e-06	-1.151444e-08	-1.180346e+01	-7.596539e+02
6.900000e-07	-1.536256e-06	-1.110251e-08	-1.095738e+01	-7.325459e+02
7.000000e-07	-1.417130e-06	-1.066948e-08	-1.010771e+01	-7.039481e+02
7.100000e-07	-1.297534e-06	-1.020625e-08	-9.254684e+00	-6.737756e+02
7.200000e-07	-1.177440e-06	-9.717066e-09	-8.398117e+00	-6.419467e+02
7.300000e-07	-1.056918e-06	-9.200092e-09	-7.538491e+00	-6.083899e+02
7.400000e-07	-9.361294e-07	-8.658590e-09	-6.676962e+00	-5.730558e+02
7.500000e-07	-8.150299e-07	-8.096086e-09	-5.813217e+00	-5.359331e+02
7.600000e-07	-6.936114e-07	-7.507116e-09	-4.947197e+00	-4.970647e+02
7.700000e-07	-5.719869e-07	-6.887901e-09	-4.079708e+00	-4.565612e+02
7.800000e-07	-4.501755e-07	-6.245129e-09	-3.210886e+00	-4.146061e+02
7.900000e-07	-3.281998e-07	-5.587740e-09	-2.340891e+00	-3.714500e+02
8.000000e-07	-2.061019e-07	-4.917663e-09	-1.470026e+00	-3.273904e+02
8.100000e-07	-8.382217e-08	-4.241263e-09	-5.978633e-01	-2.827404e+02
8.200000e-07	3.854543e-08	-3.562092e-09	2.749260e-01	-2.377887e+02
8.300000e-07	1.609448e-07	-2.882402e-09	1.147942e+00	-1.927593e+02
8.400000e-07	2.833064e-07	-2.200416e-09	2.020689e+00	-1.477765e+02
8.500000e-07	4.055062e-07	-1.519610e-09	2.892281e+00	-1.028461e+02
8.600000e-07	5.275593e-07	-8.341796e-10	3.762827e+00	-5.785450e+01
8.700000e-07	6.494280e-07	-1.421342e-10	4.632058e+00	-1.259105e+01
8.800000e-07	7.711602e-07	5.567315e-10	5.500315e+00	3.321061e+01
8.900000e-07	8.926902e-07	1.266210e-09	6.367130e+00	7.981786e+01
9.000000e-07	1.013906e-06	1.987851e-09	7.231705e+00	1.274401e+02
9.100000e-07	1.134790e-06	2.725600e-09	8.093912e+00	1.761762e+02
9.200000e-07	1.255289e-06	3.478932e-09	8.953371e+00	2.259770e+02
9.300000e-07	1.375392e-06	4.246818e-09	9.810010e+00	2.766311e+02
9.400000e-07	1.494973e-06	5.026981e-09	1.066292e+01	3.277748e+02
9.500000e-07	1.613934e-06	5.811835e-09	1.151141e+01	3.789258e+02
9.600000e-07	1.732310e-06	6.584079e-09	1.235574e+01	4.295334e+02
9.700000e-07	1.850067e-06	7.335014e-09	1.319564e+01	4.790377e+02
9.800000e-07	1.967137e-06	8.062004e-09	1.403064e+01	5.269261e+02
9.900000e-07	2.083411e-06	8.756825e-09	1.485997e+01	5.727803e+02
1.000000e-06	2.198842e-06	9.411397e-09	1.568329e+01	6.163058e+02
1.010000e-06	2.313323e-06	1.002522e-08	1.649982e+01	6.573421e+02
1.020000e-06	2.426737e-06	1.060544e-08	1.730875e+01	6.958547e+02
1.030000e-06	2.539201e-06	1.115284e-08	1.811090e+01	7.319116e+02
1.040000e-06	2.650656e-06	1.167019e-08	1.890586e+01	7.656526e+02
1.050000e-06	2.761112e-06	1.215163e-08	1.969368e+01	7.972560e+02
1.060000e-06	2.870719e-06	1.260173e-08	2.047546e+01	8.269097e+02
1.070000e-06	2.979423e-06	1.302195e-08	2.125079e+01	8.547905e+02
1.080000e-06	3.087192e-06	1.341888e-08	2.201946e+01	8.810518e+02
1.090000e-06	3.193840e-06	1.379462e-08	2.278013e+01	9.058214e+02
1.100000e-06	3.299235e-06	1.415161e-08	2.353186e+01	9.292044e+02
1.110000e-06	3.403426e-06	1.448951e-08	2.427500e+01	9.512902e+02
1.120000e-06	3.506319e-06	1.480662e-08	2.500889e+01	9.721595e+02
1.130000e-06	3.607950e-06	1.510457e-08	2.573378e+01	9.918898e+02
1.140000e-06	3.708465e-06	1.538482e-08	2.645070e+01	1.010557e+03
1.150000e-06	3.807746e-06	1.565362e-08	2.715883e+01	1.028237e+03
1.160000e-06	3.905600e-06	1.590770e-08	2.785677e+01	1.044999e+03
1.170000e-06	4.001960e-06	1.614987e-08	2.854406e+01	1.060909e+03
1.180000e-06	4.096829e-06	1.638016e-08	2.922071e+01	1.076023e+03
1.190000e-06	4.190319e-06	1.659754e-08	2.988753e+01	1.090390e+03
1.200000e-06	4.282507e-06	1.680114e-08	3.054507e+01	1.104050e+03
1.210000e-06	4.373216e-06	1.699466e-08	3.119205e+01	1.117039e+03
1.220000e-06	4.462275e-06	1.717767e-08	3.182727e+01	1.129391e+03
1.230000e-06	4.549588e-06	1.735313e-08	3.245002e+01	1.141136e+03
1.240000e-06	4.635236e-06	1.752159e-08	3.306091e+01	1.152307e+03
1.250000e-06	4.719475e-06	1.768634e-08	3.366175e+01	1.162933e+03
1.260000e-06	4.802180e-06	1.784461e-08	3.425164e+01	1.173041e+03
1.270000e-06	4.883066e-06	1.799430e-08	3.482857e+01	1.182655e+03
1.280000e-06	4.962069e-06	1.813458e-08	3.539205e+01	1.191793e+03
1.290000e-06	5.039224e-06	1.826502e-08	3.594236e+01	1.200469e+03
1.300000e-06	5.114506e-06	1.838701e-08	3.647931e+01	1.208691e+03
1.310000e-06	5.187676e-06	1.850437e-08	3.700120e+01	1.216469e+03
1.320000e-06	5.258814e-06	1.861756e-08	3.750859e+01	1.223814e+03
1.330000e-06	5.328150e-06	1.872381e-08	3.800313e+01	1.230742e+03
1.340000e-06	5.395669e-06	1.882271e-08	3.848471e+01	1.237273e+03
1.350000e-06	5.461200e-06	1.891600e-08	3.895212e+01	1.243438e+03
1.360000e-06	5.524672e-06	1.900522e-08	3.940483e+01	1.249266e+03
1.370000e-06	5.586304e-06	1.909006e-08	3.984442e+01	1.254794e+03
1.380000e-06	5.646223e-06	1.916994e-08	4.027180e+01	1.260053e+03
1.390000e-06	5.704125e-06	1.924530e-08	4.068479e+01	1.265071e+03
1.400000e-06	5.759796e-06	1.931695e-08	4.108186e+01	1.269868e+03
1.410000e-06	5.813407e-06	1.938484e-08	4.146424e+01	1.274454e+03
1.420000e-06	5.864701e-06	1.945132e-08	4.183009e+01	1.278830e+03
1.430000e-06	5.913521e-06	1.951514e-08	4.217830e+01	1.282991e+03
1.440000e-06	5.960153e-06	1.957735e-08	4.251091e+01	1.286926e+03
1.450000e-06	6.004852e-06	1.963508e-08	4.282973e+01	1.290623e+03
1.460000e-06	6.047542e-06	1.968687e-08	4.313421e+01	1.294069e+03
1.470000e-06	6.087945e-06	1.973326e-08	4.342239e+01	1.297259e+03
1.480000e-06	6.126174e-06	1.977481e-08	4.369505e+01	1.300188e+03
1.490000e-06	6.162446e-06	1.981370e-08	4.395377e+01	1.302861e+03
1.500000e-06	6.196506e-06	1.984887e-08	4.419670e+01	1.305286e+03
1.510000e-06	6.228212e-06	1.988163e-08	4.442284e+01	1.307476e+03
1.520000e-06	6.257764e-06	1.991211e-08	4.463363e+01	1.309446e+03
1.530000e-06	6.285280e-06	1.993883e-08	4.482988e+01	1.311210e+03
1.540000e-06	6.310487e-06	1.996193e-08	4.500968e+01	1.312782e+03
1.550000e-06	6.333231e-06	1.998271e-08	4.517190e+01	1.314172e+03
1.560000e-06	6.353848e-06	2.000107e-08	4.531895e+01	1.315387e+03
1.570000e-06	6.372388e-06	2.001558e-08	4.545118e+01	1.316429e+03
1.580000e-06	6.388541e-06	2.002754e-08	4.556639e+01	1.317300e+03
1.590000e-06	6.402244e-06	2.003704e-08	4.566413e+01	1.318003e+03
1.600000e-06	6.413456e-06	2.004403e-08	4.574410e+01	1.318538e+03
1.610000e-06	6.422051e-06	2.005076e-08	4.580540e+01	1.318914e+03
1.620000e-06	6.428294e-06	2.005697e-08	4.584993e+01	1.319136e+03
1.630000e-06	6.432432e-06	2.006124e-08	4.587945e+01	1.319218e+03
1.640000e-06	6.434276e-06	2.006285e-08	4.589260e+01	1.319169e+03
1.650000e-06	6.433765e-06	2.006470e-08	4.588895e+01	1.318997e+03
1.660000e-06	6.431117e-06	2.005140e-08	4.587007e+01	1.318706e+03
1.670000e-06	6.426499e-06	2.004616e-08	4.583713e+01	1.318289e+03
1.680000e-06	6.419656e-06	2.003736e-08	4.578832e+01	1.317736e+03
1.690000e-06	6.410631e-06	2.002495e-08	4.572395e+01	1.317029e+03
1.700000e-06	6.399687e-06	2.001635e-08	4.564590e+01	1.316150e+03
1.710000e-06	6.386485e-06	2.000919e-08	4.555173e+01	1.315086e+03
1.720000e-06	6.371000e-06	2.002121e-08	4.544128e+01	1.313833e+03
1.730000e-06	6.353565e-06	1.995655e-08	4.531693e+01	1.312400e+03
1.740000e-06	6.333995e-06	1.981857e-08	4.517734e+01	1.310815e+03
1.750000e-06	6.311402e-06	1.987367e-08	4.501620e+01	1.309115e+03
1.760000e-06	6.285697e-06	1.988858e-08	4.483286e+01	1.307347e+03
1.770000e-06	6.257860e-06	1.981980e-08	4.463431e+01	1.305554e+03
1.780000e-06	6.228191e-06	1.997716e-08	4.442270e+01	1.303771e+03
1.790000e-06	6.196908e-06	1.985931e-08	4.419957e+01	1.302009e+03
1.800000e-06	6.164215e-06	1.962004e-08	4.396638e+01	1.300256e+03
1.810000e-06	6.129401e-06	1.983408e-08	4.371807e+01	1.298475e+03
1.820000e-06	6.092595e-06	1.964831e-08	4.345555e+01	1.296604e+03
1.830000e-06	6.053688e-06	1.967995e-08	4.317805e+01	1.294573e+03
1.840000e-06	6.012270e-06	1.989159e-08	4.288264e+01	1.292309e+03
1.850000e-06	5.968915e-06	1.953783e-08	4.257340e+01	1.289756e+03
1.860000e-06	5.923528e-06	1.970049e-08	4.224968e+01	1.286876e+03
1.870000e-06	5.875998e-06	1.965599e-08	4.191067e+01	1.283662e+03
1.880000e-06	5.826346e-06	1.947364e-08	4.155653e+01	1.280132e+03
1.890000e-06	5.774008e-06	1.958074e-08	4.118323e+01	1.276325e+03
1.900000e-06	5.719135e-06	1.930037e-08	4.079184e+01	1.272288e+03
1.910000e-06	5.662170e-06	1.935830e-08	4.038554e+01	1.268067e+03
1.920000e-06	5.603174e-06	1.934477e-08	3.996475e+01	1.263691e+03
1.930000e-06	5.542350e-06	1.920873e-08	3.953092e+01	1.259170e+03
1.940000e-06	5.479361e-06	1.925283e-08	3.908165e+01	1.254490e+03
1.950000e-06	5.414209e-06	1.899556e-08	3.861695e+01	1.249619e+03
1.960000e-06	5.347135e-06	1.903434e-08	3.813855e+01	1.244518e+03
1.970000e-06	5.278130e-06	1.887971e-08	3.764637e+01	1.239144e+03
1.980000e-06	5.207030e-06	1.878672e-08	3.713925e+01	1.233470e+03
1.990000e-06	5.133832e-06	1.881595e-08	3.661716e+01	1.227481e+03
2.000000e-06	5.058895e-06	1.862406e-08	3.608267e+01	1.221184e+03
2.010000e-06	4.981920e-06	1.859481e-08	3.553364e+01	1.214599e+03
2.020000e-06	4.902815e-06	1.838158e-08	3.496943e+01	1.207753e+03
2.030000e-06	4.821964e-06	1.834009e-08	3.439275e+01	1.200669e+03
2.040000e-06	4.739506e-06	1.827140e-08	3.380462e+01	1.193361e+03
2.050000e-06	4.655558e-06	1.811687e-08	3.320586e+01	1.185823e+03
2.060000e-06	4.569975e-06	1.802057e-08	3.259544e+01	1.178033e+03
2.070000e-06	4.482581e-06	1.784368e-08	3.197210e+01	1.169955e+03
2.080000e-06	4.393611e-06	1.775952e-08	3.133752e+01	1.161546e+03
2.090000e-06	4.303218e-06	1.758800e-08	3.069279e+01	1.152764e+03
2.100000e-06	4.211413e-06	1.748805e-08	3.003798e+01	1.143579e+03
2.110000e-06	4.118180e-06	1.734606e-08	2.937300e+01	1.133973e+03
2.120000e-06	4.023441e-06	1.717841e-08	2.869727e+01	1.123944e+03
2.130000e-06	3.927246e-06	1.702253e-08	2.801116e+01	1.113498e+03
2.140000e-06	3.829722e-06	1.684315e-08	2.731557e+01	1.102646e+03
2.150000e-06	3.730808e-06	1.669919e-08	2.661006e+01	1.091391e+03
2.160000e-06	3.630600e-06	1.650887e-08	2.589533e+01	1.079726e+03
2.170000e-06	3.529095e-06	1.634287e-08	2.517134e+01	1.067628e+03
2.180000e-06	3.426074e-06	1.613365e-08	2.443654e+01	1.055061e+03
2.190000e-06	3.321673e-06	1.593817e-08	2.369190e+01	1.041975e+03
2.200000e-06	3.216180e-06	1.572756e-08	2.293946e+01	1.028320e+03
2.210000e-06	3.109593e-06	1.551869e-08	2.217923e+01	1.014047e+03
2.220000e-06	3.001915e-06	1.529253e-08	2.141122e+01	9.991125e+02
2.230000e-06	2.893211e-06	1.504875e-08	2.063589e+01	9.834844e+02
2.240000e-06	2.783498e-06	1.480952e-08	1.985335e+01	9.671361e+02
2.250000e-06	2.672737e-06	1.455369e-08	1.906335e+01	9.500434e+02
2.260000e-06	2.560913e-06	1.428837e-08	1.826576e+01	9.321774e+02
2.270000e-06	2.448124e-06	1.399547e-08	1.746129e+01	9.134994e+02
2.280000e-06	2.334327e-06	1.370005e-08	1.664964e+01	8.939570e+02
2.290000e-06	2.219608e-06	1.338348e-08	1.583140e+01	8.734836e+02
2.300000e-06	2.104067e-06	1.305953e-08	1.500730e+01	8.520009e+02
2.310000e-06	1.987706e-06	1.271626e-08	1.417735e+01	8.294227e+02
2.320000e-06	1.870576e-06	1.235966e-08	1.334192e+01	8.056600e+02
2.330000e-06	1.752689e-06	1.197884e-08	1.250109e+01	7.806238e+02
2.340000e-06	1.634081e-06	1.157000e-08	1.165512e+01	7.542268e+02
2.350000e-06	1.514781e-06	1.114461e-08	1.080421e+01	7.263829e+02
2.360000e-06	1.394901e-06	1.070380e-08	9.949160e+00	6.970065e+02
2.370000e-06	1.274590e-06	1.024249e-08	9.091040e+00	6.660138e+02
2.380000e-06	1.153979e-06	9.744218e-09	8.230779e+00	6.333271e+02
2.390000e-06	1.033095e-06	9.215720e-09	7.368573e+00	5.988841e+02
2.400000e-06	9.118736e-07	8.659523e-09	6.503956e+00	5.626524e+02
2.410000e-06	7.903580e-07	8.081159e-09	5.637244e+00	5.246457e+02
2.420000e-06	6.686075e-07	7.475003e-09	4.768856e+00	4.849396e+02
2.430000e-06	5.466532e-07	6.845955e-09	3.899015e+00	4.436811e+02
2.440000e-06	4.245106e-07	6.198633e-09	3.027830e+00	4.010890e+02
2.450000e-06	3.021789e-07	5.530371e-09	2.155297e+00	3.574403e+02
2.460000e-06	1.797142e-07	4.846350e-09	1.281815e+00	3.130451e+02
2.470000e-06	5.722947e-08	4.155933e-09	4.081903e-01	2.682096e+02
2.480000e-06	-6.519475e-08	3.469840e-09	-4.650029e-01	2.231948e+02
2.490000e-06	-1.876471e-07	2.782672e-09	-1.338396e+00	1.781786e+02
2.500000e-06	-3.101129e-07	2.091244e-09	-2.211886e+00	1.332273e+02
2.510000e-06	-4.324499e-07	1.400006e-09	-3.084457e+00	8.828555e+01
2.520000e-06	-5.546472e-07	7.067471e-10	-3.956032e+00	4.318725e+01
2.530000e-06	-6.767057e-07	9.376522e-12	-4.826617e+00	-2.312304e+00
2.540000e-06	-7.985518e-07	-6.995879e-10	-5.695687e+00	-4.848735e+01
2.550000e-06	-9.201182e-07	-1.421152e-09	-6.562761e+00	-9.558351e+01
2.560000e-06	-1.041354e-06	-2.155467e-09	-7.427477e+00	-1.437607e+02
2.570000e-06	-1.162241e-06	-2.907203e-09	-8.289704e+00	-1.930471e+02
2.580000e-06	-1.282754e-06	-3.673380e-09	-9.149268e+00	-2.433128e+02
2.590000e-06	-1.402835e-06	-4.451366e-09	-1.000575e+01	-2.942673e+02
2.600000e-06	-1.522345e-06	-5.236013e-09	-1.085815e+01	-3.454823e+02
2.610000e-06	-1.641130e-06	-6.017958e-09	-1.170539e+01	-3.964342e+02
2.620000e-06	-1.759139e-06	-6.786697e-09	-1.254709e+01	-4.465602e+02
2.630000e-06	-1.876432e-06	-7.533898e-09	-1.338369e+01	-4.953174e+02
2.640000e-06	-1.992957e-06	-8.254044e-09	-1.421481e+01	-5.422354e+02
2.650000e-06	-2.108610e-06	-8.941802e-09	-1.503970e+01	-5.869554e+02
2.660000e-06	-2.223370e-06	-9.589853e-09	-1.585823e+01	-6.292499e+02
2.670000e-06	-2.337137e-06	-1.019922e-08	-1.666968e+01	-6.690234e+02
2.680000e-06	-2.449792e-06	-1.077258e-08	-1.747319e+01	-7.062961e+02
2.690000e-06	-2.561447e-06	-1.130758e-08	-1.826957e+01	-7.411762e+02
2.700000e-06	-2.672153e-06	-1.180588e-08	-1.905919e+01	-7.738266e+02
2.710000e-06	-2.781748e-06	-1.227512e-08	-1.984087e+01	-8.044337e+02
2.720000e-06	-2.890445e-06	-1.271895e-08	-2.061616e+01	-8.331819e+02
2.730000e-06	-2.998320e-06	-1.313477e-08	-2.138557e+01	-8.602372e+02
2.740000e-06	-3.105186e-06	-1.352569e-08	-2.214780e+01	-8.857400e+02
2.750000e-06	-3.211054e-06	-1.389417e-08	-2.290290e+01	-9.098060e+02
2.760000e-06	-3.315800e-06	-1.423917e-08	-2.365001e+01	-9.325317e+02
2.770000e-06	-3.419256e-06	-1.456375e-08	-2.438791e+01	-9.540012e+02
2.780000e-06	-3.521402e-06	-1.487304e-08	-2.511647e+01	-9.742932e+02
2.790000e-06	-3.622327e-06	-1.516884e-08	-2.583632e+01	-9.934843e+02
2.800000e-06	-3.722022e-06	-1.544951e-08	-2.654739e+01	-1.011650e+03
2.810000e-06	-3.820434e-06	-1.571206e-08	-2.724932e+01	-1.028864e+03
2.820000e-06	-3.917552e-06	-1.595935e-08	-2.794201e+01	-1.045194e+03
2.830000e-06	-4.013379e-06	-1.619662e-08	-2.862550e+01	-1.060702e+03
2.840000e-06	-4.107736e-06	-1.642620e-08	-2.929851e+01	-1.075438e+03
2.850000e-06	-4.200540e-06	-1.664607e-08	-2.996043e+01	-1.089449e+03
2.860000e-06	-4.291828e-06	-1.685393e-08	-3.061154e+01	-1.102771e+03
2.870000e-06	-4.381586e-06	-1.705057e-08	-3.125175e+01	-1.115439e+03
2.880000e-06	-4.469857e-06	-1.723459e-08	-3.188135e+01	-1.127486e+03
2.890000e-06	-4.556442e-06	-1.740733e-08	-3.249892e+01	-1.138942e+03
2.900000e-06	-4.641295e-06	-1.757084e-08	-3.310413e+01	-1.149838e+03
2.910000e-06	-4.724512e-06	-1.772793e-08	-3.369767e+01	-1.160204e+03
2.920000e-06	-4.806040e-06	-1.787924e-08	-3.427917e+01	-1.170064e+03
2.930000e-06	-4.885879e-06	-1.802443e-08	-3.484863e+01	-1.179440e+03
2.940000e-06	-4.963758e-06	-1.816262e-08	-3.540410e+01	-1.188347e+03
