# Temperatura_=_78.25
# Concentracion g/m^3_=_28200.0
# C_Vs_to_Am_M_A/Vsm_=_65563218390.804596
# pendiente_HvsI_1/m_=_3716.3
# ordenada_HvsI_A/m_=_1297.0
# frecuencia_Hz_=_302095.48333445005

Tiempo_(s)	Campo_(V.s)	Magnetizacion_(V.s)	Campo_(kA/m)	Magnetizacion_(A/m)
0.000000e+00	-6.390176e-06	-2.446934e-08	-4.558120e+01	-1.599912e+03
1.000000e-08	-6.386586e-06	-2.446470e-08	-4.555560e+01	-1.599395e+03
2.000000e-08	-6.381003e-06	-2.445502e-08	-4.551577e+01	-1.598743e+03
3.000000e-08	-6.373458e-06	-2.444469e-08	-4.546195e+01	-1.597952e+03
4.000000e-08	-6.363617e-06	-2.442851e-08	-4.539176e+01	-1.597001e+03
5.000000e-08	-6.351338e-06	-2.440727e-08	-4.530417e+01	-1.595854e+03
6.000000e-08	-6.336711e-06	-2.437962e-08	-4.519983e+01	-1.594474e+03
7.000000e-08	-6.319783e-06	-2.433997e-08	-4.507909e+01	-1.592829e+03
8.000000e-08	-6.300873e-06	-2.433162e-08	-4.494420e+01	-1.590910e+03
9.000000e-08	-6.279905e-06	-2.439869e-08	-4.479463e+01	-1.588742e+03
1.000000e-07	-6.256507e-06	-2.430775e-08	-4.462774e+01	-1.586377e+03
1.100000e-07	-6.230392e-06	-2.420724e-08	-4.444146e+01	-1.583900e+03
1.200000e-07	-6.201902e-06	-2.420889e-08	-4.423824e+01	-1.581404e+03
1.300000e-07	-6.171602e-06	-2.414326e-08	-4.402211e+01	-1.578974e+03
1.400000e-07	-6.139850e-06	-2.400352e-08	-4.379562e+01	-1.576665e+03
1.500000e-07	-6.106321e-06	-2.415789e-08	-4.355646e+01	-1.574486e+03
1.600000e-07	-6.070669e-06	-2.409227e-08	-4.330215e+01	-1.572392e+03
1.700000e-07	-6.033165e-06	-2.384207e-08	-4.303464e+01	-1.570287e+03
1.800000e-07	-5.993640e-06	-2.401535e-08	-4.275271e+01	-1.568039e+03
1.900000e-07	-5.951654e-06	-2.383791e-08	-4.245322e+01	-1.565507e+03
2.000000e-07	-5.907429e-06	-2.378521e-08	-4.213776e+01	-1.562562e+03
2.100000e-07	-5.861165e-06	-2.386872e-08	-4.180776e+01	-1.559114e+03
2.200000e-07	-5.812501e-06	-2.362513e-08	-4.146064e+01	-1.555126e+03
2.300000e-07	-5.761280e-06	-2.357514e-08	-4.109528e+01	-1.550619e+03
2.400000e-07	-5.707579e-06	-2.352012e-08	-4.071223e+01	-1.545658e+03
2.500000e-07	-5.651806e-06	-2.341765e-08	-4.031440e+01	-1.540338e+03
2.600000e-07	-5.593866e-06	-2.338558e-08	-3.990111e+01	-1.534755e+03
2.700000e-07	-5.533742e-06	-2.328731e-08	-3.947225e+01	-1.528984e+03
2.800000e-07	-5.471743e-06	-2.319864e-08	-3.903000e+01	-1.523067e+03
2.900000e-07	-5.407790e-06	-2.303731e-08	-3.857383e+01	-1.516999e+03
3.000000e-07	-5.341702e-06	-2.297456e-08	-3.810243e+01	-1.510740e+03
3.100000e-07	-5.273483e-06	-2.291885e-08	-3.761581e+01	-1.504226e+03
3.200000e-07	-5.203336e-06	-2.280386e-08	-3.711546e+01	-1.497388e+03
3.300000e-07	-5.131432e-06	-2.270720e-08	-3.660257e+01	-1.490173e+03
3.400000e-07	-5.057670e-06	-2.253021e-08	-3.607642e+01	-1.482554e+03
3.500000e-07	-4.981791e-06	-2.242766e-08	-3.553517e+01	-1.474534e+03
3.600000e-07	-4.903736e-06	-2.229864e-08	-3.497841e+01	-1.466143e+03
3.700000e-07	-4.823567e-06	-2.217591e-08	-3.440656e+01	-1.457423e+03
3.800000e-07	-4.741618e-06	-2.207981e-08	-3.382202e+01	-1.448412e+03
3.900000e-07	-4.658253e-06	-2.190976e-08	-3.322737e+01	-1.439133e+03
4.000000e-07	-4.573484e-06	-2.174239e-08	-3.262271e+01	-1.429580e+03
4.100000e-07	-4.487249e-06	-2.158952e-08	-3.200760e+01	-1.419722e+03
4.200000e-07	-4.399659e-06	-2.145366e-08	-3.138282e+01	-1.409508e+03
4.300000e-07	-4.310571e-06	-2.128176e-08	-3.074735e+01	-1.398881e+03
4.400000e-07	-4.219756e-06	-2.110076e-08	-3.009957e+01	-1.387788e+03
4.500000e-07	-4.127357e-06	-2.093116e-08	-2.944049e+01	-1.376197e+03
4.600000e-07	-4.033519e-06	-2.072999e-08	-2.877114e+01	-1.364094e+03
4.700000e-07	-3.938352e-06	-2.054857e-08	-2.809231e+01	-1.351491e+03
4.800000e-07	-3.841854e-06	-2.036599e-08	-2.740399e+01	-1.338405e+03
4.900000e-07	-3.743826e-06	-2.016702e-08	-2.670475e+01	-1.324857e+03
5.000000e-07	-3.644282e-06	-1.993837e-08	-2.599471e+01	-1.310850e+03
5.100000e-07	-3.543407e-06	-1.970477e-08	-2.527516e+01	-1.296369e+03
5.200000e-07	-3.441286e-06	-1.947741e-08	-2.454673e+01	-1.281372e+03
5.300000e-07	-3.338070e-06	-1.923691e-08	-2.381049e+01	-1.265801e+03
5.400000e-07	-3.233703e-06	-1.899155e-08	-2.306604e+01	-1.249589e+03
5.500000e-07	-3.127909e-06	-1.872937e-08	-2.231141e+01	-1.232669e+03
5.600000e-07	-3.020761e-06	-1.845849e-08	-2.154712e+01	-1.214990e+03
5.700000e-07	-2.912488e-06	-1.817149e-08	-2.077481e+01	-1.196516e+03
5.800000e-07	-2.803187e-06	-1.788319e-08	-1.999516e+01	-1.177223e+03
5.900000e-07	-2.692949e-06	-1.758454e-08	-1.920883e+01	-1.157097e+03
6.000000e-07	-2.581846e-06	-1.726549e-08	-1.841634e+01	-1.136114e+03
6.100000e-07	-2.469790e-06	-1.692619e-08	-1.761704e+01	-1.114235e+03
6.200000e-07	-2.356646e-06	-1.656841e-08	-1.680999e+01	-1.091396e+03
6.300000e-07	-2.242410e-06	-1.620047e-08	-1.599514e+01	-1.067507e+03
6.400000e-07	-2.127139e-06	-1.581619e-08	-1.517291e+01	-1.042458e+03
6.500000e-07	-2.010969e-06	-1.541603e-08	-1.434426e+01	-1.016126e+03
6.600000e-07	-1.894076e-06	-1.498853e-08	-1.351047e+01	-9.883896e+02
6.700000e-07	-1.776558e-06	-1.453908e-08	-1.267221e+01	-9.591344e+02
6.800000e-07	-1.658468e-06	-1.407127e-08	-1.182987e+01	-9.282569e+02
6.900000e-07	-1.539870e-06	-1.358040e-08	-1.098391e+01	-8.956619e+02
7.000000e-07	-1.420831e-06	-1.306164e-08	-1.013481e+01	-8.612551e+02
7.100000e-07	-1.301398e-06	-1.250678e-08	-9.282886e+00	-8.249353e+02
7.200000e-07	-1.181534e-06	-1.191966e-08	-8.427895e+00	-7.865911e+02
7.300000e-07	-1.061198e-06	-1.129604e-08	-7.569539e+00	-7.461054e+02
7.400000e-07	-9.403850e-07	-1.063998e-08	-6.707777e+00	-7.033716e+02
7.500000e-07	-8.191645e-07	-9.956637e-09	-5.843110e+00	-6.583185e+02
7.600000e-07	-6.976840e-07	-9.240260e-09	-4.976588e+00	-6.109393e+02
7.700000e-07	-5.759436e-07	-8.483280e-09	-4.108213e+00	-5.613190e+02
7.800000e-07	-4.539991e-07	-7.693319e-09	-3.238381e+00	-5.096494e+02
7.900000e-07	-3.319323e-07	-6.879884e-09	-2.367677e+00	-4.562268e+02
8.000000e-07	-2.097046e-07	-6.045036e-09	-1.495826e+00	-4.014268e+02
8.100000e-07	-8.729783e-08	-5.197110e-09	-6.226965e-01	-3.456599e+02
8.200000e-07	3.524996e-08	-4.342223e-09	2.514384e-01	-2.893126e+02
8.300000e-07	1.578338e-07	-3.484657e-09	1.125830e+00	-2.326860e+02
8.400000e-07	2.803773e-07	-2.620758e-09	1.999935e+00	-1.759456e+02
8.500000e-07	4.028161e-07	-1.755766e-09	2.873292e+00	-1.190931e+02
8.600000e-07	5.251668e-07	-8.860311e-10	3.746021e+00	-6.197012e+01
8.700000e-07	6.473719e-07	-6.311340e-12	4.617712e+00	-4.294751e+00
8.800000e-07	7.693318e-07	8.860845e-10	5.487653e+00	5.427317e+01
8.900000e-07	8.910049e-07	1.795367e-09	6.355549e+00	1.140494e+02
9.000000e-07	1.012347e-06	2.724276e-09	7.221085e+00	1.752406e+02
9.100000e-07	1.133212e-06	3.676570e-09	8.083218e+00	2.378745e+02
9.200000e-07	1.253532e-06	4.645950e-09	8.941457e+00	3.017582e+02
9.300000e-07	1.373434e-06	5.627463e-09	9.796717e+00	3.664731e+02
9.400000e-07	1.492937e-06	6.615194e-09	1.064914e+01	4.314084e+02
9.500000e-07	1.611898e-06	7.599261e-09	1.149769e+01	4.958253e+02
9.600000e-07	1.730253e-06	8.561028e-09	1.234191e+01	5.589417e+02
9.700000e-07	1.848004e-06	9.486388e-09	1.318184e+01	6.200203e+02
9.800000e-07	1.965132e-06	1.037057e-08	1.401731e+01	6.784448e+02
9.900000e-07	2.081531e-06	1.120695e-08	1.484758e+01	7.337737e+02
1.000000e-06	2.197050e-06	1.198938e-08	1.567158e+01	7.857624e+02
1.010000e-06	2.311659e-06	1.271961e-08	1.648909e+01	8.343557e+02
1.020000e-06	2.425226e-06	1.340467e-08	1.729916e+01	8.796549e+02
1.030000e-06	2.537669e-06	1.404483e-08	1.810122e+01	9.218690e+02
1.040000e-06	2.649090e-06	1.464550e-08	1.889599e+01	9.612630e+02
1.050000e-06	2.759568e-06	1.520605e-08	1.968403e+01	9.981105e+02
1.060000e-06	2.869170e-06	1.573167e-08	2.046582e+01	1.032661e+03
1.070000e-06	2.977877e-06	1.622108e-08	2.124123e+01	1.065125e+03
1.080000e-06	3.085690e-06	1.668115e-08	2.201026e+01	1.095666e+03
1.090000e-06	3.192486e-06	1.711431e-08	2.277204e+01	1.124419e+03
1.100000e-06	3.297956e-06	1.752191e-08	2.352436e+01	1.151495e+03
1.110000e-06	3.402030e-06	1.790864e-08	2.426672e+01	1.177004e+03
1.120000e-06	3.504883e-06	1.827569e-08	2.500037e+01	1.201053e+03
1.130000e-06	3.606600e-06	1.862272e-08	2.572592e+01	1.223760e+03
1.140000e-06	3.707109e-06	1.894891e-08	2.644285e+01	1.245240e+03
1.150000e-06	3.806372e-06	1.925999e-08	2.715089e+01	1.265604e+03
1.160000e-06	3.904229e-06	1.955422e-08	2.784891e+01	1.284951e+03
1.170000e-06	4.000496e-06	1.983194e-08	2.853559e+01	1.303358e+03
1.180000e-06	4.095318e-06	2.009500e-08	2.921195e+01	1.320887e+03
1.190000e-06	4.188850e-06	2.034724e-08	2.987912e+01	1.337581e+03
1.200000e-06	4.281094e-06	2.058638e-08	3.053709e+01	1.353473e+03
1.210000e-06	4.371889e-06	2.081385e-08	3.118473e+01	1.368594e+03
1.220000e-06	4.460974e-06	2.103136e-08	3.182018e+01	1.382977e+03
1.230000e-06	4.548294e-06	2.123941e-08	3.244304e+01	1.396659e+03
1.240000e-06	4.634041e-06	2.143544e-08	3.305467e+01	1.409683e+03
1.250000e-06	4.718350e-06	2.162408e-08	3.365605e+01	1.422093e+03
1.260000e-06	4.801127e-06	2.180482e-08	3.424650e+01	1.433932e+03
1.270000e-06	4.882124e-06	2.197595e-08	3.482425e+01	1.445234e+03
1.280000e-06	4.961176e-06	2.213869e-08	3.538813e+01	1.456026e+03
1.290000e-06	5.038348e-06	2.229367e-08	3.593860e+01	1.466323e+03
1.300000e-06	5.113604e-06	2.244319e-08	3.647540e+01	1.476136e+03
1.310000e-06	5.186788e-06	2.258768e-08	3.699742e+01	1.485469e+03
1.320000e-06	5.258053e-06	2.272435e-08	3.750575e+01	1.494328e+03
1.330000e-06	5.327490e-06	2.285274e-08	3.800105e+01	1.502721e+03
1.340000e-06	5.395034e-06	2.297351e-08	3.848284e+01	1.510660e+03
1.350000e-06	5.460575e-06	2.308893e-08	3.895034e+01	1.518164e+03
1.360000e-06	5.524061e-06	2.319795e-08	3.940319e+01	1.525255e+03
1.370000e-06	5.585688e-06	2.330011e-08	3.984278e+01	1.531956e+03
1.380000e-06	5.645516e-06	2.339564e-08	4.026953e+01	1.538293e+03
1.390000e-06	5.703289e-06	2.348513e-08	4.068162e+01	1.544291e+03
1.400000e-06	5.758936e-06	2.357070e-08	4.107856e+01	1.549972e+03
1.410000e-06	5.812545e-06	2.365164e-08	4.146095e+01	1.555360e+03
1.420000e-06	5.863876e-06	2.373057e-08	4.182710e+01	1.560477e+03
1.430000e-06	5.912676e-06	2.380636e-08	4.217519e+01	1.565342e+03
1.440000e-06	5.959195e-06	2.387860e-08	4.250700e+01	1.569968e+03
1.450000e-06	6.003868e-06	2.394708e-08	4.282566e+01	1.574364e+03
1.460000e-06	6.046597e-06	2.401119e-08	4.313044e+01	1.578530e+03
1.470000e-06	6.087017e-06	2.406971e-08	4.341876e+01	1.582458e+03
1.480000e-06	6.125195e-06	2.412414e-08	4.369109e+01	1.586133e+03
1.490000e-06	6.161418e-06	2.417452e-08	4.394947e+01	1.589538e+03
1.500000e-06	6.195579e-06	2.421886e-08	4.419314e+01	1.592656e+03
1.510000e-06	6.227431e-06	2.426033e-08	4.442034e+01	1.595476e+03
1.520000e-06	6.257054e-06	2.429958e-08	4.463164e+01	1.597998e+03
1.530000e-06	6.284674e-06	2.433369e-08	4.482866e+01	1.600232e+03
1.540000e-06	6.309906e-06	2.436365e-08	4.500864e+01	1.602198e+03
1.550000e-06	6.332623e-06	2.439224e-08	4.517068e+01	1.603921e+03
1.560000e-06	6.353192e-06	2.441727e-08	4.531740e+01	1.605426e+03
1.570000e-06	6.371684e-06	2.443664e-08	4.544929e+01	1.606731e+03
1.580000e-06	6.387795e-06	2.445005e-08	4.556422e+01	1.607847e+03
1.590000e-06	6.401480e-06	2.446137e-08	4.566183e+01	1.608773e+03
1.600000e-06	6.412787e-06	2.447205e-08	4.574249e+01	1.609500e+03
1.610000e-06	6.421454e-06	2.448132e-08	4.580431e+01	1.610019e+03
1.620000e-06	6.427700e-06	2.448857e-08	4.584886e+01	1.610322e+03
1.630000e-06	6.431905e-06	2.449322e-08	4.587886e+01	1.610413e+03
1.640000e-06	6.433832e-06	2.449525e-08	4.589260e+01	1.610302e+03
1.650000e-06	6.433423e-06	2.449612e-08	4.588968e+01	1.610011e+03
1.660000e-06	6.430910e-06	2.448239e-08	4.587175e+01	1.609562e+03
1.670000e-06	6.426359e-06	2.447507e-08	4.583929e+01	1.608974e+03
1.680000e-06	6.419532e-06	2.446351e-08	4.579060e+01	1.608252e+03
1.690000e-06	6.410489e-06	2.444722e-08	4.572609e+01	1.607381e+03
1.700000e-06	6.399536e-06	2.443460e-08	4.564797e+01	1.606335e+03
1.710000e-06	6.386430e-06	2.442313e-08	4.555448e+01	1.605073e+03
1.720000e-06	6.371060e-06	2.442864e-08	4.544485e+01	1.603560e+03
1.730000e-06	6.353723e-06	2.436584e-08	4.532118e+01	1.601775e+03
1.740000e-06	6.334270e-06	2.422030e-08	4.518242e+01	1.599724e+03
1.750000e-06	6.311766e-06	2.425885e-08	4.502190e+01	1.597446e+03
1.760000e-06	6.286101e-06	2.426627e-08	4.483883e+01	1.595011e+03
1.770000e-06	6.258265e-06	2.418845e-08	4.464028e+01	1.592510e+03
1.780000e-06	6.228665e-06	2.430991e-08	4.442914e+01	1.590035e+03
1.790000e-06	6.197452e-06	2.421125e-08	4.420649e+01	1.587658e+03
1.800000e-06	6.164822e-06	2.397413e-08	4.397375e+01	1.585414e+03
1.810000e-06	6.130115e-06	2.414831e-08	4.372618e+01	1.583284e+03
1.820000e-06	6.093387e-06	2.399871e-08	4.346420e+01	1.581196e+03
1.830000e-06	6.054552e-06	2.404915e-08	4.318719e+01	1.579035e+03
1.840000e-06	6.013184e-06	2.425945e-08	4.289211e+01	1.576660e+03
1.850000e-06	5.969863e-06	2.388733e-08	4.258310e+01	1.573932e+03
1.860000e-06	5.924540e-06	2.400371e-08	4.225981e+01	1.570741e+03
1.870000e-06	5.877017e-06	2.397562e-08	4.192083e+01	1.567022e+03
1.880000e-06	5.827401e-06	2.381116e-08	4.156692e+01	1.562766e+03
1.890000e-06	5.775237e-06	2.393606e-08	4.119483e+01	1.558019e+03
1.900000e-06	5.720486e-06	2.364469e-08	4.080429e+01	1.552863e+03
1.910000e-06	5.663512e-06	2.362925e-08	4.039789e+01	1.547397e+03
1.920000e-06	5.604542e-06	2.360312e-08	3.997726e+01	1.541710e+03
1.930000e-06	5.543754e-06	2.345511e-08	3.954366e+01	1.535861e+03
1.940000e-06	5.480827e-06	2.349648e-08	3.909480e+01	1.529869e+03
1.950000e-06	5.415773e-06	2.323538e-08	3.863077e+01	1.523710e+03
1.960000e-06	5.348773e-06	2.322637e-08	3.815286e+01	1.517329e+03
1.970000e-06	5.279782e-06	2.305895e-08	3.766075e+01	1.510659e+03
1.980000e-06	5.208685e-06	2.293396e-08	3.715361e+01	1.503635e+03
1.990000e-06	5.135533e-06	2.293834e-08	3.663182e+01	1.496217e+03
2.000000e-06	5.060675e-06	2.274131e-08	3.609786e+01	1.488392e+03
2.010000e-06	4.983742e-06	2.268586e-08	3.554909e+01	1.480179e+03
2.020000e-06	4.904674e-06	2.244072e-08	3.498510e+01	1.471615e+03
2.030000e-06	4.823864e-06	2.234272e-08	3.440868e+01	1.462743e+03
2.040000e-06	4.741406e-06	2.224733e-08	3.382050e+01	1.453594e+03
2.050000e-06	4.657503e-06	2.207700e-08	3.322203e+01	1.444177e+03
2.060000e-06	4.571914e-06	2.196124e-08	3.261152e+01	1.434475e+03
2.070000e-06	4.484550e-06	2.176081e-08	3.198835e+01	1.424444e+03
2.080000e-06	4.395620e-06	2.164116e-08	3.135401e+01	1.414027e+03
2.090000e-06	4.305242e-06	2.144145e-08	3.070934e+01	1.403170e+03
2.100000e-06	4.213557e-06	2.130355e-08	3.005535e+01	1.391828e+03
2.110000e-06	4.120441e-06	2.112752e-08	2.939115e+01	1.379978e+03
2.120000e-06	4.025769e-06	2.091757e-08	2.871586e+01	1.367621e+03
2.130000e-06	3.929602e-06	2.071818e-08	2.802990e+01	1.354771e+03
2.140000e-06	3.832048e-06	2.050121e-08	2.733405e+01	1.341449e+03
2.150000e-06	3.733235e-06	2.031819e-08	2.662921e+01	1.327670e+03
2.160000e-06	3.633153e-06	2.009194e-08	2.591532e+01	1.313427e+03
2.170000e-06	3.531567e-06	1.989032e-08	2.519071e+01	1.298691e+03
2.180000e-06	3.428500e-06	1.964441e-08	2.445553e+01	1.283413e+03
2.190000e-06	3.324125e-06	1.940236e-08	2.371102e+01	1.267527e+03
2.200000e-06	3.218604e-06	1.914506e-08	2.295834e+01	1.250966e+03
2.210000e-06	3.112030e-06	1.889142e-08	2.219814e+01	1.233669e+03
2.220000e-06	3.004460e-06	1.861871e-08	2.143085e+01	1.215594e+03
2.230000e-06	2.895905e-06	1.831821e-08	2.065652e+01	1.196710e+03
2.240000e-06	2.786290e-06	1.801882e-08	1.987464e+01	1.177000e+03
2.250000e-06	2.675568e-06	1.771024e-08	1.908486e+01	1.156446e+03
2.260000e-06	2.563796e-06	1.739552e-08	1.828759e+01	1.135018e+03
2.270000e-06	2.450988e-06	1.705273e-08	1.748293e+01	1.112666e+03
2.280000e-06	2.337163e-06	1.670120e-08	1.667101e+01	1.089312e+03
2.290000e-06	2.222483e-06	1.632109e-08	1.585300e+01	1.064855e+03
2.300000e-06	2.107034e-06	1.592843e-08	1.502950e+01	1.039178e+03
2.310000e-06	1.990785e-06	1.551765e-08	1.420029e+01	1.012156e+03
2.320000e-06	1.873650e-06	1.509207e-08	1.336476e+01	9.836711e+02
2.330000e-06	1.755668e-06	1.463731e-08	1.252320e+01	9.536143e+02
2.340000e-06	1.637044e-06	1.414802e-08	1.167706e+01	9.218869e+02
2.350000e-06	1.517856e-06	1.363087e-08	1.082688e+01	8.883954e+02
2.360000e-06	1.398078e-06	1.308971e-08	9.972508e+00	8.530427e+02
2.370000e-06	1.277825e-06	1.252759e-08	9.114741e+00	8.157225e+02
2.380000e-06	1.157191e-06	1.192833e-08	8.254254e+00	7.763193e+02
2.390000e-06	1.036185e-06	1.129309e-08	7.391120e+00	7.347187e+02
2.400000e-06	9.149312e-07	1.061731e-08	6.526215e+00	6.908281e+02
2.410000e-06	7.934759e-07	9.909719e-09	5.659873e+00	6.446049e+02
2.420000e-06	6.717167e-07	9.170099e-09	4.791363e+00	5.960853e+02
2.430000e-06	5.496918e-07	8.398435e-09	3.920958e+00	5.454068e+02
2.440000e-06	4.274722e-07	7.599070e-09	3.049164e+00	4.928152e+02
2.450000e-06	3.052064e-07	6.772168e-09	2.177041e+00	4.386507e+02
2.460000e-06	1.828944e-07	5.924229e-09	1.304588e+00	3.833134e+02
2.470000e-06	6.044380e-08	5.063474e-09	4.311463e-01	3.272092e+02
2.480000e-06	-6.202901e-08	4.200572e-09	-4.424536e-01	2.706894e+02
2.490000e-06	-1.844666e-07	3.335274e-09	-1.315802e+00	2.139924e+02
2.500000e-06	-3.068578e-07	2.464389e-09	-2.188820e+00	1.572035e+02
2.510000e-06	-4.291198e-07	1.589896e-09	-3.060916e+00	1.002418e+02
2.520000e-06	-5.512956e-07	7.089532e-10	-3.932398e+00	4.288065e+01
2.530000e-06	-6.734105e-07	-1.806826e-10	-4.803445e+00	-1.520067e+01
2.540000e-06	-7.953085e-07	-1.083899e-09	-5.672945e+00	-7.434089e+01
2.550000e-06	-9.169153e-07	-2.005833e-09	-6.540368e+00	-1.348113e+02
2.560000e-06	-1.038216e-06	-2.949259e-09	-7.405609e+00	-1.967363e+02
2.570000e-06	-1.159113e-06	-3.915245e-09	-8.267965e+00	-2.600364e+02
2.580000e-06	-1.279565e-06	-4.898467e-09	-9.127151e+00	-3.244039e+02
2.590000e-06	-1.399624e-06	-5.892751e-09	-9.983531e+00	-3.893179e+02
2.600000e-06	-1.519251e-06	-6.889381e-09	-1.083684e+01	-4.540938e+02
2.610000e-06	-1.638290e-06	-7.872854e-09	-1.168594e+01	-5.179602e+02
2.620000e-06	-1.756540e-06	-8.827930e-09	-1.252942e+01	-5.801466e+02
2.630000e-06	-1.873900e-06	-9.744141e-09	-1.336655e+01	-6.399678e+02
2.640000e-06	-1.990382e-06	-1.061626e-08	-1.419742e+01	-6.968903e+02
2.650000e-06	-2.106006e-06	-1.143973e-08	-1.502217e+01	-7.505700e+02
2.660000e-06	-2.220716e-06	-1.221033e-08	-1.584039e+01	-8.008598e+02
2.670000e-06	-2.334489e-06	-1.293278e-08	-1.665194e+01	-8.477882e+02
2.680000e-06	-2.447236e-06	-1.360663e-08	-1.745616e+01	-8.915167e+02
2.690000e-06	-2.558783e-06	-1.423286e-08	-1.825183e+01	-9.322888e+02
2.700000e-06	-2.669266e-06	-1.481849e-08	-1.903991e+01	-9.703789e+02
2.710000e-06	-2.778857e-06	-1.537030e-08	-1.982162e+01	-1.006052e+03
2.720000e-06	-2.887556e-06	-1.588859e-08	-2.059697e+01	-1.039538e+03
2.730000e-06	-2.995418e-06	-1.637254e-08	-2.136635e+01	-1.071025e+03
2.740000e-06	-3.102368e-06	-1.682623e-08	-2.212923e+01	-1.100660e+03
2.750000e-06	-3.208215e-06	-1.724882e-08	-2.288424e+01	-1.128564e+03
2.760000e-06	-3.312915e-06	-1.764640e-08	-2.363106e+01	-1.154845e+03
2.770000e-06	-3.416481e-06	-1.802644e-08	-2.436980e+01	-1.179613e+03
2.780000e-06	-3.518736e-06	-1.838814e-08	-2.509918e+01	-1.202979e+03
2.790000e-06	-3.619544e-06	-1.872923e-08	-2.581825e+01	-1.225061e+03
2.800000e-06	-3.719114e-06	-1.905077e-08	-2.652848e+01	-1.245973e+03
2.810000e-06	-3.817501e-06	-1.935625e-08	-2.723028e+01	-1.265820e+03
2.820000e-06	-3.914607e-06	-1.964607e-08	-2.792294e+01	-1.284690e+03
2.830000e-06	-4.010483e-06	-1.991917e-08	-2.860683e+01	-1.302655e+03
2.840000e-06	-4.104950e-06	-2.017804e-08	-2.928066e+01	-1.319764e+03
2.850000e-06	-4.197802e-06	-2.042622e-08	-2.994297e+01	-1.336056e+03
2.860000e-06	-4.289192e-06	-2.066508e-08	-3.059486e+01	-1.351562e+03
2.870000e-06	-4.379057e-06	-2.089458e-08	-3.123587e+01	-1.366312e+03
2.880000e-06	-4.467249e-06	-2.111429e-08	-3.186494e+01	-1.380342e+03
2.890000e-06	-4.553741e-06	-2.132308e-08	-3.248189e+01	-1.393692e+03
2.900000e-06	-4.638494e-06	-2.151969e-08	-3.308643e+01	-1.406407e+03
2.910000e-06	-4.721709e-06	-2.170546e-08	-3.368000e+01	-1.418529e+03
2.920000e-06	-4.803352e-06	-2.188093e-08	-3.426237e+01	-1.430098e+03
2.930000e-06	-4.883295e-06	-2.204818e-08	-3.483260e+01	-1.441145e+03
2.940000e-06	-4.961293e-06	-2.220799e-08	-3.538896e+01	-1.451691e+03
