# Temperatura_=_57.46
# Concentracion g/m^3_=_28200.0
# C_Vs_to_Am_M_A/Vsm_=_65563218390.804596
# pendiente_HvsI_1/m_=_3716.3
# ordenada_HvsI_A/m_=_1297.0
# frecuencia_Hz_=_302098.2218399083

Tiempo_(s)	Campo_(V.s)	Magnetizacion_(V.s)	Campo_(kA/m)	Magnetizacion_(A/m)
0.000000e+00	-6.404551e-06	-2.053921e-08	-4.557660e+01	-1.344042e+03
1.000000e-08	-6.401083e-06	-2.053475e-08	-4.555192e+01	-1.343647e+03
2.000000e-08	-6.395537e-06	-2.052565e-08	-4.551245e+01	-1.343104e+03
3.000000e-08	-6.388088e-06	-2.051662e-08	-4.545945e+01	-1.342413e+03
4.000000e-08	-6.378461e-06	-2.050361e-08	-4.539094e+01	-1.341569e+03
5.000000e-08	-6.366421e-06	-2.048644e-08	-4.530526e+01	-1.340573e+03
6.000000e-08	-6.351992e-06	-2.046691e-08	-4.520258e+01	-1.339425e+03
7.000000e-08	-6.335297e-06	-2.043724e-08	-4.508377e+01	-1.338127e+03
8.000000e-08	-6.316578e-06	-2.042994e-08	-4.495056e+01	-1.336690e+03
9.000000e-08	-6.295708e-06	-2.047806e-08	-4.480205e+01	-1.335126e+03
1.000000e-07	-6.272318e-06	-2.041790e-08	-4.463560e+01	-1.333453e+03
1.100000e-07	-6.246297e-06	-2.034143e-08	-4.445042e+01	-1.331688e+03
1.200000e-07	-6.217998e-06	-2.033398e-08	-4.424904e+01	-1.329850e+03
1.300000e-07	-6.187871e-06	-2.028251e-08	-4.403464e+01	-1.327947e+03
1.400000e-07	-6.156211e-06	-2.017147e-08	-4.380934e+01	-1.325979e+03
1.500000e-07	-6.122769e-06	-2.027152e-08	-4.357136e+01	-1.323932e+03
1.600000e-07	-6.087245e-06	-2.025970e-08	-4.331856e+01	-1.321780e+03
1.700000e-07	-6.049786e-06	-2.008611e-08	-4.305200e+01	-1.319486e+03
1.800000e-07	-6.010326e-06	-2.019199e-08	-4.277118e+01	-1.317008e+03
1.900000e-07	-5.968452e-06	-2.006267e-08	-4.247320e+01	-1.314307e+03
2.000000e-07	-5.924340e-06	-1.997916e-08	-4.215928e+01	-1.311352e+03
2.100000e-07	-5.878149e-06	-2.001866e-08	-4.183058e+01	-1.308127e+03
2.200000e-07	-5.829523e-06	-1.984312e-08	-4.148454e+01	-1.304632e+03
2.300000e-07	-5.778365e-06	-1.980191e-08	-4.112048e+01	-1.300883e+03
2.400000e-07	-5.724726e-06	-1.977693e-08	-4.073877e+01	-1.296903e+03
2.500000e-07	-5.668978e-06	-1.969977e-08	-4.034206e+01	-1.292721e+03
2.600000e-07	-5.611106e-06	-1.965655e-08	-3.993022e+01	-1.288358e+03
2.700000e-07	-5.551015e-06	-1.957273e-08	-3.950260e+01	-1.283824e+03
2.800000e-07	-5.488968e-06	-1.949743e-08	-3.906106e+01	-1.279114e+03
2.900000e-07	-5.424987e-06	-1.938199e-08	-3.860575e+01	-1.274206e+03
3.000000e-07	-5.358961e-06	-1.934001e-08	-3.813589e+01	-1.269071e+03
3.100000e-07	-5.290762e-06	-1.929473e-08	-3.765057e+01	-1.263675e+03
3.200000e-07	-5.220536e-06	-1.918239e-08	-3.715081e+01	-1.257989e+03
3.300000e-07	-5.148592e-06	-1.908651e-08	-3.663884e+01	-1.251996e+03
3.400000e-07	-5.074773e-06	-1.895126e-08	-3.611353e+01	-1.245693e+03
3.500000e-07	-4.998792e-06	-1.887121e-08	-3.557282e+01	-1.239091e+03
3.600000e-07	-4.920645e-06	-1.877564e-08	-3.501671e+01	-1.232210e+03
3.700000e-07	-4.840473e-06	-1.867555e-08	-3.444618e+01	-1.225071e+03
3.800000e-07	-4.758528e-06	-1.858286e-08	-3.386304e+01	-1.217687e+03
3.900000e-07	-4.675082e-06	-1.843270e-08	-3.326921e+01	-1.210062e+03
4.000000e-07	-4.590285e-06	-1.829353e-08	-3.266577e+01	-1.202180e+03
4.100000e-07	-4.504033e-06	-1.817720e-08	-3.205198e+01	-1.194013e+03
4.200000e-07	-4.416319e-06	-1.807298e-08	-3.142778e+01	-1.185525e+03
4.300000e-07	-4.327076e-06	-1.793273e-08	-3.079270e+01	-1.176677e+03
4.400000e-07	-4.236212e-06	-1.778213e-08	-3.014608e+01	-1.167435e+03
4.500000e-07	-4.143763e-06	-1.763894e-08	-2.948820e+01	-1.157779e+03
4.600000e-07	-4.049804e-06	-1.747289e-08	-2.881956e+01	-1.147701e+03
4.700000e-07	-3.954542e-06	-1.732011e-08	-2.814165e+01	-1.137204e+03
4.800000e-07	-3.857859e-06	-1.716446e-08	-2.745362e+01	-1.126298e+03
4.900000e-07	-3.759698e-06	-1.699191e-08	-2.675508e+01	-1.114991e+03
5.000000e-07	-3.660086e-06	-1.679641e-08	-2.604621e+01	-1.103281e+03
5.100000e-07	-3.559058e-06	-1.660263e-08	-2.532726e+01	-1.091151e+03
5.200000e-07	-3.456814e-06	-1.641457e-08	-2.459967e+01	-1.078570e+03
5.300000e-07	-3.353391e-06	-1.621661e-08	-2.386368e+01	-1.065491e+03
5.400000e-07	-3.248704e-06	-1.601291e-08	-2.311870e+01	-1.051864e+03
5.500000e-07	-3.142772e-06	-1.579452e-08	-2.236486e+01	-1.037633e+03
5.600000e-07	-3.035625e-06	-1.556500e-08	-2.160237e+01	-1.022753e+03
5.700000e-07	-2.927258e-06	-1.532101e-08	-2.083120e+01	-1.007184e+03
5.800000e-07	-2.817816e-06	-1.507359e-08	-2.005238e+01	-9.908977e+02
5.900000e-07	-2.707405e-06	-1.481654e-08	-1.926666e+01	-9.738691e+02
6.000000e-07	-2.596102e-06	-1.454125e-08	-1.847460e+01	-9.560735e+02
6.100000e-07	-2.483738e-06	-1.425160e-08	-1.767499e+01	-9.374781e+02
6.200000e-07	-2.370289e-06	-1.395356e-08	-1.686765e+01	-9.180376e+02
6.300000e-07	-2.255928e-06	-1.364710e-08	-1.605382e+01	-8.976913e+02
6.400000e-07	-2.140530e-06	-1.332404e-08	-1.523262e+01	-8.763647e+02
6.500000e-07	-2.024202e-06	-1.298167e-08	-1.440480e+01	-8.539728e+02
6.600000e-07	-1.907139e-06	-1.261545e-08	-1.357174e+01	-8.304255e+02
6.700000e-07	-1.789398e-06	-1.223193e-08	-1.273386e+01	-8.056315e+02
6.800000e-07	-1.671140e-06	-1.183414e-08	-1.189230e+01	-7.795013e+02
6.900000e-07	-1.552408e-06	-1.141669e-08	-1.104737e+01	-7.519469e+02
7.000000e-07	-1.433101e-06	-1.097522e-08	-1.019835e+01	-7.228802e+02
7.100000e-07	-1.313257e-06	-1.050456e-08	-9.345509e+00	-6.922123e+02
7.200000e-07	-1.192976e-06	-1.000747e-08	-8.489558e+00	-6.598544e+02
7.300000e-07	-1.072256e-06	-9.482926e-09	-7.630481e+00	-6.257247e+02
7.400000e-07	-9.511366e-07	-8.932922e-09	-6.768558e+00	-5.897604e+02
7.500000e-07	-8.296645e-07	-8.359218e-09	-5.904128e+00	-5.519349e+02
7.600000e-07	-7.079325e-07	-7.757265e-09	-5.037849e+00	-5.122765e+02
7.700000e-07	-5.860053e-07	-7.123106e-09	-4.170180e+00	-4.708845e+02
7.800000e-07	-4.639089e-07	-6.465272e-09	-3.301308e+00	-4.279373e+02
7.900000e-07	-3.416974e-07	-5.792876e-09	-2.431615e+00	-3.836880e+02
8.000000e-07	-2.193033e-07	-5.107293e-09	-1.560625e+00	-3.384447e+02
8.100000e-07	-9.670764e-08	-4.412382e-09	-6.881990e-01	-2.925383e+02
8.200000e-07	2.599006e-08	-3.711949e-09	1.849527e-01	-2.462789e+02
8.300000e-07	1.487111e-07	-3.007858e-09	1.058271e+00	-1.999113e+02
8.400000e-07	2.713899e-07	-2.299019e-09	1.931288e+00	-1.535760e+02
8.500000e-07	3.939604e-07	-1.592520e-09	2.803534e+00	-1.072863e+02
8.600000e-07	5.163918e-07	-8.858584e-10	3.674790e+00	-6.092642e+01
8.700000e-07	6.386582e-07	-1.740226e-10	4.544873e+00	-1.427381e+01
8.800000e-07	7.607218e-07	5.471209e-10	5.413512e+00	3.295594e+01
8.900000e-07	8.826211e-07	1.280053e-09	6.280982e+00	8.104954e+01
9.000000e-07	1.004228e-06	2.027329e-09	7.146369e+00	1.302311e+02
9.100000e-07	1.125496e-06	2.793027e-09	8.009348e+00	1.806042e+02
9.200000e-07	1.246435e-06	3.574926e-09	8.869986e+00	2.321108e+02
9.300000e-07	1.366847e-06	4.371723e-09	9.726871e+00	2.845162e+02
9.400000e-07	1.486650e-06	5.180109e-09	1.057943e+01	3.374213e+02
9.500000e-07	1.605907e-06	5.991437e-09	1.142809e+01	3.903008e+02
9.600000e-07	1.724606e-06	6.791326e-09	1.227279e+01	4.425605e+02
9.700000e-07	1.842688e-06	7.568513e-09	1.311309e+01	4.936024e+02
9.800000e-07	1.960112e-06	8.314592e-09	1.394871e+01	5.428877e+02
9.900000e-07	2.076786e-06	9.025654e-09	1.477900e+01	5.899864e+02
1.000000e-06	2.192671e-06	9.698192e-09	1.560367e+01	6.346074e+02
1.010000e-06	2.307619e-06	1.033023e-08	1.642167e+01	6.766062e+02
1.020000e-06	2.421512e-06	1.092625e-08	1.723217e+01	7.159716e+02
1.030000e-06	2.534323e-06	1.148611e-08	1.803496e+01	7.527974e+02
1.040000e-06	2.646022e-06	1.201315e-08	1.882985e+01	7.872456e+02
1.050000e-06	2.756787e-06	1.250341e-08	1.961808e+01	8.195102e+02
1.060000e-06	2.866748e-06	1.296274e-08	2.040059e+01	8.497864e+02
1.070000e-06	2.975800e-06	1.339379e-08	2.117664e+01	8.782507e+02
1.080000e-06	3.083882e-06	1.379819e-08	2.194578e+01	9.050517e+02
1.090000e-06	3.190928e-06	1.418029e-08	2.270755e+01	9.303112e+02
1.100000e-06	3.296777e-06	1.454208e-08	2.346080e+01	9.541305e+02
1.110000e-06	3.401333e-06	1.488554e-08	2.420485e+01	9.766000e+02
1.120000e-06	3.504569e-06	1.520986e-08	2.493951e+01	9.978064e+02
1.130000e-06	3.606582e-06	1.551462e-08	2.566546e+01	1.017838e+03
1.140000e-06	3.707455e-06	1.580247e-08	2.638330e+01	1.036782e+03
1.150000e-06	3.807122e-06	1.607670e-08	2.709256e+01	1.054727e+03
1.160000e-06	3.905393e-06	1.633411e-08	2.779189e+01	1.071752e+03
1.170000e-06	4.002092e-06	1.657661e-08	2.848002e+01	1.087926e+03
1.180000e-06	4.097298e-06	1.680620e-08	2.915754e+01	1.103308e+03
1.190000e-06	4.191128e-06	1.702664e-08	2.982525e+01	1.117942e+03
1.200000e-06	4.283624e-06	1.723709e-08	3.048349e+01	1.131865e+03
1.210000e-06	4.374714e-06	1.743706e-08	3.113171e+01	1.145112e+03
1.220000e-06	4.464156e-06	1.762740e-08	3.176820e+01	1.157714e+03
1.230000e-06	4.551861e-06	1.780931e-08	3.239234e+01	1.169705e+03
1.240000e-06	4.637916e-06	1.798215e-08	3.300472e+01	1.181120e+03
1.250000e-06	4.722479e-06	1.814864e-08	3.360650e+01	1.191992e+03
1.260000e-06	4.805534e-06	1.830739e-08	3.419754e+01	1.202353e+03
1.270000e-06	4.886814e-06	1.845820e-08	3.477595e+01	1.212226e+03
1.280000e-06	4.966189e-06	1.860224e-08	3.534081e+01	1.221623e+03
1.290000e-06	5.043675e-06	1.873826e-08	3.589222e+01	1.230553e+03
1.300000e-06	5.119241e-06	1.886681e-08	3.642997e+01	1.239016e+03
1.310000e-06	5.192743e-06	1.898980e-08	3.695303e+01	1.247013e+03
1.320000e-06	5.264259e-06	1.910586e-08	3.746196e+01	1.254552e+03
1.330000e-06	5.333950e-06	1.921379e-08	3.795791e+01	1.261646e+03
1.340000e-06	5.401851e-06	1.931405e-08	3.844111e+01	1.268321e+03
1.350000e-06	5.467792e-06	1.940922e-08	3.891036e+01	1.274611e+03
1.360000e-06	5.531609e-06	1.950111e-08	3.936450e+01	1.280559e+03
1.370000e-06	5.593523e-06	1.958832e-08	3.980509e+01	1.286206e+03
1.380000e-06	5.653650e-06	1.967048e-08	4.023298e+01	1.291589e+03
1.390000e-06	5.711811e-06	1.974766e-08	4.064687e+01	1.296737e+03
1.400000e-06	5.767826e-06	1.982253e-08	4.104548e+01	1.301666e+03
1.410000e-06	5.821735e-06	1.989458e-08	4.142912e+01	1.306380e+03
1.420000e-06	5.873450e-06	1.996308e-08	4.179713e+01	1.310876e+03
1.430000e-06	5.922673e-06	2.002794e-08	4.214742e+01	1.315142e+03
1.440000e-06	5.969564e-06	2.009001e-08	4.248111e+01	1.319166e+03
1.450000e-06	6.014503e-06	2.014689e-08	4.280091e+01	1.322939e+03
1.460000e-06	6.057476e-06	2.019833e-08	4.310672e+01	1.326456e+03
1.470000e-06	6.098177e-06	2.024650e-08	4.339636e+01	1.329717e+03
1.480000e-06	6.136628e-06	2.029229e-08	4.366999e+01	1.332727e+03
1.490000e-06	6.173075e-06	2.033515e-08	4.392935e+01	1.335494e+03
1.500000e-06	6.207326e-06	2.037238e-08	4.417309e+01	1.338026e+03
1.510000e-06	6.239280e-06	2.040621e-08	4.440049e+01	1.340332e+03
1.520000e-06	6.269129e-06	2.043651e-08	4.461290e+01	1.342419e+03
1.530000e-06	6.296983e-06	2.046302e-08	4.481112e+01	1.344290e+03
1.540000e-06	6.322471e-06	2.048656e-08	4.499250e+01	1.345953e+03
1.550000e-06	6.345507e-06	2.050794e-08	4.515643e+01	1.347411e+03
1.560000e-06	6.366402e-06	2.052706e-08	4.530513e+01	1.348671e+03
1.570000e-06	6.385170e-06	2.054329e-08	4.543868e+01	1.349742e+03
1.580000e-06	6.401582e-06	2.055744e-08	4.555548e+01	1.350633e+03
1.590000e-06	6.415562e-06	2.056875e-08	4.565496e+01	1.351354e+03
1.600000e-06	6.427136e-06	2.057791e-08	4.573733e+01	1.351913e+03
1.610000e-06	6.436050e-06	2.058525e-08	4.580076e+01	1.352317e+03
1.620000e-06	6.442475e-06	2.058941e-08	4.584648e+01	1.352573e+03
1.630000e-06	6.446807e-06	2.059220e-08	4.587731e+01	1.352682e+03
1.640000e-06	6.448956e-06	2.059438e-08	4.589260e+01	1.352647e+03
1.650000e-06	6.448722e-06	2.059612e-08	4.589093e+01	1.352468e+03
1.660000e-06	6.446307e-06	2.058609e-08	4.587375e+01	1.352144e+03
1.670000e-06	6.441941e-06	2.057688e-08	4.584268e+01	1.351674e+03
1.680000e-06	6.435322e-06	2.056635e-08	4.579558e+01	1.351055e+03
1.690000e-06	6.426452e-06	2.055503e-08	4.573246e+01	1.350286e+03
1.700000e-06	6.415660e-06	2.054513e-08	4.565566e+01	1.349365e+03
1.710000e-06	6.402673e-06	2.053452e-08	4.556324e+01	1.348290e+03
1.720000e-06	6.387392e-06	2.053490e-08	4.545449e+01	1.347065e+03
1.730000e-06	6.370116e-06	2.048711e-08	4.533155e+01	1.345694e+03
1.740000e-06	6.350695e-06	2.037964e-08	4.519335e+01	1.344190e+03
1.750000e-06	6.328326e-06	2.040034e-08	4.503417e+01	1.342567e+03
1.760000e-06	6.302781e-06	2.041154e-08	4.485238e+01	1.340843e+03
1.770000e-06	6.275029e-06	2.035789e-08	4.465489e+01	1.339038e+03
1.780000e-06	6.245439e-06	2.043837e-08	4.444432e+01	1.337165e+03
1.790000e-06	6.214165e-06	2.039606e-08	4.422176e+01	1.335228e+03
1.800000e-06	6.181532e-06	2.022511e-08	4.398954e+01	1.333221e+03
1.810000e-06	6.146904e-06	2.029248e-08	4.374312e+01	1.331124e+03
1.820000e-06	6.110199e-06	2.015477e-08	4.348191e+01	1.328904e+03
1.830000e-06	6.071404e-06	2.015154e-08	4.320583e+01	1.326522e+03
1.840000e-06	6.030132e-06	2.030786e-08	4.291213e+01	1.323935e+03
1.850000e-06	5.986846e-06	2.006609e-08	4.260410e+01	1.321108e+03
1.860000e-06	5.941537e-06	2.011729e-08	4.228167e+01	1.318017e+03
1.870000e-06	5.893994e-06	2.010232e-08	4.194333e+01	1.314654e+03
1.880000e-06	5.844424e-06	1.995789e-08	4.159058e+01	1.311027e+03
1.890000e-06	5.792345e-06	2.000998e-08	4.121997e+01	1.307157e+03
1.900000e-06	5.737688e-06	1.981020e-08	4.083102e+01	1.303071e+03
1.910000e-06	5.680836e-06	1.979711e-08	4.042644e+01	1.298795e+03
1.920000e-06	5.621942e-06	1.979270e-08	4.000734e+01	1.294344e+03
1.930000e-06	5.561169e-06	1.968357e-08	3.957485e+01	1.289721e+03
1.940000e-06	5.498246e-06	1.968916e-08	3.912708e+01	1.284914e+03
1.950000e-06	5.433190e-06	1.949030e-08	3.866412e+01	1.279895e+03
1.960000e-06	5.366204e-06	1.946625e-08	3.818743e+01	1.274631e+03
1.970000e-06	5.297134e-06	1.934465e-08	3.769591e+01	1.269091e+03
1.980000e-06	5.225968e-06	1.923757e-08	3.718947e+01	1.263251e+03
1.990000e-06	5.152928e-06	1.923006e-08	3.666970e+01	1.257101e+03
2.000000e-06	5.078082e-06	1.908213e-08	3.613707e+01	1.250644e+03
2.010000e-06	5.001063e-06	1.901645e-08	3.558899e+01	1.243898e+03
2.020000e-06	4.922018e-06	1.883830e-08	3.502648e+01	1.236884e+03
2.030000e-06	4.841268e-06	1.876681e-08	3.445184e+01	1.229619e+03
2.040000e-06	4.758790e-06	1.869489e-08	3.386490e+01	1.222113e+03
2.050000e-06	4.674844e-06	1.854944e-08	3.326752e+01	1.214360e+03
2.060000e-06	4.589192e-06	1.843155e-08	3.265799e+01	1.206338e+03
2.070000e-06	4.501789e-06	1.826471e-08	3.203601e+01	1.198014e+03
2.080000e-06	4.412867e-06	1.815656e-08	3.140321e+01	1.189349e+03
2.090000e-06	4.322412e-06	1.800303e-08	3.075951e+01	1.180305e+03
2.100000e-06	4.230564e-06	1.788953e-08	3.010589e+01	1.170856e+03
2.110000e-06	4.137253e-06	1.774322e-08	2.944187e+01	1.160987e+03
2.120000e-06	4.042403e-06	1.756951e-08	2.876688e+01	1.150697e+03
2.130000e-06	3.946054e-06	1.740474e-08	2.808124e+01	1.139992e+03
2.140000e-06	3.848305e-06	1.723110e-08	2.738563e+01	1.128884e+03
2.150000e-06	3.749339e-06	1.707457e-08	2.668136e+01	1.117374e+03
2.160000e-06	3.649066e-06	1.688629e-08	2.596779e+01	1.105455e+03
2.170000e-06	3.547261e-06	1.671095e-08	2.524332e+01	1.093102e+03
2.180000e-06	3.444052e-06	1.650260e-08	2.450885e+01	1.080277e+03
2.190000e-06	3.339554e-06	1.629760e-08	2.376521e+01	1.066929e+03
2.200000e-06	3.233873e-06	1.608648e-08	2.301316e+01	1.053004e+03
2.210000e-06	3.127184e-06	1.587632e-08	2.225393e+01	1.038452e+03
2.220000e-06	3.019460e-06	1.564662e-08	2.148734e+01	1.023230e+03
2.230000e-06	2.910647e-06	1.539708e-08	2.071299e+01	1.007303e+03
2.240000e-06	2.800851e-06	1.514746e-08	1.993165e+01	9.906468e+02
2.250000e-06	2.690056e-06	1.488771e-08	1.914320e+01	9.732362e+02
2.260000e-06	2.578103e-06	1.461473e-08	1.834651e+01	9.550436e+02
2.270000e-06	2.465105e-06	1.431892e-08	1.754239e+01	9.360303e+02
2.280000e-06	2.351165e-06	1.401803e-08	1.673156e+01	9.161435e+02
2.290000e-06	2.236284e-06	1.369761e-08	1.591403e+01	8.953151e+02
2.300000e-06	2.120512e-06	1.336653e-08	1.509016e+01	8.734650e+02
2.310000e-06	2.003838e-06	1.301940e-08	1.425988e+01	8.505049e+02
2.320000e-06	1.886385e-06	1.265681e-08	1.342405e+01	8.263436e+02
2.330000e-06	1.768263e-06	1.226888e-08	1.258346e+01	8.008907e+02
2.340000e-06	1.649417e-06	1.185437e-08	1.173772e+01	7.740574e+02
2.350000e-06	1.529926e-06	1.142014e-08	1.088739e+01	7.457560e+02
2.360000e-06	1.409908e-06	1.096920e-08	1.003331e+01	7.158979e+02
2.370000e-06	1.289446e-06	1.049770e-08	9.176067e+00	6.843939e+02
2.380000e-06	1.168618e-06	9.992961e-09	8.316214e+00	6.511576e+02
2.390000e-06	1.047480e-06	9.456863e-09	7.454166e+00	6.161146e+02
2.400000e-06	9.260435e-07	8.889055e-09	6.589988e+00	5.792181e+02
2.410000e-06	8.042476e-07	8.295793e-09	5.723255e+00	5.404665e+02
2.420000e-06	6.821835e-07	7.677783e-09	4.854612e+00	4.999221e+02
2.430000e-06	5.599699e-07	7.037432e-09	3.984905e+00	4.577234e+02
2.440000e-06	4.375979e-07	6.373359e-09	3.114071e+00	4.140875e+02
2.450000e-06	3.150779e-07	5.685108e-09	2.242183e+00	3.692984e+02
2.460000e-06	1.924762e-07	4.982590e-09	1.369715e+00	3.236805e+02
2.470000e-06	6.981804e-08	4.275163e-09	4.968450e-01	2.775599e+02
2.480000e-06	-5.292085e-08	3.569688e-09	-3.765998e-01	2.312196e+02
2.490000e-06	-1.756867e-07	2.862325e-09	-1.250237e+00	1.848563e+02
2.500000e-06	-2.983766e-07	2.150845e-09	-2.123333e+00	1.385485e+02
2.510000e-06	-4.209169e-07	1.441022e-09	-2.995364e+00	9.224371e+01
2.520000e-06	-5.433494e-07	7.310406e-10	-3.866629e+00	4.576845e+01
2.530000e-06	-6.656432e-07	1.522909e-11	-4.736906e+00	-1.137459e+00
2.540000e-06	-7.877332e-07	-7.125759e-10	-5.605733e+00	-4.876766e+01
2.550000e-06	-9.096132e-07	-1.455190e-09	-6.473066e+00	-9.738552e+01
2.560000e-06	-1.031179e-06	-2.214851e-09	-7.338163e+00	-1.471612e+02
2.570000e-06	-1.152324e-06	-2.993242e-09	-8.200265e+00	-1.981213e+02
2.580000e-06	-1.273040e-06	-3.785133e-09	-9.059315e+00	-2.501195e+02
2.590000e-06	-1.393384e-06	-4.588325e-09	-9.915715e+00	-3.028356e+02
2.600000e-06	-1.513277e-06	-5.398169e-09	-1.076891e+01	-3.558013e+02
2.610000e-06	-1.632486e-06	-6.204171e-09	-1.161724e+01	-4.084489e+02
2.620000e-06	-1.750941e-06	-6.996526e-09	-1.246019e+01	-4.601740e+02
2.630000e-06	-1.868678e-06	-7.765886e-09	-1.329804e+01	-5.104011e+02
2.640000e-06	-1.985620e-06	-8.503590e-09	-1.413023e+01	-5.586405e+02
2.650000e-06	-2.101697e-06	-9.207080e-09	-1.495627e+01	-6.045295e+02
2.660000e-06	-2.216837e-06	-9.872873e-09	-1.577564e+01	-6.478506e+02
2.670000e-06	-2.331032e-06	-1.049826e-08	-1.658828e+01	-6.885287e+02
2.680000e-06	-2.444181e-06	-1.108334e-08	-1.739349e+01	-7.266093e+02
2.690000e-06	-2.556214e-06	-1.162926e-08	-1.819074e+01	-7.622252e+02
2.700000e-06	-2.667173e-06	-1.213929e-08	-1.898036e+01	-7.955586e+02
2.710000e-06	-2.777032e-06	-1.261981e-08	-1.976215e+01	-8.268074e+02
2.720000e-06	-2.886030e-06	-1.307346e-08	-2.053781e+01	-8.561591e+02
2.730000e-06	-2.994188e-06	-1.349800e-08	-2.130749e+01	-8.837770e+02
2.740000e-06	-3.101304e-06	-1.389688e-08	-2.206976e+01	-9.097955e+02
2.750000e-06	-3.207437e-06	-1.427037e-08	-2.282503e+01	-9.343251e+02
2.760000e-06	-3.312515e-06	-1.461847e-08	-2.357280e+01	-9.574604e+02
2.770000e-06	-3.416406e-06	-1.494761e-08	-2.431212e+01	-9.792894e+02
2.780000e-06	-3.519049e-06	-1.526369e-08	-2.504255e+01	-9.998991e+02
2.790000e-06	-3.620357e-06	-1.556576e-08	-2.576349e+01	-1.019378e+03
2.800000e-06	-3.720292e-06	-1.585151e-08	-2.647466e+01	-1.037814e+03
2.810000e-06	-3.818941e-06	-1.611957e-08	-2.717667e+01	-1.055291e+03
2.820000e-06	-3.916336e-06	-1.637229e-08	-2.786976e+01	-1.071885e+03
2.830000e-06	-4.012421e-06	-1.661268e-08	-2.855352e+01	-1.087658e+03
2.840000e-06	-4.107113e-06	-1.684268e-08	-2.922739e+01	-1.102663e+03
2.850000e-06	-4.200275e-06	-1.706373e-08	-2.989035e+01	-1.116940e+03
2.860000e-06	-4.291901e-06	-1.727527e-08	-3.054238e+01	-1.130523e+03
2.870000e-06	-4.382008e-06	-1.747604e-08	-3.118361e+01	-1.143445e+03
2.880000e-06	-4.470570e-06	-1.766349e-08	-3.181385e+01	-1.155739e+03
2.890000e-06	-4.557500e-06	-1.783859e-08	-3.243247e+01	-1.167439e+03
2.900000e-06	-4.642671e-06	-1.800665e-08	-3.303857e+01	-1.178581e+03
2.910000e-06	-4.726191e-06	-1.816935e-08	-3.363292e+01	-1.189196e+03
2.920000e-06	-4.808115e-06	-1.832466e-08	-3.421591e+01	-1.199313e+03
2.930000e-06	-4.888322e-06	-1.847230e-08	-3.478668e+01	-1.208948e+03
2.940000e-06	-4.966617e-06	-1.861113e-08	-3.534386e+01	-1.218113e+03
