# Temperatura_=_89.42
# Concentracion g/m^3_=_28200.0
# C_Vs_to_Am_M_A/Vsm_=_65563218390.804596
# pendiente_HvsI_1/m_=_3716.3
# ordenada_HvsI_A/m_=_1297.0
# frecuencia_Hz_=_302095.5746636119

Tiempo_(s)	Campo_(V.s)	Magnetizacion_(V.s)	Campo_(kA/m)	Magnetizacion_(A/m)
0.000000e+00	-6.396581e-06	-2.671732e-08	-4.558271e+01	-1.743745e+03
1.000000e-08	-6.393136e-06	-2.670802e-08	-4.555815e+01	-1.743277e+03
2.000000e-08	-6.387603e-06	-2.669757e-08	-4.551873e+01	-1.742681e+03
3.000000e-08	-6.380080e-06	-2.668596e-08	-4.546511e+01	-1.741939e+03
4.000000e-08	-6.370427e-06	-2.666799e-08	-4.539633e+01	-1.741006e+03
5.000000e-08	-6.358364e-06	-2.664587e-08	-4.531036e+01	-1.739828e+03
6.000000e-08	-6.343948e-06	-2.662062e-08	-4.520764e+01	-1.738354e+03
7.000000e-08	-6.327292e-06	-2.657975e-08	-4.508894e+01	-1.736551e+03
8.000000e-08	-6.308574e-06	-2.653797e-08	-4.495556e+01	-1.734421e+03
9.000000e-08	-6.287760e-06	-2.653235e-08	-4.480723e+01	-1.732007e+03
1.000000e-07	-6.264495e-06	-2.647496e-08	-4.464145e+01	-1.729394e+03
1.100000e-07	-6.238537e-06	-2.642734e-08	-4.445647e+01	-1.726693e+03
1.200000e-07	-6.210208e-06	-2.641982e-08	-4.425459e+01	-1.724023e+03
1.300000e-07	-6.180037e-06	-2.638413e-08	-4.403959e+01	-1.721481e+03
1.400000e-07	-6.148344e-06	-2.628142e-08	-4.381374e+01	-1.719117e+03
1.500000e-07	-6.114878e-06	-2.628178e-08	-4.357526e+01	-1.716923e+03
1.600000e-07	-6.079293e-06	-2.623629e-08	-4.332168e+01	-1.714824e+03
1.700000e-07	-6.041839e-06	-2.612521e-08	-4.305477e+01	-1.712688e+03
1.800000e-07	-6.002364e-06	-2.616269e-08	-4.277347e+01	-1.710349e+03
1.900000e-07	-5.960446e-06	-2.601812e-08	-4.247476e+01	-1.707641e+03
2.000000e-07	-5.916309e-06	-2.597580e-08	-4.216024e+01	-1.704424e+03
2.100000e-07	-5.870119e-06	-2.596763e-08	-4.183108e+01	-1.700612e+03
2.200000e-07	-5.821570e-06	-2.574045e-08	-4.148512e+01	-1.696187e+03
2.300000e-07	-5.770469e-06	-2.567687e-08	-4.112097e+01	-1.691193e+03
2.400000e-07	-5.716921e-06	-2.565995e-08	-4.073938e+01	-1.685723e+03
2.500000e-07	-5.661231e-06	-2.556538e-08	-4.034252e+01	-1.679892e+03
2.600000e-07	-5.603282e-06	-2.548899e-08	-3.992958e+01	-1.673808e+03
2.700000e-07	-5.543244e-06	-2.540288e-08	-3.950173e+01	-1.667545e+03
2.800000e-07	-5.481378e-06	-2.528812e-08	-3.906088e+01	-1.661133e+03
2.900000e-07	-5.417491e-06	-2.511303e-08	-3.860560e+01	-1.654547e+03
3.000000e-07	-5.351491e-06	-2.504426e-08	-3.813529e+01	-1.647726e+03
3.100000e-07	-5.283389e-06	-2.501054e-08	-3.764998e+01	-1.640593e+03
3.200000e-07	-5.213310e-06	-2.488045e-08	-3.715059e+01	-1.633072e+03
3.300000e-07	-5.141443e-06	-2.472561e-08	-3.663846e+01	-1.625114e+03
3.400000e-07	-5.067644e-06	-2.456350e-08	-3.611256e+01	-1.616708e+03
3.500000e-07	-4.991743e-06	-2.444169e-08	-3.557168e+01	-1.607878e+03
3.600000e-07	-4.913724e-06	-2.429602e-08	-3.501571e+01	-1.598674e+03
3.700000e-07	-4.833699e-06	-2.416730e-08	-3.444544e+01	-1.589154e+03
3.800000e-07	-4.751913e-06	-2.405457e-08	-3.386263e+01	-1.579362e+03
3.900000e-07	-4.668559e-06	-2.387711e-08	-3.326864e+01	-1.569315e+03
4.000000e-07	-4.583803e-06	-2.369156e-08	-3.266466e+01	-1.558993e+03
4.100000e-07	-4.497623e-06	-2.352954e-08	-3.205053e+01	-1.548344e+03
4.200000e-07	-4.410015e-06	-2.337694e-08	-3.142622e+01	-1.537295e+03
4.300000e-07	-4.320913e-06	-2.319388e-08	-3.079128e+01	-1.525770e+03
4.400000e-07	-4.230134e-06	-2.300218e-08	-3.014438e+01	-1.513707e+03
4.500000e-07	-4.137748e-06	-2.281023e-08	-2.948603e+01	-1.501074e+03
4.600000e-07	-4.043950e-06	-2.259658e-08	-2.881761e+01	-1.487866e+03
4.700000e-07	-3.948774e-06	-2.239894e-08	-2.813938e+01	-1.474108e+03
4.800000e-07	-3.852223e-06	-2.219726e-08	-2.745135e+01	-1.459833e+03
4.900000e-07	-3.754236e-06	-2.196968e-08	-2.675308e+01	-1.445073e+03
5.000000e-07	-3.654749e-06	-2.172015e-08	-2.604412e+01	-1.429838e+03
5.100000e-07	-3.553901e-06	-2.147238e-08	-2.532547e+01	-1.414107e+03
5.200000e-07	-3.451866e-06	-2.122691e-08	-2.459836e+01	-1.397834e+03
5.300000e-07	-3.348590e-06	-2.096828e-08	-2.386240e+01	-1.380944e+03
5.400000e-07	-3.244051e-06	-2.070415e-08	-2.311745e+01	-1.363359e+03
5.500000e-07	-3.138275e-06	-2.042571e-08	-2.236367e+01	-1.345003e+03
5.600000e-07	-3.031177e-06	-2.013290e-08	-2.160048e+01	-1.325818e+03
5.700000e-07	-2.922888e-06	-1.982391e-08	-2.082880e+01	-1.305770e+03
5.800000e-07	-2.813609e-06	-1.950934e-08	-2.005007e+01	-1.284841e+03
5.900000e-07	-2.703420e-06	-1.917859e-08	-1.926485e+01	-1.263019e+03
6.000000e-07	-2.592316e-06	-1.882466e-08	-1.847312e+01	-1.240287e+03
6.100000e-07	-2.480107e-06	-1.845491e-08	-1.767350e+01	-1.216604e+03
6.200000e-07	-2.366832e-06	-1.807239e-08	-1.686629e+01	-1.191899e+03
6.300000e-07	-2.252575e-06	-1.767921e-08	-1.605208e+01	-1.166071e+03
6.400000e-07	-2.137256e-06	-1.726932e-08	-1.523031e+01	-1.138991e+03
6.500000e-07	-2.021037e-06	-1.683834e-08	-1.440212e+01	-1.110521e+03
6.600000e-07	-1.904095e-06	-1.637434e-08	-1.356878e+01	-1.080523e+03
6.700000e-07	-1.786518e-06	-1.588527e-08	-1.273091e+01	-1.048869e+03
6.800000e-07	-1.668411e-06	-1.537913e-08	-1.188927e+01	-1.015447e+03
6.900000e-07	-1.549772e-06	-1.484944e-08	-1.104384e+01	-9.801578e+02
7.000000e-07	-1.430593e-06	-1.428657e-08	-1.019455e+01	-9.429013e+02
7.100000e-07	-1.310859e-06	-1.368539e-08	-9.341319e+00	-9.035699e+02
7.200000e-07	-1.190641e-06	-1.304694e-08	-8.484629e+00	-8.620415e+02
7.300000e-07	-1.069998e-06	-1.236887e-08	-7.624915e+00	-8.181841e+02
7.400000e-07	-9.490169e-07	-1.165775e-08	-6.762794e+00	-7.718725e+02
7.500000e-07	-8.278206e-07	-1.091811e-08	-5.899136e+00	-7.230154e+02
7.600000e-07	-7.063609e-07	-1.014132e-08	-5.033602e+00	-6.715885e+02
7.700000e-07	-5.846872e-07	-9.318481e-09	-4.166542e+00	-6.176651e+02
7.800000e-07	-4.628459e-07	-8.457726e-09	-3.298288e+00	-5.614333e+02
7.900000e-07	-3.407805e-07	-7.569351e-09	-2.428437e+00	-5.031944e+02
8.000000e-07	-2.185520e-07	-6.658285e-09	-1.557424e+00	-4.433364e+02
8.100000e-07	-9.614363e-08	-5.730831e-09	-6.851295e-01	-3.822856e+02
8.200000e-07	2.641559e-08	-4.794156e-09	1.882403e-01	-3.204438e+02
8.300000e-07	1.489891e-07	-3.851287e-09	1.061712e+00	-2.581229e+02
8.400000e-07	2.715094e-07	-2.896438e-09	1.934804e+00	-1.954921e+02
8.500000e-07	3.939408e-07	-1.933696e-09	2.807263e+00	-1.325501e+02
8.600000e-07	5.162428e-07	-9.627811e-10	3.678800e+00	-6.913113e+01
8.700000e-07	6.383446e-07	2.030063e-11	4.548910e+00	-4.947772e+00
8.800000e-07	7.602372e-07	1.015770e-09	5.417530e+00	6.033716e+01
8.900000e-07	8.819128e-07	2.026995e-09	6.284603e+00	1.270209e+02
9.000000e-07	1.003359e-06	3.058236e-09	7.150042e+00	1.952707e+02
9.100000e-07	1.124483e-06	4.113666e-09	8.013182e+00	2.650523e+02
9.200000e-07	1.245211e-06	5.190257e-09	8.873505e+00	3.360891e+02
9.300000e-07	1.365495e-06	6.282863e-09	9.730657e+00	4.078634e+02
9.400000e-07	1.485246e-06	7.381301e-09	1.058402e+01	4.796587e+02
9.500000e-07	1.604330e-06	8.465574e-09	1.143262e+01	5.506341e+02
9.600000e-07	1.722788e-06	9.518981e-09	1.227677e+01	6.199195e+02
9.700000e-07	1.840719e-06	1.053174e-08	1.311715e+01	6.867124e+02
9.800000e-07	1.957978e-06	1.149508e-08	1.395275e+01	7.503598e+02
9.900000e-07	2.074520e-06	1.240072e-08	1.478324e+01	8.104125e+02
1.000000e-06	2.190298e-06	1.324581e-08	1.560829e+01	8.666460e+02
1.010000e-06	2.305093e-06	1.403366e-08	1.642633e+01	9.190466e+02
1.020000e-06	2.418786e-06	1.476883e-08	1.723652e+01	9.677704e+02
1.030000e-06	2.531476e-06	1.545553e-08	1.803956e+01	1.013087e+03
1.040000e-06	2.643112e-06	1.609838e-08	1.883509e+01	1.055320e+03
1.050000e-06	2.753728e-06	1.670019e-08	1.962335e+01	1.094792e+03
1.060000e-06	2.863465e-06	1.726343e-08	2.040535e+01	1.131792e+03
1.070000e-06	2.972250e-06	1.778810e-08	2.118056e+01	1.166557e+03
1.080000e-06	3.080121e-06	1.827843e-08	2.194926e+01	1.199267e+03
1.090000e-06	3.187009e-06	1.873951e-08	2.271096e+01	1.230063e+03
1.100000e-06	3.292715e-06	1.917515e-08	2.346423e+01	1.259061e+03
1.110000e-06	3.397112e-06	1.958914e-08	2.420817e+01	1.286370e+03
1.120000e-06	3.500148e-06	1.998155e-08	2.494242e+01	1.312106e+03
1.130000e-06	3.602004e-06	2.035086e-08	2.566826e+01	1.336388e+03
1.140000e-06	3.702765e-06	2.069983e-08	2.638629e+01	1.359345e+03
1.150000e-06	3.802274e-06	2.103212e-08	2.709541e+01	1.381100e+03
1.160000e-06	3.900348e-06	2.134683e-08	2.779429e+01	1.401764e+03
1.170000e-06	3.996877e-06	2.164249e-08	2.848217e+01	1.421431e+03
1.180000e-06	4.091897e-06	2.192309e-08	2.915928e+01	1.440171e+03
1.190000e-06	4.185500e-06	2.219132e-08	2.982631e+01	1.458036e+03
1.200000e-06	4.277838e-06	2.244519e-08	3.048432e+01	1.475064e+03
1.210000e-06	4.368872e-06	2.268854e-08	3.113304e+01	1.491285e+03
1.220000e-06	4.458229e-06	2.292176e-08	3.176981e+01	1.506730e+03
1.230000e-06	4.545789e-06	2.314423e-08	3.239376e+01	1.521433e+03
1.240000e-06	4.631729e-06	2.335736e-08	3.300618e+01	1.535436e+03
1.250000e-06	4.716161e-06	2.356051e-08	3.360786e+01	1.548783e+03
1.260000e-06	4.799052e-06	2.375206e-08	3.419854e+01	1.561520e+03
1.270000e-06	4.880161e-06	2.393373e-08	3.477654e+01	1.573687e+03
1.280000e-06	4.959413e-06	2.410679e-08	3.534130e+01	1.585321e+03
1.290000e-06	5.036850e-06	2.427278e-08	3.589312e+01	1.596448e+03
1.300000e-06	5.112388e-06	2.443363e-08	3.643141e+01	1.607085e+03
1.310000e-06	5.185895e-06	2.458963e-08	3.695523e+01	1.617244e+03
1.320000e-06	5.257384e-06	2.473913e-08	3.746467e+01	1.626929e+03
1.330000e-06	5.326963e-06	2.488120e-08	3.796049e+01	1.636145e+03
1.340000e-06	5.394649e-06	2.501445e-08	3.844283e+01	1.644895e+03
1.350000e-06	5.460342e-06	2.513796e-08	3.891097e+01	1.653183e+03
1.360000e-06	5.523990e-06	2.525421e-08	3.936453e+01	1.661019e+03
1.370000e-06	5.585774e-06	2.536503e-08	3.980481e+01	1.668414e+03
1.380000e-06	5.645810e-06	2.546979e-08	4.023264e+01	1.675386e+03
1.390000e-06	5.703902e-06	2.556830e-08	4.064660e+01	1.681956e+03
1.400000e-06	5.759831e-06	2.566103e-08	4.104516e+01	1.688152e+03
1.410000e-06	5.813683e-06	2.574811e-08	4.142891e+01	1.694005e+03
1.420000e-06	5.865368e-06	2.583122e-08	4.179722e+01	1.699548e+03
1.430000e-06	5.914490e-06	2.590999e-08	4.214727e+01	1.704812e+03
1.440000e-06	5.961247e-06	2.598514e-08	4.248047e+01	1.709823e+03
1.450000e-06	6.006131e-06	2.605682e-08	4.280031e+01	1.714598e+03
1.460000e-06	6.049112e-06	2.612443e-08	4.310660e+01	1.719142e+03
1.470000e-06	6.089854e-06	2.618725e-08	4.339693e+01	1.723448e+03
1.480000e-06	6.128313e-06	2.624544e-08	4.367100e+01	1.727502e+03
1.490000e-06	6.164744e-06	2.630038e-08	4.393061e+01	1.731282e+03
1.500000e-06	6.199031e-06	2.635101e-08	4.417494e+01	1.734771e+03
1.510000e-06	6.231009e-06	2.639749e-08	4.440282e+01	1.737953e+03
1.520000e-06	6.260789e-06	2.644050e-08	4.461504e+01	1.740826e+03
1.530000e-06	6.288522e-06	2.647867e-08	4.481267e+01	1.743396e+03
1.540000e-06	6.313888e-06	2.651158e-08	4.499342e+01	1.745679e+03
1.550000e-06	6.336802e-06	2.654072e-08	4.515671e+01	1.747693e+03
1.560000e-06	6.357616e-06	2.656593e-08	4.530503e+01	1.749455e+03
1.570000e-06	6.376373e-06	2.658634e-08	4.543870e+01	1.750977e+03
1.580000e-06	6.392830e-06	2.660209e-08	4.555598e+01	1.752262e+03
1.590000e-06	6.406811e-06	2.661483e-08	4.565560e+01	1.753307e+03
1.600000e-06	6.418305e-06	2.662396e-08	4.573752e+01	1.754107e+03
1.610000e-06	6.427183e-06	2.663108e-08	4.580078e+01	1.754658e+03
1.620000e-06	6.433661e-06	2.663746e-08	4.584694e+01	1.754968e+03
1.630000e-06	6.438007e-06	2.664211e-08	4.587791e+01	1.755055e+03
1.640000e-06	6.440068e-06	2.664378e-08	4.589260e+01	1.754947e+03
1.650000e-06	6.439783e-06	2.664386e-08	4.589057e+01	1.754675e+03
1.660000e-06	6.437343e-06	2.663661e-08	4.587318e+01	1.754266e+03
1.670000e-06	6.432973e-06	2.662746e-08	4.584204e+01	1.753733e+03
1.680000e-06	6.426363e-06	2.661438e-08	4.579493e+01	1.753066e+03
1.690000e-06	6.417520e-06	2.660031e-08	4.573192e+01	1.752232e+03
1.700000e-06	6.406761e-06	2.658710e-08	4.565525e+01	1.751181e+03
1.710000e-06	6.393820e-06	2.657370e-08	4.556303e+01	1.749859e+03
1.720000e-06	6.378515e-06	2.657465e-08	4.545397e+01	1.748220e+03
1.730000e-06	6.361215e-06	2.656419e-08	4.533068e+01	1.746248e+03
1.740000e-06	6.341846e-06	2.649611e-08	4.519266e+01	1.743965e+03
1.750000e-06	6.319598e-06	2.646537e-08	4.503411e+01	1.741436e+03
1.760000e-06	6.294314e-06	2.641889e-08	4.485394e+01	1.738762e+03
1.770000e-06	6.266658e-06	2.633752e-08	4.465686e+01	1.736061e+03
1.780000e-06	6.237096e-06	2.634242e-08	4.444620e+01	1.733442e+03
1.790000e-06	6.205911e-06	2.632787e-08	4.422397e+01	1.730984e+03
1.800000e-06	6.173321e-06	2.623260e-08	4.399173e+01	1.728708e+03
1.810000e-06	6.138702e-06	2.629433e-08	4.374503e+01	1.726572e+03
1.820000e-06	6.102029e-06	2.619608e-08	4.348370e+01	1.724471e+03
1.830000e-06	6.063300e-06	2.617962e-08	4.320771e+01	1.722253e+03
1.840000e-06	6.022139e-06	2.631793e-08	4.291439e+01	1.719747e+03
1.850000e-06	5.978952e-06	2.616369e-08	4.260663e+01	1.716796e+03
1.860000e-06	5.933691e-06	2.617916e-08	4.228410e+01	1.713286e+03
1.870000e-06	5.886181e-06	2.614390e-08	4.194554e+01	1.709163e+03
1.880000e-06	5.836607e-06	2.602111e-08	4.159227e+01	1.704442e+03
1.890000e-06	5.784568e-06	2.603193e-08	4.122144e+01	1.699194e+03
1.900000e-06	5.729944e-06	2.584327e-08	4.083218e+01	1.693526e+03
1.910000e-06	5.673100e-06	2.573072e-08	4.042710e+01	1.687554e+03
1.920000e-06	5.614248e-06	2.571565e-08	4.000772e+01	1.681372e+03
1.930000e-06	5.553598e-06	2.566108e-08	3.957552e+01	1.675032e+03
1.940000e-06	5.490767e-06	2.559334e-08	3.912778e+01	1.668535e+03
1.950000e-06	5.425753e-06	2.534886e-08	3.866448e+01	1.661839e+03
1.960000e-06	5.358792e-06	2.527310e-08	3.818731e+01	1.654870e+03
1.970000e-06	5.289892e-06	2.517556e-08	3.769632e+01	1.647548e+03
1.980000e-06	5.218946e-06	2.503064e-08	3.719076e+01	1.639810e+03
1.990000e-06	5.145915e-06	2.496173e-08	3.667033e+01	1.631625e+03
2.000000e-06	5.071143e-06	2.484396e-08	3.613749e+01	1.623000e+03
2.010000e-06	4.994394e-06	2.473634e-08	3.559058e+01	1.613973e+03
2.020000e-06	4.915472e-06	2.450854e-08	3.502817e+01	1.604601e+03
2.030000e-06	4.834675e-06	2.436309e-08	3.445240e+01	1.594939e+03
2.040000e-06	4.752240e-06	2.426389e-08	3.386496e+01	1.585017e+03
2.050000e-06	4.668266e-06	2.410721e-08	3.326655e+01	1.574835e+03
2.060000e-06	4.582679e-06	2.394355e-08	3.265665e+01	1.564355e+03
2.070000e-06	4.495389e-06	2.375381e-08	3.203461e+01	1.553514e+03
2.080000e-06	4.406486e-06	2.360113e-08	3.140108e+01	1.542233e+03
2.090000e-06	4.316187e-06	2.341100e-08	3.075760e+01	1.530443e+03
2.100000e-06	4.224485e-06	2.324224e-08	3.010412e+01	1.518094e+03
2.110000e-06	4.131315e-06	2.305066e-08	2.944018e+01	1.505170e+03
2.120000e-06	4.036664e-06	2.283427e-08	2.876569e+01	1.491680e+03
2.130000e-06	3.940524e-06	2.261933e-08	2.808058e+01	1.477657e+03
2.140000e-06	3.843032e-06	2.239083e-08	2.738585e+01	1.463134e+03
2.150000e-06	3.744200e-06	2.217510e-08	2.668156e+01	1.448135e+03
2.160000e-06	3.643995e-06	2.193964e-08	2.596749e+01	1.432654e+03
2.170000e-06	3.542397e-06	2.170926e-08	2.524349e+01	1.416657e+03
2.180000e-06	3.439462e-06	2.144586e-08	2.450997e+01	1.400083e+03
2.190000e-06	3.335167e-06	2.117494e-08	2.376675e+01	1.382853e+03
2.200000e-06	3.229663e-06	2.090117e-08	2.301492e+01	1.364889e+03
2.210000e-06	3.123128e-06	2.062319e-08	2.225574e+01	1.346122e+03
2.220000e-06	3.015490e-06	2.032278e-08	2.148869e+01	1.326506e+03
2.230000e-06	2.906827e-06	2.000201e-08	2.071435e+01	1.306016e+03
2.240000e-06	2.797166e-06	1.968213e-08	1.993290e+01	1.284639e+03
2.250000e-06	2.686412e-06	1.935228e-08	1.914365e+01	1.262363e+03
2.260000e-06	2.574552e-06	1.900800e-08	1.834653e+01	1.239160e+03
2.270000e-06	2.461684e-06	1.863772e-08	1.754222e+01	1.214975e+03
2.280000e-06	2.347894e-06	1.824989e-08	1.673134e+01	1.189720e+03
2.290000e-06	2.233187e-06	1.783958e-08	1.591393e+01	1.163281e+03
2.300000e-06	2.117594e-06	1.741690e-08	1.509020e+01	1.135521e+03
2.310000e-06	2.001168e-06	1.697617e-08	1.426054e+01	1.106301e+03
2.320000e-06	1.883928e-06	1.651323e-08	1.342507e+01	1.075487e+03
2.330000e-06	1.765964e-06	1.601854e-08	1.258445e+01	1.042960e+03
2.340000e-06	1.647411e-06	1.548628e-08	1.173962e+01	1.008615e+03
2.350000e-06	1.528260e-06	1.492506e-08	1.089054e+01	9.723520e+02
2.360000e-06	1.408448e-06	1.434153e-08	1.003675e+01	9.340699e+02
2.370000e-06	1.288056e-06	1.373629e-08	9.178819e+00	8.936536e+02
2.380000e-06	1.167288e-06	1.309329e-08	8.318214e+00	8.509749e+02
2.390000e-06	1.046278e-06	1.240436e-08	7.455886e+00	8.059022e+02
2.400000e-06	9.250065e-07	1.167084e-08	6.591693e+00	7.583234e+02
2.410000e-06	8.034304e-07	1.090158e-08	5.725329e+00	7.081765e+02
2.420000e-06	6.815641e-07	1.009650e-08	4.856897e+00	6.554828e+02
2.430000e-06	5.594483e-07	9.256116e-09	3.986687e+00	6.003718e+02
2.440000e-06	4.371734e-07	8.386494e-09	3.115343e+00	5.430900e+02
2.450000e-06	3.147875e-07	7.486684e-09	2.243209e+00	4.839869e+02
2.460000e-06	1.922592e-07	6.557767e-09	1.370059e+00	4.234766e+02
2.470000e-06	6.965094e-08	5.612931e-09	4.963399e-01	3.619818e+02
2.480000e-06	-5.294325e-08	4.666271e-09	-3.772792e-01	2.998669e+02
2.490000e-06	-1.755004e-07	3.716127e-09	-1.250634e+00	2.373779e+02
2.500000e-06	-2.980147e-07	2.755556e-09	-2.123684e+00	1.746000e+02
2.510000e-06	-4.205110e-07	1.786019e-09	-2.996605e+00	1.114467e+02
2.520000e-06	-5.429087e-07	8.080491e-10	-3.868824e+00	4.768413e+01
2.530000e-06	-6.650767e-07	-1.819635e-10	-4.739406e+00	-1.701064e+01
2.540000e-06	-7.870002e-07	-1.190528e-09	-5.608246e+00	-8.296639e+01
2.550000e-06	-9.086345e-07	-2.221102e-09	-6.475024e+00	-1.504260e+02
2.560000e-06	-1.029944e-06	-3.272196e-09	-7.339489e+00	-2.194631e+02
2.570000e-06	-1.150973e-06	-4.345915e-09	-8.201957e+00	-2.899249e+02
2.580000e-06	-1.271690e-06	-5.438253e-09	-9.062194e+00	-3.614115e+02
2.590000e-06	-1.391970e-06	-6.540792e-09	-9.919322e+00	-4.332982e+02
2.600000e-06	-1.511721e-06	-7.642768e-09	-1.077268e+01	-5.047952e+02
2.610000e-06	-1.630730e-06	-8.725554e-09	-1.162075e+01	-5.750348e+02
2.620000e-06	-1.748923e-06	-9.771786e-09	-1.246301e+01	-6.431691e+02
2.630000e-06	-1.866441e-06	-1.077134e-08	-1.330045e+01	-7.084614e+02
2.640000e-06	-1.983177e-06	-1.171762e-08	-1.413233e+01	-7.703561e+02
2.650000e-06	-2.099005e-06	-1.260777e-08	-1.495773e+01	-8.285159e+02
2.660000e-06	-2.213918e-06	-1.344099e-08	-1.577661e+01	-8.828253e+02
2.670000e-06	-2.327850e-06	-1.421869e-08	-1.658850e+01	-9.333619e+02
2.680000e-06	-2.440702e-06	-1.494301e-08	-1.739270e+01	-9.803462e+02
2.690000e-06	-2.552573e-06	-1.561564e-08	-1.818990e+01	-1.024082e+03
2.700000e-06	-2.663423e-06	-1.624373e-08	-1.897983e+01	-1.064898e+03
2.710000e-06	-2.773181e-06	-1.683482e-08	-1.976197e+01	-1.103104e+03
2.720000e-06	-2.882049e-06	-1.739219e-08	-2.053778e+01	-1.138963e+03
2.730000e-06	-2.990017e-06	-1.791352e-08	-2.130718e+01	-1.172683e+03
2.740000e-06	-3.097061e-06	-1.839780e-08	-2.206998e+01	-1.204422e+03
2.750000e-06	-3.203125e-06	-1.885043e-08	-2.282580e+01	-1.234308e+03
2.760000e-06	-3.308102e-06	-1.927579e-08	-2.357388e+01	-1.262451e+03
2.770000e-06	-3.411881e-06	-1.967943e-08	-2.431342e+01	-1.288961e+03
2.780000e-06	-3.514322e-06	-2.006654e-08	-2.504342e+01	-1.313957e+03
2.790000e-06	-3.615399e-06	-2.043538e-08	-2.576371e+01	-1.337563e+03
2.800000e-06	-3.715136e-06	-2.078298e-08	-2.647445e+01	-1.359906e+03
2.810000e-06	-3.813667e-06	-2.110947e-08	-2.717659e+01	-1.381105e+03
2.820000e-06	-3.911028e-06	-2.141677e-08	-2.787039e+01	-1.401263e+03
2.830000e-06	-4.007084e-06	-2.170902e-08	-2.855490e+01	-1.420461e+03
2.840000e-06	-4.101708e-06	-2.198904e-08	-2.922920e+01	-1.438761e+03
2.850000e-06	-4.194814e-06	-2.225637e-08	-2.989268e+01	-1.456205e+03
2.860000e-06	-4.286414e-06	-2.251213e-08	-3.054543e+01	-1.472829e+03
2.870000e-06	-4.376438e-06	-2.275681e-08	-3.118695e+01	-1.488660e+03
2.880000e-06	-4.464870e-06	-2.299200e-08	-3.181713e+01	-1.503732e+03
2.890000e-06	-4.551685e-06	-2.321729e-08	-3.243578e+01	-1.518083e+03
2.900000e-06	-4.636797e-06	-2.342978e-08	-3.304230e+01	-1.531754e+03
2.910000e-06	-4.720286e-06	-2.363067e-08	-3.363725e+01	-1.544793e+03
2.920000e-06	-4.802141e-06	-2.382247e-08	-3.422056e+01	-1.557242e+03
2.930000e-06	-4.882275e-06	-2.400653e-08	-3.479160e+01	-1.569142e+03
2.940000e-06	-4.960513e-06	-2.418124e-08	-3.534913e+01	-1.580522e+03
