# Temperatura_=_75.56
# Concentracion g/m^3_=_28200.0
# C_Vs_to_Am_M_A/Vsm_=_65563218390.804596
# pendiente_HvsI_1/m_=_3716.3
# ordenada_HvsI_A/m_=_1297.0
# frecuencia_Hz_=_302101.27046110446

Tiempo_(s)	Campo_(V.s)	Magnetizacion_(V.s)	Campo_(kA/m)	Magnetizacion_(A/m)
0.000000e+00	-6.454503e-06	-2.190772e-08	-4.557224e+01	-1.434999e+03
1.000000e-08	-6.450689e-06	-2.190377e-08	-4.554531e+01	-1.434556e+03
2.000000e-08	-6.444812e-06	-2.189615e-08	-4.550381e+01	-1.433909e+03
3.000000e-08	-6.437008e-06	-2.188704e-08	-4.544871e+01	-1.433063e+03
4.000000e-08	-6.427006e-06	-2.187310e-08	-4.537810e+01	-1.432030e+03
5.000000e-08	-6.414630e-06	-2.185414e-08	-4.529072e+01	-1.430833e+03
6.000000e-08	-6.399876e-06	-2.182891e-08	-4.518654e+01	-1.429498e+03
7.000000e-08	-6.382792e-06	-2.179886e-08	-4.506593e+01	-1.428049e+03
8.000000e-08	-6.363657e-06	-2.180228e-08	-4.493082e+01	-1.426505e+03
9.000000e-08	-6.342330e-06	-2.185085e-08	-4.478024e+01	-1.424875e+03
1.000000e-07	-6.318430e-06	-2.176738e-08	-4.461149e+01	-1.423158e+03
1.100000e-07	-6.291898e-06	-2.168729e-08	-4.442417e+01	-1.421344e+03
1.200000e-07	-6.263108e-06	-2.168710e-08	-4.422089e+01	-1.419412e+03
1.300000e-07	-6.232526e-06	-2.162368e-08	-4.400496e+01	-1.417341e+03
1.400000e-07	-6.200389e-06	-2.149932e-08	-4.377806e+01	-1.415103e+03
1.500000e-07	-6.166400e-06	-2.163065e-08	-4.353808e+01	-1.412676e+03
1.600000e-07	-6.130306e-06	-2.157526e-08	-4.328324e+01	-1.410040e+03
1.700000e-07	-6.092296e-06	-2.137893e-08	-4.301486e+01	-1.407178e+03
1.800000e-07	-6.052131e-06	-2.151713e-08	-4.273128e+01	-1.404080e+03
1.900000e-07	-6.009507e-06	-2.135372e-08	-4.243033e+01	-1.400740e+03
2.000000e-07	-5.964698e-06	-2.131776e-08	-4.211396e+01	-1.397160e+03
2.100000e-07	-5.917808e-06	-2.136433e-08	-4.178289e+01	-1.393341e+03
2.200000e-07	-5.868502e-06	-2.113439e-08	-4.143476e+01	-1.389294e+03
2.300000e-07	-5.816643e-06	-2.109199e-08	-4.106861e+01	-1.385028e+03
2.400000e-07	-5.762388e-06	-2.104994e-08	-4.068554e+01	-1.380552e+03
2.500000e-07	-5.705933e-06	-2.096035e-08	-4.028694e+01	-1.375875e+03
2.600000e-07	-5.647281e-06	-2.092648e-08	-3.987282e+01	-1.370999e+03
2.700000e-07	-5.586558e-06	-2.084825e-08	-3.944409e+01	-1.365921e+03
2.800000e-07	-5.523946e-06	-2.075129e-08	-3.900201e+01	-1.360628e+03
2.900000e-07	-5.459261e-06	-2.060666e-08	-3.854530e+01	-1.355105e+03
3.000000e-07	-5.392396e-06	-2.056608e-08	-3.807320e+01	-1.349328e+03
3.100000e-07	-5.323454e-06	-2.050290e-08	-3.758643e+01	-1.343278e+03
3.200000e-07	-5.252574e-06	-2.040072e-08	-3.708598e+01	-1.336935e+03
3.300000e-07	-5.179775e-06	-2.030962e-08	-3.657198e+01	-1.330287e+03
3.400000e-07	-5.104851e-06	-2.014614e-08	-3.604298e+01	-1.323333e+03
3.500000e-07	-5.027861e-06	-2.005717e-08	-3.549938e+01	-1.316075e+03
3.600000e-07	-4.948856e-06	-1.994770e-08	-3.494157e+01	-1.308522e+03
3.700000e-07	-4.867859e-06	-1.983669e-08	-3.436968e+01	-1.300683e+03
3.800000e-07	-4.785196e-06	-1.973501e-08	-3.378604e+01	-1.292563e+03
3.900000e-07	-4.701058e-06	-1.958299e-08	-3.319198e+01	-1.284160e+03
4.000000e-07	-4.615445e-06	-1.943013e-08	-3.258751e+01	-1.275462e+03
4.100000e-07	-4.528389e-06	-1.929360e-08	-3.197284e+01	-1.266449e+03
4.200000e-07	-4.439873e-06	-1.917327e-08	-3.134787e+01	-1.257094e+03
4.300000e-07	-4.349698e-06	-1.901533e-08	-3.071119e+01	-1.247371e+03
4.400000e-07	-4.257886e-06	-1.885367e-08	-3.006295e+01	-1.237255e+03
4.500000e-07	-4.164556e-06	-1.869697e-08	-2.940399e+01	-1.226729e+03
4.600000e-07	-4.069781e-06	-1.851625e-08	-2.873483e+01	-1.215784e+03
4.700000e-07	-3.973585e-06	-1.835219e-08	-2.805563e+01	-1.204415e+03
4.800000e-07	-3.875814e-06	-1.818446e-08	-2.736532e+01	-1.192620e+03
4.900000e-07	-3.776595e-06	-1.799868e-08	-2.666478e+01	-1.180397e+03
5.000000e-07	-3.676025e-06	-1.778691e-08	-2.595470e+01	-1.167733e+03
5.100000e-07	-3.574092e-06	-1.757360e-08	-2.523500e+01	-1.154606e+03
5.200000e-07	-3.471009e-06	-1.736794e-08	-2.450718e+01	-1.140986e+03
5.300000e-07	-3.366721e-06	-1.715462e-08	-2.377085e+01	-1.126830e+03
5.400000e-07	-3.260983e-06	-1.693398e-08	-2.302428e+01	-1.112095e+03
5.500000e-07	-3.153926e-06	-1.669722e-08	-2.226841e+01	-1.096736e+03
5.600000e-07	-3.045721e-06	-1.645121e-08	-2.150442e+01	-1.080712e+03
5.700000e-07	-2.936385e-06	-1.619225e-08	-2.073245e+01	-1.063988e+03
5.800000e-07	-2.825986e-06	-1.592862e-08	-1.995297e+01	-1.046535e+03
5.900000e-07	-2.714659e-06	-1.565365e-08	-1.916694e+01	-1.028321e+03
6.000000e-07	-2.602433e-06	-1.535754e-08	-1.837457e+01	-1.009313e+03
6.100000e-07	-2.489020e-06	-1.504404e-08	-1.757381e+01	-9.894674e+02
6.200000e-07	-2.374353e-06	-1.472262e-08	-1.676420e+01	-9.687277e+02
6.300000e-07	-2.258699e-06	-1.439565e-08	-1.594762e+01	-9.470248e+02
6.400000e-07	-2.142186e-06	-1.405403e-08	-1.512498e+01	-9.242782e+02
6.500000e-07	-2.024861e-06	-1.369479e-08	-1.429660e+01	-9.003995e+02
6.600000e-07	-1.906816e-06	-1.330679e-08	-1.346314e+01	-8.752967e+02
6.700000e-07	-1.788156e-06	-1.289362e-08	-1.262533e+01	-8.488764e+02
6.800000e-07	-1.669034e-06	-1.246429e-08	-1.178427e+01	-8.210453e+02
6.900000e-07	-1.549430e-06	-1.201874e-08	-1.093980e+01	-7.917077e+02
7.000000e-07	-1.429264e-06	-1.155056e-08	-1.009137e+01	-7.607639e+02
7.100000e-07	-1.308513e-06	-1.105208e-08	-9.238803e+00	-7.281086e+02
7.200000e-07	-1.187196e-06	-1.052586e-08	-8.382241e+00	-6.936344e+02
7.300000e-07	-1.065370e-06	-9.967043e-09	-7.522079e+00	-6.572397e+02
7.400000e-07	-9.431143e-07	-9.381416e-09	-6.658891e+00	-6.188446e+02
7.500000e-07	-8.205277e-07	-8.768030e-09	-5.793364e+00	-5.784098e+02
7.600000e-07	-6.976274e-07	-8.121593e-09	-4.925622e+00	-5.359581e+02
7.700000e-07	-5.745168e-07	-7.443721e-09	-4.056396e+00	-4.915909e+02
7.800000e-07	-4.512292e-07	-6.741181e-09	-3.185919e+00	-4.454953e+02
7.900000e-07	-3.278129e-07	-6.017579e-09	-2.314534e+00	-3.979374e+02
8.000000e-07	-2.043102e-07	-5.274791e-09	-1.442539e+00	-3.492395e+02
8.100000e-07	-8.069857e-08	-4.522605e-09	-5.697750e-01	-2.997424e+02
8.200000e-07	4.293322e-08	-3.765686e-09	3.031314e-01	-2.497593e+02
8.300000e-07	1.665829e-07	-3.005610e-09	1.176164e+00	-1.995285e+02
8.400000e-07	2.902383e-07	-2.238489e-09	2.049237e+00	-1.491754e+02
8.500000e-07	4.137912e-07	-1.469340e-09	2.921587e+00	-9.869189e+01
8.600000e-07	5.372270e-07	-6.946887e-10	3.793110e+00	-4.794126e+01
8.700000e-07	6.605369e-07	8.996678e-11	4.663743e+00	3.311426e+00
8.800000e-07	7.836944e-07	8.873391e-10	5.533301e+00	5.534606e+01
8.900000e-07	9.066977e-07	1.697282e-09	6.401771e+00	1.084201e+02
9.000000e-07	1.029433e-06	2.519829e-09	7.268347e+00	1.626993e+02
9.100000e-07	1.151824e-06	3.360998e-09	8.132494e+00	2.181992e+02
9.200000e-07	1.273790e-06	4.217773e-09	8.993641e+00	2.747500e+02
9.300000e-07	1.395171e-06	5.087373e-09	9.850656e+00	3.319909e+02
9.400000e-07	1.515834e-06	5.963538e-09	1.070260e+01	3.893962e+02
9.500000e-07	1.635797e-06	6.837186e-09	1.154960e+01	4.463292e+02
9.600000e-07	1.755167e-06	7.690470e-09	1.239242e+01	5.021132e+02
9.700000e-07	1.874032e-06	8.512121e-09	1.323167e+01	5.561078e+02
9.800000e-07	1.992294e-06	9.295868e-09	1.406666e+01	6.077763e+02
9.900000e-07	2.109783e-06	1.003243e-08	1.489620e+01	6.567335e+02
1.000000e-06	2.226480e-06	1.072387e-08	1.572014e+01	7.027681e+02
1.010000e-06	2.342300e-06	1.137040e-08	1.653789e+01	7.458365e+02
1.020000e-06	2.457109e-06	1.197793e-08	1.734851e+01	7.860344e+02
1.030000e-06	2.570792e-06	1.254843e-08	1.815117e+01	8.235534e+02
1.040000e-06	2.683250e-06	1.308543e-08	1.894518e+01	8.586324e+02
1.050000e-06	2.794700e-06	1.358765e-08	1.973207e+01	8.915145e+02
1.060000e-06	2.905327e-06	1.405890e-08	2.051316e+01	9.224160e+02
1.070000e-06	3.015005e-06	1.450007e-08	2.128755e+01	9.515114e+02
1.080000e-06	3.123708e-06	1.491388e-08	2.205505e+01	9.789327e+02
1.090000e-06	3.231403e-06	1.530382e-08	2.281543e+01	1.004780e+03
1.100000e-06	3.337991e-06	1.567290e-08	2.356800e+01	1.029140e+03
1.110000e-06	3.443157e-06	1.602346e-08	2.431053e+01	1.052096e+03
1.120000e-06	3.546916e-06	1.635461e-08	2.504312e+01	1.073743e+03
1.130000e-06	3.649554e-06	1.666852e-08	2.576780e+01	1.094185e+03
1.140000e-06	3.750983e-06	1.696356e-08	2.648395e+01	1.113535e+03
1.150000e-06	3.851137e-06	1.724310e-08	2.719108e+01	1.131900e+03
1.160000e-06	3.950068e-06	1.750708e-08	2.788959e+01	1.149373e+03
1.170000e-06	4.047411e-06	1.775854e-08	2.857689e+01	1.166025e+03
1.180000e-06	4.143158e-06	1.799808e-08	2.925291e+01	1.181903e+03
1.190000e-06	4.237603e-06	1.822722e-08	2.991974e+01	1.197036e+03
1.200000e-06	4.330617e-06	1.844342e-08	3.057647e+01	1.211440e+03
1.210000e-06	4.422247e-06	1.864875e-08	3.122343e+01	1.225132e+03
1.220000e-06	4.512235e-06	1.884508e-08	3.185879e+01	1.238134e+03
1.230000e-06	4.600331e-06	1.903261e-08	3.248080e+01	1.250484e+03
1.240000e-06	4.686777e-06	1.921090e-08	3.309115e+01	1.262232e+03
1.250000e-06	4.771715e-06	1.938331e-08	3.369086e+01	1.273432e+03
1.260000e-06	4.855138e-06	1.954883e-08	3.427987e+01	1.284137e+03
1.270000e-06	4.936746e-06	1.970631e-08	3.485607e+01	1.294390e+03
1.280000e-06	5.016404e-06	1.985697e-08	3.541850e+01	1.304213e+03
1.290000e-06	5.094254e-06	2.000098e-08	3.596815e+01	1.313613e+03
1.300000e-06	5.170203e-06	2.013756e-08	3.650440e+01	1.322576e+03
1.310000e-06	5.244018e-06	2.026709e-08	3.702557e+01	1.331083e+03
1.320000e-06	5.315820e-06	2.039097e-08	3.753253e+01	1.339117e+03
1.330000e-06	5.385802e-06	2.050718e-08	3.802664e+01	1.346672e+03
1.340000e-06	5.453980e-06	2.061535e-08	3.850801e+01	1.353763e+03
1.350000e-06	5.520164e-06	2.071709e-08	3.897531e+01	1.360420e+03
1.360000e-06	5.584232e-06	2.081483e-08	3.942766e+01	1.366693e+03
1.370000e-06	5.646399e-06	2.090760e-08	3.986660e+01	1.372638e+03
1.380000e-06	5.706730e-06	2.099464e-08	4.029257e+01	1.378308e+03
1.390000e-06	5.764962e-06	2.107787e-08	4.070371e+01	1.383746e+03
1.400000e-06	5.821057e-06	2.115771e-08	4.109977e+01	1.388975e+03
1.410000e-06	5.875211e-06	2.123222e-08	4.148213e+01	1.394001e+03
1.420000e-06	5.927097e-06	2.130290e-08	4.184847e+01	1.398813e+03
1.430000e-06	5.976417e-06	2.137122e-08	4.219670e+01	1.403391e+03
1.440000e-06	6.023413e-06	2.143802e-08	4.252852e+01	1.407711e+03
1.450000e-06	6.068389e-06	2.150187e-08	4.284607e+01	1.411758e+03
1.460000e-06	6.111371e-06	2.156052e-08	4.314954e+01	1.415524e+03
1.470000e-06	6.152149e-06	2.161374e-08	4.343746e+01	1.419014e+03
1.480000e-06	6.190713e-06	2.166376e-08	4.370975e+01	1.422239e+03
1.490000e-06	6.227259e-06	2.170909e-08	4.396778e+01	1.425216e+03
1.500000e-06	6.261532e-06	2.174915e-08	4.420976e+01	1.427961e+03
1.510000e-06	6.293448e-06	2.178574e-08	4.443511e+01	1.430483e+03
1.520000e-06	6.323213e-06	2.181953e-08	4.464526e+01	1.432784e+03
1.530000e-06	6.350932e-06	2.184980e-08	4.484097e+01	1.434863e+03
1.540000e-06	6.376224e-06	2.187596e-08	4.501955e+01	1.436711e+03
1.550000e-06	6.399000e-06	2.190046e-08	4.518036e+01	1.438326e+03
1.560000e-06	6.419701e-06	2.192230e-08	4.532652e+01	1.439708e+03
1.570000e-06	6.438282e-06	2.194086e-08	4.545771e+01	1.440868e+03
1.580000e-06	6.454463e-06	2.195592e-08	4.557196e+01	1.441820e+03
1.590000e-06	6.468191e-06	2.196819e-08	4.566888e+01	1.442588e+03
1.600000e-06	6.479400e-06	2.197831e-08	4.574803e+01	1.443192e+03
1.610000e-06	6.487953e-06	2.198611e-08	4.580842e+01	1.443647e+03
1.620000e-06	6.494092e-06	2.199200e-08	4.585176e+01	1.443962e+03
1.630000e-06	6.498130e-06	2.199525e-08	4.588027e+01	1.444133e+03
1.640000e-06	6.499876e-06	2.199685e-08	4.589260e+01	1.444148e+03
1.650000e-06	6.499302e-06	2.199925e-08	4.588854e+01	1.443991e+03
1.660000e-06	6.496635e-06	2.198793e-08	4.586971e+01	1.443645e+03
1.670000e-06	6.491886e-06	2.198177e-08	4.583618e+01	1.443098e+03
1.680000e-06	6.484860e-06	2.197194e-08	4.578658e+01	1.442348e+03
1.690000e-06	6.475653e-06	2.195693e-08	4.572157e+01	1.441404e+03
1.700000e-06	6.464472e-06	2.194521e-08	4.564263e+01	1.440284e+03
1.710000e-06	6.450980e-06	2.193313e-08	4.554736e+01	1.439013e+03
1.720000e-06	6.435214e-06	2.192914e-08	4.543605e+01	1.437616e+03
1.730000e-06	6.417522e-06	2.186077e-08	4.531114e+01	1.436115e+03
1.740000e-06	6.397545e-06	2.174933e-08	4.517009e+01	1.434526e+03
1.750000e-06	6.374513e-06	2.179173e-08	4.500747e+01	1.432851e+03
1.760000e-06	6.348473e-06	2.179428e-08	4.482361e+01	1.431086e+03
1.770000e-06	6.320268e-06	2.172221e-08	4.462447e+01	1.429213e+03
1.780000e-06	6.290154e-06	2.182722e-08	4.441185e+01	1.427213e+03
1.790000e-06	6.258499e-06	2.176985e-08	4.418835e+01	1.425059e+03
1.800000e-06	6.225496e-06	2.161412e-08	4.395533e+01	1.422728e+03
1.810000e-06	6.190318e-06	2.175710e-08	4.370695e+01	1.420196e+03
1.820000e-06	6.152869e-06	2.153572e-08	4.344255e+01	1.417447e+03
1.830000e-06	6.113306e-06	2.148424e-08	4.316320e+01	1.414466e+03
1.840000e-06	6.071435e-06	2.162243e-08	4.286757e+01	1.411245e+03
1.850000e-06	6.027644e-06	2.132055e-08	4.255839e+01	1.407783e+03
1.860000e-06	5.981791e-06	2.142734e-08	4.223464e+01	1.404080e+03
1.870000e-06	5.933596e-06	2.139919e-08	4.189436e+01	1.400144e+03
1.880000e-06	5.883267e-06	2.126479e-08	4.153901e+01	1.395984e+03
1.890000e-06	5.830265e-06	2.133655e-08	4.116479e+01	1.391610e+03
1.900000e-06	5.774737e-06	2.108766e-08	4.077273e+01	1.387031e+03
1.910000e-06	5.717180e-06	2.106675e-08	4.036634e+01	1.382252e+03
1.920000e-06	5.657707e-06	2.102069e-08	3.994644e+01	1.377274e+03
1.930000e-06	5.596259e-06	2.093096e-08	3.951258e+01	1.372088e+03
1.940000e-06	5.532558e-06	2.094535e-08	3.906282e+01	1.366681e+03
1.950000e-06	5.466765e-06	2.072414e-08	3.859828e+01	1.361031e+03
1.960000e-06	5.398923e-06	2.071027e-08	3.811928e+01	1.355118e+03
1.970000e-06	5.328913e-06	2.053725e-08	3.762497e+01	1.348921e+03
1.980000e-06	5.256800e-06	2.044030e-08	3.711581e+01	1.342425e+03
1.990000e-06	5.182839e-06	2.042263e-08	3.659361e+01	1.335622e+03
2.000000e-06	5.107014e-06	2.026327e-08	3.605824e+01	1.328513e+03
2.010000e-06	5.029006e-06	2.020817e-08	3.550747e+01	1.321104e+03
2.020000e-06	4.949090e-06	1.999423e-08	3.494322e+01	1.313405e+03
2.030000e-06	4.867542e-06	1.990661e-08	3.436745e+01	1.305423e+03
2.040000e-06	4.784383e-06	1.980132e-08	3.378030e+01	1.297161e+03
2.050000e-06	4.699571e-06	1.966205e-08	3.318148e+01	1.288610e+03
2.060000e-06	4.612918e-06	1.954313e-08	3.256967e+01	1.279756e+03
2.070000e-06	4.524649e-06	1.937125e-08	3.194644e+01	1.270573e+03
2.080000e-06	4.434789e-06	1.925776e-08	3.131198e+01	1.261035e+03
2.090000e-06	4.343499e-06	1.908056e-08	3.066743e+01	1.251116e+03
2.100000e-06	4.250723e-06	1.895622e-08	3.001238e+01	1.240795e+03
2.110000e-06	4.156263e-06	1.878600e-08	2.934544e+01	1.230058e+03
2.120000e-06	4.060416e-06	1.860309e-08	2.866871e+01	1.218899e+03
2.130000e-06	3.963262e-06	1.842070e-08	2.798275e+01	1.207316e+03
2.140000e-06	3.864757e-06	1.823387e-08	2.728725e+01	1.195305e+03
2.150000e-06	3.765005e-06	1.806532e-08	2.658295e+01	1.182862e+03
2.160000e-06	3.663761e-06	1.786528e-08	2.586811e+01	1.169968e+03
2.170000e-06	3.560887e-06	1.767838e-08	2.514177e+01	1.156597e+03
2.180000e-06	3.456723e-06	1.745527e-08	2.440631e+01	1.142712e+03
2.190000e-06	3.351328e-06	1.723782e-08	2.366217e+01	1.128270e+03
2.200000e-06	3.244746e-06	1.700649e-08	2.290964e+01	1.113226e+03
2.210000e-06	3.137168e-06	1.677910e-08	2.215008e+01	1.097537e+03
2.220000e-06	3.028487e-06	1.652655e-08	2.138274e+01	1.081166e+03
2.230000e-06	2.918580e-06	1.625575e-08	2.060674e+01	1.064079e+03
2.240000e-06	2.807586e-06	1.598458e-08	1.982306e+01	1.046247e+03
2.250000e-06	2.695578e-06	1.571026e-08	1.903222e+01	1.027639e+03
2.260000e-06	2.582513e-06	1.542447e-08	1.823392e+01	1.008216e+03
2.270000e-06	2.468402e-06	1.511368e-08	1.742824e+01	9.879290e+02
2.280000e-06	2.353324e-06	1.479423e-08	1.661573e+01	9.667151e+02
2.290000e-06	2.237288e-06	1.444942e-08	1.579645e+01	9.444990e+02
2.300000e-06	2.120205e-06	1.409373e-08	1.496978e+01	9.211956e+02
2.310000e-06	2.002156e-06	1.372157e-08	1.413629e+01	8.967144e+02
2.320000e-06	1.883447e-06	1.333665e-08	1.329814e+01	8.709624e+02
2.330000e-06	1.764141e-06	1.292564e-08	1.245578e+01	8.438464e+02
2.340000e-06	1.644204e-06	1.248624e-08	1.160896e+01	8.152722e+02
2.350000e-06	1.523753e-06	1.202383e-08	1.075851e+01	7.851422e+02
2.360000e-06	1.402875e-06	1.154269e-08	9.905048e+00	7.533540e+02
2.370000e-06	1.281565e-06	1.103843e-08	9.048532e+00	7.198005e+02
2.380000e-06	1.159846e-06	1.049826e-08	8.189133e+00	6.843758e+02
2.390000e-06	1.037749e-06	9.925979e-09	7.327060e+00	6.469868e+02
2.400000e-06	9.153034e-07	9.321594e-09	6.462531e+00	6.075712e+02
2.410000e-06	7.925857e-07	8.689081e-09	5.596079e+00	5.661185e+02
2.420000e-06	6.696872e-07	8.025352e-09	4.728350e+00	5.226889e+02
2.430000e-06	5.466761e-07	7.333689e-09	3.859825e+00	4.774268e+02
2.440000e-06	4.235445e-07	6.620848e-09	2.990451e+00	4.305605e+02
2.450000e-06	3.002950e-07	5.886144e-09	2.120243e+00	3.823881e+02
2.460000e-06	1.769021e-07	5.132020e-09	1.249023e+00	3.332464e+02
2.470000e-06	5.341767e-08	4.366673e-09	3.771573e-01	2.834687e+02
2.480000e-06	-7.005449e-08	3.603000e-09	-4.946221e-01	2.333363e+02
2.490000e-06	-1.935006e-07	2.837459e-09	-1.366217e+00	1.830347e+02
2.500000e-06	-3.168918e-07	2.064844e-09	-2.237425e+00	1.326238e+02
2.510000e-06	-4.402190e-07	1.289343e-09	-3.108182e+00	8.202891e+01
2.520000e-06	-5.634624e-07	5.103243e-10	-3.978346e+00	3.105882e+01
2.530000e-06	-6.865741e-07	-2.756159e-10	-4.847580e+00	-2.055166e+01
2.540000e-06	-8.095559e-07	-1.077791e-09	-5.715897e+00	-7.308007e+01
2.550000e-06	-9.323340e-07	-1.899154e-09	-6.582776e+00	-1.267462e+02
2.560000e-06	-1.054807e-06	-2.738778e-09	-7.447500e+00	-1.816470e+02
2.570000e-06	-1.176858e-06	-3.594560e-09	-8.309249e+00	-2.377079e+02
2.580000e-06	-1.298439e-06	-4.462087e-09	-9.167673e+00	-2.946622e+02
2.590000e-06	-1.419541e-06	-5.337451e-09	-1.002272e+01	-3.520615e+02
2.600000e-06	-1.540156e-06	-6.213071e-09	-1.087432e+01	-4.093166e+02
2.610000e-06	-1.660229e-06	-7.079099e-09	-1.172210e+01	-4.657613e+02
2.620000e-06	-1.779612e-06	-7.923494e-09	-1.256501e+01	-5.207276e+02
2.630000e-06	-1.898351e-06	-8.733678e-09	-1.340337e+01	-5.736196e+02
2.640000e-06	-2.016357e-06	-9.502859e-09	-1.423656e+01	-6.239720e+02
2.650000e-06	-2.133409e-06	-1.023044e-08	-1.506301e+01	-6.714855e+02
2.660000e-06	-2.249445e-06	-1.091501e-08	-1.588228e+01	-7.160349e+02
2.670000e-06	-2.364467e-06	-1.155606e-08	-1.669440e+01	-7.576511e+02
2.680000e-06	-2.478505e-06	-1.215550e-08	-1.749957e+01	-7.964836e+02
2.690000e-06	-2.591499e-06	-1.271484e-08	-1.829737e+01	-8.327536e+02
2.700000e-06	-2.703362e-06	-1.323553e-08	-1.908718e+01	-8.667069e+02
2.710000e-06	-2.813984e-06	-1.372147e-08	-1.986823e+01	-8.985762e+02
2.720000e-06	-2.923561e-06	-1.418005e-08	-2.064190e+01	-9.285578e+02
2.730000e-06	-3.032270e-06	-1.461185e-08	-2.140945e+01	-9.568040e+02
2.740000e-06	-3.140022e-06	-1.501780e-08	-2.217024e+01	-9.834294e+02
2.750000e-06	-3.246827e-06	-1.540235e-08	-2.292433e+01	-1.008525e+03
2.760000e-06	-3.352538e-06	-1.576421e-08	-2.367071e+01	-1.032173e+03
2.770000e-06	-3.457049e-06	-1.610271e-08	-2.440861e+01	-1.054464e+03
2.780000e-06	-3.560386e-06	-1.642196e-08	-2.513823e+01	-1.075497e+03
2.790000e-06	-3.662375e-06	-1.672672e-08	-2.585833e+01	-1.095382e+03
2.800000e-06	-3.762836e-06	-1.701761e-08	-2.656763e+01	-1.114229e+03
2.810000e-06	-3.862015e-06	-1.729323e-08	-2.726789e+01	-1.132139e+03
2.820000e-06	-3.959996e-06	-1.755247e-08	-2.795969e+01	-1.149196e+03
2.830000e-06	-4.056608e-06	-1.779977e-08	-2.864182e+01	-1.165459e+03
2.840000e-06	-4.151928e-06	-1.803760e-08	-2.931483e+01	-1.180964e+03
2.850000e-06	-4.245676e-06	-1.826566e-08	-2.997674e+01	-1.195733e+03
2.860000e-06	-4.337735e-06	-1.848481e-08	-3.062673e+01	-1.209780e+03
2.870000e-06	-4.428382e-06	-1.869246e-08	-3.126674e+01	-1.223125e+03
2.880000e-06	-4.517413e-06	-1.888560e-08	-3.189535e+01	-1.235798e+03
2.890000e-06	-4.604794e-06	-1.906556e-08	-3.251231e+01	-1.247843e+03
2.900000e-06	-4.690433e-06	-1.923889e-08	-3.311696e+01	-1.259311e+03
2.910000e-06	-4.774300e-06	-1.940750e-08	-3.370911e+01	-1.270260e+03
2.920000e-06	-4.856612e-06	-1.956770e-08	-3.429028e+01	-1.280737e+03
2.930000e-06	-4.937273e-06	-1.971911e-08	-3.485979e+01	-1.290775e+03
2.940000e-06	-5.016024e-06	-1.986406e-08	-3.541581e+01	-1.300390e+03
