# Temperatura_=_76.64
# Concentracion g/m^3_=_28200.0
# C_Vs_to_Am_M_A/Vsm_=_65563218390.804596
# pendiente_HvsI_1/m_=_3716.3
# ordenada_HvsI_A/m_=_1297.0
# frecuencia_Hz_=_302094.5278688957

Tiempo_(s)	Campo_(V.s)	Magnetizacion_(V.s)	Campo_(kA/m)	Magnetizacion_(A/m)
0.000000e+00	-6.381528e-06	-2.432928e-08	-4.556796e+01	-1.591578e+03
1.000000e-08	-6.377862e-06	-2.432204e-08	-4.554178e+01	-1.591045e+03
2.000000e-08	-6.372181e-06	-2.430971e-08	-4.550121e+01	-1.590380e+03
3.000000e-08	-6.364559e-06	-2.429796e-08	-4.544679e+01	-1.589573e+03
4.000000e-08	-6.354772e-06	-2.428314e-08	-4.537690e+01	-1.588602e+03
5.000000e-08	-6.342579e-06	-2.426291e-08	-4.528984e+01	-1.587436e+03
6.000000e-08	-6.328077e-06	-2.423661e-08	-4.518628e+01	-1.586045e+03
7.000000e-08	-6.311213e-06	-2.419851e-08	-4.506587e+01	-1.584412e+03
8.000000e-08	-6.292230e-06	-2.419198e-08	-4.493031e+01	-1.582538e+03
9.000000e-08	-6.271176e-06	-2.425855e-08	-4.477998e+01	-1.580451e+03
1.000000e-07	-6.247669e-06	-2.417038e-08	-4.461212e+01	-1.578203e+03
1.100000e-07	-6.221494e-06	-2.407059e-08	-4.442522e+01	-1.575864e+03
1.200000e-07	-6.193046e-06	-2.406670e-08	-4.422208e+01	-1.573502e+03
1.300000e-07	-6.162863e-06	-2.399214e-08	-4.400656e+01	-1.571174e+03
1.400000e-07	-6.131118e-06	-2.385550e-08	-4.377988e+01	-1.568907e+03
1.500000e-07	-6.097547e-06	-2.401559e-08	-4.354016e+01	-1.566686e+03
1.600000e-07	-6.061857e-06	-2.396194e-08	-4.328531e+01	-1.564455e+03
1.700000e-07	-6.024328e-06	-2.373563e-08	-4.301733e+01	-1.562126e+03
1.800000e-07	-5.984729e-06	-2.390229e-08	-4.273457e+01	-1.559588e+03
1.900000e-07	-5.942659e-06	-2.371066e-08	-4.243417e+01	-1.556733e+03
2.000000e-07	-5.898437e-06	-2.363101e-08	-4.211840e+01	-1.553476e+03
2.100000e-07	-5.852195e-06	-2.368598e-08	-4.178820e+01	-1.549767e+03
2.200000e-07	-5.803679e-06	-2.345832e-08	-4.144177e+01	-1.545603e+03
2.300000e-07	-5.752604e-06	-2.343903e-08	-4.107706e+01	-1.541022e+03
2.400000e-07	-5.698967e-06	-2.340082e-08	-4.069406e+01	-1.536091e+03
2.500000e-07	-5.643190e-06	-2.330153e-08	-4.029578e+01	-1.530890e+03
2.600000e-07	-5.585252e-06	-2.326350e-08	-3.988207e+01	-1.525489e+03
2.700000e-07	-5.525167e-06	-2.315178e-08	-3.945302e+01	-1.519932e+03
2.800000e-07	-5.463206e-06	-2.306399e-08	-3.901058e+01	-1.514226e+03
2.900000e-07	-5.399316e-06	-2.293006e-08	-3.855437e+01	-1.508346e+03
3.000000e-07	-5.333294e-06	-2.288185e-08	-3.808293e+01	-1.502236e+03
3.100000e-07	-5.265181e-06	-2.281422e-08	-3.759657e+01	-1.495834e+03
3.200000e-07	-5.195111e-06	-2.268219e-08	-3.709623e+01	-1.489078e+03
3.300000e-07	-5.123209e-06	-2.257911e-08	-3.658280e+01	-1.481932e+03
3.400000e-07	-5.049392e-06	-2.241399e-08	-3.605571e+01	-1.474384e+03
3.500000e-07	-4.973484e-06	-2.232563e-08	-3.551368e+01	-1.466452e+03
3.600000e-07	-4.895542e-06	-2.220456e-08	-3.495712e+01	-1.458171e+03
3.700000e-07	-4.815580e-06	-2.207862e-08	-3.438614e+01	-1.449583e+03
3.800000e-07	-4.733752e-06	-2.196910e-08	-3.380185e+01	-1.440720e+03
3.900000e-07	-4.650368e-06	-2.179194e-08	-3.320643e+01	-1.431594e+03
4.000000e-07	-4.565610e-06	-2.163148e-08	-3.260121e+01	-1.422190e+03
4.100000e-07	-4.479407e-06	-2.149219e-08	-3.198567e+01	-1.412470e+03
4.200000e-07	-4.391756e-06	-2.136414e-08	-3.135979e+01	-1.402379e+03
4.300000e-07	-4.302652e-06	-2.119538e-08	-3.072353e+01	-1.391861e+03
4.400000e-07	-4.211917e-06	-2.101559e-08	-3.007563e+01	-1.380870e+03
4.500000e-07	-4.119545e-06	-2.084726e-08	-2.941603e+01	-1.369378e+03
4.600000e-07	-4.025685e-06	-2.065204e-08	-2.874582e+01	-1.357381e+03
4.700000e-07	-3.930534e-06	-2.047484e-08	-2.806638e+01	-1.344888e+03
4.800000e-07	-3.834107e-06	-2.028780e-08	-2.737783e+01	-1.331918e+03
4.900000e-07	-3.736212e-06	-2.008126e-08	-2.667880e+01	-1.318486e+03
5.000000e-07	-3.636764e-06	-1.985163e-08	-2.596869e+01	-1.304590e+03
5.100000e-07	-3.535940e-06	-1.962354e-08	-2.524875e+01	-1.290206e+03
5.200000e-07	-3.433915e-06	-1.940161e-08	-2.452023e+01	-1.275291e+03
5.300000e-07	-3.330655e-06	-1.916413e-08	-2.378288e+01	-1.259784e+03
5.400000e-07	-3.226192e-06	-1.892090e-08	-2.303696e+01	-1.243620e+03
5.500000e-07	-3.120570e-06	-1.866185e-08	-2.228275e+01	-1.226741e+03
5.600000e-07	-3.013621e-06	-1.839342e-08	-2.151907e+01	-1.209100e+03
5.700000e-07	-2.905421e-06	-1.810757e-08	-2.074646e+01	-1.190667e+03
5.800000e-07	-2.796190e-06	-1.781576e-08	-1.996648e+01	-1.171425e+03
5.900000e-07	-2.686039e-06	-1.751118e-08	-1.917994e+01	-1.151360e+03
6.000000e-07	-2.575005e-06	-1.718677e-08	-1.838709e+01	-1.130447e+03
6.100000e-07	-2.463006e-06	-1.684828e-08	-1.758734e+01	-1.108646e+03
6.200000e-07	-2.350028e-06	-1.649935e-08	-1.678061e+01	-1.085887e+03
6.300000e-07	-2.236067e-06	-1.614026e-08	-1.596687e+01	-1.062076e+03
6.400000e-07	-2.121085e-06	-1.576005e-08	-1.514583e+01	-1.037099e+03
6.500000e-07	-2.005124e-06	-1.535788e-08	-1.431780e+01	-1.010833e+03
6.600000e-07	-1.888353e-06	-1.492891e-08	-1.348398e+01	-9.831526e+02
6.700000e-07	-1.770983e-06	-1.448195e-08	-1.264589e+01	-9.539446e+02
6.800000e-07	-1.653067e-06	-1.401640e-08	-1.180390e+01	-9.231058e+02
6.900000e-07	-1.534561e-06	-1.352371e-08	-1.095769e+01	-8.905423e+02
7.000000e-07	-1.415527e-06	-1.300020e-08	-1.010772e+01	-8.561618e+02
7.100000e-07	-1.295994e-06	-1.244240e-08	-9.254178e+00	-8.198672e+02
7.200000e-07	-1.176024e-06	-1.185676e-08	-8.397520e+00	-7.815527e+02
7.300000e-07	-1.055689e-06	-1.123576e-08	-7.538258e+00	-7.411100e+02
7.400000e-07	-9.349920e-07	-1.058229e-08	-6.676407e+00	-6.984430e+02
7.500000e-07	-8.139832e-07	-9.899462e-09	-5.812331e+00	-6.534917e+02
7.600000e-07	-6.927292e-07	-9.182119e-09	-4.946504e+00	-6.062607e+02
7.700000e-07	-5.712733e-07	-8.424896e-09	-4.079236e+00	-5.568435e+02
7.800000e-07	-4.496258e-07	-7.636386e-09	-3.210599e+00	-5.054369e+02
7.900000e-07	-3.278059e-07	-6.826418e-09	-2.340732e+00	-4.523375e+02
8.000000e-07	-2.058477e-07	-5.998006e-09	-1.469877e+00	-3.979174e+02
8.100000e-07	-8.368052e-08	-5.159042e-09	-5.975294e-01	-3.425806e+02
8.200000e-07	3.857876e-08	-4.313041e-09	2.754756e-01	-2.867067e+02
8.300000e-07	1.608473e-07	-3.463827e-09	1.148546e+00	-2.305922e+02
8.400000e-07	2.830890e-07	-2.609900e-09	2.021426e+00	-1.744016e+02
8.500000e-07	4.051984e-07	-1.754780e-09	2.893361e+00	-1.181400e+02
8.600000e-07	5.272041e-07	-8.915177e-10	3.764555e+00	-6.165570e+01
8.700000e-07	6.490756e-07	-1.951264e-11	4.634791e+00	-4.674123e+00
8.800000e-07	7.707777e-07	8.635380e-10	5.503817e+00	5.314042e+01
8.900000e-07	8.922761e-07	1.761334e-09	6.371389e+00	1.121059e+02
9.000000e-07	1.013444e-06	2.675548e-09	7.236600e+00	1.724408e+02
9.100000e-07	1.134219e-06	3.611893e-09	8.099009e+00	2.341954e+02
9.200000e-07	1.254635e-06	4.567327e-09	8.958850e+00	2.972084e+02
9.300000e-07	1.374548e-06	5.539973e-09	9.815099e+00	3.610992e+02
9.400000e-07	1.493894e-06	6.520766e-09	1.066730e+01	4.252949e+02
9.500000e-07	1.612756e-06	7.496933e-09	1.151605e+01	4.890899e+02
9.600000e-07	1.731057e-06	8.451102e-09	1.236079e+01	5.517244e+02
9.700000e-07	1.848698e-06	9.371336e-09	1.320082e+01	6.124690e+02
9.800000e-07	1.965630e-06	1.025330e-08	1.403579e+01	6.707006e+02
9.900000e-07	2.081735e-06	1.109041e-08	1.486484e+01	7.259573e+02
1.000000e-06	2.196984e-06	1.187646e-08	1.568779e+01	7.779654e+02
1.010000e-06	2.311337e-06	1.260857e-08	1.650434e+01	8.266367e+02
1.020000e-06	2.424695e-06	1.329355e-08	1.731378e+01	8.720417e+02
1.030000e-06	2.537000e-06	1.393556e-08	1.811571e+01	9.143657e+02
1.040000e-06	2.648320e-06	1.453935e-08	1.891060e+01	9.538590e+02
1.050000e-06	2.758725e-06	1.510086e-08	1.969896e+01	9.907906e+02
1.060000e-06	2.868214e-06	1.562766e-08	2.048078e+01	1.025413e+03
1.070000e-06	2.976807e-06	1.611830e-08	2.125620e+01	1.057943e+03
1.080000e-06	3.084393e-06	1.657880e-08	2.202443e+01	1.088554e+03
1.090000e-06	3.190888e-06	1.701323e-08	2.278486e+01	1.117384e+03
1.100000e-06	3.296204e-06	1.742197e-08	2.353688e+01	1.144547e+03
1.110000e-06	3.400196e-06	1.780994e-08	2.427945e+01	1.170147e+03
1.120000e-06	3.502932e-06	1.817671e-08	2.501305e+01	1.194286e+03
1.130000e-06	3.604537e-06	1.852600e-08	2.573857e+01	1.217072e+03
1.140000e-06	3.704960e-06	1.885593e-08	2.645565e+01	1.238613e+03
1.150000e-06	3.804081e-06	1.916981e-08	2.716343e+01	1.259017e+03
1.160000e-06	3.901760e-06	1.946532e-08	2.786092e+01	1.278380e+03
1.170000e-06	3.997864e-06	1.974226e-08	2.854716e+01	1.296787e+03
1.180000e-06	4.092559e-06	2.000260e-08	2.922334e+01	1.314302e+03
1.190000e-06	4.185991e-06	2.025194e-08	2.989050e+01	1.330977e+03
1.200000e-06	4.278083e-06	2.049085e-08	3.054809e+01	1.346849e+03
1.210000e-06	4.368704e-06	2.072072e-08	3.119518e+01	1.361953e+03
1.220000e-06	4.457616e-06	2.094008e-08	3.183007e+01	1.376320e+03
1.230000e-06	4.544828e-06	2.114654e-08	3.245281e+01	1.389988e+03
1.240000e-06	4.630490e-06	2.134162e-08	3.306449e+01	1.402998e+03
1.250000e-06	4.714664e-06	2.152977e-08	3.366554e+01	1.415392e+03
1.260000e-06	4.797253e-06	2.170969e-08	3.425528e+01	1.427214e+03
1.270000e-06	4.878030e-06	2.188014e-08	3.483208e+01	1.438501e+03
1.280000e-06	4.956928e-06	2.204344e-08	3.539545e+01	1.449282e+03
1.290000e-06	5.033985e-06	2.220067e-08	3.594569e+01	1.459576e+03
1.300000e-06	5.109055e-06	2.235088e-08	3.648174e+01	1.469393e+03
1.310000e-06	5.182056e-06	2.249605e-08	3.700301e+01	1.478737e+03
1.320000e-06	5.253196e-06	2.263426e-08	3.751099e+01	1.487610e+03
1.330000e-06	5.322540e-06	2.276397e-08	3.800614e+01	1.496014e+03
1.340000e-06	5.389978e-06	2.288432e-08	3.848769e+01	1.503954e+03
1.350000e-06	5.455333e-06	2.299712e-08	3.895437e+01	1.511443e+03
1.360000e-06	5.518690e-06	2.310529e-08	3.940677e+01	1.518502e+03
1.370000e-06	5.580250e-06	2.320802e-08	3.984635e+01	1.525153e+03
1.380000e-06	5.640025e-06	2.330325e-08	4.027318e+01	1.531428e+03
1.390000e-06	5.697761e-06	2.339168e-08	4.068545e+01	1.537357e+03
1.400000e-06	5.753373e-06	2.347661e-08	4.108255e+01	1.542970e+03
1.410000e-06	5.806924e-06	2.355770e-08	4.146494e+01	1.548296e+03
1.420000e-06	5.858133e-06	2.363587e-08	4.183060e+01	1.553359e+03
1.430000e-06	5.906847e-06	2.371013e-08	4.217845e+01	1.558177e+03
1.440000e-06	5.953339e-06	2.378097e-08	4.251043e+01	1.562759e+03
1.450000e-06	5.997940e-06	2.384858e-08	4.282891e+01	1.567108e+03
1.460000e-06	6.040518e-06	2.391168e-08	4.313294e+01	1.571219e+03
1.470000e-06	6.080823e-06	2.397080e-08	4.342074e+01	1.575081e+03
1.480000e-06	6.119003e-06	2.402575e-08	4.369337e+01	1.578681e+03
1.490000e-06	6.155227e-06	2.407522e-08	4.395204e+01	1.582004e+03
1.500000e-06	6.189256e-06	2.411871e-08	4.419502e+01	1.585041e+03
1.510000e-06	6.221001e-06	2.415903e-08	4.442170e+01	1.587789e+03
1.520000e-06	6.250600e-06	2.419775e-08	4.463306e+01	1.590253e+03
1.530000e-06	6.278094e-06	2.423208e-08	4.482938e+01	1.592446e+03
1.540000e-06	6.303213e-06	2.426101e-08	4.500874e+01	1.594384e+03
1.550000e-06	6.325905e-06	2.428642e-08	4.517078e+01	1.596088e+03
1.560000e-06	6.346523e-06	2.430907e-08	4.531800e+01	1.597572e+03
1.570000e-06	6.365067e-06	2.432783e-08	4.545042e+01	1.598848e+03
1.580000e-06	6.381179e-06	2.434266e-08	4.556546e+01	1.599919e+03
1.590000e-06	6.394814e-06	2.435426e-08	4.566283e+01	1.600784e+03
1.600000e-06	6.405992e-06	2.436330e-08	4.574265e+01	1.601438e+03
1.610000e-06	6.414601e-06	2.437169e-08	4.580412e+01	1.601877e+03
1.620000e-06	6.420903e-06	2.437795e-08	4.584912e+01	1.602104e+03
1.630000e-06	6.425135e-06	2.438150e-08	4.587934e+01	1.602129e+03
1.640000e-06	6.426992e-06	2.438379e-08	4.589260e+01	1.601969e+03
1.650000e-06	6.426452e-06	2.438450e-08	4.588874e+01	1.601646e+03
1.660000e-06	6.423865e-06	2.436789e-08	4.587027e+01	1.601178e+03
1.670000e-06	6.419246e-06	2.435537e-08	4.583729e+01	1.600577e+03
1.680000e-06	6.412384e-06	2.434233e-08	4.578829e+01	1.599840e+03
1.690000e-06	6.403349e-06	2.432841e-08	4.572377e+01	1.598952e+03
1.700000e-06	6.392350e-06	2.431822e-08	4.564523e+01	1.597884e+03
1.710000e-06	6.379083e-06	2.430917e-08	4.555050e+01	1.596606e+03
1.720000e-06	6.363595e-06	2.431516e-08	4.543990e+01	1.595092e+03
1.730000e-06	6.346188e-06	2.425301e-08	4.531561e+01	1.593334e+03
1.740000e-06	6.326622e-06	2.411081e-08	4.517590e+01	1.591345e+03
1.750000e-06	6.304045e-06	2.414723e-08	4.501468e+01	1.589168e+03
1.760000e-06	6.278327e-06	2.415696e-08	4.483104e+01	1.586862e+03
1.770000e-06	6.250495e-06	2.408575e-08	4.463231e+01	1.584500e+03
1.780000e-06	6.220823e-06	2.420448e-08	4.442043e+01	1.582147e+03
1.790000e-06	6.189544e-06	2.409565e-08	4.419707e+01	1.579846e+03
1.800000e-06	6.156897e-06	2.386145e-08	4.396396e+01	1.577603e+03
1.810000e-06	6.122163e-06	2.405391e-08	4.371593e+01	1.575384e+03
1.820000e-06	6.085327e-06	2.390117e-08	4.345290e+01	1.573114e+03
1.830000e-06	6.046391e-06	2.390114e-08	4.317488e+01	1.570692e+03
1.840000e-06	6.005038e-06	2.409973e-08	4.287959e+01	1.568005e+03
1.850000e-06	5.961731e-06	2.376757e-08	4.257036e+01	1.564955e+03
1.860000e-06	5.916365e-06	2.388319e-08	4.224641e+01	1.561473e+03
1.870000e-06	5.868743e-06	2.384061e-08	4.190636e+01	1.557531e+03
1.880000e-06	5.819065e-06	2.364865e-08	4.155163e+01	1.553149e+03
1.890000e-06	5.766815e-06	2.374066e-08	4.117854e+01	1.548380e+03
1.900000e-06	5.712003e-06	2.346827e-08	4.078715e+01	1.543302e+03
1.910000e-06	5.655052e-06	2.348053e-08	4.038048e+01	1.537991e+03
1.920000e-06	5.596119e-06	2.346446e-08	3.995967e+01	1.532505e+03
1.930000e-06	5.535384e-06	2.330778e-08	3.952598e+01	1.526872e+03
1.940000e-06	5.472522e-06	2.332716e-08	3.907711e+01	1.521082e+03
1.950000e-06	5.407532e-06	2.306573e-08	3.861304e+01	1.515092e+03
1.960000e-06	5.340562e-06	2.306220e-08	3.813484e+01	1.508841e+03
1.970000e-06	5.271547e-06	2.290919e-08	3.764202e+01	1.502266e+03
1.980000e-06	5.200394e-06	2.279259e-08	3.713395e+01	1.495315e+03
1.990000e-06	5.127204e-06	2.279608e-08	3.661133e+01	1.487965e+03
2.000000e-06	5.052324e-06	2.259139e-08	3.607664e+01	1.480218e+03
2.010000e-06	4.975417e-06	2.252853e-08	3.552748e+01	1.472104e+03
2.020000e-06	4.896335e-06	2.230187e-08	3.496278e+01	1.463661e+03
2.030000e-06	4.815505e-06	2.222259e-08	3.438561e+01	1.454930e+03
2.040000e-06	4.733139e-06	2.213309e-08	3.379747e+01	1.445933e+03
2.050000e-06	4.649253e-06	2.195350e-08	3.319847e+01	1.436669e+03
2.060000e-06	4.563635e-06	2.182742e-08	3.258711e+01	1.427110e+03
2.070000e-06	4.476279e-06	2.162389e-08	3.196333e+01	1.417209e+03
2.080000e-06	4.387399e-06	2.150378e-08	3.132867e+01	1.406908e+03
2.090000e-06	4.297132e-06	2.131153e-08	3.068411e+01	1.396155e+03
2.100000e-06	4.205454e-06	2.117709e-08	3.002948e+01	1.384913e+03
2.110000e-06	4.112300e-06	2.100227e-08	2.936431e+01	1.373165e+03
2.120000e-06	4.017650e-06	2.079345e-08	2.868844e+01	1.360915e+03
2.130000e-06	3.921545e-06	2.059943e-08	2.800219e+01	1.348179e+03
2.140000e-06	3.824096e-06	2.038702e-08	2.730635e+01	1.334975e+03
2.150000e-06	3.725355e-06	2.020618e-08	2.660128e+01	1.321309e+03
2.160000e-06	3.625300e-06	1.998053e-08	2.588683e+01	1.307171e+03
2.170000e-06	3.523823e-06	1.977480e-08	2.516222e+01	1.292525e+03
2.180000e-06	3.420866e-06	1.952715e-08	2.442704e+01	1.277319e+03
2.190000e-06	3.316580e-06	1.928609e-08	2.368238e+01	1.261489e+03
2.200000e-06	3.211248e-06	1.903355e-08	2.293025e+01	1.244971e+03
2.210000e-06	3.104848e-06	1.878028e-08	2.217049e+01	1.227713e+03
2.220000e-06	2.997277e-06	1.850726e-08	2.140237e+01	1.209676e+03
2.230000e-06	2.888724e-06	1.821096e-08	2.062723e+01	1.190837e+03
2.240000e-06	2.779243e-06	1.791787e-08	1.984547e+01	1.171183e+03
2.250000e-06	2.668655e-06	1.761230e-08	1.905580e+01	1.150695e+03
2.260000e-06	2.557006e-06	1.729545e-08	1.825856e+01	1.129342e+03
2.270000e-06	2.444337e-06	1.694885e-08	1.745404e+01	1.107069e+03
2.280000e-06	2.330633e-06	1.659519e-08	1.664213e+01	1.083795e+03
2.290000e-06	2.215973e-06	1.621782e-08	1.582338e+01	1.059413e+03
2.300000e-06	2.100444e-06	1.582844e-08	1.499843e+01	1.033805e+03
2.310000e-06	1.984122e-06	1.541916e-08	1.416782e+01	1.006844e+03
2.320000e-06	1.867101e-06	1.499308e-08	1.333223e+01	9.784103e+02
2.330000e-06	1.749432e-06	1.453595e-08	1.249200e+01	9.483963e+02
2.340000e-06	1.631042e-06	1.404579e-08	1.164662e+01	9.167037e+02
2.350000e-06	1.511943e-06	1.353241e-08	1.079618e+01	8.832406e+02
2.360000e-06	1.392232e-06	1.299595e-08	9.941373e+00	8.479129e+02
2.370000e-06	1.272082e-06	1.243508e-08	9.083433e+00	8.106192e+02
2.380000e-06	1.151656e-06	1.183521e-08	8.223519e+00	7.712510e+02
2.390000e-06	1.030886e-06	1.119947e-08	7.361149e+00	7.297037e+02
2.400000e-06	9.097362e-07	1.052679e-08	6.496065e+00	6.858959e+02
2.410000e-06	7.883178e-07	9.824740e-09	5.629064e+00	6.397963e+02
2.420000e-06	6.666803e-07	9.089866e-09	4.760500e+00	5.914514e+02
2.430000e-06	5.448553e-07	8.322959e-09	3.890596e+00	5.410055e+02
2.440000e-06	4.228727e-07	7.527608e-09	3.019566e+00	4.887071e+02
2.450000e-06	3.008399e-07	6.705121e-09	2.148178e+00	4.348948e+02
2.460000e-06	1.787095e-07	5.861814e-09	1.276093e+00	3.799631e+02
2.470000e-06	5.641287e-08	5.007259e-09	4.028219e-01	3.243113e+02
2.480000e-06	-6.591922e-08	4.153354e-09	-4.707030e-01	2.682846e+02
2.490000e-06	-1.882151e-07	3.295726e-09	-1.343970e+00	2.121183e+02
2.500000e-06	-3.104636e-07	2.433193e-09	-2.216897e+00	1.558990e+02
2.510000e-06	-4.326032e-07	1.568528e-09	-3.089048e+00	9.955102e+01
2.520000e-06	-5.546038e-07	6.991203e-10	-3.960206e+00	4.285511e+01
2.530000e-06	-6.764229e-07	-1.767906e-10	-4.830068e+00	-1.450296e+01
2.540000e-06	-7.980176e-07	-1.066872e-09	-5.698327e+00	-7.286041e+01
2.550000e-06	-9.193894e-07	-1.976350e-09	-6.564995e+00	-1.324953e+02
2.560000e-06	-1.040457e-06	-2.907353e-09	-7.429488e+00	-1.935491e+02
2.570000e-06	-1.161190e-06	-3.859909e-09	-8.291600e+00	-2.559699e+02
2.580000e-06	-1.281557e-06	-4.828398e-09	-9.151093e+00	-3.194852e+02
2.590000e-06	-1.401486e-06	-5.808422e-09	-1.000746e+01	-3.836129e+02
2.600000e-06	-1.520825e-06	-6.792235e-09	-1.085961e+01	-4.477047e+02
2.610000e-06	-1.639447e-06	-7.765281e-09	-1.170664e+01	-5.110172e+02
2.620000e-06	-1.757402e-06	-8.712683e-09	-1.254891e+01	-5.727957e+02
2.630000e-06	-1.874678e-06	-9.624358e-09	-1.338633e+01	-6.323554e+02
2.640000e-06	-1.991149e-06	-1.049418e-08	-1.421800e+01	-6.891487e+02
2.650000e-06	-2.106719e-06	-1.131581e-08	-1.504324e+01	-7.428061e+02
2.660000e-06	-2.221317e-06	-1.208537e-08	-1.586154e+01	-7.931488e+02
2.670000e-06	-2.334955e-06	-1.280664e-08	-1.667298e+01	-8.401727e+02
2.680000e-06	-2.447560e-06	-1.347988e-08	-1.747705e+01	-8.840116e+02
2.690000e-06	-2.559005e-06	-1.410745e-08	-1.827284e+01	-9.248896e+02
2.700000e-06	-2.669404e-06	-1.469597e-08	-1.906116e+01	-9.630716e+02
2.710000e-06	-2.778855e-06	-1.525020e-08	-1.984270e+01	-9.988219e+02
2.720000e-06	-2.887412e-06	-1.577104e-08	-2.061786e+01	-1.032377e+03
2.730000e-06	-2.995069e-06	-1.625563e-08	-2.138660e+01	-1.063930e+03
2.740000e-06	-3.101768e-06	-1.670794e-08	-2.214850e+01	-1.093638e+03
2.750000e-06	-3.207469e-06	-1.713140e-08	-2.290326e+01	-1.121624e+03
2.760000e-06	-3.312034e-06	-1.753059e-08	-2.364992e+01	-1.147996e+03
2.770000e-06	-3.415315e-06	-1.791177e-08	-2.438741e+01	-1.172855e+03
2.780000e-06	-3.517316e-06	-1.827380e-08	-2.511576e+01	-1.196307e+03
2.790000e-06	-3.618077e-06	-1.861552e-08	-2.583525e+01	-1.218460e+03
2.800000e-06	-3.717541e-06	-1.893751e-08	-2.654549e+01	-1.239422e+03
2.810000e-06	-3.815744e-06	-1.924209e-08	-2.724672e+01	-1.259297e+03
2.820000e-06	-3.912690e-06	-1.953212e-08	-2.793896e+01	-1.278176e+03
2.830000e-06	-4.008306e-06	-1.980584e-08	-2.862172e+01	-1.296132e+03
2.840000e-06	-4.102538e-06	-2.006475e-08	-2.929460e+01	-1.313225e+03
2.850000e-06	-4.195275e-06	-2.031149e-08	-2.995679e+01	-1.329497e+03
2.860000e-06	-4.286446e-06	-2.054911e-08	-3.060781e+01	-1.344983e+03
2.870000e-06	-4.376094e-06	-2.077897e-08	-3.124795e+01	-1.359717e+03
2.880000e-06	-4.464178e-06	-2.099849e-08	-3.187693e+01	-1.373733e+03
2.890000e-06	-4.550618e-06	-2.120631e-08	-3.249415e+01	-1.387069e+03
2.900000e-06	-4.635331e-06	-2.140204e-08	-3.309906e+01	-1.399769e+03
2.910000e-06	-4.718407e-06	-2.158760e-08	-3.369227e+01	-1.411875e+03
2.920000e-06	-4.799930e-06	-2.176320e-08	-3.427440e+01	-1.423428e+03
2.930000e-06	-4.879695e-06	-2.192981e-08	-3.484396e+01	-1.434461e+03
2.940000e-06	-4.957537e-06	-2.208817e-08	-3.539980e+01	-1.445000e+03
