# Temperatura_=_40.82
# Concentracion g/m^3_=_28200.0
# C_Vs_to_Am_M_A/Vsm_=_65563218390.804596
# pendiente_HvsI_1/m_=_3716.3
# ordenada_HvsI_A/m_=_1297.0
# frecuencia_Hz_=_302099.2904186439

Tiempo_(s)	Campo_(V.s)	Magnetizacion_(V.s)	Campo_(kA/m)	Magnetizacion_(A/m)
0.000000e+00	-6.370654e-06	-1.963179e-08	-4.558020e+01	-1.285066e+03
1.000000e-08	-6.367325e-06	-1.962557e-08	-4.555639e+01	-1.284722e+03
2.000000e-08	-6.361943e-06	-1.961730e-08	-4.551788e+01	-1.284235e+03
3.000000e-08	-6.354651e-06	-1.960733e-08	-4.546571e+01	-1.283594e+03
4.000000e-08	-6.345164e-06	-1.959447e-08	-4.539783e+01	-1.282791e+03
5.000000e-08	-6.333257e-06	-1.958011e-08	-4.531264e+01	-1.281826e+03
6.000000e-08	-6.318995e-06	-1.956151e-08	-4.521060e+01	-1.280708e+03
7.000000e-08	-6.302463e-06	-1.953725e-08	-4.509232e+01	-1.279449e+03
8.000000e-08	-6.283934e-06	-1.953204e-08	-4.495975e+01	-1.278070e+03
9.000000e-08	-6.263326e-06	-1.954873e-08	-4.481231e+01	-1.276588e+03
1.000000e-07	-6.240279e-06	-1.950175e-08	-4.464741e+01	-1.275018e+03
1.100000e-07	-6.214575e-06	-1.944426e-08	-4.446351e+01	-1.273366e+03
1.200000e-07	-6.186471e-06	-1.941783e-08	-4.426243e+01	-1.271627e+03
1.300000e-07	-6.156488e-06	-1.935663e-08	-4.404791e+01	-1.269787e+03
1.400000e-07	-6.125034e-06	-1.929491e-08	-4.382287e+01	-1.267821e+03
1.500000e-07	-6.091850e-06	-1.936629e-08	-4.358545e+01	-1.265701e+03
1.600000e-07	-6.056548e-06	-1.930215e-08	-4.333286e+01	-1.263398e+03
1.700000e-07	-6.019381e-06	-1.922330e-08	-4.306694e+01	-1.260888e+03
1.800000e-07	-5.980183e-06	-1.926244e-08	-4.278649e+01	-1.258155e+03
1.900000e-07	-5.938554e-06	-1.912896e-08	-4.248866e+01	-1.255196e+03
2.000000e-07	-5.894757e-06	-1.910975e-08	-4.217530e+01	-1.252019e+03
2.100000e-07	-5.848829e-06	-1.909814e-08	-4.184669e+01	-1.248639e+03
2.200000e-07	-5.800595e-06	-1.895628e-08	-4.150160e+01	-1.245077e+03
2.300000e-07	-5.750033e-06	-1.891715e-08	-4.113984e+01	-1.241356e+03
2.400000e-07	-5.696932e-06	-1.888400e-08	-4.075992e+01	-1.237492e+03
2.500000e-07	-5.641663e-06	-1.881332e-08	-4.036449e+01	-1.233492e+03
2.600000e-07	-5.584221e-06	-1.877111e-08	-3.995351e+01	-1.229353e+03
2.700000e-07	-5.524526e-06	-1.870928e-08	-3.952641e+01	-1.225061e+03
2.800000e-07	-5.462857e-06	-1.862246e-08	-3.908517e+01	-1.220593e+03
2.900000e-07	-5.399296e-06	-1.852032e-08	-3.863042e+01	-1.215922e+03
3.000000e-07	-5.333724e-06	-1.848046e-08	-3.816127e+01	-1.211020e+03
3.100000e-07	-5.266051e-06	-1.842074e-08	-3.767709e+01	-1.205863e+03
3.200000e-07	-5.196375e-06	-1.832653e-08	-3.717858e+01	-1.200435e+03
3.300000e-07	-5.124926e-06	-1.822725e-08	-3.666738e+01	-1.194729e+03
3.400000e-07	-5.051636e-06	-1.810413e-08	-3.614301e+01	-1.188746e+03
3.500000e-07	-4.976174e-06	-1.802748e-08	-3.560310e+01	-1.182494e+03
3.600000e-07	-4.898693e-06	-1.793411e-08	-3.504875e+01	-1.175983e+03
3.700000e-07	-4.819123e-06	-1.784184e-08	-3.447945e+01	-1.169222e+03
3.800000e-07	-4.737651e-06	-1.774571e-08	-3.389654e+01	-1.162214e+03
3.900000e-07	-4.654773e-06	-1.761292e-08	-3.330357e+01	-1.154955e+03
4.000000e-07	-4.570486e-06	-1.747693e-08	-3.270052e+01	-1.147434e+03
4.100000e-07	-4.484719e-06	-1.736163e-08	-3.208688e+01	-1.139630e+03
4.200000e-07	-4.397598e-06	-1.725556e-08	-3.146355e+01	-1.131521e+03
4.300000e-07	-4.308953e-06	-1.712145e-08	-3.082932e+01	-1.123080e+03
4.400000e-07	-4.218568e-06	-1.698428e-08	-3.018264e+01	-1.114285e+03
4.500000e-07	-4.126546e-06	-1.684434e-08	-2.952426e+01	-1.105117e+03
4.600000e-07	-4.033097e-06	-1.669119e-08	-2.885566e+01	-1.095562e+03
4.700000e-07	-3.938399e-06	-1.654374e-08	-2.817812e+01	-1.085611e+03
4.800000e-07	-3.842360e-06	-1.639310e-08	-2.749099e+01	-1.075258e+03
4.900000e-07	-3.744749e-06	-1.622685e-08	-2.679261e+01	-1.064497e+03
5.000000e-07	-3.645663e-06	-1.604230e-08	-2.608368e+01	-1.053317e+03
5.100000e-07	-3.545297e-06	-1.585593e-08	-2.536558e+01	-1.041704e+03
5.200000e-07	-3.443659e-06	-1.567058e-08	-2.463839e+01	-1.029633e+03
5.300000e-07	-3.340870e-06	-1.548020e-08	-2.390297e+01	-1.017078e+03
5.400000e-07	-3.236946e-06	-1.528321e-08	-2.315942e+01	-1.004001e+03
5.500000e-07	-3.131617e-06	-1.507607e-08	-2.240583e+01	-9.903645e+02
5.600000e-07	-3.024894e-06	-1.485726e-08	-2.164225e+01	-9.761284e+02
5.700000e-07	-2.917062e-06	-1.462469e-08	-2.087074e+01	-9.612525e+02
5.800000e-07	-2.808174e-06	-1.438615e-08	-2.009168e+01	-9.456979e+02
5.900000e-07	-2.698279e-06	-1.413820e-08	-1.930541e+01	-9.294265e+02
6.000000e-07	-2.587482e-06	-1.387152e-08	-1.851270e+01	-9.123997e+02
6.100000e-07	-2.475896e-06	-1.359277e-08	-1.771433e+01	-8.945775e+02
6.200000e-07	-2.363365e-06	-1.330659e-08	-1.690920e+01	-8.759159e+02
6.300000e-07	-2.249681e-06	-1.301242e-08	-1.609582e+01	-8.563656e+02
6.400000e-07	-2.134895e-06	-1.270436e-08	-1.527456e+01	-8.358708e+02
6.500000e-07	-2.019207e-06	-1.237660e-08	-1.444684e+01	-8.143685e+02
6.600000e-07	-1.902796e-06	-1.202574e-08	-1.361396e+01	-7.917878e+02
6.700000e-07	-1.785737e-06	-1.165605e-08	-1.277644e+01	-7.680495e+02
6.800000e-07	-1.668068e-06	-1.127361e-08	-1.193455e+01	-7.430667e+02
6.900000e-07	-1.549858e-06	-1.087246e-08	-1.108879e+01	-7.167454e+02
7.000000e-07	-1.431188e-06	-1.045003e-08	-1.023974e+01	-6.889869e+02
7.100000e-07	-1.312115e-06	-1.000090e-08	-9.387806e+00	-6.596924e+02
7.200000e-07	-1.192642e-06	-9.523755e-09	-8.533010e+00	-6.287706e+02
7.300000e-07	-1.072683e-06	-9.020095e-09	-7.674736e+00	-5.961482e+02
7.400000e-07	-9.522442e-07	-8.495492e-09	-6.813034e+00	-5.617823e+02
7.500000e-07	-8.314772e-07	-7.950511e-09	-5.948982e+00	-5.256747e+02
7.600000e-07	-7.104570e-07	-7.377420e-09	-5.083116e+00	-4.878839e+02
7.700000e-07	-5.892186e-07	-6.775146e-09	-4.215690e+00	-4.485323e+02
7.800000e-07	-4.677778e-07	-6.150486e-09	-3.346817e+00	-4.078071e+02
7.900000e-07	-3.461042e-07	-5.511165e-09	-2.476276e+00	-3.659510e+02
8.000000e-07	-2.243248e-07	-4.859061e-09	-1.604980e+00	-3.232434e+02
8.100000e-07	-1.023761e-07	-4.200535e-09	-7.324715e-01	-2.799725e+02
8.200000e-07	1.973786e-08	-3.540312e-09	1.412187e-01	-2.364024e+02
8.300000e-07	1.418799e-07	-2.879081e-09	1.015110e+00	-1.927392e+02
8.400000e-07	2.639546e-07	-2.216538e-09	1.888520e+00	-1.491036e+02
8.500000e-07	3.859377e-07	-1.554293e-09	2.761273e+00	-1.055133e+02
8.600000e-07	5.078078e-07	-8.899033e-10	3.633220e+00	-6.188180e+01
8.700000e-07	6.294550e-07	-2.204997e-10	4.503570e+00	-1.803426e+01
8.800000e-07	7.509089e-07	4.549123e-10	5.372538e+00	2.626039e+01
8.900000e-07	8.721369e-07	1.139784e-09	6.239890e+00	7.124490e+01
9.000000e-07	9.930532e-07	1.837990e-09	7.105012e+00	1.171238e+02
9.100000e-07	1.113627e-06	2.551248e-09	7.967683e+00	1.640158e+02
9.200000e-07	1.233800e-06	3.276157e-09	8.827484e+00	2.119172e+02
9.300000e-07	1.353461e-06	4.012466e-09	9.683626e+00	2.606814e+02
9.400000e-07	1.472640e-06	4.762636e-09	1.053632e+01	3.100201e+02
9.500000e-07	1.591418e-06	5.520402e-09	1.138614e+01	3.595243e+02
9.600000e-07	1.709610e-06	6.271533e-09	1.223177e+01	4.087033e+02
9.700000e-07	1.827076e-06	7.006543e-09	1.307221e+01	4.570341e+02
9.800000e-07	1.943879e-06	7.720195e-09	1.390790e+01	5.040142e+02
9.900000e-07	2.059976e-06	8.405151e-09	1.473854e+01	5.492092e+02
1.000000e-06	2.175209e-06	9.055477e-09	1.556300e+01	5.922874e+02
1.010000e-06	2.289410e-06	9.667878e-09	1.638007e+01	6.330393e+02
1.020000e-06	2.402558e-06	1.024645e-08	1.718962e+01	6.713787e+02
1.030000e-06	2.514717e-06	1.079175e-08	1.799208e+01	7.073280e+02
1.040000e-06	2.625994e-06	1.130446e-08	1.878824e+01	7.409934e+02
1.050000e-06	2.736383e-06	1.178426e-08	1.957804e+01	7.725330e+02
1.060000e-06	2.845828e-06	1.223445e-08	2.036108e+01	8.021273e+02
1.070000e-06	2.954371e-06	1.265531e-08	2.113768e+01	8.299535e+02
1.080000e-06	3.061993e-06	1.305058e-08	2.190769e+01	8.561691e+02
1.090000e-06	3.168516e-06	1.342509e-08	2.266982e+01	8.809047e+02
1.100000e-06	3.273740e-06	1.378097e-08	2.342267e+01	9.042648e+02
1.110000e-06	3.377696e-06	1.411890e-08	2.416645e+01	9.263336e+02
1.120000e-06	3.480452e-06	1.443634e-08	2.490164e+01	9.471838e+02
1.130000e-06	3.581989e-06	1.473439e-08	2.562811e+01	9.668843e+02
1.140000e-06	3.682393e-06	1.501474e-08	2.634647e+01	9.855054e+02
1.150000e-06	3.781594e-06	1.528136e-08	2.705622e+01	1.003120e+03
1.160000e-06	3.879376e-06	1.553451e-08	2.775583e+01	1.019803e+03
1.170000e-06	3.975649e-06	1.577451e-08	2.844463e+01	1.035625e+03
1.180000e-06	4.070446e-06	1.600265e-08	2.912288e+01	1.050653e+03
1.190000e-06	4.163916e-06	1.621853e-08	2.979162e+01	1.064943e+03
1.200000e-06	4.256066e-06	1.642274e-08	3.045093e+01	1.078541e+03
1.210000e-06	4.346749e-06	1.661815e-08	3.109974e+01	1.091486e+03
1.220000e-06	4.435763e-06	1.680316e-08	3.173662e+01	1.103806e+03
1.230000e-06	4.523125e-06	1.697932e-08	3.236167e+01	1.115531e+03
1.240000e-06	4.608920e-06	1.714716e-08	3.297550e+01	1.126686e+03
1.250000e-06	4.693129e-06	1.730995e-08	3.357799e+01	1.137297e+03
1.260000e-06	4.775747e-06	1.746624e-08	3.416910e+01	1.147390e+03
1.270000e-06	4.856569e-06	1.761420e-08	3.474736e+01	1.156987e+03
1.280000e-06	4.935558e-06	1.775450e-08	3.531250e+01	1.166110e+03
1.290000e-06	5.012786e-06	1.788651e-08	3.586505e+01	1.174775e+03
1.300000e-06	5.088079e-06	1.801113e-08	3.640375e+01	1.182990e+03
1.310000e-06	5.161287e-06	1.812932e-08	3.692753e+01	1.190765e+03
1.320000e-06	5.232531e-06	1.824125e-08	3.743726e+01	1.198108e+03
1.330000e-06	5.301949e-06	1.834612e-08	3.793393e+01	1.205029e+03
1.340000e-06	5.369555e-06	1.844482e-08	3.841763e+01	1.211547e+03
1.350000e-06	5.435183e-06	1.853862e-08	3.888718e+01	1.217687e+03
1.360000e-06	5.498804e-06	1.862776e-08	3.934237e+01	1.223483e+03
1.370000e-06	5.560565e-06	1.871269e-08	3.978425e+01	1.228973e+03
1.380000e-06	5.620487e-06	1.879252e-08	4.021297e+01	1.234194e+03
1.390000e-06	5.678448e-06	1.886717e-08	4.062767e+01	1.239179e+03
1.400000e-06	5.734328e-06	1.893828e-08	4.102747e+01	1.243952e+03
1.410000e-06	5.788108e-06	1.900751e-08	4.141225e+01	1.248523e+03
1.420000e-06	5.839592e-06	1.907535e-08	4.178061e+01	1.252890e+03
1.430000e-06	5.888603e-06	1.913871e-08	4.213127e+01	1.257043e+03
1.440000e-06	5.935369e-06	1.919885e-08	4.246587e+01	1.260965e+03
1.450000e-06	5.980223e-06	1.925426e-08	4.278678e+01	1.264636e+03
1.460000e-06	6.023111e-06	1.930526e-08	4.309363e+01	1.268045e+03
1.470000e-06	6.063701e-06	1.935345e-08	4.338404e+01	1.271186e+03
1.480000e-06	6.102044e-06	1.939782e-08	4.365838e+01	1.274064e+03
1.490000e-06	6.138408e-06	1.943779e-08	4.391855e+01	1.276691e+03
1.500000e-06	6.172637e-06	1.947097e-08	4.416345e+01	1.279086e+03
1.510000e-06	6.204608e-06	1.950072e-08	4.439219e+01	1.281268e+03
1.520000e-06	6.234449e-06	1.953221e-08	4.460570e+01	1.283256e+03
1.530000e-06	6.262222e-06	1.956221e-08	4.480441e+01	1.285059e+03
1.540000e-06	6.287611e-06	1.958658e-08	4.498606e+01	1.286684e+03
1.550000e-06	6.310569e-06	1.960709e-08	4.515031e+01	1.288129e+03
1.560000e-06	6.331395e-06	1.962525e-08	4.529932e+01	1.289391e+03
1.570000e-06	6.350071e-06	1.964110e-08	4.543294e+01	1.290466e+03
1.580000e-06	6.366439e-06	1.965424e-08	4.555005e+01	1.291352e+03
1.590000e-06	6.380417e-06	1.966523e-08	4.565006e+01	1.292055e+03
1.600000e-06	6.391933e-06	1.967325e-08	4.573245e+01	1.292585e+03
1.610000e-06	6.400941e-06	1.967941e-08	4.579690e+01	1.292954e+03
1.620000e-06	6.407603e-06	1.968463e-08	4.584456e+01	1.293180e+03
1.630000e-06	6.412121e-06	1.968887e-08	4.587689e+01	1.293274e+03
1.640000e-06	6.414317e-06	1.969222e-08	4.589260e+01	1.293244e+03
1.650000e-06	6.414134e-06	1.969285e-08	4.589130e+01	1.293093e+03
1.660000e-06	6.411854e-06	1.968617e-08	4.587498e+01	1.292814e+03
1.670000e-06	6.407600e-06	1.967970e-08	4.584455e+01	1.292398e+03
1.680000e-06	6.401150e-06	1.967088e-08	4.579840e+01	1.291833e+03
1.690000e-06	6.392496e-06	1.965950e-08	4.573648e+01	1.291110e+03
1.700000e-06	6.381833e-06	1.964924e-08	4.566019e+01	1.290224e+03
1.710000e-06	6.369005e-06	1.963815e-08	4.556841e+01	1.289180e+03
1.720000e-06	6.353917e-06	1.963283e-08	4.546046e+01	1.287988e+03
1.730000e-06	6.336828e-06	1.958944e-08	4.533819e+01	1.286664e+03
1.740000e-06	6.317683e-06	1.952581e-08	4.520122e+01	1.285230e+03
1.750000e-06	6.295692e-06	1.952780e-08	4.504388e+01	1.283701e+03
1.760000e-06	6.270582e-06	1.952045e-08	4.486422e+01	1.282088e+03
1.770000e-06	6.243139e-06	1.948947e-08	4.466787e+01	1.280392e+03
1.780000e-06	6.213894e-06	1.953733e-08	4.445864e+01	1.278604e+03
1.790000e-06	6.182991e-06	1.947404e-08	4.423753e+01	1.276702e+03
1.800000e-06	6.150628e-06	1.939979e-08	4.400598e+01	1.274662e+03
1.810000e-06	6.116252e-06	1.941418e-08	4.376003e+01	1.272452e+03
1.820000e-06	6.079906e-06	1.929092e-08	4.349999e+01	1.270046e+03
1.830000e-06	6.041581e-06	1.932214e-08	4.322579e+01	1.267424e+03
1.840000e-06	6.000718e-06	1.933312e-08	4.293342e+01	1.264576e+03
1.850000e-06	5.957743e-06	1.915030e-08	4.262594e+01	1.261505e+03
1.860000e-06	5.912761e-06	1.918701e-08	4.230411e+01	1.258222e+03
1.870000e-06	5.865623e-06	1.914868e-08	4.196685e+01	1.254747e+03
1.880000e-06	5.816429e-06	1.906596e-08	4.161489e+01	1.251102e+03
1.890000e-06	5.764748e-06	1.905779e-08	4.124512e+01	1.247306e+03
1.900000e-06	5.710432e-06	1.889788e-08	4.085651e+01	1.243372e+03
1.910000e-06	5.653899e-06	1.887184e-08	4.045203e+01	1.239301e+03
1.920000e-06	5.595367e-06	1.883958e-08	4.003325e+01	1.235087e+03
1.930000e-06	5.535077e-06	1.877658e-08	3.960189e+01	1.230708e+03
1.940000e-06	5.472714e-06	1.873306e-08	3.915570e+01	1.226141e+03
1.950000e-06	5.408059e-06	1.859226e-08	3.869311e+01	1.221356e+03
1.960000e-06	5.341393e-06	1.854964e-08	3.821614e+01	1.216327e+03
1.970000e-06	5.272828e-06	1.842756e-08	3.772558e+01	1.211034e+03
1.980000e-06	5.202157e-06	1.834958e-08	3.721994e+01	1.205466e+03
1.990000e-06	5.129377e-06	1.831645e-08	3.669923e+01	1.199620e+03
2.000000e-06	5.054935e-06	1.820642e-08	3.616661e+01	1.193499e+03
2.010000e-06	4.978613e-06	1.812423e-08	3.562055e+01	1.187115e+03
2.020000e-06	4.900073e-06	1.796553e-08	3.505862e+01	1.180476e+03
2.030000e-06	4.819645e-06	1.788683e-08	3.448318e+01	1.173590e+03
2.040000e-06	4.737671e-06	1.780706e-08	3.389668e+01	1.166456e+03
2.050000e-06	4.654266e-06	1.768872e-08	3.329994e+01	1.159066e+03
2.060000e-06	4.569218e-06	1.757340e-08	3.269144e+01	1.151405e+03
2.070000e-06	4.482360e-06	1.743091e-08	3.207000e+01	1.143450e+03
2.080000e-06	4.393836e-06	1.731499e-08	3.143664e+01	1.135176e+03
2.090000e-06	4.303867e-06	1.717043e-08	3.079293e+01	1.126559e+03
2.100000e-06	4.212612e-06	1.705771e-08	3.014004e+01	1.117578e+03
2.110000e-06	4.120001e-06	1.691829e-08	2.947743e+01	1.108216e+03
2.120000e-06	4.025777e-06	1.676327e-08	2.880328e+01	1.098462e+03
2.130000e-06	3.930014e-06	1.660688e-08	2.811813e+01	1.088310e+03
2.140000e-06	3.832908e-06	1.644456e-08	2.742336e+01	1.077752e+03
2.150000e-06	3.734406e-06	1.628907e-08	2.671860e+01	1.066781e+03
2.160000e-06	3.634756e-06	1.611089e-08	2.600564e+01	1.055385e+03
2.170000e-06	3.533802e-06	1.593990e-08	2.528334e+01	1.043545e+03
2.180000e-06	3.431238e-06	1.574612e-08	2.454953e+01	1.031234e+03
2.190000e-06	3.327313e-06	1.555270e-08	2.380597e+01	1.018421e+03
2.200000e-06	3.222215e-06	1.535209e-08	2.305402e+01	1.005068e+03
2.210000e-06	3.116044e-06	1.515010e-08	2.229440e+01	9.911349e+02
2.220000e-06	3.008869e-06	1.493092e-08	2.152760e+01	9.765822e+02
2.230000e-06	2.900789e-06	1.469292e-08	2.075431e+01	9.613701e+02
2.240000e-06	2.791695e-06	1.445331e-08	1.997378e+01	9.454601e+02
2.250000e-06	2.681475e-06	1.420485e-08	1.918518e+01	9.288143e+02
2.260000e-06	2.570218e-06	1.394348e-08	1.838918e+01	9.113933e+02
2.270000e-06	2.457925e-06	1.366226e-08	1.758575e+01	8.931555e+02
2.280000e-06	2.344608e-06	1.337351e-08	1.677500e+01	8.740544e+02
2.290000e-06	2.230371e-06	1.306807e-08	1.595767e+01	8.540377e+02
2.300000e-06	2.115341e-06	1.275102e-08	1.513466e+01	8.330458e+02
2.310000e-06	1.999575e-06	1.241769e-08	1.430638e+01	8.110120e+02
2.320000e-06	1.883054e-06	1.206942e-08	1.347271e+01	7.878612e+02
2.330000e-06	1.765696e-06	1.170106e-08	1.263305e+01	7.635104e+02
2.340000e-06	1.647519e-06	1.130542e-08	1.178753e+01	7.378688e+02
2.350000e-06	1.528633e-06	1.088997e-08	1.093693e+01	7.108397e+02
2.360000e-06	1.409208e-06	1.045892e-08	1.008248e+01	6.823236e+02
2.370000e-06	1.289331e-06	1.000863e-08	9.224794e+00	6.522244e+02
2.380000e-06	1.169080e-06	9.529455e-09	8.364430e+00	6.204582e+02
2.390000e-06	1.048549e-06	9.018959e-09	7.502065e+00	5.869652e+02
2.400000e-06	9.276944e-07	8.479338e-09	6.637388e+00	5.517233e+02
2.410000e-06	8.065341e-07	7.915495e-09	5.770521e+00	5.147612e+02
2.420000e-06	6.851511e-07	7.325017e-09	4.902060e+00	4.761689e+02
2.430000e-06	5.635672e-07	6.712452e-09	4.032162e+00	4.361016e+02
2.440000e-06	4.418207e-07	6.084023e-09	3.161101e+00	3.947762e+02
2.450000e-06	3.199256e-07	5.437393e-09	2.288976e+00	3.524565e+02
2.460000e-06	1.978832e-07	4.775420e-09	1.415798e+00	3.094303e+02
2.470000e-06	7.572747e-08	4.109111e-09	5.418084e-01	2.659779e+02
2.480000e-06	-4.645325e-08	3.447497e-09	-3.323597e-01	2.223386e+02
2.490000e-06	-1.686198e-07	2.785208e-09	-1.206426e+00	1.786787e+02
2.500000e-06	-2.907414e-07	2.117297e-09	-2.080171e+00	1.350685e+02
2.510000e-06	-4.127173e-07	1.447084e-09	-2.952874e+00	9.147286e+01
2.520000e-06	-5.345530e-07	7.753693e-10	-3.824574e+00	4.775798e+01
2.530000e-06	-6.562503e-07	1.006984e-10	-4.695283e+00	3.715974e+00
2.540000e-06	-7.778016e-07	-5.836398e-10	-5.564948e+00	-4.089613e+01
2.550000e-06	-8.991122e-07	-1.279491e-09	-6.432890e+00	-8.630826e+01
2.560000e-06	-1.020096e-06	-1.987585e-09	-7.298491e+00	-1.326875e+02
2.570000e-06	-1.140750e-06	-2.709460e-09	-8.161737e+00	-1.800950e+02
2.580000e-06	-1.261019e-06	-3.445010e-09	-9.022228e+00	-2.284569e+02
2.590000e-06	-1.380854e-06	-4.194887e-09	-9.879616e+00	-2.775544e+02
2.600000e-06	-1.500097e-06	-4.952606e-09	-1.073277e+01	-3.270348e+02
2.610000e-06	-1.618593e-06	-5.711566e-09	-1.158057e+01	-3.764426e+02
2.620000e-06	-1.736341e-06	-6.461241e-09	-1.242302e+01	-4.252645e+02
2.630000e-06	-1.853349e-06	-7.192731e-09	-1.326018e+01	-4.729812e+02
2.640000e-06	-1.969521e-06	-7.900728e-09	-1.409136e+01	-5.191190e+02
2.650000e-06	-2.084854e-06	-8.577835e-09	-1.491653e+01	-5.632913e+02
2.660000e-06	-2.199349e-06	-9.219852e-09	-1.573571e+01	-6.052263e+02
2.670000e-06	-2.312852e-06	-9.826499e-09	-1.654779e+01	-6.447771e+02
2.680000e-06	-2.425235e-06	-1.039710e-08	-1.735186e+01	-6.819144e+02
2.690000e-06	-2.536540e-06	-1.093077e-08	-1.814822e+01	-7.167061e+02
2.700000e-06	-2.646889e-06	-1.142932e-08	-1.893774e+01	-7.492885e+02
2.710000e-06	-2.756336e-06	-1.189814e-08	-1.972080e+01	-7.798342e+02
2.720000e-06	-2.864913e-06	-1.234044e-08	-2.049763e+01	-8.085249e+02
2.730000e-06	-2.972619e-06	-1.275462e-08	-2.126824e+01	-8.355294e+02
2.740000e-06	-3.079371e-06	-1.314414e-08	-2.203202e+01	-8.609921e+02
2.750000e-06	-3.185093e-06	-1.351253e-08	-2.278843e+01	-8.850301e+02
2.760000e-06	-3.289724e-06	-1.385853e-08	-2.353703e+01	-9.077365e+02
2.770000e-06	-3.393155e-06	-1.418436e-08	-2.427706e+01	-9.291890e+02
2.780000e-06	-3.495198e-06	-1.449425e-08	-2.500714e+01	-9.494574e+02
2.790000e-06	-3.595899e-06	-1.478866e-08	-2.572763e+01	-9.686109e+02
2.800000e-06	-3.695390e-06	-1.506740e-08	-2.643945e+01	-9.867212e+02
2.810000e-06	-3.793598e-06	-1.533037e-08	-2.714210e+01	-1.003862e+03
2.820000e-06	-3.890548e-06	-1.557830e-08	-2.783576e+01	-1.020108e+03
2.830000e-06	-3.986263e-06	-1.581489e-08	-2.852057e+01	-1.035527e+03
2.840000e-06	-4.080518e-06	-1.604157e-08	-2.919494e+01	-1.050181e+03
2.850000e-06	-4.173251e-06	-1.625777e-08	-2.985842e+01	-1.064122e+03
2.860000e-06	-4.264571e-06	-1.646289e-08	-3.051178e+01	-1.077391e+03
2.870000e-06	-4.354351e-06	-1.665730e-08	-3.115413e+01	-1.090021e+03
2.880000e-06	-4.442506e-06	-1.684283e-08	-3.178486e+01	-1.102042e+03
2.890000e-06	-4.529033e-06	-1.701807e-08	-3.240393e+01	-1.113481e+03
2.900000e-06	-4.613869e-06	-1.718245e-08	-3.301091e+01	-1.124362e+03
2.910000e-06	-4.697066e-06	-1.734019e-08	-3.360617e+01	-1.134712e+03
2.920000e-06	-4.778742e-06	-1.749036e-08	-3.419053e+01	-1.144556e+03
2.930000e-06	-4.858749e-06	-1.763230e-08	-3.476296e+01	-1.153916e+03
2.940000e-06	-4.936709e-06	-1.776629e-08	-3.532074e+01	-1.162810e+03
