# Temperatura_=_67.06
# Concentracion g/m^3_=_28200.0
# C_Vs_to_Am_M_A/Vsm_=_65563218390.804596
# pendiente_HvsI_1/m_=_3716.3
# ordenada_HvsI_A/m_=_1297.0
# frecuencia_Hz_=_302099.66266242997

Tiempo_(s)	Campo_(V.s)	Magnetizacion_(V.s)	Campo_(kA/m)	Magnetizacion_(A/m)
0.000000e+00	-6.388289e-06	-2.094140e-08	-4.557655e+01	-1.370070e+03
1.000000e-08	-6.384791e-06	-2.093728e-08	-4.555159e+01	-1.369667e+03
2.000000e-08	-6.379197e-06	-2.092759e-08	-4.551168e+01	-1.369109e+03
3.000000e-08	-6.371638e-06	-2.091619e-08	-4.545775e+01	-1.368391e+03
4.000000e-08	-6.361949e-06	-2.090067e-08	-4.538863e+01	-1.367507e+03
5.000000e-08	-6.349849e-06	-2.088356e-08	-4.530231e+01	-1.366453e+03
6.000000e-08	-6.335415e-06	-2.086428e-08	-4.519933e+01	-1.365232e+03
7.000000e-08	-6.318737e-06	-2.083946e-08	-4.508034e+01	-1.363852e+03
8.000000e-08	-6.299972e-06	-2.083779e-08	-4.494646e+01	-1.362326e+03
9.000000e-08	-6.279128e-06	-2.085961e-08	-4.479775e+01	-1.360674e+03
1.000000e-07	-6.255798e-06	-2.079870e-08	-4.463131e+01	-1.358920e+03
1.100000e-07	-6.229794e-06	-2.073512e-08	-4.444578e+01	-1.357087e+03
1.200000e-07	-6.201487e-06	-2.071624e-08	-4.424383e+01	-1.355191e+03
1.300000e-07	-6.171362e-06	-2.065652e-08	-4.402891e+01	-1.353241e+03
1.400000e-07	-6.139710e-06	-2.059140e-08	-4.380309e+01	-1.351231e+03
1.500000e-07	-6.106213e-06	-2.067186e-08	-4.356411e+01	-1.349138e+03
1.600000e-07	-6.070588e-06	-2.061158e-08	-4.330995e+01	-1.346925e+03
1.700000e-07	-6.033157e-06	-2.050375e-08	-4.304290e+01	-1.344547e+03
1.800000e-07	-5.993737e-06	-2.056586e-08	-4.276166e+01	-1.341953e+03
1.900000e-07	-5.951861e-06	-2.042270e-08	-4.246290e+01	-1.339099e+03
2.000000e-07	-5.907732e-06	-2.036522e-08	-4.214806e+01	-1.335955e+03
2.100000e-07	-5.861501e-06	-2.036349e-08	-4.181824e+01	-1.332506e+03
2.200000e-07	-5.812947e-06	-2.020981e-08	-4.147183e+01	-1.328761e+03
2.300000e-07	-5.761912e-06	-2.016923e-08	-4.110773e+01	-1.324742e+03
2.400000e-07	-5.708407e-06	-2.014217e-08	-4.072601e+01	-1.320487e+03
2.500000e-07	-5.652773e-06	-2.006931e-08	-4.032909e+01	-1.316030e+03
2.600000e-07	-5.594982e-06	-2.001310e-08	-3.991679e+01	-1.311401e+03
2.700000e-07	-5.534990e-06	-1.993789e-08	-3.948878e+01	-1.306613e+03
2.800000e-07	-5.473056e-06	-1.985121e-08	-3.904692e+01	-1.301662e+03
2.900000e-07	-5.409236e-06	-1.973491e-08	-3.859160e+01	-1.296524e+03
3.000000e-07	-5.343318e-06	-1.968820e-08	-3.812131e+01	-1.291164e+03
3.100000e-07	-5.275246e-06	-1.962607e-08	-3.763566e+01	-1.285543e+03
3.200000e-07	-5.205236e-06	-1.951321e-08	-3.713619e+01	-1.279627e+03
3.300000e-07	-5.133546e-06	-1.941286e-08	-3.662472e+01	-1.273394e+03
3.400000e-07	-5.059995e-06	-1.929043e-08	-3.609998e+01	-1.266842e+03
3.500000e-07	-4.984271e-06	-1.920232e-08	-3.555973e+01	-1.259981e+03
3.600000e-07	-4.906411e-06	-1.909657e-08	-3.500425e+01	-1.252835e+03
3.700000e-07	-4.826534e-06	-1.899279e-08	-3.443438e+01	-1.245428e+03
3.800000e-07	-4.744770e-06	-1.888296e-08	-3.385104e+01	-1.237781e+03
3.900000e-07	-4.661452e-06	-1.873434e-08	-3.325662e+01	-1.229897e+03
4.000000e-07	-4.576839e-06	-1.859883e-08	-3.265296e+01	-1.221765e+03
4.100000e-07	-4.490739e-06	-1.848060e-08	-3.203869e+01	-1.213355e+03
4.200000e-07	-4.403225e-06	-1.836385e-08	-3.141433e+01	-1.204627e+03
4.300000e-07	-4.314245e-06	-1.821616e-08	-3.077951e+01	-1.195538e+03
4.400000e-07	-4.223606e-06	-1.806684e-08	-3.013285e+01	-1.186048e+03
4.500000e-07	-4.131318e-06	-1.792010e-08	-2.947444e+01	-1.176131e+03
4.600000e-07	-4.037500e-06	-1.775593e-08	-2.880510e+01	-1.165775e+03
4.700000e-07	-3.942405e-06	-1.759622e-08	-2.812666e+01	-1.154981e+03
4.800000e-07	-3.845914e-06	-1.742945e-08	-2.743825e+01	-1.143759e+03
4.900000e-07	-3.747956e-06	-1.724579e-08	-2.673938e+01	-1.132119e+03
5.000000e-07	-3.648535e-06	-1.704663e-08	-2.603008e+01	-1.120062e+03
5.100000e-07	-3.547730e-06	-1.685009e-08	-2.531089e+01	-1.107578e+03
5.200000e-07	-3.445711e-06	-1.665562e-08	-2.458305e+01	-1.094641e+03
5.300000e-07	-3.342589e-06	-1.645395e-08	-2.384733e+01	-1.081209e+03
5.400000e-07	-3.238184e-06	-1.624535e-08	-2.310247e+01	-1.067234e+03
5.500000e-07	-3.132371e-06	-1.602448e-08	-2.234756e+01	-1.052664e+03
5.600000e-07	-3.025379e-06	-1.578966e-08	-2.158423e+01	-1.037452e+03
5.700000e-07	-2.917198e-06	-1.554078e-08	-2.081243e+01	-1.021559e+03
5.800000e-07	-2.807926e-06	-1.528541e-08	-2.003284e+01	-1.004953e+03
5.900000e-07	-2.697753e-06	-1.501866e-08	-1.924682e+01	-9.876058e+02
6.000000e-07	-2.586734e-06	-1.473657e-08	-1.845477e+01	-9.694891e+02
6.100000e-07	-2.474676e-06	-1.444349e-08	-1.765531e+01	-9.505666e+02
6.200000e-07	-2.361510e-06	-1.414294e-08	-1.684793e+01	-9.307893e+02
6.300000e-07	-2.247388e-06	-1.383136e-08	-1.603374e+01	-9.100939e+02
6.400000e-07	-2.132315e-06	-1.350178e-08	-1.521276e+01	-8.884033e+02
6.500000e-07	-2.016294e-06	-1.315355e-08	-1.438503e+01	-8.656308e+02
6.600000e-07	-1.899505e-06	-1.278304e-08	-1.355181e+01	-8.416848e+02
6.700000e-07	-1.782113e-06	-1.239361e-08	-1.271429e+01	-8.164728e+02
6.800000e-07	-1.664158e-06	-1.198798e-08	-1.187275e+01	-7.899040e+02
6.900000e-07	-1.545633e-06	-1.156083e-08	-1.102715e+01	-7.618895e+02
7.000000e-07	-1.426641e-06	-1.110989e-08	-1.017821e+01	-7.323398e+02
7.100000e-07	-1.307222e-06	-1.063132e-08	-9.326229e+00	-7.011643e+02
7.200000e-07	-1.187318e-06	-1.012677e-08	-8.470791e+00	-6.682726e+02
7.300000e-07	-1.066925e-06	-9.595273e-09	-7.611857e+00	-6.335809e+02
7.400000e-07	-9.460870e-07	-9.037946e-09	-6.749754e+00	-5.970246e+02
7.500000e-07	-8.248835e-07	-8.456010e-09	-5.885041e+00	-5.585753e+02
7.600000e-07	-7.033564e-07	-7.842869e-09	-5.018019e+00	-5.182598e+02
7.700000e-07	-5.816234e-07	-7.198737e-09	-4.149528e+00	-4.761757e+02
7.800000e-07	-4.597558e-07	-6.532397e-09	-3.280078e+00	-4.324997e+02
7.900000e-07	-3.377528e-07	-5.848171e-09	-2.409660e+00	-3.874819e+02
8.000000e-07	-2.155503e-07	-5.146613e-09	-1.537820e+00	-3.414268e+02
8.100000e-07	-9.323252e-08	-4.436200e-09	-6.651572e-01	-2.946591e+02
8.200000e-07	2.904702e-08	-3.721497e-09	2.072328e-01	-2.474810e+02
8.300000e-07	1.513455e-07	-3.002282e-09	1.079758e+00	-2.001277e+02
8.400000e-07	2.736357e-07	-2.280655e-09	1.952224e+00	-1.527294e+02
8.500000e-07	3.958563e-07	-1.557601e-09	2.824193e+00	-1.052898e+02
8.600000e-07	5.179636e-07	-8.290766e-10	3.695354e+00	-5.768652e+01
8.700000e-07	6.399635e-07	-9.291212e-11	4.565750e+00	-9.696121e+00
8.800000e-07	7.618434e-07	6.514049e-10	5.435288e+00	3.895924e+01
8.900000e-07	8.835074e-07	1.405908e-09	6.303287e+00	8.855040e+01
9.000000e-07	1.004942e-06	2.175739e-09	7.169645e+00	1.392760e+02
9.100000e-07	1.126023e-06	2.964587e-09	8.033487e+00	1.912051e+02
9.200000e-07	1.246558e-06	3.768496e-09	8.893428e+00	2.442394e+02
9.300000e-07	1.366513e-06	4.585163e-09	9.749234e+00	2.981010e+02
9.400000e-07	1.485935e-06	5.412240e-09	1.060124e+01	3.523496e+02
9.500000e-07	1.604826e-06	6.239882e-09	1.144946e+01	4.064254e+02
9.600000e-07	1.723215e-06	7.054873e-09	1.229409e+01	4.597101e+02
9.700000e-07	1.841019e-06	7.845292e-09	1.313455e+01	5.115949e+02
9.800000e-07	1.958111e-06	8.602712e-09	1.396993e+01	5.615441e+02
9.900000e-07	2.074418e-06	9.320652e-09	1.479971e+01	6.091439e+02
1.000000e-06	2.189853e-06	9.995344e-09	1.562326e+01	6.541294e+02
1.010000e-06	2.304344e-06	1.062792e-08	1.644009e+01	6.963882e+02
1.020000e-06	2.417940e-06	1.122328e-08	1.725052e+01	7.359425e+02
1.030000e-06	2.530524e-06	1.178645e-08	1.805375e+01	7.729165e+02
1.040000e-06	2.641993e-06	1.231739e-08	1.884901e+01	8.074961e+02
1.050000e-06	2.752539e-06	1.281094e-08	1.963769e+01	8.398913e+02
1.060000e-06	2.862206e-06	1.327275e-08	2.042010e+01	8.703049e+02
1.070000e-06	2.970973e-06	1.370528e-08	2.119608e+01	8.989142e+02
1.080000e-06	3.078788e-06	1.411146e-08	2.196528e+01	9.258643e+02
1.090000e-06	3.185446e-06	1.449533e-08	2.272622e+01	9.512716e+02
1.100000e-06	3.290906e-06	1.486075e-08	2.347861e+01	9.752330e+02
1.110000e-06	3.395137e-06	1.520678e-08	2.422223e+01	9.978371e+02
1.120000e-06	3.498046e-06	1.553249e-08	2.495643e+01	1.019172e+03
1.130000e-06	3.599792e-06	1.583750e-08	2.568232e+01	1.039329e+03
1.140000e-06	3.700420e-06	1.612485e-08	2.640024e+01	1.058403e+03
1.150000e-06	3.799710e-06	1.640041e-08	2.710862e+01	1.076485e+03
1.160000e-06	3.897591e-06	1.666193e-08	2.780694e+01	1.093657e+03
1.170000e-06	3.993992e-06	1.691040e-08	2.849470e+01	1.109989e+03
1.180000e-06	4.088913e-06	1.714553e-08	2.917190e+01	1.125535e+03
1.190000e-06	4.182513e-06	1.736770e-08	2.983968e+01	1.140334e+03
1.200000e-06	4.274792e-06	1.757841e-08	3.049804e+01	1.154418e+03
1.210000e-06	4.365592e-06	1.777787e-08	3.114583e+01	1.167813e+03
1.220000e-06	4.454761e-06	1.796800e-08	3.178201e+01	1.180548e+03
1.230000e-06	4.542214e-06	1.815203e-08	3.240593e+01	1.192656e+03
1.240000e-06	4.628009e-06	1.832799e-08	3.301802e+01	1.204176e+03
1.250000e-06	4.712316e-06	1.849717e-08	3.361950e+01	1.215146e+03
1.260000e-06	4.795038e-06	1.865809e-08	3.420968e+01	1.225604e+03
1.270000e-06	4.875986e-06	1.881123e-08	3.478719e+01	1.235579e+03
1.280000e-06	4.955123e-06	1.895660e-08	3.535178e+01	1.245091e+03
1.290000e-06	5.032428e-06	1.909407e-08	3.590331e+01	1.254147e+03
1.300000e-06	5.107817e-06	1.922496e-08	3.644116e+01	1.262749e+03
1.310000e-06	5.181176e-06	1.935017e-08	3.696453e+01	1.270894e+03
1.320000e-06	5.252511e-06	1.946787e-08	3.747346e+01	1.278581e+03
1.330000e-06	5.321970e-06	1.957768e-08	3.796901e+01	1.285819e+03
1.340000e-06	5.389615e-06	1.968019e-08	3.845161e+01	1.292629e+03
1.350000e-06	5.455346e-06	1.977716e-08	3.892057e+01	1.299041e+03
1.360000e-06	5.518994e-06	1.987004e-08	3.937466e+01	1.305096e+03
1.370000e-06	5.580680e-06	1.995836e-08	3.981475e+01	1.310838e+03
1.380000e-06	5.640608e-06	2.004150e-08	4.024230e+01	1.316306e+03
1.390000e-06	5.698636e-06	2.011960e-08	4.065630e+01	1.321533e+03
1.400000e-06	5.754491e-06	2.019415e-08	4.105478e+01	1.326540e+03
1.410000e-06	5.808195e-06	2.026627e-08	4.143793e+01	1.331333e+03
1.420000e-06	5.859708e-06	2.033635e-08	4.180544e+01	1.335909e+03
1.430000e-06	5.908777e-06	2.040295e-08	4.215553e+01	1.340258e+03
1.440000e-06	5.955594e-06	2.046595e-08	4.248954e+01	1.344366e+03
1.450000e-06	6.000460e-06	2.052441e-08	4.280963e+01	1.348223e+03
1.460000e-06	6.043294e-06	2.057826e-08	4.311522e+01	1.351823e+03
1.470000e-06	6.083840e-06	2.062759e-08	4.340449e+01	1.355166e+03
1.480000e-06	6.122142e-06	2.067292e-08	4.367775e+01	1.358257e+03
1.490000e-06	6.158422e-06	2.071427e-08	4.393659e+01	1.361106e+03
1.500000e-06	6.192588e-06	2.075274e-08	4.418034e+01	1.363722e+03
1.510000e-06	6.224483e-06	2.078972e-08	4.440789e+01	1.366112e+03
1.520000e-06	6.254232e-06	2.082342e-08	4.462013e+01	1.368283e+03
1.530000e-06	6.281927e-06	2.085237e-08	4.481772e+01	1.370238e+03
1.540000e-06	6.307281e-06	2.087698e-08	4.499860e+01	1.371978e+03
1.550000e-06	6.330192e-06	2.090016e-08	4.516206e+01	1.373505e+03
1.560000e-06	6.350953e-06	2.092078e-08	4.531018e+01	1.374823e+03
1.570000e-06	6.369600e-06	2.093741e-08	4.544321e+01	1.375936e+03
1.580000e-06	6.385880e-06	2.095089e-08	4.555936e+01	1.376853e+03
1.590000e-06	6.399678e-06	2.096165e-08	4.565780e+01	1.377586e+03
1.600000e-06	6.411027e-06	2.096923e-08	4.573877e+01	1.378145e+03
1.610000e-06	6.419802e-06	2.097558e-08	4.580137e+01	1.378543e+03
1.620000e-06	6.426192e-06	2.098262e-08	4.584696e+01	1.378788e+03
1.630000e-06	6.430514e-06	2.098765e-08	4.587780e+01	1.378888e+03
1.640000e-06	6.432589e-06	2.098981e-08	4.589260e+01	1.378845e+03
1.650000e-06	6.432331e-06	2.098883e-08	4.589076e+01	1.378660e+03
1.660000e-06	6.429893e-06	2.098051e-08	4.587337e+01	1.378329e+03
1.670000e-06	6.425438e-06	2.097108e-08	4.584159e+01	1.377848e+03
1.680000e-06	6.418774e-06	2.095918e-08	4.579404e+01	1.377209e+03
1.690000e-06	6.409879e-06	2.094674e-08	4.573058e+01	1.376406e+03
1.700000e-06	6.399003e-06	2.093667e-08	4.565299e+01	1.375436e+03
1.710000e-06	6.385985e-06	2.092611e-08	4.556011e+01	1.374296e+03
1.720000e-06	6.370687e-06	2.091873e-08	4.545097e+01	1.372992e+03
1.730000e-06	6.353373e-06	2.086770e-08	4.532744e+01	1.371534e+03
1.740000e-06	6.333913e-06	2.078840e-08	4.518861e+01	1.369941e+03
1.750000e-06	6.311448e-06	2.079734e-08	4.502833e+01	1.368233e+03
1.760000e-06	6.285917e-06	2.079807e-08	4.484618e+01	1.366434e+03
1.770000e-06	6.258215e-06	2.076485e-08	4.464855e+01	1.364566e+03
1.780000e-06	6.228685e-06	2.080912e-08	4.443787e+01	1.362642e+03
1.790000e-06	6.197494e-06	2.074510e-08	4.421534e+01	1.360661e+03
1.800000e-06	6.164887e-06	2.062819e-08	4.398271e+01	1.358611e+03
1.810000e-06	6.130239e-06	2.064454e-08	4.373552e+01	1.356462e+03
1.820000e-06	6.093539e-06	2.054526e-08	4.347369e+01	1.354170e+03
1.830000e-06	6.054831e-06	2.058188e-08	4.319753e+01	1.351688e+03
1.840000e-06	6.013691e-06	2.065231e-08	4.290402e+01	1.348967e+03
1.850000e-06	5.970473e-06	2.046725e-08	4.259568e+01	1.345969e+03
1.860000e-06	5.925236e-06	2.049445e-08	4.227295e+01	1.342671e+03
1.870000e-06	5.877858e-06	2.045923e-08	4.193493e+01	1.339070e+03
1.880000e-06	5.828345e-06	2.034211e-08	4.158169e+01	1.335182e+03
1.890000e-06	5.776297e-06	2.034675e-08	4.121036e+01	1.331039e+03
1.900000e-06	5.721694e-06	2.019431e-08	4.082080e+01	1.326676e+03
1.910000e-06	5.664894e-06	2.015734e-08	4.041557e+01	1.322128e+03
1.920000e-06	5.606093e-06	2.011904e-08	3.999606e+01	1.317417e+03
1.930000e-06	5.545418e-06	2.003562e-08	3.956318e+01	1.312548e+03
1.940000e-06	5.482663e-06	1.999498e-08	3.911546e+01	1.307505e+03
1.950000e-06	5.417831e-06	1.983282e-08	3.865292e+01	1.302259e+03
1.960000e-06	5.350960e-06	1.979554e-08	3.817584e+01	1.296771e+03
1.970000e-06	5.282041e-06	1.967773e-08	3.768414e+01	1.291004e+03
1.980000e-06	5.211073e-06	1.957914e-08	3.717783e+01	1.284929e+03
1.990000e-06	5.138076e-06	1.954013e-08	3.665704e+01	1.278535e+03
2.000000e-06	5.063320e-06	1.940358e-08	3.612370e+01	1.271824e+03
2.010000e-06	4.986486e-06	1.931604e-08	3.557554e+01	1.264815e+03
2.020000e-06	4.907566e-06	1.916320e-08	3.501249e+01	1.257534e+03
2.030000e-06	4.826929e-06	1.908404e-08	3.443719e+01	1.250003e+03
2.040000e-06	4.744602e-06	1.899192e-08	3.384984e+01	1.242236e+03
2.050000e-06	4.660809e-06	1.884952e-08	3.325203e+01	1.234228e+03
2.060000e-06	4.575423e-06	1.872446e-08	3.264285e+01	1.225960e+03
2.070000e-06	4.488259e-06	1.856934e-08	3.202099e+01	1.217394e+03
2.080000e-06	4.399480e-06	1.844785e-08	3.138761e+01	1.208489e+03
2.090000e-06	4.309196e-06	1.829728e-08	3.074349e+01	1.199202e+03
2.100000e-06	4.217503e-06	1.817348e-08	3.008932e+01	1.189499e+03
2.110000e-06	4.124433e-06	1.801811e-08	2.942532e+01	1.179361e+03
2.120000e-06	4.029876e-06	1.784366e-08	2.875071e+01	1.168784e+03
2.130000e-06	3.933768e-06	1.767693e-08	2.806504e+01	1.157772e+03
2.140000e-06	3.836241e-06	1.750567e-08	2.736924e+01	1.146338e+03
2.150000e-06	3.737480e-06	1.734119e-08	2.666464e+01	1.134488e+03
2.160000e-06	3.637463e-06	1.715024e-08	2.595108e+01	1.122218e+03
2.170000e-06	3.536011e-06	1.696379e-08	2.522728e+01	1.109510e+03
2.180000e-06	3.433153e-06	1.675116e-08	2.449346e+01	1.096329e+03
2.190000e-06	3.328920e-06	1.653983e-08	2.374981e+01	1.082630e+03
2.200000e-06	3.223508e-06	1.632401e-08	2.299776e+01	1.068361e+03
2.210000e-06	3.117049e-06	1.610592e-08	2.223824e+01	1.053474e+03
2.220000e-06	3.009488e-06	1.587011e-08	2.147086e+01	1.037924e+03
2.230000e-06	2.900897e-06	1.561881e-08	2.069613e+01	1.021676e+03
2.240000e-06	2.791282e-06	1.536701e-08	1.991409e+01	1.004701e+03
2.250000e-06	2.680619e-06	1.510433e-08	1.912458e+01	9.869711e+02
2.260000e-06	2.568864e-06	1.482711e-08	1.832728e+01	9.684547e+02
2.270000e-06	2.456059e-06	1.452784e-08	1.752249e+01	9.491098e+02
2.280000e-06	2.342346e-06	1.421858e-08	1.671121e+01	9.288803e+02
2.290000e-06	2.227731e-06	1.389176e-08	1.589350e+01	9.076957e+02
2.300000e-06	2.112262e-06	1.355380e-08	1.506970e+01	8.854735e+02
2.310000e-06	1.996001e-06	1.320002e-08	1.424025e+01	8.621238e+02
2.320000e-06	1.878856e-06	1.282999e-08	1.340449e+01	8.375543e+02
2.330000e-06	1.760917e-06	1.243623e-08	1.256307e+01	8.116731e+02
2.340000e-06	1.642358e-06	1.201721e-08	1.171723e+01	7.843906e+02
2.350000e-06	1.523253e-06	1.157911e-08	1.086748e+01	7.556177e+02
2.360000e-06	1.403616e-06	1.112143e-08	1.001394e+01	7.252646e+02
2.370000e-06	1.283536e-06	1.063988e-08	9.157247e+00	6.932401e+02
2.380000e-06	1.163086e-06	1.012497e-08	8.297912e+00	6.594560e+02
2.390000e-06	1.042234e-06	9.578414e-09	7.435707e+00	6.238363e+02
2.400000e-06	9.210076e-07	9.003184e-09	6.570828e+00	5.863321e+02
2.410000e-06	7.994684e-07	8.400821e-09	5.703720e+00	5.469402e+02
2.420000e-06	6.776905e-07	7.772381e-09	4.834908e+00	5.057214e+02
2.430000e-06	5.557579e-07	7.119879e-09	3.964994e+00	4.628124e+02
2.440000e-06	4.336686e-07	6.443149e-09	3.093961e+00	4.184282e+02
2.450000e-06	3.114420e-07	5.743256e-09	2.221949e+00	3.728495e+02
2.460000e-06	1.891211e-07	5.029577e-09	1.349264e+00	3.263959e+02
2.470000e-06	6.670116e-08	4.310742e-09	4.758721e-01	2.793864e+02
2.480000e-06	-5.580040e-08	3.591624e-09	-3.981019e-01	2.320952e+02
2.490000e-06	-1.782849e-07	2.870844e-09	-1.271954e+00	1.847087e+02
2.500000e-06	-3.006671e-07	2.147136e-09	-2.145077e+00	1.372955e+02
2.510000e-06	-4.229351e-07	1.421661e-09	-3.017384e+00	8.979457e+01
2.520000e-06	-5.450891e-07	6.911178e-10	-3.888879e+00	4.202840e+01
2.530000e-06	-6.670883e-07	-4.724502e-11	-4.759268e+00	-6.260624e+00
2.540000e-06	-7.888769e-07	-7.988734e-10	-5.628156e+00	-5.535503e+01
2.550000e-06	-9.104814e-07	-1.565307e-09	-6.495730e+00	-1.054975e+02
2.560000e-06	-1.031823e-06	-2.349042e-09	-7.361428e+00	-1.568280e+02
2.570000e-06	-1.152759e-06	-3.149191e-09	-8.224231e+00	-2.093353e+02
2.580000e-06	-1.273216e-06	-3.961969e-09	-9.083619e+00	-2.628308e+02
2.590000e-06	-1.393172e-06	-4.786573e-09	-9.939432e+00	-3.169517e+02
2.600000e-06	-1.512614e-06	-5.617471e-09	-1.079158e+01	-3.711911e+02
2.610000e-06	-1.631461e-06	-6.443621e-09	-1.163948e+01	-4.249517e+02
2.620000e-06	-1.749641e-06	-7.252463e-09	-1.248262e+01	-4.776113e+02
2.630000e-06	-1.867057e-06	-8.036122e-09	-1.332031e+01	-5.285905e+02
2.640000e-06	-1.983601e-06	-8.785250e-09	-1.415178e+01	-5.774097e+02
2.650000e-06	-2.099286e-06	-9.495874e-09	-1.497713e+01	-6.237277e+02
2.660000e-06	-2.214072e-06	-1.016565e-08	-1.579605e+01	-6.673569e+02
2.670000e-06	-2.327804e-06	-1.079284e-08	-1.660746e+01	-7.082554e+02
2.680000e-06	-2.440511e-06	-1.138072e-08	-1.741156e+01	-7.465012e+02
2.690000e-06	-2.552234e-06	-1.193120e-08	-1.820864e+01	-7.822544e+02
2.700000e-06	-2.662891e-06	-1.244498e-08	-1.899810e+01	-8.157174e+02
2.710000e-06	-2.772530e-06	-1.292603e-08	-1.978031e+01	-8.470997e+02
2.720000e-06	-2.881274e-06	-1.337854e-08	-2.055614e+01	-8.765930e+02
2.730000e-06	-2.989106e-06	-1.380457e-08	-2.132545e+01	-9.043585e+02
2.740000e-06	-3.096041e-06	-1.420622e-08	-2.208836e+01	-9.305261e+02
2.750000e-06	-3.201980e-06	-1.458332e-08	-2.284417e+01	-9.552010e+02
2.760000e-06	-3.306768e-06	-1.493681e-08	-2.359178e+01	-9.784749e+02
2.770000e-06	-3.410379e-06	-1.526997e-08	-2.433098e+01	-1.000435e+03
2.780000e-06	-3.512703e-06	-1.558580e-08	-2.506099e+01	-1.021172e+03
2.790000e-06	-3.613708e-06	-1.588589e-08	-2.578160e+01	-1.040778e+03
2.800000e-06	-3.713388e-06	-1.617161e-08	-2.649276e+01	-1.059346e+03
2.810000e-06	-3.811793e-06	-1.644396e-08	-2.719482e+01	-1.076966e+03
2.820000e-06	-3.908973e-06	-1.670104e-08	-2.788814e+01	-1.093712e+03
2.830000e-06	-4.004835e-06	-1.694477e-08	-2.857206e+01	-1.109647e+03
2.840000e-06	-4.099262e-06	-1.717784e-08	-2.924574e+01	-1.124817e+03
2.850000e-06	-4.192113e-06	-1.740137e-08	-2.990817e+01	-1.139257e+03
2.860000e-06	-4.283450e-06	-1.761649e-08	-3.055981e+01	-1.152995e+03
2.870000e-06	-4.373339e-06	-1.781974e-08	-3.120111e+01	-1.166058e+03
2.880000e-06	-4.461603e-06	-1.800944e-08	-3.183082e+01	-1.178478e+03
2.890000e-06	-4.548200e-06	-1.818686e-08	-3.244864e+01	-1.190288e+03
2.900000e-06	-4.633134e-06	-1.835638e-08	-3.305459e+01	-1.201530e+03
2.910000e-06	-4.716497e-06	-1.851998e-08	-3.364933e+01	-1.212242e+03
2.920000e-06	-4.798264e-06	-1.867607e-08	-3.423269e+01	-1.222457e+03
2.930000e-06	-4.878221e-06	-1.882554e-08	-3.480313e+01	-1.232201e+03
2.940000e-06	-4.956209e-06	-1.896785e-08	-3.535953e+01	-1.241487e+03
