# Temperatura_=_71.59
# Concentracion g/m^3_=_28200.0
# C_Vs_to_Am_M_A/Vsm_=_65563218390.804596
# pendiente_HvsI_1/m_=_3716.3
# ordenada_HvsI_A/m_=_1297.0
# frecuencia_Hz_=_302099.76560562244

Tiempo_(s)	Campo_(V.s)	Magnetizacion_(V.s)	Campo_(kA/m)	Magnetizacion_(A/m)
0.000000e+00	-6.387185e-06	-2.159708e-08	-4.557430e+01	-1.411878e+03
1.000000e-08	-6.383410e-06	-2.159120e-08	-4.554736e+01	-1.411402e+03
2.000000e-08	-6.377594e-06	-2.158111e-08	-4.550587e+01	-1.410774e+03
3.000000e-08	-6.369862e-06	-2.157253e-08	-4.545069e+01	-1.409998e+03
4.000000e-08	-6.360044e-06	-2.155760e-08	-4.538064e+01	-1.409069e+03
5.000000e-08	-6.347816e-06	-2.153884e-08	-4.529339e+01	-1.407981e+03
6.000000e-08	-6.333223e-06	-2.151416e-08	-4.518927e+01	-1.406724e+03
7.000000e-08	-6.316323e-06	-2.147710e-08	-4.506868e+01	-1.405292e+03
8.000000e-08	-6.297319e-06	-2.148143e-08	-4.493308e+01	-1.403687e+03
9.000000e-08	-6.276191e-06	-2.154442e-08	-4.478233e+01	-1.401927e+03
1.000000e-07	-6.252563e-06	-2.145446e-08	-4.461374e+01	-1.400042e+03
1.100000e-07	-6.226250e-06	-2.136732e-08	-4.442599e+01	-1.398073e+03
1.200000e-07	-6.197680e-06	-2.137802e-08	-4.422213e+01	-1.396064e+03
1.300000e-07	-6.167378e-06	-2.130457e-08	-4.400592e+01	-1.394053e+03
1.400000e-07	-6.135516e-06	-2.118146e-08	-4.377857e+01	-1.392060e+03
1.500000e-07	-6.101847e-06	-2.137210e-08	-4.353833e+01	-1.390081e+03
1.600000e-07	-6.066125e-06	-2.128484e-08	-4.328345e+01	-1.388081e+03
1.700000e-07	-6.028571e-06	-2.108292e-08	-4.301549e+01	-1.385999e+03
1.800000e-07	-5.988950e-06	-2.126394e-08	-4.273278e+01	-1.383757e+03
1.900000e-07	-5.946884e-06	-2.105255e-08	-4.243263e+01	-1.381271e+03
2.000000e-07	-5.902620e-06	-2.100820e-08	-4.211680e+01	-1.378469e+03
2.100000e-07	-5.856229e-06	-2.105932e-08	-4.178578e+01	-1.375300e+03
2.200000e-07	-5.807460e-06	-2.082939e-08	-4.143781e+01	-1.371743e+03
2.300000e-07	-5.756191e-06	-2.081046e-08	-4.107199e+01	-1.367809e+03
2.400000e-07	-5.702451e-06	-2.077276e-08	-4.068853e+01	-1.363535e+03
2.500000e-07	-5.646607e-06	-2.069275e-08	-4.029008e+01	-1.358972e+03
2.600000e-07	-5.588631e-06	-2.066260e-08	-3.987640e+01	-1.354172e+03
2.700000e-07	-5.528539e-06	-2.056326e-08	-3.944763e+01	-1.349171e+03
2.800000e-07	-5.466529e-06	-2.047807e-08	-3.900517e+01	-1.343987e+03
2.900000e-07	-5.402483e-06	-2.033518e-08	-3.854818e+01	-1.338609e+03
3.000000e-07	-5.336258e-06	-2.029760e-08	-3.807565e+01	-1.333011e+03
3.100000e-07	-5.267972e-06	-2.024310e-08	-3.758841e+01	-1.327153e+03
3.200000e-07	-5.197785e-06	-2.013256e-08	-3.708761e+01	-1.320994e+03
3.300000e-07	-5.125796e-06	-2.003579e-08	-3.657395e+01	-1.314509e+03
3.400000e-07	-5.051944e-06	-1.987666e-08	-3.604699e+01	-1.307689e+03
3.500000e-07	-4.975912e-06	-1.979944e-08	-3.550448e+01	-1.300542e+03
3.600000e-07	-4.897761e-06	-1.968681e-08	-3.494686e+01	-1.293094e+03
3.700000e-07	-4.817684e-06	-1.958054e-08	-3.437549e+01	-1.285374e+03
3.800000e-07	-4.735786e-06	-1.948055e-08	-3.379112e+01	-1.277405e+03
3.900000e-07	-4.652307e-06	-1.931735e-08	-3.319547e+01	-1.269195e+03
4.000000e-07	-4.567415e-06	-1.917041e-08	-3.258975e+01	-1.260730e+03
4.100000e-07	-4.481112e-06	-1.904400e-08	-3.197395e+01	-1.251980e+03
4.200000e-07	-4.393402e-06	-1.892987e-08	-3.134812e+01	-1.242899e+03
4.300000e-07	-4.304193e-06	-1.877685e-08	-3.071159e+01	-1.233440e+03
4.400000e-07	-4.213385e-06	-1.861895e-08	-3.006365e+01	-1.223560e+03
4.500000e-07	-4.120965e-06	-1.846543e-08	-2.940421e+01	-1.213234e+03
4.600000e-07	-4.027077e-06	-1.828537e-08	-2.873429e+01	-1.202454e+03
4.700000e-07	-3.931857e-06	-1.812404e-08	-2.805486e+01	-1.191228e+03
4.800000e-07	-3.835192e-06	-1.795836e-08	-2.736513e+01	-1.179574e+03
4.900000e-07	-3.737087e-06	-1.777345e-08	-2.666513e+01	-1.167506e+03
5.000000e-07	-3.637556e-06	-1.756547e-08	-2.595495e+01	-1.155028e+03
5.100000e-07	-3.536632e-06	-1.736011e-08	-2.523483e+01	-1.142126e+03
5.200000e-07	-3.434516e-06	-1.716208e-08	-2.450621e+01	-1.128764e+03
5.300000e-07	-3.331269e-06	-1.695165e-08	-2.376951e+01	-1.114892e+03
5.400000e-07	-3.226709e-06	-1.673541e-08	-2.302345e+01	-1.100448e+03
5.500000e-07	-3.120884e-06	-1.650290e-08	-2.226836e+01	-1.085373e+03
5.600000e-07	-3.013861e-06	-1.625779e-08	-2.150472e+01	-1.069612e+03
5.700000e-07	-2.905545e-06	-1.600046e-08	-2.073185e+01	-1.053128e+03
5.800000e-07	-2.796176e-06	-1.574030e-08	-1.995147e+01	-1.035894e+03
5.900000e-07	-2.685927e-06	-1.546863e-08	-1.916482e+01	-1.017890e+03
6.000000e-07	-2.574807e-06	-1.517758e-08	-1.837194e+01	-9.990965e+02
6.100000e-07	-2.462635e-06	-1.487317e-08	-1.757157e+01	-9.794848e+02
6.200000e-07	-2.349385e-06	-1.455852e-08	-1.676350e+01	-9.590089e+02
6.300000e-07	-2.235207e-06	-1.423521e-08	-1.594881e+01	-9.376034e+02
6.400000e-07	-2.120076e-06	-1.389502e-08	-1.512732e+01	-9.151853e+02
6.500000e-07	-2.004045e-06	-1.353666e-08	-1.429940e+01	-8.916588e+02
6.600000e-07	-1.887233e-06	-1.315093e-08	-1.346592e+01	-8.669226e+02
6.700000e-07	-1.769723e-06	-1.274546e-08	-1.262746e+01	-8.408757e+02
6.800000e-07	-1.651628e-06	-1.232877e-08	-1.178481e+01	-8.134212e+02
6.900000e-07	-1.533057e-06	-1.189202e-08	-1.093878e+01	-7.844663e+02
7.000000e-07	-1.414002e-06	-1.142872e-08	-1.008929e+01	-7.539198e+02
7.100000e-07	-1.294463e-06	-1.093354e-08	-9.236348e+00	-7.216894e+02
7.200000e-07	-1.174467e-06	-1.041129e-08	-8.380140e+00	-6.876825e+02
7.300000e-07	-1.053985e-06	-9.858765e-09	-7.520466e+00	-6.518116e+02
7.400000e-07	-9.330580e-07	-9.280387e-09	-6.657622e+00	-6.140073e+02
7.500000e-07	-8.118083e-07	-8.678517e-09	-5.792473e+00	-5.742365e+02
7.600000e-07	-6.903455e-07	-8.046149e-09	-4.925803e+00	-5.325231e+02
7.700000e-07	-5.687126e-07	-7.380737e-09	-4.057919e+00	-4.889660e+02
7.800000e-07	-4.469056e-07	-6.691047e-09	-3.188793e+00	-4.437469e+02
7.900000e-07	-3.249844e-07	-5.982150e-09	-2.318852e+00	-3.971260e+02
8.000000e-07	-2.029429e-07	-5.253060e-09	-1.448053e+00	-3.494195e+02
8.100000e-07	-8.073468e-08	-4.515526e-09	-5.760639e-01	-3.009634e+02
8.200000e-07	4.153802e-08	-3.774581e-09	2.963851e-01	-2.520672e+02
8.300000e-07	1.637995e-07	-3.031251e-09	1.168754e+00	-2.029663e+02
8.400000e-07	2.860306e-07	-2.283805e-09	2.040906e+00	-1.537836e+02
8.500000e-07	4.081845e-07	-1.535242e-09	2.912507e+00	-1.045083e+02
8.600000e-07	5.302492e-07	-7.830710e-10	3.783472e+00	-5.500084e+01
8.700000e-07	6.522131e-07	-2.166772e-11	4.653717e+00	-5.022127e+00
8.800000e-07	7.740010e-07	7.537783e-10	5.522707e+00	4.571314e+01
8.900000e-07	8.955784e-07	1.543933e-09	6.390195e+00	9.747026e+01
9.000000e-07	1.016895e-06	2.347758e-09	7.255822e+00	1.504263e+02
9.100000e-07	1.137844e-06	3.169620e-09	8.118826e+00	2.046130e+02
9.200000e-07	1.258325e-06	4.006884e-09	8.978494e+00	2.598820e+02
9.300000e-07	1.378287e-06	4.856878e-09	9.834455e+00	3.158994e+02
9.400000e-07	1.497694e-06	5.713463e-09	1.068645e+01	3.721706e+02
9.500000e-07	1.616503e-06	6.566571e-09	1.153419e+01	4.280912e+02
9.600000e-07	1.734794e-06	7.402233e-09	1.237822e+01	4.830140e+02
9.700000e-07	1.852557e-06	8.212239e-09	1.321850e+01	5.363207e+02
9.800000e-07	1.969662e-06	8.987297e-09	1.405407e+01	5.874851e+02
9.900000e-07	2.085953e-06	9.718794e-09	1.488384e+01	6.361185e+02
1.000000e-06	2.201269e-06	1.040766e-08	1.570665e+01	6.819903e+02
1.010000e-06	2.315586e-06	1.105495e-08	1.652233e+01	7.250252e+02
1.020000e-06	2.428975e-06	1.166410e-08	1.733140e+01	7.652790e+02
1.030000e-06	2.541366e-06	1.223589e-08	1.813333e+01	8.029007e+02
1.040000e-06	2.652722e-06	1.277603e-08	1.892789e+01	8.380912e+02
1.050000e-06	2.763172e-06	1.327925e-08	1.971598e+01	8.710656e+02
1.060000e-06	2.872770e-06	1.374873e-08	2.049799e+01	9.020252e+02
1.070000e-06	2.981475e-06	1.418712e-08	2.127363e+01	9.311425e+02
1.080000e-06	3.089161e-06	1.459844e-08	2.204200e+01	9.585585e+02
1.090000e-06	3.195685e-06	1.498909e-08	2.280208e+01	9.843888e+02
1.100000e-06	3.300991e-06	1.536051e-08	2.355347e+01	1.008734e+03
1.110000e-06	3.405106e-06	1.571163e-08	2.429636e+01	1.031689e+03
1.120000e-06	3.507966e-06	1.604261e-08	2.503029e+01	1.053352e+03
1.130000e-06	3.609622e-06	1.635477e-08	2.575564e+01	1.073823e+03
1.140000e-06	3.710133e-06	1.664882e-08	2.647281e+01	1.093201e+03
1.150000e-06	3.809383e-06	1.692862e-08	2.718098e+01	1.111583e+03
1.160000e-06	3.907172e-06	1.719263e-08	2.787873e+01	1.129049e+03
1.170000e-06	4.003335e-06	1.744389e-08	2.856488e+01	1.145668e+03
1.180000e-06	4.098059e-06	1.768173e-08	2.924076e+01	1.161490e+03
1.190000e-06	4.191536e-06	1.790775e-08	2.990775e+01	1.176553e+03
1.200000e-06	4.283757e-06	1.812294e-08	3.056577e+01	1.190890e+03
1.210000e-06	4.374514e-06	1.832852e-08	3.121335e+01	1.204529e+03
1.220000e-06	4.463500e-06	1.852445e-08	3.184829e+01	1.217502e+03
1.230000e-06	4.550732e-06	1.871180e-08	3.247071e+01	1.229848e+03
1.240000e-06	4.636424e-06	1.888998e-08	3.308214e+01	1.241606e+03
1.250000e-06	4.720662e-06	1.906163e-08	3.368321e+01	1.252816e+03
1.260000e-06	4.803228e-06	1.922526e-08	3.427234e+01	1.263514e+03
1.270000e-06	4.883940e-06	1.937969e-08	3.484824e+01	1.273725e+03
1.280000e-06	4.962837e-06	1.952690e-08	3.541119e+01	1.283465e+03
1.290000e-06	5.039913e-06	1.966714e-08	3.596115e+01	1.292740e+03
1.300000e-06	5.115023e-06	1.980266e-08	3.649708e+01	1.301549e+03
1.310000e-06	5.188059e-06	1.993259e-08	3.701821e+01	1.309892e+03
1.320000e-06	5.259154e-06	2.005437e-08	3.752549e+01	1.317772e+03
1.330000e-06	5.328472e-06	2.016741e-08	3.802009e+01	1.325201e+03
1.340000e-06	5.395985e-06	2.027272e-08	3.850182e+01	1.332202e+03
1.350000e-06	5.461431e-06	2.037162e-08	3.896879e+01	1.338808e+03
1.360000e-06	5.524790e-06	2.046658e-08	3.942088e+01	1.345056e+03
1.370000e-06	5.586324e-06	2.055705e-08	3.985994e+01	1.350983e+03
1.380000e-06	5.646070e-06	2.064172e-08	4.028624e+01	1.356625e+03
1.390000e-06	5.703784e-06	2.072172e-08	4.069805e+01	1.362008e+03
1.400000e-06	5.759358e-06	2.079881e-08	4.109459e+01	1.367150e+03
1.410000e-06	5.812857e-06	2.087320e-08	4.147632e+01	1.372059e+03
1.420000e-06	5.863994e-06	2.094627e-08	4.184119e+01	1.376737e+03
1.430000e-06	5.912686e-06	2.101576e-08	4.218862e+01	1.381181e+03
1.440000e-06	5.959265e-06	2.107955e-08	4.252097e+01	1.385386e+03
1.450000e-06	6.003910e-06	2.113847e-08	4.283953e+01	1.389348e+03
1.460000e-06	6.046450e-06	2.119361e-08	4.314306e+01	1.393063e+03
1.470000e-06	6.086702e-06	2.124582e-08	4.343028e+01	1.396528e+03
1.480000e-06	6.124805e-06	2.129434e-08	4.370215e+01	1.399741e+03
1.490000e-06	6.160952e-06	2.133733e-08	4.396006e+01	1.402700e+03
1.500000e-06	6.194955e-06	2.137527e-08	4.420269e+01	1.405406e+03
1.510000e-06	6.226652e-06	2.141190e-08	4.442885e+01	1.407860e+03
1.520000e-06	6.256236e-06	2.144650e-08	4.463995e+01	1.410067e+03
1.530000e-06	6.283739e-06	2.147709e-08	4.483618e+01	1.412034e+03
1.540000e-06	6.308792e-06	2.150370e-08	4.501494e+01	1.413775e+03
1.550000e-06	6.331372e-06	2.152653e-08	4.517606e+01	1.415304e+03
1.560000e-06	6.351899e-06	2.154548e-08	4.532252e+01	1.416637e+03
1.570000e-06	6.370290e-06	2.156170e-08	4.545375e+01	1.417787e+03
1.580000e-06	6.386241e-06	2.157591e-08	4.556756e+01	1.418765e+03
1.590000e-06	6.399837e-06	2.158793e-08	4.566458e+01	1.419575e+03
1.600000e-06	6.411042e-06	2.159601e-08	4.574453e+01	1.420216e+03
1.610000e-06	6.419668e-06	2.160162e-08	4.580608e+01	1.420685e+03
1.620000e-06	6.425886e-06	2.160728e-08	4.585044e+01	1.420978e+03
1.630000e-06	6.430010e-06	2.161396e-08	4.587987e+01	1.421091e+03
1.640000e-06	6.431794e-06	2.161907e-08	4.589260e+01	1.421026e+03
1.650000e-06	6.431219e-06	2.161931e-08	4.588849e+01	1.420790e+03
1.660000e-06	6.428630e-06	2.160298e-08	4.587002e+01	1.420390e+03
1.670000e-06	6.423965e-06	2.159260e-08	4.583673e+01	1.419835e+03
1.680000e-06	6.417059e-06	2.158022e-08	4.578746e+01	1.419130e+03
1.690000e-06	6.407998e-06	2.156674e-08	4.572281e+01	1.418276e+03
1.700000e-06	6.396938e-06	2.155885e-08	4.564389e+01	1.417267e+03
1.710000e-06	6.383637e-06	2.155125e-08	4.554898e+01	1.416093e+03
1.720000e-06	6.368077e-06	2.155776e-08	4.543796e+01	1.414746e+03
1.730000e-06	6.350569e-06	2.148475e-08	4.531303e+01	1.413224e+03
1.740000e-06	6.330917e-06	2.135529e-08	4.517281e+01	1.411536e+03
1.750000e-06	6.308224e-06	2.140579e-08	4.501089e+01	1.409707e+03
1.760000e-06	6.282451e-06	2.141549e-08	4.482700e+01	1.407771e+03
1.770000e-06	6.254589e-06	2.134331e-08	4.462819e+01	1.405775e+03
1.780000e-06	6.224914e-06	2.147466e-08	4.441645e+01	1.403758e+03
1.790000e-06	6.193624e-06	2.137285e-08	4.419319e+01	1.401753e+03
1.800000e-06	6.160868e-06	2.117281e-08	4.395947e+01	1.399767e+03
1.810000e-06	6.126009e-06	2.132177e-08	4.371074e+01	1.397781e+03
1.820000e-06	6.089120e-06	2.110017e-08	4.344752e+01	1.395746e+03
1.830000e-06	6.050112e-06	2.115852e-08	4.316919e+01	1.393592e+03
1.840000e-06	6.008681e-06	2.137910e-08	4.287357e+01	1.391236e+03
1.850000e-06	5.965297e-06	2.105650e-08	4.256401e+01	1.388598e+03
1.860000e-06	5.919841e-06	2.118575e-08	4.223968e+01	1.385615e+03
1.870000e-06	5.872173e-06	2.113892e-08	4.189955e+01	1.382249e+03
1.880000e-06	5.822435e-06	2.098800e-08	4.154466e+01	1.378498e+03
1.890000e-06	5.770059e-06	2.108361e-08	4.117094e+01	1.374386e+03
1.900000e-06	5.715145e-06	2.081592e-08	4.077911e+01	1.369959e+03
1.910000e-06	5.658164e-06	2.083957e-08	4.037254e+01	1.365269e+03
1.920000e-06	5.599213e-06	2.081034e-08	3.995190e+01	1.360363e+03
1.930000e-06	5.538435e-06	2.069339e-08	3.951824e+01	1.355267e+03
1.940000e-06	5.475444e-06	2.071579e-08	3.906878e+01	1.349986e+03
1.950000e-06	5.410327e-06	2.047035e-08	3.860415e+01	1.344501e+03
1.960000e-06	5.343327e-06	2.048214e-08	3.812609e+01	1.338775e+03
1.970000e-06	5.274290e-06	2.032009e-08	3.763349e+01	1.332769e+03
1.980000e-06	5.203114e-06	2.021302e-08	3.712563e+01	1.326447e+03
1.990000e-06	5.129921e-06	2.021392e-08	3.660338e+01	1.319792e+03
2.000000e-06	5.054954e-06	2.003662e-08	3.606847e+01	1.312803e+03
2.010000e-06	4.977910e-06	1.999073e-08	3.551874e+01	1.305500e+03
2.020000e-06	4.898752e-06	1.977750e-08	3.495392e+01	1.297910e+03
2.030000e-06	4.817878e-06	1.971024e-08	3.437687e+01	1.290061e+03
2.040000e-06	4.735476e-06	1.962177e-08	3.378890e+01	1.281969e+03
2.050000e-06	4.651502e-06	1.946344e-08	3.318973e+01	1.273632e+03
2.060000e-06	4.565897e-06	1.935049e-08	3.257892e+01	1.265028e+03
2.070000e-06	4.478572e-06	1.916962e-08	3.195583e+01	1.256116e+03
2.080000e-06	4.389589e-06	1.906655e-08	3.132091e+01	1.246849e+03
2.090000e-06	4.299205e-06	1.889272e-08	3.067599e+01	1.237181e+03
2.100000e-06	4.207420e-06	1.877550e-08	3.002108e+01	1.227078e+03
2.110000e-06	4.114222e-06	1.861436e-08	2.935609e+01	1.216522e+03
2.120000e-06	4.019499e-06	1.842632e-08	2.868022e+01	1.205516e+03
2.130000e-06	3.923239e-06	1.824988e-08	2.799338e+01	1.194071e+03
2.140000e-06	3.825633e-06	1.806048e-08	2.729693e+01	1.182206e+03
2.150000e-06	3.726786e-06	1.789842e-08	2.659163e+01	1.169931e+03
2.160000e-06	3.626618e-06	1.769676e-08	2.587690e+01	1.157242e+03
2.170000e-06	3.525067e-06	1.751386e-08	2.515231e+01	1.144113e+03
2.180000e-06	3.422057e-06	1.729268e-08	2.441731e+01	1.130501e+03
2.190000e-06	3.317641e-06	1.707820e-08	2.367227e+01	1.116348e+03
2.200000e-06	3.212133e-06	1.685122e-08	2.291944e+01	1.101593e+03
2.210000e-06	3.105590e-06	1.662647e-08	2.215923e+01	1.086179e+03
2.220000e-06	2.997901e-06	1.638297e-08	2.139084e+01	1.070058e+03
2.230000e-06	2.889146e-06	1.611816e-08	2.061484e+01	1.053199e+03
2.240000e-06	2.779520e-06	1.585361e-08	1.983263e+01	1.035580e+03
2.250000e-06	2.668827e-06	1.557750e-08	1.904281e+01	1.017181e+03
2.260000e-06	2.557003e-06	1.529217e-08	1.824491e+01	9.979812e+02
2.270000e-06	2.444195e-06	1.498162e-08	1.744000e+01	9.779419e+02
2.280000e-06	2.330452e-06	1.466570e-08	1.662841e+01	9.570081e+02
2.290000e-06	2.215865e-06	1.432793e-08	1.581080e+01	9.351052e+02
2.300000e-06	2.100418e-06	1.398020e-08	1.498705e+01	9.121430e+02
2.310000e-06	1.984025e-06	1.361429e-08	1.415656e+01	8.880220e+02
2.320000e-06	1.866831e-06	1.323305e-08	1.332035e+01	8.626405e+02
2.330000e-06	1.749001e-06	1.282625e-08	1.247960e+01	8.358992e+02
2.340000e-06	1.630495e-06	1.239185e-08	1.163402e+01	8.077036e+02
2.350000e-06	1.511316e-06	1.193598e-08	1.078365e+01	7.779618e+02
2.360000e-06	1.391572e-06	1.146003e-08	9.929244e+00	7.465826e+02
2.370000e-06	1.271387e-06	1.096340e-08	9.071692e+00	7.134730e+02
2.380000e-06	1.150802e-06	1.043207e-08	8.211283e+00	6.785419e+02
2.390000e-06	1.029859e-06	9.868791e-09	7.348325e+00	6.417087e+02
2.400000e-06	9.086241e-07	9.273077e-09	6.483279e+00	6.029198e+02
2.410000e-06	7.870952e-07	8.650940e-09	5.616138e+00	5.621680e+02
2.420000e-06	6.653153e-07	7.999517e-09	4.747205e+00	5.195129e+02
2.430000e-06	5.433660e-07	7.322159e-09	3.877064e+00	4.750944e+02
2.440000e-06	4.213050e-07	6.622386e-09	3.006126e+00	4.291353e+02
2.450000e-06	2.991310e-07	5.899645e-09	2.134381e+00	3.819274e+02
2.460000e-06	1.768150e-07	5.159923e-09	1.261623e+00	3.338022e+02
2.470000e-06	5.440658e-08	4.412080e-09	3.882057e-01	2.850885e+02
2.480000e-06	-6.804373e-08	3.667620e-09	-4.855105e-01	2.360645e+02
2.490000e-06	-1.904428e-07	2.920944e-09	-1.358861e+00	1.869130e+02
2.500000e-06	-3.127690e-07	2.165509e-09	-2.231691e+00	1.376914e+02
2.510000e-06	-4.349997e-07	1.405101e-09	-3.103841e+00	8.832233e+01
2.520000e-06	-5.570484e-07	6.412769e-10	-3.974691e+00	3.861102e+01
2.530000e-06	-6.789807e-07	-1.283221e-10	-4.844712e+00	-1.171232e+01
2.540000e-06	-8.007434e-07	-9.117815e-10	-5.713522e+00	-6.293175e+01
2.550000e-06	-9.222161e-07	-1.711783e-09	-6.580262e+00	-1.152766e+02
2.560000e-06	-1.043390e-06	-2.529225e-09	-7.444874e+00	-1.688571e+02
2.570000e-06	-1.164238e-06	-3.365892e-09	-8.307154e+00	-2.236177e+02
2.580000e-06	-1.284689e-06	-4.215876e-09	-9.166602e+00	-2.793161e+02
2.590000e-06	-1.404704e-06	-5.073795e-09	-1.002295e+01	-3.355329e+02
2.600000e-06	-1.524161e-06	-5.934076e-09	-1.087531e+01	-3.917111e+02
2.610000e-06	-1.642915e-06	-6.786885e-09	-1.172264e+01	-4.472159e+02
2.620000e-06	-1.760952e-06	-7.621471e-09	-1.256487e+01	-5.014060e+02
2.630000e-06	-1.878296e-06	-8.426998e-09	-1.340215e+01	-5.537020e+02
2.640000e-06	-1.994873e-06	-9.194864e-09	-1.423396e+01	-6.036421e+02
2.650000e-06	-2.110522e-06	-9.919392e-09	-1.505915e+01	-6.509159e+02
2.660000e-06	-2.225214e-06	-1.060095e-08	-1.587751e+01	-6.953721e+02
2.670000e-06	-2.338935e-06	-1.124075e-08	-1.668894e+01	-7.370051e+02
2.680000e-06	-2.451653e-06	-1.183825e-08	-1.749321e+01	-7.759224e+02
2.690000e-06	-2.563287e-06	-1.239685e-08	-1.828975e+01	-8.123042e+02
2.700000e-06	-2.673794e-06	-1.291961e-08	-1.907824e+01	-8.463625e+02
2.710000e-06	-2.783363e-06	-1.340893e-08	-1.986005e+01	-8.783084e+02
2.720000e-06	-2.892078e-06	-1.387057e-08	-2.063576e+01	-9.083296e+02
2.730000e-06	-2.999834e-06	-1.430402e-08	-2.140463e+01	-9.365829e+02
2.740000e-06	-3.106609e-06	-1.471134e-08	-2.216650e+01	-9.631952e+02
2.750000e-06	-3.212353e-06	-1.509537e-08	-2.292101e+01	-9.882732e+02
2.760000e-06	-3.316968e-06	-1.545429e-08	-2.366747e+01	-1.011914e+03
2.770000e-06	-3.420351e-06	-1.579341e-08	-2.440513e+01	-1.034213e+03
2.780000e-06	-3.522465e-06	-1.611598e-08	-2.513375e+01	-1.055270e+03
2.790000e-06	-3.623285e-06	-1.642218e-08	-2.585312e+01	-1.075184e+03
2.800000e-06	-3.722796e-06	-1.671305e-08	-2.656316e+01	-1.094056e+03
2.810000e-06	-3.821070e-06	-1.698740e-08	-2.726437e+01	-1.111972e+03
2.820000e-06	-3.918072e-06	-1.724699e-08	-2.795651e+01	-1.129010e+03
2.830000e-06	-4.013772e-06	-1.749358e-08	-2.863936e+01	-1.145227e+03
2.840000e-06	-4.108118e-06	-1.772987e-08	-2.931254e+01	-1.160668e+03
2.850000e-06	-4.200918e-06	-1.795805e-08	-2.997469e+01	-1.175367e+03
2.860000e-06	-4.292188e-06	-1.817768e-08	-3.062592e+01	-1.189353e+03
2.870000e-06	-4.381943e-06	-1.838639e-08	-3.126635e+01	-1.202658e+03
2.880000e-06	-4.470087e-06	-1.858204e-08	-3.189529e+01	-1.215315e+03
2.890000e-06	-4.556545e-06	-1.876501e-08	-3.251219e+01	-1.227364e+03
2.900000e-06	-4.641263e-06	-1.893648e-08	-3.311667e+01	-1.238845e+03
2.910000e-06	-4.724398e-06	-1.910164e-08	-3.370986e+01	-1.249798e+03
2.920000e-06	-4.805952e-06	-1.926151e-08	-3.429178e+01	-1.260252e+03
2.930000e-06	-4.885783e-06	-1.941538e-08	-3.486139e+01	-1.270229e+03
2.940000e-06	-4.963605e-06	-1.956214e-08	-3.541667e+01	-1.279739e+03
