# Temperatura_=_89.31
# Concentracion g/m^3_=_28200.0
# C_Vs_to_Am_M_A/Vsm_=_65563218390.804596
# pendiente_HvsI_1/m_=_3716.3
# ordenada_HvsI_A/m_=_1297.0
# frecuencia_Hz_=_302092.28849733796

Tiempo_(s)	Campo_(V.s)	Magnetizacion_(V.s)	Campo_(kA/m)	Magnetizacion_(A/m)
0.000000e+00	-6.353522e-06	-2.487970e-08	-4.558116e+01	-1.628351e+03
1.000000e-08	-6.350037e-06	-2.487602e-08	-4.555615e+01	-1.627815e+03
2.000000e-08	-6.344523e-06	-2.486758e-08	-4.551660e+01	-1.627104e+03
3.000000e-08	-6.337065e-06	-2.485512e-08	-4.546309e+01	-1.626221e+03
4.000000e-08	-6.327452e-06	-2.483600e-08	-4.539413e+01	-1.625161e+03
5.000000e-08	-6.315461e-06	-2.481385e-08	-4.530810e+01	-1.623913e+03
6.000000e-08	-6.301103e-06	-2.479136e-08	-4.520509e+01	-1.622466e+03
7.000000e-08	-6.284454e-06	-2.475868e-08	-4.508565e+01	-1.620811e+03
8.000000e-08	-6.265748e-06	-2.473878e-08	-4.495146e+01	-1.618951e+03
9.000000e-08	-6.244960e-06	-2.475886e-08	-4.480232e+01	-1.616902e+03
1.000000e-07	-6.221717e-06	-2.471602e-08	-4.463557e+01	-1.614693e+03
1.100000e-07	-6.195869e-06	-2.464701e-08	-4.445013e+01	-1.612365e+03
1.200000e-07	-6.167736e-06	-2.461831e-08	-4.424830e+01	-1.609958e+03
1.300000e-07	-6.137770e-06	-2.456553e-08	-4.403332e+01	-1.607505e+03
1.400000e-07	-6.106215e-06	-2.447036e-08	-4.380694e+01	-1.605020e+03
1.500000e-07	-6.072968e-06	-2.451761e-08	-4.356842e+01	-1.602488e+03
1.600000e-07	-6.037695e-06	-2.450067e-08	-4.331537e+01	-1.599869e+03
1.700000e-07	-6.000492e-06	-2.435474e-08	-4.304846e+01	-1.597100e+03
1.800000e-07	-5.961243e-06	-2.441261e-08	-4.276689e+01	-1.594101e+03
1.900000e-07	-5.919569e-06	-2.430498e-08	-4.246791e+01	-1.590799e+03
2.000000e-07	-5.875721e-06	-2.418739e-08	-4.215334e+01	-1.587132e+03
2.100000e-07	-5.829824e-06	-2.418632e-08	-4.182407e+01	-1.583069e+03
2.200000e-07	-5.781666e-06	-2.400980e-08	-4.147857e+01	-1.578606e+03
2.300000e-07	-5.730980e-06	-2.393855e-08	-4.111495e+01	-1.573774e+03
2.400000e-07	-5.677773e-06	-2.391827e-08	-4.073323e+01	-1.568619e+03
2.500000e-07	-5.622430e-06	-2.381580e-08	-4.033619e+01	-1.563196e+03
2.600000e-07	-5.564965e-06	-2.375281e-08	-3.992393e+01	-1.557551e+03
2.700000e-07	-5.505355e-06	-2.366738e-08	-3.949628e+01	-1.551706e+03
2.800000e-07	-5.443747e-06	-2.355399e-08	-3.905429e+01	-1.545660e+03
2.900000e-07	-5.380229e-06	-2.342926e-08	-3.859860e+01	-1.539383e+03
3.000000e-07	-5.314748e-06	-2.336061e-08	-3.812883e+01	-1.532830e+03
3.100000e-07	-5.247174e-06	-2.328986e-08	-3.764404e+01	-1.525950e+03
3.200000e-07	-5.177598e-06	-2.315115e-08	-3.714490e+01	-1.518701e+03
3.300000e-07	-5.106187e-06	-2.302335e-08	-3.663258e+01	-1.511061e+03
3.400000e-07	-5.032997e-06	-2.287191e-08	-3.610751e+01	-1.503032e+03
3.500000e-07	-4.957751e-06	-2.275837e-08	-3.556768e+01	-1.494638e+03
3.600000e-07	-4.880304e-06	-2.265106e-08	-3.501207e+01	-1.485914e+03
3.700000e-07	-4.800782e-06	-2.251859e-08	-3.444156e+01	-1.476897e+03
3.800000e-07	-4.719421e-06	-2.238730e-08	-3.385787e+01	-1.467608e+03
3.900000e-07	-4.636511e-06	-2.220821e-08	-3.326305e+01	-1.458049e+03
4.000000e-07	-4.552239e-06	-2.203697e-08	-3.265847e+01	-1.448197e+03
4.100000e-07	-4.466644e-06	-2.189235e-08	-3.204440e+01	-1.438005e+03
4.200000e-07	-4.379493e-06	-2.174901e-08	-3.141917e+01	-1.427419e+03
4.300000e-07	-4.290912e-06	-2.158261e-08	-3.078367e+01	-1.416384e+03
4.400000e-07	-4.200774e-06	-2.140147e-08	-3.013701e+01	-1.404860e+03
4.500000e-07	-4.108938e-06	-2.122124e-08	-2.947816e+01	-1.392828e+03
4.600000e-07	-4.015651e-06	-2.101766e-08	-2.880891e+01	-1.380290e+03
4.700000e-07	-3.921020e-06	-2.082457e-08	-2.813001e+01	-1.367263e+03
4.800000e-07	-3.825105e-06	-2.062868e-08	-2.744190e+01	-1.353773e+03
4.900000e-07	-3.727746e-06	-2.041040e-08	-2.674343e+01	-1.339834e+03
5.000000e-07	-3.628750e-06	-2.017358e-08	-2.603322e+01	-1.325445e+03
5.100000e-07	-3.528413e-06	-1.993675e-08	-2.531339e+01	-1.310581e+03
5.200000e-07	-3.426960e-06	-1.970717e-08	-2.458554e+01	-1.295194e+03
5.300000e-07	-3.324256e-06	-1.946740e-08	-2.384873e+01	-1.279218e+03
5.400000e-07	-3.220413e-06	-1.921899e-08	-2.310374e+01	-1.262586e+03
5.500000e-07	-3.115477e-06	-1.895471e-08	-2.235092e+01	-1.245236e+03
5.600000e-07	-3.009191e-06	-1.867613e-08	-2.158840e+01	-1.227122e+03
5.700000e-07	-2.901544e-06	-1.838074e-08	-2.081613e+01	-1.208212e+03
5.800000e-07	-2.792896e-06	-1.807712e-08	-2.003667e+01	-1.188492e+03
5.900000e-07	-2.683292e-06	-1.776190e-08	-1.925036e+01	-1.167950e+03
6.000000e-07	-2.572686e-06	-1.742973e-08	-1.845685e+01	-1.146563e+03
6.100000e-07	-2.461151e-06	-1.708342e-08	-1.765668e+01	-1.124293e+03
6.200000e-07	-2.348765e-06	-1.672813e-08	-1.685040e+01	-1.101073e+03
6.300000e-07	-2.235532e-06	-1.636216e-08	-1.603806e+01	-1.076809e+03
6.400000e-07	-2.121201e-06	-1.597702e-08	-1.521783e+01	-1.051390e+03
6.500000e-07	-2.005730e-06	-1.557062e-08	-1.438942e+01	-1.024693e+03
6.600000e-07	-1.889470e-06	-1.513739e-08	-1.355535e+01	-9.965963e+02
6.700000e-07	-1.772638e-06	-1.468325e-08	-1.271718e+01	-9.669872e+02
6.800000e-07	-1.655223e-06	-1.420776e-08	-1.187483e+01	-9.357652e+02
6.900000e-07	-1.537268e-06	-1.370745e-08	-1.102860e+01	-9.028376e+02
7.000000e-07	-1.418775e-06	-1.317667e-08	-1.017851e+01	-8.681120e+02
7.100000e-07	-1.299721e-06	-1.261314e-08	-9.324399e+00	-8.314882e+02
7.200000e-07	-1.180226e-06	-1.202104e-08	-8.467127e+00	-7.928544e+02
7.300000e-07	-1.060392e-06	-1.139755e-08	-7.607416e+00	-7.520918e+02
7.400000e-07	-9.402686e-07	-1.074299e-08	-6.745634e+00	-7.090898e+02
7.500000e-07	-8.198816e-07	-1.005700e-08	-5.881959e+00	-6.637710e+02
7.600000e-07	-6.992827e-07	-9.332883e-09	-5.016763e+00	-6.161194e+02
7.700000e-07	-5.785182e-07	-8.565497e-09	-4.150380e+00	-5.662075e+02
7.800000e-07	-4.575696e-07	-7.765963e-09	-3.282675e+00	-5.142120e+02
7.900000e-07	-3.364726e-07	-6.945073e-09	-2.413907e+00	-4.604110e+02
8.000000e-07	-2.152553e-07	-6.105155e-09	-1.544275e+00	-4.051619e+02
8.100000e-07	-9.385650e-08	-5.250460e-09	-6.733411e-01	-3.488576e+02
8.200000e-07	2.769501e-08	-4.387338e-09	1.986883e-01	-2.918712e+02
8.300000e-07	1.492581e-07	-3.517006e-09	1.070801e+00	-2.344962e+02
8.400000e-07	2.707737e-07	-2.638698e-09	1.942573e+00	-1.768986e+02
8.500000e-07	3.921884e-07	-1.757721e-09	2.813621e+00	-1.190890e+02
8.600000e-07	5.134700e-07	-8.704981e-10	3.683714e+00	-6.092593e+01
8.700000e-07	6.346216e-07	2.900934e-11	4.552874e+00	-2.150503e+00
8.800000e-07	7.556150e-07	9.416495e-10	5.420900e+00	5.755074e+01
8.900000e-07	8.764024e-07	1.869744e-09	6.287448e+00	1.184664e+02
9.000000e-07	9.969255e-07	2.817436e-09	7.152099e+00	1.807786e+02
9.100000e-07	1.117195e-06	3.786061e-09	8.014929e+00	2.444948e+02
9.200000e-07	1.237117e-06	4.769713e-09	8.875269e+00	3.094078e+02
9.300000e-07	1.356577e-06	5.763890e-09	9.732291e+00	3.750904e+02
9.400000e-07	1.475518e-06	6.764904e-09	1.058560e+01	4.409278e+02
9.500000e-07	1.593885e-06	7.761088e-09	1.143478e+01	5.061809e+02
9.600000e-07	1.711677e-06	8.736603e-09	1.227983e+01	5.700691e+02
9.700000e-07	1.828857e-06	9.677419e-09	1.312050e+01	6.318572e+02
9.800000e-07	1.945402e-06	1.057399e-08	1.395662e+01	6.909318e+02
9.900000e-07	2.061146e-06	1.141889e-08	1.478698e+01	7.468543e+02
1.000000e-06	2.175913e-06	1.220852e-08	1.561034e+01	7.993842e+02
1.010000e-06	2.289689e-06	1.294869e-08	1.642659e+01	8.484716e+02
1.020000e-06	2.402518e-06	1.364155e-08	1.723604e+01	8.942249e+02
1.030000e-06	2.514416e-06	1.429052e-08	1.803881e+01	9.368618e+02
1.040000e-06	2.625349e-06	1.489614e-08	1.883466e+01	9.766562e+02
1.050000e-06	2.735322e-06	1.546207e-08	1.962363e+01	1.013891e+03
1.060000e-06	2.844379e-06	1.599290e-08	2.040602e+01	1.048823e+03
1.070000e-06	2.952582e-06	1.648831e-08	2.118228e+01	1.081665e+03
1.080000e-06	3.059880e-06	1.695462e-08	2.195205e+01	1.112584e+03
1.090000e-06	3.166017e-06	1.739532e-08	2.271350e+01	1.141713e+03
1.100000e-06	3.270852e-06	1.781213e-08	2.346561e+01	1.169160e+03
1.110000e-06	3.374446e-06	1.820376e-08	2.420880e+01	1.195031e+03
1.120000e-06	3.476814e-06	1.857294e-08	2.494321e+01	1.219432e+03
1.130000e-06	3.578022e-06	1.892312e-08	2.566929e+01	1.242478e+03
1.140000e-06	3.678142e-06	1.925749e-08	2.638756e+01	1.264288e+03
1.150000e-06	3.777004e-06	1.957590e-08	2.709682e+01	1.284976e+03
1.160000e-06	3.874361e-06	1.987836e-08	2.779527e+01	1.304642e+03
1.170000e-06	3.970163e-06	2.016269e-08	2.848257e+01	1.323370e+03
1.180000e-06	4.064582e-06	2.042855e-08	2.915995e+01	1.341222e+03
1.190000e-06	4.157728e-06	2.068168e-08	2.982819e+01	1.358239e+03
1.200000e-06	4.249614e-06	2.092403e-08	3.048739e+01	1.374454e+03
1.210000e-06	4.340051e-06	2.115720e-08	3.113620e+01	1.389892e+03
1.220000e-06	4.428720e-06	2.138153e-08	3.177232e+01	1.404582e+03
1.230000e-06	4.515690e-06	2.159478e-08	3.239627e+01	1.418561e+03
1.240000e-06	4.601085e-06	2.179729e-08	3.300890e+01	1.431872e+03
1.250000e-06	4.685031e-06	2.198995e-08	3.361114e+01	1.444562e+03
1.260000e-06	4.767472e-06	2.217350e-08	3.420259e+01	1.456678e+03
1.270000e-06	4.848054e-06	2.234957e-08	3.478069e+01	1.468261e+03
1.280000e-06	4.926706e-06	2.251748e-08	3.534496e+01	1.479341e+03
1.290000e-06	5.003576e-06	2.267790e-08	3.589643e+01	1.489937e+03
1.300000e-06	5.078632e-06	2.283159e-08	3.643490e+01	1.500057e+03
1.310000e-06	5.151648e-06	2.297994e-08	3.695873e+01	1.509700e+03
1.320000e-06	5.222634e-06	2.312117e-08	3.746799e+01	1.518866e+03
1.330000e-06	5.291755e-06	2.325540e-08	3.796387e+01	1.527555e+03
1.340000e-06	5.359088e-06	2.338292e-08	3.844693e+01	1.535774e+03
1.350000e-06	5.424395e-06	2.350260e-08	3.891546e+01	1.543536e+03
1.360000e-06	5.487625e-06	2.361531e-08	3.936908e+01	1.550862e+03
1.370000e-06	5.549077e-06	2.371987e-08	3.980994e+01	1.557779e+03
1.380000e-06	5.608768e-06	2.381679e-08	4.023818e+01	1.564317e+03
1.390000e-06	5.666464e-06	2.390894e-08	4.065210e+01	1.570504e+03
1.400000e-06	5.722074e-06	2.399745e-08	4.105105e+01	1.576368e+03
1.410000e-06	5.775635e-06	2.408278e-08	4.143531e+01	1.581934e+03
1.420000e-06	5.826839e-06	2.416540e-08	4.180265e+01	1.587223e+03
1.430000e-06	5.875512e-06	2.424417e-08	4.215184e+01	1.592252e+03
1.440000e-06	5.921976e-06	2.431703e-08	4.248518e+01	1.597031e+03
1.450000e-06	5.966532e-06	2.438517e-08	4.280483e+01	1.601569e+03
1.460000e-06	6.009094e-06	2.445045e-08	4.311018e+01	1.605863e+03
1.470000e-06	6.049411e-06	2.451029e-08	4.339942e+01	1.609910e+03
1.480000e-06	6.087524e-06	2.456559e-08	4.367285e+01	1.613699e+03
1.490000e-06	6.123661e-06	2.461755e-08	4.393210e+01	1.617216e+03
1.500000e-06	6.157734e-06	2.466585e-08	4.417654e+01	1.620449e+03
1.510000e-06	6.189517e-06	2.471164e-08	4.440456e+01	1.623386e+03
1.520000e-06	6.219097e-06	2.475406e-08	4.461677e+01	1.626025e+03
1.530000e-06	6.246656e-06	2.479059e-08	4.481448e+01	1.628369e+03
1.540000e-06	6.271896e-06	2.482060e-08	4.499556e+01	1.630433e+03
1.550000e-06	6.294675e-06	2.484535e-08	4.515898e+01	1.632233e+03
1.560000e-06	6.315310e-06	2.486835e-08	4.530702e+01	1.633792e+03
1.570000e-06	6.333898e-06	2.488902e-08	4.544037e+01	1.635129e+03
1.580000e-06	6.350145e-06	2.490578e-08	4.555693e+01	1.636261e+03
1.590000e-06	6.363954e-06	2.491961e-08	4.565600e+01	1.637194e+03
1.600000e-06	6.375343e-06	2.493042e-08	4.573770e+01	1.637933e+03
1.610000e-06	6.384128e-06	2.493994e-08	4.580073e+01	1.638474e+03
1.620000e-06	6.390556e-06	2.494760e-08	4.584685e+01	1.638813e+03
1.630000e-06	6.394876e-06	2.495312e-08	4.587784e+01	1.638947e+03
1.640000e-06	6.396934e-06	2.495571e-08	4.589260e+01	1.638880e+03
1.650000e-06	6.396694e-06	2.495473e-08	4.589088e+01	1.638617e+03
1.660000e-06	6.394327e-06	2.494367e-08	4.587390e+01	1.638168e+03
1.670000e-06	6.389949e-06	2.492915e-08	4.584249e+01	1.637541e+03
1.680000e-06	6.383320e-06	2.491536e-08	4.579493e+01	1.636742e+03
1.690000e-06	6.374548e-06	2.490199e-08	4.573200e+01	1.635769e+03
1.700000e-06	6.363854e-06	2.489006e-08	4.565528e+01	1.634614e+03
1.710000e-06	6.350985e-06	2.487640e-08	4.556296e+01	1.633265e+03
1.720000e-06	6.335797e-06	2.486377e-08	4.545400e+01	1.631711e+03
1.730000e-06	6.318568e-06	2.482200e-08	4.533039e+01	1.629950e+03
1.740000e-06	6.299254e-06	2.472347e-08	4.519183e+01	1.627990e+03
1.750000e-06	6.277127e-06	2.470762e-08	4.503309e+01	1.625854e+03
1.760000e-06	6.251921e-06	2.471252e-08	4.485225e+01	1.623577e+03
1.770000e-06	6.224288e-06	2.466934e-08	4.465401e+01	1.621202e+03
1.780000e-06	6.194911e-06	2.469251e-08	4.444326e+01	1.618766e+03
1.790000e-06	6.164006e-06	2.465172e-08	4.422154e+01	1.616294e+03
1.800000e-06	6.131543e-06	2.450295e-08	4.398865e+01	1.613786e+03
1.810000e-06	6.097017e-06	2.452624e-08	4.374095e+01	1.611215e+03
1.820000e-06	6.060548e-06	2.443323e-08	4.347932e+01	1.608528e+03
1.830000e-06	6.022151e-06	2.438397e-08	4.320385e+01	1.605651e+03
1.840000e-06	5.981299e-06	2.452306e-08	4.291078e+01	1.602507e+03
1.850000e-06	5.938324e-06	2.435483e-08	4.260246e+01	1.599025e+03
1.860000e-06	5.893385e-06	2.431997e-08	4.228006e+01	1.595160e+03
1.870000e-06	5.846310e-06	2.433120e-08	4.194234e+01	1.590892e+03
1.880000e-06	5.797173e-06	2.416676e-08	4.158982e+01	1.586237e+03
1.890000e-06	5.745559e-06	2.417490e-08	4.121953e+01	1.581234e+03
1.900000e-06	5.691324e-06	2.403522e-08	4.083045e+01	1.575936e+03
1.910000e-06	5.634869e-06	2.392987e-08	4.042543e+01	1.570395e+03
1.920000e-06	5.576376e-06	2.393321e-08	4.000579e+01	1.564645e+03
1.930000e-06	5.516031e-06	2.380352e-08	3.957287e+01	1.558699e+03
1.940000e-06	5.453543e-06	2.374551e-08	3.912456e+01	1.552540e+03
1.950000e-06	5.388900e-06	2.357282e-08	3.866081e+01	1.546129e+03
1.960000e-06	5.322311e-06	2.348632e-08	3.818309e+01	1.539415e+03
1.970000e-06	5.253823e-06	2.339490e-08	3.769174e+01	1.532352e+03
1.980000e-06	5.183387e-06	2.324138e-08	3.718643e+01	1.524906e+03
1.990000e-06	5.110853e-06	2.319682e-08	3.666606e+01	1.517068e+03
2.000000e-06	5.036494e-06	2.303559e-08	3.613259e+01	1.508849e+03
2.010000e-06	4.960229e-06	2.290993e-08	3.558546e+01	1.500283e+03
2.020000e-06	4.881841e-06	2.275516e-08	3.502309e+01	1.491406e+03
2.030000e-06	4.801536e-06	2.262099e-08	3.444697e+01	1.482248e+03
2.040000e-06	4.719617e-06	2.253397e-08	3.385927e+01	1.472823e+03
2.050000e-06	4.636168e-06	2.235211e-08	3.326060e+01	1.463120e+03
2.060000e-06	4.551236e-06	2.219961e-08	3.265128e+01	1.453101e+03
2.070000e-06	4.464666e-06	2.201303e-08	3.203021e+01	1.442717e+03
2.080000e-06	4.376321e-06	2.185078e-08	3.139641e+01	1.431910e+03
2.090000e-06	4.286470e-06	2.168620e-08	3.075180e+01	1.420632e+03
2.100000e-06	4.195214e-06	2.152117e-08	3.009712e+01	1.408852e+03
2.110000e-06	4.102644e-06	2.135109e-08	2.943301e+01	1.396562e+03
2.120000e-06	4.008733e-06	2.113252e-08	2.875928e+01	1.383774e+03
2.130000e-06	3.913178e-06	2.093284e-08	2.807375e+01	1.370510e+03
2.140000e-06	3.816143e-06	2.072160e-08	2.737761e+01	1.356792e+03
2.150000e-06	3.717881e-06	2.052132e-08	2.667266e+01	1.342627e+03
2.160000e-06	3.618289e-06	2.029894e-08	2.595817e+01	1.328003e+03
2.170000e-06	3.517456e-06	2.007215e-08	2.523478e+01	1.312882e+03
2.180000e-06	3.415318e-06	1.982674e-08	2.450203e+01	1.297206e+03
2.190000e-06	3.311643e-06	1.956877e-08	2.375824e+01	1.280908e+03
2.200000e-06	3.206761e-06	1.931522e-08	2.300580e+01	1.263921e+03
2.210000e-06	3.100890e-06	1.905238e-08	2.224627e+01	1.246191e+03
2.220000e-06	2.993806e-06	1.877778e-08	2.147803e+01	1.227679e+03
2.230000e-06	2.885601e-06	1.847732e-08	2.070175e+01	1.208363e+03
2.240000e-06	2.776598e-06	1.817615e-08	1.991974e+01	1.188231e+03
2.250000e-06	2.666726e-06	1.786347e-08	1.913151e+01	1.167267e+03
2.260000e-06	2.555762e-06	1.753460e-08	1.833544e+01	1.145443e+03
2.270000e-06	2.443807e-06	1.718386e-08	1.753225e+01	1.122705e+03
2.280000e-06	2.330921e-06	1.682006e-08	1.672239e+01	1.098973e+03
2.290000e-06	2.216967e-06	1.644106e-08	1.590486e+01	1.074144e+03
2.300000e-06	2.102067e-06	1.604517e-08	1.508055e+01	1.048099e+03
2.310000e-06	1.986444e-06	1.563091e-08	1.425106e+01	1.020714e+03
2.320000e-06	1.870099e-06	1.519432e-08	1.341638e+01	9.918716e+02
2.330000e-06	1.753105e-06	1.473240e-08	1.257705e+01	9.614654e+02
2.340000e-06	1.635556e-06	1.423854e-08	1.173374e+01	9.293992e+02
2.350000e-06	1.517336e-06	1.372042e-08	1.088561e+01	8.955817e+02
2.360000e-06	1.398427e-06	1.317858e-08	1.003253e+01	8.599176e+02
2.370000e-06	1.278900e-06	1.261115e-08	9.175030e+00	8.223007e+02
2.380000e-06	1.158829e-06	1.200673e-08	8.313618e+00	7.826146e+02
2.390000e-06	1.038336e-06	1.136459e-08	7.449184e+00	7.407420e+02
2.400000e-06	9.175640e-07	1.068843e-08	6.582747e+00	6.965854e+02
2.410000e-06	7.966303e-07	9.981555e-09	5.715150e+00	6.500945e+02
2.420000e-06	6.755036e-07	9.242052e-09	4.846168e+00	6.012947e+02
2.430000e-06	5.542726e-07	8.466320e-09	3.976438e+00	5.503096e+02
2.440000e-06	4.329256e-07	7.657781e-09	3.105876e+00	4.973681e+02
2.450000e-06	3.114309e-07	6.820157e-09	2.234254e+00	4.427922e+02
2.460000e-06	1.897953e-07	5.961449e-09	1.361621e+00	3.869636e+02
2.470000e-06	6.804178e-08	5.093196e-09	4.881423e-01	3.302725e+02
2.480000e-06	-5.374411e-08	4.223799e-09	-3.855686e-01	2.730595e+02
2.490000e-06	-1.755584e-07	3.349393e-09	-1.259483e+00	2.155591e+02
2.500000e-06	-2.973209e-07	2.466698e-09	-2.133027e+00	1.578615e+02
2.510000e-06	-4.189583e-07	1.578236e-09	-3.005672e+00	9.989861e+01
2.520000e-06	-5.404695e-07	6.823948e-10	-3.877413e+00	4.146414e+01
2.530000e-06	-6.618079e-07	-2.235462e-10	-4.747913e+00	-1.773730e+01
2.540000e-06	-7.829671e-07	-1.143551e-09	-5.617128e+00	-7.801722e+01
2.550000e-06	-9.039543e-07	-2.081909e-09	-6.485109e+00	-1.396207e+02
2.560000e-06	-1.024702e-06	-3.040968e-09	-7.351370e+00	-2.026495e+02
2.570000e-06	-1.145137e-06	-4.023491e-09	-8.215390e+00	-2.670068e+02
2.580000e-06	-1.265176e-06	-5.023372e-09	-9.076573e+00	-3.323736e+02
2.590000e-06	-1.384647e-06	-6.032371e-09	-9.933676e+00	-3.982227e+02
2.600000e-06	-1.503381e-06	-7.041359e-09	-1.078549e+01	-4.638677e+02
2.610000e-06	-1.621399e-06	-8.035302e-09	-1.163217e+01	-5.285378e+02
2.620000e-06	-1.738776e-06	-9.000314e-09	-1.247425e+01	-5.914645e+02
2.630000e-06	-1.855451e-06	-9.926566e-09	-1.331130e+01	-6.519652e+02
2.640000e-06	-1.971321e-06	-1.080758e-08	-1.414257e+01	-7.095091e+02
2.650000e-06	-2.086337e-06	-1.163860e-08	-1.496771e+01	-7.637556e+02
2.660000e-06	-2.200412e-06	-1.241705e-08	-1.578610e+01	-8.145623e+02
2.670000e-06	-2.313466e-06	-1.314403e-08	-1.659716e+01	-8.619638e+02
2.680000e-06	-2.425504e-06	-1.382182e-08	-1.740095e+01	-9.061296e+02
2.690000e-06	-2.536514e-06	-1.445349e-08	-1.819735e+01	-9.473121e+02
2.700000e-06	-2.646503e-06	-1.504600e-08	-1.898643e+01	-9.857951e+02
2.710000e-06	-2.755590e-06	-1.560424e-08	-1.976903e+01	-1.021851e+03
2.720000e-06	-2.863868e-06	-1.612785e-08	-2.054584e+01	-1.055717e+03
2.730000e-06	-2.971284e-06	-1.661599e-08	-2.131646e+01	-1.087582e+03
2.740000e-06	-3.077733e-06	-1.707207e-08	-2.208014e+01	-1.117594e+03
2.750000e-06	-3.183164e-06	-1.749984e-08	-2.283652e+01	-1.145872e+03
2.760000e-06	-3.287500e-06	-1.790394e-08	-2.358504e+01	-1.172521e+03
2.770000e-06	-3.390550e-06	-1.828998e-08	-2.432433e+01	-1.197645e+03
2.780000e-06	-3.492199e-06	-1.865662e-08	-2.505358e+01	-1.221357e+03
2.790000e-06	-3.592568e-06	-1.900111e-08	-2.577364e+01	-1.243773e+03
2.800000e-06	-3.691744e-06	-1.932501e-08	-2.648515e+01	-1.265011e+03
2.810000e-06	-3.789703e-06	-1.963311e-08	-2.718792e+01	-1.285179e+03
2.820000e-06	-3.886457e-06	-1.992821e-08	-2.788205e+01	-1.304370e+03
2.830000e-06	-3.981867e-06	-2.020947e-08	-2.856653e+01	-1.322656e+03
2.840000e-06	-4.075710e-06	-2.047559e-08	-2.923978e+01	-1.340089e+03
2.850000e-06	-4.168078e-06	-2.072777e-08	-2.990244e+01	-1.356704e+03
2.860000e-06	-4.259013e-06	-2.096901e-08	-3.055482e+01	-1.372530e+03
2.870000e-06	-4.348399e-06	-2.120074e-08	-3.119610e+01	-1.387593e+03
2.880000e-06	-4.436261e-06	-2.142349e-08	-3.182643e+01	-1.401925e+03
2.890000e-06	-4.522407e-06	-2.163595e-08	-3.244445e+01	-1.415567e+03
2.900000e-06	-4.606818e-06	-2.183732e-08	-3.305003e+01	-1.428564e+03
2.910000e-06	-4.689683e-06	-2.202896e-08	-3.364452e+01	-1.440964e+03
2.920000e-06	-4.770948e-06	-2.220985e-08	-3.422753e+01	-1.452812e+03
2.930000e-06	-4.850504e-06	-2.238069e-08	-3.479827e+01	-1.464143e+03
2.940000e-06	-4.928072e-06	-2.254356e-08	-3.535476e+01	-1.474982e+03
