# Temperatura_=_68.69
# Concentracion g/m^3_=_28200.0
# C_Vs_to_Am_M_A/Vsm_=_65563218390.804596
# pendiente_HvsI_1/m_=_3716.3
# ordenada_HvsI_A/m_=_1297.0
# frecuencia_Hz_=_302102.37527261244

Tiempo_(s)	Campo_(V.s)	Magnetizacion_(V.s)	Campo_(kA/m)	Magnetizacion_(A/m)
0.000000e+00	-6.405880e-06	-2.107163e-08	-4.557769e+01	-1.377164e+03
1.000000e-08	-6.402467e-06	-2.106874e-08	-4.555341e+01	-1.376749e+03
2.000000e-08	-6.396996e-06	-2.106003e-08	-4.551448e+01	-1.376228e+03
3.000000e-08	-6.389571e-06	-2.105368e-08	-4.546165e+01	-1.375588e+03
4.000000e-08	-6.379917e-06	-2.104142e-08	-4.539296e+01	-1.374801e+03
5.000000e-08	-6.367756e-06	-2.102097e-08	-4.530643e+01	-1.373829e+03
6.000000e-08	-6.353327e-06	-2.099766e-08	-4.520377e+01	-1.372634e+03
7.000000e-08	-6.336661e-06	-2.096176e-08	-4.508520e+01	-1.371190e+03
8.000000e-08	-6.317886e-06	-2.094965e-08	-4.495161e+01	-1.369494e+03
9.000000e-08	-6.296993e-06	-2.103548e-08	-4.480296e+01	-1.367574e+03
1.000000e-07	-6.273676e-06	-2.094568e-08	-4.463706e+01	-1.365487e+03
1.100000e-07	-6.247654e-06	-2.083718e-08	-4.445191e+01	-1.363313e+03
1.200000e-07	-6.219264e-06	-2.084650e-08	-4.424992e+01	-1.361141e+03
1.300000e-07	-6.189014e-06	-2.079582e-08	-4.403469e+01	-1.359050e+03
1.400000e-07	-6.157237e-06	-2.064928e-08	-4.380860e+01	-1.357089e+03
1.500000e-07	-6.123670e-06	-2.082991e-08	-4.356977e+01	-1.355266e+03
1.600000e-07	-6.088035e-06	-2.079708e-08	-4.331622e+01	-1.353540e+03
1.700000e-07	-6.050599e-06	-2.051554e-08	-4.304987e+01	-1.351825e+03
1.800000e-07	-6.011063e-06	-2.073401e-08	-4.276858e+01	-1.350007e+03
1.900000e-07	-5.969010e-06	-2.054607e-08	-4.246936e+01	-1.347958e+03
2.000000e-07	-5.924740e-06	-2.046254e-08	-4.215439e+01	-1.345567e+03
2.100000e-07	-5.878462e-06	-2.058579e-08	-4.182512e+01	-1.342751e+03
2.200000e-07	-5.829853e-06	-2.033450e-08	-4.147927e+01	-1.339474e+03
2.300000e-07	-5.778700e-06	-2.031012e-08	-4.111532e+01	-1.335748e+03
2.400000e-07	-5.724978e-06	-2.028615e-08	-4.073308e+01	-1.331623e+03
2.500000e-07	-5.669189e-06	-2.018115e-08	-4.033615e+01	-1.327173e+03
2.600000e-07	-5.611278e-06	-2.016871e-08	-3.992411e+01	-1.322475e+03
2.700000e-07	-5.551099e-06	-2.008038e-08	-3.949594e+01	-1.317591e+03
2.800000e-07	-5.489007e-06	-2.000802e-08	-3.905416e+01	-1.312550e+03
2.900000e-07	-5.424967e-06	-1.986069e-08	-3.859851e+01	-1.307352e+03
3.000000e-07	-5.358786e-06	-1.981184e-08	-3.812763e+01	-1.301965e+03
3.100000e-07	-5.290517e-06	-1.975954e-08	-3.764191e+01	-1.296337e+03
3.200000e-07	-5.220293e-06	-1.964666e-08	-3.714227e+01	-1.290417e+03
3.300000e-07	-5.148330e-06	-1.958437e-08	-3.663024e+01	-1.284164e+03
3.400000e-07	-5.074452e-06	-1.942044e-08	-3.610461e+01	-1.277562e+03
3.500000e-07	-4.998370e-06	-1.933693e-08	-3.556329e+01	-1.270620e+03
3.600000e-07	-4.920209e-06	-1.922877e-08	-3.500717e+01	-1.263366e+03
3.700000e-07	-4.840081e-06	-1.911241e-08	-3.443707e+01	-1.255838e+03
3.800000e-07	-4.758130e-06	-1.903283e-08	-3.385398e+01	-1.248070e+03
3.900000e-07	-4.674671e-06	-1.888219e-08	-3.326017e+01	-1.240078e+03
4.000000e-07	-4.589902e-06	-1.873892e-08	-3.265705e+01	-1.231856e+03
4.100000e-07	-4.503644e-06	-1.860740e-08	-3.204332e+01	-1.223372e+03
4.200000e-07	-4.415898e-06	-1.849707e-08	-3.141901e+01	-1.214578e+03
4.300000e-07	-4.326587e-06	-1.834891e-08	-3.078357e+01	-1.205419e+03
4.400000e-07	-4.235629e-06	-1.818810e-08	-3.013640e+01	-1.195844e+03
4.500000e-07	-4.143130e-06	-1.804620e-08	-2.947827e+01	-1.185821e+03
4.600000e-07	-4.049118e-06	-1.786786e-08	-2.880938e+01	-1.175337e+03
4.700000e-07	-3.953772e-06	-1.770982e-08	-2.813099e+01	-1.164402e+03
4.800000e-07	-3.857060e-06	-1.754825e-08	-2.744289e+01	-1.153035e+03
4.900000e-07	-3.758840e-06	-1.737404e-08	-2.674406e+01	-1.141257e+03
5.000000e-07	-3.659180e-06	-1.717395e-08	-2.603498e+01	-1.129080e+03
5.100000e-07	-3.558148e-06	-1.697177e-08	-2.531614e+01	-1.116494e+03
5.200000e-07	-3.455843e-06	-1.677915e-08	-2.458824e+01	-1.103470e+03
5.300000e-07	-3.352385e-06	-1.657265e-08	-2.385214e+01	-1.089959e+03
5.400000e-07	-3.247667e-06	-1.636095e-08	-2.310708e+01	-1.075900e+03
5.500000e-07	-3.141617e-06	-1.613051e-08	-2.235253e+01	-1.061231e+03
5.600000e-07	-3.034330e-06	-1.589369e-08	-2.158919e+01	-1.045899e+03
5.700000e-07	-2.925889e-06	-1.564152e-08	-2.081763e+01	-1.029861e+03
5.800000e-07	-2.816426e-06	-1.538947e-08	-2.003880e+01	-1.013092e+03
5.900000e-07	-2.706051e-06	-1.512824e-08	-1.925349e+01	-9.955742e+02
6.000000e-07	-2.594740e-06	-1.485012e-08	-1.846152e+01	-9.772884e+02
6.100000e-07	-2.482378e-06	-1.455660e-08	-1.766206e+01	-9.582075e+02
6.200000e-07	-2.368961e-06	-1.424936e-08	-1.685510e+01	-9.382876e+02
6.300000e-07	-2.254468e-06	-1.393380e-08	-1.604049e+01	-9.174646e+02
6.400000e-07	-2.138956e-06	-1.360041e-08	-1.521862e+01	-8.956561e+02
6.500000e-07	-2.022601e-06	-1.325156e-08	-1.439076e+01	-8.727673e+02
6.600000e-07	-1.905424e-06	-1.287548e-08	-1.355705e+01	-8.486984e+02
6.700000e-07	-1.787614e-06	-1.248066e-08	-1.271884e+01	-8.233512e+02
6.800000e-07	-1.669349e-06	-1.207338e-08	-1.187738e+01	-7.966334e+02
6.900000e-07	-1.550585e-06	-1.164958e-08	-1.103238e+01	-7.684581e+02
7.000000e-07	-1.431230e-06	-1.120337e-08	-1.018317e+01	-7.387407e+02
7.100000e-07	-1.311273e-06	-1.072516e-08	-9.329675e+00	-7.073954e+02
7.200000e-07	-1.190916e-06	-1.022045e-08	-8.473341e+00	-6.743339e+02
7.300000e-07	-1.070227e-06	-9.683108e-09	-7.614640e+00	-6.394705e+02
7.400000e-07	-9.491383e-07	-9.118383e-09	-6.753097e+00	-6.027338e+02
7.500000e-07	-8.276958e-07	-8.529429e-09	-5.889036e+00	-5.640849e+02
7.600000e-07	-7.060040e-07	-7.913432e-09	-5.023202e+00	-5.235396e+02
7.700000e-07	-5.840767e-07	-7.266040e-09	-4.155692e+00	-4.811864e+02
7.800000e-07	-4.619536e-07	-6.594677e-09	-3.286789e+00	-4.371979e+02
7.900000e-07	-3.396648e-07	-5.905636e-09	-2.416707e+00	-3.918267e+02
8.000000e-07	-2.172056e-07	-5.199983e-09	-1.545413e+00	-3.453852e+02
8.100000e-07	-9.458382e-08	-4.484540e-09	-6.729617e-01	-2.982103e+02
8.200000e-07	2.815802e-08	-3.761071e-09	2.003436e-01	-2.506166e+02
8.300000e-07	1.509180e-07	-3.034374e-09	1.073778e+00	-2.028479e+02
8.400000e-07	2.735886e-07	-2.303419e-09	1.946577e+00	-1.550371e+02
8.500000e-07	3.961587e-07	-1.573398e-09	2.818660e+00	-1.071830e+02
8.600000e-07	5.186145e-07	-8.389325e-10	3.689930e+00	-5.915238e+01
8.700000e-07	6.408961e-07	-9.884112e-11	4.559961e+00	-1.070768e+01
8.800000e-07	7.629544e-07	6.492885e-10	5.428403e+00	3.844142e+01
8.900000e-07	8.847384e-07	1.409686e-09	6.294893e+00	8.857226e+01
9.000000e-07	1.006238e-06	2.186711e-09	7.159359e+00	1.398805e+02
9.100000e-07	1.127432e-06	2.985320e-09	8.021654e+00	1.924218e+02
9.200000e-07	1.248312e-06	3.799125e-09	8.881711e+00	2.460749e+02
9.300000e-07	1.368827e-06	4.626422e-09	9.739174e+00	3.005332e+02
9.400000e-07	1.488802e-06	5.462501e-09	1.059279e+01	3.553274e+02
9.500000e-07	1.608094e-06	6.295986e-09	1.144155e+01	4.098734e+02
9.600000e-07	1.726755e-06	7.112791e-09	1.228582e+01	4.635377e+02
9.700000e-07	1.844839e-06	7.906009e-09	1.312598e+01	5.157078e+02
9.800000e-07	1.962285e-06	8.666314e-09	1.396161e+01	5.658558e+02
9.900000e-07	2.079004e-06	9.385941e-09	1.479207e+01	6.135839e+02
1.000000e-06	2.194934e-06	1.006247e-08	1.561691e+01	6.586482e+02
1.010000e-06	2.309889e-06	1.069519e-08	1.643480e+01	7.009572e+02
1.020000e-06	2.423722e-06	1.129146e-08	1.724473e+01	7.405502e+02
1.030000e-06	2.536565e-06	1.185471e-08	1.804760e+01	7.775622e+02
1.040000e-06	2.648362e-06	1.238685e-08	1.884304e+01	8.121837e+02
1.050000e-06	2.759122e-06	1.288028e-08	1.963109e+01	8.446234e+02
1.060000e-06	2.869083e-06	1.334218e-08	2.041346e+01	8.750803e+02
1.070000e-06	2.978171e-06	1.377334e-08	2.118962e+01	9.037276e+02
1.080000e-06	3.086338e-06	1.417974e-08	2.195922e+01	9.307081e+02
1.090000e-06	3.193398e-06	1.456241e-08	2.272095e+01	9.561387e+02
1.100000e-06	3.299126e-06	1.492763e-08	2.347320e+01	9.801195e+02
1.110000e-06	3.403617e-06	1.527547e-08	2.421666e+01	1.002743e+03
1.120000e-06	3.506844e-06	1.560290e-08	2.495112e+01	1.024102e+03
1.130000e-06	3.608820e-06	1.590895e-08	2.567667e+01	1.044290e+03
1.140000e-06	3.709652e-06	1.619527e-08	2.639409e+01	1.063399e+03
1.150000e-06	3.809259e-06	1.646975e-08	2.710279e+01	1.081520e+03
1.160000e-06	3.907448e-06	1.672885e-08	2.780140e+01	1.098730e+03
1.170000e-06	4.004193e-06	1.697740e-08	2.848974e+01	1.115095e+03
1.180000e-06	4.099467e-06	1.721484e-08	2.916761e+01	1.130670e+03
1.190000e-06	4.193282e-06	1.743845e-08	2.983510e+01	1.145494e+03
1.200000e-06	4.285813e-06	1.764908e-08	3.049346e+01	1.159604e+03
1.210000e-06	4.376924e-06	1.785140e-08	3.114171e+01	1.173032e+03
1.220000e-06	4.466367e-06	1.804328e-08	3.177810e+01	1.185811e+03
1.230000e-06	4.554071e-06	1.822707e-08	3.240211e+01	1.197977e+03
1.240000e-06	4.640124e-06	1.840029e-08	3.301437e+01	1.209568e+03
1.250000e-06	4.724716e-06	1.856812e-08	3.361624e+01	1.220618e+03
1.260000e-06	4.807747e-06	1.872955e-08	3.420701e+01	1.231160e+03
1.270000e-06	4.888989e-06	1.888394e-08	3.478504e+01	1.241215e+03
1.280000e-06	4.968349e-06	1.903164e-08	3.534969e+01	1.250798e+03
1.290000e-06	5.045855e-06	1.917168e-08	3.590114e+01	1.259914e+03
1.300000e-06	5.121417e-06	1.930246e-08	3.643876e+01	1.268566e+03
1.310000e-06	5.194919e-06	1.942615e-08	3.696173e+01	1.276757e+03
1.320000e-06	5.266426e-06	1.954268e-08	3.747050e+01	1.284494e+03
1.330000e-06	5.336008e-06	1.965202e-08	3.796557e+01	1.291792e+03
1.340000e-06	5.403850e-06	1.975561e-08	3.844826e+01	1.298676e+03
1.350000e-06	5.469820e-06	1.985375e-08	3.891764e+01	1.305175e+03
1.360000e-06	5.533680e-06	1.994812e-08	3.937201e+01	1.311325e+03
1.370000e-06	5.595568e-06	2.003850e-08	3.981233e+01	1.317163e+03
1.380000e-06	5.655688e-06	2.012357e-08	4.024009e+01	1.322719e+03
1.390000e-06	5.713815e-06	2.020329e-08	4.065366e+01	1.328020e+03
1.400000e-06	5.769788e-06	2.027806e-08	4.105191e+01	1.333083e+03
1.410000e-06	5.823794e-06	2.034821e-08	4.143616e+01	1.337916e+03
1.420000e-06	5.875544e-06	2.041780e-08	4.180436e+01	1.342522e+03
1.430000e-06	5.924676e-06	2.048542e-08	4.215393e+01	1.346898e+03
1.440000e-06	5.971514e-06	2.055009e-08	4.248718e+01	1.351039e+03
1.450000e-06	6.016442e-06	2.061047e-08	4.280684e+01	1.354937e+03
1.460000e-06	6.059352e-06	2.066757e-08	4.311215e+01	1.358587e+03
1.470000e-06	6.099984e-06	2.071964e-08	4.340125e+01	1.361983e+03
1.480000e-06	6.138394e-06	2.076543e-08	4.367453e+01	1.365123e+03
1.490000e-06	6.174862e-06	2.080659e-08	4.393400e+01	1.368008e+03
1.500000e-06	6.209165e-06	2.084255e-08	4.417807e+01	1.370641e+03
1.510000e-06	6.241146e-06	2.087576e-08	4.440561e+01	1.373031e+03
1.520000e-06	6.270961e-06	2.090717e-08	4.461774e+01	1.375191e+03
1.530000e-06	6.298775e-06	2.093717e-08	4.481564e+01	1.377135e+03
1.540000e-06	6.324238e-06	2.096443e-08	4.499681e+01	1.378878e+03
1.550000e-06	6.347152e-06	2.098971e-08	4.515983e+01	1.380433e+03
1.560000e-06	6.367950e-06	2.101139e-08	4.530781e+01	1.381807e+03
1.570000e-06	6.386662e-06	2.102888e-08	4.544095e+01	1.383004e+03
1.580000e-06	6.402996e-06	2.104196e-08	4.555717e+01	1.384019e+03
1.590000e-06	6.416896e-06	2.105239e-08	4.565606e+01	1.384845e+03
1.600000e-06	6.428372e-06	2.105978e-08	4.573771e+01	1.385475e+03
1.610000e-06	6.437288e-06	2.106578e-08	4.580115e+01	1.385906e+03
1.620000e-06	6.443767e-06	2.107161e-08	4.584725e+01	1.386141e+03
1.630000e-06	6.448126e-06	2.107613e-08	4.587827e+01	1.386193e+03
1.640000e-06	6.450141e-06	2.107862e-08	4.589260e+01	1.386084e+03
1.650000e-06	6.449776e-06	2.108116e-08	4.589001e+01	1.385837e+03
1.660000e-06	6.447344e-06	2.106772e-08	4.587270e+01	1.385473e+03
1.670000e-06	6.442986e-06	2.106014e-08	4.584169e+01	1.385003e+03
1.680000e-06	6.436333e-06	2.104900e-08	4.579436e+01	1.384422e+03
1.690000e-06	6.427377e-06	2.103360e-08	4.573064e+01	1.383711e+03
1.700000e-06	6.416523e-06	2.102314e-08	4.565341e+01	1.382834e+03
1.710000e-06	6.403454e-06	2.101381e-08	4.556043e+01	1.381753e+03
1.720000e-06	6.388102e-06	2.102388e-08	4.545120e+01	1.380433e+03
1.730000e-06	6.370790e-06	2.097553e-08	4.532802e+01	1.378860e+03
1.740000e-06	6.351436e-06	2.081377e-08	4.519032e+01	1.377044e+03
1.750000e-06	6.329040e-06	2.085999e-08	4.503097e+01	1.375029e+03
1.760000e-06	6.303372e-06	2.088817e-08	4.484834e+01	1.372886e+03
1.770000e-06	6.275588e-06	2.080658e-08	4.465066e+01	1.370700e+03
1.780000e-06	6.246008e-06	2.093688e-08	4.444020e+01	1.368558e+03
1.790000e-06	6.214752e-06	2.086009e-08	4.421782e+01	1.366526e+03
1.800000e-06	6.182152e-06	2.056667e-08	4.398587e+01	1.364634e+03
1.810000e-06	6.147480e-06	2.075732e-08	4.373917e+01	1.362865e+03
1.820000e-06	6.110790e-06	2.062156e-08	4.347813e+01	1.361155e+03
1.830000e-06	6.071958e-06	2.063101e-08	4.320184e+01	1.359402e+03
1.840000e-06	6.030590e-06	2.093427e-08	4.290751e+01	1.357482e+03
1.850000e-06	5.987354e-06	2.055014e-08	4.259988e+01	1.355273e+03
1.860000e-06	5.942047e-06	2.066382e-08	4.227752e+01	1.352674e+03
1.870000e-06	5.894416e-06	2.068065e-08	4.193863e+01	1.349627e+03
1.880000e-06	5.844758e-06	2.045532e-08	4.158532e+01	1.346120e+03
1.890000e-06	5.792584e-06	2.062098e-08	4.121410e+01	1.342184e+03
1.900000e-06	5.737832e-06	2.035863e-08	4.082454e+01	1.337884e+03
1.910000e-06	5.680951e-06	2.033814e-08	4.041983e+01	1.333299e+03
1.920000e-06	5.622029e-06	2.034450e-08	4.000060e+01	1.328499e+03
1.930000e-06	5.561217e-06	2.018240e-08	3.956793e+01	1.323533e+03
1.940000e-06	5.498220e-06	2.026646e-08	3.911971e+01	1.318414e+03
1.950000e-06	5.433116e-06	1.999816e-08	3.865649e+01	1.313124e+03
1.960000e-06	5.366096e-06	2.001616e-08	3.817965e+01	1.307621e+03
1.970000e-06	5.297046e-06	1.987129e-08	3.768836e+01	1.301851e+03
1.980000e-06	5.225914e-06	1.973136e-08	3.718226e+01	1.295766e+03
1.990000e-06	5.152743e-06	1.977298e-08	3.666165e+01	1.289337e+03
2.000000e-06	5.077796e-06	1.956486e-08	3.612840e+01	1.282561e+03
2.010000e-06	5.000714e-06	1.954555e-08	3.557996e+01	1.275456e+03
2.020000e-06	4.921545e-06	1.933081e-08	3.501668e+01	1.268058e+03
2.030000e-06	4.840730e-06	1.924844e-08	3.444168e+01	1.260404e+03
2.040000e-06	4.758237e-06	1.917889e-08	3.385475e+01	1.252521e+03
2.050000e-06	4.674216e-06	1.901112e-08	3.325694e+01	1.244414e+03
2.060000e-06	4.588487e-06	1.892290e-08	3.264698e+01	1.236065e+03
2.070000e-06	4.501029e-06	1.873396e-08	3.202471e+01	1.227431e+03
2.080000e-06	4.412034e-06	1.864247e-08	3.139152e+01	1.218458e+03
2.090000e-06	4.321536e-06	1.846570e-08	3.074763e+01	1.209094e+03
2.100000e-06	4.229693e-06	1.835219e-08	3.009417e+01	1.199296e+03
2.110000e-06	4.136368e-06	1.820391e-08	2.943016e+01	1.189040e+03
2.120000e-06	4.041474e-06	1.801442e-08	2.875500e+01	1.178327e+03
2.130000e-06	3.945137e-06	1.784695e-08	2.806956e+01	1.167171e+03
2.140000e-06	3.847426e-06	1.765302e-08	2.737434e+01	1.155594e+03
2.150000e-06	3.748414e-06	1.750029e-08	2.666988e+01	1.143614e+03
2.160000e-06	3.648160e-06	1.729759e-08	2.595657e+01	1.131232e+03
2.170000e-06	3.546426e-06	1.712498e-08	2.523274e+01	1.118431e+03
2.180000e-06	3.443225e-06	1.690928e-08	2.449846e+01	1.105168e+03
2.190000e-06	3.338745e-06	1.670161e-08	2.375509e+01	1.091389e+03
2.200000e-06	3.233081e-06	1.647884e-08	2.300330e+01	1.077030e+03
2.210000e-06	3.126346e-06	1.625937e-08	2.224388e+01	1.062033e+03
2.220000e-06	3.018571e-06	1.602502e-08	2.147706e+01	1.046350e+03
2.230000e-06	2.909765e-06	1.576333e-08	2.070291e+01	1.029947e+03
2.240000e-06	2.799876e-06	1.550324e-08	1.992105e+01	1.012804e+03
2.250000e-06	2.688862e-06	1.523212e-08	1.913119e+01	9.949020e+02
2.260000e-06	2.576782e-06	1.495979e-08	1.833375e+01	9.762208e+02
2.270000e-06	2.463712e-06	1.465831e-08	1.752925e+01	9.567250e+02
2.280000e-06	2.349716e-06	1.435239e-08	1.671817e+01	9.363605e+02
2.290000e-06	2.234873e-06	1.402162e-08	1.590107e+01	9.150538e+02
2.300000e-06	2.119112e-06	1.368067e-08	1.507743e+01	8.927154e+02
2.310000e-06	2.002463e-06	1.332172e-08	1.424748e+01	8.692468e+02
2.320000e-06	1.885024e-06	1.295174e-08	1.341190e+01	8.445485e+02
2.330000e-06	1.766866e-06	1.256034e-08	1.257121e+01	8.185250e+02
2.340000e-06	1.648011e-06	1.213907e-08	1.172556e+01	7.910869e+02
2.350000e-06	1.528452e-06	1.169266e-08	1.087490e+01	7.621489e+02
2.360000e-06	1.408304e-06	1.122468e-08	1.002005e+01	7.316262e+02
2.370000e-06	1.287796e-06	1.074184e-08	9.162638e+00	6.994317e+02
2.380000e-06	1.167001e-06	1.022850e-08	8.303188e+00	6.654773e+02
2.390000e-06	1.045844e-06	9.684113e-09	7.441153e+00	6.296824e+02
2.400000e-06	9.242822e-07	9.103579e-09	6.576246e+00	5.919893e+02
2.410000e-06	8.023720e-07	8.496426e-09	5.708858e+00	5.523839e+02
2.420000e-06	6.802889e-07	7.863183e-09	4.840239e+00	5.109163e+02
2.430000e-06	5.580904e-07	7.203503e-09	3.970800e+00	4.677164e+02
2.440000e-06	4.357394e-07	6.521627e-09	3.100275e+00	4.229983e+02
2.450000e-06	3.132434e-07	5.818906e-09	2.228720e+00	3.770482e+02
2.460000e-06	1.906476e-07	5.102197e-09	1.356454e+00	3.301959e+02
2.470000e-06	6.795560e-08	4.376557e-09	4.835025e-01	2.827734e+02
2.480000e-06	-5.480090e-08	3.650947e-09	-3.899071e-01	2.350657e+02
2.490000e-06	-1.774736e-07	2.924248e-09	-1.262721e+00	1.872653e+02
2.500000e-06	-3.000752e-07	2.191771e-09	-2.135028e+00	1.394394e+02
2.510000e-06	-4.226604e-07	1.455775e-09	-3.007219e+00	9.151897e+01
2.520000e-06	-5.451726e-07	7.159023e-10	-3.878890e+00	4.331352e+01
2.530000e-06	-6.675384e-07	-3.057428e-11	-4.749520e+00	-5.448452e+00
2.540000e-06	-7.896431e-07	-7.912182e-10	-5.618292e+00	-5.505951e+01
2.550000e-06	-9.114681e-07	-1.566747e-09	-6.485074e+00	-1.057644e+02
2.560000e-06	-1.033008e-06	-2.357057e-09	-7.349828e+00	-1.576949e+02
2.570000e-06	-1.154175e-06	-3.166481e-09	-8.211926e+00	-2.108212e+02
2.580000e-06	-1.274978e-06	-3.990711e-09	-9.071439e+00	-2.649284e+02
2.590000e-06	-1.395383e-06	-4.824895e-09	-9.928115e+00	-3.196241e+02
2.600000e-06	-1.515294e-06	-5.665304e-09	-1.078128e+01	-3.743742e+02
2.610000e-06	-1.634560e-06	-6.498723e-09	-1.162986e+01	-4.285610e+02
2.620000e-06	-1.753039e-06	-7.312353e-09	-1.247283e+01	-4.815530e+02
2.630000e-06	-1.870745e-06	-8.099513e-09	-1.331031e+01	-5.327729e+02
2.640000e-06	-1.987730e-06	-8.852838e-09	-1.414265e+01	-5.817535e+02
2.650000e-06	-2.103852e-06	-9.566941e-09	-1.496886e+01	-6.281726e+02
2.660000e-06	-2.218997e-06	-1.023688e-08	-1.578811e+01	-6.718640e+02
2.670000e-06	-2.333189e-06	-1.086418e-08	-1.660059e+01	-7.128053e+02
2.680000e-06	-2.446296e-06	-1.145250e-08	-1.740534e+01	-7.510887e+02
2.690000e-06	-2.558313e-06	-1.200230e-08	-1.820234e+01	-7.868820e+02
2.700000e-06	-2.669317e-06	-1.251555e-08	-1.899213e+01	-8.203887e+02
2.710000e-06	-2.779297e-06	-1.299748e-08	-1.977463e+01	-8.518158e+02
2.720000e-06	-2.888355e-06	-1.345384e-08	-2.055058e+01	-8.813503e+02
2.730000e-06	-2.996527e-06	-1.388257e-08	-2.132022e+01	-9.091504e+02
2.740000e-06	-3.103707e-06	-1.428479e-08	-2.208280e+01	-9.353448e+02
2.750000e-06	-3.209860e-06	-1.466346e-08	-2.283808e+01	-9.600409e+02
2.760000e-06	-3.314965e-06	-1.501659e-08	-2.358590e+01	-9.833339e+02
2.770000e-06	-3.418921e-06	-1.534811e-08	-2.432555e+01	-1.005316e+03
2.780000e-06	-3.521540e-06	-1.566484e-08	-2.505567e+01	-1.026079e+03
2.790000e-06	-3.622815e-06	-1.596656e-08	-2.577624e+01	-1.045719e+03
2.800000e-06	-3.722761e-06	-1.625407e-08	-2.648736e+01	-1.064325e+03
2.810000e-06	-3.821423e-06	-1.652745e-08	-2.718934e+01	-1.081984e+03
2.820000e-06	-3.918835e-06	-1.678574e-08	-2.788242e+01	-1.098766e+03
2.830000e-06	-4.014924e-06	-1.703118e-08	-2.856609e+01	-1.114733e+03
2.840000e-06	-4.109619e-06	-1.726466e-08	-2.923984e+01	-1.129930e+03
2.850000e-06	-4.202789e-06	-1.748807e-08	-2.990274e+01	-1.144395e+03
2.860000e-06	-4.294446e-06	-1.770275e-08	-3.055489e+01	-1.158162e+03
2.870000e-06	-4.384559e-06	-1.790630e-08	-3.119604e+01	-1.171263e+03
2.880000e-06	-4.473104e-06	-1.809726e-08	-3.182603e+01	-1.183733e+03
2.890000e-06	-4.560003e-06	-1.827817e-08	-3.244432e+01	-1.195609e+03
2.900000e-06	-4.645148e-06	-1.845084e-08	-3.305012e+01	-1.206928e+03
2.910000e-06	-4.728634e-06	-1.861581e-08	-3.364412e+01	-1.217723e+03
2.920000e-06	-4.810497e-06	-1.877342e-08	-3.422658e+01	-1.228021e+03
2.930000e-06	-4.890687e-06	-1.892489e-08	-3.479713e+01	-1.237841e+03
2.940000e-06	-4.968963e-06	-1.906791e-08	-3.535405e+01	-1.247192e+03
