# Temperatura_=_89.23
# Concentracion g/m^3_=_28200.0
# C_Vs_to_Am_M_A/Vsm_=_65563218390.804596
# pendiente_HvsI_1/m_=_3716.3
# ordenada_HvsI_A/m_=_1297.0
# frecuencia_Hz_=_302095.84585121635

Tiempo_(s)	Campo_(V.s)	Magnetizacion_(V.s)	Campo_(kA/m)	Magnetizacion_(A/m)
0.000000e+00	-6.404933e-06	-2.511998e-08	-4.558031e+01	-1.643905e+03
1.000000e-08	-6.401607e-06	-2.511093e-08	-4.555665e+01	-1.643402e+03
2.000000e-08	-6.396148e-06	-2.509841e-08	-4.551780e+01	-1.642745e+03
3.000000e-08	-6.388746e-06	-2.508575e-08	-4.546512e+01	-1.641917e+03
4.000000e-08	-6.379254e-06	-2.506879e-08	-4.539757e+01	-1.640892e+03
5.000000e-08	-6.367378e-06	-2.504907e-08	-4.531306e+01	-1.639640e+03
6.000000e-08	-6.353079e-06	-2.502648e-08	-4.521130e+01	-1.638135e+03
7.000000e-08	-6.336479e-06	-2.499801e-08	-4.509316e+01	-1.636368e+03
8.000000e-08	-6.317890e-06	-2.498615e-08	-4.496088e+01	-1.634349e+03
9.000000e-08	-6.297199e-06	-2.500352e-08	-4.481364e+01	-1.632116e+03
1.000000e-07	-6.274082e-06	-2.494271e-08	-4.464912e+01	-1.629725e+03
1.100000e-07	-6.248311e-06	-2.486409e-08	-4.446573e+01	-1.627244e+03
1.200000e-07	-6.220124e-06	-2.483165e-08	-4.426513e+01	-1.624735e+03
1.300000e-07	-6.190099e-06	-2.476624e-08	-4.405146e+01	-1.622240e+03
1.400000e-07	-6.158532e-06	-2.467458e-08	-4.382682e+01	-1.619767e+03
1.500000e-07	-6.125126e-06	-2.473311e-08	-4.358909e+01	-1.617286e+03
1.600000e-07	-6.089630e-06	-2.468765e-08	-4.333648e+01	-1.614725e+03
1.700000e-07	-6.052295e-06	-2.454611e-08	-4.307079e+01	-1.611990e+03
1.800000e-07	-6.012983e-06	-2.459032e-08	-4.279103e+01	-1.608973e+03
1.900000e-07	-5.971219e-06	-2.447173e-08	-4.249381e+01	-1.605582e+03
2.000000e-07	-5.927195e-06	-2.439473e-08	-4.218052e+01	-1.601751e+03
2.100000e-07	-5.881184e-06	-2.438788e-08	-4.185309e+01	-1.597459e+03
2.200000e-07	-5.832825e-06	-2.422263e-08	-4.150894e+01	-1.592728e+03
2.300000e-07	-5.781878e-06	-2.414652e-08	-4.114638e+01	-1.587619e+03
2.400000e-07	-5.728445e-06	-2.410571e-08	-4.076613e+01	-1.582213e+03
2.500000e-07	-5.672944e-06	-2.403009e-08	-4.037116e+01	-1.576590e+03
2.600000e-07	-5.615274e-06	-2.395521e-08	-3.996075e+01	-1.570812e+03
2.700000e-07	-5.555363e-06	-2.385720e-08	-3.953440e+01	-1.564906e+03
2.800000e-07	-5.493507e-06	-2.375595e-08	-3.909421e+01	-1.558858e+03
2.900000e-07	-5.429688e-06	-2.361357e-08	-3.864005e+01	-1.552621e+03
3.000000e-07	-5.363715e-06	-2.354503e-08	-3.817055e+01	-1.546126e+03
3.100000e-07	-5.295627e-06	-2.348612e-08	-3.768601e+01	-1.539298e+03
3.200000e-07	-5.225593e-06	-2.335796e-08	-3.718761e+01	-1.532080e+03
3.300000e-07	-5.153831e-06	-2.322399e-08	-3.667692e+01	-1.524440e+03
3.400000e-07	-5.080125e-06	-2.307316e-08	-3.615240e+01	-1.516382e+03
3.500000e-07	-5.004183e-06	-2.296086e-08	-3.561196e+01	-1.507937e+03
3.600000e-07	-4.926175e-06	-2.283516e-08	-3.505682e+01	-1.499153e+03
3.700000e-07	-4.846095e-06	-2.271321e-08	-3.448694e+01	-1.490078e+03
3.800000e-07	-4.764211e-06	-2.258792e-08	-3.390422e+01	-1.480745e+03
3.900000e-07	-4.680937e-06	-2.241118e-08	-3.331160e+01	-1.471160e+03
4.000000e-07	-4.596312e-06	-2.223837e-08	-3.270938e+01	-1.461298e+03
4.100000e-07	-4.510187e-06	-2.208605e-08	-3.209647e+01	-1.451111e+03
4.200000e-07	-4.422650e-06	-2.194370e-08	-3.147352e+01	-1.440536e+03
4.300000e-07	-4.333528e-06	-2.177274e-08	-3.083929e+01	-1.429511e+03
4.400000e-07	-4.242680e-06	-2.159194e-08	-3.019277e+01	-1.417991e+03
4.500000e-07	-4.150311e-06	-2.140940e-08	-2.953543e+01	-1.405954e+03
4.600000e-07	-4.056467e-06	-2.120862e-08	-2.886760e+01	-1.393401e+03
4.700000e-07	-3.961259e-06	-2.101745e-08	-2.819006e+01	-1.380351e+03
4.800000e-07	-3.864670e-06	-2.082422e-08	-2.750269e+01	-1.366831e+03
4.900000e-07	-3.766548e-06	-2.061103e-08	-2.680441e+01	-1.352858e+03
5.000000e-07	-3.667015e-06	-2.037593e-08	-2.609609e+01	-1.338432e+03
5.100000e-07	-3.566175e-06	-2.013965e-08	-2.537847e+01	-1.323526e+03
5.200000e-07	-3.464079e-06	-1.990338e-08	-2.465191e+01	-1.308092e+03
5.300000e-07	-3.360866e-06	-1.965791e-08	-2.391740e+01	-1.292067e+03
5.400000e-07	-3.256333e-06	-1.940600e-08	-2.317350e+01	-1.275382e+03
5.500000e-07	-3.150350e-06	-1.914054e-08	-2.241927e+01	-1.257978e+03
5.600000e-07	-3.043179e-06	-1.886136e-08	-2.165660e+01	-1.239810e+03
5.700000e-07	-2.934884e-06	-1.856957e-08	-2.088592e+01	-1.220852e+03
5.800000e-07	-2.825493e-06	-1.827132e-08	-2.010745e+01	-1.201088e+03
5.900000e-07	-2.715194e-06	-1.795922e-08	-1.932251e+01	-1.180503e+03
6.000000e-07	-2.604041e-06	-1.762743e-08	-1.853150e+01	-1.159072e+03
6.100000e-07	-2.491869e-06	-1.728001e-08	-1.773323e+01	-1.136749e+03
6.200000e-07	-2.378516e-06	-1.692066e-08	-1.692656e+01	-1.113459e+03
6.300000e-07	-2.264070e-06	-1.654924e-08	-1.611212e+01	-1.089105e+03
6.400000e-07	-2.148615e-06	-1.616004e-08	-1.529049e+01	-1.063569e+03
6.500000e-07	-2.032260e-06	-1.575063e-08	-1.446246e+01	-1.036731e+03
6.600000e-07	-1.915225e-06	-1.531507e-08	-1.362958e+01	-1.008472e+03
6.700000e-07	-1.797542e-06	-1.485699e-08	-1.279210e+01	-9.786880e+02
6.800000e-07	-1.679295e-06	-1.438015e-08	-1.195060e+01	-9.472860e+02
6.900000e-07	-1.560562e-06	-1.387906e-08	-1.110564e+01	-9.141786e+02
7.000000e-07	-1.441318e-06	-1.334854e-08	-1.025705e+01	-8.792744e+02
7.100000e-07	-1.321558e-06	-1.278444e-08	-9.404788e+00	-8.424674e+02
7.200000e-07	-1.201262e-06	-1.218890e-08	-8.548711e+00	-8.036334e+02
7.300000e-07	-1.080511e-06	-1.155877e-08	-7.689391e+00	-7.626363e+02
7.400000e-07	-9.593357e-07	-1.089620e-08	-6.827054e+00	-7.193462e+02
7.500000e-07	-8.378132e-07	-1.020358e-08	-5.962246e+00	-6.736676e+02
7.600000e-07	-7.160407e-07	-9.473923e-09	-5.095660e+00	-6.255718e+02
7.700000e-07	-5.940370e-07	-8.702333e-09	-4.227428e+00	-5.751263e+02
7.800000e-07	-4.718461e-07	-7.896446e-09	-3.357864e+00	-5.225111e+02
7.900000e-07	-3.494972e-07	-7.065708e-09	-2.487175e+00	-4.680160e+02
8.000000e-07	-2.270386e-07	-6.212567e-09	-1.615706e+00	-4.120145e+02
8.100000e-07	-1.044586e-07	-5.343566e-09	-7.433735e-01	-3.549172e+02
8.200000e-07	1.822026e-08	-4.465235e-09	1.296634e-01	-2.971118e+02
8.300000e-07	1.408892e-07	-3.580122e-09	1.002630e+00	-2.389010e+02
8.400000e-07	2.635271e-07	-2.688892e-09	1.875374e+00	-1.804517e+02
8.500000e-07	3.861034e-07	-1.794817e-09	2.747681e+00	-1.217687e+02
8.600000e-07	5.085377e-07	-8.944752e-10	3.618977e+00	-6.269911e+01
8.700000e-07	6.308144e-07	1.639728e-11	4.489152e+00	-2.971492e+00
8.800000e-07	7.529134e-07	9.413668e-10	5.358062e+00	5.773774e+01
8.900000e-07	8.748257e-07	1.883619e-09	6.225644e+00	1.197210e+02
9.000000e-07	9.965364e-07	2.845597e-09	7.091790e+00	1.831551e+02
9.100000e-07	1.117954e-06	3.830339e-09	7.955854e+00	2.480330e+02
9.200000e-07	1.238971e-06	4.834191e-09	8.817063e+00	3.141240e+02
9.300000e-07	1.359480e-06	5.850326e-09	9.674655e+00	3.809721e+02
9.400000e-07	1.479415e-06	6.870728e-09	1.052817e+01	4.479315e+02
9.500000e-07	1.598700e-06	7.883471e-09	1.137705e+01	5.142340e+02
9.600000e-07	1.717338e-06	8.872776e-09	1.222133e+01	5.790758e+02
9.700000e-07	1.835408e-06	9.824414e-09	1.306157e+01	6.417063e+02
9.800000e-07	1.952901e-06	1.072967e-08	1.389770e+01	7.015055e+02
9.900000e-07	2.069663e-06	1.158364e-08	1.472863e+01	7.580370e+02
1.000000e-06	2.185617e-06	1.238410e-08	1.555381e+01	8.110694e+02
1.010000e-06	2.300640e-06	1.313147e-08	1.637237e+01	8.605669e+02
1.020000e-06	2.414628e-06	1.382833e-08	1.718356e+01	9.066542e+02
1.030000e-06	2.527603e-06	1.447941e-08	1.798753e+01	9.495655e+02
1.040000e-06	2.639425e-06	1.508996e-08	1.878331e+01	9.895896e+02
1.050000e-06	2.750212e-06	1.566043e-08	1.957172e+01	1.027021e+03
1.060000e-06	2.860176e-06	1.619375e-08	2.035427e+01	1.062126e+03
1.070000e-06	2.969270e-06	1.669229e-08	2.113063e+01	1.095122e+03
1.080000e-06	3.077473e-06	1.716015e-08	2.190065e+01	1.126180e+03
1.090000e-06	3.184589e-06	1.760230e-08	2.266293e+01	1.155431e+03
1.100000e-06	3.290481e-06	1.801930e-08	2.341651e+01	1.182987e+03
1.110000e-06	3.395130e-06	1.841262e-08	2.416123e+01	1.208949e+03
1.120000e-06	3.498449e-06	1.878430e-08	2.489650e+01	1.233425e+03
1.130000e-06	3.600537e-06	1.913643e-08	2.562300e+01	1.256532e+03
1.140000e-06	3.701459e-06	1.947004e-08	2.634121e+01	1.278388e+03
1.150000e-06	3.801127e-06	1.978729e-08	2.705049e+01	1.299112e+03
1.160000e-06	3.899415e-06	2.008795e-08	2.774995e+01	1.318807e+03
1.170000e-06	3.996216e-06	2.037153e-08	2.843882e+01	1.337561e+03
1.180000e-06	4.091467e-06	2.063996e-08	2.911667e+01	1.355437e+03
1.190000e-06	4.185267e-06	2.089657e-08	2.978420e+01	1.372480e+03
1.200000e-06	4.277786e-06	2.114083e-08	3.044260e+01	1.388721e+03
1.210000e-06	4.368920e-06	2.137438e-08	3.109115e+01	1.404185e+03
1.220000e-06	4.458454e-06	2.159797e-08	3.172832e+01	1.418901e+03
1.230000e-06	4.546233e-06	2.180949e-08	3.235299e+01	1.432901e+03
1.240000e-06	4.632332e-06	2.200938e-08	3.296571e+01	1.446229e+03
1.250000e-06	4.716986e-06	2.220069e-08	3.356814e+01	1.458933e+03
1.260000e-06	4.800129e-06	2.238470e-08	3.415983e+01	1.471064e+03
1.270000e-06	4.881547e-06	2.256143e-08	3.473923e+01	1.482666e+03
1.280000e-06	4.961052e-06	2.273084e-08	3.530502e+01	1.493777e+03
1.290000e-06	5.038656e-06	2.289290e-08	3.585729e+01	1.504419e+03
1.300000e-06	5.114374e-06	2.304948e-08	3.639613e+01	1.514603e+03
1.310000e-06	5.188100e-06	2.319849e-08	3.692080e+01	1.524330e+03
1.320000e-06	5.259843e-06	2.333944e-08	3.743135e+01	1.533593e+03
1.330000e-06	5.329678e-06	2.347378e-08	3.792833e+01	1.542386e+03
1.340000e-06	5.397608e-06	2.360126e-08	3.841175e+01	1.550705e+03
1.350000e-06	5.463595e-06	2.372128e-08	3.888134e+01	1.558555e+03
1.360000e-06	5.527576e-06	2.383543e-08	3.933666e+01	1.565950e+03
1.370000e-06	5.589600e-06	2.394329e-08	3.977805e+01	1.572912e+03
1.380000e-06	5.649832e-06	2.404329e-08	4.020669e+01	1.579472e+03
1.390000e-06	5.708181e-06	2.413726e-08	4.062192e+01	1.585663e+03
1.400000e-06	5.764398e-06	2.422570e-08	4.102199e+01	1.591521e+03
1.410000e-06	5.818531e-06	2.430949e-08	4.140722e+01	1.597080e+03
1.420000e-06	5.870422e-06	2.439058e-08	4.177650e+01	1.602370e+03
1.430000e-06	5.919793e-06	2.446821e-08	4.212784e+01	1.607410e+03
1.440000e-06	5.966835e-06	2.454090e-08	4.246262e+01	1.612215e+03
1.450000e-06	6.011841e-06	2.460979e-08	4.278290e+01	1.616785e+03
1.460000e-06	6.054908e-06	2.467680e-08	4.308938e+01	1.621118e+03
1.470000e-06	6.095750e-06	2.474038e-08	4.338003e+01	1.625201e+03
1.480000e-06	6.134338e-06	2.479910e-08	4.365464e+01	1.629019e+03
1.490000e-06	6.170976e-06	2.485307e-08	4.391537e+01	1.632559e+03
1.500000e-06	6.205517e-06	2.490136e-08	4.416118e+01	1.635810e+03
1.510000e-06	6.237710e-06	2.494469e-08	4.439029e+01	1.638769e+03
1.520000e-06	6.267710e-06	2.498456e-08	4.460378e+01	1.641438e+03
1.530000e-06	6.295626e-06	2.502025e-08	4.480244e+01	1.643829e+03
1.540000e-06	6.321178e-06	2.505147e-08	4.498428e+01	1.645954e+03
1.550000e-06	6.344276e-06	2.507990e-08	4.514865e+01	1.647829e+03
1.560000e-06	6.365192e-06	2.510597e-08	4.529750e+01	1.649467e+03
1.570000e-06	6.384046e-06	2.512864e-08	4.543168e+01	1.650877e+03
1.580000e-06	6.400597e-06	2.514570e-08	4.554946e+01	1.652062e+03
1.590000e-06	6.414695e-06	2.515926e-08	4.564978e+01	1.653021e+03
1.600000e-06	6.426339e-06	2.517141e-08	4.573265e+01	1.653753e+03
1.610000e-06	6.435445e-06	2.518088e-08	4.579745e+01	1.654259e+03
1.620000e-06	6.442122e-06	2.518677e-08	4.584497e+01	1.654547e+03
1.630000e-06	6.446620e-06	2.518958e-08	4.587698e+01	1.654629e+03
1.640000e-06	6.448815e-06	2.519155e-08	4.589260e+01	1.654524e+03
1.650000e-06	6.448630e-06	2.519012e-08	4.589128e+01	1.654249e+03
1.660000e-06	6.446289e-06	2.517931e-08	4.587463e+01	1.653819e+03
1.670000e-06	6.441974e-06	2.516898e-08	4.584391e+01	1.653238e+03
1.680000e-06	6.435479e-06	2.515773e-08	4.579770e+01	1.652495e+03
1.690000e-06	6.426788e-06	2.514336e-08	4.573585e+01	1.651570e+03
1.700000e-06	6.416160e-06	2.512736e-08	4.566021e+01	1.650433e+03
1.710000e-06	6.403358e-06	2.511058e-08	4.556911e+01	1.649054e+03
1.720000e-06	6.388216e-06	2.509890e-08	4.546135e+01	1.647416e+03
1.730000e-06	6.371050e-06	2.504872e-08	4.533919e+01	1.645517e+03
1.740000e-06	6.351836e-06	2.495850e-08	4.520245e+01	1.643382e+03
1.750000e-06	6.329746e-06	2.494930e-08	4.504525e+01	1.641060e+03
1.760000e-06	6.304444e-06	2.494246e-08	4.486519e+01	1.638613e+03
1.770000e-06	6.276777e-06	2.489345e-08	4.466830e+01	1.636108e+03
1.780000e-06	6.247350e-06	2.492801e-08	4.445888e+01	1.633600e+03
1.790000e-06	6.216285e-06	2.488505e-08	4.423782e+01	1.631115e+03
1.800000e-06	6.183779e-06	2.474138e-08	4.400648e+01	1.628642e+03
1.810000e-06	6.149288e-06	2.475246e-08	4.376103e+01	1.626129e+03
1.820000e-06	6.112761e-06	2.470976e-08	4.350109e+01	1.623491e+03
1.830000e-06	6.074153e-06	2.473309e-08	4.322634e+01	1.620626e+03
1.840000e-06	6.033064e-06	2.478359e-08	4.293393e+01	1.617430e+03
1.850000e-06	5.989956e-06	2.457723e-08	4.262716e+01	1.613821e+03
1.860000e-06	5.944810e-06	2.456249e-08	4.230588e+01	1.609757e+03
1.870000e-06	5.897446e-06	2.453664e-08	4.196881e+01	1.605238e+03
1.880000e-06	5.847994e-06	2.441258e-08	4.161689e+01	1.600306e+03
1.890000e-06	5.796003e-06	2.438819e-08	4.124690e+01	1.595035e+03
1.900000e-06	5.741430e-06	2.420954e-08	4.085854e+01	1.589509e+03
1.910000e-06	5.684722e-06	2.415270e-08	4.045498e+01	1.583800e+03
1.920000e-06	5.625993e-06	2.411659e-08	4.003704e+01	1.577955e+03
1.930000e-06	5.565408e-06	2.401288e-08	3.960589e+01	1.571979e+03
1.940000e-06	5.502619e-06	2.396772e-08	3.915906e+01	1.565842e+03
1.950000e-06	5.437659e-06	2.377899e-08	3.869677e+01	1.559483e+03
1.960000e-06	5.370811e-06	2.369689e-08	3.822105e+01	1.552827e+03
1.970000e-06	5.302005e-06	2.357082e-08	3.773139e+01	1.545807e+03
1.980000e-06	5.231090e-06	2.344692e-08	3.722674e+01	1.538377e+03
1.990000e-06	5.158041e-06	2.339604e-08	3.670689e+01	1.530524e+03
2.000000e-06	5.083225e-06	2.325184e-08	3.617446e+01	1.522264e+03
2.010000e-06	5.006371e-06	2.313457e-08	3.562753e+01	1.513641e+03
2.020000e-06	4.927377e-06	2.293734e-08	3.506538e+01	1.504703e+03
2.030000e-06	4.846614e-06	2.281656e-08	3.449063e+01	1.495494e+03
2.040000e-06	4.764265e-06	2.271085e-08	3.390460e+01	1.486033e+03
2.050000e-06	4.680427e-06	2.255140e-08	3.330797e+01	1.476312e+03
2.060000e-06	4.594827e-06	2.240386e-08	3.269881e+01	1.466292e+03
2.070000e-06	4.507493e-06	2.221930e-08	3.207730e+01	1.455917e+03
2.080000e-06	4.418577e-06	2.206511e-08	3.144453e+01	1.445121e+03
2.090000e-06	4.328161e-06	2.188071e-08	3.080109e+01	1.433851e+03
2.100000e-06	4.236435e-06	2.172516e-08	3.014833e+01	1.422071e+03
2.110000e-06	4.143270e-06	2.154501e-08	2.948533e+01	1.409771e+03
2.120000e-06	4.048522e-06	2.133766e-08	2.881106e+01	1.396964e+03
2.130000e-06	3.952331e-06	2.113068e-08	2.812652e+01	1.383674e+03
2.140000e-06	3.854811e-06	2.091528e-08	2.743253e+01	1.369924e+03
2.150000e-06	3.755903e-06	2.071026e-08	2.672865e+01	1.355723e+03
2.160000e-06	3.655724e-06	2.048231e-08	2.601574e+01	1.341059e+03
2.170000e-06	3.554175e-06	2.026506e-08	2.529307e+01	1.325894e+03
2.180000e-06	3.451111e-06	2.002111e-08	2.455962e+01	1.310170e+03
2.190000e-06	3.346709e-06	1.976967e-08	2.381665e+01	1.293821e+03
2.200000e-06	3.241165e-06	1.950930e-08	2.306556e+01	1.276780e+03
2.210000e-06	3.134516e-06	1.924518e-08	2.230659e+01	1.258996e+03
2.220000e-06	3.026769e-06	1.896268e-08	2.153981e+01	1.240434e+03
2.230000e-06	2.918012e-06	1.866068e-08	2.076586e+01	1.221071e+03
2.240000e-06	2.808280e-06	1.835753e-08	1.998495e+01	1.200896e+03
2.250000e-06	2.697474e-06	1.804476e-08	1.919641e+01	1.179890e+03
2.260000e-06	2.585591e-06	1.771765e-08	1.840020e+01	1.158018e+03
2.270000e-06	2.472696e-06	1.736642e-08	1.759679e+01	1.135220e+03
2.280000e-06	2.358790e-06	1.700339e-08	1.678618e+01	1.111409e+03
2.290000e-06	2.243981e-06	1.662042e-08	1.596916e+01	1.086476e+03
2.300000e-06	2.128376e-06	1.622345e-08	1.514646e+01	1.060302e+03
2.310000e-06	2.011929e-06	1.580665e-08	1.431777e+01	1.032765e+03
2.320000e-06	1.894542e-06	1.537003e-08	1.348239e+01	1.003753e+03
2.330000e-06	1.776379e-06	1.490520e-08	1.264149e+01	9.731684e+02
2.340000e-06	1.657585e-06	1.440867e-08	1.179610e+01	9.409221e+02
2.350000e-06	1.538160e-06	1.388749e-08	1.094622e+01	9.069259e+02
2.360000e-06	1.418152e-06	1.334366e-08	1.009219e+01	8.710820e+02
2.370000e-06	1.297713e-06	1.277423e-08	9.235099e+00	8.332755e+02
2.380000e-06	1.176956e-06	1.216744e-08	8.375733e+00	7.933745e+02
2.390000e-06	1.055849e-06	1.152174e-08	7.513883e+00	7.512432e+02
2.400000e-06	9.343543e-07	1.083793e-08	6.649276e+00	7.067648e+02
2.410000e-06	8.125259e-07	1.012129e-08	5.782291e+00	6.598731e+02
2.420000e-06	6.904686e-07	9.371025e-09	4.913678e+00	6.105846e+02
2.430000e-06	5.681915e-07	8.588379e-09	4.043500e+00	5.590220e+02
2.440000e-06	4.457467e-07	7.775335e-09	3.172129e+00	5.054219e+02
2.450000e-06	3.231915e-07	6.931296e-09	2.299973e+00	4.501207e+02
2.460000e-06	2.005258e-07	6.062360e-09	1.427029e+00	3.935173e+02
2.470000e-06	7.779874e-08	5.181490e-09	5.536500e-01	3.360189e+02
2.480000e-06	-4.493773e-08	4.298535e-09	-3.197967e-01	2.779779e+02
2.490000e-06	-1.677099e-07	3.411466e-09	-1.193497e+00	2.196343e+02
2.500000e-06	-2.904393e-07	2.515737e-09	-2.066893e+00	1.610753e+02
2.510000e-06	-4.130512e-07	1.611966e-09	-2.939453e+00	1.022242e+02
2.520000e-06	-5.355492e-07	7.000580e-10	-3.811203e+00	4.286204e+01
2.530000e-06	-6.579118e-07	-2.209579e-10	-4.681989e+00	-1.731843e+01
2.540000e-06	-7.801321e-07	-1.157458e-09	-5.551763e+00	-7.863604e+01
2.550000e-06	-9.020975e-07	-2.113149e-09	-6.419722e+00	-1.413354e+02
2.560000e-06	-1.023699e-06	-3.090027e-09	-7.285094e+00	-2.055083e+02
2.570000e-06	-1.144946e-06	-4.090743e-09	-8.147937e+00	-2.710387e+02
2.580000e-06	-1.265766e-06	-5.107324e-09	-9.007746e+00	-3.375810e+02
2.590000e-06	-1.386120e-06	-6.132125e-09	-9.864236e+00	-4.045775e+02
2.600000e-06	-1.505942e-06	-7.157118e-09	-1.071695e+01	-4.713115e+02
2.610000e-06	-1.625088e-06	-8.168843e-09	-1.156484e+01	-5.369854e+02
2.620000e-06	-1.743581e-06	-9.149115e-09	-1.240809e+01	-6.008114e+02
2.630000e-06	-1.861441e-06	-1.008578e-08	-1.324683e+01	-6.620957e+02
2.640000e-06	-1.978462e-06	-1.097515e-08	-1.407960e+01	-7.203055e+02
2.650000e-06	-2.094555e-06	-1.181312e-08	-1.490578e+01	-7.751061e+02
2.660000e-06	-2.209694e-06	-1.259739e-08	-1.572515e+01	-8.263671e+02
2.670000e-06	-2.323802e-06	-1.333065e-08	-1.653720e+01	-8.741383e+02
2.680000e-06	-2.436878e-06	-1.401411e-08	-1.734189e+01	-9.186063e+02
2.690000e-06	-2.548930e-06	-1.464985e-08	-1.813930e+01	-9.600391e+02
2.700000e-06	-2.659856e-06	-1.524538e-08	-1.892870e+01	-9.987339e+02
2.710000e-06	-2.769716e-06	-1.580604e-08	-1.971051e+01	-1.034974e+03
2.720000e-06	-2.878799e-06	-1.633214e-08	-2.048680e+01	-1.069003e+03
2.730000e-06	-2.986980e-06	-1.682234e-08	-2.125666e+01	-1.101014e+03
2.740000e-06	-3.094198e-06	-1.728153e-08	-2.201967e+01	-1.131156e+03
2.750000e-06	-3.200492e-06	-1.771202e-08	-2.277611e+01	-1.159549e+03
2.760000e-06	-3.305726e-06	-1.811673e-08	-2.352499e+01	-1.186298e+03
2.770000e-06	-3.409707e-06	-1.850276e-08	-2.426497e+01	-1.211506e+03
2.780000e-06	-3.512369e-06	-1.886997e-08	-2.499556e+01	-1.235285e+03
2.790000e-06	-3.613716e-06	-1.921656e-08	-2.571679e+01	-1.257754e+03
2.800000e-06	-3.713670e-06	-1.954304e-08	-2.642810e+01	-1.279033e+03
2.810000e-06	-3.812371e-06	-1.985297e-08	-2.713051e+01	-1.299233e+03
2.820000e-06	-3.909932e-06	-2.014879e-08	-2.782479e+01	-1.318450e+03
2.830000e-06	-4.006228e-06	-2.042935e-08	-2.851008e+01	-1.336761e+03
2.840000e-06	-4.101071e-06	-2.069420e-08	-2.918502e+01	-1.354218e+03
2.850000e-06	-4.194379e-06	-2.094549e-08	-2.984904e+01	-1.370860e+03
2.860000e-06	-4.286175e-06	-2.118568e-08	-3.050230e+01	-1.386712e+03
2.870000e-06	-4.376454e-06	-2.141787e-08	-3.114477e+01	-1.401801e+03
2.880000e-06	-4.465172e-06	-2.164185e-08	-3.177612e+01	-1.416157e+03
2.890000e-06	-4.552153e-06	-2.185495e-08	-3.239512e+01	-1.429818e+03
2.900000e-06	-4.637340e-06	-2.205845e-08	-3.300135e+01	-1.442830e+03
2.910000e-06	-4.720948e-06	-2.225230e-08	-3.359634e+01	-1.455244e+03
2.920000e-06	-4.803013e-06	-2.243359e-08	-3.418035e+01	-1.467107e+03
2.930000e-06	-4.883382e-06	-2.260490e-08	-3.475229e+01	-1.478463e+03
2.940000e-06	-4.961853e-06	-2.276849e-08	-3.531073e+01	-1.489340e+03
