# Temperatura_=_76.29
# Concentracion g/m^3_=_28200.0
# C_Vs_to_Am_M_A/Vsm_=_65563218390.804596
# pendiente_HvsI_1/m_=_3716.3
# ordenada_HvsI_A/m_=_1297.0
# frecuencia_Hz_=_302095.0823591537

Tiempo_(s)	Campo_(V.s)	Magnetizacion_(V.s)	Campo_(kA/m)	Magnetizacion_(A/m)
0.000000e+00	-6.363687e-06	-2.366677e-08	-4.559014e+01	-1.550251e+03
1.000000e-08	-6.361942e-06	-2.366749e-08	-4.557764e+01	-1.549837e+03
2.000000e-08	-6.358007e-06	-2.366136e-08	-4.554945e+01	-1.549267e+03
3.000000e-08	-6.352032e-06	-2.364964e-08	-4.550664e+01	-1.548553e+03
4.000000e-08	-6.344140e-06	-2.363821e-08	-4.545010e+01	-1.547696e+03
5.000000e-08	-6.334076e-06	-2.362190e-08	-4.537800e+01	-1.546690e+03
6.000000e-08	-6.321526e-06	-2.360104e-08	-4.528810e+01	-1.545514e+03
7.000000e-08	-6.306665e-06	-2.357004e-08	-4.518163e+01	-1.544146e+03
8.000000e-08	-6.289554e-06	-2.352807e-08	-4.505904e+01	-1.542564e+03
9.000000e-08	-6.270380e-06	-2.353463e-08	-4.492168e+01	-1.540754e+03
1.000000e-07	-6.249047e-06	-2.359895e-08	-4.476885e+01	-1.538720e+03
1.100000e-07	-6.225253e-06	-2.350131e-08	-4.459838e+01	-1.536486e+03
1.200000e-07	-6.198874e-06	-2.341094e-08	-4.440940e+01	-1.534092e+03
1.300000e-07	-6.170249e-06	-2.341410e-08	-4.420433e+01	-1.531589e+03
1.400000e-07	-6.139875e-06	-2.332029e-08	-4.398672e+01	-1.529025e+03
1.500000e-07	-6.108015e-06	-2.320440e-08	-4.375848e+01	-1.526438e+03
1.600000e-07	-6.074341e-06	-2.340403e-08	-4.351723e+01	-1.523840e+03
1.700000e-07	-6.038579e-06	-2.328714e-08	-4.326103e+01	-1.521214e+03
1.800000e-07	-6.000967e-06	-2.310117e-08	-4.299158e+01	-1.518513e+03
1.900000e-07	-5.961185e-06	-2.326777e-08	-4.270657e+01	-1.515670e+03
2.000000e-07	-5.918900e-06	-2.302213e-08	-4.240364e+01	-1.512608e+03
2.100000e-07	-5.874452e-06	-2.299222e-08	-4.208521e+01	-1.509253e+03
2.200000e-07	-5.827956e-06	-2.302159e-08	-4.175210e+01	-1.505555e+03
2.300000e-07	-5.779169e-06	-2.280066e-08	-4.140259e+01	-1.501487e+03
2.400000e-07	-5.727886e-06	-2.281264e-08	-4.103519e+01	-1.497055e+03
2.500000e-07	-5.674107e-06	-2.275753e-08	-4.064991e+01	-1.492287e+03
2.600000e-07	-5.618272e-06	-2.266355e-08	-4.024990e+01	-1.487228e+03
2.700000e-07	-5.560289e-06	-2.262257e-08	-3.983451e+01	-1.481919e+03
2.800000e-07	-5.500158e-06	-2.249640e-08	-3.940373e+01	-1.476392e+03
2.900000e-07	-5.438104e-06	-2.240220e-08	-3.895916e+01	-1.470657e+03
3.000000e-07	-5.374071e-06	-2.227583e-08	-3.850042e+01	-1.464703e+03
3.100000e-07	-5.307979e-06	-2.224137e-08	-3.802693e+01	-1.458498e+03
3.200000e-07	-5.239830e-06	-2.215870e-08	-3.753870e+01	-1.452006e+03
3.300000e-07	-5.169737e-06	-2.203085e-08	-3.703655e+01	-1.445191e+03
3.400000e-07	-5.097857e-06	-2.192028e-08	-3.652160e+01	-1.438030e+03
3.500000e-07	-5.024122e-06	-2.175234e-08	-3.599335e+01	-1.430521e+03
3.600000e-07	-4.948232e-06	-2.167294e-08	-3.544966e+01	-1.422679e+03
3.700000e-07	-4.870191e-06	-2.154822e-08	-3.489057e+01	-1.414531e+03
3.800000e-07	-4.790131e-06	-2.143157e-08	-3.431701e+01	-1.406104e+03
3.900000e-07	-4.708306e-06	-2.131546e-08	-3.373081e+01	-1.397419e+03
4.000000e-07	-4.624974e-06	-2.113825e-08	-3.313381e+01	-1.388474e+03
4.100000e-07	-4.540271e-06	-2.098612e-08	-3.252699e+01	-1.379247e+03
4.200000e-07	-4.454100e-06	-2.085307e-08	-3.190965e+01	-1.369697e+03
4.300000e-07	-4.366507e-06	-2.072625e-08	-3.128213e+01	-1.359771e+03
4.400000e-07	-4.277513e-06	-2.055776e-08	-3.064457e+01	-1.349414e+03
4.500000e-07	-4.186815e-06	-2.038523e-08	-2.999479e+01	-1.338585e+03
4.600000e-07	-4.094513e-06	-2.021559e-08	-2.933353e+01	-1.327259e+03
4.700000e-07	-4.000775e-06	-2.002216e-08	-2.866199e+01	-1.315434e+03
4.800000e-07	-3.905755e-06	-1.984597e-08	-2.798125e+01	-1.303123e+03
4.900000e-07	-3.809470e-06	-1.965997e-08	-2.729145e+01	-1.290347e+03
5.000000e-07	-3.711681e-06	-1.945553e-08	-2.659088e+01	-1.277122e+03
5.100000e-07	-3.612361e-06	-1.923237e-08	-2.587934e+01	-1.263450e+03
5.200000e-07	-3.511688e-06	-1.901059e-08	-2.515811e+01	-1.249311e+03
5.300000e-07	-3.409816e-06	-1.878941e-08	-2.442829e+01	-1.234663e+03
5.400000e-07	-3.306776e-06	-1.855516e-08	-2.369010e+01	-1.219446e+03
5.500000e-07	-3.202525e-06	-1.831685e-08	-2.294323e+01	-1.203594e+03
5.600000e-07	-3.097020e-06	-1.806435e-08	-2.218738e+01	-1.187043e+03
5.700000e-07	-2.990215e-06	-1.779896e-08	-2.142222e+01	-1.169742e+03
5.800000e-07	-2.882180e-06	-1.751755e-08	-2.064825e+01	-1.151655e+03
5.900000e-07	-2.773114e-06	-1.722964e-08	-1.986689e+01	-1.132757e+03
6.000000e-07	-2.663121e-06	-1.692772e-08	-1.907889e+01	-1.113034e+03
6.100000e-07	-2.552275e-06	-1.660767e-08	-1.828477e+01	-1.092463e+03
6.200000e-07	-2.440532e-06	-1.627792e-08	-1.748423e+01	-1.071008e+03
6.300000e-07	-2.327843e-06	-1.593706e-08	-1.667692e+01	-1.048611e+03
6.400000e-07	-2.214212e-06	-1.558380e-08	-1.586285e+01	-1.025189e+03
6.500000e-07	-2.099555e-06	-1.521029e-08	-1.504143e+01	-1.000639e+03
6.600000e-07	-1.983847e-06	-1.481449e-08	-1.421249e+01	-9.748430e+02
6.700000e-07	-1.867315e-06	-1.439446e-08	-1.337765e+01	-9.476814e+02
6.800000e-07	-1.750162e-06	-1.395703e-08	-1.253835e+01	-9.190382e+02
6.900000e-07	-1.632383e-06	-1.350111e-08	-1.169457e+01	-8.888060e+02
7.000000e-07	-1.514051e-06	-1.301758e-08	-1.084682e+01	-8.568853e+02
7.100000e-07	-1.395275e-06	-1.250257e-08	-9.995900e+00	-8.231809e+02
7.200000e-07	-1.276133e-06	-1.195375e-08	-9.142352e+00	-7.875975e+02
7.300000e-07	-1.156628e-06	-1.137831e-08	-8.286210e+00	-7.500384e+02
7.400000e-07	-1.036670e-06	-1.077191e-08	-7.426813e+00	-7.104112e+02
7.500000e-07	-9.163296e-07	-1.013829e-08	-6.564684e+00	-6.686414e+02
7.600000e-07	-7.956421e-07	-9.476471e-09	-5.700066e+00	-6.246931e+02
7.700000e-07	-6.746689e-07	-8.776489e-09	-4.833401e+00	-5.785923e+02
7.800000e-07	-5.535223e-07	-8.037397e-09	-3.965493e+00	-5.304475e+02
7.900000e-07	-4.322225e-07	-7.270616e-09	-3.096488e+00	-4.804602e+02
8.000000e-07	-3.107202e-07	-6.484184e-09	-2.226033e+00	-4.289190e+02
8.100000e-07	-1.890604e-07	-5.680466e-09	-1.354449e+00	-3.761755e+02
8.200000e-07	-6.735990e-08	-4.869864e-09	-4.825735e-01	-3.226039e+02
8.300000e-07	5.437805e-08	-4.054044e-09	3.895702e-01	-2.685484e+02
8.400000e-07	1.762167e-07	-3.232328e-09	1.262436e+00	-2.142702e+02
8.500000e-07	2.980709e-07	-2.404291e-09	2.135412e+00	-1.599045e+02
8.600000e-07	4.197433e-07	-1.574541e-09	3.007086e+00	-1.054379e+02
8.700000e-07	5.412365e-07	-7.388258e-10	3.877476e+00	-5.071329e+01
8.800000e-07	6.625807e-07	1.058277e-10	4.746799e+00	4.534885e+00
8.900000e-07	7.837598e-07	9.619162e-10	5.614940e+00	6.062145e+01
9.000000e-07	9.047435e-07	1.832204e-09	6.481680e+00	1.178355e+02
9.100000e-07	1.025423e-06	2.719511e-09	7.346239e+00	1.763642e+02
9.200000e-07	1.145704e-06	3.627203e-09	8.207948e+00	2.362301e+02
9.300000e-07	1.265553e-06	4.553079e-09	9.066559e+00	2.972535e+02
9.400000e-07	1.384941e-06	5.494071e-09	9.921865e+00	3.590481e+02
9.500000e-07	1.503834e-06	6.440715e-09	1.077363e+01	4.210510e+02
9.600000e-07	1.622185e-06	7.382600e-09	1.162151e+01	4.825813e+02
9.700000e-07	1.739994e-06	8.302959e-09	1.246550e+01	5.429162e+02
9.800000e-07	1.857215e-06	9.191750e-09	1.330529e+01	6.013713e+02
9.900000e-07	1.973740e-06	1.004111e-08	1.414008e+01	6.573707e+02
1.000000e-06	2.089411e-06	1.084383e-08	1.496877e+01	7.104964e+02
1.010000e-06	2.204101e-06	1.159995e-08	1.579042e+01	7.605099e+02
1.020000e-06	2.317782e-06	1.230708e-08	1.660484e+01	8.073464e+02
1.030000e-06	2.430487e-06	1.297060e-08	1.741227e+01	8.510860e+02
1.040000e-06	2.542298e-06	1.358975e-08	1.821330e+01	8.919099e+02
1.050000e-06	2.653168e-06	1.417242e-08	1.900758e+01	9.300536e+02
1.060000e-06	2.763091e-06	1.471688e-08	1.979508e+01	9.657640e+02
1.070000e-06	2.872160e-06	1.522580e-08	2.057646e+01	9.992693e+02
1.080000e-06	2.980335e-06	1.570148e-08	2.135144e+01	1.030762e+03
1.090000e-06	3.087474e-06	1.614764e-08	2.211899e+01	1.060400e+03
1.100000e-06	3.193434e-06	1.656985e-08	2.287811e+01	1.088307e+03
1.110000e-06	3.298140e-06	1.696961e-08	2.362823e+01	1.114596e+03
1.120000e-06	3.401612e-06	1.734847e-08	2.436951e+01	1.139369e+03
1.130000e-06	3.503903e-06	1.770596e-08	2.510234e+01	1.162735e+03
1.140000e-06	3.605102e-06	1.804277e-08	2.582734e+01	1.184804e+03
1.150000e-06	3.705161e-06	1.836105e-08	2.654417e+01	1.205688e+03
1.160000e-06	3.803852e-06	1.866397e-08	2.725120e+01	1.225490e+03
1.170000e-06	3.901025e-06	1.895086e-08	2.794736e+01	1.244302e+03
1.180000e-06	3.996675e-06	1.922333e-08	2.863261e+01	1.262197e+03
1.190000e-06	4.090976e-06	1.947979e-08	2.930819e+01	1.279229e+03
1.200000e-06	4.184011e-06	1.972424e-08	2.997470e+01	1.295439e+03
1.210000e-06	4.275717e-06	1.995551e-08	3.063169e+01	1.310860e+03
1.220000e-06	4.365834e-06	2.017716e-08	3.127731e+01	1.325523e+03
1.230000e-06	4.454203e-06	2.038910e-08	3.191039e+01	1.339466e+03
1.240000e-06	4.540964e-06	2.059176e-08	3.253196e+01	1.352730e+03
1.250000e-06	4.626194e-06	2.078301e-08	3.314255e+01	1.365366e+03
1.260000e-06	4.709894e-06	2.096566e-08	3.374219e+01	1.377421e+03
1.270000e-06	4.791962e-06	2.114143e-08	3.433013e+01	1.388942e+03
1.280000e-06	4.872227e-06	2.131024e-08	3.490516e+01	1.399961e+03
1.290000e-06	4.950620e-06	2.147149e-08	3.546678e+01	1.410500e+03
1.300000e-06	5.027164e-06	2.162531e-08	3.601514e+01	1.420567e+03
1.310000e-06	5.101735e-06	2.177224e-08	3.654938e+01	1.430162e+03
1.320000e-06	5.174271e-06	2.191241e-08	3.706904e+01	1.439277e+03
1.330000e-06	5.244959e-06	2.204499e-08	3.757545e+01	1.447909e+03
1.340000e-06	5.313859e-06	2.216973e-08	3.806906e+01	1.456062e+03
1.350000e-06	5.380841e-06	2.228808e-08	3.854892e+01	1.463747e+03
1.360000e-06	5.445780e-06	2.239956e-08	3.901415e+01	1.470987e+03
1.370000e-06	5.508794e-06	2.250501e-08	3.946559e+01	1.477812e+03
1.380000e-06	5.570028e-06	2.260425e-08	3.990428e+01	1.484258e+03
1.390000e-06	5.629414e-06	2.269683e-08	4.032972e+01	1.490359e+03
1.400000e-06	5.686719e-06	2.278341e-08	4.074027e+01	1.496146e+03
1.410000e-06	5.741920e-06	2.286711e-08	4.113573e+01	1.501645e+03
1.420000e-06	5.795061e-06	2.294849e-08	4.151644e+01	1.506877e+03
1.430000e-06	5.845747e-06	2.302534e-08	4.187956e+01	1.511854e+03
1.440000e-06	5.893938e-06	2.309683e-08	4.222481e+01	1.516587e+03
1.450000e-06	5.940059e-06	2.316492e-08	4.255522e+01	1.521080e+03
1.460000e-06	5.984278e-06	2.323057e-08	4.287201e+01	1.525334e+03
1.470000e-06	6.026430e-06	2.329294e-08	4.317400e+01	1.529349e+03
1.480000e-06	6.066329e-06	2.335050e-08	4.345984e+01	1.533119e+03
1.490000e-06	6.104086e-06	2.340378e-08	4.373033e+01	1.536635e+03
1.500000e-06	6.139884e-06	2.345391e-08	4.398679e+01	1.539889e+03
1.510000e-06	6.173429e-06	2.349898e-08	4.422711e+01	1.542870e+03
1.520000e-06	6.204709e-06	2.354004e-08	4.445120e+01	1.545573e+03
1.530000e-06	6.234003e-06	2.357620e-08	4.466107e+01	1.547994e+03
1.540000e-06	6.261156e-06	2.360681e-08	4.485559e+01	1.550140e+03
1.550000e-06	6.285867e-06	2.363426e-08	4.503263e+01	1.552023e+03
1.560000e-06	6.308160e-06	2.365975e-08	4.519234e+01	1.553659e+03
1.570000e-06	6.328350e-06	2.368234e-08	4.533698e+01	1.555068e+03
1.580000e-06	6.346381e-06	2.370044e-08	4.546616e+01	1.556266e+03
1.590000e-06	6.362059e-06	2.371588e-08	4.557848e+01	1.557268e+03
1.600000e-06	6.375399e-06	2.372802e-08	4.567404e+01	1.558080e+03
1.610000e-06	6.386240e-06	2.373772e-08	4.575171e+01	1.558702e+03
1.620000e-06	6.394526e-06	2.374521e-08	4.581107e+01	1.559132e+03
1.630000e-06	6.400551e-06	2.374991e-08	4.585423e+01	1.559366e+03
1.640000e-06	6.404434e-06	2.375326e-08	4.588206e+01	1.559405e+03
1.650000e-06	6.405906e-06	2.375615e-08	4.589260e+01	1.559255e+03
1.660000e-06	6.405047e-06	2.375620e-08	4.588645e+01	1.558927e+03
1.670000e-06	6.402200e-06	2.374002e-08	4.586605e+01	1.558437e+03
1.680000e-06	6.397314e-06	2.373101e-08	4.583105e+01	1.557797e+03
1.690000e-06	6.390207e-06	2.371877e-08	4.578013e+01	1.557016e+03
1.700000e-06	6.380964e-06	2.370493e-08	4.571391e+01	1.556089e+03
1.710000e-06	6.369714e-06	2.369532e-08	4.563332e+01	1.555005e+03
1.720000e-06	6.356216e-06	2.368838e-08	4.553661e+01	1.553742e+03
1.730000e-06	6.340534e-06	2.369627e-08	4.542427e+01	1.552275e+03
1.740000e-06	6.322905e-06	2.360890e-08	4.529797e+01	1.550585e+03
1.750000e-06	6.303004e-06	2.347341e-08	4.515540e+01	1.548668e+03
1.760000e-06	6.280046e-06	2.352622e-08	4.499092e+01	1.546536e+03
1.770000e-06	6.254083e-06	2.352635e-08	4.480492e+01	1.544220e+03
1.780000e-06	6.226113e-06	2.346365e-08	4.460454e+01	1.541767e+03
1.790000e-06	6.196341e-06	2.361018e-08	4.439125e+01	1.539228e+03
1.800000e-06	6.165017e-06	2.344241e-08	4.416685e+01	1.536648e+03
1.810000e-06	6.132234e-06	2.321114e-08	4.393198e+01	1.534054e+03
1.820000e-06	6.097284e-06	2.336477e-08	4.368160e+01	1.531445e+03
1.830000e-06	6.060337e-06	2.312912e-08	4.341691e+01	1.528790e+03
1.840000e-06	6.021247e-06	2.323143e-08	4.313686e+01	1.526031e+03
1.850000e-06	5.979755e-06	2.340311e-08	4.283961e+01	1.523094e+03
1.860000e-06	5.936377e-06	2.305156e-08	4.252884e+01	1.519902e+03
1.870000e-06	5.890903e-06	2.321912e-08	4.220306e+01	1.516391e+03
1.880000e-06	5.843288e-06	2.310652e-08	4.186194e+01	1.512521e+03
1.890000e-06	5.793603e-06	2.295292e-08	4.150600e+01	1.508279e+03
1.900000e-06	5.741271e-06	2.304317e-08	4.113108e+01	1.503685e+03
1.910000e-06	5.686372e-06	2.274468e-08	4.073778e+01	1.498774e+03
1.920000e-06	5.629280e-06	2.281612e-08	4.032877e+01	1.493592e+03
1.930000e-06	5.570302e-06	2.276836e-08	3.990624e+01	1.488177e+03
1.940000e-06	5.509479e-06	2.262802e-08	3.947050e+01	1.482552e+03
1.950000e-06	5.446457e-06	2.262036e-08	3.901900e+01	1.476716e+03
1.960000e-06	5.381376e-06	2.236139e-08	3.855275e+01	1.470649e+03
1.970000e-06	5.314360e-06	2.238954e-08	3.807265e+01	1.464314e+03
1.980000e-06	5.245355e-06	2.220457e-08	3.757829e+01	1.457673e+03
1.990000e-06	5.174244e-06	2.211859e-08	3.706884e+01	1.450697e+03
2.000000e-06	5.101154e-06	2.210422e-08	3.654521e+01	1.443372e+03
2.010000e-06	5.026355e-06	2.190026e-08	3.600935e+01	1.435704e+03
2.020000e-06	4.949493e-06	2.184032e-08	3.545870e+01	1.427714e+03
2.030000e-06	4.870554e-06	2.160062e-08	3.489317e+01	1.419432e+03
2.040000e-06	4.789843e-06	2.154862e-08	3.431495e+01	1.410882e+03
2.050000e-06	4.707528e-06	2.144531e-08	3.372524e+01	1.402075e+03
2.060000e-06	4.623739e-06	2.127484e-08	3.312497e+01	1.393002e+03
2.070000e-06	4.538262e-06	2.114705e-08	3.251259e+01	1.383629e+03
2.080000e-06	4.450986e-06	2.094905e-08	3.188734e+01	1.373910e+03
2.090000e-06	4.362153e-06	2.083685e-08	3.125093e+01	1.363788e+03
2.100000e-06	4.271981e-06	2.064108e-08	3.060493e+01	1.353214e+03
2.110000e-06	4.180439e-06	2.051351e-08	2.994912e+01	1.342155e+03
2.120000e-06	4.087481e-06	2.033267e-08	2.928316e+01	1.330594e+03
2.130000e-06	3.993033e-06	2.013496e-08	2.860652e+01	1.318539e+03
2.140000e-06	3.897037e-06	1.994305e-08	2.791879e+01	1.306008e+03
2.150000e-06	3.799657e-06	1.973469e-08	2.722115e+01	1.293020e+03
2.160000e-06	3.701022e-06	1.955502e-08	2.651452e+01	1.279587e+03
2.170000e-06	3.601115e-06	1.933464e-08	2.579877e+01	1.265700e+03
2.180000e-06	3.499814e-06	1.913428e-08	2.507305e+01	1.251329e+03
2.190000e-06	3.397022e-06	1.889112e-08	2.433663e+01	1.236423e+03
2.200000e-06	3.292946e-06	1.866059e-08	2.359102e+01	1.220918e+03
2.210000e-06	3.187792e-06	1.841200e-08	2.283768e+01	1.204747e+03
2.220000e-06	3.081517e-06	1.816354e-08	2.207632e+01	1.187852e+03
2.230000e-06	2.974189e-06	1.789337e-08	2.130741e+01	1.170187e+03
2.240000e-06	2.865920e-06	1.760781e-08	2.053176e+01	1.151724e+03
2.250000e-06	2.756583e-06	1.732208e-08	1.974846e+01	1.132444e+03
2.260000e-06	2.646114e-06	1.701881e-08	1.895705e+01	1.112328e+03
2.270000e-06	2.534642e-06	1.670325e-08	1.815845e+01	1.091351e+03
2.280000e-06	2.422226e-06	1.636329e-08	1.735309e+01	1.069465e+03
2.290000e-06	2.308834e-06	1.601933e-08	1.654074e+01	1.046603e+03
2.300000e-06	2.194525e-06	1.565095e-08	1.572181e+01	1.022669e+03
2.310000e-06	2.079397e-06	1.527205e-08	1.489702e+01	9.975532e+02
2.320000e-06	1.963451e-06	1.487046e-08	1.406637e+01	9.711362e+02
2.330000e-06	1.846754e-06	1.444989e-08	1.323034e+01	9.432989e+02
2.340000e-06	1.729380e-06	1.399853e-08	1.238946e+01	9.139289e+02
2.350000e-06	1.611327e-06	1.351927e-08	1.154372e+01	8.829229e+02
2.360000e-06	1.492602e-06	1.301962e-08	1.069316e+01	8.501840e+02
2.370000e-06	1.373279e-06	1.249839e-08	9.838320e+00	8.156173e+02
2.380000e-06	1.253487e-06	1.195099e-08	8.980118e+00	7.791268e+02
2.390000e-06	1.133330e-06	1.136298e-08	8.119296e+00	7.406164e+02
2.400000e-06	1.012858e-06	1.074020e-08	7.256223e+00	7.000001e+02
2.410000e-06	8.921087e-07	1.008160e-08	6.391163e+00	6.572183e+02
2.420000e-06	7.710698e-07	9.395183e-09	5.524027e+00	6.122609e+02
2.430000e-06	6.497886e-07	8.678294e-09	4.655155e+00	5.651902e+02
2.440000e-06	5.283552e-07	7.932300e-09	3.785193e+00	5.161575e+02
2.450000e-06	4.067731e-07	7.159710e-09	2.914166e+00	4.654064e+02
2.460000e-06	2.851211e-07	6.359062e-09	2.042639e+00	4.132589e+02
2.470000e-06	1.633369e-07	5.539849e-09	1.170163e+00	3.600831e+02
2.480000e-06	4.137433e-08	4.714670e-09	2.964101e-01	3.062460e+02
2.490000e-06	-8.063705e-08	3.892147e-09	-5.776925e-01	2.520596e+02
2.500000e-06	-2.026085e-07	3.065022e-09	-1.451509e+00	1.977310e+02
2.510000e-06	-3.244613e-07	2.230993e-09	-2.324476e+00	1.433274e+02
2.520000e-06	-4.461750e-07	1.393182e-09	-3.196446e+00	8.876646e+01
2.530000e-06	-5.677675e-07	5.493865e-10	-4.067547e+00	3.383460e+01
2.540000e-06	-6.892350e-07	-3.018385e-10	-4.937754e+00	-2.176525e+01
2.550000e-06	-8.104880e-07	-1.166841e-09	-5.806423e+00	-7.834565e+01
2.560000e-06	-9.314642e-07	-2.048013e-09	-6.673110e+00	-1.361574e+02
2.570000e-06	-1.052152e-06	-2.949305e-09	-7.537732e+00	-1.953178e+02
2.580000e-06	-1.172528e-06	-3.870890e-09	-8.400114e+00	-2.557581e+02
2.590000e-06	-1.292502e-06	-4.807383e-09	-9.259625e+00	-3.172012e+02
2.600000e-06	-1.412014e-06	-5.754606e-09	-1.011582e+01	-3.791732e+02
2.610000e-06	-1.530955e-06	-6.704361e-09	-1.096793e+01	-4.410476e+02
2.620000e-06	-1.649191e-06	-7.643470e-09	-1.181499e+01	-5.021142e+02
2.630000e-06	-1.766600e-06	-8.557921e-09	-1.265611e+01	-5.616581e+02
2.640000e-06	-1.883183e-06	-9.437010e-09	-1.349133e+01	-6.190377e+02
2.650000e-06	-1.998985e-06	-1.027463e-08	-1.432095e+01	-6.737460e+02
2.660000e-06	-2.113968e-06	-1.106496e-08	-1.514469e+01	-7.254472e+02
2.670000e-06	-2.228066e-06	-1.180608e-08	-1.596210e+01	-7.739860e+02
2.680000e-06	-2.341125e-06	-1.250123e-08	-1.677207e+01	-8.193693e+02
2.690000e-06	-2.453094e-06	-1.315149e-08	-1.757423e+01	-8.617300e+02
2.700000e-06	-2.564007e-06	-1.375983e-08	-1.836882e+01	-9.012805e+02
2.710000e-06	-2.673930e-06	-1.432930e-08	-1.915632e+01	-9.382662e+02
2.720000e-06	-2.782931e-06	-1.486370e-08	-1.993722e+01	-9.729282e+02
2.730000e-06	-2.891066e-06	-1.536486e-08	-2.071191e+01	-1.005479e+03
2.740000e-06	-2.998342e-06	-1.583389e-08	-2.148045e+01	-1.036095e+03
2.750000e-06	-3.104682e-06	-1.627378e-08	-2.224228e+01	-1.064917e+03
2.760000e-06	-3.209979e-06	-1.668580e-08	-2.299664e+01	-1.092062e+03
2.770000e-06	-3.314163e-06	-1.707313e-08	-2.374302e+01	-1.117636e+03
2.780000e-06	-3.417045e-06	-1.744078e-08	-2.448008e+01	-1.141744e+03
2.790000e-06	-3.518524e-06	-1.779043e-08	-2.520709e+01	-1.164496e+03
2.800000e-06	-3.618693e-06	-1.812067e-08	-2.592471e+01	-1.186003e+03
2.810000e-06	-3.717655e-06	-1.843332e-08	-2.663368e+01	-1.206374e+03
2.820000e-06	-3.815452e-06	-1.873053e-08	-2.733431e+01	-1.225708e+03
2.830000e-06	-3.912012e-06	-1.901162e-08	-2.802608e+01	-1.244088e+03
2.840000e-06	-4.007251e-06	-1.927758e-08	-2.870838e+01	-1.261578e+03
2.850000e-06	-4.100982e-06	-1.953012e-08	-2.937988e+01	-1.278226e+03
2.860000e-06	-4.193156e-06	-1.977147e-08	-3.004022e+01	-1.294067e+03
2.870000e-06	-4.283829e-06	-2.000303e-08	-3.068981e+01	-1.309134e+03
2.880000e-06	-4.372967e-06	-2.022443e-08	-3.132841e+01	-1.323460e+03
2.890000e-06	-4.460571e-06	-2.043575e-08	-3.195601e+01	-1.337083e+03
2.900000e-06	-4.546501e-06	-2.063689e-08	-3.257162e+01	-1.350052e+03
2.910000e-06	-4.630727e-06	-2.082708e-08	-3.317503e+01	-1.362414e+03
2.920000e-06	-4.713368e-06	-2.100745e-08	-3.376707e+01	-1.374218e+03
2.930000e-06	-4.794375e-06	-2.117825e-08	-3.434742e+01	-1.385504e+03
2.940000e-06	-4.873598e-06	-2.134014e-08	-3.491498e+01	-1.396300e+03
