# Temperatura_=_89.19
# Concentracion g/m^3_=_28200.0
# C_Vs_to_Am_M_A/Vsm_=_65563218390.804596
# pendiente_HvsI_1/m_=_3716.3
# ordenada_HvsI_A/m_=_1297.0
# frecuencia_Hz_=_302093.06249874807

Tiempo_(s)	Campo_(V.s)	Magnetizacion_(V.s)	Campo_(kA/m)	Magnetizacion_(A/m)
0.000000e+00	-6.376055e-06	-2.507525e-08	-4.558111e+01	-1.642766e+03
1.000000e-08	-6.372661e-06	-2.506822e-08	-4.555685e+01	-1.642219e+03
2.000000e-08	-6.367183e-06	-2.505605e-08	-4.551769e+01	-1.641477e+03
3.000000e-08	-6.359813e-06	-2.504239e-08	-4.546501e+01	-1.640542e+03
4.000000e-08	-6.350287e-06	-2.502423e-08	-4.539691e+01	-1.639422e+03
5.000000e-08	-6.338301e-06	-2.500364e-08	-4.531123e+01	-1.638122e+03
6.000000e-08	-6.323892e-06	-2.497951e-08	-4.520822e+01	-1.636649e+03
7.000000e-08	-6.307254e-06	-2.494454e-08	-4.508927e+01	-1.635011e+03
8.000000e-08	-6.288662e-06	-2.492864e-08	-4.495636e+01	-1.633217e+03
9.000000e-08	-6.267977e-06	-2.495737e-08	-4.480849e+01	-1.631272e+03
1.000000e-07	-6.244825e-06	-2.490548e-08	-4.464298e+01	-1.629187e+03
1.100000e-07	-6.219005e-06	-2.482803e-08	-4.445840e+01	-1.626965e+03
1.200000e-07	-6.190863e-06	-2.480257e-08	-4.425722e+01	-1.624609e+03
1.300000e-07	-6.160938e-06	-2.474090e-08	-4.404329e+01	-1.622112e+03
1.400000e-07	-6.129445e-06	-2.462996e-08	-4.381815e+01	-1.619462e+03
1.500000e-07	-6.096182e-06	-2.469957e-08	-4.358036e+01	-1.616633e+03
1.600000e-07	-6.060868e-06	-2.466839e-08	-4.332791e+01	-1.613595e+03
1.700000e-07	-6.023671e-06	-2.449912e-08	-4.306200e+01	-1.610313e+03
1.800000e-07	-5.984358e-06	-2.456471e-08	-4.278096e+01	-1.606752e+03
1.900000e-07	-5.942561e-06	-2.444664e-08	-4.248216e+01	-1.602887e+03
2.000000e-07	-5.898635e-06	-2.435852e-08	-4.216814e+01	-1.598705e+03
2.100000e-07	-5.852643e-06	-2.437974e-08	-4.183935e+01	-1.594211e+03
2.200000e-07	-5.804378e-06	-2.420231e-08	-4.149432e+01	-1.589423e+03
2.300000e-07	-5.753681e-06	-2.411851e-08	-4.113189e+01	-1.584372e+03
2.400000e-07	-5.700493e-06	-2.406927e-08	-4.075166e+01	-1.579091e+03
2.500000e-07	-5.645137e-06	-2.397901e-08	-4.035593e+01	-1.573610e+03
2.600000e-07	-5.587627e-06	-2.392450e-08	-3.994481e+01	-1.567943e+03
2.700000e-07	-5.527981e-06	-2.382487e-08	-3.951841e+01	-1.562090e+03
2.800000e-07	-5.466392e-06	-2.371722e-08	-3.907812e+01	-1.556030e+03
2.900000e-07	-5.402821e-06	-2.357929e-08	-3.862367e+01	-1.549725e+03
3.000000e-07	-5.337082e-06	-2.350115e-08	-3.815371e+01	-1.543133e+03
3.100000e-07	-5.269278e-06	-2.344256e-08	-3.766900e+01	-1.536213e+03
3.200000e-07	-5.199563e-06	-2.332628e-08	-3.717062e+01	-1.528932e+03
3.300000e-07	-5.128049e-06	-2.320147e-08	-3.665938e+01	-1.521278e+03
3.400000e-07	-5.054660e-06	-2.304323e-08	-3.613473e+01	-1.513254e+03
3.500000e-07	-4.979157e-06	-2.292622e-08	-3.559498e+01	-1.504880e+03
3.600000e-07	-4.901584e-06	-2.280125e-08	-3.504042e+01	-1.496180e+03
3.700000e-07	-4.821978e-06	-2.267266e-08	-3.447134e+01	-1.487178e+03
3.800000e-07	-4.740524e-06	-2.255287e-08	-3.388904e+01	-1.477884e+03
3.900000e-07	-4.657490e-06	-2.237733e-08	-3.329545e+01	-1.468292e+03
4.000000e-07	-4.573074e-06	-2.220320e-08	-3.269197e+01	-1.458378e+03
4.100000e-07	-4.487289e-06	-2.205483e-08	-3.207871e+01	-1.448104e+03
4.200000e-07	-4.400004e-06	-2.191292e-08	-3.145473e+01	-1.437425e+03
4.300000e-07	-4.311255e-06	-2.174105e-08	-3.082028e+01	-1.426301e+03
4.400000e-07	-4.220920e-06	-2.155336e-08	-3.017450e+01	-1.414702e+03
4.500000e-07	-4.128899e-06	-2.137064e-08	-2.951666e+01	-1.402615e+03
4.600000e-07	-4.035392e-06	-2.116801e-08	-2.884820e+01	-1.390040e+03
4.700000e-07	-3.940525e-06	-2.097411e-08	-2.817001e+01	-1.376988e+03
4.800000e-07	-3.844374e-06	-2.078101e-08	-2.748265e+01	-1.363473e+03
4.900000e-07	-3.746807e-06	-2.057142e-08	-2.678516e+01	-1.349499e+03
5.000000e-07	-3.647719e-06	-2.033843e-08	-2.607680e+01	-1.335054e+03
5.100000e-07	-3.547286e-06	-2.009996e-08	-2.535883e+01	-1.320109e+03
5.200000e-07	-3.445554e-06	-1.986317e-08	-2.463156e+01	-1.304617e+03
5.300000e-07	-3.342638e-06	-1.961500e-08	-2.389584e+01	-1.288522e+03
5.400000e-07	-3.238585e-06	-1.936095e-08	-2.315199e+01	-1.271766e+03
5.500000e-07	-3.133239e-06	-1.909391e-08	-2.239889e+01	-1.254296e+03
5.600000e-07	-3.026536e-06	-1.881465e-08	-2.163609e+01	-1.236074e+03
5.700000e-07	-2.918553e-06	-1.852125e-08	-2.086414e+01	-1.217073e+03
5.800000e-07	-2.809567e-06	-1.822318e-08	-2.008502e+01	-1.197275e+03
5.900000e-07	-2.699690e-06	-1.791293e-08	-1.929953e+01	-1.176658e+03
6.000000e-07	-2.588861e-06	-1.758124e-08	-1.850724e+01	-1.155194e+03
6.100000e-07	-2.477078e-06	-1.723244e-08	-1.770812e+01	-1.132832e+03
6.200000e-07	-2.364314e-06	-1.687068e-08	-1.690200e+01	-1.109499e+03
6.300000e-07	-2.250546e-06	-1.649752e-08	-1.608870e+01	-1.085100e+03
6.400000e-07	-2.135737e-06	-1.610765e-08	-1.526795e+01	-1.059526e+03
6.500000e-07	-2.019936e-06	-1.569905e-08	-1.444011e+01	-1.032660e+03
6.600000e-07	-1.903351e-06	-1.526384e-08	-1.360667e+01	-1.004387e+03
6.700000e-07	-1.786158e-06	-1.480638e-08	-1.276888e+01	-9.746023e+02
6.800000e-07	-1.668421e-06	-1.433089e-08	-1.192720e+01	-9.432092e+02
6.900000e-07	-1.550151e-06	-1.383045e-08	-1.108171e+01	-9.101147e+02
7.000000e-07	-1.431348e-06	-1.329943e-08	-1.023241e+01	-8.752218e+02
7.100000e-07	-1.312057e-06	-1.273468e-08	-9.379625e+00	-8.384222e+02
7.200000e-07	-1.192349e-06	-1.213915e-08	-8.523857e+00	-7.995941e+02
7.300000e-07	-1.072221e-06	-1.150973e-08	-7.665092e+00	-7.586085e+02
7.400000e-07	-9.517039e-07	-1.084841e-08	-6.803538e+00	-7.153468e+02
7.500000e-07	-8.308704e-07	-1.015666e-08	-5.939723e+00	-6.697257e+02
7.600000e-07	-7.097230e-07	-9.427752e-09	-5.073665e+00	-6.217269e+02
7.700000e-07	-5.883246e-07	-8.657306e-09	-4.205813e+00	-5.714233e+02
7.800000e-07	-4.667302e-07	-7.853111e-09	-3.336559e+00	-5.189935e+02
7.900000e-07	-3.449621e-07	-7.025675e-09	-2.466064e+00	-4.647192e+02
8.000000e-07	-2.230932e-07	-6.177007e-09	-1.594848e+00	-4.089608e+02
8.100000e-07	-1.011062e-07	-5.312905e-09	-7.227877e-01	-3.521145e+02
8.200000e-07	2.100093e-08	-4.439510e-09	1.501314e-01	-2.945561e+02
8.300000e-07	1.431449e-07	-3.558855e-09	1.023314e+00	-2.365814e+02
8.400000e-07	2.653211e-07	-2.670988e-09	1.896727e+00	-1.783585e+02
8.500000e-07	3.874435e-07	-1.778132e-09	2.769754e+00	-1.199001e+02
8.600000e-07	5.094085e-07	-8.793732e-10	3.641658e+00	-6.106629e+01
8.700000e-07	6.311896e-07	2.838004e-11	4.512246e+00	-1.599369e+00
8.800000e-07	7.527205e-07	9.486906e-10	5.381046e+00	5.881352e+01
8.900000e-07	8.740037e-07	1.885554e-09	6.248075e+00	1.204607e+02
9.000000e-07	9.950364e-07	2.842903e-09	7.113312e+00	1.835238e+02
9.100000e-07	1.115760e-06	3.822647e-09	7.976339e+00	2.480087e+02
9.200000e-07	1.236094e-06	4.820172e-09	8.836587e+00	3.137038e+02
9.300000e-07	1.355973e-06	5.830218e-09	9.693571e+00	3.801745e+02
9.400000e-07	1.475333e-06	6.845726e-09	1.054686e+01	4.467947e+02
9.500000e-07	1.594085e-06	7.854061e-09	1.139579e+01	5.128106e+02
9.600000e-07	1.712249e-06	8.839202e-09	1.224052e+01	5.774250e+02
9.700000e-07	1.829870e-06	9.786488e-09	1.308137e+01	6.398864e+02
9.800000e-07	1.946807e-06	1.068865e-08	1.391732e+01	6.995681e+02
9.900000e-07	2.062951e-06	1.154128e-08	1.474761e+01	7.560232e+02
1.000000e-06	2.178223e-06	1.234055e-08	1.557168e+01	8.090097e+02
1.010000e-06	2.292465e-06	1.308662e-08	1.638837e+01	8.584837e+02
1.020000e-06	2.405685e-06	1.378332e-08	1.719775e+01	9.045650e+02
1.030000e-06	2.517945e-06	1.443548e-08	1.800027e+01	9.474865e+02
1.040000e-06	2.629249e-06	1.504630e-08	1.879597e+01	9.875381e+02
1.050000e-06	2.739631e-06	1.561761e-08	1.958507e+01	1.025015e+03
1.060000e-06	2.849094e-06	1.615405e-08	2.036759e+01	1.060183e+03
1.070000e-06	2.957680e-06	1.665510e-08	2.114385e+01	1.093257e+03
1.080000e-06	3.065417e-06	1.712380e-08	2.191404e+01	1.124402e+03
1.090000e-06	3.172058e-06	1.756560e-08	2.267639e+01	1.153743e+03
1.100000e-06	3.277398e-06	1.798264e-08	2.342945e+01	1.181382e+03
1.110000e-06	3.381423e-06	1.837668e-08	2.417311e+01	1.207418e+03
1.120000e-06	3.484198e-06	1.875043e-08	2.490782e+01	1.231958e+03
1.130000e-06	3.585828e-06	1.910522e-08	2.563435e+01	1.255118e+03
1.140000e-06	3.686314e-06	1.944132e-08	2.635271e+01	1.277025e+03
1.150000e-06	3.785547e-06	1.976077e-08	2.706210e+01	1.297800e+03
1.160000e-06	3.883338e-06	2.006401e-08	2.776119e+01	1.317555e+03
1.170000e-06	3.979568e-06	2.034904e-08	2.844912e+01	1.336376e+03
1.180000e-06	4.074345e-06	2.061804e-08	2.912666e+01	1.354326e+03
1.190000e-06	4.167802e-06	2.087603e-08	2.979477e+01	1.371446e+03
1.200000e-06	4.259976e-06	2.112168e-08	3.045370e+01	1.387761e+03
1.210000e-06	4.350818e-06	2.135600e-08	3.110311e+01	1.403290e+03
1.220000e-06	4.440015e-06	2.157952e-08	3.174076e+01	1.418057e+03
1.230000e-06	4.527424e-06	2.179271e-08	3.236563e+01	1.432095e+03
1.240000e-06	4.613162e-06	2.199612e-08	3.297855e+01	1.445452e+03
1.250000e-06	4.697368e-06	2.218986e-08	3.358053e+01	1.458180e+03
1.260000e-06	4.780148e-06	2.237580e-08	3.417231e+01	1.470337e+03
1.270000e-06	4.861214e-06	2.255376e-08	3.475183e+01	1.481971e+03
1.280000e-06	4.940343e-06	2.272234e-08	3.531751e+01	1.493120e+03
1.290000e-06	5.017595e-06	2.288341e-08	3.586976e+01	1.503803e+03
1.300000e-06	5.092955e-06	2.303969e-08	3.640849e+01	1.514023e+03
1.310000e-06	5.166264e-06	2.319119e-08	3.693257e+01	1.523774e+03
1.320000e-06	5.237566e-06	2.333455e-08	3.744229e+01	1.533043e+03
1.330000e-06	5.307048e-06	2.346964e-08	3.793900e+01	1.541820e+03
1.340000e-06	5.374727e-06	2.359716e-08	3.842283e+01	1.550104e+03
1.350000e-06	5.440383e-06	2.371776e-08	3.889219e+01	1.557908e+03
1.360000e-06	5.503960e-06	2.383316e-08	3.934669e+01	1.565256e+03
1.370000e-06	5.565671e-06	2.394128e-08	3.978785e+01	1.572180e+03
1.380000e-06	5.625597e-06	2.404106e-08	4.021625e+01	1.578720e+03
1.390000e-06	5.683565e-06	2.413458e-08	4.063065e+01	1.584912e+03
1.400000e-06	5.739476e-06	2.422365e-08	4.103035e+01	1.590788e+03
1.410000e-06	5.793323e-06	2.430811e-08	4.141528e+01	1.596375e+03
1.420000e-06	5.844826e-06	2.438911e-08	4.178347e+01	1.601689e+03
1.430000e-06	5.893831e-06	2.446697e-08	4.213380e+01	1.606739e+03
1.440000e-06	5.940567e-06	2.454168e-08	4.246790e+01	1.611532e+03
1.450000e-06	5.985315e-06	2.461238e-08	4.278779e+01	1.616069e+03
1.460000e-06	6.028127e-06	2.467914e-08	4.309385e+01	1.620349e+03
1.470000e-06	6.068774e-06	2.474145e-08	4.338443e+01	1.624373e+03
1.480000e-06	6.107196e-06	2.479871e-08	4.365910e+01	1.628138e+03
1.490000e-06	6.143636e-06	2.485126e-08	4.391960e+01	1.631639e+03
1.500000e-06	6.177928e-06	2.489821e-08	4.416475e+01	1.634872e+03
1.510000e-06	6.209900e-06	2.494214e-08	4.439331e+01	1.637831e+03
1.520000e-06	6.239711e-06	2.498360e-08	4.460643e+01	1.640509e+03
1.530000e-06	6.267508e-06	2.502041e-08	4.480514e+01	1.642905e+03
1.540000e-06	6.292998e-06	2.505304e-08	4.498736e+01	1.645019e+03
1.550000e-06	6.316047e-06	2.508289e-08	4.515214e+01	1.646860e+03
1.560000e-06	6.336920e-06	2.510807e-08	4.530135e+01	1.648440e+03
1.570000e-06	6.355686e-06	2.512831e-08	4.543550e+01	1.649773e+03
1.580000e-06	6.372123e-06	2.514466e-08	4.555301e+01	1.650880e+03
1.590000e-06	6.386064e-06	2.515800e-08	4.565267e+01	1.651775e+03
1.600000e-06	6.397541e-06	2.516817e-08	4.573472e+01	1.652472e+03
1.610000e-06	6.406470e-06	2.517707e-08	4.579855e+01	1.652979e+03
1.620000e-06	6.413013e-06	2.518522e-08	4.584532e+01	1.653299e+03
1.630000e-06	6.417442e-06	2.519084e-08	4.587698e+01	1.653432e+03
1.640000e-06	6.419626e-06	2.519282e-08	4.589260e+01	1.653373e+03
1.650000e-06	6.419471e-06	2.519210e-08	4.589149e+01	1.653119e+03
1.660000e-06	6.417140e-06	2.518165e-08	4.587482e+01	1.652668e+03
1.670000e-06	6.412810e-06	2.517006e-08	4.584387e+01	1.652020e+03
1.680000e-06	6.406316e-06	2.515782e-08	4.579745e+01	1.651178e+03
1.690000e-06	6.397636e-06	2.514385e-08	4.573540e+01	1.650147e+03
1.700000e-06	6.386959e-06	2.513102e-08	4.565907e+01	1.648933e+03
1.710000e-06	6.374117e-06	2.511590e-08	4.556726e+01	1.647543e+03
1.720000e-06	6.358945e-06	2.510713e-08	4.545880e+01	1.645984e+03
1.730000e-06	6.341722e-06	2.506053e-08	4.533568e+01	1.644264e+03
1.740000e-06	6.322422e-06	2.495984e-08	4.519770e+01	1.642391e+03
1.750000e-06	6.300276e-06	2.495506e-08	4.503939e+01	1.640373e+03
1.760000e-06	6.275078e-06	2.495818e-08	4.485926e+01	1.638216e+03
1.770000e-06	6.247534e-06	2.490476e-08	4.466235e+01	1.635924e+03
1.780000e-06	6.218187e-06	2.495200e-08	4.445255e+01	1.633496e+03
1.790000e-06	6.187255e-06	2.491222e-08	4.423143e+01	1.630923e+03
1.800000e-06	6.154842e-06	2.476003e-08	4.399971e+01	1.628184e+03
1.810000e-06	6.120362e-06	2.481789e-08	4.375322e+01	1.625252e+03
1.820000e-06	6.083886e-06	2.470631e-08	4.349246e+01	1.622094e+03
1.830000e-06	6.045408e-06	2.462901e-08	4.321739e+01	1.618673e+03
1.840000e-06	6.004461e-06	2.471453e-08	4.292467e+01	1.614960e+03
1.850000e-06	5.961417e-06	2.449518e-08	4.261696e+01	1.610935e+03
1.860000e-06	5.916362e-06	2.447810e-08	4.229487e+01	1.606593e+03
1.870000e-06	5.869176e-06	2.447668e-08	4.195755e+01	1.601946e+03
1.880000e-06	5.819960e-06	2.433770e-08	4.160571e+01	1.597019e+03
1.890000e-06	5.768298e-06	2.434568e-08	4.123639e+01	1.591846e+03
1.900000e-06	5.713982e-06	2.415727e-08	4.084809e+01	1.586459e+03
1.910000e-06	5.657425e-06	2.407741e-08	4.044378e+01	1.580882e+03
1.920000e-06	5.598875e-06	2.406301e-08	4.002522e+01	1.575121e+03
1.930000e-06	5.538516e-06	2.394265e-08	3.959372e+01	1.569165e+03
1.940000e-06	5.476018e-06	2.391812e-08	3.914694e+01	1.562985e+03
1.950000e-06	5.411311e-06	2.372830e-08	3.868436e+01	1.556540e+03
1.960000e-06	5.344640e-06	2.364075e-08	3.820774e+01	1.549785e+03
1.970000e-06	5.276053e-06	2.352670e-08	3.771743e+01	1.542685e+03
1.980000e-06	5.205422e-06	2.337904e-08	3.721250e+01	1.535216e+03
1.990000e-06	5.132719e-06	2.333704e-08	3.669276e+01	1.527372e+03
2.000000e-06	5.058242e-06	2.318802e-08	3.616034e+01	1.519168e+03
2.010000e-06	4.981809e-06	2.307760e-08	3.561394e+01	1.510625e+03
2.020000e-06	4.903251e-06	2.289243e-08	3.505234e+01	1.501769e+03
2.030000e-06	4.822804e-06	2.276048e-08	3.447724e+01	1.492617e+03
2.040000e-06	4.740702e-06	2.266648e-08	3.389031e+01	1.483173e+03
2.050000e-06	4.657071e-06	2.249455e-08	3.329245e+01	1.473422e+03
2.060000e-06	4.571878e-06	2.234733e-08	3.268342e+01	1.463330e+03
2.070000e-06	4.484958e-06	2.216168e-08	3.206205e+01	1.452857e+03
2.080000e-06	4.396345e-06	2.200814e-08	3.142858e+01	1.441958e+03
2.090000e-06	4.306265e-06	2.183157e-08	3.078461e+01	1.430596e+03
2.100000e-06	4.214803e-06	2.166835e-08	3.013077e+01	1.418751e+03
2.110000e-06	4.122009e-06	2.149225e-08	2.946740e+01	1.406416e+03
2.120000e-06	4.027790e-06	2.127686e-08	2.879385e+01	1.393598e+03
2.130000e-06	3.931996e-06	2.107065e-08	2.810903e+01	1.380311e+03
2.140000e-06	3.834777e-06	2.085506e-08	2.741404e+01	1.366564e+03
2.150000e-06	3.736271e-06	2.065365e-08	2.670984e+01	1.352354e+03
2.160000e-06	3.636500e-06	2.042941e-08	2.599660e+01	1.337661e+03
2.170000e-06	3.535388e-06	2.020940e-08	2.527377e+01	1.322447e+03
2.180000e-06	3.432800e-06	1.996442e-08	2.454039e+01	1.306658e+03
2.190000e-06	3.328849e-06	1.970781e-08	2.379726e+01	1.290237e+03
2.200000e-06	3.223721e-06	1.944935e-08	2.304572e+01	1.273127e+03
2.210000e-06	3.117506e-06	1.918459e-08	2.228642e+01	1.255282e+03
2.220000e-06	3.010217e-06	1.890355e-08	2.151943e+01	1.236671e+03
2.230000e-06	2.901909e-06	1.859896e-08	2.074516e+01	1.217271e+03
2.240000e-06	2.792627e-06	1.829403e-08	1.996392e+01	1.197063e+03
2.250000e-06	2.682316e-06	1.798020e-08	1.917533e+01	1.176025e+03
2.260000e-06	2.570942e-06	1.765248e-08	1.837914e+01	1.154117e+03
2.270000e-06	2.458537e-06	1.730110e-08	1.757558e+01	1.131277e+03
2.280000e-06	2.345155e-06	1.693834e-08	1.676504e+01	1.107422e+03
2.290000e-06	2.230875e-06	1.655581e-08	1.594807e+01	1.082447e+03
2.300000e-06	2.115764e-06	1.615572e-08	1.512517e+01	1.056239e+03
2.310000e-06	1.999840e-06	1.573840e-08	1.429645e+01	1.028680e+03
2.320000e-06	1.883120e-06	1.530208e-08	1.346204e+01	9.996613e+02
2.330000e-06	1.765683e-06	1.483873e-08	1.262251e+01	9.690814e+02
2.340000e-06	1.647585e-06	1.434249e-08	1.177825e+01	9.368465e+02
2.350000e-06	1.528819e-06	1.382120e-08	1.092922e+01	9.028628e+02
2.360000e-06	1.409455e-06	1.327643e-08	1.007591e+01	8.670283e+02
2.370000e-06	1.289582e-06	1.270586e-08	9.218959e+00	8.292277e+02
2.380000e-06	1.169257e-06	1.209793e-08	8.358777e+00	7.893341e+02
2.390000e-06	1.048526e-06	1.145250e-08	7.495699e+00	7.472211e+02
2.400000e-06	9.274431e-07	1.077246e-08	6.630102e+00	7.027840e+02
2.410000e-06	8.060870e-07	1.005974e-08	5.762552e+00	6.559684e+02
2.420000e-06	6.845417e-07	9.312480e-09	4.893649e+00	6.067990e+02
2.430000e-06	5.628493e-07	8.531055e-09	4.023695e+00	5.554005e+02
2.440000e-06	4.409742e-07	7.719178e-09	3.152434e+00	5.020048e+02
2.450000e-06	3.190030e-07	6.876667e-09	2.280487e+00	4.469372e+02
2.460000e-06	1.969525e-07	6.010835e-09	1.407973e+00	3.905825e+02
2.470000e-06	7.478142e-08	5.134571e-09	5.345971e-01	3.333341e+02
2.480000e-06	-4.744350e-08	4.255497e-09	-3.391639e-01	2.755349e+02
2.490000e-06	-1.696945e-07	3.372120e-09	-1.213112e+00	2.174219e+02
2.500000e-06	-2.918868e-07	2.479918e-09	-2.086639e+00	1.590869e+02
2.510000e-06	-4.139370e-07	1.581555e-09	-2.959151e+00	1.004641e+02
2.520000e-06	-5.358359e-07	6.739999e-10	-3.830581e+00	4.134838e+01
2.530000e-06	-6.576663e-07	-2.435545e-10	-4.701522e+00	-1.855467e+01
2.540000e-06	-7.794019e-07	-1.174615e-09	-5.571785e+00	-7.955622e+01
2.550000e-06	-9.008805e-07	-2.124719e-09	-6.440211e+00	-1.419010e+02
2.560000e-06	-1.022018e-06	-3.094522e-09	-7.306199e+00	-2.056900e+02
2.570000e-06	-1.142768e-06	-4.088367e-09	-8.169415e+00	-2.708234e+02
2.580000e-06	-1.263097e-06	-5.098917e-09	-9.029622e+00	-3.369765e+02
2.590000e-06	-1.383015e-06	-6.118193e-09	-9.886894e+00	-4.036127e+02
2.600000e-06	-1.502372e-06	-7.138582e-09	-1.074015e+01	-4.700324e+02
2.610000e-06	-1.620960e-06	-8.145486e-09	-1.158791e+01	-5.354491e+02
2.620000e-06	-1.738781e-06	-9.122354e-09	-1.243019e+01	-5.990775e+02
2.630000e-06	-1.855879e-06	-1.005814e-08	-1.326730e+01	-6.602199e+02
2.640000e-06	-1.972141e-06	-1.094868e-08	-1.409843e+01	-7.183342e+02
2.650000e-06	-2.087530e-06	-1.178808e-08	-1.492333e+01	-7.730751e+02
2.660000e-06	-2.202060e-06	-1.257180e-08	-1.574208e+01	-8.243023e+02
2.670000e-06	-2.315621e-06	-1.330213e-08	-1.655391e+01	-8.720592e+02
2.680000e-06	-2.428118e-06	-1.398365e-08	-1.735812e+01	-9.165294e+02
2.690000e-06	-2.539561e-06	-1.462011e-08	-1.815481e+01	-9.579810e+02
2.700000e-06	-2.649979e-06	-1.521661e-08	-1.894416e+01	-9.967124e+02
2.710000e-06	-2.759439e-06	-1.577752e-08	-1.972666e+01	-1.033007e+03
2.720000e-06	-2.868059e-06	-1.630566e-08	-2.050317e+01	-1.067108e+03
2.730000e-06	-2.975844e-06	-1.679939e-08	-2.127370e+01	-1.099202e+03
2.740000e-06	-3.082694e-06	-1.725901e-08	-2.203755e+01	-1.129434e+03
2.750000e-06	-3.188537e-06	-1.768959e-08	-2.279420e+01	-1.157914e+03
2.760000e-06	-3.293260e-06	-1.809522e-08	-2.354284e+01	-1.184742e+03
2.770000e-06	-3.396699e-06	-1.848005e-08	-2.428231e+01	-1.210018e+03
2.780000e-06	-3.498821e-06	-1.884651e-08	-2.501236e+01	-1.233856e+03
2.790000e-06	-3.599597e-06	-1.919437e-08	-2.573279e+01	-1.256376e+03
2.800000e-06	-3.699096e-06	-1.952262e-08	-2.644408e+01	-1.277705e+03
2.810000e-06	-3.797399e-06	-1.983290e-08	-2.714683e+01	-1.297960e+03
2.820000e-06	-3.894501e-06	-2.012855e-08	-2.784099e+01	-1.317241e+03
2.830000e-06	-3.990380e-06	-2.040899e-08	-2.852642e+01	-1.335623e+03
2.840000e-06	-4.084773e-06	-2.067493e-08	-2.920121e+01	-1.353158e+03
2.850000e-06	-4.177594e-06	-2.092856e-08	-2.986477e+01	-1.369875e+03
2.860000e-06	-4.268961e-06	-2.117152e-08	-3.051793e+01	-1.385797e+03
2.870000e-06	-4.358824e-06	-2.140426e-08	-3.116035e+01	-1.400944e+03
2.880000e-06	-4.447114e-06	-2.162676e-08	-3.179152e+01	-1.415345e+03
2.890000e-06	-4.533696e-06	-2.183885e-08	-3.241047e+01	-1.429038e+03
2.900000e-06	-4.618518e-06	-2.204182e-08	-3.301684e+01	-1.442076e+03
2.910000e-06	-4.701777e-06	-2.223654e-08	-3.361205e+01	-1.454515e+03
2.920000e-06	-4.783459e-06	-2.242031e-08	-3.419597e+01	-1.466408e+03
2.930000e-06	-4.863436e-06	-2.259266e-08	-3.476772e+01	-1.477798e+03
2.940000e-06	-4.941413e-06	-2.275601e-08	-3.532515e+01	-1.488715e+03
