# Temperatura_=_67.49
# Concentracion g/m^3_=_28200.0
# C_Vs_to_Am_M_A/Vsm_=_65563218390.804596
# pendiente_HvsI_1/m_=_3716.3
# ordenada_HvsI_A/m_=_1297.0
# frecuencia_Hz_=_302099.98612156964

Tiempo_(s)	Campo_(V.s)	Magnetizacion_(V.s)	Campo_(kA/m)	Magnetizacion_(A/m)
0.000000e+00	-6.393381e-06	-2.092342e-08	-4.558039e+01	-1.369881e+03
1.000000e-08	-6.389974e-06	-2.092142e-08	-4.555610e+01	-1.369398e+03
2.000000e-08	-6.384535e-06	-2.091182e-08	-4.551732e+01	-1.368748e+03
3.000000e-08	-6.377142e-06	-2.090217e-08	-4.546462e+01	-1.367951e+03
4.000000e-08	-6.367551e-06	-2.088771e-08	-4.539624e+01	-1.367032e+03
5.000000e-08	-6.355576e-06	-2.087100e-08	-4.531087e+01	-1.366011e+03
6.000000e-08	-6.341280e-06	-2.085199e-08	-4.520894e+01	-1.364896e+03
7.000000e-08	-6.324652e-06	-2.081695e-08	-4.509040e+01	-1.363682e+03
8.000000e-08	-6.305936e-06	-2.080298e-08	-4.495697e+01	-1.362353e+03
9.000000e-08	-6.285122e-06	-2.085396e-08	-4.480857e+01	-1.360881e+03
1.000000e-07	-6.261846e-06	-2.079784e-08	-4.464264e+01	-1.359236e+03
1.100000e-07	-6.235890e-06	-2.072008e-08	-4.445758e+01	-1.357396e+03
1.200000e-07	-6.207606e-06	-2.071603e-08	-4.425595e+01	-1.355349e+03
1.300000e-07	-6.177517e-06	-2.067409e-08	-4.404143e+01	-1.353100e+03
1.400000e-07	-6.145911e-06	-2.056843e-08	-4.381610e+01	-1.350669e+03
1.500000e-07	-6.112503e-06	-2.066225e-08	-4.357792e+01	-1.348086e+03
1.600000e-07	-6.077028e-06	-2.066883e-08	-4.332501e+01	-1.345384e+03
1.700000e-07	-6.039766e-06	-2.048283e-08	-4.305936e+01	-1.342589e+03
1.800000e-07	-6.000396e-06	-2.059338e-08	-4.277868e+01	-1.339714e+03
1.900000e-07	-5.958455e-06	-2.046720e-08	-4.247967e+01	-1.336755e+03
2.000000e-07	-5.914355e-06	-2.033357e-08	-4.216526e+01	-1.333693e+03
2.100000e-07	-5.868258e-06	-2.037774e-08	-4.183663e+01	-1.330492e+03
2.200000e-07	-5.819822e-06	-2.020547e-08	-4.149131e+01	-1.327114e+03
2.300000e-07	-5.768881e-06	-2.016257e-08	-4.112814e+01	-1.323520e+03
2.400000e-07	-5.715399e-06	-2.015592e-08	-4.074685e+01	-1.319680e+03
2.500000e-07	-5.659797e-06	-2.007518e-08	-4.035044e+01	-1.315576e+03
2.600000e-07	-5.602064e-06	-2.002029e-08	-3.993884e+01	-1.311201e+03
2.700000e-07	-5.542203e-06	-1.992822e-08	-3.951208e+01	-1.306555e+03
2.800000e-07	-5.480423e-06	-1.985752e-08	-3.907163e+01	-1.301644e+03
2.900000e-07	-5.416650e-06	-1.974043e-08	-3.861697e+01	-1.296473e+03
3.000000e-07	-5.350745e-06	-1.969057e-08	-3.814712e+01	-1.291043e+03
3.100000e-07	-5.282728e-06	-1.965178e-08	-3.766220e+01	-1.285350e+03
3.200000e-07	-5.212718e-06	-1.952443e-08	-3.716308e+01	-1.279386e+03
3.300000e-07	-5.140919e-06	-1.942471e-08	-3.665120e+01	-1.273143e+03
3.400000e-07	-5.067242e-06	-1.928796e-08	-3.612594e+01	-1.266616e+03
3.500000e-07	-4.991412e-06	-1.919787e-08	-3.558532e+01	-1.259806e+03
3.600000e-07	-4.913517e-06	-1.910311e-08	-3.502998e+01	-1.252719e+03
3.700000e-07	-4.833577e-06	-1.899572e-08	-3.446006e+01	-1.245363e+03
3.800000e-07	-4.751817e-06	-1.889758e-08	-3.387717e+01	-1.237745e+03
3.900000e-07	-4.668568e-06	-1.874209e-08	-3.328366e+01	-1.229868e+03
4.000000e-07	-4.583938e-06	-1.860730e-08	-3.268031e+01	-1.221722e+03
4.100000e-07	-4.497827e-06	-1.848809e-08	-3.206640e+01	-1.213288e+03
4.200000e-07	-4.410323e-06	-1.837454e-08	-3.144256e+01	-1.204539e+03
4.300000e-07	-4.321361e-06	-1.823107e-08	-3.080832e+01	-1.195440e+03
4.400000e-07	-4.230682e-06	-1.807747e-08	-3.016184e+01	-1.185959e+03
4.500000e-07	-4.138390e-06	-1.793369e-08	-2.950386e+01	-1.176069e+03
4.600000e-07	-4.044644e-06	-1.776225e-08	-2.883551e+01	-1.165754e+03
4.700000e-07	-3.949545e-06	-1.760261e-08	-2.815753e+01	-1.155009e+03
4.800000e-07	-3.853054e-06	-1.743835e-08	-2.746961e+01	-1.143838e+03
4.900000e-07	-3.755113e-06	-1.725813e-08	-2.677136e+01	-1.132246e+03
5.000000e-07	-3.655674e-06	-1.705858e-08	-2.606243e+01	-1.120235e+03
5.100000e-07	-3.554815e-06	-1.686505e-08	-2.534337e+01	-1.107797e+03
5.200000e-07	-3.452783e-06	-1.667641e-08	-2.461596e+01	-1.094907e+03
5.300000e-07	-3.349662e-06	-1.647191e-08	-2.388078e+01	-1.081528e+03
5.400000e-07	-3.245318e-06	-1.626075e-08	-2.313688e+01	-1.067612e+03
5.500000e-07	-3.139599e-06	-1.603539e-08	-2.238318e+01	-1.053104e+03
5.600000e-07	-3.032549e-06	-1.580141e-08	-2.161998e+01	-1.037952e+03
5.700000e-07	-2.924333e-06	-1.555404e-08	-2.084848e+01	-1.022108e+03
5.800000e-07	-2.815043e-06	-1.530010e-08	-2.006931e+01	-1.005535e+03
5.900000e-07	-2.704816e-06	-1.503330e-08	-1.928347e+01	-9.882044e+02
6.000000e-07	-2.593646e-06	-1.475236e-08	-1.849090e+01	-9.700893e+02
6.100000e-07	-2.481437e-06	-1.445916e-08	-1.769093e+01	-9.511617e+02
6.200000e-07	-2.368302e-06	-1.415742e-08	-1.688435e+01	-9.313841e+02
6.300000e-07	-2.254105e-06	-1.384747e-08	-1.607021e+01	-9.107058e+02
6.400000e-07	-2.138771e-06	-1.351913e-08	-1.524796e+01	-8.890601e+02
6.500000e-07	-2.022605e-06	-1.317125e-08	-1.441978e+01	-8.663661e+02
6.600000e-07	-1.905774e-06	-1.279929e-08	-1.358685e+01	-8.425317e+02
6.700000e-07	-1.788269e-06	-1.241185e-08	-1.274912e+01	-8.174579e+02
6.800000e-07	-1.670242e-06	-1.200975e-08	-1.190767e+01	-7.910429e+02
6.900000e-07	-1.551665e-06	-1.158662e-08	-1.106230e+01	-7.631841e+02
7.000000e-07	-1.432474e-06	-1.113922e-08	-1.021255e+01	-7.337801e+02
7.100000e-07	-1.312816e-06	-1.066202e-08	-9.359470e+00	-7.027313e+02
7.200000e-07	-1.192719e-06	-1.015751e-08	-8.503261e+00	-6.699429e+02
7.300000e-07	-1.072269e-06	-9.625062e-09	-7.644538e+00	-6.353312e+02
7.400000e-07	-9.515136e-07	-9.066755e-09	-6.783635e+00	-5.988350e+02
7.500000e-07	-8.304040e-07	-8.485045e-09	-5.920207e+00	-5.604303e+02
7.600000e-07	-7.089636e-07	-7.873648e-09	-5.054421e+00	-5.201473e+02
7.700000e-07	-5.873062e-07	-7.227926e-09	-4.187087e+00	-4.780849e+02
7.800000e-07	-4.654418e-07	-6.557897e-09	-3.318279e+00	-4.344184e+02
7.900000e-07	-3.433321e-07	-5.872253e-09	-2.447721e+00	-3.893952e+02
8.000000e-07	-2.210026e-07	-5.172479e-09	-1.575596e+00	-3.433172e+02
8.100000e-07	-9.845547e-08	-4.462140e-09	-7.019195e-01	-2.965086e+02
8.200000e-07	2.417643e-08	-3.747058e-09	1.723613e-01	-2.492746e+02
8.300000e-07	1.468473e-07	-3.027296e-09	1.046919e+00	-2.018570e+02
8.400000e-07	2.694049e-07	-2.302068e-09	1.920671e+00	-1.543952e+02
8.500000e-07	3.918490e-07	-1.576404e-09	2.793613e+00	-1.069027e+02
8.600000e-07	5.141995e-07	-8.463217e-10	3.665887e+00	-5.926487e+01
8.700000e-07	6.363086e-07	-1.110995e-10	4.536441e+00	-1.126144e+01
8.800000e-07	7.581427e-07	6.310535e-10	5.405034e+00	3.738778e+01
8.900000e-07	8.796302e-07	1.382207e-09	6.271156e+00	8.696140e+01
9.000000e-07	1.000794e-06	2.149801e-09	7.134967e+00	1.376695e+02
9.100000e-07	1.121604e-06	2.939654e-09	7.996259e+00	1.895934e+02
9.200000e-07	1.242067e-06	3.746043e-09	8.855081e+00	2.426447e+02
9.300000e-07	1.362228e-06	4.565948e-09	9.711747e+00	2.965504e+02
9.400000e-07	1.481944e-06	5.394189e-09	1.056523e+01	3.508689e+02
9.500000e-07	1.601098e-06	6.221458e-09	1.141472e+01	4.050332e+02
9.600000e-07	1.719593e-06	7.036061e-09	1.225951e+01	4.584138e+02
9.700000e-07	1.837447e-06	7.828002e-09	1.309973e+01	5.103899e+02
9.800000e-07	1.954696e-06	8.586161e-09	1.393563e+01	5.604163e+02
9.900000e-07	2.071212e-06	9.303473e-09	1.476631e+01	6.080741e+02
1.000000e-06	2.186894e-06	9.978643e-09	1.559104e+01	6.530995e+02
1.010000e-06	2.301619e-06	1.061387e-08	1.640895e+01	6.953863e+02
1.020000e-06	2.415202e-06	1.121198e-08	1.721872e+01	7.349660e+02
1.030000e-06	2.527753e-06	1.177601e-08	1.802113e+01	7.719719e+02
1.040000e-06	2.639343e-06	1.230714e-08	1.881669e+01	8.065966e+02
1.050000e-06	2.749885e-06	1.280054e-08	1.960478e+01	8.390513e+02
1.060000e-06	2.859566e-06	1.326145e-08	2.038673e+01	8.695350e+02
1.070000e-06	2.968382e-06	1.369302e-08	2.116251e+01	8.982166e+02
1.080000e-06	3.076301e-06	1.409982e-08	2.193190e+01	9.252310e+02
1.090000e-06	3.183207e-06	1.448438e-08	2.269406e+01	9.506857e+02
1.100000e-06	3.288827e-06	1.485158e-08	2.344707e+01	9.746724e+02
1.110000e-06	3.393169e-06	1.519832e-08	2.419095e+01	9.972799e+02
1.120000e-06	3.496227e-06	1.552553e-08	2.492568e+01	1.018602e+03
1.130000e-06	3.598095e-06	1.583317e-08	2.565193e+01	1.038740e+03
1.140000e-06	3.698829e-06	1.612244e-08	2.637010e+01	1.057798e+03
1.150000e-06	3.798408e-06	1.639787e-08	2.708002e+01	1.075877e+03
1.160000e-06	3.896514e-06	1.665840e-08	2.777945e+01	1.093063e+03
1.170000e-06	3.992995e-06	1.690718e-08	2.846730e+01	1.109427e+03
1.180000e-06	4.088047e-06	1.714282e-08	2.914495e+01	1.125016e+03
1.190000e-06	4.181705e-06	1.736511e-08	2.981267e+01	1.139861e+03
1.200000e-06	4.274075e-06	1.757649e-08	3.047121e+01	1.153985e+03
1.210000e-06	4.365020e-06	1.777807e-08	3.111958e+01	1.167408e+03
1.220000e-06	4.454299e-06	1.797032e-08	3.175608e+01	1.180155e+03
1.230000e-06	4.541868e-06	1.815442e-08	3.238038e+01	1.192263e+03
1.240000e-06	4.627826e-06	1.832916e-08	3.299320e+01	1.203776e+03
1.250000e-06	4.712295e-06	1.849818e-08	3.359541e+01	1.214740e+03
1.260000e-06	4.795208e-06	1.865876e-08	3.418652e+01	1.225199e+03
1.270000e-06	4.876328e-06	1.881036e-08	3.476485e+01	1.235187e+03
1.280000e-06	4.955576e-06	1.895479e-08	3.532983e+01	1.244723e+03
1.290000e-06	5.033011e-06	1.909309e-08	3.588189e+01	1.253809e+03
1.300000e-06	5.108565e-06	1.922495e-08	3.642054e+01	1.262439e+03
1.310000e-06	5.182070e-06	1.935189e-08	3.694458e+01	1.270603e+03
1.320000e-06	5.253572e-06	1.947172e-08	3.745434e+01	1.278296e+03
1.330000e-06	5.323202e-06	1.958224e-08	3.795075e+01	1.285526e+03
1.340000e-06	5.391013e-06	1.968348e-08	3.843420e+01	1.292317e+03
1.350000e-06	5.456801e-06	1.977810e-08	3.890322e+01	1.298706e+03
1.360000e-06	5.520523e-06	1.987105e-08	3.935751e+01	1.304742e+03
1.370000e-06	5.582411e-06	1.996173e-08	3.979873e+01	1.310476e+03
1.380000e-06	5.642505e-06	2.004597e-08	4.022716e+01	1.315952e+03
1.390000e-06	5.700599e-06	2.012446e-08	4.064133e+01	1.321202e+03
1.400000e-06	5.756529e-06	2.019956e-08	4.104008e+01	1.326241e+03
1.410000e-06	5.810397e-06	2.027187e-08	4.142412e+01	1.331068e+03
1.420000e-06	5.862068e-06	2.034120e-08	4.179250e+01	1.335673e+03
1.430000e-06	5.911222e-06	2.040608e-08	4.214293e+01	1.340039e+03
1.440000e-06	5.958083e-06	2.046800e-08	4.247701e+01	1.344152e+03
1.450000e-06	6.003004e-06	2.052730e-08	4.279727e+01	1.348004e+03
1.460000e-06	6.045938e-06	2.058333e-08	4.310336e+01	1.351597e+03
1.470000e-06	6.086548e-06	2.063322e-08	4.339288e+01	1.354937e+03
1.480000e-06	6.124889e-06	2.067927e-08	4.366623e+01	1.358037e+03
1.490000e-06	6.161313e-06	2.072404e-08	4.392590e+01	1.360907e+03
1.500000e-06	6.195653e-06	2.076225e-08	4.417073e+01	1.363554e+03
1.510000e-06	6.227682e-06	2.079529e-08	4.439907e+01	1.365977e+03
1.520000e-06	6.257492e-06	2.082689e-08	4.461160e+01	1.368172e+03
1.530000e-06	6.285288e-06	2.085606e-08	4.480976e+01	1.370135e+03
1.540000e-06	6.310734e-06	2.088251e-08	4.499118e+01	1.371861e+03
1.550000e-06	6.333721e-06	2.090675e-08	4.515505e+01	1.373355e+03
1.560000e-06	6.354592e-06	2.092741e-08	4.530385e+01	1.374627e+03
1.570000e-06	6.373345e-06	2.094578e-08	4.543754e+01	1.375696e+03
1.580000e-06	6.389707e-06	2.095901e-08	4.555420e+01	1.376584e+03
1.590000e-06	6.403613e-06	2.096864e-08	4.565334e+01	1.377312e+03
1.600000e-06	6.415155e-06	2.097723e-08	4.573562e+01	1.377894e+03
1.610000e-06	6.424129e-06	2.098415e-08	4.579960e+01	1.378336e+03
1.620000e-06	6.430660e-06	2.099010e-08	4.584616e+01	1.378633e+03
1.630000e-06	6.435043e-06	2.099169e-08	4.587741e+01	1.378774e+03
1.640000e-06	6.437174e-06	2.099302e-08	4.589260e+01	1.378743e+03
1.650000e-06	6.437008e-06	2.099447e-08	4.589142e+01	1.378532e+03
1.660000e-06	6.434685e-06	2.098471e-08	4.587486e+01	1.378136e+03
1.670000e-06	6.430377e-06	2.097582e-08	4.584415e+01	1.377565e+03
1.680000e-06	6.423780e-06	2.096575e-08	4.579711e+01	1.376836e+03
1.690000e-06	6.414968e-06	2.095517e-08	4.573429e+01	1.375973e+03
1.700000e-06	6.404232e-06	2.094534e-08	4.565775e+01	1.374998e+03
1.710000e-06	6.391277e-06	2.093398e-08	4.556539e+01	1.373927e+03
1.720000e-06	6.376027e-06	2.093177e-08	4.545667e+01	1.372762e+03
1.730000e-06	6.358808e-06	2.088915e-08	4.533391e+01	1.371492e+03
1.740000e-06	6.339528e-06	2.077095e-08	4.519646e+01	1.370092e+03
1.750000e-06	6.317247e-06	2.078973e-08	4.503761e+01	1.368535e+03
1.760000e-06	6.291814e-06	2.081641e-08	4.485629e+01	1.366792e+03
1.770000e-06	6.264136e-06	2.076722e-08	4.465896e+01	1.364847e+03
1.780000e-06	6.234659e-06	2.082201e-08	4.444881e+01	1.362695e+03
1.790000e-06	6.203528e-06	2.079610e-08	4.422687e+01	1.360349e+03
1.800000e-06	6.171034e-06	2.060986e-08	4.399521e+01	1.357836e+03
1.810000e-06	6.136480e-06	2.061597e-08	4.374886e+01	1.355187e+03
1.820000e-06	6.099840e-06	2.042600e-08	4.348764e+01	1.352433e+03
1.830000e-06	6.061184e-06	2.035859e-08	4.321205e+01	1.349595e+03
1.840000e-06	6.020044e-06	2.061170e-08	4.291876e+01	1.346678e+03
1.850000e-06	5.976919e-06	2.043377e-08	4.261130e+01	1.343668e+03
1.860000e-06	5.931795e-06	2.044030e-08	4.228960e+01	1.340539e+03
1.870000e-06	5.884437e-06	2.044863e-08	4.195197e+01	1.337252e+03
1.880000e-06	5.835002e-06	2.025665e-08	4.159953e+01	1.333768e+03
1.890000e-06	5.783146e-06	2.031727e-08	4.122984e+01	1.330052e+03
1.900000e-06	5.728702e-06	2.015914e-08	4.084168e+01	1.326079e+03
1.910000e-06	5.672018e-06	2.012577e-08	4.043757e+01	1.321837e+03
1.920000e-06	5.613246e-06	2.014546e-08	4.001857e+01	1.317324e+03
1.930000e-06	5.552618e-06	2.000125e-08	3.958633e+01	1.312542e+03
1.940000e-06	5.489879e-06	2.001206e-08	3.913905e+01	1.307499e+03
1.950000e-06	5.424962e-06	1.980321e-08	3.867623e+01	1.302196e+03
1.960000e-06	5.358056e-06	1.976901e-08	3.819924e+01	1.296633e+03
1.970000e-06	5.289151e-06	1.969378e-08	3.770799e+01	1.290803e+03
1.980000e-06	5.218165e-06	1.955810e-08	3.720191e+01	1.284697e+03
1.990000e-06	5.145156e-06	1.955355e-08	3.668141e+01	1.278311e+03
2.000000e-06	5.070474e-06	1.938092e-08	3.614898e+01	1.271640e+03
2.010000e-06	4.993745e-06	1.930877e-08	3.560195e+01	1.264688e+03
2.020000e-06	4.914819e-06	1.915220e-08	3.503927e+01	1.257463e+03
2.030000e-06	4.834116e-06	1.906297e-08	3.446391e+01	1.249973e+03
2.040000e-06	4.751822e-06	1.900001e-08	3.387721e+01	1.242223e+03
2.050000e-06	4.668119e-06	1.883866e-08	3.328046e+01	1.234211e+03
2.060000e-06	4.582759e-06	1.873171e-08	3.267191e+01	1.225922e+03
2.070000e-06	4.495586e-06	1.855857e-08	3.205042e+01	1.217332e+03
2.080000e-06	4.406798e-06	1.844341e-08	3.141742e+01	1.208410e+03
2.090000e-06	4.316507e-06	1.828759e-08	3.077371e+01	1.199121e+03
2.100000e-06	4.224863e-06	1.815950e-08	3.012035e+01	1.189436e+03
2.110000e-06	4.131806e-06	1.801613e-08	2.945693e+01	1.179332e+03
2.120000e-06	4.037192e-06	1.783251e-08	2.878239e+01	1.168800e+03
2.130000e-06	3.941068e-06	1.767499e-08	2.809709e+01	1.157839e+03
2.140000e-06	3.843551e-06	1.749786e-08	2.740187e+01	1.146454e+03
2.150000e-06	3.744705e-06	1.733905e-08	2.669716e+01	1.134651e+03
2.160000e-06	3.644622e-06	1.714358e-08	2.598364e+01	1.122426e+03
2.170000e-06	3.543155e-06	1.696475e-08	2.526025e+01	1.109763e+03
2.180000e-06	3.440203e-06	1.675417e-08	2.452627e+01	1.096632e+03
2.190000e-06	3.335902e-06	1.653932e-08	2.378267e+01	1.082989e+03
2.200000e-06	3.230386e-06	1.632313e-08	2.303042e+01	1.068781e+03
2.210000e-06	3.123797e-06	1.610475e-08	2.227051e+01	1.053955e+03
2.220000e-06	3.016176e-06	1.587325e-08	2.150325e+01	1.038460e+03
2.230000e-06	2.907521e-06	1.562126e-08	2.072862e+01	1.022253e+03
2.240000e-06	2.797879e-06	1.537451e-08	1.994694e+01	1.005302e+03
2.250000e-06	2.687193e-06	1.511116e-08	1.915783e+01	9.875803e+02
2.260000e-06	2.575434e-06	1.483282e-08	1.836107e+01	9.690606e+02
2.270000e-06	2.462635e-06	1.452973e-08	1.755688e+01	9.497110e+02
2.280000e-06	2.348821e-06	1.422098e-08	1.674547e+01	9.294880e+02
2.290000e-06	2.234126e-06	1.389534e-08	1.592777e+01	9.083329e+02
2.300000e-06	2.118605e-06	1.356083e-08	1.510419e+01	8.861716e+02
2.310000e-06	2.002241e-06	1.321007e-08	1.427460e+01	8.629170e+02
2.320000e-06	1.885117e-06	1.284098e-08	1.343958e+01	8.384732e+02
2.330000e-06	1.767284e-06	1.244851e-08	1.259951e+01	8.127392e+02
2.340000e-06	1.648658e-06	1.202991e-08	1.175379e+01	7.856127e+02
2.350000e-06	1.529232e-06	1.159364e-08	1.090237e+01	7.569916e+02
2.360000e-06	1.409295e-06	1.114017e-08	1.004730e+01	7.267750e+02
2.370000e-06	1.289043e-06	1.066460e-08	9.189985e+00	6.948654e+02
2.380000e-06	1.168460e-06	1.015158e-08	8.330311e+00	6.611723e+02
2.390000e-06	1.047541e-06	9.604405e-09	7.468246e+00	6.256217e+02
2.400000e-06	9.262348e-07	9.027092e-09	6.603414e+00	5.881689e+02
2.410000e-06	8.046403e-07	8.426719e-09	5.736529e+00	5.488148e+02
2.420000e-06	6.828474e-07	7.801036e-09	4.868231e+00	5.076227e+02
2.430000e-06	5.608546e-07	7.151239e-09	3.998506e+00	4.647292e+02
2.440000e-06	4.387050e-07	6.477410e-09	3.127664e+00	4.203470e+02
2.450000e-06	3.164345e-07	5.779249e-09	2.255959e+00	3.747540e+02
2.460000e-06	1.940434e-07	5.064987e-09	1.383395e+00	3.282679e+02
2.470000e-06	7.159460e-08	4.343499e-09	5.104200e-01	2.812090e+02
2.480000e-06	-5.083885e-08	3.621399e-09	-3.624459e-01	2.338563e+02
2.490000e-06	-1.732482e-07	2.898528e-09	-1.235140e+00	1.864043e+02
2.500000e-06	-2.956257e-07	2.173147e-09	-2.107607e+00	1.389313e+02
2.510000e-06	-4.179488e-07	1.446952e-09	-2.979686e+00	9.138555e+01
2.520000e-06	-5.401970e-07	7.168896e-10	-3.851232e+00	4.359511e+01
2.530000e-06	-6.623063e-07	-2.122690e-11	-4.721787e+00	-4.697108e+00
2.540000e-06	-7.842339e-07	-7.712883e-10	-5.591046e+00	-5.377882e+01
2.550000e-06	-9.059178e-07	-1.537477e-09	-6.458568e+00	-1.039026e+02
2.560000e-06	-1.027262e-06	-2.320304e-09	-7.323670e+00	-1.552207e+02
2.570000e-06	-1.148259e-06	-3.120920e-09	-8.186292e+00	-2.077333e+02
2.580000e-06	-1.268872e-06	-3.936876e-09	-9.046183e+00	-2.612596e+02
2.590000e-06	-1.389054e-06	-4.765632e-09	-9.902993e+00	-3.154384e+02
2.600000e-06	-1.508784e-06	-5.599999e-09	-1.075659e+01	-3.697586e+02
2.610000e-06	-1.627823e-06	-6.426831e-09	-1.160525e+01	-4.236132e+02
2.620000e-06	-1.745933e-06	-7.234181e-09	-1.244730e+01	-4.763683e+02
2.630000e-06	-1.863273e-06	-8.015213e-09	-1.328385e+01	-5.274331e+02
2.640000e-06	-1.979925e-06	-8.763730e-09	-1.411550e+01	-5.763206e+02
2.650000e-06	-2.095762e-06	-9.474691e-09	-1.494134e+01	-6.226875e+02
2.660000e-06	-2.210717e-06	-1.014471e-08	-1.576088e+01	-6.663500e+02
2.670000e-06	-2.324683e-06	-1.077370e-08	-1.657338e+01	-7.072744e+02
2.680000e-06	-2.437470e-06	-1.136425e-08	-1.737748e+01	-7.455482e+02
2.690000e-06	-2.549199e-06	-1.191714e-08	-1.817403e+01	-7.813397e+02
2.700000e-06	-2.659983e-06	-1.243264e-08	-1.896384e+01	-8.148556e+02
2.710000e-06	-2.769699e-06	-1.291422e-08	-1.974604e+01	-8.463039e+02
2.720000e-06	-2.878522e-06	-1.336741e-08	-2.052187e+01	-8.758700e+02
2.730000e-06	-2.986564e-06	-1.379265e-08	-2.129214e+01	-9.037055e+02
2.740000e-06	-3.093630e-06	-1.419190e-08	-2.205545e+01	-9.299303e+02
2.750000e-06	-3.199621e-06	-1.456818e-08	-2.281109e+01	-9.546424e+02
2.760000e-06	-3.304528e-06	-1.492153e-08	-2.355900e+01	-9.779306e+02
2.770000e-06	-3.408301e-06	-1.525565e-08	-2.429883e+01	-9.998855e+02
2.780000e-06	-3.510709e-06	-1.557350e-08	-2.502893e+01	-1.020605e+03
2.790000e-06	-3.611735e-06	-1.587409e-08	-2.574917e+01	-1.040192e+03
2.800000e-06	-3.711477e-06	-1.615982e-08	-2.646026e+01	-1.058751e+03
2.810000e-06	-3.809961e-06	-1.643052e-08	-2.716239e+01	-1.076376e+03
2.820000e-06	-3.907211e-06	-1.668497e-08	-2.785571e+01	-1.093147e+03
2.830000e-06	-4.003248e-06	-1.692695e-08	-2.854040e+01	-1.109120e+03
2.840000e-06	-4.097796e-06	-1.716011e-08	-2.921445e+01	-1.124337e+03
2.850000e-06	-4.190825e-06	-1.738501e-08	-2.987769e+01	-1.138821e+03
2.860000e-06	-4.282448e-06	-1.759921e-08	-3.053090e+01	-1.152594e+03
2.870000e-06	-4.372440e-06	-1.780154e-08	-3.117248e+01	-1.165678e+03
2.880000e-06	-4.460882e-06	-1.799300e-08	-3.180301e+01	-1.178103e+03
2.890000e-06	-4.547626e-06	-1.817361e-08	-3.242143e+01	-1.189910e+03
2.900000e-06	-4.632633e-06	-1.834388e-08	-3.302748e+01	-1.201144e+03
2.910000e-06	-4.716049e-06	-1.850694e-08	-3.362217e+01	-1.211854e+03
2.920000e-06	-4.797825e-06	-1.866373e-08	-3.420518e+01	-1.222077e+03
2.930000e-06	-4.877966e-06	-1.881365e-08	-3.477653e+01	-1.231839e+03
2.940000e-06	-4.956208e-06	-1.895511e-08	-3.533434e+01	-1.241153e+03
