# Temperatura_=_89.7
# Concentracion g/m^3_=_28200.0
# C_Vs_to_Am_M_A/Vsm_=_65563218390.804596
# pendiente_HvsI_1/m_=_3716.3
# ordenada_HvsI_A/m_=_1297.0
# frecuencia_Hz_=_302091.86682893307

Tiempo_(s)	Campo_(V.s)	Magnetizacion_(V.s)	Campo_(kA/m)	Magnetizacion_(A/m)
0.000000e+00	-6.358522e-06	-2.518996e-08	-4.558516e+01	-1.647285e+03
1.000000e-08	-6.355121e-06	-2.518635e-08	-4.556077e+01	-1.646749e+03
2.000000e-08	-6.349749e-06	-2.517724e-08	-4.552226e+01	-1.646078e+03
3.000000e-08	-6.342507e-06	-2.516512e-08	-4.547034e+01	-1.645258e+03
4.000000e-08	-6.333107e-06	-2.514592e-08	-4.540296e+01	-1.644257e+03
5.000000e-08	-6.321288e-06	-2.512327e-08	-4.531822e+01	-1.643032e+03
6.000000e-08	-6.307119e-06	-2.510057e-08	-4.521664e+01	-1.641544e+03
7.000000e-08	-6.290636e-06	-2.506596e-08	-4.509847e+01	-1.639766e+03
8.000000e-08	-6.272054e-06	-2.504258e-08	-4.496525e+01	-1.637703e+03
9.000000e-08	-6.251432e-06	-2.507174e-08	-4.481741e+01	-1.635392e+03
1.000000e-07	-6.228420e-06	-2.501855e-08	-4.465243e+01	-1.632904e+03
1.100000e-07	-6.202757e-06	-2.493742e-08	-4.446846e+01	-1.630332e+03
1.200000e-07	-6.174777e-06	-2.491203e-08	-4.426786e+01	-1.627771e+03
1.300000e-07	-6.144907e-06	-2.486478e-08	-4.405372e+01	-1.625300e+03
1.400000e-07	-6.113448e-06	-2.476259e-08	-4.382818e+01	-1.622958e+03
1.500000e-07	-6.080279e-06	-2.481921e-08	-4.359039e+01	-1.620734e+03
1.600000e-07	-6.045068e-06	-2.479770e-08	-4.333796e+01	-1.618560e+03
1.700000e-07	-6.008023e-06	-2.461223e-08	-4.307238e+01	-1.616323e+03
1.800000e-07	-5.968952e-06	-2.469163e-08	-4.279227e+01	-1.613884e+03
1.900000e-07	-5.927326e-06	-2.458294e-08	-4.249385e+01	-1.611102e+03
2.000000e-07	-5.883500e-06	-2.447345e-08	-4.217966e+01	-1.607861e+03
2.100000e-07	-5.837684e-06	-2.451170e-08	-4.185119e+01	-1.604093e+03
2.200000e-07	-5.789546e-06	-2.431401e-08	-4.150609e+01	-1.599783e+03
2.300000e-07	-5.738950e-06	-2.422153e-08	-4.114336e+01	-1.594971e+03
2.400000e-07	-5.685858e-06	-2.420179e-08	-4.076273e+01	-1.589736e+03
2.500000e-07	-5.630642e-06	-2.411342e-08	-4.036688e+01	-1.584172e+03
2.600000e-07	-5.573360e-06	-2.405047e-08	-3.995621e+01	-1.578367e+03
2.700000e-07	-5.513894e-06	-2.396035e-08	-3.952989e+01	-1.572379e+03
2.800000e-07	-5.452447e-06	-2.385573e-08	-3.908938e+01	-1.566225e+03
2.900000e-07	-5.389083e-06	-2.370380e-08	-3.863511e+01	-1.559881e+03
3.000000e-07	-5.323632e-06	-2.362503e-08	-3.816588e+01	-1.553293e+03
3.100000e-07	-5.256065e-06	-2.356919e-08	-3.768148e+01	-1.546393e+03
3.200000e-07	-5.186524e-06	-2.343733e-08	-3.718293e+01	-1.539119e+03
3.300000e-07	-5.115164e-06	-2.331860e-08	-3.667135e+01	-1.531433e+03
3.400000e-07	-5.041971e-06	-2.315969e-08	-3.614661e+01	-1.523328e+03
3.500000e-07	-4.966689e-06	-2.303110e-08	-3.560690e+01	-1.514829e+03
3.600000e-07	-4.889289e-06	-2.291387e-08	-3.505201e+01	-1.505980e+03
3.700000e-07	-4.809874e-06	-2.278940e-08	-3.448268e+01	-1.496829e+03
3.800000e-07	-4.728629e-06	-2.267060e-08	-3.390022e+01	-1.487411e+03
3.900000e-07	-4.645843e-06	-2.249140e-08	-3.330671e+01	-1.477737e+03
4.000000e-07	-4.561622e-06	-2.231605e-08	-3.270292e+01	-1.467786e+03
4.100000e-07	-4.476026e-06	-2.216600e-08	-3.208927e+01	-1.457509e+03
4.200000e-07	-4.389032e-06	-2.202325e-08	-3.146560e+01	-1.446843e+03
4.300000e-07	-4.300559e-06	-2.184989e-08	-3.083132e+01	-1.435723e+03
4.400000e-07	-4.210453e-06	-2.166042e-08	-3.018534e+01	-1.424101e+03
4.500000e-07	-4.118680e-06	-2.148072e-08	-2.952741e+01	-1.411952e+03
4.600000e-07	-4.025467e-06	-2.127654e-08	-2.885915e+01	-1.399280e+03
4.700000e-07	-3.930924e-06	-2.108465e-08	-2.818135e+01	-1.386108e+03
4.800000e-07	-3.835023e-06	-2.089255e-08	-2.749383e+01	-1.372468e+03
4.900000e-07	-3.737665e-06	-2.067905e-08	-2.679585e+01	-1.358383e+03
5.000000e-07	-3.638845e-06	-2.044184e-08	-2.608740e+01	-1.343857e+03
5.100000e-07	-3.538647e-06	-2.020246e-08	-2.536907e+01	-1.328864e+03
5.200000e-07	-3.437244e-06	-1.996908e-08	-2.464210e+01	-1.313352e+03
5.300000e-07	-3.334645e-06	-1.972393e-08	-2.390655e+01	-1.297251e+03
5.400000e-07	-3.230831e-06	-1.947139e-08	-2.316229e+01	-1.280483e+03
5.500000e-07	-3.125879e-06	-1.920279e-08	-2.240987e+01	-1.262981e+03
5.600000e-07	-3.019599e-06	-1.892323e-08	-2.164794e+01	-1.244692e+03
5.700000e-07	-2.911967e-06	-1.862851e-08	-2.087631e+01	-1.225588e+03
5.800000e-07	-2.803248e-06	-1.832785e-08	-2.009689e+01	-1.205656e+03
5.900000e-07	-2.693630e-06	-1.801397e-08	-1.931102e+01	-1.184891e+03
6.000000e-07	-2.583119e-06	-1.768059e-08	-1.851875e+01	-1.163278e+03
6.100000e-07	-2.471684e-06	-1.733112e-08	-1.771986e+01	-1.140782e+03
6.200000e-07	-2.359343e-06	-1.696972e-08	-1.691447e+01	-1.117336e+03
6.300000e-07	-2.246006e-06	-1.659925e-08	-1.610194e+01	-1.092846e+03
6.400000e-07	-2.131616e-06	-1.621006e-08	-1.528186e+01	-1.067196e+03
6.500000e-07	-2.016248e-06	-1.579845e-08	-1.445477e+01	-1.040256e+03
6.600000e-07	-1.900061e-06	-1.535782e-08	-1.362181e+01	-1.011903e+03
6.700000e-07	-1.783255e-06	-1.489773e-08	-1.278441e+01	-9.820213e+02
6.800000e-07	-1.665872e-06	-1.442068e-08	-1.194287e+01	-9.505129e+02
6.900000e-07	-1.547864e-06	-1.391947e-08	-1.109686e+01	-9.172894e+02
7.000000e-07	-1.429345e-06	-1.338773e-08	-1.024718e+01	-8.822634e+02
7.100000e-07	-1.310390e-06	-1.282242e-08	-9.394377e+00	-8.453378e+02
7.200000e-07	-1.190977e-06	-1.222507e-08	-8.538281e+00	-8.064002e+02
7.300000e-07	-1.071177e-06	-1.159332e-08	-7.679421e+00	-7.653259e+02
7.400000e-07	-9.510749e-07	-1.093108e-08	-6.818392e+00	-7.219934e+02
7.500000e-07	-8.306755e-07	-1.023982e-08	-5.955232e+00	-6.763107e+02
7.600000e-07	-7.099672e-07	-9.511396e-09	-5.089857e+00	-6.282465e+02
7.700000e-07	-5.890034e-07	-8.738255e-09	-4.222650e+00	-5.778604e+02
7.800000e-07	-4.678640e-07	-7.931198e-09	-3.354184e+00	-5.253210e+02
7.900000e-07	-3.465513e-07	-7.101824e-09	-2.484476e+00	-4.709057e+02
8.000000e-07	-2.250585e-07	-6.252487e-09	-1.613477e+00	-4.149779e+02
8.100000e-07	-1.033837e-07	-5.387072e-09	-7.411725e-01	-3.579424e+02
8.200000e-07	1.837951e-08	-4.511872e-09	1.317653e-01	-3.001869e+02
8.300000e-07	1.402025e-07	-3.628770e-09	1.005132e+00	-2.420196e+02
8.400000e-07	2.620490e-07	-2.736626e-09	1.878667e+00	-1.836169e+02
8.500000e-07	3.837361e-07	-1.840944e-09	2.751059e+00	-1.249951e+02
8.600000e-07	5.052655e-07	-9.403368e-10	3.622321e+00	-6.601152e+01
8.700000e-07	6.266414e-07	-3.067043e-11	4.492482e+00	-6.401385e+00
8.800000e-07	7.478276e-07	8.923117e-10	5.361283e+00	5.415774e+01
8.900000e-07	8.687820e-07	1.831280e-09	6.228423e+00	1.159633e+02
9.000000e-07	9.894308e-07	2.789484e-09	7.093371e+00	1.792030e+02
9.100000e-07	1.109714e-06	3.770325e-09	7.955695e+00	2.438851e+02
9.200000e-07	1.229623e-06	4.769944e-09	8.815347e+00	3.097964e+02
9.300000e-07	1.349124e-06	5.783922e-09	9.672063e+00	3.764985e+02
9.400000e-07	1.468126e-06	6.804163e-09	1.052521e+01	4.433609e+02
9.500000e-07	1.586621e-06	7.817082e-09	1.137471e+01	5.096271e+02
9.600000e-07	1.704577e-06	8.805240e-09	1.222035e+01	5.744995e+02
9.700000e-07	1.821916e-06	9.756051e-09	1.306158e+01	6.372289e+02
9.800000e-07	1.938545e-06	1.066293e-08	1.389771e+01	6.971913e+02
9.900000e-07	2.054417e-06	1.151815e-08	1.472841e+01	7.539422e+02
1.000000e-06	2.169373e-06	1.231916e-08	1.555254e+01	8.072391e+02
1.010000e-06	2.283294e-06	1.307031e-08	1.636926e+01	8.570332e+02
1.020000e-06	2.396241e-06	1.377443e-08	1.717900e+01	9.034358e+02
1.030000e-06	2.508257e-06	1.443301e-08	1.798205e+01	9.466688e+02
1.040000e-06	2.619305e-06	1.504736e-08	1.877817e+01	9.870107e+02
1.050000e-06	2.729458e-06	1.562228e-08	1.956788e+01	1.024749e+03
1.060000e-06	2.838743e-06	1.616098e-08	2.035136e+01	1.060143e+03
1.070000e-06	2.947110e-06	1.666184e-08	2.112825e+01	1.093412e+03
1.080000e-06	3.054588e-06	1.713082e-08	2.189878e+01	1.124726e+03
1.090000e-06	3.161018e-06	1.757479e-08	2.266179e+01	1.154220e+03
1.100000e-06	3.266150e-06	1.799572e-08	2.341550e+01	1.182005e+03
1.110000e-06	3.369940e-06	1.839344e-08	2.415958e+01	1.208189e+03
1.120000e-06	3.472488e-06	1.877051e-08	2.489476e+01	1.232880e+03
1.130000e-06	3.573889e-06	1.912695e-08	2.562172e+01	1.256194e+03
1.140000e-06	3.674205e-06	1.946427e-08	2.634090e+01	1.278249e+03
1.150000e-06	3.773254e-06	1.978445e-08	2.705100e+01	1.299163e+03
1.160000e-06	3.870767e-06	2.008697e-08	2.775008e+01	1.319038e+03
1.170000e-06	3.966728e-06	2.037169e-08	2.843804e+01	1.337960e+03
1.180000e-06	4.061319e-06	2.064061e-08	2.911617e+01	1.355997e+03
1.190000e-06	4.154591e-06	2.089701e-08	2.978486e+01	1.373194e+03
1.200000e-06	4.246601e-06	2.114322e-08	3.044449e+01	1.389586e+03
1.210000e-06	4.337208e-06	2.138104e-08	3.109406e+01	1.405201e+03
1.220000e-06	4.426097e-06	2.160934e-08	3.173132e+01	1.420068e+03
1.230000e-06	4.513216e-06	2.182462e-08	3.235589e+01	1.434220e+03
1.240000e-06	4.598726e-06	2.202806e-08	3.296893e+01	1.447697e+03
1.250000e-06	4.682838e-06	2.222254e-08	3.357194e+01	1.460543e+03
1.260000e-06	4.765416e-06	2.240789e-08	3.416395e+01	1.472803e+03
1.270000e-06	4.846162e-06	2.258391e-08	3.474283e+01	1.484517e+03
1.280000e-06	4.925066e-06	2.275161e-08	3.530851e+01	1.495721e+03
1.290000e-06	5.002160e-06	2.291386e-08	3.586120e+01	1.506438e+03
1.300000e-06	5.077322e-06	2.307077e-08	3.640005e+01	1.516682e+03
1.310000e-06	5.150396e-06	2.322257e-08	3.692392e+01	1.526462e+03
1.320000e-06	5.221466e-06	2.336765e-08	3.743344e+01	1.535780e+03
1.330000e-06	5.290712e-06	2.350515e-08	3.792988e+01	1.544637e+03
1.340000e-06	5.358185e-06	2.363271e-08	3.841359e+01	1.553036e+03
1.350000e-06	5.423676e-06	2.375337e-08	3.888311e+01	1.560984e+03
1.360000e-06	5.487083e-06	2.386739e-08	3.933769e+01	1.568493e+03
1.370000e-06	5.548651e-06	2.397448e-08	3.977907e+01	1.575580e+03
1.380000e-06	5.608498e-06	2.407493e-08	4.020812e+01	1.582267e+03
1.390000e-06	5.666446e-06	2.416908e-08	4.062356e+01	1.588581e+03
1.400000e-06	5.722240e-06	2.425953e-08	4.102356e+01	1.594550e+03
1.410000e-06	5.775952e-06	2.434581e-08	4.140863e+01	1.600204e+03
1.420000e-06	5.827481e-06	2.442998e-08	4.177805e+01	1.605571e+03
1.430000e-06	5.876463e-06	2.451043e-08	4.212920e+01	1.610673e+03
1.440000e-06	5.923122e-06	2.458550e-08	4.246371e+01	1.615528e+03
1.450000e-06	5.967865e-06	2.465373e-08	4.278448e+01	1.620141e+03
1.460000e-06	6.010677e-06	2.471799e-08	4.309141e+01	1.624512e+03
1.470000e-06	6.051206e-06	2.477889e-08	4.338196e+01	1.628629e+03
1.480000e-06	6.089486e-06	2.483633e-08	4.365640e+01	1.632477e+03
1.490000e-06	6.125808e-06	2.488987e-08	4.391679e+01	1.636040e+03
1.500000e-06	6.159995e-06	2.493949e-08	4.416189e+01	1.639305e+03
1.510000e-06	6.191914e-06	2.498501e-08	4.439072e+01	1.642267e+03
1.520000e-06	6.221662e-06	2.502570e-08	4.460399e+01	1.644931e+03
1.530000e-06	6.249398e-06	2.506154e-08	4.480283e+01	1.647311e+03
1.540000e-06	6.274801e-06	2.509192e-08	4.498495e+01	1.649425e+03
1.550000e-06	6.297720e-06	2.511906e-08	4.514926e+01	1.651296e+03
1.560000e-06	6.318498e-06	2.514315e-08	4.529822e+01	1.652940e+03
1.570000e-06	6.337229e-06	2.516396e-08	4.543251e+01	1.654366e+03
1.580000e-06	6.353684e-06	2.518079e-08	4.555047e+01	1.655575e+03
1.590000e-06	6.367672e-06	2.519475e-08	4.565075e+01	1.656561e+03
1.600000e-06	6.379219e-06	2.520694e-08	4.573353e+01	1.657314e+03
1.610000e-06	6.388178e-06	2.521653e-08	4.579776e+01	1.657829e+03
1.620000e-06	6.394767e-06	2.522320e-08	4.584500e+01	1.658106e+03
1.630000e-06	6.399246e-06	2.522744e-08	4.587711e+01	1.658160e+03
1.640000e-06	6.401406e-06	2.522851e-08	4.589260e+01	1.658012e+03
1.650000e-06	6.401273e-06	2.522741e-08	4.589164e+01	1.657691e+03
1.660000e-06	6.399011e-06	2.521578e-08	4.587543e+01	1.657222e+03
1.670000e-06	6.394764e-06	2.520214e-08	4.584498e+01	1.656616e+03
1.680000e-06	6.388301e-06	2.518908e-08	4.579865e+01	1.655871e+03
1.690000e-06	6.379612e-06	2.517514e-08	4.573635e+01	1.654962e+03
1.700000e-06	6.368947e-06	2.516196e-08	4.565990e+01	1.653852e+03
1.710000e-06	6.356223e-06	2.514770e-08	4.556868e+01	1.652497e+03
1.720000e-06	6.341246e-06	2.513885e-08	4.546130e+01	1.650862e+03
1.730000e-06	6.324170e-06	2.509921e-08	4.533888e+01	1.648937e+03
1.740000e-06	6.305047e-06	2.498380e-08	4.520179e+01	1.646740e+03
1.750000e-06	6.283021e-06	2.496795e-08	4.504388e+01	1.644327e+03
1.760000e-06	6.257844e-06	2.497532e-08	4.486338e+01	1.641782e+03
1.770000e-06	6.230358e-06	2.492617e-08	4.466633e+01	1.639201e+03
1.780000e-06	6.201088e-06	2.495448e-08	4.445649e+01	1.636674e+03
1.790000e-06	6.170237e-06	2.490836e-08	4.423531e+01	1.634263e+03
1.800000e-06	6.137936e-06	2.471826e-08	4.400375e+01	1.631983e+03
1.810000e-06	6.103630e-06	2.479421e-08	4.375780e+01	1.629792e+03
1.820000e-06	6.067304e-06	2.476208e-08	4.349738e+01	1.627601e+03
1.830000e-06	6.028956e-06	2.471571e-08	4.322245e+01	1.625278e+03
1.840000e-06	5.988153e-06	2.488374e-08	4.292993e+01	1.622681e+03
1.850000e-06	5.945286e-06	2.468686e-08	4.262261e+01	1.619679e+03
1.860000e-06	5.900495e-06	2.466246e-08	4.230149e+01	1.616176e+03
1.870000e-06	5.853496e-06	2.469141e-08	4.196455e+01	1.612133e+03
1.880000e-06	5.804381e-06	2.451423e-08	4.161244e+01	1.607561e+03
1.890000e-06	5.752887e-06	2.453564e-08	4.124327e+01	1.602523e+03
1.900000e-06	5.698840e-06	2.437430e-08	4.085580e+01	1.597109e+03
1.910000e-06	5.642536e-06	2.426429e-08	4.045215e+01	1.591412e+03
1.920000e-06	5.584169e-06	2.426934e-08	4.003371e+01	1.585508e+03
1.930000e-06	5.523986e-06	2.414553e-08	3.960225e+01	1.579434e+03
1.940000e-06	5.461734e-06	2.411559e-08	3.915595e+01	1.573188e+03
1.950000e-06	5.397264e-06	2.391556e-08	3.869376e+01	1.566727e+03
1.960000e-06	5.330824e-06	2.383145e-08	3.821744e+01	1.559989e+03
1.970000e-06	5.262511e-06	2.373007e-08	3.772769e+01	1.552906e+03
1.980000e-06	5.192140e-06	2.357173e-08	3.722320e+01	1.545426e+03
1.990000e-06	5.119628e-06	2.354366e-08	3.670335e+01	1.537526e+03
2.000000e-06	5.045336e-06	2.338010e-08	3.617073e+01	1.529217e+03
2.010000e-06	4.969146e-06	2.326102e-08	3.562452e+01	1.520534e+03
2.020000e-06	4.890838e-06	2.307907e-08	3.506312e+01	1.511525e+03
2.030000e-06	4.810669e-06	2.294195e-08	3.448837e+01	1.502235e+03
2.040000e-06	4.728881e-06	2.285617e-08	3.390202e+01	1.492687e+03
2.050000e-06	4.645607e-06	2.267749e-08	3.330502e+01	1.482876e+03
2.060000e-06	4.560759e-06	2.253015e-08	3.269674e+01	1.472767e+03
2.070000e-06	4.474199e-06	2.233989e-08	3.207618e+01	1.462301e+03
2.080000e-06	4.385909e-06	2.218500e-08	3.144321e+01	1.451412e+03
2.090000e-06	4.296127e-06	2.200684e-08	3.079955e+01	1.440043e+03
2.100000e-06	4.204975e-06	2.184085e-08	3.014607e+01	1.428156e+03
2.110000e-06	4.112459e-06	2.166932e-08	2.948281e+01	1.415741e+03
2.120000e-06	4.018554e-06	2.144921e-08	2.880959e+01	1.402812e+03
2.130000e-06	3.923093e-06	2.124312e-08	2.812522e+01	1.389400e+03
2.140000e-06	3.826195e-06	2.102212e-08	2.743054e+01	1.375532e+03
2.150000e-06	3.727967e-06	2.082107e-08	2.672633e+01	1.361225e+03
2.160000e-06	3.628464e-06	2.059667e-08	2.601298e+01	1.346467e+03
2.170000e-06	3.527679e-06	2.037423e-08	2.529044e+01	1.331220e+03
2.180000e-06	3.425479e-06	2.012581e-08	2.455775e+01	1.315420e+03
2.190000e-06	3.321849e-06	1.986523e-08	2.381481e+01	1.298993e+03
2.200000e-06	3.216964e-06	1.960582e-08	2.306287e+01	1.281862e+03
2.210000e-06	3.111044e-06	1.933865e-08	2.230352e+01	1.263969e+03
2.220000e-06	3.004028e-06	1.905853e-08	2.153631e+01	1.245272e+03
2.230000e-06	2.895968e-06	1.875352e-08	2.076161e+01	1.225752e+03
2.240000e-06	2.787030e-06	1.844831e-08	1.998062e+01	1.205402e+03
2.250000e-06	2.677052e-06	1.813202e-08	1.919217e+01	1.184213e+03
2.260000e-06	2.565982e-06	1.780199e-08	1.839589e+01	1.162162e+03
2.270000e-06	2.453902e-06	1.744794e-08	1.759238e+01	1.139197e+03
2.280000e-06	2.340897e-06	1.708071e-08	1.678222e+01	1.115240e+03
2.290000e-06	2.226985e-06	1.669475e-08	1.596558e+01	1.090183e+03
2.300000e-06	2.112155e-06	1.629359e-08	1.514234e+01	1.063902e+03
2.310000e-06	1.996574e-06	1.587480e-08	1.431373e+01	1.036268e+03
2.320000e-06	1.880364e-06	1.543657e-08	1.348060e+01	1.007160e+03
2.330000e-06	1.763406e-06	1.497212e-08	1.264211e+01	9.764742e+02
2.340000e-06	1.645680e-06	1.447345e-08	1.179812e+01	9.441161e+02
2.350000e-06	1.527291e-06	1.394943e-08	1.094937e+01	9.099998e+02
2.360000e-06	1.408236e-06	1.340167e-08	1.009585e+01	8.740342e+02
2.370000e-06	1.288649e-06	1.283005e-08	9.238507e+00	8.361148e+02
2.380000e-06	1.168646e-06	1.222309e-08	8.378191e+00	7.961219e+02
2.390000e-06	1.048284e-06	1.157756e-08	7.515298e+00	7.539297e+02
2.400000e-06	9.276083e-07	1.089376e-08	6.650157e+00	7.094278e+02
2.410000e-06	8.066613e-07	1.017606e-08	5.783070e+00	6.625503e+02
2.420000e-06	6.854762e-07	9.424310e-09	4.914277e+00	6.133083e+02
2.430000e-06	5.640819e-07	8.640226e-09	4.043984e+00	5.618146e+02
2.440000e-06	4.425374e-07	7.827072e-09	3.172614e+00	5.082936e+02
2.450000e-06	3.209502e-07	6.983997e-09	2.300938e+00	4.530699e+02
2.460000e-06	1.992950e-07	6.116721e-09	1.428775e+00	3.965344e+02
2.470000e-06	7.747320e-08	5.237687e-09	5.554165e-01	3.390912e+02
2.480000e-06	-4.441022e-08	4.355284e-09	-3.183832e-01	2.810956e+02
2.490000e-06	-1.663439e-07	3.467220e-09	-1.192543e+00	2.227954e+02
2.500000e-06	-2.882204e-07	2.571271e-09	-2.066293e+00	1.642887e+02
2.510000e-06	-4.099524e-07	1.667221e-09	-2.939007e+00	1.055098e+02
2.520000e-06	-5.316054e-07	7.565076e-10	-3.811155e+00	4.624867e+01
2.530000e-06	-6.531156e-07	-1.617131e-10	-4.682279e+00	-1.379802e+01
2.540000e-06	-7.744439e-07	-1.093917e-09	-5.552099e+00	-7.495097e+01
2.550000e-06	-8.955047e-07	-2.045724e-09	-6.420002e+00	-1.374628e+02
2.560000e-06	-1.016308e-06	-3.020797e-09	-7.286060e+00	-2.014388e+02
2.570000e-06	-1.136812e-06	-4.019521e-09	-8.149966e+00	-2.667794e+02
2.580000e-06	-1.256834e-06	-5.034905e-09	-9.010425e+00	-3.331570e+02
2.590000e-06	-1.376356e-06	-6.058494e-09	-9.867296e+00	-4.000306e+02
2.600000e-06	-1.495320e-06	-7.082524e-09	-1.072016e+01	-4.666970e+02
2.610000e-06	-1.613598e-06	-8.095062e-09	-1.156811e+01	-5.323678e+02
2.620000e-06	-1.731092e-06	-9.077201e-09	-1.241045e+01	-5.962590e+02
2.630000e-06	-1.847812e-06	-1.001742e-08	-1.324723e+01	-6.576753e+02
2.640000e-06	-1.963786e-06	-1.091129e-08	-1.407866e+01	-7.160780e+02
2.650000e-06	-2.078949e-06	-1.175396e-08	-1.490428e+01	-7.711224e+02
2.660000e-06	-2.193154e-06	-1.254268e-08	-1.572304e+01	-8.226657e+02
2.670000e-06	-2.306349e-06	-1.327918e-08	-1.653454e+01	-8.707448e+02
2.680000e-06	-2.418532e-06	-1.396763e-08	-1.733880e+01	-9.155330e+02
2.690000e-06	-2.529702e-06	-1.461018e-08	-1.813580e+01	-9.572869e+02
2.700000e-06	-2.639913e-06	-1.521232e-08	-1.892591e+01	-9.962948e+02
2.710000e-06	-2.749172e-06	-1.577803e-08	-1.970921e+01	-1.032834e+03
2.720000e-06	-2.857601e-06	-1.630906e-08	-2.048655e+01	-1.067144e+03
2.730000e-06	-2.965197e-06	-1.680475e-08	-2.125793e+01	-1.099420e+03
2.740000e-06	-3.071792e-06	-1.726638e-08	-2.202212e+01	-1.129811e+03
2.750000e-06	-3.177319e-06	-1.769866e-08	-2.277866e+01	-1.158440e+03
2.760000e-06	-3.281715e-06	-1.810781e-08	-2.352709e+01	-1.185415e+03
2.770000e-06	-3.384883e-06	-1.849851e-08	-2.426671e+01	-1.210841e+03
2.780000e-06	-3.486758e-06	-1.886939e-08	-2.499706e+01	-1.234831e+03
2.790000e-06	-3.587342e-06	-1.921928e-08	-2.571817e+01	-1.257504e+03
2.800000e-06	-3.686695e-06	-1.954849e-08	-2.643045e+01	-1.278977e+03
2.810000e-06	-3.784824e-06	-1.986080e-08	-2.713395e+01	-1.299362e+03
2.820000e-06	-3.881749e-06	-2.015820e-08	-2.782882e+01	-1.318754e+03
2.830000e-06	-3.977369e-06	-2.044134e-08	-2.851433e+01	-1.337230e+03
2.840000e-06	-4.071472e-06	-2.071019e-08	-2.918897e+01	-1.354844e+03
2.850000e-06	-4.164041e-06	-2.096510e-08	-2.985260e+01	-1.371638e+03
2.860000e-06	-4.255110e-06	-2.120956e-08	-3.050549e+01	-1.387641e+03
2.870000e-06	-4.344688e-06	-2.144538e-08	-3.114769e+01	-1.402881e+03
2.880000e-06	-4.432727e-06	-2.167136e-08	-3.177886e+01	-1.417389e+03
2.890000e-06	-4.519118e-06	-2.188550e-08	-3.239821e+01	-1.431201e+03
2.900000e-06	-4.603800e-06	-2.208933e-08	-3.300530e+01	-1.444359e+03
2.910000e-06	-4.686902e-06	-2.228337e-08	-3.360108e+01	-1.456909e+03
2.920000e-06	-4.768464e-06	-2.246761e-08	-3.418580e+01	-1.468895e+03
2.930000e-06	-4.848307e-06	-2.264237e-08	-3.475821e+01	-1.480353e+03
2.940000e-06	-4.926186e-06	-2.280692e-08	-3.531653e+01	-1.491314e+03
