# Temperatura_=_81.37
# Concentracion g/m^3_=_28200.0
# C_Vs_to_Am_M_A/Vsm_=_65563218390.804596
# pendiente_HvsI_1/m_=_3716.3
# ordenada_HvsI_A/m_=_1297.0
# frecuencia_Hz_=_302096.251565358

Tiempo_(s)	Campo_(V.s)	Magnetizacion_(V.s)	Campo_(kA/m)	Magnetizacion_(A/m)
0.000000e+00	-6.361278e-06	-2.452121e-08	-4.558164e+01	-1.604060e+03
1.000000e-08	-6.358048e-06	-2.451961e-08	-4.555850e+01	-1.603590e+03
2.000000e-08	-6.352729e-06	-2.451158e-08	-4.552038e+01	-1.602979e+03
3.000000e-08	-6.345474e-06	-2.450168e-08	-4.546840e+01	-1.602222e+03
4.000000e-08	-6.336080e-06	-2.448593e-08	-4.540109e+01	-1.601295e+03
5.000000e-08	-6.324345e-06	-2.446518e-08	-4.531700e+01	-1.600166e+03
6.000000e-08	-6.310282e-06	-2.444223e-08	-4.521623e+01	-1.598799e+03
7.000000e-08	-6.293800e-06	-2.440368e-08	-4.509813e+01	-1.597170e+03
8.000000e-08	-6.275192e-06	-2.437690e-08	-4.496479e+01	-1.595272e+03
9.000000e-08	-6.254635e-06	-2.441907e-08	-4.481749e+01	-1.593128e+03
1.000000e-07	-6.231677e-06	-2.436730e-08	-4.465299e+01	-1.590787e+03
1.100000e-07	-6.206048e-06	-2.427992e-08	-4.446934e+01	-1.588326e+03
1.200000e-07	-6.178077e-06	-2.426275e-08	-4.426892e+01	-1.585829e+03
1.300000e-07	-6.148272e-06	-2.422283e-08	-4.405535e+01	-1.583372e+03
1.400000e-07	-6.116898e-06	-2.410401e-08	-4.383054e+01	-1.581004e+03
1.500000e-07	-6.083807e-06	-2.417040e-08	-4.359343e+01	-1.578732e+03
1.600000e-07	-6.048642e-06	-2.416916e-08	-4.334145e+01	-1.576516e+03
1.700000e-07	-6.011578e-06	-2.394662e-08	-4.307587e+01	-1.574268e+03
1.800000e-07	-5.972541e-06	-2.404829e-08	-4.279615e+01	-1.571870e+03
1.900000e-07	-5.931048e-06	-2.395634e-08	-4.249883e+01	-1.569191e+03
2.000000e-07	-5.887334e-06	-2.383215e-08	-4.218561e+01	-1.566117e+03
2.100000e-07	-5.841563e-06	-2.389896e-08	-4.185763e+01	-1.562567e+03
2.200000e-07	-5.793527e-06	-2.370721e-08	-4.151343e+01	-1.558509e+03
2.300000e-07	-5.743086e-06	-2.361706e-08	-4.115200e+01	-1.553962e+03
2.400000e-07	-5.690083e-06	-2.359713e-08	-4.077220e+01	-1.548988e+03
2.500000e-07	-5.634873e-06	-2.349969e-08	-4.037660e+01	-1.543671e+03
2.600000e-07	-5.577568e-06	-2.344347e-08	-3.996598e+01	-1.538100e+03
2.700000e-07	-5.518042e-06	-2.335045e-08	-3.953945e+01	-1.532341e+03
2.800000e-07	-5.456547e-06	-2.324970e-08	-3.909880e+01	-1.526427e+03
2.900000e-07	-5.393181e-06	-2.310141e-08	-3.864476e+01	-1.520348e+03
3.000000e-07	-5.327738e-06	-2.302502e-08	-3.817582e+01	-1.514063e+03
3.100000e-07	-5.260201e-06	-2.298883e-08	-3.769189e+01	-1.507507e+03
3.200000e-07	-5.190620e-06	-2.286700e-08	-3.719331e+01	-1.500614e+03
3.300000e-07	-5.119211e-06	-2.275281e-08	-3.668163e+01	-1.493333e+03
3.400000e-07	-5.046051e-06	-2.259078e-08	-3.615740e+01	-1.485641e+03
3.500000e-07	-4.970818e-06	-2.247243e-08	-3.561832e+01	-1.477547e+03
3.600000e-07	-4.893494e-06	-2.236173e-08	-3.506426e+01	-1.469086e+03
3.700000e-07	-4.814092e-06	-2.223424e-08	-3.449530e+01	-1.460302e+03
3.800000e-07	-4.732764e-06	-2.212833e-08	-3.391255e+01	-1.451239e+03
3.900000e-07	-4.649915e-06	-2.195630e-08	-3.331890e+01	-1.441920e+03
4.000000e-07	-4.565684e-06	-2.178261e-08	-3.271534e+01	-1.432340e+03
4.100000e-07	-4.479970e-06	-2.163362e-08	-3.210115e+01	-1.422468e+03
4.200000e-07	-4.392896e-06	-2.149913e-08	-3.147723e+01	-1.412247e+03
4.300000e-07	-4.304428e-06	-2.133685e-08	-3.084332e+01	-1.401616e+03
4.400000e-07	-4.214329e-06	-2.115330e-08	-3.019771e+01	-1.390518e+03
4.500000e-07	-4.122536e-06	-2.097976e-08	-2.953997e+01	-1.378915e+03
4.600000e-07	-4.029171e-06	-2.077898e-08	-2.887096e+01	-1.366792e+03
4.700000e-07	-3.934505e-06	-2.059538e-08	-2.819264e+01	-1.354160e+03
4.800000e-07	-3.838605e-06	-2.041482e-08	-2.750547e+01	-1.341041e+03
4.900000e-07	-3.741258e-06	-2.021383e-08	-2.680793e+01	-1.327457e+03
5.000000e-07	-3.642315e-06	-1.998309e-08	-2.609895e+01	-1.313420e+03
5.100000e-07	-3.542011e-06	-1.974650e-08	-2.538023e+01	-1.298917e+03
5.200000e-07	-3.440536e-06	-1.951822e-08	-2.465311e+01	-1.283911e+03
5.300000e-07	-3.337936e-06	-1.927916e-08	-2.391793e+01	-1.268343e+03
5.400000e-07	-3.234165e-06	-1.903528e-08	-2.317436e+01	-1.252144e+03
5.500000e-07	-3.129121e-06	-1.877510e-08	-2.242167e+01	-1.235243e+03
5.600000e-07	-3.022775e-06	-1.850455e-08	-2.165965e+01	-1.217584e+03
5.700000e-07	-2.915142e-06	-1.821793e-08	-2.088841e+01	-1.199126e+03
5.800000e-07	-2.806446e-06	-1.792764e-08	-2.010955e+01	-1.179846e+03
5.900000e-07	-2.696796e-06	-1.762786e-08	-1.932385e+01	-1.159730e+03
6.000000e-07	-2.586278e-06	-1.730796e-08	-1.853194e+01	-1.138761e+03
6.100000e-07	-2.474866e-06	-1.696867e-08	-1.773361e+01	-1.116907e+03
6.200000e-07	-2.362402e-06	-1.661436e-08	-1.692776e+01	-1.094114e+03
6.300000e-07	-2.248949e-06	-1.625024e-08	-1.611481e+01	-1.070298e+03
6.400000e-07	-2.134489e-06	-1.587054e-08	-1.529465e+01	-1.045353e+03
6.500000e-07	-2.019013e-06	-1.547143e-08	-1.446721e+01	-1.019158e+03
6.600000e-07	-1.902703e-06	-1.504562e-08	-1.363379e+01	-9.915870e+02
6.700000e-07	-1.785783e-06	-1.459908e-08	-1.279600e+01	-9.625223e+02
6.800000e-07	-1.668322e-06	-1.413396e-08	-1.195433e+01	-9.318554e+02
6.900000e-07	-1.550243e-06	-1.364588e-08	-1.110824e+01	-8.994886e+02
7.000000e-07	-1.431648e-06	-1.312750e-08	-1.025845e+01	-8.653282e+02
7.100000e-07	-1.312634e-06	-1.257555e-08	-9.405662e+00	-8.292768e+02
7.200000e-07	-1.193270e-06	-1.199244e-08	-8.550355e+00	-7.912283e+02
7.300000e-07	-1.073533e-06	-1.137641e-08	-7.692387e+00	-7.510708e+02
7.400000e-07	-9.534130e-07	-1.072933e-08	-6.831666e+00	-7.086990e+02
7.500000e-07	-8.329657e-07	-1.005270e-08	-5.968604e+00	-6.640367e+02
7.600000e-07	-7.121371e-07	-9.341858e-09	-5.102807e+00	-6.170646e+02
7.700000e-07	-5.910387e-07	-8.588482e-09	-4.235079e+00	-5.678483e+02
7.800000e-07	-4.697995e-07	-7.801296e-09	-3.366342e+00	-5.165556e+02
7.900000e-07	-3.483778e-07	-6.990489e-09	-2.496296e+00	-4.634584e+02
8.000000e-07	-2.267770e-07	-6.159912e-09	-1.624968e+00	-4.089131e+02
8.100000e-07	-1.050783e-07	-5.316702e-09	-7.529369e-01	-3.533201e+02
8.200000e-07	1.665921e-08	-4.466597e-09	1.193713e-01	-2.970684e+02
8.300000e-07	1.384644e-07	-3.609114e-09	9.921646e-01	-2.404751e+02
8.400000e-07	2.602855e-07	-2.743277e-09	1.865072e+00	-1.837325e+02
8.500000e-07	3.820335e-07	-1.875848e-09	2.737455e+00	-1.268754e+02
8.600000e-07	5.036950e-07	-1.004864e-09	3.609219e+00	-6.977800e+01
8.700000e-07	6.252255e-07	-1.267324e-10	4.480044e+00	-1.218381e+01
8.800000e-07	7.465686e-07	7.634645e-10	5.349526e+00	4.623468e+01
8.900000e-07	8.676381e-07	1.668809e-09	6.217048e+00	1.057967e+02
9.000000e-07	9.883760e-07	2.593276e-09	7.082194e+00	1.667287e+02
9.100000e-07	1.108758e-06	3.542275e-09	7.944787e+00	2.290912e+02
9.200000e-07	1.228725e-06	4.510312e-09	8.804411e+00	2.927314e+02
9.300000e-07	1.348216e-06	5.491053e-09	9.660622e+00	3.572713e+02
9.400000e-07	1.467246e-06	6.478633e-09	1.051353e+01	4.221336e+02
9.500000e-07	1.585835e-06	7.462467e-09	1.136328e+01	4.866015e+02
9.600000e-07	1.703942e-06	8.428244e-09	1.220957e+01	5.498996e+02
9.700000e-07	1.821443e-06	9.360766e-09	1.305152e+01	6.112821e+02
9.800000e-07	1.938194e-06	1.025194e-08	1.388810e+01	6.701125e+02
9.900000e-07	2.054174e-06	1.109535e-08	1.471915e+01	7.259206e+02
1.000000e-06	2.169234e-06	1.188462e-08	1.554361e+01	7.784313e+02
1.010000e-06	2.283221e-06	1.262316e-08	1.636038e+01	8.275613e+02
1.020000e-06	2.396223e-06	1.331518e-08	1.717010e+01	8.733893e+02
1.030000e-06	2.508258e-06	1.396580e-08	1.797289e+01	9.161099e+02
1.040000e-06	2.619350e-06	1.457499e-08	1.876891e+01	9.559809e+02
1.050000e-06	2.729576e-06	1.514256e-08	1.955873e+01	9.932746e+02
1.060000e-06	2.838873e-06	1.567306e-08	2.034190e+01	1.028243e+03
1.070000e-06	2.947270e-06	1.616760e-08	2.111862e+01	1.061099e+03
1.080000e-06	3.054806e-06	1.663250e-08	2.188916e+01	1.092011e+03
1.090000e-06	3.161200e-06	1.707078e-08	2.265153e+01	1.121113e+03
1.100000e-06	3.266292e-06	1.748541e-08	2.340457e+01	1.148519e+03
1.110000e-06	3.370110e-06	1.787923e-08	2.414847e+01	1.174337e+03
1.120000e-06	3.472729e-06	1.825271e-08	2.488379e+01	1.198677e+03
1.130000e-06	3.574227e-06	1.860311e-08	2.561107e+01	1.221656e+03
1.140000e-06	3.674594e-06	1.893293e-08	2.633025e+01	1.243392e+03
1.150000e-06	3.773750e-06	1.924741e-08	2.704075e+01	1.263999e+03
1.160000e-06	3.871421e-06	1.954691e-08	2.774061e+01	1.283579e+03
1.170000e-06	3.967467e-06	1.982915e-08	2.842882e+01	1.302212e+03
1.180000e-06	4.062061e-06	2.009455e-08	2.910664e+01	1.319958e+03
1.190000e-06	4.155361e-06	2.034715e-08	2.977517e+01	1.336860e+03
1.200000e-06	4.247445e-06	2.058958e-08	3.043500e+01	1.352950e+03
1.210000e-06	4.338185e-06	2.082128e-08	3.108520e+01	1.368256e+03
1.220000e-06	4.427167e-06	2.104277e-08	3.172280e+01	1.382810e+03
1.230000e-06	4.514383e-06	2.125307e-08	3.234774e+01	1.396653e+03
1.240000e-06	4.600013e-06	2.145258e-08	3.296132e+01	1.409830e+03
1.250000e-06	4.684104e-06	2.164293e-08	3.356387e+01	1.422392e+03
1.260000e-06	4.766678e-06	2.182240e-08	3.415556e+01	1.434388e+03
1.270000e-06	4.847519e-06	2.199441e-08	3.473482e+01	1.445857e+03
1.280000e-06	4.926481e-06	2.216017e-08	3.530063e+01	1.456828e+03
1.290000e-06	5.003594e-06	2.231960e-08	3.585318e+01	1.467317e+03
1.300000e-06	5.078764e-06	2.247229e-08	3.639181e+01	1.477329e+03
1.310000e-06	5.151819e-06	2.262061e-08	3.691528e+01	1.486863e+03
1.320000e-06	5.222956e-06	2.276203e-08	3.742501e+01	1.495917e+03
1.330000e-06	5.292362e-06	2.289377e-08	3.792234e+01	1.504492e+03
1.340000e-06	5.359937e-06	2.301617e-08	3.840655e+01	1.512597e+03
1.350000e-06	5.425485e-06	2.313181e-08	3.887623e+01	1.520248e+03
1.360000e-06	5.489012e-06	2.324306e-08	3.933143e+01	1.527470e+03
1.370000e-06	5.550698e-06	2.334834e-08	3.977345e+01	1.534288e+03
1.380000e-06	5.610656e-06	2.344511e-08	4.020307e+01	1.540733e+03
1.390000e-06	5.668619e-06	2.353522e-08	4.061840e+01	1.546833e+03
1.400000e-06	5.724361e-06	2.362230e-08	4.101782e+01	1.552613e+03
1.410000e-06	5.778025e-06	2.370545e-08	4.140235e+01	1.558096e+03
1.420000e-06	5.829423e-06	2.378540e-08	4.177064e+01	1.563301e+03
1.430000e-06	5.878382e-06	2.386213e-08	4.212146e+01	1.568245e+03
1.440000e-06	5.925173e-06	2.393444e-08	4.245674e+01	1.572940e+03
1.450000e-06	5.970030e-06	2.400190e-08	4.277816e+01	1.577395e+03
1.460000e-06	6.012866e-06	2.406595e-08	4.308510e+01	1.581614e+03
1.470000e-06	6.053416e-06	2.412592e-08	4.337566e+01	1.585592e+03
1.480000e-06	6.091725e-06	2.418193e-08	4.365016e+01	1.589325e+03
1.490000e-06	6.128090e-06	2.423465e-08	4.391074e+01	1.592798e+03
1.500000e-06	6.162329e-06	2.428195e-08	4.415608e+01	1.596002e+03
1.510000e-06	6.194293e-06	2.432505e-08	4.438511e+01	1.598924e+03
1.520000e-06	6.224181e-06	2.436544e-08	4.459928e+01	1.601561e+03
1.530000e-06	6.252072e-06	2.440076e-08	4.479913e+01	1.603915e+03
1.540000e-06	6.277512e-06	2.443020e-08	4.498142e+01	1.605995e+03
1.550000e-06	6.300463e-06	2.445652e-08	4.514588e+01	1.607817e+03
1.560000e-06	6.321330e-06	2.448045e-08	4.529540e+01	1.609397e+03
1.570000e-06	6.340145e-06	2.450098e-08	4.543022e+01	1.610751e+03
1.580000e-06	6.356680e-06	2.451725e-08	4.554869e+01	1.611890e+03
1.590000e-06	6.370728e-06	2.453010e-08	4.564935e+01	1.612820e+03
1.600000e-06	6.382334e-06	2.453935e-08	4.573252e+01	1.613541e+03
1.610000e-06	6.391351e-06	2.454683e-08	4.579713e+01	1.614054e+03
1.620000e-06	6.397936e-06	2.455401e-08	4.584432e+01	1.614360e+03
1.630000e-06	6.402439e-06	2.455963e-08	4.587658e+01	1.614467e+03
1.640000e-06	6.404675e-06	2.456138e-08	4.589260e+01	1.614386e+03
1.650000e-06	6.404563e-06	2.456169e-08	4.589180e+01	1.614137e+03
1.660000e-06	6.402339e-06	2.455214e-08	4.587586e+01	1.613735e+03
1.670000e-06	6.398152e-06	2.454143e-08	4.584586e+01	1.613192e+03
1.680000e-06	6.391717e-06	2.453131e-08	4.579975e+01	1.612508e+03
1.690000e-06	6.383064e-06	2.451884e-08	4.573775e+01	1.611667e+03
1.700000e-06	6.372437e-06	2.450644e-08	4.566160e+01	1.610641e+03
1.710000e-06	6.359672e-06	2.449154e-08	4.557013e+01	1.609395e+03
1.720000e-06	6.344576e-06	2.448533e-08	4.546197e+01	1.607897e+03
1.730000e-06	6.327479e-06	2.445012e-08	4.533946e+01	1.606130e+03
1.740000e-06	6.308432e-06	2.432369e-08	4.520298e+01	1.604102e+03
1.750000e-06	6.286457e-06	2.431909e-08	4.504552e+01	1.601848e+03
1.760000e-06	6.261330e-06	2.433711e-08	4.486547e+01	1.599435e+03
1.770000e-06	6.233898e-06	2.427952e-08	4.466890e+01	1.596943e+03
1.780000e-06	6.204702e-06	2.432379e-08	4.445970e+01	1.594455e+03
1.790000e-06	6.173849e-06	2.429288e-08	4.423863e+01	1.592036e+03
1.800000e-06	6.141564e-06	2.407267e-08	4.400729e+01	1.589716e+03
1.810000e-06	6.107306e-06	2.413169e-08	4.376181e+01	1.587478e+03
1.820000e-06	6.070996e-06	2.408393e-08	4.350163e+01	1.585257e+03
1.830000e-06	6.032624e-06	2.405185e-08	4.322668e+01	1.582947e+03
1.840000e-06	5.991797e-06	2.426591e-08	4.293413e+01	1.580422e+03
1.850000e-06	5.948954e-06	2.402464e-08	4.262714e+01	1.577556e+03
1.860000e-06	5.904171e-06	2.398930e-08	4.230625e+01	1.574249e+03
1.870000e-06	5.857172e-06	2.403758e-08	4.196948e+01	1.570444e+03
1.880000e-06	5.808075e-06	2.384369e-08	4.161767e+01	1.566133e+03
1.890000e-06	5.756545e-06	2.390251e-08	4.124844e+01	1.561360e+03
1.900000e-06	5.702387e-06	2.373431e-08	4.086037e+01	1.556201e+03
1.910000e-06	5.646047e-06	2.362657e-08	4.045666e+01	1.550745e+03
1.920000e-06	5.587647e-06	2.365614e-08	4.003820e+01	1.545071e+03
1.930000e-06	5.527444e-06	2.351144e-08	3.960682e+01	1.539230e+03
1.940000e-06	5.465175e-06	2.351029e-08	3.916063e+01	1.533235e+03
1.950000e-06	5.400718e-06	2.329543e-08	3.869876e+01	1.527058e+03
1.960000e-06	5.334324e-06	2.321446e-08	3.822302e+01	1.520643e+03
1.970000e-06	5.265960e-06	2.312866e-08	3.773316e+01	1.513924e+03
1.980000e-06	5.195539e-06	2.295901e-08	3.722855e+01	1.506839e+03
1.990000e-06	5.123061e-06	2.295426e-08	3.670922e+01	1.499351e+03
2.000000e-06	5.048826e-06	2.278731e-08	3.617728e+01	1.491453e+03
2.010000e-06	4.972646e-06	2.268468e-08	3.563142e+01	1.483168e+03
2.020000e-06	4.894316e-06	2.250248e-08	3.507015e+01	1.474537e+03
2.030000e-06	4.814127e-06	2.235884e-08	3.449556e+01	1.465606e+03
2.040000e-06	4.732251e-06	2.228827e-08	3.390887e+01	1.456412e+03
2.050000e-06	4.648931e-06	2.211007e-08	3.331184e+01	1.446962e+03
2.060000e-06	4.564041e-06	2.198119e-08	3.270357e+01	1.437239e+03
2.070000e-06	4.477377e-06	2.179225e-08	3.208258e+01	1.427198e+03
2.080000e-06	4.389074e-06	2.164887e-08	3.144984e+01	1.416778e+03
2.090000e-06	4.299206e-06	2.148177e-08	3.080590e+01	1.405917e+03
2.100000e-06	4.207978e-06	2.132521e-08	3.015220e+01	1.394567e+03
2.110000e-06	4.115428e-06	2.116438e-08	2.948904e+01	1.382702e+03
2.120000e-06	4.021446e-06	2.094321e-08	2.881561e+01	1.370320e+03
2.130000e-06	3.925914e-06	2.074411e-08	2.813108e+01	1.357439e+03
2.140000e-06	3.828937e-06	2.052655e-08	2.743619e+01	1.344083e+03
2.150000e-06	3.730643e-06	2.033597e-08	2.673187e+01	1.330270e+03
2.160000e-06	3.631103e-06	2.012002e-08	2.601861e+01	1.316000e+03
2.170000e-06	3.530281e-06	1.991248e-08	2.529617e+01	1.301249e+03
2.180000e-06	3.428081e-06	1.967736e-08	2.456386e+01	1.285968e+03
2.190000e-06	3.324488e-06	1.942808e-08	2.382157e+01	1.270091e+03
2.200000e-06	3.219617e-06	1.917882e-08	2.307012e+01	1.253547e+03
2.210000e-06	3.113690e-06	1.891991e-08	2.231110e+01	1.236271e+03
2.220000e-06	3.006712e-06	1.864788e-08	2.154455e+01	1.218214e+03
2.230000e-06	2.898681e-06	1.834456e-08	2.077045e+01	1.199345e+03
2.240000e-06	2.789653e-06	1.804317e-08	1.998922e+01	1.179646e+03
2.250000e-06	2.679706e-06	1.773669e-08	1.920140e+01	1.159103e+03
2.260000e-06	2.568769e-06	1.742095e-08	1.840647e+01	1.137695e+03
2.270000e-06	2.456705e-06	1.707988e-08	1.760349e+01	1.115378e+03
2.280000e-06	2.343588e-06	1.672682e-08	1.679294e+01	1.092082e+03
2.290000e-06	2.229557e-06	1.635293e-08	1.597586e+01	1.067714e+03
2.300000e-06	2.114719e-06	1.596148e-08	1.515299e+01	1.042157e+03
2.310000e-06	1.999136e-06	1.555292e-08	1.432478e+01	1.015287e+03
2.320000e-06	1.882759e-06	1.512620e-08	1.349088e+01	9.869812e+02
2.330000e-06	1.765583e-06	1.467308e-08	1.265126e+01	9.571257e+02
2.340000e-06	1.647787e-06	1.418622e-08	1.180719e+01	9.256183e+02
2.350000e-06	1.529378e-06	1.367498e-08	1.095873e+01	8.923641e+02
2.360000e-06	1.410326e-06	1.314080e-08	1.010567e+01	8.572684e+02
2.370000e-06	1.290755e-06	1.258523e-08	9.248885e+00	8.202298e+02
2.380000e-06	1.170722e-06	1.199462e-08	8.388792e+00	7.811384e+02
2.390000e-06	1.050366e-06	1.136365e-08	7.526383e+00	7.398833e+02
2.400000e-06	9.297031e-07	1.069246e-08	6.661774e+00	6.963704e+02
2.410000e-06	8.087104e-07	9.989123e-09	5.794802e+00	6.505485e+02
2.420000e-06	6.874840e-07	9.255074e-09	4.926156e+00	6.024376e+02
2.430000e-06	5.660286e-07	8.489844e-09	4.055869e+00	5.521530e+02
2.440000e-06	4.443659e-07	7.695680e-09	3.184097e+00	4.999156e+02
2.450000e-06	3.226124e-07	6.873251e-09	2.311675e+00	4.460435e+02
2.460000e-06	2.007665e-07	6.027633e-09	1.438589e+00	3.909211e+02
2.470000e-06	7.877691e-08	5.171601e-09	5.644747e-01	3.349508e+02
2.480000e-06	-4.321766e-08	4.313488e-09	-3.096755e-01	2.784930e+02
2.490000e-06	-1.651754e-07	3.449844e-09	-1.183562e+00	2.218080e+02
2.500000e-06	-2.870695e-07	2.578510e-09	-2.056992e+00	1.650118e+02
2.510000e-06	-4.088820e-07	1.701599e-09	-2.929838e+00	1.080570e+02
2.520000e-06	-5.306471e-07	8.210458e-10	-3.802344e+00	5.074701e+01
2.530000e-06	-6.522475e-07	-6.605103e-11	-4.673669e+00	-7.219327e+00
2.540000e-06	-7.735527e-07	-9.665676e-10	-5.542880e+00	-6.617597e+01
2.550000e-06	-8.945739e-07	-1.885197e-09	-6.410056e+00	-1.264060e+02
2.560000e-06	-1.015334e-06	-2.822660e-09	-7.275360e+00	-1.880607e+02
2.570000e-06	-1.135796e-06	-3.781436e-09	-8.138527e+00	-2.510979e+02
2.580000e-06	-1.255922e-06	-4.759100e-09	-8.999292e+00	-3.152511e+02
2.590000e-06	-1.375589e-06	-5.749469e-09	-9.856762e+00	-3.800372e+02
2.600000e-06	-1.494631e-06	-6.744891e-09	-1.070976e+01	-4.448001e+02
2.610000e-06	-1.612939e-06	-7.730646e-09	-1.155749e+01	-5.087826e+02
2.620000e-06	-1.730590e-06	-8.690416e-09	-1.240052e+01	-5.712134e+02
2.630000e-06	-1.847548e-06	-9.612380e-09	-1.323858e+01	-6.313924e+02
2.640000e-06	-1.963644e-06	-1.049032e-08	-1.407046e+01	-6.887609e+02
2.650000e-06	-2.078853e-06	-1.132028e-08	-1.489599e+01	-7.429448e+02
2.660000e-06	-2.193186e-06	-1.209881e-08	-1.571524e+01	-7.937669e+02
2.670000e-06	-2.306563e-06	-1.282762e-08	-1.652764e+01	-8.412299e+02
2.680000e-06	-2.418833e-06	-1.350732e-08	-1.733211e+01	-8.854772e+02
2.690000e-06	-2.530039e-06	-1.414064e-08	-1.812896e+01	-9.267413e+02
2.700000e-06	-2.640219e-06	-1.473466e-08	-1.891845e+01	-9.652926e+02
2.710000e-06	-2.749410e-06	-1.529435e-08	-1.970086e+01	-1.001397e+03
2.720000e-06	-2.857804e-06	-1.581889e-08	-2.047755e+01	-1.035288e+03
2.730000e-06	-2.965353e-06	-1.630786e-08	-2.124819e+01	-1.067155e+03
2.740000e-06	-3.071944e-06	-1.676573e-08	-2.201197e+01	-1.097150e+03
2.750000e-06	-3.177519e-06	-1.719320e-08	-2.276846e+01	-1.125393e+03
2.760000e-06	-3.281979e-06	-1.759491e-08	-2.351697e+01	-1.151994e+03
2.770000e-06	-3.385271e-06	-1.797895e-08	-2.425711e+01	-1.177061e+03
2.780000e-06	-3.487194e-06	-1.834448e-08	-2.498744e+01	-1.200708e+03
2.790000e-06	-3.587712e-06	-1.868868e-08	-2.570770e+01	-1.223053e+03
2.800000e-06	-3.687026e-06	-1.901324e-08	-2.641933e+01	-1.244213e+03
2.810000e-06	-3.785156e-06	-1.932114e-08	-2.712248e+01	-1.264298e+03
2.820000e-06	-3.882063e-06	-1.961417e-08	-2.781687e+01	-1.283398e+03
2.830000e-06	-3.977686e-06	-1.989195e-08	-2.850205e+01	-1.301583e+03
2.840000e-06	-4.071778e-06	-2.015531e-08	-2.917626e+01	-1.318905e+03
2.850000e-06	-4.164362e-06	-2.040650e-08	-2.983967e+01	-1.335400e+03
2.860000e-06	-4.255599e-06	-2.064780e-08	-3.049343e+01	-1.351097e+03
2.870000e-06	-4.345293e-06	-2.088039e-08	-3.113613e+01	-1.366025e+03
2.880000e-06	-4.433374e-06	-2.110101e-08	-3.176728e+01	-1.380220e+03
2.890000e-06	-4.519788e-06	-2.130925e-08	-3.238647e+01	-1.393726e+03
2.900000e-06	-4.604461e-06	-2.150684e-08	-3.299320e+01	-1.406592e+03
2.910000e-06	-4.687585e-06	-2.169635e-08	-3.358882e+01	-1.418868e+03
2.920000e-06	-4.769140e-06	-2.187749e-08	-3.417320e+01	-1.430598e+03
2.930000e-06	-4.848979e-06	-2.204854e-08	-3.474529e+01	-1.441818e+03
2.940000e-06	-4.926870e-06	-2.220960e-08	-3.530341e+01	-1.452549e+03
