# Temperatura_=_90.2
# Concentracion g/m^3_=_28200.0
# C_Vs_to_Am_M_A/Vsm_=_65563218390.804596
# pendiente_HvsI_1/m_=_3716.3
# ordenada_HvsI_A/m_=_1297.0
# frecuencia_Hz_=_302092.3168582883

Tiempo_(s)	Campo_(V.s)	Magnetizacion_(V.s)	Campo_(kA/m)	Magnetizacion_(A/m)
0.000000e+00	-6.394324e-06	-2.710158e-08	-4.558168e+01	-1.773962e+03
1.000000e-08	-6.390642e-06	-2.709492e-08	-4.555543e+01	-1.773366e+03
2.000000e-08	-6.384949e-06	-2.708430e-08	-4.551485e+01	-1.772581e+03
3.000000e-08	-6.377254e-06	-2.706813e-08	-4.546000e+01	-1.771614e+03
4.000000e-08	-6.367362e-06	-2.704542e-08	-4.538948e+01	-1.770466e+03
5.000000e-08	-6.355061e-06	-2.702257e-08	-4.530180e+01	-1.769131e+03
6.000000e-08	-6.340328e-06	-2.699347e-08	-4.519677e+01	-1.767594e+03
7.000000e-08	-6.323363e-06	-2.695433e-08	-4.507584e+01	-1.765843e+03
8.000000e-08	-6.304489e-06	-2.694348e-08	-4.494129e+01	-1.763869e+03
9.000000e-08	-6.283458e-06	-2.696601e-08	-4.479137e+01	-1.761674e+03
1.000000e-07	-6.259850e-06	-2.689453e-08	-4.462309e+01	-1.759274e+03
1.100000e-07	-6.233620e-06	-2.682707e-08	-4.443611e+01	-1.756693e+03
1.200000e-07	-6.205130e-06	-2.680954e-08	-4.423301e+01	-1.753964e+03
1.300000e-07	-6.174787e-06	-2.673248e-08	-4.401672e+01	-1.751114e+03
1.400000e-07	-6.142927e-06	-2.662860e-08	-4.378961e+01	-1.748162e+03
1.500000e-07	-6.109287e-06	-2.671773e-08	-4.354980e+01	-1.745103e+03
1.600000e-07	-6.073539e-06	-2.662208e-08	-4.329497e+01	-1.741912e+03
1.700000e-07	-6.035913e-06	-2.649312e-08	-4.302676e+01	-1.738542e+03
1.800000e-07	-5.996206e-06	-2.656818e-08	-4.274371e+01	-1.734934e+03
1.900000e-07	-5.954097e-06	-2.637059e-08	-4.244353e+01	-1.731027e+03
2.000000e-07	-5.909778e-06	-2.633487e-08	-4.212761e+01	-1.726771e+03
2.100000e-07	-5.863366e-06	-2.631540e-08	-4.179677e+01	-1.722140e+03
2.200000e-07	-5.814543e-06	-2.610078e-08	-4.144873e+01	-1.717131e+03
2.300000e-07	-5.763174e-06	-2.606146e-08	-4.108255e+01	-1.711769e+03
2.400000e-07	-5.709386e-06	-2.601007e-08	-4.069912e+01	-1.706096e+03
2.500000e-07	-5.653437e-06	-2.590650e-08	-4.030030e+01	-1.700158e+03
2.600000e-07	-5.595365e-06	-2.582720e-08	-3.988633e+01	-1.693991e+03
2.700000e-07	-5.535189e-06	-2.572932e-08	-3.945737e+01	-1.687614e+03
2.800000e-07	-5.473052e-06	-2.561831e-08	-3.901443e+01	-1.681018e+03
2.900000e-07	-5.408914e-06	-2.545953e-08	-3.855722e+01	-1.674172e+03
3.000000e-07	-5.342715e-06	-2.540466e-08	-3.808532e+01	-1.667029e+03
3.100000e-07	-5.274466e-06	-2.532666e-08	-3.759881e+01	-1.659537e+03
3.200000e-07	-5.204260e-06	-2.518173e-08	-3.709835e+01	-1.651654e+03
3.300000e-07	-5.132254e-06	-2.503682e-08	-3.658506e+01	-1.643357e+03
3.400000e-07	-5.058251e-06	-2.487158e-08	-3.605753e+01	-1.634647e+03
3.500000e-07	-4.982084e-06	-2.475902e-08	-3.551458e+01	-1.625547e+03
3.600000e-07	-4.903906e-06	-2.461304e-08	-3.495729e+01	-1.616091e+03
3.700000e-07	-4.823752e-06	-2.447942e-08	-3.438592e+01	-1.606312e+03
3.800000e-07	-4.741829e-06	-2.434195e-08	-3.380194e+01	-1.596233e+03
3.900000e-07	-4.658435e-06	-2.415700e-08	-3.320746e+01	-1.585853e+03
4.000000e-07	-4.573600e-06	-2.397641e-08	-3.260272e+01	-1.575150e+03
4.100000e-07	-4.487319e-06	-2.381275e-08	-3.198767e+01	-1.564079e+03
4.200000e-07	-4.399705e-06	-2.365527e-08	-3.136312e+01	-1.552587e+03
4.300000e-07	-4.310520e-06	-2.346348e-08	-3.072737e+01	-1.540622e+03
4.400000e-07	-4.219571e-06	-2.326907e-08	-3.007904e+01	-1.528146e+03
4.500000e-07	-4.127023e-06	-2.307182e-08	-2.941931e+01	-1.515138e+03
4.600000e-07	-4.033078e-06	-2.285645e-08	-2.874963e+01	-1.501600e+03
4.700000e-07	-3.937796e-06	-2.265207e-08	-2.807042e+01	-1.487547e+03
4.800000e-07	-3.841113e-06	-2.243736e-08	-2.738121e+01	-1.472997e+03
4.900000e-07	-3.742952e-06	-2.220182e-08	-2.668148e+01	-1.457958e+03
5.000000e-07	-3.643324e-06	-2.195196e-08	-2.597129e+01	-1.442421e+03
5.100000e-07	-3.542343e-06	-2.170279e-08	-2.525145e+01	-1.426350e+03
5.200000e-07	-3.440163e-06	-2.145062e-08	-2.452306e+01	-1.409692e+03
5.300000e-07	-3.336831e-06	-2.118689e-08	-2.378647e+01	-1.392377e+03
5.400000e-07	-3.232260e-06	-2.091610e-08	-2.304103e+01	-1.374334e+03
5.500000e-07	-3.126373e-06	-2.062793e-08	-2.228622e+01	-1.355503e+03
5.600000e-07	-3.019176e-06	-2.032421e-08	-2.152208e+01	-1.335837e+03
5.700000e-07	-2.910822e-06	-2.000651e-08	-2.074967e+01	-1.315309e+03
5.800000e-07	-2.801477e-06	-1.968145e-08	-1.997022e+01	-1.293905e+03
5.900000e-07	-2.691188e-06	-1.934203e-08	-1.918402e+01	-1.271608e+03
6.000000e-07	-2.579904e-06	-1.898208e-08	-1.839074e+01	-1.248392e+03
6.100000e-07	-2.467625e-06	-1.860845e-08	-1.759037e+01	-1.224206e+03
6.200000e-07	-2.354336e-06	-1.822093e-08	-1.678279e+01	-1.198971e+03
6.300000e-07	-2.239955e-06	-1.781921e-08	-1.596742e+01	-1.172578e+03
6.400000e-07	-2.124551e-06	-1.739891e-08	-1.514478e+01	-1.144899e+03
6.500000e-07	-2.008294e-06	-1.695728e-08	-1.431604e+01	-1.115794e+03
6.600000e-07	-1.891332e-06	-1.648451e-08	-1.348228e+01	-1.085127e+03
6.700000e-07	-1.773746e-06	-1.598535e-08	-1.264407e+01	-1.052775e+03
6.800000e-07	-1.655597e-06	-1.546637e-08	-1.180185e+01	-1.018625e+03
6.900000e-07	-1.536939e-06	-1.492070e-08	-1.095600e+01	-9.825715e+02
7.000000e-07	-1.417750e-06	-1.434438e-08	-1.010637e+01	-9.445105e+02
7.100000e-07	-1.298062e-06	-1.373187e-08	-9.253183e+00	-9.043275e+02
7.200000e-07	-1.177964e-06	-1.308290e-08	-8.397065e+00	-8.618961e+02
7.300000e-07	-1.057462e-06	-1.239331e-08	-7.538073e+00	-8.170846e+02
7.400000e-07	-9.365600e-07	-1.166793e-08	-6.676229e+00	-7.697738e+02
7.500000e-07	-8.153113e-07	-1.090802e-08	-5.811913e+00	-7.198850e+02
7.600000e-07	-6.937378e-07	-1.010655e-08	-4.945282e+00	-6.674116e+02
7.700000e-07	-5.719701e-07	-9.265727e-09	-4.077265e+00	-6.124466e+02
7.800000e-07	-4.500769e-07	-8.393145e-09	-3.208355e+00	-5.551973e+02
7.900000e-07	-3.279794e-07	-7.493734e-09	-2.337988e+00	-4.959798e+02
8.000000e-07	-2.056946e-07	-6.570026e-09	-1.466285e+00	-4.351899e+02
8.100000e-07	-8.326543e-08	-5.629994e-09	-5.935542e-01	-3.732541e+02
8.200000e-07	3.924409e-08	-4.677670e-09	2.797499e-01	-3.105664e+02
8.300000e-07	1.617671e-07	-3.715581e-09	1.153150e+00	-2.474253e+02
8.400000e-07	2.842938e-07	-2.744755e-09	2.026577e+00	-1.839832e+02
8.500000e-07	4.067218e-07	-1.770024e-09	2.899300e+00	-1.202226e+02
8.600000e-07	5.290372e-07	-7.898130e-10	3.771220e+00	-5.596481e+01
8.700000e-07	6.512318e-07	2.011022e-10	4.642279e+00	9.085291e+00
8.800000e-07	7.732357e-07	1.207188e-09	5.511979e+00	7.526561e+01
8.900000e-07	8.950172e-07	2.232789e-09	6.380094e+00	1.428675e+02
9.000000e-07	1.016466e-06	3.280975e-09	7.245839e+00	2.120468e+02
9.100000e-07	1.137500e-06	4.353303e-09	8.108626e+00	2.827537e+02
9.200000e-07	1.258109e-06	5.445490e-09	8.968380e+00	3.546951e+02
9.300000e-07	1.378230e-06	6.552603e-09	9.824655e+00	4.273374e+02
9.400000e-07	1.497792e-06	7.663145e-09	1.067695e+01	4.999508e+02
9.500000e-07	1.616788e-06	8.761002e-09	1.152521e+01	5.716858e+02
9.600000e-07	1.735213e-06	9.827018e-09	1.236939e+01	6.416686e+02
9.700000e-07	1.853002e-06	1.084882e-08	1.320905e+01	7.090982e+02
9.800000e-07	1.970140e-06	1.181901e-08	1.404406e+01	7.733273e+02
9.900000e-07	2.086556e-06	1.273215e-08	1.487393e+01	8.339159e+02
1.000000e-06	2.202135e-06	1.358954e-08	1.569783e+01	8.906498e+02
1.010000e-06	2.316743e-06	1.438932e-08	1.651480e+01	9.435249e+02
1.020000e-06	2.430256e-06	1.513509e-08	1.732398e+01	9.927047e+02
1.030000e-06	2.542710e-06	1.582992e-08	1.812560e+01	1.038463e+03
1.040000e-06	2.654169e-06	1.647959e-08	1.892013e+01	1.081122e+03
1.050000e-06	2.764714e-06	1.708708e-08	1.970815e+01	1.121004e+03
1.060000e-06	2.874357e-06	1.765667e-08	2.048974e+01	1.158391e+03
1.070000e-06	2.983076e-06	1.818960e-08	2.126473e+01	1.193512e+03
1.080000e-06	3.090854e-06	1.868678e-08	2.203303e+01	1.226546e+03
1.090000e-06	3.197586e-06	1.915383e-08	2.279386e+01	1.257633e+03
1.100000e-06	3.303058e-06	1.959547e-08	2.354572e+01	1.286892e+03
1.110000e-06	3.407151e-06	2.001341e-08	2.428773e+01	1.314440e+03
1.120000e-06	3.510023e-06	2.040688e-08	2.502105e+01	1.340400e+03
1.130000e-06	3.611774e-06	2.077956e-08	2.574638e+01	1.364903e+03
1.140000e-06	3.712343e-06	2.113444e-08	2.646329e+01	1.388082e+03
1.150000e-06	3.811709e-06	2.147324e-08	2.717161e+01	1.410064e+03
1.160000e-06	3.909661e-06	2.179309e-08	2.786986e+01	1.430958e+03
1.170000e-06	4.005970e-06	2.209389e-08	2.855639e+01	1.450848e+03
1.180000e-06	4.100764e-06	2.237851e-08	2.923213e+01	1.469796e+03
1.190000e-06	4.194221e-06	2.264917e-08	2.989833e+01	1.487842e+03
1.200000e-06	4.286397e-06	2.290517e-08	3.055540e+01	1.505015e+03
1.210000e-06	4.377223e-06	2.314964e-08	3.120286e+01	1.521344e+03
1.220000e-06	4.466343e-06	2.338569e-08	3.183814e+01	1.536863e+03
1.230000e-06	4.553701e-06	2.361191e-08	3.246087e+01	1.551618e+03
1.240000e-06	4.639492e-06	2.382692e-08	3.307243e+01	1.565660e+03
1.250000e-06	4.723746e-06	2.403234e-08	3.367303e+01	1.579051e+03
1.260000e-06	4.806427e-06	2.422802e-08	3.426242e+01	1.591844e+03
1.270000e-06	4.887326e-06	2.441365e-08	3.483910e+01	1.604089e+03
1.280000e-06	4.966379e-06	2.458982e-08	3.540263e+01	1.615818e+03
1.290000e-06	5.043613e-06	2.475920e-08	3.595319e+01	1.627048e+03
1.300000e-06	5.118927e-06	2.492275e-08	3.649006e+01	1.637786e+03
1.310000e-06	5.192144e-06	2.508005e-08	3.701199e+01	1.648028e+03
1.320000e-06	5.263357e-06	2.522965e-08	3.751963e+01	1.657773e+03
1.330000e-06	5.332713e-06	2.537174e-08	3.801403e+01	1.667018e+03
1.340000e-06	5.400192e-06	2.550665e-08	3.849505e+01	1.675773e+03
1.350000e-06	5.465664e-06	2.563425e-08	3.896176e+01	1.684051e+03
1.360000e-06	5.529093e-06	2.575547e-08	3.941392e+01	1.691877e+03
1.370000e-06	5.590680e-06	2.587055e-08	3.985294e+01	1.699276e+03
1.380000e-06	5.650454e-06	2.597879e-08	4.027903e+01	1.706275e+03
1.390000e-06	5.708248e-06	2.607890e-08	4.069101e+01	1.712899e+03
1.400000e-06	5.763957e-06	2.617192e-08	4.108813e+01	1.719171e+03
1.410000e-06	5.817573e-06	2.625993e-08	4.147033e+01	1.725112e+03
1.420000e-06	5.868966e-06	2.634549e-08	4.183669e+01	1.730739e+03
1.430000e-06	5.917876e-06	2.642840e-08	4.218534e+01	1.736069e+03
1.440000e-06	5.964438e-06	2.650703e-08	4.251726e+01	1.741119e+03
1.450000e-06	6.009031e-06	2.658157e-08	4.283513e+01	1.745902e+03
1.460000e-06	6.051662e-06	2.665228e-08	4.313903e+01	1.750426e+03
1.470000e-06	6.092031e-06	2.671682e-08	4.342680e+01	1.754693e+03
1.480000e-06	6.130181e-06	2.677555e-08	4.369874e+01	1.758700e+03
1.490000e-06	6.166361e-06	2.683079e-08	4.395665e+01	1.762435e+03
1.500000e-06	6.200360e-06	2.688201e-08	4.419901e+01	1.765883e+03
1.510000e-06	6.232055e-06	2.692922e-08	4.442495e+01	1.769029e+03
1.520000e-06	6.261613e-06	2.697075e-08	4.463565e+01	1.771863e+03
1.530000e-06	6.289081e-06	2.700740e-08	4.483146e+01	1.774382e+03
1.540000e-06	6.314197e-06	2.704069e-08	4.501050e+01	1.776593e+03
1.550000e-06	6.336934e-06	2.707084e-08	4.517258e+01	1.778512e+03
1.560000e-06	6.357553e-06	2.709657e-08	4.531955e+01	1.780163e+03
1.570000e-06	6.376055e-06	2.711784e-08	4.545145e+01	1.781568e+03
1.580000e-06	6.392218e-06	2.713610e-08	4.556666e+01	1.782749e+03
1.590000e-06	6.405916e-06	2.715030e-08	4.566431e+01	1.783720e+03
1.600000e-06	6.417120e-06	2.716069e-08	4.574418e+01	1.784487e+03
1.610000e-06	6.425753e-06	2.716948e-08	4.580572e+01	1.785049e+03
1.620000e-06	6.431981e-06	2.717727e-08	4.585011e+01	1.785401e+03
1.630000e-06	6.436066e-06	2.718204e-08	4.587923e+01	1.785536e+03
1.640000e-06	6.437941e-06	2.718439e-08	4.589260e+01	1.785454e+03
1.650000e-06	6.437496e-06	2.718444e-08	4.588943e+01	1.785158e+03
1.660000e-06	6.434891e-06	2.717294e-08	4.587086e+01	1.784657e+03
1.670000e-06	6.430272e-06	2.716234e-08	4.583793e+01	1.783962e+03
1.680000e-06	6.423405e-06	2.714738e-08	4.578898e+01	1.783082e+03
1.690000e-06	6.414379e-06	2.713081e-08	4.572464e+01	1.782023e+03
1.700000e-06	6.403421e-06	2.711721e-08	4.564652e+01	1.780779e+03
1.710000e-06	6.390221e-06	2.710343e-08	4.555243e+01	1.779342e+03
1.720000e-06	6.374704e-06	2.710007e-08	4.544181e+01	1.777696e+03
1.730000e-06	6.357247e-06	2.704575e-08	4.531738e+01	1.775831e+03
1.740000e-06	6.337661e-06	2.695784e-08	4.517776e+01	1.773743e+03
1.750000e-06	6.315053e-06	2.695969e-08	4.501660e+01	1.771440e+03
1.760000e-06	6.289333e-06	2.693213e-08	4.483326e+01	1.768942e+03
1.770000e-06	6.261407e-06	2.686506e-08	4.463418e+01	1.766280e+03
1.780000e-06	6.231664e-06	2.692734e-08	4.442216e+01	1.763485e+03
1.790000e-06	6.200305e-06	2.683501e-08	4.419862e+01	1.760580e+03
1.800000e-06	6.167452e-06	2.670900e-08	4.396443e+01	1.757573e+03
1.810000e-06	6.132580e-06	2.679068e-08	4.371584e+01	1.754450e+03
1.820000e-06	6.095762e-06	2.659476e-08	4.345339e+01	1.751174e+03
1.830000e-06	6.056858e-06	2.660690e-08	4.317607e+01	1.747689e+03
1.840000e-06	6.015477e-06	2.668964e-08	4.288108e+01	1.743936e+03
1.850000e-06	5.972071e-06	2.644772e-08	4.257166e+01	1.739856e+03
1.860000e-06	5.926641e-06	2.651663e-08	4.224782e+01	1.735411e+03
1.870000e-06	5.878986e-06	2.643037e-08	4.190811e+01	1.730587e+03
1.880000e-06	5.829184e-06	2.631064e-08	4.155310e+01	1.725394e+03
1.890000e-06	5.776894e-06	2.631998e-08	4.118035e+01	1.719868e+03
1.900000e-06	5.722127e-06	2.609403e-08	4.078995e+01	1.714054e+03
1.910000e-06	5.665150e-06	2.606191e-08	4.038379e+01	1.707994e+03
1.920000e-06	5.606128e-06	2.599324e-08	3.996306e+01	1.701719e+03
1.930000e-06	5.545191e-06	2.591132e-08	3.952867e+01	1.695232e+03
1.940000e-06	5.482127e-06	2.584568e-08	3.907912e+01	1.688513e+03
1.950000e-06	5.416970e-06	2.561460e-08	3.861465e+01	1.681522e+03
1.960000e-06	5.349840e-06	2.557830e-08	3.813611e+01	1.674208e+03
1.970000e-06	5.280656e-06	2.541279e-08	3.764294e+01	1.666521e+03
1.980000e-06	5.209398e-06	2.529358e-08	3.713498e+01	1.658429e+03
1.990000e-06	5.136193e-06	2.522198e-08	3.661314e+01	1.649922e+03
2.000000e-06	5.061169e-06	2.506495e-08	3.607834e+01	1.641010e+03
2.010000e-06	4.984124e-06	2.495992e-08	3.552913e+01	1.631724e+03
2.020000e-06	4.905056e-06	2.472842e-08	3.496549e+01	1.622100e+03
2.030000e-06	4.824163e-06	2.461799e-08	3.438885e+01	1.612166e+03
2.040000e-06	4.741614e-06	2.448536e-08	3.380040e+01	1.601935e+03
2.050000e-06	4.657617e-06	2.431643e-08	3.320163e+01	1.591395e+03
2.060000e-06	4.571946e-06	2.414763e-08	3.259093e+01	1.580512e+03
2.070000e-06	4.484511e-06	2.394884e-08	3.196766e+01	1.569234e+03
2.080000e-06	4.395485e-06	2.379497e-08	3.133303e+01	1.557509e+03
2.090000e-06	4.305053e-06	2.358762e-08	3.068839e+01	1.545288e+03
2.100000e-06	4.213279e-06	2.342309e-08	3.003418e+01	1.532544e+03
2.110000e-06	4.120021e-06	2.321705e-08	2.936940e+01	1.519267e+03
2.120000e-06	4.025278e-06	2.300040e-08	2.869403e+01	1.505467e+03
2.130000e-06	3.929033e-06	2.278002e-08	2.800795e+01	1.491160e+03
2.140000e-06	3.831357e-06	2.255135e-08	2.731167e+01	1.476363e+03
2.150000e-06	3.732434e-06	2.233145e-08	2.660650e+01	1.461074e+03
2.160000e-06	3.632224e-06	2.208576e-08	2.589216e+01	1.445273e+03
2.170000e-06	3.530587e-06	2.184674e-08	2.516764e+01	1.428914e+03
2.180000e-06	3.427531e-06	2.157473e-08	2.443302e+01	1.411933e+03
2.190000e-06	3.323106e-06	2.130561e-08	2.368863e+01	1.394259e+03
2.200000e-06	3.217499e-06	2.102412e-08	2.293581e+01	1.375826e+03
2.210000e-06	3.110880e-06	2.074013e-08	2.217578e+01	1.356579e+03
2.220000e-06	3.003185e-06	2.043486e-08	2.140808e+01	1.336482e+03
2.230000e-06	2.894438e-06	2.011275e-08	2.063288e+01	1.315514e+03
2.240000e-06	2.784689e-06	1.978370e-08	1.985054e+01	1.293662e+03
2.250000e-06	2.673846e-06	1.944153e-08	1.906040e+01	1.270908e+03
2.260000e-06	2.561969e-06	1.908537e-08	1.826289e+01	1.247212e+03
2.270000e-06	2.449106e-06	1.870559e-08	1.745835e+01	1.222511e+03
2.280000e-06	2.335302e-06	1.831165e-08	1.664711e+01	1.196709e+03
2.290000e-06	2.220613e-06	1.789554e-08	1.582955e+01	1.169686e+03
2.300000e-06	2.105015e-06	1.746603e-08	1.500551e+01	1.141308e+03
2.310000e-06	1.988594e-06	1.701346e-08	1.417561e+01	1.111436e+03
2.320000e-06	1.871381e-06	1.653843e-08	1.334006e+01	1.079939e+03
2.330000e-06	1.753393e-06	1.603135e-08	1.249899e+01	1.046698e+03
2.340000e-06	1.634760e-06	1.548952e-08	1.165332e+01	1.011606e+03
2.350000e-06	1.515483e-06	1.491953e-08	1.080306e+01	9.745591e+02
2.360000e-06	1.395567e-06	1.432509e-08	9.948239e+00	9.354491e+02
2.370000e-06	1.275205e-06	1.370389e-08	9.090250e+00	8.941554e+02
2.380000e-06	1.154529e-06	1.304221e-08	8.230014e+00	8.505472e+02
2.390000e-06	1.033539e-06	1.233752e-08	7.367542e+00	8.044961e+02
2.400000e-06	9.122115e-07	1.159216e-08	6.502663e+00	7.558994e+02
2.410000e-06	7.906098e-07	1.081069e-08	5.635830e+00	7.047104e+02
2.420000e-06	6.687456e-07	9.991374e-09	4.767126e+00	6.509695e+02
2.430000e-06	5.466541e-07	9.136879e-09	3.896802e+00	5.948262e+02
2.440000e-06	4.244535e-07	8.249800e-09	3.025699e+00	5.365444e+02
2.450000e-06	3.021864e-07	7.330846e-09	2.154124e+00	4.764849e+02
2.460000e-06	1.797436e-07	6.388525e-09	1.281295e+00	4.150662e+02
2.470000e-06	5.717682e-08	5.435077e-09	4.075826e-01	3.527068e+02
2.480000e-06	-6.536363e-08	4.479440e-09	-4.659420e-01	2.897602e+02
2.490000e-06	-1.879082e-07	3.516788e-09	-1.339496e+00	2.264570e+02
2.500000e-06	-3.104403e-07	2.543076e-09	-2.212961e+00	1.628655e+02
2.510000e-06	-4.329031e-07	1.561306e-09	-3.085932e+00	9.888435e+01
2.520000e-06	-5.552351e-07	5.707021e-10	-3.957971e+00	3.426891e+01
2.530000e-06	-6.773399e-07	-4.325728e-10	-4.828390e+00	-3.130781e+01
2.540000e-06	-7.992196e-07	-1.454188e-09	-5.697204e+00	-9.817201e+01
2.550000e-06	-9.209171e-07	-2.496877e-09	-6.564720e+00	-1.665576e+02
2.560000e-06	-1.042325e-06	-3.563239e-09	-7.430173e+00	-2.365248e+02
2.570000e-06	-1.163315e-06	-4.652610e-09	-8.292646e+00	-3.079042e+02
2.580000e-06	-1.283876e-06	-5.756976e-09	-9.152055e+00	-3.802795e+02
2.590000e-06	-1.404014e-06	-6.868747e-09	-1.000846e+01	-4.530112e+02
2.600000e-06	-1.523623e-06	-7.978593e-09	-1.086108e+01	-5.252985e+02
2.610000e-06	-1.642595e-06	-9.071078e-09	-1.170917e+01	-5.962672e+02
2.620000e-06	-1.760824e-06	-1.012727e-08	-1.255196e+01	-6.650686e+02
2.630000e-06	-1.878221e-06	-1.113469e-08	-1.338882e+01	-7.309698e+02
2.640000e-06	-1.994770e-06	-1.208780e-08	-1.421964e+01	-7.934226e+02
2.650000e-06	-2.110478e-06	-1.298426e-08	-1.504446e+01	-8.520998e+02
2.660000e-06	-2.225308e-06	-1.382507e-08	-1.586302e+01	-9.068960e+02
2.670000e-06	-2.339139e-06	-1.460921e-08	-1.667446e+01	-9.578977e+02
2.680000e-06	-2.451935e-06	-1.533798e-08	-1.747852e+01	-1.005331e+03
2.690000e-06	-2.563629e-06	-1.601452e-08	-1.827473e+01	-1.049502e+03
2.700000e-06	-2.674206e-06	-1.664745e-08	-1.906297e+01	-1.090737e+03
2.710000e-06	-2.783834e-06	-1.724385e-08	-1.984444e+01	-1.129342e+03
2.720000e-06	-2.892567e-06	-1.780552e-08	-2.061955e+01	-1.165574e+03
2.730000e-06	-3.000430e-06	-1.833126e-08	-2.138845e+01	-1.199635e+03
2.740000e-06	-3.107372e-06	-1.881849e-08	-2.215077e+01	-1.231683e+03
2.750000e-06	-3.213243e-06	-1.927408e-08	-2.290547e+01	-1.261844e+03
2.760000e-06	-3.318057e-06	-1.970351e-08	-2.365264e+01	-1.290236e+03
2.770000e-06	-3.421735e-06	-2.011101e-08	-2.439170e+01	-1.316977e+03
2.780000e-06	-3.524003e-06	-2.049949e-08	-2.512071e+01	-1.342194e+03
2.790000e-06	-3.624877e-06	-2.086940e-08	-2.583979e+01	-1.366022e+03
2.800000e-06	-3.724538e-06	-2.121867e-08	-2.655022e+01	-1.388591e+03
2.810000e-06	-3.822943e-06	-2.154735e-08	-2.725170e+01	-1.410020e+03
2.820000e-06	-3.920096e-06	-2.185832e-08	-2.794424e+01	-1.430406e+03
2.830000e-06	-4.015984e-06	-2.215558e-08	-2.862778e+01	-1.449822e+03
2.840000e-06	-4.110446e-06	-2.243908e-08	-2.930115e+01	-1.468317e+03
2.850000e-06	-4.203353e-06	-2.270626e-08	-2.996343e+01	-1.485926e+03
2.860000e-06	-4.294753e-06	-2.296025e-08	-3.061497e+01	-1.502677e+03
2.870000e-06	-4.384664e-06	-2.320347e-08	-3.125590e+01	-1.518599e+03
2.880000e-06	-4.472993e-06	-2.343768e-08	-3.188555e+01	-1.533733e+03
2.890000e-06	-4.559635e-06	-2.366221e-08	-3.250317e+01	-1.548127e+03
2.900000e-06	-4.644483e-06	-2.387457e-08	-3.310801e+01	-1.561839e+03
2.910000e-06	-4.727670e-06	-2.407638e-08	-3.370100e+01	-1.574928e+03
2.920000e-06	-4.809292e-06	-2.426830e-08	-3.428284e+01	-1.587445e+03
2.930000e-06	-4.889175e-06	-2.445011e-08	-3.485228e+01	-1.599431e+03
2.940000e-06	-4.967038e-06	-2.462233e-08	-3.540733e+01	-1.610912e+03
