# Temperatura_=_75.73
# Concentracion g/m^3_=_28370.0
# C_Vs_to_Am_M_A/Vsm_=_65563218390.804596
# pendiente_HvsI_1/m_=_3716.3
# ordenada_HvsI_A/m_=_1297.0
# frecuencia_Hz_=_302509.8957990816

Tiempo_(s)	Campo_(V.s)	Magnetizacion_(V.s)	Campo_(kA/m)	Magnetizacion_(A/m)
0.000000e+00	-7.873610e-06	-2.795565e-08	-5.683392e+01	-1.829646e+03
1.000000e-08	-7.869055e-06	-2.794625e-08	-5.680104e+01	-1.828809e+03
2.000000e-08	-7.862033e-06	-2.792943e-08	-5.675036e+01	-1.827975e+03
3.000000e-08	-7.852284e-06	-2.791599e-08	-5.667999e+01	-1.827174e+03
4.000000e-08	-7.839674e-06	-2.790282e-08	-5.658896e+01	-1.826404e+03
5.000000e-08	-7.824163e-06	-2.788391e-08	-5.647700e+01	-1.825632e+03
6.000000e-08	-7.806041e-06	-2.785891e-08	-5.634619e+01	-1.824800e+03
7.000000e-08	-7.785794e-06	-2.781830e-08	-5.620004e+01	-1.823836e+03
8.000000e-08	-7.763116e-06	-2.782211e-08	-5.603634e+01	-1.822668e+03
9.000000e-08	-7.737406e-06	-2.789011e-08	-5.585076e+01	-1.821234e+03
1.000000e-07	-7.708525e-06	-2.781488e-08	-5.564229e+01	-1.819493e+03
1.100000e-07	-7.676754e-06	-2.772659e-08	-5.541296e+01	-1.817435e+03
1.200000e-07	-7.642176e-06	-2.770500e-08	-5.516336e+01	-1.815081e+03
1.300000e-07	-7.605058e-06	-2.767143e-08	-5.489544e+01	-1.812478e+03
1.400000e-07	-7.565730e-06	-2.758215e-08	-5.461156e+01	-1.809691e+03
1.500000e-07	-7.524138e-06	-2.750548e-08	-5.431133e+01	-1.806791e+03
1.600000e-07	-7.480088e-06	-2.764072e-08	-5.399337e+01	-1.803840e+03
1.700000e-07	-7.433454e-06	-2.747991e-08	-5.365675e+01	-1.800883e+03
1.800000e-07	-7.384150e-06	-2.737853e-08	-5.330086e+01	-1.797931e+03
1.900000e-07	-7.331873e-06	-2.745556e-08	-5.292351e+01	-1.794965e+03
2.000000e-07	-7.276704e-06	-2.729923e-08	-5.252529e+01	-1.791930e+03
2.100000e-07	-7.218889e-06	-2.728401e-08	-5.210796e+01	-1.788749e+03
2.200000e-07	-7.158457e-06	-2.718990e-08	-5.167175e+01	-1.785329e+03
2.300000e-07	-7.095435e-06	-2.710447e-08	-5.121684e+01	-1.781579e+03
2.400000e-07	-7.029682e-06	-2.710169e-08	-5.074222e+01	-1.777421e+03
2.500000e-07	-6.961245e-06	-2.701339e-08	-5.024822e+01	-1.772808e+03
2.600000e-07	-6.890130e-06	-2.693004e-08	-4.973489e+01	-1.767726e+03
2.700000e-07	-6.816242e-06	-2.682745e-08	-4.920155e+01	-1.762198e+03
2.800000e-07	-6.739696e-06	-2.678981e-08	-4.864902e+01	-1.756282e+03
2.900000e-07	-6.660431e-06	-2.667333e-08	-4.807685e+01	-1.750060e+03
3.000000e-07	-6.578564e-06	-2.655249e-08	-4.748591e+01	-1.743620e+03
3.100000e-07	-6.494448e-06	-2.651627e-08	-4.687874e+01	-1.737046e+03
3.200000e-07	-6.408143e-06	-2.641088e-08	-4.625577e+01	-1.730397e+03
3.300000e-07	-6.319530e-06	-2.629874e-08	-4.561614e+01	-1.723699e+03
3.400000e-07	-6.228547e-06	-2.614454e-08	-4.495940e+01	-1.716936e+03
3.500000e-07	-6.135399e-06	-2.606538e-08	-4.428703e+01	-1.710051e+03
3.600000e-07	-6.040025e-06	-2.597088e-08	-4.359859e+01	-1.702954e+03
3.700000e-07	-5.942332e-06	-2.582494e-08	-4.289342e+01	-1.695532e+03
3.800000e-07	-5.842509e-06	-2.570007e-08	-4.217287e+01	-1.687670e+03
3.900000e-07	-5.740616e-06	-2.556882e-08	-4.143737e+01	-1.679265e+03
4.000000e-07	-5.636657e-06	-2.543143e-08	-4.068697e+01	-1.670243e+03
4.100000e-07	-5.530717e-06	-2.525959e-08	-3.992226e+01	-1.660568e+03
4.200000e-07	-5.422855e-06	-2.513641e-08	-3.914369e+01	-1.650251e+03
4.300000e-07	-5.313123e-06	-2.497959e-08	-3.835161e+01	-1.639343e+03
4.400000e-07	-5.201409e-06	-2.480391e-08	-3.754523e+01	-1.627924e+03
4.500000e-07	-5.087682e-06	-2.462997e-08	-3.672431e+01	-1.616090e+03
4.600000e-07	-4.972051e-06	-2.446148e-08	-3.588966e+01	-1.603930e+03
4.700000e-07	-4.854544e-06	-2.427586e-08	-3.504146e+01	-1.591507e+03
4.800000e-07	-4.735219e-06	-2.407570e-08	-3.418014e+01	-1.578845e+03
4.900000e-07	-4.614180e-06	-2.388434e-08	-3.330644e+01	-1.565914e+03
5.000000e-07	-4.491438e-06	-2.366396e-08	-3.242046e+01	-1.552633e+03
5.100000e-07	-4.367002e-06	-2.343199e-08	-3.152224e+01	-1.538873e+03
5.200000e-07	-4.241081e-06	-2.319295e-08	-3.061331e+01	-1.524472e+03
5.300000e-07	-4.113572e-06	-2.296050e-08	-2.969292e+01	-1.509260e+03
5.400000e-07	-3.984545e-06	-2.270092e-08	-2.876156e+01	-1.493075e+03
5.500000e-07	-3.854107e-06	-2.242848e-08	-2.782002e+01	-1.475791e+03
5.600000e-07	-3.722091e-06	-2.215214e-08	-2.686709e+01	-1.457330e+03
5.700000e-07	-3.588645e-06	-2.186288e-08	-2.590385e+01	-1.437671e+03
5.800000e-07	-3.453871e-06	-2.155622e-08	-2.493101e+01	-1.416846e+03
5.900000e-07	-3.317697e-06	-2.123079e-08	-2.394807e+01	-1.394932e+03
6.000000e-07	-3.180257e-06	-2.089729e-08	-2.295599e+01	-1.372021e+03
6.100000e-07	-3.041650e-06	-2.054194e-08	-2.195548e+01	-1.348196e+03
6.200000e-07	-2.901686e-06	-2.016803e-08	-2.094518e+01	-1.323499e+03
6.300000e-07	-2.760345e-06	-1.977238e-08	-1.992494e+01	-1.297902e+03
6.400000e-07	-2.617923e-06	-1.935789e-08	-1.889690e+01	-1.271286e+03
6.500000e-07	-2.474630e-06	-1.891617e-08	-1.786257e+01	-1.243430e+03
6.600000e-07	-2.330481e-06	-1.844689e-08	-1.682206e+01	-1.214017e+03
6.700000e-07	-2.185479e-06	-1.794766e-08	-1.577540e+01	-1.182650e+03
6.800000e-07	-2.039760e-06	-1.741428e-08	-1.472356e+01	-1.148881e+03
6.900000e-07	-1.893375e-06	-1.684922e-08	-1.366691e+01	-1.112253e+03
7.000000e-07	-1.746297e-06	-1.623768e-08	-1.260526e+01	-1.072340e+03
7.100000e-07	-1.598633e-06	-1.558333e-08	-1.153938e+01	-1.028791e+03
7.200000e-07	-1.450506e-06	-1.488018e-08	-1.047016e+01	-9.813591e+02
7.300000e-07	-1.301957e-06	-1.412439e-08	-9.397888e+00	-9.299292e+02
7.400000e-07	-1.153011e-06	-1.330732e-08	-8.322756e+00	-8.745197e+02
7.500000e-07	-1.003720e-06	-1.242870e-08	-7.245135e+00	-8.152745e+02
7.600000e-07	-8.540886e-07	-1.148867e-08	-6.165051e+00	-7.524383e+02
7.700000e-07	-7.042047e-07	-1.047646e-08	-5.083147e+00	-6.863201e+02
7.800000e-07	-5.540259e-07	-9.398729e-09	-3.999114e+00	-6.172523e+02
7.900000e-07	-4.035846e-07	-8.266531e-09	-2.913187e+00	-5.455489e+02
8.000000e-07	-2.530328e-07	-7.093560e-09	-1.826461e+00	-4.714717e+02
8.100000e-07	-1.023696e-07	-5.887443e-09	-7.389328e-01	-3.952086e+02
8.200000e-07	4.843075e-08	-4.667091e-09	3.495867e-01	-3.168684e+02
8.300000e-07	1.992318e-07	-3.442815e-09	1.438111e+00	-2.364926e+02
8.400000e-07	3.499250e-07	-2.213370e-09	2.525857e+00	-1.540853e+02
8.500000e-07	5.005026e-07	-9.715968e-10	3.612768e+00	-6.965408e+01
8.600000e-07	6.509417e-07	2.883504e-10	4.698679e+00	1.674097e+01
8.700000e-07	8.012024e-07	1.575560e-09	5.783303e+00	1.049391e+02
8.800000e-07	9.511815e-07	2.906617e-09	6.865895e+00	1.946380e+02
8.900000e-07	1.100881e-06	4.281729e-09	7.946471e+00	2.853684e+02
9.000000e-07	1.250219e-06	5.693466e-09	9.024428e+00	3.764868e+02
9.100000e-07	1.399098e-06	7.123756e-09	1.009908e+01	4.671915e+02
9.200000e-07	1.547540e-06	8.545636e-09	1.117057e+01	5.565595e+02
9.300000e-07	1.695482e-06	9.921919e-09	1.223846e+01	6.436027e+02
9.400000e-07	1.842766e-06	1.122194e-08	1.330160e+01	7.273357e+02
9.500000e-07	1.989323e-06	1.242971e-08	1.435949e+01	8.068493e+02
9.600000e-07	2.135153e-06	1.353599e-08	1.541213e+01	8.813800e+02
9.700000e-07	2.280238e-06	1.454169e-08	1.645940e+01	9.503681e+02
9.800000e-07	2.424522e-06	1.545504e-08	1.750088e+01	1.013497e+03
9.900000e-07	2.567890e-06	1.629002e-08	1.853575e+01	1.070708e+03
1.000000e-06	2.710244e-06	1.705000e-08	1.956330e+01	1.122197e+03
1.010000e-06	2.851505e-06	1.774162e-08	2.058296e+01	1.168374e+03
1.020000e-06	2.991544e-06	1.837407e-08	2.159380e+01	1.209819e+03
1.030000e-06	3.130331e-06	1.895753e-08	2.259561e+01	1.247215e+03
1.040000e-06	3.267873e-06	1.949881e-08	2.358842e+01	1.281280e+03
1.050000e-06	3.404152e-06	2.000155e-08	2.457213e+01	1.312698e+03
1.060000e-06	3.539161e-06	2.047085e-08	2.554665e+01	1.342069e+03
1.070000e-06	3.672891e-06	2.090848e-08	2.651195e+01	1.369862e+03
1.080000e-06	3.805325e-06	2.132027e-08	2.746790e+01	1.396402e+03
1.090000e-06	3.936340e-06	2.170400e-08	2.841361e+01	1.421866e+03
1.100000e-06	4.065898e-06	2.206280e-08	2.934879e+01	1.446303e+03
1.110000e-06	4.194054e-06	2.240047e-08	3.027386e+01	1.469666e+03
1.120000e-06	4.320769e-06	2.272098e-08	3.118852e+01	1.491851e+03
1.130000e-06	4.446023e-06	2.302240e-08	3.209264e+01	1.512744e+03
1.140000e-06	4.569781e-06	2.330408e-08	3.298596e+01	1.532252e+03
1.150000e-06	4.691922e-06	2.357069e-08	3.386761e+01	1.550339e+03
1.160000e-06	4.812415e-06	2.382390e-08	3.473736e+01	1.567036e+03
1.170000e-06	4.931184e-06	2.406516e-08	3.559466e+01	1.582446e+03
1.180000e-06	5.048154e-06	2.429456e-08	3.643899e+01	1.596730e+03
1.190000e-06	5.163194e-06	2.451358e-08	3.726938e+01	1.610090e+03
1.200000e-06	5.276233e-06	2.472081e-08	3.808533e+01	1.622739e+03
1.210000e-06	5.387291e-06	2.491406e-08	3.888697e+01	1.634874e+03
1.220000e-06	5.496443e-06	2.509518e-08	3.967487e+01	1.646651e+03
1.230000e-06	5.603650e-06	2.526927e-08	4.044872e+01	1.658168e+03
1.240000e-06	5.708768e-06	2.543690e-08	4.120749e+01	1.669457e+03
1.250000e-06	5.811792e-06	2.559783e-08	4.195114e+01	1.680491e+03
1.260000e-06	5.912723e-06	2.575187e-08	4.267969e+01	1.691191e+03
1.270000e-06	6.011484e-06	2.589859e-08	4.339257e+01	1.701449e+03
1.280000e-06	6.107934e-06	2.603840e-08	4.408878e+01	1.711153e+03
1.290000e-06	6.202109e-06	2.617133e-08	4.476856e+01	1.720205e+03
1.300000e-06	6.294093e-06	2.629668e-08	4.543252e+01	1.728546e+03
1.310000e-06	6.383779e-06	2.641412e-08	4.607991e+01	1.736162e+03
1.320000e-06	6.471120e-06	2.652508e-08	4.671036e+01	1.743094e+03
1.330000e-06	6.556243e-06	2.663009e-08	4.732480e+01	1.749427e+03
1.340000e-06	6.639091e-06	2.672928e-08	4.792282e+01	1.755279e+03
1.350000e-06	6.719543e-06	2.682324e-08	4.850354e+01	1.760785e+03
1.360000e-06	6.797515e-06	2.691321e-08	4.906637e+01	1.766076e+03
1.370000e-06	6.872945e-06	2.699837e-08	4.961084e+01	1.771259e+03
1.380000e-06	6.945776e-06	2.707673e-08	5.013656e+01	1.776403e+03
1.390000e-06	7.016088e-06	2.715031e-08	5.064409e+01	1.781534e+03
1.400000e-06	7.083975e-06	2.722078e-08	5.113411e+01	1.786630e+03
1.410000e-06	7.149281e-06	2.728914e-08	5.160551e+01	1.791632e+03
1.420000e-06	7.211994e-06	2.735438e-08	5.205819e+01	1.796456e+03
1.430000e-06	7.272325e-06	2.741624e-08	5.249368e+01	1.801007e+03
1.440000e-06	7.330168e-06	2.747568e-08	5.291120e+01	1.805200e+03
1.450000e-06	7.385378e-06	2.753139e-08	5.330973e+01	1.808972e+03
1.460000e-06	7.437799e-06	2.758397e-08	5.368812e+01	1.812296e+03
1.470000e-06	7.487133e-06	2.763222e-08	5.404423e+01	1.815181e+03
1.480000e-06	7.533579e-06	2.767633e-08	5.437948e+01	1.817673e+03
1.490000e-06	7.577488e-06	2.771642e-08	5.469643e+01	1.819848e+03
1.500000e-06	7.618708e-06	2.775247e-08	5.499397e+01	1.821793e+03
1.510000e-06	7.657079e-06	2.778719e-08	5.527094e+01	1.823597e+03
1.520000e-06	7.692807e-06	2.781851e-08	5.552883e+01	1.825334e+03
1.530000e-06	7.725836e-06	2.784437e-08	5.576725e+01	1.827051e+03
1.540000e-06	7.756043e-06	2.786695e-08	5.598529e+01	1.828763e+03
1.550000e-06	7.783539e-06	2.788846e-08	5.618376e+01	1.830449e+03
1.560000e-06	7.808197e-06	2.790780e-08	5.636175e+01	1.832058e+03
1.570000e-06	7.830002e-06	2.792377e-08	5.651915e+01	1.833523e+03
1.580000e-06	7.849125e-06	2.793700e-08	5.665719e+01	1.834767e+03
1.590000e-06	7.865395e-06	2.794749e-08	5.677462e+01	1.835724e+03
1.600000e-06	7.878723e-06	2.795533e-08	5.687083e+01	1.836343e+03
1.610000e-06	7.888997e-06	2.796125e-08	5.694499e+01	1.836608e+03
1.620000e-06	7.896215e-06	2.796531e-08	5.699709e+01	1.836532e+03
1.630000e-06	7.900711e-06	2.796793e-08	5.702955e+01	1.836157e+03
1.640000e-06	7.902367e-06	2.796951e-08	5.704150e+01	1.835553e+03
1.650000e-06	7.901151e-06	2.796671e-08	5.703272e+01	1.834797e+03
1.660000e-06	7.897388e-06	2.795233e-08	5.700556e+01	1.833967e+03
1.670000e-06	7.890949e-06	2.794740e-08	5.695908e+01	1.833126e+03
1.680000e-06	7.881820e-06	2.793973e-08	5.689318e+01	1.832312e+03
1.690000e-06	7.870116e-06	2.792568e-08	5.680870e+01	1.831533e+03
1.700000e-06	7.855625e-06	2.791391e-08	5.670410e+01	1.830764e+03
1.710000e-06	7.838536e-06	2.790822e-08	5.658075e+01	1.829954e+03
1.720000e-06	7.819196e-06	2.791440e-08	5.644115e+01	1.829034e+03
1.730000e-06	7.797417e-06	2.780332e-08	5.628394e+01	1.827929e+03
1.740000e-06	7.772532e-06	2.772022e-08	5.610431e+01	1.826574e+03
1.750000e-06	7.743943e-06	2.777653e-08	5.589795e+01	1.824921e+03
1.760000e-06	7.711904e-06	2.776315e-08	5.566668e+01	1.822951e+03
1.770000e-06	7.677298e-06	2.770689e-08	5.541689e+01	1.820676e+03
1.780000e-06	7.640555e-06	2.774802e-08	5.515167e+01	1.818136e+03
1.790000e-06	7.601639e-06	2.779301e-08	5.487076e+01	1.815392e+03
1.800000e-06	7.560788e-06	2.751896e-08	5.457589e+01	1.812515e+03
1.810000e-06	7.517629e-06	2.759319e-08	5.426435e+01	1.809571e+03
1.820000e-06	7.471750e-06	2.759921e-08	5.393319e+01	1.806611e+03
1.830000e-06	7.423285e-06	2.743139e-08	5.358335e+01	1.803656e+03
1.840000e-06	7.371816e-06	2.758925e-08	5.321184e+01	1.800696e+03
1.850000e-06	7.317355e-06	2.736485e-08	5.281872e+01	1.797686e+03
1.860000e-06	7.260244e-06	2.742000e-08	5.240648e+01	1.794553e+03
1.870000e-06	7.200558e-06	2.740260e-08	5.197565e+01	1.791209e+03
1.880000e-06	7.138208e-06	2.720729e-08	5.152558e+01	1.787560e+03
1.890000e-06	7.072964e-06	2.725786e-08	5.105464e+01	1.783523e+03
1.900000e-06	7.005049e-06	2.708179e-08	5.056440e+01	1.779041e+03
1.910000e-06	6.934462e-06	2.708049e-08	5.005489e+01	1.774089e+03
1.920000e-06	6.861144e-06	2.695523e-08	4.952566e+01	1.768682e+03
1.930000e-06	6.785238e-06	2.689564e-08	4.897775e+01	1.762868e+03
1.940000e-06	6.706593e-06	2.689496e-08	4.841006e+01	1.756722e+03
1.950000e-06	6.625388e-06	2.668039e-08	4.782391e+01	1.750333e+03
1.960000e-06	6.541739e-06	2.663413e-08	4.722010e+01	1.743788e+03
1.970000e-06	6.455684e-06	2.649732e-08	4.659894e+01	1.737154e+03
1.980000e-06	6.367279e-06	2.646708e-08	4.596081e+01	1.730468e+03
1.990000e-06	6.276587e-06	2.634436e-08	4.530616e+01	1.723725e+03
2.000000e-06	6.183718e-06	2.621461e-08	4.463581e+01	1.716881e+03
2.010000e-06	6.088593e-06	2.612826e-08	4.394917e+01	1.709853e+03
2.020000e-06	5.991311e-06	2.596566e-08	4.324696e+01	1.702534e+03
2.030000e-06	5.891922e-06	2.585516e-08	4.252955e+01	1.694807e+03
2.040000e-06	5.790478e-06	2.572065e-08	4.179729e+01	1.686564e+03
2.050000e-06	5.686902e-06	2.563104e-08	4.104965e+01	1.677721e+03
2.060000e-06	5.581331e-06	2.544423e-08	4.028761e+01	1.668232e+03
2.070000e-06	5.473872e-06	2.529077e-08	3.951194e+01	1.658093e+03
2.080000e-06	5.364484e-06	2.513944e-08	3.872235e+01	1.647344e+03
2.090000e-06	5.253176e-06	2.498535e-08	3.791889e+01	1.636060e+03
2.100000e-06	5.139941e-06	2.481642e-08	3.710154e+01	1.624333e+03
2.110000e-06	5.024864e-06	2.463983e-08	3.627087e+01	1.612255e+03
2.120000e-06	4.907857e-06	2.446557e-08	3.542629e+01	1.599901e+03
2.130000e-06	4.788908e-06	2.424957e-08	3.456768e+01	1.587306e+03
2.140000e-06	4.668035e-06	2.405561e-08	3.369518e+01	1.574456e+03
2.150000e-06	4.545470e-06	2.385591e-08	3.281047e+01	1.561284e+03
2.160000e-06	4.421196e-06	2.365262e-08	3.191343e+01	1.547674e+03
2.170000e-06	4.295309e-06	2.341269e-08	3.100474e+01	1.533471e+03
2.180000e-06	4.167956e-06	2.317793e-08	3.008548e+01	1.518506e+03
2.190000e-06	4.038983e-06	2.293013e-08	2.915451e+01	1.502612e+03
2.200000e-06	3.908541e-06	2.267281e-08	2.821294e+01	1.485651e+03
2.210000e-06	3.776634e-06	2.239790e-08	2.726080e+01	1.467529e+03
2.220000e-06	3.643263e-06	2.211616e-08	2.629809e+01	1.448208e+03
2.230000e-06	3.508645e-06	2.181701e-08	2.532639e+01	1.427708e+03
2.240000e-06	3.372765e-06	2.149549e-08	2.434556e+01	1.406094e+03
2.250000e-06	3.235499e-06	2.116831e-08	2.335474e+01	1.383456e+03
2.260000e-06	3.096966e-06	2.082379e-08	2.235477e+01	1.359884e+03
2.270000e-06	2.957242e-06	2.046443e-08	2.134620e+01	1.335433e+03
2.280000e-06	2.816357e-06	2.007446e-08	2.032925e+01	1.310099e+03
2.290000e-06	2.674481e-06	1.966594e-08	1.930515e+01	1.283790e+03
2.300000e-06	2.531652e-06	1.923575e-08	1.827417e+01	1.256315e+03
2.310000e-06	2.387903e-06	1.878237e-08	1.723655e+01	1.227382e+03
2.320000e-06	2.243251e-06	1.829310e-08	1.619241e+01	1.196615e+03
2.330000e-06	2.097764e-06	1.776803e-08	1.514225e+01	1.163577e+03
2.340000e-06	1.951613e-06	1.720962e-08	1.408729e+01	1.127810e+03
2.350000e-06	1.804879e-06	1.661308e-08	1.302812e+01	1.088873e+03
2.360000e-06	1.657546e-06	1.597490e-08	1.196463e+01	1.046391e+03
2.370000e-06	1.509603e-06	1.528864e-08	1.089674e+01	1.000084e+03
2.380000e-06	1.361146e-06	1.455155e-08	9.825136e+00	9.497983e+02
2.390000e-06	1.212191e-06	1.375178e-08	8.749934e+00	8.955142e+02
2.400000e-06	1.062792e-06	1.288452e-08	7.671530e+00	8.373417e+02
2.410000e-06	9.130973e-07	1.195765e-08	6.590992e+00	7.754999e+02
2.420000e-06	7.631771e-07	1.097203e-08	5.508826e+00	7.102836e+02
2.430000e-06	6.130551e-07	9.921921e-09	4.425203e+00	6.420229e+02
2.440000e-06	4.627348e-07	8.808354e-09	3.340149e+00	5.710408e+02
2.450000e-06	3.122593e-07	7.644270e-09	2.253975e+00	4.976171e+02
2.460000e-06	1.616632e-07	6.443249e-09	1.166930e+00	4.219620e+02
2.470000e-06	1.100174e-08	5.217833e-09	7.941362e-02	3.442063e+02
2.480000e-06	-1.396776e-07	3.983791e-09	-1.008232e+00	2.644087e+02
2.490000e-06	-2.903413e-07	2.748083e-09	-2.095765e+00	1.825800e+02
2.500000e-06	-4.409207e-07	1.503406e-09	-3.182689e+00	9.872200e+01
2.510000e-06	-5.913525e-07	2.432739e-10	-4.268548e+00	1.287479e+01
2.520000e-06	-7.416136e-07	-1.039607e-09	-5.353175e+00	-7.483426e+01
2.530000e-06	-8.916813e-07	-2.356747e-09	-6.436406e+00	-1.641468e+02
2.540000e-06	-1.041484e-06	-3.720111e-09	-7.517727e+00	-2.546428e+02
2.550000e-06	-1.190983e-06	-5.125881e-09	-8.596848e+00	-3.457278e+02
2.560000e-06	-1.340109e-06	-6.555878e-09	-9.673285e+00	-4.366426e+02
2.570000e-06	-1.488772e-06	-7.989447e-09	-1.074638e+01	-5.264938e+02
2.580000e-06	-1.636808e-06	-9.392570e-09	-1.181494e+01	-6.143053e+02
2.590000e-06	-1.784130e-06	-1.073059e-08	-1.287835e+01	-6.990837e+02
2.600000e-06	-1.930794e-06	-1.198010e-08	-1.393702e+01	-7.798904e+02
2.610000e-06	-2.076813e-06	-1.313120e-08	-1.499102e+01	-8.559139e+02
2.620000e-06	-2.222141e-06	-1.418063e-08	-1.604004e+01	-9.265311e+02
2.630000e-06	-2.366640e-06	-1.513097e-08	-1.708307e+01	-9.913532e+02
2.640000e-06	-2.510099e-06	-1.599415e-08	-1.811860e+01	-1.050248e+03
2.650000e-06	-2.652469e-06	-1.678113e-08	-1.914626e+01	-1.103341e+03
2.660000e-06	-2.793818e-06	-1.749839e-08	-2.016656e+01	-1.150984e+03
2.670000e-06	-2.934036e-06	-1.815601e-08	-2.117870e+01	-1.193717e+03
2.680000e-06	-3.073009e-06	-1.876301e-08	-2.218184e+01	-1.232199e+03
2.690000e-06	-3.210787e-06	-1.932592e-08	-2.317636e+01	-1.267145e+03
2.700000e-06	-3.347332e-06	-1.984792e-08	-2.416198e+01	-1.299256e+03
2.710000e-06	-3.482591e-06	-2.033012e-08	-2.513832e+01	-1.329160e+03
2.720000e-06	-3.616622e-06	-2.077961e-08	-2.610579e+01	-1.357367e+03
2.730000e-06	-3.749387e-06	-2.119654e-08	-2.706412e+01	-1.384243e+03
2.740000e-06	-3.880766e-06	-2.158712e-08	-2.801246e+01	-1.410006e+03
2.750000e-06	-4.010831e-06	-2.195632e-08	-2.895130e+01	-1.434740e+03
2.760000e-06	-4.139591e-06	-2.230153e-08	-2.988073e+01	-1.458420e+03
2.770000e-06	-4.266894e-06	-2.262611e-08	-3.079964e+01	-1.480956e+03
2.780000e-06	-4.392782e-06	-2.293476e-08	-3.170833e+01	-1.502231e+03
2.790000e-06	-4.517174e-06	-2.322853e-08	-3.260623e+01	-1.522144e+03
2.800000e-06	-4.639905e-06	-2.350478e-08	-3.349213e+01	-1.540639e+03
2.810000e-06	-4.760961e-06	-2.376438e-08	-3.436595e+01	-1.557728e+03
2.820000e-06	-4.880237e-06	-2.401048e-08	-3.522692e+01	-1.573493e+03
2.830000e-06	-4.997630e-06	-2.424526e-08	-3.607429e+01	-1.588082e+03
2.840000e-06	-5.113031e-06	-2.446868e-08	-3.690729e+01	-1.601686e+03
2.850000e-06	-5.226316e-06	-2.468127e-08	-3.772501e+01	-1.614519e+03
2.860000e-06	-5.337522e-06	-2.488341e-08	-3.852773e+01	-1.626785e+03
2.870000e-06	-5.446777e-06	-2.507332e-08	-3.931636e+01	-1.638654e+03
2.880000e-06	-5.554143e-06	-2.525297e-08	-4.009136e+01	-1.650241e+03
2.890000e-06	-5.659594e-06	-2.542595e-08	-4.085254e+01	-1.661598e+03
2.900000e-06	-5.762963e-06	-2.558947e-08	-4.159868e+01	-1.672713e+03
2.910000e-06	-5.864103e-06	-2.574304e-08	-4.232874e+01	-1.683520e+03
2.920000e-06	-5.963153e-06	-2.588912e-08	-4.304371e+01	-1.693918e+03
2.930000e-06	-6.060142e-06	-2.602834e-08	-4.374380e+01	-1.703793e+03
2.940000e-06	-6.154887e-06	-2.615949e-08	-4.442770e+01	-1.713042e+03
