# Temperatura_=_64.18
# Concentracion g/m^3_=_28370.0
# C_Vs_to_Am_M_A/Vsm_=_65563218390.804596
# pendiente_HvsI_1/m_=_3716.3
# ordenada_HvsI_A/m_=_1297.0
# frecuencia_Hz_=_302512.37678707513

Tiempo_(s)	Campo_(V.s)	Magnetizacion_(V.s)	Campo_(kA/m)	Magnetizacion_(A/m)
0.000000e+00	-7.895286e-06	-2.646119e-08	-5.684622e+01	-1.732489e+03
1.000000e-08	-7.891343e-06	-2.645533e-08	-5.681783e+01	-1.731663e+03
2.000000e-08	-7.884843e-06	-2.644447e-08	-5.677104e+01	-1.730833e+03
3.000000e-08	-7.875684e-06	-2.643238e-08	-5.670509e+01	-1.730042e+03
4.000000e-08	-7.863655e-06	-2.641889e-08	-5.661848e+01	-1.729300e+03
5.000000e-08	-7.848699e-06	-2.640302e-08	-5.651079e+01	-1.728588e+03
6.000000e-08	-7.831077e-06	-2.638433e-08	-5.638392e+01	-1.727855e+03
7.000000e-08	-7.811175e-06	-2.636191e-08	-5.624062e+01	-1.727032e+03
8.000000e-08	-7.788951e-06	-2.634486e-08	-5.608061e+01	-1.726042e+03
9.000000e-08	-7.763860e-06	-2.636518e-08	-5.589996e+01	-1.724815e+03
1.000000e-07	-7.735585e-06	-2.634003e-08	-5.569638e+01	-1.723299e+03
1.100000e-07	-7.704360e-06	-2.627519e-08	-5.547156e+01	-1.721469e+03
1.200000e-07	-7.670324e-06	-2.623403e-08	-5.522650e+01	-1.719331e+03
1.300000e-07	-7.633642e-06	-2.620231e-08	-5.496239e+01	-1.716921e+03
1.400000e-07	-7.594659e-06	-2.615523e-08	-5.468171e+01	-1.714301e+03
1.500000e-07	-7.553383e-06	-2.610651e-08	-5.438452e+01	-1.711542e+03
1.600000e-07	-7.509718e-06	-2.611924e-08	-5.407013e+01	-1.708716e+03
1.700000e-07	-7.463544e-06	-2.605703e-08	-5.373768e+01	-1.705880e+03
1.800000e-07	-7.414608e-06	-2.596758e-08	-5.338534e+01	-1.703066e+03
1.900000e-07	-7.362760e-06	-2.596374e-08	-5.301203e+01	-1.700272e+03
2.000000e-07	-7.308091e-06	-2.590465e-08	-5.261841e+01	-1.697464e+03
2.100000e-07	-7.250730e-06	-2.584755e-08	-5.220541e+01	-1.694576e+03
2.200000e-07	-7.190695e-06	-2.579264e-08	-5.177315e+01	-1.691523e+03
2.300000e-07	-7.128085e-06	-2.571763e-08	-5.132236e+01	-1.688213e+03
2.400000e-07	-7.062801e-06	-2.568627e-08	-5.085231e+01	-1.684561e+03
2.500000e-07	-6.994831e-06	-2.561976e-08	-5.036293e+01	-1.680504e+03
2.600000e-07	-6.924236e-06	-2.554273e-08	-4.985465e+01	-1.676010e+03
2.700000e-07	-6.850829e-06	-2.546409e-08	-4.932611e+01	-1.671082e+03
2.800000e-07	-6.774687e-06	-2.540030e-08	-4.877789e+01	-1.665762e+03
2.900000e-07	-6.695851e-06	-2.531313e-08	-4.821027e+01	-1.660115e+03
3.000000e-07	-6.614324e-06	-2.520479e-08	-4.762327e+01	-1.654225e+03
3.100000e-07	-6.530483e-06	-2.514497e-08	-4.701962e+01	-1.648177e+03
3.200000e-07	-6.444454e-06	-2.506935e-08	-4.640021e+01	-1.642040e+03
3.300000e-07	-6.356118e-06	-2.496516e-08	-4.576418e+01	-1.635853e+03
3.400000e-07	-6.265416e-06	-2.484445e-08	-4.511112e+01	-1.629620e+03
3.500000e-07	-6.172511e-06	-2.476034e-08	-4.444221e+01	-1.623304e+03
3.600000e-07	-6.077468e-06	-2.467119e-08	-4.375790e+01	-1.616830e+03
3.700000e-07	-5.980075e-06	-2.453920e-08	-4.305667e+01	-1.610098e+03
3.800000e-07	-5.880441e-06	-2.441868e-08	-4.233930e+01	-1.602996e+03
3.900000e-07	-5.778781e-06	-2.430427e-08	-4.160734e+01	-1.595417e+03
4.000000e-07	-5.675063e-06	-2.417366e-08	-4.086058e+01	-1.587275e+03
4.100000e-07	-5.569332e-06	-2.402799e-08	-4.009931e+01	-1.578521e+03
4.200000e-07	-5.461644e-06	-2.390380e-08	-3.932395e+01	-1.569145e+03
4.300000e-07	-5.352074e-06	-2.376494e-08	-3.853505e+01	-1.559180e+03
4.400000e-07	-5.240580e-06	-2.360168e-08	-3.773229e+01	-1.548692e+03
4.500000e-07	-5.127071e-06	-2.344049e-08	-3.691502e+01	-1.537770e+03
4.600000e-07	-5.011562e-06	-2.328490e-08	-3.608336e+01	-1.526504e+03
4.700000e-07	-4.894152e-06	-2.311603e-08	-3.523800e+01	-1.514967e+03
4.800000e-07	-4.774929e-06	-2.293504e-08	-3.437959e+01	-1.503198e+03
4.900000e-07	-4.653966e-06	-2.275546e-08	-3.350866e+01	-1.491188e+03
5.000000e-07	-4.531265e-06	-2.255743e-08	-3.262520e+01	-1.478878e+03
5.100000e-07	-4.406857e-06	-2.233928e-08	-3.172947e+01	-1.466158e+03
5.200000e-07	-4.280989e-06	-2.211874e-08	-3.082321e+01	-1.452883e+03
5.300000e-07	-4.153583e-06	-2.190301e-08	-2.990589e+01	-1.438886e+03
5.400000e-07	-4.024599e-06	-2.166668e-08	-2.897720e+01	-1.424004e+03
5.500000e-07	-3.894115e-06	-2.141305e-08	-2.803771e+01	-1.408098e+03
5.600000e-07	-3.762098e-06	-2.115222e-08	-2.708719e+01	-1.391073e+03
5.700000e-07	-3.628640e-06	-2.088041e-08	-2.612628e+01	-1.372885e+03
5.800000e-07	-3.493799e-06	-2.059225e-08	-2.515542e+01	-1.353547e+03
5.900000e-07	-3.357622e-06	-2.029141e-08	-2.417495e+01	-1.333118e+03
6.000000e-07	-3.220168e-06	-1.998257e-08	-2.318528e+01	-1.311687e+03
6.100000e-07	-3.081450e-06	-1.965463e-08	-2.218650e+01	-1.289339e+03
6.200000e-07	-2.941377e-06	-1.930347e-08	-2.117797e+01	-1.266135e+03
6.300000e-07	-2.799982e-06	-1.893128e-08	-2.015993e+01	-1.242076e+03
6.400000e-07	-2.657467e-06	-1.854358e-08	-1.913382e+01	-1.217079e+03
6.500000e-07	-2.513931e-06	-1.813292e-08	-1.810036e+01	-1.190967e+03
6.600000e-07	-2.369490e-06	-1.769391e-08	-1.706038e+01	-1.163463e+03
6.700000e-07	-2.224289e-06	-1.722616e-08	-1.601493e+01	-1.134205e+03
6.800000e-07	-2.078366e-06	-1.672905e-08	-1.496428e+01	-1.102770e+03
6.900000e-07	-1.931715e-06	-1.619869e-08	-1.390839e+01	-1.068712e+03
7.000000e-07	-1.784451e-06	-1.562641e-08	-1.284808e+01	-1.031602e+03
7.100000e-07	-1.636640e-06	-1.501109e-08	-1.178385e+01	-9.910700e+02
7.200000e-07	-1.488291e-06	-1.435220e-08	-1.071572e+01	-9.468446e+02
7.300000e-07	-1.339488e-06	-1.364649e-08	-9.644340e+00	-8.987769e+02
7.400000e-07	-1.190336e-06	-1.288242e-08	-8.570444e+00	-8.468542e+02
7.500000e-07	-1.040884e-06	-1.205696e-08	-7.494386e+00	-7.911962e+02
7.600000e-07	-8.911089e-07	-1.117206e-08	-6.416003e+00	-7.320347e+02
7.700000e-07	-7.409722e-07	-1.022246e-08	-5.335015e+00	-6.696812e+02
7.800000e-07	-5.905505e-07	-9.210165e-09	-4.251976e+00	-6.044863e+02
7.900000e-07	-4.398775e-07	-8.146400e-09	-3.167127e+00	-5.367960e+02
8.000000e-07	-2.889961e-07	-7.041945e-09	-2.080778e+00	-4.669127e+02
8.100000e-07	-1.379392e-07	-5.905791e-09	-9.931649e-01	-3.950670e+02
8.200000e-07	1.328043e-08	-4.753018e-09	9.561934e-02	-3.214036e+02
8.300000e-07	1.645195e-07	-3.596021e-09	1.184544e+00	-2.459854e+02
8.400000e-07	3.156431e-07	-2.437182e-09	2.272637e+00	-1.688147e+02
8.500000e-07	4.666179e-07	-1.271368e-09	3.359658e+00	-8.986965e+01
8.600000e-07	6.174672e-07	-9.247671e-11	4.445777e+00	-9.150595e+00
8.700000e-07	7.681267e-07	1.110959e-09	5.530528e+00	7.327051e+01
8.800000e-07	9.185584e-07	2.351385e-09	6.613640e+00	1.572045e+02
8.900000e-07	1.068692e-06	3.633450e-09	7.694607e+00	2.423106e+02
9.000000e-07	1.218429e-06	4.951395e-09	8.772715e+00	3.280795e+02
9.100000e-07	1.367739e-06	6.291392e-09	9.847749e+00	4.138369e+02
9.200000e-07	1.516569e-06	7.635902e-09	1.091933e+01	4.987688e+02
9.300000e-07	1.664864e-06	8.954300e-09	1.198706e+01	5.819674e+02
9.400000e-07	1.812590e-06	1.021481e-08	1.305068e+01	6.624920e+02
9.500000e-07	1.959635e-06	1.139549e-08	1.410941e+01	7.394378e+02
9.600000e-07	2.106001e-06	1.248375e-08	1.516325e+01	8.120068e+02
9.700000e-07	2.251634e-06	1.347589e-08	1.621181e+01	8.795692e+02
9.800000e-07	2.396418e-06	1.437701e-08	1.725426e+01	9.417114e+02
9.900000e-07	2.540339e-06	1.519969e-08	1.829050e+01	9.982620e+02
1.000000e-06	2.683275e-06	1.594853e-08	1.931963e+01	1.049295e+03
1.010000e-06	2.825072e-06	1.662927e-08	2.034058e+01	1.095110e+03
1.020000e-06	2.965672e-06	1.725042e-08	2.135290e+01	1.136190e+03
1.030000e-06	3.105084e-06	1.782286e-08	2.235667e+01	1.173145e+03
1.040000e-06	3.243286e-06	1.835265e-08	2.335173e+01	1.206648e+03
1.050000e-06	3.380272e-06	1.884368e-08	2.433803e+01	1.237367e+03
1.060000e-06	3.515961e-06	1.930179e-08	2.531499e+01	1.265910e+03
1.070000e-06	3.650362e-06	1.972970e-08	2.628268e+01	1.292779e+03
1.080000e-06	3.783453e-06	2.012805e-08	2.724094e+01	1.318340e+03
1.090000e-06	3.915138e-06	2.050017e-08	2.818907e+01	1.342820e+03
1.100000e-06	4.045465e-06	2.084887e-08	2.912743e+01	1.366312e+03
1.110000e-06	4.174389e-06	2.117470e-08	3.005569e+01	1.388805e+03
1.120000e-06	4.301790e-06	2.148291e-08	3.097298e+01	1.410220e+03
1.130000e-06	4.427643e-06	2.177434e-08	3.187912e+01	1.430447e+03
1.140000e-06	4.551992e-06	2.204805e-08	3.277444e+01	1.449389e+03
1.150000e-06	4.674841e-06	2.230569e-08	3.365896e+01	1.466987e+03
1.160000e-06	4.796072e-06	2.255007e-08	3.453182e+01	1.483246e+03
1.170000e-06	4.915542e-06	2.278174e-08	3.539201e+01	1.498237e+03
1.180000e-06	5.033229e-06	2.300189e-08	3.623935e+01	1.512096e+03
1.190000e-06	5.149083e-06	2.321017e-08	3.707350e+01	1.525000e+03
1.200000e-06	5.262933e-06	2.340868e-08	3.789323e+01	1.537150e+03
1.210000e-06	5.374726e-06	2.359646e-08	3.869814e+01	1.548742e+03
1.220000e-06	5.484587e-06	2.377334e-08	3.948914e+01	1.559936e+03
1.230000e-06	5.592492e-06	2.394175e-08	4.026606e+01	1.570848e+03
1.240000e-06	5.698352e-06	2.410190e-08	4.102825e+01	1.581527e+03
1.250000e-06	5.802148e-06	2.425515e-08	4.177559e+01	1.591964e+03
1.260000e-06	5.903841e-06	2.440103e-08	4.250778e+01	1.602099e+03
1.270000e-06	6.003371e-06	2.453970e-08	4.322440e+01	1.611835e+03
1.280000e-06	6.100606e-06	2.467118e-08	4.392449e+01	1.621063e+03
1.290000e-06	6.195507e-06	2.479634e-08	4.460778e+01	1.629685e+03
1.300000e-06	6.288195e-06	2.491543e-08	4.527514e+01	1.637632e+03
1.310000e-06	6.378679e-06	2.502697e-08	4.592662e+01	1.644879e+03
1.320000e-06	6.466875e-06	2.513127e-08	4.656164e+01	1.651451e+03
1.330000e-06	6.552820e-06	2.522956e-08	4.718044e+01	1.657422e+03
1.340000e-06	6.636557e-06	2.532361e-08	4.778335e+01	1.662903e+03
1.350000e-06	6.717871e-06	2.541044e-08	4.836881e+01	1.668024e+03
1.360000e-06	6.796638e-06	2.549139e-08	4.893594e+01	1.672918e+03
1.370000e-06	6.872909e-06	2.556993e-08	4.948509e+01	1.677699e+03
1.380000e-06	6.946572e-06	2.564485e-08	5.001546e+01	1.682449e+03
1.390000e-06	7.017654e-06	2.571614e-08	5.052725e+01	1.687204e+03
1.400000e-06	7.086275e-06	2.578323e-08	5.102133e+01	1.691955e+03
1.410000e-06	7.152368e-06	2.584814e-08	5.149720e+01	1.696651e+03
1.420000e-06	7.215888e-06	2.590994e-08	5.195455e+01	1.701211e+03
1.430000e-06	7.276921e-06	2.596800e-08	5.239398e+01	1.705540e+03
1.440000e-06	7.335440e-06	2.602289e-08	5.281532e+01	1.709544e+03
1.450000e-06	7.391319e-06	2.607473e-08	5.321765e+01	1.713151e+03
1.460000e-06	7.444545e-06	2.612196e-08	5.360088e+01	1.716320e+03
1.470000e-06	7.494849e-06	2.616481e-08	5.396307e+01	1.719049e+03
1.480000e-06	7.542155e-06	2.620623e-08	5.430368e+01	1.721372e+03
1.490000e-06	7.586795e-06	2.624422e-08	5.462508e+01	1.723360e+03
1.500000e-06	7.628708e-06	2.627923e-08	5.492686e+01	1.725099e+03
1.510000e-06	7.667830e-06	2.631142e-08	5.520854e+01	1.726683e+03
1.520000e-06	7.704314e-06	2.634060e-08	5.547122e+01	1.728198e+03
1.530000e-06	7.738094e-06	2.636544e-08	5.571444e+01	1.729703e+03
1.540000e-06	7.769083e-06	2.638667e-08	5.593756e+01	1.731226e+03
1.550000e-06	7.797377e-06	2.640655e-08	5.614128e+01	1.732761e+03
1.560000e-06	7.822812e-06	2.642405e-08	5.632441e+01	1.734266e+03
1.570000e-06	7.845324e-06	2.643836e-08	5.648649e+01	1.735677e+03
1.580000e-06	7.865114e-06	2.645059e-08	5.662899e+01	1.736917e+03
1.590000e-06	7.882074e-06	2.646183e-08	5.675110e+01	1.737910e+03
1.600000e-06	7.896125e-06	2.647093e-08	5.685227e+01	1.738597e+03
1.610000e-06	7.907141e-06	2.647710e-08	5.693158e+01	1.738945e+03
1.620000e-06	7.915039e-06	2.648159e-08	5.698844e+01	1.738952e+03
1.630000e-06	7.920104e-06	2.648454e-08	5.702492e+01	1.738651e+03
1.640000e-06	7.922407e-06	2.648387e-08	5.704150e+01	1.738101e+03
1.650000e-06	7.921886e-06	2.648026e-08	5.703775e+01	1.737378e+03
1.660000e-06	7.918761e-06	2.647127e-08	5.701525e+01	1.736562e+03
1.670000e-06	7.913002e-06	2.646547e-08	5.697378e+01	1.735726e+03
1.680000e-06	7.904544e-06	2.645857e-08	5.691288e+01	1.734919e+03
1.690000e-06	7.893469e-06	2.644725e-08	5.683314e+01	1.734162e+03
1.700000e-06	7.879533e-06	2.643423e-08	5.673280e+01	1.733443e+03
1.710000e-06	7.862929e-06	2.642295e-08	5.661325e+01	1.732720e+03
1.720000e-06	7.844083e-06	2.641244e-08	5.647756e+01	1.731929e+03
1.730000e-06	7.822898e-06	2.636599e-08	5.632503e+01	1.730992e+03
1.740000e-06	7.798760e-06	2.629204e-08	5.615124e+01	1.729838e+03
1.750000e-06	7.771040e-06	2.628971e-08	5.595165e+01	1.728406e+03
1.760000e-06	7.739777e-06	2.629106e-08	5.572656e+01	1.726664e+03
1.770000e-06	7.705691e-06	2.626278e-08	5.548114e+01	1.724609e+03
1.780000e-06	7.669401e-06	2.625823e-08	5.521985e+01	1.722270e+03
1.790000e-06	7.630888e-06	2.626433e-08	5.494255e+01	1.719701e+03
1.800000e-06	7.590358e-06	2.616701e-08	5.465074e+01	1.716972e+03
1.810000e-06	7.547675e-06	2.612923e-08	5.434342e+01	1.714156e+03
1.820000e-06	7.502307e-06	2.614273e-08	5.401677e+01	1.711317e+03
1.830000e-06	7.454286e-06	2.605531e-08	5.367102e+01	1.708493e+03
1.840000e-06	7.403358e-06	2.606856e-08	5.330433e+01	1.705694e+03
1.850000e-06	7.349360e-06	2.598318e-08	5.291554e+01	1.702893e+03
1.860000e-06	7.292654e-06	2.593190e-08	5.250726e+01	1.700033e+03
1.870000e-06	7.233413e-06	2.593718e-08	5.208073e+01	1.697035e+03
1.880000e-06	7.171607e-06	2.581910e-08	5.163572e+01	1.693805e+03
1.890000e-06	7.106994e-06	2.579005e-08	5.117051e+01	1.690257e+03
1.900000e-06	7.039630e-06	2.570823e-08	5.068549e+01	1.686318e+03
1.910000e-06	6.969602e-06	2.564005e-08	5.018128e+01	1.681948e+03
1.920000e-06	6.896799e-06	2.558170e-08	4.965710e+01	1.677140e+03
1.930000e-06	6.821332e-06	2.549960e-08	4.911373e+01	1.671924e+03
1.940000e-06	6.743082e-06	2.547816e-08	4.855033e+01	1.666360e+03
1.950000e-06	6.662248e-06	2.535018e-08	4.796832e+01	1.660529e+03
1.960000e-06	6.578990e-06	2.525397e-08	4.736886e+01	1.654516e+03
1.970000e-06	6.493243e-06	2.516759e-08	4.675149e+01	1.648397e+03
1.980000e-06	6.405068e-06	2.509096e-08	4.611663e+01	1.642220e+03
1.990000e-06	6.314628e-06	2.500431e-08	4.546546e+01	1.636000e+03
2.000000e-06	6.222099e-06	2.488145e-08	4.479925e+01	1.629712e+03
2.010000e-06	6.127303e-06	2.479815e-08	4.411671e+01	1.623290e+03
2.020000e-06	6.030261e-06	2.467166e-08	4.341801e+01	1.616641e+03
2.030000e-06	5.931105e-06	2.455503e-08	4.270408e+01	1.609654e+03
2.040000e-06	5.829846e-06	2.444423e-08	4.197501e+01	1.602219e+03
2.050000e-06	5.726431e-06	2.433947e-08	4.123043e+01	1.594243e+03
2.060000e-06	5.621012e-06	2.419161e-08	4.047141e+01	1.585665e+03
2.070000e-06	5.513752e-06	2.403929e-08	3.969913e+01	1.576463e+03
2.080000e-06	5.404615e-06	2.390939e-08	3.891334e+01	1.566658e+03
2.090000e-06	5.293524e-06	2.376616e-08	3.811348e+01	1.556309e+03
2.100000e-06	5.180435e-06	2.361249e-08	3.729924e+01	1.545500e+03
2.110000e-06	5.065436e-06	2.344639e-08	3.647125e+01	1.534322e+03
2.120000e-06	4.948477e-06	2.328512e-08	3.562914e+01	1.522854e+03
2.130000e-06	4.829493e-06	2.309410e-08	3.477245e+01	1.511148e+03
2.140000e-06	4.708579e-06	2.290591e-08	3.390187e+01	1.499209e+03
2.150000e-06	4.586013e-06	2.272480e-08	3.301939e+01	1.486991e+03
2.160000e-06	4.461852e-06	2.253373e-08	3.212543e+01	1.474400e+03
2.170000e-06	4.336088e-06	2.231609e-08	3.121993e+01	1.461298e+03
2.180000e-06	4.208734e-06	2.209412e-08	3.030298e+01	1.447522e+03
2.190000e-06	4.079770e-06	2.187057e-08	2.937443e+01	1.432907e+03
2.200000e-06	3.949354e-06	2.163221e-08	2.843543e+01	1.417304e+03
2.210000e-06	3.817502e-06	2.137913e-08	2.748610e+01	1.400603e+03
2.220000e-06	3.684201e-06	2.111512e-08	2.652633e+01	1.382746e+03
2.230000e-06	3.549584e-06	2.083667e-08	2.555708e+01	1.363730e+03
2.240000e-06	3.413610e-06	2.053532e-08	2.457807e+01	1.343603e+03
2.250000e-06	3.276294e-06	2.022654e-08	2.358939e+01	1.322447e+03
2.260000e-06	3.137775e-06	1.990832e-08	2.259205e+01	1.300351e+03
2.270000e-06	2.998018e-06	1.957464e-08	2.158579e+01	1.277387e+03
2.280000e-06	2.857005e-06	1.921378e-08	2.057050e+01	1.253574e+03
2.290000e-06	2.714890e-06	1.883043e-08	1.954726e+01	1.228857e+03
2.300000e-06	2.571777e-06	1.842787e-08	1.851685e+01	1.203085e+03
2.310000e-06	2.427691e-06	1.800236e-08	1.747943e+01	1.176010e+03
2.320000e-06	2.282725e-06	1.754713e-08	1.643567e+01	1.147292e+03
2.330000e-06	2.137029e-06	1.706059e-08	1.538666e+01	1.116523e+03
2.340000e-06	1.990735e-06	1.654022e-08	1.433333e+01	1.083257e+03
2.350000e-06	1.843861e-06	1.598179e-08	1.327584e+01	1.047058e+03
2.360000e-06	1.696393e-06	1.538086e-08	1.221406e+01	1.007535e+03
2.370000e-06	1.548257e-06	1.473838e-08	1.114748e+01	9.643835e+02
2.380000e-06	1.399503e-06	1.405038e-08	1.007645e+01	9.174188e+02
2.390000e-06	1.250333e-06	1.330508e-08	9.002423e+00	8.665889e+02
2.400000e-06	1.100800e-06	1.249669e-08	7.925782e+00	8.119769e+02
2.410000e-06	9.508880e-07	1.162706e-08	6.846413e+00	7.537852e+02
2.420000e-06	8.006587e-07	1.070015e-08	5.764760e+00	6.923068e+02
2.430000e-06	6.501926e-07	9.711720e-09	4.681401e+00	6.278854e+02
2.440000e-06	4.995069e-07	8.662891e-09	3.596460e+00	5.608726e+02
2.450000e-06	3.486054e-07	7.567485e-09	2.509966e+00	4.915868e+02
2.460000e-06	1.975590e-07	6.439204e-09	1.422429e+00	4.202811e+02
2.470000e-06	4.644814e-08	5.287401e-09	3.344276e-01	3.471253e+02
2.480000e-06	-1.046572e-07	4.123552e-09	-7.535340e-01	2.722041e+02
2.490000e-06	-2.557609e-07	2.956697e-09	-1.841484e+00	1.955340e+02
2.500000e-06	-4.068272e-07	1.783910e-09	-2.929165e+00	1.170957e+02
2.510000e-06	-5.577717e-07	5.984407e-10	-4.015968e+00	3.687820e+01
2.520000e-06	-7.085383e-07	-6.047487e-10	-5.101491e+00	-4.507207e+01
2.530000e-06	-8.590718e-07	-1.835156e-09	-6.185335e+00	-1.286035e+02
2.540000e-06	-1.009317e-06	-3.104353e-09	-7.267106e+00	-2.134213e+02
2.550000e-06	-1.159238e-06	-4.414916e-09	-8.346539e+00	-2.990648e+02
2.560000e-06	-1.308823e-06	-5.754897e-09	-9.423554e+00	-3.849051e+02
2.570000e-06	-1.457974e-06	-7.105305e-09	-1.049744e+01	-4.701644e+02
2.580000e-06	-1.606596e-06	-8.441077e-09	-1.156752e+01	-5.539562e+02
2.590000e-06	-1.754537e-06	-9.730898e-09	-1.263270e+01	-6.353420e+02
2.600000e-06	-1.901725e-06	-1.094871e-08	-1.369246e+01	-7.133998e+02
2.610000e-06	-2.048234e-06	-1.207907e-08	-1.474733e+01	-7.872940e+02
2.620000e-06	-2.194016e-06	-1.311434e-08	-1.579696e+01	-8.563413e+02
2.630000e-06	-2.339007e-06	-1.405493e-08	-1.684090e+01	-9.200625e+02
2.640000e-06	-2.483054e-06	-1.490669e-08	-1.787804e+01	-9.782157e+02
2.650000e-06	-2.626072e-06	-1.568086e-08	-1.890777e+01	-1.030806e+03
2.660000e-06	-2.768104e-06	-1.638843e-08	-1.993041e+01	-1.078072e+03
2.670000e-06	-2.909046e-06	-1.703600e-08	-2.094520e+01	-1.120449e+03
2.680000e-06	-3.048745e-06	-1.763163e-08	-2.195103e+01	-1.158517e+03
2.690000e-06	-3.187167e-06	-1.818129e-08	-2.294767e+01	-1.192939e+03
2.700000e-06	-3.324327e-06	-1.868756e-08	-2.393523e+01	-1.224389e+03
2.710000e-06	-3.460278e-06	-1.915683e-08	-2.491408e+01	-1.253500e+03
2.720000e-06	-3.595054e-06	-1.959410e-08	-2.588446e+01	-1.280806e+03
2.730000e-06	-3.728524e-06	-2.000152e-08	-2.684545e+01	-1.306713e+03
2.740000e-06	-3.860601e-06	-2.038478e-08	-2.779641e+01	-1.331489e+03
2.750000e-06	-3.991324e-06	-2.074406e-08	-2.873761e+01	-1.355262e+03
2.760000e-06	-4.120713e-06	-2.107818e-08	-2.966922e+01	-1.378049e+03
2.770000e-06	-4.248630e-06	-2.139180e-08	-3.059022e+01	-1.399784e+03
2.780000e-06	-4.375114e-06	-2.168941e-08	-3.150091e+01	-1.420364e+03
2.790000e-06	-4.500147e-06	-2.197291e-08	-3.240115e+01	-1.439684e+03
2.800000e-06	-4.623537e-06	-2.223893e-08	-3.328957e+01	-1.457670e+03
2.810000e-06	-4.745264e-06	-2.248935e-08	-3.416600e+01	-1.474310e+03
2.820000e-06	-4.865311e-06	-2.272787e-08	-3.503034e+01	-1.489654e+03
2.830000e-06	-4.983466e-06	-2.295613e-08	-3.588106e+01	-1.503821e+03
2.840000e-06	-5.099552e-06	-2.317385e-08	-3.671688e+01	-1.516980e+03
2.850000e-06	-5.213569e-06	-2.337813e-08	-3.753780e+01	-1.529327e+03
2.860000e-06	-5.325552e-06	-2.357062e-08	-3.834409e+01	-1.541062e+03
2.870000e-06	-5.435519e-06	-2.375047e-08	-3.913585e+01	-1.552358e+03
2.880000e-06	-5.543550e-06	-2.392012e-08	-3.991368e+01	-1.563344e+03
2.890000e-06	-5.649657e-06	-2.408303e-08	-4.067765e+01	-1.574090e+03
2.900000e-06	-5.753766e-06	-2.423952e-08	-4.142724e+01	-1.584603e+03
2.910000e-06	-5.855776e-06	-2.438900e-08	-4.216171e+01	-1.594835e+03
2.920000e-06	-5.955586e-06	-2.453040e-08	-4.288035e+01	-1.604698e+03
2.930000e-06	-6.053292e-06	-2.466439e-08	-4.358383e+01	-1.614084e+03
2.940000e-06	-6.148878e-06	-2.478943e-08	-4.427205e+01	-1.622890e+03
