# Temperatura_=_81.29
# Concentracion g/m^3_=_28370.0
# C_Vs_to_Am_M_A/Vsm_=_65563218390.804596
# pendiente_HvsI_1/m_=_3716.3
# ordenada_HvsI_A/m_=_1297.0
# frecuencia_Hz_=_302510.0643348839

Tiempo_(s)	Campo_(V.s)	Magnetizacion_(V.s)	Campo_(kA/m)	Magnetizacion_(A/m)
0.000000e+00	-7.863392e-06	-2.926400e-08	-5.684085e+01	-1.915986e+03
1.000000e-08	-7.859215e-06	-2.925460e-08	-5.681065e+01	-1.915115e+03
2.000000e-08	-7.852545e-06	-2.924006e-08	-5.676244e+01	-1.914237e+03
3.000000e-08	-7.843242e-06	-2.922612e-08	-5.669520e+01	-1.913385e+03
4.000000e-08	-7.831088e-06	-2.921053e-08	-5.660734e+01	-1.912557e+03
5.000000e-08	-7.815954e-06	-2.919137e-08	-5.649794e+01	-1.911718e+03
6.000000e-08	-7.798174e-06	-2.916798e-08	-5.636942e+01	-1.910809e+03
7.000000e-08	-7.778225e-06	-2.913667e-08	-5.622522e+01	-1.909755e+03
8.000000e-08	-7.755928e-06	-2.911720e-08	-5.606404e+01	-1.908479e+03
9.000000e-08	-7.730664e-06	-2.915122e-08	-5.588142e+01	-1.906917e+03
1.000000e-07	-7.702217e-06	-2.911288e-08	-5.567579e+01	-1.905026e+03
1.100000e-07	-7.670903e-06	-2.903191e-08	-5.544943e+01	-1.902796e+03
1.200000e-07	-7.636824e-06	-2.899419e-08	-5.520309e+01	-1.900250e+03
1.300000e-07	-7.600156e-06	-2.896305e-08	-5.493803e+01	-1.897437e+03
1.400000e-07	-7.561234e-06	-2.889511e-08	-5.465669e+01	-1.894428e+03
1.500000e-07	-7.520085e-06	-2.881941e-08	-5.435924e+01	-1.891301e+03
1.600000e-07	-7.476487e-06	-2.886206e-08	-5.404409e+01	-1.888122e+03
1.700000e-07	-7.430299e-06	-2.877766e-08	-5.371022e+01	-1.884942e+03
1.800000e-07	-7.381452e-06	-2.865816e-08	-5.335713e+01	-1.881775e+03
1.900000e-07	-7.329657e-06	-2.868646e-08	-5.298273e+01	-1.878603e+03
2.000000e-07	-7.274986e-06	-2.860694e-08	-5.258753e+01	-1.875370e+03
2.100000e-07	-7.217653e-06	-2.855311e-08	-5.217310e+01	-1.871994e+03
2.200000e-07	-7.157663e-06	-2.849597e-08	-5.173946e+01	-1.868375e+03
2.300000e-07	-7.095122e-06	-2.839204e-08	-5.128737e+01	-1.864415e+03
2.400000e-07	-7.029962e-06	-2.834545e-08	-5.081636e+01	-1.860028e+03
2.500000e-07	-6.962125e-06	-2.826021e-08	-5.032601e+01	-1.855159e+03
2.600000e-07	-6.891638e-06	-2.818108e-08	-4.981649e+01	-1.849790e+03
2.700000e-07	-6.818409e-06	-2.807816e-08	-4.928715e+01	-1.843940e+03
2.800000e-07	-6.742476e-06	-2.801319e-08	-4.873826e+01	-1.837669e+03
2.900000e-07	-6.663742e-06	-2.791786e-08	-4.816913e+01	-1.831061e+03
3.000000e-07	-6.582254e-06	-2.778133e-08	-4.758009e+01	-1.824209e+03
3.100000e-07	-6.498539e-06	-2.771287e-08	-4.697495e+01	-1.817206e+03
3.200000e-07	-6.412735e-06	-2.762631e-08	-4.635472e+01	-1.810118e+03
3.300000e-07	-6.324655e-06	-2.750870e-08	-4.571802e+01	-1.802978e+03
3.400000e-07	-6.234177e-06	-2.735961e-08	-4.506400e+01	-1.795775e+03
3.500000e-07	-6.141475e-06	-2.726177e-08	-4.439390e+01	-1.788455e+03
3.600000e-07	-6.046637e-06	-2.715827e-08	-4.370836e+01	-1.780927e+03
3.700000e-07	-5.949488e-06	-2.701070e-08	-4.300611e+01	-1.773076e+03
3.800000e-07	-5.850135e-06	-2.687994e-08	-4.228794e+01	-1.764779e+03
3.900000e-07	-5.748761e-06	-2.674897e-08	-4.155515e+01	-1.755926e+03
4.000000e-07	-5.645335e-06	-2.659908e-08	-4.080754e+01	-1.746433e+03
4.100000e-07	-5.539878e-06	-2.642531e-08	-4.004523e+01	-1.736261e+03
4.200000e-07	-5.432499e-06	-2.627899e-08	-3.926904e+01	-1.725413e+03
4.300000e-07	-5.323201e-06	-2.611547e-08	-3.847897e+01	-1.713938e+03
4.400000e-07	-5.211987e-06	-2.593008e-08	-3.767506e+01	-1.701918e+03
4.500000e-07	-5.098776e-06	-2.574724e-08	-3.685671e+01	-1.689451e+03
4.600000e-07	-4.983576e-06	-2.557021e-08	-3.602398e+01	-1.676634e+03
4.700000e-07	-4.866525e-06	-2.537462e-08	-3.517787e+01	-1.663537e+03
4.800000e-07	-4.747700e-06	-2.516629e-08	-3.431894e+01	-1.650192e+03
4.900000e-07	-4.627158e-06	-2.496295e-08	-3.344760e+01	-1.636576e+03
5.000000e-07	-4.504884e-06	-2.473857e-08	-3.256374e+01	-1.622609e+03
5.100000e-07	-4.380921e-06	-2.449599e-08	-3.166766e+01	-1.608164e+03
5.200000e-07	-4.255367e-06	-2.424730e-08	-3.076009e+01	-1.593077e+03
5.300000e-07	-4.128302e-06	-2.400030e-08	-2.984160e+01	-1.577170e+03
5.400000e-07	-3.999742e-06	-2.372939e-08	-2.891230e+01	-1.560272e+03
5.500000e-07	-3.869633e-06	-2.344503e-08	-2.797180e+01	-1.542246e+03
5.600000e-07	-3.737995e-06	-2.315440e-08	-2.702025e+01	-1.523004e+03
5.700000e-07	-3.605005e-06	-2.285234e-08	-2.605892e+01	-1.502517e+03
5.800000e-07	-3.470686e-06	-2.253311e-08	-2.508799e+01	-1.480813e+03
5.900000e-07	-3.335049e-06	-2.219742e-08	-2.410754e+01	-1.457966e+03
6.000000e-07	-3.198122e-06	-2.184934e-08	-2.311776e+01	-1.434071e+03
6.100000e-07	-3.059918e-06	-2.148000e-08	-2.211874e+01	-1.409218e+03
6.200000e-07	-2.920384e-06	-2.108995e-08	-2.111011e+01	-1.383459e+03
6.300000e-07	-2.779534e-06	-2.067694e-08	-2.009198e+01	-1.356775e+03
6.400000e-07	-2.637569e-06	-2.024501e-08	-1.906577e+01	-1.329056e+03
6.500000e-07	-2.494538e-06	-1.978900e-08	-1.803187e+01	-1.300090e+03
6.600000e-07	-2.350539e-06	-1.930306e-08	-1.699096e+01	-1.269560e+03
6.700000e-07	-2.205740e-06	-1.878438e-08	-1.594428e+01	-1.237065e+03
6.800000e-07	-2.060194e-06	-1.823244e-08	-1.489219e+01	-1.202150e+03
6.900000e-07	-1.913947e-06	-1.764681e-08	-1.383504e+01	-1.164339e+03
7.000000e-07	-1.767134e-06	-1.701678e-08	-1.277380e+01	-1.123187e+03
7.100000e-07	-1.619807e-06	-1.633980e-08	-1.170884e+01	-1.078317e+03
7.200000e-07	-1.472041e-06	-1.561302e-08	-1.064071e+01	-1.029457e+03
7.300000e-07	-1.323821e-06	-1.483085e-08	-9.569292e+00	-9.764669e+02
7.400000e-07	-1.175136e-06	-1.398587e-08	-8.494519e+00	-9.193417e+02
7.500000e-07	-1.026087e-06	-1.307838e-08	-7.417112e+00	-8.582075e+02
7.600000e-07	-8.767043e-07	-1.210626e-08	-6.337292e+00	-7.932961e+02
7.700000e-07	-7.270334e-07	-1.106315e-08	-5.255390e+00	-7.249096e+02
7.800000e-07	-5.771003e-07	-9.951862e-09	-4.171593e+00	-6.533785e+02
7.900000e-07	-4.269777e-07	-8.782415e-09	-3.086426e+00	-5.790197e+02
8.000000e-07	-2.767214e-07	-7.567906e-09	-2.000292e+00	-5.021009e+02
8.100000e-07	-1.262957e-07	-6.314951e-09	-9.129335e-01	-4.228173e+02
8.200000e-07	2.423084e-08	-5.038798e-09	1.751536e-01	-3.412854e+02
8.300000e-07	1.747421e-07	-3.754407e-09	1.263130e+00	-2.575542e+02
8.400000e-07	3.251952e-07	-2.466651e-09	2.350687e+00	-1.716336e+02
8.500000e-07	4.755983e-07	-1.169535e-09	3.437882e+00	-8.353688e+01
8.600000e-07	6.258718e-07	1.446890e-10	4.524140e+00	6.670045e+00
8.700000e-07	7.759627e-07	1.488848e-09	5.609078e+00	9.881877e+01
8.800000e-07	9.257946e-07	2.877145e-09	6.692144e+00	1.925961e+02
8.900000e-07	1.075308e-06	4.311216e-09	7.772908e+00	2.875161e+02
9.000000e-07	1.224519e-06	5.784011e-09	8.851484e+00	3.829126e+02
9.100000e-07	1.373297e-06	7.276779e-09	9.926930e+00	4.779537e+02
9.200000e-07	1.521509e-06	8.764402e-09	1.099829e+01	5.716791e+02
9.300000e-07	1.669201e-06	1.020987e-08	1.206589e+01	6.630573e+02
9.400000e-07	1.816441e-06	1.158170e-08	1.313022e+01	7.510552e+02
9.500000e-07	1.963101e-06	1.285903e-08	1.419035e+01	8.347143e+02
9.600000e-07	2.108971e-06	1.402770e-08	1.524478e+01	9.132235e+02
9.700000e-07	2.253996e-06	1.508827e-08	1.629310e+01	9.859805e+02
9.800000e-07	2.398211e-06	1.605035e-08	1.733557e+01	1.052634e+03
9.900000e-07	2.541487e-06	1.692859e-08	1.837124e+01	1.113101e+03
1.000000e-06	2.683735e-06	1.772897e-08	1.939949e+01	1.167564e+03
1.010000e-06	2.824952e-06	1.846099e-08	2.042028e+01	1.216433e+03
1.020000e-06	2.965025e-06	1.913226e-08	2.143280e+01	1.260301e+03
1.030000e-06	3.103878e-06	1.975126e-08	2.243651e+01	1.299871e+03
1.040000e-06	3.241372e-06	2.032455e-08	2.343039e+01	1.335890e+03
1.050000e-06	3.377554e-06	2.085707e-08	2.441479e+01	1.369075e+03
1.060000e-06	3.512521e-06	2.135283e-08	2.539040e+01	1.400058e+03
1.070000e-06	3.646244e-06	2.181257e-08	2.635702e+01	1.429342e+03
1.080000e-06	3.778706e-06	2.224300e-08	2.731453e+01	1.457278e+03
1.090000e-06	3.909814e-06	2.264630e-08	2.826225e+01	1.484064e+03
1.100000e-06	4.039390e-06	2.302634e-08	2.919890e+01	1.509763e+03
1.110000e-06	4.167473e-06	2.338464e-08	3.012475e+01	1.534334e+03
1.120000e-06	4.294200e-06	2.372357e-08	3.104080e+01	1.557678e+03
1.130000e-06	4.419486e-06	2.404239e-08	3.194643e+01	1.579674e+03
1.140000e-06	4.543366e-06	2.434116e-08	3.284191e+01	1.600228e+03
1.150000e-06	4.665655e-06	2.462279e-08	3.372588e+01	1.619297e+03
1.160000e-06	4.786177e-06	2.488825e-08	3.459708e+01	1.636911e+03
1.170000e-06	4.905013e-06	2.514028e-08	3.545608e+01	1.653171e+03
1.180000e-06	5.022084e-06	2.538010e-08	3.630234e+01	1.668243e+03
1.190000e-06	5.137243e-06	2.560997e-08	3.713477e+01	1.682337e+03
1.200000e-06	5.250388e-06	2.583006e-08	3.795264e+01	1.695673e+03
1.210000e-06	5.361570e-06	2.603668e-08	3.875633e+01	1.708462e+03
1.220000e-06	5.470908e-06	2.623075e-08	3.954668e+01	1.720869e+03
1.230000e-06	5.578369e-06	2.641530e-08	4.032346e+01	1.733004e+03
1.240000e-06	5.683729e-06	2.659014e-08	4.108507e+01	1.744906e+03
1.250000e-06	5.786902e-06	2.675724e-08	4.183085e+01	1.756552e+03
1.260000e-06	5.888007e-06	2.691861e-08	4.256169e+01	1.767863e+03
1.270000e-06	5.986976e-06	2.707306e-08	4.327710e+01	1.778730e+03
1.280000e-06	6.083645e-06	2.722050e-08	4.397587e+01	1.789033e+03
1.290000e-06	6.178031e-06	2.736167e-08	4.465815e+01	1.798670e+03
1.300000e-06	6.270276e-06	2.749630e-08	4.532494e+01	1.807571e+03
1.310000e-06	6.360275e-06	2.762317e-08	4.597550e+01	1.815718e+03
1.320000e-06	6.447940e-06	2.774282e-08	4.660919e+01	1.823143e+03
1.330000e-06	6.533347e-06	2.785659e-08	4.722656e+01	1.829931e+03
1.340000e-06	6.616507e-06	2.796416e-08	4.782769e+01	1.836201e+03
1.350000e-06	6.697289e-06	2.806346e-08	4.841163e+01	1.842089e+03
1.360000e-06	6.775573e-06	2.815577e-08	4.897751e+01	1.847730e+03
1.370000e-06	6.851346e-06	2.824434e-08	4.952523e+01	1.853239e+03
1.380000e-06	6.924498e-06	2.832834e-08	5.005402e+01	1.858692e+03
1.390000e-06	6.995081e-06	2.840868e-08	5.056423e+01	1.864118e+03
1.400000e-06	7.063242e-06	2.848503e-08	5.105693e+01	1.869502e+03
1.410000e-06	7.128846e-06	2.855800e-08	5.153115e+01	1.874787e+03
1.420000e-06	7.191886e-06	2.862633e-08	5.198684e+01	1.879890e+03
1.430000e-06	7.252537e-06	2.868942e-08	5.242526e+01	1.884716e+03
1.440000e-06	7.310614e-06	2.874901e-08	5.284507e+01	1.889177e+03
1.450000e-06	7.366066e-06	2.880624e-08	5.324591e+01	1.893207e+03
1.460000e-06	7.418850e-06	2.886239e-08	5.362746e+01	1.896777e+03
1.470000e-06	7.468565e-06	2.891551e-08	5.398683e+01	1.899893e+03
1.480000e-06	7.515325e-06	2.896590e-08	5.432484e+01	1.902600e+03
1.490000e-06	7.559550e-06	2.901143e-08	5.464451e+01	1.904973e+03
1.500000e-06	7.601101e-06	2.905150e-08	5.494487e+01	1.907100e+03
1.510000e-06	7.639819e-06	2.908685e-08	5.522474e+01	1.909073e+03
1.520000e-06	7.675945e-06	2.911793e-08	5.548588e+01	1.910966e+03
1.530000e-06	7.709384e-06	2.914553e-08	5.572760e+01	1.912829e+03
1.540000e-06	7.739989e-06	2.917099e-08	5.594883e+01	1.914678e+03
1.550000e-06	7.767942e-06	2.919556e-08	5.615088e+01	1.916493e+03
1.560000e-06	7.793086e-06	2.921760e-08	5.633264e+01	1.918223e+03
1.570000e-06	7.815342e-06	2.923552e-08	5.649352e+01	1.919797e+03
1.580000e-06	7.834963e-06	2.924973e-08	5.663535e+01	1.921139e+03
1.590000e-06	7.851819e-06	2.926108e-08	5.675719e+01	1.922178e+03
1.600000e-06	7.865685e-06	2.926959e-08	5.685743e+01	1.922863e+03
1.610000e-06	7.876478e-06	2.927607e-08	5.693545e+01	1.923176e+03
1.620000e-06	7.884187e-06	2.927976e-08	5.699116e+01	1.923127e+03
1.630000e-06	7.889072e-06	2.928259e-08	5.702647e+01	1.922763e+03
1.640000e-06	7.891150e-06	2.928397e-08	5.704150e+01	1.922152e+03
1.650000e-06	7.890419e-06	2.928264e-08	5.703622e+01	1.921375e+03
1.660000e-06	7.887105e-06	2.927099e-08	5.701226e+01	1.920513e+03
1.670000e-06	7.881061e-06	2.926220e-08	5.696857e+01	1.919631e+03
1.680000e-06	7.872330e-06	2.925235e-08	5.690546e+01	1.918768e+03
1.690000e-06	7.861046e-06	2.923650e-08	5.682389e+01	1.917933e+03
1.700000e-06	7.846959e-06	2.921972e-08	5.672206e+01	1.917100e+03
1.710000e-06	7.830266e-06	2.920729e-08	5.660139e+01	1.916216e+03
1.720000e-06	7.811308e-06	2.920203e-08	5.646435e+01	1.915209e+03
1.730000e-06	7.789945e-06	2.914440e-08	5.630994e+01	1.914002e+03
1.740000e-06	7.765594e-06	2.905723e-08	5.613392e+01	1.912525e+03
1.750000e-06	7.737629e-06	2.906640e-08	5.593176e+01	1.910728e+03
1.760000e-06	7.706166e-06	2.906497e-08	5.570433e+01	1.908592e+03
1.770000e-06	7.672047e-06	2.901713e-08	5.545771e+01	1.906130e+03
1.780000e-06	7.635703e-06	2.900738e-08	5.519499e+01	1.903385e+03
1.790000e-06	7.597106e-06	2.903631e-08	5.491599e+01	1.900422e+03
1.800000e-06	7.556566e-06	2.889319e-08	5.462294e+01	1.897318e+03
1.810000e-06	7.513890e-06	2.886589e-08	5.431446e+01	1.894146e+03
1.820000e-06	7.468540e-06	2.891387e-08	5.398664e+01	1.890961e+03
1.830000e-06	7.420566e-06	2.877948e-08	5.363986e+01	1.887789e+03
1.840000e-06	7.369710e-06	2.881202e-08	5.327225e+01	1.884620e+03
1.850000e-06	7.315811e-06	2.869309e-08	5.288264e+01	1.881410e+03
1.860000e-06	7.259151e-06	2.863725e-08	5.247307e+01	1.878082e+03
1.870000e-06	7.199970e-06	2.864643e-08	5.204527e+01	1.874541e+03
1.880000e-06	7.138274e-06	2.850942e-08	5.159931e+01	1.870685e+03
1.890000e-06	7.073716e-06	2.849984e-08	5.113264e+01	1.866426e+03
1.900000e-06	7.006397e-06	2.837279e-08	5.064603e+01	1.861696e+03
1.910000e-06	6.936394e-06	2.831171e-08	5.014001e+01	1.856467e+03
1.920000e-06	6.863617e-06	2.823141e-08	4.961394e+01	1.850748e+03
1.930000e-06	6.788221e-06	2.811758e-08	4.906893e+01	1.844588e+03
1.940000e-06	6.710139e-06	2.811198e-08	4.850451e+01	1.838064e+03
1.950000e-06	6.629430e-06	2.795915e-08	4.792111e+01	1.831270e+03
1.960000e-06	6.546279e-06	2.785544e-08	4.732005e+01	1.824299e+03
1.970000e-06	6.460719e-06	2.774827e-08	4.670157e+01	1.817228e+03
1.980000e-06	6.372777e-06	2.766409e-08	4.606588e+01	1.810100e+03
1.990000e-06	6.282583e-06	2.755375e-08	4.541391e+01	1.802916e+03
2.000000e-06	6.190215e-06	2.741115e-08	4.474622e+01	1.795636e+03
2.010000e-06	6.095605e-06	2.732151e-08	4.406233e+01	1.788176e+03
2.020000e-06	5.998833e-06	2.716895e-08	4.336280e+01	1.780428e+03
2.030000e-06	5.899974e-06	2.703482e-08	4.264821e+01	1.772268e+03
2.040000e-06	5.799052e-06	2.689906e-08	4.191868e+01	1.763581e+03
2.050000e-06	5.695971e-06	2.677928e-08	4.117356e+01	1.754276e+03
2.060000e-06	5.590850e-06	2.660716e-08	4.041369e+01	1.744297e+03
2.070000e-06	5.483913e-06	2.643614e-08	3.964069e+01	1.733637e+03
2.080000e-06	5.375078e-06	2.628794e-08	3.885397e+01	1.722332e+03
2.090000e-06	5.264233e-06	2.612250e-08	3.805272e+01	1.710455e+03
2.100000e-06	5.151443e-06	2.594581e-08	3.723742e+01	1.698104e+03
2.110000e-06	5.036783e-06	2.575771e-08	3.640859e+01	1.685376e+03
2.120000e-06	4.920162e-06	2.557347e-08	3.556559e+01	1.672352e+03
2.130000e-06	4.801566e-06	2.535236e-08	3.470832e+01	1.659075e+03
2.140000e-06	4.681142e-06	2.513866e-08	3.383783e+01	1.645540e+03
2.150000e-06	4.559052e-06	2.492911e-08	3.295529e+01	1.631682e+03
2.160000e-06	4.435330e-06	2.471066e-08	3.206096e+01	1.617387e+03
2.170000e-06	4.309972e-06	2.446650e-08	3.115481e+01	1.602500e+03
2.180000e-06	4.182971e-06	2.421921e-08	3.023677e+01	1.586842e+03
2.190000e-06	4.054402e-06	2.396401e-08	2.930741e+01	1.570241e+03
2.200000e-06	3.924370e-06	2.369417e-08	2.836747e+01	1.552547e+03
2.210000e-06	3.792925e-06	2.340916e-08	2.741731e+01	1.533656e+03
2.220000e-06	3.660074e-06	2.310964e-08	2.645700e+01	1.513522e+03
2.230000e-06	3.525823e-06	2.279395e-08	2.548655e+01	1.492158e+03
2.240000e-06	3.390194e-06	2.245741e-08	2.450615e+01	1.469625e+03
2.250000e-06	3.253301e-06	2.211191e-08	2.351662e+01	1.446017e+03
2.260000e-06	3.115220e-06	2.175339e-08	2.251849e+01	1.421429e+03
2.270000e-06	2.975974e-06	2.138190e-08	2.151195e+01	1.395925e+03
2.280000e-06	2.835557e-06	2.098316e-08	2.049694e+01	1.369510e+03
2.290000e-06	2.693979e-06	2.055848e-08	1.947353e+01	1.342102e+03
2.300000e-06	2.551428e-06	2.010993e-08	1.844310e+01	1.313517e+03
2.310000e-06	2.407928e-06	1.963623e-08	1.740580e+01	1.283469e+03
2.320000e-06	2.263543e-06	1.912917e-08	1.636211e+01	1.251579e+03
2.330000e-06	2.118414e-06	1.858705e-08	1.531304e+01	1.217401e+03
2.340000e-06	1.972578e-06	1.801082e-08	1.425886e+01	1.180463e+03
2.350000e-06	1.826039e-06	1.739626e-08	1.319960e+01	1.140306e+03
2.360000e-06	1.678893e-06	1.673522e-08	1.213594e+01	1.096529e+03
2.370000e-06	1.531346e-06	1.602715e-08	1.106939e+01	1.048827e+03
2.380000e-06	1.383442e-06	1.526879e-08	1.000027e+01	9.970214e+02
2.390000e-06	1.235090e-06	1.444828e-08	8.927895e+00	9.410678e+02
2.400000e-06	1.086219e-06	1.355963e-08	7.851778e+00	8.810573e+02
2.410000e-06	9.369497e-07	1.260581e-08	6.772779e+00	8.171945e+02
2.420000e-06	7.873454e-07	1.158657e-08	5.691358e+00	7.497654e+02
2.430000e-06	6.373847e-07	1.049763e-08	4.607361e+00	6.790969e+02
2.440000e-06	4.871845e-07	9.343308e-09	3.521633e+00	6.055138e+02
2.450000e-06	3.367994e-07	8.134666e-09	2.434568e+00	5.293009e+02
2.460000e-06	1.862603e-07	6.888021e-09	1.346390e+00	4.506755e+02
2.470000e-06	3.561311e-08	5.615275e-09	2.574308e-01	3.697762e+02
2.480000e-06	-1.151090e-07	4.329873e-09	-8.320699e-01	2.866692e+02
2.490000e-06	-2.657822e-07	3.040211e-09	-1.921218e+00	2.013716e+02
2.500000e-06	-4.163457e-07	1.739815e-09	-3.009572e+00	1.138910e+02
2.510000e-06	-5.667826e-07	4.217114e-10	-4.097011e+00	2.427305e+01
2.520000e-06	-7.170847e-07	-9.207693e-10	-5.183476e+00	-6.734802e+01
2.530000e-06	-8.671520e-07	-2.297735e-09	-6.268243e+00	-1.607039e+02
2.540000e-06	-1.016870e-06	-3.720302e-09	-7.350489e+00	-2.553597e+02
2.550000e-06	-1.166115e-06	-5.186618e-09	-8.429307e+00	-3.507005e+02
2.560000e-06	-1.314781e-06	-6.682153e-09	-9.503949e+00	-4.459385e+02
2.570000e-06	-1.462987e-06	-8.184716e-09	-1.057526e+01	-5.401454e+02
2.580000e-06	-1.610808e-06	-9.659834e-09	-1.164379e+01	-6.323032e+02
2.590000e-06	-1.758132e-06	-1.106931e-08	-1.270873e+01	-7.213715e+02
2.600000e-06	-1.904759e-06	-1.238621e-08	-1.376863e+01	-8.063629e+02
2.610000e-06	-2.050657e-06	-1.360014e-08	-1.482326e+01	-8.864173e+02
2.620000e-06	-2.195840e-06	-1.470735e-08	-1.587272e+01	-9.608674e+02
2.630000e-06	-2.340178e-06	-1.571185e-08	-1.691607e+01	-1.029287e+03
2.640000e-06	-2.483681e-06	-1.662367e-08	-1.795339e+01	-1.091517e+03
2.650000e-06	-2.626196e-06	-1.745557e-08	-1.898357e+01	-1.147664e+03
2.660000e-06	-2.767496e-06	-1.821432e-08	-2.000496e+01	-1.198080e+03
2.670000e-06	-2.907673e-06	-1.890759e-08	-2.101823e+01	-1.243311e+03
2.680000e-06	-3.046683e-06	-1.954694e-08	-2.202307e+01	-1.284036e+03
2.690000e-06	-3.184470e-06	-2.013827e-08	-2.301907e+01	-1.320996e+03
2.700000e-06	-3.321090e-06	-2.068802e-08	-2.400663e+01	-1.354923e+03
2.710000e-06	-3.456508e-06	-2.119750e-08	-2.498551e+01	-1.386480e+03
2.720000e-06	-3.590588e-06	-2.167061e-08	-2.595471e+01	-1.416209e+03
2.730000e-06	-3.723322e-06	-2.211325e-08	-2.691418e+01	-1.444506e+03
2.740000e-06	-3.854773e-06	-2.252604e-08	-2.786438e+01	-1.471611e+03
2.750000e-06	-3.984916e-06	-2.291493e-08	-2.880513e+01	-1.497623e+03
2.760000e-06	-4.113701e-06	-2.328123e-08	-2.973605e+01	-1.522527e+03
2.770000e-06	-4.241064e-06	-2.362393e-08	-3.065670e+01	-1.546235e+03
2.780000e-06	-4.366932e-06	-2.394670e-08	-3.156655e+01	-1.568630e+03
2.790000e-06	-4.491311e-06	-2.425166e-08	-3.246562e+01	-1.589605e+03
2.800000e-06	-4.614153e-06	-2.454024e-08	-3.335359e+01	-1.609102e+03
2.810000e-06	-4.735311e-06	-2.481433e-08	-3.422939e+01	-1.627126e+03
2.820000e-06	-4.854717e-06	-2.507413e-08	-3.509252e+01	-1.643760e+03
2.830000e-06	-4.972178e-06	-2.532147e-08	-3.594159e+01	-1.659154e+03
2.840000e-06	-5.087560e-06	-2.555812e-08	-3.677563e+01	-1.673507e+03
2.850000e-06	-5.200924e-06	-2.578385e-08	-3.759509e+01	-1.687040e+03
2.860000e-06	-5.312251e-06	-2.599699e-08	-3.839982e+01	-1.699968e+03
2.870000e-06	-5.421609e-06	-2.619589e-08	-3.919032e+01	-1.712472e+03
2.880000e-06	-5.529150e-06	-2.638594e-08	-3.996769e+01	-1.724679e+03
2.890000e-06	-5.634828e-06	-2.656842e-08	-4.073158e+01	-1.736650e+03
2.900000e-06	-5.738439e-06	-2.674098e-08	-4.148054e+01	-1.748377e+03
2.910000e-06	-5.839826e-06	-2.690392e-08	-4.221342e+01	-1.759797e+03
2.920000e-06	-5.939033e-06	-2.705895e-08	-4.293055e+01	-1.770805e+03
2.930000e-06	-6.036207e-06	-2.720712e-08	-4.363297e+01	-1.781283e+03
2.940000e-06	-6.131237e-06	-2.734698e-08	-4.431989e+01	-1.791121e+03
