# Temperatura_=_61.46
# Concentracion g/m^3_=_28370.0
# C_Vs_to_Am_M_A/Vsm_=_65563218390.804596
# pendiente_HvsI_1/m_=_3716.3
# ordenada_HvsI_A/m_=_1297.0
# frecuencia_Hz_=_302512.2866336701

Tiempo_(s)	Campo_(V.s)	Magnetizacion_(V.s)	Campo_(kA/m)	Magnetizacion_(A/m)
0.000000e+00	-7.882581e-06	-2.626408e-08	-5.684074e+01	-1.719234e+03
1.000000e-08	-7.878520e-06	-2.626023e-08	-5.681145e+01	-1.718400e+03
2.000000e-08	-7.871995e-06	-2.624906e-08	-5.676441e+01	-1.717569e+03
3.000000e-08	-7.862802e-06	-2.623878e-08	-5.669812e+01	-1.716784e+03
4.000000e-08	-7.850734e-06	-2.622756e-08	-5.661109e+01	-1.716059e+03
5.000000e-08	-7.835695e-06	-2.621168e-08	-5.650265e+01	-1.715373e+03
6.000000e-08	-7.817972e-06	-2.619003e-08	-5.637485e+01	-1.714678e+03
7.000000e-08	-7.798071e-06	-2.616178e-08	-5.623134e+01	-1.713904e+03
8.000000e-08	-7.775835e-06	-2.614384e-08	-5.607100e+01	-1.712974e+03
9.000000e-08	-7.750643e-06	-2.619327e-08	-5.588934e+01	-1.711816e+03
1.000000e-07	-7.722276e-06	-2.616029e-08	-5.568479e+01	-1.710375e+03
1.100000e-07	-7.691034e-06	-2.608083e-08	-5.545951e+01	-1.708624e+03
1.200000e-07	-7.657000e-06	-2.604837e-08	-5.521410e+01	-1.706566e+03
1.300000e-07	-7.620286e-06	-2.601796e-08	-5.494935e+01	-1.704235e+03
1.400000e-07	-7.581286e-06	-2.595059e-08	-5.466813e+01	-1.701688e+03
1.500000e-07	-7.540064e-06	-2.587341e-08	-5.437087e+01	-1.698995e+03
1.600000e-07	-7.496426e-06	-2.594320e-08	-5.405620e+01	-1.696223e+03
1.700000e-07	-7.450182e-06	-2.588219e-08	-5.372274e+01	-1.693430e+03
1.800000e-07	-7.401178e-06	-2.575962e-08	-5.336938e+01	-1.690645e+03
1.900000e-07	-7.349254e-06	-2.580618e-08	-5.299495e+01	-1.687867e+03
2.000000e-07	-7.294483e-06	-2.572320e-08	-5.260001e+01	-1.685062e+03
2.100000e-07	-7.237047e-06	-2.566026e-08	-5.218584e+01	-1.682167e+03
2.200000e-07	-7.176979e-06	-2.561543e-08	-5.175269e+01	-1.679099e+03
2.300000e-07	-7.114387e-06	-2.552553e-08	-5.130134e+01	-1.675769e+03
2.400000e-07	-7.049131e-06	-2.550339e-08	-5.083079e+01	-1.672095e+03
2.500000e-07	-6.981135e-06	-2.541006e-08	-5.034048e+01	-1.668018e+03
2.600000e-07	-6.910440e-06	-2.535507e-08	-4.983070e+01	-1.663509e+03
2.700000e-07	-6.836953e-06	-2.528233e-08	-4.930079e+01	-1.658574e+03
2.800000e-07	-6.760797e-06	-2.521338e-08	-4.875164e+01	-1.653256e+03
2.900000e-07	-6.681934e-06	-2.512425e-08	-4.818296e+01	-1.647622e+03
3.000000e-07	-6.600375e-06	-2.502305e-08	-4.759485e+01	-1.641758e+03
3.100000e-07	-6.516532e-06	-2.497358e-08	-4.699026e+01	-1.635745e+03
3.200000e-07	-6.430531e-06	-2.487310e-08	-4.637011e+01	-1.629654e+03
3.300000e-07	-6.342269e-06	-2.478876e-08	-4.573366e+01	-1.623522e+03
3.400000e-07	-6.251658e-06	-2.467049e-08	-4.508027e+01	-1.617351e+03
3.500000e-07	-6.158762e-06	-2.456867e-08	-4.441040e+01	-1.611101e+03
3.600000e-07	-6.063664e-06	-2.448053e-08	-4.372466e+01	-1.604698e+03
3.700000e-07	-5.966280e-06	-2.436880e-08	-4.302243e+01	-1.598038e+03
3.800000e-07	-5.866691e-06	-2.425561e-08	-4.230430e+01	-1.591008e+03
3.900000e-07	-5.765107e-06	-2.413217e-08	-4.157178e+01	-1.583502e+03
4.000000e-07	-5.661520e-06	-2.400795e-08	-4.082482e+01	-1.575433e+03
4.100000e-07	-5.555874e-06	-2.385359e-08	-4.006302e+01	-1.566750e+03
4.200000e-07	-5.448254e-06	-2.372111e-08	-3.928698e+01	-1.557446e+03
4.300000e-07	-5.338740e-06	-2.358547e-08	-3.849728e+01	-1.547552e+03
4.400000e-07	-5.227216e-06	-2.343860e-08	-3.769309e+01	-1.537137e+03
4.500000e-07	-5.113694e-06	-2.327950e-08	-3.687449e+01	-1.526288e+03
4.600000e-07	-4.998257e-06	-2.311967e-08	-3.604208e+01	-1.515096e+03
4.700000e-07	-4.880901e-06	-2.294931e-08	-3.519584e+01	-1.503635e+03
4.800000e-07	-4.761749e-06	-2.276568e-08	-3.433664e+01	-1.491943e+03
4.900000e-07	-4.640880e-06	-2.258266e-08	-3.346506e+01	-1.480012e+03
5.000000e-07	-4.518322e-06	-2.238683e-08	-3.258130e+01	-1.467784e+03
5.100000e-07	-4.394123e-06	-2.217963e-08	-3.168571e+01	-1.455149e+03
5.200000e-07	-4.268412e-06	-2.195752e-08	-3.077922e+01	-1.441962e+03
5.300000e-07	-4.141148e-06	-2.173629e-08	-2.986153e+01	-1.428059e+03
5.400000e-07	-4.012298e-06	-2.149937e-08	-2.893240e+01	-1.413276e+03
5.500000e-07	-3.881899e-06	-2.125220e-08	-2.799210e+01	-1.397476e+03
5.600000e-07	-3.749965e-06	-2.099541e-08	-2.704074e+01	-1.380564e+03
5.700000e-07	-3.616683e-06	-2.072939e-08	-2.607965e+01	-1.362499e+03
5.800000e-07	-3.482043e-06	-2.044530e-08	-2.510877e+01	-1.343292e+03
5.900000e-07	-3.346007e-06	-2.014400e-08	-2.412783e+01	-1.323002e+03
6.000000e-07	-3.208699e-06	-1.983226e-08	-2.313770e+01	-1.301717e+03
6.100000e-07	-3.070173e-06	-1.950184e-08	-2.213880e+01	-1.279520e+03
6.200000e-07	-2.930256e-06	-1.915381e-08	-2.112987e+01	-1.256470e+03
6.300000e-07	-2.788944e-06	-1.878503e-08	-2.011088e+01	-1.232564e+03
6.400000e-07	-2.646494e-06	-1.840054e-08	-1.908368e+01	-1.207718e+03
6.500000e-07	-2.503114e-06	-1.799029e-08	-1.804978e+01	-1.181750e+03
6.600000e-07	-2.358893e-06	-1.755264e-08	-1.700982e+01	-1.154383e+03
6.700000e-07	-2.213812e-06	-1.708687e-08	-1.596364e+01	-1.125252e+03
6.800000e-07	-2.067966e-06	-1.659103e-08	-1.491196e+01	-1.093937e+03
6.900000e-07	-1.921473e-06	-1.606363e-08	-1.385561e+01	-1.059991e+03
7.000000e-07	-1.774368e-06	-1.549426e-08	-1.279484e+01	-1.022991e+03
7.100000e-07	-1.626668e-06	-1.488262e-08	-1.172979e+01	-9.825713e+02
7.200000e-07	-1.478457e-06	-1.422517e-08	-1.066105e+01	-9.384669e+02
7.300000e-07	-1.329839e-06	-1.351869e-08	-9.589373e+00	-8.905369e+02
7.400000e-07	-1.180887e-06	-1.275427e-08	-8.515291e+00	-8.387775e+02
7.500000e-07	-1.031522e-06	-1.193169e-08	-7.438233e+00	-7.833168e+02
7.600000e-07	-8.817583e-07	-1.105092e-08	-6.358297e+00	-7.243953e+02
7.700000e-07	-7.317429e-07	-1.010704e-08	-5.276547e+00	-6.623321e+02
7.800000e-07	-5.815208e-07	-9.101600e-09	-4.193305e+00	-5.974841e+02
7.900000e-07	-4.310863e-07	-8.043356e-09	-3.108533e+00	-5.302019e+02
8.000000e-07	-2.804576e-07	-6.944514e-09	-2.022360e+00	-4.607908e+02
8.100000e-07	-1.297006e-07	-5.815669e-09	-9.352622e-01	-3.894818e+02
8.200000e-07	2.115520e-08	-4.673985e-09	1.525486e-01	-3.164182e+02
8.300000e-07	1.720357e-07	-3.528647e-09	1.240537e+00	-2.416594e+02
8.400000e-07	3.228663e-07	-2.382112e-09	2.328166e+00	-1.652022e+02
8.500000e-07	4.736003e-07	-1.228126e-09	3.415099e+00	-8.701788e+01
8.600000e-07	6.242259e-07	-5.958453e-11	4.501250e+00	-7.098578e+00
8.700000e-07	7.746839e-07	1.134444e-09	5.586191e+00	7.449299e+01
8.800000e-07	9.249010e-07	2.363794e-09	6.669396e+00	1.575775e+02
8.900000e-07	1.074793e-06	3.631841e-09	7.750258e+00	2.418245e+02
9.000000e-07	1.224296e-06	4.935540e-09	8.828310e+00	3.267348e+02
9.100000e-07	1.373378e-06	6.261797e-09	9.903335e+00	4.116443e+02
9.200000e-07	1.522013e-06	7.593591e-09	1.097513e+01	4.957487e+02
9.300000e-07	1.670166e-06	8.900317e-09	1.204345e+01	5.781491e+02
9.400000e-07	1.817664e-06	1.015065e-08	1.310705e+01	6.579129e+02
9.500000e-07	1.964479e-06	1.131956e-08	1.416572e+01	7.341422e+02
9.600000e-07	2.110638e-06	1.239470e-08	1.521966e+01	8.060444e+02
9.700000e-07	2.256115e-06	1.337677e-08	1.626869e+01	8.729939e+02
9.800000e-07	2.400820e-06	1.427050e-08	1.731215e+01	9.345794e+02
9.900000e-07	2.544560e-06	1.508738e-08	1.834864e+01	9.906302e+02
1.000000e-06	2.687240e-06	1.582882e-08	1.937750e+01	1.041219e+03
1.010000e-06	2.828856e-06	1.650285e-08	2.039869e+01	1.086643e+03
1.020000e-06	2.969319e-06	1.711869e-08	2.141156e+01	1.127381e+03
1.030000e-06	3.108494e-06	1.768665e-08	2.241513e+01	1.164038e+03
1.040000e-06	3.246417e-06	1.821453e-08	2.340969e+01	1.197280e+03
1.050000e-06	3.383092e-06	1.870417e-08	2.439524e+01	1.227769e+03
1.060000e-06	3.518475e-06	1.916015e-08	2.537148e+01	1.256108e+03
1.070000e-06	3.652614e-06	1.958285e-08	2.633874e+01	1.282791e+03
1.080000e-06	3.785451e-06	1.997622e-08	2.729662e+01	1.308180e+03
1.090000e-06	3.916845e-06	2.034482e-08	2.824410e+01	1.332497e+03
1.100000e-06	4.046843e-06	2.069128e-08	2.918150e+01	1.355832e+03
1.110000e-06	4.175437e-06	2.101703e-08	3.010879e+01	1.378173e+03
1.120000e-06	4.302511e-06	2.132643e-08	3.102511e+01	1.399440e+03
1.130000e-06	4.428154e-06	2.161663e-08	3.193111e+01	1.419524e+03
1.140000e-06	4.552344e-06	2.188738e-08	3.282664e+01	1.438326e+03
1.150000e-06	4.674923e-06	2.214161e-08	3.371054e+01	1.455791e+03
1.160000e-06	4.795856e-06	2.238297e-08	3.458258e+01	1.471923e+03
1.170000e-06	4.915080e-06	2.261322e-08	3.544230e+01	1.486796e+03
1.180000e-06	5.032519e-06	2.283191e-08	3.628914e+01	1.500543e+03
1.190000e-06	5.148038e-06	2.303835e-08	3.712214e+01	1.513344e+03
1.200000e-06	5.261543e-06	2.323303e-08	3.794062e+01	1.525399e+03
1.210000e-06	5.373040e-06	2.341805e-08	3.874462e+01	1.536899e+03
1.220000e-06	5.482611e-06	2.359445e-08	3.953473e+01	1.548007e+03
1.230000e-06	5.590262e-06	2.376237e-08	4.031099e+01	1.558834e+03
1.240000e-06	5.695872e-06	2.392263e-08	4.107254e+01	1.569429e+03
1.250000e-06	5.799345e-06	2.407593e-08	4.181867e+01	1.579782e+03
1.260000e-06	5.900725e-06	2.421943e-08	4.254971e+01	1.589831e+03
1.270000e-06	5.999943e-06	2.435512e-08	4.326517e+01	1.599481e+03
1.280000e-06	6.096911e-06	2.448538e-08	4.396440e+01	1.608623e+03
1.290000e-06	6.191664e-06	2.461066e-08	4.464766e+01	1.617161e+03
1.300000e-06	6.284169e-06	2.472843e-08	4.531470e+01	1.625027e+03
1.310000e-06	6.374431e-06	2.483822e-08	4.596558e+01	1.632200e+03
1.320000e-06	6.462346e-06	2.494191e-08	4.659953e+01	1.638706e+03
1.330000e-06	6.547985e-06	2.503979e-08	4.721706e+01	1.644622e+03
1.340000e-06	6.631412e-06	2.513253e-08	4.781865e+01	1.650058e+03
1.350000e-06	6.712436e-06	2.521912e-08	4.840291e+01	1.655146e+03
1.360000e-06	6.790974e-06	2.530028e-08	4.896924e+01	1.660018e+03
1.370000e-06	6.866974e-06	2.537765e-08	4.951727e+01	1.664788e+03
1.380000e-06	6.940327e-06	2.545045e-08	5.004621e+01	1.669535e+03
1.390000e-06	7.011155e-06	2.551959e-08	5.055695e+01	1.674294e+03
1.400000e-06	7.079557e-06	2.558700e-08	5.105019e+01	1.679051e+03
1.410000e-06	7.145368e-06	2.565324e-08	5.152475e+01	1.683755e+03
1.420000e-06	7.208585e-06	2.571652e-08	5.198060e+01	1.688321e+03
1.430000e-06	7.269399e-06	2.577594e-08	5.241913e+01	1.692651e+03
1.440000e-06	7.327715e-06	2.583092e-08	5.283964e+01	1.696653e+03
1.450000e-06	7.383426e-06	2.588212e-08	5.324137e+01	1.700251e+03
1.460000e-06	7.436399e-06	2.592915e-08	5.362335e+01	1.703406e+03
1.470000e-06	7.486312e-06	2.597169e-08	5.398327e+01	1.706114e+03
1.480000e-06	7.533337e-06	2.601180e-08	5.432237e+01	1.708414e+03
1.490000e-06	7.577775e-06	2.604899e-08	5.464281e+01	1.710375e+03
1.500000e-06	7.619483e-06	2.608327e-08	5.494356e+01	1.712086e+03
1.510000e-06	7.658402e-06	2.611334e-08	5.522420e+01	1.713643e+03
1.520000e-06	7.694674e-06	2.613960e-08	5.548575e+01	1.715132e+03
1.530000e-06	7.728204e-06	2.616284e-08	5.572754e+01	1.716613e+03
1.540000e-06	7.758896e-06	2.618418e-08	5.594886e+01	1.718115e+03
1.550000e-06	7.786929e-06	2.620433e-08	5.615100e+01	1.719631e+03
1.560000e-06	7.812166e-06	2.622176e-08	5.633299e+01	1.721120e+03
1.570000e-06	7.834479e-06	2.623611e-08	5.649388e+01	1.722516e+03
1.580000e-06	7.854089e-06	2.624865e-08	5.663529e+01	1.723741e+03
1.590000e-06	7.870919e-06	2.625960e-08	5.675665e+01	1.724720e+03
1.600000e-06	7.884796e-06	2.626731e-08	5.685671e+01	1.725392e+03
1.610000e-06	7.895594e-06	2.627158e-08	5.693458e+01	1.725724e+03
1.620000e-06	7.903313e-06	2.627317e-08	5.699024e+01	1.725715e+03
1.630000e-06	7.908259e-06	2.627419e-08	5.702590e+01	1.725397e+03
1.640000e-06	7.910422e-06	2.627446e-08	5.704150e+01	1.724831e+03
1.650000e-06	7.909731e-06	2.627308e-08	5.703652e+01	1.724094e+03
1.660000e-06	7.906491e-06	2.626143e-08	5.701316e+01	1.723270e+03
1.670000e-06	7.900620e-06	2.625567e-08	5.697082e+01	1.722430e+03
1.680000e-06	7.892020e-06	2.624822e-08	5.690881e+01	1.721627e+03
1.690000e-06	7.880826e-06	2.623621e-08	5.682808e+01	1.720883e+03
1.700000e-06	7.866794e-06	2.622522e-08	5.672690e+01	1.720188e+03
1.710000e-06	7.850047e-06	2.621908e-08	5.660614e+01	1.719500e+03
1.720000e-06	7.831044e-06	2.621556e-08	5.646911e+01	1.718754e+03
1.730000e-06	7.809729e-06	2.615705e-08	5.631541e+01	1.717874e+03
1.740000e-06	7.785435e-06	2.606079e-08	5.614023e+01	1.716786e+03
1.750000e-06	7.757564e-06	2.608281e-08	5.593925e+01	1.715428e+03
1.760000e-06	7.726143e-06	2.608838e-08	5.571267e+01	1.713764e+03
1.770000e-06	7.691905e-06	2.604450e-08	5.546579e+01	1.711790e+03
1.780000e-06	7.655511e-06	2.605573e-08	5.520336e+01	1.709530e+03
1.790000e-06	7.616893e-06	2.611361e-08	5.492488e+01	1.707036e+03
1.800000e-06	7.576281e-06	2.596103e-08	5.463203e+01	1.704374e+03
1.810000e-06	7.533537e-06	2.591629e-08	5.432381e+01	1.701617e+03
1.820000e-06	7.488088e-06	2.597057e-08	5.399608e+01	1.698823e+03
1.830000e-06	7.440003e-06	2.581409e-08	5.364934e+01	1.696032e+03
1.840000e-06	7.389085e-06	2.588541e-08	5.328218e+01	1.693252e+03
1.850000e-06	7.335183e-06	2.577925e-08	5.289349e+01	1.690459e+03
1.860000e-06	7.278524e-06	2.573667e-08	5.248493e+01	1.687595e+03
1.870000e-06	7.219210e-06	2.576108e-08	5.205722e+01	1.684583e+03
1.880000e-06	7.157288e-06	2.559194e-08	5.161070e+01	1.681335e+03
1.890000e-06	7.092514e-06	2.562928e-08	5.114362e+01	1.677765e+03
1.900000e-06	7.025003e-06	2.551079e-08	5.065680e+01	1.673805e+03
1.910000e-06	6.954817e-06	2.543847e-08	5.015070e+01	1.669418e+03
1.920000e-06	6.881845e-06	2.539593e-08	4.962450e+01	1.664600e+03
1.930000e-06	6.806289e-06	2.530178e-08	4.907967e+01	1.659383e+03
1.940000e-06	6.728040e-06	2.529175e-08	4.851543e+01	1.653830e+03
1.950000e-06	6.647166e-06	2.513698e-08	4.793225e+01	1.648020e+03
1.960000e-06	6.563832e-06	2.507887e-08	4.733134e+01	1.642040e+03
1.970000e-06	6.478059e-06	2.496731e-08	4.671283e+01	1.635964e+03
1.980000e-06	6.389911e-06	2.488864e-08	4.607720e+01	1.629839e+03
1.990000e-06	6.299505e-06	2.482430e-08	4.542529e+01	1.623680e+03
2.000000e-06	6.206952e-06	2.469657e-08	4.475790e+01	1.617457e+03
2.010000e-06	6.112099e-06	2.461349e-08	4.407392e+01	1.611104e+03
2.020000e-06	6.015061e-06	2.446834e-08	4.337418e+01	1.604527e+03
2.030000e-06	5.916011e-06	2.436431e-08	4.265994e+01	1.597613e+03
2.040000e-06	5.814816e-06	2.424221e-08	4.193023e+01	1.590251e+03
2.050000e-06	5.711521e-06	2.415022e-08	4.118538e+01	1.582347e+03
2.060000e-06	5.606235e-06	2.401793e-08	4.042617e+01	1.573840e+03
2.070000e-06	5.499022e-06	2.386861e-08	3.965306e+01	1.564710e+03
2.080000e-06	5.389900e-06	2.372530e-08	3.886620e+01	1.554977e+03
2.090000e-06	5.278869e-06	2.357320e-08	3.806555e+01	1.544700e+03
2.100000e-06	5.165930e-06	2.342668e-08	3.725116e+01	1.533963e+03
2.110000e-06	5.051088e-06	2.326266e-08	3.642304e+01	1.522859e+03
2.120000e-06	4.934234e-06	2.310840e-08	3.558042e+01	1.511467e+03
2.130000e-06	4.815396e-06	2.292233e-08	3.472348e+01	1.499837e+03
2.140000e-06	4.694684e-06	2.273858e-08	3.385304e+01	1.487977e+03
2.150000e-06	4.572262e-06	2.254795e-08	3.297026e+01	1.475840e+03
2.160000e-06	4.448233e-06	2.236038e-08	3.207590e+01	1.463333e+03
2.170000e-06	4.322578e-06	2.214604e-08	3.116981e+01	1.450318e+03
2.180000e-06	4.195314e-06	2.192594e-08	3.025212e+01	1.436634e+03
2.190000e-06	4.066471e-06	2.170043e-08	2.932304e+01	1.422116e+03
2.200000e-06	3.936181e-06	2.146434e-08	2.838352e+01	1.406617e+03
2.210000e-06	3.804431e-06	2.121433e-08	2.743348e+01	1.390028e+03
2.220000e-06	3.671235e-06	2.095028e-08	2.647302e+01	1.372290e+03
2.230000e-06	3.536730e-06	2.067639e-08	2.550311e+01	1.353403e+03
2.240000e-06	3.400901e-06	2.038086e-08	2.452366e+01	1.333413e+03
2.250000e-06	3.263711e-06	2.007655e-08	2.353439e+01	1.312401e+03
2.260000e-06	3.125249e-06	1.975687e-08	2.253595e+01	1.290455e+03
2.270000e-06	2.985572e-06	1.942332e-08	2.152875e+01	1.267644e+03
2.280000e-06	2.844720e-06	1.906381e-08	2.051308e+01	1.243985e+03
2.290000e-06	2.702767e-06	1.868475e-08	1.948946e+01	1.219419e+03
2.300000e-06	2.559894e-06	1.828482e-08	1.845922e+01	1.193794e+03
2.310000e-06	2.416133e-06	1.786397e-08	1.742256e+01	1.166858e+03
2.320000e-06	2.271444e-06	1.741320e-08	1.637922e+01	1.138270e+03
2.330000e-06	2.125978e-06	1.692880e-08	1.533028e+01	1.107622e+03
2.340000e-06	1.979882e-06	1.640965e-08	1.427679e+01	1.074471e+03
2.350000e-06	1.833207e-06	1.585112e-08	1.321913e+01	1.038382e+03
2.360000e-06	1.685936e-06	1.525371e-08	1.215717e+01	9.989694e+02
2.370000e-06	1.538037e-06	1.461555e-08	1.109067e+01	9.559359e+02
2.380000e-06	1.389565e-06	1.392987e-08	1.002006e+01	9.091033e+02
2.390000e-06	1.240619e-06	1.318790e-08	8.946015e+00	8.584284e+02
2.400000e-06	1.091267e-06	1.238145e-08	7.869051e+00	8.040030e+02
2.410000e-06	9.415116e-07	1.151352e-08	6.789174e+00	7.460383e+02
2.420000e-06	7.913719e-07	1.058887e-08	5.706528e+00	6.848351e+02
2.430000e-06	6.410341e-07	9.606577e-09	4.622452e+00	6.207438e+02
2.440000e-06	4.905438e-07	8.568728e-09	3.537277e+00	5.541212e+02
2.450000e-06	3.398862e-07	7.480904e-09	2.450896e+00	4.852891e+02
2.460000e-06	1.890994e-07	6.356997e-09	1.363583e+00	4.145017e+02
2.470000e-06	3.827009e-08	5.210107e-09	2.759629e-01	3.419279e+02
2.480000e-06	-1.125275e-07	4.054657e-09	-8.114279e-01	2.676495e+02
2.490000e-06	-2.633291e-07	2.899386e-09	-1.898848e+00	1.916781e+02
2.500000e-06	-4.141140e-07	1.740110e-09	-2.986147e+00	1.139878e+02
2.510000e-06	-5.647893e-07	5.706198e-10	-4.072656e+00	3.455977e+01
2.520000e-06	-7.153310e-07	-6.177757e-10	-5.158202e+00	-4.656852e+01
2.530000e-06	-8.656849e-07	-1.834754e-09	-6.242393e+00	-1.292552e+02
2.540000e-06	-1.015747e-06	-3.091324e-09	-7.324480e+00	-2.132155e+02
2.550000e-06	-1.165457e-06	-4.389582e-09	-8.404028e+00	-2.979993e+02
2.560000e-06	-1.314748e-06	-5.717340e-09	-9.480554e+00	-3.829877e+02
2.570000e-06	-1.463577e-06	-7.057067e-09	-1.055375e+01	-4.674128e+02
2.580000e-06	-1.611880e-06	-8.381336e-09	-1.162315e+01	-5.503971e+02
2.590000e-06	-1.759530e-06	-9.658519e-09	-1.268785e+01	-6.310108e+02
2.600000e-06	-1.906423e-06	-1.086427e-08	-1.374709e+01	-7.083387e+02
2.610000e-06	-2.052638e-06	-1.198334e-08	-1.480143e+01	-7.815515e+02
2.620000e-06	-2.198225e-06	-1.300865e-08	-1.585124e+01	-8.499702e+02
2.630000e-06	-2.342991e-06	-1.394061e-08	-1.689515e+01	-9.131186e+02
2.640000e-06	-2.486694e-06	-1.478528e-08	-1.793138e+01	-9.707557e+02
2.650000e-06	-2.629366e-06	-1.555287e-08	-1.896018e+01	-1.022886e+03
2.660000e-06	-2.771018e-06	-1.625273e-08	-1.998162e+01	-1.069746e+03
2.670000e-06	-2.911594e-06	-1.689492e-08	-2.099530e+01	-1.111768e+03
2.680000e-06	-3.051007e-06	-1.748754e-08	-2.200059e+01	-1.149526e+03
2.690000e-06	-3.189236e-06	-1.803407e-08	-2.299735e+01	-1.183677e+03
2.700000e-06	-3.326249e-06	-1.853615e-08	-2.398535e+01	-1.214890e+03
2.710000e-06	-3.461902e-06	-1.900039e-08	-2.496353e+01	-1.243789e+03
2.720000e-06	-3.596365e-06	-1.943582e-08	-2.593314e+01	-1.270904e+03
2.730000e-06	-3.729625e-06	-1.984267e-08	-2.689407e+01	-1.296636e+03
2.740000e-06	-3.861456e-06	-2.022234e-08	-2.784469e+01	-1.321247e+03
2.750000e-06	-3.991901e-06	-2.057682e-08	-2.878532e+01	-1.344862e+03
2.760000e-06	-4.121007e-06	-2.090756e-08	-2.971629e+01	-1.367495e+03
2.770000e-06	-4.248645e-06	-2.122000e-08	-3.063668e+01	-1.389082e+03
2.780000e-06	-4.374834e-06	-2.151736e-08	-3.154662e+01	-1.409517e+03
2.790000e-06	-4.499572e-06	-2.179902e-08	-3.244610e+01	-1.428695e+03
2.800000e-06	-4.622652e-06	-2.206307e-08	-3.333362e+01	-1.446547e+03
2.810000e-06	-4.744092e-06	-2.231196e-08	-3.420932e+01	-1.463058e+03
2.820000e-06	-4.863799e-06	-2.254853e-08	-3.507252e+01	-1.478281e+03
2.830000e-06	-4.981608e-06	-2.277483e-08	-3.592203e+01	-1.492335e+03
2.840000e-06	-5.097437e-06	-2.299022e-08	-3.675726e+01	-1.505389e+03
2.850000e-06	-5.211182e-06	-2.319476e-08	-3.757747e+01	-1.517638e+03
2.860000e-06	-5.322851e-06	-2.338716e-08	-3.838270e+01	-1.529280e+03
2.870000e-06	-5.432554e-06	-2.356653e-08	-3.917377e+01	-1.540489e+03
2.880000e-06	-5.540441e-06	-2.373668e-08	-3.995173e+01	-1.551390e+03
2.890000e-06	-5.646453e-06	-2.389850e-08	-4.071618e+01	-1.562052e+03
2.900000e-06	-5.750366e-06	-2.405256e-08	-4.146549e+01	-1.572480e+03
2.910000e-06	-5.852051e-06	-2.419948e-08	-4.219873e+01	-1.582627e+03
2.920000e-06	-5.951551e-06	-2.433881e-08	-4.291622e+01	-1.592404e+03
2.930000e-06	-6.049005e-06	-2.447112e-08	-4.361896e+01	-1.601704e+03
2.940000e-06	-6.144319e-06	-2.459428e-08	-4.430625e+01	-1.610425e+03
