# Temperatura_=_56.45
# Concentracion g/m^3_=_28370.0
# C_Vs_to_Am_M_A/Vsm_=_65563218390.804596
# pendiente_HvsI_1/m_=_3716.3
# ordenada_HvsI_A/m_=_1297.0
# frecuencia_Hz_=_302511.929194372

Tiempo_(s)	Campo_(V.s)	Magnetizacion_(V.s)	Campo_(kA/m)	Magnetizacion_(A/m)
0.000000e+00	-7.900201e-06	-2.565281e-08	-5.683707e+01	-1.679408e+03
1.000000e-08	-7.896261e-06	-2.565112e-08	-5.680873e+01	-1.678582e+03
2.000000e-08	-7.889792e-06	-2.564085e-08	-5.676219e+01	-1.677757e+03
3.000000e-08	-7.880608e-06	-2.562910e-08	-5.669611e+01	-1.676982e+03
4.000000e-08	-7.868590e-06	-2.561547e-08	-5.660965e+01	-1.676275e+03
5.000000e-08	-7.853668e-06	-2.559730e-08	-5.650229e+01	-1.675620e+03
6.000000e-08	-7.836058e-06	-2.557457e-08	-5.637560e+01	-1.674976e+03
7.000000e-08	-7.816247e-06	-2.554922e-08	-5.623307e+01	-1.674275e+03
8.000000e-08	-7.794112e-06	-2.553039e-08	-5.607382e+01	-1.673444e+03
9.000000e-08	-7.769014e-06	-2.557232e-08	-5.589326e+01	-1.672410e+03
1.000000e-07	-7.740717e-06	-2.555489e-08	-5.568968e+01	-1.671116e+03
1.100000e-07	-7.709510e-06	-2.548574e-08	-5.546517e+01	-1.669530e+03
1.200000e-07	-7.675541e-06	-2.545348e-08	-5.522078e+01	-1.667652e+03
1.300000e-07	-7.638977e-06	-2.541632e-08	-5.495772e+01	-1.665508e+03
1.400000e-07	-7.600037e-06	-2.534477e-08	-5.467757e+01	-1.663151e+03
1.500000e-07	-7.558820e-06	-2.527130e-08	-5.438105e+01	-1.660646e+03
1.600000e-07	-7.515236e-06	-2.533043e-08	-5.406749e+01	-1.658060e+03
1.700000e-07	-7.469062e-06	-2.530957e-08	-5.373529e+01	-1.655448e+03
1.800000e-07	-7.420207e-06	-2.518789e-08	-5.338381e+01	-1.652844e+03
1.900000e-07	-7.368491e-06	-2.521967e-08	-5.301174e+01	-1.650251e+03
2.000000e-07	-7.313867e-06	-2.513987e-08	-5.261876e+01	-1.647637e+03
2.100000e-07	-7.256505e-06	-2.505814e-08	-5.220607e+01	-1.644947e+03
2.200000e-07	-7.196482e-06	-2.505350e-08	-5.177425e+01	-1.642100e+03
2.300000e-07	-7.133898e-06	-2.498289e-08	-5.132400e+01	-1.639013e+03
2.400000e-07	-7.068678e-06	-2.493743e-08	-5.085477e+01	-1.635603e+03
2.500000e-07	-7.000743e-06	-2.484184e-08	-5.036602e+01	-1.631812e+03
2.600000e-07	-6.930082e-06	-2.480733e-08	-4.985766e+01	-1.627608e+03
2.700000e-07	-6.856629e-06	-2.474896e-08	-4.932922e+01	-1.622993e+03
2.800000e-07	-6.780468e-06	-2.466855e-08	-4.878128e+01	-1.618004e+03
2.900000e-07	-6.701588e-06	-2.459061e-08	-4.821379e+01	-1.612706e+03
3.000000e-07	-6.620075e-06	-2.450310e-08	-4.762736e+01	-1.607178e+03
3.100000e-07	-6.536224e-06	-2.443630e-08	-4.702410e+01	-1.601500e+03
3.200000e-07	-6.450158e-06	-2.432542e-08	-4.640490e+01	-1.595740e+03
3.300000e-07	-6.361798e-06	-2.425790e-08	-4.576921e+01	-1.589936e+03
3.400000e-07	-6.271094e-06	-2.418027e-08	-4.511665e+01	-1.584093e+03
3.500000e-07	-6.178147e-06	-2.407090e-08	-4.444796e+01	-1.578174e+03
3.600000e-07	-6.082941e-06	-2.396490e-08	-4.376301e+01	-1.572106e+03
3.700000e-07	-5.985445e-06	-2.386438e-08	-4.306158e+01	-1.565793e+03
3.800000e-07	-5.885804e-06	-2.376407e-08	-4.234473e+01	-1.559124e+03
3.900000e-07	-5.784150e-06	-2.364912e-08	-4.161339e+01	-1.551993e+03
4.000000e-07	-5.680415e-06	-2.353882e-08	-4.086708e+01	-1.544315e+03
4.100000e-07	-5.574622e-06	-2.340588e-08	-4.010597e+01	-1.536038e+03
4.200000e-07	-5.466900e-06	-2.326543e-08	-3.933097e+01	-1.527152e+03
4.300000e-07	-5.357304e-06	-2.312362e-08	-3.854249e+01	-1.517687e+03
4.400000e-07	-5.245704e-06	-2.298351e-08	-3.773960e+01	-1.507708e+03
4.500000e-07	-5.131994e-06	-2.283471e-08	-3.692153e+01	-1.497300e+03
4.600000e-07	-5.016320e-06	-2.267800e-08	-3.608932e+01	-1.486553e+03
4.700000e-07	-4.898860e-06	-2.251326e-08	-3.524427e+01	-1.475540e+03
4.800000e-07	-4.779661e-06	-2.233986e-08	-3.438671e+01	-1.464300e+03
4.900000e-07	-4.658705e-06	-2.215956e-08	-3.351651e+01	-1.452828e+03
5.000000e-07	-4.536029e-06	-2.197190e-08	-3.263393e+01	-1.441067e+03
5.100000e-07	-4.411631e-06	-2.178027e-08	-3.173896e+01	-1.428911e+03
5.200000e-07	-4.285624e-06	-2.157244e-08	-3.083242e+01	-1.416218e+03
5.300000e-07	-4.158073e-06	-2.135314e-08	-2.991477e+01	-1.402825e+03
5.400000e-07	-4.028969e-06	-2.112241e-08	-2.898595e+01	-1.388570e+03
5.500000e-07	-3.898401e-06	-2.088735e-08	-2.804659e+01	-1.373315e+03
5.600000e-07	-3.766345e-06	-2.063949e-08	-2.709653e+01	-1.356963e+03
5.700000e-07	-3.632852e-06	-2.037846e-08	-2.613613e+01	-1.339472e+03
5.800000e-07	-3.497981e-06	-2.010121e-08	-2.516581e+01	-1.320852e+03
5.900000e-07	-3.361799e-06	-1.980886e-08	-2.418607e+01	-1.301161e+03
6.000000e-07	-3.224312e-06	-1.950410e-08	-2.319694e+01	-1.280485e+03
6.100000e-07	-3.085474e-06	-1.918254e-08	-2.219808e+01	-1.258911e+03
6.200000e-07	-2.945308e-06	-1.884545e-08	-2.118967e+01	-1.236499e+03
6.300000e-07	-2.803833e-06	-1.848933e-08	-2.017185e+01	-1.213251e+03
6.400000e-07	-2.661213e-06	-1.811566e-08	-1.914579e+01	-1.189087e+03
6.500000e-07	-2.517539e-06	-1.771633e-08	-1.811214e+01	-1.163831e+03
6.600000e-07	-2.373036e-06	-1.729103e-08	-1.707253e+01	-1.137211e+03
6.700000e-07	-2.227804e-06	-1.683870e-08	-1.602768e+01	-1.108865e+03
6.800000e-07	-2.081767e-06	-1.635286e-08	-1.497703e+01	-1.078373e+03
6.900000e-07	-1.935012e-06	-1.583175e-08	-1.392122e+01	-1.045291e+03
7.000000e-07	-1.787665e-06	-1.527387e-08	-1.286115e+01	-1.009189e+03
7.100000e-07	-1.639780e-06	-1.467725e-08	-1.179720e+01	-9.697021e+02
7.200000e-07	-1.491353e-06	-1.403620e-08	-1.072936e+01	-9.265604e+02
7.300000e-07	-1.342470e-06	-1.334657e-08	-9.658244e+00	-8.796217e+02
7.400000e-07	-1.193240e-06	-1.260103e-08	-8.584625e+00	-8.288823e+02
7.500000e-07	-1.043633e-06	-1.179494e-08	-7.508297e+00	-7.744747e+02
7.600000e-07	-8.936252e-07	-1.092782e-08	-6.429082e+00	-7.166473e+02
7.700000e-07	-7.432777e-07	-1.000194e-08	-5.347424e+00	-6.557316e+02
7.800000e-07	-5.926466e-07	-9.018776e-09	-4.263726e+00	-5.921002e+02
7.900000e-07	-4.417962e-07	-7.984269e-09	-3.178451e+00	-5.261212e+02
8.000000e-07	-2.907450e-07	-6.908276e-09	-2.091731e+00	-4.581174e+02
8.100000e-07	-1.395125e-07	-5.802961e-09	-1.003706e+00	-3.883347e+02
8.200000e-07	1.182818e-08	-4.683668e-09	8.509648e-02	-3.169261e+02
8.300000e-07	1.631530e-07	-3.560099e-09	1.173785e+00	-2.439532e+02
8.400000e-07	3.143914e-07	-2.438294e-09	2.261852e+00	-1.694057e+02
8.500000e-07	4.655963e-07	-1.314026e-09	3.349678e+00	-9.323691e+01
8.600000e-07	6.166958e-07	-1.773020e-10	4.436745e+00	-1.541069e+01
8.700000e-07	7.675475e-07	9.851301e-10	5.522031e+00	6.404788e+01
8.800000e-07	9.181078e-07	2.181917e-09	6.605219e+00	1.450043e+02
8.900000e-07	1.068321e-06	3.417000e-09	7.685911e+00	2.271767e+02
9.000000e-07	1.218125e-06	4.688165e-09	8.763660e+00	3.101152e+02
9.100000e-07	1.367515e-06	5.984945e-09	9.838428e+00	3.932005e+02
9.200000e-07	1.516493e-06	7.289286e-09	1.091023e+01	4.756661e+02
9.300000e-07	1.664973e-06	8.572520e-09	1.197845e+01	5.566400e+02
9.400000e-07	1.812818e-06	9.804779e-09	1.304211e+01	6.352033e+02
9.500000e-07	1.960029e-06	1.096068e-08	1.410120e+01	7.104583e+02
9.600000e-07	2.106582e-06	1.202685e-08	1.515556e+01	7.815991e+02
9.700000e-07	2.252354e-06	1.300284e-08	1.620429e+01	8.479751e+02
9.800000e-07	2.397298e-06	1.389196e-08	1.724708e+01	9.091408e+02
9.900000e-07	2.541368e-06	1.470181e-08	1.828358e+01	9.648862e+02
1.000000e-06	2.684430e-06	1.543886e-08	1.931281e+01	1.015244e+03
1.010000e-06	2.826371e-06	1.611096e-08	2.033400e+01	1.060471e+03
1.020000e-06	2.967196e-06	1.672540e-08	2.134714e+01	1.101013e+03
1.030000e-06	3.106810e-06	1.729061e-08	2.235158e+01	1.137451e+03
1.040000e-06	3.245101e-06	1.781164e-08	2.334650e+01	1.170435e+03
1.050000e-06	3.382063e-06	1.829376e-08	2.433186e+01	1.200621e+03
1.060000e-06	3.517772e-06	1.874114e-08	2.530820e+01	1.228612e+03
1.070000e-06	3.652187e-06	1.915720e-08	2.627523e+01	1.254913e+03
1.080000e-06	3.785314e-06	1.954611e-08	2.723300e+01	1.279898e+03
1.090000e-06	3.917202e-06	1.991043e-08	2.818185e+01	1.303804e+03
1.100000e-06	4.047673e-06	2.025333e-08	2.912051e+01	1.326737e+03
1.110000e-06	4.176648e-06	2.057401e-08	3.004841e+01	1.348695e+03
1.120000e-06	4.304090e-06	2.087613e-08	3.096527e+01	1.369603e+03
1.130000e-06	4.430020e-06	2.116030e-08	3.187126e+01	1.389357e+03
1.140000e-06	4.554531e-06	2.142540e-08	3.276704e+01	1.407855e+03
1.150000e-06	4.677493e-06	2.167421e-08	3.365168e+01	1.425036e+03
1.160000e-06	4.798771e-06	2.191107e-08	3.452419e+01	1.440894e+03
1.170000e-06	4.918345e-06	2.213632e-08	3.538446e+01	1.455495e+03
1.180000e-06	5.036170e-06	2.234913e-08	3.623213e+01	1.468964e+03
1.190000e-06	5.152162e-06	2.254966e-08	3.706663e+01	1.481474e+03
1.200000e-06	5.266138e-06	2.274019e-08	3.788661e+01	1.493223e+03
1.210000e-06	5.378020e-06	2.292187e-08	3.869153e+01	1.504403e+03
1.220000e-06	5.487914e-06	2.309489e-08	3.948215e+01	1.515179e+03
1.230000e-06	5.595926e-06	2.325725e-08	4.025923e+01	1.525669e+03
1.240000e-06	5.702034e-06	2.341148e-08	4.102261e+01	1.535930e+03
1.250000e-06	5.806031e-06	2.356001e-08	4.177081e+01	1.545958e+03
1.260000e-06	5.907824e-06	2.370108e-08	4.250315e+01	1.555697e+03
1.270000e-06	6.007413e-06	2.383431e-08	4.321963e+01	1.565056e+03
1.280000e-06	6.104734e-06	2.395954e-08	4.391979e+01	1.573927e+03
1.290000e-06	6.199720e-06	2.407821e-08	4.460316e+01	1.582212e+03
1.300000e-06	6.292509e-06	2.418983e-08	4.527072e+01	1.589839e+03
1.310000e-06	6.383132e-06	2.429527e-08	4.592269e+01	1.596783e+03
1.320000e-06	6.471438e-06	2.439565e-08	4.655800e+01	1.603063e+03
1.330000e-06	6.557417e-06	2.449018e-08	4.717657e+01	1.608750e+03
1.340000e-06	6.641160e-06	2.457838e-08	4.777905e+01	1.613953e+03
1.350000e-06	6.722526e-06	2.466003e-08	4.836443e+01	1.618802e+03
1.360000e-06	6.801356e-06	2.473746e-08	4.893156e+01	1.623429e+03
1.370000e-06	6.877718e-06	2.481100e-08	4.948094e+01	1.627952e+03
1.380000e-06	6.951445e-06	2.488038e-08	5.001135e+01	1.632455e+03
1.390000e-06	7.022533e-06	2.494838e-08	5.052279e+01	1.636978e+03
1.400000e-06	7.091221e-06	2.501399e-08	5.101695e+01	1.641515e+03
1.410000e-06	7.157388e-06	2.507602e-08	5.149299e+01	1.646017e+03
1.420000e-06	7.220946e-06	2.513436e-08	5.195025e+01	1.650403e+03
1.430000e-06	7.282073e-06	2.518939e-08	5.239002e+01	1.654576e+03
1.440000e-06	7.340717e-06	2.524089e-08	5.281192e+01	1.658438e+03
1.450000e-06	7.396721e-06	2.528909e-08	5.321484e+01	1.661914e+03
1.460000e-06	7.449990e-06	2.533507e-08	5.359808e+01	1.664954e+03
1.470000e-06	7.500247e-06	2.537737e-08	5.395965e+01	1.667552e+03
1.480000e-06	7.547519e-06	2.541591e-08	5.429974e+01	1.669739e+03
1.490000e-06	7.592167e-06	2.545139e-08	5.462095e+01	1.671579e+03
1.500000e-06	7.634146e-06	2.548452e-08	5.492297e+01	1.673161e+03
1.510000e-06	7.673276e-06	2.551377e-08	5.520448e+01	1.674580e+03
1.520000e-06	7.709773e-06	2.553995e-08	5.546706e+01	1.675925e+03
1.530000e-06	7.743622e-06	2.556319e-08	5.571058e+01	1.677260e+03
1.540000e-06	7.774639e-06	2.558415e-08	5.593373e+01	1.678621e+03
1.550000e-06	7.802979e-06	2.560215e-08	5.613762e+01	1.680007e+03
1.560000e-06	7.828511e-06	2.561638e-08	5.632130e+01	1.681383e+03
1.570000e-06	7.851088e-06	2.562946e-08	5.648373e+01	1.682687e+03
1.580000e-06	7.870937e-06	2.564118e-08	5.662654e+01	1.683845e+03
1.590000e-06	7.888033e-06	2.565112e-08	5.674953e+01	1.684778e+03
1.600000e-06	7.902166e-06	2.565917e-08	5.685121e+01	1.685427e+03
1.610000e-06	7.913210e-06	2.566451e-08	5.693066e+01	1.685752e+03
1.620000e-06	7.921169e-06	2.566616e-08	5.698792e+01	1.685747e+03
1.630000e-06	7.926310e-06	2.566669e-08	5.702491e+01	1.685440e+03
1.640000e-06	7.928616e-06	2.566694e-08	5.704150e+01	1.684887e+03
1.650000e-06	7.928062e-06	2.566603e-08	5.703751e+01	1.684161e+03
1.660000e-06	7.924920e-06	2.565540e-08	5.701491e+01	1.683344e+03
1.670000e-06	7.919154e-06	2.564896e-08	5.697342e+01	1.682511e+03
1.680000e-06	7.910699e-06	2.564258e-08	5.691259e+01	1.681716e+03
1.690000e-06	7.899600e-06	2.563049e-08	5.683274e+01	1.680987e+03
1.700000e-06	7.885699e-06	2.561714e-08	5.673274e+01	1.680319e+03
1.710000e-06	7.869133e-06	2.560912e-08	5.661356e+01	1.679676e+03
1.720000e-06	7.850230e-06	2.560497e-08	5.647756e+01	1.678997e+03
1.730000e-06	7.828987e-06	2.556027e-08	5.632473e+01	1.678208e+03
1.740000e-06	7.804818e-06	2.546860e-08	5.615084e+01	1.677237e+03
1.750000e-06	7.777044e-06	2.547943e-08	5.595103e+01	1.676019e+03
1.760000e-06	7.745693e-06	2.548414e-08	5.572548e+01	1.674517e+03
1.770000e-06	7.711564e-06	2.544615e-08	5.547995e+01	1.672718e+03
1.780000e-06	7.675243e-06	2.545956e-08	5.521864e+01	1.670644e+03
1.790000e-06	7.636700e-06	2.552860e-08	5.494134e+01	1.668339e+03
1.800000e-06	7.596210e-06	2.541626e-08	5.465004e+01	1.665867e+03
1.810000e-06	7.553561e-06	2.534773e-08	5.434321e+01	1.663296e+03
1.820000e-06	7.508171e-06	2.540542e-08	5.401666e+01	1.660685e+03
1.830000e-06	7.460169e-06	2.524945e-08	5.367131e+01	1.658075e+03
1.840000e-06	7.409326e-06	2.529181e-08	5.330553e+01	1.655478e+03
1.850000e-06	7.355397e-06	2.524021e-08	5.291754e+01	1.652873e+03
1.860000e-06	7.298696e-06	2.516597e-08	5.250961e+01	1.650210e+03
1.870000e-06	7.239398e-06	2.516430e-08	5.208300e+01	1.647415e+03
1.880000e-06	7.177527e-06	2.502224e-08	5.163788e+01	1.644403e+03
1.890000e-06	7.112837e-06	2.505970e-08	5.117247e+01	1.641090e+03
1.900000e-06	7.045372e-06	2.495766e-08	5.068710e+01	1.637411e+03
1.910000e-06	6.975231e-06	2.488036e-08	5.018248e+01	1.633324e+03
1.920000e-06	6.902288e-06	2.485305e-08	4.965770e+01	1.628822e+03
1.930000e-06	6.826669e-06	2.474011e-08	4.911367e+01	1.623932e+03
1.940000e-06	6.748331e-06	2.471732e-08	4.855008e+01	1.618713e+03
1.950000e-06	6.667402e-06	2.460568e-08	4.796784e+01	1.613240e+03
1.960000e-06	6.584031e-06	2.457086e-08	4.736804e+01	1.607595e+03
1.970000e-06	6.498224e-06	2.446823e-08	4.675071e+01	1.601851e+03
1.980000e-06	6.410036e-06	2.434743e-08	4.611625e+01	1.596055e+03
1.990000e-06	6.319573e-06	2.428467e-08	4.546543e+01	1.590223e+03
2.000000e-06	6.226958e-06	2.417672e-08	4.479912e+01	1.584330e+03
2.010000e-06	6.132061e-06	2.410617e-08	4.411639e+01	1.578312e+03
2.020000e-06	6.034953e-06	2.398345e-08	4.341776e+01	1.572078e+03
2.030000e-06	5.935746e-06	2.388480e-08	4.270403e+01	1.565520e+03
2.040000e-06	5.834419e-06	2.375464e-08	4.197505e+01	1.558528e+03
2.050000e-06	5.730938e-06	2.363552e-08	4.123056e+01	1.551011e+03
2.060000e-06	5.625434e-06	2.351957e-08	4.047152e+01	1.542906e+03
2.070000e-06	5.518092e-06	2.339429e-08	3.969927e+01	1.534191e+03
2.080000e-06	5.408916e-06	2.326753e-08	3.891381e+01	1.524884e+03
2.090000e-06	5.297768e-06	2.311509e-08	3.811417e+01	1.515042e+03
2.100000e-06	5.184561e-06	2.296923e-08	3.729971e+01	1.504745e+03
2.110000e-06	5.069433e-06	2.281066e-08	3.647144e+01	1.494085e+03
2.120000e-06	4.952353e-06	2.266367e-08	3.562912e+01	1.483139e+03
2.130000e-06	4.833342e-06	2.249708e-08	3.477291e+01	1.471961e+03
2.140000e-06	4.712480e-06	2.232386e-08	3.390338e+01	1.460556e+03
2.150000e-06	4.589938e-06	2.213423e-08	3.302177e+01	1.448885e+03
2.160000e-06	4.465773e-06	2.194053e-08	3.212848e+01	1.436853e+03
2.170000e-06	4.339937e-06	2.173814e-08	3.122317e+01	1.424327e+03
2.180000e-06	4.212547e-06	2.153224e-08	3.030667e+01	1.411149e+03
2.190000e-06	4.083585e-06	2.131776e-08	2.937888e+01	1.397154e+03
2.200000e-06	3.953123e-06	2.108652e-08	2.844028e+01	1.382194e+03
2.210000e-06	3.821124e-06	2.084127e-08	2.749063e+01	1.366161e+03
2.220000e-06	3.687652e-06	2.058085e-08	2.653038e+01	1.348995e+03
2.230000e-06	3.552854e-06	2.031324e-08	2.556059e+01	1.330691e+03
2.240000e-06	3.416762e-06	2.002894e-08	2.458149e+01	1.311296e+03
2.250000e-06	3.279400e-06	1.973539e-08	2.359326e+01	1.290890e+03
2.260000e-06	3.140752e-06	1.942768e-08	2.259577e+01	1.269563e+03
2.270000e-06	3.000854e-06	1.910464e-08	2.158929e+01	1.247385e+03
2.280000e-06	2.859782e-06	1.875863e-08	2.057437e+01	1.224377e+03
2.290000e-06	2.717642e-06	1.839212e-08	1.955175e+01	1.200487e+03
2.300000e-06	2.574482e-06	1.800299e-08	1.852181e+01	1.175565e+03
2.310000e-06	2.430331e-06	1.758967e-08	1.748473e+01	1.149365e+03
2.320000e-06	2.285318e-06	1.714968e-08	1.644145e+01	1.121551e+03
2.330000e-06	2.139604e-06	1.668093e-08	1.539313e+01	1.091716e+03
2.340000e-06	1.993283e-06	1.617789e-08	1.434044e+01	1.059416e+03
2.350000e-06	1.846286e-06	1.563378e-08	1.328289e+01	1.024216e+03
2.360000e-06	1.698550e-06	1.504853e-08	1.222002e+01	9.857270e+02
2.370000e-06	1.550193e-06	1.441930e-08	1.115268e+01	9.436479e+02
2.380000e-06	1.401380e-06	1.374335e-08	1.008207e+01	8.977985e+02
2.390000e-06	1.252171e-06	1.301745e-08	9.008599e+00	8.481351e+02
2.400000e-06	1.102533e-06	1.223287e-08	7.932046e+00	7.947527e+02
2.410000e-06	9.524844e-07	1.138483e-08	6.852537e+00	7.378694e+02
2.420000e-06	8.020584e-07	1.047495e-08	5.770315e+00	6.777970e+02
2.430000e-06	6.514050e-07	9.506587e-09	4.686457e+00	6.149009e+02
2.440000e-06	5.005604e-07	8.484783e-09	3.601223e+00	5.495550e+02
2.450000e-06	3.495085e-07	7.417538e-09	2.514498e+00	4.820987e+02
2.460000e-06	1.983575e-07	6.319183e-09	1.427060e+00	4.128024e+02
2.470000e-06	4.707701e-08	5.202615e-09	3.386901e-01	3.418462e+02
2.480000e-06	-1.042249e-07	4.077122e-09	-7.498341e-01	2.693167e+02
2.490000e-06	-2.554315e-07	2.947835e-09	-1.837672e+00	1.952209e+02
2.500000e-06	-4.065933e-07	1.816991e-09	-2.925187e+00	1.195184e+02
2.510000e-06	-5.576799e-07	6.793588e-10	-4.012162e+00	4.216478e+01
2.520000e-06	-7.086246e-07	-4.766890e-10	-5.098116e+00	-3.683758e+01
2.530000e-06	-8.593062e-07	-1.661670e-09	-6.182178e+00	-1.173898e+02
2.540000e-06	-1.009655e-06	-2.886268e-09	-7.263843e+00	-1.992553e+02
2.550000e-06	-1.159642e-06	-4.152293e-09	-8.342910e+00	-2.820329e+02
2.560000e-06	-1.309179e-06	-5.450050e-09	-9.418738e+00	-3.651508e+02
2.570000e-06	-1.458251e-06	-6.762561e-09	-1.049121e+01	-4.478808e+02
2.580000e-06	-1.606864e-06	-8.062818e-09	-1.156040e+01	-5.293759e+02
2.590000e-06	-1.754903e-06	-9.320982e-09	-1.262545e+01	-6.087238e+02
2.600000e-06	-1.902249e-06	-1.051207e-08	-1.368551e+01	-6.850136e+02
2.610000e-06	-2.048883e-06	-1.161991e-08	-1.474045e+01	-7.574063e+02
2.620000e-06	-2.194810e-06	-1.263719e-08	-1.579030e+01	-8.252009e+02
2.630000e-06	-2.339939e-06	-1.356339e-08	-1.683441e+01	-8.878893e+02
2.640000e-06	-2.484145e-06	-1.440181e-08	-1.787189e+01	-9.451927e+02
2.650000e-06	-2.627313e-06	-1.516459e-08	-1.890190e+01	-9.970745e+02
2.660000e-06	-2.769389e-06	-1.586152e-08	-1.992404e+01	-1.043731e+03
2.670000e-06	-2.910397e-06	-1.649996e-08	-2.093851e+01	-1.085560e+03
2.680000e-06	-3.050206e-06	-1.708721e-08	-2.194435e+01	-1.123108e+03
2.690000e-06	-3.188698e-06	-1.762869e-08	-2.294071e+01	-1.157013e+03
2.700000e-06	-3.326001e-06	-1.812722e-08	-2.392853e+01	-1.187936e+03
2.710000e-06	-3.462094e-06	-1.858667e-08	-2.490763e+01	-1.216499e+03
2.720000e-06	-3.596858e-06	-1.901370e-08	-2.587717e+01	-1.243241e+03
2.730000e-06	-3.730376e-06	-1.941286e-08	-2.683776e+01	-1.268574e+03
2.740000e-06	-3.862590e-06	-1.978624e-08	-2.778895e+01	-1.292774e+03
2.750000e-06	-3.993376e-06	-2.013407e-08	-2.872988e+01	-1.315983e+03
2.760000e-06	-4.122842e-06	-2.046081e-08	-2.966130e+01	-1.338227e+03
2.770000e-06	-4.250938e-06	-2.077041e-08	-3.058287e+01	-1.359447e+03
2.780000e-06	-4.377531e-06	-2.106469e-08	-3.149363e+01	-1.379544e+03
2.790000e-06	-4.502604e-06	-2.134241e-08	-3.239346e+01	-1.398412e+03
2.800000e-06	-4.626026e-06	-2.160207e-08	-3.328140e+01	-1.415974e+03
2.810000e-06	-4.747824e-06	-2.184648e-08	-3.415766e+01	-1.432209e+03
2.820000e-06	-4.867953e-06	-2.207693e-08	-3.502192e+01	-1.447160e+03
2.830000e-06	-4.986157e-06	-2.229598e-08	-3.587232e+01	-1.460939e+03
2.840000e-06	-5.102354e-06	-2.250468e-08	-3.670829e+01	-1.473705e+03
2.850000e-06	-5.216465e-06	-2.270295e-08	-3.752924e+01	-1.485653e+03
2.860000e-06	-5.328474e-06	-2.289022e-08	-3.833508e+01	-1.496979e+03
2.870000e-06	-5.438482e-06	-2.306536e-08	-3.912652e+01	-1.507859e+03
2.880000e-06	-5.546607e-06	-2.323216e-08	-3.990441e+01	-1.518424e+03
2.890000e-06	-5.652921e-06	-2.339037e-08	-4.066928e+01	-1.528750e+03
2.900000e-06	-5.757183e-06	-2.353945e-08	-4.141938e+01	-1.538850e+03
2.910000e-06	-5.859188e-06	-2.368020e-08	-4.215324e+01	-1.548682e+03
2.920000e-06	-5.959038e-06	-2.381370e-08	-4.287160e+01	-1.558162e+03
2.930000e-06	-6.056836e-06	-2.394238e-08	-4.357520e+01	-1.567186e+03
2.940000e-06	-6.152464e-06	-2.406242e-08	-4.426318e+01	-1.575649e+03
