# Temperatura_=_75.91
# Concentracion g/m^3_=_28370.0
# C_Vs_to_Am_M_A/Vsm_=_65563218390.804596
# pendiente_HvsI_1/m_=_3716.3
# ordenada_HvsI_A/m_=_1297.0
# frecuencia_Hz_=_302510.8199194854

Tiempo_(s)	Campo_(V.s)	Magnetizacion_(V.s)	Campo_(kA/m)	Magnetizacion_(A/m)
0.000000e+00	-7.874316e-06	-2.810496e-08	-5.684520e+01	-1.839968e+03
1.000000e-08	-7.870356e-06	-2.810185e-08	-5.681661e+01	-1.839118e+03
2.000000e-08	-7.863927e-06	-2.809024e-08	-5.677020e+01	-1.838263e+03
3.000000e-08	-7.854824e-06	-2.807775e-08	-5.670448e+01	-1.837440e+03
4.000000e-08	-7.842910e-06	-2.806207e-08	-5.661847e+01	-1.836654e+03
5.000000e-08	-7.828078e-06	-2.804229e-08	-5.651140e+01	-1.835880e+03
6.000000e-08	-7.810521e-06	-2.801718e-08	-5.638466e+01	-1.835063e+03
7.000000e-08	-7.790798e-06	-2.798609e-08	-5.624227e+01	-1.834132e+03
8.000000e-08	-7.768776e-06	-2.796093e-08	-5.608329e+01	-1.833011e+03
9.000000e-08	-7.743825e-06	-2.801536e-08	-5.590318e+01	-1.831631e+03
1.000000e-07	-7.715669e-06	-2.798885e-08	-5.569992e+01	-1.829946e+03
1.100000e-07	-7.684631e-06	-2.789698e-08	-5.547585e+01	-1.827936e+03
1.200000e-07	-7.650760e-06	-2.785741e-08	-5.523133e+01	-1.825615e+03
1.300000e-07	-7.614136e-06	-2.782891e-08	-5.496694e+01	-1.823023e+03
1.400000e-07	-7.575287e-06	-2.776346e-08	-5.468649e+01	-1.820226e+03
1.500000e-07	-7.534310e-06	-2.767161e-08	-5.439067e+01	-1.817295e+03
1.600000e-07	-7.490928e-06	-2.773263e-08	-5.407749e+01	-1.814300e+03
1.700000e-07	-7.444926e-06	-2.768731e-08	-5.374540e+01	-1.811291e+03
1.800000e-07	-7.396240e-06	-2.753740e-08	-5.339394e+01	-1.808294e+03
1.900000e-07	-7.344633e-06	-2.758390e-08	-5.302138e+01	-1.805295e+03
2.000000e-07	-7.290087e-06	-2.750569e-08	-5.262761e+01	-1.802251e+03
2.100000e-07	-7.232893e-06	-2.742038e-08	-5.221472e+01	-1.799087e+03
2.200000e-07	-7.173092e-06	-2.736624e-08	-5.178301e+01	-1.795713e+03
2.300000e-07	-7.110737e-06	-2.725014e-08	-5.133287e+01	-1.792032e+03
2.400000e-07	-7.045689e-06	-2.724941e-08	-5.086329e+01	-1.787962e+03
2.500000e-07	-6.977937e-06	-2.717462e-08	-5.037418e+01	-1.783442e+03
2.600000e-07	-6.907602e-06	-2.710009e-08	-4.986643e+01	-1.778448e+03
2.700000e-07	-6.834460e-06	-2.699966e-08	-4.933841e+01	-1.772993e+03
2.800000e-07	-6.758558e-06	-2.693456e-08	-4.879047e+01	-1.767127e+03
2.900000e-07	-6.679910e-06	-2.684844e-08	-4.822270e+01	-1.760924e+03
3.000000e-07	-6.598543e-06	-2.671168e-08	-4.763531e+01	-1.754476e+03
3.100000e-07	-6.514912e-06	-2.666414e-08	-4.703158e+01	-1.747869e+03
3.200000e-07	-6.429176e-06	-2.658178e-08	-4.641264e+01	-1.741173e+03
3.300000e-07	-6.341130e-06	-2.646981e-08	-4.577703e+01	-1.734425e+03
3.400000e-07	-6.250675e-06	-2.631746e-08	-4.512403e+01	-1.727621e+03
3.500000e-07	-6.157952e-06	-2.621772e-08	-4.445466e+01	-1.720716e+03
3.600000e-07	-6.063085e-06	-2.613119e-08	-4.376980e+01	-1.713629e+03
3.700000e-07	-5.965957e-06	-2.599116e-08	-4.306863e+01	-1.706253e+03
3.800000e-07	-5.866579e-06	-2.586243e-08	-4.235121e+01	-1.698469e+03
3.900000e-07	-5.765245e-06	-2.573841e-08	-4.161968e+01	-1.690170e+03
4.000000e-07	-5.661931e-06	-2.560114e-08	-4.087385e+01	-1.681271e+03
4.100000e-07	-5.556498e-06	-2.543430e-08	-4.011272e+01	-1.671724e+03
4.200000e-07	-5.449094e-06	-2.529914e-08	-3.933737e+01	-1.661526e+03
4.300000e-07	-5.339837e-06	-2.515252e-08	-3.854863e+01	-1.650717e+03
4.400000e-07	-5.228628e-06	-2.498029e-08	-3.774580e+01	-1.639368e+03
4.500000e-07	-5.115387e-06	-2.480633e-08	-3.692831e+01	-1.627572e+03
4.600000e-07	-5.000233e-06	-2.463863e-08	-3.609700e+01	-1.615420e+03
4.700000e-07	-4.883226e-06	-2.445367e-08	-3.525233e+01	-1.602984e+03
4.800000e-07	-4.764401e-06	-2.425447e-08	-3.439452e+01	-1.590297e+03
4.900000e-07	-4.643791e-06	-2.406007e-08	-3.352383e+01	-1.577344e+03
5.000000e-07	-4.521416e-06	-2.384524e-08	-3.264040e+01	-1.564057e+03
5.100000e-07	-4.397345e-06	-2.361122e-08	-3.174472e+01	-1.550319e+03
5.200000e-07	-4.271731e-06	-2.337209e-08	-3.083791e+01	-1.535976e+03
5.300000e-07	-4.144621e-06	-2.313897e-08	-2.992029e+01	-1.520858e+03
5.400000e-07	-4.016023e-06	-2.288213e-08	-2.899193e+01	-1.504802e+03
5.500000e-07	-3.885913e-06	-2.261158e-08	-2.805266e+01	-1.487671e+03
5.600000e-07	-3.754249e-06	-2.233665e-08	-2.710217e+01	-1.469373e+03
5.700000e-07	-3.621156e-06	-2.205311e-08	-2.614136e+01	-1.449876e+03
5.800000e-07	-3.486679e-06	-2.174766e-08	-2.517056e+01	-1.429199e+03
5.900000e-07	-3.350838e-06	-2.142425e-08	-2.418992e+01	-1.407409e+03
6.000000e-07	-3.213729e-06	-2.108921e-08	-2.320012e+01	-1.384596e+03
6.100000e-07	-3.075373e-06	-2.073359e-08	-2.220131e+01	-1.360850e+03
6.200000e-07	-2.935704e-06	-2.036058e-08	-2.119304e+01	-1.336224e+03
6.300000e-07	-2.794697e-06	-1.996854e-08	-2.017510e+01	-1.310708e+03
6.400000e-07	-2.652525e-06	-1.956052e-08	-1.914875e+01	-1.284205e+03
6.500000e-07	-2.509363e-06	-1.912559e-08	-1.811525e+01	-1.256519e+03
6.600000e-07	-2.365362e-06	-1.866214e-08	-1.707570e+01	-1.227355e+03
6.700000e-07	-2.220548e-06	-1.816708e-08	-1.603028e+01	-1.196329e+03
6.800000e-07	-2.074926e-06	-1.764033e-08	-1.497902e+01	-1.163004e+03
6.900000e-07	-1.928618e-06	-1.708225e-08	-1.392282e+01	-1.126918e+03
7.000000e-07	-1.781704e-06	-1.647970e-08	-1.286224e+01	-1.087634e+03
7.100000e-07	-1.634267e-06	-1.583051e-08	-1.179788e+01	-1.044775e+03
7.200000e-07	-1.486291e-06	-1.513372e-08	-1.072963e+01	-9.980681e+02
7.300000e-07	-1.337829e-06	-1.438461e-08	-9.657875e+00	-9.473630e+02
7.400000e-07	-1.188983e-06	-1.357490e-08	-8.583349e+00	-8.926450e+02
7.500000e-07	-1.039775e-06	-1.270640e-08	-7.506206e+00	-8.340285e+02
7.600000e-07	-8.902352e-07	-1.177702e-08	-6.426666e+00	-7.717355e+02
7.700000e-07	-7.404191e-07	-1.078034e-08	-5.345133e+00	-7.060619e+02
7.800000e-07	-5.903704e-07	-9.715018e-09	-4.261922e+00	-6.373366e+02
7.900000e-07	-4.401451e-07	-8.590905e-09	-3.177436e+00	-5.658800e+02
8.000000e-07	-2.897037e-07	-7.418971e-09	-2.091390e+00	-4.919671e+02
8.100000e-07	-1.390536e-07	-6.208881e-09	-1.003837e+00	-4.158030e+02
8.200000e-07	1.170208e-08	-4.981873e-09	8.447806e-02	-3.375135e+02
8.300000e-07	1.625326e-07	-3.751298e-09	1.173333e+00	-2.571536e+02
8.400000e-07	3.133055e-07	-2.519272e-09	2.261773e+00	-1.747328e+02
8.500000e-07	4.639373e-07	-1.275698e-09	3.349193e+00	-9.025465e+01
8.600000e-07	6.144559e-07	-1.363520e-11	4.435797e+00	-3.764843e+00
8.700000e-07	7.647825e-07	1.278328e-09	5.521015e+00	8.459995e+01
8.800000e-07	9.147994e-07	2.609967e-09	6.603996e+00	1.745687e+02
8.900000e-07	1.064477e-06	3.986305e-09	7.684527e+00	2.657061e+02
9.000000e-07	1.213773e-06	5.401001e-09	8.762304e+00	3.574012e+02
9.100000e-07	1.362675e-06	6.834538e-09	9.837239e+00	4.488782e+02
9.200000e-07	1.511206e-06	8.267753e-09	1.090949e+01	5.392293e+02
9.300000e-07	1.659254e-06	9.664816e-09	1.197826e+01	6.274668e+02
9.400000e-07	1.806704e-06	1.099458e-08	1.304271e+01	7.125899e+02
9.500000e-07	1.953506e-06	1.223503e-08	1.410249e+01	7.936581e+02
9.600000e-07	2.099575e-06	1.337470e-08	1.515697e+01	8.698628e+02
9.700000e-07	2.244846e-06	1.441073e-08	1.620569e+01	9.405892e+02
9.800000e-07	2.389301e-06	1.534841e-08	1.724852e+01	1.005461e+03
9.900000e-07	2.532884e-06	1.620336e-08	1.828506e+01	1.064360e+03
1.000000e-06	2.675464e-06	1.698208e-08	1.931434e+01	1.117429e+03
1.010000e-06	2.816936e-06	1.769326e-08	2.033564e+01	1.165036e+03
1.020000e-06	2.957263e-06	1.834247e-08	2.134867e+01	1.207734e+03
1.030000e-06	3.096334e-06	1.894096e-08	2.235264e+01	1.246195e+03
1.040000e-06	3.234111e-06	1.949492e-08	2.334726e+01	1.281139e+03
1.050000e-06	3.370671e-06	2.000988e-08	2.433310e+01	1.313272e+03
1.060000e-06	3.506009e-06	2.049020e-08	2.531011e+01	1.343219e+03
1.070000e-06	3.640025e-06	2.093797e-08	2.627758e+01	1.371486e+03
1.080000e-06	3.772712e-06	2.135680e-08	2.723545e+01	1.398434e+03
1.090000e-06	3.904059e-06	2.174622e-08	2.818365e+01	1.424272e+03
1.100000e-06	4.033985e-06	2.211130e-08	2.912160e+01	1.449074e+03
1.110000e-06	4.162488e-06	2.245559e-08	3.004927e+01	1.472811e+03
1.120000e-06	4.289487e-06	2.278501e-08	3.096608e+01	1.495387e+03
1.130000e-06	4.415022e-06	2.309406e-08	3.187233e+01	1.516684e+03
1.140000e-06	4.539189e-06	2.338085e-08	3.276870e+01	1.536601e+03
1.150000e-06	4.661745e-06	2.365112e-08	3.365344e+01	1.555086e+03
1.160000e-06	4.782616e-06	2.390769e-08	3.452602e+01	1.572156e+03
1.170000e-06	4.901773e-06	2.415008e-08	3.538622e+01	1.587899e+03
1.180000e-06	5.019091e-06	2.438094e-08	3.623314e+01	1.602469e+03
1.190000e-06	5.134528e-06	2.460283e-08	3.706649e+01	1.616065e+03
1.200000e-06	5.248015e-06	2.481516e-08	3.788576e+01	1.628903e+03
1.210000e-06	5.359501e-06	2.501305e-08	3.869058e+01	1.641188e+03
1.220000e-06	5.469061e-06	2.519922e-08	3.948150e+01	1.653091e+03
1.230000e-06	5.576785e-06	2.537874e-08	4.025917e+01	1.664725e+03
1.240000e-06	5.682518e-06	2.554817e-08	4.102247e+01	1.676138e+03
1.250000e-06	5.786069e-06	2.570950e-08	4.177001e+01	1.687313e+03
1.260000e-06	5.887508e-06	2.586237e-08	4.250230e+01	1.698179e+03
1.270000e-06	5.986754e-06	2.600889e-08	4.321876e+01	1.708631e+03
1.280000e-06	6.083694e-06	2.615050e-08	4.391858e+01	1.718550e+03
1.290000e-06	6.178403e-06	2.628609e-08	4.460229e+01	1.727832e+03
1.300000e-06	6.270931e-06	2.641665e-08	4.527025e+01	1.736404e+03
1.310000e-06	6.361224e-06	2.653972e-08	4.592209e+01	1.744239e+03
1.320000e-06	6.449145e-06	2.665552e-08	4.655679e+01	1.751365e+03
1.330000e-06	6.534860e-06	2.676375e-08	4.717558e+01	1.757858e+03
1.340000e-06	6.618383e-06	2.686429e-08	4.777854e+01	1.763833e+03
1.350000e-06	6.699476e-06	2.695585e-08	4.836395e+01	1.769423e+03
1.360000e-06	6.778106e-06	2.704003e-08	4.893159e+01	1.774765e+03
1.370000e-06	6.854256e-06	2.712340e-08	4.948132e+01	1.779976e+03
1.380000e-06	6.927818e-06	2.720499e-08	5.001237e+01	1.785136e+03
1.390000e-06	6.998786e-06	2.728310e-08	5.052469e+01	1.790283e+03
1.400000e-06	7.067272e-06	2.735629e-08	5.101910e+01	1.795407e+03
1.410000e-06	7.133190e-06	2.742646e-08	5.149496e+01	1.800457e+03
1.420000e-06	7.196530e-06	2.749332e-08	5.195222e+01	1.805351e+03
1.430000e-06	7.257512e-06	2.755571e-08	5.239245e+01	1.809996e+03
1.440000e-06	7.315956e-06	2.761412e-08	5.281436e+01	1.814301e+03
1.450000e-06	7.371743e-06	2.766843e-08	5.321709e+01	1.818195e+03
1.460000e-06	7.424839e-06	2.771976e-08	5.360039e+01	1.821642e+03
1.470000e-06	7.474893e-06	2.776702e-08	5.396174e+01	1.824641e+03
1.480000e-06	7.521948e-06	2.781323e-08	5.430143e+01	1.827232e+03
1.490000e-06	7.566410e-06	2.785755e-08	5.462240e+01	1.829484e+03
1.500000e-06	7.608222e-06	2.789646e-08	5.492424e+01	1.831484e+03
1.510000e-06	7.647227e-06	2.793045e-08	5.520582e+01	1.833323e+03
1.520000e-06	7.683581e-06	2.796273e-08	5.546827e+01	1.835080e+03
1.530000e-06	7.717257e-06	2.799202e-08	5.571138e+01	1.836812e+03
1.540000e-06	7.748154e-06	2.801657e-08	5.593443e+01	1.838539e+03
1.550000e-06	7.776388e-06	2.803875e-08	5.613825e+01	1.840248e+03
1.560000e-06	7.801805e-06	2.805887e-08	5.632174e+01	1.841896e+03
1.570000e-06	7.824289e-06	2.807517e-08	5.648405e+01	1.843415e+03
1.580000e-06	7.844074e-06	2.808633e-08	5.662688e+01	1.844728e+03
1.590000e-06	7.861092e-06	2.809558e-08	5.674973e+01	1.845762e+03
1.600000e-06	7.875125e-06	2.810565e-08	5.685104e+01	1.846465e+03
1.610000e-06	7.886083e-06	2.811240e-08	5.693015e+01	1.846808e+03
1.620000e-06	7.894018e-06	2.811482e-08	5.698742e+01	1.846797e+03
1.630000e-06	7.899151e-06	2.811660e-08	5.702448e+01	1.846472e+03
1.640000e-06	7.901508e-06	2.811884e-08	5.704150e+01	1.845896e+03
1.650000e-06	7.900987e-06	2.811907e-08	5.703774e+01	1.845148e+03
1.660000e-06	7.897829e-06	2.810537e-08	5.701494e+01	1.844308e+03
1.670000e-06	7.892016e-06	2.809781e-08	5.697298e+01	1.843447e+03
1.680000e-06	7.883550e-06	2.808911e-08	5.691186e+01	1.842611e+03
1.690000e-06	7.872572e-06	2.807594e-08	5.683261e+01	1.841813e+03
1.700000e-06	7.858735e-06	2.806210e-08	5.673272e+01	1.841038e+03
1.710000e-06	7.842194e-06	2.805369e-08	5.661331e+01	1.840238e+03
1.720000e-06	7.823398e-06	2.805193e-08	5.647762e+01	1.839346e+03
1.730000e-06	7.802191e-06	2.800012e-08	5.632452e+01	1.838284e+03
1.740000e-06	7.778020e-06	2.788646e-08	5.615003e+01	1.836983e+03
1.750000e-06	7.750361e-06	2.790305e-08	5.595036e+01	1.835386e+03
1.760000e-06	7.719178e-06	2.791717e-08	5.572525e+01	1.833467e+03
1.770000e-06	7.685179e-06	2.786942e-08	5.547981e+01	1.831229e+03
1.780000e-06	7.648998e-06	2.786273e-08	5.521861e+01	1.828707e+03
1.790000e-06	7.610562e-06	2.792426e-08	5.494114e+01	1.825959e+03
1.800000e-06	7.570137e-06	2.777579e-08	5.464931e+01	1.823056e+03
1.810000e-06	7.527645e-06	2.770525e-08	5.434256e+01	1.820071e+03
1.820000e-06	7.482458e-06	2.779477e-08	5.401635e+01	1.817061e+03
1.830000e-06	7.434631e-06	2.762033e-08	5.367108e+01	1.814057e+03
1.840000e-06	7.383951e-06	2.768445e-08	5.330522e+01	1.811060e+03
1.850000e-06	7.330243e-06	2.758781e-08	5.291750e+01	1.808033e+03
1.860000e-06	7.273814e-06	2.751951e-08	5.251013e+01	1.804911e+03
1.870000e-06	7.214814e-06	2.758374e-08	5.208421e+01	1.801604e+03
1.880000e-06	7.153252e-06	2.738557e-08	5.163979e+01	1.798018e+03
1.890000e-06	7.088805e-06	2.738884e-08	5.117454e+01	1.794064e+03
1.900000e-06	7.021590e-06	2.727123e-08	5.068931e+01	1.789675e+03
1.910000e-06	6.951693e-06	2.719917e-08	5.018472e+01	1.784815e+03
1.920000e-06	6.879025e-06	2.715452e-08	4.966013e+01	1.779486e+03
1.930000e-06	6.803768e-06	2.703046e-08	4.911684e+01	1.773728e+03
1.940000e-06	6.725780e-06	2.705231e-08	4.855384e+01	1.767611e+03
1.950000e-06	6.645224e-06	2.687673e-08	4.797230e+01	1.761221e+03
1.960000e-06	6.562258e-06	2.677532e-08	4.737336e+01	1.754650e+03
1.970000e-06	6.476884e-06	2.667739e-08	4.675705e+01	1.747971e+03
1.980000e-06	6.389102e-06	2.660031e-08	4.612334e+01	1.741234e+03
1.990000e-06	6.298971e-06	2.652216e-08	4.547268e+01	1.734447e+03
2.000000e-06	6.206670e-06	2.636524e-08	4.480635e+01	1.727576e+03
2.010000e-06	6.112101e-06	2.628886e-08	4.412365e+01	1.720549e+03
2.020000e-06	6.015316e-06	2.613379e-08	4.342495e+01	1.713265e+03
2.030000e-06	5.916453e-06	2.601116e-08	4.271125e+01	1.705608e+03
2.040000e-06	5.815518e-06	2.588346e-08	4.198260e+01	1.697464e+03
2.050000e-06	5.712446e-06	2.578312e-08	4.123852e+01	1.688740e+03
2.060000e-06	5.607306e-06	2.562650e-08	4.047951e+01	1.679379e+03
2.070000e-06	5.500299e-06	2.545306e-08	3.970702e+01	1.669363e+03
2.080000e-06	5.391429e-06	2.531198e-08	3.892107e+01	1.658720e+03
2.090000e-06	5.280608e-06	2.514776e-08	3.812105e+01	1.647514e+03
2.100000e-06	5.167853e-06	2.498500e-08	3.730707e+01	1.635834e+03
2.110000e-06	5.053194e-06	2.480292e-08	3.647934e+01	1.623773e+03
2.120000e-06	4.936587e-06	2.463561e-08	3.563754e+01	1.611410e+03
2.130000e-06	4.818057e-06	2.442561e-08	3.478186e+01	1.598792e+03
2.140000e-06	4.697612e-06	2.422625e-08	3.391237e+01	1.585918e+03
2.150000e-06	4.575471e-06	2.403080e-08	3.303062e+01	1.572734e+03
2.160000e-06	4.451731e-06	2.382711e-08	3.213733e+01	1.559137e+03
2.170000e-06	4.326309e-06	2.359227e-08	3.123191e+01	1.544982e+03
2.180000e-06	4.199289e-06	2.335207e-08	3.031494e+01	1.530101e+03
2.190000e-06	4.070674e-06	2.310822e-08	2.938646e+01	1.514326e+03
2.200000e-06	3.940614e-06	2.284794e-08	2.844755e+01	1.497512e+03
2.210000e-06	3.809068e-06	2.257636e-08	2.749791e+01	1.479551e+03
2.220000e-06	3.676042e-06	2.229326e-08	2.653759e+01	1.460395e+03
2.230000e-06	3.541701e-06	2.200015e-08	2.556777e+01	1.440047e+03
2.240000e-06	3.406058e-06	2.168110e-08	2.458855e+01	1.418565e+03
2.250000e-06	3.269149e-06	2.135467e-08	2.360020e+01	1.396033e+03
2.260000e-06	3.131031e-06	2.101357e-08	2.260312e+01	1.372544e+03
2.270000e-06	2.991648e-06	2.065642e-08	2.159690e+01	1.348164e+03
2.280000e-06	2.851017e-06	2.026920e-08	2.058168e+01	1.322906e+03
2.290000e-06	2.709326e-06	1.985928e-08	1.955880e+01	1.296699e+03
2.300000e-06	2.566625e-06	1.943135e-08	1.852863e+01	1.269375e+03
2.310000e-06	2.422939e-06	1.898337e-08	1.749135e+01	1.240666e+03
2.320000e-06	2.278354e-06	1.850306e-08	1.644758e+01	1.210214e+03
2.330000e-06	2.132999e-06	1.798579e-08	1.539826e+01	1.177590e+03
2.340000e-06	1.987032e-06	1.743332e-08	1.434451e+01	1.142337e+03
2.350000e-06	1.840456e-06	1.684333e-08	1.328637e+01	1.104006e+03
2.360000e-06	1.693178e-06	1.621204e-08	1.222316e+01	1.062200e+03
2.370000e-06	1.545295e-06	1.553604e-08	1.115558e+01	1.016611e+03
2.380000e-06	1.396961e-06	1.481078e-08	1.008475e+01	9.670538e+02
2.390000e-06	1.248239e-06	1.402370e-08	9.011121e+00	9.134740e+02
2.400000e-06	1.099129e-06	1.316831e-08	7.934683e+00	8.559507e+02
2.410000e-06	9.496294e-07	1.225056e-08	6.855436e+00	7.946784e+02
2.420000e-06	7.998783e-07	1.127460e-08	5.774373e+00	7.299356e+02
2.430000e-06	6.498911e-07	1.023476e-08	4.691606e+00	6.620463e+02
2.440000e-06	4.996249e-07	9.131788e-09	3.606825e+00	5.913373e+02
2.450000e-06	3.491935e-07	7.974104e-09	2.520851e+00	5.180998e+02
2.460000e-06	1.985983e-07	6.775536e-09	1.433694e+00	4.425605e+02
2.470000e-06	4.789459e-08	5.547263e-09	3.457542e-01	3.648678e+02
2.480000e-06	-1.027687e-07	4.303856e-09	-7.418940e-01	2.850950e+02
2.490000e-06	-2.534218e-07	3.059089e-09	-1.829469e+00	2.032611e+02
2.500000e-06	-4.040155e-07	1.809512e-09	-2.916614e+00	1.193668e+02
2.510000e-06	-5.544535e-07	5.476322e-10	-4.002636e+00	3.344056e+01
2.520000e-06	-7.047326e-07	-7.364970e-10	-5.087510e+00	-5.441171e+01
2.530000e-06	-8.548189e-07	-2.051949e-09	-6.170993e+00	-1.439611e+02
2.540000e-06	-1.004665e-06	-3.412968e-09	-7.252740e+00	-2.348214e+02
2.550000e-06	-1.154212e-06	-4.819592e-09	-8.332333e+00	-3.264316e+02
2.560000e-06	-1.303368e-06	-6.255572e-09	-9.409098e+00	-4.180608e+02
2.570000e-06	-1.452045e-06	-7.700099e-09	-1.048240e+01	-5.088342e+02
2.580000e-06	-1.600214e-06	-9.121407e-09	-1.155205e+01	-5.977805e+02
2.590000e-06	-1.747760e-06	-1.048662e-08	-1.261719e+01	-6.838956e+02
2.600000e-06	-1.894608e-06	-1.176866e-08	-1.367730e+01	-7.662139e+02
2.610000e-06	-2.040736e-06	-1.295181e-08	-1.473220e+01	-8.438825e+02
2.620000e-06	-2.186118e-06	-1.402876e-08	-1.578173e+01	-9.162257e+02
2.630000e-06	-2.330749e-06	-1.500385e-08	-1.682583e+01	-9.827956e+02
2.640000e-06	-2.474464e-06	-1.588914e-08	-1.786332e+01	-1.043400e+03
2.650000e-06	-2.617134e-06	-1.669727e-08	-1.889326e+01	-1.098108e+03
2.660000e-06	-2.758710e-06	-1.743642e-08	-1.991530e+01	-1.147229e+03
2.670000e-06	-2.899212e-06	-1.811389e-08	-2.092960e+01	-1.191267e+03
2.680000e-06	-3.038575e-06	-1.873641e-08	-2.193567e+01	-1.230867e+03
2.690000e-06	-3.176712e-06	-1.931144e-08	-2.293289e+01	-1.266745e+03
2.700000e-06	-3.313687e-06	-1.984339e-08	-2.392172e+01	-1.299615e+03
2.710000e-06	-3.449399e-06	-2.033457e-08	-2.490143e+01	-1.330131e+03
2.720000e-06	-3.583778e-06	-2.079230e-08	-2.587152e+01	-1.358837e+03
2.730000e-06	-3.716929e-06	-2.121925e-08	-2.683275e+01	-1.386136e+03
2.740000e-06	-3.848722e-06	-2.161841e-08	-2.778417e+01	-1.412280e+03
2.750000e-06	-3.979091e-06	-2.199547e-08	-2.872531e+01	-1.437379e+03
2.760000e-06	-4.108180e-06	-2.234948e-08	-2.965722e+01	-1.461431e+03
2.770000e-06	-4.235853e-06	-2.268189e-08	-3.057890e+01	-1.484352e+03
2.780000e-06	-4.362046e-06	-2.299578e-08	-3.148990e+01	-1.506028e+03
2.790000e-06	-4.486794e-06	-2.329219e-08	-3.239046e+01	-1.526349e+03
2.800000e-06	-4.609896e-06	-2.357173e-08	-3.327914e+01	-1.545247e+03
2.810000e-06	-4.731361e-06	-2.383588e-08	-3.415600e+01	-1.562718e+03
2.820000e-06	-4.851066e-06	-2.408629e-08	-3.502016e+01	-1.578829e+03
2.830000e-06	-4.968862e-06	-2.432446e-08	-3.587054e+01	-1.593718e+03
2.840000e-06	-5.084687e-06	-2.455205e-08	-3.670668e+01	-1.607572e+03
2.850000e-06	-5.198429e-06	-2.476951e-08	-3.752779e+01	-1.620607e+03
2.860000e-06	-5.310127e-06	-2.497627e-08	-3.833415e+01	-1.633033e+03
2.870000e-06	-5.419836e-06	-2.517047e-08	-3.912615e+01	-1.645033e+03
2.880000e-06	-5.527678e-06	-2.535336e-08	-3.990466e+01	-1.656738e+03
2.890000e-06	-5.633681e-06	-2.552789e-08	-4.066991e+01	-1.668215e+03
2.900000e-06	-5.737645e-06	-2.569278e-08	-4.142043e+01	-1.679465e+03
2.910000e-06	-5.839397e-06	-2.584779e-08	-4.215498e+01	-1.690431e+03
2.920000e-06	-5.938919e-06	-2.599635e-08	-4.287344e+01	-1.701015e+03
2.930000e-06	-6.036337e-06	-2.614011e-08	-4.357670e+01	-1.711101e+03
2.940000e-06	-6.131665e-06	-2.627677e-08	-4.426489e+01	-1.720576e+03
