# Temperatura_=_84.81
# Concentracion g/m^3_=_28370.0
# C_Vs_to_Am_M_A/Vsm_=_65563218390.804596
# pendiente_HvsI_1/m_=_3716.3
# ordenada_HvsI_A/m_=_1297.0
# frecuencia_Hz_=_302511.80066164385

Tiempo_(s)	Campo_(V.s)	Magnetizacion_(V.s)	Campo_(kA/m)	Magnetizacion_(A/m)
0.000000e+00	-7.850186e-06	-2.930072e-08	-5.683975e+01	-1.918352e+03
1.000000e-08	-7.846115e-06	-2.929530e-08	-5.681028e+01	-1.917495e+03
2.000000e-08	-7.839475e-06	-2.928447e-08	-5.676220e+01	-1.916645e+03
3.000000e-08	-7.830209e-06	-2.927082e-08	-5.669511e+01	-1.915832e+03
4.000000e-08	-7.818078e-06	-2.925508e-08	-5.660727e+01	-1.915051e+03
5.000000e-08	-7.802944e-06	-2.923522e-08	-5.649769e+01	-1.914263e+03
6.000000e-08	-7.785167e-06	-2.921095e-08	-5.636898e+01	-1.913406e+03
7.000000e-08	-7.765234e-06	-2.917985e-08	-5.622465e+01	-1.912399e+03
8.000000e-08	-7.742971e-06	-2.916274e-08	-5.606345e+01	-1.911162e+03
9.000000e-08	-7.717769e-06	-2.918137e-08	-5.588098e+01	-1.909626e+03
1.000000e-07	-7.689430e-06	-2.915136e-08	-5.567579e+01	-1.907748e+03
1.100000e-07	-7.658212e-06	-2.908806e-08	-5.544975e+01	-1.905515e+03
1.200000e-07	-7.624192e-06	-2.904243e-08	-5.520343e+01	-1.902947e+03
1.300000e-07	-7.587524e-06	-2.900047e-08	-5.493793e+01	-1.900095e+03
1.400000e-07	-7.548531e-06	-2.893600e-08	-5.465560e+01	-1.897030e+03
1.500000e-07	-7.507423e-06	-2.887759e-08	-5.435795e+01	-1.893830e+03
1.600000e-07	-7.463975e-06	-2.890147e-08	-5.404337e+01	-1.890567e+03
1.700000e-07	-7.417840e-06	-2.882780e-08	-5.370932e+01	-1.887291e+03
1.800000e-07	-7.369000e-06	-2.874080e-08	-5.335569e+01	-1.884023e+03
1.900000e-07	-7.317261e-06	-2.872697e-08	-5.298108e+01	-1.880747e+03
2.000000e-07	-7.262630e-06	-2.863426e-08	-5.258552e+01	-1.877411e+03
2.100000e-07	-7.205354e-06	-2.857335e-08	-5.217080e+01	-1.873937e+03
2.200000e-07	-7.145461e-06	-2.849823e-08	-5.173715e+01	-1.870230e+03
2.300000e-07	-7.082957e-06	-2.841848e-08	-5.128459e+01	-1.866191e+03
2.400000e-07	-7.017795e-06	-2.838668e-08	-5.081278e+01	-1.861737e+03
2.500000e-07	-6.949942e-06	-2.830565e-08	-5.032148e+01	-1.856813e+03
2.600000e-07	-6.879410e-06	-2.820931e-08	-4.981079e+01	-1.851398e+03
2.700000e-07	-6.806209e-06	-2.812407e-08	-4.928077e+01	-1.845512e+03
2.800000e-07	-6.730341e-06	-2.805654e-08	-4.873145e+01	-1.839208e+03
2.900000e-07	-6.651726e-06	-2.794805e-08	-4.816223e+01	-1.832568e+03
3.000000e-07	-6.570415e-06	-2.783150e-08	-4.757349e+01	-1.825683e+03
3.100000e-07	-6.486763e-06	-2.776137e-08	-4.696780e+01	-1.818641e+03
3.200000e-07	-6.401003e-06	-2.766179e-08	-4.634685e+01	-1.811507e+03
3.300000e-07	-6.313047e-06	-2.753258e-08	-4.571000e+01	-1.804314e+03
3.400000e-07	-6.222712e-06	-2.739461e-08	-4.505593e+01	-1.797052e+03
3.500000e-07	-6.130134e-06	-2.729432e-08	-4.438561e+01	-1.789669e+03
3.600000e-07	-6.035393e-06	-2.718440e-08	-4.369963e+01	-1.782077e+03
3.700000e-07	-5.938369e-06	-2.703558e-08	-4.299712e+01	-1.774164e+03
3.800000e-07	-5.839151e-06	-2.690034e-08	-4.227873e+01	-1.765811e+03
3.900000e-07	-5.737907e-06	-2.676873e-08	-4.154567e+01	-1.756912e+03
4.000000e-07	-5.634630e-06	-2.661712e-08	-4.079789e+01	-1.747386e+03
4.100000e-07	-5.529355e-06	-2.645231e-08	-4.003563e+01	-1.737190e+03
4.200000e-07	-5.422093e-06	-2.630797e-08	-3.925900e+01	-1.726328e+03
4.300000e-07	-5.312891e-06	-2.614522e-08	-3.846831e+01	-1.714846e+03
4.400000e-07	-5.201768e-06	-2.596065e-08	-3.766372e+01	-1.702819e+03
4.500000e-07	-5.088688e-06	-2.578116e-08	-3.684495e+01	-1.690342e+03
4.600000e-07	-4.973710e-06	-2.560148e-08	-3.601245e+01	-1.677504e+03
4.700000e-07	-4.856842e-06	-2.540178e-08	-3.516626e+01	-1.664372e+03
4.800000e-07	-4.738132e-06	-2.519195e-08	-3.430674e+01	-1.650973e+03
4.900000e-07	-4.617782e-06	-2.498458e-08	-3.343533e+01	-1.637285e+03
5.000000e-07	-4.495806e-06	-2.475824e-08	-3.255216e+01	-1.623228e+03
5.100000e-07	-4.372083e-06	-2.451257e-08	-3.165633e+01	-1.608679e+03
5.200000e-07	-4.246756e-06	-2.426372e-08	-3.074890e+01	-1.593481e+03
5.300000e-07	-4.119890e-06	-2.401549e-08	-2.983032e+01	-1.577460e+03
5.400000e-07	-3.991538e-06	-2.374552e-08	-2.890097e+01	-1.560457e+03
5.500000e-07	-3.861685e-06	-2.346096e-08	-2.796076e+01	-1.542339e+03
5.600000e-07	-3.730254e-06	-2.317195e-08	-2.700913e+01	-1.523024e+03
5.700000e-07	-3.597378e-06	-2.286880e-08	-2.604704e+01	-1.502485e+03
5.800000e-07	-3.463199e-06	-2.254320e-08	-2.507551e+01	-1.480751e+03
5.900000e-07	-3.327712e-06	-2.220157e-08	-2.409450e+01	-1.457891e+03
6.000000e-07	-3.190981e-06	-2.185226e-08	-2.310449e+01	-1.433996e+03
6.100000e-07	-3.053083e-06	-2.148510e-08	-2.210603e+01	-1.409147e+03
6.200000e-07	-2.913814e-06	-2.109623e-08	-2.109765e+01	-1.383385e+03
6.300000e-07	-2.773171e-06	-2.068312e-08	-2.007931e+01	-1.356685e+03
6.400000e-07	-2.631418e-06	-2.024905e-08	-1.905294e+01	-1.328929e+03
6.500000e-07	-2.488727e-06	-1.979094e-08	-1.801978e+01	-1.299899e+03
6.600000e-07	-2.345193e-06	-1.930295e-08	-1.698051e+01	-1.269278e+03
6.700000e-07	-2.200771e-06	-1.878244e-08	-1.593482e+01	-1.236667e+03
6.800000e-07	-2.055502e-06	-1.822928e-08	-1.488299e+01	-1.201616e+03
6.900000e-07	-1.909520e-06	-1.764291e-08	-1.382600e+01	-1.163657e+03
7.000000e-07	-1.762925e-06	-1.701255e-08	-1.276457e+01	-1.122356e+03
7.100000e-07	-1.615741e-06	-1.633426e-08	-1.169887e+01	-1.077344e+03
7.200000e-07	-1.468075e-06	-1.560545e-08	-1.062969e+01	-1.028360e+03
7.300000e-07	-1.320018e-06	-1.482019e-08	-9.557671e+00	-9.752684e+02
7.400000e-07	-1.171546e-06	-1.397228e-08	-8.482652e+00	-9.180664e+02
7.500000e-07	-1.022669e-06	-1.306170e-08	-7.404697e+00	-8.568784e+02
7.600000e-07	-8.734540e-07	-1.208731e-08	-6.324297e+00	-7.919297e+02
7.700000e-07	-7.239659e-07	-1.104412e-08	-5.241919e+00	-7.235126e+02
7.800000e-07	-5.742574e-07	-9.932162e-09	-4.157945e+00	-6.519454e+02
7.900000e-07	-4.243612e-07	-8.760407e-09	-3.072613e+00	-5.775316e+02
8.000000e-07	-2.743384e-07	-7.541576e-09	-1.986364e+00	-5.005267e+02
8.100000e-07	-1.242309e-07	-6.286098e-09	-8.995017e-01	-4.211165e+02
8.200000e-07	2.594874e-08	-5.010304e-09	1.878834e-01	-3.394119e+02
8.300000e-07	1.761471e-07	-3.726838e-09	1.275404e+00	-2.554616e+02
8.400000e-07	3.263190e-07	-2.436645e-09	2.362733e+00	-1.692811e+02
8.500000e-07	4.764189e-07	-1.134087e-09	3.449540e+00	-8.089416e+01
8.600000e-07	6.264354e-07	1.871477e-10	4.535744e+00	9.618125e+00
8.700000e-07	7.763001e-07	1.539258e-09	5.620849e+00	1.020692e+02
8.800000e-07	9.259696e-07	2.935329e-09	6.704540e+00	1.961265e+02
8.900000e-07	1.075379e-06	4.375774e-09	7.786346e+00	2.912860e+02
9.000000e-07	1.224389e-06	5.850490e-09	8.865267e+00	3.868656e+02
9.100000e-07	1.372944e-06	7.342441e-09	9.940884e+00	4.820225e+02
9.200000e-07	1.521017e-06	8.828287e-09	1.101302e+01	5.757907e+02
9.300000e-07	1.668572e-06	1.027297e-08	1.208140e+01	6.671390e+02
9.400000e-07	1.815508e-06	1.164204e-08	1.314530e+01	7.550406e+02
9.500000e-07	1.961779e-06	1.291607e-08	1.420438e+01	8.385482e+02
9.600000e-07	2.107367e-06	1.408513e-08	1.525852e+01	9.168657e+02
9.700000e-07	2.252151e-06	1.514550e-08	1.630684e+01	9.894075e+02
9.800000e-07	2.396033e-06	1.610636e-08	1.734862e+01	1.055839e+03
9.900000e-07	2.539034e-06	1.698109e-08	1.838403e+01	1.116095e+03
1.000000e-06	2.681137e-06	1.777702e-08	1.941294e+01	1.170367e+03
1.010000e-06	2.822146e-06	1.850388e-08	2.043392e+01	1.219078e+03
1.020000e-06	2.961862e-06	1.917137e-08	2.144555e+01	1.262823e+03
1.030000e-06	3.100322e-06	1.979115e-08	2.244807e+01	1.302306e+03
1.040000e-06	3.237629e-06	2.036695e-08	2.344225e+01	1.338270e+03
1.050000e-06	3.373661e-06	2.090090e-08	2.442720e+01	1.371428e+03
1.060000e-06	3.508393e-06	2.139621e-08	2.540273e+01	1.402405e+03
1.070000e-06	3.641930e-06	2.185533e-08	2.636962e+01	1.431693e+03
1.080000e-06	3.774217e-06	2.228459e-08	2.732745e+01	1.459639e+03
1.090000e-06	3.905100e-06	2.268636e-08	2.827512e+01	1.486435e+03
1.100000e-06	4.034525e-06	2.306440e-08	2.921222e+01	1.512139e+03
1.110000e-06	4.162484e-06	2.342120e-08	3.013872e+01	1.536711e+03
1.120000e-06	4.289019e-06	2.375859e-08	3.105490e+01	1.560048e+03
1.130000e-06	4.414151e-06	2.407765e-08	3.196093e+01	1.582035e+03
1.140000e-06	4.537757e-06	2.437981e-08	3.285591e+01	1.602579e+03
1.150000e-06	4.659753e-06	2.466373e-08	3.373923e+01	1.621639e+03
1.160000e-06	4.780094e-06	2.493051e-08	3.461056e+01	1.639245e+03
1.170000e-06	4.898752e-06	2.518139e-08	3.546971e+01	1.655502e+03
1.180000e-06	5.015612e-06	2.541953e-08	3.631585e+01	1.670574e+03
1.190000e-06	5.130504e-06	2.564727e-08	3.714772e+01	1.684669e+03
1.200000e-06	5.243421e-06	2.586465e-08	3.796531e+01	1.698007e+03
1.210000e-06	5.354404e-06	2.607026e-08	3.876889e+01	1.710795e+03
1.220000e-06	5.463527e-06	2.626453e-08	3.955900e+01	1.723198e+03
1.230000e-06	5.570746e-06	2.645081e-08	4.033533e+01	1.735324e+03
1.240000e-06	5.675863e-06	2.662674e-08	4.109643e+01	1.747213e+03
1.250000e-06	5.778855e-06	2.679345e-08	4.184215e+01	1.758842e+03
1.260000e-06	5.879785e-06	2.695177e-08	4.257294e+01	1.770137e+03
1.270000e-06	5.978508e-06	2.710344e-08	4.328775e+01	1.780989e+03
1.280000e-06	6.074932e-06	2.725038e-08	4.398592e+01	1.791285e+03
1.290000e-06	6.169129e-06	2.739229e-08	4.466795e+01	1.800923e+03
1.300000e-06	6.261213e-06	2.752852e-08	4.533469e+01	1.809838e+03
1.310000e-06	6.351044e-06	2.765686e-08	4.598512e+01	1.818011e+03
1.320000e-06	6.438515e-06	2.777691e-08	4.661846e+01	1.825477e+03
1.330000e-06	6.523758e-06	2.789094e-08	4.723567e+01	1.832316e+03
1.340000e-06	6.606720e-06	2.800049e-08	4.783636e+01	1.838644e+03
1.350000e-06	6.687315e-06	2.810317e-08	4.841991e+01	1.844593e+03
1.360000e-06	6.765457e-06	2.819844e-08	4.898571e+01	1.850293e+03
1.370000e-06	6.841066e-06	2.828751e-08	4.953316e+01	1.855854e+03
1.380000e-06	6.914043e-06	2.836945e-08	5.006155e+01	1.861346e+03
1.390000e-06	6.984505e-06	2.844695e-08	5.057174e+01	1.866798e+03
1.400000e-06	7.052572e-06	2.852240e-08	5.106458e+01	1.872192e+03
1.410000e-06	7.118052e-06	2.859631e-08	5.153869e+01	1.877474e+03
1.420000e-06	7.180974e-06	2.866629e-08	5.199428e+01	1.882561e+03
1.430000e-06	7.241525e-06	2.873162e-08	5.243270e+01	1.887363e+03
1.440000e-06	7.299548e-06	2.879258e-08	5.285282e+01	1.891797e+03
1.450000e-06	7.354941e-06	2.884997e-08	5.325390e+01	1.895803e+03
1.460000e-06	7.407594e-06	2.890548e-08	5.363513e+01	1.899352e+03
1.470000e-06	7.457220e-06	2.895750e-08	5.399446e+01	1.902457e+03
1.480000e-06	7.503947e-06	2.900613e-08	5.433279e+01	1.905164e+03
1.490000e-06	7.548090e-06	2.905017e-08	5.465241e+01	1.907545e+03
1.500000e-06	7.589495e-06	2.908978e-08	5.495220e+01	1.909690e+03
1.510000e-06	7.628105e-06	2.912651e-08	5.523176e+01	1.911684e+03
1.520000e-06	7.664118e-06	2.916049e-08	5.549252e+01	1.913600e+03
1.530000e-06	7.697418e-06	2.919057e-08	5.573362e+01	1.915483e+03
1.540000e-06	7.727938e-06	2.921702e-08	5.595461e+01	1.917345e+03
1.550000e-06	7.755772e-06	2.924048e-08	5.615614e+01	1.919161e+03
1.560000e-06	7.780769e-06	2.926020e-08	5.633714e+01	1.920880e+03
1.570000e-06	7.802923e-06	2.927599e-08	5.649754e+01	1.922432e+03
1.580000e-06	7.822478e-06	2.928866e-08	5.663913e+01	1.923741e+03
1.590000e-06	7.839234e-06	2.929933e-08	5.676045e+01	1.924737e+03
1.600000e-06	7.852986e-06	2.930805e-08	5.686003e+01	1.925377e+03
1.610000e-06	7.863646e-06	2.931386e-08	5.693721e+01	1.925644e+03
1.620000e-06	7.871249e-06	2.931640e-08	5.699226e+01	1.925555e+03
1.630000e-06	7.876064e-06	2.931728e-08	5.702712e+01	1.925159e+03
1.640000e-06	7.878050e-06	2.931757e-08	5.704150e+01	1.924528e+03
1.650000e-06	7.877257e-06	2.931392e-08	5.703576e+01	1.923746e+03
1.660000e-06	7.873907e-06	2.930363e-08	5.701151e+01	1.922893e+03
1.670000e-06	7.867951e-06	2.929610e-08	5.696838e+01	1.922035e+03
1.680000e-06	7.859361e-06	2.928666e-08	5.690619e+01	1.921208e+03
1.690000e-06	7.848100e-06	2.927376e-08	5.682465e+01	1.920418e+03
1.700000e-06	7.834007e-06	2.926023e-08	5.672261e+01	1.919636e+03
1.710000e-06	7.817298e-06	2.924780e-08	5.660162e+01	1.918804e+03
1.720000e-06	7.798314e-06	2.923738e-08	5.646417e+01	1.917846e+03
1.730000e-06	7.776963e-06	2.918280e-08	5.630958e+01	1.916680e+03
1.740000e-06	7.752618e-06	2.911008e-08	5.613331e+01	1.915233e+03
1.750000e-06	7.724679e-06	2.910028e-08	5.593101e+01	1.913454e+03
1.760000e-06	7.693287e-06	2.909125e-08	5.570372e+01	1.911319e+03
1.770000e-06	7.659195e-06	2.906287e-08	5.545687e+01	1.908841e+03
1.780000e-06	7.622924e-06	2.906216e-08	5.519425e+01	1.906061e+03
1.790000e-06	7.584487e-06	2.906074e-08	5.491594e+01	1.903047e+03
1.800000e-06	7.544050e-06	2.893998e-08	5.462315e+01	1.899876e+03
1.810000e-06	7.501372e-06	2.891602e-08	5.431414e+01	1.896622e+03
1.820000e-06	7.455999e-06	2.890698e-08	5.398562e+01	1.893344e+03
1.830000e-06	7.408028e-06	2.881408e-08	5.363828e+01	1.890072e+03
1.840000e-06	7.357231e-06	2.883648e-08	5.327048e+01	1.886799e+03
1.850000e-06	7.303497e-06	2.873536e-08	5.288142e+01	1.883485e+03
1.860000e-06	7.246975e-06	2.870403e-08	5.247217e+01	1.880058e+03
1.870000e-06	7.187806e-06	2.868268e-08	5.204375e+01	1.876425e+03
1.880000e-06	7.126087e-06	2.853994e-08	5.159687e+01	1.872488e+03
1.890000e-06	7.061530e-06	2.850028e-08	5.112944e+01	1.868158e+03
1.900000e-06	6.994222e-06	2.840431e-08	5.064209e+01	1.863370e+03
1.910000e-06	6.924247e-06	2.832681e-08	5.013544e+01	1.858093e+03
1.920000e-06	6.851562e-06	2.824517e-08	4.960915e+01	1.852335e+03
1.930000e-06	6.776204e-06	2.816382e-08	4.906352e+01	1.846141e+03
1.940000e-06	6.698106e-06	2.811516e-08	4.849805e+01	1.839586e+03
1.950000e-06	6.617457e-06	2.796500e-08	4.791410e+01	1.832759e+03
1.960000e-06	6.534367e-06	2.786461e-08	4.731249e+01	1.825752e+03
1.970000e-06	6.448909e-06	2.776950e-08	4.669372e+01	1.818637e+03
1.980000e-06	6.361086e-06	2.767924e-08	4.605783e+01	1.811458e+03
1.990000e-06	6.270929e-06	2.756431e-08	4.540504e+01	1.804217e+03
2.000000e-06	6.178677e-06	2.743012e-08	4.473709e+01	1.796874e+03
2.010000e-06	6.084232e-06	2.732768e-08	4.405326e+01	1.789350e+03
2.020000e-06	5.987570e-06	2.718129e-08	4.335337e+01	1.781538e+03
2.030000e-06	5.888740e-06	2.704548e-08	4.263778e+01	1.773321e+03
2.040000e-06	5.787866e-06	2.692049e-08	4.190740e+01	1.764586e+03
2.050000e-06	5.684966e-06	2.679403e-08	4.116234e+01	1.755243e+03
2.060000e-06	5.580034e-06	2.661988e-08	4.040257e+01	1.745238e+03
2.070000e-06	5.473155e-06	2.645014e-08	3.962871e+01	1.734561e+03
2.080000e-06	5.364390e-06	2.629995e-08	3.884119e+01	1.723247e+03
2.090000e-06	5.253771e-06	2.613100e-08	3.804025e+01	1.711364e+03
2.100000e-06	5.141238e-06	2.594922e-08	3.722545e+01	1.699004e+03
2.110000e-06	5.026767e-06	2.576102e-08	3.639661e+01	1.686259e+03
2.120000e-06	4.910335e-06	2.557347e-08	3.555358e+01	1.673204e+03
2.130000e-06	4.791946e-06	2.535990e-08	3.469638e+01	1.659880e+03
2.140000e-06	4.671689e-06	2.514941e-08	3.382565e+01	1.646277e+03
2.150000e-06	4.549770e-06	2.494338e-08	3.294289e+01	1.632334e+03
2.160000e-06	4.426137e-06	2.472059e-08	3.204771e+01	1.617939e+03
2.170000e-06	4.300902e-06	2.447016e-08	3.114095e+01	1.602941e+03
2.180000e-06	4.174145e-06	2.421631e-08	3.022315e+01	1.587171e+03
2.190000e-06	4.045817e-06	2.396048e-08	2.929399e+01	1.570461e+03
2.200000e-06	3.915986e-06	2.369034e-08	2.835394e+01	1.552670e+03
2.210000e-06	3.784616e-06	2.340588e-08	2.740274e+01	1.533700e+03
2.220000e-06	3.651904e-06	2.311088e-08	2.644184e+01	1.513509e+03
2.230000e-06	3.517983e-06	2.279944e-08	2.547217e+01	1.492108e+03
2.240000e-06	3.382664e-06	2.246431e-08	2.449239e+01	1.469559e+03
2.250000e-06	3.245959e-06	2.211856e-08	2.350257e+01	1.445948e+03
2.260000e-06	3.108007e-06	2.176114e-08	2.250371e+01	1.421362e+03
2.270000e-06	2.968884e-06	2.138760e-08	2.149638e+01	1.395859e+03
2.280000e-06	2.828637e-06	2.098655e-08	2.048092e+01	1.369433e+03
2.290000e-06	2.687375e-06	2.055968e-08	1.945810e+01	1.341994e+03
2.300000e-06	2.545160e-06	2.011124e-08	1.842838e+01	1.313354e+03
2.310000e-06	2.401945e-06	1.963745e-08	1.739143e+01	1.283223e+03
2.320000e-06	2.257810e-06	1.913044e-08	1.634781e+01	1.251223e+03
2.330000e-06	2.112882e-06	1.858779e-08	1.529845e+01	1.216914e+03
2.340000e-06	1.967272e-06	1.800969e-08	1.424415e+01	1.179830e+03
2.350000e-06	1.821011e-06	1.739307e-08	1.318514e+01	1.139523e+03
2.360000e-06	1.674094e-06	1.673080e-08	1.212138e+01	1.095601e+03
2.370000e-06	1.526627e-06	1.602063e-08	1.105363e+01	1.047770e+03
2.380000e-06	1.378725e-06	1.525934e-08	9.982745e+00	9.958555e+02
2.390000e-06	1.230382e-06	1.443617e-08	8.908660e+00	9.398181e+02
2.400000e-06	1.081575e-06	1.354533e-08	7.831210e+00	8.797477e+02
2.410000e-06	9.323831e-07	1.258999e-08	6.750977e+00	8.158437e+02
2.420000e-06	7.829304e-07	1.157105e-08	5.668856e+00	7.483833e+02
2.430000e-06	6.332588e-07	1.048319e-08	4.585149e+00	6.776815e+02
2.440000e-06	4.834256e-07	9.328873e-09	3.500273e+00	6.040501e+02
2.450000e-06	3.334778e-07	8.119922e-09	2.414567e+00	5.277612e+02
2.460000e-06	1.834105e-07	6.871611e-09	1.327995e+00	4.490215e+02
2.470000e-06	3.325088e-08	5.596634e-09	2.407550e-01	3.679630e+02
2.480000e-06	-1.169727e-07	4.307875e-09	-8.469480e-01	2.846499e+02
2.490000e-06	-2.671724e-07	3.013016e-09	-1.934478e+00	1.991032e+02
2.500000e-06	-4.173349e-07	1.708082e-09	-3.021739e+00	1.113397e+02
2.510000e-06	-5.674184e-07	3.874957e-10	-4.108428e+00	2.141888e+01
2.520000e-06	-7.173096e-07	-9.561174e-10	-5.193724e+00	-7.050733e+01
2.530000e-06	-8.670150e-07	-2.335039e-09	-6.277675e+00	-1.641516e+02
2.540000e-06	-1.016473e-06	-3.762695e-09	-7.359834e+00	-2.590602e+02
2.550000e-06	-1.165570e-06	-5.237877e-09	-8.439383e+00	-3.546015e+02
2.560000e-06	-1.314203e-06	-6.741322e-09	-9.515569e+00	-4.499754e+02
2.570000e-06	-1.462335e-06	-8.246367e-09	-1.058813e+01	-5.442462e+02
2.580000e-06	-1.609981e-06	-9.718546e-09	-1.165717e+01	-6.363944e+02
2.590000e-06	-1.757024e-06	-1.112245e-08	-1.272184e+01	-7.253844e+02
2.600000e-06	-1.903405e-06	-1.243448e-08	-1.378172e+01	-8.102387e+02
2.610000e-06	-2.049140e-06	-1.364488e-08	-1.483692e+01	-8.901112e+02
2.620000e-06	-2.194157e-06	-1.474988e-08	-1.588693e+01	-9.643510e+02
2.630000e-06	-2.338315e-06	-1.575213e-08	-1.693071e+01	-1.032549e+03
2.640000e-06	-2.481490e-06	-1.666050e-08	-1.796738e+01	-1.094563e+03
2.650000e-06	-2.623599e-06	-1.748836e-08	-1.899633e+01	-1.150513e+03
2.660000e-06	-2.764610e-06	-1.824484e-08	-2.001733e+01	-1.200761e+03
2.670000e-06	-2.904503e-06	-1.893869e-08	-2.103023e+01	-1.245858e+03
2.680000e-06	-3.043246e-06	-1.957870e-08	-2.203481e+01	-1.286486e+03
2.690000e-06	-3.180849e-06	-2.017031e-08	-2.303113e+01	-1.323382e+03
2.700000e-06	-3.317250e-06	-2.071892e-08	-2.401875e+01	-1.357276e+03
2.710000e-06	-3.452355e-06	-2.122639e-08	-2.499699e+01	-1.388821e+03
2.720000e-06	-3.586209e-06	-2.169696e-08	-2.596617e+01	-1.418552e+03
2.730000e-06	-3.718797e-06	-2.213704e-08	-2.692617e+01	-1.446858e+03
2.740000e-06	-3.850057e-06	-2.255053e-08	-2.787657e+01	-1.473973e+03
2.750000e-06	-3.979978e-06	-2.294074e-08	-2.881727e+01	-1.499991e+03
2.760000e-06	-4.108546e-06	-2.330752e-08	-2.974818e+01	-1.524897e+03
2.770000e-06	-4.235667e-06	-2.365088e-08	-3.066861e+01	-1.548602e+03
2.780000e-06	-4.361312e-06	-2.397386e-08	-3.157835e+01	-1.570988e+03
2.790000e-06	-4.485495e-06	-2.427799e-08	-3.247750e+01	-1.591953e+03
2.800000e-06	-4.608121e-06	-2.456660e-08	-3.336538e+01	-1.611439e+03
2.810000e-06	-4.729118e-06	-2.484194e-08	-3.424147e+01	-1.629456e+03
2.820000e-06	-4.848274e-06	-2.510206e-08	-3.510422e+01	-1.646086e+03
2.830000e-06	-4.965446e-06	-2.534869e-08	-3.595261e+01	-1.661478e+03
2.840000e-06	-5.080695e-06	-2.558391e-08	-3.678708e+01	-1.675832e+03
2.850000e-06	-5.193897e-06	-2.580806e-08	-3.760673e+01	-1.689367e+03
2.860000e-06	-5.304958e-06	-2.602124e-08	-3.841087e+01	-1.702295e+03
2.870000e-06	-5.414111e-06	-2.622347e-08	-3.920120e+01	-1.714796e+03
2.880000e-06	-5.521468e-06	-2.641625e-08	-3.997853e+01	-1.726996e+03
2.890000e-06	-5.626920e-06	-2.659863e-08	-4.074206e+01	-1.738955e+03
2.900000e-06	-5.730262e-06	-2.676991e-08	-4.149031e+01	-1.750666e+03
2.910000e-06	-5.831363e-06	-2.693198e-08	-4.222234e+01	-1.762068e+03
2.920000e-06	-5.930382e-06	-2.708702e-08	-4.293930e+01	-1.773061e+03
2.930000e-06	-6.027412e-06	-2.723559e-08	-4.364185e+01	-1.783529e+03
2.940000e-06	-6.122263e-06	-2.737679e-08	-4.432862e+01	-1.793366e+03
