# Temperatura_=_64.91
# Concentracion g/m^3_=_28370.0
# C_Vs_to_Am_M_A/Vsm_=_65563218390.804596
# pendiente_HvsI_1/m_=_3716.3
# ordenada_HvsI_A/m_=_1297.0
# frecuencia_Hz_=_302513.887579074

Tiempo_(s)	Campo_(V.s)	Magnetizacion_(V.s)	Campo_(kA/m)	Magnetizacion_(A/m)
0.000000e+00	-7.920431e-06	-2.659490e-08	-5.684201e+01	-1.741860e+03
1.000000e-08	-7.916521e-06	-2.658828e-08	-5.681395e+01	-1.741028e+03
2.000000e-08	-7.910022e-06	-2.657891e-08	-5.676730e+01	-1.740194e+03
3.000000e-08	-7.900825e-06	-2.656805e-08	-5.670130e+01	-1.739399e+03
4.000000e-08	-7.888799e-06	-2.655575e-08	-5.661500e+01	-1.738657e+03
5.000000e-08	-7.873905e-06	-2.653994e-08	-5.650810e+01	-1.737944e+03
6.000000e-08	-7.856337e-06	-2.652050e-08	-5.638203e+01	-1.737213e+03
7.000000e-08	-7.836483e-06	-2.649987e-08	-5.623955e+01	-1.736393e+03
8.000000e-08	-7.814319e-06	-2.647812e-08	-5.608048e+01	-1.735408e+03
9.000000e-08	-7.789315e-06	-2.647980e-08	-5.590104e+01	-1.734188e+03
1.000000e-07	-7.761128e-06	-2.647287e-08	-5.569875e+01	-1.732682e+03
1.100000e-07	-7.729887e-06	-2.642471e-08	-5.547455e+01	-1.730863e+03
1.200000e-07	-7.695798e-06	-2.637919e-08	-5.522990e+01	-1.728740e+03
1.300000e-07	-7.659068e-06	-2.634609e-08	-5.496630e+01	-1.726349e+03
1.400000e-07	-7.619972e-06	-2.630491e-08	-5.468572e+01	-1.723750e+03
1.500000e-07	-7.578649e-06	-2.624792e-08	-5.438917e+01	-1.721016e+03
1.600000e-07	-7.534944e-06	-2.622884e-08	-5.407551e+01	-1.718216e+03
1.700000e-07	-7.488664e-06	-2.621317e-08	-5.374338e+01	-1.715408e+03
1.800000e-07	-7.439680e-06	-2.611888e-08	-5.339183e+01	-1.712620e+03
1.900000e-07	-7.387740e-06	-2.610126e-08	-5.301908e+01	-1.709850e+03
2.000000e-07	-7.332896e-06	-2.607705e-08	-5.262549e+01	-1.707061e+03
2.100000e-07	-7.275444e-06	-2.599299e-08	-5.221317e+01	-1.704186e+03
2.200000e-07	-7.215351e-06	-2.593527e-08	-5.178191e+01	-1.701139e+03
2.300000e-07	-7.152601e-06	-2.585261e-08	-5.133158e+01	-1.697825e+03
2.400000e-07	-7.087217e-06	-2.581263e-08	-5.086234e+01	-1.694162e+03
2.500000e-07	-7.019061e-06	-2.576154e-08	-5.037321e+01	-1.690084e+03
2.600000e-07	-6.948163e-06	-2.568534e-08	-4.986440e+01	-1.685563e+03
2.700000e-07	-6.874552e-06	-2.560426e-08	-4.933612e+01	-1.680604e+03
2.800000e-07	-6.798197e-06	-2.554026e-08	-4.878815e+01	-1.675248e+03
2.900000e-07	-6.719109e-06	-2.546656e-08	-4.822056e+01	-1.669565e+03
3.000000e-07	-6.637396e-06	-2.535366e-08	-4.763414e+01	-1.663642e+03
3.100000e-07	-6.553363e-06	-2.528668e-08	-4.703107e+01	-1.657562e+03
3.200000e-07	-6.467131e-06	-2.522783e-08	-4.641221e+01	-1.651398e+03
3.300000e-07	-6.378547e-06	-2.511092e-08	-4.577647e+01	-1.645189e+03
3.400000e-07	-6.287615e-06	-2.498359e-08	-4.512389e+01	-1.638938e+03
3.500000e-07	-6.194478e-06	-2.489383e-08	-4.445548e+01	-1.632606e+03
3.600000e-07	-6.099076e-06	-2.480445e-08	-4.377082e+01	-1.626118e+03
3.700000e-07	-6.001374e-06	-2.467880e-08	-4.306964e+01	-1.619371e+03
3.800000e-07	-5.901492e-06	-2.456140e-08	-4.235283e+01	-1.612250e+03
3.900000e-07	-5.799561e-06	-2.445086e-08	-4.162131e+01	-1.604647e+03
4.000000e-07	-5.695616e-06	-2.431504e-08	-4.087533e+01	-1.596474e+03
4.100000e-07	-5.589661e-06	-2.417252e-08	-4.011493e+01	-1.587680e+03
4.200000e-07	-5.481694e-06	-2.404225e-08	-3.934009e+01	-1.578254e+03
4.300000e-07	-5.371748e-06	-2.390326e-08	-3.855105e+01	-1.568232e+03
4.400000e-07	-5.259815e-06	-2.374020e-08	-3.774775e+01	-1.557681e+03
4.500000e-07	-5.145916e-06	-2.358067e-08	-3.693033e+01	-1.546689e+03
4.600000e-07	-5.030088e-06	-2.342242e-08	-3.609908e+01	-1.535351e+03
4.700000e-07	-4.912332e-06	-2.324488e-08	-3.525399e+01	-1.523740e+03
4.800000e-07	-4.792754e-06	-2.305944e-08	-3.439582e+01	-1.511897e+03
4.900000e-07	-4.671450e-06	-2.287926e-08	-3.352527e+01	-1.499817e+03
5.000000e-07	-4.548469e-06	-2.268497e-08	-3.264268e+01	-1.487440e+03
5.100000e-07	-4.423782e-06	-2.246767e-08	-3.174785e+01	-1.474656e+03
5.200000e-07	-4.297481e-06	-2.225016e-08	-3.084143e+01	-1.461321e+03
5.300000e-07	-4.169622e-06	-2.203120e-08	-2.992384e+01	-1.447266e+03
5.400000e-07	-4.040201e-06	-2.179188e-08	-2.899503e+01	-1.432327e+03
5.500000e-07	-3.909337e-06	-2.153682e-08	-2.805587e+01	-1.416365e+03
5.600000e-07	-3.776971e-06	-2.127811e-08	-2.710593e+01	-1.399280e+03
5.700000e-07	-3.643079e-06	-2.100992e-08	-2.614503e+01	-1.381029e+03
5.800000e-07	-3.507793e-06	-2.072227e-08	-2.517413e+01	-1.361625e+03
5.900000e-07	-3.371199e-06	-2.041898e-08	-2.419385e+01	-1.341125e+03
6.000000e-07	-3.233286e-06	-2.010245e-08	-2.320410e+01	-1.319615e+03
6.100000e-07	-3.093992e-06	-1.976970e-08	-2.220444e+01	-1.297185e+03
6.200000e-07	-2.953335e-06	-1.941763e-08	-2.119500e+01	-1.273892e+03
6.300000e-07	-2.811422e-06	-1.904649e-08	-2.017654e+01	-1.249739e+03
6.400000e-07	-2.668456e-06	-1.865808e-08	-1.915052e+01	-1.224642e+03
6.500000e-07	-2.524601e-06	-1.824677e-08	-1.811813e+01	-1.198425e+03
6.600000e-07	-2.379874e-06	-1.780647e-08	-1.707948e+01	-1.170808e+03
6.700000e-07	-2.234255e-06	-1.733744e-08	-1.603442e+01	-1.141430e+03
6.800000e-07	-2.087836e-06	-1.683860e-08	-1.498363e+01	-1.109865e+03
6.900000e-07	-1.940778e-06	-1.630605e-08	-1.392824e+01	-1.075665e+03
7.000000e-07	-1.793120e-06	-1.573307e-08	-1.286856e+01	-1.038396e+03
7.100000e-07	-1.644858e-06	-1.511530e-08	-1.180454e+01	-9.976876e+02
7.200000e-07	-1.496090e-06	-1.445204e-08	-1.073689e+01	-9.532631e+02
7.300000e-07	-1.346933e-06	-1.373936e-08	-9.666442e+00	-9.049705e+02
7.400000e-07	-1.197381e-06	-1.296944e-08	-8.593163e+00	-8.527941e+02
7.500000e-07	-1.047409e-06	-1.213965e-08	-7.516867e+00	-7.968503e+02
7.600000e-07	-8.970258e-07	-1.124972e-08	-6.437623e+00	-7.373686e+02
7.700000e-07	-7.462981e-07	-1.029526e-08	-5.355906e+00	-6.746589e+02
7.800000e-07	-5.953097e-07	-9.278193e-09	-4.272318e+00	-6.090707e+02
7.900000e-07	-4.440813e-07	-8.210196e-09	-3.187007e+00	-5.409498e+02
8.000000e-07	-2.926727e-07	-7.098345e-09	-2.100404e+00	-4.705997e+02
8.100000e-07	-1.410725e-07	-5.953093e-09	-1.012425e+00	-3.982528e+02
8.200000e-07	1.063464e-08	-4.791463e-09	7.632087e-02	-3.240570e+02
8.300000e-07	1.623193e-07	-3.626392e-09	1.164906e+00	-2.480793e+02
8.400000e-07	3.139284e-07	-2.458622e-09	2.252948e+00	-1.703273e+02
8.500000e-07	4.654478e-07	-1.283106e-09	3.340347e+00	-9.078570e+01
8.600000e-07	6.169025e-07	-9.518523e-11	4.427281e+00	-9.461794e+00
8.700000e-07	7.681305e-07	1.117307e-09	5.512589e+00	7.356457e+01
8.800000e-07	9.190452e-07	2.367738e-09	6.595648e+00	1.580960e+02
8.900000e-07	1.069632e-06	3.660652e-09	7.676357e+00	2.437838e+02
9.000000e-07	1.219821e-06	4.987923e-09	8.754208e+00	3.301106e+02
9.100000e-07	1.369585e-06	6.336514e-09	9.829006e+00	4.163952e+02
9.200000e-07	1.518921e-06	7.686905e-09	1.090074e+01	5.018181e+02
9.300000e-07	1.667806e-06	9.010615e-09	1.196923e+01	5.854672e+02
9.400000e-07	1.816124e-06	1.027698e-08	1.303365e+01	6.663991e+02
9.500000e-07	1.963720e-06	1.146289e-08	1.409289e+01	7.437088e+02
9.600000e-07	2.110541e-06	1.255703e-08	1.514657e+01	8.165992e+02
9.700000e-07	2.256600e-06	1.355347e-08	1.619479e+01	8.844439e+02
9.800000e-07	2.401901e-06	1.446022e-08	1.723755e+01	9.468333e+02
9.900000e-07	2.546381e-06	1.528648e-08	1.827444e+01	1.003602e+03
1.000000e-06	2.689833e-06	1.603725e-08	1.930394e+01	1.054829e+03
1.010000e-06	2.832185e-06	1.671988e-08	2.032554e+01	1.100821e+03
1.020000e-06	2.973427e-06	1.734338e-08	2.133919e+01	1.142065e+03
1.030000e-06	3.113456e-06	1.791827e-08	2.234412e+01	1.179177e+03
1.040000e-06	3.252223e-06	1.845000e-08	2.334000e+01	1.212833e+03
1.050000e-06	3.389719e-06	1.894503e-08	2.432676e+01	1.243704e+03
1.060000e-06	3.525907e-06	1.940727e-08	2.530413e+01	1.272398e+03
1.070000e-06	3.660724e-06	1.983760e-08	2.627167e+01	1.299418e+03
1.080000e-06	3.794213e-06	2.023711e-08	2.722967e+01	1.325128e+03
1.090000e-06	3.926366e-06	2.060920e-08	2.817808e+01	1.349752e+03
1.100000e-06	4.057053e-06	2.095900e-08	2.911597e+01	1.373384e+03
1.110000e-06	4.186379e-06	2.128903e-08	3.004410e+01	1.396009e+03
1.120000e-06	4.314253e-06	2.160107e-08	3.096180e+01	1.417547e+03
1.130000e-06	4.440501e-06	2.189614e-08	3.186783e+01	1.437888e+03
1.140000e-06	4.565284e-06	2.217206e-08	3.276336e+01	1.456933e+03
1.150000e-06	4.688605e-06	2.243048e-08	3.364839e+01	1.474624e+03
1.160000e-06	4.810284e-06	2.267465e-08	3.452163e+01	1.490968e+03
1.170000e-06	4.930173e-06	2.290868e-08	3.538203e+01	1.506036e+03
1.180000e-06	5.048290e-06	2.313202e-08	3.622971e+01	1.519966e+03
1.190000e-06	5.164565e-06	2.334097e-08	3.706418e+01	1.532938e+03
1.200000e-06	5.278788e-06	2.353755e-08	3.788391e+01	1.545154e+03
1.210000e-06	5.390930e-06	2.372431e-08	3.868871e+01	1.556809e+03
1.220000e-06	5.501109e-06	2.390277e-08	3.947943e+01	1.568067e+03
1.230000e-06	5.609404e-06	2.407241e-08	4.025662e+01	1.579041e+03
1.240000e-06	5.715707e-06	2.423419e-08	4.101952e+01	1.589782e+03
1.250000e-06	5.819835e-06	2.438887e-08	4.176681e+01	1.600279e+03
1.260000e-06	5.921790e-06	2.453556e-08	4.249850e+01	1.610471e+03
1.270000e-06	6.021633e-06	2.467526e-08	4.321503e+01	1.620261e+03
1.280000e-06	6.119198e-06	2.480867e-08	4.391523e+01	1.629540e+03
1.290000e-06	6.214435e-06	2.493639e-08	4.459870e+01	1.638209e+03
1.300000e-06	6.307495e-06	2.505584e-08	4.526656e+01	1.646198e+03
1.310000e-06	6.398368e-06	2.516669e-08	4.591873e+01	1.653485e+03
1.320000e-06	6.486911e-06	2.526969e-08	4.655416e+01	1.660095e+03
1.330000e-06	6.573099e-06	2.536646e-08	4.717270e+01	1.666103e+03
1.340000e-06	6.657054e-06	2.545920e-08	4.777521e+01	1.671620e+03
1.350000e-06	6.738663e-06	2.554645e-08	4.836089e+01	1.676778e+03
1.360000e-06	6.817742e-06	2.562990e-08	4.892842e+01	1.681711e+03
1.370000e-06	6.894297e-06	2.570909e-08	4.947782e+01	1.686533e+03
1.380000e-06	6.968227e-06	2.578373e-08	5.000839e+01	1.691325e+03
1.390000e-06	7.039567e-06	2.585534e-08	5.052037e+01	1.696125e+03
1.400000e-06	7.108461e-06	2.592417e-08	5.101480e+01	1.700922e+03
1.410000e-06	7.174817e-06	2.599028e-08	5.149101e+01	1.705664e+03
1.420000e-06	7.238576e-06	2.605325e-08	5.194859e+01	1.710270e+03
1.430000e-06	7.299883e-06	2.611331e-08	5.238856e+01	1.714643e+03
1.440000e-06	7.358746e-06	2.616768e-08	5.281100e+01	1.718689e+03
1.450000e-06	7.414968e-06	2.621688e-08	5.321449e+01	1.722336e+03
1.460000e-06	7.468453e-06	2.626365e-08	5.359833e+01	1.725541e+03
1.470000e-06	7.518943e-06	2.630940e-08	5.396068e+01	1.728303e+03
1.480000e-06	7.566374e-06	2.635314e-08	5.430107e+01	1.730656e+03
1.490000e-06	7.611096e-06	2.639188e-08	5.462202e+01	1.732671e+03
1.500000e-06	7.653144e-06	2.642528e-08	5.492379e+01	1.734434e+03
1.510000e-06	7.692409e-06	2.645491e-08	5.520558e+01	1.736041e+03
1.520000e-06	7.728969e-06	2.648262e-08	5.546795e+01	1.737576e+03
1.530000e-06	7.762791e-06	2.650651e-08	5.571068e+01	1.739098e+03
1.540000e-06	7.793867e-06	2.652755e-08	5.593371e+01	1.740636e+03
1.550000e-06	7.822286e-06	2.654849e-08	5.613766e+01	1.742182e+03
1.560000e-06	7.847836e-06	2.656773e-08	5.632102e+01	1.743697e+03
1.570000e-06	7.870442e-06	2.658449e-08	5.648325e+01	1.745114e+03
1.580000e-06	7.890364e-06	2.659842e-08	5.662623e+01	1.746356e+03
1.590000e-06	7.907550e-06	2.660894e-08	5.674957e+01	1.747349e+03
1.600000e-06	7.921742e-06	2.661745e-08	5.685142e+01	1.748033e+03
1.610000e-06	7.932771e-06	2.662277e-08	5.693056e+01	1.748375e+03
1.620000e-06	7.940702e-06	2.662457e-08	5.698748e+01	1.748375e+03
1.630000e-06	7.945854e-06	2.662496e-08	5.702446e+01	1.748066e+03
1.640000e-06	7.948229e-06	2.662479e-08	5.704150e+01	1.747508e+03
1.650000e-06	7.947766e-06	2.662423e-08	5.703818e+01	1.746777e+03
1.660000e-06	7.944652e-06	2.661913e-08	5.701583e+01	1.745955e+03
1.670000e-06	7.938880e-06	2.661139e-08	5.697441e+01	1.745114e+03
1.680000e-06	7.930400e-06	2.660310e-08	5.691355e+01	1.744303e+03
1.690000e-06	7.919263e-06	2.659182e-08	5.683363e+01	1.743544e+03
1.700000e-06	7.905341e-06	2.657776e-08	5.673371e+01	1.742825e+03
1.710000e-06	7.888742e-06	2.656075e-08	5.661458e+01	1.742103e+03
1.720000e-06	7.869832e-06	2.653945e-08	5.647888e+01	1.741314e+03
1.730000e-06	7.848571e-06	2.651166e-08	5.632630e+01	1.740383e+03
1.740000e-06	7.824335e-06	2.645111e-08	5.615236e+01	1.739234e+03
1.750000e-06	7.796520e-06	2.642834e-08	5.595274e+01	1.737811e+03
1.760000e-06	7.765175e-06	2.643077e-08	5.572780e+01	1.736080e+03
1.770000e-06	7.731008e-06	2.641191e-08	5.548259e+01	1.734039e+03
1.780000e-06	7.694616e-06	2.639232e-08	5.522142e+01	1.731718e+03
1.790000e-06	7.656027e-06	2.639449e-08	5.494448e+01	1.729169e+03
1.800000e-06	7.615450e-06	2.634328e-08	5.465327e+01	1.726464e+03
1.810000e-06	7.572702e-06	2.625539e-08	5.434648e+01	1.723674e+03
1.820000e-06	7.527234e-06	2.626752e-08	5.402018e+01	1.720862e+03
1.830000e-06	7.479151e-06	2.620119e-08	5.367510e+01	1.718065e+03
1.840000e-06	7.428196e-06	2.615671e-08	5.330942e+01	1.715291e+03
1.850000e-06	7.374137e-06	2.613418e-08	5.292146e+01	1.712511e+03
1.860000e-06	7.317315e-06	2.607129e-08	5.251367e+01	1.709666e+03
1.870000e-06	7.257876e-06	2.608276e-08	5.208709e+01	1.706675e+03
1.880000e-06	7.195855e-06	2.599851e-08	5.164199e+01	1.703445e+03
1.890000e-06	7.131029e-06	2.592218e-08	5.117676e+01	1.699887e+03
1.900000e-06	7.063368e-06	2.585025e-08	5.069118e+01	1.695931e+03
1.910000e-06	6.993017e-06	2.576079e-08	5.018630e+01	1.691535e+03
1.920000e-06	6.919909e-06	2.571551e-08	4.966163e+01	1.686696e+03
1.930000e-06	6.844137e-06	2.562965e-08	4.911784e+01	1.681445e+03
1.940000e-06	6.765674e-06	2.560224e-08	4.855475e+01	1.675846e+03
1.950000e-06	6.684611e-06	2.550107e-08	4.797299e+01	1.669980e+03
1.960000e-06	6.601058e-06	2.536566e-08	4.737336e+01	1.663935e+03
1.970000e-06	6.515056e-06	2.530381e-08	4.675615e+01	1.657787e+03
1.980000e-06	6.426734e-06	2.522559e-08	4.612229e+01	1.651587e+03
1.990000e-06	6.336134e-06	2.514134e-08	4.547209e+01	1.645348e+03
2.000000e-06	6.243347e-06	2.502116e-08	4.480620e+01	1.639044e+03
2.010000e-06	6.148336e-06	2.492408e-08	4.412434e+01	1.632608e+03
2.020000e-06	6.051053e-06	2.480055e-08	4.342617e+01	1.625944e+03
2.030000e-06	5.951547e-06	2.467099e-08	4.271205e+01	1.618940e+03
2.040000e-06	5.849894e-06	2.457515e-08	4.198253e+01	1.611482e+03
2.050000e-06	5.746157e-06	2.446733e-08	4.123805e+01	1.603477e+03
2.060000e-06	5.640429e-06	2.432733e-08	4.047927e+01	1.594861e+03
2.070000e-06	5.532774e-06	2.416869e-08	3.970668e+01	1.585612e+03
2.080000e-06	5.423231e-06	2.403506e-08	3.892053e+01	1.575753e+03
2.090000e-06	5.311795e-06	2.388597e-08	3.812079e+01	1.565342e+03
2.100000e-06	5.198344e-06	2.372851e-08	3.730660e+01	1.554464e+03
2.110000e-06	5.082941e-06	2.357008e-08	3.647839e+01	1.543214e+03
2.120000e-06	4.965622e-06	2.340835e-08	3.563643e+01	1.531673e+03
2.130000e-06	4.846362e-06	2.321918e-08	3.478055e+01	1.519893e+03
2.140000e-06	4.725236e-06	2.302740e-08	3.391127e+01	1.507882e+03
2.150000e-06	4.602388e-06	2.284917e-08	3.302964e+01	1.495597e+03
2.160000e-06	4.477841e-06	2.265297e-08	3.213581e+01	1.482941e+03
2.170000e-06	4.351628e-06	2.243710e-08	3.123003e+01	1.469778e+03
2.180000e-06	4.223877e-06	2.221358e-08	3.031321e+01	1.455944e+03
2.190000e-06	4.094585e-06	2.198706e-08	2.938532e+01	1.441271e+03
2.200000e-06	3.963800e-06	2.174277e-08	2.844673e+01	1.425611e+03
2.210000e-06	3.831493e-06	2.148702e-08	2.749721e+01	1.408852e+03
2.220000e-06	3.697734e-06	2.122206e-08	2.653727e+01	1.390934e+03
2.230000e-06	3.562674e-06	2.094469e-08	2.556800e+01	1.371853e+03
2.240000e-06	3.426257e-06	2.064786e-08	2.458898e+01	1.351655e+03
2.250000e-06	3.288475e-06	2.033865e-08	2.360017e+01	1.330423e+03
2.260000e-06	3.149426e-06	2.001952e-08	2.260227e+01	1.308245e+03
2.270000e-06	3.009120e-06	1.968309e-08	2.159534e+01	1.285194e+03
2.280000e-06	2.867590e-06	1.932152e-08	2.057964e+01	1.261289e+03
2.290000e-06	2.725017e-06	1.893530e-08	1.955644e+01	1.236474e+03
2.300000e-06	2.581488e-06	1.853127e-08	1.852638e+01	1.210598e+03
2.310000e-06	2.436956e-06	1.810479e-08	1.748914e+01	1.183413e+03
2.320000e-06	2.291577e-06	1.764761e-08	1.644580e+01	1.154577e+03
2.330000e-06	2.145490e-06	1.715614e-08	1.539739e+01	1.123681e+03
2.340000e-06	1.998708e-06	1.663243e-08	1.434399e+01	1.090277e+03
2.350000e-06	1.851252e-06	1.607323e-08	1.328575e+01	1.053924e+03
2.360000e-06	1.703117e-06	1.547278e-08	1.222264e+01	1.014230e+03
2.370000e-06	1.554370e-06	1.482940e-08	1.115514e+01	9.708859e+02
2.380000e-06	1.405123e-06	1.413903e-08	1.008405e+01	9.237041e+02
2.390000e-06	1.255446e-06	1.338946e-08	9.009869e+00	8.726289e+02
2.400000e-06	1.105400e-06	1.257456e-08	7.933048e+00	8.177404e+02
2.410000e-06	9.550209e-07	1.170085e-08	6.853833e+00	7.592387e+02
2.420000e-06	8.043798e-07	1.077039e-08	5.772736e+00	6.974145e+02
2.430000e-06	6.535486e-07	9.778984e-09	4.690277e+00	6.326104e+02
2.440000e-06	5.025290e-07	8.726021e-09	3.606465e+00	5.651776e+02
2.450000e-06	3.513125e-07	7.622072e-09	2.521240e+00	4.954351e+02
2.460000e-06	1.998810e-07	6.481419e-09	1.434472e+00	4.236378e+02
2.470000e-06	4.834494e-08	5.317030e-09	3.469538e-01	3.499580e+02
2.480000e-06	-1.031809e-07	4.144538e-09	-7.404911e-01	2.744846e+02
2.490000e-06	-2.546679e-07	2.971123e-09	-1.827658e+00	1.972389e+02
2.500000e-06	-4.060818e-07	1.792142e-09	-2.914299e+00	1.182077e+02
2.510000e-06	-5.573839e-07	6.011685e-10	-4.000138e+00	3.738685e+01
2.520000e-06	-7.085092e-07	-6.080922e-10	-5.084709e+00	-4.516940e+01
2.530000e-06	-8.593984e-07	-1.846257e-09	-6.167585e+00	-1.293014e+02
2.540000e-06	-1.010043e-06	-3.125082e-09	-7.248706e+00	-2.147061e+02
2.550000e-06	-1.160431e-06	-4.445044e-09	-8.327984e+00	-3.009151e+02
2.560000e-06	-1.310444e-06	-5.795352e-09	-9.404575e+00	-3.872921e+02
2.570000e-06	-1.460003e-06	-7.156617e-09	-1.047791e+01	-4.730533e+02
2.580000e-06	-1.609164e-06	-8.501105e-09	-1.154837e+01	-5.573074e+02
2.590000e-06	-1.757707e-06	-9.796503e-09	-1.261441e+01	-6.391131e+02
2.600000e-06	-1.905384e-06	-1.101691e-08	-1.367424e+01	-7.175471e+02
2.610000e-06	-2.052211e-06	-1.214935e-08	-1.472796e+01	-7.917747e+02
2.620000e-06	-2.198358e-06	-1.318773e-08	-1.577681e+01	-8.611150e+02
2.630000e-06	-2.343821e-06	-1.413170e-08	-1.682074e+01	-9.250930e+02
2.640000e-06	-2.488381e-06	-1.498737e-08	-1.785819e+01	-9.834718e+02
2.650000e-06	-2.631874e-06	-1.576622e-08	-1.888799e+01	-1.036262e+03
2.660000e-06	-2.774298e-06	-1.647710e-08	-1.991011e+01	-1.083709e+03
2.670000e-06	-2.915742e-06	-1.712714e-08	-2.092520e+01	-1.126254e+03
2.680000e-06	-3.055942e-06	-1.772374e-08	-2.193137e+01	-1.164481e+03
2.690000e-06	-3.194810e-06	-1.827415e-08	-2.292797e+01	-1.199056e+03
2.700000e-06	-3.332491e-06	-1.878296e-08	-2.391606e+01	-1.230659e+03
2.710000e-06	-3.468968e-06	-1.925428e-08	-2.489550e+01	-1.259921e+03
2.720000e-06	-3.604143e-06	-1.969340e-08	-2.586561e+01	-1.287377e+03
2.730000e-06	-3.738029e-06	-2.010294e-08	-2.682645e+01	-1.313435e+03
2.740000e-06	-3.870561e-06	-2.048642e-08	-2.777758e+01	-1.338357e+03
2.750000e-06	-4.001675e-06	-2.084583e-08	-2.871854e+01	-1.362272e+03
2.760000e-06	-4.131468e-06	-2.118206e-08	-2.965002e+01	-1.385193e+03
2.770000e-06	-4.259884e-06	-2.150002e-08	-3.057161e+01	-1.407054e+03
2.780000e-06	-4.386793e-06	-2.180147e-08	-3.148240e+01	-1.427750e+03
2.790000e-06	-4.512187e-06	-2.208506e-08	-3.238230e+01	-1.447175e+03
2.800000e-06	-4.636006e-06	-2.235098e-08	-3.327090e+01	-1.465258e+03
2.810000e-06	-4.758152e-06	-2.260095e-08	-3.414750e+01	-1.481984e+03
2.820000e-06	-4.878644e-06	-2.283901e-08	-3.501222e+01	-1.497407e+03
2.830000e-06	-4.997314e-06	-2.306698e-08	-3.586387e+01	-1.511648e+03
2.840000e-06	-5.113904e-06	-2.328567e-08	-3.670060e+01	-1.524875e+03
2.850000e-06	-5.228356e-06	-2.349549e-08	-3.752198e+01	-1.537289e+03
2.860000e-06	-5.340649e-06	-2.369146e-08	-3.832786e+01	-1.549088e+03
2.870000e-06	-5.450854e-06	-2.387311e-08	-3.911876e+01	-1.560447e+03
2.880000e-06	-5.559199e-06	-2.404361e-08	-3.989632e+01	-1.571496e+03
2.890000e-06	-5.665751e-06	-2.420487e-08	-4.066100e+01	-1.582304e+03
2.900000e-06	-5.770322e-06	-2.436007e-08	-4.141147e+01	-1.592877e+03
2.910000e-06	-5.872660e-06	-2.450747e-08	-4.214591e+01	-1.603168e+03
2.920000e-06	-5.972769e-06	-2.464874e-08	-4.286436e+01	-1.613086e+03
2.930000e-06	-6.070808e-06	-2.478363e-08	-4.356795e+01	-1.622524e+03
2.940000e-06	-6.166694e-06	-2.490877e-08	-4.425609e+01	-1.631377e+03
