# Temperatura_=_37.05
# Concentracion g/m^3_=_28370.0
# C_Vs_to_Am_M_A/Vsm_=_65563218390.804596
# pendiente_HvsI_1/m_=_3716.3
# ordenada_HvsI_A/m_=_1297.0
# frecuencia_Hz_=_302513.5949291273

Tiempo_(s)	Campo_(V.s)	Magnetizacion_(V.s)	Campo_(kA/m)	Magnetizacion_(A/m)
0.000000e+00	-7.891077e-06	-2.515462e-08	-5.684394e+01	-1.646655e+03
1.000000e-08	-7.887107e-06	-2.515337e-08	-5.681534e+01	-1.645825e+03
2.000000e-08	-7.880557e-06	-2.514527e-08	-5.676816e+01	-1.644988e+03
3.000000e-08	-7.871302e-06	-2.513472e-08	-5.670149e+01	-1.644200e+03
4.000000e-08	-7.859255e-06	-2.512199e-08	-5.661470e+01	-1.643490e+03
5.000000e-08	-7.844328e-06	-2.510445e-08	-5.650718e+01	-1.642852e+03
6.000000e-08	-7.826749e-06	-2.508260e-08	-5.638055e+01	-1.642249e+03
7.000000e-08	-7.806930e-06	-2.505885e-08	-5.623778e+01	-1.641622e+03
8.000000e-08	-7.784724e-06	-2.504498e-08	-5.607782e+01	-1.640895e+03
9.000000e-08	-7.759582e-06	-2.508269e-08	-5.589671e+01	-1.639995e+03
1.000000e-07	-7.731311e-06	-2.505977e-08	-5.569305e+01	-1.638859e+03
1.100000e-07	-7.700149e-06	-2.499792e-08	-5.546858e+01	-1.637445e+03
1.200000e-07	-7.666196e-06	-2.496600e-08	-5.522399e+01	-1.635742e+03
1.300000e-07	-7.629570e-06	-2.492497e-08	-5.496015e+01	-1.633766e+03
1.400000e-07	-7.590648e-06	-2.485521e-08	-5.467977e+01	-1.631562e+03
1.500000e-07	-7.549487e-06	-2.480211e-08	-5.438327e+01	-1.629187e+03
1.600000e-07	-7.505949e-06	-2.486452e-08	-5.406964e+01	-1.626707e+03
1.700000e-07	-7.459867e-06	-2.482897e-08	-5.373768e+01	-1.624177e+03
1.800000e-07	-7.411024e-06	-2.474195e-08	-5.338584e+01	-1.621636e+03
1.900000e-07	-7.359210e-06	-2.475442e-08	-5.301260e+01	-1.619093e+03
2.000000e-07	-7.304545e-06	-2.465968e-08	-5.261882e+01	-1.616529e+03
2.100000e-07	-7.247213e-06	-2.458901e-08	-5.220582e+01	-1.613896e+03
2.200000e-07	-7.187230e-06	-2.455614e-08	-5.177372e+01	-1.611124e+03
2.300000e-07	-7.124719e-06	-2.450008e-08	-5.132342e+01	-1.608135e+03
2.400000e-07	-7.059504e-06	-2.447651e-08	-5.085364e+01	-1.604854e+03
2.500000e-07	-6.991553e-06	-2.439502e-08	-5.036416e+01	-1.601222e+03
2.600000e-07	-6.920984e-06	-2.435017e-08	-4.985581e+01	-1.597205e+03
2.700000e-07	-6.847647e-06	-2.428496e-08	-4.932752e+01	-1.592804e+03
2.800000e-07	-6.771536e-06	-2.421134e-08	-4.877925e+01	-1.588048e+03
2.900000e-07	-6.692655e-06	-2.414008e-08	-4.821102e+01	-1.582995e+03
3.000000e-07	-6.611126e-06	-2.407056e-08	-4.762372e+01	-1.577721e+03
3.100000e-07	-6.527315e-06	-2.401531e-08	-4.701998e+01	-1.572301e+03
3.200000e-07	-6.441328e-06	-2.391477e-08	-4.640057e+01	-1.566799e+03
3.300000e-07	-6.353049e-06	-2.383888e-08	-4.576464e+01	-1.561254e+03
3.400000e-07	-6.262403e-06	-2.373785e-08	-4.511167e+01	-1.555670e+03
3.500000e-07	-6.169529e-06	-2.363679e-08	-4.444265e+01	-1.550014e+03
3.600000e-07	-6.074506e-06	-2.354888e-08	-4.375814e+01	-1.544216e+03
3.700000e-07	-5.977199e-06	-2.345078e-08	-4.305718e+01	-1.538180e+03
3.800000e-07	-5.877645e-06	-2.334875e-08	-4.234003e+01	-1.531798e+03
3.900000e-07	-5.776023e-06	-2.323503e-08	-4.160800e+01	-1.524963e+03
4.000000e-07	-5.672394e-06	-2.312291e-08	-4.086150e+01	-1.517590e+03
4.100000e-07	-5.566715e-06	-2.298993e-08	-4.010023e+01	-1.509625e+03
4.200000e-07	-5.459023e-06	-2.286508e-08	-3.932446e+01	-1.501053e+03
4.300000e-07	-5.349443e-06	-2.273447e-08	-3.853510e+01	-1.491902e+03
4.400000e-07	-5.237912e-06	-2.259799e-08	-3.773167e+01	-1.482234e+03
4.500000e-07	-5.124337e-06	-2.245203e-08	-3.691353e+01	-1.472134e+03
4.600000e-07	-5.008807e-06	-2.229924e-08	-3.608130e+01	-1.461691e+03
4.700000e-07	-4.891443e-06	-2.213761e-08	-3.523586e+01	-1.450981e+03
4.800000e-07	-4.772284e-06	-2.196761e-08	-3.437749e+01	-1.440047e+03
4.900000e-07	-4.651376e-06	-2.179698e-08	-3.350652e+01	-1.428887e+03
5.000000e-07	-4.528731e-06	-2.161633e-08	-3.262304e+01	-1.417451e+03
5.100000e-07	-4.404360e-06	-2.142509e-08	-3.172712e+01	-1.405635e+03
5.200000e-07	-4.278439e-06	-2.121837e-08	-3.082004e+01	-1.393299e+03
5.300000e-07	-4.151053e-06	-2.100668e-08	-2.990240e+01	-1.380280e+03
5.400000e-07	-4.022163e-06	-2.078219e-08	-2.897394e+01	-1.366414e+03
5.500000e-07	-3.891743e-06	-2.055118e-08	-2.803445e+01	-1.351558e+03
5.600000e-07	-3.759793e-06	-2.031093e-08	-2.708394e+01	-1.335611e+03
5.700000e-07	-3.626423e-06	-2.005739e-08	-2.612320e+01	-1.318523e+03
5.800000e-07	-3.491658e-06	-1.978487e-08	-2.515241e+01	-1.300298e+03
5.900000e-07	-3.355586e-06	-1.949587e-08	-2.417221e+01	-1.280991e+03
6.000000e-07	-3.218224e-06	-1.919756e-08	-2.318270e+01	-1.260686e+03
6.100000e-07	-3.079561e-06	-1.888421e-08	-2.218384e+01	-1.239471e+03
6.200000e-07	-2.939562e-06	-1.855473e-08	-2.117534e+01	-1.217411e+03
6.300000e-07	-2.798203e-06	-1.820521e-08	-2.015705e+01	-1.194512e+03
6.400000e-07	-2.655721e-06	-1.783539e-08	-1.913067e+01	-1.170704e+03
6.500000e-07	-2.512205e-06	-1.743894e-08	-1.809685e+01	-1.145818e+03
6.600000e-07	-2.367777e-06	-1.701725e-08	-1.705645e+01	-1.119586e+03
6.700000e-07	-2.222614e-06	-1.657043e-08	-1.601076e+01	-1.091651e+03
6.800000e-07	-2.076681e-06	-1.609506e-08	-1.495952e+01	-1.061595e+03
6.900000e-07	-1.929971e-06	-1.558687e-08	-1.390268e+01	-1.028971e+03
7.000000e-07	-1.782680e-06	-1.503952e-08	-1.284166e+01	-9.933488e+02
7.100000e-07	-1.634899e-06	-1.444991e-08	-1.177711e+01	-9.543574e+02
7.200000e-07	-1.486634e-06	-1.381315e-08	-1.070908e+01	-9.117276e+02
7.300000e-07	-1.337910e-06	-1.312818e-08	-9.637734e+00	-8.653199e+02
7.400000e-07	-1.188728e-06	-1.238880e-08	-8.563087e+00	-8.151405e+02
7.500000e-07	-1.039173e-06	-1.159148e-08	-7.485757e+00	-7.613387e+02
7.600000e-07	-8.893175e-07	-1.073691e-08	-6.406262e+00	-7.041886e+02
7.700000e-07	-7.391314e-07	-9.826245e-09	-5.324386e+00	-6.440546e+02
7.800000e-07	-5.886051e-07	-8.859327e-09	-4.240059e+00	-5.813476e+02
7.900000e-07	-4.378573e-07	-7.842554e-09	-3.154137e+00	-5.164767e+02
8.000000e-07	-2.869791e-07	-6.788118e-09	-2.067274e+00	-4.498036e+02
8.100000e-07	-1.360085e-07	-5.708234e-09	-9.797467e-01	-3.816063e+02
8.200000e-07	1.502656e-08	-4.618964e-09	1.082449e-01	-3.120586e+02
8.300000e-07	1.660895e-07	-3.529355e-09	1.196438e+00	-2.412265e+02
8.400000e-07	3.171596e-07	-2.443952e-09	2.284682e+00	-1.690856e+02
8.500000e-07	4.681739e-07	-1.356619e-09	3.372524e+00	-9.555480e+01
8.600000e-07	6.189968e-07	-2.580477e-10	4.458988e+00	-2.054335e+01
8.700000e-07	7.696292e-07	8.623186e-10	5.544079e+00	5.599532e+01
8.800000e-07	9.200472e-07	2.014673e-09	6.627626e+00	1.340111e+02
8.900000e-07	1.070143e-06	3.204439e-09	7.708853e+00	2.133131e+02
9.000000e-07	1.219851e-06	4.431438e-09	8.787287e+00	2.935418e+02
9.100000e-07	1.369143e-06	5.685466e-09	9.862722e+00	3.741607e+02
9.200000e-07	1.517941e-06	6.951646e-09	1.093459e+01	4.544715e+02
9.300000e-07	1.666146e-06	8.204519e-09	1.200220e+01	5.336500e+02
9.400000e-07	1.813795e-06	9.416844e-09	1.306580e+01	6.108019e+02
9.500000e-07	1.960890e-06	1.056332e-08	1.412541e+01	6.850291e+02
9.600000e-07	2.107277e-06	1.162650e-08	1.517992e+01	7.555009e+02
9.700000e-07	2.252847e-06	1.260378e-08	1.622854e+01	8.215215e+02
9.800000e-07	2.397571e-06	1.349467e-08	1.727107e+01	8.825848e+02
9.900000e-07	2.541388e-06	1.430632e-08	1.830707e+01	9.384108e+02
1.000000e-06	2.684195e-06	1.504395e-08	1.933579e+01	9.889597e+02
1.010000e-06	2.825968e-06	1.571565e-08	2.035707e+01	1.034422e+03
1.020000e-06	2.966604e-06	1.632869e-08	2.137015e+01	1.075185e+03
1.030000e-06	3.105991e-06	1.689258e-08	2.237423e+01	1.111786e+03
1.040000e-06	3.244115e-06	1.741358e-08	2.336922e+01	1.144848e+03
1.050000e-06	3.380934e-06	1.789695e-08	2.435480e+01	1.175018e+03
1.060000e-06	3.516480e-06	1.834505e-08	2.533122e+01	1.202903e+03
1.070000e-06	3.650768e-06	1.876044e-08	2.629857e+01	1.229024e+03
1.080000e-06	3.783739e-06	1.914737e-08	2.725644e+01	1.253779e+03
1.090000e-06	3.915308e-06	1.950908e-08	2.820420e+01	1.277433e+03
1.100000e-06	4.045468e-06	1.984938e-08	2.914182e+01	1.300116e+03
1.110000e-06	4.174217e-06	2.016767e-08	3.006927e+01	1.321846e+03
1.120000e-06	4.301513e-06	2.046812e-08	3.098626e+01	1.342563e+03
1.130000e-06	4.427360e-06	2.074998e-08	3.189281e+01	1.362165e+03
1.140000e-06	4.551691e-06	2.101285e-08	3.278843e+01	1.380547e+03
1.150000e-06	4.674411e-06	2.125993e-08	3.367246e+01	1.397637e+03
1.160000e-06	4.795449e-06	2.149481e-08	3.454436e+01	1.413415e+03
1.170000e-06	4.914806e-06	2.171767e-08	3.540416e+01	1.427931e+03
1.180000e-06	5.032355e-06	2.192939e-08	3.625093e+01	1.441294e+03
1.190000e-06	5.147983e-06	2.212808e-08	3.708386e+01	1.453668e+03
1.200000e-06	5.261700e-06	2.231544e-08	3.790303e+01	1.465242e+03
1.210000e-06	5.373468e-06	2.249319e-08	3.870816e+01	1.476211e+03
1.220000e-06	5.483274e-06	2.266226e-08	3.949915e+01	1.486746e+03
1.230000e-06	5.591153e-06	2.282256e-08	4.027627e+01	1.496973e+03
1.240000e-06	5.697033e-06	2.297467e-08	4.103899e+01	1.506963e+03
1.250000e-06	5.800770e-06	2.311948e-08	4.178626e+01	1.516725e+03
1.260000e-06	5.902344e-06	2.325614e-08	4.251796e+01	1.526215e+03
1.270000e-06	6.001746e-06	2.338599e-08	4.323401e+01	1.535350e+03
1.280000e-06	6.098859e-06	2.350887e-08	4.393357e+01	1.544027e+03
1.290000e-06	6.193693e-06	2.362517e-08	4.461671e+01	1.552147e+03
1.300000e-06	6.286334e-06	2.373523e-08	4.528406e+01	1.559636e+03
1.310000e-06	6.376756e-06	2.383842e-08	4.593542e+01	1.566459e+03
1.320000e-06	6.464906e-06	2.393458e-08	4.657041e+01	1.572628e+03
1.330000e-06	6.550762e-06	2.402378e-08	4.718888e+01	1.578205e+03
1.340000e-06	6.634349e-06	2.410735e-08	4.779101e+01	1.583291e+03
1.350000e-06	6.715575e-06	2.418683e-08	4.837612e+01	1.588013e+03
1.360000e-06	6.794325e-06	2.426285e-08	4.894341e+01	1.592501e+03
1.370000e-06	6.870520e-06	2.433618e-08	4.949229e+01	1.596874e+03
1.380000e-06	6.944102e-06	2.440507e-08	5.002234e+01	1.601221e+03
1.390000e-06	7.015147e-06	2.446999e-08	5.053411e+01	1.605587e+03
1.400000e-06	7.083751e-06	2.453242e-08	5.102831e+01	1.609973e+03
1.410000e-06	7.149817e-06	2.459269e-08	5.150422e+01	1.614335e+03
1.420000e-06	7.213248e-06	2.465078e-08	5.196115e+01	1.618595e+03
1.430000e-06	7.274166e-06	2.470601e-08	5.239997e+01	1.622657e+03
1.440000e-06	7.332605e-06	2.475831e-08	5.282095e+01	1.626424e+03
1.450000e-06	7.388462e-06	2.480558e-08	5.322331e+01	1.629813e+03
1.460000e-06	7.441610e-06	2.484692e-08	5.360617e+01	1.632773e+03
1.470000e-06	7.491789e-06	2.488405e-08	5.396764e+01	1.635290e+03
1.480000e-06	7.539025e-06	2.491950e-08	5.430791e+01	1.637390e+03
1.490000e-06	7.583575e-06	2.495333e-08	5.462882e+01	1.639137e+03
1.500000e-06	7.625419e-06	2.498453e-08	5.493025e+01	1.640617e+03
1.510000e-06	7.664499e-06	2.501243e-08	5.521177e+01	1.641928e+03
1.520000e-06	7.700956e-06	2.503847e-08	5.547439e+01	1.643163e+03
1.530000e-06	7.734693e-06	2.506090e-08	5.571742e+01	1.644395e+03
1.540000e-06	7.765623e-06	2.507883e-08	5.594022e+01	1.645665e+03
1.550000e-06	7.793887e-06	2.509446e-08	5.614383e+01	1.646979e+03
1.560000e-06	7.819277e-06	2.510932e-08	5.632672e+01	1.648306e+03
1.570000e-06	7.841773e-06	2.512367e-08	5.648877e+01	1.649589e+03
1.580000e-06	7.861564e-06	2.513615e-08	5.663134e+01	1.650751e+03
1.590000e-06	7.878541e-06	2.514559e-08	5.675363e+01	1.651711e+03
1.600000e-06	7.892565e-06	2.515177e-08	5.685466e+01	1.652402e+03
1.610000e-06	7.903471e-06	2.515570e-08	5.693322e+01	1.652777e+03
1.620000e-06	7.911310e-06	2.515788e-08	5.698969e+01	1.652823e+03
1.630000e-06	7.916337e-06	2.515867e-08	5.702590e+01	1.652558e+03
1.640000e-06	7.918502e-06	2.515794e-08	5.704150e+01	1.652033e+03
1.650000e-06	7.917824e-06	2.515683e-08	5.703661e+01	1.651321e+03
1.660000e-06	7.914630e-06	2.514844e-08	5.701360e+01	1.650503e+03
1.670000e-06	7.908834e-06	2.514408e-08	5.697185e+01	1.649659e+03
1.680000e-06	7.900322e-06	2.513818e-08	5.691054e+01	1.648851e+03
1.690000e-06	7.889169e-06	2.512811e-08	5.683019e+01	1.648116e+03
1.700000e-06	7.875181e-06	2.511728e-08	5.672943e+01	1.647458e+03
1.710000e-06	7.858539e-06	2.510991e-08	5.660955e+01	1.646848e+03
1.720000e-06	7.839665e-06	2.510354e-08	5.647359e+01	1.646233e+03
1.730000e-06	7.818423e-06	2.505345e-08	5.632057e+01	1.645541e+03
1.740000e-06	7.794193e-06	2.497530e-08	5.614603e+01	1.644695e+03
1.750000e-06	7.766431e-06	2.498980e-08	5.594604e+01	1.643629e+03
1.760000e-06	7.735154e-06	2.499126e-08	5.572074e+01	1.642295e+03
1.770000e-06	7.701107e-06	2.496538e-08	5.547548e+01	1.640672e+03
1.780000e-06	7.664858e-06	2.498768e-08	5.521435e+01	1.638769e+03
1.790000e-06	7.626394e-06	2.502767e-08	5.493728e+01	1.636623e+03
1.800000e-06	7.585948e-06	2.491460e-08	5.464592e+01	1.634288e+03
1.810000e-06	7.543321e-06	2.487290e-08	5.433885e+01	1.631830e+03
1.820000e-06	7.497931e-06	2.488537e-08	5.401188e+01	1.629307e+03
1.830000e-06	7.449909e-06	2.475628e-08	5.366595e+01	1.626765e+03
1.840000e-06	7.399044e-06	2.481856e-08	5.329954e+01	1.624221e+03
1.850000e-06	7.345106e-06	2.476351e-08	5.291099e+01	1.621665e+03
1.860000e-06	7.288444e-06	2.473370e-08	5.250283e+01	1.619055e+03
1.870000e-06	7.229234e-06	2.471715e-08	5.207630e+01	1.616329e+03
1.880000e-06	7.167425e-06	2.455596e-08	5.163106e+01	1.613408e+03
1.890000e-06	7.102783e-06	2.455990e-08	5.116540e+01	1.610216e+03
1.900000e-06	7.035377e-06	2.446161e-08	5.067984e+01	1.606687e+03
1.910000e-06	6.965262e-06	2.441516e-08	5.017476e+01	1.602779e+03
1.920000e-06	6.892392e-06	2.438919e-08	4.964984e+01	1.598484e+03
1.930000e-06	6.816880e-06	2.430232e-08	4.910588e+01	1.593822e+03
1.940000e-06	6.738610e-06	2.426365e-08	4.854206e+01	1.588845e+03
1.950000e-06	6.657762e-06	2.413161e-08	4.795967e+01	1.583624e+03
1.960000e-06	6.574533e-06	2.409062e-08	4.736012e+01	1.578236e+03
1.970000e-06	6.488858e-06	2.399911e-08	4.674296e+01	1.572750e+03
1.980000e-06	6.400730e-06	2.392214e-08	4.610812e+01	1.567214e+03
1.990000e-06	6.310326e-06	2.386043e-08	4.545689e+01	1.561641e+03
2.000000e-06	6.217850e-06	2.375047e-08	4.479073e+01	1.556009e+03
2.010000e-06	6.123109e-06	2.366933e-08	4.410825e+01	1.550258e+03
2.020000e-06	6.026112e-06	2.354354e-08	4.340953e+01	1.544299e+03
2.030000e-06	5.927057e-06	2.345490e-08	4.269598e+01	1.538025e+03
2.040000e-06	5.825894e-06	2.334204e-08	4.196725e+01	1.531328e+03
2.050000e-06	5.722537e-06	2.324798e-08	4.122271e+01	1.524114e+03
2.060000e-06	5.617193e-06	2.312748e-08	4.046385e+01	1.516319e+03
2.070000e-06	5.509998e-06	2.299676e-08	3.969167e+01	1.507917e+03
2.080000e-06	5.400908e-06	2.286459e-08	3.890583e+01	1.498924e+03
2.090000e-06	5.289858e-06	2.271779e-08	3.810587e+01	1.489394e+03
2.100000e-06	5.176847e-06	2.258292e-08	3.729179e+01	1.479406e+03
2.110000e-06	5.061912e-06	2.243374e-08	3.646384e+01	1.469050e+03
2.120000e-06	4.944992e-06	2.229368e-08	3.562160e+01	1.458408e+03
2.130000e-06	4.826109e-06	2.212814e-08	3.476522e+01	1.447534e+03
2.140000e-06	4.705332e-06	2.195765e-08	3.389520e+01	1.436440e+03
2.150000e-06	4.582865e-06	2.177528e-08	3.301300e+01	1.425089e+03
2.160000e-06	4.458793e-06	2.159006e-08	3.211924e+01	1.413392e+03
2.170000e-06	4.333064e-06	2.139138e-08	3.121354e+01	1.401219e+03
2.180000e-06	4.205700e-06	2.118975e-08	3.029606e+01	1.388410e+03
2.190000e-06	4.076775e-06	2.097873e-08	2.936734e+01	1.374800e+03
2.200000e-06	3.946376e-06	2.075299e-08	2.842800e+01	1.360238e+03
2.210000e-06	3.814498e-06	2.051387e-08	2.747801e+01	1.344608e+03
2.220000e-06	3.681181e-06	2.026596e-08	2.651765e+01	1.327845e+03
2.230000e-06	3.546531e-06	2.001014e-08	2.554769e+01	1.309939e+03
2.240000e-06	3.410598e-06	1.973283e-08	2.456849e+01	1.290932e+03
2.250000e-06	3.273410e-06	1.944454e-08	2.358024e+01	1.270901e+03
2.260000e-06	3.134984e-06	1.913862e-08	2.258308e+01	1.249936e+03
2.270000e-06	2.995300e-06	1.881571e-08	2.157686e+01	1.228111e+03
2.280000e-06	2.854443e-06	1.847112e-08	2.056218e+01	1.205453e+03
2.290000e-06	2.712486e-06	1.811182e-08	1.953959e+01	1.181916e+03
2.300000e-06	2.569458e-06	1.773334e-08	1.850928e+01	1.157359e+03
2.310000e-06	2.425452e-06	1.732997e-08	1.747192e+01	1.131542e+03
2.320000e-06	2.280564e-06	1.689533e-08	1.642820e+01	1.104132e+03
2.330000e-06	2.134947e-06	1.642816e-08	1.537925e+01	1.074726e+03
2.340000e-06	1.988695e-06	1.592724e-08	1.432570e+01	1.042879e+03
2.350000e-06	1.841789e-06	1.538922e-08	1.326746e+01	1.008152e+03
2.360000e-06	1.694161e-06	1.481318e-08	1.220401e+01	9.701539e+02
2.370000e-06	1.545921e-06	1.419354e-08	1.113615e+01	9.285820e+02
2.380000e-06	1.397253e-06	1.352525e-08	1.006521e+01	8.832575e+02
2.390000e-06	1.248263e-06	1.280323e-08	8.991952e+00	8.341445e+02
2.400000e-06	1.098900e-06	1.202236e-08	7.916006e+00	7.813526e+02
2.410000e-06	9.490466e-07	1.118438e-08	6.836525e+00	7.251231e+02
2.420000e-06	7.987972e-07	1.029125e-08	5.754193e+00	6.657988e+02
2.430000e-06	6.483459e-07	9.342477e-09	4.670406e+00	6.037822e+02
2.440000e-06	4.977405e-07	8.339366e-09	3.585509e+00	5.394878e+02
2.450000e-06	3.469217e-07	7.291349e-09	2.499075e+00	4.732950e+02
2.460000e-06	1.959424e-07	6.214884e-09	1.411485e+00	4.055086e+02
2.470000e-06	4.488177e-08	5.123228e-09	3.233090e-01	3.363334e+02
2.480000e-06	-1.062379e-07	4.026506e-09	-7.652925e-01	2.658652e+02
2.490000e-06	-2.573302e-07	2.930404e-09	-1.853697e+00	1.941028e+02
2.500000e-06	-4.083040e-07	1.834932e-09	-2.941247e+00	1.209769e+02
2.510000e-06	-5.591429e-07	7.354467e-10	-4.027826e+00	4.639419e+01
2.520000e-06	-7.098451e-07	-3.771879e-10	-5.113420e+00	-2.971013e+01
2.530000e-06	-8.603349e-07	-1.517435e-09	-6.197484e+00	-1.073185e+02
2.540000e-06	-1.010489e-06	-2.698150e-09	-7.279129e+00	-1.862841e+02
2.550000e-06	-1.160227e-06	-3.918493e-09	-8.357776e+00	-2.662971e+02
2.560000e-06	-1.309548e-06	-5.171590e-09	-9.433421e+00	-3.468713e+02
2.570000e-06	-1.458427e-06	-6.443786e-09	-1.050588e+01	-4.273516e+02
2.580000e-06	-1.606807e-06	-7.711149e-09	-1.157475e+01	-5.069450e+02
2.590000e-06	-1.754669e-06	-8.945577e-09	-1.263989e+01	-5.847709e+02
2.600000e-06	-1.901908e-06	-1.012153e-08	-1.370053e+01	-6.599247e+02
2.610000e-06	-2.048452e-06	-1.122202e-08	-1.475617e+01	-7.315496e+02
2.620000e-06	-2.194215e-06	-1.223609e-08	-1.580618e+01	-7.989048e+02
2.630000e-06	-2.339051e-06	-1.316197e-08	-1.684952e+01	-8.614255e+02
2.640000e-06	-2.482936e-06	-1.400361e-08	-1.788601e+01	-9.187645e+02
2.650000e-06	-2.625840e-06	-1.477075e-08	-1.891542e+01	-9.708134e+02
2.660000e-06	-2.767720e-06	-1.547005e-08	-1.993747e+01	-1.017699e+03
2.670000e-06	-2.908525e-06	-1.610806e-08	-2.095177e+01	-1.059758e+03
2.680000e-06	-3.048133e-06	-1.669341e-08	-2.195744e+01	-1.097489e+03
2.690000e-06	-3.186543e-06	-1.723266e-08	-2.295449e+01	-1.131498e+03
2.700000e-06	-3.323726e-06	-1.772906e-08	-2.394270e+01	-1.162432e+03
2.710000e-06	-3.459643e-06	-1.818729e-08	-2.492179e+01	-1.190914e+03
2.720000e-06	-3.594256e-06	-1.861342e-08	-2.589148e+01	-1.217494e+03
2.730000e-06	-3.727565e-06	-1.901105e-08	-2.685178e+01	-1.242609e+03
2.740000e-06	-3.859584e-06	-1.938274e-08	-2.780279e+01	-1.266561e+03
2.750000e-06	-3.990277e-06	-1.972890e-08	-2.874424e+01	-1.289516e+03
2.760000e-06	-4.119607e-06	-2.005359e-08	-2.967588e+01	-1.311524e+03
2.770000e-06	-4.247492e-06	-2.036078e-08	-3.059712e+01	-1.332542e+03
2.780000e-06	-4.373918e-06	-2.065017e-08	-3.150783e+01	-1.352476e+03
2.790000e-06	-4.498871e-06	-2.092308e-08	-3.240794e+01	-1.371218e+03
2.800000e-06	-4.622230e-06	-2.117972e-08	-3.329657e+01	-1.388683e+03
2.810000e-06	-4.743928e-06	-2.142089e-08	-3.417322e+01	-1.404837e+03
2.820000e-06	-4.863855e-06	-2.164978e-08	-3.503713e+01	-1.419707e+03
2.830000e-06	-4.981818e-06	-2.186875e-08	-3.588689e+01	-1.433386e+03
2.840000e-06	-5.097745e-06	-2.207656e-08	-3.672197e+01	-1.446026e+03
2.850000e-06	-5.211639e-06	-2.227143e-08	-3.754242e+01	-1.457811e+03
2.860000e-06	-5.323555e-06	-2.245419e-08	-3.834861e+01	-1.468936e+03
2.870000e-06	-5.433501e-06	-2.262464e-08	-3.914061e+01	-1.479582e+03
2.880000e-06	-5.541553e-06	-2.278593e-08	-3.991897e+01	-1.489889e+03
2.890000e-06	-5.647705e-06	-2.294022e-08	-4.068365e+01	-1.499945e+03
2.900000e-06	-5.751779e-06	-2.308786e-08	-4.143335e+01	-1.509777e+03
2.910000e-06	-5.853658e-06	-2.322790e-08	-4.216724e+01	-1.519354e+03
2.920000e-06	-5.953385e-06	-2.335959e-08	-4.288564e+01	-1.528602e+03
2.930000e-06	-6.051044e-06	-2.348433e-08	-4.358913e+01	-1.537423e+03
2.940000e-06	-6.146562e-06	-2.360109e-08	-4.427720e+01	-1.545713e+03
