# Temperatura_=_69.55
# Concentracion g/m^3_=_28370.0
# C_Vs_to_Am_M_A/Vsm_=_65563218390.804596
# pendiente_HvsI_1/m_=_3716.3
# ordenada_HvsI_A/m_=_1297.0
# frecuencia_Hz_=_302512.48473144457

Tiempo_(s)	Campo_(V.s)	Magnetizacion_(V.s)	Campo_(kA/m)	Magnetizacion_(A/m)
0.000000e+00	-7.878796e-06	-2.721146e-08	-5.684994e+01	-1.781655e+03
1.000000e-08	-7.875415e-06	-2.720721e-08	-5.682554e+01	-1.780817e+03
2.000000e-08	-7.869501e-06	-2.719782e-08	-5.678287e+01	-1.779961e+03
3.000000e-08	-7.861008e-06	-2.718561e-08	-5.672159e+01	-1.779133e+03
4.000000e-08	-7.849627e-06	-2.717285e-08	-5.663946e+01	-1.778350e+03
5.000000e-08	-7.835352e-06	-2.715707e-08	-5.653646e+01	-1.777595e+03
6.000000e-08	-7.818366e-06	-2.713567e-08	-5.641390e+01	-1.776822e+03
7.000000e-08	-7.799075e-06	-2.711155e-08	-5.627470e+01	-1.775966e+03
8.000000e-08	-7.777516e-06	-2.708147e-08	-5.611914e+01	-1.774950e+03
9.000000e-08	-7.753158e-06	-2.709295e-08	-5.594339e+01	-1.773702e+03
1.000000e-07	-7.725651e-06	-2.709626e-08	-5.574491e+01	-1.772166e+03
1.100000e-07	-7.695171e-06	-2.703135e-08	-5.552498e+01	-1.770314e+03
1.200000e-07	-7.661902e-06	-2.697948e-08	-5.528492e+01	-1.768145e+03
1.300000e-07	-7.625916e-06	-2.695277e-08	-5.502527e+01	-1.765692e+03
1.400000e-07	-7.587528e-06	-2.690555e-08	-5.474827e+01	-1.763011e+03
1.500000e-07	-7.546896e-06	-2.682981e-08	-5.445509e+01	-1.760172e+03
1.600000e-07	-7.503911e-06	-2.681969e-08	-5.414493e+01	-1.757246e+03
1.700000e-07	-7.458410e-06	-2.682770e-08	-5.381661e+01	-1.754291e+03
1.800000e-07	-7.410225e-06	-2.669663e-08	-5.346893e+01	-1.751341e+03
1.900000e-07	-7.359170e-06	-2.668030e-08	-5.310055e+01	-1.748400e+03
2.000000e-07	-7.305210e-06	-2.666723e-08	-5.271119e+01	-1.745435e+03
2.100000e-07	-7.248531e-06	-2.656005e-08	-5.230222e+01	-1.742385e+03
2.200000e-07	-7.189265e-06	-2.651947e-08	-5.187458e+01	-1.739167e+03
2.300000e-07	-7.127422e-06	-2.643830e-08	-5.142835e+01	-1.735690e+03
2.400000e-07	-7.062917e-06	-2.639294e-08	-5.096291e+01	-1.731868e+03
2.500000e-07	-6.995679e-06	-2.633362e-08	-5.047775e+01	-1.727634e+03
2.600000e-07	-6.925761e-06	-2.625844e-08	-4.997325e+01	-1.722953e+03
2.700000e-07	-6.853115e-06	-2.616419e-08	-4.944908e+01	-1.717826e+03
2.800000e-07	-6.777763e-06	-2.608745e-08	-4.890536e+01	-1.712288e+03
2.900000e-07	-6.699728e-06	-2.603010e-08	-4.834230e+01	-1.706404e+03
3.000000e-07	-6.618973e-06	-2.590855e-08	-4.775960e+01	-1.700259e+03
3.100000e-07	-6.535812e-06	-2.582842e-08	-4.715955e+01	-1.693936e+03
3.200000e-07	-6.450495e-06	-2.577232e-08	-4.654394e+01	-1.687508e+03
3.300000e-07	-6.362911e-06	-2.565698e-08	-4.591198e+01	-1.681021e+03
3.400000e-07	-6.272944e-06	-2.551785e-08	-4.526282e+01	-1.674483e+03
3.500000e-07	-6.180664e-06	-2.542048e-08	-4.459696e+01	-1.667861e+03
3.600000e-07	-6.086192e-06	-2.533961e-08	-4.391529e+01	-1.661085e+03
3.700000e-07	-5.989500e-06	-2.520918e-08	-4.321760e+01	-1.654056e+03
3.800000e-07	-5.890600e-06	-2.507939e-08	-4.250399e+01	-1.646663e+03
3.900000e-07	-5.789624e-06	-2.496212e-08	-4.177538e+01	-1.638794e+03
4.000000e-07	-5.686615e-06	-2.482264e-08	-4.103212e+01	-1.630361e+03
4.100000e-07	-5.581592e-06	-2.467353e-08	-4.027432e+01	-1.621307e+03
4.200000e-07	-5.474618e-06	-2.453699e-08	-3.950244e+01	-1.611617e+03
4.300000e-07	-5.365709e-06	-2.440104e-08	-3.871660e+01	-1.601318e+03
4.400000e-07	-5.254819e-06	-2.423465e-08	-3.791647e+01	-1.590475e+03
4.500000e-07	-5.141973e-06	-2.406617e-08	-3.710222e+01	-1.579175e+03
4.600000e-07	-5.027204e-06	-2.390351e-08	-3.627410e+01	-1.567511e+03
4.700000e-07	-4.910490e-06	-2.372649e-08	-3.543194e+01	-1.555560e+03
4.800000e-07	-4.791912e-06	-2.353778e-08	-3.457634e+01	-1.543371e+03
4.900000e-07	-4.671624e-06	-2.335134e-08	-3.370839e+01	-1.530943e+03
5.000000e-07	-4.549624e-06	-2.315328e-08	-3.282809e+01	-1.518226e+03
5.100000e-07	-4.425888e-06	-2.292881e-08	-3.193526e+01	-1.505117e+03
5.200000e-07	-4.300566e-06	-2.270217e-08	-3.103100e+01	-1.491475e+03
5.300000e-07	-4.173690e-06	-2.247762e-08	-3.011552e+01	-1.477134e+03
5.400000e-07	-4.045328e-06	-2.223604e-08	-2.918931e+01	-1.461927e+03
5.500000e-07	-3.915505e-06	-2.197765e-08	-2.825256e+01	-1.445708e+03
5.600000e-07	-3.784111e-06	-2.171297e-08	-2.730449e+01	-1.428371e+03
5.700000e-07	-3.651237e-06	-2.143873e-08	-2.634573e+01	-1.409862e+03
5.800000e-07	-3.517001e-06	-2.114430e-08	-2.537713e+01	-1.390183e+03
5.900000e-07	-3.381434e-06	-2.083497e-08	-2.439894e+01	-1.369383e+03
6.000000e-07	-3.244600e-06	-2.051539e-08	-2.341161e+01	-1.347546e+03
6.100000e-07	-3.106526e-06	-2.018216e-08	-2.241533e+01	-1.324759e+03
6.200000e-07	-2.967086e-06	-1.982845e-08	-2.140919e+01	-1.301087e+03
6.300000e-07	-2.826349e-06	-1.945271e-08	-2.039370e+01	-1.276542e+03
6.400000e-07	-2.684464e-06	-1.905706e-08	-1.936992e+01	-1.251057e+03
6.500000e-07	-2.541488e-06	-1.863834e-08	-1.833826e+01	-1.224469e+03
6.600000e-07	-2.397560e-06	-1.819241e-08	-1.729974e+01	-1.196520e+03
6.700000e-07	-2.252768e-06	-1.771767e-08	-1.625499e+01	-1.166861e+03
6.800000e-07	-2.107150e-06	-1.721522e-08	-1.520427e+01	-1.135077e+03
6.900000e-07	-1.960830e-06	-1.667961e-08	-1.414849e+01	-1.100723e+03
7.000000e-07	-1.813919e-06	-1.610492e-08	-1.308844e+01	-1.063362e+03
7.100000e-07	-1.666473e-06	-1.548651e-08	-1.202454e+01	-1.022609e+03
7.200000e-07	-1.518545e-06	-1.482244e-08	-1.095715e+01	-9.781672e+02
7.300000e-07	-1.370202e-06	-1.411042e-08	-9.886778e+00	-9.298582e+02
7.400000e-07	-1.221505e-06	-1.334228e-08	-8.813842e+00	-8.776354e+02
7.500000e-07	-1.072443e-06	-1.251218e-08	-7.738281e+00	-8.215835e+02
7.600000e-07	-9.229852e-07	-1.162004e-08	-6.659856e+00	-7.619013e+02
7.700000e-07	-7.731812e-07	-1.066362e-08	-5.578937e+00	-6.988727e+02
7.800000e-07	-6.230840e-07	-9.641044e-09	-4.495901e+00	-6.328267e+02
7.900000e-07	-4.727383e-07	-8.563873e-09	-3.411072e+00	-5.640963e+02
8.000000e-07	-3.221969e-07	-7.441739e-09	-2.324831e+00	-4.929797e+02
8.100000e-07	-1.714486e-07	-6.282838e-09	-1.237098e+00	-4.197107e+02
8.200000e-07	-2.059432e-08	-5.102533e-09	-1.485996e-01	-3.444443e+02
8.300000e-07	1.303010e-07	-3.914078e-09	9.401951e-01	-2.672585e+02
8.400000e-07	2.811660e-07	-2.722215e-09	2.028771e+00	-1.881735e+02
8.500000e-07	4.319615e-07	-1.523072e-09	3.116844e+00	-1.071860e+02
8.600000e-07	5.826543e-07	-3.117408e-10	4.204178e+00	-2.431427e+01
8.700000e-07	7.331401e-07	9.243295e-10	5.290018e+00	6.035364e+01
8.800000e-07	8.833372e-07	2.196286e-09	6.373774e+00	1.466146e+02
8.900000e-07	1.033165e-06	3.509975e-09	7.454865e+00	2.341157e+02
9.000000e-07	1.182565e-06	4.861222e-09	8.532867e+00	3.223362e+02
9.100000e-07	1.331564e-06	6.237119e-09	9.607980e+00	4.105899e+02
9.200000e-07	1.480218e-06	7.619601e-09	1.068060e+01	4.980493e+02
9.300000e-07	1.628459e-06	8.978237e-09	1.175025e+01	5.837903e+02
9.400000e-07	1.776173e-06	1.028205e-08	1.281609e+01	6.668519e+02
9.500000e-07	1.923201e-06	1.150459e-08	1.387698e+01	7.463062e+02
9.600000e-07	2.069454e-06	1.263291e-08	1.493227e+01	8.213287e+02
9.700000e-07	2.214888e-06	1.366300e-08	1.598166e+01	8.912624e+02
9.800000e-07	2.359563e-06	1.459886e-08	1.702557e+01	9.556664e+02
9.900000e-07	2.503478e-06	1.545096e-08	1.806400e+01	1.014346e+03
1.000000e-06	2.646382e-06	1.622665e-08	1.909513e+01	1.067355e+03
1.010000e-06	2.788168e-06	1.693216e-08	2.011820e+01	1.114981e+03
1.020000e-06	2.928864e-06	1.757590e-08	2.113340e+01	1.157703e+03
1.030000e-06	3.068387e-06	1.816847e-08	2.214013e+01	1.196135e+03
1.040000e-06	3.206604e-06	1.871686e-08	2.313745e+01	1.230960e+03
1.050000e-06	3.343471e-06	1.922549e-08	2.412502e+01	1.262867e+03
1.060000e-06	3.479105e-06	1.969899e-08	2.510370e+01	1.292486e+03
1.070000e-06	3.613477e-06	2.014165e-08	2.607326e+01	1.320342e+03
1.080000e-06	3.746517e-06	2.055483e-08	2.703322e+01	1.346826e+03
1.090000e-06	3.878280e-06	2.094201e-08	2.798397e+01	1.372184e+03
1.100000e-06	4.008660e-06	2.130468e-08	2.892473e+01	1.396526e+03
1.110000e-06	4.137523e-06	2.164490e-08	2.985455e+01	1.419852e+03
1.120000e-06	4.264902e-06	2.196752e-08	3.077366e+01	1.442085e+03
1.130000e-06	4.390844e-06	2.227274e-08	3.168240e+01	1.463115e+03
1.140000e-06	4.515332e-06	2.255721e-08	3.258065e+01	1.482836e+03
1.150000e-06	4.638348e-06	2.282385e-08	3.346828e+01	1.501183e+03
1.160000e-06	4.759684e-06	2.307751e-08	3.434379e+01	1.518152e+03
1.170000e-06	4.879230e-06	2.331813e-08	3.520638e+01	1.533806e+03
1.180000e-06	4.997029e-06	2.354668e-08	3.605637e+01	1.548278e+03
1.190000e-06	5.113007e-06	2.376410e-08	3.689321e+01	1.561746e+03
1.200000e-06	5.227008e-06	2.397026e-08	3.771580e+01	1.574415e+03
1.210000e-06	5.338957e-06	2.416539e-08	3.852357e+01	1.586490e+03
1.220000e-06	5.448962e-06	2.434981e-08	3.931732e+01	1.598144e+03
1.230000e-06	5.557156e-06	2.452580e-08	4.009800e+01	1.609502e+03
1.240000e-06	5.663372e-06	2.469364e-08	4.086441e+01	1.620628e+03
1.250000e-06	5.767403e-06	2.485373e-08	4.161505e+01	1.631522e+03
1.260000e-06	5.869325e-06	2.500550e-08	4.235047e+01	1.642128e+03
1.270000e-06	5.969176e-06	2.514917e-08	4.307096e+01	1.652350e+03
1.280000e-06	6.066735e-06	2.528676e-08	4.377490e+01	1.662077e+03
1.290000e-06	6.161890e-06	2.541998e-08	4.446149e+01	1.671202e+03
1.300000e-06	6.254868e-06	2.554850e-08	4.513238e+01	1.679647e+03
1.310000e-06	6.345767e-06	2.566837e-08	4.578827e+01	1.687374e+03
1.320000e-06	6.434345e-06	2.577939e-08	4.642741e+01	1.694399e+03
1.330000e-06	6.520505e-06	2.588344e-08	4.704911e+01	1.700785e+03
1.340000e-06	6.604444e-06	2.598129e-08	4.765477e+01	1.706638e+03
1.350000e-06	6.686073e-06	2.607258e-08	4.824377e+01	1.712088e+03
1.360000e-06	6.765220e-06	2.616041e-08	4.881486e+01	1.717271e+03
1.370000e-06	6.841916e-06	2.624493e-08	4.936826e+01	1.722308e+03
1.380000e-06	6.916009e-06	2.632355e-08	4.990289e+01	1.727291e+03
1.390000e-06	6.987484e-06	2.639681e-08	5.041862e+01	1.732267e+03
1.400000e-06	7.056525e-06	2.646675e-08	5.091679e+01	1.737239e+03
1.410000e-06	7.123025e-06	2.653460e-08	5.139662e+01	1.742164e+03
1.420000e-06	7.186917e-06	2.659970e-08	5.185764e+01	1.746969e+03
1.430000e-06	7.248354e-06	2.666180e-08	5.230094e+01	1.751559e+03
1.440000e-06	7.307344e-06	2.672103e-08	5.272659e+01	1.755843e+03
1.450000e-06	7.363746e-06	2.677670e-08	5.313356e+01	1.759741e+03
1.460000e-06	7.417506e-06	2.682756e-08	5.352147e+01	1.763205e+03
1.470000e-06	7.468320e-06	2.687407e-08	5.388812e+01	1.766224e+03
1.480000e-06	7.516059e-06	2.691798e-08	5.423259e+01	1.768825e+03
1.490000e-06	7.561065e-06	2.695925e-08	5.455733e+01	1.771068e+03
1.500000e-06	7.603416e-06	2.699877e-08	5.486292e+01	1.773036e+03
1.510000e-06	7.643005e-06	2.703492e-08	5.514857e+01	1.774820e+03
1.520000e-06	7.679932e-06	2.706647e-08	5.541502e+01	1.776505e+03
1.530000e-06	7.714237e-06	2.709324e-08	5.566255e+01	1.778152e+03
1.540000e-06	7.745768e-06	2.711676e-08	5.589006e+01	1.779796e+03
1.550000e-06	7.774585e-06	2.713748e-08	5.609800e+01	1.781434e+03
1.560000e-06	7.800619e-06	2.715446e-08	5.628584e+01	1.783031e+03
1.570000e-06	7.823728e-06	2.716899e-08	5.645259e+01	1.784527e+03
1.580000e-06	7.844140e-06	2.718270e-08	5.659988e+01	1.785849e+03
1.590000e-06	7.861802e-06	2.719615e-08	5.672732e+01	1.786920e+03
1.600000e-06	7.876476e-06	2.720731e-08	5.683320e+01	1.787682e+03
1.610000e-06	7.888144e-06	2.721518e-08	5.691739e+01	1.788098e+03
1.620000e-06	7.896730e-06	2.721909e-08	5.697934e+01	1.788163e+03
1.630000e-06	7.902382e-06	2.721966e-08	5.702012e+01	1.787907e+03
1.640000e-06	7.905269e-06	2.721967e-08	5.704095e+01	1.787385e+03
1.650000e-06	7.905345e-06	2.721835e-08	5.704150e+01	1.786672e+03
1.660000e-06	7.902765e-06	2.720887e-08	5.702289e+01	1.785849e+03
1.670000e-06	7.897568e-06	2.719929e-08	5.698539e+01	1.784990e+03
1.680000e-06	7.889673e-06	2.719162e-08	5.692842e+01	1.784149e+03
1.690000e-06	7.879176e-06	2.718221e-08	5.685268e+01	1.783351e+03
1.700000e-06	7.865902e-06	2.717106e-08	5.675690e+01	1.782589e+03
1.710000e-06	7.849861e-06	2.716064e-08	5.664116e+01	1.781826e+03
1.720000e-06	7.831481e-06	2.714999e-08	5.650853e+01	1.780999e+03
1.730000e-06	7.810845e-06	2.712564e-08	5.635963e+01	1.780034e+03
1.740000e-06	7.787435e-06	2.703653e-08	5.619072e+01	1.778857e+03
1.750000e-06	7.760543e-06	2.700638e-08	5.599667e+01	1.777406e+03
1.760000e-06	7.730021e-06	2.702273e-08	5.577644e+01	1.775643e+03
1.770000e-06	7.696482e-06	2.699820e-08	5.553444e+01	1.773561e+03
1.780000e-06	7.660644e-06	2.697341e-08	5.527585e+01	1.771182e+03
1.790000e-06	7.622635e-06	2.700532e-08	5.500159e+01	1.768558e+03
1.800000e-06	7.582590e-06	2.694789e-08	5.471265e+01	1.765754e+03
1.810000e-06	7.540510e-06	2.682757e-08	5.440901e+01	1.762844e+03
1.820000e-06	7.495820e-06	2.689136e-08	5.408655e+01	1.759891e+03
1.830000e-06	7.448465e-06	2.680831e-08	5.374485e+01	1.756936e+03
1.840000e-06	7.398404e-06	2.676483e-08	5.338364e+01	1.753991e+03
1.850000e-06	7.345320e-06	2.675716e-08	5.300061e+01	1.751036e+03
1.860000e-06	7.289404e-06	2.664704e-08	5.259714e+01	1.748016e+03
1.870000e-06	7.230839e-06	2.666792e-08	5.217456e+01	1.744854e+03
1.880000e-06	7.169718e-06	2.656049e-08	5.173354e+01	1.741458e+03
1.890000e-06	7.105833e-06	2.650069e-08	5.127258e+01	1.737740e+03
1.900000e-06	7.039112e-06	2.644655e-08	5.079115e+01	1.733627e+03
1.910000e-06	6.969751e-06	2.635117e-08	5.029067e+01	1.729073e+03
1.920000e-06	6.897670e-06	2.632578e-08	4.977056e+01	1.724069e+03
1.930000e-06	6.822955e-06	2.620097e-08	4.923145e+01	1.718641e+03
1.940000e-06	6.745577e-06	2.617290e-08	4.867312e+01	1.712846e+03
1.950000e-06	6.665502e-06	2.607455e-08	4.809534e+01	1.706765e+03
1.960000e-06	6.582931e-06	2.593142e-08	4.749954e+01	1.700482e+03
1.970000e-06	6.498016e-06	2.586870e-08	4.688683e+01	1.694076e+03
1.980000e-06	6.410695e-06	2.578583e-08	4.625676e+01	1.687602e+03
1.990000e-06	6.320976e-06	2.571191e-08	4.560939e+01	1.681078e+03
2.000000e-06	6.229136e-06	2.557253e-08	4.494671e+01	1.674483e+03
2.010000e-06	6.135081e-06	2.547904e-08	4.426805e+01	1.667758e+03
2.020000e-06	6.038706e-06	2.535682e-08	4.357265e+01	1.660811e+03
2.030000e-06	5.940194e-06	2.522035e-08	4.286183e+01	1.653531e+03
2.040000e-06	5.839627e-06	2.511087e-08	4.213619e+01	1.645807e+03
2.050000e-06	5.736951e-06	2.499857e-08	4.139532e+01	1.637540e+03
2.060000e-06	5.632246e-06	2.486298e-08	4.063982e+01	1.628665e+03
2.070000e-06	5.525675e-06	2.469183e-08	3.987085e+01	1.619154e+03
2.080000e-06	5.417215e-06	2.455625e-08	3.908825e+01	1.609022e+03
2.090000e-06	5.306794e-06	2.440651e-08	3.829150e+01	1.598324e+03
2.100000e-06	5.194414e-06	2.424962e-08	3.748061e+01	1.587143e+03
2.110000e-06	5.080157e-06	2.408096e-08	3.665619e+01	1.575571e+03
2.120000e-06	4.963950e-06	2.391551e-08	3.581769e+01	1.563694e+03
2.130000e-06	4.845711e-06	2.372070e-08	3.496453e+01	1.551569e+03
2.140000e-06	4.725570e-06	2.351779e-08	3.409764e+01	1.539210e+03
2.150000e-06	4.603736e-06	2.333197e-08	3.321854e+01	1.526582e+03
2.160000e-06	4.480234e-06	2.313435e-08	3.232740e+01	1.513596e+03
2.170000e-06	4.355055e-06	2.291784e-08	3.142417e+01	1.500120e+03
2.180000e-06	4.228301e-06	2.268887e-08	3.050957e+01	1.485994e+03
2.190000e-06	4.099967e-06	2.245938e-08	2.958356e+01	1.471049e+03
2.200000e-06	3.970120e-06	2.221222e-08	2.864665e+01	1.455130e+03
2.210000e-06	3.838760e-06	2.195452e-08	2.769881e+01	1.438118e+03
2.220000e-06	3.705948e-06	2.168481e-08	2.674050e+01	1.419944e+03
2.230000e-06	3.571829e-06	2.140260e-08	2.577275e+01	1.400594e+03
2.240000e-06	3.436311e-06	2.109792e-08	2.479491e+01	1.380105e+03
2.250000e-06	3.299484e-06	2.078161e-08	2.380763e+01	1.358553e+03
2.260000e-06	3.161508e-06	2.045573e-08	2.281206e+01	1.336027e+03
2.270000e-06	3.022303e-06	2.011494e-08	2.180761e+01	1.312602e+03
2.280000e-06	2.881909e-06	1.975171e-08	2.079459e+01	1.288307e+03
2.290000e-06	2.740389e-06	1.936310e-08	1.977344e+01	1.263101e+03
2.300000e-06	2.597804e-06	1.895366e-08	1.874461e+01	1.236848e+03
2.310000e-06	2.454267e-06	1.851933e-08	1.770891e+01	1.209318e+03
2.320000e-06	2.309843e-06	1.805596e-08	1.666681e+01	1.180186e+03
2.330000e-06	2.164658e-06	1.755972e-08	1.561922e+01	1.149052e+03
2.340000e-06	2.018843e-06	1.703276e-08	1.456709e+01	1.115476e+03
2.350000e-06	1.872347e-06	1.647173e-08	1.351004e+01	1.079014e+03
2.360000e-06	1.725109e-06	1.587002e-08	1.244763e+01	1.039263e+03
2.370000e-06	1.577253e-06	1.522436e-08	1.138076e+01	9.958965e+02
2.380000e-06	1.428960e-06	1.453009e-08	1.031075e+01	9.487011e+02
2.390000e-06	1.280296e-06	1.377914e-08	9.238054e+00	8.975914e+02
2.400000e-06	1.131262e-06	1.296461e-08	8.162687e+00	8.426157e+02
2.410000e-06	9.818475e-07	1.208942e-08	7.084581e+00	7.839428e+02
2.420000e-06	8.321217e-07	1.115508e-08	6.004225e+00	7.218358e+02
2.430000e-06	6.821302e-07	1.015867e-08	4.921952e+00	6.566153e+02
2.440000e-06	5.318702e-07	9.100975e-09	3.837742e+00	5.886173e+02
2.450000e-06	3.814180e-07	7.989281e-09	2.752145e+00	5.181533e+02
2.460000e-06	2.307463e-07	6.836626e-09	1.664964e+00	4.454778e+02
2.470000e-06	7.992534e-08	5.656091e-09	5.767062e-01	3.707690e+02
2.480000e-06	-7.091241e-08	4.460543e-09	-5.116728e-01	2.941255e+02
2.490000e-06	-2.217778e-07	3.260258e-09	-1.600252e+00	2.155811e+02
2.500000e-06	-3.725961e-07	2.054747e-09	-2.688490e+00	1.351351e+02
2.510000e-06	-5.232464e-07	8.365325e-10	-3.775517e+00	5.279468e+01
2.520000e-06	-6.736674e-07	-3.989519e-10	-4.860889e+00	-3.137701e+01
2.530000e-06	-8.238448e-07	-1.659585e-09	-5.944502e+00	-1.172138e+02
2.540000e-06	-9.737677e-07	-2.958787e-09	-7.026280e+00	-2.044083e+02
2.550000e-06	-1.123325e-06	-4.301424e-09	-8.105420e+00	-2.924883e+02
2.560000e-06	-1.272462e-06	-5.676014e-09	-9.181530e+00	-3.808135e+02
2.570000e-06	-1.421204e-06	-7.066804e-09	-1.025478e+01	-4.685930e+02
2.580000e-06	-1.569551e-06	-8.446974e-09	-1.132519e+01	-5.549247e+02
2.590000e-06	-1.717368e-06	-9.779891e-09	-1.239178e+01	-6.388514e+02
2.600000e-06	-1.864449e-06	-1.103902e-08	-1.345305e+01	-7.194283e+02
2.610000e-06	-2.010776e-06	-1.220795e-08	-1.450888e+01	-7.957946e+02
2.620000e-06	-2.156403e-06	-1.327933e-08	-1.555966e+01	-8.672394e+02
2.630000e-06	-2.301247e-06	-1.425431e-08	-1.660479e+01	-9.332563e+02
2.640000e-06	-2.445279e-06	-1.513897e-08	-1.764406e+01	-9.935784e+02
2.650000e-06	-2.588390e-06	-1.594433e-08	-1.867669e+01	-1.048190e+03
2.660000e-06	-2.730299e-06	-1.668036e-08	-1.970064e+01	-1.097315e+03
2.670000e-06	-2.871032e-06	-1.735391e-08	-2.071611e+01	-1.141382e+03
2.680000e-06	-3.010605e-06	-1.797129e-08	-2.172320e+01	-1.180974e+03
2.690000e-06	-3.148987e-06	-1.854122e-08	-2.272171e+01	-1.216761e+03
2.700000e-06	-3.286209e-06	-1.906817e-08	-2.371184e+01	-1.249436e+03
2.710000e-06	-3.422247e-06	-1.955355e-08	-2.469343e+01	-1.279651e+03
2.720000e-06	-3.557008e-06	-2.000544e-08	-2.566581e+01	-1.307966e+03
2.730000e-06	-3.690426e-06	-2.042967e-08	-2.662849e+01	-1.334813e+03
2.740000e-06	-3.822536e-06	-2.082760e-08	-2.758174e+01	-1.360478e+03
2.750000e-06	-3.953292e-06	-2.120174e-08	-2.852522e+01	-1.385109e+03
2.760000e-06	-4.082682e-06	-2.155221e-08	-2.945884e+01	-1.408732e+03
2.770000e-06	-4.210706e-06	-2.188010e-08	-3.038261e+01	-1.431290e+03
2.780000e-06	-4.337285e-06	-2.218909e-08	-3.129594e+01	-1.452677e+03
2.790000e-06	-4.462363e-06	-2.248135e-08	-3.219845e+01	-1.472783e+03
2.800000e-06	-4.585947e-06	-2.275705e-08	-3.309018e+01	-1.491529e+03
2.810000e-06	-4.707886e-06	-2.301641e-08	-3.397004e+01	-1.508889e+03
2.820000e-06	-4.828049e-06	-2.326172e-08	-3.483709e+01	-1.524911e+03
2.830000e-06	-4.946308e-06	-2.349667e-08	-3.569039e+01	-1.539706e+03
2.840000e-06	-5.062586e-06	-2.372250e-08	-3.652940e+01	-1.553442e+03
2.850000e-06	-5.176874e-06	-2.393808e-08	-3.735405e+01	-1.566320e+03
2.860000e-06	-5.289012e-06	-2.414152e-08	-3.816319e+01	-1.578548e+03
2.870000e-06	-5.399092e-06	-2.433106e-08	-3.895748e+01	-1.590308e+03
2.880000e-06	-5.507314e-06	-2.451012e-08	-3.973836e+01	-1.601744e+03
2.890000e-06	-5.613693e-06	-2.468116e-08	-4.050595e+01	-1.612936e+03
2.900000e-06	-5.718121e-06	-2.484321e-08	-4.125946e+01	-1.623901e+03
2.910000e-06	-5.820359e-06	-2.499607e-08	-4.199716e+01	-1.634600e+03
2.920000e-06	-5.920393e-06	-2.514215e-08	-4.271896e+01	-1.644945e+03
2.930000e-06	-6.018397e-06	-2.528384e-08	-4.342612e+01	-1.654827e+03
2.940000e-06	-6.114315e-06	-2.541783e-08	-4.411822e+01	-1.664136e+03
