# Temperatura_=_42.52
# Concentracion g/m^3_=_28370.0
# C_Vs_to_Am_M_A/Vsm_=_65563218390.804596
# pendiente_HvsI_1/m_=_3716.3
# ordenada_HvsI_A/m_=_1297.0
# frecuencia_Hz_=_302513.1681234578

Tiempo_(s)	Campo_(V.s)	Magnetizacion_(V.s)	Campo_(kA/m)	Magnetizacion_(A/m)
0.000000e+00	-7.900243e-06	-2.521977e-08	-5.684485e+01	-1.650872e+03
1.000000e-08	-7.896609e-06	-2.521848e-08	-5.681870e+01	-1.650061e+03
2.000000e-08	-7.890416e-06	-2.521034e-08	-5.677414e+01	-1.649238e+03
3.000000e-08	-7.881595e-06	-2.519997e-08	-5.671067e+01	-1.648459e+03
4.000000e-08	-7.869946e-06	-2.518813e-08	-5.662685e+01	-1.647752e+03
5.000000e-08	-7.855331e-06	-2.517276e-08	-5.652169e+01	-1.647112e+03
6.000000e-08	-7.837948e-06	-2.515260e-08	-5.639661e+01	-1.646504e+03
7.000000e-08	-7.818360e-06	-2.512963e-08	-5.625567e+01	-1.645870e+03
8.000000e-08	-7.796522e-06	-2.510835e-08	-5.609854e+01	-1.645135e+03
9.000000e-08	-7.771848e-06	-2.514885e-08	-5.592100e+01	-1.644226e+03
1.000000e-07	-7.743970e-06	-2.513990e-08	-5.572041e+01	-1.643081e+03
1.100000e-07	-7.713063e-06	-2.507118e-08	-5.549803e+01	-1.641659e+03
1.200000e-07	-7.679347e-06	-2.503241e-08	-5.525543e+01	-1.639948e+03
1.300000e-07	-7.642994e-06	-2.499585e-08	-5.499386e+01	-1.637965e+03
1.400000e-07	-7.604259e-06	-2.493304e-08	-5.471515e+01	-1.635753e+03
1.500000e-07	-7.563237e-06	-2.486186e-08	-5.441998e+01	-1.633371e+03
1.600000e-07	-7.519868e-06	-2.491692e-08	-5.410793e+01	-1.630884e+03
1.700000e-07	-7.473952e-06	-2.492131e-08	-5.377754e+01	-1.628350e+03
1.800000e-07	-7.425360e-06	-2.480330e-08	-5.342791e+01	-1.625806e+03
1.900000e-07	-7.373908e-06	-2.481710e-08	-5.305769e+01	-1.623265e+03
2.000000e-07	-7.319549e-06	-2.474003e-08	-5.266656e+01	-1.620706e+03
2.100000e-07	-7.262436e-06	-2.465085e-08	-5.225562e+01	-1.618081e+03
2.200000e-07	-7.202665e-06	-2.463421e-08	-5.182555e+01	-1.615321e+03
2.300000e-07	-7.140349e-06	-2.455857e-08	-5.137716e+01	-1.612347e+03
2.400000e-07	-7.075334e-06	-2.453644e-08	-5.090935e+01	-1.609080e+03
2.500000e-07	-7.007560e-06	-2.445872e-08	-5.042170e+01	-1.605460e+03
2.600000e-07	-6.937197e-06	-2.441026e-08	-4.991541e+01	-1.601452e+03
2.700000e-07	-6.864113e-06	-2.435222e-08	-4.938955e+01	-1.597053e+03
2.800000e-07	-6.788257e-06	-2.428598e-08	-4.884374e+01	-1.592292e+03
2.900000e-07	-6.709643e-06	-2.421668e-08	-4.827809e+01	-1.587229e+03
3.000000e-07	-6.628346e-06	-2.413070e-08	-4.769314e+01	-1.581936e+03
3.100000e-07	-6.544732e-06	-2.407244e-08	-4.709150e+01	-1.576493e+03
3.200000e-07	-6.458902e-06	-2.397055e-08	-4.647392e+01	-1.570967e+03
3.300000e-07	-6.370784e-06	-2.389539e-08	-4.583989e+01	-1.565400e+03
3.400000e-07	-6.280281e-06	-2.380923e-08	-4.518869e+01	-1.559798e+03
3.500000e-07	-6.187528e-06	-2.370265e-08	-4.452130e+01	-1.554132e+03
3.600000e-07	-6.092647e-06	-2.361392e-08	-4.383860e+01	-1.548335e+03
3.700000e-07	-5.995459e-06	-2.351995e-08	-4.313930e+01	-1.542311e+03
3.800000e-07	-5.896037e-06	-2.341528e-08	-4.242393e+01	-1.535951e+03
3.900000e-07	-5.794549e-06	-2.329840e-08	-4.169369e+01	-1.529148e+03
4.000000e-07	-5.691042e-06	-2.318806e-08	-4.094892e+01	-1.521813e+03
4.100000e-07	-5.585515e-06	-2.305749e-08	-4.018962e+01	-1.513887e+03
4.200000e-07	-5.478003e-06	-2.292708e-08	-3.941604e+01	-1.505354e+03
4.300000e-07	-5.368600e-06	-2.279996e-08	-3.862884e+01	-1.496237e+03
4.400000e-07	-5.257202e-06	-2.266598e-08	-3.782730e+01	-1.486596e+03
4.500000e-07	-5.143789e-06	-2.252248e-08	-3.701126e+01	-1.476514e+03
4.600000e-07	-5.028427e-06	-2.236984e-08	-3.618119e+01	-1.466083e+03
4.700000e-07	-4.911148e-06	-2.220690e-08	-3.533733e+01	-1.455380e+03
4.800000e-07	-4.792079e-06	-2.203506e-08	-3.448059e+01	-1.444453e+03
4.900000e-07	-4.671301e-06	-2.186221e-08	-3.361155e+01	-1.433304e+03
5.000000e-07	-4.548772e-06	-2.168257e-08	-3.272991e+01	-1.421887e+03
5.100000e-07	-4.424495e-06	-2.149321e-08	-3.183570e+01	-1.410105e+03
5.200000e-07	-4.298649e-06	-2.128968e-08	-3.093020e+01	-1.397818e+03
5.300000e-07	-4.171305e-06	-2.108239e-08	-3.001391e+01	-1.384867e+03
5.400000e-07	-4.042516e-06	-2.086223e-08	-2.908723e+01	-1.371086e+03
5.500000e-07	-3.912161e-06	-2.062925e-08	-2.814929e+01	-1.356331e+03
5.600000e-07	-3.780192e-06	-2.038707e-08	-2.719973e+01	-1.340495e+03
5.700000e-07	-3.646821e-06	-2.013472e-08	-2.624008e+01	-1.323525e+03
5.800000e-07	-3.512036e-06	-1.986268e-08	-2.527026e+01	-1.305422e+03
5.900000e-07	-3.375951e-06	-1.957356e-08	-2.429108e+01	-1.286237e+03
6.000000e-07	-3.238681e-06	-1.927557e-08	-2.330338e+01	-1.266052e+03
6.100000e-07	-3.100033e-06	-1.896418e-08	-2.230576e+01	-1.244957e+03
6.200000e-07	-2.959939e-06	-1.863710e-08	-2.129774e+01	-1.223020e+03
6.300000e-07	-2.818598e-06	-1.829108e-08	-2.028074e+01	-1.200256e+03
6.400000e-07	-2.676176e-06	-1.792691e-08	-1.925597e+01	-1.176599e+03
6.500000e-07	-2.532672e-06	-1.753772e-08	-1.822341e+01	-1.151891e+03
6.600000e-07	-2.388178e-06	-1.712054e-08	-1.718373e+01	-1.125871e+03
6.700000e-07	-2.242888e-06	-1.667583e-08	-1.613832e+01	-1.098192e+03
6.800000e-07	-2.096880e-06	-1.620343e-08	-1.508774e+01	-1.068436e+03
6.900000e-07	-1.950178e-06	-1.569928e-08	-1.403217e+01	-1.036156e+03
7.000000e-07	-1.802846e-06	-1.515704e-08	-1.297207e+01	-1.000916e+03
7.100000e-07	-1.654975e-06	-1.457218e-08	-1.190809e+01	-9.623345e+02
7.200000e-07	-1.506671e-06	-1.394125e-08	-1.084100e+01	-9.201279e+02
7.300000e-07	-1.357984e-06	-1.326257e-08	-9.771139e+00	-8.741377e+02
7.400000e-07	-1.208903e-06	-1.252929e-08	-8.698453e+00	-8.243492e+02
7.500000e-07	-1.059353e-06	-1.173765e-08	-7.622392e+00	-7.708909e+02
7.600000e-07	-9.093193e-07	-1.088723e-08	-6.542851e+00	-7.140172e+02
7.700000e-07	-7.589641e-07	-9.980899e-09	-5.460997e+00	-6.540760e+02
7.800000e-07	-6.083831e-07	-9.016687e-09	-4.377517e+00	-5.914662e+02
7.900000e-07	-4.575992e-07	-8.001007e-09	-3.292577e+00	-5.265901e+02
8.000000e-07	-3.066227e-07	-6.946040e-09	-2.206251e+00	-4.598080e+02
8.100000e-07	-1.555322e-07	-5.862695e-09	-1.119105e+00	-3.914025e+02
8.200000e-07	-4.342331e-09	-4.766651e-09	-3.124450e-02	-3.215559e+02
8.300000e-07	1.469215e-07	-3.666819e-09	1.057149e+00	-2.503466e+02
8.400000e-07	2.981609e-07	-2.570849e-09	2.145366e+00	-1.777640e+02
8.500000e-07	4.493308e-07	-1.475163e-09	3.233083e+00	-1.037415e+02
8.600000e-07	6.003746e-07	-3.692767e-10	4.319893e+00	-2.820206e+01
8.700000e-07	7.512644e-07	7.583808e-10	5.405595e+00	4.888941e+01
8.800000e-07	9.019183e-07	1.917844e-09	6.489599e+00	1.274736e+02
8.900000e-07	1.052243e-06	3.115486e-09	7.571235e+00	2.073535e+02
9.000000e-07	1.202146e-06	4.351103e-09	8.649834e+00	2.881654e+02
9.100000e-07	1.351560e-06	5.613793e-09	9.724923e+00	3.693706e+02
9.200000e-07	1.500509e-06	6.888213e-09	1.079666e+01	4.502692e+02
9.300000e-07	1.649024e-06	8.150855e-09	1.186527e+01	5.300360e+02
9.400000e-07	1.797046e-06	9.372499e-09	1.293033e+01	6.077740e+02
9.500000e-07	1.944437e-06	1.052712e-08	1.399086e+01	6.825812e+02
9.600000e-07	2.091108e-06	1.159978e-08	1.504621e+01	7.536214e+02
9.700000e-07	2.236991e-06	1.258663e-08	1.609589e+01	8.201914e+02
9.800000e-07	2.382012e-06	1.348709e-08	1.713936e+01	8.817769e+02
9.900000e-07	2.526134e-06	1.430642e-08	1.817637e+01	9.380891e+02
1.000000e-06	2.669260e-06	1.505080e-08	1.920621e+01	9.890804e+02
1.010000e-06	2.811314e-06	1.572700e-08	2.022833e+01	1.034935e+03
1.020000e-06	2.952265e-06	1.634241e-08	2.124252e+01	1.076036e+03
1.030000e-06	3.092016e-06	1.690930e-08	2.224807e+01	1.112920e+03
1.040000e-06	3.230498e-06	1.743344e-08	2.324450e+01	1.146213e+03
1.050000e-06	3.367753e-06	1.791990e-08	2.423209e+01	1.176567e+03
1.060000e-06	3.503722e-06	1.837121e-08	2.521043e+01	1.204596e+03
1.070000e-06	3.638355e-06	1.878876e-08	2.617917e+01	1.230832e+03
1.080000e-06	3.771722e-06	1.917674e-08	2.713878e+01	1.255682e+03
1.090000e-06	3.903725e-06	1.954036e-08	2.808859e+01	1.279420e+03
1.100000e-06	4.034279e-06	1.988289e-08	2.902797e+01	1.302185e+03
1.110000e-06	4.163403e-06	2.020326e-08	2.995705e+01	1.324000e+03
1.120000e-06	4.291022e-06	2.050422e-08	3.087531e+01	1.344807e+03
1.130000e-06	4.417130e-06	2.078649e-08	3.178270e+01	1.364505e+03
1.140000e-06	4.541782e-06	2.105090e-08	3.267961e+01	1.382988e+03
1.150000e-06	4.664880e-06	2.129945e-08	3.356535e+01	1.400179e+03
1.160000e-06	4.786376e-06	2.153600e-08	3.443955e+01	1.416054e+03
1.170000e-06	4.906169e-06	2.176057e-08	3.530150e+01	1.430658e+03
1.180000e-06	5.024104e-06	2.197228e-08	3.615009e+01	1.444099e+03
1.190000e-06	5.140144e-06	2.217083e-08	3.698503e+01	1.456537e+03
1.200000e-06	5.254288e-06	2.235884e-08	3.780633e+01	1.468163e+03
1.210000e-06	5.366418e-06	2.253706e-08	3.861314e+01	1.479174e+03
1.220000e-06	5.476524e-06	2.270709e-08	3.940539e+01	1.489743e+03
1.230000e-06	5.584685e-06	2.286828e-08	4.018365e+01	1.500002e+03
1.240000e-06	5.690895e-06	2.302177e-08	4.094786e+01	1.510027e+03
1.250000e-06	5.795040e-06	2.316952e-08	4.169722e+01	1.519831e+03
1.260000e-06	5.897022e-06	2.330869e-08	4.243101e+01	1.529373e+03
1.270000e-06	5.996808e-06	2.344009e-08	4.314900e+01	1.538571e+03
1.280000e-06	6.094281e-06	2.356421e-08	4.385035e+01	1.547321e+03
1.290000e-06	6.189454e-06	2.368153e-08	4.453516e+01	1.555521e+03
1.300000e-06	6.282481e-06	2.379236e-08	4.520452e+01	1.563091e+03
1.310000e-06	6.373381e-06	2.389555e-08	4.585858e+01	1.569993e+03
1.320000e-06	6.461932e-06	2.399169e-08	4.649573e+01	1.576232e+03
1.330000e-06	6.548133e-06	2.408218e-08	4.711597e+01	1.581866e+03
1.340000e-06	6.632071e-06	2.416884e-08	4.771993e+01	1.586992e+03
1.350000e-06	6.713631e-06	2.424992e-08	4.830679e+01	1.591735e+03
1.360000e-06	6.792720e-06	2.432508e-08	4.887586e+01	1.596225e+03
1.370000e-06	6.869361e-06	2.439699e-08	4.942731e+01	1.600585e+03
1.380000e-06	6.943398e-06	2.446564e-08	4.996004e+01	1.604907e+03
1.390000e-06	7.014800e-06	2.453166e-08	5.047379e+01	1.609243e+03
1.400000e-06	7.083767e-06	2.459444e-08	5.097004e+01	1.613599e+03
1.410000e-06	7.150171e-06	2.465506e-08	5.144784e+01	1.617937e+03
1.420000e-06	7.213903e-06	2.471251e-08	5.190641e+01	1.622183e+03
1.430000e-06	7.275177e-06	2.476544e-08	5.234729e+01	1.626245e+03
1.440000e-06	7.334045e-06	2.481449e-08	5.277087e+01	1.630026e+03
1.450000e-06	7.390338e-06	2.485975e-08	5.317592e+01	1.633444e+03
1.460000e-06	7.443928e-06	2.490246e-08	5.356151e+01	1.636444e+03
1.470000e-06	7.494521e-06	2.494187e-08	5.392555e+01	1.639010e+03
1.480000e-06	7.542100e-06	2.497948e-08	5.426789e+01	1.641162e+03
1.490000e-06	7.586964e-06	2.501574e-08	5.459070e+01	1.642961e+03
1.500000e-06	7.629090e-06	2.504909e-08	5.489382e+01	1.644489e+03
1.510000e-06	7.668478e-06	2.507714e-08	5.517723e+01	1.645841e+03
1.520000e-06	7.705287e-06	2.509930e-08	5.544207e+01	1.647109e+03
1.530000e-06	7.739421e-06	2.511852e-08	5.568768e+01	1.648365e+03
1.540000e-06	7.770719e-06	2.513665e-08	5.591288e+01	1.649653e+03
1.550000e-06	7.799285e-06	2.515347e-08	5.611842e+01	1.650979e+03
1.560000e-06	7.825081e-06	2.516836e-08	5.630403e+01	1.652317e+03
1.570000e-06	7.847953e-06	2.518199e-08	5.646861e+01	1.653611e+03
1.580000e-06	7.868113e-06	2.519521e-08	5.661366e+01	1.654786e+03
1.590000e-06	7.885539e-06	2.520643e-08	5.673905e+01	1.655764e+03
1.600000e-06	7.900006e-06	2.521588e-08	5.684314e+01	1.656477e+03
1.610000e-06	7.911348e-06	2.522183e-08	5.692475e+01	1.656878e+03
1.620000e-06	7.919565e-06	2.522246e-08	5.698388e+01	1.656953e+03
1.630000e-06	7.924959e-06	2.522004e-08	5.702269e+01	1.656718e+03
1.640000e-06	7.927573e-06	2.521762e-08	5.704150e+01	1.656223e+03
1.650000e-06	7.927358e-06	2.521782e-08	5.703995e+01	1.655536e+03
1.660000e-06	7.924504e-06	2.520972e-08	5.701941e+01	1.654740e+03
1.670000e-06	7.918993e-06	2.520396e-08	5.697976e+01	1.653912e+03
1.680000e-06	7.910833e-06	2.519785e-08	5.692105e+01	1.653114e+03
1.690000e-06	7.900079e-06	2.518764e-08	5.684367e+01	1.652383e+03
1.700000e-06	7.886443e-06	2.517751e-08	5.674555e+01	1.651725e+03
1.710000e-06	7.870105e-06	2.517186e-08	5.662799e+01	1.651111e+03
1.720000e-06	7.851499e-06	2.516845e-08	5.649412e+01	1.650489e+03
1.730000e-06	7.830566e-06	2.513000e-08	5.634350e+01	1.649789e+03
1.740000e-06	7.806726e-06	2.503417e-08	5.617196e+01	1.648935e+03
1.750000e-06	7.779324e-06	2.503991e-08	5.597479e+01	1.647861e+03
1.760000e-06	7.748317e-06	2.505168e-08	5.575169e+01	1.646518e+03
1.770000e-06	7.714433e-06	2.502074e-08	5.550789e+01	1.644887e+03
1.780000e-06	7.678303e-06	2.503315e-08	5.524792e+01	1.642977e+03
1.790000e-06	7.639938e-06	2.509793e-08	5.497187e+01	1.640822e+03
1.800000e-06	7.599596e-06	2.499393e-08	5.468160e+01	1.638480e+03
1.810000e-06	7.557192e-06	2.489797e-08	5.437648e+01	1.636015e+03
1.820000e-06	7.512121e-06	2.495426e-08	5.405219e+01	1.633487e+03
1.830000e-06	7.464422e-06	2.481376e-08	5.370897e+01	1.630942e+03
1.840000e-06	7.413985e-06	2.485916e-08	5.334606e+01	1.628399e+03
1.850000e-06	7.360502e-06	2.483456e-08	5.296124e+01	1.625846e+03
1.860000e-06	7.304131e-06	2.476336e-08	5.255563e+01	1.623245e+03
1.870000e-06	7.245090e-06	2.479206e-08	5.213081e+01	1.620530e+03
1.880000e-06	7.183443e-06	2.463765e-08	5.168724e+01	1.617623e+03
1.890000e-06	7.118987e-06	2.463183e-08	5.122346e+01	1.614445e+03
1.900000e-06	7.051767e-06	2.454296e-08	5.073979e+01	1.610929e+03
1.910000e-06	6.981924e-06	2.446266e-08	5.023724e+01	1.607031e+03
1.920000e-06	6.909365e-06	2.444721e-08	4.971516e+01	1.602740e+03
1.930000e-06	6.834129e-06	2.435290e-08	4.917381e+01	1.598076e+03
1.940000e-06	6.756166e-06	2.433916e-08	4.861284e+01	1.593090e+03
1.950000e-06	6.675597e-06	2.421629e-08	4.803312e+01	1.587853e+03
1.960000e-06	6.592574e-06	2.415525e-08	4.743574e+01	1.582443e+03
1.970000e-06	6.507100e-06	2.406738e-08	4.682073e+01	1.576933e+03
1.980000e-06	6.419186e-06	2.396884e-08	4.618816e+01	1.571373e+03
1.990000e-06	6.328964e-06	2.392382e-08	4.553898e+01	1.565781e+03
2.000000e-06	6.236613e-06	2.381731e-08	4.487448e+01	1.560137e+03
2.010000e-06	6.142016e-06	2.374106e-08	4.419382e+01	1.554384e+03
2.020000e-06	6.045209e-06	2.361446e-08	4.349727e+01	1.548433e+03
2.030000e-06	5.946253e-06	2.351819e-08	4.278524e+01	1.542179e+03
2.040000e-06	5.845158e-06	2.340542e-08	4.205783e+01	1.535511e+03
2.050000e-06	5.741941e-06	2.330732e-08	4.131516e+01	1.528333e+03
2.060000e-06	5.636707e-06	2.319631e-08	4.055797e+01	1.520578e+03
2.070000e-06	5.529581e-06	2.306306e-08	3.978716e+01	1.512216e+03
2.080000e-06	5.420540e-06	2.293270e-08	3.900257e+01	1.503258e+03
2.090000e-06	5.309551e-06	2.277860e-08	3.820397e+01	1.493757e+03
2.100000e-06	5.196568e-06	2.264335e-08	3.739102e+01	1.483790e+03
2.110000e-06	5.081667e-06	2.249669e-08	3.656427e+01	1.473448e+03
2.120000e-06	4.964831e-06	2.236055e-08	3.572359e+01	1.462814e+03
2.130000e-06	4.846014e-06	2.219818e-08	3.486867e+01	1.451947e+03
2.140000e-06	4.725319e-06	2.202616e-08	3.400023e+01	1.440862e+03
2.150000e-06	4.602958e-06	2.184290e-08	3.311980e+01	1.429528e+03
2.160000e-06	4.478932e-06	2.165537e-08	3.222739e+01	1.417860e+03
2.170000e-06	4.353251e-06	2.145861e-08	3.132308e+01	1.405732e+03
2.180000e-06	4.225973e-06	2.125620e-08	3.040727e+01	1.392985e+03
2.190000e-06	4.097089e-06	2.104786e-08	2.947991e+01	1.379455e+03
2.200000e-06	3.966722e-06	2.082423e-08	2.854187e+01	1.364989e+03
2.210000e-06	3.834897e-06	2.058695e-08	2.759335e+01	1.349468e+03
2.220000e-06	3.701678e-06	2.033685e-08	2.663479e+01	1.332823e+03
2.230000e-06	3.567098e-06	2.008230e-08	2.566644e+01	1.315038e+03
2.240000e-06	3.431123e-06	1.980888e-08	2.468806e+01	1.296153e+03
2.250000e-06	3.293891e-06	1.952427e-08	2.370063e+01	1.276242e+03
2.260000e-06	3.155458e-06	1.922274e-08	2.270456e+01	1.255397e+03
2.270000e-06	3.015709e-06	1.890279e-08	2.169902e+01	1.233694e+03
2.280000e-06	2.874723e-06	1.856025e-08	2.068458e+01	1.211167e+03
2.290000e-06	2.732665e-06	1.820063e-08	1.966242e+01	1.187775e+03
2.300000e-06	2.589507e-06	1.782270e-08	1.863235e+01	1.163387e+03
2.310000e-06	2.445346e-06	1.742172e-08	1.759507e+01	1.137773e+03
2.320000e-06	2.300420e-06	1.699343e-08	1.655228e+01	1.110605e+03
2.330000e-06	2.154797e-06	1.653431e-08	1.550447e+01	1.081486e+03
2.340000e-06	2.008458e-06	1.603868e-08	1.445151e+01	1.049971e+03
2.350000e-06	1.861429e-06	1.550290e-08	1.339359e+01	1.015616e+03
2.360000e-06	1.713745e-06	1.493019e-08	1.233096e+01	9.780219e+02
2.370000e-06	1.565453e-06	1.431709e-08	1.126395e+01	9.368713e+02
2.380000e-06	1.416674e-06	1.365612e-08	1.019343e+01	8.919681e+02
2.390000e-06	1.267494e-06	1.294234e-08	9.120039e+00	8.432558e+02
2.400000e-06	1.117953e-06	1.216979e-08	8.044043e+00	7.908231e+02
2.410000e-06	9.680344e-07	1.133712e-08	6.965326e+00	7.348911e+02
2.420000e-06	8.177932e-07	1.044626e-08	5.884291e+00	6.757851e+02
2.430000e-06	6.673247e-07	9.499057e-09	4.801621e+00	6.138939e+02
2.440000e-06	5.166031e-07	8.498297e-09	3.717130e+00	5.496239e+02
2.450000e-06	3.656724e-07	7.450159e-09	2.631133e+00	4.833517e+02
2.460000e-06	2.145724e-07	6.370536e-09	1.543919e+00	4.153848e+02
2.470000e-06	6.332835e-08	5.272983e-09	4.556684e-01	3.459356e+02
2.480000e-06	-8.796212e-08	4.169037e-09	-6.329164e-01	2.751112e+02
2.490000e-06	-2.392022e-07	3.065387e-09	-1.721139e+00	2.029241e+02
2.500000e-06	-3.903407e-07	1.962937e-09	-2.808630e+00	1.293195e+02
2.510000e-06	-5.413412e-07	8.575278e-10	-3.895128e+00	5.421786e+01
2.520000e-06	-6.921790e-07	-2.613893e-10	-4.980456e+00	-2.243316e+01
2.530000e-06	-8.428461e-07	-1.409704e-09	-6.064555e+00	-1.006063e+02
2.540000e-06	-9.932484e-07	-2.597501e-09	-7.146749e+00	-1.801474e+02
2.550000e-06	-1.143273e-06	-3.827208e-09	-8.226224e+00	-2.607423e+02
2.560000e-06	-1.292880e-06	-5.090426e-09	-9.302697e+00	-3.419020e+02
2.570000e-06	-1.442053e-06	-6.370199e-09	-1.037605e+01	-4.229698e+02
2.580000e-06	-1.590725e-06	-7.645025e-09	-1.144579e+01	-5.031515e+02
2.590000e-06	-1.738849e-06	-8.887891e-09	-1.251159e+01	-5.815643e+02
2.600000e-06	-1.886356e-06	-1.007447e-08	-1.357295e+01	-6.573004e+02
2.610000e-06	-2.033125e-06	-1.118404e-08	-1.462901e+01	-7.294976e+02
2.620000e-06	-2.179066e-06	-1.220758e-08	-1.567910e+01	-7.974084e+02
2.630000e-06	-2.324230e-06	-1.314217e-08	-1.672360e+01	-8.604598e+02
2.640000e-06	-2.468479e-06	-1.399170e-08	-1.776152e+01	-9.182961e+02
2.650000e-06	-2.611635e-06	-1.476523e-08	-1.879157e+01	-9.708006e+02
2.660000e-06	-2.753773e-06	-1.546954e-08	-1.981430e+01	-1.018093e+03
2.670000e-06	-2.894859e-06	-1.611324e-08	-2.082947e+01	-1.060505e+03
2.680000e-06	-3.034757e-06	-1.670359e-08	-2.183607e+01	-1.098535e+03
2.690000e-06	-3.173454e-06	-1.724600e-08	-2.283404e+01	-1.132790e+03
2.700000e-06	-3.310964e-06	-1.774414e-08	-2.382347e+01	-1.163920e+03
2.710000e-06	-3.447158e-06	-1.820427e-08	-2.480344e+01	-1.192556e+03
2.720000e-06	-3.582062e-06	-1.863368e-08	-2.577411e+01	-1.219259e+03
2.730000e-06	-3.715786e-06	-1.903392e-08	-2.673630e+01	-1.244473e+03
2.740000e-06	-3.848146e-06	-1.940681e-08	-2.768868e+01	-1.268512e+03
2.750000e-06	-3.979081e-06	-1.975623e-08	-2.863080e+01	-1.291549e+03
2.760000e-06	-4.108744e-06	-2.008462e-08	-2.956377e+01	-1.313640e+03
2.770000e-06	-4.236989e-06	-2.039433e-08	-3.048653e+01	-1.334747e+03
2.780000e-06	-4.363743e-06	-2.068560e-08	-3.139857e+01	-1.354775e+03
2.790000e-06	-4.489049e-06	-2.095964e-08	-3.230019e+01	-1.373617e+03
2.800000e-06	-4.612720e-06	-2.121640e-08	-3.319004e+01	-1.391184e+03
2.810000e-06	-4.734716e-06	-2.145822e-08	-3.406784e+01	-1.407436e+03
2.820000e-06	-4.855004e-06	-2.168901e-08	-3.493335e+01	-1.422397e+03
2.830000e-06	-4.973422e-06	-2.190995e-08	-3.578541e+01	-1.436157e+03
2.840000e-06	-5.089879e-06	-2.211889e-08	-3.662335e+01	-1.448865e+03
2.850000e-06	-5.204216e-06	-2.231445e-08	-3.744604e+01	-1.460705e+03
2.860000e-06	-5.316444e-06	-2.249960e-08	-3.825356e+01	-1.471874e+03
2.870000e-06	-5.426673e-06	-2.267230e-08	-3.904670e+01	-1.482556e+03
2.880000e-06	-5.534983e-06	-2.283365e-08	-3.982603e+01	-1.492895e+03
2.890000e-06	-5.641444e-06	-2.298749e-08	-4.059205e+01	-1.502985e+03
2.900000e-06	-5.745892e-06	-2.313417e-08	-4.134359e+01	-1.512856e+03
2.910000e-06	-5.848180e-06	-2.327324e-08	-4.207958e+01	-1.522482e+03
2.920000e-06	-5.948253e-06	-2.340474e-08	-4.279964e+01	-1.531790e+03
2.930000e-06	-6.046207e-06	-2.353229e-08	-4.350445e+01	-1.540681e+03
2.940000e-06	-6.142054e-06	-2.365281e-08	-4.419410e+01	-1.549049e+03
