# Temperatura_=_73.17
# Concentracion g/m^3_=_28370.0
# C_Vs_to_Am_M_A/Vsm_=_65563218390.804596
# pendiente_HvsI_1/m_=_3716.3
# ordenada_HvsI_A/m_=_1297.0
# frecuencia_Hz_=_302511.8996370526

Tiempo_(s)	Campo_(V.s)	Magnetizacion_(V.s)	Campo_(kA/m)	Magnetizacion_(A/m)
0.000000e+00	-7.918005e-06	-2.790626e-08	-5.683480e+01	-1.826784e+03
1.000000e-08	-7.913430e-06	-2.790069e-08	-5.680196e+01	-1.825961e+03
2.000000e-08	-7.906343e-06	-2.788728e-08	-5.675109e+01	-1.825149e+03
3.000000e-08	-7.896563e-06	-2.787426e-08	-5.668089e+01	-1.824376e+03
4.000000e-08	-7.883918e-06	-2.785946e-08	-5.659013e+01	-1.823638e+03
5.000000e-08	-7.868363e-06	-2.783833e-08	-5.647847e+01	-1.822901e+03
6.000000e-08	-7.850189e-06	-2.781442e-08	-5.634803e+01	-1.822103e+03
7.000000e-08	-7.829779e-06	-2.778073e-08	-5.620152e+01	-1.821169e+03
8.000000e-08	-7.806952e-06	-2.778602e-08	-5.603768e+01	-1.820021e+03
9.000000e-08	-7.781147e-06	-2.782563e-08	-5.585245e+01	-1.818596e+03
1.000000e-07	-7.752126e-06	-2.776424e-08	-5.564414e+01	-1.816851e+03
1.100000e-07	-7.720191e-06	-2.769287e-08	-5.541491e+01	-1.814778e+03
1.200000e-07	-7.685445e-06	-2.766597e-08	-5.516550e+01	-1.812397e+03
1.300000e-07	-7.648096e-06	-2.763074e-08	-5.489741e+01	-1.809760e+03
1.400000e-07	-7.608501e-06	-2.755239e-08	-5.461321e+01	-1.806937e+03
1.500000e-07	-7.566707e-06	-2.748892e-08	-5.431322e+01	-1.804004e+03
1.600000e-07	-7.522508e-06	-2.756226e-08	-5.399596e+01	-1.801030e+03
1.700000e-07	-7.475659e-06	-2.743730e-08	-5.365968e+01	-1.798061e+03
1.800000e-07	-7.425970e-06	-2.735502e-08	-5.330302e+01	-1.795115e+03
1.900000e-07	-7.373327e-06	-2.739937e-08	-5.292515e+01	-1.792171e+03
2.000000e-07	-7.317857e-06	-2.729222e-08	-5.252699e+01	-1.789177e+03
2.100000e-07	-7.259777e-06	-2.725624e-08	-5.211009e+01	-1.786051e+03
2.200000e-07	-7.199140e-06	-2.716266e-08	-5.167484e+01	-1.782697e+03
2.300000e-07	-7.135853e-06	-2.708429e-08	-5.122058e+01	-1.779018e+03
2.400000e-07	-7.069832e-06	-2.705484e-08	-5.074668e+01	-1.774932e+03
2.500000e-07	-7.001149e-06	-2.697642e-08	-5.025368e+01	-1.770384e+03
2.600000e-07	-6.929678e-06	-2.689525e-08	-4.974067e+01	-1.765358e+03
2.700000e-07	-6.855369e-06	-2.680385e-08	-4.920729e+01	-1.759876e+03
2.800000e-07	-6.778391e-06	-2.675674e-08	-4.865475e+01	-1.753993e+03
2.900000e-07	-6.698662e-06	-2.664648e-08	-4.808245e+01	-1.747793e+03
3.000000e-07	-6.616369e-06	-2.653187e-08	-4.749177e+01	-1.741369e+03
3.100000e-07	-6.531865e-06	-2.647971e-08	-4.688520e+01	-1.734808e+03
3.200000e-07	-6.445172e-06	-2.639055e-08	-4.626293e+01	-1.728174e+03
3.300000e-07	-6.356132e-06	-2.627361e-08	-4.562380e+01	-1.721499e+03
3.400000e-07	-6.264726e-06	-2.612746e-08	-4.496770e+01	-1.714770e+03
3.500000e-07	-6.171115e-06	-2.604476e-08	-4.429577e+01	-1.707935e+03
3.600000e-07	-6.075210e-06	-2.594397e-08	-4.360737e+01	-1.700902e+03
3.700000e-07	-5.976990e-06	-2.580181e-08	-4.290235e+01	-1.693561e+03
3.800000e-07	-5.876619e-06	-2.567896e-08	-4.218190e+01	-1.685791e+03
3.900000e-07	-5.774201e-06	-2.555510e-08	-4.144675e+01	-1.677486e+03
4.000000e-07	-5.669738e-06	-2.541480e-08	-4.069692e+01	-1.668568e+03
4.100000e-07	-5.563231e-06	-2.525381e-08	-3.993242e+01	-1.658997e+03
4.200000e-07	-5.454806e-06	-2.512602e-08	-3.915416e+01	-1.648780e+03
4.300000e-07	-5.344471e-06	-2.496767e-08	-3.836219e+01	-1.637965e+03
4.400000e-07	-5.232076e-06	-2.479166e-08	-3.755542e+01	-1.626631e+03
4.500000e-07	-5.117655e-06	-2.462147e-08	-3.673412e+01	-1.614874e+03
4.600000e-07	-5.001369e-06	-2.445505e-08	-3.589942e+01	-1.602785e+03
4.700000e-07	-4.883267e-06	-2.426940e-08	-3.505170e+01	-1.590429e+03
4.800000e-07	-4.763388e-06	-2.407223e-08	-3.419121e+01	-1.577832e+03
4.900000e-07	-4.641695e-06	-2.387929e-08	-3.331771e+01	-1.564968e+03
5.000000e-07	-4.518223e-06	-2.365965e-08	-3.243144e+01	-1.551756e+03
5.100000e-07	-4.393105e-06	-2.342601e-08	-3.153336e+01	-1.538069e+03
5.200000e-07	-4.266457e-06	-2.319304e-08	-3.062428e+01	-1.523746e+03
5.300000e-07	-4.138296e-06	-2.296153e-08	-2.970435e+01	-1.508614e+03
5.400000e-07	-4.008560e-06	-2.270221e-08	-2.877312e+01	-1.492509e+03
5.500000e-07	-3.877260e-06	-2.243012e-08	-2.783066e+01	-1.475303e+03
5.600000e-07	-3.744465e-06	-2.215477e-08	-2.687747e+01	-1.456916e+03
5.700000e-07	-3.610307e-06	-2.186601e-08	-2.591449e+01	-1.437323e+03
5.800000e-07	-3.474804e-06	-2.155912e-08	-2.494186e+01	-1.416560e+03
5.900000e-07	-3.337908e-06	-2.123667e-08	-2.395923e+01	-1.394701e+03
6.000000e-07	-3.199669e-06	-2.090364e-08	-2.296696e+01	-1.371843e+03
6.100000e-07	-3.060114e-06	-2.054854e-08	-2.196525e+01	-1.348073e+03
6.200000e-07	-2.919240e-06	-2.017416e-08	-2.095407e+01	-1.323436e+03
6.300000e-07	-2.777110e-06	-1.977920e-08	-1.993387e+01	-1.297908e+03
6.400000e-07	-2.633833e-06	-1.936697e-08	-1.890544e+01	-1.271375e+03
6.500000e-07	-2.489575e-06	-1.893012e-08	-1.786997e+01	-1.243617e+03
6.600000e-07	-2.344502e-06	-1.846188e-08	-1.682865e+01	-1.214317e+03
6.700000e-07	-2.198713e-06	-1.796129e-08	-1.578218e+01	-1.183074e+03
6.800000e-07	-2.052218e-06	-1.742966e-08	-1.473065e+01	-1.149438e+03
6.900000e-07	-1.905044e-06	-1.686710e-08	-1.367425e+01	-1.112943e+03
7.000000e-07	-1.757258e-06	-1.625882e-08	-1.261346e+01	-1.073156e+03
7.100000e-07	-1.608939e-06	-1.560575e-08	-1.154884e+01	-1.029715e+03
7.200000e-07	-1.460173e-06	-1.490374e-08	-1.048100e+01	-9.823679e+02
7.300000e-07	-1.311004e-06	-1.414657e-08	-9.410282e+00	-9.309914e+02
7.400000e-07	-1.161434e-06	-1.332698e-08	-8.336677e+00	-8.756004e+02
7.500000e-07	-1.011436e-06	-1.244638e-08	-7.260006e+00	-8.163383e+02
7.600000e-07	-8.610599e-07	-1.150496e-08	-6.180619e+00	-7.534518e+02
7.700000e-07	-7.103642e-07	-1.049367e-08	-5.098937e+00	-6.872556e+02
7.800000e-07	-5.593715e-07	-9.417130e-09	-4.015124e+00	-6.180900e+02
7.900000e-07	-4.081515e-07	-8.284014e-09	-2.929679e+00	-5.462784e+02
8.000000e-07	-2.567341e-07	-7.108333e-09	-1.842817e+00	-4.720926e+02
8.100000e-07	-1.051121e-07	-5.900197e-09	-7.544864e-01	-3.957298e+02
8.200000e-07	4.658148e-08	-4.677684e-09	3.343581e-01	-3.173063e+02
8.300000e-07	1.982715e-07	-3.452906e-09	1.423177e+00	-2.368689e+02
8.400000e-07	3.498947e-07	-2.222985e-09	2.511516e+00	-1.544234e+02
8.500000e-07	5.013431e-07	-9.809879e-10	3.598601e+00	-6.997639e+01
8.600000e-07	6.526012e-07	2.788259e-10	4.684319e+00	1.641584e+01
8.700000e-07	8.036507e-07	1.566569e-09	5.768540e+00	1.045985e+02
8.800000e-07	9.543958e-07	2.897702e-09	6.850576e+00	1.942767e+02
8.900000e-07	1.104844e-06	4.273231e-09	7.930480e+00	2.849884e+02
9.000000e-07	1.254927e-06	5.683888e-09	9.007764e+00	3.760965e+02
9.100000e-07	1.404516e-06	7.111971e-09	1.008151e+01	4.668043e+02
9.200000e-07	1.553668e-06	8.533240e-09	1.115211e+01	5.561912e+02
9.300000e-07	1.702328e-06	9.909865e-09	1.221918e+01	6.432691e+02
9.400000e-07	1.850397e-06	1.121169e-08	1.328200e+01	7.270501e+02
9.500000e-07	1.997820e-06	1.242285e-08	1.434019e+01	8.066203e+02
9.600000e-07	2.144507e-06	1.353095e-08	1.539310e+01	8.812103e+02
9.700000e-07	2.290402e-06	1.453719e-08	1.644032e+01	9.502540e+02
9.800000e-07	2.435510e-06	1.544962e-08	1.748189e+01	1.013428e+03
9.900000e-07	2.579725e-06	1.628277e-08	1.851706e+01	1.070671e+03
1.000000e-06	2.722855e-06	1.704344e-08	1.954444e+01	1.122173e+03
1.010000e-06	2.864939e-06	1.773611e-08	2.056430e+01	1.168344e+03
1.020000e-06	3.005909e-06	1.836974e-08	2.157618e+01	1.209765e+03
1.030000e-06	3.145577e-06	1.895315e-08	2.257870e+01	1.247121e+03
1.040000e-06	3.283935e-06	1.949404e-08	2.357182e+01	1.281134e+03
1.050000e-06	3.421008e-06	1.999632e-08	2.455572e+01	1.312493e+03
1.060000e-06	3.556758e-06	2.046582e-08	2.553012e+01	1.341800e+03
1.070000e-06	3.691209e-06	2.090329e-08	2.649520e+01	1.369531e+03
1.080000e-06	3.824414e-06	2.131146e-08	2.745134e+01	1.396012e+03
1.090000e-06	3.956291e-06	2.169179e-08	2.839794e+01	1.421420e+03
1.100000e-06	4.086677e-06	2.204967e-08	2.933384e+01	1.445804e+03
1.110000e-06	4.215616e-06	2.238805e-08	3.025935e+01	1.469117e+03
1.120000e-06	4.343105e-06	2.270949e-08	3.117446e+01	1.491252e+03
1.130000e-06	4.469030e-06	2.301249e-08	3.207834e+01	1.512091e+03
1.140000e-06	4.593487e-06	2.329517e-08	3.297168e+01	1.531541e+03
1.150000e-06	4.716364e-06	2.356065e-08	3.385368e+01	1.549563e+03
1.160000e-06	4.837560e-06	2.380993e-08	3.472362e+01	1.566187e+03
1.170000e-06	4.956998e-06	2.404754e-08	3.558093e+01	1.581515e+03
1.180000e-06	5.074614e-06	2.427523e-08	3.642517e+01	1.595712e+03
1.190000e-06	5.190302e-06	2.449232e-08	3.725557e+01	1.608981e+03
1.200000e-06	5.303926e-06	2.469886e-08	3.807115e+01	1.621538e+03
1.210000e-06	5.415531e-06	2.489443e-08	3.887224e+01	1.633581e+03
1.220000e-06	5.525231e-06	2.507804e-08	3.965966e+01	1.645270e+03
1.230000e-06	5.633074e-06	2.525108e-08	4.043375e+01	1.656704e+03
1.240000e-06	5.738887e-06	2.541553e-08	4.119327e+01	1.667917e+03
1.250000e-06	5.842516e-06	2.557342e-08	4.193711e+01	1.678880e+03
1.260000e-06	5.944033e-06	2.572461e-08	4.266579e+01	1.689514e+03
1.270000e-06	6.043393e-06	2.586987e-08	4.337899e+01	1.699711e+03
1.280000e-06	6.140424e-06	2.600895e-08	4.407547e+01	1.709355e+03
1.290000e-06	6.235144e-06	2.614225e-08	4.475536e+01	1.718347e+03
1.300000e-06	6.327677e-06	2.626725e-08	4.541956e+01	1.726627e+03
1.310000e-06	6.417942e-06	2.638379e-08	4.606747e+01	1.734181e+03
1.320000e-06	6.505839e-06	2.649577e-08	4.669839e+01	1.741049e+03
1.330000e-06	6.591522e-06	2.660371e-08	4.731341e+01	1.747317e+03
1.340000e-06	6.675003e-06	2.670340e-08	4.791263e+01	1.753104e+03
1.350000e-06	6.756086e-06	2.679392e-08	4.849464e+01	1.758548e+03
1.360000e-06	6.834630e-06	2.687935e-08	4.905843e+01	1.763781e+03
1.370000e-06	6.910598e-06	2.696067e-08	4.960372e+01	1.768910e+03
1.380000e-06	6.983894e-06	2.703683e-08	5.012983e+01	1.774007e+03
1.390000e-06	7.054603e-06	2.711096e-08	5.063737e+01	1.779095e+03
1.400000e-06	7.122908e-06	2.718417e-08	5.112766e+01	1.784155e+03
1.410000e-06	7.188661e-06	2.725396e-08	5.159963e+01	1.789125e+03
1.420000e-06	7.251782e-06	2.731926e-08	5.205271e+01	1.793919e+03
1.430000e-06	7.312461e-06	2.738004e-08	5.248825e+01	1.798441e+03
1.440000e-06	7.370598e-06	2.743699e-08	5.290556e+01	1.802605e+03
1.450000e-06	7.426130e-06	2.748963e-08	5.330416e+01	1.806346e+03
1.460000e-06	7.478954e-06	2.753979e-08	5.368333e+01	1.809637e+03
1.470000e-06	7.528694e-06	2.758644e-08	5.404036e+01	1.812488e+03
1.480000e-06	7.575482e-06	2.763056e-08	5.437620e+01	1.814947e+03
1.490000e-06	7.619640e-06	2.767224e-08	5.469316e+01	1.817088e+03
1.500000e-06	7.661061e-06	2.771031e-08	5.499048e+01	1.819002e+03
1.510000e-06	7.699666e-06	2.774512e-08	5.526758e+01	1.820779e+03
1.520000e-06	7.735658e-06	2.777611e-08	5.552593e+01	1.822495e+03
1.530000e-06	7.768900e-06	2.780237e-08	5.576454e+01	1.824197e+03
1.540000e-06	7.799326e-06	2.782462e-08	5.598293e+01	1.825899e+03
1.550000e-06	7.827100e-06	2.784574e-08	5.618230e+01	1.827580e+03
1.560000e-06	7.851978e-06	2.786459e-08	5.636086e+01	1.829189e+03
1.570000e-06	7.873948e-06	2.788011e-08	5.651856e+01	1.830655e+03
1.580000e-06	7.893258e-06	2.789208e-08	5.665717e+01	1.831900e+03
1.590000e-06	7.909743e-06	2.790204e-08	5.677550e+01	1.832856e+03
1.600000e-06	7.923188e-06	2.791122e-08	5.687201e+01	1.833474e+03
1.610000e-06	7.933505e-06	2.791730e-08	5.694606e+01	1.833736e+03
1.620000e-06	7.940742e-06	2.791982e-08	5.699800e+01	1.833655e+03
1.630000e-06	7.945174e-06	2.792044e-08	5.702982e+01	1.833278e+03
1.640000e-06	7.946801e-06	2.792154e-08	5.704150e+01	1.832674e+03
1.650000e-06	7.945633e-06	2.791868e-08	5.703312e+01	1.831923e+03
1.660000e-06	7.941902e-06	2.790787e-08	5.700633e+01	1.831105e+03
1.670000e-06	7.935513e-06	2.790303e-08	5.696047e+01	1.830283e+03
1.680000e-06	7.926448e-06	2.789523e-08	5.689541e+01	1.829496e+03
1.690000e-06	7.914697e-06	2.788218e-08	5.681106e+01	1.828748e+03
1.700000e-06	7.900105e-06	2.787083e-08	5.670631e+01	1.828015e+03
1.710000e-06	7.882931e-06	2.786123e-08	5.658305e+01	1.827239e+03
1.720000e-06	7.863470e-06	2.785284e-08	5.644336e+01	1.826350e+03
1.730000e-06	7.841532e-06	2.775804e-08	5.628588e+01	1.825268e+03
1.740000e-06	7.816496e-06	2.769667e-08	5.610618e+01	1.823925e+03
1.750000e-06	7.787813e-06	2.772876e-08	5.590029e+01	1.822272e+03
1.760000e-06	7.755717e-06	2.771324e-08	5.566991e+01	1.820290e+03
1.770000e-06	7.721053e-06	2.767140e-08	5.542110e+01	1.817991e+03
1.780000e-06	7.684145e-06	2.769693e-08	5.515618e+01	1.815419e+03
1.790000e-06	7.645093e-06	2.771637e-08	5.487586e+01	1.812639e+03
1.800000e-06	7.604105e-06	2.752109e-08	5.458165e+01	1.809728e+03
1.810000e-06	7.560695e-06	2.756535e-08	5.427006e+01	1.806757e+03
1.820000e-06	7.514529e-06	2.755461e-08	5.393869e+01	1.803781e+03
1.830000e-06	7.465770e-06	2.742949e-08	5.358869e+01	1.800827e+03
1.840000e-06	7.414049e-06	2.749319e-08	5.321745e+01	1.797885e+03
1.850000e-06	7.359307e-06	2.732805e-08	5.282451e+01	1.794910e+03
1.860000e-06	7.301879e-06	2.736563e-08	5.241230e+01	1.791830e+03
1.870000e-06	7.241853e-06	2.733990e-08	5.198144e+01	1.788549e+03
1.880000e-06	7.179216e-06	2.720869e-08	5.153183e+01	1.784970e+03
1.890000e-06	7.113738e-06	2.720979e-08	5.106184e+01	1.781005e+03
1.900000e-06	7.045541e-06	2.706116e-08	5.057232e+01	1.776590e+03
1.910000e-06	6.974650e-06	2.703325e-08	5.006347e+01	1.771699e+03
1.920000e-06	6.900969e-06	2.691584e-08	4.953460e+01	1.766340e+03
1.930000e-06	6.824573e-06	2.685930e-08	4.898624e+01	1.760562e+03
1.940000e-06	6.745501e-06	2.684035e-08	4.841867e+01	1.754441e+03
1.950000e-06	6.663900e-06	2.667317e-08	4.783294e+01	1.748069e+03
1.960000e-06	6.579751e-06	2.659025e-08	4.722893e+01	1.741537e+03
1.970000e-06	6.493181e-06	2.647216e-08	4.660753e+01	1.734917e+03
1.980000e-06	6.404294e-06	2.642520e-08	4.596951e+01	1.728251e+03
1.990000e-06	6.313187e-06	2.629886e-08	4.531555e+01	1.721540e+03
2.000000e-06	6.219835e-06	2.618238e-08	4.464548e+01	1.714740e+03
2.010000e-06	6.124227e-06	2.608801e-08	4.395921e+01	1.707773e+03
2.020000e-06	6.026536e-06	2.594288e-08	4.325799e+01	1.700530e+03
2.030000e-06	5.926696e-06	2.581975e-08	4.254134e+01	1.692892e+03
2.040000e-06	5.824631e-06	2.569519e-08	4.180874e+01	1.684747e+03
2.050000e-06	5.720441e-06	2.559190e-08	4.106087e+01	1.676008e+03
2.060000e-06	5.614377e-06	2.541468e-08	4.029954e+01	1.666623e+03
2.070000e-06	5.506433e-06	2.526390e-08	3.952474e+01	1.656586e+03
2.080000e-06	5.396527e-06	2.511751e-08	3.873584e+01	1.645932e+03
2.090000e-06	5.284663e-06	2.496573e-08	3.793288e+01	1.634735e+03
2.100000e-06	5.170798e-06	2.479084e-08	3.711557e+01	1.623087e+03
2.110000e-06	5.054939e-06	2.461763e-08	3.628394e+01	1.611082e+03
2.120000e-06	4.937094e-06	2.443981e-08	3.543806e+01	1.598796e+03
2.130000e-06	4.817373e-06	2.423140e-08	3.457872e+01	1.586266e+03
2.140000e-06	4.695837e-06	2.403805e-08	3.370634e+01	1.573482e+03
2.150000e-06	4.572636e-06	2.384540e-08	3.282201e+01	1.560379e+03
2.160000e-06	4.447776e-06	2.363951e-08	3.192578e+01	1.546841e+03
2.170000e-06	4.321215e-06	2.340126e-08	3.101734e+01	1.532715e+03
2.180000e-06	4.193109e-06	2.316647e-08	3.009780e+01	1.517829e+03
2.190000e-06	4.063492e-06	2.292126e-08	2.916742e+01	1.502016e+03
2.200000e-06	3.932443e-06	2.266579e-08	2.822676e+01	1.485133e+03
2.210000e-06	3.799892e-06	2.239209e-08	2.727532e+01	1.467085e+03
2.220000e-06	3.665807e-06	2.210937e-08	2.631287e+01	1.447834e+03
2.230000e-06	3.530355e-06	2.180778e-08	2.534061e+01	1.427397e+03
2.240000e-06	3.393674e-06	2.148686e-08	2.435952e+01	1.405840e+03
2.250000e-06	3.255767e-06	2.115860e-08	2.336963e+01	1.383255e+03
2.260000e-06	3.116544e-06	2.081816e-08	2.237030e+01	1.359736e+03
2.270000e-06	2.976010e-06	2.046180e-08	2.136156e+01	1.335344e+03
2.280000e-06	2.834227e-06	2.007622e-08	2.034385e+01	1.310076e+03
2.290000e-06	2.691331e-06	1.966843e-08	1.931816e+01	1.283846e+03
2.300000e-06	2.547492e-06	1.923962e-08	1.828569e+01	1.256464e+03
2.310000e-06	2.402812e-06	1.878712e-08	1.724719e+01	1.227640e+03
2.320000e-06	2.257415e-06	1.830044e-08	1.620354e+01	1.196995e+03
2.330000e-06	2.111318e-06	1.777734e-08	1.515487e+01	1.164088e+03
2.340000e-06	1.964526e-06	1.721919e-08	1.410121e+01	1.128455e+03
2.350000e-06	1.817098e-06	1.662375e-08	1.304298e+01	1.089647e+03
2.360000e-06	1.669028e-06	1.598510e-08	1.198015e+01	1.047279e+03
2.370000e-06	1.520334e-06	1.529999e-08	1.091284e+01	1.001064e+03
2.380000e-06	1.371090e-06	1.456640e-08	9.841577e+00	9.508411e+02
2.390000e-06	1.221392e-06	1.377161e-08	8.767054e+00	8.965857e+02
2.400000e-06	1.071255e-06	1.290800e-08	7.689381e+00	8.384062e+02
2.410000e-06	9.207365e-07	1.198151e-08	6.608973e+00	7.765233e+02
2.420000e-06	7.699573e-07	1.099421e-08	5.526692e+00	7.112362e+02
2.430000e-06	6.188979e-07	9.940780e-09	4.442399e+00	6.428824e+02
2.440000e-06	4.676079e-07	8.823158e-09	3.356452e+00	5.717942e+02
2.450000e-06	3.161835e-07	7.655947e-09	2.269539e+00	4.982610e+02
2.460000e-06	1.646313e-07	6.453893e-09	1.181710e+00	4.225028e+02
2.470000e-06	1.300091e-08	5.229605e-09	9.331950e-02	3.446586e+02
2.480000e-06	-1.386865e-07	3.995720e-09	-9.954803e-01	2.647928e+02
2.490000e-06	-2.903614e-07	2.758491e-09	-2.084191e+00	1.829191e+02
2.500000e-06	-4.418868e-07	1.513659e-09	-3.171828e+00	9.903931e+01
2.510000e-06	-5.932659e-07	2.535784e-10	-4.258415e+00	1.319018e+01
2.520000e-06	-7.444581e-07	-1.029953e-09	-5.343660e+00	-7.450634e+01
2.530000e-06	-8.953734e-07	-2.347685e-09	-6.426918e+00	-1.637989e+02
2.540000e-06	-1.045971e-06	-3.710433e-09	-7.507893e+00	-2.542748e+02
2.550000e-06	-1.196180e-06	-5.114972e-09	-8.586086e+00	-3.453465e+02
2.560000e-06	-1.346022e-06	-6.545261e-09	-9.661634e+00	-4.362602e+02
2.570000e-06	-1.495476e-06	-7.978648e-09	-1.073441e+01	-5.261257e+02
2.580000e-06	-1.644358e-06	-9.380470e-09	-1.180307e+01	-6.139676e+02
2.590000e-06	-1.792546e-06	-1.071745e-08	-1.286675e+01	-6.987904e+02
2.600000e-06	-1.939991e-06	-1.196796e-08	-1.392510e+01	-7.796518e+02
2.610000e-06	-2.086704e-06	-1.312123e-08	-1.497819e+01	-8.557345e+02
2.620000e-06	-2.232715e-06	-1.417188e-08	-1.602625e+01	-9.264090e+02
2.630000e-06	-2.377945e-06	-1.512277e-08	-1.706870e+01	-9.912803e+02
2.640000e-06	-2.522292e-06	-1.598585e-08	-1.810481e+01	-1.050211e+03
2.650000e-06	-2.665617e-06	-1.677232e-08	-1.913358e+01	-1.103322e+03
2.660000e-06	-2.807838e-06	-1.749058e-08	-2.015444e+01	-1.150965e+03
2.670000e-06	-2.948968e-06	-1.814889e-08	-2.116745e+01	-1.193679e+03
2.680000e-06	-3.088858e-06	-1.875517e-08	-2.217158e+01	-1.232125e+03
2.690000e-06	-3.227411e-06	-1.931616e-08	-2.316609e+01	-1.267022e+03
2.700000e-06	-3.364730e-06	-1.983344e-08	-2.415176e+01	-1.299075e+03
2.710000e-06	-3.500867e-06	-2.031161e-08	-2.512894e+01	-1.328917e+03
2.720000e-06	-3.635716e-06	-2.075926e-08	-2.609688e+01	-1.357060e+03
2.730000e-06	-3.769265e-06	-2.117783e-08	-2.705548e+01	-1.383875e+03
2.740000e-06	-3.901428e-06	-2.157117e-08	-2.800413e+01	-1.409582e+03
2.750000e-06	-4.032169e-06	-2.194159e-08	-2.894258e+01	-1.434263e+03
2.760000e-06	-4.161618e-06	-2.228733e-08	-2.987176e+01	-1.457892e+03
2.770000e-06	-4.289688e-06	-2.261265e-08	-3.079104e+01	-1.480378e+03
2.780000e-06	-4.416231e-06	-2.292068e-08	-3.169935e+01	-1.501601e+03
2.790000e-06	-4.541241e-06	-2.321196e-08	-3.259666e+01	-1.521457e+03
2.800000e-06	-4.664638e-06	-2.348493e-08	-3.348239e+01	-1.539889e+03
2.810000e-06	-4.786387e-06	-2.374155e-08	-3.435630e+01	-1.556907e+03
2.820000e-06	-4.906444e-06	-2.398604e-08	-3.521806e+01	-1.572593e+03
2.830000e-06	-5.024555e-06	-2.421918e-08	-3.606585e+01	-1.587096e+03
2.840000e-06	-5.140596e-06	-2.444218e-08	-3.689878e+01	-1.600610e+03
2.850000e-06	-5.254498e-06	-2.465595e-08	-3.771636e+01	-1.613351e+03
2.860000e-06	-5.366262e-06	-2.485937e-08	-3.851860e+01	-1.625524e+03
2.870000e-06	-5.476054e-06	-2.504858e-08	-3.930668e+01	-1.637304e+03
2.880000e-06	-5.584000e-06	-2.522582e-08	-4.008150e+01	-1.648806e+03
2.890000e-06	-5.690049e-06	-2.539425e-08	-4.084272e+01	-1.660085e+03
2.900000e-06	-5.794031e-06	-2.555322e-08	-4.158909e+01	-1.671128e+03
2.910000e-06	-5.895763e-06	-2.570450e-08	-4.231932e+01	-1.681868e+03
2.920000e-06	-5.995336e-06	-2.585080e-08	-4.303404e+01	-1.692204e+03
2.930000e-06	-6.092851e-06	-2.599182e-08	-4.373399e+01	-1.702019e+03
2.940000e-06	-6.188179e-06	-2.612451e-08	-4.441825e+01	-1.711208e+03
