# Temperatura_=_74.26
# Concentracion g/m^3_=_26700.0
# C_Vs_to_Am_M_A/Vsm_=_65563218390.804596
# pendiente_HvsI_1/m_=_3716.3
# ordenada_HvsI_A/m_=_1297.0
# frecuencia_Hz_=_301789.0524992485

Tiempo_(s)	Campo_(V.s)	Magnetizacion_(V.s)	Campo_(kA/m)	Magnetizacion_(A/m)
0.000000e+00	-5.238155e-06	-2.199693e-08	-3.830451e+01	-1.438130e+03
1.000000e-08	-5.236853e-06	-2.199999e-08	-3.829498e+01	-1.438283e+03
2.000000e-08	-5.233697e-06	-2.199795e-08	-3.827190e+01	-1.438259e+03
3.000000e-08	-5.228845e-06	-2.199346e-08	-3.823642e+01	-1.438055e+03
4.000000e-08	-5.222409e-06	-2.198750e-08	-3.818936e+01	-1.437658e+03
5.000000e-08	-5.214386e-06	-2.197730e-08	-3.813069e+01	-1.437045e+03
6.000000e-08	-5.204420e-06	-2.196232e-08	-3.805781e+01	-1.436193e+03
7.000000e-08	-5.192490e-06	-2.194166e-08	-3.797057e+01	-1.435084e+03
8.000000e-08	-5.178726e-06	-2.191510e-08	-3.786992e+01	-1.433716e+03
9.000000e-08	-5.162832e-06	-2.191838e-08	-3.775370e+01	-1.432105e+03
1.000000e-07	-5.144810e-06	-2.191911e-08	-3.762191e+01	-1.430284e+03
1.100000e-07	-5.124896e-06	-2.186829e-08	-3.747628e+01	-1.428301e+03
1.200000e-07	-5.103109e-06	-2.182354e-08	-3.731696e+01	-1.426212e+03
1.300000e-07	-5.079700e-06	-2.176840e-08	-3.714579e+01	-1.424063e+03
1.400000e-07	-5.054877e-06	-2.168075e-08	-3.696426e+01	-1.421892e+03
1.500000e-07	-5.028430e-06	-2.171704e-08	-3.677087e+01	-1.419710e+03
1.600000e-07	-5.000315e-06	-2.169318e-08	-3.656528e+01	-1.417506e+03
1.700000e-07	-4.970813e-06	-2.157466e-08	-3.634954e+01	-1.415242e+03
1.800000e-07	-4.939911e-06	-2.160838e-08	-3.612357e+01	-1.412865e+03
1.900000e-07	-4.907015e-06	-2.154529e-08	-3.588301e+01	-1.410314e+03
2.000000e-07	-4.872188e-06	-2.142402e-08	-3.562833e+01	-1.407532e+03
2.100000e-07	-4.835866e-06	-2.144184e-08	-3.536273e+01	-1.404474e+03
2.200000e-07	-4.797870e-06	-2.139017e-08	-3.508488e+01	-1.401117e+03
2.300000e-07	-4.758187e-06	-2.132231e-08	-3.479469e+01	-1.397459e+03
2.400000e-07	-4.716600e-06	-2.127898e-08	-3.449058e+01	-1.393518e+03
2.500000e-07	-4.673026e-06	-2.116494e-08	-3.417194e+01	-1.389327e+03
2.600000e-07	-4.627798e-06	-2.110138e-08	-3.384121e+01	-1.384924e+03
2.700000e-07	-4.580820e-06	-2.103917e-08	-3.349768e+01	-1.380345e+03
2.800000e-07	-4.531860e-06	-2.096976e-08	-3.313965e+01	-1.375619e+03
2.900000e-07	-4.480807e-06	-2.091438e-08	-3.276632e+01	-1.370758e+03
3.000000e-07	-4.427875e-06	-2.081358e-08	-3.237925e+01	-1.365766e+03
3.100000e-07	-4.373366e-06	-2.072129e-08	-3.198065e+01	-1.360633e+03
3.200000e-07	-4.317294e-06	-2.065537e-08	-3.157062e+01	-1.355345e+03
3.300000e-07	-4.259453e-06	-2.058412e-08	-3.114765e+01	-1.349888e+03
3.400000e-07	-4.199981e-06	-2.049163e-08	-3.071276e+01	-1.344248e+03
3.500000e-07	-4.139093e-06	-2.039831e-08	-3.026750e+01	-1.338420e+03
3.600000e-07	-4.076829e-06	-2.030932e-08	-2.981220e+01	-1.332404e+03
3.700000e-07	-4.013313e-06	-2.019664e-08	-2.934773e+01	-1.326203e+03
3.800000e-07	-3.948356e-06	-2.010565e-08	-2.887273e+01	-1.319824e+03
3.900000e-07	-3.881707e-06	-2.002666e-08	-2.838535e+01	-1.313271e+03
4.000000e-07	-3.813522e-06	-1.991786e-08	-2.788674e+01	-1.306547e+03
4.100000e-07	-3.744131e-06	-1.980748e-08	-2.737931e+01	-1.299652e+03
4.200000e-07	-3.673640e-06	-1.969348e-08	-2.686384e+01	-1.292581e+03
4.300000e-07	-3.602018e-06	-1.958579e-08	-2.634010e+01	-1.285329e+03
4.400000e-07	-3.528984e-06	-1.947110e-08	-2.580603e+01	-1.277894e+03
4.500000e-07	-3.454284e-06	-1.935273e-08	-2.525978e+01	-1.270271e+03
4.600000e-07	-3.378177e-06	-1.923497e-08	-2.470324e+01	-1.262461e+03
4.700000e-07	-3.300864e-06	-1.910476e-08	-2.413788e+01	-1.254465e+03
4.800000e-07	-3.222183e-06	-1.897858e-08	-2.356252e+01	-1.246286e+03
4.900000e-07	-3.142091e-06	-1.885555e-08	-2.297684e+01	-1.237921e+03
5.000000e-07	-3.060851e-06	-1.873183e-08	-2.238276e+01	-1.229368e+03
5.100000e-07	-2.978629e-06	-1.859553e-08	-2.178151e+01	-1.220620e+03
5.200000e-07	-2.895501e-06	-1.845385e-08	-2.117363e+01	-1.211666e+03
5.300000e-07	-2.811546e-06	-1.831379e-08	-2.055970e+01	-1.202493e+03
5.400000e-07	-2.726734e-06	-1.816670e-08	-1.993950e+01	-1.193089e+03
5.500000e-07	-2.640995e-06	-1.801593e-08	-1.931252e+01	-1.183444e+03
5.600000e-07	-2.554373e-06	-1.786685e-08	-1.867909e+01	-1.173550e+03
5.700000e-07	-2.466897e-06	-1.771192e-08	-1.803942e+01	-1.163406e+03
5.800000e-07	-2.378413e-06	-1.754642e-08	-1.739237e+01	-1.153013e+03
5.900000e-07	-2.288792e-06	-1.737884e-08	-1.673701e+01	-1.142371e+03
6.000000e-07	-2.198124e-06	-1.721344e-08	-1.607399e+01	-1.131483e+03
6.100000e-07	-2.106669e-06	-1.704513e-08	-1.540522e+01	-1.120347e+03
6.200000e-07	-2.014579e-06	-1.686894e-08	-1.473180e+01	-1.108956e+03
6.300000e-07	-1.921786e-06	-1.669002e-08	-1.405324e+01	-1.097302e+03
6.400000e-07	-1.828214e-06	-1.650745e-08	-1.336899e+01	-1.085371e+03
6.500000e-07	-1.734000e-06	-1.631992e-08	-1.268004e+01	-1.073149e+03
6.600000e-07	-1.639301e-06	-1.612797e-08	-1.198755e+01	-1.060625e+03
6.700000e-07	-1.544100e-06	-1.593077e-08	-1.129138e+01	-1.047788e+03
6.800000e-07	-1.448410e-06	-1.572824e-08	-1.059163e+01	-1.034633e+03
6.900000e-07	-1.352256e-06	-1.551922e-08	-9.888496e+00	-1.021159e+03
7.000000e-07	-1.255522e-06	-1.530730e-08	-9.181123e+00	-1.007366e+03
7.100000e-07	-1.158212e-06	-1.509450e-08	-8.469535e+00	-9.932548e+02
7.200000e-07	-1.060409e-06	-1.488014e-08	-7.754340e+00	-9.788239e+02
7.300000e-07	-9.621963e-07	-1.466080e-08	-7.036151e+00	-9.640669e+02
7.400000e-07	-8.636698e-07	-1.443248e-08	-6.315667e+00	-9.489717e+02
7.500000e-07	-7.648223e-07	-1.419381e-08	-5.592835e+00	-9.335205e+02
7.600000e-07	-6.656425e-07	-1.394958e-08	-4.867574e+00	-9.176907e+02
7.700000e-07	-5.661859e-07	-1.370053e-08	-4.140288e+00	-9.014566e+02
7.800000e-07	-4.665830e-07	-1.344525e-08	-3.411932e+00	-8.847910e+02
7.900000e-07	-3.668676e-07	-1.318511e-08	-2.682754e+00	-8.676669e+02
8.000000e-07	-2.670914e-07	-1.291708e-08	-1.953131e+00	-8.500576e+02
8.100000e-07	-1.672699e-07	-1.264096e-08	-1.223177e+00	-8.319373e+02
8.200000e-07	-6.734146e-08	-1.235800e-08	-4.924408e-01	-8.132795e+02
8.300000e-07	3.263519e-08	-1.206693e-08	2.386479e-01	-7.940559e+02
8.400000e-07	1.326009e-07	-1.176671e-08	9.696563e-01	-7.742353e+02
8.500000e-07	2.325397e-07	-1.145462e-08	1.700469e+00	-7.537820e+02
8.600000e-07	3.324313e-07	-1.112989e-08	2.430935e+00	-7.326558e+02
8.700000e-07	4.322907e-07	-1.079380e-08	3.161166e+00	-7.108114e+02
8.800000e-07	5.320988e-07	-1.044650e-08	3.891023e+00	-6.881994e+02
8.900000e-07	6.317760e-07	-1.009058e-08	4.619922e+00	-6.647658e+02
9.000000e-07	7.312692e-07	-9.723768e-09	5.347475e+00	-6.404526e+02
9.100000e-07	8.305167e-07	-9.341041e-09	6.073231e+00	-6.151969e+02
9.200000e-07	9.294311e-07	-8.940375e-09	6.796552e+00	-5.889304e+02
9.300000e-07	1.027953e-06	-8.521920e-09	7.517004e+00	-5.615778e+02
9.400000e-07	1.126033e-06	-8.086334e-09	8.234225e+00	-5.330559e+02
9.500000e-07	1.223609e-06	-7.630975e-09	8.947755e+00	-5.032725e+02
9.600000e-07	1.320584e-06	-7.154878e-09	9.656896e+00	-4.721262e+02
9.700000e-07	1.416861e-06	-6.658184e-09	1.036093e+01	-4.395074e+02
9.800000e-07	1.512523e-06	-6.136670e-09	1.106047e+01	-4.052996e+02
9.900000e-07	1.607667e-06	-5.587191e-09	1.175622e+01	-3.693820e+02
1.000000e-06	1.702304e-06	-5.010795e-09	1.244826e+01	-3.316333e+02
1.010000e-06	1.796406e-06	-4.408095e-09	1.313639e+01	-2.919361e+02
1.020000e-06	1.889880e-06	-3.774494e-09	1.381992e+01	-2.501820e+02
1.030000e-06	1.982677e-06	-3.105807e-09	1.449851e+01	-2.062788e+02
1.040000e-06	2.074859e-06	-2.402575e-09	1.517260e+01	-1.601582e+02
1.050000e-06	2.166449e-06	-1.663765e-09	1.584236e+01	-1.117845e+02
1.060000e-06	2.257289e-06	-8.886254e-10	1.650664e+01	-6.116470e+01
1.070000e-06	2.347107e-06	-8.047819e-11	1.716344e+01	-8.357801e+00
1.080000e-06	2.435817e-06	7.574843e-10	1.781214e+01	4.651628e+01
1.090000e-06	2.523600e-06	1.623596e-09	1.845406e+01	1.032707e+02
1.100000e-06	2.610604e-06	2.514115e-09	1.909029e+01	1.616494e+02
1.110000e-06	2.696751e-06	3.423093e-09	1.972024e+01	2.213294e+02
1.120000e-06	2.781936e-06	4.345901e-09	2.034317e+01	2.819289e+02
1.130000e-06	2.866270e-06	5.276228e-09	2.095987e+01	3.430203e+02
1.140000e-06	2.949856e-06	6.206734e-09	2.157110e+01	4.041477e+02
1.150000e-06	3.032578e-06	7.131447e-09	2.217601e+01	4.648466e+02
1.160000e-06	3.114183e-06	8.042401e-09	2.277276e+01	5.246646e+02
1.170000e-06	3.194559e-06	8.933094e-09	2.336051e+01	5.831806e+02
1.180000e-06	3.273751e-06	9.798476e-09	2.393961e+01	6.400196e+02
1.190000e-06	3.351821e-06	1.063380e-08	2.451051e+01	6.948640e+02
1.200000e-06	3.428743e-06	1.143424e-08	2.507300e+01	7.474588e+02
1.210000e-06	3.504415e-06	1.219400e-08	2.562637e+01	7.976126e+02
1.220000e-06	3.578606e-06	1.291259e-08	2.616889e+01	8.451942e+02
1.230000e-06	3.651178e-06	1.359135e-08	2.669959e+01	8.901273e+02
1.240000e-06	3.722356e-06	1.422972e-08	2.722008e+01	9.323835e+02
1.250000e-06	3.792243e-06	1.482741e-08	2.773114e+01	9.719754e+02
1.260000e-06	3.860828e-06	1.538762e-08	2.823267e+01	1.008951e+03
1.270000e-06	3.928205e-06	1.591013e-08	2.872537e+01	1.043387e+03
1.280000e-06	3.994170e-06	1.639451e-08	2.920775e+01	1.075385e+03
1.290000e-06	4.058475e-06	1.684278e-08	2.967798e+01	1.105067e+03
1.300000e-06	4.121250e-06	1.725778e-08	3.013703e+01	1.132569e+03
1.310000e-06	4.182637e-06	1.764343e-08	3.058593e+01	1.158036e+03
1.320000e-06	4.242732e-06	1.799920e-08	3.102538e+01	1.181616e+03
1.330000e-06	4.301482e-06	1.832937e-08	3.145499e+01	1.203455e+03
1.340000e-06	4.358522e-06	1.863531e-08	3.187210e+01	1.223689e+03
1.350000e-06	4.413796e-06	1.891714e-08	3.227630e+01	1.242447e+03
1.360000e-06	4.467499e-06	1.917849e-08	3.266901e+01	1.259840e+03
1.370000e-06	4.519523e-06	1.942219e-08	3.304944e+01	1.275970e+03
1.380000e-06	4.569530e-06	1.964855e-08	3.341512e+01	1.290925e+03
1.390000e-06	4.617576e-06	1.985547e-08	3.376646e+01	1.304786e+03
1.400000e-06	4.664013e-06	2.004634e-08	3.410603e+01	1.317625e+03
1.410000e-06	4.708954e-06	2.022478e-08	3.443467e+01	1.329512e+03
1.420000e-06	4.752428e-06	2.039203e-08	3.475258e+01	1.340511e+03
1.430000e-06	4.794127e-06	2.054837e-08	3.505750e+01	1.350685e+03
1.440000e-06	4.833897e-06	2.069244e-08	3.534833e+01	1.360090e+03
1.450000e-06	4.872007e-06	2.082497e-08	3.562701e+01	1.368780e+03
1.460000e-06	4.908568e-06	2.094712e-08	3.589437e+01	1.376802e+03
1.470000e-06	4.943468e-06	2.105798e-08	3.614958e+01	1.384199e+03
1.480000e-06	4.976495e-06	2.115791e-08	3.639109e+01	1.391009e+03
1.490000e-06	5.007751e-06	2.124971e-08	3.661965e+01	1.397269e+03
1.500000e-06	5.037357e-06	2.133619e-08	3.683614e+01	1.403012e+03
1.510000e-06	5.065340e-06	2.141743e-08	3.704078e+01	1.408275e+03
1.520000e-06	5.091536e-06	2.149101e-08	3.723234e+01	1.413091e+03
1.530000e-06	5.115677e-06	2.155810e-08	3.740887e+01	1.417492e+03
1.540000e-06	5.137886e-06	2.161958e-08	3.757128e+01	1.421508e+03
1.550000e-06	5.158451e-06	2.167663e-08	3.772166e+01	1.425161e+03
1.560000e-06	5.177419e-06	2.172776e-08	3.786036e+01	1.428467e+03
1.570000e-06	5.194470e-06	2.177164e-08	3.798505e+01	1.431433e+03
1.580000e-06	5.209493e-06	2.180963e-08	3.809491e+01	1.434061e+03
1.590000e-06	5.222569e-06	2.184204e-08	3.819053e+01	1.436349e+03
1.600000e-06	5.233580e-06	2.187058e-08	3.827105e+01	1.438297e+03
1.610000e-06	5.242415e-06	2.189416e-08	3.833566e+01	1.439911e+03
1.620000e-06	5.249282e-06	2.191337e-08	3.838587e+01	1.441203e+03
1.630000e-06	5.254413e-06	2.192960e-08	3.842339e+01	1.442196e+03
1.640000e-06	5.257883e-06	2.194319e-08	3.844877e+01	1.442921e+03
1.650000e-06	5.259419e-06	2.195436e-08	3.846000e+01	1.443409e+03
1.660000e-06	5.258965e-06	2.195945e-08	3.845668e+01	1.443690e+03
1.670000e-06	5.256839e-06	2.195809e-08	3.844113e+01	1.443787e+03
1.680000e-06	5.253146e-06	2.195719e-08	3.841413e+01	1.443706e+03
1.690000e-06	5.247760e-06	2.195371e-08	3.837474e+01	1.443444e+03
1.700000e-06	5.240471e-06	2.194804e-08	3.832144e+01	1.442981e+03
1.710000e-06	5.231478e-06	2.194005e-08	3.825567e+01	1.442295e+03
1.720000e-06	5.220948e-06	2.192981e-08	3.817867e+01	1.441362e+03
1.730000e-06	5.208763e-06	2.192518e-08	3.808957e+01	1.440171e+03
1.740000e-06	5.194732e-06	2.187487e-08	3.798697e+01	1.438723e+03
1.750000e-06	5.178590e-06	2.181107e-08	3.786893e+01	1.437041e+03
1.760000e-06	5.160107e-06	2.180358e-08	3.773377e+01	1.435163e+03
1.770000e-06	5.139127e-06	2.178504e-08	3.758035e+01	1.433142e+03
1.780000e-06	5.115935e-06	2.180427e-08	3.741076e+01	1.431029e+03
1.790000e-06	5.091510e-06	2.179536e-08	3.723215e+01	1.428872e+03
1.800000e-06	5.066400e-06	2.165531e-08	3.704853e+01	1.426698e+03
1.810000e-06	5.039837e-06	2.168421e-08	3.685429e+01	1.424513e+03
1.820000e-06	5.011295e-06	2.169411e-08	3.664557e+01	1.422295e+03
1.830000e-06	4.981095e-06	2.155715e-08	3.642473e+01	1.420002e+03
1.840000e-06	4.949075e-06	2.162907e-08	3.619058e+01	1.417577e+03
1.850000e-06	4.915163e-06	2.161995e-08	3.594259e+01	1.414959e+03
1.860000e-06	4.879713e-06	2.148386e-08	3.568336e+01	1.412093e+03
1.870000e-06	4.842386e-06	2.149056e-08	3.541040e+01	1.408942e+03
1.880000e-06	4.803068e-06	2.140044e-08	3.512289e+01	1.405488e+03
1.890000e-06	4.762141e-06	2.135330e-08	3.482360e+01	1.401737e+03
1.900000e-06	4.719489e-06	2.135452e-08	3.451171e+01	1.397713e+03
1.910000e-06	4.675243e-06	2.122447e-08	3.418816e+01	1.393451e+03
1.920000e-06	4.629403e-06	2.120884e-08	3.385295e+01	1.388989e+03
1.930000e-06	4.581813e-06	2.111883e-08	3.350494e+01	1.384361e+03
1.940000e-06	4.532580e-06	2.100714e-08	3.314492e+01	1.379592e+03
1.950000e-06	4.481488e-06	2.100611e-08	3.277130e+01	1.374690e+03
1.960000e-06	4.428522e-06	2.089557e-08	3.238398e+01	1.369655e+03
1.970000e-06	4.373676e-06	2.082484e-08	3.198292e+01	1.364475e+03
1.980000e-06	4.317043e-06	2.074902e-08	3.156879e+01	1.359136e+03
1.990000e-06	4.258876e-06	2.063499e-08	3.114343e+01	1.353622e+03
2.000000e-06	4.199313e-06	2.056904e-08	3.070788e+01	1.347923e+03
2.010000e-06	4.138421e-06	2.046776e-08	3.026259e+01	1.342036e+03
2.020000e-06	4.075833e-06	2.040472e-08	2.980492e+01	1.335961e+03
2.030000e-06	4.011563e-06	2.029275e-08	2.933493e+01	1.329703e+03
2.040000e-06	3.945969e-06	2.017653e-08	2.885527e+01	1.323268e+03
2.050000e-06	3.879016e-06	2.010157e-08	2.836567e+01	1.316662e+03
2.060000e-06	3.810759e-06	1.997916e-08	2.786654e+01	1.309884e+03
2.070000e-06	3.741111e-06	1.988631e-08	2.735722e+01	1.302933e+03
2.080000e-06	3.669902e-06	1.977430e-08	2.683651e+01	1.295806e+03
2.090000e-06	3.597365e-06	1.966846e-08	2.630607e+01	1.288497e+03
2.100000e-06	3.523659e-06	1.955549e-08	2.576709e+01	1.281002e+03
2.110000e-06	3.448751e-06	1.942580e-08	2.521931e+01	1.273320e+03
2.120000e-06	3.372558e-06	1.932366e-08	2.466215e+01	1.265452e+03
2.130000e-06	3.295016e-06	1.919078e-08	2.409512e+01	1.257398e+03
2.140000e-06	3.216009e-06	1.906275e-08	2.351737e+01	1.249160e+03
2.150000e-06	3.135686e-06	1.893555e-08	2.293000e+01	1.240736e+03
2.160000e-06	3.054336e-06	1.881188e-08	2.233512e+01	1.232123e+03
2.170000e-06	2.971946e-06	1.867644e-08	2.173264e+01	1.223311e+03
2.180000e-06	2.888608e-06	1.852997e-08	2.112322e+01	1.214289e+03
2.190000e-06	2.804388e-06	1.840217e-08	2.050735e+01	1.205044e+03
2.200000e-06	2.719127e-06	1.825897e-08	1.988387e+01	1.195565e+03
2.210000e-06	2.632615e-06	1.810857e-08	1.925125e+01	1.185841e+03
2.220000e-06	2.544934e-06	1.795420e-08	1.861007e+01	1.175868e+03
2.230000e-06	2.456355e-06	1.780487e-08	1.796233e+01	1.165645e+03
2.240000e-06	2.367012e-06	1.764879e-08	1.730900e+01	1.155173e+03
2.250000e-06	2.276937e-06	1.748013e-08	1.665032e+01	1.144453e+03
2.260000e-06	2.186078e-06	1.731586e-08	1.598590e+01	1.133486e+03
2.270000e-06	2.094488e-06	1.714933e-08	1.531614e+01	1.122270e+03
2.280000e-06	2.002251e-06	1.697768e-08	1.464165e+01	1.110797e+03
2.290000e-06	1.909330e-06	1.679985e-08	1.396216e+01	1.099057e+03
2.300000e-06	1.815617e-06	1.661899e-08	1.327687e+01	1.087035e+03
2.310000e-06	1.721075e-06	1.643255e-08	1.258552e+01	1.074718e+03
2.320000e-06	1.625823e-06	1.623753e-08	1.188898e+01	1.062095e+03
2.330000e-06	1.530006e-06	1.603619e-08	1.118832e+01	1.049157e+03
2.340000e-06	1.433683e-06	1.583464e-08	1.048394e+01	1.035901e+03
2.350000e-06	1.336961e-06	1.563176e-08	9.776653e+00	1.022325e+03
2.360000e-06	1.239913e-06	1.542166e-08	9.066984e+00	1.008431e+03
2.370000e-06	1.142490e-06	1.520395e-08	8.354569e+00	9.942188e+02
2.380000e-06	1.044696e-06	1.497988e-08	7.639441e+00	9.796851e+02
2.390000e-06	9.465762e-07	1.475366e-08	6.921928e+00	9.648221e+02
2.400000e-06	8.481447e-07	1.452230e-08	6.202138e+00	9.496157e+02
2.410000e-06	7.494244e-07	1.428374e-08	5.480237e+00	9.340465e+02
2.420000e-06	6.504614e-07	1.404034e-08	4.756560e+00	9.180908e+02
2.430000e-06	5.513272e-07	1.378976e-08	4.031632e+00	9.017221e+02
2.440000e-06	4.520833e-07	1.353068e-08	3.305902e+00	8.849131e+02
2.450000e-06	3.527630e-07	1.326653e-08	2.579612e+00	8.676369e+02
2.460000e-06	2.533769e-07	1.299743e-08	1.852842e+00	8.498673e+02
2.470000e-06	1.538983e-07	1.272053e-08	1.125396e+00	8.315783e+02
2.480000e-06	5.430989e-08	1.243385e-08	3.971462e-01	8.127429e+02
2.490000e-06	-4.530973e-08	1.213690e-08	-3.313317e-01	7.933321e+02
2.500000e-06	-1.449138e-07	1.183121e-08	-1.059696e+00	7.733133e+02
2.510000e-06	-2.444710e-07	1.151567e-08	-1.787717e+00	7.526494e+02
2.520000e-06	-3.439513e-07	1.119062e-08	-2.515176e+00	7.312986e+02
2.530000e-06	-4.433776e-07	1.085330e-08	-3.242240e+00	7.092142e+02
2.540000e-06	-5.427257e-07	1.050325e-08	-3.968733e+00	6.863452e+02
2.550000e-06	-6.419137e-07	1.014071e-08	-4.694054e+00	6.626365e+02
2.560000e-06	-7.409227e-07	9.763505e-09	-5.418067e+00	6.380285e+02
2.570000e-06	-8.397368e-07	9.372371e-09	-6.140655e+00	6.124568e+02
2.580000e-06	-9.382803e-07	8.967427e-09	-6.861263e+00	5.858508e+02
2.590000e-06	-1.036501e-06	8.548096e-09	-7.579513e+00	5.581330e+02
2.600000e-06	-1.134256e-06	8.109968e-09	-8.294351e+00	5.292171e+02
2.610000e-06	-1.231588e-06	7.651300e-09	-9.006101e+00	4.990082e+02
2.620000e-06	-1.328554e-06	7.169425e-09	-9.715174e+00	4.674020e+02
2.630000e-06	-1.425058e-06	6.660808e-09	-1.042087e+01	4.342865e+02
2.640000e-06	-1.521168e-06	6.126394e-09	-1.112368e+01	3.995434e+02
2.650000e-06	-1.616816e-06	5.567036e-09	-1.182312e+01	3.630515e+02
2.660000e-06	-1.711827e-06	4.981482e-09	-1.251790e+01	3.246901e+02
2.670000e-06	-1.805997e-06	4.366427e-09	-1.320652e+01	2.843439e+02
2.680000e-06	-1.899213e-06	3.720569e-09	-1.388817e+01	2.419092e+02
2.690000e-06	-1.991618e-06	3.041906e-09	-1.456389e+01	1.973005e+02
2.700000e-06	-2.083358e-06	2.329039e-09	-1.523475e+01	1.504588e+02
2.710000e-06	-2.174404e-06	1.582350e-09	-1.590054e+01	1.013612e+02
2.720000e-06	-2.264695e-06	8.004561e-10	-1.656079e+01	5.003021e+01
2.730000e-06	-2.354182e-06	-1.616747e-11	-1.721518e+01	-3.456263e+00
2.740000e-06	-2.442884e-06	-8.651406e-10	-1.786382e+01	-5.895736e+01
2.750000e-06	-2.530908e-06	-1.740570e-09	-1.850750e+01	-1.162640e+02
2.760000e-06	-2.618103e-06	-2.636214e-09	-1.914512e+01	-1.750982e+02
2.770000e-06	-2.704200e-06	-3.548881e-09	-1.977472e+01	-2.351168e+02
2.780000e-06	-2.789160e-06	-4.474961e-09	-2.039599e+01	-2.959217e+02
2.790000e-06	-2.873124e-06	-5.409091e-09	-2.100999e+01	-3.570742e+02
2.800000e-06	-2.956167e-06	-6.343607e-09	-2.161725e+01	-4.181132e+02
2.810000e-06	-3.038244e-06	-7.269636e-09	-2.221744e+01	-4.785761e+02
2.820000e-06	-3.119345e-06	-8.177321e-09	-2.281050e+01	-5.380186e+02
2.830000e-06	-3.199446e-06	-9.061863e-09	-2.339625e+01	-5.960327e+02
2.840000e-06	-3.278343e-06	-9.921243e-09	-2.397319e+01	-6.522612e+02
2.850000e-06	-3.355757e-06	-1.074946e-08	-2.453929e+01	-7.064062e+02
2.860000e-06	-3.431771e-06	-1.154437e-08	-2.509515e+01	-7.582332e+02
2.870000e-06	-3.506525e-06	-1.230289e-08	-2.564179e+01	-8.075707e+02
2.880000e-06	-3.579968e-06	-1.302234e-08	-2.617886e+01	-8.543058e+02
2.890000e-06	-3.652270e-06	-1.370058e-08	-2.670757e+01	-8.983784e+02
2.900000e-06	-3.723313e-06	-1.433652e-08	-2.722708e+01	-9.397739e+02
2.910000e-06	-3.792785e-06	-1.493211e-08	-2.773510e+01	-9.785170e+02
2.920000e-06	-3.860730e-06	-1.548758e-08	-2.823195e+01	-1.014665e+03
2.930000e-06	-3.927355e-06	-1.600361e-08	-2.871916e+01	-1.048305e+03
2.940000e-06	-3.992713e-06	-1.648212e-08	-2.919709e+01	-1.079543e+03
