# Temperatura_=_74.97
# Concentracion g/m^3_=_26700.0
# C_Vs_to_Am_M_A/Vsm_=_65563218390.804596
# pendiente_HvsI_1/m_=_3716.3
# ordenada_HvsI_A/m_=_1297.0
# frecuencia_Hz_=_301791.15542188723

Tiempo_(s)	Campo_(V.s)	Magnetizacion_(V.s)	Campo_(kA/m)	Magnetizacion_(A/m)
0.000000e+00	-5.244103e-06	-2.200146e-08	-3.830319e+01	-1.438066e+03
1.000000e-08	-5.242533e-06	-2.200458e-08	-3.829173e+01	-1.438218e+03
2.000000e-08	-5.239074e-06	-2.200124e-08	-3.826646e+01	-1.438189e+03
3.000000e-08	-5.233963e-06	-2.199631e-08	-3.822913e+01	-1.437977e+03
4.000000e-08	-5.227246e-06	-2.199006e-08	-3.818007e+01	-1.437566e+03
5.000000e-08	-5.218944e-06	-2.197872e-08	-3.811944e+01	-1.436936e+03
6.000000e-08	-5.208693e-06	-2.196284e-08	-3.804456e+01	-1.436065e+03
7.000000e-08	-5.196513e-06	-2.194044e-08	-3.795560e+01	-1.434938e+03
8.000000e-08	-5.182521e-06	-2.191523e-08	-3.785340e+01	-1.433557e+03
9.000000e-08	-5.166324e-06	-2.192400e-08	-3.773509e+01	-1.431940e+03
1.000000e-07	-5.147924e-06	-2.191265e-08	-3.760070e+01	-1.430121e+03
1.100000e-07	-5.127611e-06	-2.185569e-08	-3.745233e+01	-1.428150e+03
1.200000e-07	-5.105506e-06	-2.181844e-08	-3.729088e+01	-1.426079e+03
1.300000e-07	-5.081849e-06	-2.175306e-08	-3.711808e+01	-1.423954e+03
1.400000e-07	-5.056782e-06	-2.167929e-08	-3.693499e+01	-1.421809e+03
1.500000e-07	-5.030140e-06	-2.173160e-08	-3.674040e+01	-1.419655e+03
1.600000e-07	-5.001924e-06	-2.166602e-08	-3.653430e+01	-1.417476e+03
1.700000e-07	-4.972284e-06	-2.156485e-08	-3.631782e+01	-1.415235e+03
1.800000e-07	-4.941084e-06	-2.160882e-08	-3.608993e+01	-1.412879e+03
1.900000e-07	-4.907843e-06	-2.151221e-08	-3.584713e+01	-1.410348e+03
2.000000e-07	-4.872733e-06	-2.143729e-08	-3.559069e+01	-1.407585e+03
2.100000e-07	-4.836136e-06	-2.145975e-08	-3.532338e+01	-1.404548e+03
2.200000e-07	-4.797890e-06	-2.137774e-08	-3.504403e+01	-1.401213e+03
2.300000e-07	-4.757904e-06	-2.131955e-08	-3.475198e+01	-1.397579e+03
2.400000e-07	-4.715984e-06	-2.125467e-08	-3.444579e+01	-1.393665e+03
2.500000e-07	-4.672170e-06	-2.114150e-08	-3.412577e+01	-1.389501e+03
2.600000e-07	-4.626634e-06	-2.111601e-08	-3.379317e+01	-1.385124e+03
2.700000e-07	-4.579271e-06	-2.104817e-08	-3.344723e+01	-1.380570e+03
2.800000e-07	-4.529977e-06	-2.096796e-08	-3.308718e+01	-1.375865e+03
2.900000e-07	-4.478598e-06	-2.090338e-08	-3.271191e+01	-1.371022e+03
3.000000e-07	-4.425356e-06	-2.079181e-08	-3.232303e+01	-1.366042e+03
3.100000e-07	-4.370630e-06	-2.070888e-08	-3.192330e+01	-1.360917e+03
3.200000e-07	-4.314315e-06	-2.066337e-08	-3.151198e+01	-1.355633e+03
3.300000e-07	-4.256213e-06	-2.059111e-08	-3.108759e+01	-1.350176e+03
3.400000e-07	-4.196512e-06	-2.048206e-08	-3.065154e+01	-1.344533e+03
3.500000e-07	-4.135387e-06	-2.039128e-08	-3.020508e+01	-1.338700e+03
3.600000e-07	-4.072903e-06	-2.029287e-08	-2.974869e+01	-1.332676e+03
3.700000e-07	-4.009127e-06	-2.018093e-08	-2.928287e+01	-1.326467e+03
3.800000e-07	-3.943881e-06	-2.011130e-08	-2.880630e+01	-1.320080e+03
3.900000e-07	-3.876976e-06	-2.003141e-08	-2.831763e+01	-1.313521e+03
4.000000e-07	-3.808557e-06	-1.991648e-08	-2.781789e+01	-1.306793e+03
4.100000e-07	-3.738951e-06	-1.980373e-08	-2.730949e+01	-1.299895e+03
4.200000e-07	-3.668236e-06	-1.968644e-08	-2.679298e+01	-1.292825e+03
4.300000e-07	-3.596310e-06	-1.957834e-08	-2.626763e+01	-1.285576e+03
4.400000e-07	-3.522959e-06	-1.946341e-08	-2.573187e+01	-1.278143e+03
4.500000e-07	-3.448007e-06	-1.934493e-08	-2.518442e+01	-1.270523e+03
4.600000e-07	-3.371625e-06	-1.922527e-08	-2.462652e+01	-1.262714e+03
4.700000e-07	-3.293926e-06	-1.909755e-08	-2.405900e+01	-1.254715e+03
4.800000e-07	-3.214862e-06	-1.897380e-08	-2.348152e+01	-1.246529e+03
4.900000e-07	-3.134490e-06	-1.885021e-08	-2.289447e+01	-1.238155e+03
5.000000e-07	-3.052953e-06	-1.872705e-08	-2.229892e+01	-1.229591e+03
5.100000e-07	-2.970451e-06	-1.859086e-08	-2.169632e+01	-1.220832e+03
5.200000e-07	-2.887066e-06	-1.845172e-08	-2.108727e+01	-1.211870e+03
5.300000e-07	-2.802873e-06	-1.831117e-08	-2.047232e+01	-1.202694e+03
5.400000e-07	-2.717819e-06	-1.816043e-08	-1.985109e+01	-1.193293e+03
5.500000e-07	-2.631791e-06	-1.800930e-08	-1.922274e+01	-1.183657e+03
5.600000e-07	-2.544861e-06	-1.785934e-08	-1.858779e+01	-1.173780e+03
5.700000e-07	-2.457036e-06	-1.770555e-08	-1.794632e+01	-1.163656e+03
5.800000e-07	-2.368234e-06	-1.754536e-08	-1.729770e+01	-1.153286e+03
5.900000e-07	-2.278385e-06	-1.738279e-08	-1.664144e+01	-1.142671e+03
6.000000e-07	-2.187576e-06	-1.721803e-08	-1.597817e+01	-1.131809e+03
6.100000e-07	-2.095973e-06	-1.704811e-08	-1.530909e+01	-1.120700e+03
6.200000e-07	-2.003675e-06	-1.687152e-08	-1.463495e+01	-1.109338e+03
6.300000e-07	-1.910659e-06	-1.669271e-08	-1.395555e+01	-1.097713e+03
6.400000e-07	-1.816905e-06	-1.651040e-08	-1.327077e+01	-1.085813e+03
6.500000e-07	-1.722560e-06	-1.632312e-08	-1.258166e+01	-1.073625e+03
6.600000e-07	-1.627761e-06	-1.613103e-08	-1.188925e+01	-1.061133e+03
6.700000e-07	-1.532468e-06	-1.593301e-08	-1.119322e+01	-1.048327e+03
6.800000e-07	-1.436529e-06	-1.572936e-08	-1.049248e+01	-1.035197e+03
6.900000e-07	-1.340045e-06	-1.552121e-08	-9.787754e+00	-1.021739e+03
7.000000e-07	-1.243114e-06	-1.531362e-08	-9.079767e+00	-1.007951e+03
7.100000e-07	-1.145592e-06	-1.510375e-08	-8.367460e+00	-9.938325e+02
7.200000e-07	-1.047560e-06	-1.488845e-08	-7.651432e+00	-9.793815e+02
7.300000e-07	-9.491821e-07	-1.466377e-08	-6.932874e+00	-9.645944e+02
7.400000e-07	-8.504610e-07	-1.442884e-08	-6.211810e+00	-9.494628e+02
7.500000e-07	-7.513996e-07	-1.418924e-08	-5.488261e+00	-9.339734e+02
7.600000e-07	-6.521023e-07	-1.394886e-08	-4.762989e+00	-9.181074e+02
7.700000e-07	-5.525907e-07	-1.370377e-08	-4.036150e+00	-9.018414e+02
7.800000e-07	-4.528943e-07	-1.344864e-08	-3.307963e+00	-8.851482e+02
7.900000e-07	-3.531062e-07	-1.318534e-08	-2.579106e+00	-8.679982e+02
8.000000e-07	-2.532420e-07	-1.291432e-08	-1.849693e+00	-8.503597e+02
8.100000e-07	-1.533152e-07	-1.263596e-08	-1.119822e+00	-8.322002e+02
8.200000e-07	-5.330118e-08	-1.235178e-08	-3.893145e-01	-8.134865e+02
8.300000e-07	4.678771e-08	-1.206147e-08	3.417398e-01	-7.941841e+02
8.400000e-07	1.468817e-07	-1.176084e-08	1.072831e+00	-7.742576e+02
8.500000e-07	2.468761e-07	-1.144697e-08	1.803195e+00	-7.536697e+02
8.600000e-07	3.467985e-07	-1.112100e-08	2.533034e+00	-7.323807e+02
8.700000e-07	4.467197e-07	-1.078366e-08	3.262863e+00	-7.103477e+02
8.800000e-07	5.465315e-07	-1.043508e-08	3.991894e+00	-6.875239e+02
8.900000e-07	6.461942e-07	-1.007505e-08	4.719835e+00	-6.638572e+02
9.000000e-07	7.457210e-07	-9.702616e-09	5.446784e+00	-6.392895e+02
9.100000e-07	8.450269e-07	-9.314494e-09	6.172119e+00	-6.137553e+02
9.200000e-07	9.440143e-07	-8.907463e-09	6.895128e+00	-5.871805e+02
9.300000e-07	1.042645e-06	-8.483452e-09	7.615535e+00	-5.594818e+02
9.400000e-07	1.140913e-06	-8.043075e-09	8.333287e+00	-5.305666e+02
9.500000e-07	1.238623e-06	-7.583744e-09	9.046965e+00	-5.003333e+02
9.600000e-07	1.335648e-06	-7.103111e-09	9.755642e+00	-4.686720e+02
9.700000e-07	1.432052e-06	-6.598821e-09	1.045978e+01	-4.354664e+02
9.800000e-07	1.527831e-06	-6.067852e-09	1.115935e+01	-4.005960e+02
9.900000e-07	1.623057e-06	-5.507185e-09	1.185489e+01	-3.639382e+02
1.000000e-06	1.717730e-06	-4.917579e-09	1.254639e+01	-3.253718e+02
1.010000e-06	1.811797e-06	-4.300116e-09	1.323346e+01	-2.847811e+02
1.020000e-06	1.905285e-06	-3.652019e-09	1.391630e+01	-2.420610e+02
1.030000e-06	1.998139e-06	-2.969041e-09	1.459451e+01	-1.971239e+02
1.040000e-06	2.090335e-06	-2.248536e-09	1.526791e+01	-1.499082e+02
1.050000e-06	2.181873e-06	-1.491717e-09	1.593651e+01	-1.003882e+02
1.060000e-06	2.272708e-06	-6.985431e-10	1.659998e+01	-4.858496e+01
1.070000e-06	2.362589e-06	1.266115e-10	1.725647e+01	5.423049e+00
1.080000e-06	2.451304e-06	9.813142e-10	1.790445e+01	6.149073e+01
1.090000e-06	2.539021e-06	1.864584e-09	1.854514e+01	1.194007e+02
1.100000e-06	2.625979e-06	2.772304e-09	1.918028e+01	1.788624e+02
1.110000e-06	2.712126e-06	3.697401e-09	1.980950e+01	2.395167e+02
1.120000e-06	2.797312e-06	4.633954e-09	2.043171e+01	3.009468e+02
1.130000e-06	2.881586e-06	5.575388e-09	2.104725e+01	3.626947e+02
1.140000e-06	2.965099e-06	6.513084e-09	2.165724e+01	4.242814e+02
1.150000e-06	3.047765e-06	7.439483e-09	2.226103e+01	4.852292e+02
1.160000e-06	3.129296e-06	8.347868e-09	2.285654e+01	5.450835e+02
1.170000e-06	3.209610e-06	9.235398e-09	2.344315e+01	6.034311e+02
1.180000e-06	3.288771e-06	1.009747e-08	2.402135e+01	6.599148e+02
1.190000e-06	3.366696e-06	1.092736e-08	2.459052e+01	7.142417e+02
1.200000e-06	3.443386e-06	1.171790e-08	2.515067e+01	7.661858e+02
1.210000e-06	3.518921e-06	1.246484e-08	2.570238e+01	8.155858e+02
1.220000e-06	3.593020e-06	1.316943e-08	2.624360e+01	8.623393e+02
1.230000e-06	3.665492e-06	1.383409e-08	2.677294e+01	9.063955e+02
1.240000e-06	3.736582e-06	1.445825e-08	2.729218e+01	9.477472e+02
1.250000e-06	3.806388e-06	1.504369e-08	2.780205e+01	9.864238e+02
1.260000e-06	3.874884e-06	1.559163e-08	2.830235e+01	1.022486e+03
1.270000e-06	3.942211e-06	1.610010e-08	2.879411e+01	1.056020e+03
1.280000e-06	4.008102e-06	1.656908e-08	2.927538e+01	1.087135e+03
1.290000e-06	4.072276e-06	1.700401e-08	2.974411e+01	1.115959e+03
1.300000e-06	4.134917e-06	1.740810e-08	3.020165e+01	1.142634e+03
1.310000e-06	4.196145e-06	1.778160e-08	3.064886e+01	1.167310e+03
1.320000e-06	4.256071e-06	1.812691e-08	3.108656e+01	1.190140e+03
1.330000e-06	4.314631e-06	1.844765e-08	3.151428e+01	1.211275e+03
1.340000e-06	4.371430e-06	1.874354e-08	3.192914e+01	1.230853e+03
1.350000e-06	4.426491e-06	1.901565e-08	3.233132e+01	1.249003e+03
1.360000e-06	4.480038e-06	1.926951e-08	3.272243e+01	1.265837e+03
1.370000e-06	4.531896e-06	1.950683e-08	3.310120e+01	1.281453e+03
1.380000e-06	4.581778e-06	1.972630e-08	3.346554e+01	1.295936e+03
1.390000e-06	4.629712e-06	1.992736e-08	3.381565e+01	1.309360e+03
1.400000e-06	4.675959e-06	2.011274e-08	3.415344e+01	1.321792e+03
1.410000e-06	4.720683e-06	2.028599e-08	3.448011e+01	1.333297e+03
1.420000e-06	4.763933e-06	2.044695e-08	3.479601e+01	1.343935e+03
1.430000e-06	4.805378e-06	2.059598e-08	3.509873e+01	1.353765e+03
1.440000e-06	4.844950e-06	2.073459e-08	3.538776e+01	1.362843e+03
1.450000e-06	4.882910e-06	2.086365e-08	3.566503e+01	1.371223e+03
1.460000e-06	4.919320e-06	2.098247e-08	3.593097e+01	1.378954e+03
1.470000e-06	4.954080e-06	2.108900e-08	3.618485e+01	1.386078e+03
1.480000e-06	4.986894e-06	2.118594e-08	3.642453e+01	1.392638e+03
1.490000e-06	5.017859e-06	2.127633e-08	3.665070e+01	1.398669e+03
1.500000e-06	5.047228e-06	2.136011e-08	3.686521e+01	1.404207e+03
1.510000e-06	5.075047e-06	2.143761e-08	3.706840e+01	1.409286e+03
1.520000e-06	5.100982e-06	2.150864e-08	3.725784e+01	1.413939e+03
1.530000e-06	5.124835e-06	2.157355e-08	3.743205e+01	1.418196e+03
1.540000e-06	5.146844e-06	2.163306e-08	3.759281e+01	1.422082e+03
1.550000e-06	5.167202e-06	2.168730e-08	3.774150e+01	1.425620e+03
1.560000e-06	5.185887e-06	2.173689e-08	3.787798e+01	1.428822e+03
1.570000e-06	5.202667e-06	2.177996e-08	3.800054e+01	1.431694e+03
1.580000e-06	5.217455e-06	2.181611e-08	3.810856e+01	1.434240e+03
1.590000e-06	5.230326e-06	2.184847e-08	3.820256e+01	1.436457e+03
1.600000e-06	5.241121e-06	2.187718e-08	3.828141e+01	1.438347e+03
1.610000e-06	5.249705e-06	2.190008e-08	3.834412e+01	1.439915e+03
1.620000e-06	5.256307e-06	2.191817e-08	3.839233e+01	1.441175e+03
1.630000e-06	5.261164e-06	2.193440e-08	3.842781e+01	1.442148e+03
1.640000e-06	5.264322e-06	2.194935e-08	3.845088e+01	1.442862e+03
1.650000e-06	5.265571e-06	2.196144e-08	3.846000e+01	1.443345e+03
1.660000e-06	5.264887e-06	2.196609e-08	3.845500e+01	1.443626e+03
1.670000e-06	5.262490e-06	2.196601e-08	3.843749e+01	1.443720e+03
1.680000e-06	5.258513e-06	2.196633e-08	3.840844e+01	1.443635e+03
1.690000e-06	5.252858e-06	2.196328e-08	3.836714e+01	1.443362e+03
1.700000e-06	5.245364e-06	2.195613e-08	3.831240e+01	1.442884e+03
1.710000e-06	5.236193e-06	2.194596e-08	3.824542e+01	1.442180e+03
1.720000e-06	5.225475e-06	2.193630e-08	3.816713e+01	1.441228e+03
1.730000e-06	5.213093e-06	2.192952e-08	3.807669e+01	1.440020e+03
1.740000e-06	5.198777e-06	2.186967e-08	3.797213e+01	1.438562e+03
1.750000e-06	5.182278e-06	2.182434e-08	3.785163e+01	1.436876e+03
1.760000e-06	5.163404e-06	2.182511e-08	3.771377e+01	1.435004e+03
1.770000e-06	5.142060e-06	2.180139e-08	3.755787e+01	1.432996e+03
1.780000e-06	5.118640e-06	2.183160e-08	3.738681e+01	1.430903e+03
1.790000e-06	5.094076e-06	2.178378e-08	3.720739e+01	1.428771e+03
1.800000e-06	5.068756e-06	2.165623e-08	3.702245e+01	1.426624e+03
1.810000e-06	5.041869e-06	2.172512e-08	3.682607e+01	1.424465e+03
1.820000e-06	5.013031e-06	2.168169e-08	3.661544e+01	1.422273e+03
1.830000e-06	4.982525e-06	2.156402e-08	3.639262e+01	1.420002e+03
1.840000e-06	4.950101e-06	2.165019e-08	3.615579e+01	1.417598e+03
1.850000e-06	4.915847e-06	2.157502e-08	3.590559e+01	1.414999e+03
1.860000e-06	4.880113e-06	2.147842e-08	3.564459e+01	1.412153e+03
1.870000e-06	4.842512e-06	2.149373e-08	3.536995e+01	1.409022e+03
1.880000e-06	4.802988e-06	2.138734e-08	3.508127e+01	1.405592e+03
1.890000e-06	4.761806e-06	2.138885e-08	3.478047e+01	1.401866e+03
1.900000e-06	4.718868e-06	2.134596e-08	3.446685e+01	1.397868e+03
1.910000e-06	4.674362e-06	2.120260e-08	3.414178e+01	1.393633e+03
1.920000e-06	4.628185e-06	2.121093e-08	3.380450e+01	1.389197e+03
1.930000e-06	4.580245e-06	2.110581e-08	3.345435e+01	1.384594e+03
1.940000e-06	4.530690e-06	2.103349e-08	3.309239e+01	1.379844e+03
1.950000e-06	4.479239e-06	2.102316e-08	3.271659e+01	1.374958e+03
1.960000e-06	4.425905e-06	2.090022e-08	3.232703e+01	1.369934e+03
1.970000e-06	4.370744e-06	2.082768e-08	3.192414e+01	1.364761e+03
1.980000e-06	4.313831e-06	2.072991e-08	3.150844e+01	1.359424e+03
1.990000e-06	4.255460e-06	2.064540e-08	3.108210e+01	1.353909e+03
2.000000e-06	4.195768e-06	2.058048e-08	3.064610e+01	1.348206e+03
2.010000e-06	4.134695e-06	2.048878e-08	3.020002e+01	1.342313e+03
2.020000e-06	4.071928e-06	2.042074e-08	2.974157e+01	1.336230e+03
2.030000e-06	4.007472e-06	2.027923e-08	2.927078e+01	1.329964e+03
2.040000e-06	3.941623e-06	2.017612e-08	2.878982e+01	1.323522e+03
2.050000e-06	3.874470e-06	2.008962e-08	2.829933e+01	1.316910e+03
2.060000e-06	3.806036e-06	1.997716e-08	2.779948e+01	1.310128e+03
2.070000e-06	3.736190e-06	1.989482e-08	2.728932e+01	1.303177e+03
2.080000e-06	3.664826e-06	1.977849e-08	2.676807e+01	1.296051e+03
2.090000e-06	3.592093e-06	1.967989e-08	2.623683e+01	1.288744e+03
2.100000e-06	3.518136e-06	1.955536e-08	2.569665e+01	1.281253e+03
2.110000e-06	3.442950e-06	1.942998e-08	2.514748e+01	1.273573e+03
2.120000e-06	3.366385e-06	1.932467e-08	2.458824e+01	1.265704e+03
2.130000e-06	3.288376e-06	1.919281e-08	2.401847e+01	1.257646e+03
2.140000e-06	3.209039e-06	1.906776e-08	2.343898e+01	1.249400e+03
2.150000e-06	3.128513e-06	1.893450e-08	2.285082e+01	1.240967e+03
2.160000e-06	3.046850e-06	1.880943e-08	2.225435e+01	1.232342e+03
2.170000e-06	2.964166e-06	1.866907e-08	2.165042e+01	1.223520e+03
2.180000e-06	2.880588e-06	1.853234e-08	2.103996e+01	1.214492e+03
2.190000e-06	2.796034e-06	1.840996e-08	2.042237e+01	1.205246e+03
2.200000e-06	2.710414e-06	1.826633e-08	1.979700e+01	1.195771e+03
2.210000e-06	2.623575e-06	1.811367e-08	1.916273e+01	1.186059e+03
2.220000e-06	2.535578e-06	1.795294e-08	1.851999e+01	1.176104e+03
2.230000e-06	2.446795e-06	1.779907e-08	1.787151e+01	1.165902e+03
2.240000e-06	2.357287e-06	1.764058e-08	1.721774e+01	1.155454e+03
2.250000e-06	2.266978e-06	1.747714e-08	1.655813e+01	1.144761e+03
2.260000e-06	2.175968e-06	1.731571e-08	1.589338e+01	1.133821e+03
2.270000e-06	2.084254e-06	1.715087e-08	1.522350e+01	1.122632e+03
2.280000e-06	1.991749e-06	1.697909e-08	1.454784e+01	1.111188e+03
2.290000e-06	1.898521e-06	1.680002e-08	1.386689e+01	1.099477e+03
2.300000e-06	1.804548e-06	1.661906e-08	1.318051e+01	1.087487e+03
2.310000e-06	1.709759e-06	1.643347e-08	1.248817e+01	1.075204e+03
2.320000e-06	1.614303e-06	1.624066e-08	1.179095e+01	1.062613e+03
2.330000e-06	1.518304e-06	1.604073e-08	1.108977e+01	1.049705e+03
2.340000e-06	1.421840e-06	1.583945e-08	1.038519e+01	1.036471e+03
2.350000e-06	1.324972e-06	1.563364e-08	9.677661e+00	1.022909e+03
2.360000e-06	1.227739e-06	1.542174e-08	8.967465e+00	1.009015e+03
2.370000e-06	1.130119e-06	1.520575e-08	8.254446e+00	9.947911e+02
2.380000e-06	1.032107e-06	1.498562e-08	7.538564e+00	9.802338e+02
2.390000e-06	9.337985e-07	1.476086e-08	6.820512e+00	9.653382e+02
2.400000e-06	8.352084e-07	1.452781e-08	6.100405e+00	9.500944e+02
2.410000e-06	7.362909e-07	1.428593e-08	5.377906e+00	9.344872e+02
2.420000e-06	6.371277e-07	1.403862e-08	4.653613e+00	9.184965e+02
2.430000e-06	5.378809e-07	1.378586e-08	3.928709e+00	9.020974e+02
2.440000e-06	4.385489e-07	1.352888e-08	3.203183e+00	8.852618e+02
2.450000e-06	3.390678e-07	1.327023e-08	2.476569e+00	8.679593e+02
2.460000e-06	2.394863e-07	1.300392e-08	1.749220e+00	8.501580e+02
2.470000e-06	1.398444e-07	1.272538e-08	1.021430e+00	8.318251e+02
2.480000e-06	4.012992e-08	1.243450e-08	2.931110e-01	8.129270e+02
2.490000e-06	-5.962407e-08	1.213440e-08	-4.354972e-01	7.934291e+02
2.500000e-06	-1.593704e-07	1.182657e-08	-1.164049e+00	7.732953e+02
2.510000e-06	-2.590843e-07	1.150844e-08	-1.892365e+00	7.524875e+02
2.520000e-06	-3.587340e-07	1.118137e-08	-2.620211e+00	7.309653e+02
2.530000e-06	-4.582914e-07	1.084241e-08	-3.347383e+00	7.086845e+02
2.540000e-06	-5.577481e-07	1.048952e-08	-4.073821e+00	6.855968e+02
2.550000e-06	-6.570669e-07	1.012163e-08	-4.799250e+00	6.616482e+02
2.560000e-06	-7.561945e-07	9.740662e-09	-5.523283e+00	6.367785e+02
2.570000e-06	-8.550547e-07	9.347500e-09	-6.245363e+00	6.109194e+02
2.580000e-06	-9.536055e-07	8.939455e-09	-6.965183e+00	5.839939e+02
2.590000e-06	-1.051849e-06	8.514336e-09	-7.682758e+00	5.559158e+02
2.600000e-06	-1.149712e-06	8.067328e-09	-8.397555e+00	5.265895e+02
2.610000e-06	-1.247151e-06	7.599533e-09	-9.109256e+00	4.959106e+02
2.620000e-06	-1.344152e-06	7.108773e-09	-9.817751e+00	4.637669e+02
2.630000e-06	-1.440663e-06	6.591464e-09	-1.052268e+01	4.300407e+02
2.640000e-06	-1.536725e-06	6.047464e-09	-1.122432e+01	3.946102e+02
2.650000e-06	-1.632362e-06	5.476461e-09	-1.192285e+01	3.573530e+02
2.660000e-06	-1.727395e-06	4.877206e-09	-1.261698e+01	3.181492e+02
2.670000e-06	-1.821558e-06	4.246861e-09	-1.330475e+01	2.768859e+02
2.680000e-06	-1.914754e-06	3.584074e-09	-1.398546e+01	2.334627e+02
2.690000e-06	-2.007158e-06	2.889114e-09	-1.466038e+01	1.877996e+02
2.700000e-06	-2.098943e-06	2.161368e-09	-1.533079e+01	1.398451e+02
2.710000e-06	-2.190051e-06	1.398155e-09	-1.599624e+01	8.958738e+01
2.720000e-06	-2.280363e-06	5.980128e-10	-1.665588e+01	3.706491e+01
2.730000e-06	-2.369829e-06	-2.374153e-10	-1.730935e+01	-1.762328e+01
2.740000e-06	-2.458503e-06	-1.104901e-09	-1.795703e+01	-7.430931e+01
2.750000e-06	-2.546535e-06	-1.998216e-09	-1.860002e+01	-1.327521e+02
2.760000e-06	-2.633807e-06	-2.911178e-09	-1.923746e+01	-1.926383e+02
2.770000e-06	-2.719927e-06	-3.838941e-09	-1.986649e+01	-2.535887e+02
2.780000e-06	-2.804831e-06	-4.776980e-09	-2.048663e+01	-3.151712e+02
2.790000e-06	-2.888724e-06	-5.720199e-09	-2.109939e+01	-3.769189e+02
2.800000e-06	-2.971691e-06	-6.660650e-09	-2.170538e+01	-4.383506e+02
2.810000e-06	-3.053692e-06	-7.587898e-09	-2.230432e+01	-4.989938e+02
2.820000e-06	-3.134650e-06	-8.493362e-09	-2.289565e+01	-5.584052e+02
2.830000e-06	-3.214625e-06	-9.373608e-09	-2.347978e+01	-6.161886e+02
2.840000e-06	-3.293502e-06	-1.022781e-08	-2.405591e+01	-6.720068e+02
2.850000e-06	-3.370937e-06	-1.105062e-08	-2.462150e+01	-7.255882e+02
2.860000e-06	-3.446912e-06	-1.183723e-08	-2.517642e+01	-7.767281e+02
2.870000e-06	-3.521557e-06	-1.258416e-08	-2.572163e+01	-8.252848e+02
2.880000e-06	-3.594892e-06	-1.328888e-08	-2.625727e+01	-8.711736e+02
2.890000e-06	-3.667072e-06	-1.395161e-08	-2.678448e+01	-9.143583e+02
2.900000e-06	-3.737949e-06	-1.457200e-08	-2.730217e+01	-9.548443e+02
2.910000e-06	-3.807229e-06	-1.515410e-08	-2.780820e+01	-9.926715e+02
2.920000e-06	-3.875084e-06	-1.569763e-08	-2.830381e+01	-1.027909e+03
2.930000e-06	-3.941623e-06	-1.620093e-08	-2.878981e+01	-1.060652e+03
2.940000e-06	-4.006809e-06	-1.666830e-08	-2.926594e+01	-1.091015e+03
