# Temperatura_=_93.19
# Concentracion g/m^3_=_26700.0
# C_Vs_to_Am_M_A/Vsm_=_65563218390.804596
# pendiente_HvsI_1/m_=_3716.3
# ordenada_HvsI_A/m_=_1297.0
# frecuencia_Hz_=_301784.693811289

Tiempo_(s)	Campo_(V.s)	Magnetizacion_(V.s)	Campo_(kA/m)	Magnetizacion_(A/m)
0.000000e+00	-5.234819e-06	-2.236891e-08	-3.830411e+01	-1.462424e+03
1.000000e-08	-5.233148e-06	-2.237205e-08	-3.829189e+01	-1.462523e+03
2.000000e-08	-5.229642e-06	-2.236834e-08	-3.826623e+01	-1.462460e+03
3.000000e-08	-5.224503e-06	-2.236209e-08	-3.822863e+01	-1.462227e+03
4.000000e-08	-5.217776e-06	-2.235552e-08	-3.817941e+01	-1.461806e+03
5.000000e-08	-5.209447e-06	-2.234586e-08	-3.811846e+01	-1.461169e+03
6.000000e-08	-5.199240e-06	-2.233129e-08	-3.804377e+01	-1.460293e+03
7.000000e-08	-5.187074e-06	-2.230733e-08	-3.795475e+01	-1.459162e+03
8.000000e-08	-5.172975e-06	-2.228062e-08	-3.785159e+01	-1.457777e+03
9.000000e-08	-5.156659e-06	-2.229182e-08	-3.773220e+01	-1.456159e+03
1.000000e-07	-5.138188e-06	-2.228462e-08	-3.759705e+01	-1.454346e+03
1.100000e-07	-5.117837e-06	-2.222958e-08	-3.744814e+01	-1.452387e+03
1.200000e-07	-5.095653e-06	-2.219187e-08	-3.728581e+01	-1.450336e+03
1.300000e-07	-5.071986e-06	-2.212253e-08	-3.711264e+01	-1.448238e+03
1.400000e-07	-5.046941e-06	-2.205459e-08	-3.692938e+01	-1.446122e+03
1.500000e-07	-5.020247e-06	-2.211103e-08	-3.673405e+01	-1.443995e+03
1.600000e-07	-4.991949e-06	-2.204125e-08	-3.652699e+01	-1.441840e+03
1.700000e-07	-4.962292e-06	-2.194201e-08	-3.630999e+01	-1.439620e+03
1.800000e-07	-4.931093e-06	-2.198400e-08	-3.608170e+01	-1.437284e+03
1.900000e-07	-4.897780e-06	-2.188030e-08	-3.583794e+01	-1.434777e+03
2.000000e-07	-4.862601e-06	-2.180475e-08	-3.558053e+01	-1.432053e+03
2.100000e-07	-4.825980e-06	-2.184333e-08	-3.531256e+01	-1.429077e+03
2.200000e-07	-4.787686e-06	-2.178073e-08	-3.503236e+01	-1.425832e+03
2.300000e-07	-4.747709e-06	-2.172468e-08	-3.473984e+01	-1.422321e+03
2.400000e-07	-4.705856e-06	-2.165840e-08	-3.443359e+01	-1.418559e+03
2.500000e-07	-4.662067e-06	-2.154067e-08	-3.411319e+01	-1.414573e+03
2.600000e-07	-4.616583e-06	-2.149609e-08	-3.378037e+01	-1.410389e+03
2.700000e-07	-4.569352e-06	-2.142891e-08	-3.343477e+01	-1.406031e+03
2.800000e-07	-4.520175e-06	-2.136805e-08	-3.307493e+01	-1.401515e+03
2.900000e-07	-4.468899e-06	-2.130777e-08	-3.269974e+01	-1.396850e+03
3.000000e-07	-4.415754e-06	-2.119851e-08	-3.231087e+01	-1.392034e+03
3.100000e-07	-4.361026e-06	-2.112158e-08	-3.191041e+01	-1.387062e+03
3.200000e-07	-4.304707e-06	-2.106636e-08	-3.149831e+01	-1.381929e+03
3.300000e-07	-4.246592e-06	-2.099641e-08	-3.107308e+01	-1.376628e+03
3.400000e-07	-4.186887e-06	-2.090497e-08	-3.063621e+01	-1.371157e+03
3.500000e-07	-4.125803e-06	-2.081642e-08	-3.018925e+01	-1.365517e+03
3.600000e-07	-4.063339e-06	-2.071959e-08	-2.973218e+01	-1.359707e+03
3.700000e-07	-3.999615e-06	-2.061272e-08	-2.926591e+01	-1.353731e+03
3.800000e-07	-3.934426e-06	-2.054149e-08	-2.878890e+01	-1.347588e+03
3.900000e-07	-3.867583e-06	-2.046535e-08	-2.829980e+01	-1.341275e+03
4.000000e-07	-3.799240e-06	-2.035886e-08	-2.779972e+01	-1.334788e+03
4.100000e-07	-3.729661e-06	-2.024955e-08	-2.729060e+01	-1.328123e+03
4.200000e-07	-3.658965e-06	-2.013443e-08	-2.677331e+01	-1.321276e+03
4.300000e-07	-3.587163e-06	-2.002863e-08	-2.624792e+01	-1.314244e+03
4.400000e-07	-3.513997e-06	-1.991608e-08	-2.571255e+01	-1.307030e+03
4.500000e-07	-3.439119e-06	-1.980154e-08	-2.516465e+01	-1.299636e+03
4.600000e-07	-3.362794e-06	-1.968683e-08	-2.460617e+01	-1.292068e+03
4.700000e-07	-3.285314e-06	-1.956055e-08	-2.403924e+01	-1.284327e+03
4.800000e-07	-3.206491e-06	-1.944099e-08	-2.346247e+01	-1.276414e+03
4.900000e-07	-3.126256e-06	-1.932405e-08	-2.287538e+01	-1.268323e+03
5.000000e-07	-3.044858e-06	-1.920500e-08	-2.227977e+01	-1.260045e+03
5.100000e-07	-2.962401e-06	-1.907224e-08	-2.167642e+01	-1.251567e+03
5.200000e-07	-2.879072e-06	-1.893553e-08	-2.106669e+01	-1.242878e+03
5.300000e-07	-2.795006e-06	-1.879898e-08	-2.045156e+01	-1.233965e+03
5.400000e-07	-2.710056e-06	-1.865440e-08	-1.982997e+01	-1.224821e+03
5.500000e-07	-2.624159e-06	-1.850850e-08	-1.920144e+01	-1.215444e+03
5.600000e-07	-2.537367e-06	-1.836204e-08	-1.856637e+01	-1.205835e+03
5.700000e-07	-2.449810e-06	-1.821241e-08	-1.792570e+01	-1.195997e+03
5.800000e-07	-2.361328e-06	-1.805494e-08	-1.727827e+01	-1.185933e+03
5.900000e-07	-2.271634e-06	-1.789680e-08	-1.662195e+01	-1.175642e+03
6.000000e-07	-2.180888e-06	-1.774112e-08	-1.595795e+01	-1.165119e+03
6.100000e-07	-2.089388e-06	-1.758049e-08	-1.528843e+01	-1.154351e+03
6.200000e-07	-1.997187e-06	-1.741053e-08	-1.461378e+01	-1.143323e+03
6.300000e-07	-1.904279e-06	-1.723470e-08	-1.393396e+01	-1.132019e+03
6.400000e-07	-1.810725e-06	-1.705459e-08	-1.324940e+01	-1.120422e+03
6.500000e-07	-1.716589e-06	-1.686978e-08	-1.256059e+01	-1.108521e+03
6.600000e-07	-1.621925e-06	-1.668114e-08	-1.186792e+01	-1.096310e+03
6.700000e-07	-1.526792e-06	-1.648824e-08	-1.117181e+01	-1.083789e+03
6.800000e-07	-1.431186e-06	-1.629128e-08	-1.047224e+01	-1.070964e+03
6.900000e-07	-1.335059e-06	-1.608975e-08	-9.768871e+00	-1.057838e+03
7.000000e-07	-1.238329e-06	-1.588623e-08	-9.061079e+00	-1.044416e+03
7.100000e-07	-1.140970e-06	-1.568087e-08	-8.348686e+00	-1.030693e+03
7.200000e-07	-1.043072e-06	-1.547263e-08	-7.632349e+00	-1.016660e+03
7.300000e-07	-9.447217e-07	-1.525783e-08	-6.912699e+00	-1.002298e+03
7.400000e-07	-8.460075e-07	-1.503297e-08	-6.190389e+00	-9.875846e+02
7.500000e-07	-7.470222e-07	-1.479970e-08	-5.466096e+00	-9.724935e+02
7.600000e-07	-6.478271e-07	-1.456152e-08	-4.740268e+00	-9.569989e+02
7.700000e-07	-5.484466e-07	-1.431788e-08	-4.013083e+00	-9.410779e+02
7.800000e-07	-4.489451e-07	-1.406711e-08	-3.285012e+00	-9.247110e+02
7.900000e-07	-3.493249e-07	-1.381171e-08	-2.556073e+00	-9.078816e+02
8.000000e-07	-2.495861e-07	-1.354895e-08	-1.826266e+00	-8.905738e+02
8.100000e-07	-1.497835e-07	-1.327815e-08	-1.095993e+00	-8.727692e+02
8.200000e-07	-4.995146e-08	-1.300088e-08	-3.655038e-01	-8.544435e+02
8.300000e-07	4.990673e-08	-1.271628e-08	3.651766e-01	-8.355647e+02
8.400000e-07	1.498038e-07	-1.241997e-08	1.096141e+00	-8.160923e+02
8.500000e-07	2.496956e-07	-1.211011e-08	1.827068e+00	-7.959777e+02
8.600000e-07	3.495204e-07	-1.179020e-08	2.557504e+00	-7.751662e+02
8.700000e-07	4.492514e-07	-1.145936e-08	3.287254e+00	-7.535997e+02
8.800000e-07	5.489216e-07	-1.111680e-08	4.016558e+00	-7.312183e+02
8.900000e-07	6.484593e-07	-1.076315e-08	4.744893e+00	-7.079612e+02
9.000000e-07	7.477903e-07	-1.039682e-08	5.471716e+00	-6.837658e+02
9.100000e-07	8.468608e-07	-1.001289e-08	6.196633e+00	-6.585655e+02
9.200000e-07	9.456015e-07	-9.609801e-09	6.919136e+00	-6.322866e+02
9.300000e-07	1.043994e-06	-9.190875e-09	7.639094e+00	-6.048444e+02
9.400000e-07	1.141922e-06	-8.754364e-09	8.355651e+00	-5.761414e+02
9.500000e-07	1.239304e-06	-8.295764e-09	9.068209e+00	-5.460649e+02
9.600000e-07	1.336127e-06	-7.815291e-09	9.776685e+00	-5.144884e+02
9.700000e-07	1.432329e-06	-7.311148e-09	1.048061e+01	-4.812734e+02
9.800000e-07	1.527876e-06	-6.778236e-09	1.117974e+01	-4.462727e+02
9.900000e-07	1.622858e-06	-6.214131e-09	1.187474e+01	-4.093349e+02
1.000000e-06	1.717377e-06	-5.618143e-09	1.256636e+01	-3.703091e+02
1.010000e-06	1.811363e-06	-4.989041e-09	1.325407e+01	-3.290500e+02
1.020000e-06	1.904673e-06	-4.324508e-09	1.393684e+01	-2.854239e+02
1.030000e-06	1.997296e-06	-3.622371e-09	1.461457e+01	-2.393158e+02
1.040000e-06	2.089321e-06	-2.880433e-09	1.528794e+01	-1.906380e+02
1.050000e-06	2.180722e-06	-2.096279e-09	1.595674e+01	-1.393413e+02
1.060000e-06	2.271321e-06	-1.270480e-09	1.661966e+01	-8.542750e+01
1.070000e-06	2.360905e-06	-4.067002e-10	1.727517e+01	-2.896274e+01
1.080000e-06	2.449440e-06	4.920586e-10	1.792299e+01	2.991013e+01
1.090000e-06	2.537045e-06	1.423746e-09	1.856401e+01	9.096260e+01
1.100000e-06	2.623842e-06	2.383822e-09	1.919913e+01	1.538769e+02
1.110000e-06	2.709840e-06	3.365595e-09	1.982839e+01	2.182499e+02
1.120000e-06	2.794958e-06	4.362092e-09	2.045121e+01	2.836044e+02
1.130000e-06	2.879194e-06	5.364945e-09	2.106758e+01	3.494089e+02
1.140000e-06	2.962560e-06	6.365414e-09	2.167759e+01	4.151026e+02
1.150000e-06	3.044974e-06	7.354824e-09	2.228062e+01	4.801237e+02
1.160000e-06	3.126235e-06	8.324276e-09	2.287523e+01	5.439374e+02
1.170000e-06	3.206242e-06	9.268375e-09	2.346065e+01	6.060601e+02
1.180000e-06	3.285106e-06	1.018157e-08	2.403772e+01	6.660782e+02
1.190000e-06	3.362853e-06	1.105681e-08	2.460660e+01	7.236581e+02
1.200000e-06	3.439430e-06	1.189082e-08	2.516693e+01	7.785497e+02
1.210000e-06	3.514764e-06	1.267979e-08	2.571816e+01	8.305823e+02
1.220000e-06	3.588630e-06	1.342161e-08	2.625865e+01	8.796561e+02
1.230000e-06	3.660925e-06	1.411791e-08	2.678765e+01	9.257318e+02
1.240000e-06	3.731860e-06	1.476807e-08	2.730669e+01	9.688196e+02
1.250000e-06	3.801526e-06	1.537391e-08	2.781645e+01	1.008970e+03
1.260000e-06	3.869898e-06	1.593843e-08	2.831674e+01	1.046266e+03
1.270000e-06	3.936955e-06	1.646056e-08	2.880741e+01	1.080820e+03
1.280000e-06	4.002532e-06	1.694260e-08	2.928725e+01	1.112763e+03
1.290000e-06	4.066512e-06	1.738810e-08	2.975540e+01	1.142251e+03
1.300000e-06	4.128984e-06	1.779923e-08	3.021252e+01	1.169448e+03
1.310000e-06	4.190109e-06	1.817788e-08	3.065979e+01	1.194530e+03
1.320000e-06	4.249995e-06	1.852748e-08	3.109798e+01	1.217672e+03
1.330000e-06	4.308450e-06	1.885198e-08	3.152570e+01	1.239041e+03
1.340000e-06	4.365125e-06	1.915051e-08	3.194040e+01	1.258794e+03
1.350000e-06	4.420145e-06	1.942499e-08	3.234299e+01	1.277068e+03
1.360000e-06	4.473586e-06	1.968012e-08	3.273403e+01	1.293983e+03
1.370000e-06	4.525204e-06	1.991722e-08	3.311173e+01	1.309641e+03
1.380000e-06	4.574823e-06	2.013466e-08	3.347481e+01	1.324127e+03
1.390000e-06	4.622584e-06	2.033395e-08	3.382428e+01	1.337519e+03
1.400000e-06	4.668750e-06	2.051896e-08	3.416209e+01	1.349886e+03
1.410000e-06	4.713404e-06	2.069106e-08	3.448883e+01	1.361295e+03
1.420000e-06	4.756515e-06	2.085084e-08	3.480428e+01	1.371812e+03
1.430000e-06	4.797814e-06	2.099982e-08	3.510647e+01	1.381501e+03
1.440000e-06	4.837268e-06	2.113854e-08	3.539516e+01	1.390425e+03
1.450000e-06	4.875104e-06	2.126516e-08	3.567201e+01	1.398643e+03
1.460000e-06	4.911400e-06	2.137899e-08	3.593760e+01	1.406207e+03
1.470000e-06	4.946012e-06	2.148101e-08	3.619086e+01	1.413165e+03
1.480000e-06	4.978746e-06	2.157384e-08	3.643038e+01	1.419559e+03
1.490000e-06	5.009717e-06	2.166016e-08	3.665700e+01	1.425428e+03
1.500000e-06	5.039024e-06	2.174180e-08	3.687144e+01	1.430806e+03
1.510000e-06	5.066658e-06	2.181827e-08	3.707365e+01	1.435728e+03
1.520000e-06	5.092431e-06	2.188825e-08	3.726223e+01	1.440226e+03
1.530000e-06	5.116220e-06	2.195129e-08	3.743630e+01	1.444332e+03
1.540000e-06	5.138196e-06	2.200864e-08	3.759711e+01	1.448070e+03
1.550000e-06	5.158547e-06	2.206122e-08	3.774602e+01	1.451462e+03
1.560000e-06	5.177168e-06	2.210652e-08	3.788227e+01	1.454520e+03
1.570000e-06	5.193812e-06	2.214525e-08	3.800406e+01	1.457249e+03
1.580000e-06	5.208496e-06	2.217985e-08	3.811150e+01	1.459650e+03
1.590000e-06	5.221263e-06	2.221144e-08	3.820492e+01	1.461723e+03
1.600000e-06	5.231949e-06	2.223854e-08	3.828311e+01	1.463468e+03
1.610000e-06	5.240484e-06	2.226008e-08	3.834557e+01	1.464894e+03
1.620000e-06	5.247071e-06	2.227762e-08	3.839376e+01	1.466018e+03
1.630000e-06	5.251895e-06	2.229175e-08	3.842906e+01	1.466867e+03
1.640000e-06	5.255002e-06	2.230407e-08	3.845180e+01	1.467473e+03
1.650000e-06	5.256123e-06	2.231248e-08	3.846000e+01	1.467868e+03
1.660000e-06	5.255341e-06	2.231369e-08	3.845428e+01	1.468081e+03
1.670000e-06	5.252972e-06	2.231281e-08	3.843694e+01	1.468128e+03
1.680000e-06	5.249033e-06	2.231337e-08	3.840812e+01	1.468013e+03
1.690000e-06	5.243329e-06	2.231110e-08	3.836639e+01	1.467723e+03
1.700000e-06	5.235775e-06	2.230489e-08	3.831111e+01	1.467236e+03
1.710000e-06	5.226610e-06	2.229599e-08	3.824404e+01	1.466526e+03
1.720000e-06	5.215874e-06	2.228739e-08	3.816549e+01	1.465569e+03
1.730000e-06	5.203426e-06	2.228040e-08	3.807441e+01	1.464357e+03
1.740000e-06	5.189013e-06	2.221527e-08	3.796894e+01	1.462895e+03
1.750000e-06	5.172442e-06	2.216432e-08	3.784769e+01	1.461210e+03
1.760000e-06	5.153555e-06	2.216315e-08	3.770949e+01	1.459345e+03
1.770000e-06	5.132179e-06	2.214234e-08	3.755308e+01	1.457352e+03
1.780000e-06	5.108749e-06	2.217713e-08	3.738163e+01	1.455282e+03
1.790000e-06	5.084226e-06	2.212132e-08	3.720220e+01	1.453177e+03
1.800000e-06	5.058916e-06	2.199593e-08	3.701700e+01	1.451059e+03
1.810000e-06	5.032072e-06	2.207000e-08	3.682057e+01	1.448927e+03
1.820000e-06	5.003296e-06	2.203109e-08	3.661002e+01	1.446756e+03
1.830000e-06	4.972736e-06	2.193828e-08	3.638640e+01	1.444505e+03
1.840000e-06	4.940260e-06	2.204738e-08	3.614877e+01	1.442121e+03
1.850000e-06	4.906050e-06	2.197399e-08	3.589845e+01	1.439550e+03
1.860000e-06	4.870344e-06	2.186867e-08	3.563718e+01	1.436748e+03
1.870000e-06	4.832716e-06	2.187639e-08	3.536185e+01	1.433688e+03
1.880000e-06	4.793217e-06	2.176749e-08	3.507283e+01	1.430357e+03
1.890000e-06	4.752135e-06	2.177322e-08	3.477223e+01	1.426764e+03
1.900000e-06	4.709287e-06	2.174582e-08	3.445870e+01	1.422928e+03
1.910000e-06	4.664845e-06	2.162546e-08	3.413351e+01	1.418875e+03
1.920000e-06	4.618728e-06	2.163341e-08	3.379607e+01	1.414634e+03
1.930000e-06	4.570904e-06	2.150793e-08	3.344613e+01	1.410225e+03
1.940000e-06	4.521455e-06	2.144244e-08	3.308430e+01	1.405662e+03
1.950000e-06	4.470092e-06	2.144534e-08	3.270847e+01	1.400949e+03
1.960000e-06	4.416771e-06	2.131661e-08	3.231831e+01	1.396084e+03
1.970000e-06	4.361631e-06	2.126151e-08	3.191484e+01	1.391062e+03
1.980000e-06	4.304833e-06	2.117077e-08	3.149924e+01	1.385877e+03
1.990000e-06	4.246525e-06	2.107320e-08	3.107259e+01	1.380522e+03
2.000000e-06	4.186881e-06	2.100745e-08	3.063616e+01	1.374997e+03
2.010000e-06	4.125825e-06	2.091382e-08	3.018941e+01	1.369303e+03
2.020000e-06	4.063006e-06	2.085642e-08	2.972975e+01	1.363441e+03
2.030000e-06	3.998542e-06	2.072613e-08	2.925805e+01	1.357412e+03
2.040000e-06	3.932719e-06	2.062534e-08	2.877641e+01	1.351215e+03
2.050000e-06	3.865608e-06	2.054171e-08	2.828535e+01	1.344848e+03
2.060000e-06	3.797292e-06	2.042741e-08	2.778547e+01	1.338305e+03
2.070000e-06	3.727453e-06	2.034832e-08	2.727445e+01	1.331583e+03
2.080000e-06	3.656048e-06	2.023212e-08	2.675196e+01	1.324677e+03
2.090000e-06	3.583390e-06	2.013930e-08	2.622031e+01	1.317587e+03
2.100000e-06	3.509502e-06	2.002591e-08	2.567966e+01	1.310316e+03
2.110000e-06	3.434404e-06	1.990930e-08	2.513016e+01	1.302866e+03
2.120000e-06	3.357987e-06	1.980963e-08	2.457099e+01	1.295243e+03
2.130000e-06	3.280065e-06	1.967121e-08	2.400083e+01	1.287448e+03
2.140000e-06	3.200787e-06	1.954827e-08	2.342074e+01	1.279479e+03
2.150000e-06	3.120410e-06	1.942046e-08	2.283260e+01	1.271330e+03
2.160000e-06	3.038966e-06	1.929931e-08	2.223666e+01	1.262990e+03
2.170000e-06	2.956438e-06	1.916386e-08	2.163279e+01	1.254447e+03
2.180000e-06	2.872948e-06	1.903174e-08	2.102188e+01	1.245687e+03
2.190000e-06	2.788559e-06	1.891651e-08	2.040439e+01	1.236701e+03
2.200000e-06	2.703040e-06	1.877674e-08	1.977863e+01	1.227484e+03
2.210000e-06	2.616212e-06	1.863149e-08	1.914329e+01	1.218032e+03
2.220000e-06	2.528373e-06	1.847913e-08	1.850056e+01	1.208350e+03
2.230000e-06	2.439748e-06	1.833185e-08	1.785208e+01	1.198440e+03
2.240000e-06	2.350338e-06	1.817287e-08	1.719784e+01	1.188304e+03
2.250000e-06	2.260183e-06	1.800488e-08	1.653817e+01	1.177940e+03
2.260000e-06	2.169225e-06	1.784436e-08	1.587261e+01	1.167341e+03
2.270000e-06	2.077588e-06	1.768385e-08	1.520209e+01	1.156492e+03
2.280000e-06	1.985373e-06	1.751989e-08	1.452733e+01	1.145378e+03
2.290000e-06	1.892451e-06	1.735051e-08	1.384740e+01	1.133982e+03
2.300000e-06	1.798632e-06	1.718046e-08	1.316091e+01	1.122289e+03
2.310000e-06	1.703914e-06	1.700123e-08	1.246784e+01	1.110289e+03
2.320000e-06	1.608551e-06	1.680859e-08	1.177006e+01	1.097979e+03
2.330000e-06	1.512725e-06	1.660870e-08	1.106888e+01	1.085361e+03
2.340000e-06	1.416435e-06	1.641090e-08	1.036431e+01	1.072440e+03
2.350000e-06	1.319715e-06	1.621099e-08	9.656590e+00	1.059220e+03
2.360000e-06	1.222620e-06	1.600338e-08	8.946130e+00	1.045702e+03
2.370000e-06	1.125143e-06	1.579128e-08	8.232874e+00	1.031882e+03
2.380000e-06	1.027307e-06	1.557718e-08	7.516992e+00	1.017746e+03
2.390000e-06	9.291537e-07	1.536071e-08	6.798785e+00	1.003275e+03
2.400000e-06	8.306993e-07	1.513576e-08	6.078377e+00	9.884436e+02
2.410000e-06	7.319308e-07	1.490180e-08	5.355670e+00	9.732263e+02
2.420000e-06	6.329063e-07	1.466108e-08	4.631089e+00	9.575978e+02
2.430000e-06	5.337416e-07	1.441169e-08	3.905484e+00	9.415362e+02
2.440000e-06	4.345203e-07	1.415525e-08	3.179463e+00	9.250232e+02
2.450000e-06	3.352443e-07	1.389665e-08	2.453043e+00	9.080427e+02
2.460000e-06	2.358419e-07	1.363318e-08	1.725698e+00	8.905782e+02
2.470000e-06	1.363183e-07	1.336105e-08	9.974657e-01	8.726099e+02
2.480000e-06	3.676466e-08	1.308010e-08	2.690136e-01	8.541111e+02
2.490000e-06	-6.279578e-08	1.279049e-08	-4.594880e-01	8.350473e+02
2.500000e-06	-1.623625e-07	1.249149e-08	-1.188036e+00	8.153749e+02
2.510000e-06	-2.619287e-07	1.218091e-08	-1.916579e+00	7.950432e+02
2.520000e-06	-3.614021e-07	1.185874e-08	-2.644444e+00	7.739963e+02
2.530000e-06	-4.607733e-07	1.152308e-08	-3.371561e+00	7.521753e+02
2.540000e-06	-5.600679e-07	1.117604e-08	-4.098118e+00	7.295199e+02
2.550000e-06	-6.591940e-07	1.081666e-08	-4.823441e+00	7.059690e+02
2.560000e-06	-7.580923e-07	1.044234e-08	-5.547098e+00	6.814589e+02
2.570000e-06	-8.567202e-07	1.005406e-08	-6.268776e+00	6.559212e+02
2.580000e-06	-9.551068e-07	9.650829e-09	-6.988689e+00	6.292790e+02
2.590000e-06	-1.053192e-06	9.230517e-09	-7.706399e+00	6.014438e+02
2.600000e-06	-1.150866e-06	8.786798e-09	-8.421095e+00	5.723130e+02
2.610000e-06	-1.248099e-06	8.319295e-09	-9.132566e+00	5.417696e+02
2.620000e-06	-1.344892e-06	7.826479e-09	-9.840820e+00	5.096829e+02
2.630000e-06	-1.441278e-06	7.304976e-09	-1.054609e+01	4.759111e+02
2.640000e-06	-1.537221e-06	6.757524e-09	-1.124813e+01	4.403051e+02
2.650000e-06	-1.632627e-06	6.183482e-09	-1.194623e+01	4.027133e+02
2.660000e-06	-1.727361e-06	5.579778e-09	-1.263941e+01	3.629859e+02
2.670000e-06	-1.821298e-06	4.941896e-09	-1.332677e+01	3.209806e+02
2.680000e-06	-1.914394e-06	4.265538e-09	-1.400796e+01	2.765690e+02
2.690000e-06	-2.006637e-06	3.551394e-09	-1.468292e+01	2.296437e+02
2.700000e-06	-2.098139e-06	2.799644e-09	-1.535246e+01	1.801281e+02
2.710000e-06	-2.188974e-06	2.006126e-09	-1.601712e+01	1.279880e+02
2.720000e-06	-2.279039e-06	1.169086e-09	-1.667614e+01	7.324436e+01
2.730000e-06	-2.368269e-06	2.931856e-10	-1.732905e+01	1.598683e+01
2.740000e-06	-2.456789e-06	-6.173112e-10	-1.797677e+01	-4.361501e+01
2.750000e-06	-2.544653e-06	-1.556734e-09	-1.861968e+01	-1.053040e+02
2.760000e-06	-2.631593e-06	-2.519574e-09	-1.925584e+01	-1.687342e+02
2.770000e-06	-2.717379e-06	-3.504360e-09	-1.988355e+01	-2.334770e+02
2.780000e-06	-2.802086e-06	-4.504988e-09	-2.050337e+01	-2.990352e+02
2.790000e-06	-2.885832e-06	-5.512252e-09	-2.111616e+01	-3.648651e+02
2.800000e-06	-2.968654e-06	-6.517408e-09	-2.172217e+01	-4.304023e+02
2.810000e-06	-3.050493e-06	-7.508620e-09	-2.232101e+01	-4.950908e+02
2.820000e-06	-3.131337e-06	-8.475778e-09	-2.291256e+01	-5.584098e+02
2.830000e-06	-3.211188e-06	-9.413622e-09	-2.349684e+01	-6.198966e+02
2.840000e-06	-3.289827e-06	-1.032013e-08	-2.407226e+01	-6.791626e+02
2.850000e-06	-3.367035e-06	-1.119167e-08	-2.463720e+01	-7.359009e+02
2.860000e-06	-3.442810e-06	-1.202075e-08	-2.519166e+01	-7.898878e+02
2.870000e-06	-3.517270e-06	-1.280415e-08	-2.573650e+01	-8.409762e+02
2.880000e-06	-3.590477e-06	-1.354351e-08	-2.627217e+01	-8.890872e+02
2.890000e-06	-3.662496e-06	-1.423769e-08	-2.679915e+01	-9.341985e+02
2.900000e-06	-3.733189e-06	-1.488572e-08	-2.731641e+01	-9.763342e+02
2.910000e-06	-3.802335e-06	-1.548933e-08	-2.782237e+01	-1.015556e+03
2.920000e-06	-3.870036e-06	-1.605123e-08	-2.831775e+01	-1.051957e+03
2.930000e-06	-3.936392e-06	-1.657137e-08	-2.880329e+01	-1.085655e+03
2.940000e-06	-4.001436e-06	-1.704903e-08	-2.927923e+01	-1.116791e+03
