# Temperatura_=_57.54
# Concentracion g/m^3_=_41000.0
# C_Vs_to_Am_M_A/Vsm_=_65563218390.804596
# pendiente_HvsI_1/m_=_3716.3
# ordenada_HvsI_A/m_=_1297.0
# frecuencia_Hz_=_302507.67210836295

Tiempo_(s)	Campo_(V.s)	Magnetizacion_(V.s)	Campo_(kA/m)	Magnetizacion_(A/m)
0.000000e+00	-7.991326e-06	-2.565223e-08	-5.685728e+01	-1.681027e+03
1.000000e-08	-7.986928e-06	-2.564789e-08	-5.682599e+01	-1.680655e+03
2.000000e-08	-7.979957e-06	-2.564220e-08	-5.677639e+01	-1.679889e+03
3.000000e-08	-7.970292e-06	-2.563785e-08	-5.670762e+01	-1.678832e+03
4.000000e-08	-7.957832e-06	-2.562859e-08	-5.661897e+01	-1.677644e+03
5.000000e-08	-7.942485e-06	-2.561215e-08	-5.650978e+01	-1.676492e+03
6.000000e-08	-7.924388e-06	-2.559363e-08	-5.638102e+01	-1.675500e+03
7.000000e-08	-7.903981e-06	-2.558044e-08	-5.623583e+01	-1.674713e+03
8.000000e-08	-7.881008e-06	-2.560221e-08	-5.607238e+01	-1.674088e+03
9.000000e-08	-7.854873e-06	-2.561377e-08	-5.588643e+01	-1.673512e+03
1.000000e-07	-7.825584e-06	-2.557149e-08	-5.567804e+01	-1.672840e+03
1.100000e-07	-7.793416e-06	-2.553064e-08	-5.544918e+01	-1.671946e+03
1.200000e-07	-7.758473e-06	-2.549591e-08	-5.520055e+01	-1.670760e+03
1.300000e-07	-7.720974e-06	-2.543397e-08	-5.493376e+01	-1.669291e+03
1.400000e-07	-7.681286e-06	-2.535435e-08	-5.465138e+01	-1.667617e+03
1.500000e-07	-7.639410e-06	-2.538235e-08	-5.435344e+01	-1.665855e+03
1.600000e-07	-7.594884e-06	-2.542357e-08	-5.403664e+01	-1.664119e+03
1.700000e-07	-7.547635e-06	-2.532060e-08	-5.370047e+01	-1.662472e+03
1.800000e-07	-7.497611e-06	-2.533958e-08	-5.334456e+01	-1.660903e+03
1.900000e-07	-7.444521e-06	-2.531345e-08	-5.296683e+01	-1.659323e+03
2.000000e-07	-7.388589e-06	-2.521006e-08	-5.256888e+01	-1.657590e+03
2.100000e-07	-7.329946e-06	-2.521746e-08	-5.215164e+01	-1.655551e+03
2.200000e-07	-7.268647e-06	-2.519801e-08	-5.171551e+01	-1.653094e+03
2.300000e-07	-7.204733e-06	-2.514988e-08	-5.126077e+01	-1.650183e+03
2.400000e-07	-7.138039e-06	-2.505938e-08	-5.078625e+01	-1.646874e+03
2.500000e-07	-7.068617e-06	-2.503227e-08	-5.029232e+01	-1.643303e+03
2.600000e-07	-6.996474e-06	-2.500306e-08	-4.977903e+01	-1.639641e+03
2.700000e-07	-6.921535e-06	-2.493449e-08	-4.924585e+01	-1.636047e+03
2.800000e-07	-6.843862e-06	-2.487638e-08	-4.869321e+01	-1.632616e+03
2.900000e-07	-6.763493e-06	-2.483072e-08	-4.812140e+01	-1.629348e+03
3.000000e-07	-6.680527e-06	-2.477943e-08	-4.753111e+01	-1.626147e+03
3.100000e-07	-6.595252e-06	-2.468730e-08	-4.692439e+01	-1.622849e+03
3.200000e-07	-6.507729e-06	-2.463795e-08	-4.630167e+01	-1.619271e+03
3.300000e-07	-6.417837e-06	-2.460542e-08	-4.566210e+01	-1.615268e+03
3.400000e-07	-6.325601e-06	-2.452291e-08	-4.500585e+01	-1.610778e+03
3.500000e-07	-6.231106e-06	-2.443705e-08	-4.433353e+01	-1.605840e+03
3.600000e-07	-6.134326e-06	-2.438353e-08	-4.364496e+01	-1.600582e+03
3.700000e-07	-6.035232e-06	-2.432054e-08	-4.293992e+01	-1.595177e+03
3.800000e-07	-5.933953e-06	-2.423585e-08	-4.221933e+01	-1.589788e+03
3.900000e-07	-5.830611e-06	-2.415540e-08	-4.148406e+01	-1.584513e+03
4.000000e-07	-5.725225e-06	-2.406821e-08	-4.073426e+01	-1.579349e+03
4.100000e-07	-5.617824e-06	-2.396847e-08	-3.997011e+01	-1.574187e+03
4.200000e-07	-5.508522e-06	-2.387717e-08	-3.919244e+01	-1.568846e+03
4.300000e-07	-5.397220e-06	-2.379286e-08	-3.840054e+01	-1.563127e+03
4.400000e-07	-5.283823e-06	-2.369362e-08	-3.759373e+01	-1.556872e+03
4.500000e-07	-5.168454e-06	-2.358481e-08	-3.677290e+01	-1.550018e+03
4.600000e-07	-5.051162e-06	-2.347366e-08	-3.593838e+01	-1.542615e+03
4.700000e-07	-4.931955e-06	-2.336288e-08	-3.509024e+01	-1.534810e+03
4.800000e-07	-4.810927e-06	-2.324761e-08	-3.422914e+01	-1.526801e+03
4.900000e-07	-4.688169e-06	-2.313495e-08	-3.335573e+01	-1.518768e+03
5.000000e-07	-4.563671e-06	-2.301802e-08	-3.246994e+01	-1.510811e+03
5.100000e-07	-4.437488e-06	-2.288703e-08	-3.157216e+01	-1.502907e+03
5.200000e-07	-4.309699e-06	-2.274651e-08	-3.066297e+01	-1.494910e+03
5.300000e-07	-4.180362e-06	-2.260225e-08	-2.974275e+01	-1.486584e+03
5.400000e-07	-4.049526e-06	-2.245747e-08	-2.881187e+01	-1.477677e+03
5.500000e-07	-3.917178e-06	-2.230352e-08	-2.787022e+01	-1.467988e+03
5.600000e-07	-3.783329e-06	-2.214790e-08	-2.691791e+01	-1.457433e+03
5.700000e-07	-3.647992e-06	-2.198521e-08	-2.595500e+01	-1.446071e+03
5.800000e-07	-3.511299e-06	-2.181349e-08	-2.498245e+01	-1.434082e+03
5.900000e-07	-3.373275e-06	-2.163295e-08	-2.400043e+01	-1.421707e+03
6.000000e-07	-3.233858e-06	-2.144405e-08	-2.300849e+01	-1.409164e+03
6.100000e-07	-3.093048e-06	-2.124592e-08	-2.200665e+01	-1.396564e+03
6.200000e-07	-2.950921e-06	-2.103957e-08	-2.099543e+01	-1.383860e+03
6.300000e-07	-2.807636e-06	-2.082682e-08	-1.997598e+01	-1.370845e+03
6.400000e-07	-2.663300e-06	-2.060234e-08	-1.894904e+01	-1.357193e+03
6.500000e-07	-2.518070e-06	-2.036690e-08	-1.791575e+01	-1.342552e+03
6.600000e-07	-2.371900e-06	-2.012004e-08	-1.687577e+01	-1.326640e+03
6.700000e-07	-2.224810e-06	-1.986181e-08	-1.582924e+01	-1.309331e+03
6.800000e-07	-2.077061e-06	-1.958803e-08	-1.477803e+01	-1.290682e+03
6.900000e-07	-1.928714e-06	-1.929997e-08	-1.372256e+01	-1.270913e+03
7.000000e-07	-1.779717e-06	-1.899709e-08	-1.266246e+01	-1.250313e+03
7.100000e-07	-1.630128e-06	-1.867706e-08	-1.159816e+01	-1.229124e+03
7.200000e-07	-1.480006e-06	-1.834013e-08	-1.053006e+01	-1.207419e+03
7.300000e-07	-1.329406e-06	-1.798364e-08	-9.458557e+00	-1.185025e+03
7.400000e-07	-1.178277e-06	-1.760468e-08	-8.383290e+00	-1.161521e+03
7.500000e-07	-1.026681e-06	-1.719852e-08	-7.304709e+00	-1.136302e+03
7.600000e-07	-8.747698e-07	-1.676581e-08	-6.223877e+00	-1.108719e+03
7.700000e-07	-7.226217e-07	-1.630315e-08	-5.141363e+00	-1.078234e+03
7.800000e-07	-5.702671e-07	-1.580392e-08	-4.057379e+00	-1.044544e+03
7.900000e-07	-4.177417e-07	-1.526272e-08	-2.972180e+00	-1.007624e+03
8.000000e-07	-2.651097e-07	-1.467520e-08	-1.886222e+00	-9.676588e+02
8.100000e-07	-1.123837e-07	-1.403547e-08	-7.995957e-01	-9.248601e+02
8.200000e-07	4.040267e-08	-1.333545e-08	2.874599e-01	-8.792021e+02
8.300000e-07	1.932456e-07	-1.256367e-08	1.374918e+00	-8.301489e+02
8.400000e-07	3.460554e-07	-1.170592e-08	2.462140e+00	-7.764515e+02
8.500000e-07	4.987664e-07	-1.074738e-08	3.548660e+00	-7.160930e+02
8.600000e-07	6.513679e-07	-9.666199e-09	4.634401e+00	-6.464355e+02
8.700000e-07	8.038056e-07	-8.431184e-09	5.718975e+00	-5.645742e+02
8.800000e-07	9.560466e-07	-6.995877e-09	6.802151e+00	-4.678552e+02
8.900000e-07	1.108022e-06	-5.302045e-09	7.883439e+00	-3.544664e+02
9.000000e-07	1.259597e-06	-3.293980e-09	8.961874e+00	-2.239809e+02
9.100000e-07	1.410649e-06	-1.000046e-09	1.003659e+01	-7.773184e+01
9.200000e-07	1.561180e-06	1.434493e-09	1.110760e+01	8.108050e+01
9.300000e-07	1.711174e-06	3.894718e-09	1.217479e+01	2.475950e+02
9.400000e-07	1.860582e-06	6.352639e-09	1.323781e+01	4.157941e+02
9.500000e-07	2.009378e-06	8.804729e-09	1.429647e+01	5.792274e+02
9.600000e-07	2.157436e-06	1.119670e-08	1.534988e+01	7.318261e+02
9.700000e-07	2.304601e-06	1.335226e-08	1.639695e+01	8.686633e+02
9.800000e-07	2.450826e-06	1.512025e-08	1.743732e+01	9.865193e+02
9.900000e-07	2.596120e-06	1.651367e-08	1.847107e+01	1.084158e+03
1.000000e-06	2.740461e-06	1.761396e-08	1.949803e+01	1.162273e+03
1.010000e-06	2.883791e-06	1.849316e-08	2.051781e+01	1.223143e+03
1.020000e-06	3.026019e-06	1.920639e-08	2.152974e+01	1.270062e+03
1.030000e-06	3.167113e-06	1.979724e-08	2.253361e+01	1.306697e+03
1.040000e-06	3.306921e-06	2.029511e-08	2.352832e+01	1.336481e+03
1.050000e-06	3.445300e-06	2.072090e-08	2.451288e+01	1.362155e+03
1.060000e-06	3.582371e-06	2.109151e-08	2.548812e+01	1.385539e+03
1.070000e-06	3.718131e-06	2.141868e-08	2.645403e+01	1.407525e+03
1.080000e-06	3.852520e-06	2.171131e-08	2.741020e+01	1.428265e+03
1.090000e-06	3.985594e-06	2.197205e-08	2.835700e+01	1.447471e+03
1.100000e-06	4.117247e-06	2.220801e-08	2.929369e+01	1.464740e+03
1.110000e-06	4.247340e-06	2.242532e-08	3.021929e+01	1.479815e+03
1.120000e-06	4.375983e-06	2.262521e-08	3.113457e+01	1.492736e+03
1.130000e-06	4.503099e-06	2.280954e-08	3.203898e+01	1.503851e+03
1.140000e-06	4.628667e-06	2.298112e-08	3.293238e+01	1.513722e+03
1.150000e-06	4.752767e-06	2.314379e-08	3.381534e+01	1.522962e+03
1.160000e-06	4.875186e-06	2.329877e-08	3.468633e+01	1.532069e+03
1.170000e-06	4.995810e-06	2.344455e-08	3.554456e+01	1.541307e+03
1.180000e-06	5.114614e-06	2.357972e-08	3.638983e+01	1.550669e+03
1.190000e-06	5.231579e-06	2.370481e-08	3.722202e+01	1.559916e+03
1.200000e-06	5.346531e-06	2.382082e-08	3.803989e+01	1.568693e+03
1.210000e-06	5.459277e-06	2.392942e-08	3.884207e+01	1.576661e+03
1.220000e-06	5.569961e-06	2.403270e-08	3.962957e+01	1.583616e+03
1.230000e-06	5.678763e-06	2.413096e-08	4.040368e+01	1.589552e+03
1.240000e-06	5.785577e-06	2.422394e-08	4.116365e+01	1.594666e+03
1.250000e-06	5.890204e-06	2.431004e-08	4.190806e+01	1.599291e+03
1.260000e-06	5.992685e-06	2.439148e-08	4.263720e+01	1.603792e+03
1.270000e-06	6.093039e-06	2.447054e-08	4.335120e+01	1.608466e+03
1.280000e-06	6.191053e-06	2.454770e-08	4.404856e+01	1.613453e+03
1.290000e-06	6.286647e-06	2.462083e-08	4.472870e+01	1.618718e+03
1.300000e-06	6.380025e-06	2.468944e-08	4.539307e+01	1.624069e+03
1.310000e-06	6.471216e-06	2.475536e-08	4.604189e+01	1.629234e+03
1.320000e-06	6.560042e-06	2.481827e-08	4.667387e+01	1.633953e+03
1.330000e-06	6.646421e-06	2.487905e-08	4.728845e+01	1.638056e+03
1.340000e-06	6.730513e-06	2.493659e-08	4.788675e+01	1.641519e+03
1.350000e-06	6.812238e-06	2.499186e-08	4.846821e+01	1.644460e+03
1.360000e-06	6.891451e-06	2.504397e-08	4.903181e+01	1.647100e+03
1.370000e-06	6.968264e-06	2.509264e-08	4.957832e+01	1.649685e+03
1.380000e-06	7.042420e-06	2.513976e-08	5.010593e+01	1.652412e+03
1.390000e-06	7.113850e-06	2.518448e-08	5.061415e+01	1.655372e+03
1.400000e-06	7.182855e-06	2.522785e-08	5.110511e+01	1.658519e+03
1.410000e-06	7.249331e-06	2.526955e-08	5.157807e+01	1.661701e+03
1.420000e-06	7.313148e-06	2.530867e-08	5.203213e+01	1.664705e+03
1.430000e-06	7.374530e-06	2.534408e-08	5.246885e+01	1.667332e+03
1.440000e-06	7.433385e-06	2.537661e-08	5.288760e+01	1.669462e+03
1.450000e-06	7.489554e-06	2.540649e-08	5.328723e+01	1.671088e+03
1.460000e-06	7.543009e-06	2.543373e-08	5.366756e+01	1.672317e+03
1.470000e-06	7.593380e-06	2.545858e-08	5.402594e+01	1.673337e+03
1.480000e-06	7.640632e-06	2.548168e-08	5.436213e+01	1.674353e+03
1.490000e-06	7.685231e-06	2.550611e-08	5.467945e+01	1.675528e+03
1.500000e-06	7.727128e-06	2.553149e-08	5.497754e+01	1.676928e+03
1.510000e-06	7.766156e-06	2.555357e-08	5.525522e+01	1.678511e+03
1.520000e-06	7.802555e-06	2.557022e-08	5.551420e+01	1.680136e+03
1.530000e-06	7.836231e-06	2.558357e-08	5.575380e+01	1.681618e+03
1.540000e-06	7.867061e-06	2.559587e-08	5.597315e+01	1.682784e+03
1.550000e-06	7.895196e-06	2.560719e-08	5.617333e+01	1.683529e+03
1.560000e-06	7.920438e-06	2.561842e-08	5.635292e+01	1.683850e+03
1.570000e-06	7.942704e-06	2.562852e-08	5.651133e+01	1.683844e+03
1.580000e-06	7.962268e-06	2.563785e-08	5.665053e+01	1.683682e+03
1.590000e-06	7.979001e-06	2.564712e-08	5.676959e+01	1.683549e+03
1.600000e-06	7.992652e-06	2.565602e-08	5.686671e+01	1.683591e+03
1.610000e-06	8.003151e-06	2.566375e-08	5.694141e+01	1.683867e+03
1.620000e-06	8.010632e-06	2.566753e-08	5.699464e+01	1.684337e+03
1.630000e-06	8.015345e-06	2.566985e-08	5.702817e+01	1.684869e+03
1.640000e-06	8.017219e-06	2.566974e-08	5.704150e+01	1.685288e+03
1.650000e-06	8.016243e-06	2.566475e-08	5.703456e+01	1.685425e+03
1.660000e-06	8.012632e-06	2.565451e-08	5.700887e+01	1.685171e+03
1.670000e-06	8.006331e-06	2.564666e-08	5.696404e+01	1.684511e+03
1.680000e-06	7.997356e-06	2.564105e-08	5.690018e+01	1.683522e+03
1.690000e-06	7.985713e-06	2.563620e-08	5.681734e+01	1.682354e+03
1.700000e-06	7.971221e-06	2.563512e-08	5.671423e+01	1.681176e+03
1.710000e-06	7.954139e-06	2.563216e-08	5.659270e+01	1.680130e+03
1.720000e-06	7.934797e-06	2.560873e-08	5.645508e+01	1.679285e+03
1.730000e-06	7.912892e-06	2.553229e-08	5.629923e+01	1.678622e+03
1.740000e-06	7.887721e-06	2.550117e-08	5.612014e+01	1.678046e+03
1.750000e-06	7.858843e-06	2.551573e-08	5.591468e+01	1.677416e+03
1.760000e-06	7.826637e-06	2.549990e-08	5.568554e+01	1.676596e+03
1.770000e-06	7.791870e-06	2.549645e-08	5.543817e+01	1.675496e+03
1.780000e-06	7.754818e-06	2.556777e-08	5.517455e+01	1.674102e+03
1.790000e-06	7.715665e-06	2.556197e-08	5.489599e+01	1.672475e+03
1.800000e-06	7.674491e-06	2.547060e-08	5.460304e+01	1.670726e+03
1.810000e-06	7.630729e-06	2.551054e-08	5.429168e+01	1.668973e+03
1.820000e-06	7.584259e-06	2.544443e-08	5.396105e+01	1.667298e+03
1.830000e-06	7.535090e-06	2.541395e-08	5.361122e+01	1.665713e+03
1.840000e-06	7.482930e-06	2.543967e-08	5.324010e+01	1.664149e+03
1.850000e-06	7.427881e-06	2.536728e-08	5.284843e+01	1.662475e+03
1.860000e-06	7.370078e-06	2.534604e-08	5.243718e+01	1.660538e+03
1.870000e-06	7.309685e-06	2.525647e-08	5.200749e+01	1.658207e+03
1.880000e-06	7.246538e-06	2.525424e-08	5.155820e+01	1.655424e+03
1.890000e-06	7.180504e-06	2.524314e-08	5.108838e+01	1.652218e+03
1.900000e-06	7.111801e-06	2.515801e-08	5.059957e+01	1.648705e+03
1.910000e-06	7.040313e-06	2.513771e-08	5.009094e+01	1.645051e+03
1.920000e-06	6.966008e-06	2.507494e-08	4.956227e+01	1.641424e+03
1.930000e-06	6.889015e-06	2.503616e-08	4.901448e+01	1.637942e+03
1.940000e-06	6.809354e-06	2.497607e-08	4.844769e+01	1.634633e+03
1.950000e-06	6.727103e-06	2.493363e-08	4.786249e+01	1.631428e+03
1.960000e-06	6.642374e-06	2.488613e-08	4.725966e+01	1.628176e+03
1.970000e-06	6.555273e-06	2.478414e-08	4.663994e+01	1.624695e+03
1.980000e-06	6.465821e-06	2.473952e-08	4.600350e+01	1.620825e+03
1.990000e-06	6.374074e-06	2.468634e-08	4.535074e+01	1.616474e+03
2.000000e-06	6.280066e-06	2.461994e-08	4.468188e+01	1.611655e+03
2.010000e-06	6.183805e-06	2.453787e-08	4.399699e+01	1.606471e+03
2.020000e-06	6.085284e-06	2.445687e-08	4.329603e+01	1.601089e+03
2.030000e-06	5.984575e-06	2.437251e-08	4.257950e+01	1.595682e+03
2.040000e-06	5.881778e-06	2.429182e-08	4.184811e+01	1.590370e+03
2.050000e-06	5.776913e-06	2.422914e-08	4.110201e+01	1.585181e+03
2.060000e-06	5.670036e-06	2.415026e-08	4.034159e+01	1.580034e+03
2.070000e-06	5.561189e-06	2.405368e-08	3.956716e+01	1.574765e+03
2.080000e-06	5.450412e-06	2.395218e-08	3.877900e+01	1.569173e+03
2.090000e-06	5.337589e-06	2.386277e-08	3.797627e+01	1.563083e+03
2.100000e-06	5.222703e-06	2.376749e-08	3.715887e+01	1.556400e+03
2.110000e-06	5.105793e-06	2.366965e-08	3.632707e+01	1.549142e+03
2.120000e-06	4.986932e-06	2.356641e-08	3.548139e+01	1.541432e+03
2.130000e-06	4.866247e-06	2.345203e-08	3.462274e+01	1.533461e+03
2.140000e-06	4.743765e-06	2.332760e-08	3.375129e+01	1.525420e+03
2.150000e-06	4.619546e-06	2.320411e-08	3.286749e+01	1.517438e+03
2.160000e-06	4.493666e-06	2.308823e-08	3.197186e+01	1.509529e+03
2.170000e-06	4.366189e-06	2.296631e-08	3.106488e+01	1.501579e+03
2.180000e-06	4.237090e-06	2.283402e-08	3.014636e+01	1.493374e+03
2.190000e-06	4.106419e-06	2.269415e-08	2.921665e+01	1.484657e+03
2.200000e-06	3.974219e-06	2.254558e-08	2.827607e+01	1.475205e+03
2.210000e-06	3.840513e-06	2.238927e-08	2.732476e+01	1.464898e+03
2.220000e-06	3.705367e-06	2.222948e-08	2.636322e+01	1.453752e+03
2.230000e-06	3.568791e-06	2.206458e-08	2.539150e+01	1.441919e+03
2.240000e-06	3.430839e-06	2.189205e-08	2.440999e+01	1.429629e+03
2.250000e-06	3.291556e-06	2.171101e-08	2.341900e+01	1.417117e+03
2.260000e-06	3.151047e-06	2.151891e-08	2.241930e+01	1.404530e+03
2.270000e-06	3.009319e-06	2.131957e-08	2.141092e+01	1.391871e+03
2.280000e-06	2.866429e-06	2.111488e-08	2.039428e+01	1.378974e+03
2.290000e-06	2.722517e-06	2.090266e-08	1.937036e+01	1.365541e+03
2.300000e-06	2.577541e-06	2.067521e-08	1.833888e+01	1.351215e+03
2.310000e-06	2.431642e-06	2.043412e-08	1.730083e+01	1.335688e+03
2.320000e-06	2.284937e-06	2.018332e-08	1.625704e+01	1.318779e+03
2.330000e-06	2.137372e-06	1.991963e-08	1.520714e+01	1.300497e+03
2.340000e-06	1.989117e-06	1.964015e-08	1.415232e+01	1.281019e+03
2.350000e-06	1.840372e-06	1.934620e-08	1.309401e+01	1.260628e+03
2.360000e-06	1.691032e-06	1.903738e-08	1.203148e+01	1.239590e+03
2.370000e-06	1.541072e-06	1.870641e-08	1.096453e+01	1.218038e+03
2.380000e-06	1.390628e-06	1.835611e-08	9.894144e+00	1.195874e+03
2.390000e-06	1.239772e-06	1.798755e-08	8.820820e+00	1.172743e+03
2.400000e-06	1.088538e-06	1.759502e-08	7.744812e+00	1.148081e+03
2.410000e-06	9.368918e-07	1.717176e-08	6.665867e+00	1.121236e+03
2.420000e-06	7.848843e-07	1.671676e-08	5.584353e+00	1.091623e+03
2.430000e-06	6.326095e-07	1.623113e-08	4.500937e+00	1.058863e+03
2.440000e-06	4.801189e-07	1.570700e-08	3.415986e+00	1.022853e+03
2.450000e-06	3.274438e-07	1.513838e-08	2.329721e+00	9.837329e+02
2.460000e-06	1.745981e-07	1.451937e-08	1.242243e+00	9.417307e+02
2.470000e-06	2.158591e-08	1.384144e-08	1.535811e-01	8.969171e+02
2.480000e-06	-1.314921e-07	1.309694e-08	-9.355497e-01	8.489276e+02
2.490000e-06	-2.845056e-07	1.227170e-08	-2.024221e+00	7.967302e+02
2.500000e-06	-4.374572e-07	1.135147e-08	-3.112453e+00	7.385216e+02
2.510000e-06	-5.902717e-07	1.031652e-08	-4.199709e+00	6.718142e+02
2.520000e-06	-7.428311e-07	9.138584e-09	-5.285149e+00	5.937322e+02
2.530000e-06	-8.951880e-07	7.780913e-09	-6.369150e+00	5.014911e+02
2.540000e-06	-1.047260e-06	6.190060e-09	-7.451119e+00	3.929780e+02
2.550000e-06	-1.198819e-06	4.300208e-09	-8.529444e+00	2.673227e+02
2.560000e-06	-1.349844e-06	2.083415e-09	-9.603971e+00	1.253314e+02
2.570000e-06	-1.500415e-06	-3.579575e-10	-1.067526e+01	-3.032205e+01
2.580000e-06	-1.650460e-06	-2.873126e-09	-1.174282e+01	-1.952116e+02
2.590000e-06	-1.799860e-06	-5.397033e-09	-1.280577e+01	-3.635838e+02
2.600000e-06	-1.948636e-06	-7.920316e-09	-1.386430e+01	-5.290301e+02
2.610000e-06	-2.096746e-06	-1.041015e-08	-1.491809e+01	-6.852900e+02
2.620000e-06	-2.244036e-06	-1.271232e-08	-1.596603e+01	-8.270417e+02
2.630000e-06	-2.390426e-06	-1.464573e-08	-1.700758e+01	-9.505357e+02
2.640000e-06	-2.535996e-06	-1.617990e-08	-1.804329e+01	-1.053960e+03
2.650000e-06	-2.680721e-06	-1.738803e-08	-1.907300e+01	-1.137481e+03
2.660000e-06	-2.824398e-06	-1.834796e-08	-2.009524e+01	-1.202975e+03
2.670000e-06	-2.966835e-06	-1.912207e-08	-2.110865e+01	-1.253509e+03
2.680000e-06	-3.107995e-06	-1.975800e-08	-2.211299e+01	-1.292713e+03
2.690000e-06	-3.247976e-06	-2.028718e-08	-2.310894e+01	-1.324137e+03
2.700000e-06	-3.386672e-06	-2.073401e-08	-2.409575e+01	-1.350758e+03
2.710000e-06	-3.524143e-06	-2.112124e-08	-2.507383e+01	-1.374667e+03
2.720000e-06	-3.660416e-06	-2.146347e-08	-2.604340e+01	-1.397009e+03
2.730000e-06	-3.795257e-06	-2.176571e-08	-2.700277e+01	-1.418122e+03
2.740000e-06	-3.928703e-06	-2.203462e-08	-2.795223e+01	-1.437808e+03
2.750000e-06	-4.060740e-06	-2.227784e-08	-2.889166e+01	-1.455667e+03
2.760000e-06	-4.191309e-06	-2.250158e-08	-2.982063e+01	-1.471380e+03
2.770000e-06	-4.320532e-06	-2.270842e-08	-3.074004e+01	-1.484893e+03
2.780000e-06	-4.448302e-06	-2.289990e-08	-3.164911e+01	-1.496474e+03
2.790000e-06	-4.574427e-06	-2.307694e-08	-3.254647e+01	-1.506636e+03
2.800000e-06	-4.698984e-06	-2.324016e-08	-3.343268e+01	-1.515998e+03
2.810000e-06	-4.821932e-06	-2.339224e-08	-3.430744e+01	-1.525104e+03
2.820000e-06	-4.943155e-06	-2.353560e-08	-3.516993e+01	-1.534294e+03
2.830000e-06	-5.062501e-06	-2.367000e-08	-3.601906e+01	-1.543637e+03
2.840000e-06	-5.179796e-06	-2.379398e-08	-3.685360e+01	-1.552950e+03
2.850000e-06	-5.295023e-06	-2.390889e-08	-3.767342e+01	-1.561900e+03
2.860000e-06	-5.408146e-06	-2.401765e-08	-3.847828e+01	-1.570128e+03
2.870000e-06	-5.519163e-06	-2.412147e-08	-3.926815e+01	-1.577382e+03
2.880000e-06	-5.628183e-06	-2.422000e-08	-4.004381e+01	-1.583597e+03
2.890000e-06	-5.735271e-06	-2.431218e-08	-4.080573e+01	-1.588917e+03
2.900000e-06	-5.840401e-06	-2.439790e-08	-4.155371e+01	-1.593643e+03
2.910000e-06	-5.943334e-06	-2.447862e-08	-4.228607e+01	-1.598145e+03
2.920000e-06	-6.043932e-06	-2.455624e-08	-4.300181e+01	-1.602747e+03
2.930000e-06	-6.142402e-06	-2.463235e-08	-4.370241e+01	-1.607641e+03
2.940000e-06	-6.238767e-06	-2.470562e-08	-4.438804e+01	-1.612840e+03
