# Temperatura_=_55.96
# Concentracion g/m^3_=_41000.0
# C_Vs_to_Am_M_A/Vsm_=_65563218390.804596
# pendiente_HvsI_1/m_=_3716.3
# ordenada_HvsI_A/m_=_1297.0
# frecuencia_Hz_=_302512.0065762136

Tiempo_(s)	Campo_(V.s)	Magnetizacion_(V.s)	Campo_(kA/m)	Magnetizacion_(A/m)
0.000000e+00	-8.067901e-06	-2.584984e-08	-5.685197e+01	-1.694120e+03
1.000000e-08	-8.063463e-06	-2.584777e-08	-5.682070e+01	-1.693748e+03
2.000000e-08	-8.056452e-06	-2.584199e-08	-5.677130e+01	-1.692982e+03
3.000000e-08	-8.046666e-06	-2.583716e-08	-5.670234e+01	-1.691926e+03
4.000000e-08	-8.033914e-06	-2.582845e-08	-5.661248e+01	-1.690742e+03
5.000000e-08	-8.018206e-06	-2.581237e-08	-5.650179e+01	-1.689600e+03
6.000000e-08	-7.999882e-06	-2.579394e-08	-5.637267e+01	-1.688627e+03
7.000000e-08	-7.979273e-06	-2.577920e-08	-5.622744e+01	-1.687868e+03
8.000000e-08	-7.956029e-06	-2.582816e-08	-5.606365e+01	-1.687279e+03
9.000000e-08	-7.929582e-06	-2.583511e-08	-5.587728e+01	-1.686742e+03
1.000000e-07	-7.899912e-06	-2.575811e-08	-5.566821e+01	-1.686108e+03
1.100000e-07	-7.867339e-06	-2.571782e-08	-5.543868e+01	-1.685243e+03
1.200000e-07	-7.831953e-06	-2.569773e-08	-5.518932e+01	-1.684070e+03
1.300000e-07	-7.794067e-06	-2.563393e-08	-5.492235e+01	-1.682595e+03
1.400000e-07	-7.753938e-06	-2.554840e-08	-5.463957e+01	-1.680895e+03
1.500000e-07	-7.711454e-06	-2.560782e-08	-5.434021e+01	-1.679093e+03
1.600000e-07	-7.666410e-06	-2.563542e-08	-5.402279e+01	-1.677309e+03
1.700000e-07	-7.618647e-06	-2.550709e-08	-5.368622e+01	-1.675620e+03
1.800000e-07	-7.567893e-06	-2.554496e-08	-5.332857e+01	-1.674025e+03
1.900000e-07	-7.514126e-06	-2.551197e-08	-5.294969e+01	-1.672444e+03
2.000000e-07	-7.457613e-06	-2.542373e-08	-5.255147e+01	-1.670740e+03
2.100000e-07	-7.398390e-06	-2.543606e-08	-5.213414e+01	-1.668757e+03
2.200000e-07	-7.336549e-06	-2.541134e-08	-5.169836e+01	-1.666374e+03
2.300000e-07	-7.272035e-06	-2.537987e-08	-5.124375e+01	-1.663539e+03
2.400000e-07	-7.204671e-06	-2.526404e-08	-5.076906e+01	-1.660292e+03
2.500000e-07	-7.134614e-06	-2.524054e-08	-5.027539e+01	-1.656750e+03
2.600000e-07	-7.061726e-06	-2.520508e-08	-4.976178e+01	-1.653076e+03
2.700000e-07	-6.985950e-06	-2.513332e-08	-4.922781e+01	-1.649426e+03
2.800000e-07	-6.907403e-06	-2.508405e-08	-4.867431e+01	-1.645900e+03
2.900000e-07	-6.826102e-06	-2.503373e-08	-4.810141e+01	-1.642511e+03
3.000000e-07	-6.742360e-06	-2.498466e-08	-4.751130e+01	-1.639182e+03
3.100000e-07	-6.656361e-06	-2.488117e-08	-4.690529e+01	-1.635768e+03
3.200000e-07	-6.567992e-06	-2.484445e-08	-4.628258e+01	-1.632099e+03
3.300000e-07	-6.477155e-06	-2.480663e-08	-4.564249e+01	-1.628038e+03
3.400000e-07	-6.384033e-06	-2.472687e-08	-4.498629e+01	-1.623521e+03
3.500000e-07	-6.288635e-06	-2.464548e-08	-4.431405e+01	-1.618579e+03
3.600000e-07	-6.190862e-06	-2.458034e-08	-4.362507e+01	-1.613323e+03
3.700000e-07	-6.090817e-06	-2.451140e-08	-4.292009e+01	-1.607912e+03
3.800000e-07	-5.988663e-06	-2.442433e-08	-4.220024e+01	-1.602496e+03
3.900000e-07	-5.884380e-06	-2.435324e-08	-4.146538e+01	-1.597168e+03
4.000000e-07	-5.777952e-06	-2.426453e-08	-4.071542e+01	-1.591925e+03
4.100000e-07	-5.669563e-06	-2.416658e-08	-3.995164e+01	-1.586668e+03
4.200000e-07	-5.559241e-06	-2.406991e-08	-3.917423e+01	-1.581229e+03
4.300000e-07	-5.446780e-06	-2.398196e-08	-3.838176e+01	-1.575421e+03
4.400000e-07	-5.332148e-06	-2.388091e-08	-3.757398e+01	-1.569096e+03
4.500000e-07	-5.215545e-06	-2.377290e-08	-3.675232e+01	-1.562192e+03
4.600000e-07	-5.097068e-06	-2.366417e-08	-3.591745e+01	-1.554755e+03
4.700000e-07	-4.976692e-06	-2.355395e-08	-3.506919e+01	-1.546921e+03
4.800000e-07	-4.854471e-06	-2.343886e-08	-3.420794e+01	-1.538874e+03
4.900000e-07	-4.730521e-06	-2.332172e-08	-3.333450e+01	-1.530780e+03
5.000000e-07	-4.604898e-06	-2.320406e-08	-3.244927e+01	-1.522731e+03
5.100000e-07	-4.477573e-06	-2.306981e-08	-3.155206e+01	-1.514703e+03
5.200000e-07	-4.348553e-06	-2.292874e-08	-3.064289e+01	-1.506557e+03
5.300000e-07	-4.217961e-06	-2.278292e-08	-2.972265e+01	-1.498072e+03
5.400000e-07	-4.085849e-06	-2.263781e-08	-2.879170e+01	-1.489007e+03
5.500000e-07	-3.952181e-06	-2.248143e-08	-2.784978e+01	-1.479175e+03
5.600000e-07	-3.816971e-06	-2.232027e-08	-2.689700e+01	-1.468499e+03
5.700000e-07	-3.680244e-06	-2.215319e-08	-2.593353e+01	-1.457033e+03
5.800000e-07	-3.542025e-06	-2.198087e-08	-2.495954e+01	-1.444948e+03
5.900000e-07	-3.402464e-06	-2.180036e-08	-2.397610e+01	-1.432470e+03
6.000000e-07	-3.261472e-06	-2.160966e-08	-2.298257e+01	-1.419800e+03
6.100000e-07	-3.119067e-06	-2.140962e-08	-2.197909e+01	-1.407039e+03
6.200000e-07	-2.975448e-06	-2.119844e-08	-2.096705e+01	-1.394137e+03
6.300000e-07	-2.830702e-06	-2.098151e-08	-1.994707e+01	-1.380890e+03
6.400000e-07	-2.685043e-06	-2.075258e-08	-1.892066e+01	-1.366988e+03
6.500000e-07	-2.538494e-06	-2.051569e-08	-1.788797e+01	-1.352096e+03
6.600000e-07	-2.391009e-06	-2.026708e-08	-1.684869e+01	-1.335952e+03
6.700000e-07	-2.242695e-06	-2.000454e-08	-1.580357e+01	-1.318439e+03
6.800000e-07	-2.093699e-06	-1.972532e-08	-1.475364e+01	-1.299616e+03
6.900000e-07	-1.944060e-06	-1.943163e-08	-1.369918e+01	-1.279691e+03
7.000000e-07	-1.793736e-06	-1.912611e-08	-1.263989e+01	-1.258934e+03
7.100000e-07	-1.642740e-06	-1.880199e-08	-1.157588e+01	-1.237561e+03
7.200000e-07	-1.491043e-06	-1.846141e-08	-1.050691e+01	-1.215622e+03
7.300000e-07	-1.338824e-06	-1.810264e-08	-9.434272e+00	-1.192930e+03
7.400000e-07	-1.186234e-06	-1.771967e-08	-8.359022e+00	-1.169060e+03
7.500000e-07	-1.033216e-06	-1.730813e-08	-7.280749e+00	-1.143419e+03
7.600000e-07	-8.799192e-07	-1.687009e-08	-6.200515e+00	-1.115378e+03
7.700000e-07	-7.263680e-07	-1.640038e-08	-5.118488e+00	-1.084426e+03
7.800000e-07	-5.724748e-07	-1.589278e-08	-4.034051e+00	-1.050283e+03
7.900000e-07	-4.183883e-07	-1.534398e-08	-2.948251e+00	-1.012935e+03
8.000000e-07	-2.641432e-07	-1.474923e-08	-1.861334e+00	-9.725662e+02
8.100000e-07	-1.097945e-07	-1.410133e-08	-7.736874e-01	-9.293639e+02
8.200000e-07	4.462057e-08	-1.339124e-08	3.144272e-01	-8.832665e+02
8.300000e-07	1.990987e-07	-1.261090e-08	1.402987e+00	-8.336940e+02
8.400000e-07	3.535163e-07	-1.174505e-08	2.491119e+00	-7.793540e+02
8.500000e-07	5.078159e-07	-1.077750e-08	3.578420e+00	-7.181986e+02
8.600000e-07	6.619599e-07	-9.683850e-09	4.664624e+00	-6.475781e+02
8.700000e-07	8.158778e-07	-8.434728e-09	5.749236e+00	-5.646000e+02
8.800000e-07	9.695515e-07	-6.983822e-09	6.832126e+00	-4.666463e+02
8.900000e-07	1.122972e-06	-5.269851e-09	7.913230e+00	-3.519588e+02
9.000000e-07	1.276045e-06	-3.231115e-09	8.991891e+00	-2.201746e+02
9.100000e-07	1.428758e-06	-9.054882e-10	1.006801e+01	-7.268961e+01
9.200000e-07	1.581040e-06	1.541198e-09	1.114109e+01	8.724290e+01
9.300000e-07	1.732721e-06	4.001480e-09	1.220994e+01	2.547265e+02
9.400000e-07	1.883682e-06	6.458768e-09	1.327372e+01	4.237287e+02
9.500000e-07	2.033857e-06	8.912846e-09	1.433196e+01	5.878037e+02
9.600000e-07	2.183149e-06	1.132001e-08	1.538397e+01	7.409021e+02
9.700000e-07	2.331540e-06	1.349401e-08	1.642964e+01	8.781248e+02
9.800000e-07	2.479098e-06	1.526960e-08	1.746943e+01	9.962812e+02
9.900000e-07	2.625717e-06	1.666450e-08	1.850261e+01	1.094160e+03
1.000000e-06	2.771357e-06	1.776591e-08	1.952888e+01	1.172475e+03
1.010000e-06	2.916044e-06	1.864587e-08	2.054845e+01	1.233511e+03
1.020000e-06	3.059621e-06	1.935999e-08	2.156019e+01	1.280570e+03
1.030000e-06	3.202038e-06	1.995193e-08	2.256376e+01	1.317320e+03
1.040000e-06	3.343204e-06	2.045174e-08	2.355851e+01	1.347196e+03
1.050000e-06	3.483031e-06	2.088060e-08	2.454383e+01	1.372944e+03
1.060000e-06	3.621538e-06	2.125349e-08	2.551985e+01	1.396395e+03
1.070000e-06	3.758698e-06	2.158330e-08	2.648637e+01	1.418450e+03
1.080000e-06	3.894391e-06	2.187685e-08	2.744255e+01	1.439271e+03
1.090000e-06	4.028607e-06	2.214002e-08	2.838833e+01	1.458578e+03
1.100000e-06	4.161390e-06	2.237738e-08	2.932401e+01	1.475970e+03
1.110000e-06	4.292656e-06	2.259492e-08	3.024901e+01	1.491185e+03
1.120000e-06	4.422495e-06	2.279673e-08	3.116394e+01	1.504252e+03
1.130000e-06	4.550829e-06	2.298458e-08	3.206827e+01	1.515508e+03
1.140000e-06	4.677537e-06	2.315963e-08	3.296114e+01	1.525501e+03
1.150000e-06	4.802641e-06	2.332430e-08	3.384271e+01	1.534837e+03
1.160000e-06	4.926116e-06	2.347976e-08	3.471280e+01	1.544011e+03
1.170000e-06	5.047897e-06	2.362555e-08	3.557095e+01	1.553291e+03
1.180000e-06	5.167811e-06	2.376093e-08	3.641595e+01	1.562676e+03
1.190000e-06	5.285766e-06	2.388639e-08	3.724714e+01	1.571943e+03
1.200000e-06	5.401764e-06	2.400334e-08	3.806454e+01	1.580746e+03
1.210000e-06	5.515684e-06	2.411260e-08	3.886730e+01	1.588755e+03
1.220000e-06	5.627437e-06	2.421595e-08	3.965479e+01	1.595767e+03
1.230000e-06	5.737131e-06	2.431340e-08	4.042776e+01	1.601776e+03
1.240000e-06	5.844855e-06	2.440706e-08	4.118686e+01	1.606969e+03
1.250000e-06	5.950492e-06	2.449615e-08	4.193125e+01	1.611670e+03
1.260000e-06	6.053873e-06	2.458032e-08	4.265975e+01	1.616235e+03
1.270000e-06	6.155002e-06	2.465981e-08	4.337237e+01	1.620953e+03
1.280000e-06	6.253890e-06	2.473577e-08	4.406920e+01	1.625965e+03
1.290000e-06	6.350386e-06	2.480818e-08	4.474918e+01	1.631236e+03
1.300000e-06	6.444544e-06	2.487659e-08	4.541269e+01	1.636584e+03
1.310000e-06	6.536475e-06	2.494250e-08	4.606049e+01	1.641743e+03
1.320000e-06	6.626067e-06	2.500685e-08	4.669182e+01	1.646462e+03
1.330000e-06	6.713256e-06	2.507006e-08	4.730621e+01	1.650576e+03
1.340000e-06	6.798080e-06	2.513103e-08	4.790395e+01	1.654064e+03
1.350000e-06	6.880506e-06	2.518859e-08	4.848477e+01	1.657040e+03
1.360000e-06	6.960446e-06	2.524197e-08	4.904809e+01	1.659720e+03
1.370000e-06	7.037808e-06	2.529134e-08	4.959323e+01	1.662345e+03
1.380000e-06	7.112607e-06	2.533820e-08	5.012032e+01	1.665108e+03
1.390000e-06	7.184780e-06	2.538287e-08	5.062890e+01	1.668094e+03
1.400000e-06	7.254316e-06	2.542613e-08	5.111889e+01	1.671260e+03
1.410000e-06	7.321295e-06	2.546768e-08	5.159087e+01	1.674453e+03
1.420000e-06	7.385668e-06	2.550760e-08	5.204449e+01	1.677468e+03
1.430000e-06	7.447502e-06	2.554378e-08	5.248022e+01	1.680108e+03
1.440000e-06	7.506849e-06	2.557662e-08	5.289842e+01	1.682257e+03
1.450000e-06	7.563568e-06	2.560709e-08	5.329810e+01	1.683909e+03
1.460000e-06	7.617466e-06	2.563569e-08	5.367790e+01	1.685169e+03
1.470000e-06	7.668284e-06	2.566296e-08	5.403600e+01	1.686223e+03
1.480000e-06	7.716000e-06	2.568712e-08	5.437224e+01	1.687273e+03
1.490000e-06	7.760963e-06	2.570990e-08	5.468908e+01	1.688476e+03
1.500000e-06	7.803196e-06	2.573208e-08	5.498668e+01	1.689896e+03
1.510000e-06	7.842534e-06	2.575321e-08	5.526388e+01	1.691490e+03
1.520000e-06	7.879154e-06	2.577191e-08	5.552194e+01	1.693120e+03
1.530000e-06	7.913080e-06	2.578890e-08	5.576100e+01	1.694602e+03
1.540000e-06	7.944165e-06	2.580430e-08	5.598005e+01	1.695766e+03
1.550000e-06	7.972447e-06	2.581731e-08	5.617934e+01	1.696511e+03
1.560000e-06	7.997808e-06	2.582808e-08	5.635805e+01	1.696837e+03
1.570000e-06	8.020192e-06	2.583683e-08	5.651578e+01	1.696842e+03
1.580000e-06	8.039757e-06	2.584580e-08	5.665366e+01	1.696695e+03
1.590000e-06	8.056472e-06	2.585456e-08	5.677144e+01	1.696581e+03
1.600000e-06	8.070228e-06	2.586250e-08	5.686837e+01	1.696643e+03
1.610000e-06	8.080831e-06	2.586944e-08	5.694309e+01	1.696941e+03
1.620000e-06	8.088321e-06	2.587330e-08	5.699587e+01	1.697429e+03
1.630000e-06	8.092992e-06	2.587585e-08	5.702878e+01	1.697977e+03
1.640000e-06	8.094797e-06	2.587792e-08	5.704150e+01	1.698406e+03
1.650000e-06	8.093741e-06	2.587131e-08	5.703406e+01	1.698549e+03
1.660000e-06	8.090051e-06	2.586053e-08	5.700806e+01	1.698298e+03
1.670000e-06	8.083644e-06	2.585577e-08	5.696291e+01	1.697637e+03
1.680000e-06	8.074503e-06	2.585016e-08	5.689850e+01	1.696648e+03
1.690000e-06	8.062609e-06	2.584324e-08	5.681469e+01	1.695483e+03
1.700000e-06	8.047837e-06	2.583935e-08	5.671059e+01	1.694313e+03
1.710000e-06	8.030486e-06	2.583576e-08	5.658832e+01	1.693283e+03
1.720000e-06	8.010871e-06	2.580815e-08	5.645011e+01	1.692464e+03
1.730000e-06	7.988659e-06	2.569708e-08	5.629358e+01	1.691835e+03
1.740000e-06	7.963096e-06	2.569558e-08	5.611345e+01	1.691298e+03
1.750000e-06	7.933784e-06	2.573563e-08	5.590689e+01	1.690707e+03
1.760000e-06	7.901161e-06	2.570587e-08	5.567701e+01	1.689919e+03
1.770000e-06	7.866061e-06	2.570418e-08	5.542967e+01	1.688837e+03
1.780000e-06	7.828612e-06	2.579791e-08	5.516578e+01	1.687443e+03
1.790000e-06	7.789005e-06	2.576891e-08	5.488668e+01	1.685796e+03
1.800000e-06	7.747366e-06	2.566991e-08	5.459326e+01	1.684010e+03
1.810000e-06	7.703073e-06	2.574195e-08	5.428115e+01	1.682210e+03
1.820000e-06	7.656017e-06	2.563032e-08	5.394956e+01	1.680490e+03
1.830000e-06	7.606220e-06	2.562844e-08	5.359866e+01	1.678873e+03
1.840000e-06	7.553346e-06	2.562979e-08	5.322607e+01	1.677300e+03
1.850000e-06	7.497548e-06	2.555321e-08	5.283287e+01	1.675647e+03
1.860000e-06	7.439072e-06	2.556253e-08	5.242081e+01	1.673759e+03
1.870000e-06	7.377924e-06	2.542364e-08	5.198992e+01	1.671499e+03
1.880000e-06	7.314016e-06	2.547310e-08	5.153958e+01	1.668793e+03
1.890000e-06	7.247277e-06	2.544975e-08	5.106929e+01	1.665654e+03
1.900000e-06	7.177766e-06	2.537331e-08	5.057947e+01	1.662181e+03
1.910000e-06	7.105440e-06	2.536935e-08	5.006981e+01	1.658528e+03
1.920000e-06	7.030375e-06	2.525595e-08	4.954085e+01	1.654857e+03
1.930000e-06	6.952530e-06	2.523930e-08	4.899230e+01	1.651290e+03
1.940000e-06	6.871955e-06	2.515602e-08	4.842452e+01	1.647866e+03
1.950000e-06	6.788859e-06	2.514325e-08	4.783896e+01	1.644533e+03
1.960000e-06	6.703213e-06	2.508553e-08	4.723545e+01	1.641160e+03
1.970000e-06	6.615128e-06	2.498122e-08	4.661474e+01	1.637579e+03
1.980000e-06	6.524732e-06	2.494524e-08	4.597775e+01	1.633641e+03
1.990000e-06	6.432068e-06	2.486145e-08	4.532477e+01	1.629256e+03
2.000000e-06	6.337071e-06	2.481617e-08	4.465536e+01	1.624426e+03
2.010000e-06	6.239804e-06	2.472155e-08	4.396995e+01	1.619245e+03
2.020000e-06	6.140319e-06	2.465866e-08	4.326890e+01	1.613861e+03
2.030000e-06	6.038594e-06	2.456145e-08	4.255208e+01	1.608434e+03
2.040000e-06	5.934695e-06	2.448215e-08	4.181994e+01	1.603077e+03
2.050000e-06	5.828764e-06	2.441697e-08	4.107347e+01	1.597815e+03
2.060000e-06	5.720920e-06	2.433617e-08	4.031353e+01	1.592577e+03
2.070000e-06	5.610970e-06	2.424728e-08	3.953875e+01	1.587209e+03
2.080000e-06	5.498926e-06	2.413879e-08	3.874921e+01	1.581524e+03
2.090000e-06	5.384846e-06	2.405540e-08	3.794532e+01	1.575357e+03
2.100000e-06	5.268638e-06	2.394887e-08	3.712644e+01	1.568619e+03
2.110000e-06	5.150374e-06	2.385259e-08	3.629307e+01	1.561324e+03
2.120000e-06	5.030242e-06	2.374010e-08	3.544654e+01	1.553586e+03
2.130000e-06	4.908336e-06	2.363090e-08	3.458751e+01	1.545580e+03
2.140000e-06	4.784643e-06	2.350426e-08	3.371588e+01	1.537486e+03
2.150000e-06	4.659160e-06	2.338138e-08	3.283165e+01	1.529421e+03
2.160000e-06	4.531962e-06	2.326030e-08	3.193532e+01	1.521396e+03
2.170000e-06	4.403189e-06	2.313640e-08	3.102789e+01	1.513304e+03
2.180000e-06	4.272881e-06	2.300564e-08	3.010966e+01	1.504941e+03
2.190000e-06	4.140986e-06	2.286533e-08	2.918023e+01	1.496064e+03
2.200000e-06	4.007487e-06	2.271930e-08	2.823951e+01	1.486465e+03
2.210000e-06	3.872486e-06	2.256016e-08	2.728820e+01	1.476030e+03
2.220000e-06	3.735996e-06	2.239786e-08	2.632640e+01	1.464776e+03
2.230000e-06	3.598066e-06	2.222498e-08	2.535444e+01	1.452846e+03
2.240000e-06	3.458693e-06	2.204979e-08	2.437233e+01	1.440457e+03
2.250000e-06	3.317915e-06	2.186726e-08	2.338031e+01	1.427826e+03
2.260000e-06	3.175868e-06	2.167825e-08	2.237935e+01	1.415089e+03
2.270000e-06	3.032623e-06	2.147768e-08	2.136994e+01	1.402242e+03
2.280000e-06	2.888291e-06	2.127108e-08	2.035288e+01	1.389121e+03
2.290000e-06	2.742961e-06	2.105394e-08	1.932879e+01	1.375441e+03
2.300000e-06	2.596734e-06	2.082211e-08	1.829837e+01	1.360864e+03
2.310000e-06	2.449628e-06	2.057685e-08	1.726176e+01	1.345097e+03
2.320000e-06	2.301568e-06	2.032268e-08	1.621843e+01	1.327976e+03
2.330000e-06	2.152592e-06	2.005731e-08	1.516864e+01	1.309512e+03
2.340000e-06	2.002910e-06	1.977569e-08	1.411388e+01	1.289875e+03
2.350000e-06	1.852611e-06	1.947922e-08	1.305477e+01	1.269329e+03
2.360000e-06	1.701692e-06	1.916612e-08	1.199129e+01	1.248117e+03
2.370000e-06	1.550242e-06	1.883155e-08	1.092407e+01	1.226348e+03
2.380000e-06	1.398318e-06	1.847865e-08	9.853512e+00	1.203905e+03
2.390000e-06	1.245975e-06	1.810762e-08	8.779998e+00	1.180427e+03
2.400000e-06	1.093243e-06	1.771194e-08	7.703740e+00	1.155357e+03
2.410000e-06	9.401541e-07	1.728218e-08	6.624972e+00	1.128061e+03
2.420000e-06	7.868414e-07	1.681944e-08	5.544625e+00	1.097981e+03
2.430000e-06	6.333084e-07	1.632518e-08	4.462726e+00	1.064762e+03
2.440000e-06	4.795223e-07	1.579134e-08	3.379044e+00	1.028318e+03
2.450000e-06	3.255609e-07	1.521555e-08	2.294126e+00	9.887884e+02
2.460000e-06	1.714425e-07	1.459085e-08	1.208102e+00	9.463855e+02
2.470000e-06	1.717471e-08	1.390789e-08	1.210248e-01	9.011472e+02
2.480000e-06	-1.371578e-07	1.315542e-08	-9.665084e-01	8.526658e+02
2.490000e-06	-2.914266e-07	1.231959e-08	-2.053592e+00	7.998649e+02
2.500000e-06	-4.456056e-07	1.138901e-08	-3.140043e+00	7.409058e+02
2.510000e-06	-5.997114e-07	1.034452e-08	-4.225979e+00	6.732826e+02
2.520000e-06	-7.536064e-07	9.154716e-09	-5.310429e+00	5.941252e+02
2.530000e-06	-9.072160e-07	7.779330e-09	-6.392868e+00	5.006781e+02
2.540000e-06	-1.060548e-06	6.168563e-09	-7.473347e+00	3.908784e+02
2.550000e-06	-1.213518e-06	4.254084e-09	-8.551279e+00	2.639177e+02
2.560000e-06	-1.366053e-06	2.001818e-09	-9.626146e+00	1.206665e+02
2.570000e-06	-1.518105e-06	-4.646085e-10	-1.069761e+01	-3.614461e+01
2.580000e-06	-1.669583e-06	-2.984446e-09	-1.176503e+01	-2.020488e+02
2.590000e-06	-1.820439e-06	-5.508913e-09	-1.282807e+01	-3.712719e+02
2.600000e-06	-1.970653e-06	-8.033516e-09	-1.388657e+01	-5.374045e+02
2.610000e-06	-2.120180e-06	-1.053649e-08	-1.494025e+01	-6.942021e+02
2.620000e-06	-2.268906e-06	-1.286142e-08	-1.598827e+01	-8.363688e+02
2.630000e-06	-2.416720e-06	-1.480690e-08	-1.702987e+01	-9.601848e+02
2.640000e-06	-2.563598e-06	-1.634403e-08	-1.806488e+01	-1.063865e+03
2.650000e-06	-2.709525e-06	-1.755168e-08	-1.909317e+01	-1.147595e+03
2.660000e-06	-2.854406e-06	-1.851084e-08	-2.011411e+01	-1.213264e+03
2.670000e-06	-2.998178e-06	-1.928459e-08	-2.112722e+01	-1.263946e+03
2.680000e-06	-3.140829e-06	-1.992171e-08	-2.213244e+01	-1.303271e+03
2.690000e-06	-3.282329e-06	-2.045233e-08	-2.312955e+01	-1.334794e+03
2.700000e-06	-3.422555e-06	-2.089904e-08	-2.411767e+01	-1.361493e+03
2.710000e-06	-3.561414e-06	-2.128510e-08	-2.509617e+01	-1.385470e+03
2.720000e-06	-3.698850e-06	-2.162622e-08	-2.606464e+01	-1.407879e+03
2.730000e-06	-3.834807e-06	-2.193387e-08	-2.702269e+01	-1.429069e+03
2.740000e-06	-3.969423e-06	-2.220919e-08	-2.797128e+01	-1.448850e+03
2.750000e-06	-4.102710e-06	-2.245665e-08	-2.891051e+01	-1.466826e+03
2.760000e-06	-4.234463e-06	-2.268171e-08	-2.983894e+01	-1.482674e+03
2.770000e-06	-4.364782e-06	-2.288770e-08	-3.075725e+01	-1.496333e+03
2.780000e-06	-4.493714e-06	-2.307712e-08	-3.166580e+01	-1.508057e+03
2.790000e-06	-4.621074e-06	-2.325258e-08	-3.256326e+01	-1.518349e+03
2.800000e-06	-4.746848e-06	-2.341600e-08	-3.344955e+01	-1.527815e+03
2.810000e-06	-4.870872e-06	-2.356924e-08	-3.432351e+01	-1.536996e+03
2.820000e-06	-4.993056e-06	-2.371444e-08	-3.518451e+01	-1.546234e+03
2.830000e-06	-5.113481e-06	-2.385181e-08	-3.603310e+01	-1.555604e+03
2.840000e-06	-5.232098e-06	-2.397909e-08	-3.686896e+01	-1.564937e+03
2.850000e-06	-5.348641e-06	-2.409634e-08	-3.769020e+01	-1.573909e+03
2.860000e-06	-5.462912e-06	-2.420686e-08	-3.849543e+01	-1.582173e+03
2.870000e-06	-5.575008e-06	-2.431105e-08	-3.928534e+01	-1.589480e+03
2.880000e-06	-5.685008e-06	-2.440815e-08	-4.006047e+01	-1.595764e+03
2.890000e-06	-5.792962e-06	-2.449810e-08	-4.082119e+01	-1.601162e+03
2.900000e-06	-5.898912e-06	-2.458364e-08	-4.156779e+01	-1.605967e+03
2.910000e-06	-6.002745e-06	-2.466611e-08	-4.229947e+01	-1.610536e+03
2.920000e-06	-6.104329e-06	-2.474585e-08	-4.301530e+01	-1.615189e+03
2.930000e-06	-6.203666e-06	-2.482334e-08	-4.371530e+01	-1.620113e+03
2.940000e-06	-6.300826e-06	-2.489849e-08	-4.439995e+01	-1.625324e+03
