# Temperatura_=_61.29
# Concentracion g/m^3_=_41000.0
# C_Vs_to_Am_M_A/Vsm_=_65563218390.804596
# pendiente_HvsI_1/m_=_3716.3
# ordenada_HvsI_A/m_=_1297.0
# frecuencia_Hz_=_302510.252563972

Tiempo_(s)	Campo_(V.s)	Magnetizacion_(V.s)	Campo_(kA/m)	Magnetizacion_(A/m)
0.000000e+00	-8.057153e-06	-2.423245e-08	-5.685288e+01	-1.588759e+03
1.000000e-08	-8.052545e-06	-2.422743e-08	-5.682037e+01	-1.588116e+03
2.000000e-08	-8.045437e-06	-2.422110e-08	-5.677021e+01	-1.587058e+03
3.000000e-08	-8.035600e-06	-2.421534e-08	-5.670080e+01	-1.585786e+03
4.000000e-08	-8.022785e-06	-2.420662e-08	-5.661038e+01	-1.584531e+03
5.000000e-08	-8.007069e-06	-2.419137e-08	-5.649948e+01	-1.583491e+03
6.000000e-08	-7.988750e-06	-2.417578e-08	-5.637022e+01	-1.582765e+03
7.000000e-08	-7.968120e-06	-2.416598e-08	-5.622465e+01	-1.582328e+03
8.000000e-08	-7.944886e-06	-2.421286e-08	-5.606071e+01	-1.582045e+03
9.000000e-08	-7.918471e-06	-2.420729e-08	-5.587432e+01	-1.581713e+03
1.000000e-07	-7.888814e-06	-2.414590e-08	-5.566505e+01	-1.581132e+03
1.100000e-07	-7.856225e-06	-2.411527e-08	-5.543510e+01	-1.580168e+03
1.200000e-07	-7.820887e-06	-2.408621e-08	-5.518574e+01	-1.578796e+03
1.300000e-07	-7.783046e-06	-2.402392e-08	-5.491873e+01	-1.577103e+03
1.400000e-07	-7.742943e-06	-2.395446e-08	-5.463576e+01	-1.575260e+03
1.500000e-07	-7.700518e-06	-2.401556e-08	-5.433640e+01	-1.573460e+03
1.600000e-07	-7.655424e-06	-2.399936e-08	-5.401820e+01	-1.571851e+03
1.700000e-07	-7.607618e-06	-2.391286e-08	-5.368088e+01	-1.570485e+03
1.800000e-07	-7.556851e-06	-2.394288e-08	-5.332265e+01	-1.569294e+03
1.900000e-07	-7.502992e-06	-2.388470e-08	-5.294262e+01	-1.568108e+03
2.000000e-07	-7.446390e-06	-2.384063e-08	-5.254322e+01	-1.566703e+03
2.100000e-07	-7.387076e-06	-2.385085e-08	-5.212469e+01	-1.564873e+03
2.200000e-07	-7.325113e-06	-2.383624e-08	-5.168747e+01	-1.562493e+03
2.300000e-07	-7.260508e-06	-2.379554e-08	-5.123160e+01	-1.559560e+03
2.400000e-07	-7.193137e-06	-2.367491e-08	-5.075621e+01	-1.556197e+03
2.500000e-07	-7.123001e-06	-2.364949e-08	-5.026133e+01	-1.552613e+03
2.600000e-07	-7.050044e-06	-2.362561e-08	-4.974652e+01	-1.549044e+03
2.700000e-07	-6.974295e-06	-2.357032e-08	-4.921202e+01	-1.545675e+03
2.800000e-07	-6.895797e-06	-2.351275e-08	-4.865813e+01	-1.542583e+03
2.900000e-07	-6.814499e-06	-2.347481e-08	-4.808447e+01	-1.539716e+03
3.000000e-07	-6.730762e-06	-2.342396e-08	-4.749360e+01	-1.536903e+03
3.100000e-07	-6.644861e-06	-2.330884e-08	-4.688747e+01	-1.533913e+03
3.200000e-07	-6.556570e-06	-2.328278e-08	-4.626447e+01	-1.530525e+03
3.300000e-07	-6.465772e-06	-2.325672e-08	-4.562378e+01	-1.526597e+03
3.400000e-07	-6.372630e-06	-2.318680e-08	-4.496655e+01	-1.522117e+03
3.500000e-07	-6.277274e-06	-2.310589e-08	-4.429371e+01	-1.517199e+03
3.600000e-07	-6.179574e-06	-2.304811e-08	-4.360431e+01	-1.512053e+03
3.700000e-07	-6.079581e-06	-2.298492e-08	-4.289874e+01	-1.506912e+03
3.800000e-07	-5.977483e-06	-2.290273e-08	-4.217832e+01	-1.501954e+03
3.900000e-07	-5.873291e-06	-2.283947e-08	-4.144312e+01	-1.497244e+03
4.000000e-07	-5.766987e-06	-2.275435e-08	-4.069302e+01	-1.492705e+03
4.100000e-07	-5.658661e-06	-2.266638e-08	-3.992865e+01	-1.488135e+03
4.200000e-07	-5.548413e-06	-2.257383e-08	-3.915071e+01	-1.483273e+03
4.300000e-07	-5.436056e-06	-2.249007e-08	-3.835790e+01	-1.477873e+03
4.400000e-07	-5.321527e-06	-2.239170e-08	-3.754976e+01	-1.471787e+03
4.500000e-07	-5.204975e-06	-2.229226e-08	-3.672735e+01	-1.465011e+03
4.600000e-07	-5.086524e-06	-2.219535e-08	-3.589153e+01	-1.457691e+03
4.700000e-07	-4.966241e-06	-2.209494e-08	-3.504279e+01	-1.450078e+03
4.800000e-07	-4.844117e-06	-2.198807e-08	-3.418106e+01	-1.442444e+03
4.900000e-07	-4.720210e-06	-2.187744e-08	-3.330675e+01	-1.434994e+03
5.000000e-07	-4.594615e-06	-2.176943e-08	-3.242052e+01	-1.427791e+03
5.100000e-07	-4.467374e-06	-2.164264e-08	-3.152269e+01	-1.420726e+03
5.200000e-07	-4.338500e-06	-2.151122e-08	-3.061332e+01	-1.413541e+03
5.300000e-07	-4.207984e-06	-2.137504e-08	-2.969238e+01	-1.405902e+03
5.400000e-07	-4.075876e-06	-2.123863e-08	-2.876020e+01	-1.397496e+03
5.500000e-07	-3.942299e-06	-2.109064e-08	-2.781765e+01	-1.388129e+03
5.600000e-07	-3.807319e-06	-2.093910e-08	-2.686520e+01	-1.377789e+03
5.700000e-07	-3.670871e-06	-2.078516e-08	-2.590240e+01	-1.366649e+03
5.800000e-07	-3.532851e-06	-2.062816e-08	-2.492850e+01	-1.355014e+03
5.900000e-07	-3.393367e-06	-2.046538e-08	-2.394428e+01	-1.343220e+03
6.000000e-07	-3.252556e-06	-2.028953e-08	-2.295068e+01	-1.331518e+03
6.100000e-07	-3.110378e-06	-2.010228e-08	-2.194745e+01	-1.319977e+03
6.200000e-07	-2.966843e-06	-1.990273e-08	-2.093464e+01	-1.308444e+03
6.300000e-07	-2.822197e-06	-1.969863e-08	-1.991399e+01	-1.296571e+03
6.400000e-07	-2.676635e-06	-1.948379e-08	-1.888687e+01	-1.283905e+03
6.500000e-07	-2.530183e-06	-1.926233e-08	-1.785348e+01	-1.270020e+03
6.600000e-07	-2.382879e-06	-1.903204e-08	-1.681407e+01	-1.254642e+03
6.700000e-07	-2.234778e-06	-1.878863e-08	-1.576904e+01	-1.237737e+03
6.800000e-07	-2.085970e-06	-1.852757e-08	-1.471902e+01	-1.219519e+03
6.900000e-07	-1.936509e-06	-1.825128e-08	-1.366440e+01	-1.200377e+03
7.000000e-07	-1.786432e-06	-1.796584e-08	-1.260542e+01	-1.180730e+03
7.100000e-07	-1.635749e-06	-1.766476e-08	-1.154217e+01	-1.160868e+03
7.200000e-07	-1.484477e-06	-1.734850e-08	-1.047477e+01	-1.140807e+03
7.300000e-07	-1.332667e-06	-1.701112e-08	-9.403568e+00	-1.120221e+03
7.400000e-07	-1.180357e-06	-1.664821e-08	-8.328833e+00	-1.098482e+03
7.500000e-07	-1.027659e-06	-1.625825e-08	-7.251366e+00	-1.074794e+03
7.600000e-07	-8.745794e-07	-1.584428e-08	-6.171207e+00	-1.048387e+03
7.700000e-07	-7.211070e-07	-1.540448e-08	-5.088276e+00	-1.018727e+03
7.800000e-07	-5.673584e-07	-1.492898e-08	-4.003394e+00	-9.856440e+02
7.900000e-07	-4.133976e-07	-1.441009e-08	-2.917016e+00	-9.493478e+02
8.000000e-07	-2.592431e-07	-1.384165e-08	-1.829271e+00	-9.102859e+02
8.100000e-07	-1.049718e-07	-1.322019e-08	-7.407022e-01	-8.688695e+02
8.200000e-07	4.938418e-08	-1.253713e-08	3.484646e-01	-8.251266e+02
8.300000e-07	2.037587e-07	-1.178349e-08	1.437762e+00	-7.783751e+02
8.400000e-07	3.580703e-07	-1.094619e-08	2.526616e+00	-7.270216e+02
8.500000e-07	5.123409e-07	-1.000715e-08	3.615180e+00	-6.685691e+02
8.600000e-07	6.664764e-07	-8.940206e-09	4.702791e+00	-5.998785e+02
8.700000e-07	8.203696e-07	-7.710655e-09	5.788693e+00	-5.176657e+02
8.800000e-07	9.738868e-07	-6.268966e-09	6.871941e+00	-4.191562e+02
8.900000e-07	1.127037e-06	-4.550419e-09	7.952600e+00	-3.027680e+02
9.000000e-07	1.279832e-06	-2.496320e-09	9.030754e+00	-1.686761e+02
9.100000e-07	1.432143e-06	-1.590709e-10	1.010548e+01	-1.912123e+01
9.200000e-07	1.583942e-06	2.290897e-09	1.117661e+01	1.416268e+02
9.300000e-07	1.735138e-06	4.751254e-09	1.224348e+01	3.076719e+02
9.400000e-07	1.885669e-06	7.208408e-09	1.330566e+01	4.722025e+02
9.500000e-07	2.035547e-06	9.636482e-09	1.436323e+01	6.283865e+02
9.600000e-07	2.184648e-06	1.187103e-08	1.541532e+01	7.702836e+02
9.700000e-07	2.332869e-06	1.372281e-08	1.646119e+01	8.936025e+02
9.800000e-07	2.480210e-06	1.517982e-08	1.750086e+01	9.961653e+02
9.900000e-07	2.626613e-06	1.632058e-08	1.853391e+01	1.078003e+03
1.000000e-06	2.772016e-06	1.722385e-08	1.955990e+01	1.141082e+03
1.010000e-06	2.916418e-06	1.794667e-08	2.057883e+01	1.188740e+03
1.020000e-06	3.059718e-06	1.853542e-08	2.158999e+01	1.224961e+03
1.030000e-06	3.201797e-06	1.902636e-08	2.259252e+01	1.253648e+03
1.040000e-06	3.342647e-06	1.944380e-08	2.358639e+01	1.278036e+03
1.050000e-06	3.482336e-06	1.980591e-08	2.457206e+01	1.300332e+03
1.060000e-06	3.620751e-06	2.012461e-08	2.554874e+01	1.321645e+03
1.070000e-06	3.757678e-06	2.040986e-08	2.651493e+01	1.342150e+03
1.080000e-06	3.893108e-06	2.066536e-08	2.747055e+01	1.361426e+03
1.090000e-06	4.027091e-06	2.089739e-08	2.841596e+01	1.378850e+03
1.100000e-06	4.159639e-06	2.110765e-08	2.935125e+01	1.393941e+03
1.110000e-06	4.290765e-06	2.130121e-08	3.027650e+01	1.406586e+03
1.120000e-06	4.420379e-06	2.147878e-08	3.119108e+01	1.417089e+03
1.130000e-06	4.548366e-06	2.164236e-08	3.209418e+01	1.426080e+03
1.140000e-06	4.674777e-06	2.179528e-08	3.298616e+01	1.434327e+03
1.150000e-06	4.799678e-06	2.194105e-08	3.386749e+01	1.442506e+03
1.160000e-06	4.922945e-06	2.208105e-08	3.473728e+01	1.451034e+03
1.170000e-06	5.044422e-06	2.221095e-08	3.559445e+01	1.459983e+03
1.180000e-06	5.164013e-06	2.233169e-08	3.643831e+01	1.469103e+03
1.190000e-06	5.281701e-06	2.244480e-08	3.726874e+01	1.477949e+03
1.200000e-06	5.397472e-06	2.255121e-08	3.808565e+01	1.486044e+03
1.210000e-06	5.511086e-06	2.264902e-08	3.888732e+01	1.493047e+03
1.220000e-06	5.622552e-06	2.274054e-08	3.967386e+01	1.498860e+03
1.230000e-06	5.732067e-06	2.282941e-08	4.044661e+01	1.503651e+03
1.240000e-06	5.839648e-06	2.291542e-08	4.120573e+01	1.507799e+03
1.250000e-06	5.945124e-06	2.299585e-08	4.194999e+01	1.511770e+03
1.260000e-06	6.048328e-06	2.307201e-08	4.267821e+01	1.515975e+03
1.270000e-06	6.149289e-06	2.314490e-08	4.339062e+01	1.520654e+03
1.280000e-06	6.247981e-06	2.321586e-08	4.408700e+01	1.525817e+03
1.290000e-06	6.344291e-06	2.328327e-08	4.476659e+01	1.531258e+03
1.300000e-06	6.438236e-06	2.334665e-08	4.542948e+01	1.536632e+03
1.310000e-06	6.529923e-06	2.340837e-08	4.607645e+01	1.541573e+03
1.320000e-06	6.619239e-06	2.346915e-08	4.670668e+01	1.545813e+03
1.330000e-06	6.706183e-06	2.352848e-08	4.732017e+01	1.549257e+03
1.340000e-06	6.790844e-06	2.358491e-08	4.791755e+01	1.552010e+03
1.350000e-06	6.873117e-06	2.363713e-08	4.849809e+01	1.554330e+03
1.360000e-06	6.952878e-06	2.368537e-08	4.906090e+01	1.556549e+03
1.370000e-06	7.030082e-06	2.372980e-08	4.960566e+01	1.558958e+03
1.380000e-06	7.104678e-06	2.377248e-08	5.013203e+01	1.561726e+03
1.390000e-06	7.176629e-06	2.381381e-08	5.063973e+01	1.564847e+03
1.400000e-06	7.246068e-06	2.385403e-08	5.112971e+01	1.568151e+03
1.410000e-06	7.312973e-06	2.389361e-08	5.160181e+01	1.571366e+03
1.420000e-06	7.377225e-06	2.392982e-08	5.205518e+01	1.574207e+03
1.430000e-06	7.438896e-06	2.396345e-08	5.249034e+01	1.576470e+03
1.440000e-06	7.498050e-06	2.399465e-08	5.290774e+01	1.578091e+03
1.450000e-06	7.554547e-06	2.402057e-08	5.330640e+01	1.579171e+03
1.460000e-06	7.608218e-06	2.404326e-08	5.368511e+01	1.579938e+03
1.470000e-06	7.658852e-06	2.406481e-08	5.404239e+01	1.580672e+03
1.480000e-06	7.706404e-06	2.408638e-08	5.437793e+01	1.581624e+03
1.490000e-06	7.751224e-06	2.410984e-08	5.469419e+01	1.582930e+03
1.500000e-06	7.793357e-06	2.413321e-08	5.499149e+01	1.584580e+03
1.510000e-06	7.832665e-06	2.415549e-08	5.526886e+01	1.586421e+03
1.520000e-06	7.869258e-06	2.417370e-08	5.552706e+01	1.588207e+03
1.530000e-06	7.903062e-06	2.418918e-08	5.576559e+01	1.589683e+03
1.540000e-06	7.933983e-06	2.420180e-08	5.598377e+01	1.590661e+03
1.550000e-06	7.962208e-06	2.421040e-08	5.618293e+01	1.591082e+03
1.560000e-06	7.987547e-06	2.421823e-08	5.636173e+01	1.591031e+03
1.570000e-06	8.009893e-06	2.422634e-08	5.651941e+01	1.590711e+03
1.580000e-06	8.029465e-06	2.423617e-08	5.665751e+01	1.590376e+03
1.590000e-06	8.046123e-06	2.424629e-08	5.677506e+01	1.590255e+03
1.600000e-06	8.059732e-06	2.425641e-08	5.687108e+01	1.590477e+03
1.610000e-06	8.070201e-06	2.426376e-08	5.694496e+01	1.591038e+03
1.620000e-06	8.077572e-06	2.426686e-08	5.699697e+01	1.591798e+03
1.630000e-06	8.082129e-06	2.426793e-08	5.702912e+01	1.592534e+03
1.640000e-06	8.083883e-06	2.426752e-08	5.704150e+01	1.593003e+03
1.650000e-06	8.082795e-06	2.425849e-08	5.703382e+01	1.593021e+03
1.660000e-06	8.079034e-06	2.424986e-08	5.700728e+01	1.592519e+03
1.670000e-06	8.072574e-06	2.424562e-08	5.696170e+01	1.591563e+03
1.680000e-06	8.063399e-06	2.424054e-08	5.689696e+01	1.590327e+03
1.690000e-06	8.051444e-06	2.423500e-08	5.681260e+01	1.589044e+03
1.700000e-06	8.036652e-06	2.423174e-08	5.670822e+01	1.587926e+03
1.710000e-06	8.019304e-06	2.422861e-08	5.658582e+01	1.587107e+03
1.720000e-06	7.999664e-06	2.419692e-08	5.644723e+01	1.586597e+03
1.730000e-06	7.977389e-06	2.410318e-08	5.629006e+01	1.586288e+03
1.740000e-06	7.951793e-06	2.410755e-08	5.610944e+01	1.585991e+03
1.750000e-06	7.922505e-06	2.412603e-08	5.590278e+01	1.585498e+03
1.760000e-06	7.889874e-06	2.409538e-08	5.567253e+01	1.584651e+03
1.770000e-06	7.854731e-06	2.410165e-08	5.542455e+01	1.583390e+03
1.780000e-06	7.817249e-06	2.417514e-08	5.516007e+01	1.581774e+03
1.790000e-06	7.777607e-06	2.413903e-08	5.488036e+01	1.579953e+03
1.800000e-06	7.735912e-06	2.409779e-08	5.458615e+01	1.578122e+03
1.810000e-06	7.691518e-06	2.413996e-08	5.427289e+01	1.576447e+03
1.820000e-06	7.644396e-06	2.403509e-08	5.394039e+01	1.575013e+03
1.830000e-06	7.594576e-06	2.406339e-08	5.358885e+01	1.573785e+03
1.840000e-06	7.541689e-06	2.401779e-08	5.321567e+01	1.572619e+03
1.850000e-06	7.485920e-06	2.396281e-08	5.282215e+01	1.571299e+03
1.860000e-06	7.427473e-06	2.394986e-08	5.240974e+01	1.569607e+03
1.870000e-06	7.366408e-06	2.382841e-08	5.197885e+01	1.567390e+03
1.880000e-06	7.302562e-06	2.389161e-08	5.152834e+01	1.564607e+03
1.890000e-06	7.235814e-06	2.385940e-08	5.105735e+01	1.561347e+03
1.900000e-06	7.166241e-06	2.380347e-08	5.056643e+01	1.557802e+03
1.910000e-06	7.093866e-06	2.376510e-08	5.005574e+01	1.554205e+03
1.920000e-06	7.018828e-06	2.368151e-08	4.952626e+01	1.550765e+03
1.930000e-06	6.940963e-06	2.366204e-08	4.897683e+01	1.547593e+03
1.940000e-06	6.860379e-06	2.357610e-08	4.840821e+01	1.544674e+03
1.950000e-06	6.777349e-06	2.359355e-08	4.782233e+01	1.541867e+03
1.960000e-06	6.691771e-06	2.352141e-08	4.721848e+01	1.538952e+03
1.970000e-06	6.603716e-06	2.342040e-08	4.659714e+01	1.535695e+03
1.980000e-06	6.513364e-06	2.337387e-08	4.595960e+01	1.531929e+03
1.990000e-06	6.420788e-06	2.330890e-08	4.530637e+01	1.527599e+03
2.000000e-06	6.325883e-06	2.326510e-08	4.463670e+01	1.522788e+03
2.010000e-06	6.228682e-06	2.317868e-08	4.395083e+01	1.517682e+03
2.020000e-06	6.129308e-06	2.312740e-08	4.324962e+01	1.512516e+03
2.030000e-06	6.027668e-06	2.302833e-08	4.253244e+01	1.507493e+03
2.040000e-06	5.923783e-06	2.295360e-08	4.179940e+01	1.502713e+03
2.050000e-06	5.817873e-06	2.288377e-08	4.105208e+01	1.498141e+03
2.060000e-06	5.710056e-06	2.281551e-08	4.029130e+01	1.493605e+03
2.070000e-06	5.600191e-06	2.273153e-08	3.951607e+01	1.488853e+03
2.080000e-06	5.488218e-06	2.263784e-08	3.872596e+01	1.483627e+03
2.090000e-06	5.374233e-06	2.256137e-08	3.792167e+01	1.477743e+03
2.100000e-06	5.258255e-06	2.246166e-08	3.710330e+01	1.471155e+03
2.110000e-06	5.140172e-06	2.236839e-08	3.627008e+01	1.463968e+03
2.120000e-06	5.020075e-06	2.226225e-08	3.542266e+01	1.456409e+03
2.130000e-06	4.898255e-06	2.215946e-08	3.456307e+01	1.448755e+03
2.140000e-06	4.774751e-06	2.203723e-08	3.369160e+01	1.441238e+03
2.150000e-06	4.649397e-06	2.192511e-08	3.280708e+01	1.433967e+03
2.160000e-06	4.522246e-06	2.181167e-08	3.190988e+01	1.426883e+03
2.170000e-06	4.393501e-06	2.169629e-08	3.100142e+01	1.419764e+03
2.180000e-06	4.263258e-06	2.157404e-08	3.008240e+01	1.412289e+03
2.190000e-06	4.131568e-06	2.144911e-08	2.915317e+01	1.404128e+03
2.200000e-06	3.998303e-06	2.131518e-08	2.821283e+01	1.395045e+03
2.210000e-06	3.863433e-06	2.116785e-08	2.726116e+01	1.384972e+03
2.220000e-06	3.727100e-06	2.101449e-08	2.629916e+01	1.374033e+03
2.230000e-06	3.589405e-06	2.085057e-08	2.532756e+01	1.362504e+03
2.240000e-06	3.450324e-06	2.068475e-08	2.434618e+01	1.350724e+03
2.250000e-06	3.309808e-06	2.051178e-08	2.335467e+01	1.338978e+03
2.260000e-06	3.167921e-06	2.033482e-08	2.235348e+01	1.327396e+03
2.270000e-06	3.024744e-06	2.014916e-08	2.134320e+01	1.315888e+03
2.280000e-06	2.880512e-06	1.995826e-08	2.032547e+01	1.304156e+03
2.290000e-06	2.735324e-06	1.975626e-08	1.930100e+01	1.291763e+03
2.300000e-06	2.589181e-06	1.953940e-08	1.826978e+01	1.278263e+03
2.310000e-06	2.442224e-06	1.931017e-08	1.723283e+01	1.263325e+03
2.320000e-06	2.294474e-06	1.907571e-08	1.619027e+01	1.246844e+03
2.330000e-06	2.145908e-06	1.882972e-08	1.514196e+01	1.228967e+03
2.340000e-06	1.996653e-06	1.856535e-08	1.408879e+01	1.210043e+03
2.350000e-06	1.846711e-06	1.828380e-08	1.303076e+01	1.190502e+03
2.360000e-06	1.695964e-06	1.798540e-08	1.196706e+01	1.170685e+03
2.370000e-06	1.544604e-06	1.767040e-08	1.089904e+01	1.150698e+03
2.380000e-06	1.392855e-06	1.734151e-08	9.828264e+00	1.130314e+03
2.390000e-06	1.240692e-06	1.699475e-08	8.754571e+00	1.108982e+03
2.400000e-06	1.088138e-06	1.662277e-08	7.678122e+00	1.085933e+03
2.410000e-06	9.352208e-07	1.621919e-08	6.599105e+00	1.060371e+03
2.420000e-06	7.819481e-07	1.578300e-08	5.517583e+00	1.031674e+03
2.430000e-06	6.283978e-07	1.531498e-08	4.434101e+00	9.995624e+02
2.440000e-06	4.746764e-07	1.481130e-08	3.349412e+00	9.641442e+02
2.450000e-06	3.208442e-07	1.426722e-08	2.263941e+00	9.258221e+02
2.460000e-06	1.668852e-07	1.367410e-08	1.177576e+00	8.850515e+02
2.470000e-06	1.279643e-08	1.302056e-08	9.029418e-02	8.420060e+02
2.480000e-06	-1.413361e-07	1.229500e-08	-9.972959e-01	7.962343e+02
2.490000e-06	-2.954377e-07	1.148705e-08	-2.084668e+00	7.464131e+02
2.500000e-06	-4.494755e-07	1.058209e-08	-3.171589e+00	6.902880e+02
2.510000e-06	-6.034199e-07	9.559843e-09	-4.257852e+00	6.248620e+02
2.520000e-06	-7.571680e-07	8.389330e-09	-5.342729e+00	5.468306e+02
2.530000e-06	-9.105948e-07	7.027253e-09	-6.425339e+00	4.532024e+02
2.540000e-06	-1.063731e-06	5.417731e-09	-7.505896e+00	3.419892e+02
2.550000e-06	-1.216566e-06	3.488952e-09	-8.584337e+00	2.128191e+02
2.560000e-06	-1.368997e-06	1.219682e-09	-9.659920e+00	6.733010e+01
2.570000e-06	-1.520932e-06	-1.253931e-09	-1.073200e+01	-9.076213e+01
2.580000e-06	-1.672283e-06	-3.774391e-09	-1.179996e+01	-2.559652e+02
2.590000e-06	-1.823013e-06	-6.298860e-09	-1.286355e+01	-4.216430e+02
2.600000e-06	-1.973007e-06	-8.811637e-09	-1.392193e+01	-5.808737e+02
2.610000e-06	-2.122142e-06	-1.118752e-08	-1.497426e+01	-7.273751e+02
2.620000e-06	-2.270453e-06	-1.321732e-08	-1.602077e+01	-8.563223e+02
2.630000e-06	-2.417983e-06	-1.482712e-08	-1.706177e+01	-9.649074e+02
2.640000e-06	-2.564631e-06	-1.608265e-08	-1.809655e+01	-1.052543e+03
2.650000e-06	-2.710321e-06	-1.706877e-08	-1.912457e+01	-1.120689e+03
2.660000e-06	-2.855017e-06	-1.785440e-08	-2.014557e+01	-1.172361e+03
2.670000e-06	-2.998635e-06	-1.849190e-08	-2.115897e+01	-1.211435e+03
2.680000e-06	-3.141117e-06	-1.901894e-08	-2.216435e+01	-1.241908e+03
2.690000e-06	-3.282383e-06	-1.946141e-08	-2.316115e+01	-1.267250e+03
2.700000e-06	-3.422251e-06	-1.983908e-08	-2.414809e+01	-1.289984e+03
2.710000e-06	-3.560710e-06	-2.016823e-08	-2.512508e+01	-1.311525e+03
2.720000e-06	-3.697894e-06	-2.046203e-08	-2.609308e+01	-1.332286e+03
2.730000e-06	-3.833784e-06	-2.072655e-08	-2.705195e+01	-1.351976e+03
2.740000e-06	-3.968304e-06	-2.096627e-08	-2.800115e+01	-1.369990e+03
2.750000e-06	-4.101315e-06	-2.118215e-08	-2.893970e+01	-1.385779e+03
2.760000e-06	-4.232788e-06	-2.137789e-08	-2.986740e+01	-1.399111e+03
2.770000e-06	-4.362865e-06	-2.155769e-08	-3.078525e+01	-1.410173e+03
2.780000e-06	-4.491549e-06	-2.172534e-08	-3.169327e+01	-1.419520e+03
2.790000e-06	-4.618722e-06	-2.188294e-08	-3.259063e+01	-1.427903e+03
2.800000e-06	-4.744244e-06	-2.203015e-08	-3.347634e+01	-1.436045e+03
2.810000e-06	-4.867983e-06	-2.216820e-08	-3.434947e+01	-1.444452e+03
2.820000e-06	-4.990010e-06	-2.229727e-08	-3.521051e+01	-1.453294e+03
2.830000e-06	-5.110309e-06	-2.241565e-08	-3.605937e+01	-1.462406e+03
2.840000e-06	-5.228672e-06	-2.252323e-08	-3.689455e+01	-1.471381e+03
2.850000e-06	-5.344856e-06	-2.262426e-08	-3.771437e+01	-1.479735e+03
2.860000e-06	-5.458839e-06	-2.272205e-08	-3.851866e+01	-1.487073e+03
2.870000e-06	-5.570697e-06	-2.281649e-08	-3.930795e+01	-1.493220e+03
2.880000e-06	-5.680478e-06	-2.290582e-08	-4.008259e+01	-1.498272e+03
2.890000e-06	-5.788317e-06	-2.299044e-08	-4.084353e+01	-1.502558e+03
2.900000e-06	-5.894197e-06	-2.307041e-08	-4.159064e+01	-1.506533e+03
2.910000e-06	-5.997917e-06	-2.314604e-08	-4.232250e+01	-1.510638e+03
2.920000e-06	-6.099268e-06	-2.321762e-08	-4.303765e+01	-1.515171e+03
2.930000e-06	-6.198337e-06	-2.328707e-08	-4.373671e+01	-1.520210e+03
2.940000e-06	-6.295287e-06	-2.335581e-08	-4.442081e+01	-1.525603e+03
