# Temperatura_=_77.67
# Concentracion g/m^3_=_41000.0
# C_Vs_to_Am_M_A/Vsm_=_65563218390.804596
# pendiente_HvsI_1/m_=_3716.3
# ordenada_HvsI_A/m_=_1297.0
# frecuencia_Hz_=_302508.55597450695

Tiempo_(s)	Campo_(V.s)	Magnetizacion_(V.s)	Campo_(kA/m)	Magnetizacion_(A/m)
0.000000e+00	-7.969326e-06	-2.277012e-08	-5.685658e+01	-1.493330e+03
1.000000e-08	-7.965163e-06	-2.276908e-08	-5.682687e+01	-1.492409e+03
2.000000e-08	-7.958470e-06	-2.276387e-08	-5.677912e+01	-1.491092e+03
3.000000e-08	-7.949098e-06	-2.275866e-08	-5.671226e+01	-1.489656e+03
4.000000e-08	-7.936896e-06	-2.274900e-08	-5.662521e+01	-1.488378e+03
5.000000e-08	-7.921766e-06	-2.273240e-08	-5.651726e+01	-1.487453e+03
6.000000e-08	-7.903898e-06	-2.271305e-08	-5.638978e+01	-1.486931e+03
7.000000e-08	-7.883755e-06	-2.269370e-08	-5.624607e+01	-1.486708e+03
8.000000e-08	-7.861123e-06	-2.270845e-08	-5.608461e+01	-1.486560e+03
9.000000e-08	-7.835406e-06	-2.275171e-08	-5.590114e+01	-1.486217e+03
1.000000e-07	-7.806429e-06	-2.271025e-08	-5.569440e+01	-1.485453e+03
1.100000e-07	-7.774501e-06	-2.264513e-08	-5.546661e+01	-1.484160e+03
1.200000e-07	-7.739826e-06	-2.261546e-08	-5.521922e+01	-1.482379e+03
1.300000e-07	-7.702641e-06	-2.258035e-08	-5.495393e+01	-1.480287e+03
1.400000e-07	-7.663329e-06	-2.251207e-08	-5.467346e+01	-1.478140e+03
1.500000e-07	-7.621778e-06	-2.249145e-08	-5.437702e+01	-1.476187e+03
1.600000e-07	-7.577574e-06	-2.256251e-08	-5.406165e+01	-1.474584e+03
1.700000e-07	-7.530636e-06	-2.243597e-08	-5.372677e+01	-1.473341e+03
1.800000e-07	-7.480914e-06	-2.241672e-08	-5.337203e+01	-1.472312e+03
1.900000e-07	-7.428182e-06	-2.244361e-08	-5.299582e+01	-1.471237e+03
2.000000e-07	-7.372577e-06	-2.235095e-08	-5.259912e+01	-1.469817e+03
2.100000e-07	-7.314270e-06	-2.236761e-08	-5.218312e+01	-1.467808e+03
2.200000e-07	-7.253268e-06	-2.231739e-08	-5.174791e+01	-1.465099e+03
2.300000e-07	-7.189678e-06	-2.227009e-08	-5.129423e+01	-1.461744e+03
2.400000e-07	-7.123386e-06	-2.220826e-08	-5.082127e+01	-1.457951e+03
2.500000e-07	-7.054405e-06	-2.214563e-08	-5.032914e+01	-1.454016e+03
2.600000e-07	-6.982749e-06	-2.210668e-08	-4.981791e+01	-1.450231e+03
2.700000e-07	-6.908254e-06	-2.205418e-08	-4.928643e+01	-1.446796e+03
2.800000e-07	-6.830995e-06	-2.201537e-08	-4.873524e+01	-1.443755e+03
2.900000e-07	-6.751007e-06	-2.195247e-08	-4.816457e+01	-1.440979e+03
3.000000e-07	-6.668452e-06	-2.190272e-08	-4.757558e+01	-1.438212e+03
3.100000e-07	-6.583660e-06	-2.183928e-08	-4.697064e+01	-1.435144e+03
3.200000e-07	-6.496637e-06	-2.176562e-08	-4.634979e+01	-1.431517e+03
3.300000e-07	-6.407218e-06	-2.172100e-08	-4.571183e+01	-1.427201e+03
3.400000e-07	-6.315418e-06	-2.164313e-08	-4.505689e+01	-1.422242e+03
3.500000e-07	-6.221383e-06	-2.158261e-08	-4.438600e+01	-1.416844e+03
3.600000e-07	-6.125022e-06	-2.152164e-08	-4.369852e+01	-1.411308e+03
3.700000e-07	-6.026323e-06	-2.144415e-08	-4.299436e+01	-1.405933e+03
3.800000e-07	-5.925574e-06	-2.136776e-08	-4.227557e+01	-1.400920e+03
3.900000e-07	-5.822768e-06	-2.129011e-08	-4.154211e+01	-1.396302e+03
4.000000e-07	-5.717842e-06	-2.121017e-08	-4.079352e+01	-1.391927e+03
4.100000e-07	-5.610862e-06	-2.111865e-08	-4.003028e+01	-1.387502e+03
4.200000e-07	-5.501956e-06	-2.104258e-08	-3.925331e+01	-1.382682e+03
4.300000e-07	-5.391139e-06	-2.094840e-08	-3.846269e+01	-1.377176e+03
4.400000e-07	-5.278272e-06	-2.084611e-08	-3.765745e+01	-1.370842e+03
4.500000e-07	-5.163332e-06	-2.074434e-08	-3.683742e+01	-1.363735e+03
4.600000e-07	-5.046385e-06	-2.064754e-08	-3.600306e+01	-1.356091e+03
4.700000e-07	-4.927608e-06	-2.054848e-08	-3.515566e+01	-1.348257e+03
4.800000e-07	-4.807145e-06	-2.044167e-08	-3.429623e+01	-1.340578e+03
4.900000e-07	-4.684852e-06	-2.033441e-08	-3.342373e+01	-1.333284e+03
5.000000e-07	-4.560770e-06	-2.021604e-08	-3.253848e+01	-1.326408e+03
5.100000e-07	-4.435025e-06	-2.009321e-08	-3.164137e+01	-1.319764e+03
5.200000e-07	-4.307665e-06	-1.996517e-08	-3.073272e+01	-1.312997e+03
5.300000e-07	-4.178828e-06	-1.983632e-08	-2.981355e+01	-1.305685e+03
5.400000e-07	-4.048390e-06	-1.969865e-08	-2.888294e+01	-1.297468e+03
5.500000e-07	-3.916425e-06	-1.955511e-08	-2.794145e+01	-1.288164e+03
5.600000e-07	-3.782986e-06	-1.941151e-08	-2.698944e+01	-1.277826e+03
5.700000e-07	-3.648080e-06	-1.926328e-08	-2.602696e+01	-1.266732e+03
5.800000e-07	-3.511917e-06	-1.911217e-08	-2.505552e+01	-1.255297e+03
5.900000e-07	-3.374452e-06	-1.895547e-08	-2.407478e+01	-1.243934e+03
6.000000e-07	-3.235441e-06	-1.879179e-08	-2.308302e+01	-1.232920e+03
6.100000e-07	-3.094994e-06	-1.861262e-08	-2.208101e+01	-1.222279e+03
6.200000e-07	-2.953349e-06	-1.842330e-08	-2.107046e+01	-1.211765e+03
6.300000e-07	-2.810542e-06	-1.822682e-08	-2.005161e+01	-1.200906e+03
6.400000e-07	-2.666606e-06	-1.802335e-08	-1.902471e+01	-1.189147e+03
6.500000e-07	-2.521640e-06	-1.781344e-08	-1.799045e+01	-1.176007e+03
6.600000e-07	-2.375814e-06	-1.759580e-08	-1.695007e+01	-1.161238e+03
6.700000e-07	-2.229216e-06	-1.736912e-08	-1.590418e+01	-1.144903e+03
6.800000e-07	-2.081888e-06	-1.712802e-08	-1.485308e+01	-1.127362e+03
6.900000e-07	-1.933956e-06	-1.687400e-08	-1.379766e+01	-1.109157e+03
7.000000e-07	-1.785462e-06	-1.660727e-08	-1.273825e+01	-1.090824e+03
7.100000e-07	-1.636417e-06	-1.632891e-08	-1.167490e+01	-1.072685e+03
7.200000e-07	-1.486851e-06	-1.603487e-08	-1.060783e+01	-1.054697e+03
7.300000e-07	-1.336753e-06	-1.572435e-08	-9.536967e+00	-1.036395e+03
7.400000e-07	-1.186210e-06	-1.539263e-08	-8.462927e+00	-1.016972e+03
7.500000e-07	-1.035336e-06	-1.503477e-08	-7.386532e+00	-9.954681e+02
7.600000e-07	-8.841510e-07	-1.465096e-08	-6.307911e+00	-9.710296e+02
7.700000e-07	-7.326123e-07	-1.424082e-08	-5.226769e+00	-9.431470e+02
7.800000e-07	-5.807867e-07	-1.380150e-08	-4.143580e+00	-9.117967e+02
7.900000e-07	-4.287978e-07	-1.332472e-08	-3.059227e+00	-8.774196e+02
8.000000e-07	-2.766502e-07	-1.280526e-08	-1.973741e+00	-8.407157e+02
8.100000e-07	-1.243938e-07	-1.223314e-08	-8.874783e-01	-8.022905e+02
8.200000e-07	2.793360e-08	-1.160219e-08	1.992902e-01	-7.622337e+02
8.300000e-07	1.803303e-07	-1.090234e-08	1.286554e+00	-7.197500e+02
8.400000e-07	3.326455e-07	-1.011701e-08	2.373235e+00	-6.729600e+02
8.500000e-07	4.848371e-07	-9.229608e-09	3.459035e+00	-6.189640e+02
8.600000e-07	6.369051e-07	-8.214636e-09	4.543953e+00	-5.542008e+02
8.700000e-07	7.887906e-07	-7.035889e-09	5.627569e+00	-4.750637e+02
8.800000e-07	9.403932e-07	-5.641475e-09	6.709167e+00	-3.786636e+02
8.900000e-07	1.091697e-06	-3.972622e-09	7.788633e+00	-2.635833e+02
9.000000e-07	1.242713e-06	-1.973253e-09	8.866043e+00	-1.304509e+02
9.100000e-07	1.393342e-06	3.254352e-10	9.940693e+00	1.781298e+01
9.200000e-07	1.543538e-06	2.765482e-09	1.101226e+01	1.761537e+02
9.300000e-07	1.693230e-06	5.227205e-09	1.208023e+01	3.379441e+02
9.400000e-07	1.842325e-06	7.675209e-09	1.314393e+01	4.958563e+02
9.500000e-07	1.990770e-06	9.991632e-09	1.420300e+01	6.428817e+02
9.600000e-07	2.138525e-06	1.197456e-08	1.525715e+01	7.733029e+02
9.700000e-07	2.285490e-06	1.354300e-08	1.630566e+01	8.834304e+02
9.800000e-07	2.431476e-06	1.475558e-08	1.734719e+01	9.719680e+02
9.900000e-07	2.576425e-06	1.569577e-08	1.838132e+01	1.039953e+03
1.000000e-06	2.720452e-06	1.643626e-08	1.940886e+01	1.090303e+03
1.010000e-06	2.863499e-06	1.702934e-08	2.042943e+01	1.127092e+03
1.020000e-06	3.005454e-06	1.751500e-08	2.144219e+01	1.154715e+03
1.030000e-06	3.146271e-06	1.792385e-08	2.244684e+01	1.177117e+03
1.040000e-06	3.285809e-06	1.827609e-08	2.344236e+01	1.197246e+03
1.050000e-06	3.423898e-06	1.858141e-08	2.442755e+01	1.216797e+03
1.060000e-06	3.560564e-06	1.885073e-08	2.540259e+01	1.236272e+03
1.070000e-06	3.695961e-06	1.909340e-08	2.636856e+01	1.255287e+03
1.080000e-06	3.830050e-06	1.931514e-08	2.732521e+01	1.273017e+03
1.090000e-06	3.962840e-06	1.951722e-08	2.827259e+01	1.288643e+03
1.100000e-06	4.094335e-06	1.970381e-08	2.921074e+01	1.301702e+03
1.110000e-06	4.224252e-06	1.987904e-08	3.013761e+01	1.312250e+03
1.120000e-06	4.352581e-06	2.004267e-08	3.105317e+01	1.320831e+03
1.130000e-06	4.479473e-06	2.019518e-08	3.195847e+01	1.328298e+03
1.140000e-06	4.604844e-06	2.033713e-08	3.285292e+01	1.335543e+03
1.150000e-06	4.728690e-06	2.047115e-08	3.373649e+01	1.343245e+03
1.160000e-06	4.850800e-06	2.059879e-08	3.460768e+01	1.351700e+03
1.170000e-06	4.971102e-06	2.071931e-08	3.546597e+01	1.360781e+03
1.180000e-06	5.089699e-06	2.083048e-08	3.631209e+01	1.370025e+03
1.190000e-06	5.206472e-06	2.093636e-08	3.714520e+01	1.378820e+03
1.200000e-06	5.321201e-06	2.103803e-08	3.796372e+01	1.386612e+03
1.210000e-06	5.433790e-06	2.113392e-08	3.876698e+01	1.393088e+03
1.220000e-06	5.544382e-06	2.122402e-08	3.955599e+01	1.398260e+03
1.230000e-06	5.653099e-06	2.131066e-08	4.033162e+01	1.402455e+03
1.240000e-06	5.759820e-06	2.139512e-08	4.109302e+01	1.406199e+03
1.250000e-06	5.864364e-06	2.147519e-08	4.183887e+01	1.410051e+03
1.260000e-06	5.966760e-06	2.155158e-08	4.256941e+01	1.414434e+03
1.270000e-06	6.067059e-06	2.162526e-08	4.328499e+01	1.419519e+03
1.280000e-06	6.165009e-06	2.169669e-08	4.398381e+01	1.425189e+03
1.290000e-06	6.260546e-06	2.176601e-08	4.466541e+01	1.431094e+03
1.300000e-06	6.353903e-06	2.183227e-08	4.533146e+01	1.436775e+03
1.310000e-06	6.445019e-06	2.189623e-08	4.598152e+01	1.441813e+03
1.320000e-06	6.533748e-06	2.195893e-08	4.661455e+01	1.445957e+03
1.330000e-06	6.620114e-06	2.201942e-08	4.723072e+01	1.449195e+03
1.340000e-06	6.704234e-06	2.207726e-08	4.783087e+01	1.451751e+03
1.350000e-06	6.785969e-06	2.213015e-08	4.841400e+01	1.454000e+03
1.360000e-06	6.865227e-06	2.217832e-08	4.897946e+01	1.456347e+03
1.370000e-06	6.942016e-06	2.222415e-08	4.952731e+01	1.459101e+03
1.380000e-06	7.016144e-06	2.226876e-08	5.005617e+01	1.462379e+03
1.390000e-06	7.087600e-06	2.231371e-08	5.056597e+01	1.466079e+03
1.400000e-06	7.156607e-06	2.235967e-08	5.105829e+01	1.469919e+03
1.410000e-06	7.223106e-06	2.240286e-08	5.153272e+01	1.473531e+03
1.420000e-06	7.286954e-06	2.244136e-08	5.198824e+01	1.476583e+03
1.430000e-06	7.348331e-06	2.247378e-08	5.242613e+01	1.478878e+03
1.440000e-06	7.407283e-06	2.250237e-08	5.284672e+01	1.480417e+03
1.450000e-06	7.463633e-06	2.253126e-08	5.324874e+01	1.481395e+03
1.460000e-06	7.517199e-06	2.256017e-08	5.363091e+01	1.482132e+03
1.470000e-06	7.567651e-06	2.258771e-08	5.399085e+01	1.482974e+03
1.480000e-06	7.615043e-06	2.261080e-08	5.432897e+01	1.484187e+03
1.490000e-06	7.659835e-06	2.263370e-08	5.464854e+01	1.485870e+03
1.500000e-06	7.701945e-06	2.265778e-08	5.494896e+01	1.487938e+03
1.510000e-06	7.741192e-06	2.267999e-08	5.522897e+01	1.490144e+03
1.520000e-06	7.777781e-06	2.269806e-08	5.549001e+01	1.492169e+03
1.530000e-06	7.811633e-06	2.271380e-08	5.573153e+01	1.493719e+03
1.540000e-06	7.842611e-06	2.272819e-08	5.595254e+01	1.494619e+03
1.550000e-06	7.870936e-06	2.273950e-08	5.615462e+01	1.494869e+03
1.560000e-06	7.896436e-06	2.274910e-08	5.633654e+01	1.494639e+03
1.570000e-06	7.918943e-06	2.275918e-08	5.649712e+01	1.494213e+03
1.580000e-06	7.938733e-06	2.277084e-08	5.663831e+01	1.493904e+03
1.590000e-06	7.955691e-06	2.278136e-08	5.675930e+01	1.493951e+03
1.600000e-06	7.969652e-06	2.279031e-08	5.685890e+01	1.494447e+03
1.610000e-06	7.980467e-06	2.279706e-08	5.693606e+01	1.495313e+03
1.620000e-06	7.988156e-06	2.280049e-08	5.699092e+01	1.496327e+03
1.630000e-06	7.993095e-06	2.280146e-08	5.702615e+01	1.497191e+03
1.640000e-06	7.995246e-06	2.280076e-08	5.704150e+01	1.497628e+03
1.650000e-06	7.994502e-06	2.279787e-08	5.703619e+01	1.497468e+03
1.660000e-06	7.991144e-06	2.278667e-08	5.701223e+01	1.496699e+03
1.670000e-06	7.985106e-06	2.278045e-08	5.696915e+01	1.495468e+03
1.680000e-06	7.976375e-06	2.277522e-08	5.690687e+01	1.494034e+03
1.690000e-06	7.965016e-06	2.276841e-08	5.682582e+01	1.492685e+03
1.700000e-06	7.950746e-06	2.276261e-08	5.672401e+01	1.491645e+03
1.710000e-06	7.933840e-06	2.275994e-08	5.660340e+01	1.491011e+03
1.720000e-06	7.914756e-06	2.275345e-08	5.646725e+01	1.490721e+03
1.730000e-06	7.893233e-06	2.267291e-08	5.631369e+01	1.490577e+03
1.740000e-06	7.868469e-06	2.260456e-08	5.613702e+01	1.490315e+03
1.750000e-06	7.839960e-06	2.263680e-08	5.593363e+01	1.489688e+03
1.760000e-06	7.808061e-06	2.264171e-08	5.570604e+01	1.488547e+03
1.770000e-06	7.773601e-06	2.261678e-08	5.546019e+01	1.486891e+03
1.780000e-06	7.736925e-06	2.266271e-08	5.519853e+01	1.484862e+03
1.790000e-06	7.698055e-06	2.269820e-08	5.492121e+01	1.482703e+03
1.800000e-06	7.657104e-06	2.255582e-08	5.462905e+01	1.480671e+03
1.810000e-06	7.613620e-06	2.259772e-08	5.431881e+01	1.478959e+03
1.820000e-06	7.567425e-06	2.259049e-08	5.398924e+01	1.477620e+03
1.830000e-06	7.518616e-06	2.250119e-08	5.364102e+01	1.476552e+03
1.840000e-06	7.466855e-06	2.257094e-08	5.327173e+01	1.475520e+03
1.850000e-06	7.412155e-06	2.243235e-08	5.288148e+01	1.474225e+03
1.860000e-06	7.354680e-06	2.244070e-08	5.247143e+01	1.472402e+03
1.870000e-06	7.294676e-06	2.240852e-08	5.204333e+01	1.469893e+03
1.880000e-06	7.232012e-06	2.233509e-08	5.159626e+01	1.466707e+03
1.890000e-06	7.166446e-06	2.237827e-08	5.112848e+01	1.463010e+03
1.900000e-06	7.098236e-06	2.227185e-08	5.064185e+01	1.459082e+03
1.910000e-06	7.027203e-06	2.225599e-08	5.013507e+01	1.455227e+03
1.920000e-06	6.953351e-06	2.217889e-08	4.960818e+01	1.451679e+03
1.930000e-06	6.876815e-06	2.213829e-08	4.906214e+01	1.448530e+03
1.940000e-06	6.797495e-06	2.210340e-08	4.849623e+01	1.445699e+03
1.950000e-06	6.715627e-06	2.200424e-08	4.791215e+01	1.442959e+03
1.960000e-06	6.631367e-06	2.199582e-08	4.731100e+01	1.440006e+03
1.970000e-06	6.544682e-06	2.189673e-08	4.669255e+01	1.436557e+03
1.980000e-06	6.455559e-06	2.185750e-08	4.605671e+01	1.432440e+03
1.990000e-06	6.364204e-06	2.178002e-08	4.540495e+01	1.427649e+03
2.000000e-06	6.270627e-06	2.170461e-08	4.473733e+01	1.422347e+03
2.010000e-06	6.174716e-06	2.164559e-08	4.405306e+01	1.416817e+03
2.020000e-06	6.076617e-06	2.156256e-08	4.335318e+01	1.411368e+03
2.030000e-06	5.976480e-06	2.150014e-08	4.263876e+01	1.406239e+03
2.040000e-06	5.874175e-06	2.141077e-08	4.190887e+01	1.401514e+03
2.050000e-06	5.769678e-06	2.134400e-08	4.116334e+01	1.397093e+03
2.060000e-06	5.663266e-06	2.124358e-08	4.040416e+01	1.392716e+03
2.070000e-06	5.554976e-06	2.116386e-08	3.963157e+01	1.388042e+03
2.080000e-06	5.444693e-06	2.108170e-08	3.884476e+01	1.382753e+03
2.090000e-06	5.332282e-06	2.100214e-08	3.804277e+01	1.376658e+03
2.100000e-06	5.217865e-06	2.090680e-08	3.722648e+01	1.369754e+03
2.110000e-06	5.101542e-06	2.080433e-08	3.639658e+01	1.362230e+03
2.120000e-06	4.983160e-06	2.070089e-08	3.555199e+01	1.354411e+03
2.130000e-06	4.862834e-06	2.058624e-08	3.469354e+01	1.346656e+03
2.140000e-06	4.740747e-06	2.047730e-08	3.382251e+01	1.339238e+03
2.150000e-06	4.617009e-06	2.036569e-08	3.293971e+01	1.332251e+03
2.160000e-06	4.491682e-06	2.026213e-08	3.204558e+01	1.325570e+03
2.170000e-06	4.364628e-06	2.014379e-08	3.113912e+01	1.318879e+03
2.180000e-06	4.235917e-06	2.002462e-08	3.022084e+01	1.311763e+03
2.190000e-06	4.105680e-06	1.989631e-08	2.929167e+01	1.303832e+03
2.200000e-06	3.973948e-06	1.976532e-08	2.835184e+01	1.294842e+03
2.210000e-06	3.840850e-06	1.962551e-08	2.740226e+01	1.284779e+03
2.220000e-06	3.706287e-06	1.948112e-08	2.644223e+01	1.273861e+03
2.230000e-06	3.570183e-06	1.932543e-08	2.547121e+01	1.262477e+03
2.240000e-06	3.432728e-06	1.915946e-08	2.449055e+01	1.251056e+03
2.250000e-06	3.294055e-06	1.899272e-08	2.350119e+01	1.239926e+03
2.260000e-06	3.154172e-06	1.882388e-08	2.250321e+01	1.229191e+03
2.270000e-06	3.013041e-06	1.865406e-08	2.149632e+01	1.218679e+03
2.280000e-06	2.870652e-06	1.847344e-08	2.048046e+01	1.207974e+03
2.290000e-06	2.727022e-06	1.828309e-08	1.945574e+01	1.196526e+03
2.300000e-06	2.582380e-06	1.807531e-08	1.842380e+01	1.183817e+03
2.310000e-06	2.436958e-06	1.785683e-08	1.738630e+01	1.169520e+03
2.320000e-06	2.290751e-06	1.763409e-08	1.634320e+01	1.153606e+03
2.330000e-06	2.143770e-06	1.740369e-08	1.529457e+01	1.136358e+03
2.340000e-06	1.996146e-06	1.716035e-08	1.424136e+01	1.118283e+03
2.350000e-06	1.847938e-06	1.690094e-08	1.318398e+01	1.099939e+03
2.360000e-06	1.699126e-06	1.662538e-08	1.212229e+01	1.081730e+03
2.370000e-06	1.549848e-06	1.633544e-08	1.105728e+01	1.063727e+03
2.380000e-06	1.400060e-06	1.603191e-08	9.988628e+00	1.045584e+03
2.390000e-06	1.249680e-06	1.570996e-08	8.915752e+00	1.026575e+03
2.400000e-06	1.098742e-06	1.536355e-08	7.838894e+00	1.005761e+03
2.410000e-06	9.473594e-07	1.499055e-08	6.758866e+00	9.822308e+02
2.420000e-06	7.956845e-07	1.459093e-08	5.676753e+00	9.553557e+02
2.430000e-06	6.437419e-07	1.416030e-08	4.592729e+00	9.249680e+02
2.440000e-06	4.915830e-07	1.369524e-08	3.507163e+00	8.913887e+02
2.450000e-06	3.392617e-07	1.319095e-08	2.420438e+00	8.552748e+02
2.460000e-06	1.867743e-07	1.264051e-08	1.332528e+00	8.173006e+02
2.470000e-06	3.420577e-08	1.203595e-08	2.440386e-01	7.777455e+02
2.480000e-06	-1.184044e-07	1.136407e-08	-8.447473e-01	7.360970e+02
2.490000e-06	-2.710266e-07	1.060769e-08	-1.933620e+00	6.907915e+02
2.500000e-06	-4.235533e-07	9.752497e-09	-3.021810e+00	6.391972e+02
2.510000e-06	-5.759725e-07	8.781098e-09	-4.109234e+00	5.778888e+02
2.520000e-06	-7.282544e-07	7.663251e-09	-5.195678e+00	5.031984e+02
2.530000e-06	-8.802857e-07	6.354197e-09	-6.280334e+00	4.119512e+02
2.540000e-06	-1.032010e-06	4.794712e-09	-7.362800e+00	3.022401e+02
2.550000e-06	-1.183376e-06	2.919757e-09	-8.442710e+00	1.740671e+02
2.560000e-06	-1.334263e-06	7.042814e-10	-9.519199e+00	2.969546e+01
2.570000e-06	-1.484599e-06	-1.740840e-09	-1.059176e+01	-1.263891e+02
2.580000e-06	-1.634258e-06	-4.256693e-09	-1.165949e+01	-2.879308e+02
2.590000e-06	-1.783200e-06	-6.776250e-09	-1.272211e+01	-4.477008e+02
2.600000e-06	-1.931511e-06	-9.212553e-09	-1.378023e+01	-5.984944e+02
2.610000e-06	-2.079149e-06	-1.136461e-08	-1.483353e+01	-7.341365e+02
2.620000e-06	-2.226087e-06	-1.309995e-08	-1.588185e+01	-8.503029e+02
2.630000e-06	-2.372265e-06	-1.444703e-08	-1.692475e+01	-9.450011e+02
2.640000e-06	-2.517585e-06	-1.548868e-08	-1.796152e+01	-1.018632e+03
2.650000e-06	-2.662018e-06	-1.630363e-08	-1.899197e+01	-1.073641e+03
2.660000e-06	-2.805450e-06	-1.695081e-08	-2.001528e+01	-1.113856e+03
2.670000e-06	-2.947634e-06	-1.747448e-08	-2.102968e+01	-1.143664e+03
2.680000e-06	-3.088474e-06	-1.790855e-08	-2.203449e+01	-1.167207e+03
2.690000e-06	-3.228105e-06	-1.827697e-08	-2.303068e+01	-1.187758e+03
2.700000e-06	-3.366503e-06	-1.859532e-08	-2.401807e+01	-1.207376e+03
2.710000e-06	-3.503638e-06	-1.887629e-08	-2.499645e+01	-1.226882e+03
2.720000e-06	-3.639578e-06	-1.912927e-08	-2.596631e+01	-1.246104e+03
2.730000e-06	-3.774148e-06	-1.935947e-08	-2.692638e+01	-1.264293e+03
2.740000e-06	-3.907255e-06	-1.957026e-08	-2.787603e+01	-1.280589e+03
2.750000e-06	-4.039035e-06	-1.976141e-08	-2.881620e+01	-1.294401e+03
2.760000e-06	-4.169427e-06	-1.993603e-08	-2.974647e+01	-1.305631e+03
2.770000e-06	-4.298392e-06	-2.009865e-08	-3.066656e+01	-1.314698e+03
2.780000e-06	-4.425939e-06	-2.024967e-08	-3.157654e+01	-1.322390e+03
2.790000e-06	-4.551836e-06	-2.039125e-08	-3.247474e+01	-1.329617e+03
2.800000e-06	-4.676116e-06	-2.052605e-08	-3.336141e+01	-1.337140e+03
2.810000e-06	-4.798860e-06	-2.065472e-08	-3.423711e+01	-1.345377e+03
2.820000e-06	-4.919892e-06	-2.077563e-08	-3.510061e+01	-1.354315e+03
2.830000e-06	-5.039059e-06	-2.088899e-08	-3.595080e+01	-1.363574e+03
2.840000e-06	-5.156194e-06	-2.099575e-08	-3.678649e+01	-1.372561e+03
2.850000e-06	-5.271254e-06	-2.109543e-08	-3.760738e+01	-1.380686e+03
2.860000e-06	-5.384189e-06	-2.118956e-08	-3.841310e+01	-1.387553e+03
2.870000e-06	-5.494990e-06	-2.127919e-08	-3.920361e+01	-1.393078e+03
2.880000e-06	-5.603830e-06	-2.136486e-08	-3.998012e+01	-1.397506e+03
2.890000e-06	-5.710799e-06	-2.144735e-08	-4.074328e+01	-1.401321e+03
2.900000e-06	-5.815761e-06	-2.152619e-08	-4.149212e+01	-1.405091e+03
2.910000e-06	-5.918480e-06	-2.160269e-08	-4.222496e+01	-1.409293e+03
2.920000e-06	-6.018919e-06	-2.167632e-08	-4.294154e+01	-1.414179e+03
2.930000e-06	-6.117231e-06	-2.174689e-08	-4.364294e+01	-1.419710e+03
2.940000e-06	-6.213452e-06	-2.181663e-08	-4.432942e+01	-1.425594e+03
