# Temperatura_=_94.35
# Concentracion g/m^3_=_41000.0
# C_Vs_to_Am_M_A/Vsm_=_65563218390.804596
# pendiente_HvsI_1/m_=_3716.3
# ordenada_HvsI_A/m_=_1297.0
# frecuencia_Hz_=_302506.0329936248

Tiempo_(s)	Campo_(V.s)	Magnetizacion_(V.s)	Campo_(kA/m)	Magnetizacion_(A/m)
0.000000e+00	-7.976707e-06	-2.381301e-08	-5.685502e+01	-1.560982e+03
1.000000e-08	-7.972198e-06	-2.380998e-08	-5.682288e+01	-1.560004e+03
2.000000e-08	-7.965166e-06	-2.380250e-08	-5.677275e+01	-1.558680e+03
3.000000e-08	-7.955447e-06	-2.379386e-08	-5.670348e+01	-1.557266e+03
4.000000e-08	-7.942834e-06	-2.378163e-08	-5.661358e+01	-1.556002e+03
5.000000e-08	-7.927291e-06	-2.376359e-08	-5.650280e+01	-1.555041e+03
6.000000e-08	-7.909067e-06	-2.374335e-08	-5.637290e+01	-1.554398e+03
7.000000e-08	-7.888559e-06	-2.372242e-08	-5.622673e+01	-1.553957e+03
8.000000e-08	-7.865524e-06	-2.374950e-08	-5.606254e+01	-1.553504e+03
9.000000e-08	-7.839330e-06	-2.377950e-08	-5.587584e+01	-1.552803e+03
1.000000e-07	-7.809937e-06	-2.372172e-08	-5.566634e+01	-1.551675e+03
1.100000e-07	-7.777668e-06	-2.365921e-08	-5.543634e+01	-1.550055e+03
1.200000e-07	-7.742674e-06	-2.362811e-08	-5.518691e+01	-1.548014e+03
1.300000e-07	-7.705204e-06	-2.358052e-08	-5.491984e+01	-1.545735e+03
1.400000e-07	-7.665574e-06	-2.349840e-08	-5.463737e+01	-1.543455e+03
1.500000e-07	-7.623683e-06	-2.350855e-08	-5.433879e+01	-1.541381e+03
1.600000e-07	-7.579118e-06	-2.355260e-08	-5.402115e+01	-1.539623e+03
1.700000e-07	-7.531875e-06	-2.341478e-08	-5.368442e+01	-1.538148e+03
1.800000e-07	-7.481809e-06	-2.341863e-08	-5.332756e+01	-1.536788e+03
1.900000e-07	-7.428668e-06	-2.341319e-08	-5.294879e+01	-1.535285e+03
2.000000e-07	-7.372753e-06	-2.332072e-08	-5.255025e+01	-1.533369e+03
2.100000e-07	-7.314157e-06	-2.332640e-08	-5.213261e+01	-1.530839e+03
2.200000e-07	-7.252856e-06	-2.326755e-08	-5.169567e+01	-1.527628e+03
2.300000e-07	-7.188946e-06	-2.322007e-08	-5.124014e+01	-1.523823e+03
2.400000e-07	-7.122322e-06	-2.313394e-08	-5.076527e+01	-1.519643e+03
2.500000e-07	-7.052949e-06	-2.308359e-08	-5.027081e+01	-1.515368e+03
2.600000e-07	-6.980808e-06	-2.304907e-08	-4.975661e+01	-1.511257e+03
2.700000e-07	-6.905925e-06	-2.299418e-08	-4.922288e+01	-1.507463e+03
2.800000e-07	-6.828383e-06	-2.294282e-08	-4.867018e+01	-1.503992e+03
2.900000e-07	-6.748021e-06	-2.286831e-08	-4.809740e+01	-1.500693e+03
3.000000e-07	-6.665054e-06	-2.280721e-08	-4.750604e+01	-1.497314e+03
3.100000e-07	-6.579901e-06	-2.271925e-08	-4.689910e+01	-1.493573e+03
3.200000e-07	-6.492499e-06	-2.264874e-08	-4.627613e+01	-1.489254e+03
3.300000e-07	-6.402685e-06	-2.259544e-08	-4.563597e+01	-1.484274e+03
3.400000e-07	-6.310519e-06	-2.251582e-08	-4.497904e+01	-1.478706e+03
3.500000e-07	-6.216156e-06	-2.244508e-08	-4.430646e+01	-1.472765e+03
3.600000e-07	-6.119552e-06	-2.236675e-08	-4.361790e+01	-1.466729e+03
3.700000e-07	-6.020656e-06	-2.227926e-08	-4.291301e+01	-1.460858e+03
3.800000e-07	-5.919633e-06	-2.219222e-08	-4.219295e+01	-1.455301e+03
3.900000e-07	-5.816573e-06	-2.210634e-08	-4.145838e+01	-1.450050e+03
4.000000e-07	-5.711421e-06	-2.201245e-08	-4.070889e+01	-1.444933e+03
4.100000e-07	-5.604182e-06	-2.191484e-08	-3.994453e+01	-1.439667e+03
4.200000e-07	-5.494995e-06	-2.182424e-08	-3.916629e+01	-1.433942e+03
4.300000e-07	-5.383879e-06	-2.171889e-08	-3.837430e+01	-1.427526e+03
4.400000e-07	-5.270765e-06	-2.160578e-08	-3.756806e+01	-1.420333e+03
4.500000e-07	-5.155602e-06	-2.149655e-08	-3.674722e+01	-1.412457e+03
4.600000e-07	-5.038394e-06	-2.138938e-08	-3.591181e+01	-1.404148e+03
4.700000e-07	-4.919266e-06	-2.127682e-08	-3.506271e+01	-1.395727e+03
4.800000e-07	-4.798417e-06	-2.115726e-08	-3.420134e+01	-1.387487e+03
4.900000e-07	-4.675901e-06	-2.103585e-08	-3.332809e+01	-1.379591e+03
5.000000e-07	-4.551583e-06	-2.090634e-08	-3.244200e+01	-1.372010e+03
5.100000e-07	-4.425561e-06	-2.077033e-08	-3.154376e+01	-1.364523e+03
5.200000e-07	-4.297958e-06	-2.063139e-08	-3.063425e+01	-1.356776e+03
5.300000e-07	-4.168883e-06	-2.048845e-08	-2.971426e+01	-1.348383e+03
5.400000e-07	-4.038287e-06	-2.034029e-08	-2.878341e+01	-1.339050e+03
5.500000e-07	-3.906066e-06	-2.018467e-08	-2.784099e+01	-1.328664e+03
5.600000e-07	-3.772337e-06	-2.002575e-08	-2.688782e+01	-1.317335e+03
5.700000e-07	-3.637176e-06	-1.986126e-08	-2.592445e+01	-1.305365e+03
5.800000e-07	-3.500682e-06	-1.969288e-08	-2.495157e+01	-1.293149e+03
5.900000e-07	-3.362840e-06	-1.951956e-08	-2.396908e+01	-1.281048e+03
6.000000e-07	-3.223580e-06	-1.933842e-08	-2.297648e+01	-1.269261e+03
6.100000e-07	-3.082950e-06	-1.914448e-08	-2.197413e+01	-1.257744e+03
6.200000e-07	-2.941078e-06	-1.894023e-08	-2.096292e+01	-1.246202e+03
6.300000e-07	-2.798082e-06	-1.873011e-08	-1.994369e+01	-1.234165e+03
6.400000e-07	-2.653987e-06	-1.851284e-08	-1.891663e+01	-1.221119e+03
6.500000e-07	-2.508890e-06	-1.828834e-08	-1.788244e+01	-1.206661e+03
6.600000e-07	-2.362907e-06	-1.805443e-08	-1.684192e+01	-1.190627e+03
6.700000e-07	-2.216078e-06	-1.781120e-08	-1.579538e+01	-1.173147e+03
6.800000e-07	-2.068546e-06	-1.755335e-08	-1.474383e+01	-1.154604e+03
6.900000e-07	-1.920414e-06	-1.728119e-08	-1.368800e+01	-1.135504e+03
7.000000e-07	-1.771676e-06	-1.699545e-08	-1.262785e+01	-1.116295e+03
7.100000e-07	-1.622370e-06	-1.669696e-08	-1.156365e+01	-1.097184e+03
7.200000e-07	-1.472513e-06	-1.638341e-08	-1.049553e+01	-1.078014e+03
7.300000e-07	-1.322168e-06	-1.604795e-08	-9.423921e+00	-1.058248e+03
7.400000e-07	-1.171364e-06	-1.568948e-08	-8.349052e+00	-1.037072e+03
7.500000e-07	-1.020211e-06	-1.530791e-08	-7.271685e+00	-1.013594e+03
7.600000e-07	-8.687362e-07	-1.490253e-08	-6.192030e+00	-9.870829e+02
7.700000e-07	-7.169282e-07	-1.446994e-08	-5.109999e+00	-9.571706e+02
7.800000e-07	-5.649112e-07	-1.400548e-08	-4.026478e+00	-9.239416e+02
7.900000e-07	-4.126867e-07	-1.349908e-08	-2.941478e+00	-8.878598e+02
8.000000e-07	-2.602574e-07	-1.294157e-08	-1.855018e+00	-8.495302e+02
8.100000e-07	-1.077471e-07	-1.232676e-08	-7.679811e-01	-8.093378e+02
8.200000e-07	4.479649e-08	-1.164989e-08	3.192928e-01	-7.670559e+02
8.300000e-07	1.973216e-07	-1.089920e-08	1.406435e+00	-7.215374e+02
8.400000e-07	3.497841e-07	-1.005750e-08	2.493132e+00	-6.705975e+02
8.500000e-07	5.022039e-07	-9.104891e-09	3.579524e+00	-6.111605e+02
8.600000e-07	6.545380e-07	-8.010052e-09	4.665304e+00	-5.396854e+02
8.700000e-07	8.066868e-07	-6.731666e-09	5.749765e+00	-4.528122e+02
8.800000e-07	9.585369e-07	-5.210347e-09	6.832096e+00	-3.481105e+02
8.900000e-07	1.110084e-06	-3.379919e-09	7.912268e+00	-2.247731e+02
9.000000e-07	1.261305e-06	-1.211651e-09	8.990116e+00	-8.409286e+01
9.100000e-07	1.412140e-06	1.184864e-09	1.006521e+01	7.040103e+01
9.200000e-07	1.562501e-06	3.643746e-09	1.113693e+01	2.332070e+02
9.300000e-07	1.712325e-06	6.104474e-09	1.220482e+01	3.974877e+02
9.400000e-07	1.861597e-06	8.549609e-09	1.326878e+01	5.559714e+02
9.500000e-07	2.010192e-06	1.085732e-08	1.432790e+01	7.019517e+02
9.600000e-07	2.157979e-06	1.281390e-08	1.538128e+01	8.301932e+02
9.700000e-07	2.304898e-06	1.434311e-08	1.642846e+01	9.375724e+02
9.800000e-07	2.450878e-06	1.552065e-08	1.746895e+01	1.023339e+03
9.900000e-07	2.595845e-06	1.643407e-08	1.850222e+01	1.088966e+03
1.000000e-06	2.739842e-06	1.715482e-08	1.952858e+01	1.137637e+03
1.010000e-06	2.882910e-06	1.773548e-08	2.054832e+01	1.173506e+03
1.020000e-06	3.024934e-06	1.821666e-08	2.156061e+01	1.200882e+03
1.030000e-06	3.165748e-06	1.862436e-08	2.256428e+01	1.223518e+03
1.040000e-06	3.305215e-06	1.897572e-08	2.355835e+01	1.244123e+03
1.050000e-06	3.443323e-06	1.928230e-08	2.454273e+01	1.264182e+03
1.060000e-06	3.580105e-06	1.955646e-08	2.551766e+01	1.284058e+03
1.070000e-06	3.715517e-06	1.980582e-08	2.648283e+01	1.303319e+03
1.080000e-06	3.849580e-06	2.003407e-08	2.743838e+01	1.321177e+03
1.090000e-06	3.982367e-06	2.024427e-08	2.838483e+01	1.336910e+03
1.100000e-06	4.113745e-06	2.043948e-08	2.932125e+01	1.350162e+03
1.110000e-06	4.243553e-06	2.062392e-08	3.024648e+01	1.361073e+03
1.120000e-06	4.371851e-06	2.079665e-08	3.116094e+01	1.370225e+03
1.130000e-06	4.498661e-06	2.095898e-08	3.206479e+01	1.378444e+03
1.140000e-06	4.624043e-06	2.111018e-08	3.295846e+01	1.386555e+03
1.150000e-06	4.747893e-06	2.125268e-08	3.384122e+01	1.395143e+03
1.160000e-06	4.869939e-06	2.138918e-08	3.471112e+01	1.404418e+03
1.170000e-06	4.990207e-06	2.151960e-08	3.556835e+01	1.414197e+03
1.180000e-06	5.108689e-06	2.164361e-08	3.641284e+01	1.424009e+03
1.190000e-06	5.225264e-06	2.176279e-08	3.724375e+01	1.433271e+03
1.200000e-06	5.339804e-06	2.187541e-08	3.806015e+01	1.441488e+03
1.210000e-06	5.452296e-06	2.198012e-08	3.886195e+01	1.448411e+03
1.220000e-06	5.562793e-06	2.208051e-08	3.964953e+01	1.454101e+03
1.230000e-06	5.671374e-06	2.217785e-08	4.042345e+01	1.458900e+03
1.240000e-06	5.777935e-06	2.227041e-08	4.118298e+01	1.463313e+03
1.250000e-06	5.882327e-06	2.235622e-08	4.192705e+01	1.467851e+03
1.260000e-06	5.984633e-06	2.243836e-08	4.265625e+01	1.472878e+03
1.270000e-06	6.084738e-06	2.251875e-08	4.336976e+01	1.478511e+03
1.280000e-06	6.182457e-06	2.259782e-08	4.406626e+01	1.484607e+03
1.290000e-06	6.277818e-06	2.267370e-08	4.474596e+01	1.490823e+03
1.300000e-06	6.370981e-06	2.274611e-08	4.540999e+01	1.496737e+03
1.310000e-06	6.461938e-06	2.281578e-08	4.605830e+01	1.501988e+03
1.320000e-06	6.550589e-06	2.288370e-08	4.669017e+01	1.506383e+03
1.330000e-06	6.636876e-06	2.295054e-08	4.730519e+01	1.509957e+03
1.340000e-06	6.720815e-06	2.301515e-08	4.790348e+01	1.512945e+03
1.350000e-06	6.802334e-06	2.307476e-08	4.848452e+01	1.515709e+03
1.360000e-06	6.881311e-06	2.312923e-08	4.904743e+01	1.518612e+03
1.370000e-06	6.957743e-06	2.318114e-08	4.959221e+01	1.521908e+03
1.380000e-06	7.031560e-06	2.323288e-08	5.011836e+01	1.525669e+03
1.390000e-06	7.102822e-06	2.328567e-08	5.062629e+01	1.529764e+03
1.400000e-06	7.171686e-06	2.333816e-08	5.111712e+01	1.533911e+03
1.410000e-06	7.237980e-06	2.338790e-08	5.158965e+01	1.537768e+03
1.420000e-06	7.301553e-06	2.343262e-08	5.204276e+01	1.541045e+03
1.430000e-06	7.362677e-06	2.347170e-08	5.247844e+01	1.543592e+03
1.440000e-06	7.421304e-06	2.350738e-08	5.289631e+01	1.545442e+03
1.450000e-06	7.477314e-06	2.354138e-08	5.329553e+01	1.546798e+03
1.460000e-06	7.530628e-06	2.357489e-08	5.367553e+01	1.547963e+03
1.470000e-06	7.580844e-06	2.360589e-08	5.403345e+01	1.549244e+03
1.480000e-06	7.628005e-06	2.363309e-08	5.436959e+01	1.550856e+03
1.490000e-06	7.672509e-06	2.365950e-08	5.468681e+01	1.552860e+03
1.500000e-06	7.714316e-06	2.368637e-08	5.498479e+01	1.555141e+03
1.510000e-06	7.753270e-06	2.371172e-08	5.526244e+01	1.557459e+03
1.520000e-06	7.789572e-06	2.373297e-08	5.552119e+01	1.559519e+03
1.530000e-06	7.823120e-06	2.375164e-08	5.576030e+01	1.561070e+03
1.540000e-06	7.853805e-06	2.376830e-08	5.597901e+01	1.561986e+03
1.550000e-06	7.881805e-06	2.378157e-08	5.617859e+01	1.562301e+03
1.560000e-06	7.906914e-06	2.379197e-08	5.635755e+01	1.562198e+03
1.570000e-06	7.929102e-06	2.380152e-08	5.651570e+01	1.561952e+03
1.580000e-06	7.948564e-06	2.381256e-08	5.665442e+01	1.561844e+03
1.590000e-06	7.965103e-06	2.382338e-08	5.677231e+01	1.562069e+03
1.600000e-06	7.978627e-06	2.383299e-08	5.686870e+01	1.562685e+03
1.610000e-06	7.989061e-06	2.384090e-08	5.694307e+01	1.563588e+03
1.620000e-06	7.996458e-06	2.384420e-08	5.699579e+01	1.564556e+03
1.630000e-06	8.001093e-06	2.384509e-08	5.702883e+01	1.565313e+03
1.640000e-06	8.002871e-06	2.384567e-08	5.704150e+01	1.565618e+03
1.650000e-06	8.001793e-06	2.384095e-08	5.703382e+01	1.565342e+03
1.660000e-06	7.998179e-06	2.382916e-08	5.700806e+01	1.564501e+03
1.670000e-06	7.991886e-06	2.382154e-08	5.696320e+01	1.563250e+03
1.680000e-06	7.982835e-06	2.381420e-08	5.689869e+01	1.561833e+03
1.690000e-06	7.971088e-06	2.380470e-08	5.681496e+01	1.560504e+03
1.700000e-06	7.956518e-06	2.379685e-08	5.671112e+01	1.559447e+03
1.710000e-06	7.939360e-06	2.379261e-08	5.658882e+01	1.558718e+03
1.720000e-06	7.919948e-06	2.377514e-08	5.645046e+01	1.558237e+03
1.730000e-06	7.898049e-06	2.367504e-08	5.629437e+01	1.557810e+03
1.740000e-06	7.872905e-06	2.362878e-08	5.611515e+01	1.557200e+03
1.750000e-06	7.844025e-06	2.366220e-08	5.590931e+01	1.556206e+03
1.760000e-06	7.811743e-06	2.365252e-08	5.567921e+01	1.554723e+03
1.770000e-06	7.776947e-06	2.363285e-08	5.543120e+01	1.552786e+03
1.780000e-06	7.739964e-06	2.369173e-08	5.516760e+01	1.550551e+03
1.790000e-06	7.700839e-06	2.368100e-08	5.488873e+01	1.548246e+03
1.800000e-06	7.659624e-06	2.355138e-08	5.459497e+01	1.546095e+03
1.810000e-06	7.615852e-06	2.361539e-08	5.428297e+01	1.544241e+03
1.820000e-06	7.569373e-06	2.355988e-08	5.395169e+01	1.542695e+03
1.830000e-06	7.520182e-06	2.352491e-08	5.360107e+01	1.541325e+03
1.840000e-06	7.468039e-06	2.355272e-08	5.322941e+01	1.539890e+03
1.850000e-06	7.413001e-06	2.341591e-08	5.283713e+01	1.538115e+03
1.860000e-06	7.355198e-06	2.343453e-08	5.242513e+01	1.535773e+03
1.870000e-06	7.294818e-06	2.335267e-08	5.199476e+01	1.532752e+03
1.880000e-06	7.231748e-06	2.332722e-08	5.154522e+01	1.529099e+03
1.890000e-06	7.165804e-06	2.333185e-08	5.107520e+01	1.524997e+03
1.900000e-06	7.097127e-06	2.321953e-08	5.058570e+01	1.520719e+03
1.910000e-06	7.025600e-06	2.319876e-08	5.007588e+01	1.516537e+03
1.920000e-06	6.951325e-06	2.309701e-08	4.954647e+01	1.512644e+03
1.930000e-06	6.874381e-06	2.306520e-08	4.899804e+01	1.509088e+03
1.940000e-06	6.794739e-06	2.300314e-08	4.843038e+01	1.505761e+03
1.950000e-06	6.712608e-06	2.293152e-08	4.784499e+01	1.502432e+03
1.960000e-06	6.628031e-06	2.289931e-08	4.724215e+01	1.498820e+03
1.970000e-06	6.540944e-06	2.278724e-08	4.662143e+01	1.494680e+03
1.980000e-06	6.451442e-06	2.273612e-08	4.598349e+01	1.489886e+03
1.990000e-06	6.359727e-06	2.264172e-08	4.532978e+01	1.484469e+03
2.000000e-06	6.265779e-06	2.257736e-08	4.466015e+01	1.478605e+03
2.010000e-06	6.169570e-06	2.250294e-08	4.397441e+01	1.472566e+03
2.020000e-06	6.071203e-06	2.242163e-08	4.327329e+01	1.466625e+03
2.030000e-06	5.970701e-06	2.234125e-08	4.255694e+01	1.460970e+03
2.040000e-06	5.867968e-06	2.224306e-08	4.182470e+01	1.455641e+03
2.050000e-06	5.763170e-06	2.215859e-08	4.107774e+01	1.450510e+03
2.060000e-06	5.656466e-06	2.204941e-08	4.031720e+01	1.445317e+03
2.070000e-06	5.547788e-06	2.196071e-08	3.954258e+01	1.439750e+03
2.080000e-06	5.437138e-06	2.186217e-08	3.875391e+01	1.433546e+03
2.090000e-06	5.324406e-06	2.176884e-08	3.795039e+01	1.426572e+03
2.100000e-06	5.209620e-06	2.165865e-08	3.713224e+01	1.418870e+03
2.110000e-06	5.092920e-06	2.155113e-08	3.630045e+01	1.410652e+03
2.120000e-06	4.974251e-06	2.143560e-08	3.545462e+01	1.402228e+03
2.130000e-06	4.853700e-06	2.131546e-08	3.459537e+01	1.393911e+03
2.140000e-06	4.731374e-06	2.119565e-08	3.372349e+01	1.385909e+03
2.150000e-06	4.607314e-06	2.107319e-08	3.283923e+01	1.378251e+03
2.160000e-06	4.481619e-06	2.095118e-08	3.194332e+01	1.370768e+03
2.170000e-06	4.354240e-06	2.081563e-08	3.103541e+01	1.363134e+03
2.180000e-06	4.225228e-06	2.067997e-08	3.011586e+01	1.354960e+03
2.190000e-06	4.094716e-06	2.053848e-08	2.918562e+01	1.345915e+03
2.200000e-06	3.962702e-06	2.039573e-08	2.824467e+01	1.335827e+03
2.210000e-06	3.829253e-06	2.024205e-08	2.729350e+01	1.324742e+03
2.220000e-06	3.694335e-06	2.008244e-08	2.633185e+01	1.312915e+03
2.230000e-06	3.557924e-06	1.991206e-08	2.535957e+01	1.300727e+03
2.240000e-06	3.420178e-06	1.973719e-08	2.437776e+01	1.288562e+03
2.250000e-06	3.281193e-06	1.955714e-08	2.338713e+01	1.276677e+03
2.260000e-06	3.140987e-06	1.937314e-08	2.238779e+01	1.265101e+03
2.270000e-06	2.999566e-06	1.918379e-08	2.137980e+01	1.253607e+03
2.280000e-06	2.857002e-06	1.898391e-08	2.036365e+01	1.241764e+03
2.290000e-06	2.713246e-06	1.877440e-08	1.933901e+01	1.229053e+03
2.300000e-06	2.568401e-06	1.855109e-08	1.830661e+01	1.215026e+03
2.310000e-06	2.422774e-06	1.832121e-08	1.726864e+01	1.199440e+03
2.320000e-06	2.276374e-06	1.808534e-08	1.622515e+01	1.182342e+03
2.330000e-06	2.129185e-06	1.783683e-08	1.517604e+01	1.164052e+03
2.340000e-06	1.981303e-06	1.757331e-08	1.412199e+01	1.145058e+03
2.350000e-06	1.832805e-06	1.729430e-08	1.306355e+01	1.125844e+03
2.360000e-06	1.683734e-06	1.699875e-08	1.200103e+01	1.106702e+03
2.370000e-06	1.534115e-06	1.668918e-08	1.093460e+01	1.087587e+03
2.380000e-06	1.384038e-06	1.636438e-08	9.864908e+00	1.068064e+03
2.390000e-06	1.233539e-06	1.602197e-08	8.792207e+00	1.047381e+03
2.400000e-06	1.082547e-06	1.565579e-08	7.715998e+00	1.024645e+03
2.410000e-06	9.310779e-07	1.526188e-08	6.636379e+00	9.990552e+02
2.420000e-06	7.792766e-07	1.483712e-08	5.554395e+00	9.701244e+02
2.430000e-06	6.271851e-07	1.437736e-08	4.470343e+00	9.378076e+02
2.440000e-06	4.748748e-07	1.388129e-08	3.384732e+00	9.024779e+02
2.450000e-06	3.224226e-07	1.334463e-08	2.298109e+00	8.647326e+02
2.460000e-06	1.697714e-07	1.275883e-08	1.210067e+00	8.250603e+02
2.470000e-06	1.693525e-08	1.211093e-08	1.207082e-01	7.834464e+02
2.480000e-06	-1.359584e-07	1.139098e-08	-9.690614e-01	7.390291e+02
2.490000e-06	-2.887850e-07	1.058238e-08	-2.058352e+00	6.899172e+02
2.500000e-06	-4.415124e-07	9.667399e-09	-3.146937e+00	6.332580e+02
2.510000e-06	-5.941349e-07	8.623279e-09	-4.234774e+00	5.655854e+02
2.520000e-06	-7.465173e-07	7.413554e-09	-5.320899e+00	4.834129e+02
2.530000e-06	-8.986030e-07	5.989933e-09	-6.404909e+00	3.839682e+02
2.540000e-06	-1.050385e-06	4.283687e-09	-7.486759e+00	2.659195e+02
2.550000e-06	-1.201735e-06	2.229736e-09	-8.565522e+00	1.299291e+02
2.560000e-06	-1.352572e-06	-1.326007e-10	-9.640635e+00	-2.110368e+01
2.570000e-06	-1.502903e-06	-2.633888e-09	-1.071214e+01	-1.821908e+02
2.580000e-06	-1.652689e-06	-5.155325e-09	-1.177976e+01	-3.467933e+02
2.590000e-06	-1.801785e-06	-7.675319e-09	-1.284246e+01	-5.076623e+02
2.600000e-06	-1.950186e-06	-1.010918e-08	-1.390020e+01	-6.578300e+02
2.610000e-06	-2.097967e-06	-1.224242e-08	-1.495353e+01	-7.915607e+02
2.620000e-06	-2.244987e-06	-1.393917e-08	-1.600144e+01	-9.050831e+02
2.630000e-06	-2.391165e-06	-1.524599e-08	-1.704334e+01	-9.969664e+02
2.640000e-06	-2.536522e-06	-1.625454e-08	-1.807939e+01	-1.068086e+03
2.650000e-06	-2.680978e-06	-1.704517e-08	-1.910902e+01	-1.121207e+03
2.660000e-06	-2.824296e-06	-1.767790e-08	-2.013054e+01	-1.160287e+03
2.670000e-06	-2.966348e-06	-1.819496e-08	-2.114303e+01	-1.189673e+03
2.680000e-06	-3.107162e-06	-1.862690e-08	-2.214670e+01	-1.213336e+03
2.690000e-06	-3.246804e-06	-1.899497e-08	-2.314202e+01	-1.234318e+03
2.700000e-06	-3.385294e-06	-1.931371e-08	-2.412912e+01	-1.254453e+03
2.710000e-06	-3.522492e-06	-1.959729e-08	-2.510702e+01	-1.274400e+03
2.720000e-06	-3.658349e-06	-1.985391e-08	-2.607536e+01	-1.293911e+03
2.730000e-06	-3.792826e-06	-2.008845e-08	-2.703386e+01	-1.312255e+03
2.740000e-06	-3.925910e-06	-2.030544e-08	-2.798243e+01	-1.328653e+03
2.750000e-06	-4.057707e-06	-2.050509e-08	-2.892183e+01	-1.342623e+03
2.760000e-06	-4.188130e-06	-2.068890e-08	-2.985144e+01	-1.354162e+03
2.770000e-06	-4.317052e-06	-2.085911e-08	-3.077035e+01	-1.363740e+03
2.780000e-06	-4.444477e-06	-2.101892e-08	-3.167859e+01	-1.372138e+03
2.790000e-06	-4.570291e-06	-2.117076e-08	-3.257534e+01	-1.380207e+03
2.800000e-06	-4.694550e-06	-2.131533e-08	-3.346102e+01	-1.388621e+03
2.810000e-06	-4.817215e-06	-2.145268e-08	-3.433533e+01	-1.397704e+03
2.820000e-06	-4.938054e-06	-2.158292e-08	-3.519662e+01	-1.407379e+03
2.830000e-06	-5.057053e-06	-2.170592e-08	-3.604480e+01	-1.417242e+03
2.840000e-06	-5.174153e-06	-2.182101e-08	-3.687945e+01	-1.426720e+03
2.850000e-06	-5.289171e-06	-2.192953e-08	-3.769925e+01	-1.435275e+03
2.860000e-06	-5.402021e-06	-2.203393e-08	-3.850360e+01	-1.442577e+03
2.870000e-06	-5.512765e-06	-2.213421e-08	-3.929295e+01	-1.448597e+03
2.880000e-06	-5.621547e-06	-2.223068e-08	-4.006831e+01	-1.453604e+03
2.890000e-06	-5.728406e-06	-2.232231e-08	-4.082996e+01	-1.458075e+03
2.900000e-06	-5.833205e-06	-2.240771e-08	-4.157693e+01	-1.462533e+03
2.910000e-06	-5.935801e-06	-2.248856e-08	-4.230820e+01	-1.467397e+03
2.920000e-06	-6.036189e-06	-2.256740e-08	-4.302372e+01	-1.472862e+03
2.930000e-06	-6.134414e-06	-2.264522e-08	-4.372384e+01	-1.478856e+03
2.940000e-06	-6.230455e-06	-2.272151e-08	-4.440837e+01	-1.485081e+03
