# Temperatura_=_54.98
# Concentracion g/m^3_=_41000.0
# C_Vs_to_Am_M_A/Vsm_=_65563218390.804596
# pendiente_HvsI_1/m_=_3716.3
# ordenada_HvsI_A/m_=_1297.0
# frecuencia_Hz_=_302508.78576560074

Tiempo_(s)	Campo_(V.s)	Magnetizacion_(V.s)	Campo_(kA/m)	Magnetizacion_(A/m)
0.000000e+00	-8.025051e-06	-2.589578e-08	-5.685075e+01	-1.696932e+03
1.000000e-08	-8.020408e-06	-2.589154e-08	-5.681786e+01	-1.696547e+03
2.000000e-08	-8.013241e-06	-2.588337e-08	-5.676709e+01	-1.695756e+03
3.000000e-08	-8.003306e-06	-2.587696e-08	-5.669671e+01	-1.694660e+03
4.000000e-08	-7.990425e-06	-2.586573e-08	-5.660546e+01	-1.693420e+03
5.000000e-08	-7.974552e-06	-2.584518e-08	-5.649301e+01	-1.692212e+03
6.000000e-08	-7.956068e-06	-2.582387e-08	-5.636206e+01	-1.691168e+03
7.000000e-08	-7.935379e-06	-2.580700e-08	-5.621550e+01	-1.690343e+03
8.000000e-08	-7.912040e-06	-2.586923e-08	-5.605016e+01	-1.689702e+03
9.000000e-08	-7.885460e-06	-2.587552e-08	-5.586187e+01	-1.689129e+03
1.000000e-07	-7.855668e-06	-2.579342e-08	-5.565081e+01	-1.688477e+03
1.100000e-07	-7.822980e-06	-2.575613e-08	-5.541925e+01	-1.687608e+03
1.200000e-07	-7.787613e-06	-2.573398e-08	-5.516871e+01	-1.686437e+03
1.300000e-07	-7.749759e-06	-2.565981e-08	-5.490054e+01	-1.684959e+03
1.400000e-07	-7.709633e-06	-2.556585e-08	-5.461628e+01	-1.683246e+03
1.500000e-07	-7.667196e-06	-2.566006e-08	-5.431565e+01	-1.681411e+03
1.600000e-07	-7.622138e-06	-2.566989e-08	-5.399645e+01	-1.679576e+03
1.700000e-07	-7.574409e-06	-2.552793e-08	-5.365833e+01	-1.677818e+03
1.800000e-07	-7.523740e-06	-2.558983e-08	-5.329938e+01	-1.676142e+03
1.900000e-07	-7.470000e-06	-2.553096e-08	-5.291868e+01	-1.674476e+03
2.000000e-07	-7.413497e-06	-2.544532e-08	-5.251841e+01	-1.672688e+03
2.100000e-07	-7.354314e-06	-2.545989e-08	-5.209914e+01	-1.670631e+03
2.200000e-07	-7.292499e-06	-2.542548e-08	-5.166124e+01	-1.668187e+03
2.300000e-07	-7.227994e-06	-2.539733e-08	-5.120427e+01	-1.665306e+03
2.400000e-07	-7.160715e-06	-2.527866e-08	-5.072766e+01	-1.662028e+03
2.500000e-07	-7.090791e-06	-2.526475e-08	-5.023230e+01	-1.658469e+03
2.600000e-07	-7.018051e-06	-2.522453e-08	-4.971700e+01	-1.654788e+03
2.700000e-07	-6.942490e-06	-2.516068e-08	-4.918171e+01	-1.651139e+03
2.800000e-07	-6.864159e-06	-2.511574e-08	-4.862681e+01	-1.647619e+03
2.900000e-07	-6.783008e-06	-2.505945e-08	-4.805192e+01	-1.644238e+03
3.000000e-07	-6.699467e-06	-2.501210e-08	-4.746010e+01	-1.640916e+03
3.100000e-07	-6.613685e-06	-2.490364e-08	-4.685241e+01	-1.637503e+03
3.200000e-07	-6.525526e-06	-2.486699e-08	-4.622787e+01	-1.633828e+03
3.300000e-07	-6.434978e-06	-2.481536e-08	-4.558642e+01	-1.629750e+03
3.400000e-07	-6.342142e-06	-2.473774e-08	-4.492875e+01	-1.625206e+03
3.500000e-07	-6.247078e-06	-2.466493e-08	-4.425531e+01	-1.620225e+03
3.600000e-07	-6.149629e-06	-2.460148e-08	-4.356496e+01	-1.614924e+03
3.700000e-07	-6.049881e-06	-2.453212e-08	-4.285833e+01	-1.609465e+03
3.800000e-07	-5.948066e-06	-2.444292e-08	-4.213705e+01	-1.604004e+03
3.900000e-07	-5.844132e-06	-2.436911e-08	-4.140077e+01	-1.598636e+03
4.000000e-07	-5.738054e-06	-2.427304e-08	-4.064930e+01	-1.593361e+03
4.100000e-07	-5.630035e-06	-2.417838e-08	-3.988407e+01	-1.588079e+03
4.200000e-07	-5.520131e-06	-2.408290e-08	-3.910550e+01	-1.582618e+03
4.300000e-07	-5.408134e-06	-2.399614e-08	-3.831209e+01	-1.576786e+03
4.400000e-07	-5.293988e-06	-2.389117e-08	-3.750346e+01	-1.570429e+03
4.500000e-07	-5.177827e-06	-2.378254e-08	-3.668056e+01	-1.563481e+03
4.600000e-07	-5.059755e-06	-2.367381e-08	-3.584412e+01	-1.555986e+03
4.700000e-07	-4.939810e-06	-2.356269e-08	-3.499441e+01	-1.548085e+03
4.800000e-07	-4.818125e-06	-2.344719e-08	-3.413237e+01	-1.539965e+03
4.900000e-07	-4.694697e-06	-2.332677e-08	-3.325799e+01	-1.531804e+03
5.000000e-07	-4.569525e-06	-2.320659e-08	-3.237125e+01	-1.523697e+03
5.100000e-07	-4.442706e-06	-2.307099e-08	-3.147284e+01	-1.515628e+03
5.200000e-07	-4.314226e-06	-2.293283e-08	-3.056267e+01	-1.507456e+03
5.300000e-07	-4.184152e-06	-2.278707e-08	-2.964121e+01	-1.498955e+03
5.400000e-07	-4.052509e-06	-2.264259e-08	-2.870863e+01	-1.489875e+03
5.500000e-07	-3.919448e-06	-2.248624e-08	-2.776600e+01	-1.480020e+03
5.600000e-07	-3.784991e-06	-2.232405e-08	-2.681349e+01	-1.469302e+03
5.700000e-07	-3.649008e-06	-2.215447e-08	-2.585016e+01	-1.457774e+03
5.800000e-07	-3.511559e-06	-2.198115e-08	-2.487645e+01	-1.445608e+03
5.900000e-07	-3.372735e-06	-2.180117e-08	-2.389300e+01	-1.433038e+03
6.000000e-07	-3.232482e-06	-2.160939e-08	-2.289942e+01	-1.420279e+03
6.100000e-07	-3.090787e-06	-2.140900e-08	-2.189563e+01	-1.407443e+03
6.200000e-07	-2.947824e-06	-2.119677e-08	-2.088286e+01	-1.394491e+03
6.300000e-07	-2.803746e-06	-2.097964e-08	-1.986219e+01	-1.381222e+03
6.400000e-07	-2.658626e-06	-2.074991e-08	-1.883413e+01	-1.367320e+03
6.500000e-07	-2.512551e-06	-2.051410e-08	-1.779932e+01	-1.352440e+03
6.600000e-07	-2.365723e-06	-2.026745e-08	-1.675916e+01	-1.336299e+03
6.700000e-07	-2.218189e-06	-2.000488e-08	-1.571401e+01	-1.318767e+03
6.800000e-07	-2.069908e-06	-1.972469e-08	-1.466356e+01	-1.299894e+03
6.900000e-07	-1.920945e-06	-1.943049e-08	-1.360828e+01	-1.279885e+03
7.000000e-07	-1.771404e-06	-1.912483e-08	-1.254891e+01	-1.259022e+03
7.100000e-07	-1.621336e-06	-1.879949e-08	-1.148581e+01	-1.237541e+03
7.200000e-07	-1.470677e-06	-1.845915e-08	-1.041852e+01	-1.215516e+03
7.300000e-07	-1.319383e-06	-1.809884e-08	-9.346721e+00	-1.192783e+03
7.400000e-07	-1.167500e-06	-1.771337e-08	-8.270761e+00	-1.168929e+03
7.500000e-07	-1.015215e-06	-1.730093e-08	-7.191948e+00	-1.143363e+03
7.600000e-07	-8.626506e-07	-1.686306e-08	-6.111156e+00	-1.115445e+03
7.700000e-07	-7.097971e-07	-1.639666e-08	-5.028317e+00	-1.084637e+03
7.800000e-07	-5.567264e-07	-1.589328e-08	-3.943939e+00	-1.050633e+03
7.900000e-07	-4.035339e-07	-1.534959e-08	-2.858699e+00	-1.013401e+03
8.000000e-07	-2.501875e-07	-1.475883e-08	-1.772368e+00	-9.731149e+02
8.100000e-07	-9.664860e-08	-1.411274e-08	-6.846742e-01	-9.299808e+02
8.200000e-07	5.698432e-08	-1.340458e-08	4.036861e-01	-8.839748e+02
8.300000e-07	2.105897e-07	-1.262549e-08	1.491851e+00	-8.345723e+02
8.400000e-07	3.640794e-07	-1.176215e-08	2.579197e+00	-7.805441e+02
8.500000e-07	5.174745e-07	-1.080054e-08	3.665872e+00	-7.198971e+02
8.600000e-07	6.707254e-07	-9.717372e-09	4.751527e+00	-6.500137e+02
8.700000e-07	8.237119e-07	-8.483653e-09	5.835308e+00	-5.679982e+02
8.800000e-07	9.764559e-07	-7.052472e-09	6.917370e+00	-4.711876e+02
8.900000e-07	1.128967e-06	-5.361672e-09	7.997782e+00	-3.577388e+02
9.000000e-07	1.281175e-06	-3.348052e-09	9.076052e+00	-2.271741e+02
9.100000e-07	1.433002e-06	-1.039620e-09	1.015161e+01	-8.076161e+01
9.200000e-07	1.584293e-06	1.402779e-09	1.122339e+01	7.836614e+01
9.300000e-07	1.734900e-06	3.863016e-09	1.229031e+01	2.454063e+02
9.400000e-07	1.884875e-06	6.320539e-09	1.335276e+01	4.143775e+02
9.500000e-07	2.034217e-06	8.775617e-09	1.441072e+01	5.788344e+02
9.600000e-07	2.182765e-06	1.118966e-08	1.546306e+01	7.326795e+02
9.700000e-07	2.330455e-06	1.337900e-08	1.650932e+01	8.709253e+02
9.800000e-07	2.477244e-06	1.517240e-08	1.754920e+01	9.902702e+02
9.900000e-07	2.623068e-06	1.658398e-08	1.858223e+01	1.089387e+03
1.000000e-06	2.767877e-06	1.770131e-08	1.960809e+01	1.168886e+03
1.010000e-06	2.911620e-06	1.859699e-08	2.062638e+01	1.230978e+03
1.020000e-06	3.054282e-06	1.932578e-08	2.163703e+01	1.278922e+03
1.030000e-06	3.195763e-06	1.992885e-08	2.263930e+01	1.316377e+03
1.040000e-06	3.335933e-06	2.043619e-08	2.363229e+01	1.346796e+03
1.050000e-06	3.474779e-06	2.087237e-08	2.461590e+01	1.372962e+03
1.060000e-06	3.612348e-06	2.125150e-08	2.559045e+01	1.396743e+03
1.070000e-06	3.748638e-06	2.158375e-08	2.655595e+01	1.419076e+03
1.080000e-06	3.883482e-06	2.187935e-08	2.751121e+01	1.440147e+03
1.090000e-06	4.016897e-06	2.214571e-08	2.845634e+01	1.459689e+03
1.100000e-06	4.148908e-06	2.238660e-08	2.939153e+01	1.477298e+03
1.110000e-06	4.279369e-06	2.260908e-08	3.031574e+01	1.492709e+03
1.120000e-06	4.408372e-06	2.281595e-08	3.122961e+01	1.505945e+03
1.130000e-06	4.535869e-06	2.300819e-08	3.213282e+01	1.517337e+03
1.140000e-06	4.661764e-06	2.318403e-08	3.302469e+01	1.527439e+03
1.150000e-06	4.786091e-06	2.334820e-08	3.390544e+01	1.536861e+03
1.160000e-06	4.908746e-06	2.350402e-08	3.477434e+01	1.546111e+03
1.170000e-06	5.029680e-06	2.365041e-08	3.563106e+01	1.555465e+03
1.180000e-06	5.148805e-06	2.378653e-08	3.647496e+01	1.564929e+03
1.190000e-06	5.265966e-06	2.391341e-08	3.730495e+01	1.574278e+03
1.200000e-06	5.381117e-06	2.403399e-08	3.812070e+01	1.583163e+03
1.210000e-06	5.494210e-06	2.414624e-08	3.892187e+01	1.591245e+03
1.220000e-06	5.605251e-06	2.425157e-08	3.970850e+01	1.598314e+03
1.230000e-06	5.714311e-06	2.435077e-08	4.048110e+01	1.604356e+03
1.240000e-06	5.821373e-06	2.444411e-08	4.123954e+01	1.609563e+03
1.250000e-06	5.926267e-06	2.453005e-08	4.198263e+01	1.614261e+03
1.260000e-06	6.028929e-06	2.461119e-08	4.270990e+01	1.618818e+03
1.270000e-06	6.129386e-06	2.469033e-08	4.342156e+01	1.623536e+03
1.280000e-06	6.227573e-06	2.476802e-08	4.411713e+01	1.628564e+03
1.290000e-06	6.323437e-06	2.484285e-08	4.479624e+01	1.633872e+03
1.300000e-06	6.416993e-06	2.491399e-08	4.545901e+01	1.639277e+03
1.310000e-06	6.508293e-06	2.498292e-08	4.610579e+01	1.644505e+03
1.320000e-06	6.597227e-06	2.504927e-08	4.673582e+01	1.649294e+03
1.330000e-06	6.683772e-06	2.511223e-08	4.734892e+01	1.653467e+03
1.340000e-06	6.768054e-06	2.517116e-08	4.794598e+01	1.656993e+03
1.350000e-06	6.849967e-06	2.522690e-08	4.852627e+01	1.659984e+03
1.360000e-06	6.929377e-06	2.527980e-08	4.908882e+01	1.662658e+03
1.370000e-06	7.006229e-06	2.532914e-08	4.963325e+01	1.665265e+03
1.380000e-06	7.080387e-06	2.537659e-08	5.015860e+01	1.668009e+03
1.390000e-06	7.151926e-06	2.542261e-08	5.066540e+01	1.670984e+03
1.400000e-06	7.221003e-06	2.546732e-08	5.115475e+01	1.674157e+03
1.410000e-06	7.287493e-06	2.551017e-08	5.162577e+01	1.677377e+03
1.420000e-06	7.351306e-06	2.555050e-08	5.207783e+01	1.680433e+03
1.430000e-06	7.412606e-06	2.558595e-08	5.251210e+01	1.683121e+03
1.440000e-06	7.471371e-06	2.561758e-08	5.292839e+01	1.685314e+03
1.450000e-06	7.527458e-06	2.564647e-08	5.332572e+01	1.686995e+03
1.460000e-06	7.580836e-06	2.567389e-08	5.370386e+01	1.688265e+03
1.470000e-06	7.631140e-06	2.570029e-08	5.406022e+01	1.689308e+03
1.480000e-06	7.678315e-06	2.572390e-08	5.439442e+01	1.690332e+03
1.490000e-06	7.722806e-06	2.574825e-08	5.470960e+01	1.691503e+03
1.500000e-06	7.764585e-06	2.577404e-08	5.500557e+01	1.692894e+03
1.510000e-06	7.803551e-06	2.579738e-08	5.528161e+01	1.694469e+03
1.520000e-06	7.839856e-06	2.581635e-08	5.553880e+01	1.696095e+03
1.530000e-06	7.873369e-06	2.583292e-08	5.577621e+01	1.697587e+03
1.540000e-06	7.904013e-06	2.584621e-08	5.599330e+01	1.698771e+03
1.550000e-06	7.931930e-06	2.585561e-08	5.619107e+01	1.699535e+03
1.560000e-06	7.956978e-06	2.586563e-08	5.636851e+01	1.699872e+03
1.570000e-06	7.979107e-06	2.587585e-08	5.652528e+01	1.699874e+03
1.580000e-06	7.998468e-06	2.588576e-08	5.666243e+01	1.699709e+03
1.590000e-06	8.014935e-06	2.589551e-08	5.677908e+01	1.699563e+03
1.600000e-06	8.028369e-06	2.590453e-08	5.687426e+01	1.699587e+03
1.610000e-06	8.038675e-06	2.591247e-08	5.694726e+01	1.699845e+03
1.620000e-06	8.045921e-06	2.591578e-08	5.699860e+01	1.700300e+03
1.630000e-06	8.050377e-06	2.591647e-08	5.703017e+01	1.700825e+03
1.640000e-06	8.051977e-06	2.591694e-08	5.704150e+01	1.701240e+03
1.650000e-06	8.050705e-06	2.590895e-08	5.703249e+01	1.701373e+03
1.660000e-06	8.046812e-06	2.589929e-08	5.700491e+01	1.701110e+03
1.670000e-06	8.040251e-06	2.589406e-08	5.695843e+01	1.700429e+03
1.680000e-06	8.031004e-06	2.588840e-08	5.689292e+01	1.699405e+03
1.690000e-06	8.018994e-06	2.588276e-08	5.680784e+01	1.698188e+03
1.700000e-06	8.004127e-06	2.588159e-08	5.670253e+01	1.696954e+03
1.710000e-06	7.986700e-06	2.588279e-08	5.657907e+01	1.695853e+03
1.720000e-06	7.967018e-06	2.585413e-08	5.643964e+01	1.694966e+03
1.730000e-06	7.944744e-06	2.573284e-08	5.628184e+01	1.694280e+03
1.740000e-06	7.919101e-06	2.573708e-08	5.610018e+01	1.693703e+03
1.750000e-06	7.889728e-06	2.577229e-08	5.589210e+01	1.693089e+03
1.760000e-06	7.857072e-06	2.573540e-08	5.566076e+01	1.692293e+03
1.770000e-06	7.821994e-06	2.574465e-08	5.541226e+01	1.691212e+03
1.780000e-06	7.784560e-06	2.585382e-08	5.514707e+01	1.689818e+03
1.790000e-06	7.744969e-06	2.578993e-08	5.486661e+01	1.688161e+03
1.800000e-06	7.703382e-06	2.570315e-08	5.457199e+01	1.686348e+03
1.810000e-06	7.659118e-06	2.579599e-08	5.425842e+01	1.684503e+03
1.820000e-06	7.612156e-06	2.565501e-08	5.392574e+01	1.682718e+03
1.830000e-06	7.562509e-06	2.569546e-08	5.357403e+01	1.681023e+03
1.840000e-06	7.509782e-06	2.567537e-08	5.320050e+01	1.679365e+03
1.850000e-06	7.454081e-06	2.560280e-08	5.280591e+01	1.677627e+03
1.860000e-06	7.395661e-06	2.561696e-08	5.239205e+01	1.675662e+03
1.870000e-06	7.334680e-06	2.544508e-08	5.196006e+01	1.673336e+03
1.880000e-06	7.270901e-06	2.551747e-08	5.150823e+01	1.670580e+03
1.890000e-06	7.204298e-06	2.547341e-08	5.103641e+01	1.667406e+03
1.900000e-06	7.135007e-06	2.541057e-08	5.054554e+01	1.663912e+03
1.910000e-06	7.062795e-06	2.541526e-08	5.003398e+01	1.660249e+03
1.920000e-06	6.987849e-06	2.529919e-08	4.950304e+01	1.656578e+03
1.930000e-06	6.910136e-06	2.528321e-08	4.895252e+01	1.653015e+03
1.940000e-06	6.829719e-06	2.517530e-08	4.838282e+01	1.649599e+03
1.950000e-06	6.746913e-06	2.517743e-08	4.779622e+01	1.646273e+03
1.960000e-06	6.661584e-06	2.511069e-08	4.719174e+01	1.642904e+03
1.970000e-06	6.573679e-06	2.501688e-08	4.656900e+01	1.639320e+03
1.980000e-06	6.483485e-06	2.498671e-08	4.593005e+01	1.635368e+03
1.990000e-06	6.391148e-06	2.489477e-08	4.527592e+01	1.630958e+03
2.000000e-06	6.296454e-06	2.484945e-08	4.460509e+01	1.626093e+03
2.010000e-06	6.199461e-06	2.475050e-08	4.391798e+01	1.620868e+03
2.020000e-06	6.100306e-06	2.469719e-08	4.321555e+01	1.615436e+03
2.030000e-06	5.998954e-06	2.459949e-08	4.249755e+01	1.609963e+03
2.040000e-06	5.895357e-06	2.452424e-08	4.176366e+01	1.604563e+03
2.050000e-06	5.789701e-06	2.444905e-08	4.101517e+01	1.599268e+03
2.060000e-06	5.682213e-06	2.436224e-08	4.025371e+01	1.594003e+03
2.070000e-06	5.572760e-06	2.426988e-08	3.947833e+01	1.588613e+03
2.080000e-06	5.461209e-06	2.416411e-08	3.868809e+01	1.582905e+03
2.090000e-06	5.347572e-06	2.408480e-08	3.788306e+01	1.576709e+03
2.100000e-06	5.231911e-06	2.397961e-08	3.706370e+01	1.569930e+03
2.110000e-06	5.114262e-06	2.388608e-08	3.623026e+01	1.562581e+03
2.120000e-06	4.994690e-06	2.376918e-08	3.538319e+01	1.554777e+03
2.130000e-06	4.873261e-06	2.365738e-08	3.452297e+01	1.546700e+03
2.140000e-06	4.750081e-06	2.352768e-08	3.365034e+01	1.538536e+03
2.150000e-06	4.625157e-06	2.340743e-08	3.276535e+01	1.530410e+03
2.160000e-06	4.498535e-06	2.328543e-08	3.186835e+01	1.522340e+03
2.170000e-06	4.370319e-06	2.315962e-08	3.096005e+01	1.514217e+03
2.180000e-06	4.240569e-06	2.302353e-08	3.004088e+01	1.505836e+03
2.190000e-06	4.109293e-06	2.287956e-08	2.911089e+01	1.496945e+03
2.200000e-06	3.976414e-06	2.273286e-08	2.816956e+01	1.487325e+03
2.210000e-06	3.842023e-06	2.257618e-08	2.721751e+01	1.476855e+03
2.220000e-06	3.706122e-06	2.241749e-08	2.625476e+01	1.465545e+03
2.230000e-06	3.568796e-06	2.224599e-08	2.528192e+01	1.453539e+03
2.240000e-06	3.430110e-06	2.206965e-08	2.429945e+01	1.441060e+03
2.250000e-06	3.290071e-06	2.188005e-08	2.330739e+01	1.428337e+03
2.260000e-06	3.148794e-06	2.168560e-08	2.230656e+01	1.415520e+03
2.270000e-06	3.006294e-06	2.148459e-08	2.129707e+01	1.402615e+03
2.280000e-06	2.862646e-06	2.128093e-08	2.027945e+01	1.389465e+03
2.290000e-06	2.717966e-06	2.106428e-08	1.925451e+01	1.375780e+03
2.300000e-06	2.572370e-06	2.083163e-08	1.822309e+01	1.361212e+03
2.310000e-06	2.425962e-06	2.058644e-08	1.718590e+01	1.345452e+03
2.320000e-06	2.278670e-06	2.033155e-08	1.614247e+01	1.328321e+03
2.330000e-06	2.130464e-06	2.006482e-08	1.509255e+01	1.309815e+03
2.340000e-06	1.981520e-06	1.978309e-08	1.403741e+01	1.290103e+03
2.350000e-06	1.831994e-06	1.948643e-08	1.297814e+01	1.269456e+03
2.360000e-06	1.681944e-06	1.917139e-08	1.191516e+01	1.248135e+03
2.370000e-06	1.531383e-06	1.883387e-08	1.084856e+01	1.226270e+03
2.380000e-06	1.380380e-06	1.847760e-08	9.778835e+00	1.203771e+03
2.390000e-06	1.228904e-06	1.810524e-08	8.705751e+00	1.180292e+03
2.400000e-06	1.076930e-06	1.771067e-08	7.629146e+00	1.155281e+03
2.410000e-06	9.245280e-07	1.728502e-08	6.549505e+00	1.128097e+03
2.420000e-06	7.717814e-07	1.682679e-08	5.467424e+00	1.098158e+03
2.430000e-06	6.187513e-07	1.633342e-08	4.383333e+00	1.065082e+03
2.440000e-06	4.654966e-07	1.579929e-08	3.297653e+00	1.028761e+03
2.450000e-06	3.121058e-07	1.522347e-08	2.211008e+00	9.893233e+02
2.460000e-06	1.585972e-07	1.459821e-08	1.123528e+00	9.469901e+02
2.470000e-06	5.005982e-09	1.391606e-08	3.546318e-02	9.018313e+02
2.480000e-06	-1.486175e-07	1.316741e-08	-1.052830e+00	8.534911e+02
2.490000e-06	-3.021766e-07	1.233794e-08	-2.140668e+00	8.009552e+02
2.500000e-06	-4.557114e-07	1.141382e-08	-3.228333e+00	7.424438e+02
2.510000e-06	-6.091572e-07	1.037575e-08	-4.315368e+00	6.754910e+02
2.520000e-06	-7.623827e-07	9.196447e-09	-5.400842e+00	5.972344e+02
2.530000e-06	-9.153513e-07	7.837065e-09	-6.484496e+00	5.048858e+02
2.540000e-06	-1.067967e-06	6.246499e-09	-7.565651e+00	3.963081e+02
2.550000e-06	-1.220188e-06	4.355460e-09	-8.644009e+00	2.705852e+02
2.560000e-06	-1.371897e-06	2.123211e-09	-9.718742e+00	1.284616e+02
2.570000e-06	-1.523076e-06	-3.340412e-10	-1.078971e+01	-2.745721e+01
2.580000e-06	-1.673716e-06	-2.852036e-09	-1.185687e+01	-1.928075e+02
2.590000e-06	-1.823761e-06	-5.376044e-09	-1.291981e+01	-3.618794e+02
2.600000e-06	-1.973168e-06	-7.900206e-09	-1.397824e+01	-5.282789e+02
2.610000e-06	-2.121821e-06	-1.040805e-08	-1.503132e+01	-6.857264e+02
2.620000e-06	-2.269640e-06	-1.274833e-08	-1.607849e+01	-8.288480e+02
2.630000e-06	-2.416502e-06	-1.471618e-08	-1.711889e+01	-9.538172e+02
2.640000e-06	-2.562502e-06	-1.627471e-08	-1.815318e+01	-1.058732e+03
2.650000e-06	-2.707655e-06	-1.750227e-08	-1.918146e+01	-1.143672e+03
2.660000e-06	-2.851755e-06	-1.847827e-08	-2.020229e+01	-1.210439e+03
2.670000e-06	-2.994770e-06	-1.926544e-08	-2.121543e+01	-1.262057e+03
2.680000e-06	-3.136625e-06	-1.991357e-08	-2.222036e+01	-1.302137e+03
2.690000e-06	-3.277161e-06	-2.045407e-08	-2.321594e+01	-1.334247e+03
2.700000e-06	-3.416321e-06	-2.090999e-08	-2.420177e+01	-1.361395e+03
2.710000e-06	-3.554195e-06	-2.130397e-08	-2.517849e+01	-1.385723e+03
2.720000e-06	-3.690781e-06	-2.165039e-08	-2.614609e+01	-1.408423e+03
2.730000e-06	-3.825977e-06	-2.195734e-08	-2.710384e+01	-1.429869e+03
2.740000e-06	-3.959833e-06	-2.223294e-08	-2.805209e+01	-1.449889e+03
2.750000e-06	-4.092297e-06	-2.248306e-08	-2.899049e+01	-1.468087e+03
2.760000e-06	-4.223284e-06	-2.271235e-08	-2.991842e+01	-1.484138e+03
2.770000e-06	-4.352896e-06	-2.292394e-08	-3.083661e+01	-1.497974e+03
2.780000e-06	-4.481003e-06	-2.311804e-08	-3.174415e+01	-1.509844e+03
2.790000e-06	-4.607507e-06	-2.329545e-08	-3.264032e+01	-1.520251e+03
2.800000e-06	-4.732445e-06	-2.346006e-08	-3.352540e+01	-1.529809e+03
2.810000e-06	-4.855659e-06	-2.361438e-08	-3.439827e+01	-1.539068e+03
2.820000e-06	-4.977133e-06	-2.376005e-08	-3.525881e+01	-1.548381e+03
2.830000e-06	-5.096804e-06	-2.389674e-08	-3.610658e+01	-1.557828e+03
2.840000e-06	-5.214517e-06	-2.402312e-08	-3.694048e+01	-1.567242e+03
2.850000e-06	-5.330145e-06	-2.414096e-08	-3.775960e+01	-1.576298e+03
2.860000e-06	-5.443584e-06	-2.425204e-08	-3.856323e+01	-1.584638e+03
2.870000e-06	-5.554873e-06	-2.435748e-08	-3.935161e+01	-1.592006e+03
2.880000e-06	-5.664117e-06	-2.445651e-08	-4.012552e+01	-1.598331e+03
2.890000e-06	-5.771394e-06	-2.454831e-08	-4.088549e+01	-1.603748e+03
2.900000e-06	-5.876671e-06	-2.463287e-08	-4.163128e+01	-1.608553e+03
2.910000e-06	-5.979753e-06	-2.471302e-08	-4.236153e+01	-1.613115e+03
2.920000e-06	-6.080527e-06	-2.479171e-08	-4.307543e+01	-1.617764e+03
2.930000e-06	-6.179125e-06	-2.486932e-08	-4.377392e+01	-1.622699e+03
2.940000e-06	-6.275594e-06	-2.494405e-08	-4.445732e+01	-1.627941e+03
