# Temperatura_=_62.09905982905983
# Concentracion g/m^3_=_28200.0
# C_Vs_to_Am_M_A/Vsm_=_65563218390.804596
# pendiente_HvsI_1/m_=_3716.3
# ordenada_HvsI_A/m_=_1297.0
# frecuencia_Hz_=_302149.5791027186
# Promedio de 117 ciclos

Tiempo_(s)	Campo_(V.s)	Magnetizacion_(V.s)	Campo_(kA/m)	Magnetizacion_(A/m)
0.000000e+00	-6.406674e-09	-2.181286e-08	-4.579124e+01	-1.428330e+03
1.000000e-08	-6.403417e-09	-2.181025e-08	-4.576797e+01	-1.427874e+03
2.000000e-08	-6.398075e-09	-2.179820e-08	-4.572978e+01	-1.427265e+03
3.000000e-08	-6.390820e-09	-2.178798e-08	-4.567793e+01	-1.426518e+03
4.000000e-08	-6.381443e-09	-2.177556e-08	-4.561091e+01	-1.425649e+03
5.000000e-08	-6.369673e-09	-2.175690e-08	-4.552679e+01	-1.424667e+03
6.000000e-08	-6.355539e-09	-2.173418e-08	-4.542577e+01	-1.423570e+03
7.000000e-08	-6.339085e-09	-2.170018e-08	-4.530816e+01	-1.422354e+03
8.000000e-08	-6.320564e-09	-2.168305e-08	-4.517578e+01	-1.421005e+03
9.000000e-08	-6.299967e-09	-2.175568e-08	-4.502857e+01	-1.419510e+03
1.000000e-07	-6.276928e-09	-2.171377e-08	-4.486390e+01	-1.417862e+03
1.100000e-07	-6.251209e-09	-2.161865e-08	-4.468008e+01	-1.416059e+03
1.200000e-07	-6.223121e-09	-2.160737e-08	-4.447932e+01	-1.414107e+03
1.300000e-07	-6.193171e-09	-2.155789e-08	-4.426526e+01	-1.412019e+03
1.400000e-07	-6.161685e-09	-2.139640e-08	-4.404021e+01	-1.409811e+03
1.500000e-07	-6.128447e-09	-2.150373e-08	-4.380265e+01	-1.407493e+03
1.600000e-07	-6.093119e-09	-2.153956e-08	-4.355014e+01	-1.405066e+03
1.700000e-07	-6.055939e-09	-2.131096e-08	-4.328440e+01	-1.402520e+03
1.800000e-07	-6.016744e-09	-2.144351e-08	-4.300426e+01	-1.399832e+03
1.900000e-07	-5.975067e-09	-2.133598e-08	-4.270638e+01	-1.396972e+03
2.000000e-07	-5.931183e-09	-2.119341e-08	-4.239272e+01	-1.393905e+03
2.100000e-07	-5.885267e-09	-2.127138e-08	-4.206454e+01	-1.390602e+03
2.200000e-07	-5.837046e-09	-2.113868e-08	-4.171989e+01	-1.387043e+03
2.300000e-07	-5.786335e-09	-2.109356e-08	-4.135743e+01	-1.383222e+03
2.400000e-07	-5.733072e-09	-2.103944e-08	-4.097674e+01	-1.379148e+03
2.500000e-07	-5.677669e-09	-2.093930e-08	-4.058075e+01	-1.374838e+03
2.600000e-07	-5.620105e-09	-2.091347e-08	-4.016932e+01	-1.370315e+03
2.700000e-07	-5.560344e-09	-2.081578e-08	-3.974218e+01	-1.365597e+03
2.800000e-07	-5.498676e-09	-2.075444e-08	-3.930141e+01	-1.360693e+03
2.900000e-07	-5.435071e-09	-2.066119e-08	-3.884680e+01	-1.355600e+03
3.000000e-07	-5.369351e-09	-2.058096e-08	-3.837708e+01	-1.350303e+03
3.100000e-07	-5.301517e-09	-2.050719e-08	-3.789224e+01	-1.344778e+03
3.200000e-07	-5.231703e-09	-2.040791e-08	-3.739325e+01	-1.339000e+03
3.300000e-07	-5.160099e-09	-2.034662e-08	-3.688147e+01	-1.332946e+03
3.400000e-07	-5.086639e-09	-2.020796e-08	-3.635642e+01	-1.326601e+03
3.500000e-07	-5.011058e-09	-2.011602e-08	-3.581621e+01	-1.319961e+03
3.600000e-07	-4.933349e-09	-2.001768e-08	-3.526079e+01	-1.313030e+03
3.700000e-07	-4.853572e-09	-1.989503e-08	-3.469059e+01	-1.305816e+03
3.800000e-07	-4.771966e-09	-1.980497e-08	-3.410732e+01	-1.298326e+03
3.900000e-07	-4.688826e-09	-1.967441e-08	-3.351308e+01	-1.290562e+03
4.000000e-07	-4.604274e-09	-1.954276e-08	-3.290875e+01	-1.282514e+03
4.100000e-07	-4.518274e-09	-1.940659e-08	-3.229407e+01	-1.274163e+03
4.200000e-07	-4.430866e-09	-1.928517e-08	-3.166933e+01	-1.265483e+03
4.300000e-07	-4.341991e-09	-1.915070e-08	-3.103411e+01	-1.256447e+03
4.400000e-07	-4.251456e-09	-1.899830e-08	-3.038702e+01	-1.247029e+03
4.500000e-07	-4.159295e-09	-1.885908e-08	-2.972830e+01	-1.237211e+03
4.600000e-07	-4.065646e-09	-1.869454e-08	-2.905895e+01	-1.226985e+03
4.700000e-07	-3.970671e-09	-1.853195e-08	-2.838012e+01	-1.216345e+03
4.800000e-07	-3.874346e-09	-1.836449e-08	-2.769165e+01	-1.205293e+03
4.900000e-07	-3.776525e-09	-1.819627e-08	-2.699249e+01	-1.193823e+03
5.000000e-07	-3.677215e-09	-1.801177e-08	-2.628267e+01	-1.181921e+03
5.100000e-07	-3.576544e-09	-1.781526e-08	-2.556314e+01	-1.169563e+03
5.200000e-07	-3.474645e-09	-1.761876e-08	-2.483482e+01	-1.156711e+03
5.300000e-07	-3.371565e-09	-1.740923e-08	-2.409806e+01	-1.143321e+03
5.400000e-07	-3.267253e-09	-1.719685e-08	-2.335250e+01	-1.129342e+03
5.500000e-07	-3.161654e-09	-1.697249e-08	-2.259774e+01	-1.114729e+03
5.600000e-07	-3.054760e-09	-1.674322e-08	-2.183372e+01	-1.099444e+03
5.700000e-07	-2.946649e-09	-1.649673e-08	-2.106101e+01	-1.083454e+03
5.800000e-07	-2.837488e-09	-1.623834e-08	-2.028079e+01	-1.066735e+03
5.900000e-07	-2.727385e-09	-1.597036e-08	-1.949384e+01	-1.049261e+03
6.000000e-07	-2.616392e-09	-1.569008e-08	-1.870052e+01	-1.030999e+03
6.100000e-07	-2.504416e-09	-1.539745e-08	-1.790018e+01	-1.011906e+03
6.200000e-07	-2.391388e-09	-1.509125e-08	-1.709232e+01	-9.919176e+02
6.300000e-07	-2.277324e-09	-1.477150e-08	-1.627707e+01	-9.709561e+02
6.400000e-07	-2.162242e-09	-1.443188e-08	-1.545452e+01	-9.489288e+02
6.500000e-07	-2.046226e-09	-1.407689e-08	-1.462531e+01	-9.257358e+02
6.600000e-07	-1.929435e-09	-1.370140e-08	-1.379055e+01	-9.012760e+02
6.700000e-07	-1.811998e-09	-1.330596e-08	-1.295118e+01	-8.754511e+02
6.800000e-07	-1.693991e-09	-1.288874e-08	-1.210774e+01	-8.481668e+02
6.900000e-07	-1.575467e-09	-1.244708e-08	-1.126059e+01	-8.193300e+02
7.000000e-07	-1.456444e-09	-1.198121e-08	-1.040988e+01	-7.888441e+02
7.100000e-07	-1.336929e-09	-1.148639e-08	-9.555661e+00	-7.566057e+02
7.200000e-07	-1.216937e-09	-1.096488e-08	-8.698028e+00	-7.225043e+02
7.300000e-07	-1.096501e-09	-1.041434e-08	-7.837223e+00	-6.864294e+02
7.400000e-07	-9.756683e-10	-9.832881e-09	-6.973579e+00	-6.482857e+02
7.500000e-07	-8.544988e-10	-9.220118e-09	-6.107531e+00	-6.080139e+02
7.600000e-07	-7.330473e-10	-8.575790e-09	-5.239467e+00	-5.656155e+02
7.700000e-07	-6.113491e-10	-7.895181e-09	-4.369641e+00	-5.211731e+02
7.800000e-07	-4.894522e-10	-7.185654e-09	-3.498395e+00	-4.748629e+02
7.900000e-07	-3.674035e-10	-6.455518e-09	-2.626063e+00	-4.269508e+02
8.000000e-07	-2.452107e-10	-5.706769e-09	-1.752701e+00	-3.777719e+02
8.100000e-07	-1.228838e-10	-4.945167e-09	-8.783808e-01	-3.276933e+02
8.200000e-07	-4.721502e-13	-4.176038e-09	-3.454511e-03	-2.770651e+02
8.300000e-07	1.219700e-10	-3.404011e-09	8.716901e-01	-2.261687e+02
8.400000e-07	2.443957e-10	-2.627673e-09	1.746717e+00	-1.751730e+02
8.500000e-07	3.667462e-10	-1.850218e-09	2.621206e+00	-1.241080e+02
8.600000e-07	4.889765e-10	-1.068836e-09	3.494836e+00	-7.286302e+01
8.700000e-07	6.110601e-10	-2.816854e-10	4.367417e+00	-2.121273e+01
8.800000e-07	7.329676e-10	5.155274e-10	5.238740e+00	3.113194e+01
8.900000e-07	8.546560e-10	1.327501e-09	6.108496e+00	8.445671e+01
9.000000e-07	9.760756e-10	2.155693e-09	6.976331e+00	1.389721e+02
9.100000e-07	1.097169e-09	3.003647e-09	7.841838e+00	1.947502e+02
9.200000e-07	1.217843e-09	3.869703e-09	8.704342e+00	2.516824e+02
9.300000e-07	1.338011e-09	4.749916e-09	9.563235e+00	3.094660e+02
9.400000e-07	1.457636e-09	5.635643e-09	1.041824e+01	3.676224e+02
9.500000e-07	1.576707e-09	6.517091e-09	1.126930e+01	4.255437e+02
9.600000e-07	1.695222e-09	7.384581e-09	1.211637e+01	4.825587e+02
9.700000e-07	1.813150e-09	8.227040e-09	1.295926e+01	5.380071e+02
9.800000e-07	1.930434e-09	9.036109e-09	1.379754e+01	5.913075e+02
9.900000e-07	2.046976e-09	9.804765e-09	1.463051e+01	6.420107e+02
1.000000e-06	2.162651e-09	1.052775e-08	1.545729e+01	6.898287e+02
1.010000e-06	2.277340e-09	1.120519e-08	1.627702e+01	7.346381e+02
1.020000e-06	2.391028e-09	1.183968e-08	1.708959e+01	7.764621e+02
1.030000e-06	2.503722e-09	1.243262e-08	1.789506e+01	8.154348e+02
1.040000e-06	2.615371e-09	1.298588e-08	1.869307e+01	8.517596e+02
1.050000e-06	2.726051e-09	1.349970e-08	1.948414e+01	8.856679e+02
1.060000e-06	2.835855e-09	1.398028e-08	2.026896e+01	9.173870e+02
1.070000e-06	2.944787e-09	1.442992e-08	2.104755e+01	9.471196e+02
1.080000e-06	3.052805e-09	1.485455e-08	2.181960e+01	9.750354e+02
1.090000e-06	3.159720e-09	1.525451e-08	2.258377e+01	1.001274e+03
1.100000e-06	3.265402e-09	1.563148e-08	2.333912e+01	1.025954e+03
1.110000e-06	3.369795e-09	1.598575e-08	2.408526e+01	1.049180e+03
1.120000e-06	3.472914e-09	1.631946e-08	2.482230e+01	1.071054e+03
1.130000e-06	3.574842e-09	1.663354e-08	2.555082e+01	1.091678e+03
1.140000e-06	3.675630e-09	1.692868e-08	2.627120e+01	1.111151e+03
1.150000e-06	3.775200e-09	1.720821e-08	2.698286e+01	1.129567e+03
1.160000e-06	3.873349e-09	1.747223e-08	2.768438e+01	1.147012e+03
1.170000e-06	3.969959e-09	1.772273e-08	2.837489e+01	1.163556e+03
1.180000e-06	4.065090e-09	1.796017e-08	2.905483e+01	1.179258e+03
1.190000e-06	4.158853e-09	1.818613e-08	2.972500e+01	1.194163e+03
1.200000e-06	4.251323e-09	1.840044e-08	3.038592e+01	1.208310e+03
1.210000e-06	4.342400e-09	1.860468e-08	3.103688e+01	1.221735e+03
1.220000e-06	4.431808e-09	1.879732e-08	3.167592e+01	1.234478e+03
1.230000e-06	4.519474e-09	1.898059e-08	3.230251e+01	1.246578e+03
1.240000e-06	4.605516e-09	1.915466e-08	3.291749e+01	1.258079e+03
1.250000e-06	4.690059e-09	1.932134e-08	3.352175e+01	1.269022e+03
1.260000e-06	4.773070e-09	1.948026e-08	3.411507e+01	1.279443e+03
1.270000e-06	4.854315e-09	1.963245e-08	3.469576e+01	1.289369e+03
1.280000e-06	4.933674e-09	1.977787e-08	3.526297e+01	1.298815e+03
1.290000e-06	5.011212e-09	1.991685e-08	3.581718e+01	1.307789e+03
1.300000e-06	5.086865e-09	2.004737e-08	3.635790e+01	1.316294e+03
1.310000e-06	5.160444e-09	2.016938e-08	3.688379e+01	1.324334e+03
1.320000e-06	5.232018e-09	2.028442e-08	3.739537e+01	1.331915e+03
1.330000e-06	5.301744e-09	2.039353e-08	3.789373e+01	1.339057e+03
1.340000e-06	5.369674e-09	2.049598e-08	3.837926e+01	1.345787e+03
1.350000e-06	5.435631e-09	2.059178e-08	3.885067e+01	1.352140e+03
1.360000e-06	5.499502e-09	2.068317e-08	3.930719e+01	1.358155e+03
1.370000e-06	5.561477e-09	2.077043e-08	3.975016e+01	1.363870e+03
1.380000e-06	5.621684e-09	2.085426e-08	4.018048e+01	1.369315e+03
1.390000e-06	5.679926e-09	2.093437e-08	4.059676e+01	1.374511e+03
1.400000e-06	5.736029e-09	2.101184e-08	4.099775e+01	1.379468e+03
1.410000e-06	5.790073e-09	2.108465e-08	4.138403e+01	1.384190e+03
1.420000e-06	5.841868e-09	2.115205e-08	4.175423e+01	1.388672e+03
1.430000e-06	5.891164e-09	2.121510e-08	4.210657e+01	1.392910e+03
1.440000e-06	5.938172e-09	2.127404e-08	4.244255e+01	1.396902e+03
1.450000e-06	5.983236e-09	2.132945e-08	4.276465e+01	1.400650e+03
1.460000e-06	6.026320e-09	2.138285e-08	4.307259e+01	1.404158e+03
1.470000e-06	6.067131e-09	2.143484e-08	4.336428e+01	1.407433e+03
1.480000e-06	6.105704e-09	2.148353e-08	4.363999e+01	1.410480e+03
1.490000e-06	6.142326e-09	2.152717e-08	4.390174e+01	1.413302e+03
1.500000e-06	6.176810e-09	2.156564e-08	4.414821e+01	1.415899e+03
1.510000e-06	6.208963e-09	2.159937e-08	4.437802e+01	1.418267e+03
1.520000e-06	6.238947e-09	2.162923e-08	4.459233e+01	1.420404e+03
1.530000e-06	6.266925e-09	2.165632e-08	4.479230e+01	1.422309e+03
1.540000e-06	6.292576e-09	2.168027e-08	4.497564e+01	1.423987e+03
1.550000e-06	6.315743e-09	2.170180e-08	4.514123e+01	1.425448e+03
1.560000e-06	6.336762e-09	2.172118e-08	4.529146e+01	1.426709e+03
1.570000e-06	6.355699e-09	2.173973e-08	4.542681e+01	1.427787e+03
1.580000e-06	6.372290e-09	2.175686e-08	4.554539e+01	1.428702e+03
1.590000e-06	6.386430e-09	2.177009e-08	4.564646e+01	1.429465e+03
1.600000e-06	6.398134e-09	2.177928e-08	4.573012e+01	1.430083e+03
1.610000e-06	6.407244e-09	2.178644e-08	4.579523e+01	1.430553e+03
1.620000e-06	6.413916e-09	2.179250e-08	4.584292e+01	1.430868e+03
1.630000e-06	6.418489e-09	2.179597e-08	4.587561e+01	1.431017e+03
1.640000e-06	6.420797e-09	2.179647e-08	4.589210e+01	1.430992e+03
1.650000e-06	6.420731e-09	2.179778e-08	4.589163e+01	1.430791e+03
1.660000e-06	6.418530e-09	2.178577e-08	4.587590e+01	1.430416e+03
1.670000e-06	6.414352e-09	2.177856e-08	4.584604e+01	1.429881e+03
1.680000e-06	6.407938e-09	2.177221e-08	4.580019e+01	1.429200e+03
1.690000e-06	6.399311e-09	2.176151e-08	4.573853e+01	1.428391e+03
1.700000e-06	6.388754e-09	2.175145e-08	4.566308e+01	1.427463e+03
1.710000e-06	6.376009e-09	2.174060e-08	4.557199e+01	1.426424e+03
1.720000e-06	6.360954e-09	2.174787e-08	4.546438e+01	1.425268e+03
1.730000e-06	6.343891e-09	2.170896e-08	4.534243e+01	1.423986e+03
1.740000e-06	6.324800e-09	2.157169e-08	4.520597e+01	1.422565e+03
1.750000e-06	6.302797e-09	2.159191e-08	4.504871e+01	1.420994e+03
1.760000e-06	6.277572e-09	2.162239e-08	4.486842e+01	1.419267e+03
1.770000e-06	6.250058e-09	2.155109e-08	4.467177e+01	1.417388e+03
1.780000e-06	6.220707e-09	2.165845e-08	4.446198e+01	1.415366e+03
1.790000e-06	6.189712e-09	2.162764e-08	4.424045e+01	1.413215e+03
1.800000e-06	6.157343e-09	2.139712e-08	4.400910e+01	1.410950e+03
1.810000e-06	6.122920e-09	2.152667e-08	4.376306e+01	1.408578e+03
1.820000e-06	6.086452e-09	2.138403e-08	4.350241e+01	1.406093e+03
1.830000e-06	6.047964e-09	2.129606e-08	4.322732e+01	1.403479e+03
1.840000e-06	6.006992e-09	2.151053e-08	4.293448e+01	1.400709e+03
1.850000e-06	5.964003e-09	2.124331e-08	4.262722e+01	1.397748e+03
1.860000e-06	5.919010e-09	2.126961e-08	4.230563e+01	1.394566e+03
1.870000e-06	5.871785e-09	2.125592e-08	4.196810e+01	1.391136e+03
1.880000e-06	5.822510e-09	2.107599e-08	4.161591e+01	1.387445e+03
1.890000e-06	5.770733e-09	2.119231e-08	4.124584e+01	1.383495e+03
1.900000e-06	5.716361e-09	2.098985e-08	4.085722e+01	1.379300e+03
1.910000e-06	5.659787e-09	2.096719e-08	4.045286e+01	1.374880e+03
1.920000e-06	5.601189e-09	2.096562e-08	4.003404e+01	1.370257e+03
1.930000e-06	5.540768e-09	2.077648e-08	3.960219e+01	1.365445e+03
1.940000e-06	5.478183e-09	2.081863e-08	3.915486e+01	1.360447e+03
1.950000e-06	5.413422e-09	2.063690e-08	3.869199e+01	1.355254e+03
1.960000e-06	5.346713e-09	2.062234e-08	3.821519e+01	1.349846e+03
1.970000e-06	5.278011e-09	2.051354e-08	3.772415e+01	1.344197e+03
1.980000e-06	5.207216e-09	2.037629e-08	3.721815e+01	1.338283e+03
1.990000e-06	5.134371e-09	2.037844e-08	3.669750e+01	1.332084e+03
2.000000e-06	5.059792e-09	2.019928e-08	3.616445e+01	1.325590e+03
2.010000e-06	4.983194e-09	2.016099e-08	3.561698e+01	1.318803e+03
2.020000e-06	4.904451e-09	1.999716e-08	3.505417e+01	1.311729e+03
2.030000e-06	4.823902e-09	1.989203e-08	3.447845e+01	1.304376e+03
2.040000e-06	4.741718e-09	1.981224e-08	3.389105e+01	1.296749e+03
2.050000e-06	4.658052e-09	1.965931e-08	3.329305e+01	1.288844e+03
2.060000e-06	4.572734e-09	1.957420e-08	3.268324e+01	1.280646e+03
2.070000e-06	4.485660e-09	1.940740e-08	3.206090e+01	1.272134e+03
2.080000e-06	4.396971e-09	1.930095e-08	3.142700e+01	1.263279e+03
2.090000e-06	4.306810e-09	1.913253e-08	3.078258e+01	1.254054e+03
2.100000e-06	4.215286e-09	1.899260e-08	3.012842e+01	1.244437e+03
2.110000e-06	4.122327e-09	1.885318e-08	2.946400e+01	1.234415e+03
2.120000e-06	4.027852e-09	1.868262e-08	2.878875e+01	1.223982e+03
2.130000e-06	3.931872e-09	1.852493e-08	2.810274e+01	1.213135e+03
2.140000e-06	3.834502e-09	1.833781e-08	2.740679e+01	1.201874e+03
2.150000e-06	3.735832e-09	1.818006e-08	2.670156e+01	1.190190e+03
2.160000e-06	3.635874e-09	1.798723e-08	2.598712e+01	1.178064e+03
2.170000e-06	3.534523e-09	1.780707e-08	2.526272e+01	1.165464e+03
2.180000e-06	3.431743e-09	1.760207e-08	2.452811e+01	1.152348e+03
2.190000e-06	3.327604e-09	1.739510e-08	2.378379e+01	1.138668e+03
2.200000e-06	3.222275e-09	1.717238e-08	2.303095e+01	1.124377e+03
2.210000e-06	3.115887e-09	1.694434e-08	2.227055e+01	1.109432e+03
2.220000e-06	3.008429e-09	1.671191e-08	2.150250e+01	1.093797e+03
2.230000e-06	2.899920e-09	1.646339e-08	2.072694e+01	1.077445e+03
2.240000e-06	2.790402e-09	1.620962e-08	1.994417e+01	1.060351e+03
2.250000e-06	2.679845e-09	1.593726e-08	1.915398e+01	1.042488e+03
2.260000e-06	2.568199e-09	1.565758e-08	1.835600e+01	1.023816e+03
2.270000e-06	2.455525e-09	1.535468e-08	1.755067e+01	1.004284e+03
2.280000e-06	2.341886e-09	1.504418e-08	1.673844e+01	9.838191e+02
2.290000e-06	2.227333e-09	1.471358e-08	1.591969e+01	9.623362e+02
2.300000e-06	2.111928e-09	1.437103e-08	1.509483e+01	9.397381e+02
2.310000e-06	1.995678e-09	1.401117e-08	1.426395e+01	9.159236e+02
2.320000e-06	1.878596e-09	1.363363e-08	1.342712e+01	8.907927e+02
2.330000e-06	1.760786e-09	1.323303e-08	1.258508e+01	8.642491e+02
2.340000e-06	1.642313e-09	1.280549e-08	1.173831e+01	8.361996e+02
2.350000e-06	1.523190e-09	1.235423e-08	1.088689e+01	8.065501e+02
2.360000e-06	1.403490e-09	1.187655e-08	1.003134e+01	7.752008e+02
2.370000e-06	1.283317e-09	1.137310e-08	9.172414e+00	7.420443e+02
2.380000e-06	1.162751e-09	1.083655e-08	8.310677e+00	7.069688e+02
2.390000e-06	1.041835e-09	1.027039e-08	7.446436e+00	6.698691e+02
2.400000e-06	9.205974e-10	9.670520e-09	6.579901e+00	6.306649e+02
2.410000e-06	7.990760e-10	9.040774e-09	5.711336e+00	5.893244e+02
2.420000e-06	6.773153e-10	8.380557e-09	4.841060e+00	5.458873e+02
2.430000e-06	5.553593e-10	7.689729e-09	3.969389e+00	5.004825e+02
2.440000e-06	4.332374e-10	6.971972e-09	3.096532e+00	4.533324e+02
2.450000e-06	3.109914e-10	6.229408e-09	2.222788e+00	4.047413e+02
2.460000e-06	1.886180e-10	5.469367e-09	1.348133e+00	3.550659e+02
2.470000e-06	6.614581e-11	4.696713e-09	4.727711e-01	3.046712e+02
2.480000e-06	-5.636190e-11	3.920127e-09	-4.028443e-01	2.538793e+02
2.490000e-06	-1.788564e-10	3.141460e-09	-1.278365e+00	2.029199e+02
2.500000e-06	-3.012911e-10	2.360829e-09	-2.153459e+00	1.518942e+02
2.510000e-06	-4.236421e-10	1.580120e-09	-3.027953e+00	1.007605e+02
2.520000e-06	-5.458801e-10	7.941016e-10	-3.901641e+00	4.934581e+01
2.530000e-06	-6.679785e-10	-8.755525e-13	-4.774330e+00	-2.614675e+00
2.540000e-06	-7.898847e-10	-8.084396e-10	-5.645645e+00	-5.541736e+01
2.550000e-06	-9.115436e-10	-1.632239e-09	-6.515193e+00	-1.093191e+02
2.560000e-06	-1.032900e-09	-2.473283e-09	-7.382577e+00	-1.644681e+02
2.570000e-06	-1.153911e-09	-3.333108e-09	-8.247495e+00	-2.208496e+02
2.580000e-06	-1.274542e-09	-4.209208e-09	-9.109699e+00	-2.782578e+02
2.590000e-06	-1.394728e-09	-5.096342e-09	-9.968725e+00	-3.362977e+02
2.600000e-06	-1.514370e-09	-5.987177e-09	-1.082385e+01	-3.944188e+02
2.610000e-06	-1.633349e-09	-6.870293e-09	-1.167425e+01	-4.519726e+02
2.620000e-06	-1.751612e-09	-7.734269e-09	-1.251952e+01	-5.082840e+02
2.630000e-06	-1.869155e-09	-8.567840e-09	-1.335965e+01	-5.627243e+02
2.640000e-06	-1.985894e-09	-9.364496e-09	-1.419403e+01	-6.147733e+02
2.650000e-06	-2.101742e-09	-1.011824e-08	-1.502204e+01	-6.640600e+02
2.660000e-06	-2.216683e-09	-1.082679e-08	-1.584358e+01	-7.103799e+02
2.670000e-06	-2.330646e-09	-1.149119e-08	-1.665811e+01	-7.536865e+02
2.680000e-06	-2.443557e-09	-1.211236e-08	-1.746513e+01	-7.940634e+02
2.690000e-06	-2.555440e-09	-1.269184e-08	-1.826481e+01	-8.316847e+02
2.700000e-06	-2.666269e-09	-1.323096e-08	-1.905695e+01	-8.667725e+02
2.710000e-06	-2.776054e-09	-1.373411e-08	-1.984163e+01	-8.995597e+02
2.720000e-06	-2.884953e-09	-1.420499e-08	-2.061998e+01	-9.302628e+02
2.730000e-06	-2.992974e-09	-1.464466e-08	-2.139205e+01	-9.590684e+02
2.740000e-06	-3.100043e-09	-1.505688e-08	-2.215732e+01	-9.861305e+02
2.750000e-06	-3.206105e-09	-1.544487e-08	-2.291540e+01	-1.011577e+03
2.760000e-06	-3.311083e-09	-1.580924e-08	-2.366571e+01	-1.035517e+03
2.770000e-06	-3.414868e-09	-1.615321e-08	-2.440751e+01	-1.058056e+03
2.780000e-06	-3.517334e-09	-1.647833e-08	-2.513988e+01	-1.079293e+03
2.790000e-06	-3.618466e-09	-1.678589e-08	-2.586271e+01	-1.099329e+03
2.800000e-06	-3.718293e-09	-1.707699e-08	-2.657622e+01	-1.118263e+03
2.810000e-06	-3.816866e-09	-1.735265e-08	-2.728076e+01	-1.136185e+03
2.820000e-06	-3.914211e-09	-1.761284e-08	-2.797653e+01	-1.153172e+03
2.830000e-06	-4.010271e-09	-1.785887e-08	-2.866311e+01	-1.169289e+03
2.840000e-06	-4.104897e-09	-1.809341e-08	-2.933945e+01	-1.184587e+03
2.850000e-06	-4.197987e-09	-1.831691e-08	-3.000479e+01	-1.199109e+03
2.860000e-06	-4.289583e-09	-1.852990e-08	-3.065947e+01	-1.212892e+03
2.870000e-06	-4.379660e-09	-1.873188e-08	-3.130329e+01	-1.225971e+03
2.880000e-06	-4.468175e-09	-1.892247e-08	-3.193595e+01	-1.238388e+03
2.890000e-06	-4.555047e-09	-1.910230e-08	-3.255686e+01	-1.250184e+03
2.900000e-06	-4.640167e-09	-1.927243e-08	-3.316525e+01	-1.261402e+03
2.910000e-06	-4.723657e-09	-1.943462e-08	-3.376199e+01	-1.272081e+03
2.920000e-06	-4.805575e-09	-1.958981e-08	-3.434749e+01	-1.282252e+03
2.930000e-06	-4.885820e-09	-1.973790e-08	-3.492104e+01	-1.291937e+03
2.940000e-06	-4.964131e-09	-1.987922e-08	-3.548075e+01	-1.301147e+03
