# Temperatura_=_76.41
# Concentracion g/m^3_=_28200.0
# C_Vs_to_Am_M_A/Vsm_=_65563218390.804596
# pendiente_HvsI_1/m_=_3716.3
# ordenada_HvsI_A/m_=_1297.0
# frecuencia_Hz_=_302377.4764248937

Tiempo_(s)	Campo_(V.s)	Magnetizacion_(V.s)	Campo_(kA/m)	Magnetizacion_(A/m)
0.000000e+00	-7.363988e-06	-3.080025e-08	-5.319277e+01	-2.017021e+03
1.000000e-08	-7.360136e-06	-3.079556e-08	-5.316495e+01	-2.016321e+03
2.000000e-08	-7.353916e-06	-3.078225e-08	-5.312002e+01	-2.015439e+03
3.000000e-08	-7.345327e-06	-3.076526e-08	-5.305797e+01	-2.014413e+03
4.000000e-08	-7.334133e-06	-3.074598e-08	-5.297712e+01	-2.013263e+03
5.000000e-08	-7.320097e-06	-3.072243e-08	-5.287573e+01	-2.011988e+03
6.000000e-08	-7.303419e-06	-3.069528e-08	-5.275525e+01	-2.010567e+03
7.000000e-08	-7.284550e-06	-3.066681e-08	-5.261896e+01	-2.008965e+03
8.000000e-08	-7.263534e-06	-3.065473e-08	-5.246715e+01	-2.007152e+03
9.000000e-08	-7.239948e-06	-3.068181e-08	-5.229678e+01	-2.005112e+03
1.000000e-07	-7.213374e-06	-3.064013e-08	-5.210483e+01	-2.002855e+03
1.100000e-07	-7.183970e-06	-3.055048e-08	-5.189244e+01	-2.000417e+03
1.200000e-07	-7.152133e-06	-3.049705e-08	-5.166246e+01	-1.997852e+03
1.300000e-07	-7.117794e-06	-3.045373e-08	-5.141442e+01	-1.995216e+03
1.400000e-07	-7.081174e-06	-3.037972e-08	-5.114990e+01	-1.992547e+03
1.500000e-07	-7.042717e-06	-3.031748e-08	-5.087211e+01	-1.989850e+03
1.600000e-07	-7.002166e-06	-3.035490e-08	-5.057920e+01	-1.987092e+03
1.700000e-07	-6.959110e-06	-3.026751e-08	-5.026819e+01	-1.984198e+03
1.800000e-07	-6.913618e-06	-3.017051e-08	-4.993958e+01	-1.981073e+03
1.900000e-07	-6.865596e-06	-3.016098e-08	-4.959270e+01	-1.977618e+03
2.000000e-07	-6.814736e-06	-3.006048e-08	-4.922532e+01	-1.973753e+03
2.100000e-07	-6.761161e-06	-2.999983e-08	-4.883833e+01	-1.969441e+03
2.200000e-07	-6.705070e-06	-2.992643e-08	-4.843317e+01	-1.964688e+03
2.300000e-07	-6.646455e-06	-2.983516e-08	-4.800977e+01	-1.959541e+03
2.400000e-07	-6.585376e-06	-2.977577e-08	-4.756857e+01	-1.954077e+03
2.500000e-07	-6.521901e-06	-2.967747e-08	-4.711007e+01	-1.948373e+03
2.600000e-07	-6.455933e-06	-2.959631e-08	-4.663356e+01	-1.942485e+03
2.700000e-07	-6.387504e-06	-2.950610e-08	-4.613927e+01	-1.936435e+03
2.800000e-07	-6.316706e-06	-2.941603e-08	-4.562787e+01	-1.930201e+03
2.900000e-07	-6.243419e-06	-2.931338e-08	-4.509849e+01	-1.923725e+03
3.000000e-07	-6.167558e-06	-2.919822e-08	-4.455052e+01	-1.916932e+03
3.100000e-07	-6.089035e-06	-2.909977e-08	-4.398332e+01	-1.909752e+03
3.200000e-07	-6.008006e-06	-2.896710e-08	-4.339802e+01	-1.902136e+03
3.300000e-07	-5.924958e-06	-2.885011e-08	-4.279813e+01	-1.894074e+03
3.400000e-07	-5.840014e-06	-2.872111e-08	-4.218455e+01	-1.885591e+03
3.500000e-07	-5.753092e-06	-2.859044e-08	-4.155668e+01	-1.876738e+03
3.600000e-07	-5.664163e-06	-2.845707e-08	-4.091431e+01	-1.867570e+03
3.700000e-07	-5.573132e-06	-2.830613e-08	-4.025677e+01	-1.858127e+03
3.800000e-07	-5.480054e-06	-2.816097e-08	-3.958443e+01	-1.848416e+03
3.900000e-07	-5.385125e-06	-2.800148e-08	-3.889872e+01	-1.838402e+03
4.000000e-07	-5.288360e-06	-2.784420e-08	-3.819975e+01	-1.828019e+03
4.100000e-07	-5.189671e-06	-2.767650e-08	-3.748689e+01	-1.817180e+03
4.200000e-07	-5.089145e-06	-2.750448e-08	-3.676075e+01	-1.805805e+03
4.300000e-07	-4.986857e-06	-2.731496e-08	-3.602189e+01	-1.793838e+03
4.400000e-07	-4.882764e-06	-2.711805e-08	-3.526998e+01	-1.781258e+03
4.500000e-07	-4.776842e-06	-2.692245e-08	-3.450487e+01	-1.768084e+03
4.600000e-07	-4.669191e-06	-2.671967e-08	-3.372727e+01	-1.754359e+03
4.700000e-07	-4.559931e-06	-2.650783e-08	-3.293804e+01	-1.740128e+03
4.800000e-07	-4.449120e-06	-2.628179e-08	-3.213762e+01	-1.725420e+03
4.900000e-07	-4.336679e-06	-2.604940e-08	-3.132541e+01	-1.710222e+03
5.000000e-07	-4.222414e-06	-2.580246e-08	-3.050003e+01	-1.694479e+03
5.100000e-07	-4.106349e-06	-2.554545e-08	-2.966165e+01	-1.678096e+03
5.200000e-07	-3.988745e-06	-2.527814e-08	-2.881216e+01	-1.660959e+03
5.300000e-07	-3.869711e-06	-2.500221e-08	-2.795233e+01	-1.642961e+03
5.400000e-07	-3.749302e-06	-2.471241e-08	-2.708257e+01	-1.624023e+03
5.500000e-07	-3.627479e-06	-2.440791e-08	-2.620260e+01	-1.604107e+03
5.600000e-07	-3.504159e-06	-2.409078e-08	-2.531182e+01	-1.583218e+03
5.700000e-07	-3.379472e-06	-2.376128e-08	-2.441116e+01	-1.561386e+03
5.800000e-07	-3.253571e-06	-2.341788e-08	-2.350173e+01	-1.538638e+03
5.900000e-07	-3.126544e-06	-2.305439e-08	-2.258417e+01	-1.514966e+03
6.000000e-07	-2.998425e-06	-2.267332e-08	-2.165872e+01	-1.490308e+03
6.100000e-07	-2.869200e-06	-2.227401e-08	-2.072528e+01	-1.464534e+03
6.200000e-07	-2.738831e-06	-2.185671e-08	-1.978358e+01	-1.437459e+03
6.300000e-07	-2.607372e-06	-2.141432e-08	-1.883400e+01	-1.408865e+03
6.400000e-07	-2.474961e-06	-2.094845e-08	-1.787755e+01	-1.378537e+03
6.500000e-07	-2.341717e-06	-2.045884e-08	-1.691508e+01	-1.346293e+03
6.600000e-07	-2.207701e-06	-1.994030e-08	-1.594703e+01	-1.311998e+03
6.700000e-07	-2.072914e-06	-1.939184e-08	-1.497341e+01	-1.275570e+03
6.800000e-07	-1.937349e-06	-1.880812e-08	-1.399417e+01	-1.236944e+03
6.900000e-07	-1.801117e-06	-1.818682e-08	-1.301012e+01	-1.196039e+03
7.000000e-07	-1.664280e-06	-1.752414e-08	-1.202170e+01	-1.152713e+03
7.100000e-07	-1.526814e-06	-1.681660e-08	-1.102873e+01	-1.106731e+03
7.200000e-07	-1.388703e-06	-1.606156e-08	-1.003111e+01	-1.057761e+03
7.300000e-07	-1.250001e-06	-1.525549e-08	-9.029211e+00	-1.005407e+03
7.400000e-07	-1.110911e-06	-1.439366e-08	-8.024519e+00	-9.492654e+02
7.500000e-07	-9.714897e-07	-1.347342e-08	-7.017424e+00	-8.890189e+02
7.600000e-07	-8.316814e-07	-1.249325e-08	-6.007538e+00	-8.245171e+02
7.700000e-07	-6.915212e-07	-1.145438e-08	-4.995109e+00	-7.558460e+02
7.800000e-07	-5.510621e-07	-1.035815e-08	-3.980522e+00	-6.833527e+02
7.900000e-07	-4.103338e-07	-9.208542e-09	-2.963991e+00	-6.076175e+02
8.000000e-07	-2.693846e-07	-8.014288e-09	-1.945863e+00	-5.293726e+02
8.100000e-07	-1.283659e-07	-6.788645e-09	-9.272339e-01	-4.493812e+02
8.200000e-07	1.271597e-08	-5.546043e-09	9.185209e-02	-3.683017e+02
8.300000e-07	1.538456e-07	-4.293072e-09	1.111283e+00	-2.865692e+02
8.400000e-07	2.949390e-07	-3.037063e-09	2.130452e+00	-2.043221e+02
8.500000e-07	4.359641e-07	-1.776744e-09	3.149128e+00	-1.213958e+02
8.600000e-07	5.768033e-07	-5.019731e-10	4.166460e+00	-3.738907e+01
8.700000e-07	7.174371e-07	7.960656e-10	5.182310e+00	4.820705e+01
8.800000e-07	8.578507e-07	2.123742e-09	6.196568e+00	1.358436e+02
8.900000e-07	9.979433e-07	3.485268e-09	7.208508e+00	2.257463e+02
9.000000e-07	1.137675e-06	4.884063e-09	8.217841e+00	3.177839e+02
9.100000e-07	1.276987e-06	6.313986e-09	9.224145e+00	4.114007e+02
9.200000e-07	1.415776e-06	7.757404e-09	1.022667e+01	5.056320e+02
9.300000e-07	1.553924e-06	9.190381e-09	1.122456e+01	5.991988e+02
9.400000e-07	1.691378e-06	1.058682e-08	1.221744e+01	6.906648e+02
9.500000e-07	1.828139e-06	1.192268e-08	1.320532e+01	7.786234e+02
9.600000e-07	1.964177e-06	1.317919e-08	1.418797e+01	8.618773e+02
9.700000e-07	2.099470e-06	1.434717e-08	1.516524e+01	9.395775e+02
9.800000e-07	2.233982e-06	1.542456e-08	1.613686e+01	1.011296e+03
9.900000e-07	2.367629e-06	1.641622e-08	1.710225e+01	1.077023e+03
1.000000e-06	2.500457e-06	1.732966e-08	1.806171e+01	1.137099e+03
1.010000e-06	2.632504e-06	1.817066e-08	1.901554e+01	1.192101e+03
1.020000e-06	2.763544e-06	1.894573e-08	1.996209e+01	1.242702e+03
1.030000e-06	2.893360e-06	1.966020e-08	2.089980e+01	1.289556e+03
1.040000e-06	3.022053e-06	2.032305e-08	2.182939e+01	1.333206e+03
1.050000e-06	3.149685e-06	2.094184e-08	2.275133e+01	1.374041e+03
1.060000e-06	3.276159e-06	2.151878e-08	2.366489e+01	1.412303e+03
1.070000e-06	3.401487e-06	2.205661e-08	2.457018e+01	1.448129e+03
1.080000e-06	3.525738e-06	2.255696e-08	2.546769e+01	1.481605e+03
1.090000e-06	3.648776e-06	2.302561e-08	2.635644e+01	1.512823e+03
1.100000e-06	3.770436e-06	2.346844e-08	2.723524e+01	1.541920e+03
1.110000e-06	3.890722e-06	2.388539e-08	2.810410e+01	1.569089e+03
1.120000e-06	4.009581e-06	2.427749e-08	2.896266e+01	1.594565e+03
1.130000e-06	4.127026e-06	2.464950e-08	2.981101e+01	1.618593e+03
1.140000e-06	4.242960e-06	2.500164e-08	3.064845e+01	1.641388e+03
1.150000e-06	4.357202e-06	2.533364e-08	3.147366e+01	1.663112e+03
1.160000e-06	4.469717e-06	2.564612e-08	3.228639e+01	1.683853e+03
1.170000e-06	4.580602e-06	2.594167e-08	3.308736e+01	1.703633e+03
1.180000e-06	4.689946e-06	2.622217e-08	3.387719e+01	1.722432e+03
1.190000e-06	4.797757e-06	2.648721e-08	3.465595e+01	1.740220e+03
1.200000e-06	4.903816e-06	2.673877e-08	3.542205e+01	1.756987e+03
1.210000e-06	5.007957e-06	2.697840e-08	3.617430e+01	1.772763e+03
1.220000e-06	5.110320e-06	2.720738e-08	3.691370e+01	1.787623e+03
1.230000e-06	5.210973e-06	2.742562e-08	3.764076e+01	1.801679e+03
1.240000e-06	5.309736e-06	2.763347e-08	3.835416e+01	1.815056e+03
1.250000e-06	5.406436e-06	2.783050e-08	3.905266e+01	1.827865e+03
1.260000e-06	5.501128e-06	2.801662e-08	3.973665e+01	1.840182e+03
1.270000e-06	5.593870e-06	2.819213e-08	4.040656e+01	1.852039e+03
1.280000e-06	5.684606e-06	2.835981e-08	4.106198e+01	1.863423e+03
1.290000e-06	5.773281e-06	2.852198e-08	4.170251e+01	1.874294e+03
1.300000e-06	5.859870e-06	2.867922e-08	4.232798e+01	1.884605e+03
1.310000e-06	5.944390e-06	2.882969e-08	4.293849e+01	1.894323e+03
1.320000e-06	6.026858e-06	2.897204e-08	4.353419e+01	1.903445e+03
1.330000e-06	6.107129e-06	2.910653e-08	4.411402e+01	1.912002e+03
1.340000e-06	6.185087e-06	2.923454e-08	4.467714e+01	1.920054e+03
1.350000e-06	6.260662e-06	2.935531e-08	4.522304e+01	1.927670e+03
1.360000e-06	6.333762e-06	2.946731e-08	4.575107e+01	1.934917e+03
1.370000e-06	6.404536e-06	2.957225e-08	4.626230e+01	1.941839e+03
1.380000e-06	6.473160e-06	2.967218e-08	4.675799e+01	1.948455e+03
1.390000e-06	6.539483e-06	2.976758e-08	4.723707e+01	1.954755e+03
1.400000e-06	6.603408e-06	2.985836e-08	4.769882e+01	1.960717e+03
1.410000e-06	6.665074e-06	2.994339e-08	4.814426e+01	1.966317e+03
1.420000e-06	6.724496e-06	3.002252e-08	4.857348e+01	1.971546e+03
1.430000e-06	6.781566e-06	3.009773e-08	4.898572e+01	1.976417e+03
1.440000e-06	6.836157e-06	3.016831e-08	4.938006e+01	1.980966e+03
1.450000e-06	6.888045e-06	3.023487e-08	4.975486e+01	1.985242e+03
1.460000e-06	6.937110e-06	3.029785e-08	5.010928e+01	1.989296e+03
1.470000e-06	6.983557e-06	3.035797e-08	5.044478e+01	1.993164e+03
1.480000e-06	7.027639e-06	3.041561e-08	5.076320e+01	1.996855e+03
1.490000e-06	7.069251e-06	3.046870e-08	5.106378e+01	2.000352e+03
1.500000e-06	7.108286e-06	3.051777e-08	5.134574e+01	2.003615e+03
1.510000e-06	7.144911e-06	3.056323e-08	5.161029e+01	2.006592e+03
1.520000e-06	7.178995e-06	3.060412e-08	5.185649e+01	2.009240e+03
1.530000e-06	7.210403e-06	3.063953e-08	5.208337e+01	2.011534e+03
1.540000e-06	7.239351e-06	3.066951e-08	5.229247e+01	2.013480e+03
1.550000e-06	7.265734e-06	3.069617e-08	5.248304e+01	2.015110e+03
1.560000e-06	7.289392e-06	3.071965e-08	5.265393e+01	2.016479e+03
1.570000e-06	7.310495e-06	3.073824e-08	5.280637e+01	2.017642e+03
1.580000e-06	7.329101e-06	3.075358e-08	5.294077e+01	2.018646e+03
1.590000e-06	7.344988e-06	3.076780e-08	5.305552e+01	2.019516e+03
1.600000e-06	7.358032e-06	3.078074e-08	5.314975e+01	2.020247e+03
1.610000e-06	7.368169e-06	3.079131e-08	5.322297e+01	2.020815e+03
1.620000e-06	7.375485e-06	3.079862e-08	5.327582e+01	2.021179e+03
1.630000e-06	7.380236e-06	3.080174e-08	5.331014e+01	2.021305e+03
1.640000e-06	7.382322e-06	3.080060e-08	5.332520e+01	2.021171e+03
1.650000e-06	7.381764e-06	3.079705e-08	5.332117e+01	2.020779e+03
1.660000e-06	7.378856e-06	3.078435e-08	5.330017e+01	2.020152e+03
1.670000e-06	7.373586e-06	3.077099e-08	5.326210e+01	2.019330e+03
1.680000e-06	7.365779e-06	3.075817e-08	5.320570e+01	2.018351e+03
1.690000e-06	7.355468e-06	3.074326e-08	5.313122e+01	2.017243e+03
1.700000e-06	7.342575e-06	3.072846e-08	5.303809e+01	2.016014e+03
1.710000e-06	7.327070e-06	3.071428e-08	5.292609e+01	2.014647e+03
1.720000e-06	7.309282e-06	3.070077e-08	5.279761e+01	2.013113e+03
1.730000e-06	7.289388e-06	3.064046e-08	5.265391e+01	2.011378e+03
1.740000e-06	7.266866e-06	3.054523e-08	5.249122e+01	2.009418e+03
1.750000e-06	7.241038e-06	3.054451e-08	5.230465e+01	2.007235e+03
1.760000e-06	7.211846e-06	3.054973e-08	5.209379e+01	2.004855e+03
1.770000e-06	7.179898e-06	3.049974e-08	5.186302e+01	2.002328e+03
1.780000e-06	7.145862e-06	3.048742e-08	5.161717e+01	1.999711e+03
1.790000e-06	7.110123e-06	3.050458e-08	5.135901e+01	1.997050e+03
1.800000e-06	7.072697e-06	3.037802e-08	5.108867e+01	1.994364e+03
1.810000e-06	7.032900e-06	3.034829e-08	5.080120e+01	1.991633e+03
1.820000e-06	6.990513e-06	3.038616e-08	5.049502e+01	1.988797e+03
1.830000e-06	6.945865e-06	3.028885e-08	5.017252e+01	1.985766e+03
1.840000e-06	6.898674e-06	3.030635e-08	4.983163e+01	1.982438e+03
1.850000e-06	6.848843e-06	3.019309e-08	4.947169e+01	1.978726e+03
1.860000e-06	6.796363e-06	3.011848e-08	4.909260e+01	1.974574e+03
1.870000e-06	6.741129e-06	3.009672e-08	4.869363e+01	1.969974e+03
1.880000e-06	6.683486e-06	2.995177e-08	4.827725e+01	1.964959e+03
1.890000e-06	6.623318e-06	2.993644e-08	4.784264e+01	1.959598e+03
1.900000e-06	6.560449e-06	2.983125e-08	4.738852e+01	1.953971e+03
1.910000e-06	6.495127e-06	2.973937e-08	4.691667e+01	1.948143e+03
1.920000e-06	6.427457e-06	2.966448e-08	4.642786e+01	1.942150e+03
1.930000e-06	6.357322e-06	2.953463e-08	4.592125e+01	1.935986e+03
1.940000e-06	6.284690e-06	2.948285e-08	4.539661e+01	1.929604e+03
1.950000e-06	6.209630e-06	2.933841e-08	4.485442e+01	1.922932e+03
1.960000e-06	6.131960e-06	2.924473e-08	4.429339e+01	1.915897e+03
1.970000e-06	6.051836e-06	2.912196e-08	4.371462e+01	1.908439e+03
1.980000e-06	5.969638e-06	2.899473e-08	4.312087e+01	1.900534e+03
1.990000e-06	5.885362e-06	2.889474e-08	4.251211e+01	1.892195e+03
2.000000e-06	5.798887e-06	2.874670e-08	4.188747e+01	1.883467e+03
2.010000e-06	5.710257e-06	2.863983e-08	4.124727e+01	1.874405e+03
2.020000e-06	5.619660e-06	2.848014e-08	4.059285e+01	1.865056e+03
2.030000e-06	5.527121e-06	2.834017e-08	3.992441e+01	1.855442e+03
2.040000e-06	5.432583e-06	2.818179e-08	3.924153e+01	1.845541e+03
2.050000e-06	5.336116e-06	2.801852e-08	3.854471e+01	1.835298e+03
2.060000e-06	5.237946e-06	2.785566e-08	3.783559e+01	1.824631e+03
2.070000e-06	5.138108e-06	2.767894e-08	3.711443e+01	1.813455e+03
2.080000e-06	5.036356e-06	2.751249e-08	3.637943e+01	1.801703e+03
2.090000e-06	4.932576e-06	2.731893e-08	3.562979e+01	1.789341e+03
2.100000e-06	4.826991e-06	2.713025e-08	3.486711e+01	1.776374e+03
2.110000e-06	4.719922e-06	2.692277e-08	3.409372e+01	1.762839e+03
2.120000e-06	4.611328e-06	2.671460e-08	3.330931e+01	1.748784e+03
2.130000e-06	4.501044e-06	2.649144e-08	3.251268e+01	1.734244e+03
2.140000e-06	4.389033e-06	2.626553e-08	3.170359e+01	1.719224e+03
2.150000e-06	4.275341e-06	2.602800e-08	3.088234e+01	1.703684e+03
2.160000e-06	4.159936e-06	2.577727e-08	3.004873e+01	1.687541e+03
2.170000e-06	4.042723e-06	2.551858e-08	2.920206e+01	1.670686e+03
2.180000e-06	3.923846e-06	2.524511e-08	2.834337e+01	1.653006e+03
2.190000e-06	3.803461e-06	2.496311e-08	2.747378e+01	1.634409e+03
2.200000e-06	3.681710e-06	2.466888e-08	2.659433e+01	1.614843e+03
2.210000e-06	3.558656e-06	2.436657e-08	2.570547e+01	1.594298e+03
2.220000e-06	3.434289e-06	2.404348e-08	2.480712e+01	1.572798e+03
2.230000e-06	3.308635e-06	2.370737e-08	2.389948e+01	1.550375e+03
2.240000e-06	3.181663e-06	2.335278e-08	2.298231e+01	1.527036e+03
2.250000e-06	3.053496e-06	2.298341e-08	2.205651e+01	1.502740e+03
2.260000e-06	2.924261e-06	2.259317e-08	2.112300e+01	1.477383e+03
2.270000e-06	2.794012e-06	2.218403e-08	2.018217e+01	1.450795e+03
2.280000e-06	2.662785e-06	2.175337e-08	1.923426e+01	1.422769e+03
2.290000e-06	2.530591e-06	2.129810e-08	1.827938e+01	1.393083e+03
2.300000e-06	2.397538e-06	2.081747e-08	1.731829e+01	1.361540e+03
2.310000e-06	2.263624e-06	2.031011e-08	1.635098e+01	1.327988e+03
2.320000e-06	2.128851e-06	1.977333e-08	1.537747e+01	1.292329e+03
2.330000e-06	1.993346e-06	1.920118e-08	1.439866e+01	1.254494e+03
2.340000e-06	1.857171e-06	1.859301e-08	1.341502e+01	1.214414e+03
2.350000e-06	1.720392e-06	1.794443e-08	1.242702e+01	1.171974e+03
2.360000e-06	1.583078e-06	1.725556e-08	1.143515e+01	1.126973e+03
2.370000e-06	1.445279e-06	1.652247e-08	1.043978e+01	1.079113e+03
2.380000e-06	1.306969e-06	1.573871e-08	9.440710e+00	1.028014e+03
2.390000e-06	1.168150e-06	1.489914e-08	8.437970e+00	9.732666e+02
2.400000e-06	1.028909e-06	1.400118e-08	7.432188e+00	9.145132e+02
2.410000e-06	8.893390e-07	1.304263e-08	6.424020e+00	8.515337e+02
2.420000e-06	7.494972e-07	1.202273e-08	5.413891e+00	7.843244e+02
2.430000e-06	6.093388e-07	1.094554e-08	4.401476e+00	7.131395e+02
2.440000e-06	4.689112e-07	9.815893e-09	3.387116e+00	6.384828e+02
2.450000e-06	3.282491e-07	8.635746e-09	2.371063e+00	5.610445e+02
2.460000e-06	1.874285e-07	7.415620e-09	1.353864e+00	4.815921e+02
2.470000e-06	4.655945e-08	6.171763e-09	3.363159e-01	4.008366e+02
2.480000e-06	-9.441072e-08	4.918136e-09	-6.819630e-01	3.193043e+02
2.490000e-06	-2.353692e-07	3.659377e-09	-1.700157e+00	2.372439e+02
2.500000e-06	-3.761789e-07	2.394493e-09	-2.717277e+00	1.545953e+02
2.510000e-06	-5.168776e-07	1.121778e-09	-3.733595e+00	7.102963e+01
2.520000e-06	-6.574219e-07	-1.689999e-10	-4.748798e+00	-1.394125e+01
2.530000e-06	-7.977379e-07	-1.488625e-09	-5.762352e+00	-1.008090e+02
2.540000e-06	-9.377822e-07	-2.842761e-09	-6.773942e+00	-1.898976e+02
2.550000e-06	-1.077462e-06	-4.233130e-09	-7.782903e+00	-2.812149e+02
2.560000e-06	-1.216738e-06	-5.658143e-09	-8.788940e+00	-3.743593e+02
2.570000e-06	-1.355493e-06	-7.106962e-09	-9.791218e+00	-4.685054e+02
2.580000e-06	-1.493677e-06	-8.556874e-09	-1.078938e+01	-5.624710e+02
2.590000e-06	-1.631318e-06	-9.980501e-09	-1.178361e+01	-6.548553e+02
2.600000e-06	-1.768378e-06	-1.135064e-08	-1.277364e+01	-7.442192e+02
2.610000e-06	-1.904822e-06	-1.264789e-08	-1.375922e+01	-8.292721e+02
2.620000e-06	-2.040554e-06	-1.386039e-08	-1.473967e+01	-9.090284e+02
2.630000e-06	-2.175481e-06	-1.498260e-08	-1.571429e+01	-9.829059e+02
2.640000e-06	-2.309502e-06	-1.601689e-08	-1.668237e+01	-1.050750e+03
2.650000e-06	-2.442642e-06	-1.697008e-08	-1.764410e+01	-1.112789e+03
2.660000e-06	-2.574877e-06	-1.784764e-08	-1.859927e+01	-1.169529e+03
2.670000e-06	-2.706127e-06	-1.865483e-08	-1.954735e+01	-1.221624e+03
2.680000e-06	-2.836379e-06	-1.940005e-08	-2.048820e+01	-1.269748e+03
2.690000e-06	-2.965621e-06	-2.009073e-08	-2.142176e+01	-1.314490e+03
2.700000e-06	-3.093864e-06	-2.073217e-08	-2.234811e+01	-1.356296e+03
2.710000e-06	-3.221055e-06	-2.133129e-08	-2.326685e+01	-1.395458e+03
2.720000e-06	-3.347023e-06	-2.189254e-08	-2.417677e+01	-1.432144e+03
2.730000e-06	-3.471707e-06	-2.241475e-08	-2.507741e+01	-1.466451e+03
2.740000e-06	-3.595150e-06	-2.289900e-08	-2.596908e+01	-1.498463e+03
2.750000e-06	-3.717319e-06	-2.335222e-08	-2.685155e+01	-1.528299e+03
2.760000e-06	-3.838135e-06	-2.377829e-08	-2.772425e+01	-1.556133e+03
2.770000e-06	-3.957537e-06	-2.418040e-08	-2.858673e+01	-1.582186e+03
2.780000e-06	-4.075478e-06	-2.456261e-08	-2.943866e+01	-1.606705e+03
2.790000e-06	-4.191820e-06	-2.492320e-08	-3.027904e+01	-1.629919e+03
2.800000e-06	-4.306440e-06	-2.526281e-08	-3.110699e+01	-1.652013e+03
2.810000e-06	-4.419272e-06	-2.558332e-08	-3.192201e+01	-1.673100e+03
2.820000e-06	-4.530305e-06	-2.588629e-08	-3.272405e+01	-1.693224e+03
2.830000e-06	-4.639721e-06	-2.617599e-08	-3.351440e+01	-1.712378e+03
2.840000e-06	-4.747675e-06	-2.645297e-08	-3.429419e+01	-1.730532e+03
2.850000e-06	-4.854131e-06	-2.671331e-08	-3.506316e+01	-1.747663e+03
2.860000e-06	-4.958962e-06	-2.695785e-08	-3.582039e+01	-1.763787e+03
2.870000e-06	-5.061896e-06	-2.719058e-08	-3.656392e+01	-1.778964e+03
2.880000e-06	-5.162815e-06	-2.741411e-08	-3.729289e+01	-1.793294e+03
2.890000e-06	-5.261901e-06	-2.762888e-08	-3.800863e+01	-1.806900e+03
2.900000e-06	-5.359221e-06	-2.783325e-08	-3.871161e+01	-1.819902e+03
2.910000e-06	-5.454617e-06	-2.802637e-08	-3.940069e+01	-1.832390e+03
2.920000e-06	-5.547935e-06	-2.820881e-08	-4.007476e+01	-1.844411e+03
2.930000e-06	-5.639264e-06	-2.838127e-08	-4.073446e+01	-1.855969e+03
2.940000e-06	-5.728692e-06	-2.854480e-08	-4.138043e+01	-1.867029e+03
