# Temperatura_=_31.99
# Concentracion g/m^3_=_28200.0
# C_Vs_to_Am_M_A/Vsm_=_65563218390.804596
# pendiente_HvsI_1/m_=_3716.3
# ordenada_HvsI_A/m_=_1297.0
# frecuencia_Hz_=_302376.3409699384

Tiempo_(s)	Campo_(V.s)	Magnetizacion_(V.s)	Campo_(kA/m)	Magnetizacion_(A/m)
0.000000e+00	-7.295269e-06	-3.003952e-08	-5.318968e+01	-1.965829e+03
1.000000e-08	-7.291103e-06	-3.003611e-08	-5.315931e+01	-1.965241e+03
2.000000e-08	-7.284642e-06	-3.002061e-08	-5.311220e+01	-1.964476e+03
3.000000e-08	-7.275877e-06	-3.000521e-08	-5.304829e+01	-1.963552e+03
4.000000e-08	-7.264534e-06	-2.998956e-08	-5.296559e+01	-1.962481e+03
5.000000e-08	-7.250390e-06	-2.996848e-08	-5.286247e+01	-1.961268e+03
6.000000e-08	-7.233533e-06	-2.993980e-08	-5.273957e+01	-1.959906e+03
7.000000e-08	-7.214499e-06	-2.990662e-08	-5.260079e+01	-1.958383e+03
8.000000e-08	-7.193453e-06	-2.989744e-08	-5.244735e+01	-1.956689e+03
9.000000e-08	-7.169771e-06	-2.994184e-08	-5.227468e+01	-1.954824e+03
1.000000e-07	-7.143026e-06	-2.988437e-08	-5.207968e+01	-1.952798e+03
1.100000e-07	-7.113526e-06	-2.979059e-08	-5.186459e+01	-1.950633e+03
1.200000e-07	-7.081596e-06	-2.975367e-08	-5.163179e+01	-1.948359e+03
1.300000e-07	-7.047181e-06	-2.971080e-08	-5.138088e+01	-1.946002e+03
1.400000e-07	-7.010632e-06	-2.961516e-08	-5.111440e+01	-1.943573e+03
1.500000e-07	-6.972285e-06	-2.957087e-08	-5.083481e+01	-1.941062e+03
1.600000e-07	-6.931760e-06	-2.966311e-08	-5.053934e+01	-1.938436e+03
1.700000e-07	-6.888765e-06	-2.951534e-08	-5.022587e+01	-1.935636e+03
1.800000e-07	-6.843427e-06	-2.944656e-08	-4.989531e+01	-1.932594e+03
1.900000e-07	-6.795509e-06	-2.946393e-08	-4.954594e+01	-1.929242e+03
2.000000e-07	-6.744741e-06	-2.931874e-08	-4.917579e+01	-1.925532e+03
2.100000e-07	-6.691318e-06	-2.929905e-08	-4.878629e+01	-1.921441e+03
2.200000e-07	-6.635387e-06	-2.921604e-08	-4.837850e+01	-1.916982e+03
2.300000e-07	-6.576950e-06	-2.912541e-08	-4.795243e+01	-1.912194e+03
2.400000e-07	-6.516066e-06	-2.908176e-08	-4.750853e+01	-1.907133e+03
2.500000e-07	-6.452765e-06	-2.898470e-08	-4.704700e+01	-1.901858e+03
2.600000e-07	-6.386968e-06	-2.892162e-08	-4.656727e+01	-1.896407e+03
2.700000e-07	-6.318762e-06	-2.883473e-08	-4.606998e+01	-1.890794e+03
2.800000e-07	-6.248290e-06	-2.874184e-08	-4.555617e+01	-1.884996e+03
2.900000e-07	-6.175385e-06	-2.863186e-08	-4.502463e+01	-1.878967e+03
3.000000e-07	-6.099932e-06	-2.852819e-08	-4.447450e+01	-1.872641e+03
3.100000e-07	-6.021939e-06	-2.844380e-08	-4.390585e+01	-1.865957e+03
3.200000e-07	-5.941467e-06	-2.831621e-08	-4.331914e+01	-1.858868e+03
3.300000e-07	-5.858865e-06	-2.822737e-08	-4.271688e+01	-1.851359e+03
3.400000e-07	-5.774372e-06	-2.808775e-08	-4.210085e+01	-1.843439e+03
3.500000e-07	-5.688023e-06	-2.795576e-08	-4.147128e+01	-1.835142e+03
3.600000e-07	-5.599659e-06	-2.784208e-08	-4.082702e+01	-1.826510e+03
3.700000e-07	-5.509168e-06	-2.769783e-08	-4.016725e+01	-1.817576e+03
3.800000e-07	-5.416689e-06	-2.755896e-08	-3.949299e+01	-1.808351e+03
3.900000e-07	-5.322354e-06	-2.740834e-08	-3.880519e+01	-1.798814e+03
4.000000e-07	-5.226179e-06	-2.725929e-08	-3.810398e+01	-1.788917e+03
4.100000e-07	-5.128112e-06	-2.708168e-08	-3.738898e+01	-1.778592e+03
4.200000e-07	-5.028195e-06	-2.692282e-08	-3.666048e+01	-1.767771e+03
4.300000e-07	-4.926511e-06	-2.675068e-08	-3.591911e+01	-1.756395e+03
4.400000e-07	-4.823106e-06	-2.656263e-08	-3.516519e+01	-1.744432e+03
4.500000e-07	-4.718024e-06	-2.637098e-08	-3.439903e+01	-1.731878e+03
4.600000e-07	-4.611207e-06	-2.617342e-08	-3.362023e+01	-1.718751e+03
4.700000e-07	-4.502632e-06	-2.596912e-08	-3.282861e+01	-1.705079e+03
4.800000e-07	-4.392498e-06	-2.574982e-08	-3.202563e+01	-1.690882e+03
4.900000e-07	-4.280818e-06	-2.553014e-08	-3.121137e+01	-1.676157e+03
5.000000e-07	-4.167464e-06	-2.529172e-08	-3.038491e+01	-1.660868e+03
5.100000e-07	-4.052376e-06	-2.504104e-08	-2.954580e+01	-1.644949e+03
5.200000e-07	-3.935650e-06	-2.477697e-08	-2.869475e+01	-1.628312e+03
5.300000e-07	-3.817485e-06	-2.450953e-08	-2.783322e+01	-1.610864e+03
5.400000e-07	-3.697942e-06	-2.422817e-08	-2.696164e+01	-1.592523e+03
5.500000e-07	-3.576984e-06	-2.393176e-08	-2.607973e+01	-1.573234e+03
5.600000e-07	-3.454654e-06	-2.362502e-08	-2.518782e+01	-1.552967e+03
5.700000e-07	-3.330981e-06	-2.330207e-08	-2.428613e+01	-1.531714e+03
5.800000e-07	-3.206056e-06	-2.296242e-08	-2.337530e+01	-1.509469e+03
5.900000e-07	-3.080027e-06	-2.260411e-08	-2.245642e+01	-1.486211e+03
6.000000e-07	-2.952880e-06	-2.223231e-08	-2.152940e+01	-1.461881e+03
6.100000e-07	-2.824610e-06	-2.183847e-08	-2.059418e+01	-1.436374e+03
6.200000e-07	-2.695257e-06	-2.142529e-08	-1.965107e+01	-1.409540e+03
6.300000e-07	-2.564972e-06	-2.098777e-08	-1.870117e+01	-1.381194e+03
6.400000e-07	-2.433739e-06	-2.052576e-08	-1.774435e+01	-1.351142e+03
6.500000e-07	-2.301455e-06	-2.003739e-08	-1.677987e+01	-1.319199e+03
6.600000e-07	-2.168364e-06	-1.952064e-08	-1.580950e+01	-1.285203e+03
6.700000e-07	-2.034671e-06	-1.897379e-08	-1.483475e+01	-1.249021e+03
6.800000e-07	-1.900281e-06	-1.839026e-08	-1.385491e+01	-1.210538e+03
6.900000e-07	-1.765236e-06	-1.776872e-08	-1.287031e+01	-1.169632e+03
7.000000e-07	-1.629612e-06	-1.710461e-08	-1.188148e+01	-1.126150e+03
7.100000e-07	-1.493421e-06	-1.639580e-08	-1.088851e+01	-1.079892e+03
7.200000e-07	-1.356728e-06	-1.563689e-08	-9.891882e+00	-1.030608e+03
7.300000e-07	-1.219493e-06	-1.482918e-08	-8.891301e+00	-9.780223e+02
7.400000e-07	-1.081798e-06	-1.396801e-08	-7.887368e+00	-9.218802e+02
7.500000e-07	-9.437340e-07	-1.305394e-08	-6.880749e+00	-8.620127e+02
7.600000e-07	-8.053593e-07	-1.208970e-08	-5.871861e+00	-7.984037e+02
7.700000e-07	-6.667000e-07	-1.107114e-08	-4.860898e+00	-7.312428e+02
7.800000e-07	-5.277804e-07	-1.000209e-08	-3.848038e+00	-6.609470e+02
7.900000e-07	-3.886279e-07	-8.891216e-09	-2.833479e+00	-5.881391e+02
8.000000e-07	-2.492947e-07	-7.754296e-09	-1.817604e+00	-5.135814e+02
8.100000e-07	-1.098042e-07	-6.602301e-09	-8.005804e-01	-4.380712e+02
8.200000e-07	2.986184e-08	-5.447062e-09	2.177221e-01	-3.623172e+02
8.300000e-07	1.695286e-07	-4.297960e-09	1.236030e+00	-2.868218e+02
8.400000e-07	3.091116e-07	-3.156613e-09	2.253727e+00	-2.117948e+02
8.500000e-07	4.486003e-07	-2.020807e-09	3.270737e+00	-1.371194e+02
8.600000e-07	5.879251e-07	-8.824216e-10	4.286552e+00	-6.238359e+01
8.700000e-07	7.270046e-07	2.662651e-10	5.300578e+00	1.302772e+01
8.800000e-07	8.657403e-07	1.434287e-09	6.312098e+00	8.979256e+01
8.900000e-07	1.004186e-06	2.630306e-09	7.321500e+00	1.684917e+02
9.000000e-07	1.142322e-06	3.859829e-09	8.328654e+00	2.494588e+02
9.100000e-07	1.279998e-06	5.123110e-09	9.332444e+00	3.326709e+02
9.200000e-07	1.417145e-06	6.416050e-09	1.033238e+01	4.177013e+02
9.300000e-07	1.553706e-06	7.727483e-09	1.132804e+01	5.037438e+02
9.400000e-07	1.689735e-06	9.040838e-09	1.231983e+01	5.897034e+02
9.500000e-07	1.825272e-06	1.033472e-08	1.330803e+01	6.743349e+02
9.600000e-07	1.960169e-06	1.158542e-08	1.429156e+01	7.564018e+02
9.700000e-07	2.094273e-06	1.277459e-08	1.526931e+01	8.348261e+02
9.800000e-07	2.227547e-06	1.389076e-08	1.624101e+01	9.088023e+02
9.900000e-07	2.360036e-06	1.493094e-08	1.720698e+01	9.778581e+02
1.000000e-06	2.491713e-06	1.589906e-08	1.816704e+01	1.041857e+03
1.010000e-06	2.622437e-06	1.679605e-08	1.912014e+01	1.100948e+03
1.020000e-06	2.752022e-06	1.762442e-08	2.006494e+01	1.155485e+03
1.030000e-06	2.880507e-06	1.838968e-08	2.100173e+01	1.205921e+03
1.040000e-06	3.007995e-06	1.909891e-08	2.193124e+01	1.252727e+03
1.050000e-06	3.134372e-06	1.976211e-08	2.285265e+01	1.296318e+03
1.060000e-06	3.259675e-06	2.038296e-08	2.376624e+01	1.337024e+03
1.070000e-06	3.383965e-06	2.096156e-08	2.467243e+01	1.375086e+03
1.080000e-06	3.507030e-06	2.149885e-08	2.556970e+01	1.410675e+03
1.090000e-06	3.628679e-06	2.199769e-08	2.645663e+01	1.443932e+03
1.100000e-06	3.748990e-06	2.246464e-08	2.733382e+01	1.474994e+03
1.110000e-06	3.868074e-06	2.290237e-08	2.820206e+01	1.504020e+03
1.120000e-06	3.985824e-06	2.331446e-08	2.906058e+01	1.531196e+03
1.130000e-06	4.102069e-06	2.370737e-08	2.990811e+01	1.556723e+03
1.140000e-06	4.216639e-06	2.407767e-08	3.074345e+01	1.580800e+03
1.150000e-06	4.329564e-06	2.442557e-08	3.156678e+01	1.603597e+03
1.160000e-06	4.440914e-06	2.475471e-08	3.237863e+01	1.625245e+03
1.170000e-06	4.550694e-06	2.506751e-08	3.317903e+01	1.645824e+03
1.180000e-06	4.659001e-06	2.536219e-08	3.396870e+01	1.665374e+03
1.190000e-06	4.765655e-06	2.563972e-08	3.474631e+01	1.683907e+03
1.200000e-06	4.870457e-06	2.590227e-08	3.551042e+01	1.701429e+03
1.210000e-06	4.973490e-06	2.615053e-08	3.626163e+01	1.717960e+03
1.220000e-06	5.074796e-06	2.638723e-08	3.700025e+01	1.733544e+03
1.230000e-06	5.174290e-06	2.661321e-08	3.772566e+01	1.748252e+03
1.240000e-06	5.271809e-06	2.682780e-08	3.843667e+01	1.762172e+03
1.250000e-06	5.367328e-06	2.702942e-08	3.913309e+01	1.775398e+03
1.260000e-06	5.460989e-06	2.721931e-08	3.981597e+01	1.788011e+03
1.270000e-06	5.552763e-06	2.739971e-08	4.048510e+01	1.800072e+03
1.280000e-06	5.642425e-06	2.757300e-08	4.113883e+01	1.811607e+03
1.290000e-06	5.729966e-06	2.773847e-08	4.177708e+01	1.822620e+03
1.300000e-06	5.815518e-06	2.789625e-08	4.240084e+01	1.833094e+03
1.310000e-06	5.899100e-06	2.804677e-08	4.301024e+01	1.843011e+03
1.320000e-06	5.980564e-06	2.819006e-08	4.360419e+01	1.852359e+03
1.330000e-06	6.059781e-06	2.832593e-08	4.418176e+01	1.861146e+03
1.340000e-06	6.136759e-06	2.845475e-08	4.474300e+01	1.869397e+03
1.350000e-06	6.211311e-06	2.857639e-08	4.528656e+01	1.877153e+03
1.360000e-06	6.283437e-06	2.868930e-08	4.581243e+01	1.884465e+03
1.370000e-06	6.353351e-06	2.879357e-08	4.632217e+01	1.891378e+03
1.380000e-06	6.421073e-06	2.889208e-08	4.681593e+01	1.897930e+03
1.390000e-06	6.486467e-06	2.898721e-08	4.729272e+01	1.904144e+03
1.400000e-06	6.549544e-06	2.907865e-08	4.775262e+01	1.910029e+03
1.410000e-06	6.610471e-06	2.916326e-08	4.819683e+01	1.915587e+03
1.420000e-06	6.669083e-06	2.924080e-08	4.862417e+01	1.920818e+03
1.430000e-06	6.725312e-06	2.931386e-08	4.903414e+01	1.925728e+03
1.440000e-06	6.779101e-06	2.938317e-08	4.942631e+01	1.930330e+03
1.450000e-06	6.830102e-06	2.944946e-08	4.979816e+01	1.934644e+03
1.460000e-06	6.878309e-06	2.951266e-08	5.014963e+01	1.938694e+03
1.470000e-06	6.924091e-06	2.957228e-08	5.048343e+01	1.942500e+03
1.480000e-06	6.967522e-06	2.962832e-08	5.080009e+01	1.946073e+03
1.490000e-06	7.008364e-06	2.968012e-08	5.109786e+01	1.949412e+03
1.500000e-06	7.046699e-06	2.972720e-08	5.137736e+01	1.952506e+03
1.510000e-06	7.082703e-06	2.976942e-08	5.163987e+01	1.955335e+03
1.520000e-06	7.116173e-06	2.980640e-08	5.188390e+01	1.957881e+03
1.530000e-06	7.147074e-06	2.983944e-08	5.210919e+01	1.960132e+03
1.540000e-06	7.175563e-06	2.986974e-08	5.231691e+01	1.962090e+03
1.550000e-06	7.201399e-06	2.989785e-08	5.250528e+01	1.963771e+03
1.560000e-06	7.224465e-06	2.992299e-08	5.267345e+01	1.965200e+03
1.570000e-06	7.245087e-06	2.994240e-08	5.282381e+01	1.966409e+03
1.580000e-06	7.263211e-06	2.995734e-08	5.295595e+01	1.967426e+03
1.590000e-06	7.278549e-06	2.996956e-08	5.306778e+01	1.968269e+03
1.600000e-06	7.291112e-06	2.997909e-08	5.315937e+01	1.968945e+03
1.610000e-06	7.300782e-06	2.998697e-08	5.322988e+01	1.969447e+03
1.620000e-06	7.307666e-06	2.999315e-08	5.328007e+01	1.969760e+03
1.630000e-06	7.312073e-06	2.999708e-08	5.331220e+01	1.969870e+03
1.640000e-06	7.313856e-06	2.999891e-08	5.332520e+01	1.969767e+03
1.650000e-06	7.312997e-06	2.999548e-08	5.331894e+01	1.969449e+03
1.660000e-06	7.309822e-06	2.998020e-08	5.329579e+01	1.968929e+03
1.670000e-06	7.304217e-06	2.996957e-08	5.325492e+01	1.968224e+03
1.680000e-06	7.296072e-06	2.995750e-08	5.319553e+01	1.967354e+03
1.690000e-06	7.285542e-06	2.994343e-08	5.311876e+01	1.966334e+03
1.700000e-06	7.272460e-06	2.992978e-08	5.302338e+01	1.965172e+03
1.710000e-06	7.256844e-06	2.992049e-08	5.290953e+01	1.963863e+03
1.720000e-06	7.238997e-06	2.991697e-08	5.277940e+01	1.962398e+03
1.730000e-06	7.219079e-06	2.984968e-08	5.263418e+01	1.960765e+03
1.740000e-06	7.196460e-06	2.975153e-08	5.246927e+01	1.958960e+03
1.750000e-06	7.170430e-06	2.978019e-08	5.227948e+01	1.956989e+03
1.760000e-06	7.141120e-06	2.978214e-08	5.206578e+01	1.954870e+03
1.770000e-06	7.109172e-06	2.972033e-08	5.183285e+01	1.952631e+03
1.780000e-06	7.075220e-06	2.974435e-08	5.158531e+01	1.950300e+03
1.790000e-06	7.039625e-06	2.977395e-08	5.132579e+01	1.947896e+03
1.800000e-06	7.002367e-06	2.958985e-08	5.105414e+01	1.945416e+03
1.810000e-06	6.962671e-06	2.961939e-08	5.076471e+01	1.942836e+03
1.820000e-06	6.920387e-06	2.963763e-08	5.045642e+01	1.940105e+03
1.830000e-06	6.875920e-06	2.948868e-08	5.013222e+01	1.937157e+03
1.840000e-06	6.828935e-06	2.958920e-08	4.978965e+01	1.933922e+03
1.850000e-06	6.779330e-06	2.943093e-08	4.942798e+01	1.930343e+03
1.860000e-06	6.727042e-06	2.938455e-08	4.904675e+01	1.926388e+03
1.870000e-06	6.672027e-06	2.937499e-08	4.864563e+01	1.922056e+03
1.880000e-06	6.614653e-06	2.919548e-08	4.822732e+01	1.917379e+03
1.890000e-06	6.554721e-06	2.921895e-08	4.779036e+01	1.912408e+03
1.900000e-06	6.492147e-06	2.907903e-08	4.733414e+01	1.907203e+03
1.910000e-06	6.427137e-06	2.901158e-08	4.686015e+01	1.901811e+03
1.920000e-06	6.359764e-06	2.895768e-08	4.636893e+01	1.896255e+03
1.930000e-06	6.289956e-06	2.883967e-08	4.585996e+01	1.890527e+03
1.940000e-06	6.217652e-06	2.881558e-08	4.533280e+01	1.884587e+03
1.950000e-06	6.143019e-06	2.864509e-08	4.478864e+01	1.878374e+03
1.960000e-06	6.065879e-06	2.857731e-08	4.422622e+01	1.871823e+03
1.970000e-06	5.986252e-06	2.843902e-08	4.364566e+01	1.864882e+03
1.980000e-06	5.904526e-06	2.832908e-08	4.304980e+01	1.857522e+03
1.990000e-06	5.820809e-06	2.825425e-08	4.243942e+01	1.849745e+03
2.000000e-06	5.734985e-06	2.809964e-08	4.181368e+01	1.841578e+03
2.010000e-06	5.646954e-06	2.800884e-08	4.117184e+01	1.833060e+03
2.020000e-06	5.556940e-06	2.784336e-08	4.051555e+01	1.824231e+03
2.030000e-06	5.465057e-06	2.771335e-08	3.984564e+01	1.815109e+03
2.040000e-06	5.371167e-06	2.756099e-08	3.916109e+01	1.805687e+03
2.050000e-06	5.275297e-06	2.742613e-08	3.846210e+01	1.795925e+03
2.060000e-06	5.177675e-06	2.727411e-08	3.775034e+01	1.785761e+03
2.070000e-06	5.078342e-06	2.709761e-08	3.702610e+01	1.775124e+03
2.080000e-06	4.977184e-06	2.693851e-08	3.628857e+01	1.763950e+03
2.090000e-06	4.874135e-06	2.675130e-08	3.553724e+01	1.752198e+03
2.100000e-06	4.769285e-06	2.657794e-08	3.477278e+01	1.739853e+03
2.110000e-06	4.662934e-06	2.637800e-08	3.399737e+01	1.726927e+03
2.120000e-06	4.555102e-06	2.618529e-08	3.321117e+01	1.713446e+03
2.130000e-06	4.445736e-06	2.596535e-08	3.241378e+01	1.699435e+03
2.140000e-06	4.334667e-06	2.574121e-08	3.160398e+01	1.684900e+03
2.150000e-06	4.221826e-06	2.550971e-08	3.078126e+01	1.669818e+03
2.160000e-06	4.107357e-06	2.527452e-08	2.994667e+01	1.654132e+03
2.170000e-06	3.991153e-06	2.502862e-08	2.909943e+01	1.637762e+03
2.180000e-06	3.873269e-06	2.476386e-08	2.823994e+01	1.620612e+03
2.190000e-06	3.753819e-06	2.449371e-08	2.736903e+01	1.602598e+03
2.200000e-06	3.632957e-06	2.420563e-08	2.648783e+01	1.583651e+03
2.210000e-06	3.510822e-06	2.390795e-08	2.559734e+01	1.563734e+03
2.220000e-06	3.387399e-06	2.359194e-08	2.469747e+01	1.542833e+03
2.230000e-06	3.262728e-06	2.326561e-08	2.378849e+01	1.520943e+03
2.240000e-06	3.136849e-06	2.291678e-08	2.287071e+01	1.498051e+03
2.250000e-06	3.009741e-06	2.255605e-08	2.194397e+01	1.474113e+03
2.260000e-06	2.881440e-06	2.217358e-08	2.100853e+01	1.449041e+03
2.270000e-06	2.752128e-06	2.177093e-08	2.006572e+01	1.422699e+03
2.280000e-06	2.621898e-06	2.134417e-08	1.911621e+01	1.394915e+03
2.290000e-06	2.490752e-06	2.089363e-08	1.816003e+01	1.365494e+03
2.300000e-06	2.358750e-06	2.041793e-08	1.719760e+01	1.334245e+03
2.310000e-06	2.225927e-06	1.991400e-08	1.622920e+01	1.300998e+03
2.320000e-06	2.092343e-06	1.937999e-08	1.525524e+01	1.265610e+03
2.330000e-06	1.958053e-06	1.880745e-08	1.427613e+01	1.227961e+03
2.340000e-06	1.823046e-06	1.819768e-08	1.329180e+01	1.187935e+03
2.350000e-06	1.687321e-06	1.754811e-08	1.230223e+01	1.145392e+03
2.360000e-06	1.550992e-06	1.686030e-08	1.130825e+01	1.100152e+03
2.370000e-06	1.414224e-06	1.612580e-08	1.031108e+01	1.051979e+03
2.380000e-06	1.277049e-06	1.534017e-08	9.310946e+00	1.000603e+03
2.390000e-06	1.139453e-06	1.450146e-08	8.307730e+00	9.457559e+02
2.400000e-06	1.001466e-06	1.360642e-08	7.301674e+00	8.872293e+02
2.410000e-06	8.631148e-07	1.265561e-08	6.292955e+00	8.249456e+02
2.420000e-06	7.244470e-07	1.165202e-08	5.281931e+00	7.590164e+02
2.430000e-06	5.855274e-07	1.060081e-08	4.269070e+00	6.897777e+02
2.440000e-06	4.464026e-07	9.508736e-09	3.254714e+00	6.177841e+02
2.450000e-06	3.071521e-07	8.380357e-09	2.239441e+00	5.437584e+02
2.460000e-06	1.677622e-07	7.225485e-09	1.223151e+00	4.684990e+02
2.470000e-06	2.827710e-08	6.060237e-09	2.061679e-01	3.927606e+02
2.480000e-06	-1.111962e-07	4.900427e-09	-8.107295e-01	3.171315e+02
2.490000e-06	-2.506592e-07	3.751086e-09	-1.827552e+00	2.419329e+02
2.500000e-06	-3.900777e-07	2.609168e-09	-2.844050e+00	1.671646e+02
2.510000e-06	-5.293933e-07	1.469512e-09	-3.859797e+00	9.251231e+01
2.520000e-06	-6.685552e-07	3.217447e-10	-4.874425e+00	1.741942e+01
2.530000e-06	-8.075101e-07	-8.431578e-10	-5.887542e+00	-5.878758e+01
2.540000e-06	-9.462019e-07	-2.033645e-09	-6.898742e+00	-1.367426e+02
2.550000e-06	-1.084536e-06	-3.255764e-09	-7.907335e+00	-2.168829e+02
2.560000e-06	-1.222412e-06	-4.512701e-09	-8.912587e+00	-2.993217e+02
2.570000e-06	-1.359808e-06	-5.803684e-09	-9.914336e+00	-3.837776e+02
2.580000e-06	-1.496738e-06	-7.118351e-09	-1.091269e+01	-4.695726e+02
2.590000e-06	-1.633192e-06	-8.440411e-09	-1.190757e+01	-5.557011e+02
2.600000e-06	-1.769073e-06	-9.747200e-09	-1.289828e+01	-6.409535e+02
2.610000e-06	-1.904258e-06	-1.101984e-08	-1.388391e+01	-7.240719e+02
2.620000e-06	-2.038634e-06	-1.224114e-08	-1.486365e+01	-8.039064e+02
2.630000e-06	-2.172051e-06	-1.339470e-08	-1.583639e+01	-8.795441e+02
2.640000e-06	-2.304590e-06	-1.447509e-08	-1.680273e+01	-9.503904e+02
2.650000e-06	-2.436432e-06	-1.548266e-08	-1.776398e+01	-1.016192e+03
2.660000e-06	-2.567484e-06	-1.641824e-08	-1.871948e+01	-1.077005e+03
2.670000e-06	-2.697505e-06	-1.728381e-08	-1.966746e+01	-1.133120e+03
2.680000e-06	-2.826494e-06	-1.808473e-08	-2.060792e+01	-1.184966e+03
2.690000e-06	-2.954548e-06	-1.882520e-08	-2.154156e+01	-1.233018e+03
2.700000e-06	-3.081545e-06	-1.951141e-08	-2.246749e+01	-1.277715e+03
2.710000e-06	-3.207307e-06	-2.014994e-08	-2.338442e+01	-1.319421e+03
2.720000e-06	-3.331886e-06	-2.074705e-08	-2.429273e+01	-1.358405e+03
2.730000e-06	-3.455330e-06	-2.130667e-08	-2.519275e+01	-1.394861e+03
2.740000e-06	-3.577461e-06	-2.182798e-08	-2.608321e+01	-1.428936e+03
2.750000e-06	-3.698309e-06	-2.231384e-08	-2.696431e+01	-1.460766e+03
2.760000e-06	-3.817923e-06	-2.276829e-08	-2.783641e+01	-1.490500e+03
2.770000e-06	-3.936030e-06	-2.319394e-08	-2.869753e+01	-1.518315e+03
2.780000e-06	-4.052506e-06	-2.359474e-08	-2.954675e+01	-1.544408e+03
2.790000e-06	-4.167452e-06	-2.397518e-08	-3.038482e+01	-1.568982e+03
2.800000e-06	-4.280703e-06	-2.433568e-08	-3.121054e+01	-1.592219e+03
2.810000e-06	-4.392122e-06	-2.467386e-08	-3.202289e+01	-1.614266e+03
2.820000e-06	-4.501928e-06	-2.499236e-08	-3.282348e+01	-1.635222e+03
2.830000e-06	-4.610324e-06	-2.529519e-08	-3.361379e+01	-1.655138e+03
2.840000e-06	-4.717263e-06	-2.558475e-08	-3.439348e+01	-1.674034e+03
2.850000e-06	-4.822648e-06	-2.585802e-08	-3.516185e+01	-1.691916e+03
2.860000e-06	-4.926274e-06	-2.611388e-08	-3.591738e+01	-1.708798e+03
2.870000e-06	-5.027928e-06	-2.635601e-08	-3.665854e+01	-1.724715e+03
2.880000e-06	-5.127742e-06	-2.658729e-08	-3.738628e+01	-1.739726e+03
2.890000e-06	-5.225747e-06	-2.680920e-08	-3.810083e+01	-1.753918e+03
2.900000e-06	-5.321954e-06	-2.702020e-08	-3.880228e+01	-1.767382e+03
2.910000e-06	-5.416178e-06	-2.721971e-08	-3.948926e+01	-1.780207e+03
2.920000e-06	-5.508397e-06	-2.740938e-08	-4.016163e+01	-1.792461e+03
2.930000e-06	-5.598730e-06	-2.758999e-08	-4.082024e+01	-1.804183e+03
2.940000e-06	-5.687059e-06	-2.776036e-08	-4.146425e+01	-1.815384e+03
