# Temperatura_=_47.28
# Concentracion g/m^3_=_28200.0
# C_Vs_to_Am_M_A/Vsm_=_65563218390.804596
# pendiente_HvsI_1/m_=_3716.3
# ordenada_HvsI_A/m_=_1297.0
# frecuencia_Hz_=_302374.1682901498

Tiempo_(s)	Campo_(V.s)	Magnetizacion_(V.s)	Campo_(kA/m)	Magnetizacion_(A/m)
0.000000e+00	-7.307277e-06	-3.003687e-08	-5.318883e+01	-1.966823e+03
1.000000e-08	-7.303151e-06	-3.003188e-08	-5.315879e+01	-1.966261e+03
2.000000e-08	-7.296682e-06	-3.002066e-08	-5.311171e+01	-1.965524e+03
3.000000e-08	-7.287781e-06	-3.000745e-08	-5.304691e+01	-1.964632e+03
4.000000e-08	-7.276259e-06	-2.999319e-08	-5.296305e+01	-1.963601e+03
5.000000e-08	-7.262050e-06	-2.997554e-08	-5.285962e+01	-1.962433e+03
6.000000e-08	-7.245246e-06	-2.995246e-08	-5.273731e+01	-1.961118e+03
7.000000e-08	-7.226235e-06	-2.992397e-08	-5.259893e+01	-1.959640e+03
8.000000e-08	-7.205054e-06	-2.991488e-08	-5.244475e+01	-1.957985e+03
9.000000e-08	-7.181261e-06	-2.992123e-08	-5.227157e+01	-1.956151e+03
1.000000e-07	-7.154538e-06	-2.987504e-08	-5.207706e+01	-1.954154e+03
1.100000e-07	-7.125045e-06	-2.980836e-08	-5.186238e+01	-1.952023e+03
1.200000e-07	-7.093075e-06	-2.976775e-08	-5.162967e+01	-1.949800e+03
1.300000e-07	-7.058652e-06	-2.972568e-08	-5.137911e+01	-1.947520e+03
1.400000e-07	-7.022066e-06	-2.964732e-08	-5.111281e+01	-1.945203e+03
1.500000e-07	-6.983613e-06	-2.960750e-08	-5.083291e+01	-1.942841e+03
1.600000e-07	-6.943020e-06	-2.963304e-08	-5.053744e+01	-1.940392e+03
1.700000e-07	-6.899967e-06	-2.953929e-08	-5.022406e+01	-1.937786e+03
1.800000e-07	-6.854510e-06	-2.947983e-08	-4.989319e+01	-1.934936e+03
1.900000e-07	-6.806477e-06	-2.945625e-08	-4.954356e+01	-1.931759e+03
2.000000e-07	-6.755570e-06	-2.936282e-08	-4.917301e+01	-1.928192e+03
2.100000e-07	-6.701982e-06	-2.931734e-08	-4.878295e+01	-1.924207e+03
2.200000e-07	-6.645924e-06	-2.924383e-08	-4.837491e+01	-1.919817e+03
2.300000e-07	-6.587416e-06	-2.917706e-08	-4.794904e+01	-1.915069e+03
2.400000e-07	-6.526486e-06	-2.910694e-08	-4.750554e+01	-1.910033e+03
2.500000e-07	-6.463125e-06	-2.901457e-08	-4.704434e+01	-1.904780e+03
2.600000e-07	-6.397283e-06	-2.895337e-08	-4.656508e+01	-1.899358e+03
2.700000e-07	-6.328971e-06	-2.887629e-08	-4.606785e+01	-1.893786e+03
2.800000e-07	-6.258338e-06	-2.876862e-08	-4.555372e+01	-1.888043e+03
2.900000e-07	-6.185398e-06	-2.866295e-08	-4.502279e+01	-1.882075e+03
3.000000e-07	-6.109883e-06	-2.857586e-08	-4.447313e+01	-1.875812e+03
3.100000e-07	-6.031755e-06	-2.846644e-08	-4.390445e+01	-1.869186e+03
3.200000e-07	-5.951232e-06	-2.834740e-08	-4.331833e+01	-1.862148e+03
3.300000e-07	-5.868563e-06	-2.826569e-08	-4.271659e+01	-1.854684e+03
3.400000e-07	-5.783925e-06	-2.814611e-08	-4.210052e+01	-1.846809e+03
3.500000e-07	-5.697404e-06	-2.800544e-08	-4.147075e+01	-1.838564e+03
3.600000e-07	-5.608887e-06	-2.788253e-08	-4.082644e+01	-1.829996e+03
3.700000e-07	-5.518287e-06	-2.774853e-08	-4.016697e+01	-1.821138e+03
3.800000e-07	-5.425694e-06	-2.760464e-08	-3.949300e+01	-1.812000e+03
3.900000e-07	-5.331166e-06	-2.745949e-08	-3.880494e+01	-1.802554e+03
4.000000e-07	-5.234752e-06	-2.731340e-08	-3.810316e+01	-1.792746e+03
4.100000e-07	-5.136503e-06	-2.714389e-08	-3.738801e+01	-1.782501e+03
4.200000e-07	-5.036441e-06	-2.697218e-08	-3.665967e+01	-1.771748e+03
4.300000e-07	-4.934633e-06	-2.680389e-08	-3.591862e+01	-1.760433e+03
4.400000e-07	-4.831068e-06	-2.662546e-08	-3.516479e+01	-1.748535e+03
4.500000e-07	-4.725735e-06	-2.643541e-08	-3.439808e+01	-1.736060e+03
4.600000e-07	-4.618720e-06	-2.624064e-08	-3.361913e+01	-1.723039e+03
4.700000e-07	-4.510035e-06	-2.603996e-08	-3.282802e+01	-1.709505e+03
4.800000e-07	-4.399777e-06	-2.582308e-08	-3.202547e+01	-1.695477e+03
4.900000e-07	-4.287934e-06	-2.560104e-08	-3.121138e+01	-1.680940e+03
5.000000e-07	-4.174380e-06	-2.537320e-08	-3.038483e+01	-1.665844e+03
5.100000e-07	-4.059157e-06	-2.512929e-08	-2.954614e+01	-1.650104e+03
5.200000e-07	-3.942310e-06	-2.486493e-08	-2.869562e+01	-1.633619e+03
5.300000e-07	-3.823987e-06	-2.459293e-08	-2.783436e+01	-1.616291e+03
5.400000e-07	-3.704254e-06	-2.431358e-08	-2.696284e+01	-1.598044e+03
5.500000e-07	-3.583061e-06	-2.402015e-08	-2.608068e+01	-1.578839e+03
5.600000e-07	-3.460495e-06	-2.371618e-08	-2.518854e+01	-1.558671e+03
5.700000e-07	-3.336596e-06	-2.339912e-08	-2.428669e+01	-1.537556e+03
5.800000e-07	-3.211439e-06	-2.306490e-08	-2.337569e+01	-1.515507e+03
5.900000e-07	-3.085223e-06	-2.271166e-08	-2.245698e+01	-1.492508e+03
6.000000e-07	-2.957954e-06	-2.234287e-08	-2.153061e+01	-1.468492e+03
6.100000e-07	-2.829489e-06	-2.195520e-08	-2.059552e+01	-1.443336e+03
6.200000e-07	-2.699876e-06	-2.154530e-08	-1.965209e+01	-1.416863e+03
6.300000e-07	-2.569306e-06	-2.111115e-08	-1.870168e+01	-1.388864e+03
6.400000e-07	-2.437865e-06	-2.065325e-08	-1.774494e+01	-1.359129e+03
6.500000e-07	-2.305470e-06	-2.017046e-08	-1.678125e+01	-1.327472e+03
6.600000e-07	-2.172217e-06	-1.965931e-08	-1.581132e+01	-1.293748e+03
6.700000e-07	-2.038331e-06	-1.911725e-08	-1.483678e+01	-1.257853e+03
6.800000e-07	-1.903839e-06	-1.853896e-08	-1.385782e+01	-1.219699e+03
6.900000e-07	-1.768680e-06	-1.792224e-08	-1.287402e+01	-1.179189e+03
7.000000e-07	-1.632801e-06	-1.726434e-08	-1.188497e+01	-1.136172e+03
7.100000e-07	-1.496249e-06	-1.656330e-08	-1.089102e+01	-1.090425e+03
7.200000e-07	-1.359149e-06	-1.581397e-08	-9.893085e+00	-1.041647e+03
7.300000e-07	-1.221560e-06	-1.501166e-08	-8.891595e+00	-9.894910e+02
7.400000e-07	-1.083518e-06	-1.415464e-08	-7.886803e+00	-9.336179e+02
7.500000e-07	-9.451006e-07	-1.324148e-08	-6.879278e+00	-8.737772e+02
7.600000e-07	-8.063684e-07	-1.227316e-08	-5.869463e+00	-8.098848e+02
7.700000e-07	-6.673474e-07	-1.124825e-08	-4.857545e+00	-7.420841e+02
7.800000e-07	-5.280809e-07	-1.016820e-08	-3.843840e+00	-6.707678e+02
7.900000e-07	-3.886416e-07	-9.038641e-09	-2.828877e+00	-5.965511e+02
8.000000e-07	-2.490733e-07	-7.872261e-09	-1.812975e+00	-5.201937e+02
8.100000e-07	-1.093964e-07	-6.683171e-09	-7.962834e-01	-4.424832e+02
8.200000e-07	3.041349e-08	-5.483503e-09	2.213762e-01	-3.641030e+02
8.300000e-07	1.703040e-07	-4.283915e-09	1.239623e+00	-2.855124e+02
8.400000e-07	3.101201e-07	-3.087674e-09	2.257328e+00	-2.068682e+02
8.500000e-07	4.497856e-07	-1.889329e-09	3.273937e+00	-1.280086e+02
8.600000e-07	5.893027e-07	-6.806136e-10	4.289466e+00	-4.850720e+01
8.700000e-07	7.286157e-07	5.438015e-10	5.303510e+00	3.221044e+01
8.800000e-07	8.676814e-07	1.793901e-09	6.315752e+00	1.147085e+02
8.900000e-07	1.006483e-06	3.078784e-09	7.326077e+00	1.993737e+02
9.000000e-07	1.144942e-06	4.400506e-09	8.333903e+00	2.862746e+02
9.100000e-07	1.282984e-06	5.753771e-09	9.338689e+00	3.750761e+02
9.200000e-07	1.420586e-06	7.127712e-09	1.034028e+01	4.650292e+02
9.300000e-07	1.557641e-06	8.503820e-09	1.133789e+01	5.550389e+02
9.400000e-07	1.694012e-06	9.858385e-09	1.233052e+01	6.437956e+02
9.500000e-07	1.829624e-06	1.116992e-08	1.331762e+01	7.299449e+02
9.600000e-07	1.964472e-06	1.241781e-08	1.429917e+01	8.122612e+02
9.700000e-07	2.098604e-06	1.358729e-08	1.527550e+01	8.897922e+02
9.800000e-07	2.232019e-06	1.467121e-08	1.624661e+01	9.619497e+02
9.900000e-07	2.364661e-06	1.567371e-08	1.721209e+01	1.028534e+03
1.000000e-06	2.496470e-06	1.660164e-08	1.817152e+01	1.089691e+03
1.010000e-06	2.627383e-06	1.745837e-08	1.912442e+01	1.145826e+03
1.020000e-06	2.757281e-06	1.824792e-08	2.006993e+01	1.197487e+03
1.030000e-06	2.886076e-06	1.897499e-08	2.100741e+01	1.245251e+03
1.040000e-06	3.013692e-06	1.964752e-08	2.193632e+01	1.289632e+03
1.050000e-06	3.140194e-06	2.027342e-08	2.285711e+01	1.331036e+03
1.060000e-06	3.265672e-06	2.085856e-08	2.377045e+01	1.369740e+03
1.070000e-06	3.390082e-06	2.140444e-08	2.467601e+01	1.405926e+03
1.080000e-06	3.513305e-06	2.191285e-08	2.557294e+01	1.439717e+03
1.090000e-06	3.635195e-06	2.238708e-08	2.646016e+01	1.471225e+03
1.100000e-06	3.755717e-06	2.283204e-08	2.733743e+01	1.500592e+03
1.110000e-06	3.874912e-06	2.325056e-08	2.820504e+01	1.527998e+03
1.120000e-06	3.992776e-06	2.364382e-08	2.906295e+01	1.553660e+03
1.130000e-06	4.109213e-06	2.401546e-08	2.991049e+01	1.577804e+03
1.140000e-06	4.224004e-06	2.436603e-08	3.074604e+01	1.600637e+03
1.150000e-06	4.337040e-06	2.469785e-08	3.156882e+01	1.622322e+03
1.160000e-06	4.448463e-06	2.501087e-08	3.237985e+01	1.642959e+03
1.170000e-06	4.558359e-06	2.530612e-08	3.317977e+01	1.662590e+03
1.180000e-06	4.666784e-06	2.558591e-08	3.396898e+01	1.681216e+03
1.190000e-06	4.773593e-06	2.584924e-08	3.474643e+01	1.698823e+03
1.200000e-06	4.878557e-06	2.609914e-08	3.551045e+01	1.715409e+03
1.210000e-06	4.981764e-06	2.633625e-08	3.626169e+01	1.731007e+03
1.220000e-06	5.083286e-06	2.656164e-08	3.700065e+01	1.745686e+03
1.230000e-06	5.183035e-06	2.677577e-08	3.772671e+01	1.759550e+03
1.240000e-06	5.280821e-06	2.697775e-08	3.843849e+01	1.772716e+03
1.250000e-06	5.376518e-06	2.716917e-08	3.913505e+01	1.785292e+03
1.260000e-06	5.470258e-06	2.735036e-08	3.981737e+01	1.797357e+03
1.270000e-06	5.562207e-06	2.752346e-08	4.048666e+01	1.808948e+03
1.280000e-06	5.652106e-06	2.768991e-08	4.114102e+01	1.820061e+03
1.290000e-06	5.739805e-06	2.784960e-08	4.177938e+01	1.830663e+03
1.300000e-06	5.825483e-06	2.800187e-08	4.240302e+01	1.840708e+03
1.310000e-06	5.909194e-06	2.814682e-08	4.301234e+01	1.850161e+03
1.320000e-06	5.990786e-06	2.828551e-08	4.360624e+01	1.859011e+03
1.330000e-06	6.070122e-06	2.841658e-08	4.418372e+01	1.867282e+03
1.340000e-06	6.147240e-06	2.853891e-08	4.474505e+01	1.875026e+03
1.350000e-06	6.221975e-06	2.865265e-08	4.528904e+01	1.882310e+03
1.360000e-06	6.294323e-06	2.875818e-08	4.581565e+01	1.889208e+03
1.370000e-06	6.364429e-06	2.885682e-08	4.632595e+01	1.895774e+03
1.380000e-06	6.432311e-06	2.895016e-08	4.682005e+01	1.902043e+03
1.390000e-06	6.497798e-06	2.903969e-08	4.729672e+01	1.908020e+03
1.400000e-06	6.560854e-06	2.912506e-08	4.775570e+01	1.913694e+03
1.410000e-06	6.621785e-06	2.920566e-08	4.819921e+01	1.919043e+03
1.420000e-06	6.680523e-06	2.928236e-08	4.862676e+01	1.924053e+03
1.430000e-06	6.736862e-06	2.935482e-08	4.903684e+01	1.928724e+03
1.440000e-06	6.790728e-06	2.942162e-08	4.942893e+01	1.933077e+03
1.450000e-06	6.841836e-06	2.948300e-08	4.980094e+01	1.937146e+03
1.460000e-06	6.890151e-06	2.954199e-08	5.015261e+01	1.940972e+03
1.470000e-06	6.935995e-06	2.959977e-08	5.048631e+01	1.944590e+03
1.480000e-06	6.979498e-06	2.965553e-08	5.080296e+01	1.948020e+03
1.490000e-06	7.020445e-06	2.970713e-08	5.110101e+01	1.951257e+03
1.500000e-06	7.058809e-06	2.975260e-08	5.138026e+01	1.954280e+03
1.510000e-06	7.094826e-06	2.979294e-08	5.164242e+01	1.957053e+03
1.520000e-06	7.128331e-06	2.982908e-08	5.188630e+01	1.959539e+03
1.530000e-06	7.159220e-06	2.986193e-08	5.211113e+01	1.961714e+03
1.540000e-06	7.187670e-06	2.989045e-08	5.231822e+01	1.963575e+03
1.550000e-06	7.213504e-06	2.991490e-08	5.250626e+01	1.965138e+03
1.560000e-06	7.236577e-06	2.993682e-08	5.267421e+01	1.966441e+03
1.570000e-06	7.257152e-06	2.995584e-08	5.282397e+01	1.967528e+03
1.580000e-06	7.275268e-06	2.997258e-08	5.295583e+01	1.968442e+03
1.590000e-06	7.290660e-06	2.998650e-08	5.306787e+01	1.969212e+03
1.600000e-06	7.303206e-06	2.999782e-08	5.315919e+01	1.969846e+03
1.610000e-06	7.312853e-06	3.000509e-08	5.322941e+01	1.970337e+03
1.620000e-06	7.319753e-06	3.000822e-08	5.327964e+01	1.970661e+03
1.630000e-06	7.324169e-06	3.001013e-08	5.331178e+01	1.970795e+03
1.640000e-06	7.326013e-06	3.001193e-08	5.332520e+01	1.970720e+03
1.650000e-06	7.325268e-06	3.000952e-08	5.331978e+01	1.970431e+03
1.660000e-06	7.322096e-06	2.999988e-08	5.329669e+01	1.969938e+03
1.670000e-06	7.316488e-06	2.999037e-08	5.325587e+01	1.969260e+03
1.680000e-06	7.308392e-06	2.997998e-08	5.319694e+01	1.968420e+03
1.690000e-06	7.297843e-06	2.996739e-08	5.312015e+01	1.967438e+03
1.700000e-06	7.284716e-06	2.995511e-08	5.302460e+01	1.966318e+03
1.710000e-06	7.269068e-06	2.994230e-08	5.291071e+01	1.965057e+03
1.720000e-06	7.251252e-06	2.992793e-08	5.278102e+01	1.963638e+03
1.730000e-06	7.231303e-06	2.986809e-08	5.263582e+01	1.962046e+03
1.740000e-06	7.208628e-06	2.980285e-08	5.247077e+01	1.960275e+03
1.750000e-06	7.182613e-06	2.980265e-08	5.228141e+01	1.958333e+03
1.760000e-06	7.153303e-06	2.979283e-08	5.206806e+01	1.956245e+03
1.770000e-06	7.121310e-06	2.974877e-08	5.183519e+01	1.954049e+03
1.780000e-06	7.087273e-06	2.975445e-08	5.158744e+01	1.951785e+03
1.790000e-06	7.051564e-06	2.976436e-08	5.132752e+01	1.949480e+03
1.800000e-06	7.014180e-06	2.967002e-08	5.105540e+01	1.947137e+03
1.810000e-06	6.974396e-06	2.967524e-08	5.076582e+01	1.944725e+03
1.820000e-06	6.932019e-06	2.966404e-08	5.045736e+01	1.942183e+03
1.830000e-06	6.887379e-06	2.958811e-08	5.013244e+01	1.939430e+03
1.840000e-06	6.840256e-06	2.959512e-08	4.978943e+01	1.936378e+03
1.850000e-06	6.790512e-06	2.950029e-08	4.942735e+01	1.932955e+03
1.860000e-06	6.738037e-06	2.945146e-08	4.904539e+01	1.929119e+03
1.870000e-06	6.682849e-06	2.938689e-08	4.864369e+01	1.924869e+03
1.880000e-06	6.625230e-06	2.928591e-08	4.822428e+01	1.920241e+03
1.890000e-06	6.565105e-06	2.926916e-08	4.778664e+01	1.915299e+03
1.900000e-06	6.502452e-06	2.916253e-08	4.733059e+01	1.910115e+03
1.910000e-06	6.437400e-06	2.908094e-08	4.685709e+01	1.904749e+03
1.920000e-06	6.369955e-06	2.900895e-08	4.636616e+01	1.899231e+03
1.930000e-06	6.300112e-06	2.891115e-08	4.585779e+01	1.893553e+03
1.940000e-06	6.227776e-06	2.883571e-08	4.533126e+01	1.887672e+03
1.950000e-06	6.152961e-06	2.872935e-08	4.478669e+01	1.881522e+03
1.960000e-06	6.075621e-06	2.864796e-08	4.422374e+01	1.875032e+03
1.970000e-06	5.995815e-06	2.851190e-08	4.364284e+01	1.868144e+03
1.980000e-06	5.913899e-06	2.839842e-08	4.304659e+01	1.860831e+03
1.990000e-06	5.829954e-06	2.830267e-08	4.243556e+01	1.853099e+03
2.000000e-06	5.743865e-06	2.817562e-08	4.180893e+01	1.844980e+03
2.010000e-06	5.655622e-06	2.806350e-08	4.116662e+01	1.836521e+03
2.020000e-06	5.565394e-06	2.792476e-08	4.050986e+01	1.827763e+03
2.030000e-06	5.473267e-06	2.778396e-08	3.983928e+01	1.818726e+03
2.040000e-06	5.379205e-06	2.762325e-08	3.915461e+01	1.809395e+03
2.050000e-06	5.283246e-06	2.747932e-08	3.845613e+01	1.799723e+03
2.060000e-06	5.185522e-06	2.734085e-08	3.774481e+01	1.789642e+03
2.070000e-06	5.086061e-06	2.718142e-08	3.702085e+01	1.779077e+03
2.080000e-06	4.984742e-06	2.701233e-08	3.628336e+01	1.767967e+03
2.090000e-06	4.881585e-06	2.683147e-08	3.553249e+01	1.756277e+03
2.100000e-06	4.776678e-06	2.664820e-08	3.476889e+01	1.744005e+03
2.110000e-06	4.670156e-06	2.645201e-08	3.399352e+01	1.731174e+03
2.120000e-06	4.562074e-06	2.625297e-08	3.320681e+01	1.717819e+03
2.130000e-06	4.452411e-06	2.604364e-08	3.240858e+01	1.703966e+03
2.140000e-06	4.341092e-06	2.581802e-08	3.159831e+01	1.689614e+03
2.150000e-06	4.228030e-06	2.558358e-08	3.077534e+01	1.674725e+03
2.160000e-06	4.113252e-06	2.535121e-08	2.993989e+01	1.659226e+03
2.170000e-06	3.996787e-06	2.511025e-08	2.909215e+01	1.643018e+03
2.180000e-06	3.878722e-06	2.485318e-08	2.823277e+01	1.626001e+03
2.190000e-06	3.759162e-06	2.458364e-08	2.736250e+01	1.608087e+03
2.200000e-06	3.638150e-06	2.429899e-08	2.648168e+01	1.589226e+03
2.210000e-06	3.515795e-06	2.399714e-08	2.559107e+01	1.569400e+03
2.220000e-06	3.392119e-06	2.368126e-08	2.469084e+01	1.548621e+03
2.230000e-06	3.267148e-06	2.335557e-08	2.378119e+01	1.526904e+03
2.240000e-06	3.140957e-06	2.301345e-08	2.286266e+01	1.504248e+03
2.250000e-06	3.013633e-06	2.265367e-08	2.193588e+01	1.480607e+03
2.260000e-06	2.885195e-06	2.227468e-08	2.100100e+01	1.455875e+03
2.270000e-06	2.755684e-06	2.187696e-08	2.005831e+01	1.429895e+03
2.280000e-06	2.625303e-06	2.145828e-08	1.910928e+01	1.402464e+03
2.290000e-06	2.494012e-06	2.101611e-08	1.815363e+01	1.373372e+03
2.300000e-06	2.361770e-06	2.054661e-08	1.719105e+01	1.342419e+03
2.310000e-06	2.228698e-06	2.004564e-08	1.622243e+01	1.309447e+03
2.320000e-06	2.094794e-06	1.951184e-08	1.524776e+01	1.274337e+03
2.330000e-06	1.960149e-06	1.894476e-08	1.426770e+01	1.236999e+03
2.340000e-06	1.824940e-06	1.834357e-08	1.328352e+01	1.197343e+03
2.350000e-06	1.689174e-06	1.770386e-08	1.229530e+01	1.155243e+03
2.360000e-06	1.552779e-06	1.702258e-08	1.130250e+01	1.110501e+03
2.370000e-06	1.415797e-06	1.629353e-08	1.030542e+01	1.062843e+03
2.380000e-06	1.278374e-06	1.551197e-08	9.305139e+00	1.011934e+03
2.390000e-06	1.140560e-06	1.467613e-08	8.302002e+00	9.574225e+02
2.400000e-06	1.002345e-06	1.378365e-08	7.295952e+00	8.990180e+02
2.410000e-06	8.638288e-07	1.283076e-08	6.287710e+00	8.365683e+02
2.420000e-06	7.250759e-07	1.181743e-08	5.277743e+00	7.701305e+02
2.430000e-06	5.860986e-07	1.075311e-08	4.266144e+00	7.000088e+02
2.440000e-06	4.469320e-07	9.644015e-09	3.253166e+00	6.267454e+02
2.450000e-06	3.074883e-07	8.491996e-09	2.238172e+00	5.510601e+02
2.460000e-06	1.678391e-07	7.306230e-09	1.221681e+00	4.737455e+02
2.470000e-06	2.807569e-08	6.103785e-09	2.043597e-01	3.955373e+02
2.480000e-06	-1.117491e-07	4.897406e-09	-8.134090e-01	3.169864e+02
2.490000e-06	-2.515113e-07	3.691488e-09	-1.830722e+00	2.383631e+02
2.500000e-06	-3.911643e-07	2.486662e-09	-2.847240e+00	1.596169e+02
2.510000e-06	-5.307054e-07	1.277079e-09	-3.862943e+00	8.040537e+01
2.520000e-06	-6.700169e-07	5.270081e-11	-4.876976e+00	1.903319e-01
2.530000e-06	-8.089838e-07	-1.194203e-09	-5.888500e+00	-8.161547e+01
2.540000e-06	-9.476937e-07	-2.470601e-09	-6.898153e+00	-1.654805e+02
2.550000e-06	-1.086079e-06	-3.781779e-09	-7.905441e+00	-2.516002e+02
2.560000e-06	-1.224080e-06	-5.128886e-09	-8.909934e+00	-3.397887e+02
2.570000e-06	-1.361686e-06	-6.503057e-09	-9.911551e+00	-4.294412e+02
2.580000e-06	-1.498873e-06	-7.886835e-09	-1.091012e+01	-5.195739e+02
2.590000e-06	-1.635570e-06	-9.260286e-09	-1.190512e+01	-6.089357e+02
2.600000e-06	-1.771636e-06	-1.059898e-08	-1.289553e+01	-6.961679e+02
2.610000e-06	-1.906998e-06	-1.188273e-08	-1.388082e+01	-7.799799e+02
2.620000e-06	-2.041528e-06	-1.309432e-08	-1.486004e+01	-8.593082e+02
2.630000e-06	-2.175291e-06	-1.422348e-08	-1.583369e+01	-9.334284e+02
2.640000e-06	-2.308264e-06	-1.526983e-08	-1.680159e+01	-1.002003e+03
2.650000e-06	-2.440267e-06	-1.623631e-08	-1.776242e+01	-1.065064e+03
2.660000e-06	-2.571355e-06	-1.712853e-08	-1.871659e+01	-1.122935e+03
2.670000e-06	-2.701573e-06	-1.795062e-08	-1.966444e+01	-1.176128e+03
2.680000e-06	-2.830871e-06	-1.870892e-08	-2.060558e+01	-1.225220e+03
2.690000e-06	-2.959180e-06	-1.941066e-08	-2.153953e+01	-1.270758e+03
2.700000e-06	-3.086341e-06	-2.006231e-08	-2.246512e+01	-1.313187e+03
2.710000e-06	-3.212320e-06	-2.067013e-08	-2.338211e+01	-1.352831e+03
2.720000e-06	-3.337165e-06	-2.123806e-08	-2.429084e+01	-1.389901e+03
2.730000e-06	-3.460766e-06	-2.176762e-08	-2.519052e+01	-1.424535e+03
2.740000e-06	-3.583113e-06	-2.226008e-08	-2.608106e+01	-1.456845e+03
2.750000e-06	-3.704289e-06	-2.271854e-08	-2.696309e+01	-1.486959e+03
2.760000e-06	-3.824140e-06	-2.314644e-08	-2.783548e+01	-1.515043e+03
2.770000e-06	-3.942455e-06	-2.354900e-08	-2.869667e+01	-1.541302e+03
2.780000e-06	-4.059212e-06	-2.392971e-08	-2.954654e+01	-1.565963e+03
2.790000e-06	-4.174366e-06	-2.429017e-08	-3.038473e+01	-1.589244e+03
2.800000e-06	-4.287822e-06	-2.463090e-08	-3.121056e+01	-1.611325e+03
2.810000e-06	-4.399516e-06	-2.495269e-08	-3.202357e+01	-1.632329e+03
2.820000e-06	-4.509524e-06	-2.525801e-08	-3.282430e+01	-1.652319e+03
2.830000e-06	-4.618065e-06	-2.554573e-08	-3.361436e+01	-1.671305e+03
2.840000e-06	-4.725151e-06	-2.581718e-08	-3.439383e+01	-1.689278e+03
2.850000e-06	-4.830670e-06	-2.607316e-08	-3.516189e+01	-1.706228e+03
2.860000e-06	-4.934445e-06	-2.631462e-08	-3.591726e+01	-1.722174e+03
2.870000e-06	-5.036272e-06	-2.654500e-08	-3.665844e+01	-1.737171e+03
2.880000e-06	-5.136244e-06	-2.676506e-08	-3.738612e+01	-1.751314e+03
2.890000e-06	-5.234436e-06	-2.697643e-08	-3.810085e+01	-1.764717e+03
2.900000e-06	-5.330819e-06	-2.717814e-08	-3.880241e+01	-1.777493e+03
2.910000e-06	-5.425269e-06	-2.736805e-08	-3.948990e+01	-1.789734e+03
2.920000e-06	-5.517727e-06	-2.754772e-08	-4.016289e+01	-1.801494e+03
2.930000e-06	-5.608261e-06	-2.771804e-08	-4.082188e+01	-1.812781e+03
2.940000e-06	-5.696782e-06	-2.787921e-08	-4.146622e+01	-1.823571e+03
