# Temperatura_=_35.67
# Concentracion g/m^3_=_28200.0
# C_Vs_to_Am_M_A/Vsm_=_65563218390.804596
# pendiente_HvsI_1/m_=_3716.3
# ordenada_HvsI_A/m_=_1297.0
# frecuencia_Hz_=_302376.55137814133

Tiempo_(s)	Campo_(V.s)	Magnetizacion_(V.s)	Campo_(kA/m)	Magnetizacion_(A/m)
0.000000e+00	-7.325250e-06	-3.005704e-08	-5.318833e+01	-1.967519e+03
1.000000e-08	-7.321346e-06	-3.005355e-08	-5.315998e+01	-1.966961e+03
2.000000e-08	-7.315086e-06	-3.004101e-08	-5.311453e+01	-1.966233e+03
3.000000e-08	-7.306443e-06	-3.002610e-08	-5.305177e+01	-1.965354e+03
4.000000e-08	-7.295238e-06	-3.000957e-08	-5.297041e+01	-1.964335e+03
5.000000e-08	-7.281276e-06	-2.999035e-08	-5.286903e+01	-1.963177e+03
6.000000e-08	-7.264593e-06	-2.996649e-08	-5.274790e+01	-1.961870e+03
7.000000e-08	-7.245724e-06	-2.993947e-08	-5.261089e+01	-1.960400e+03
8.000000e-08	-7.224829e-06	-2.992012e-08	-5.245917e+01	-1.958756e+03
9.000000e-08	-7.201349e-06	-2.994719e-08	-5.228869e+01	-1.956936e+03
1.000000e-07	-7.174842e-06	-2.991091e-08	-5.209622e+01	-1.954958e+03
1.100000e-07	-7.145489e-06	-2.982475e-08	-5.188309e+01	-1.952849e+03
1.200000e-07	-7.113643e-06	-2.977846e-08	-5.165186e+01	-1.950646e+03
1.300000e-07	-7.079313e-06	-2.974104e-08	-5.140259e+01	-1.948381e+03
1.400000e-07	-7.042824e-06	-2.966830e-08	-5.113764e+01	-1.946070e+03
1.500000e-07	-7.004543e-06	-2.960277e-08	-5.085968e+01	-1.943702e+03
1.600000e-07	-6.964106e-06	-2.966174e-08	-5.056608e+01	-1.941235e+03
1.700000e-07	-6.921142e-06	-2.958531e-08	-5.025411e+01	-1.938603e+03
1.800000e-07	-6.875808e-06	-2.948242e-08	-4.992494e+01	-1.935723e+03
1.900000e-07	-6.827936e-06	-2.949487e-08	-4.957735e+01	-1.932519e+03
2.000000e-07	-6.777192e-06	-2.938404e-08	-4.920890e+01	-1.928934e+03
2.100000e-07	-6.723762e-06	-2.931899e-08	-4.882095e+01	-1.924946e+03
2.200000e-07	-6.667840e-06	-2.925344e-08	-4.841490e+01	-1.920568e+03
2.300000e-07	-6.609420e-06	-2.915659e-08	-4.799071e+01	-1.915853e+03
2.400000e-07	-6.548568e-06	-2.912277e-08	-4.754887e+01	-1.910866e+03
2.500000e-07	-6.485287e-06	-2.903394e-08	-4.708939e+01	-1.905677e+03
2.600000e-07	-6.419522e-06	-2.896987e-08	-4.661187e+01	-1.900332e+03
2.700000e-07	-6.351340e-06	-2.889433e-08	-4.611681e+01	-1.894845e+03
2.800000e-07	-6.280815e-06	-2.879241e-08	-4.560473e+01	-1.889190e+03
2.900000e-07	-6.207901e-06	-2.868608e-08	-4.507531e+01	-1.883309e+03
3.000000e-07	-6.132410e-06	-2.858391e-08	-4.452716e+01	-1.877125e+03
3.100000e-07	-6.054261e-06	-2.849973e-08	-4.395973e+01	-1.870566e+03
3.200000e-07	-5.973611e-06	-2.837693e-08	-4.337413e+01	-1.863579e+03
3.300000e-07	-5.890838e-06	-2.828638e-08	-4.277312e+01	-1.856144e+03
3.400000e-07	-5.806153e-06	-2.815701e-08	-4.215823e+01	-1.848277e+03
3.500000e-07	-5.719617e-06	-2.801311e-08	-4.152989e+01	-1.840023e+03
3.600000e-07	-5.631097e-06	-2.790052e-08	-4.088715e+01	-1.831434e+03
3.700000e-07	-5.540443e-06	-2.776715e-08	-4.022892e+01	-1.822557e+03
3.800000e-07	-5.447817e-06	-2.762492e-08	-3.955636e+01	-1.813410e+03
3.900000e-07	-5.353319e-06	-2.747507e-08	-3.887022e+01	-1.803977e+03
4.000000e-07	-5.256898e-06	-2.732777e-08	-3.817011e+01	-1.794206e+03
4.100000e-07	-5.158583e-06	-2.715757e-08	-3.745625e+01	-1.784024e+03
4.200000e-07	-5.058439e-06	-2.699465e-08	-3.672911e+01	-1.773352e+03
4.300000e-07	-4.956514e-06	-2.682906e-08	-3.598904e+01	-1.762125e+03
4.400000e-07	-4.852870e-06	-2.664793e-08	-3.523648e+01	-1.750305e+03
4.500000e-07	-4.747459e-06	-2.645887e-08	-3.447110e+01	-1.737887e+03
4.600000e-07	-4.640269e-06	-2.626431e-08	-3.369280e+01	-1.724892e+03
4.700000e-07	-4.531461e-06	-2.606033e-08	-3.290274e+01	-1.711352e+03
4.800000e-07	-4.421138e-06	-2.583974e-08	-3.210169e+01	-1.697293e+03
4.900000e-07	-4.309173e-06	-2.561604e-08	-3.128872e+01	-1.682716e+03
5.000000e-07	-4.195465e-06	-2.538166e-08	-3.046309e+01	-1.667585e+03
5.100000e-07	-4.080005e-06	-2.513474e-08	-2.962474e+01	-1.651832e+03
5.200000e-07	-3.962919e-06	-2.487610e-08	-2.877459e+01	-1.635365e+03
5.300000e-07	-3.844443e-06	-2.461309e-08	-2.791434e+01	-1.618085e+03
5.400000e-07	-3.724590e-06	-2.433607e-08	-2.704409e+01	-1.599908e+03
5.500000e-07	-3.603309e-06	-2.404253e-08	-2.616347e+01	-1.580777e+03
5.600000e-07	-3.480608e-06	-2.373794e-08	-2.527254e+01	-1.560668e+03
5.700000e-07	-3.356518e-06	-2.341834e-08	-2.437153e+01	-1.539578e+03
5.800000e-07	-3.231222e-06	-2.307858e-08	-2.346176e+01	-1.517509e+03
5.900000e-07	-3.104880e-06	-2.272165e-08	-2.254440e+01	-1.494445e+03
6.000000e-07	-2.977397e-06	-2.235094e-08	-2.161875e+01	-1.470331e+03
6.100000e-07	-2.848706e-06	-2.196027e-08	-2.068433e+01	-1.445059e+03
6.200000e-07	-2.718907e-06	-2.155159e-08	-1.974187e+01	-1.418473e+03
6.300000e-07	-2.588086e-06	-2.112168e-08	-1.879198e+01	-1.390382e+03
6.400000e-07	-2.456335e-06	-2.066663e-08	-1.783534e+01	-1.360583e+03
6.500000e-07	-2.323689e-06	-2.018157e-08	-1.687220e+01	-1.328887e+03
6.600000e-07	-2.190271e-06	-1.966723e-08	-1.590347e+01	-1.295134e+03
6.700000e-07	-2.056155e-06	-1.912105e-08	-1.492966e+01	-1.259196e+03
6.800000e-07	-1.921285e-06	-1.853946e-08	-1.395037e+01	-1.220970e+03
6.900000e-07	-1.785767e-06	-1.792137e-08	-1.296638e+01	-1.180343e+03
7.000000e-07	-1.649673e-06	-1.726259e-08	-1.197821e+01	-1.137169e+03
7.100000e-07	-1.512965e-06	-1.655980e-08	-1.098557e+01	-1.091243e+03
7.200000e-07	-1.375723e-06	-1.580792e-08	-9.989063e+00	-1.042300e+03
7.300000e-07	-1.237907e-06	-1.500591e-08	-8.988392e+00	-9.900364e+02
7.400000e-07	-1.099549e-06	-1.414910e-08	-7.983778e+00	-9.341590e+02
7.500000e-07	-9.608622e-07	-1.323663e-08	-6.976779e+00	-8.744556e+02
7.600000e-07	-8.219061e-07	-1.227055e-08	-5.967825e+00	-8.108676e+02
7.700000e-07	-6.826211e-07	-1.125157e-08	-4.956482e+00	-7.435497e+02
7.800000e-07	-5.430200e-07	-1.017886e-08	-3.942845e+00	-6.728960e+02
7.900000e-07	-4.031914e-07	-9.059870e-09	-2.927556e+00	-5.995212e+02
8.000000e-07	-2.631874e-07	-7.911347e-09	-1.910992e+00	-5.241925e+02
8.100000e-07	-1.230604e-07	-6.744283e-09	-8.935360e-01	-4.477225e+02
8.200000e-07	1.717329e-08	-5.570753e-09	1.246945e-01	-3.708395e+02
8.300000e-07	1.574764e-07	-4.401399e-09	1.143430e+00	-2.940654e+02
8.400000e-07	2.977655e-07	-3.240436e-09	2.162062e+00	-2.176246e+02
8.500000e-07	4.379322e-07	-2.083267e-09	3.179807e+00	-1.414102e+02
8.600000e-07	5.779121e-07	-9.218133e-10	4.196195e+00	-6.501640e+01
8.700000e-07	7.176833e-07	2.531982e-10	5.211068e+00	1.216403e+01
8.800000e-07	8.572196e-07	1.451075e-09	6.224235e+00	9.079400e+01
8.900000e-07	9.964608e-07	2.676640e-09	7.235259e+00	1.714263e+02
9.000000e-07	1.135335e-06	3.935701e-09	8.243618e+00	2.543505e+02
9.100000e-07	1.273828e-06	5.228920e-09	9.249213e+00	3.394839e+02
9.200000e-07	1.411806e-06	6.550975e-09	1.025107e+01	4.263289e+02
9.300000e-07	1.549186e-06	7.888371e-09	1.124857e+01	5.140048e+02
9.400000e-07	1.685954e-06	9.221669e-09	1.224164e+01	6.013489e+02
9.500000e-07	1.822033e-06	1.052964e-08	1.322970e+01	6.870643e+02
9.600000e-07	1.957344e-06	1.179008e-08	1.421219e+01	7.698872e+02
9.700000e-07	2.091816e-06	1.298455e-08	1.518859e+01	8.487402e+02
9.800000e-07	2.225582e-06	1.410206e-08	1.615986e+01	9.228460e+02
9.900000e-07	2.358661e-06	1.514094e-08	1.712614e+01	9.917824e+02
1.000000e-06	2.490906e-06	1.610505e-08	1.808636e+01	1.055476e+03
1.010000e-06	2.622211e-06	1.699466e-08	1.903976e+01	1.114145e+03
1.020000e-06	2.752483e-06	1.781525e-08	1.998566e+01	1.168200e+03
1.030000e-06	2.881686e-06	1.857362e-08	2.092380e+01	1.218146e+03
1.040000e-06	3.009773e-06	1.927725e-08	2.185383e+01	1.264481e+03
1.050000e-06	3.136703e-06	1.993278e-08	2.277547e+01	1.307635e+03
1.060000e-06	3.262551e-06	2.054354e-08	2.368924e+01	1.347937e+03
1.070000e-06	3.387351e-06	2.111378e-08	2.459541e+01	1.385619e+03
1.080000e-06	3.510953e-06	2.164532e-08	2.549288e+01	1.420841e+03
1.090000e-06	3.633269e-06	2.214008e-08	2.638101e+01	1.453732e+03
1.100000e-06	3.754265e-06	2.260367e-08	2.725956e+01	1.484426e+03
1.110000e-06	3.873871e-06	2.303868e-08	2.812801e+01	1.513082e+03
1.120000e-06	3.992081e-06	2.344618e-08	2.898633e+01	1.539888e+03
1.130000e-06	4.108878e-06	2.383069e-08	2.983438e+01	1.565051e+03
1.140000e-06	4.224108e-06	2.419454e-08	3.067107e+01	1.588776e+03
1.150000e-06	4.337682e-06	2.453922e-08	3.149572e+01	1.611237e+03
1.160000e-06	4.449537e-06	2.486339e-08	3.230790e+01	1.632564e+03
1.170000e-06	4.559761e-06	2.516979e-08	3.310823e+01	1.652835e+03
1.180000e-06	4.668499e-06	2.545997e-08	3.389777e+01	1.672087e+03
1.190000e-06	4.775657e-06	2.573466e-08	3.467584e+01	1.690331e+03
1.200000e-06	4.881152e-06	2.599429e-08	3.544183e+01	1.707572e+03
1.210000e-06	4.984838e-06	2.623928e-08	3.619470e+01	1.723834e+03
1.220000e-06	5.086716e-06	2.647160e-08	3.693443e+01	1.739163e+03
1.230000e-06	5.186844e-06	2.669302e-08	3.766145e+01	1.753636e+03
1.240000e-06	5.285037e-06	2.690299e-08	3.837443e+01	1.767342e+03
1.250000e-06	5.381132e-06	2.710086e-08	3.907217e+01	1.780375e+03
1.260000e-06	5.475231e-06	2.728821e-08	3.975542e+01	1.792813e+03
1.270000e-06	5.567464e-06	2.746700e-08	4.042512e+01	1.804708e+03
1.280000e-06	5.657690e-06	2.763786e-08	4.108025e+01	1.816081e+03
1.290000e-06	5.745764e-06	2.779993e-08	4.171975e+01	1.826928e+03
1.300000e-06	5.831786e-06	2.795468e-08	4.234435e+01	1.837228e+03
1.310000e-06	5.915819e-06	2.810390e-08	4.295451e+01	1.846963e+03
1.320000e-06	5.997768e-06	2.824674e-08	4.354953e+01	1.856126e+03
1.330000e-06	6.077526e-06	2.838195e-08	4.412866e+01	1.864731e+03
1.340000e-06	6.155045e-06	2.850816e-08	4.469152e+01	1.872810e+03
1.350000e-06	6.230204e-06	2.862441e-08	4.523725e+01	1.880413e+03
1.360000e-06	6.302951e-06	2.873238e-08	4.576545e+01	1.887591e+03
1.370000e-06	6.373469e-06	2.883568e-08	4.627748e+01	1.894391e+03
1.380000e-06	6.441745e-06	2.893667e-08	4.677323e+01	1.900846e+03
1.390000e-06	6.507640e-06	2.903162e-08	4.725170e+01	1.906973e+03
1.400000e-06	6.571175e-06	2.911914e-08	4.771302e+01	1.912773e+03
1.410000e-06	6.632508e-06	2.920016e-08	4.815835e+01	1.918244e+03
1.420000e-06	6.691564e-06	2.927665e-08	4.858716e+01	1.923385e+03
1.430000e-06	6.748165e-06	2.935073e-08	4.899814e+01	1.928204e+03
1.440000e-06	6.802359e-06	2.941947e-08	4.939163e+01	1.932718e+03
1.450000e-06	6.853901e-06	2.948291e-08	4.976588e+01	1.936956e+03
1.460000e-06	6.902600e-06	2.954312e-08	5.011948e+01	1.940946e+03
1.470000e-06	6.948810e-06	2.960057e-08	5.045501e+01	1.944711e+03
1.480000e-06	6.992652e-06	2.965628e-08	5.077335e+01	1.948262e+03
1.490000e-06	7.033905e-06	2.970918e-08	5.107288e+01	1.951591e+03
1.500000e-06	7.072629e-06	2.975676e-08	5.135406e+01	1.954679e+03
1.510000e-06	7.108994e-06	2.979822e-08	5.161810e+01	1.957498e+03
1.520000e-06	7.142857e-06	2.983455e-08	5.186398e+01	1.960021e+03
1.530000e-06	7.174116e-06	2.986713e-08	5.209095e+01	1.962232e+03
1.540000e-06	7.202847e-06	2.989614e-08	5.229957e+01	1.964133e+03
1.550000e-06	7.228956e-06	2.992115e-08	5.248914e+01	1.965743e+03
1.560000e-06	7.252343e-06	2.994345e-08	5.265895e+01	1.967095e+03
1.570000e-06	7.273182e-06	2.996279e-08	5.281026e+01	1.968228e+03
1.580000e-06	7.291553e-06	2.997886e-08	5.294365e+01	1.969178e+03
1.590000e-06	7.307235e-06	2.999124e-08	5.305752e+01	1.969969e+03
1.600000e-06	7.320131e-06	3.000058e-08	5.315115e+01	1.970609e+03
1.610000e-06	7.330187e-06	3.000838e-08	5.322417e+01	1.971092e+03
1.620000e-06	7.337431e-06	3.001311e-08	5.327678e+01	1.971400e+03
1.630000e-06	7.342080e-06	3.001502e-08	5.331053e+01	1.971516e+03
1.640000e-06	7.344101e-06	3.001588e-08	5.332520e+01	1.971426e+03
1.650000e-06	7.343521e-06	3.001527e-08	5.332099e+01	1.971130e+03
1.660000e-06	7.340567e-06	3.000357e-08	5.329954e+01	1.970637e+03
1.670000e-06	7.335167e-06	2.999206e-08	5.326033e+01	1.969967e+03
1.680000e-06	7.327270e-06	2.998294e-08	5.320299e+01	1.969139e+03
1.690000e-06	7.316995e-06	2.997205e-08	5.312839e+01	1.968169e+03
1.700000e-06	7.304091e-06	2.995961e-08	5.303469e+01	1.967060e+03
1.710000e-06	7.288568e-06	2.994785e-08	5.292198e+01	1.965808e+03
1.720000e-06	7.270878e-06	2.993670e-08	5.279353e+01	1.964397e+03
1.730000e-06	7.251124e-06	2.989004e-08	5.265010e+01	1.962815e+03
1.740000e-06	7.228682e-06	2.979572e-08	5.248715e+01	1.961056e+03
1.750000e-06	7.202847e-06	2.980088e-08	5.229956e+01	1.959131e+03
1.760000e-06	7.173640e-06	2.981144e-08	5.208749e+01	1.957064e+03
1.770000e-06	7.141732e-06	2.976232e-08	5.185581e+01	1.954890e+03
1.780000e-06	7.107815e-06	2.975836e-08	5.160954e+01	1.952643e+03
1.790000e-06	7.072220e-06	2.979442e-08	5.135108e+01	1.950348e+03
1.800000e-06	7.034935e-06	2.966521e-08	5.108036e+01	1.948003e+03
1.810000e-06	6.995291e-06	2.961992e-08	5.079251e+01	1.945577e+03
1.820000e-06	6.953011e-06	2.967885e-08	5.048552e+01	1.943012e+03
1.830000e-06	6.908503e-06	2.955553e-08	5.016235e+01	1.940230e+03
1.840000e-06	6.861518e-06	2.959413e-08	4.982119e+01	1.937149e+03
1.850000e-06	6.811878e-06	2.950745e-08	4.946075e+01	1.933704e+03
1.860000e-06	6.759584e-06	2.941780e-08	4.908105e+01	1.929859e+03
1.870000e-06	6.704516e-06	2.943076e-08	4.868121e+01	1.925616e+03
1.880000e-06	6.647052e-06	2.927287e-08	4.826396e+01	1.921013e+03
1.890000e-06	6.587101e-06	2.925784e-08	4.782866e+01	1.916114e+03
1.900000e-06	6.524543e-06	2.916063e-08	4.737443e+01	1.910989e+03
1.910000e-06	6.459572e-06	2.905507e-08	4.690268e+01	1.905696e+03
1.920000e-06	6.392180e-06	2.901845e-08	4.641334e+01	1.900260e+03
1.930000e-06	6.322364e-06	2.889932e-08	4.590641e+01	1.894669e+03
1.940000e-06	6.250084e-06	2.886083e-08	4.538159e+01	1.888876e+03
1.950000e-06	6.175362e-06	2.872513e-08	4.483904e+01	1.882810e+03
1.960000e-06	6.098097e-06	2.863224e-08	4.427802e+01	1.876392e+03
1.970000e-06	6.018374e-06	2.851600e-08	4.369915e+01	1.869561e+03
1.980000e-06	5.936509e-06	2.838926e-08	4.310473e+01	1.862284e+03
1.990000e-06	5.852576e-06	2.832710e-08	4.249530e+01	1.854567e+03
2.000000e-06	5.766536e-06	2.818225e-08	4.187057e+01	1.846445e+03
2.010000e-06	5.678328e-06	2.807834e-08	4.123010e+01	1.837969e+03
2.020000e-06	5.588116e-06	2.792857e-08	4.057507e+01	1.829190e+03
2.030000e-06	5.495958e-06	2.778755e-08	3.990592e+01	1.820139e+03
2.040000e-06	5.401765e-06	2.764200e-08	3.922198e+01	1.810811e+03
2.050000e-06	5.305686e-06	2.749831e-08	3.852436e+01	1.801168e+03
2.060000e-06	5.207905e-06	2.735744e-08	3.781438e+01	1.791141e+03
2.070000e-06	5.108399e-06	2.718069e-08	3.709186e+01	1.780652e+03
2.080000e-06	5.006975e-06	2.701821e-08	3.635543e+01	1.769629e+03
2.090000e-06	4.903631e-06	2.683250e-08	3.560505e+01	1.758022e+03
2.100000e-06	4.798561e-06	2.665758e-08	3.484214e+01	1.745816e+03
2.110000e-06	4.691956e-06	2.646499e-08	3.406809e+01	1.733022e+03
2.120000e-06	4.583818e-06	2.627291e-08	3.328290e+01	1.719673e+03
2.130000e-06	4.474069e-06	2.606087e-08	3.248602e+01	1.705797e+03
2.140000e-06	4.362579e-06	2.583763e-08	3.167650e+01	1.691406e+03
2.150000e-06	4.249361e-06	2.561188e-08	3.085443e+01	1.676479e+03
2.160000e-06	4.134493e-06	2.537639e-08	3.002038e+01	1.660957e+03
2.170000e-06	4.017920e-06	2.513092e-08	2.917395e+01	1.644755e+03
2.180000e-06	3.899706e-06	2.486545e-08	2.831560e+01	1.627775e+03
2.190000e-06	3.779938e-06	2.459609e-08	2.744597e+01	1.609926e+03
2.200000e-06	3.658751e-06	2.431078e-08	2.656603e+01	1.591140e+03
2.210000e-06	3.536242e-06	2.401704e-08	2.567650e+01	1.571381e+03
2.220000e-06	3.412466e-06	2.370696e-08	2.477777e+01	1.550640e+03
2.230000e-06	3.287406e-06	2.338416e-08	2.386972e+01	1.528921e+03
2.240000e-06	3.161038e-06	2.303983e-08	2.295216e+01	1.506215e+03
2.250000e-06	3.033497e-06	2.268071e-08	2.202609e+01	1.482485e+03
2.260000e-06	2.904805e-06	2.230129e-08	2.109166e+01	1.457641e+03
2.270000e-06	2.775046e-06	2.189951e-08	2.014949e+01	1.431545e+03
2.280000e-06	2.644396e-06	2.147551e-08	1.920085e+01	1.404014e+03
2.290000e-06	2.512846e-06	2.102888e-08	1.824567e+01	1.374847e+03
2.300000e-06	2.380391e-06	2.055943e-08	1.728392e+01	1.343848e+03
2.310000e-06	2.247048e-06	2.006136e-08	1.631572e+01	1.310845e+03
2.320000e-06	2.112889e-06	1.953230e-08	1.534160e+01	1.275699e+03
2.330000e-06	1.978045e-06	1.896348e-08	1.436250e+01	1.238302e+03
2.340000e-06	1.842560e-06	1.835553e-08	1.337875e+01	1.198546e+03
2.350000e-06	1.706435e-06	1.770864e-08	1.239035e+01	1.156300e+03
2.360000e-06	1.569717e-06	1.702528e-08	1.139765e+01	1.111384e+03
2.370000e-06	1.432500e-06	1.629731e-08	1.040132e+01	1.063552e+03
2.380000e-06	1.294869e-06	1.551708e-08	9.401990e+00	1.012509e+03
2.390000e-06	1.156817e-06	1.468218e-08	8.399602e+00	9.579519e+02
2.400000e-06	1.018336e-06	1.379000e-08	7.394093e+00	8.996305e+02
2.410000e-06	8.794823e-07	1.283981e-08	6.385883e+00	8.374234e+02
2.420000e-06	7.402726e-07	1.183521e-08	5.375087e+00	7.714042e+02
2.430000e-06	6.007832e-07	1.078152e-08	4.362261e+00	7.018811e+02
2.440000e-06	4.611269e-07	9.683194e-09	3.348223e+00	6.293953e+02
2.450000e-06	3.212635e-07	8.543465e-09	2.332681e+00	5.546702e+02
2.460000e-06	1.811951e-07	7.373741e-09	1.315650e+00	4.785163e+02
2.470000e-06	4.106552e-08	6.191368e-09	2.981750e-01	4.017071e+02
2.480000e-06	-9.907076e-08	5.010713e-09	-7.193486e-01	3.248509e+02
2.490000e-06	-2.392027e-07	3.839149e-09	-1.736840e+00	2.482854e+02
2.500000e-06	-3.793034e-07	2.674387e-09	-2.754106e+00	1.720220e+02
2.510000e-06	-5.192672e-07	1.509991e-09	-3.770377e+00	9.575355e+01
2.520000e-06	-6.590447e-07	3.359935e-10	-4.785295e+00	1.893005e+01
2.530000e-06	-7.986177e-07	-8.561048e-10	-5.798729e+00	-5.911019e+01
2.540000e-06	-9.378622e-07	-2.074076e-09	-6.809777e+00	-1.389782e+02
2.550000e-06	-1.076728e-06	-3.325316e-09	-7.818076e+00	-2.210731e+02
2.560000e-06	-1.215157e-06	-4.612840e-09	-8.823206e+00	-3.054537e+02
2.570000e-06	-1.353124e-06	-5.933971e-09	-9.824973e+00	-3.917709e+02
2.580000e-06	-1.490620e-06	-7.275890e-09	-1.082333e+01	-4.792723e+02
2.590000e-06	-1.627631e-06	-8.620086e-09	-1.181816e+01	-5.668811e+02
2.600000e-06	-1.764094e-06	-9.944433e-09	-1.280901e+01	-6.533291e+02
2.610000e-06	-1.899884e-06	-1.122931e-08	-1.379497e+01	-7.373220e+02
2.620000e-06	-2.034911e-06	-1.245716e-08	-1.477540e+01	-8.177002e+02
2.630000e-06	-2.169086e-06	-1.361403e-08	-1.574964e+01	-8.935695e+02
2.640000e-06	-2.302400e-06	-1.469405e-08	-1.671763e+01	-9.643785e+02
2.650000e-06	-2.434878e-06	-1.569867e-08	-1.767954e+01	-1.029934e+03
2.660000e-06	-2.566419e-06	-1.662976e-08	-1.863466e+01	-1.090358e+03
2.670000e-06	-2.696967e-06	-1.748842e-08	-1.958256e+01	-1.146007e+03
2.680000e-06	-2.826574e-06	-1.828128e-08	-2.052363e+01	-1.197361e+03
2.690000e-06	-2.955230e-06	-1.901454e-08	-2.145780e+01	-1.244933e+03
2.700000e-06	-3.082791e-06	-1.969495e-08	-2.238401e+01	-1.289180e+03
2.710000e-06	-3.209201e-06	-2.032829e-08	-2.330187e+01	-1.330471e+03
2.720000e-06	-3.334509e-06	-2.091917e-08	-2.421173e+01	-1.369068e+03
2.730000e-06	-3.458618e-06	-2.147132e-08	-2.511288e+01	-1.405153e+03
2.740000e-06	-3.581411e-06	-2.198474e-08	-2.600447e+01	-1.438863e+03
2.750000e-06	-3.702887e-06	-2.246373e-08	-2.688650e+01	-1.470326e+03
2.760000e-06	-3.823044e-06	-2.291266e-08	-2.775896e+01	-1.499690e+03
2.770000e-06	-3.941805e-06	-2.333281e-08	-2.862128e+01	-1.527134e+03
2.780000e-06	-4.059087e-06	-2.372984e-08	-2.947286e+01	-1.552861e+03
2.790000e-06	-4.174723e-06	-2.410614e-08	-3.031249e+01	-1.577078e+03
2.800000e-06	-4.288583e-06	-2.445992e-08	-3.113922e+01	-1.599974e+03
2.810000e-06	-4.400722e-06	-2.479130e-08	-3.195345e+01	-1.621695e+03
2.820000e-06	-4.511174e-06	-2.510421e-08	-3.275544e+01	-1.642337e+03
2.830000e-06	-4.620069e-06	-2.540152e-08	-3.354612e+01	-1.661952e+03
2.840000e-06	-4.727493e-06	-2.568483e-08	-3.432612e+01	-1.680556e+03
2.850000e-06	-4.833398e-06	-2.595221e-08	-3.509510e+01	-1.698154e+03
2.860000e-06	-4.937567e-06	-2.620501e-08	-3.585147e+01	-1.714762e+03
2.870000e-06	-5.039834e-06	-2.644516e-08	-3.659402e+01	-1.730418e+03
2.880000e-06	-5.140219e-06	-2.667338e-08	-3.732291e+01	-1.745188e+03
2.890000e-06	-5.238748e-06	-2.689168e-08	-3.803832e+01	-1.759157e+03
2.900000e-06	-5.335490e-06	-2.709947e-08	-3.874077e+01	-1.772421e+03
2.910000e-06	-5.430358e-06	-2.729660e-08	-3.942960e+01	-1.785065e+03
2.920000e-06	-5.523186e-06	-2.748132e-08	-4.010362e+01	-1.797151e+03
2.930000e-06	-5.614018e-06	-2.765610e-08	-4.076315e+01	-1.808711e+03
2.940000e-06	-5.702902e-06	-2.782250e-08	-4.140853e+01	-1.819747e+03
