# Temperatura_=_46.5
# Concentracion g/m^3_=_28200.0
# C_Vs_to_Am_M_A/Vsm_=_65563218390.804596
# pendiente_HvsI_1/m_=_3716.3
# ordenada_HvsI_A/m_=_1297.0
# frecuencia_Hz_=_302376.15382680536

Tiempo_(s)	Campo_(V.s)	Magnetizacion_(V.s)	Campo_(kA/m)	Magnetizacion_(A/m)
0.000000e+00	-7.319425e-06	-3.000800e-08	-5.318720e+01	-1.963584e+03
1.000000e-08	-7.315716e-06	-3.000332e-08	-5.316025e+01	-1.963053e+03
2.000000e-08	-7.309634e-06	-2.998807e-08	-5.311605e+01	-1.962357e+03
3.000000e-08	-7.301172e-06	-2.997188e-08	-5.305456e+01	-1.961511e+03
4.000000e-08	-7.290165e-06	-2.995699e-08	-5.297458e+01	-1.960522e+03
5.000000e-08	-7.276454e-06	-2.993944e-08	-5.287495e+01	-1.959385e+03
6.000000e-08	-7.260092e-06	-2.991531e-08	-5.275606e+01	-1.958087e+03
7.000000e-08	-7.241448e-06	-2.988620e-08	-5.262057e+01	-1.956615e+03
8.000000e-08	-7.220715e-06	-2.986327e-08	-5.246992e+01	-1.954962e+03
9.000000e-08	-7.197448e-06	-2.990443e-08	-5.230085e+01	-1.953136e+03
1.000000e-07	-7.171167e-06	-2.987753e-08	-5.210987e+01	-1.951165e+03
1.100000e-07	-7.142058e-06	-2.978181e-08	-5.189835e+01	-1.949087e+03
1.200000e-07	-7.110461e-06	-2.973441e-08	-5.166875e+01	-1.946948e+03
1.300000e-07	-7.076367e-06	-2.969411e-08	-5.142100e+01	-1.944783e+03
1.400000e-07	-7.040074e-06	-2.960480e-08	-5.115728e+01	-1.942601e+03
1.500000e-07	-7.001934e-06	-2.952598e-08	-5.088013e+01	-1.940381e+03
1.600000e-07	-6.961626e-06	-2.962606e-08	-5.058723e+01	-1.938062e+03
1.700000e-07	-6.918856e-06	-2.957619e-08	-5.027643e+01	-1.935559e+03
1.800000e-07	-6.873759e-06	-2.945269e-08	-4.994873e+01	-1.932774e+03
1.900000e-07	-6.826184e-06	-2.947469e-08	-4.960303e+01	-1.929619e+03
2.000000e-07	-6.775717e-06	-2.931914e-08	-4.923630e+01	-1.926035e+03
2.100000e-07	-6.722486e-06	-2.923362e-08	-4.884949e+01	-1.922007e+03
2.200000e-07	-6.666800e-06	-2.922273e-08	-4.844484e+01	-1.917567e+03
2.300000e-07	-6.608612e-06	-2.914542e-08	-4.802202e+01	-1.912782e+03
2.400000e-07	-6.547930e-06	-2.910011e-08	-4.758107e+01	-1.907739e+03
2.500000e-07	-6.484892e-06	-2.898823e-08	-4.712300e+01	-1.902521e+03
2.600000e-07	-6.419392e-06	-2.892993e-08	-4.664703e+01	-1.897182e+03
2.700000e-07	-6.351360e-06	-2.884961e-08	-4.615267e+01	-1.891732e+03
2.800000e-07	-6.280974e-06	-2.874540e-08	-4.564121e+01	-1.886137e+03
2.900000e-07	-6.208246e-06	-2.866354e-08	-4.511273e+01	-1.880327e+03
3.000000e-07	-6.133015e-06	-2.857254e-08	-4.456606e+01	-1.874212e+03
3.100000e-07	-6.055193e-06	-2.846872e-08	-4.400055e+01	-1.867713e+03
3.200000e-07	-5.974890e-06	-2.830725e-08	-4.341703e+01	-1.860775e+03
3.300000e-07	-5.892455e-06	-2.823257e-08	-4.281801e+01	-1.853385e+03
3.400000e-07	-5.808096e-06	-2.814130e-08	-4.220500e+01	-1.845571e+03
3.500000e-07	-5.721848e-06	-2.799223e-08	-4.157828e+01	-1.837387e+03
3.600000e-07	-5.633583e-06	-2.787247e-08	-4.093689e+01	-1.828896e+03
3.700000e-07	-5.543202e-06	-2.774450e-08	-4.028013e+01	-1.820146e+03
3.800000e-07	-5.450811e-06	-2.759910e-08	-3.960876e+01	-1.811150e+03
3.900000e-07	-5.356500e-06	-2.744494e-08	-3.892345e+01	-1.801878e+03
4.000000e-07	-5.260277e-06	-2.731354e-08	-3.822423e+01	-1.792265e+03
4.100000e-07	-5.162168e-06	-2.715023e-08	-3.751132e+01	-1.782220e+03
4.200000e-07	-5.062272e-06	-2.697144e-08	-3.678541e+01	-1.771655e+03
4.300000e-07	-4.960630e-06	-2.680358e-08	-3.604682e+01	-1.760504e+03
4.400000e-07	-4.857211e-06	-2.663256e-08	-3.529532e+01	-1.748737e+03
4.500000e-07	-4.752016e-06	-2.644461e-08	-3.453091e+01	-1.736366e+03
4.600000e-07	-4.645115e-06	-2.624768e-08	-3.375411e+01	-1.723431e+03
4.700000e-07	-4.536542e-06	-2.604747e-08	-3.296515e+01	-1.709986e+03
4.800000e-07	-4.426419e-06	-2.582556e-08	-3.216494e+01	-1.696066e+03
4.900000e-07	-4.314678e-06	-2.559485e-08	-3.135296e+01	-1.681676e+03
5.000000e-07	-4.201190e-06	-2.536920e-08	-3.052829e+01	-1.666773e+03
5.100000e-07	-4.085956e-06	-2.513978e-08	-2.969093e+01	-1.651270e+03
5.200000e-07	-3.969074e-06	-2.488408e-08	-2.884160e+01	-1.635056e+03
5.300000e-07	-3.850758e-06	-2.461517e-08	-2.798185e+01	-1.618015e+03
5.400000e-07	-3.731045e-06	-2.434181e-08	-2.711194e+01	-1.600053e+03
5.500000e-07	-3.609917e-06	-2.405678e-08	-2.623176e+01	-1.581111e+03
5.600000e-07	-3.487412e-06	-2.375444e-08	-2.534156e+01	-1.561175e+03
5.700000e-07	-3.363562e-06	-2.343755e-08	-2.444159e+01	-1.540261e+03
5.800000e-07	-3.238503e-06	-2.310091e-08	-2.353285e+01	-1.518393e+03
5.900000e-07	-3.112327e-06	-2.274318e-08	-2.261598e+01	-1.495572e+03
6.000000e-07	-2.985001e-06	-2.237270e-08	-2.169076e+01	-1.471753e+03
6.100000e-07	-2.856473e-06	-2.198863e-08	-2.075679e+01	-1.446831e+03
6.200000e-07	-2.726839e-06	-2.158792e-08	-1.981480e+01	-1.420642e+03
6.300000e-07	-2.596217e-06	-2.116290e-08	-1.886562e+01	-1.392979e+03
6.400000e-07	-2.464579e-06	-2.071225e-08	-1.790906e+01	-1.363627e+03
6.500000e-07	-2.332057e-06	-2.023140e-08	-1.694608e+01	-1.332386e+03
6.600000e-07	-2.198802e-06	-1.972331e-08	-1.597777e+01	-1.299098e+03
6.700000e-07	-2.064899e-06	-1.918903e-08	-1.500475e+01	-1.263644e+03
6.800000e-07	-1.930343e-06	-1.862021e-08	-1.402699e+01	-1.225935e+03
6.900000e-07	-1.795021e-06	-1.801012e-08	-1.304367e+01	-1.185876e+03
7.000000e-07	-1.658926e-06	-1.735772e-08	-1.205472e+01	-1.143332e+03
7.100000e-07	-1.522236e-06	-1.666271e-08	-1.106145e+01	-1.098096e+03
7.200000e-07	-1.385097e-06	-1.591973e-08	-1.006492e+01	-1.049882e+03
7.300000e-07	-1.247464e-06	-1.512772e-08	-9.064798e+00	-9.983511e+02
7.400000e-07	-1.109349e-06	-1.428340e-08	-8.061178e+00	-9.431564e+02
7.500000e-07	-9.708262e-07	-1.338137e-08	-7.054588e+00	-8.840247e+02
7.600000e-07	-8.319524e-07	-1.241860e-08	-6.045450e+00	-8.208354e+02
7.700000e-07	-6.927235e-07	-1.140076e-08	-5.033732e+00	-7.536870e+02
7.800000e-07	-5.531732e-07	-1.032988e-08	-4.019678e+00	-6.829286e+02
7.900000e-07	-4.134704e-07	-9.209005e-09	-3.004517e+00	-6.091426e+02
8.000000e-07	-2.736269e-07	-8.049467e-09	-1.988332e+00	-5.330748e+02
8.100000e-07	-1.336129e-07	-6.864969e-09	-9.709094e-01	-4.555233e+02
8.200000e-07	6.525683e-09	-5.668116e-09	4.741941e-02	-3.772055e+02
8.300000e-07	1.467109e-07	-4.467409e-09	1.066087e+00	-2.986330e+02
8.400000e-07	2.868455e-07	-3.269269e-09	2.084386e+00	-2.200226e+02
8.500000e-07	4.268865e-07	-2.070680e-09	3.102006e+00	-1.412674e+02
8.600000e-07	5.668056e-07	-8.642175e-10	4.118740e+00	-6.197844e+01
8.700000e-07	7.065470e-07	3.579367e-10	5.134182e+00	1.840806e+01
8.800000e-07	8.460369e-07	1.601757e-09	6.147796e+00	1.004770e+02
8.900000e-07	9.851726e-07	2.877756e-09	7.158837e+00	1.846651e+02
9.000000e-07	1.123891e-06	4.191718e-09	8.166849e+00	2.711116e+02
9.100000e-07	1.262130e-06	5.537008e-09	9.171368e+00	3.595604e+02
9.200000e-07	1.399868e-06	6.906537e-09	1.017226e+01	4.493353e+02
9.300000e-07	1.537133e-06	8.284193e-09	1.116970e+01	5.393942e+02
9.400000e-07	1.673844e-06	9.644008e-09	1.216313e+01	6.284514e+02
9.500000e-07	1.809884e-06	1.096327e-08	1.315167e+01	7.151431e+02
9.600000e-07	1.945110e-06	1.222302e-08	1.413430e+01	7.982036e+02
9.700000e-07	2.079537e-06	1.340807e-08	1.511112e+01	8.766182e+02
9.800000e-07	2.213229e-06	1.451133e-08	1.608261e+01	9.497253e+02
9.900000e-07	2.346171e-06	1.552840e-08	1.704865e+01	1.017253e+03
1.000000e-06	2.478370e-06	1.646629e-08	1.800928e+01	1.079291e+03
1.010000e-06	2.609655e-06	1.733211e-08	1.896327e+01	1.136206e+03
1.020000e-06	2.739862e-06	1.813017e-08	1.990943e+01	1.188530e+03
1.030000e-06	2.869021e-06	1.886643e-08	2.084797e+01	1.236847e+03
1.040000e-06	2.997048e-06	1.954865e-08	2.177830e+01	1.281692e+03
1.050000e-06	3.123930e-06	2.018299e-08	2.270029e+01	1.323495e+03
1.060000e-06	3.249773e-06	2.077230e-08	2.361474e+01	1.362561e+03
1.070000e-06	3.374538e-06	2.132080e-08	2.452135e+01	1.399086e+03
1.080000e-06	3.498100e-06	2.183252e-08	2.541923e+01	1.433200e+03
1.090000e-06	3.620423e-06	2.231163e-08	2.630810e+01	1.465014e+03
1.100000e-06	3.741497e-06	2.276225e-08	2.718790e+01	1.494657e+03
1.110000e-06	3.861150e-06	2.318367e-08	2.805736e+01	1.522301e+03
1.120000e-06	3.979361e-06	2.357778e-08	2.891635e+01	1.548152e+03
1.130000e-06	4.096142e-06	2.395079e-08	2.976495e+01	1.572439e+03
1.140000e-06	4.211383e-06	2.430341e-08	3.060236e+01	1.595375e+03
1.150000e-06	4.325030e-06	2.463669e-08	3.142818e+01	1.617138e+03
1.160000e-06	4.436956e-06	2.494946e-08	3.224150e+01	1.637845e+03
1.170000e-06	4.547250e-06	2.524575e-08	3.304296e+01	1.657556e+03
1.180000e-06	4.656093e-06	2.552690e-08	3.383388e+01	1.676283e+03
1.190000e-06	4.763392e-06	2.579337e-08	3.461357e+01	1.694017e+03
1.200000e-06	4.868965e-06	2.604522e-08	3.538073e+01	1.710753e+03
1.210000e-06	4.972662e-06	2.628387e-08	3.613426e+01	1.726508e+03
1.220000e-06	5.074556e-06	2.651005e-08	3.687468e+01	1.741339e+03
1.230000e-06	5.174730e-06	2.672502e-08	3.760260e+01	1.755332e+03
1.240000e-06	5.272984e-06	2.692929e-08	3.831657e+01	1.768593e+03
1.250000e-06	5.369171e-06	2.712131e-08	3.901552e+01	1.781225e+03
1.260000e-06	5.463383e-06	2.730400e-08	3.970012e+01	1.793310e+03
1.270000e-06	5.555755e-06	2.747687e-08	4.037135e+01	1.804894e+03
1.280000e-06	5.646152e-06	2.764173e-08	4.102822e+01	1.815985e+03
1.290000e-06	5.734388e-06	2.780087e-08	4.166940e+01	1.826565e+03
1.300000e-06	5.820537e-06	2.795374e-08	4.229541e+01	1.836598e+03
1.310000e-06	5.904654e-06	2.809848e-08	4.290665e+01	1.846056e+03
1.320000e-06	5.986643e-06	2.823524e-08	4.350243e+01	1.854929e+03
1.330000e-06	6.066456e-06	2.836407e-08	4.408240e+01	1.863236e+03
1.340000e-06	6.144089e-06	2.848570e-08	4.464652e+01	1.871021e+03
1.350000e-06	6.219414e-06	2.859941e-08	4.519388e+01	1.878347e+03
1.360000e-06	6.292288e-06	2.870589e-08	4.572343e+01	1.885278e+03
1.370000e-06	6.362850e-06	2.880750e-08	4.623617e+01	1.891869e+03
1.380000e-06	6.431218e-06	2.890312e-08	4.673297e+01	1.898154e+03
1.390000e-06	6.497290e-06	2.899250e-08	4.721309e+01	1.904144e+03
1.400000e-06	6.561002e-06	2.907722e-08	4.767606e+01	1.909833e+03
1.410000e-06	6.622498e-06	2.915712e-08	4.812293e+01	1.915206e+03
1.420000e-06	6.681770e-06	2.923191e-08	4.855363e+01	1.920251e+03
1.430000e-06	6.738620e-06	2.930354e-08	4.896673e+01	1.924969e+03
1.440000e-06	6.793055e-06	2.937167e-08	4.936229e+01	1.929377e+03
1.450000e-06	6.844830e-06	2.943572e-08	4.973851e+01	1.933504e+03
1.460000e-06	6.893728e-06	2.949544e-08	5.009384e+01	1.937386e+03
1.470000e-06	6.940034e-06	2.955165e-08	5.043032e+01	1.941052e+03
1.480000e-06	6.984013e-06	2.960575e-08	5.074990e+01	1.944520e+03
1.490000e-06	7.025525e-06	2.965680e-08	5.105155e+01	1.947787e+03
1.500000e-06	7.064465e-06	2.970249e-08	5.133451e+01	1.950834e+03
1.510000e-06	7.100978e-06	2.974206e-08	5.159984e+01	1.953629e+03
1.520000e-06	7.135011e-06	2.977737e-08	5.184714e+01	1.956141e+03
1.530000e-06	7.166413e-06	2.980991e-08	5.207532e+01	1.958349e+03
1.540000e-06	7.195327e-06	2.983858e-08	5.228543e+01	1.960249e+03
1.550000e-06	7.221709e-06	2.986288e-08	5.247714e+01	1.961857e+03
1.560000e-06	7.245309e-06	2.988486e-08	5.264863e+01	1.963203e+03
1.570000e-06	7.266319e-06	2.990419e-08	5.280130e+01	1.964325e+03
1.580000e-06	7.284813e-06	2.991952e-08	5.293569e+01	1.965262e+03
1.590000e-06	7.300625e-06	2.993084e-08	5.305059e+01	1.966037e+03
1.600000e-06	7.313697e-06	2.993966e-08	5.314558e+01	1.966662e+03
1.610000e-06	7.323901e-06	2.994657e-08	5.321972e+01	1.967131e+03
1.620000e-06	7.331303e-06	2.995057e-08	5.327351e+01	1.967431e+03
1.630000e-06	7.336150e-06	2.995231e-08	5.330873e+01	1.967544e+03
1.640000e-06	7.338416e-06	2.995351e-08	5.332520e+01	1.967460e+03
1.650000e-06	7.338063e-06	2.995508e-08	5.332263e+01	1.967178e+03
1.660000e-06	7.335279e-06	2.994429e-08	5.330241e+01	1.966709e+03
1.670000e-06	7.330052e-06	2.993204e-08	5.326442e+01	1.966069e+03
1.680000e-06	7.322314e-06	2.992237e-08	5.320819e+01	1.965275e+03
1.690000e-06	7.312151e-06	2.991048e-08	5.313434e+01	1.964336e+03
1.700000e-06	7.299449e-06	2.989670e-08	5.304204e+01	1.963252e+03
1.710000e-06	7.284201e-06	2.988603e-08	5.293124e+01	1.962013e+03
1.720000e-06	7.266652e-06	2.988160e-08	5.280372e+01	1.960604e+03
1.730000e-06	7.247025e-06	2.983895e-08	5.266110e+01	1.959015e+03
1.740000e-06	7.224865e-06	2.972470e-08	5.250007e+01	1.957248e+03
1.750000e-06	7.199386e-06	2.973072e-08	5.231493e+01	1.955324e+03
1.760000e-06	7.170492e-06	2.975238e-08	5.210497e+01	1.953279e+03
1.770000e-06	7.138834e-06	2.969448e-08	5.187492e+01	1.951156e+03
1.780000e-06	7.105092e-06	2.969140e-08	5.162973e+01	1.948997e+03
1.790000e-06	7.069618e-06	2.976727e-08	5.137195e+01	1.946821e+03
1.800000e-06	7.032503e-06	2.963211e-08	5.110226e+01	1.944619e+03
1.810000e-06	6.993077e-06	2.955860e-08	5.081576e+01	1.942343e+03
1.820000e-06	6.950995e-06	2.963870e-08	5.050997e+01	1.939916e+03
1.830000e-06	6.906679e-06	2.947486e-08	5.018795e+01	1.937243e+03
1.840000e-06	6.859935e-06	2.955106e-08	4.984828e+01	1.934228e+03
1.850000e-06	6.810561e-06	2.951527e-08	4.948950e+01	1.930801e+03
1.860000e-06	6.758533e-06	2.939362e-08	4.911143e+01	1.926929e+03
1.870000e-06	6.703671e-06	2.938363e-08	4.871277e+01	1.922629e+03
1.880000e-06	6.646342e-06	2.918223e-08	4.829619e+01	1.917957e+03
1.890000e-06	6.586581e-06	2.918712e-08	4.786193e+01	1.912996e+03
1.900000e-06	6.524189e-06	2.911276e-08	4.740855e+01	1.907832e+03
1.910000e-06	6.459353e-06	2.902877e-08	4.693742e+01	1.902531e+03
1.920000e-06	6.392176e-06	2.900750e-08	4.644927e+01	1.897122e+03
1.930000e-06	6.322627e-06	2.883516e-08	4.594388e+01	1.891585e+03
1.940000e-06	6.250567e-06	2.878333e-08	4.542025e+01	1.885860e+03
1.950000e-06	6.176078e-06	2.865417e-08	4.487897e+01	1.879864e+03
1.960000e-06	6.099097e-06	2.860600e-08	4.431959e+01	1.873510e+03
1.970000e-06	6.019629e-06	2.850813e-08	4.374213e+01	1.866732e+03
1.980000e-06	5.937967e-06	2.834881e-08	4.314872e+01	1.859501e+03
1.990000e-06	5.854210e-06	2.828245e-08	4.254010e+01	1.851832e+03
2.000000e-06	5.768393e-06	2.811584e-08	4.191650e+01	1.843772e+03
2.010000e-06	5.680486e-06	2.802137e-08	4.127772e+01	1.835384e+03
2.020000e-06	5.590555e-06	2.789314e-08	4.062423e+01	1.826722e+03
2.030000e-06	5.498609e-06	2.777332e-08	3.995609e+01	1.817814e+03
2.040000e-06	5.404675e-06	2.761251e-08	3.927351e+01	1.808646e+03
2.050000e-06	5.308855e-06	2.744307e-08	3.857723e+01	1.799164e+03
2.060000e-06	5.211272e-06	2.732085e-08	3.786813e+01	1.789283e+03
2.070000e-06	5.111979e-06	2.715271e-08	3.714661e+01	1.778913e+03
2.080000e-06	5.010849e-06	2.699612e-08	3.641174e+01	1.767976e+03
2.090000e-06	4.907817e-06	2.680571e-08	3.566305e+01	1.756429e+03
2.100000e-06	4.802922e-06	2.663219e-08	3.490083e+01	1.744269e+03
2.110000e-06	4.696460e-06	2.643662e-08	3.412721e+01	1.731529e+03
2.120000e-06	4.588495e-06	2.624872e-08	3.334267e+01	1.718260e+03
2.130000e-06	4.478892e-06	2.605696e-08	3.254624e+01	1.704507e+03
2.140000e-06	4.367612e-06	2.583881e-08	3.173761e+01	1.690286e+03
2.150000e-06	4.254640e-06	2.559881e-08	3.091669e+01	1.675573e+03
2.160000e-06	4.140033e-06	2.535173e-08	3.008389e+01	1.660296e+03
2.170000e-06	4.023709e-06	2.511472e-08	2.923861e+01	1.644349e+03
2.180000e-06	3.905719e-06	2.485979e-08	2.838123e+01	1.627616e+03
2.190000e-06	3.786154e-06	2.459825e-08	2.751240e+01	1.609990e+03
2.200000e-06	3.665091e-06	2.431548e-08	2.663268e+01	1.591401e+03
2.210000e-06	3.542709e-06	2.401884e-08	2.574339e+01	1.571819e+03
2.220000e-06	3.419084e-06	2.370443e-08	2.484505e+01	1.551251e+03
2.230000e-06	3.294194e-06	2.339134e-08	2.393753e+01	1.529721e+03
2.240000e-06	3.168045e-06	2.306126e-08	2.302085e+01	1.507242e+03
2.250000e-06	3.040668e-06	2.270690e-08	2.209526e+01	1.483788e+03
2.260000e-06	2.912132e-06	2.232580e-08	2.116125e+01	1.459275e+03
2.270000e-06	2.782578e-06	2.192412e-08	2.021983e+01	1.433560e+03
2.280000e-06	2.652102e-06	2.150787e-08	1.927172e+01	1.406447e+03
2.290000e-06	2.520716e-06	2.107301e-08	1.831699e+01	1.377722e+03
2.300000e-06	2.388398e-06	2.061471e-08	1.735549e+01	1.347176e+03
2.310000e-06	2.255269e-06	2.012162e-08	1.638810e+01	1.314634e+03
2.320000e-06	2.121380e-06	1.959411e-08	1.541518e+01	1.279964e+03
2.330000e-06	1.986723e-06	1.902988e-08	1.443669e+01	1.243070e+03
2.340000e-06	1.851376e-06	1.843530e-08	1.345317e+01	1.203862e+03
2.350000e-06	1.715332e-06	1.780553e-08	1.246460e+01	1.162224e+03
2.360000e-06	1.578729e-06	1.713612e-08	1.147196e+01	1.117978e+03
2.370000e-06	1.441670e-06	1.641635e-08	1.047601e+01	1.070864e+03
2.380000e-06	1.304162e-06	1.563996e-08	9.476801e+00	1.020558e+03
2.390000e-06	1.166277e-06	1.481020e-08	8.474850e+00	9.667078e+02
2.400000e-06	1.028040e-06	1.392902e-08	7.470337e+00	9.090050e+02
2.410000e-06	8.894447e-07	1.299201e-08	6.463223e+00	8.472654e+02
2.420000e-06	7.504747e-07	1.199427e-08	5.453386e+00	7.815034e+02
2.430000e-06	6.111268e-07	1.094035e-08	4.440803e+00	7.119779e+02
2.440000e-06	4.715586e-07	9.836637e-09	3.426619e+00	6.391934e+02
2.450000e-06	3.318307e-07	8.686333e-09	2.411275e+00	5.638482e+02
2.460000e-06	1.918995e-07	7.502080e-09	1.394454e+00	4.867365e+02
2.470000e-06	5.190041e-08	6.302135e-09	3.771386e-01	4.086200e+02
2.480000e-06	-8.811208e-08	5.097581e-09	-6.402736e-01	3.300963e+02
2.490000e-06	-2.281072e-07	3.892184e-09	-1.657560e+00	2.514943e+02
2.500000e-06	-3.680157e-07	2.687570e-09	-2.674216e+00	1.728219e+02
2.510000e-06	-5.078370e-07	1.482359e-09	-3.690239e+00	9.378149e+01
2.520000e-06	-6.475070e-07	2.654110e-10	-4.705163e+00	1.385597e+01
2.530000e-06	-7.869612e-07	-9.737071e-10	-5.718518e+00	-6.755138e+01
2.540000e-06	-9.261104e-07	-2.242669e-09	-6.729657e+00	-1.509492e+02
2.550000e-06	-1.064857e-06	-3.547503e-09	-7.737867e+00	-2.365973e+02
2.560000e-06	-1.203182e-06	-4.888196e-09	-8.743021e+00	-3.243878e+02
2.570000e-06	-1.341108e-06	-6.259080e-09	-9.745269e+00	-4.137923e+02
2.580000e-06	-1.478599e-06	-7.644718e-09	-1.074436e+01	-5.038887e+02
2.590000e-06	-1.615640e-06	-9.025596e-09	-1.174018e+01	-5.934606e+02
2.600000e-06	-1.752115e-06	-1.037494e-08	-1.273189e+01	-6.811518e+02
2.610000e-06	-1.887811e-06	-1.166705e-08	-1.371793e+01	-7.656421e+02
2.620000e-06	-2.022682e-06	-1.288713e-08	-1.469798e+01	-8.458124e+02
2.630000e-06	-2.156773e-06	-1.402523e-08	-1.567237e+01	-9.208671e+02
2.640000e-06	-2.290096e-06	-1.508238e-08	-1.664117e+01	-9.903956e+02
2.650000e-06	-2.422549e-06	-1.606178e-08	-1.760365e+01	-1.054365e+03
2.660000e-06	-2.554039e-06	-1.696996e-08	-1.855913e+01	-1.113055e+03
2.670000e-06	-2.684566e-06	-1.780882e-08	-1.950761e+01	-1.166953e+03
2.680000e-06	-2.814159e-06	-1.857908e-08	-2.044931e+01	-1.216636e+03
2.690000e-06	-2.942799e-06	-1.928855e-08	-2.138409e+01	-1.262666e+03
2.700000e-06	-3.070394e-06	-1.994476e-08	-2.231127e+01	-1.305514e+03
2.710000e-06	-3.196890e-06	-2.055659e-08	-2.323046e+01	-1.345531e+03
2.720000e-06	-3.322222e-06	-2.112852e-08	-2.414120e+01	-1.382946e+03
2.730000e-06	-3.446234e-06	-2.166114e-08	-2.504234e+01	-1.417909e+03
2.740000e-06	-3.568979e-06	-2.215610e-08	-2.593428e+01	-1.450532e+03
2.750000e-06	-3.690519e-06	-2.261931e-08	-2.681746e+01	-1.480934e+03
2.760000e-06	-3.810729e-06	-2.305368e-08	-2.769097e+01	-1.509270e+03
2.770000e-06	-3.929539e-06	-2.346161e-08	-2.855432e+01	-1.535737e+03
2.780000e-06	-4.046817e-06	-2.384774e-08	-2.940653e+01	-1.560557e+03
2.790000e-06	-4.162427e-06	-2.421201e-08	-3.024662e+01	-1.583954e+03
2.800000e-06	-4.276377e-06	-2.455328e-08	-3.107465e+01	-1.606119e+03
2.810000e-06	-4.388604e-06	-2.487364e-08	-3.189015e+01	-1.627194e+03
2.820000e-06	-4.499080e-06	-2.517692e-08	-3.269293e+01	-1.647258e+03
2.830000e-06	-4.607996e-06	-2.546732e-08	-3.348438e+01	-1.666338e+03
2.840000e-06	-4.715461e-06	-2.574365e-08	-3.426529e+01	-1.684429e+03
2.850000e-06	-4.821399e-06	-2.600238e-08	-3.503509e+01	-1.701521e+03
2.860000e-06	-4.925632e-06	-2.624600e-08	-3.579251e+01	-1.717623e+03
2.870000e-06	-5.027964e-06	-2.647822e-08	-3.653611e+01	-1.732776e+03
2.880000e-06	-5.128379e-06	-2.670069e-08	-3.726579e+01	-1.747057e+03
2.890000e-06	-5.226991e-06	-2.691349e-08	-3.798236e+01	-1.760568e+03
2.900000e-06	-5.323807e-06	-2.711569e-08	-3.868588e+01	-1.773414e+03
2.910000e-06	-5.418701e-06	-2.730706e-08	-3.937543e+01	-1.785688e+03
2.920000e-06	-5.511579e-06	-2.748681e-08	-4.005034e+01	-1.797449e+03
2.930000e-06	-5.602462e-06	-2.765549e-08	-4.071075e+01	-1.808718e+03
2.940000e-06	-5.691413e-06	-2.781527e-08	-4.135712e+01	-1.819484e+03
