# Temperatura_=_35.05
# Concentracion g/m^3_=_28200.0
# C_Vs_to_Am_M_A/Vsm_=_65563218390.804596
# pendiente_HvsI_1/m_=_3716.3
# ordenada_HvsI_A/m_=_1297.0
# frecuencia_Hz_=_302377.1816261232

Tiempo_(s)	Campo_(V.s)	Magnetizacion_(V.s)	Campo_(kA/m)	Magnetizacion_(A/m)
0.000000e+00	-7.311237e-06	-3.002880e-08	-5.318756e+01	-1.965839e+03
1.000000e-08	-7.307090e-06	-3.002371e-08	-5.315740e+01	-1.965287e+03
2.000000e-08	-7.300607e-06	-3.000759e-08	-5.311024e+01	-1.964550e+03
3.000000e-08	-7.291780e-06	-2.999250e-08	-5.304602e+01	-1.963645e+03
4.000000e-08	-7.280338e-06	-2.997475e-08	-5.296278e+01	-1.962586e+03
5.000000e-08	-7.266098e-06	-2.995369e-08	-5.285919e+01	-1.961379e+03
6.000000e-08	-7.249205e-06	-2.993008e-08	-5.273630e+01	-1.960021e+03
7.000000e-08	-7.230176e-06	-2.990000e-08	-5.259786e+01	-1.958506e+03
8.000000e-08	-7.209092e-06	-2.989451e-08	-5.244448e+01	-1.956829e+03
9.000000e-08	-7.185404e-06	-2.994454e-08	-5.227216e+01	-1.954991e+03
1.000000e-07	-7.158724e-06	-2.988206e-08	-5.207807e+01	-1.953007e+03
1.100000e-07	-7.129266e-06	-2.978537e-08	-5.186377e+01	-1.950901e+03
1.200000e-07	-7.097298e-06	-2.975022e-08	-5.163121e+01	-1.948700e+03
1.300000e-07	-7.062825e-06	-2.970735e-08	-5.138042e+01	-1.946430e+03
1.400000e-07	-7.026224e-06	-2.961065e-08	-5.111416e+01	-1.944098e+03
1.500000e-07	-6.987858e-06	-2.957220e-08	-5.083506e+01	-1.941689e+03
1.600000e-07	-6.947338e-06	-2.968470e-08	-5.054028e+01	-1.939164e+03
1.700000e-07	-6.904290e-06	-2.952505e-08	-5.022712e+01	-1.936459e+03
1.800000e-07	-6.858868e-06	-2.945089e-08	-4.989669e+01	-1.933501e+03
1.900000e-07	-6.810843e-06	-2.947452e-08	-4.954732e+01	-1.930221e+03
2.000000e-07	-6.759956e-06	-2.931546e-08	-4.917712e+01	-1.926568e+03
2.100000e-07	-6.706411e-06	-2.929822e-08	-4.878760e+01	-1.922524e+03
2.200000e-07	-6.650287e-06	-2.922499e-08	-4.837931e+01	-1.918103e+03
2.300000e-07	-6.591656e-06	-2.914258e-08	-4.795278e+01	-1.913352e+03
2.400000e-07	-6.530592e-06	-2.909256e-08	-4.750855e+01	-1.908330e+03
2.500000e-07	-6.467122e-06	-2.899162e-08	-4.704682e+01	-1.903099e+03
2.600000e-07	-6.401226e-06	-2.893805e-08	-4.656744e+01	-1.897703e+03
2.700000e-07	-6.332858e-06	-2.885256e-08	-4.607008e+01	-1.892152e+03
2.800000e-07	-6.262186e-06	-2.876389e-08	-4.555596e+01	-1.886425e+03
2.900000e-07	-6.189205e-06	-2.865724e-08	-4.502504e+01	-1.880470e+03
3.000000e-07	-6.113719e-06	-2.855196e-08	-4.447590e+01	-1.874220e+03
3.100000e-07	-6.035602e-06	-2.846084e-08	-4.390762e+01	-1.867609e+03
3.200000e-07	-5.954951e-06	-2.832742e-08	-4.332090e+01	-1.860592e+03
3.300000e-07	-5.872173e-06	-2.824634e-08	-4.271870e+01	-1.853150e+03
3.400000e-07	-5.787512e-06	-2.810909e-08	-4.210282e+01	-1.845297e+03
3.500000e-07	-5.700978e-06	-2.798075e-08	-4.147330e+01	-1.837068e+03
3.600000e-07	-5.612467e-06	-2.787041e-08	-4.082940e+01	-1.828508e+03
3.700000e-07	-5.521865e-06	-2.772574e-08	-4.017029e+01	-1.819653e+03
3.800000e-07	-5.429272e-06	-2.758599e-08	-3.949670e+01	-1.810512e+03
3.900000e-07	-5.334780e-06	-2.743569e-08	-3.880930e+01	-1.801066e+03
4.000000e-07	-5.238397e-06	-2.729278e-08	-3.810814e+01	-1.791263e+03
4.100000e-07	-5.140157e-06	-2.711617e-08	-3.739346e+01	-1.781036e+03
4.200000e-07	-5.040104e-06	-2.696093e-08	-3.666559e+01	-1.770311e+03
4.300000e-07	-4.938233e-06	-2.679251e-08	-3.592451e+01	-1.759032e+03
4.400000e-07	-4.834548e-06	-2.660656e-08	-3.517022e+01	-1.747167e+03
4.500000e-07	-4.729137e-06	-2.641570e-08	-3.440338e+01	-1.734713e+03
4.600000e-07	-4.622026e-06	-2.622048e-08	-3.362417e+01	-1.721691e+03
4.700000e-07	-4.513297e-06	-2.601920e-08	-3.283320e+01	-1.708130e+03
4.800000e-07	-4.403055e-06	-2.579728e-08	-3.203121e+01	-1.694050e+03
4.900000e-07	-4.291222e-06	-2.557612e-08	-3.121765e+01	-1.679446e+03
5.000000e-07	-4.177683e-06	-2.534064e-08	-3.039168e+01	-1.664281e+03
5.100000e-07	-4.062376e-06	-2.509485e-08	-2.955285e+01	-1.648484e+03
5.200000e-07	-3.945407e-06	-2.483280e-08	-2.870193e+01	-1.631964e+03
5.300000e-07	-3.826963e-06	-2.456802e-08	-2.784028e+01	-1.614626e+03
5.400000e-07	-3.707164e-06	-2.429048e-08	-2.696876e+01	-1.596390e+03
5.500000e-07	-3.586003e-06	-2.399742e-08	-2.608734e+01	-1.577201e+03
5.600000e-07	-3.463437e-06	-2.369164e-08	-2.519571e+01	-1.557034e+03
5.700000e-07	-3.339471e-06	-2.336729e-08	-2.429388e+01	-1.535884e+03
5.800000e-07	-3.214246e-06	-2.302679e-08	-2.338290e+01	-1.513750e+03
5.900000e-07	-3.087977e-06	-2.266874e-08	-2.246432e+01	-1.490609e+03
6.000000e-07	-2.960570e-06	-2.229885e-08	-2.153746e+01	-1.466403e+03
6.100000e-07	-2.831990e-06	-2.190804e-08	-2.060207e+01	-1.441021e+03
6.200000e-07	-2.702404e-06	-2.149858e-08	-1.965937e+01	-1.414310e+03
6.300000e-07	-2.571842e-06	-2.106469e-08	-1.870956e+01	-1.386081e+03
6.400000e-07	-2.440289e-06	-2.060537e-08	-1.775254e+01	-1.356137e+03
6.500000e-07	-2.307781e-06	-2.011722e-08	-1.678857e+01	-1.324292e+03
6.600000e-07	-2.174487e-06	-1.960057e-08	-1.581889e+01	-1.290391e+03
6.700000e-07	-2.040580e-06	-1.905535e-08	-1.484475e+01	-1.254305e+03
6.800000e-07	-1.906071e-06	-1.847352e-08	-1.386622e+01	-1.215924e+03
6.900000e-07	-1.770825e-06	-1.785346e-08	-1.288235e+01	-1.175130e+03
7.000000e-07	-1.634835e-06	-1.719034e-08	-1.189305e+01	-1.131769e+03
7.100000e-07	-1.498223e-06	-1.648310e-08	-1.089923e+01	-1.085629e+03
7.200000e-07	-1.361106e-06	-1.572672e-08	-9.901732e+00	-1.036445e+03
7.300000e-07	-1.223546e-06	-1.492103e-08	-8.901013e+00	-9.839180e+02
7.400000e-07	-1.085551e-06	-1.406153e-08	-7.897135e+00	-9.277700e+02
7.500000e-07	-9.471641e-07	-1.314627e-08	-6.890401e+00	-8.678081e+02
7.600000e-07	-8.083903e-07	-1.217595e-08	-5.880853e+00	-8.039976e+02
7.700000e-07	-6.693433e-07	-1.115099e-08	-4.869318e+00	-7.365172e+02
7.800000e-07	-5.300716e-07	-1.007668e-08	-3.856149e+00	-6.657807e+02
7.900000e-07	-3.905718e-07	-8.960384e-09	-2.841320e+00	-5.924150e+02
8.000000e-07	-2.508716e-07	-7.815318e-09	-1.825033e+00	-5.171902e+02
8.100000e-07	-1.110288e-07	-6.650987e-09	-8.077091e-01	-4.409113e+02
8.200000e-07	2.887246e-08	-5.479933e-09	2.100405e-01	-3.642915e+02
8.300000e-07	1.687750e-07	-4.313369e-09	1.227799e+00	-2.878315e+02
8.400000e-07	3.086315e-07	-3.155372e-09	2.245223e+00	-2.117339e+02
8.500000e-07	4.484194e-07	-2.002469e-09	3.262148e+00	-1.358719e+02
8.600000e-07	5.880238e-07	-8.465370e-10	4.277738e+00	-5.982557e+01
8.700000e-07	7.274210e-07	3.213252e-10	5.291820e+00	1.701982e+01
8.800000e-07	8.665984e-07	1.512170e-09	6.304304e+00	9.532768e+01
8.900000e-07	1.005493e-06	2.732335e-09	7.314727e+00	1.756460e+02
9.000000e-07	1.143997e-06	3.987935e-09	8.322316e+00	2.582567e+02
9.100000e-07	1.282065e-06	5.278523e-09	9.326730e+00	3.430692e+02
9.200000e-07	1.419659e-06	6.597353e-09	1.032769e+01	4.295802e+02
9.300000e-07	1.556711e-06	7.929774e-09	1.132472e+01	5.169071e+02
9.400000e-07	1.693219e-06	9.256886e-09	1.231778e+01	6.038891e+02
9.500000e-07	1.829076e-06	1.055949e-08	1.330611e+01	6.892350e+02
9.600000e-07	1.964171e-06	1.181331e-08	1.428889e+01	7.716886e+02
9.700000e-07	2.098411e-06	1.300148e-08	1.526546e+01	8.501807e+02
9.800000e-07	2.231900e-06	1.411473e-08	1.623656e+01	9.239413e+02
9.900000e-07	2.364690e-06	1.514950e-08	1.720258e+01	9.925536e+02
1.000000e-06	2.496624e-06	1.610899e-08	1.816236e+01	1.055948e+03
1.010000e-06	2.627579e-06	1.699586e-08	1.911503e+01	1.114342e+03
1.020000e-06	2.757511e-06	1.781415e-08	2.006025e+01	1.168148e+03
1.030000e-06	2.886434e-06	1.856974e-08	2.099814e+01	1.217870e+03
1.040000e-06	3.014267e-06	1.927105e-08	2.192810e+01	1.264005e+03
1.050000e-06	3.140918e-06	1.992444e-08	2.284946e+01	1.306982e+03
1.060000e-06	3.266464e-06	2.053246e-08	2.376277e+01	1.347130e+03
1.070000e-06	3.390916e-06	2.110024e-08	2.466814e+01	1.384680e+03
1.080000e-06	3.514090e-06	2.163030e-08	2.556420e+01	1.419791e+03
1.090000e-06	3.635961e-06	2.212534e-08	2.645078e+01	1.452589e+03
1.100000e-06	3.756546e-06	2.258940e-08	2.732801e+01	1.483205e+03
1.110000e-06	3.875778e-06	2.302341e-08	2.819539e+01	1.511794e+03
1.120000e-06	3.993685e-06	2.342976e-08	2.905314e+01	1.538541e+03
1.130000e-06	4.110160e-06	2.381427e-08	2.990047e+01	1.563651e+03
1.140000e-06	4.225020e-06	2.417810e-08	3.073604e+01	1.587323e+03
1.150000e-06	4.338246e-06	2.452269e-08	3.155974e+01	1.609732e+03
1.160000e-06	4.449831e-06	2.484725e-08	3.237149e+01	1.631007e+03
1.170000e-06	4.559856e-06	2.515225e-08	3.317191e+01	1.651229e+03
1.180000e-06	4.668371e-06	2.543904e-08	3.396132e+01	1.670435e+03
1.190000e-06	4.775256e-06	2.571078e-08	3.473889e+01	1.688637e+03
1.200000e-06	4.880393e-06	2.596982e-08	3.550374e+01	1.705844e+03
1.210000e-06	4.983695e-06	2.621584e-08	3.625523e+01	1.722078e+03
1.220000e-06	5.085213e-06	2.645014e-08	3.699376e+01	1.737390e+03
1.230000e-06	5.184915e-06	2.667224e-08	3.771906e+01	1.751852e+03
1.240000e-06	5.282687e-06	2.688156e-08	3.843033e+01	1.765556e+03
1.250000e-06	5.378442e-06	2.707920e-08	3.912693e+01	1.778596e+03
1.260000e-06	5.472228e-06	2.726796e-08	3.980920e+01	1.791048e+03
1.270000e-06	5.564116e-06	2.744583e-08	4.047767e+01	1.802963e+03
1.280000e-06	5.654000e-06	2.761626e-08	4.113155e+01	1.814362e+03
1.290000e-06	5.741802e-06	2.778125e-08	4.177029e+01	1.825237e+03
1.300000e-06	5.827569e-06	2.793881e-08	4.239423e+01	1.835566e+03
1.310000e-06	5.911344e-06	2.808851e-08	4.300367e+01	1.845328e+03
1.320000e-06	5.993051e-06	2.823025e-08	4.359806e+01	1.854513e+03
1.330000e-06	6.072502e-06	2.836368e-08	4.417606e+01	1.863132e+03
1.340000e-06	6.149662e-06	2.848797e-08	4.473738e+01	1.871219e+03
1.350000e-06	6.224483e-06	2.860450e-08	4.528168e+01	1.878823e+03
1.360000e-06	6.296836e-06	2.871426e-08	4.580803e+01	1.885998e+03
1.370000e-06	6.366938e-06	2.881912e-08	4.631801e+01	1.892794e+03
1.380000e-06	6.434844e-06	2.891898e-08	4.681201e+01	1.899246e+03
1.390000e-06	6.500376e-06	2.901426e-08	4.728874e+01	1.905372e+03
1.400000e-06	6.563589e-06	2.910408e-08	4.774860e+01	1.911177e+03
1.410000e-06	6.624606e-06	2.918598e-08	4.819248e+01	1.916656e+03
1.420000e-06	6.683367e-06	2.926217e-08	4.861996e+01	1.921805e+03
1.430000e-06	6.739714e-06	2.933504e-08	4.902987e+01	1.926630e+03
1.440000e-06	6.793594e-06	2.940349e-08	4.942183e+01	1.931145e+03
1.450000e-06	6.844798e-06	2.946890e-08	4.979433e+01	1.935376e+03
1.460000e-06	6.893177e-06	2.953105e-08	5.014628e+01	1.939352e+03
1.470000e-06	6.939041e-06	2.958938e-08	5.047993e+01	1.943096e+03
1.480000e-06	6.982581e-06	2.964524e-08	5.079667e+01	1.946622e+03
1.490000e-06	7.023573e-06	2.969595e-08	5.109487e+01	1.949928e+03
1.500000e-06	7.062019e-06	2.974122e-08	5.137456e+01	1.952996e+03
1.510000e-06	7.098108e-06	2.978249e-08	5.163710e+01	1.955801e+03
1.520000e-06	7.131603e-06	2.982037e-08	5.188077e+01	1.958316e+03
1.530000e-06	7.162524e-06	2.985449e-08	5.210571e+01	1.960526e+03
1.540000e-06	7.191091e-06	2.988355e-08	5.231353e+01	1.962427e+03
1.550000e-06	7.217028e-06	2.990783e-08	5.250221e+01	1.964036e+03
1.560000e-06	7.240177e-06	2.992870e-08	5.267062e+01	1.965385e+03
1.570000e-06	7.260824e-06	2.994697e-08	5.282082e+01	1.966510e+03
1.580000e-06	7.279016e-06	2.996419e-08	5.295317e+01	1.967449e+03
1.590000e-06	7.294479e-06	2.997860e-08	5.306565e+01	1.968230e+03
1.600000e-06	7.307102e-06	2.998779e-08	5.315748e+01	1.968862e+03
1.610000e-06	7.316815e-06	2.999335e-08	5.322815e+01	1.969344e+03
1.620000e-06	7.323770e-06	2.999740e-08	5.327874e+01	1.969660e+03
1.630000e-06	7.328259e-06	3.000034e-08	5.331140e+01	1.969790e+03
1.640000e-06	7.330156e-06	3.000282e-08	5.332520e+01	1.969720e+03
1.650000e-06	7.329423e-06	3.000240e-08	5.331986e+01	1.969441e+03
1.660000e-06	7.326329e-06	2.998948e-08	5.329736e+01	1.968958e+03
1.670000e-06	7.320807e-06	2.998028e-08	5.325719e+01	1.968284e+03
1.680000e-06	7.312737e-06	2.996913e-08	5.319848e+01	1.967436e+03
1.690000e-06	7.302212e-06	2.995380e-08	5.312191e+01	1.966431e+03
1.700000e-06	7.289081e-06	2.993933e-08	5.302639e+01	1.965276e+03
1.710000e-06	7.273440e-06	2.993085e-08	5.291260e+01	1.963972e+03
1.720000e-06	7.255617e-06	2.992768e-08	5.278295e+01	1.962513e+03
1.730000e-06	7.235729e-06	2.985269e-08	5.263826e+01	1.960893e+03
1.740000e-06	7.213148e-06	2.974998e-08	5.247399e+01	1.959111e+03
1.750000e-06	7.187113e-06	2.978886e-08	5.228459e+01	1.957176e+03
1.760000e-06	7.157761e-06	2.979213e-08	5.207106e+01	1.955110e+03
1.770000e-06	7.125784e-06	2.972677e-08	5.183844e+01	1.952939e+03
1.780000e-06	7.091766e-06	2.975806e-08	5.159096e+01	1.950691e+03
1.790000e-06	7.056110e-06	2.978976e-08	5.133158e+01	1.948380e+03
1.800000e-06	7.018817e-06	2.958269e-08	5.106028e+01	1.946002e+03
1.810000e-06	6.979047e-06	2.962024e-08	5.077096e+01	1.943524e+03
1.820000e-06	6.936639e-06	2.964949e-08	5.046245e+01	1.940891e+03
1.830000e-06	6.892054e-06	2.949664e-08	5.013811e+01	1.938031e+03
1.840000e-06	6.844898e-06	2.961464e-08	4.979506e+01	1.934872e+03
1.850000e-06	6.795114e-06	2.944411e-08	4.943289e+01	1.931356e+03
1.860000e-06	6.742699e-06	2.939106e-08	4.905158e+01	1.927451e+03
1.870000e-06	6.687514e-06	2.937387e-08	4.865012e+01	1.923160e+03
1.880000e-06	6.629963e-06	2.919667e-08	4.823145e+01	1.918520e+03
1.890000e-06	6.569912e-06	2.923838e-08	4.779460e+01	1.913586e+03
1.900000e-06	6.507196e-06	2.909355e-08	4.733835e+01	1.908423e+03
1.910000e-06	6.442035e-06	2.903602e-08	4.686432e+01	1.903082e+03
1.920000e-06	6.374561e-06	2.896925e-08	4.637346e+01	1.897587e+03
1.930000e-06	6.304628e-06	2.883855e-08	4.586472e+01	1.891927e+03
1.940000e-06	6.232176e-06	2.881726e-08	4.533765e+01	1.886060e+03
1.950000e-06	6.157364e-06	2.865048e-08	4.479340e+01	1.879922e+03
1.960000e-06	6.079998e-06	2.860614e-08	4.423058e+01	1.873446e+03
1.970000e-06	6.000177e-06	2.846550e-08	4.364991e+01	1.866577e+03
1.980000e-06	5.918282e-06	2.835676e-08	4.305414e+01	1.859286e+03
1.990000e-06	5.834329e-06	2.827759e-08	4.244340e+01	1.851576e+03
2.000000e-06	5.748259e-06	2.811731e-08	4.181726e+01	1.843476e+03
2.010000e-06	5.660032e-06	2.802739e-08	4.117543e+01	1.835029e+03
2.020000e-06	5.569840e-06	2.786424e-08	4.051931e+01	1.826276e+03
2.030000e-06	5.477758e-06	2.774655e-08	3.984943e+01	1.817237e+03
2.040000e-06	5.383688e-06	2.758994e-08	3.916509e+01	1.807903e+03
2.050000e-06	5.287685e-06	2.745539e-08	3.846669e+01	1.798234e+03
2.060000e-06	5.189884e-06	2.730077e-08	3.775521e+01	1.788166e+03
2.070000e-06	5.090372e-06	2.712420e-08	3.703129e+01	1.777626e+03
2.080000e-06	4.989040e-06	2.696370e-08	3.629411e+01	1.766550e+03
2.090000e-06	4.885795e-06	2.677662e-08	3.554303e+01	1.754895e+03
2.100000e-06	4.780806e-06	2.660590e-08	3.477926e+01	1.742649e+03
2.110000e-06	4.674290e-06	2.640659e-08	3.400438e+01	1.729826e+03
2.120000e-06	4.566198e-06	2.621817e-08	3.321804e+01	1.716454e+03
2.130000e-06	4.456543e-06	2.599995e-08	3.242032e+01	1.702557e+03
2.140000e-06	4.345196e-06	2.578127e-08	3.161030e+01	1.688143e+03
2.150000e-06	4.232106e-06	2.555202e-08	3.078760e+01	1.673184e+03
2.160000e-06	4.117407e-06	2.531920e-08	2.995319e+01	1.657621e+03
2.170000e-06	4.000989e-06	2.507150e-08	2.910627e+01	1.641370e+03
2.180000e-06	3.882903e-06	2.480469e-08	2.824722e+01	1.624334e+03
2.190000e-06	3.763242e-06	2.453309e-08	2.737672e+01	1.606426e+03
2.200000e-06	3.642125e-06	2.424681e-08	2.649562e+01	1.587581e+03
2.210000e-06	3.519666e-06	2.395385e-08	2.560476e+01	1.567764e+03
2.220000e-06	3.395920e-06	2.364239e-08	2.470453e+01	1.546965e+03
2.230000e-06	3.270944e-06	2.332199e-08	2.379537e+01	1.525182e+03
2.240000e-06	3.144702e-06	2.297618e-08	2.287699e+01	1.502405e+03
2.250000e-06	3.017193e-06	2.261509e-08	2.194938e+01	1.478588e+03
2.260000e-06	2.888548e-06	2.222994e-08	2.101352e+01	1.453641e+03
2.270000e-06	2.758974e-06	2.182761e-08	2.007090e+01	1.427424e+03
2.280000e-06	2.628521e-06	2.140405e-08	1.912188e+01	1.399759e+03
2.290000e-06	2.497125e-06	2.095872e-08	1.816601e+01	1.370449e+03
2.300000e-06	2.364803e-06	2.048601e-08	1.720340e+01	1.339303e+03
2.310000e-06	2.231648e-06	1.998216e-08	1.623473e+01	1.306151e+03
2.320000e-06	2.097755e-06	1.944742e-08	1.526068e+01	1.270858e+03
2.330000e-06	1.963145e-06	1.887634e-08	1.428143e+01	1.233309e+03
2.340000e-06	1.827844e-06	1.827100e-08	1.329714e+01	1.193391e+03
2.350000e-06	1.691895e-06	1.762588e-08	1.230814e+01	1.150967e+03
2.360000e-06	1.555334e-06	1.694027e-08	1.131470e+01	1.105847e+03
2.370000e-06	1.418300e-06	1.620592e-08	1.031781e+01	1.057782e+03
2.380000e-06	1.280874e-06	1.541966e-08	9.318062e+00	1.006483e+03
2.390000e-06	1.143051e-06	1.457907e-08	8.315430e+00	9.516562e+02
2.400000e-06	1.004825e-06	1.368344e-08	7.309872e+00	8.930693e+02
2.410000e-06	8.662624e-07	1.273294e-08	6.301859e+00	8.306241e+02
2.420000e-06	7.273857e-07	1.172747e-08	5.291563e+00	7.644184e+02
2.430000e-06	5.881410e-07	1.067172e-08	4.278590e+00	6.947822e+02
2.440000e-06	4.486146e-07	9.571437e-09	3.263568e+00	6.222719e+02
2.450000e-06	3.088894e-07	8.432734e-09	2.247099e+00	5.476172e+02
2.460000e-06	1.690382e-07	7.265316e-09	1.229714e+00	4.716247e+02
2.470000e-06	2.910652e-08	6.086360e-09	2.117432e-01	3.950552e+02
2.480000e-06	-1.108670e-07	4.912698e-09	-8.065317e-01	3.184974e+02
2.490000e-06	-2.507978e-07	3.747841e-09	-1.824496e+00	2.422672e+02
2.500000e-06	-3.906187e-07	2.587918e-09	-2.841661e+00	1.663550e+02
2.510000e-06	-5.302940e-07	1.426883e-09	-3.857767e+00	9.043701e+01
2.520000e-06	-6.698355e-07	2.570988e-10	-4.872899e+00	1.395340e+01
2.530000e-06	-8.091498e-07	-9.299496e-10	-5.886379e+00	-6.376041e+01
2.540000e-06	-9.481158e-07	-2.142978e-09	-6.897324e+00	-1.433124e+02
2.550000e-06	-1.086676e-06	-3.388147e-09	-7.905319e+00	-2.250945e+02
2.560000e-06	-1.224787e-06	-4.668760e-09	-8.910040e+00	-3.091576e+02
2.570000e-06	-1.362462e-06	-5.983715e-09	-9.911598e+00	-3.951458e+02
2.580000e-06	-1.499687e-06	-7.322599e-09	-1.090988e+01	-4.823036e+02
2.590000e-06	-1.636437e-06	-8.664480e-09	-1.190470e+01	-5.695544e+02
2.600000e-06	-1.772585e-06	-9.985194e-09	-1.289515e+01	-6.556348e+02
2.610000e-06	-1.907965e-06	-1.126538e-08	-1.388001e+01	-7.392573e+02
2.620000e-06	-2.042546e-06	-1.248630e-08	-1.485905e+01	-8.192707e+02
2.630000e-06	-2.176355e-06	-1.363559e-08	-1.583248e+01	-8.947884e+02
2.640000e-06	-2.309382e-06	-1.470958e-08	-1.680022e+01	-9.652653e+02
2.650000e-06	-2.441536e-06	-1.570979e-08	-1.776162e+01	-1.030512e+03
2.660000e-06	-2.572744e-06	-1.663585e-08	-1.871612e+01	-1.090653e+03
2.670000e-06	-2.702979e-06	-1.748920e-08	-1.966355e+01	-1.146043e+03
2.680000e-06	-2.832242e-06	-1.827792e-08	-2.060391e+01	-1.197165e+03
2.690000e-06	-2.960485e-06	-1.900744e-08	-2.153685e+01	-1.244528e+03
2.700000e-06	-3.087675e-06	-1.968471e-08	-2.246213e+01	-1.288590e+03
2.710000e-06	-3.213795e-06	-2.031539e-08	-2.337962e+01	-1.329719e+03
2.720000e-06	-3.338773e-06	-2.090486e-08	-2.428881e+01	-1.368176e+03
2.730000e-06	-3.462493e-06	-2.145588e-08	-2.518884e+01	-1.404143e+03
2.740000e-06	-3.584912e-06	-2.196736e-08	-2.607941e+01	-1.437753e+03
2.750000e-06	-3.706071e-06	-2.244325e-08	-2.696081e+01	-1.469133e+03
2.760000e-06	-3.825881e-06	-2.288791e-08	-2.783241e+01	-1.498427e+03
2.770000e-06	-3.944227e-06	-2.330605e-08	-2.869334e+01	-1.525810e+03
2.780000e-06	-4.061085e-06	-2.370327e-08	-2.954346e+01	-1.551481e+03
2.790000e-06	-4.176315e-06	-2.407997e-08	-3.038173e+01	-1.575646e+03
2.800000e-06	-4.289792e-06	-2.443406e-08	-3.120725e+01	-1.598489e+03
2.810000e-06	-4.401561e-06	-2.476477e-08	-3.202035e+01	-1.620158e+03
2.820000e-06	-4.511679e-06	-2.507610e-08	-3.282143e+01	-1.640750e+03
2.830000e-06	-4.620258e-06	-2.537300e-08	-3.361131e+01	-1.660317e+03
2.840000e-06	-4.727348e-06	-2.565592e-08	-3.439037e+01	-1.678878e+03
2.850000e-06	-4.832860e-06	-2.592338e-08	-3.515794e+01	-1.696439e+03
2.860000e-06	-4.936621e-06	-2.617570e-08	-3.591278e+01	-1.713018e+03
2.870000e-06	-5.038502e-06	-2.641447e-08	-3.665394e+01	-1.728652e+03
2.880000e-06	-5.138515e-06	-2.664294e-08	-3.738151e+01	-1.743408e+03
2.890000e-06	-5.236712e-06	-2.686234e-08	-3.809588e+01	-1.757373e+03
2.900000e-06	-5.333104e-06	-2.707094e-08	-3.879711e+01	-1.770641e+03
2.910000e-06	-5.427604e-06	-2.726661e-08	-3.948457e+01	-1.783296e+03
2.920000e-06	-5.520144e-06	-2.745195e-08	-4.015777e+01	-1.795400e+03
2.930000e-06	-5.610676e-06	-2.762738e-08	-4.081638e+01	-1.806983e+03
2.940000e-06	-5.699162e-06	-2.779184e-08	-4.146009e+01	-1.818048e+03
