# Temperatura_=_37.05
# Concentracion g/m^3_=_28200.0
# C_Vs_to_Am_M_A/Vsm_=_65563218390.804596
# pendiente_HvsI_1/m_=_3716.3
# ordenada_HvsI_A/m_=_1297.0
# frecuencia_Hz_=_302374.6956046019

Tiempo_(s)	Campo_(V.s)	Magnetizacion_(V.s)	Campo_(kA/m)	Magnetizacion_(A/m)
0.000000e+00	-7.293668e-06	-2.999640e-08	-5.319519e+01	-1.963286e+03
1.000000e-08	-7.289911e-06	-2.999441e-08	-5.316779e+01	-1.962730e+03
2.000000e-08	-7.283803e-06	-2.998107e-08	-5.312324e+01	-1.962002e+03
3.000000e-08	-7.275443e-06	-2.996562e-08	-5.306227e+01	-1.961122e+03
4.000000e-08	-7.264507e-06	-2.994937e-08	-5.298251e+01	-1.960103e+03
5.000000e-08	-7.250760e-06	-2.992977e-08	-5.288225e+01	-1.958949e+03
6.000000e-08	-7.234332e-06	-2.990444e-08	-5.276243e+01	-1.957648e+03
7.000000e-08	-7.215629e-06	-2.987281e-08	-5.262603e+01	-1.956186e+03
8.000000e-08	-7.194890e-06	-2.984922e-08	-5.247477e+01	-1.954550e+03
9.000000e-08	-7.171637e-06	-2.989276e-08	-5.230518e+01	-1.952736e+03
1.000000e-07	-7.145354e-06	-2.986560e-08	-5.211349e+01	-1.950759e+03
1.100000e-07	-7.116240e-06	-2.976906e-08	-5.190115e+01	-1.948648e+03
1.200000e-07	-7.084724e-06	-2.972176e-08	-5.167129e+01	-1.946442e+03
1.300000e-07	-7.050758e-06	-2.968898e-08	-5.142357e+01	-1.944177e+03
1.400000e-07	-7.014531e-06	-2.960220e-08	-5.115935e+01	-1.941872e+03
1.500000e-07	-6.976507e-06	-2.952589e-08	-5.088203e+01	-1.939522e+03
1.600000e-07	-6.936450e-06	-2.962140e-08	-5.058988e+01	-1.937088e+03
1.700000e-07	-6.893874e-06	-2.953138e-08	-5.027936e+01	-1.934505e+03
1.800000e-07	-6.848901e-06	-2.940839e-08	-4.995135e+01	-1.931690e+03
1.900000e-07	-6.801456e-06	-2.944601e-08	-4.960532e+01	-1.928560e+03
2.000000e-07	-6.751170e-06	-2.931995e-08	-4.923857e+01	-1.925053e+03
2.100000e-07	-6.698163e-06	-2.925718e-08	-4.885197e+01	-1.921137e+03
2.200000e-07	-6.642647e-06	-2.922051e-08	-4.844707e+01	-1.916821e+03
2.300000e-07	-6.584635e-06	-2.913213e-08	-4.802398e+01	-1.912149e+03
2.400000e-07	-6.524170e-06	-2.908475e-08	-4.758298e+01	-1.907186e+03
2.500000e-07	-6.461326e-06	-2.898338e-08	-4.712464e+01	-1.902004e+03
2.600000e-07	-6.396018e-06	-2.892356e-08	-4.664832e+01	-1.896654e+03
2.700000e-07	-6.328211e-06	-2.883735e-08	-4.615379e+01	-1.891157e+03
2.800000e-07	-6.258121e-06	-2.873567e-08	-4.564260e+01	-1.885496e+03
2.900000e-07	-6.185730e-06	-2.864654e-08	-4.511462e+01	-1.879619e+03
3.000000e-07	-6.110848e-06	-2.854214e-08	-4.456848e+01	-1.873458e+03
3.100000e-07	-6.033346e-06	-2.845551e-08	-4.400324e+01	-1.866939e+03
3.200000e-07	-5.953312e-06	-2.832908e-08	-4.341952e+01	-1.860011e+03
3.300000e-07	-5.871106e-06	-2.824170e-08	-4.281997e+01	-1.852649e+03
3.400000e-07	-5.786977e-06	-2.811722e-08	-4.220638e+01	-1.844866e+03
3.500000e-07	-5.700968e-06	-2.797436e-08	-4.157909e+01	-1.836698e+03
3.600000e-07	-5.612967e-06	-2.786324e-08	-4.093727e+01	-1.828196e+03
3.700000e-07	-5.522892e-06	-2.772811e-08	-4.028033e+01	-1.819402e+03
3.800000e-07	-5.430782e-06	-2.758721e-08	-3.960853e+01	-1.810332e+03
3.900000e-07	-5.336755e-06	-2.743876e-08	-3.892276e+01	-1.800971e+03
4.000000e-07	-5.240855e-06	-2.729770e-08	-3.822333e+01	-1.791269e+03
4.100000e-07	-5.143045e-06	-2.712851e-08	-3.750997e+01	-1.781155e+03
4.200000e-07	-5.043462e-06	-2.696277e-08	-3.678368e+01	-1.770551e+03
4.300000e-07	-4.942195e-06	-2.679973e-08	-3.604510e+01	-1.759395e+03
4.400000e-07	-4.839182e-06	-2.661973e-08	-3.529379e+01	-1.747649e+03
4.500000e-07	-4.734440e-06	-2.642579e-08	-3.452987e+01	-1.735308e+03
4.600000e-07	-4.627912e-06	-2.622826e-08	-3.375293e+01	-1.722395e+03
4.700000e-07	-4.519639e-06	-2.602811e-08	-3.296326e+01	-1.708941e+03
4.800000e-07	-4.409860e-06	-2.581163e-08	-3.216261e+01	-1.694972e+03
4.900000e-07	-4.298523e-06	-2.559182e-08	-3.135058e+01	-1.680489e+03
5.000000e-07	-4.185492e-06	-2.536298e-08	-3.052621e+01	-1.665456e+03
5.100000e-07	-4.070753e-06	-2.512191e-08	-2.968938e+01	-1.649805e+03
5.200000e-07	-3.954326e-06	-2.486018e-08	-2.884024e+01	-1.633443e+03
5.300000e-07	-3.836439e-06	-2.458981e-08	-2.798045e+01	-1.616269e+03
5.400000e-07	-3.717172e-06	-2.431110e-08	-2.711060e+01	-1.598200e+03
5.500000e-07	-3.596495e-06	-2.402009e-08	-2.623046e+01	-1.579178e+03
5.600000e-07	-3.474402e-06	-2.371736e-08	-2.533999e+01	-1.559178e+03
5.700000e-07	-3.350893e-06	-2.340084e-08	-2.443920e+01	-1.538200e+03
5.800000e-07	-3.226122e-06	-2.306816e-08	-2.352920e+01	-1.516251e+03
5.900000e-07	-3.100316e-06	-2.271579e-08	-2.261165e+01	-1.493317e+03
6.000000e-07	-2.973405e-06	-2.234692e-08	-2.168605e+01	-1.469349e+03
6.100000e-07	-2.845313e-06	-2.195820e-08	-2.075183e+01	-1.444242e+03
6.200000e-07	-2.716282e-06	-2.155046e-08	-1.981076e+01	-1.417843e+03
6.300000e-07	-2.586217e-06	-2.111890e-08	-1.886216e+01	-1.389962e+03
6.400000e-07	-2.455019e-06	-2.066394e-08	-1.790529e+01	-1.360395e+03
6.500000e-07	-2.322936e-06	-2.018186e-08	-1.694196e+01	-1.328950e+03
6.600000e-07	-2.190113e-06	-1.967275e-08	-1.597324e+01	-1.295468e+03
6.700000e-07	-2.056631e-06	-1.913489e-08	-1.499971e+01	-1.259821e+03
6.800000e-07	-1.922505e-06	-1.856071e-08	-1.402148e+01	-1.221905e+03
6.900000e-07	-1.787613e-06	-1.794744e-08	-1.303766e+01	-1.181612e+03
7.000000e-07	-1.651990e-06	-1.729308e-08	-1.204852e+01	-1.138803e+03
7.100000e-07	-1.515789e-06	-1.659646e-08	-1.105516e+01	-1.093278e+03
7.200000e-07	-1.379159e-06	-1.585042e-08	-1.005867e+01	-1.044773e+03
7.300000e-07	-1.242107e-06	-1.505412e-08	-9.059107e+00	-9.929843e+02
7.400000e-07	-1.104590e-06	-1.420438e-08	-8.056148e+00	-9.376101e+02
7.500000e-07	-9.666384e-07	-1.330022e-08	-7.050021e+00	-8.784238e+02
7.600000e-07	-8.283593e-07	-1.234152e-08	-6.041505e+00	-8.153461e+02
7.700000e-07	-6.897504e-07	-1.132773e-08	-5.030583e+00	-7.485073e+02
7.800000e-07	-5.507998e-07	-1.026182e-08	-4.017169e+00	-6.782764e+02
7.900000e-07	-4.116551e-07	-9.150711e-09	-3.002340e+00	-6.052464e+02
8.000000e-07	-2.723424e-07	-8.007027e-09	-1.986285e+00	-5.301698e+02
8.100000e-07	-1.328747e-07	-6.841724e-09	-9.691000e-01	-4.538532e+02
8.200000e-07	6.728787e-09	-5.667329e-09	4.907532e-02	-3.770301e+02
8.300000e-07	1.464189e-07	-4.494905e-09	1.067883e+00	-3.002367e+02
8.400000e-07	2.861083e-07	-3.329656e-09	2.086685e+00	-2.237186e+02
8.500000e-07	4.256649e-07	-2.169584e-09	3.104518e+00	-1.473934e+02
8.600000e-07	5.650147e-07	-1.007613e-09	4.120843e+00	-7.087853e+01
8.700000e-07	7.041659e-07	1.657715e-10	5.135720e+00	6.414766e+00
8.800000e-07	8.430277e-07	1.359836e-09	6.148487e+00	8.513838e+01
8.900000e-07	9.815352e-07	2.584344e-09	7.158668e+00	1.658425e+02
9.000000e-07	1.119659e-06	3.844918e-09	8.166050e+00	2.488216e+02
9.100000e-07	1.257357e-06	5.140377e-09	9.170327e+00	3.340032e+02
9.200000e-07	1.394539e-06	6.465396e-09	1.017085e+01	4.209020e+02
9.300000e-07	1.531195e-06	7.805529e-09	1.116752e+01	5.086485e+02
9.400000e-07	1.667388e-06	9.140559e-09	1.216083e+01	5.960870e+02
9.500000e-07	1.803041e-06	1.044899e-08	1.315019e+01	6.819225e+02
9.600000e-07	1.938003e-06	1.171160e-08	1.413451e+01	7.648870e+02
9.700000e-07	2.072149e-06	1.290976e-08	1.511288e+01	8.438944e+02
9.800000e-07	2.205466e-06	1.403044e-08	1.608521e+01	9.181558e+02
9.900000e-07	2.338070e-06	1.507080e-08	1.705233e+01	9.872372e+02
1.000000e-06	2.469893e-06	1.603512e-08	1.801377e+01	1.051055e+03
1.010000e-06	2.600700e-06	1.692643e-08	1.896778e+01	1.109820e+03
1.020000e-06	2.730400e-06	1.775008e-08	1.991373e+01	1.163941e+03
1.030000e-06	2.859077e-06	1.851200e-08	2.085222e+01	1.213922e+03
1.040000e-06	2.986731e-06	1.921796e-08	2.178324e+01	1.260266e+03
1.050000e-06	3.113253e-06	1.987415e-08	2.270601e+01	1.303409e+03
1.060000e-06	3.238690e-06	2.048445e-08	2.362086e+01	1.343686e+03
1.070000e-06	3.363079e-06	2.105191e-08	2.452808e+01	1.381333e+03
1.080000e-06	3.486234e-06	2.158113e-08	2.542628e+01	1.416515e+03
1.090000e-06	3.608000e-06	2.207524e-08	2.631436e+01	1.449367e+03
1.100000e-06	3.728497e-06	2.253875e-08	2.719319e+01	1.480022e+03
1.110000e-06	3.847757e-06	2.297275e-08	2.806299e+01	1.508643e+03
1.120000e-06	3.965572e-06	2.337946e-08	2.892226e+01	1.535420e+03
1.130000e-06	4.081899e-06	2.376542e-08	2.977067e+01	1.560561e+03
1.140000e-06	4.196610e-06	2.413005e-08	3.060730e+01	1.584269e+03
1.150000e-06	4.309709e-06	2.447561e-08	3.143217e+01	1.606719e+03
1.160000e-06	4.421285e-06	2.480115e-08	3.224593e+01	1.628037e+03
1.170000e-06	4.531239e-06	2.510794e-08	3.304786e+01	1.648301e+03
1.180000e-06	4.639728e-06	2.539706e-08	3.383911e+01	1.667541e+03
1.190000e-06	4.746615e-06	2.566919e-08	3.461867e+01	1.685766e+03
1.200000e-06	4.851675e-06	2.592627e-08	3.538491e+01	1.702979e+03
1.210000e-06	4.954979e-06	2.617014e-08	3.613834e+01	1.719201e+03
1.220000e-06	5.056583e-06	2.640283e-08	3.687937e+01	1.734482e+03
1.230000e-06	5.156438e-06	2.662462e-08	3.760765e+01	1.748901e+03
1.240000e-06	5.254300e-06	2.683584e-08	3.832139e+01	1.762553e+03
1.250000e-06	5.350088e-06	2.703506e-08	3.902000e+01	1.775538e+03
1.260000e-06	5.443962e-06	2.722177e-08	3.970466e+01	1.787940e+03
1.270000e-06	5.536034e-06	2.739806e-08	4.037617e+01	1.799814e+03
1.280000e-06	5.626075e-06	2.756679e-08	4.103287e+01	1.811185e+03
1.290000e-06	5.713937e-06	2.772932e-08	4.167368e+01	1.822046e+03
1.300000e-06	5.799757e-06	2.788522e-08	4.229959e+01	1.832375e+03
1.310000e-06	5.883573e-06	2.803465e-08	4.291089e+01	1.842149e+03
1.320000e-06	5.965315e-06	2.817839e-08	4.350706e+01	1.851354e+03
1.330000e-06	6.044881e-06	2.831510e-08	4.408736e+01	1.859999e+03
1.340000e-06	6.122187e-06	2.844319e-08	4.465118e+01	1.868115e+03
1.350000e-06	6.197115e-06	2.856275e-08	4.519766e+01	1.875748e+03
1.360000e-06	6.269666e-06	2.867347e-08	4.572680e+01	1.882951e+03
1.370000e-06	6.339926e-06	2.877605e-08	4.623923e+01	1.889771e+03
1.380000e-06	6.408009e-06	2.887145e-08	4.673578e+01	1.896243e+03
1.390000e-06	6.473824e-06	2.896297e-08	4.721579e+01	1.902384e+03
1.400000e-06	6.537254e-06	2.905093e-08	4.767840e+01	1.908200e+03
1.410000e-06	6.598511e-06	2.913408e-08	4.812518e+01	1.913687e+03
1.420000e-06	6.657519e-06	2.921304e-08	4.855554e+01	1.918842e+03
1.430000e-06	6.714132e-06	2.928779e-08	4.896844e+01	1.923673e+03
1.440000e-06	6.768329e-06	2.935681e-08	4.936372e+01	1.928195e+03
1.450000e-06	6.819800e-06	2.941965e-08	4.973911e+01	1.932435e+03
1.460000e-06	6.868465e-06	2.947957e-08	5.009404e+01	1.936421e+03
1.470000e-06	6.914636e-06	2.953812e-08	5.043078e+01	1.940178e+03
1.480000e-06	6.958457e-06	2.959484e-08	5.075038e+01	1.943717e+03
1.490000e-06	6.999741e-06	2.964655e-08	5.105148e+01	1.947034e+03
1.500000e-06	7.038428e-06	2.969278e-08	5.133364e+01	1.950112e+03
1.510000e-06	7.074744e-06	2.973364e-08	5.159850e+01	1.952925e+03
1.520000e-06	7.108586e-06	2.976894e-08	5.184533e+01	1.955447e+03
1.530000e-06	7.139856e-06	2.980083e-08	5.207339e+01	1.957666e+03
1.540000e-06	7.168677e-06	2.983031e-08	5.228359e+01	1.959581e+03
1.550000e-06	7.194838e-06	2.985617e-08	5.247439e+01	1.961212e+03
1.560000e-06	7.218285e-06	2.987875e-08	5.264540e+01	1.962591e+03
1.570000e-06	7.239270e-06	2.989855e-08	5.279845e+01	1.963757e+03
1.580000e-06	7.257829e-06	2.991448e-08	5.293380e+01	1.964743e+03
1.590000e-06	7.273708e-06	2.992685e-08	5.304962e+01	1.965572e+03
1.600000e-06	7.286784e-06	2.993696e-08	5.314499e+01	1.966249e+03
1.610000e-06	7.297008e-06	2.994499e-08	5.321955e+01	1.966767e+03
1.620000e-06	7.304391e-06	2.995060e-08	5.327339e+01	1.967106e+03
1.630000e-06	7.309217e-06	2.995370e-08	5.330859e+01	1.967245e+03
1.640000e-06	7.311494e-06	2.995481e-08	5.332520e+01	1.967173e+03
1.650000e-06	7.311083e-06	2.995509e-08	5.332220e+01	1.966886e+03
1.660000e-06	7.308254e-06	2.994296e-08	5.330157e+01	1.966398e+03
1.670000e-06	7.303053e-06	2.993167e-08	5.326364e+01	1.965728e+03
1.680000e-06	7.295342e-06	2.992361e-08	5.320740e+01	1.964899e+03
1.690000e-06	7.285309e-06	2.991137e-08	5.313422e+01	1.963928e+03
1.700000e-06	7.272754e-06	2.989689e-08	5.304266e+01	1.962822e+03
1.710000e-06	7.257583e-06	2.988701e-08	5.293201e+01	1.961575e+03
1.720000e-06	7.240128e-06	2.988535e-08	5.280471e+01	1.960172e+03
1.730000e-06	7.220577e-06	2.983912e-08	5.266212e+01	1.958598e+03
1.740000e-06	7.198473e-06	2.972478e-08	5.250090e+01	1.956846e+03
1.750000e-06	7.173083e-06	2.973126e-08	5.231572e+01	1.954924e+03
1.760000e-06	7.144320e-06	2.975147e-08	5.210594e+01	1.952857e+03
1.770000e-06	7.112768e-06	2.969205e-08	5.187582e+01	1.950679e+03
1.780000e-06	7.079065e-06	2.969585e-08	5.163002e+01	1.948431e+03
1.790000e-06	7.043700e-06	2.976049e-08	5.137209e+01	1.946139e+03
1.800000e-06	7.006799e-06	2.960263e-08	5.110296e+01	1.943806e+03
1.810000e-06	6.967576e-06	2.956301e-08	5.081689e+01	1.941408e+03
1.820000e-06	6.925666e-06	2.963836e-08	5.051122e+01	1.938887e+03
1.830000e-06	6.881537e-06	2.948074e-08	5.018938e+01	1.936164e+03
1.840000e-06	6.834975e-06	2.955740e-08	4.984979e+01	1.933154e+03
1.850000e-06	6.785741e-06	2.947259e-08	4.949071e+01	1.929787e+03
1.860000e-06	6.733917e-06	2.936135e-08	4.911274e+01	1.926017e+03
1.870000e-06	6.679339e-06	2.936925e-08	4.871468e+01	1.921840e+03
1.880000e-06	6.622241e-06	2.919015e-08	4.829824e+01	1.917287e+03
1.890000e-06	6.562658e-06	2.920083e-08	4.786368e+01	1.912420e+03
1.900000e-06	6.500516e-06	2.909873e-08	4.741046e+01	1.907308e+03
1.910000e-06	6.435931e-06	2.900421e-08	4.693943e+01	1.902013e+03
1.920000e-06	6.368905e-06	2.898431e-08	4.645058e+01	1.896567e+03
1.930000e-06	6.299504e-06	2.883199e-08	4.594442e+01	1.890969e+03
1.940000e-06	6.227665e-06	2.880043e-08	4.542047e+01	1.885176e+03
1.950000e-06	6.153464e-06	2.865864e-08	4.487930e+01	1.879124e+03
1.960000e-06	6.076790e-06	2.857885e-08	4.432009e+01	1.872740e+03
1.970000e-06	5.997594e-06	2.847466e-08	4.374249e+01	1.865962e+03
1.980000e-06	5.916272e-06	2.833847e-08	4.314937e+01	1.858754e+03
1.990000e-06	5.832923e-06	2.827986e-08	4.254148e+01	1.851117e+03
2.000000e-06	5.747455e-06	2.812083e-08	4.191813e+01	1.843081e+03
2.010000e-06	5.659817e-06	2.802348e-08	4.127896e+01	1.834692e+03
2.020000e-06	5.570163e-06	2.787637e-08	4.062509e+01	1.825998e+03
2.030000e-06	5.478587e-06	2.774203e-08	3.995719e+01	1.817026e+03
2.040000e-06	5.385016e-06	2.759943e-08	3.927474e+01	1.807773e+03
2.050000e-06	5.289518e-06	2.744996e-08	3.857825e+01	1.798199e+03
2.060000e-06	5.192254e-06	2.731436e-08	3.786886e+01	1.788240e+03
2.070000e-06	5.093294e-06	2.713293e-08	3.714712e+01	1.777819e+03
2.080000e-06	4.992527e-06	2.697231e-08	3.641219e+01	1.766865e+03
2.090000e-06	4.889882e-06	2.678940e-08	3.566357e+01	1.755331e+03
2.100000e-06	4.785414e-06	2.661863e-08	3.490164e+01	1.743201e+03
2.110000e-06	4.679375e-06	2.642869e-08	3.412827e+01	1.730488e+03
2.120000e-06	4.571818e-06	2.623845e-08	3.334381e+01	1.717223e+03
2.130000e-06	4.462694e-06	2.603011e-08	3.254794e+01	1.703435e+03
2.140000e-06	4.351956e-06	2.580580e-08	3.174029e+01	1.689137e+03
2.150000e-06	4.239471e-06	2.557351e-08	3.091989e+01	1.674306e+03
2.160000e-06	4.125309e-06	2.533635e-08	3.008727e+01	1.658885e+03
2.170000e-06	4.009488e-06	2.509646e-08	2.924255e+01	1.642788e+03
2.180000e-06	3.892041e-06	2.483639e-08	2.838597e+01	1.625914e+03
2.190000e-06	3.772946e-06	2.457126e-08	2.751737e+01	1.608172e+03
2.200000e-06	3.652320e-06	2.428938e-08	2.663760e+01	1.589494e+03
2.210000e-06	3.530386e-06	2.399862e-08	2.574830e+01	1.569844e+03
2.220000e-06	3.407113e-06	2.368714e-08	2.484923e+01	1.549214e+03
2.230000e-06	3.282596e-06	2.336614e-08	2.394108e+01	1.527611e+03
2.240000e-06	3.156990e-06	2.302286e-08	2.302500e+01	1.505032e+03
2.250000e-06	3.030220e-06	2.266185e-08	2.210042e+01	1.481441e+03
2.260000e-06	2.902246e-06	2.228102e-08	2.116706e+01	1.456755e+03
2.270000e-06	2.773161e-06	2.188232e-08	2.022561e+01	1.430837e+03
2.280000e-06	2.643154e-06	2.146714e-08	1.927742e+01	1.403508e+03
2.290000e-06	2.512210e-06	2.102920e-08	1.832240e+01	1.374566e+03
2.300000e-06	2.380291e-06	2.056604e-08	1.736027e+01	1.343812e+03
2.310000e-06	2.247619e-06	2.007089e-08	1.639264e+01	1.311072e+03
2.320000e-06	2.114286e-06	1.954250e-08	1.542021e+01	1.276210e+03
2.330000e-06	1.980195e-06	1.897660e-08	1.444223e+01	1.239115e+03
2.340000e-06	1.845351e-06	1.837507e-08	1.345877e+01	1.199685e+03
2.350000e-06	1.709840e-06	1.773535e-08	1.247044e+01	1.157794e+03
2.360000e-06	1.573689e-06	1.705773e-08	1.147745e+01	1.113264e+03
2.370000e-06	1.436996e-06	1.633389e-08	1.048050e+01	1.065857e+03
2.380000e-06	1.299862e-06	1.556005e-08	9.480331e+00	1.015276e+03
2.390000e-06	1.162331e-06	1.473317e-08	8.477274e+00	9.612134e+02
2.400000e-06	1.024465e-06	1.385094e-08	7.471771e+00	9.034062e+02
2.410000e-06	8.863181e-07	1.291118e-08	6.464218e+00	8.417145e+02
2.420000e-06	7.479063e-07	1.191428e-08	5.454734e+00	7.761885e+02
2.430000e-06	6.091645e-07	1.086627e-08	4.442843e+00	7.071111e+02
2.440000e-06	4.701152e-07	9.771692e-09	3.428710e+00	6.350001e+02
2.450000e-06	3.308303e-07	8.635671e-09	2.412857e+00	5.605613e+02
2.460000e-06	1.913305e-07	7.469113e-09	1.395438e+00	4.845961e+02
2.470000e-06	5.170830e-08	6.289729e-09	3.771262e-01	4.078790e+02
2.480000e-06	-8.799502e-08	5.112052e-09	-6.417774e-01	3.310296e+02
2.490000e-06	-2.276629e-07	3.941124e-09	-1.660422e+00	2.544048e+02
2.500000e-06	-3.671993e-07	2.773599e-09	-2.678109e+00	1.780398e+02
2.510000e-06	-5.065612e-07	1.604594e-09	-3.694523e+00	1.016515e+02
2.520000e-06	-6.456712e-07	4.267928e-10	-4.709098e+00	2.471054e+01
2.530000e-06	-7.845419e-07	-7.680834e-10	-5.721930e+00	-5.343094e+01
2.540000e-06	-9.231647e-07	-1.987626e-09	-6.732953e+00	-1.333784e+02
2.550000e-06	-1.061419e-06	-3.238080e-09	-7.741290e+00	-2.155332e+02
2.560000e-06	-1.199298e-06	-4.524746e-09	-8.746884e+00	-2.999630e+02
2.570000e-06	-1.336808e-06	-5.846523e-09	-9.749797e+00	-3.863305e+02
2.580000e-06	-1.473869e-06	-7.190219e-09	-1.074943e+01	-4.738955e+02
2.590000e-06	-1.610425e-06	-8.538355e-09	-1.174537e+01	-5.615896e+02
2.600000e-06	-1.746392e-06	-9.866160e-09	-1.273703e+01	-6.481488e+02
2.610000e-06	-1.881670e-06	-1.115383e-08	-1.372366e+01	-7.322764e+02
2.620000e-06	-2.016075e-06	-1.238475e-08	-1.470392e+01	-8.128056e+02
2.630000e-06	-2.149600e-06	-1.354311e-08	-1.567776e+01	-8.888315e+02
2.640000e-06	-2.282364e-06	-1.462371e-08	-1.664605e+01	-9.597906e+02
2.650000e-06	-2.414356e-06	-1.562838e-08	-1.760872e+01	-1.025478e+03
2.660000e-06	-2.545483e-06	-1.656003e-08	-1.856507e+01	-1.086010e+03
2.670000e-06	-2.675611e-06	-1.741927e-08	-1.951414e+01	-1.141734e+03
2.680000e-06	-2.804788e-06	-1.821152e-08	-2.045627e+01	-1.193135e+03
2.690000e-06	-2.933028e-06	-1.894522e-08	-2.139157e+01	-1.240724e+03
2.700000e-06	-3.060121e-06	-1.962664e-08	-2.231850e+01	-1.284968e+03
2.710000e-06	-3.185994e-06	-2.026079e-08	-2.323654e+01	-1.326237e+03
2.720000e-06	-3.310771e-06	-2.085289e-08	-2.414657e+01	-1.364802e+03
2.730000e-06	-3.434350e-06	-2.140547e-08	-2.504788e+01	-1.400849e+03
2.740000e-06	-3.556632e-06	-2.191857e-08	-2.593972e+01	-1.434519e+03
2.750000e-06	-3.677727e-06	-2.239552e-08	-2.682291e+01	-1.465942e+03
2.760000e-06	-3.797542e-06	-2.284101e-08	-2.769676e+01	-1.495270e+03
2.770000e-06	-3.915819e-06	-2.326030e-08	-2.855940e+01	-1.522683e+03
2.780000e-06	-4.032532e-06	-2.365662e-08	-2.941062e+01	-1.548384e+03
2.790000e-06	-4.147708e-06	-2.403282e-08	-3.025064e+01	-1.572583e+03
2.800000e-06	-4.261108e-06	-2.438790e-08	-3.107770e+01	-1.595466e+03
2.810000e-06	-4.372756e-06	-2.471999e-08	-3.189199e+01	-1.617177e+03
2.820000e-06	-4.482836e-06	-2.503336e-08	-3.269484e+01	-1.637813e+03
2.830000e-06	-4.591426e-06	-2.533074e-08	-3.348682e+01	-1.657417e+03
2.840000e-06	-4.698530e-06	-2.561520e-08	-3.426797e+01	-1.676005e+03
2.850000e-06	-4.804089e-06	-2.588218e-08	-3.503784e+01	-1.693579e+03
2.860000e-06	-4.907914e-06	-2.613155e-08	-3.579508e+01	-1.710152e+03
2.870000e-06	-5.009825e-06	-2.636871e-08	-3.653835e+01	-1.725762e+03
2.880000e-06	-5.109913e-06	-2.659649e-08	-3.726832e+01	-1.740479e+03
2.890000e-06	-5.208196e-06	-2.681637e-08	-3.798514e+01	-1.754394e+03
2.900000e-06	-5.304662e-06	-2.702553e-08	-3.868870e+01	-1.767607e+03
2.910000e-06	-5.399190e-06	-2.722300e-08	-3.937812e+01	-1.780210e+03
2.920000e-06	-5.491727e-06	-2.740963e-08	-4.005302e+01	-1.792269e+03
2.930000e-06	-5.582325e-06	-2.758510e-08	-4.071378e+01	-1.803820e+03
2.940000e-06	-5.670961e-06	-2.774980e-08	-4.136024e+01	-1.814866e+03
