# Temperatura_=_46.02
# Concentracion g/m^3_=_28200.0
# C_Vs_to_Am_M_A/Vsm_=_65563218390.804596
# pendiente_HvsI_1/m_=_3716.3
# ordenada_HvsI_A/m_=_1297.0
# frecuencia_Hz_=_302375.20082791854

Tiempo_(s)	Campo_(V.s)	Magnetizacion_(V.s)	Campo_(kA/m)	Magnetizacion_(A/m)
0.000000e+00	-7.330911e-06	-2.996344e-08	-5.318970e+01	-1.961180e+03
1.000000e-08	-7.327036e-06	-2.996109e-08	-5.316158e+01	-1.960618e+03
2.000000e-08	-7.320805e-06	-2.994694e-08	-5.311637e+01	-1.959895e+03
3.000000e-08	-7.312161e-06	-2.993087e-08	-5.305365e+01	-1.959027e+03
4.000000e-08	-7.300963e-06	-2.991353e-08	-5.297241e+01	-1.958023e+03
5.000000e-08	-7.287086e-06	-2.989329e-08	-5.287172e+01	-1.956880e+03
6.000000e-08	-7.270582e-06	-2.986697e-08	-5.275197e+01	-1.955586e+03
7.000000e-08	-7.251859e-06	-2.983844e-08	-5.261613e+01	-1.954125e+03
8.000000e-08	-7.230977e-06	-2.982648e-08	-5.246462e+01	-1.952490e+03
9.000000e-08	-7.207483e-06	-2.985672e-08	-5.229416e+01	-1.950687e+03
1.000000e-07	-7.181052e-06	-2.982118e-08	-5.210239e+01	-1.948740e+03
1.100000e-07	-7.151785e-06	-2.974331e-08	-5.189004e+01	-1.946689e+03
1.200000e-07	-7.120006e-06	-2.970033e-08	-5.165946e+01	-1.944573e+03
1.300000e-07	-7.085801e-06	-2.965159e-08	-5.141129e+01	-1.942427e+03
1.400000e-07	-7.049412e-06	-2.955738e-08	-5.114727e+01	-1.940256e+03
1.500000e-07	-7.011161e-06	-2.949109e-08	-5.086974e+01	-1.938037e+03
1.600000e-07	-6.970742e-06	-2.956870e-08	-5.057648e+01	-1.935708e+03
1.700000e-07	-6.927908e-06	-2.950789e-08	-5.026569e+01	-1.933183e+03
1.800000e-07	-6.882703e-06	-2.942681e-08	-4.993771e+01	-1.930369e+03
1.900000e-07	-6.834891e-06	-2.942672e-08	-4.959080e+01	-1.927180e+03
2.000000e-07	-6.784215e-06	-2.929214e-08	-4.922312e+01	-1.923564e+03
2.100000e-07	-6.730849e-06	-2.921810e-08	-4.883592e+01	-1.919514e+03
2.200000e-07	-6.674931e-06	-2.916721e-08	-4.843021e+01	-1.915064e+03
2.300000e-07	-6.616448e-06	-2.909767e-08	-4.800588e+01	-1.910288e+03
2.400000e-07	-6.555511e-06	-2.904052e-08	-4.756375e+01	-1.905271e+03
2.500000e-07	-6.492265e-06	-2.894907e-08	-4.710487e+01	-1.900094e+03
2.600000e-07	-6.426575e-06	-2.889760e-08	-4.662825e+01	-1.894804e+03
2.700000e-07	-6.358380e-06	-2.880987e-08	-4.613346e+01	-1.889406e+03
2.800000e-07	-6.287863e-06	-2.870994e-08	-4.562182e+01	-1.883858e+03
2.900000e-07	-6.214914e-06	-2.862887e-08	-4.509254e+01	-1.878084e+03
3.000000e-07	-6.139394e-06	-2.853458e-08	-4.454460e+01	-1.871994e+03
3.100000e-07	-6.061254e-06	-2.842348e-08	-4.397765e+01	-1.865507e+03
3.200000e-07	-5.980672e-06	-2.829077e-08	-4.339299e+01	-1.858572e+03
3.300000e-07	-5.898015e-06	-2.821363e-08	-4.279327e+01	-1.851183e+03
3.400000e-07	-5.813433e-06	-2.809918e-08	-4.217958e+01	-1.843372e+03
3.500000e-07	-5.726921e-06	-2.795880e-08	-4.155189e+01	-1.835200e+03
3.600000e-07	-5.638392e-06	-2.784158e-08	-4.090956e+01	-1.826731e+03
3.700000e-07	-5.547782e-06	-2.771289e-08	-4.025213e+01	-1.818012e+03
3.800000e-07	-5.455155e-06	-2.757324e-08	-3.958008e+01	-1.809055e+03
3.900000e-07	-5.360603e-06	-2.742542e-08	-3.889405e+01	-1.799826e+03
4.000000e-07	-5.264146e-06	-2.728562e-08	-3.819421e+01	-1.790252e+03
4.100000e-07	-5.165855e-06	-2.711467e-08	-3.748105e+01	-1.780241e+03
4.200000e-07	-5.065812e-06	-2.694041e-08	-3.675519e+01	-1.769702e+03
4.300000e-07	-4.963944e-06	-2.677383e-08	-3.601608e+01	-1.758567e+03
4.400000e-07	-4.860239e-06	-2.660291e-08	-3.526365e+01	-1.746809e+03
4.500000e-07	-4.754807e-06	-2.641931e-08	-3.449867e+01	-1.734441e+03
4.600000e-07	-4.647659e-06	-2.622615e-08	-3.372126e+01	-1.721509e+03
4.700000e-07	-4.538863e-06	-2.602293e-08	-3.293189e+01	-1.708064e+03
4.800000e-07	-4.428539e-06	-2.579846e-08	-3.213143e+01	-1.694146e+03
4.900000e-07	-4.316547e-06	-2.557254e-08	-3.131886e+01	-1.679758e+03
5.000000e-07	-4.202817e-06	-2.534955e-08	-3.049370e+01	-1.664855e+03
5.100000e-07	-4.087391e-06	-2.511809e-08	-2.965622e+01	-1.649351e+03
5.200000e-07	-3.970340e-06	-2.486266e-08	-2.880695e+01	-1.633135e+03
5.300000e-07	-3.851815e-06	-2.459540e-08	-2.794698e+01	-1.616090e+03
5.400000e-07	-3.731870e-06	-2.432050e-08	-2.707672e+01	-1.598126e+03
5.500000e-07	-3.610547e-06	-2.403195e-08	-2.619646e+01	-1.579186e+03
5.600000e-07	-3.487841e-06	-2.372987e-08	-2.530616e+01	-1.559259e+03
5.700000e-07	-3.363790e-06	-2.341482e-08	-2.440610e+01	-1.538359e+03
5.800000e-07	-3.238537e-06	-2.308103e-08	-2.349732e+01	-1.516509e+03
5.900000e-07	-3.112109e-06	-2.272470e-08	-2.258002e+01	-1.493707e+03
6.000000e-07	-2.984458e-06	-2.235388e-08	-2.165384e+01	-1.469901e+03
6.100000e-07	-2.855637e-06	-2.196937e-08	-2.071918e+01	-1.444979e+03
6.200000e-07	-2.725728e-06	-2.156795e-08	-1.977662e+01	-1.418772e+03
6.300000e-07	-2.594844e-06	-2.114210e-08	-1.882699e+01	-1.391071e+03
6.400000e-07	-2.463048e-06	-2.068985e-08	-1.787074e+01	-1.361660e+03
6.500000e-07	-2.330357e-06	-2.020987e-08	-1.690799e+01	-1.330342e+03
6.600000e-07	-2.196883e-06	-1.970316e-08	-1.593956e+01	-1.296964e+03
6.700000e-07	-2.062705e-06	-1.916712e-08	-1.496603e+01	-1.261414e+03
6.800000e-07	-1.927797e-06	-1.859436e-08	-1.398721e+01	-1.223604e+03
6.900000e-07	-1.792155e-06	-1.798327e-08	-1.300305e+01	-1.183445e+03
7.000000e-07	-1.655851e-06	-1.733168e-08	-1.201409e+01	-1.140796e+03
7.100000e-07	-1.518955e-06	-1.663566e-08	-1.102083e+01	-1.095450e+03
7.200000e-07	-1.381502e-06	-1.589087e-08	-1.002354e+01	-1.047115e+03
7.300000e-07	-1.243512e-06	-1.509685e-08	-9.022347e+00	-9.954457e+02
7.400000e-07	-1.105086e-06	-1.425065e-08	-8.017994e+00	-9.400959e+02
7.500000e-07	-9.663383e-07	-1.334737e-08	-7.011303e+00	-8.807953e+02
7.600000e-07	-8.273038e-07	-1.238384e-08	-6.002534e+00	-8.174321e+02
7.700000e-07	-6.879263e-07	-1.136220e-08	-4.991274e+00	-7.501177e+02
7.800000e-07	-5.482228e-07	-1.028684e-08	-3.977651e+00	-6.792168e+02
7.900000e-07	-4.082858e-07	-9.162334e-09	-2.962333e+00	-6.053260e+02
8.000000e-07	-2.681252e-07	-8.000967e-09	-1.945392e+00	-5.292022e+02
8.100000e-07	-1.278215e-07	-6.816116e-09	-9.274135e-01	-4.516478e+02
8.200000e-07	1.254464e-08	-5.619455e-09	9.101812e-02	-3.733772e+02
8.300000e-07	1.529237e-07	-4.420281e-09	1.109543e+00	-2.948917e+02
8.400000e-07	2.932627e-07	-3.224454e-09	2.127778e+00	-2.163934e+02
8.500000e-07	4.335066e-07	-2.028584e-09	3.145323e+00	-1.377587e+02
8.600000e-07	5.735694e-07	-8.241264e-10	4.161554e+00	-5.858401e+01
8.700000e-07	7.133999e-07	3.951316e-10	5.176099e+00	2.170403e+01
8.800000e-07	8.529934e-07	1.638693e-09	6.188925e+00	1.036929e+02
8.900000e-07	9.922963e-07	2.915177e-09	7.199642e+00	1.878149e+02
9.000000e-07	1.131179e-06	4.227478e-09	8.207309e+00	2.741991e+02
9.100000e-07	1.269625e-06	5.571361e-09	9.211809e+00	3.625766e+02
9.200000e-07	1.407693e-06	6.939496e-09	1.021357e+01	4.522594e+02
9.300000e-07	1.545314e-06	8.313734e-09	1.121208e+01	5.421970e+02
9.400000e-07	1.682308e-06	9.669749e-09	1.220605e+01	6.311014e+02
9.500000e-07	1.818513e-06	1.098662e-08	1.319429e+01	7.176127e+02
9.600000e-07	1.953949e-06	1.224485e-08	1.417695e+01	8.004745e+02
9.700000e-07	2.088672e-06	1.342926e-08	1.515443e+01	8.786841e+02
9.800000e-07	2.222605e-06	1.452910e-08	1.612619e+01	9.515917e+02
9.900000e-07	2.355772e-06	1.554402e-08	1.709239e+01	1.018935e+03
1.000000e-06	2.488143e-06	1.648050e-08	1.805281e+01	1.080807e+03
1.010000e-06	2.619489e-06	1.734385e-08	1.900580e+01	1.137574e+03
1.020000e-06	2.749823e-06	1.813890e-08	1.995144e+01	1.189763e+03
1.030000e-06	2.879195e-06	1.887268e-08	2.089010e+01	1.237951e+03
1.040000e-06	3.007386e-06	1.955384e-08	2.182020e+01	1.282667e+03
1.050000e-06	3.134427e-06	2.018714e-08	2.274195e+01	1.324337e+03
1.060000e-06	3.260427e-06	2.077568e-08	2.365615e+01	1.363265e+03
1.070000e-06	3.385353e-06	2.132223e-08	2.456255e+01	1.399652e+03
1.080000e-06	3.509076e-06	2.182970e-08	2.546023e+01	1.433635e+03
1.090000e-06	3.631518e-06	2.230441e-08	2.634861e+01	1.465331e+03
1.100000e-06	3.752645e-06	2.275176e-08	2.722745e+01	1.494878e+03
1.110000e-06	3.872363e-06	2.317269e-08	2.809607e+01	1.522446e+03
1.120000e-06	3.990686e-06	2.356722e-08	2.895457e+01	1.548242e+03
1.130000e-06	4.107606e-06	2.394032e-08	2.980288e+01	1.572485e+03
1.140000e-06	4.222972e-06	2.429270e-08	3.063993e+01	1.595381e+03
1.150000e-06	4.336641e-06	2.462491e-08	3.146466e+01	1.617095e+03
1.160000e-06	4.448632e-06	2.493681e-08	3.227722e+01	1.637735e+03
1.170000e-06	4.559055e-06	2.523111e-08	3.307839e+01	1.657357e+03
1.180000e-06	4.667986e-06	2.551080e-08	3.386875e+01	1.675973e+03
1.190000e-06	4.775319e-06	2.577513e-08	3.464751e+01	1.693578e+03
1.200000e-06	4.880897e-06	2.602552e-08	3.541353e+01	1.710177e+03
1.210000e-06	4.984658e-06	2.626264e-08	3.616637e+01	1.725800e+03
1.220000e-06	5.086649e-06	2.648727e-08	3.690637e+01	1.740511e+03
1.230000e-06	5.186860e-06	2.670145e-08	3.763345e+01	1.754408e+03
1.240000e-06	5.285134e-06	2.690439e-08	3.834648e+01	1.767598e+03
1.250000e-06	5.381351e-06	2.709583e-08	3.904459e+01	1.780184e+03
1.260000e-06	5.475581e-06	2.727724e-08	3.972828e+01	1.792244e+03
1.270000e-06	5.567965e-06	2.744911e-08	4.039857e+01	1.803816e+03
1.280000e-06	5.658406e-06	2.761446e-08	4.105478e+01	1.814901e+03
1.290000e-06	5.746699e-06	2.777316e-08	4.169539e+01	1.825470e+03
1.300000e-06	5.832916e-06	2.792501e-08	4.232094e+01	1.835486e+03
1.310000e-06	5.917194e-06	2.807039e-08	4.293242e+01	1.844915e+03
1.320000e-06	5.999357e-06	2.820798e-08	4.352856e+01	1.853748e+03
1.330000e-06	6.079213e-06	2.833587e-08	4.410795e+01	1.862005e+03
1.340000e-06	6.156797e-06	2.845491e-08	4.467087e+01	1.869733e+03
1.350000e-06	6.232050e-06	2.856697e-08	4.521687e+01	1.876998e+03
1.360000e-06	6.304914e-06	2.867373e-08	4.574553e+01	1.883868e+03
1.370000e-06	6.375498e-06	2.877555e-08	4.625766e+01	1.890399e+03
1.380000e-06	6.443849e-06	2.887238e-08	4.675359e+01	1.896628e+03
1.390000e-06	6.509862e-06	2.896243e-08	4.723255e+01	1.902567e+03
1.400000e-06	6.573507e-06	2.904604e-08	4.769432e+01	1.908212e+03
1.410000e-06	6.634960e-06	2.912423e-08	4.814020e+01	1.913547e+03
1.420000e-06	6.694159e-06	2.919823e-08	4.856971e+01	1.918563e+03
1.430000e-06	6.750915e-06	2.926976e-08	4.898152e+01	1.923258e+03
1.440000e-06	6.805263e-06	2.933681e-08	4.937584e+01	1.927646e+03
1.450000e-06	6.856966e-06	2.940002e-08	4.975097e+01	1.931755e+03
1.460000e-06	6.905804e-06	2.945996e-08	5.010531e+01	1.935615e+03
1.470000e-06	6.952067e-06	2.951701e-08	5.044098e+01	1.939251e+03
1.480000e-06	6.995992e-06	2.957183e-08	5.075968e+01	1.942677e+03
1.490000e-06	7.037446e-06	2.962204e-08	5.106045e+01	1.945888e+03
1.500000e-06	7.076346e-06	2.966623e-08	5.134269e+01	1.948865e+03
1.510000e-06	7.112840e-06	2.970563e-08	5.160747e+01	1.951582e+03
1.520000e-06	7.146786e-06	2.973993e-08	5.185377e+01	1.954011e+03
1.530000e-06	7.178074e-06	2.977103e-08	5.208078e+01	1.956140e+03
1.540000e-06	7.206921e-06	2.980035e-08	5.229008e+01	1.957971e+03
1.550000e-06	7.233221e-06	2.982493e-08	5.248090e+01	1.959526e+03
1.560000e-06	7.256756e-06	2.984498e-08	5.265166e+01	1.960837e+03
1.570000e-06	7.277768e-06	2.986221e-08	5.280411e+01	1.961945e+03
1.580000e-06	7.296377e-06	2.987850e-08	5.293913e+01	1.962882e+03
1.590000e-06	7.312286e-06	2.989168e-08	5.305456e+01	1.963668e+03
1.600000e-06	7.325316e-06	2.989999e-08	5.314910e+01	1.964306e+03
1.610000e-06	7.335409e-06	2.990591e-08	5.322233e+01	1.964786e+03
1.620000e-06	7.342661e-06	2.991043e-08	5.327495e+01	1.965088e+03
1.630000e-06	7.347404e-06	2.991361e-08	5.330936e+01	1.965193e+03
1.640000e-06	7.349587e-06	2.991487e-08	5.332520e+01	1.965091e+03
1.650000e-06	7.349085e-06	2.991431e-08	5.332156e+01	1.964784e+03
1.660000e-06	7.346152e-06	2.990432e-08	5.330028e+01	1.964285e+03
1.670000e-06	7.340832e-06	2.989352e-08	5.326168e+01	1.963616e+03
1.680000e-06	7.333026e-06	2.988197e-08	5.320504e+01	1.962798e+03
1.690000e-06	7.322763e-06	2.986832e-08	5.313058e+01	1.961841e+03
1.700000e-06	7.309928e-06	2.985533e-08	5.303745e+01	1.960749e+03
1.710000e-06	7.294537e-06	2.984491e-08	5.292579e+01	1.959510e+03
1.720000e-06	7.276899e-06	2.983694e-08	5.279781e+01	1.958109e+03
1.730000e-06	7.257153e-06	2.978588e-08	5.265454e+01	1.956535e+03
1.740000e-06	7.234801e-06	2.969850e-08	5.249237e+01	1.954790e+03
1.750000e-06	7.209138e-06	2.970391e-08	5.230617e+01	1.952890e+03
1.760000e-06	7.180132e-06	2.970403e-08	5.209571e+01	1.950870e+03
1.770000e-06	7.148372e-06	2.965043e-08	5.186527e+01	1.948773e+03
1.780000e-06	7.114495e-06	2.966002e-08	5.161948e+01	1.946634e+03
1.790000e-06	7.078923e-06	2.971607e-08	5.136139e+01	1.944473e+03
1.800000e-06	7.041706e-06	2.959698e-08	5.109136e+01	1.942275e+03
1.810000e-06	7.002205e-06	2.956398e-08	5.080475e+01	1.939993e+03
1.820000e-06	6.960059e-06	2.958910e-08	5.049897e+01	1.937549e+03
1.830000e-06	6.915607e-06	2.946415e-08	5.017644e+01	1.934847e+03
1.840000e-06	6.868639e-06	2.951919e-08	4.983567e+01	1.931800e+03
1.850000e-06	6.819086e-06	2.944755e-08	4.947613e+01	1.928339e+03
1.860000e-06	6.766940e-06	2.938528e-08	4.909778e+01	1.924442e+03
1.870000e-06	6.711992e-06	2.935222e-08	4.869911e+01	1.920127e+03
1.880000e-06	6.654559e-06	2.918405e-08	4.828240e+01	1.915457e+03
1.890000e-06	6.594594e-06	2.917308e-08	4.784732e+01	1.910515e+03
1.900000e-06	6.532005e-06	2.907069e-08	4.739320e+01	1.905387e+03
1.910000e-06	6.466995e-06	2.900272e-08	4.692152e+01	1.900134e+03
1.920000e-06	6.399616e-06	2.896170e-08	4.643265e+01	1.894776e+03
1.930000e-06	6.329804e-06	2.883026e-08	4.592613e+01	1.889288e+03
1.940000e-06	6.257457e-06	2.876959e-08	4.540121e+01	1.883605e+03
1.950000e-06	6.182655e-06	2.864335e-08	4.485848e+01	1.877637e+03
1.960000e-06	6.105385e-06	2.858251e-08	4.429785e+01	1.871298e+03
1.970000e-06	6.025753e-06	2.845534e-08	4.372007e+01	1.864526e+03
1.980000e-06	5.943995e-06	2.832737e-08	4.312687e+01	1.857297e+03
1.990000e-06	5.860117e-06	2.825108e-08	4.251829e+01	1.849630e+03
2.000000e-06	5.774095e-06	2.810568e-08	4.189416e+01	1.841578e+03
2.010000e-06	5.685876e-06	2.800430e-08	4.125408e+01	1.833208e+03
2.020000e-06	5.595666e-06	2.786523e-08	4.059956e+01	1.824574e+03
2.030000e-06	5.503572e-06	2.773652e-08	3.993137e+01	1.815703e+03
2.040000e-06	5.409428e-06	2.757467e-08	3.924831e+01	1.806577e+03
2.050000e-06	5.313360e-06	2.743250e-08	3.855128e+01	1.797136e+03
2.060000e-06	5.215593e-06	2.730766e-08	3.784192e+01	1.787291e+03
2.070000e-06	5.116103e-06	2.714457e-08	3.712007e+01	1.776949e+03
2.080000e-06	5.014716e-06	2.697652e-08	3.638446e+01	1.766032e+03
2.090000e-06	4.911408e-06	2.678498e-08	3.563490e+01	1.754496e+03
2.100000e-06	4.806321e-06	2.660692e-08	3.487244e+01	1.742342e+03
2.110000e-06	4.699685e-06	2.641489e-08	3.409874e+01	1.729604e+03
2.120000e-06	4.591518e-06	2.623462e-08	3.331393e+01	1.716336e+03
2.130000e-06	4.481705e-06	2.603851e-08	3.251718e+01	1.702584e+03
2.140000e-06	4.370212e-06	2.581550e-08	3.170824e+01	1.688365e+03
2.150000e-06	4.257046e-06	2.557277e-08	3.088715e+01	1.673653e+03
2.160000e-06	4.142208e-06	2.532961e-08	3.005395e+01	1.658375e+03
2.170000e-06	4.025637e-06	2.509049e-08	2.920816e+01	1.642426e+03
2.180000e-06	3.907389e-06	2.483883e-08	2.835020e+01	1.625689e+03
2.190000e-06	3.787601e-06	2.457823e-08	2.748108e+01	1.608061e+03
2.200000e-06	3.666421e-06	2.429793e-08	2.660185e+01	1.589472e+03
2.210000e-06	3.543862e-06	2.399932e-08	2.571262e+01	1.569896e+03
2.220000e-06	3.419918e-06	2.368367e-08	2.481334e+01	1.549340e+03
2.230000e-06	3.294672e-06	2.336704e-08	2.390461e+01	1.527828e+03
2.240000e-06	3.168177e-06	2.303540e-08	2.298682e+01	1.505367e+03
2.250000e-06	3.040562e-06	2.268415e-08	2.206091e+01	1.481929e+03
2.260000e-06	2.911863e-06	2.230616e-08	2.112713e+01	1.457421e+03
2.270000e-06	2.782125e-06	2.190704e-08	2.018581e+01	1.431695e+03
2.280000e-06	2.651454e-06	2.148926e-08	1.923772e+01	1.404552e+03
2.290000e-06	2.519854e-06	2.105220e-08	1.828289e+01	1.375775e+03
2.300000e-06	2.387326e-06	2.059101e-08	1.732133e+01	1.345158e+03
2.310000e-06	2.253951e-06	2.009753e-08	1.635362e+01	1.312530e+03
2.320000e-06	2.119758e-06	1.956974e-08	1.537998e+01	1.277765e+03
2.330000e-06	1.984807e-06	1.900493e-08	1.440084e+01	1.240772e+03
2.340000e-06	1.849259e-06	1.840665e-08	1.341737e+01	1.201463e+03
2.350000e-06	1.713099e-06	1.777247e-08	1.242945e+01	1.159723e+03
2.360000e-06	1.576330e-06	1.710036e-08	1.143712e+01	1.115369e+03
2.370000e-06	1.439045e-06	1.637994e-08	1.044105e+01	1.068138e+03
2.380000e-06	1.301298e-06	1.560416e-08	9.441619e+00	1.017700e+03
2.390000e-06	1.163113e-06	1.477430e-08	8.439008e+00	9.637009e+02
2.400000e-06	1.024493e-06	1.388913e-08	7.433249e+00	9.058333e+02
2.410000e-06	8.855090e-07	1.294537e-08	6.424843e+00	8.439202e+02
2.420000e-06	7.462128e-07	1.194248e-08	5.414175e+00	7.779877e+02
2.430000e-06	6.065701e-07	1.088785e-08	4.400992e+00	7.083094e+02
2.440000e-06	4.667025e-07	9.784966e-09	3.386177e+00	6.354051e+02
2.450000e-06	3.266663e-07	8.634638e-09	2.370140e+00	5.599856e+02
2.460000e-06	1.864691e-07	7.451517e-09	1.352933e+00	4.828520e+02
2.470000e-06	4.616680e-08	6.252414e-09	3.349649e-01	4.047654e+02
2.480000e-06	-9.422809e-08	5.047883e-09	-6.836754e-01	3.263160e+02
2.490000e-06	-2.346007e-07	3.843118e-09	-1.702154e+00	2.478191e+02
2.500000e-06	-3.748164e-07	2.641589e-09	-2.719494e+00	1.692659e+02
2.510000e-06	-5.148790e-07	1.438980e-09	-3.735724e+00	9.034340e+01
2.520000e-06	-6.548157e-07	2.218210e-10	-4.751039e+00	1.052262e+01
2.530000e-06	-7.945016e-07	-1.018887e-09	-5.764536e+00	-7.079832e+01
2.540000e-06	-9.338611e-07	-2.288607e-09	-6.775664e+00	-1.541259e+02
2.550000e-06	-1.072853e-06	-3.592795e-09	-7.784123e+00	-2.397118e+02
2.560000e-06	-1.211438e-06	-4.932759e-09	-8.789630e+00	-3.274358e+02
2.570000e-06	-1.349583e-06	-6.301584e-09	-9.791950e+00	-4.167570e+02
2.580000e-06	-1.487250e-06	-7.684230e-09	-1.079080e+01	-5.067431e+02
2.590000e-06	-1.624432e-06	-9.061780e-09	-1.178613e+01	-5.961734e+02
2.600000e-06	-1.761002e-06	-1.040834e-08	-1.277702e+01	-6.836933e+02
2.610000e-06	-1.896763e-06	-1.169923e-08	-1.376203e+01	-7.679902e+02
2.620000e-06	-2.031730e-06	-1.291676e-08	-1.474129e+01	-8.479563e+02
2.630000e-06	-2.166065e-06	-1.405293e-08	-1.571597e+01	-9.228084e+02
2.640000e-06	-2.299672e-06	-1.510880e-08	-1.668535e+01	-9.921460e+02
2.650000e-06	-2.432311e-06	-1.608643e-08	-1.764772e+01	-1.055943e+03
2.660000e-06	-2.563951e-06	-1.698947e-08	-1.860284e+01	-1.114479e+03
2.670000e-06	-2.694649e-06	-1.782114e-08	-1.955113e+01	-1.168238e+03
2.680000e-06	-2.824427e-06	-1.858714e-08	-2.049273e+01	-1.217791e+03
2.690000e-06	-2.953262e-06	-1.929395e-08	-2.142750e+01	-1.263693e+03
2.700000e-06	-3.080984e-06	-1.994911e-08	-2.235419e+01	-1.306410e+03
2.710000e-06	-3.207578e-06	-2.056093e-08	-2.327270e+01	-1.346290e+03
2.720000e-06	-3.333025e-06	-2.113483e-08	-2.418289e+01	-1.383567e+03
2.730000e-06	-3.457130e-06	-2.167012e-08	-2.508334e+01	-1.418396e+03
2.740000e-06	-3.579975e-06	-2.216485e-08	-2.597464e+01	-1.450895e+03
2.750000e-06	-3.701669e-06	-2.262508e-08	-2.685759e+01	-1.481192e+03
2.760000e-06	-3.821990e-06	-2.305480e-08	-2.773059e+01	-1.509446e+03
2.770000e-06	-3.940841e-06	-2.345945e-08	-2.859292e+01	-1.535850e+03
2.780000e-06	-4.058162e-06	-2.384415e-08	-2.944414e+01	-1.560624e+03
2.790000e-06	-4.173862e-06	-2.420773e-08	-3.028361e+01	-1.583980e+03
2.800000e-06	-4.287929e-06	-2.454866e-08	-3.111123e+01	-1.606101e+03
2.810000e-06	-4.400234e-06	-2.486863e-08	-3.192606e+01	-1.627117e+03
2.820000e-06	-4.510802e-06	-2.517159e-08	-3.272829e+01	-1.647100e+03
2.830000e-06	-4.619805e-06	-2.546074e-08	-3.351917e+01	-1.666076e+03
2.840000e-06	-4.727347e-06	-2.573553e-08	-3.429944e+01	-1.684043e+03
2.850000e-06	-4.833384e-06	-2.599247e-08	-3.506879e+01	-1.701001e+03
2.860000e-06	-4.937735e-06	-2.623438e-08	-3.582592e+01	-1.716967e+03
2.870000e-06	-5.040157e-06	-2.646335e-08	-3.656905e+01	-1.731995e+03
2.880000e-06	-5.140639e-06	-2.668248e-08	-3.729809e+01	-1.746171e+03
2.890000e-06	-5.239289e-06	-2.689389e-08	-3.801386e+01	-1.759601e+03
2.900000e-06	-5.336087e-06	-2.709481e-08	-3.871618e+01	-1.772394e+03
2.910000e-06	-5.430961e-06	-2.728531e-08	-3.940454e+01	-1.784636e+03
2.920000e-06	-5.523868e-06	-2.746647e-08	-4.007863e+01	-1.796380e+03
2.930000e-06	-5.614865e-06	-2.763798e-08	-4.073886e+01	-1.807642e+03
2.940000e-06	-5.703902e-06	-2.779967e-08	-4.138487e+01	-1.818401e+03
