# Temperatura_=_32.59
# Concentracion g/m^3_=_28200.0
# C_Vs_to_Am_M_A/Vsm_=_65563218390.804596
# pendiente_HvsI_1/m_=_3716.3
# ordenada_HvsI_A/m_=_1297.0
# frecuencia_Hz_=_302377.16974538314

Tiempo_(s)	Campo_(V.s)	Magnetizacion_(V.s)	Campo_(kA/m)	Magnetizacion_(A/m)
0.000000e+00	-7.316772e-06	-2.997716e-08	-5.318682e+01	-1.962495e+03
1.000000e-08	-7.312910e-06	-2.997294e-08	-5.315874e+01	-1.961943e+03
2.000000e-08	-7.306700e-06	-2.995916e-08	-5.311360e+01	-1.961221e+03
3.000000e-08	-7.298120e-06	-2.994789e-08	-5.305123e+01	-1.960347e+03
4.000000e-08	-7.286969e-06	-2.993602e-08	-5.297017e+01	-1.959335e+03
5.000000e-08	-7.272992e-06	-2.991749e-08	-5.286857e+01	-1.958185e+03
6.000000e-08	-7.256307e-06	-2.989022e-08	-5.274729e+01	-1.956891e+03
7.000000e-08	-7.237447e-06	-2.985783e-08	-5.261019e+01	-1.955437e+03
8.000000e-08	-7.216543e-06	-2.984130e-08	-5.245823e+01	-1.953812e+03
9.000000e-08	-7.193063e-06	-2.988716e-08	-5.228755e+01	-1.952014e+03
1.000000e-07	-7.166568e-06	-2.984332e-08	-5.209496e+01	-1.950054e+03
1.100000e-07	-7.137303e-06	-2.974538e-08	-5.188222e+01	-1.947960e+03
1.200000e-07	-7.105569e-06	-2.970454e-08	-5.165155e+01	-1.945767e+03
1.300000e-07	-7.071316e-06	-2.966985e-08	-5.140255e+01	-1.943506e+03
1.400000e-07	-7.034837e-06	-2.958545e-08	-5.113738e+01	-1.941197e+03
1.500000e-07	-6.996581e-06	-2.952156e-08	-5.085930e+01	-1.938832e+03
1.600000e-07	-6.956218e-06	-2.961895e-08	-5.056589e+01	-1.936377e+03
1.700000e-07	-6.913278e-06	-2.950244e-08	-5.025375e+01	-1.933767e+03
1.800000e-07	-6.867965e-06	-2.939378e-08	-4.992436e+01	-1.930925e+03
1.900000e-07	-6.820136e-06	-2.943230e-08	-4.957669e+01	-1.927772e+03
2.000000e-07	-6.769455e-06	-2.929712e-08	-4.920827e+01	-1.924246e+03
2.100000e-07	-6.716167e-06	-2.925215e-08	-4.882092e+01	-1.920315e+03
2.200000e-07	-6.660374e-06	-2.919824e-08	-4.841535e+01	-1.915983e+03
2.300000e-07	-6.602041e-06	-2.909818e-08	-4.799132e+01	-1.911291e+03
2.400000e-07	-6.541238e-06	-2.904943e-08	-4.754933e+01	-1.906300e+03
2.500000e-07	-6.477998e-06	-2.895376e-08	-4.708963e+01	-1.901075e+03
2.600000e-07	-6.412302e-06	-2.889767e-08	-4.661207e+01	-1.895668e+03
2.700000e-07	-6.344139e-06	-2.881406e-08	-4.611659e+01	-1.890101e+03
2.800000e-07	-6.273649e-06	-2.872448e-08	-4.560418e+01	-1.884365e+03
2.900000e-07	-6.200805e-06	-2.862479e-08	-4.507467e+01	-1.878413e+03
3.000000e-07	-6.125426e-06	-2.851166e-08	-4.452673e+01	-1.872184e+03
3.100000e-07	-6.047438e-06	-2.842570e-08	-4.395982e+01	-1.865612e+03
3.200000e-07	-5.966965e-06	-2.829774e-08	-4.337485e+01	-1.858645e+03
3.300000e-07	-5.884355e-06	-2.820929e-08	-4.277434e+01	-1.851259e+03
3.400000e-07	-5.799827e-06	-2.808271e-08	-4.215989e+01	-1.843460e+03
3.500000e-07	-5.713447e-06	-2.795148e-08	-4.153198e+01	-1.835278e+03
3.600000e-07	-5.625055e-06	-2.783924e-08	-4.088944e+01	-1.826756e+03
3.700000e-07	-5.534500e-06	-2.769877e-08	-4.023119e+01	-1.817928e+03
3.800000e-07	-5.441978e-06	-2.755685e-08	-3.955863e+01	-1.808808e+03
3.900000e-07	-5.347568e-06	-2.740530e-08	-3.887235e+01	-1.799382e+03
4.000000e-07	-5.251234e-06	-2.726091e-08	-3.817208e+01	-1.789603e+03
4.100000e-07	-5.153069e-06	-2.708945e-08	-3.745851e+01	-1.779407e+03
4.200000e-07	-5.053101e-06	-2.693146e-08	-3.673182e+01	-1.768721e+03
4.300000e-07	-4.951355e-06	-2.676489e-08	-3.599221e+01	-1.757488e+03
4.400000e-07	-4.847879e-06	-2.657930e-08	-3.524003e+01	-1.745671e+03
4.500000e-07	-4.742646e-06	-2.638736e-08	-3.447507e+01	-1.733264e+03
4.600000e-07	-4.635669e-06	-2.619424e-08	-3.369744e+01	-1.720284e+03
4.700000e-07	-4.527013e-06	-2.599423e-08	-3.290760e+01	-1.706759e+03
4.800000e-07	-4.416865e-06	-2.577588e-08	-3.210692e+01	-1.692710e+03
4.900000e-07	-4.305145e-06	-2.555460e-08	-3.129481e+01	-1.678135e+03
5.000000e-07	-4.191665e-06	-2.531951e-08	-3.046990e+01	-1.663000e+03
5.100000e-07	-4.076429e-06	-2.507337e-08	-2.963223e+01	-1.647239e+03
5.200000e-07	-3.959531e-06	-2.481286e-08	-2.878248e+01	-1.630765e+03
5.300000e-07	-3.841228e-06	-2.454817e-08	-2.792251e+01	-1.613484e+03
5.400000e-07	-3.721515e-06	-2.427074e-08	-2.705231e+01	-1.595313e+03
5.500000e-07	-3.600337e-06	-2.397717e-08	-2.617144e+01	-1.576195e+03
5.600000e-07	-3.477810e-06	-2.366956e-08	-2.528077e+01	-1.556101e+03
5.700000e-07	-3.353891e-06	-2.334789e-08	-2.437999e+01	-1.535026e+03
5.800000e-07	-3.228694e-06	-2.301130e-08	-2.346990e+01	-1.512966e+03
5.900000e-07	-3.102428e-06	-2.265714e-08	-2.255206e+01	-1.489904e+03
6.000000e-07	-2.975123e-06	-2.228838e-08	-2.162665e+01	-1.465783e+03
6.100000e-07	-2.846637e-06	-2.189728e-08	-2.069267e+01	-1.440500e+03
6.200000e-07	-2.716985e-06	-2.148695e-08	-1.975021e+01	-1.413905e+03
6.300000e-07	-2.586384e-06	-2.105311e-08	-1.880085e+01	-1.385813e+03
6.400000e-07	-2.454855e-06	-2.059515e-08	-1.784474e+01	-1.356027e+03
6.500000e-07	-2.322344e-06	-2.011115e-08	-1.688150e+01	-1.324356e+03
6.600000e-07	-2.189039e-06	-1.960041e-08	-1.591249e+01	-1.290640e+03
6.700000e-07	-2.055102e-06	-1.905718e-08	-1.493887e+01	-1.254747e+03
6.800000e-07	-1.920481e-06	-1.847722e-08	-1.396029e+01	-1.216561e+03
6.900000e-07	-1.785163e-06	-1.785968e-08	-1.297665e+01	-1.175967e+03
7.000000e-07	-1.649204e-06	-1.720019e-08	-1.198833e+01	-1.132816e+03
7.100000e-07	-1.512631e-06	-1.649869e-08	-1.099556e+01	-1.086907e+03
7.200000e-07	-1.375455e-06	-1.574839e-08	-9.998407e+00	-1.037987e+03
7.300000e-07	-1.237713e-06	-1.494795e-08	-8.997138e+00	-9.857685e+02
7.400000e-07	-1.099521e-06	-1.409189e-08	-7.992597e+00	-9.299809e+02
7.500000e-07	-9.610342e-07	-1.318031e-08	-6.985915e+00	-8.704323e+02
7.600000e-07	-8.222941e-07	-1.221719e-08	-5.977391e+00	-8.070819e+02
7.700000e-07	-6.832379e-07	-1.120221e-08	-4.966568e+00	-7.400960e+02
7.800000e-07	-5.438308e-07	-1.013790e-08	-3.953195e+00	-6.698738e+02
7.900000e-07	-4.041794e-07	-9.029973e-09	-2.938047e+00	-5.970297e+02
8.000000e-07	-2.643711e-07	-7.892282e-09	-1.921757e+00	-5.223281e+02
8.100000e-07	-1.244323e-07	-6.736952e-09	-9.045187e-01	-4.465795e+02
8.200000e-07	1.557206e-08	-5.575855e-09	1.131958e-01	-3.705147e+02
8.300000e-07	1.556217e-07	-4.419265e-09	1.131240e+00	-2.946629e+02
8.400000e-07	2.956459e-07	-3.271696e-09	2.149098e+00	-2.192607e+02
8.500000e-07	4.355805e-07	-2.131101e-09	3.166306e+00	-1.442138e+02
8.600000e-07	5.754175e-07	-9.902554e-10	4.182804e+00	-6.912408e+01
8.700000e-07	7.150364e-07	1.605646e-10	5.197717e+00	6.619519e+00
8.800000e-07	8.543004e-07	1.332218e-09	6.210050e+00	8.370059e+01
8.900000e-07	9.932371e-07	2.533069e-09	7.220003e+00	1.627125e+02
9.000000e-07	1.131923e-06	3.768944e-09	8.228135e+00	2.440046e+02
9.100000e-07	1.270323e-06	5.039245e-09	9.234185e+00	3.275682e+02
9.200000e-07	1.408259e-06	6.340837e-09	1.023687e+01	4.129854e+02
9.300000e-07	1.545538e-06	7.660504e-09	1.123477e+01	4.994510e+02
9.400000e-07	1.682089e-06	8.979170e-09	1.222738e+01	5.858619e+02
9.500000e-07	1.817968e-06	1.027660e-08	1.321510e+01	6.709571e+02
9.600000e-07	1.953170e-06	1.153179e-08	1.419791e+01	7.534796e+02
9.700000e-07	2.087636e-06	1.272762e-08	1.517537e+01	8.323297e+02
9.800000e-07	2.221355e-06	1.385098e-08	1.614739e+01	9.066828e+02
9.900000e-07	2.354280e-06	1.489663e-08	1.711365e+01	9.760533e+02
1.000000e-06	2.486341e-06	1.586855e-08	1.807362e+01	1.040299e+03
1.010000e-06	2.617494e-06	1.676876e-08	1.902699e+01	1.099571e+03
1.020000e-06	2.747659e-06	1.760142e-08	1.997318e+01	1.154231e+03
1.030000e-06	2.876658e-06	1.836893e-08	2.091090e+01	1.204747e+03
1.040000e-06	3.004490e-06	1.907941e-08	2.184013e+01	1.251601e+03
1.050000e-06	3.131250e-06	1.974204e-08	2.276157e+01	1.295224e+03
1.060000e-06	3.256939e-06	2.035807e-08	2.367522e+01	1.335955e+03
1.070000e-06	3.381547e-06	2.093391e-08	2.458102e+01	1.374039e+03
1.080000e-06	3.505025e-06	2.147297e-08	2.547860e+01	1.409650e+03
1.090000e-06	3.627223e-06	2.197718e-08	2.636688e+01	1.442924e+03
1.100000e-06	3.748050e-06	2.244778e-08	2.724519e+01	1.473996e+03
1.110000e-06	3.867540e-06	2.288606e-08	2.811378e+01	1.503019e+03
1.120000e-06	3.985688e-06	2.329753e-08	2.897262e+01	1.530172e+03
1.130000e-06	4.102389e-06	2.368787e-08	2.982094e+01	1.555655e+03
1.140000e-06	4.217503e-06	2.405566e-08	3.065772e+01	1.579666e+03
1.150000e-06	4.330919e-06	2.440250e-08	3.148216e+01	1.602377e+03
1.160000e-06	4.442618e-06	2.473046e-08	3.229412e+01	1.623923e+03
1.170000e-06	4.552759e-06	2.504233e-08	3.309475e+01	1.644391e+03
1.180000e-06	4.661454e-06	2.533717e-08	3.388487e+01	1.663826e+03
1.190000e-06	4.768546e-06	2.561559e-08	3.466334e+01	1.682248e+03
1.200000e-06	4.873817e-06	2.587784e-08	3.542857e+01	1.699669e+03
1.210000e-06	4.977278e-06	2.612476e-08	3.618065e+01	1.716113e+03
1.220000e-06	5.079039e-06	2.635930e-08	3.692036e+01	1.731625e+03
1.230000e-06	5.179048e-06	2.658257e-08	3.764735e+01	1.746275e+03
1.240000e-06	5.277069e-06	2.679621e-08	3.835988e+01	1.760151e+03
1.250000e-06	5.373018e-06	2.699869e-08	3.905735e+01	1.773339e+03
1.260000e-06	5.467038e-06	2.718984e-08	3.974080e+01	1.785918e+03
1.270000e-06	5.559241e-06	2.736963e-08	4.041103e+01	1.797939e+03
1.280000e-06	5.649498e-06	2.754143e-08	4.106712e+01	1.809428e+03
1.290000e-06	5.737572e-06	2.770621e-08	4.170735e+01	1.820383e+03
1.300000e-06	5.823521e-06	2.786375e-08	4.233213e+01	1.830789e+03
1.310000e-06	5.907508e-06	2.801376e-08	4.294264e+01	1.840630e+03
1.320000e-06	5.989460e-06	2.815677e-08	4.353837e+01	1.849898e+03
1.330000e-06	6.069157e-06	2.829310e-08	4.411769e+01	1.858605e+03
1.340000e-06	6.146569e-06	2.842118e-08	4.468042e+01	1.866782e+03
1.350000e-06	6.221662e-06	2.853912e-08	4.522628e+01	1.874473e+03
1.360000e-06	6.294332e-06	2.864954e-08	4.575453e+01	1.881730e+03
1.370000e-06	6.364663e-06	2.875567e-08	4.626578e+01	1.888598e+03
1.380000e-06	6.432817e-06	2.885581e-08	4.676120e+01	1.895112e+03
1.390000e-06	6.498705e-06	2.894991e-08	4.724015e+01	1.901291e+03
1.400000e-06	6.562228e-06	2.903959e-08	4.770191e+01	1.907142e+03
1.410000e-06	6.623546e-06	2.912338e-08	4.814764e+01	1.912665e+03
1.420000e-06	6.682615e-06	2.920105e-08	4.857702e+01	1.917860e+03
1.430000e-06	6.739279e-06	2.927459e-08	4.898892e+01	1.922735e+03
1.440000e-06	6.793530e-06	2.934318e-08	4.938328e+01	1.927307e+03
1.450000e-06	6.845117e-06	2.940793e-08	4.975827e+01	1.931599e+03
1.460000e-06	6.893856e-06	2.946941e-08	5.011257e+01	1.935638e+03
1.470000e-06	6.940001e-06	2.952815e-08	5.044801e+01	1.939444e+03
1.480000e-06	6.983800e-06	2.958501e-08	5.076638e+01	1.943027e+03
1.490000e-06	7.025086e-06	2.963839e-08	5.106650e+01	1.946382e+03
1.500000e-06	7.063756e-06	2.968611e-08	5.134760e+01	1.949488e+03
1.510000e-06	7.100087e-06	2.972710e-08	5.161170e+01	1.952322e+03
1.520000e-06	7.133943e-06	2.976242e-08	5.185780e+01	1.954859e+03
1.530000e-06	7.165189e-06	2.979477e-08	5.208493e+01	1.957084e+03
1.540000e-06	7.193979e-06	2.982441e-08	5.229421e+01	1.959000e+03
1.550000e-06	7.220136e-06	2.985099e-08	5.248435e+01	1.960625e+03
1.560000e-06	7.243525e-06	2.987350e-08	5.265437e+01	1.961992e+03
1.570000e-06	7.264445e-06	2.989151e-08	5.280644e+01	1.963137e+03
1.580000e-06	7.282929e-06	2.990788e-08	5.294080e+01	1.964098e+03
1.590000e-06	7.298641e-06	2.992110e-08	5.305502e+01	1.964896e+03
1.600000e-06	7.311555e-06	2.993008e-08	5.314889e+01	1.965543e+03
1.610000e-06	7.321682e-06	2.993588e-08	5.322250e+01	1.966030e+03
1.620000e-06	7.329010e-06	2.994007e-08	5.327578e+01	1.966344e+03
1.630000e-06	7.333736e-06	2.994316e-08	5.331013e+01	1.966465e+03
1.640000e-06	7.335809e-06	2.994527e-08	5.332520e+01	1.966383e+03
1.650000e-06	7.335247e-06	2.994557e-08	5.332111e+01	1.966093e+03
1.660000e-06	7.332330e-06	2.993239e-08	5.329991e+01	1.965607e+03
1.670000e-06	7.327009e-06	2.992208e-08	5.326123e+01	1.964943e+03
1.680000e-06	7.319131e-06	2.991341e-08	5.320396e+01	1.964121e+03
1.690000e-06	7.308813e-06	2.990072e-08	5.312896e+01	1.963156e+03
1.700000e-06	7.295967e-06	2.988607e-08	5.303558e+01	1.962056e+03
1.710000e-06	7.280556e-06	2.987411e-08	5.292355e+01	1.960814e+03
1.720000e-06	7.262938e-06	2.986974e-08	5.279549e+01	1.959418e+03
1.730000e-06	7.243285e-06	2.981491e-08	5.265263e+01	1.957854e+03
1.740000e-06	7.220952e-06	2.970722e-08	5.249028e+01	1.956116e+03
1.750000e-06	7.195220e-06	2.972848e-08	5.230323e+01	1.954211e+03
1.760000e-06	7.166103e-06	2.974452e-08	5.209158e+01	1.952161e+03
1.770000e-06	7.134249e-06	2.968546e-08	5.186002e+01	1.949998e+03
1.780000e-06	7.100346e-06	2.969292e-08	5.161358e+01	1.947758e+03
1.790000e-06	7.064792e-06	2.974373e-08	5.135513e+01	1.945465e+03
1.800000e-06	7.027583e-06	2.956960e-08	5.108465e+01	1.943122e+03
1.810000e-06	6.987958e-06	2.955807e-08	5.079661e+01	1.940704e+03
1.820000e-06	6.945721e-06	2.963166e-08	5.048958e+01	1.938157e+03
1.830000e-06	6.901289e-06	2.947216e-08	5.016660e+01	1.935407e+03
1.840000e-06	6.854392e-06	2.956020e-08	4.982570e+01	1.932373e+03
1.850000e-06	6.804909e-06	2.944319e-08	4.946600e+01	1.928985e+03
1.860000e-06	6.752769e-06	2.935111e-08	4.908698e+01	1.925199e+03
1.870000e-06	6.697768e-06	2.936581e-08	4.868717e+01	1.921007e+03
1.880000e-06	6.640325e-06	2.919130e-08	4.826961e+01	1.916437e+03
1.890000e-06	6.580423e-06	2.920995e-08	4.783418e+01	1.911544e+03
1.900000e-06	6.517875e-06	2.909240e-08	4.737950e+01	1.906394e+03
1.910000e-06	6.452863e-06	2.900494e-08	4.690692e+01	1.901047e+03
1.920000e-06	6.385458e-06	2.895929e-08	4.641694e+01	1.895537e+03
1.930000e-06	6.315643e-06	2.881516e-08	4.590944e+01	1.889863e+03
1.940000e-06	6.243432e-06	2.879764e-08	4.538453e+01	1.883995e+03
1.950000e-06	6.168842e-06	2.865197e-08	4.484232e+01	1.877872e+03
1.960000e-06	6.091663e-06	2.857758e-08	4.428129e+01	1.871429e+03
1.970000e-06	6.012010e-06	2.845521e-08	4.370229e+01	1.864606e+03
1.980000e-06	5.930254e-06	2.832916e-08	4.310798e+01	1.857370e+03
1.990000e-06	5.846427e-06	2.825962e-08	4.249864e+01	1.849716e+03
2.000000e-06	5.760509e-06	2.809930e-08	4.187408e+01	1.841665e+03
2.010000e-06	5.672438e-06	2.800600e-08	4.123388e+01	1.833259e+03
2.020000e-06	5.582366e-06	2.785752e-08	4.057914e+01	1.824536e+03
2.030000e-06	5.490421e-06	2.773037e-08	3.991077e+01	1.815520e+03
2.040000e-06	5.396440e-06	2.757978e-08	3.922761e+01	1.806207e+03
2.050000e-06	5.300468e-06	2.743597e-08	3.852997e+01	1.796560e+03
2.060000e-06	5.202762e-06	2.729095e-08	3.781973e+01	1.786520e+03
2.070000e-06	5.103376e-06	2.711165e-08	3.709728e+01	1.776016e+03
2.080000e-06	5.002150e-06	2.695137e-08	3.636145e+01	1.764983e+03
2.090000e-06	4.899017e-06	2.676521e-08	3.561176e+01	1.753376e+03
2.100000e-06	4.794062e-06	2.659248e-08	3.484882e+01	1.741179e+03
2.110000e-06	4.687593e-06	2.639611e-08	3.407488e+01	1.728400e+03
2.120000e-06	4.579635e-06	2.620409e-08	3.329012e+01	1.715066e+03
2.130000e-06	4.470025e-06	2.598925e-08	3.249334e+01	1.701202e+03
2.140000e-06	4.358721e-06	2.576826e-08	3.168426e+01	1.686816e+03
2.150000e-06	4.245736e-06	2.553919e-08	3.086295e+01	1.671886e+03
2.160000e-06	4.131106e-06	2.530291e-08	3.002969e+01	1.656358e+03
2.170000e-06	4.014741e-06	2.505928e-08	2.918381e+01	1.640149e+03
2.180000e-06	3.896719e-06	2.479562e-08	2.832589e+01	1.623165e+03
2.190000e-06	3.777113e-06	2.452612e-08	2.745645e+01	1.605319e+03
2.200000e-06	3.656030e-06	2.424022e-08	2.657628e+01	1.586544e+03
2.210000e-06	3.533626e-06	2.394743e-08	2.568650e+01	1.566800e+03
2.220000e-06	3.409920e-06	2.363536e-08	2.478727e+01	1.546074e+03
2.230000e-06	3.284926e-06	2.331307e-08	2.387866e+01	1.524366e+03
2.240000e-06	3.158711e-06	2.296869e-08	2.296119e+01	1.501665e+03
2.250000e-06	3.031346e-06	2.260873e-08	2.203535e+01	1.477931e+03
2.260000e-06	2.902805e-06	2.222825e-08	2.110097e+01	1.453077e+03
2.270000e-06	2.773226e-06	2.182839e-08	2.015903e+01	1.426970e+03
2.280000e-06	2.642736e-06	2.140672e-08	1.921048e+01	1.399435e+03
2.290000e-06	2.511347e-06	2.096189e-08	1.825539e+01	1.370275e+03
2.300000e-06	2.379047e-06	2.049082e-08	1.729368e+01	1.339297e+03
2.310000e-06	2.245810e-06	1.998974e-08	1.632516e+01	1.306328e+03
2.320000e-06	2.111740e-06	1.945914e-08	1.535059e+01	1.271225e+03
2.330000e-06	1.977062e-06	1.889094e-08	1.437159e+01	1.233870e+03
2.340000e-06	1.841799e-06	1.828679e-08	1.338834e+01	1.194151e+03
2.350000e-06	1.705850e-06	1.764243e-08	1.240010e+01	1.151932e+03
2.360000e-06	1.569269e-06	1.695773e-08	1.140727e+01	1.107034e+03
2.370000e-06	1.432145e-06	1.622699e-08	1.041049e+01	1.059220e+03
2.380000e-06	1.294585e-06	1.544536e-08	9.410553e+00	1.008212e+03
2.390000e-06	1.156640e-06	1.461109e-08	8.407806e+00	9.537265e+02
2.400000e-06	1.018300e-06	1.372110e-08	7.402192e+00	8.955344e+02
2.410000e-06	8.795768e-07	1.277543e-08	6.393788e+00	8.335337e+02
2.420000e-06	7.405252e-07	1.177654e-08	5.382999e+00	7.678119e+02
2.430000e-06	6.011566e-07	1.072911e-08	4.369906e+00	6.986846e+02
2.440000e-06	4.615913e-07	9.637284e-09	3.355383e+00	6.266943e+02
2.450000e-06	3.218811e-07	8.505244e-09	2.339806e+00	5.525622e+02
2.460000e-06	1.820380e-07	7.345112e-09	1.323264e+00	4.770961e+02
2.470000e-06	4.214607e-08	6.174379e-09	3.063667e-01	4.010699e+02
2.480000e-06	-9.780345e-08	5.008602e-09	-7.109493e-01	3.250976e+02
2.490000e-06	-2.377721e-07	3.853722e-09	-1.728404e+00	2.495277e+02
2.500000e-06	-3.776555e-07	2.706700e-09	-2.745240e+00	1.743845e+02
2.510000e-06	-5.173618e-07	1.560468e-09	-3.760788e+00	9.937110e+01
2.520000e-06	-6.569317e-07	4.061779e-10	-4.775344e+00	2.393843e+01
2.530000e-06	-7.963355e-07	-7.640353e-10	-5.788693e+00	-5.258933e+01
2.540000e-06	-9.354386e-07	-1.958541e-09	-6.799856e+00	-1.308566e+02
2.550000e-06	-1.074131e-06	-3.184818e-09	-7.808033e+00	-2.113156e+02
2.560000e-06	-1.212372e-06	-4.446262e-09	-8.812934e+00	-2.940951e+02
2.570000e-06	-1.350183e-06	-5.742689e-09	-9.814703e+00	-3.789246e+02
2.580000e-06	-1.487566e-06	-7.064160e-09	-1.081336e+01	-4.651302e+02
2.590000e-06	-1.624461e-06	-8.394188e-09	-1.180848e+01	-5.517012e+02
2.600000e-06	-1.760744e-06	-9.709529e-09	-1.279913e+01	-6.374150e+02
2.610000e-06	-1.896337e-06	-1.098851e-08	-1.378478e+01	-7.209944e+02
2.620000e-06	-2.031204e-06	-1.221476e-08	-1.476516e+01	-8.012676e+02
2.630000e-06	-2.165279e-06	-1.337440e-08	-1.573977e+01	-8.773015e+02
2.640000e-06	-2.298422e-06	-1.446004e-08	-1.670761e+01	-9.484857e+02
2.650000e-06	-2.430613e-06	-1.547092e-08	-1.766852e+01	-1.014559e+03
2.660000e-06	-2.561957e-06	-1.640897e-08	-1.862329e+01	-1.075575e+03
2.670000e-06	-2.692395e-06	-1.727707e-08	-1.957146e+01	-1.131833e+03
2.680000e-06	-2.821865e-06	-1.807970e-08	-2.051260e+01	-1.183772e+03
2.690000e-06	-2.950333e-06	-1.882016e-08	-2.144646e+01	-1.231882e+03
2.700000e-06	-3.077749e-06	-1.950544e-08	-2.237266e+01	-1.276616e+03
2.710000e-06	-3.204059e-06	-2.014437e-08	-2.329083e+01	-1.318348e+03
2.720000e-06	-3.329145e-06	-2.074376e-08	-2.420010e+01	-1.357354e+03
2.730000e-06	-3.453008e-06	-2.130490e-08	-2.510048e+01	-1.393832e+03
2.740000e-06	-3.575676e-06	-2.182599e-08	-2.599218e+01	-1.427927e+03
2.750000e-06	-3.697084e-06	-2.231034e-08	-2.687471e+01	-1.459770e+03
2.760000e-06	-3.817146e-06	-2.276295e-08	-2.774746e+01	-1.489506e+03
2.770000e-06	-3.935801e-06	-2.318651e-08	-2.860998e+01	-1.517305e+03
2.780000e-06	-4.052900e-06	-2.358667e-08	-2.946119e+01	-1.543363e+03
2.790000e-06	-4.168322e-06	-2.396759e-08	-3.030021e+01	-1.567878e+03
2.800000e-06	-4.282083e-06	-2.432670e-08	-3.112716e+01	-1.591036e+03
2.810000e-06	-4.394101e-06	-2.466165e-08	-3.194144e+01	-1.612986e+03
2.820000e-06	-4.504379e-06	-2.497775e-08	-3.274307e+01	-1.633833e+03
2.830000e-06	-4.613164e-06	-2.527921e-08	-3.353384e+01	-1.653635e+03
2.840000e-06	-4.720544e-06	-2.556577e-08	-3.431441e+01	-1.672418e+03
2.850000e-06	-4.826388e-06	-2.583625e-08	-3.508381e+01	-1.690195e+03
2.860000e-06	-4.930480e-06	-2.609106e-08	-3.584047e+01	-1.706984e+03
2.870000e-06	-5.032562e-06	-2.633198e-08	-3.658252e+01	-1.722823e+03
2.880000e-06	-5.132732e-06	-2.656091e-08	-3.731067e+01	-1.737773e+03
2.890000e-06	-5.231194e-06	-2.678006e-08	-3.802641e+01	-1.751915e+03
2.900000e-06	-5.327927e-06	-2.698990e-08	-3.872958e+01	-1.765340e+03
2.910000e-06	-5.422694e-06	-2.718970e-08	-3.941845e+01	-1.778130e+03
2.920000e-06	-5.515371e-06	-2.737876e-08	-4.009214e+01	-1.790347e+03
2.930000e-06	-5.606124e-06	-2.755798e-08	-4.075184e+01	-1.802025e+03
2.940000e-06	-5.694945e-06	-2.772702e-08	-4.139749e+01	-1.813172e+03
