# Temperatura_=_77.26
# Concentracion g/m^3_=_41000.0
# C_Vs_to_Am_M_A/Vsm_=_65563218390.804596
# pendiente_HvsI_1/m_=_3716.3
# ordenada_HvsI_A/m_=_1297.0
# frecuencia_Hz_=_302508.9262448499

Tiempo_(s)	Campo_(V.s)	Magnetizacion_(V.s)	Campo_(kA/m)	Magnetizacion_(A/m)
0.000000e+00	-8.008839e-06	-2.252105e-08	-5.685669e+01	-1.477324e+03
1.000000e-08	-8.004718e-06	-2.252086e-08	-5.682743e+01	-1.476398e+03
2.000000e-08	-7.998085e-06	-2.251798e-08	-5.678034e+01	-1.475072e+03
3.000000e-08	-7.988736e-06	-2.251299e-08	-5.671397e+01	-1.473629e+03
4.000000e-08	-7.976535e-06	-2.250459e-08	-5.662735e+01	-1.472354e+03
5.000000e-08	-7.961417e-06	-2.249023e-08	-5.652002e+01	-1.471445e+03
6.000000e-08	-7.943534e-06	-2.247394e-08	-5.639307e+01	-1.470953e+03
7.000000e-08	-7.923322e-06	-2.246068e-08	-5.624958e+01	-1.470769e+03
8.000000e-08	-7.900614e-06	-2.247163e-08	-5.608837e+01	-1.470660e+03
9.000000e-08	-7.874789e-06	-2.250073e-08	-5.590503e+01	-1.470349e+03
1.000000e-07	-7.845724e-06	-2.246437e-08	-5.569870e+01	-1.469606e+03
1.100000e-07	-7.813755e-06	-2.240278e-08	-5.547174e+01	-1.468318e+03
1.200000e-07	-7.779012e-06	-2.236994e-08	-5.522509e+01	-1.466528e+03
1.300000e-07	-7.741722e-06	-2.233497e-08	-5.496036e+01	-1.464420e+03
1.400000e-07	-7.702256e-06	-2.228431e-08	-5.468018e+01	-1.462260e+03
1.500000e-07	-7.660539e-06	-2.226277e-08	-5.438402e+01	-1.460303e+03
1.600000e-07	-7.616203e-06	-2.230260e-08	-5.406927e+01	-1.458717e+03
1.700000e-07	-7.569177e-06	-2.222223e-08	-5.373542e+01	-1.457515e+03
1.800000e-07	-7.519282e-06	-2.217455e-08	-5.338120e+01	-1.456552e+03
1.900000e-07	-7.466289e-06	-2.219577e-08	-5.300499e+01	-1.455565e+03
2.000000e-07	-7.410480e-06	-2.212456e-08	-5.260879e+01	-1.454249e+03
2.100000e-07	-7.351991e-06	-2.211397e-08	-5.219357e+01	-1.452355e+03
2.200000e-07	-7.290806e-06	-2.210406e-08	-5.175920e+01	-1.449764e+03
2.300000e-07	-7.226961e-06	-2.204758e-08	-5.130595e+01	-1.446526e+03
2.400000e-07	-7.160365e-06	-2.197407e-08	-5.083317e+01	-1.442845e+03
2.500000e-07	-7.091054e-06	-2.192141e-08	-5.034111e+01	-1.439016e+03
2.600000e-07	-7.018947e-06	-2.189342e-08	-4.982920e+01	-1.435334e+03
2.700000e-07	-6.944061e-06	-2.183358e-08	-4.929757e+01	-1.431999e+03
2.800000e-07	-6.866422e-06	-2.179571e-08	-4.874639e+01	-1.429057e+03
2.900000e-07	-6.785983e-06	-2.174719e-08	-4.817534e+01	-1.426382e+03
3.000000e-07	-6.703064e-06	-2.168229e-08	-4.758667e+01	-1.423716e+03
3.100000e-07	-6.617884e-06	-2.161820e-08	-4.698196e+01	-1.420753e+03
3.200000e-07	-6.530454e-06	-2.155086e-08	-4.636128e+01	-1.417234e+03
3.300000e-07	-6.440646e-06	-2.150449e-08	-4.572370e+01	-1.413029e+03
3.400000e-07	-6.348447e-06	-2.144168e-08	-4.506916e+01	-1.408184e+03
3.500000e-07	-6.253991e-06	-2.137964e-08	-4.439860e+01	-1.402901e+03
3.600000e-07	-6.157200e-06	-2.131066e-08	-4.371145e+01	-1.397480e+03
3.700000e-07	-6.058167e-06	-2.123798e-08	-4.300839e+01	-1.392218e+03
3.800000e-07	-5.957094e-06	-2.116508e-08	-4.229085e+01	-1.387313e+03
3.900000e-07	-5.853901e-06	-2.108845e-08	-4.155826e+01	-1.382796e+03
4.000000e-07	-5.748510e-06	-2.101255e-08	-4.081006e+01	-1.378515e+03
4.100000e-07	-5.641110e-06	-2.092663e-08	-4.004761e+01	-1.374180e+03
4.200000e-07	-5.531844e-06	-2.084636e-08	-3.927190e+01	-1.369448e+03
4.300000e-07	-5.420539e-06	-2.075522e-08	-3.848172e+01	-1.364038e+03
4.400000e-07	-5.307062e-06	-2.065733e-08	-3.767612e+01	-1.357814e+03
4.500000e-07	-5.191526e-06	-2.055784e-08	-3.685590e+01	-1.350838e+03
4.600000e-07	-5.074089e-06	-2.046411e-08	-3.602219e+01	-1.343351e+03
4.700000e-07	-4.954846e-06	-2.036626e-08	-3.517565e+01	-1.335702e+03
4.800000e-07	-4.833784e-06	-2.026288e-08	-3.431620e+01	-1.328229e+03
4.900000e-07	-4.710896e-06	-2.015793e-08	-3.344379e+01	-1.321153e+03
5.000000e-07	-4.586275e-06	-2.004440e-08	-3.255908e+01	-1.314494e+03
5.100000e-07	-4.460044e-06	-1.992363e-08	-3.166293e+01	-1.308055e+03
5.200000e-07	-4.332205e-06	-1.979568e-08	-3.075537e+01	-1.301469e+03
5.300000e-07	-4.202749e-06	-1.966829e-08	-2.983633e+01	-1.294312e+03
5.400000e-07	-4.071692e-06	-1.953682e-08	-2.890593e+01	-1.286227e+03
5.500000e-07	-3.939125e-06	-1.939970e-08	-2.796480e+01	-1.277043e+03
5.600000e-07	-3.805177e-06	-1.925623e-08	-2.701388e+01	-1.266827e+03
5.700000e-07	-3.669780e-06	-1.911014e-08	-2.605266e+01	-1.255873e+03
5.800000e-07	-3.532944e-06	-1.896266e-08	-2.508122e+01	-1.244607e+03
5.900000e-07	-3.394716e-06	-1.880876e-08	-2.409991e+01	-1.233450e+03
6.000000e-07	-3.255032e-06	-1.864612e-08	-2.310826e+01	-1.222674e+03
6.100000e-07	-3.113943e-06	-1.847020e-08	-2.210663e+01	-1.212294e+03
6.200000e-07	-2.971577e-06	-1.828448e-08	-2.109595e+01	-1.202048e+03
6.300000e-07	-2.828059e-06	-1.809262e-08	-2.007708e+01	-1.191448e+03
6.400000e-07	-2.683470e-06	-1.789529e-08	-1.905061e+01	-1.179926e+03
6.500000e-07	-2.537913e-06	-1.769014e-08	-1.801726e+01	-1.166998e+03
6.600000e-07	-2.391515e-06	-1.747578e-08	-1.697794e+01	-1.152420e+03
6.700000e-07	-2.244357e-06	-1.725162e-08	-1.593323e+01	-1.136267e+03
6.800000e-07	-2.096422e-06	-1.701410e-08	-1.488300e+01	-1.118918e+03
6.900000e-07	-1.947815e-06	-1.676270e-08	-1.382801e+01	-1.100933e+03
7.000000e-07	-1.798689e-06	-1.649913e-08	-1.276933e+01	-1.082860e+03
7.100000e-07	-1.649014e-06	-1.622445e-08	-1.170675e+01	-1.065023e+03
7.200000e-07	-1.498747e-06	-1.593420e-08	-1.063997e+01	-1.047372e+03
7.300000e-07	-1.347946e-06	-1.562673e-08	-9.569394e+00	-1.029426e+03
7.400000e-07	-1.196661e-06	-1.529949e-08	-8.495385e+00	-1.010356e+03
7.500000e-07	-1.044937e-06	-1.494850e-08	-7.418262e+00	-9.891866e+02
7.600000e-07	-8.928336e-07	-1.457068e-08	-6.338442e+00	-9.650524e+02
7.700000e-07	-7.404099e-07	-1.416723e-08	-5.256349e+00	-9.374470e+02
7.800000e-07	-5.877234e-07	-1.373381e-08	-4.172391e+00	-9.063626e+02
7.900000e-07	-4.348041e-07	-1.326155e-08	-3.086779e+00	-8.722654e+02
8.000000e-07	-2.817063e-07	-1.274626e-08	-1.999901e+00	-8.358843e+02
8.100000e-07	-1.285084e-07	-1.217904e-08	-9.123123e-01	-7.978481e+02
8.200000e-07	2.476413e-08	-1.155551e-08	1.758065e-01	-7.582571e+02
8.300000e-07	1.780711e-07	-1.086400e-08	1.264170e+00	-7.163085e+02
8.400000e-07	3.313044e-07	-1.008731e-08	2.352010e+00	-6.700968e+02
8.500000e-07	4.844122e-07	-9.207135e-09	3.438959e+00	-6.166820e+02
8.600000e-07	6.373962e-07	-8.197161e-09	4.525030e+00	-5.524575e+02
8.700000e-07	7.902220e-07	-7.023401e-09	5.609977e+00	-4.737768e+02
8.800000e-07	9.428071e-07	-5.635831e-09	6.693216e+00	-3.777287e+02
8.900000e-07	1.095108e-06	-3.974501e-09	7.774438e+00	-2.628987e+02
9.000000e-07	1.247060e-06	-1.981076e-09	8.853184e+00	-1.299451e+02
9.100000e-07	1.398527e-06	3.165879e-10	9.928482e+00	1.815738e+01
9.200000e-07	1.549404e-06	2.758026e-09	1.099960e+01	1.762859e+02
9.300000e-07	1.699709e-06	5.219811e-09	1.206664e+01	3.377447e+02
9.400000e-07	1.849458e-06	7.664713e-09	1.312975e+01	4.951516e+02
9.500000e-07	1.998596e-06	9.969535e-09	1.418852e+01	6.414700e+02
9.600000e-07	2.147015e-06	1.193419e-08	1.524218e+01	7.709876e+02
9.700000e-07	2.294605e-06	1.348284e-08	1.628995e+01	8.800538e+02
9.800000e-07	2.441255e-06	1.467731e-08	1.733106e+01	9.674378e+02
9.900000e-07	2.586927e-06	1.560144e-08	1.836522e+01	1.034256e+03
1.000000e-06	2.731710e-06	1.632619e-08	1.939307e+01	1.083507e+03
1.010000e-06	2.875514e-06	1.690662e-08	2.041397e+01	1.119328e+03
1.020000e-06	3.018214e-06	1.738222e-08	2.142703e+01	1.146153e+03
1.030000e-06	3.159719e-06	1.778239e-08	2.243161e+01	1.167939e+03
1.040000e-06	3.299940e-06	1.812904e-08	2.342707e+01	1.187615e+03
1.050000e-06	3.438830e-06	1.843084e-08	2.441309e+01	1.206837e+03
1.060000e-06	3.576364e-06	1.869660e-08	2.538947e+01	1.226061e+03
1.070000e-06	3.712540e-06	1.893467e-08	2.635622e+01	1.244855e+03
1.080000e-06	3.847314e-06	1.915175e-08	2.731301e+01	1.262358e+03
1.090000e-06	3.980769e-06	1.935024e-08	2.826044e+01	1.277736e+03
1.100000e-06	4.112842e-06	1.953309e-08	2.919806e+01	1.290524e+03
1.110000e-06	4.243355e-06	1.970435e-08	3.012461e+01	1.300788e+03
1.120000e-06	4.372328e-06	1.986425e-08	3.104022e+01	1.309095e+03
1.130000e-06	4.499815e-06	2.001460e-08	3.194528e+01	1.316314e+03
1.140000e-06	4.625825e-06	2.015561e-08	3.283985e+01	1.323348e+03
1.150000e-06	4.750272e-06	2.028784e-08	3.372333e+01	1.330878e+03
1.160000e-06	4.873040e-06	2.041236e-08	3.459489e+01	1.339191e+03
1.170000e-06	4.994067e-06	2.052853e-08	3.545409e+01	1.348145e+03
1.180000e-06	5.113295e-06	2.063654e-08	3.630052e+01	1.357262e+03
1.190000e-06	5.230634e-06	2.073926e-08	3.713354e+01	1.365914e+03
1.200000e-06	5.345980e-06	2.083713e-08	3.795240e+01	1.373545e+03
1.210000e-06	5.459268e-06	2.093179e-08	3.875667e+01	1.379843e+03
1.220000e-06	5.570492e-06	2.102302e-08	3.954627e+01	1.384832e+03
1.230000e-06	5.679743e-06	2.111024e-08	4.032187e+01	1.388854e+03
1.240000e-06	5.787047e-06	2.119295e-08	4.108365e+01	1.392448e+03
1.250000e-06	5.892209e-06	2.127005e-08	4.183022e+01	1.396181e+03
1.260000e-06	5.995122e-06	2.134409e-08	4.256082e+01	1.400478e+03
1.270000e-06	6.095868e-06	2.141481e-08	4.327604e+01	1.405500e+03
1.280000e-06	6.194341e-06	2.148480e-08	4.397513e+01	1.411119e+03
1.290000e-06	6.290455e-06	2.155489e-08	4.465746e+01	1.416967e+03
1.300000e-06	6.384307e-06	2.162095e-08	4.532374e+01	1.422572e+03
1.310000e-06	6.475899e-06	2.168332e-08	4.597398e+01	1.427506e+03
1.320000e-06	6.565130e-06	2.174256e-08	4.660745e+01	1.431518e+03
1.330000e-06	6.651932e-06	2.180037e-08	4.722367e+01	1.434604e+03
1.340000e-06	6.736437e-06	2.185713e-08	4.782359e+01	1.436998e+03
1.350000e-06	6.818621e-06	2.190888e-08	4.840704e+01	1.439088e+03
1.360000e-06	6.898326e-06	2.195728e-08	4.897289e+01	1.441292e+03
1.370000e-06	6.975494e-06	2.200319e-08	4.952072e+01	1.443923e+03
1.380000e-06	7.050031e-06	2.204725e-08	5.004988e+01	1.447100e+03
1.390000e-06	7.121964e-06	2.208928e-08	5.056055e+01	1.450716e+03
1.400000e-06	7.191421e-06	2.212895e-08	5.105364e+01	1.454480e+03
1.410000e-06	7.258330e-06	2.216878e-08	5.152864e+01	1.458017e+03
1.420000e-06	7.322546e-06	2.220745e-08	5.198452e+01	1.460989e+03
1.430000e-06	7.384204e-06	2.224284e-08	5.242225e+01	1.463198e+03
1.440000e-06	7.443385e-06	2.227464e-08	5.284239e+01	1.464650e+03
1.450000e-06	7.499936e-06	2.230309e-08	5.324386e+01	1.465543e+03
1.460000e-06	7.553713e-06	2.233027e-08	5.362564e+01	1.466207e+03
1.470000e-06	7.604471e-06	2.235526e-08	5.398598e+01	1.466994e+03
1.480000e-06	7.652200e-06	2.237710e-08	5.432482e+01	1.468170e+03
1.490000e-06	7.697197e-06	2.239871e-08	5.464427e+01	1.469834e+03
1.500000e-06	7.739507e-06	2.242109e-08	5.494463e+01	1.471891e+03
1.510000e-06	7.779021e-06	2.244216e-08	5.522516e+01	1.474090e+03
1.520000e-06	7.815815e-06	2.246040e-08	5.548636e+01	1.476102e+03
1.530000e-06	7.849839e-06	2.247808e-08	5.572790e+01	1.477628e+03
1.540000e-06	7.881027e-06	2.249457e-08	5.594932e+01	1.478495e+03
1.550000e-06	7.909497e-06	2.250703e-08	5.615144e+01	1.478706e+03
1.560000e-06	7.935074e-06	2.251578e-08	5.633301e+01	1.478437e+03
1.570000e-06	7.957706e-06	2.252430e-08	5.649368e+01	1.477984e+03
1.580000e-06	7.977645e-06	2.253447e-08	5.663523e+01	1.477663e+03
1.590000e-06	7.994744e-06	2.254408e-08	5.675663e+01	1.477718e+03
1.600000e-06	8.008806e-06	2.255296e-08	5.685645e+01	1.478241e+03
1.610000e-06	8.019750e-06	2.256033e-08	5.693415e+01	1.479147e+03
1.620000e-06	8.027642e-06	2.256430e-08	5.699017e+01	1.480203e+03
1.630000e-06	8.032709e-06	2.256552e-08	5.702614e+01	1.481105e+03
1.640000e-06	8.034872e-06	2.256531e-08	5.704150e+01	1.481567e+03
1.650000e-06	8.034137e-06	2.256231e-08	5.703628e+01	1.481418e+03
1.660000e-06	8.030800e-06	2.255243e-08	5.701259e+01	1.480648e+03
1.670000e-06	8.024825e-06	2.254437e-08	5.697017e+01	1.479408e+03
1.680000e-06	8.016153e-06	2.253734e-08	5.690861e+01	1.477966e+03
1.690000e-06	8.004802e-06	2.253031e-08	5.682803e+01	1.476616e+03
1.700000e-06	7.990572e-06	2.252327e-08	5.672700e+01	1.475590e+03
1.710000e-06	7.973678e-06	2.251599e-08	5.660707e+01	1.474982e+03
1.720000e-06	7.954506e-06	2.249912e-08	5.647097e+01	1.474728e+03
1.730000e-06	7.932842e-06	2.243199e-08	5.631716e+01	1.474624e+03
1.740000e-06	7.907981e-06	2.237354e-08	5.614067e+01	1.474397e+03
1.750000e-06	7.879466e-06	2.239898e-08	5.593824e+01	1.473794e+03
1.760000e-06	7.847527e-06	2.240783e-08	5.571149e+01	1.472663e+03
1.770000e-06	7.812949e-06	2.238947e-08	5.546602e+01	1.471001e+03
1.780000e-06	7.776094e-06	2.241132e-08	5.520437e+01	1.468958e+03
1.790000e-06	7.737036e-06	2.244080e-08	5.492709e+01	1.466783e+03
1.800000e-06	7.695991e-06	2.234443e-08	5.463570e+01	1.464745e+03
1.810000e-06	7.652464e-06	2.233593e-08	5.432669e+01	1.463043e+03
1.820000e-06	7.606168e-06	2.235830e-08	5.399802e+01	1.461738e+03
1.830000e-06	7.557181e-06	2.228314e-08	5.365026e+01	1.460729e+03
1.840000e-06	7.505196e-06	2.231560e-08	5.328120e+01	1.459778e+03
1.850000e-06	7.450235e-06	2.223485e-08	5.289102e+01	1.458585e+03
1.860000e-06	7.392539e-06	2.219137e-08	5.248142e+01	1.456874e+03
1.870000e-06	7.332253e-06	2.216551e-08	5.205344e+01	1.454483e+03
1.880000e-06	7.269203e-06	2.211760e-08	5.160583e+01	1.451414e+03
1.890000e-06	7.203264e-06	2.214063e-08	5.113771e+01	1.447830e+03
1.900000e-06	7.134648e-06	2.205684e-08	5.065060e+01	1.444010e+03
1.910000e-06	7.063215e-06	2.203504e-08	5.014348e+01	1.440259e+03
1.920000e-06	6.989027e-06	2.196363e-08	4.961679e+01	1.436811e+03
1.930000e-06	6.912103e-06	2.189709e-08	4.907070e+01	1.433761e+03
1.940000e-06	6.832455e-06	2.187412e-08	4.850525e+01	1.431030e+03
1.950000e-06	6.750374e-06	2.180100e-08	4.792254e+01	1.428392e+03
1.960000e-06	6.665815e-06	2.177551e-08	4.732223e+01	1.425543e+03
1.970000e-06	6.578766e-06	2.169110e-08	4.670425e+01	1.422201e+03
1.980000e-06	6.489270e-06	2.163692e-08	4.606890e+01	1.418195e+03
1.990000e-06	6.397518e-06	2.156932e-08	4.541753e+01	1.413516e+03
2.000000e-06	6.303512e-06	2.149949e-08	4.475015e+01	1.408329e+03
2.010000e-06	6.207153e-06	2.143760e-08	4.406608e+01	1.402914e+03
2.020000e-06	6.108659e-06	2.135925e-08	4.336685e+01	1.397579e+03
2.030000e-06	6.007978e-06	2.129607e-08	4.265209e+01	1.392560e+03
2.040000e-06	5.905028e-06	2.121052e-08	4.192123e+01	1.387938e+03
2.050000e-06	5.800022e-06	2.113848e-08	4.117576e+01	1.383614e+03
2.060000e-06	5.693136e-06	2.104739e-08	4.041695e+01	1.379327e+03
2.070000e-06	5.584291e-06	2.096613e-08	3.964424e+01	1.374741e+03
2.080000e-06	5.473397e-06	2.088191e-08	3.885697e+01	1.369545e+03
2.090000e-06	5.360456e-06	2.079935e-08	3.805517e+01	1.363555e+03
2.100000e-06	5.245499e-06	2.070594e-08	3.723907e+01	1.356774e+03
2.110000e-06	5.128528e-06	2.060841e-08	3.640866e+01	1.349400e+03
2.120000e-06	5.009529e-06	2.050932e-08	3.556386e+01	1.341759e+03
2.130000e-06	4.888639e-06	2.040090e-08	3.470563e+01	1.334204e+03
2.140000e-06	4.766086e-06	2.029783e-08	3.383559e+01	1.327002e+03
2.150000e-06	4.641874e-06	2.019186e-08	3.295379e+01	1.320234e+03
2.160000e-06	4.515858e-06	2.008709e-08	3.205917e+01	1.313762e+03
2.170000e-06	4.388130e-06	1.996960e-08	3.115240e+01	1.307260e+03
2.180000e-06	4.258893e-06	1.984743e-08	3.023491e+01	1.300307e+03
2.190000e-06	4.128191e-06	1.972029e-08	2.930703e+01	1.292513e+03
2.200000e-06	3.995930e-06	1.959261e-08	2.836807e+01	1.283646e+03
2.210000e-06	3.862116e-06	1.945570e-08	2.741810e+01	1.273702e+03
2.220000e-06	3.726825e-06	1.931354e-08	2.645763e+01	1.262918e+03
2.230000e-06	3.590174e-06	1.916252e-08	2.548752e+01	1.251694e+03
2.240000e-06	3.452201e-06	1.900209e-08	2.450801e+01	1.240468e+03
2.250000e-06	3.312871e-06	1.883764e-08	2.351888e+01	1.229567e+03
2.260000e-06	3.172245e-06	1.867045e-08	2.252054e+01	1.219088e+03
2.270000e-06	3.030333e-06	1.850040e-08	2.151307e+01	1.208844e+03
2.280000e-06	2.887169e-06	1.832209e-08	2.049671e+01	1.198402e+03
2.290000e-06	2.742890e-06	1.813429e-08	1.947244e+01	1.187198e+03
2.300000e-06	2.597685e-06	1.793334e-08	1.844159e+01	1.174709e+03
2.310000e-06	2.451663e-06	1.772113e-08	1.740495e+01	1.160607e+03
2.320000e-06	2.304859e-06	1.750062e-08	1.636275e+01	1.144876e+03
2.330000e-06	2.157245e-06	1.727117e-08	1.531480e+01	1.127815e+03
2.340000e-06	2.008823e-06	1.703010e-08	1.426112e+01	1.109951e+03
2.350000e-06	1.859749e-06	1.677590e-08	1.320281e+01	1.091855e+03
2.360000e-06	1.710163e-06	1.650727e-08	1.214086e+01	1.073936e+03
2.370000e-06	1.560059e-06	1.622366e-08	1.107524e+01	1.056261e+03
2.380000e-06	1.409410e-06	1.592274e-08	1.000575e+01	1.038470e+03
2.390000e-06	1.258233e-06	1.560290e-08	8.932499e+00	1.019818e+03
2.400000e-06	1.106607e-06	1.526204e-08	7.856073e+00	9.993456e+02
2.410000e-06	9.545798e-07	1.489479e-08	6.776793e+00	9.761282e+02
2.420000e-06	8.021822e-07	1.449910e-08	5.694886e+00	9.495371e+02
2.430000e-06	6.495389e-07	1.407330e-08	4.611234e+00	9.194162e+02
2.440000e-06	4.967301e-07	1.361471e-08	3.526407e+00	8.861100e+02
2.450000e-06	3.437404e-07	1.311663e-08	2.440296e+00	8.503037e+02
2.460000e-06	1.905459e-07	1.256993e-08	1.352732e+00	8.126978e+02
2.470000e-06	3.722952e-08	1.196851e-08	2.643014e-01	7.735865e+02
2.480000e-06	-1.161620e-07	1.130236e-08	-8.246623e-01	7.324552e+02
2.490000e-06	-2.694937e-07	1.055390e-08	-1.913201e+00	6.877194e+02
2.500000e-06	-4.226568e-07	9.706831e-09	-3.000543e+00	6.367101e+02
2.510000e-06	-5.757021e-07	8.744334e-09	-4.087048e+00	5.759570e+02
2.520000e-06	-7.286191e-07	7.635109e-09	-5.172643e+00	5.017497e+02
2.530000e-06	-8.813193e-07	6.334670e-09	-6.256699e+00	4.108853e+02
2.540000e-06	-1.033692e-06	4.783230e-09	-7.338428e+00	3.014517e+02
2.550000e-06	-1.185697e-06	2.917418e-09	-8.417547e+00	1.734732e+02
2.560000e-06	-1.337282e-06	7.052865e-10	-9.493688e+00	2.926145e+01
2.570000e-06	-1.488343e-06	-1.743208e-09	-1.056611e+01	-1.266326e+02
2.580000e-06	-1.638793e-06	-4.259190e-09	-1.163419e+01	-2.878833e+02
2.590000e-06	-1.788653e-06	-6.777269e-09	-1.269808e+01	-4.472019e+02
2.600000e-06	-1.937877e-06	-9.205245e-09	-1.375746e+01	-5.973470e+02
2.610000e-06	-2.086374e-06	-1.133876e-08	-1.481167e+01	-7.321391e+02
2.620000e-06	-2.234022e-06	-1.305084e-08	-1.585986e+01	-8.472836e+02
2.630000e-06	-2.380792e-06	-1.437679e-08	-1.690182e+01	-9.408467e+02
2.640000e-06	-2.526801e-06	-1.540075e-08	-1.793837e+01	-1.013307e+03
2.650000e-06	-2.671923e-06	-1.620042e-08	-1.896863e+01	-1.067190e+03
2.660000e-06	-2.816005e-06	-1.683549e-08	-1.999150e+01	-1.106394e+03
2.670000e-06	-2.958926e-06	-1.734902e-08	-2.100613e+01	-1.135353e+03
2.680000e-06	-3.100631e-06	-1.777374e-08	-2.201213e+01	-1.158229e+03
2.690000e-06	-3.241078e-06	-1.813382e-08	-2.300920e+01	-1.178283e+03
2.700000e-06	-3.380224e-06	-1.844551e-08	-2.399703e+01	-1.197541e+03
2.710000e-06	-3.518103e-06	-1.872095e-08	-2.497586e+01	-1.216779e+03
2.720000e-06	-3.654664e-06	-1.896828e-08	-2.594535e+01	-1.235775e+03
2.730000e-06	-3.789878e-06	-1.919331e-08	-2.690526e+01	-1.253743e+03
2.740000e-06	-3.923714e-06	-1.939827e-08	-2.785540e+01	-1.269798e+03
2.750000e-06	-4.056179e-06	-1.958391e-08	-2.879580e+01	-1.283344e+03
2.760000e-06	-4.187251e-06	-1.975459e-08	-2.972631e+01	-1.294292e+03
2.770000e-06	-4.316848e-06	-1.991367e-08	-3.064635e+01	-1.303079e+03
2.780000e-06	-4.444959e-06	-2.006262e-08	-3.155584e+01	-1.310514e+03
2.790000e-06	-4.571527e-06	-2.020358e-08	-3.245438e+01	-1.317519e+03
2.800000e-06	-4.696535e-06	-2.033750e-08	-3.334184e+01	-1.324860e+03
2.810000e-06	-4.819945e-06	-2.046398e-08	-3.421796e+01	-1.332947e+03
2.820000e-06	-4.941614e-06	-2.058244e-08	-3.508172e+01	-1.341756e+03
2.830000e-06	-5.061401e-06	-2.069304e-08	-3.593211e+01	-1.350889e+03
2.840000e-06	-5.179227e-06	-2.079569e-08	-3.676859e+01	-1.359739e+03
2.850000e-06	-5.295011e-06	-2.089139e-08	-3.759057e+01	-1.367708e+03
2.860000e-06	-5.408614e-06	-2.098188e-08	-3.839706e+01	-1.374401e+03
2.870000e-06	-5.520079e-06	-2.106962e-08	-3.918838e+01	-1.379743e+03
2.880000e-06	-5.629518e-06	-2.115562e-08	-3.996531e+01	-1.383993e+03
2.890000e-06	-5.736999e-06	-2.123815e-08	-4.072835e+01	-1.387651e+03
2.900000e-06	-5.842517e-06	-2.131614e-08	-4.147744e+01	-1.391293e+03
2.910000e-06	-5.945858e-06	-2.139039e-08	-4.221109e+01	-1.395400e+03
2.920000e-06	-6.046892e-06	-2.146191e-08	-4.292835e+01	-1.400218e+03
2.930000e-06	-6.145727e-06	-2.153143e-08	-4.363000e+01	-1.405696e+03
2.940000e-06	-6.242415e-06	-2.159888e-08	-4.431642e+01	-1.411526e+03
