# Temperatura_=_88.04
# Concentracion g/m^3_=_41000.0
# C_Vs_to_Am_M_A/Vsm_=_65563218390.804596
# pendiente_HvsI_1/m_=_3716.3
# ordenada_HvsI_A/m_=_1297.0
# frecuencia_Hz_=_302510.7593996507

Tiempo_(s)	Campo_(V.s)	Magnetizacion_(V.s)	Campo_(kA/m)	Magnetizacion_(A/m)
0.000000e+00	-8.068359e-06	-2.335338e-08	-5.685578e+01	-1.531481e+03
1.000000e-08	-8.064042e-06	-2.335110e-08	-5.682536e+01	-1.530431e+03
2.000000e-08	-8.057150e-06	-2.334522e-08	-5.677679e+01	-1.529063e+03
3.000000e-08	-8.047473e-06	-2.333643e-08	-5.670861e+01	-1.527653e+03
4.000000e-08	-8.034838e-06	-2.332473e-08	-5.661957e+01	-1.526452e+03
5.000000e-08	-8.019276e-06	-2.331009e-08	-5.650991e+01	-1.525611e+03
6.000000e-08	-8.001030e-06	-2.329673e-08	-5.638133e+01	-1.525128e+03
7.000000e-08	-7.980431e-06	-2.328980e-08	-5.623617e+01	-1.524858e+03
8.000000e-08	-7.957234e-06	-2.330081e-08	-5.607271e+01	-1.524556e+03
9.000000e-08	-7.930884e-06	-2.331161e-08	-5.588703e+01	-1.523961e+03
1.000000e-07	-7.901299e-06	-2.327017e-08	-5.567855e+01	-1.522878e+03
1.100000e-07	-7.868791e-06	-2.321571e-08	-5.544947e+01	-1.521243e+03
1.200000e-07	-7.833515e-06	-2.317943e-08	-5.520090e+01	-1.519145e+03
1.300000e-07	-7.795755e-06	-2.314805e-08	-5.493481e+01	-1.516796e+03
1.400000e-07	-7.755771e-06	-2.309559e-08	-5.465305e+01	-1.514464e+03
1.500000e-07	-7.713472e-06	-2.305195e-08	-5.435498e+01	-1.512387e+03
1.600000e-07	-7.668559e-06	-2.308103e-08	-5.403849e+01	-1.510695e+03
1.700000e-07	-7.620855e-06	-2.299588e-08	-5.370233e+01	-1.509361e+03
1.800000e-07	-7.570271e-06	-2.295743e-08	-5.334588e+01	-1.508209e+03
1.900000e-07	-7.516676e-06	-2.298506e-08	-5.296821e+01	-1.506960e+03
2.000000e-07	-7.460246e-06	-2.291735e-08	-5.257056e+01	-1.505317e+03
2.100000e-07	-7.401134e-06	-2.290285e-08	-5.215401e+01	-1.503054e+03
2.200000e-07	-7.339294e-06	-2.286747e-08	-5.171823e+01	-1.500083e+03
2.300000e-07	-7.274758e-06	-2.280366e-08	-5.126347e+01	-1.496483e+03
2.400000e-07	-7.207499e-06	-2.273084e-08	-5.078951e+01	-1.492470e+03
2.500000e-07	-7.137477e-06	-2.266936e-08	-5.029608e+01	-1.488334e+03
2.600000e-07	-7.064614e-06	-2.262976e-08	-4.978264e+01	-1.484345e+03
2.700000e-07	-6.988914e-06	-2.257482e-08	-4.924920e+01	-1.480671e+03
2.800000e-07	-6.910543e-06	-2.252265e-08	-4.869693e+01	-1.477326e+03
2.900000e-07	-6.829503e-06	-2.246028e-08	-4.812586e+01	-1.474168e+03
3.000000e-07	-6.745939e-06	-2.239153e-08	-4.753701e+01	-1.470943e+03
3.100000e-07	-6.660052e-06	-2.231961e-08	-4.693178e+01	-1.467371e+03
3.200000e-07	-6.571767e-06	-2.225230e-08	-4.630966e+01	-1.463233e+03
3.300000e-07	-6.481012e-06	-2.220522e-08	-4.567013e+01	-1.458445e+03
3.400000e-07	-6.387936e-06	-2.212922e-08	-4.501425e+01	-1.453083e+03
3.500000e-07	-6.292559e-06	-2.205211e-08	-4.434215e+01	-1.447361e+03
3.600000e-07	-6.194873e-06	-2.198165e-08	-4.365378e+01	-1.441563e+03
3.700000e-07	-6.094957e-06	-2.190017e-08	-4.294969e+01	-1.435946e+03
3.800000e-07	-5.992848e-06	-2.181763e-08	-4.223016e+01	-1.430659e+03
3.900000e-07	-5.888576e-06	-2.173481e-08	-4.149538e+01	-1.425686e+03
4.000000e-07	-5.782237e-06	-2.164798e-08	-4.074603e+01	-1.420848e+03
4.100000e-07	-5.673950e-06	-2.155020e-08	-3.998296e+01	-1.415853e+03
4.200000e-07	-5.563639e-06	-2.146183e-08	-3.920563e+01	-1.410388e+03
4.300000e-07	-5.451175e-06	-2.136282e-08	-3.841312e+01	-1.404218e+03
4.400000e-07	-5.336592e-06	-2.125703e-08	-3.760568e+01	-1.397263e+03
4.500000e-07	-5.220005e-06	-2.115029e-08	-3.678412e+01	-1.389625e+03
4.600000e-07	-5.101468e-06	-2.104613e-08	-3.594882e+01	-1.381563e+03
4.700000e-07	-4.981109e-06	-2.093714e-08	-3.510068e+01	-1.373407e+03
4.800000e-07	-4.859015e-06	-2.081961e-08	-3.424031e+01	-1.365455e+03
4.900000e-07	-4.735091e-06	-2.070362e-08	-3.336704e+01	-1.357868e+03
5.000000e-07	-4.609446e-06	-2.058003e-08	-3.248165e+01	-1.350611e+03
5.100000e-07	-4.482148e-06	-2.045059e-08	-3.158462e+01	-1.343452e+03
5.200000e-07	-4.353168e-06	-2.031470e-08	-3.067573e+01	-1.336027e+03
5.300000e-07	-4.222599e-06	-2.017776e-08	-2.975564e+01	-1.327945e+03
5.400000e-07	-4.090505e-06	-2.003249e-08	-2.882480e+01	-1.318911e+03
5.500000e-07	-3.956972e-06	-1.987945e-08	-2.788383e+01	-1.308822e+03
5.600000e-07	-3.821879e-06	-1.972550e-08	-2.693186e+01	-1.297799e+03
5.700000e-07	-3.685199e-06	-1.956863e-08	-2.596871e+01	-1.286156e+03
5.800000e-07	-3.547084e-06	-1.940813e-08	-2.499545e+01	-1.274299e+03
5.900000e-07	-3.407532e-06	-1.923970e-08	-2.401206e+01	-1.262590e+03
6.000000e-07	-3.266510e-06	-1.906319e-08	-2.301831e+01	-1.251221e+03
6.100000e-07	-3.124153e-06	-1.887451e-08	-2.201515e+01	-1.240132e+03
6.200000e-07	-2.980575e-06	-1.867688e-08	-2.100339e+01	-1.229011e+03
6.300000e-07	-2.835901e-06	-1.847253e-08	-1.998391e+01	-1.217368e+03
6.400000e-07	-2.690221e-06	-1.826225e-08	-1.895734e+01	-1.204677e+03
6.500000e-07	-2.543570e-06	-1.804310e-08	-1.792392e+01	-1.190538e+03
6.600000e-07	-2.396085e-06	-1.781285e-08	-1.688464e+01	-1.174800e+03
6.700000e-07	-2.247836e-06	-1.757157e-08	-1.583996e+01	-1.157614e+03
6.800000e-07	-2.098885e-06	-1.731672e-08	-1.479033e+01	-1.139388e+03
6.900000e-07	-1.949300e-06	-1.705100e-08	-1.373625e+01	-1.120652e+03
7.000000e-07	-1.799076e-06	-1.677410e-08	-1.267765e+01	-1.101866e+03
7.100000e-07	-1.648154e-06	-1.648465e-08	-1.161415e+01	-1.083233e+03
7.200000e-07	-1.496543e-06	-1.617844e-08	-1.054578e+01	-1.064580e+03
7.300000e-07	-1.344349e-06	-1.585251e-08	-9.473306e+00	-1.045344e+03
7.400000e-07	-1.191709e-06	-1.550288e-08	-8.397683e+00	-1.024682e+03
7.500000e-07	-1.038725e-06	-1.512749e-08	-7.319642e+00	-1.001682e+03
7.600000e-07	-8.854226e-07	-1.472767e-08	-6.239360e+00	-9.756083e+02
7.700000e-07	-7.318242e-07	-1.430131e-08	-5.156989e+00	-9.461052e+02
7.800000e-07	-5.779560e-07	-1.384144e-08	-4.072717e+00	-9.132846e+02
7.900000e-07	-4.238232e-07	-1.334062e-08	-2.986580e+00	-8.776461e+02
8.000000e-07	-2.695254e-07	-1.279298e-08	-1.899281e+00	-8.398266e+02
8.100000e-07	-1.151320e-07	-1.219029e-08	-8.113075e-01	-8.002278e+02
8.200000e-07	3.935371e-08	-1.152534e-08	2.773162e-01	-7.586169e+02
8.300000e-07	1.938371e-07	-1.078467e-08	1.365923e+00	-7.138160e+02
8.400000e-07	3.482238e-07	-9.951860e-09	2.453850e+00	-6.635904e+02
8.500000e-07	5.025432e-07	-9.006009e-09	3.541301e+00	-6.048096e+02
8.600000e-07	6.567381e-07	-7.918103e-09	4.627876e+00	-5.338893e+02
8.700000e-07	8.106745e-07	-6.646891e-09	5.712628e+00	-4.474552e+02
8.800000e-07	9.643832e-07	-5.133560e-09	6.795776e+00	-3.431037e+02
8.900000e-07	1.117847e-06	-3.313669e-09	7.877196e+00	-2.200979e+02
9.000000e-07	1.270945e-06	-1.163533e-09	8.956045e+00	-7.983744e+01
9.100000e-07	1.423660e-06	1.217957e-09	1.003219e+01	7.402466e+01
9.200000e-07	1.575914e-06	3.673918e-09	1.110509e+01	2.358702e+02
9.300000e-07	1.727517e-06	6.133691e-09	1.217340e+01	3.987790e+02
9.400000e-07	1.878378e-06	8.563480e-09	1.323648e+01	5.554529e+02
9.500000e-07	2.028467e-06	1.082528e-08	1.429412e+01	6.992256e+02
9.600000e-07	2.177745e-06	1.272615e-08	1.534605e+01	8.249676e+02
9.700000e-07	2.326150e-06	1.420978e-08	1.639182e+01	9.297109e+02
9.800000e-07	2.473697e-06	1.535015e-08	1.743155e+01	1.012885e+03
9.900000e-07	2.620384e-06	1.623544e-08	1.846522e+01	1.076133e+03
1.000000e-06	2.766158e-06	1.693274e-08	1.949245e+01	1.122775e+03
1.010000e-06	2.910938e-06	1.749325e-08	2.051268e+01	1.157041e+03
1.020000e-06	3.054572e-06	1.795574e-08	2.152483e+01	1.183246e+03
1.030000e-06	3.197018e-06	1.834946e-08	2.252861e+01	1.205091e+03
1.040000e-06	3.338226e-06	1.869267e-08	2.352367e+01	1.225186e+03
1.050000e-06	3.478212e-06	1.899377e-08	2.451012e+01	1.244895e+03
1.060000e-06	3.616891e-06	1.926198e-08	2.548736e+01	1.264469e+03
1.070000e-06	3.754087e-06	1.950462e-08	2.645415e+01	1.283393e+03
1.080000e-06	3.889768e-06	1.972540e-08	2.741026e+01	1.300835e+03
1.090000e-06	4.024015e-06	1.992692e-08	2.835626e+01	1.316074e+03
1.100000e-06	4.156839e-06	2.011415e-08	2.929225e+01	1.328788e+03
1.110000e-06	4.288198e-06	2.029084e-08	3.021790e+01	1.339170e+03
1.120000e-06	4.418110e-06	2.045750e-08	3.113335e+01	1.347850e+03
1.130000e-06	4.546426e-06	2.061467e-08	3.203757e+01	1.355689e+03
1.140000e-06	4.673072e-06	2.076291e-08	3.293002e+01	1.363519e+03
1.150000e-06	4.798154e-06	2.090367e-08	3.381143e+01	1.371904e+03
1.160000e-06	4.921643e-06	2.103770e-08	3.468163e+01	1.381017e+03
1.170000e-06	5.043387e-06	2.116378e-08	3.553953e+01	1.390628e+03
1.180000e-06	5.163269e-06	2.128204e-08	3.638431e+01	1.400225e+03
1.190000e-06	5.281304e-06	2.139385e-08	3.721608e+01	1.409205e+03
1.200000e-06	5.397446e-06	2.149921e-08	3.803450e+01	1.417074e+03
1.210000e-06	5.511425e-06	2.159820e-08	3.883768e+01	1.423606e+03
1.220000e-06	5.623201e-06	2.169371e-08	3.962535e+01	1.428900e+03
1.230000e-06	5.732989e-06	2.178745e-08	4.039899e+01	1.433337e+03
1.240000e-06	5.840871e-06	2.187815e-08	4.115921e+01	1.437454e+03
1.250000e-06	5.946662e-06	2.196329e-08	4.190470e+01	1.441775e+03
1.260000e-06	6.050159e-06	2.204339e-08	4.263401e+01	1.446658e+03
1.270000e-06	6.151414e-06	2.211981e-08	4.334753e+01	1.452199e+03
1.280000e-06	6.250424e-06	2.219331e-08	4.404523e+01	1.458222e+03
1.290000e-06	6.346984e-06	2.226421e-08	4.472567e+01	1.464353e+03
1.300000e-06	6.441208e-06	2.233353e-08	4.538965e+01	1.470146e+03
1.310000e-06	6.533287e-06	2.240209e-08	4.603850e+01	1.475234e+03
1.320000e-06	6.622977e-06	2.247000e-08	4.667053e+01	1.479431e+03
1.330000e-06	6.710199e-06	2.253562e-08	4.728515e+01	1.482793e+03
1.340000e-06	6.795103e-06	2.259770e-08	4.788346e+01	1.485580e+03
1.350000e-06	6.877618e-06	2.265549e-08	4.846492e+01	1.488174e+03
1.360000e-06	6.957610e-06	2.270998e-08	4.902860e+01	1.490948e+03
1.370000e-06	7.035096e-06	2.276205e-08	4.957463e+01	1.494156e+03
1.380000e-06	7.109994e-06	2.281095e-08	5.010241e+01	1.497853e+03
1.390000e-06	7.182213e-06	2.285814e-08	5.061132e+01	1.501886e+03
1.400000e-06	7.251866e-06	2.290560e-08	5.110215e+01	1.505953e+03
1.410000e-06	7.318967e-06	2.295251e-08	5.157500e+01	1.509696e+03
1.420000e-06	7.383380e-06	2.299535e-08	5.202890e+01	1.512824e+03
1.430000e-06	7.445228e-06	2.303455e-08	5.246473e+01	1.515195e+03
1.440000e-06	7.504645e-06	2.307221e-08	5.288343e+01	1.516863e+03
1.450000e-06	7.561390e-06	2.310675e-08	5.328330e+01	1.518053e+03
1.460000e-06	7.615369e-06	2.313904e-08	5.366367e+01	1.519088e+03
1.470000e-06	7.666321e-06	2.316856e-08	5.402272e+01	1.520286e+03
1.480000e-06	7.714127e-06	2.319464e-08	5.435959e+01	1.521860e+03
1.490000e-06	7.759175e-06	2.321946e-08	5.467704e+01	1.523857e+03
1.500000e-06	7.801514e-06	2.324433e-08	5.497539e+01	1.526142e+03
1.510000e-06	7.840999e-06	2.326816e-08	5.525364e+01	1.528452e+03
1.520000e-06	7.877753e-06	2.328870e-08	5.551263e+01	1.530476e+03
1.530000e-06	7.911766e-06	2.330788e-08	5.575231e+01	1.531959e+03
1.540000e-06	7.942905e-06	2.332593e-08	5.597174e+01	1.532780e+03
1.550000e-06	7.971259e-06	2.334069e-08	5.617154e+01	1.532989e+03
1.560000e-06	7.996747e-06	2.335205e-08	5.635115e+01	1.532789e+03
1.570000e-06	8.019287e-06	2.336197e-08	5.650999e+01	1.532475e+03
1.580000e-06	8.039031e-06	2.337191e-08	5.664912e+01	1.532336e+03
1.590000e-06	8.055835e-06	2.338135e-08	5.676753e+01	1.532567e+03
1.600000e-06	8.069621e-06	2.338997e-08	5.686467e+01	1.533213e+03
1.610000e-06	8.080376e-06	2.339696e-08	5.694047e+01	1.534152e+03
1.620000e-06	8.088015e-06	2.340093e-08	5.699430e+01	1.535140e+03
1.630000e-06	8.092800e-06	2.340278e-08	5.702801e+01	1.535886e+03
1.640000e-06	8.094714e-06	2.340222e-08	5.704150e+01	1.536148e+03
1.650000e-06	8.093709e-06	2.339761e-08	5.703442e+01	1.535803e+03
1.660000e-06	8.090121e-06	2.338751e-08	5.700913e+01	1.534887e+03
1.670000e-06	8.083861e-06	2.337932e-08	5.696502e+01	1.533581e+03
1.680000e-06	8.074813e-06	2.337292e-08	5.690126e+01	1.532153e+03
1.690000e-06	8.063028e-06	2.336566e-08	5.681822e+01	1.530870e+03
1.700000e-06	8.048357e-06	2.335753e-08	5.671484e+01	1.529917e+03
1.710000e-06	8.031099e-06	2.334490e-08	5.659322e+01	1.529339e+03
1.720000e-06	8.011629e-06	2.331312e-08	5.645602e+01	1.529028e+03
1.730000e-06	7.989622e-06	2.324770e-08	5.630094e+01	1.528762e+03
1.740000e-06	7.964326e-06	2.320629e-08	5.612268e+01	1.528273e+03
1.750000e-06	7.935267e-06	2.322217e-08	5.591792e+01	1.527341e+03
1.760000e-06	7.902822e-06	2.322181e-08	5.568929e+01	1.525859e+03
1.770000e-06	7.867778e-06	2.320307e-08	5.544234e+01	1.523875e+03
1.780000e-06	7.830417e-06	2.321787e-08	5.517907e+01	1.521569e+03
1.790000e-06	7.790868e-06	2.323900e-08	5.490037e+01	1.519203e+03
1.800000e-06	7.749269e-06	2.314627e-08	5.460723e+01	1.517033e+03
1.810000e-06	7.705102e-06	2.314779e-08	5.429600e+01	1.515224e+03
1.820000e-06	7.658112e-06	2.315025e-08	5.396487e+01	1.513798e+03
1.830000e-06	7.608440e-06	2.306812e-08	5.361484e+01	1.512618e+03
1.840000e-06	7.555789e-06	2.308188e-08	5.324383e+01	1.511426e+03
1.850000e-06	7.500185e-06	2.299777e-08	5.285200e+01	1.509922e+03
1.860000e-06	7.441821e-06	2.296992e-08	5.244072e+01	1.507850e+03
1.870000e-06	7.380823e-06	2.294613e-08	5.201088e+01	1.505079e+03
1.880000e-06	7.317110e-06	2.289985e-08	5.156191e+01	1.501639e+03
1.890000e-06	7.250448e-06	2.291516e-08	5.109216e+01	1.497715e+03
1.900000e-06	7.181038e-06	2.283105e-08	5.060305e+01	1.493582e+03
1.910000e-06	7.108802e-06	2.276995e-08	5.009401e+01	1.489527e+03
1.920000e-06	7.033726e-06	2.269952e-08	4.956498e+01	1.485752e+03
1.930000e-06	6.955939e-06	2.264648e-08	4.901682e+01	1.482320e+03
1.940000e-06	6.875484e-06	2.261301e-08	4.844988e+01	1.479129e+03
1.950000e-06	6.792508e-06	2.253954e-08	4.786517e+01	1.475951e+03
1.960000e-06	6.706961e-06	2.249053e-08	4.726234e+01	1.472503e+03
1.970000e-06	6.618951e-06	2.240033e-08	4.664215e+01	1.468540e+03
1.980000e-06	6.528639e-06	2.233605e-08	4.600575e+01	1.463935e+03
1.990000e-06	6.436020e-06	2.226787e-08	4.535308e+01	1.458719e+03
2.000000e-06	6.341072e-06	2.218902e-08	4.468401e+01	1.453070e+03
2.010000e-06	6.243883e-06	2.212193e-08	4.399914e+01	1.447263e+03
2.020000e-06	6.144469e-06	2.203695e-08	4.329860e+01	1.441571e+03
2.030000e-06	6.042852e-06	2.195130e-08	4.258252e+01	1.436182e+03
2.040000e-06	5.939093e-06	2.186054e-08	4.185136e+01	1.431130e+03
2.050000e-06	5.833285e-06	2.178044e-08	4.110575e+01	1.426278e+03
2.060000e-06	5.725495e-06	2.168919e-08	4.034619e+01	1.421359e+03
2.070000e-06	5.615647e-06	2.159800e-08	3.957211e+01	1.416056e+03
2.080000e-06	5.503723e-06	2.151077e-08	3.878341e+01	1.410101e+03
2.090000e-06	5.389698e-06	2.141866e-08	3.797990e+01	1.403366e+03
2.100000e-06	5.273600e-06	2.131425e-08	3.716179e+01	1.395900e+03
2.110000e-06	5.155504e-06	2.120390e-08	3.632960e+01	1.387925e+03
2.120000e-06	5.035484e-06	2.109331e-08	3.548384e+01	1.379761e+03
2.130000e-06	4.913656e-06	2.097552e-08	3.462535e+01	1.371725e+03
2.140000e-06	4.790018e-06	2.085796e-08	3.375410e+01	1.364026e+03
2.150000e-06	4.664583e-06	2.074042e-08	3.287019e+01	1.356689e+03
2.160000e-06	4.537460e-06	2.062226e-08	3.197439e+01	1.349533e+03
2.170000e-06	4.408752e-06	2.049596e-08	3.106742e+01	1.342223e+03
2.180000e-06	4.278447e-06	2.036761e-08	3.014918e+01	1.334364e+03
2.190000e-06	4.146529e-06	2.023779e-08	2.921959e+01	1.325621e+03
2.200000e-06	4.013078e-06	2.009818e-08	2.827920e+01	1.315829e+03
2.210000e-06	3.878185e-06	1.994720e-08	2.732863e+01	1.305046e+03
2.220000e-06	3.741862e-06	1.978612e-08	2.636800e+01	1.293539e+03
2.230000e-06	3.604048e-06	1.961826e-08	2.539686e+01	1.281699e+03
2.240000e-06	3.464705e-06	1.944633e-08	2.441494e+01	1.269917e+03
2.250000e-06	3.323996e-06	1.927388e-08	2.342340e+01	1.258443e+03
2.260000e-06	3.182074e-06	1.909967e-08	2.242331e+01	1.247295e+03
2.270000e-06	3.038891e-06	1.891975e-08	2.141434e+01	1.236226e+03
2.280000e-06	2.894526e-06	1.872900e-08	2.039703e+01	1.224785e+03
2.290000e-06	2.749144e-06	1.852661e-08	1.937255e+01	1.212441e+03
2.300000e-06	2.602854e-06	1.830847e-08	1.834169e+01	1.198743e+03
2.310000e-06	2.455685e-06	1.808066e-08	1.730462e+01	1.183457e+03
2.320000e-06	2.307580e-06	1.784686e-08	1.626096e+01	1.166650e+03
2.330000e-06	2.158604e-06	1.760285e-08	1.521116e+01	1.148668e+03
2.340000e-06	2.008961e-06	1.734555e-08	1.415666e+01	1.130023e+03
2.350000e-06	1.858783e-06	1.707274e-08	1.309840e+01	1.111214e+03
2.360000e-06	1.708031e-06	1.678564e-08	1.203608e+01	1.092536e+03
2.370000e-06	1.556668e-06	1.648347e-08	1.096947e+01	1.073928e+03
2.380000e-06	1.404782e-06	1.616643e-08	9.899159e+00	1.054934e+03
2.390000e-06	1.252411e-06	1.582994e-08	8.825440e+00	1.034772e+03
2.400000e-06	1.099614e-06	1.546931e-08	7.748714e+00	1.012526e+03
2.410000e-06	9.464454e-07	1.508041e-08	6.669373e+00	9.873843e+02
2.420000e-06	7.929377e-07	1.466148e-08	5.587641e+00	9.588684e+02
2.430000e-06	6.391863e-07	1.421052e-08	4.504192e+00	9.269565e+02
2.440000e-06	4.852883e-07	1.372315e-08	3.419710e+00	8.920563e+02
2.450000e-06	3.312362e-07	1.319421e-08	2.334142e+00	8.547992e+02
2.460000e-06	1.770371e-07	1.261597e-08	1.247538e+00	8.156960e+02
2.470000e-06	2.279849e-08	1.197921e-08	1.606554e-01	7.747330e+02
2.480000e-06	-1.314405e-07	1.126964e-08	-9.262297e-01	7.310241e+02
2.490000e-06	-2.856849e-07	1.046936e-08	-2.013153e+00	6.826329e+02
2.500000e-06	-4.398964e-07	9.561286e-09	-3.099844e+00	6.266516e+02
2.510000e-06	-5.940226e-07	8.523336e-09	-4.185934e+00	5.595655e+02
2.520000e-06	-7.480439e-07	7.320031e-09	-5.271285e+00	4.778642e+02
2.530000e-06	-9.018388e-07	5.901632e-09	-6.355041e+00	3.787896e+02
2.540000e-06	-1.055248e-06	4.202594e-09	-7.436082e+00	2.610681e+02
2.550000e-06	-1.208311e-06	2.163888e-09	-8.514675e+00	1.254597e+02
2.560000e-06	-1.360952e-06	-1.794769e-10	-9.590298e+00	-2.501478e+01
2.570000e-06	-1.513052e-06	-2.672302e-09	-1.066211e+01	-1.852459e+02
2.580000e-06	-1.664612e-06	-5.193654e-09	-1.173012e+01	-3.485998e+02
2.590000e-06	-1.815555e-06	-7.705964e-09	-1.279378e+01	-5.077833e+02
2.600000e-06	-1.965797e-06	-1.010326e-08	-1.385250e+01	-6.558490e+02
2.610000e-06	-2.115275e-06	-1.217965e-08	-1.490583e+01	-7.871498e+02
2.620000e-06	-2.263953e-06	-1.382583e-08	-1.595353e+01	-8.980576e+02
2.630000e-06	-2.411711e-06	-1.509212e-08	-1.699475e+01	-9.873175e+02
2.640000e-06	-2.558548e-06	-1.606696e-08	-1.802947e+01	-1.055982e+03
2.650000e-06	-2.704533e-06	-1.683018e-08	-1.905819e+01	-1.106963e+03
2.660000e-06	-2.849533e-06	-1.744130e-08	-2.007997e+01	-1.144315e+03
2.670000e-06	-2.993467e-06	-1.793963e-08	-2.109424e+01	-1.172410e+03
2.680000e-06	-3.136288e-06	-1.835603e-08	-2.210067e+01	-1.195182e+03
2.690000e-06	-3.277833e-06	-1.871319e-08	-2.309810e+01	-1.215585e+03
2.700000e-06	-3.417944e-06	-1.902569e-08	-2.408543e+01	-1.235337e+03
2.710000e-06	-3.556682e-06	-1.930455e-08	-2.506309e+01	-1.254979e+03
2.720000e-06	-3.694105e-06	-1.955611e-08	-2.603147e+01	-1.274170e+03
2.730000e-06	-3.830170e-06	-1.978446e-08	-2.699028e+01	-1.292122e+03
2.740000e-06	-3.964911e-06	-1.999238e-08	-2.793977e+01	-1.308046e+03
2.750000e-06	-4.098296e-06	-2.018207e-08	-2.887970e+01	-1.321487e+03
2.760000e-06	-4.230181e-06	-2.035803e-08	-2.980907e+01	-1.332488e+03
2.770000e-06	-4.360594e-06	-2.052328e-08	-3.072806e+01	-1.341573e+03
2.780000e-06	-4.489553e-06	-2.067950e-08	-3.163680e+01	-1.349564e+03
2.790000e-06	-4.616960e-06	-2.082829e-08	-3.253461e+01	-1.357325e+03
2.800000e-06	-4.742758e-06	-2.096988e-08	-3.342108e+01	-1.365517e+03
2.810000e-06	-4.866819e-06	-2.110369e-08	-3.429530e+01	-1.374431e+03
2.820000e-06	-4.989149e-06	-2.123023e-08	-3.515734e+01	-1.383945e+03
2.830000e-06	-5.109793e-06	-2.134933e-08	-3.600748e+01	-1.393609e+03
2.840000e-06	-5.228524e-06	-2.145942e-08	-3.684415e+01	-1.402825e+03
2.850000e-06	-5.345092e-06	-2.156277e-08	-3.766558e+01	-1.411050e+03
2.860000e-06	-5.459483e-06	-2.166277e-08	-3.847166e+01	-1.417971e+03
2.870000e-06	-5.571716e-06	-2.175888e-08	-3.926254e+01	-1.423592e+03
2.880000e-06	-5.681801e-06	-2.184981e-08	-4.003829e+01	-1.428224e+03
2.890000e-06	-5.789882e-06	-2.193555e-08	-4.079991e+01	-1.432377e+03
2.900000e-06	-5.895974e-06	-2.201787e-08	-4.154751e+01	-1.436595e+03
2.910000e-06	-5.999951e-06	-2.209830e-08	-4.228021e+01	-1.441297e+03
2.920000e-06	-6.101591e-06	-2.217750e-08	-4.299644e+01	-1.446659e+03
2.930000e-06	-6.200922e-06	-2.225412e-08	-4.369641e+01	-1.452578e+03
2.940000e-06	-6.298143e-06	-2.232829e-08	-4.438150e+01	-1.458724e+03
