# Temperatura_=_42.27
# Concentracion g/m^3_=_41000.0
# C_Vs_to_Am_M_A/Vsm_=_65563218390.804596
# pendiente_HvsI_1/m_=_3716.3
# ordenada_HvsI_A/m_=_1297.0
# frecuencia_Hz_=_302505.4138602311

Tiempo_(s)	Campo_(V.s)	Magnetizacion_(V.s)	Campo_(kA/m)	Magnetizacion_(A/m)
0.000000e+00	-8.005637e-06	-2.519539e-08	-5.685403e+01	-1.651482e+03
1.000000e-08	-8.001145e-06	-2.519405e-08	-5.682213e+01	-1.651263e+03
2.000000e-08	-7.994155e-06	-2.518654e-08	-5.677248e+01	-1.650562e+03
3.000000e-08	-7.984420e-06	-2.518037e-08	-5.670335e+01	-1.649463e+03
4.000000e-08	-7.971833e-06	-2.517022e-08	-5.661396e+01	-1.648143e+03
5.000000e-08	-7.956281e-06	-2.515156e-08	-5.650351e+01	-1.646815e+03
6.000000e-08	-7.937982e-06	-2.513041e-08	-5.637356e+01	-1.645670e+03
7.000000e-08	-7.917454e-06	-2.510851e-08	-5.622777e+01	-1.644814e+03
8.000000e-08	-7.894430e-06	-2.515923e-08	-5.606426e+01	-1.644241e+03
9.000000e-08	-7.868253e-06	-2.519834e-08	-5.587836e+01	-1.643843e+03
1.000000e-07	-7.838796e-06	-2.512242e-08	-5.566916e+01	-1.643442e+03
1.100000e-07	-7.806414e-06	-2.506805e-08	-5.543920e+01	-1.642852e+03
1.200000e-07	-7.771289e-06	-2.504608e-08	-5.518975e+01	-1.641936e+03
1.300000e-07	-7.733650e-06	-2.498125e-08	-5.492245e+01	-1.640644e+03
1.400000e-07	-7.693877e-06	-2.488676e-08	-5.463999e+01	-1.639026e+03
1.500000e-07	-7.651822e-06	-2.494850e-08	-5.434132e+01	-1.637209e+03
1.600000e-07	-7.607129e-06	-2.503028e-08	-5.402393e+01	-1.635346e+03
1.700000e-07	-7.559835e-06	-2.486014e-08	-5.368805e+01	-1.633565e+03
1.800000e-07	-7.509599e-06	-2.490205e-08	-5.333129e+01	-1.631917e+03
1.900000e-07	-7.456232e-06	-2.487620e-08	-5.295229e+01	-1.630358e+03
2.000000e-07	-7.400071e-06	-2.475824e-08	-5.255345e+01	-1.628758e+03
2.100000e-07	-7.341231e-06	-2.479210e-08	-5.213558e+01	-1.626943e+03
2.200000e-07	-7.279769e-06	-2.474821e-08	-5.169909e+01	-1.624750e+03
2.300000e-07	-7.215695e-06	-2.473898e-08	-5.124406e+01	-1.622083e+03
2.400000e-07	-7.148884e-06	-2.462172e-08	-5.076958e+01	-1.618945e+03
2.500000e-07	-7.079317e-06	-2.459137e-08	-5.027553e+01	-1.615445e+03
2.600000e-07	-7.006939e-06	-2.457413e-08	-4.976152e+01	-1.611761e+03
2.700000e-07	-6.931754e-06	-2.450320e-08	-4.922758e+01	-1.608091e+03
2.800000e-07	-6.853840e-06	-2.445888e-08	-4.867426e+01	-1.604587e+03
2.900000e-07	-6.773144e-06	-2.441387e-08	-4.810117e+01	-1.601307e+03
3.000000e-07	-6.689943e-06	-2.437392e-08	-4.751030e+01	-1.598193e+03
3.100000e-07	-6.604557e-06	-2.426484e-08	-4.690391e+01	-1.595089e+03
3.200000e-07	-6.516902e-06	-2.422372e-08	-4.628140e+01	-1.591786e+03
3.300000e-07	-6.426802e-06	-2.419327e-08	-4.564154e+01	-1.588088e+03
3.400000e-07	-6.334354e-06	-2.410153e-08	-4.498499e+01	-1.583869e+03
3.500000e-07	-6.239683e-06	-2.403600e-08	-4.431267e+01	-1.579121e+03
3.600000e-07	-6.142637e-06	-2.398124e-08	-4.362347e+01	-1.573949e+03
3.700000e-07	-6.043301e-06	-2.391024e-08	-4.291801e+01	-1.568543e+03
3.800000e-07	-5.941912e-06	-2.382747e-08	-4.219797e+01	-1.563112e+03
3.900000e-07	-5.838446e-06	-2.375960e-08	-4.146318e+01	-1.557820e+03
4.000000e-07	-5.732838e-06	-2.367425e-08	-4.071318e+01	-1.552726e+03
4.100000e-07	-5.625212e-06	-2.357775e-08	-3.994885e+01	-1.547763e+03
4.200000e-07	-5.515689e-06	-2.349503e-08	-3.917104e+01	-1.542749e+03
4.300000e-07	-5.404170e-06	-2.340940e-08	-3.837906e+01	-1.537449e+03
4.400000e-07	-5.290488e-06	-2.330909e-08	-3.757172e+01	-1.531639e+03
4.500000e-07	-5.174710e-06	-2.320280e-08	-3.674950e+01	-1.525180e+03
4.600000e-07	-5.057018e-06	-2.310073e-08	-3.591367e+01	-1.518063e+03
4.700000e-07	-4.937542e-06	-2.299543e-08	-3.506518e+01	-1.510412e+03
4.800000e-07	-4.816289e-06	-2.288078e-08	-3.420408e+01	-1.502444e+03
4.900000e-07	-4.693213e-06	-2.276965e-08	-3.333002e+01	-1.494400e+03
5.000000e-07	-4.568409e-06	-2.265663e-08	-3.244370e+01	-1.486462e+03
5.100000e-07	-4.441992e-06	-2.252938e-08	-3.154591e+01	-1.478688e+03
5.200000e-07	-4.314008e-06	-2.239441e-08	-3.063701e+01	-1.470981e+03
5.300000e-07	-4.184463e-06	-2.225653e-08	-2.971701e+01	-1.463113e+03
5.400000e-07	-4.053308e-06	-2.211706e-08	-2.878558e+01	-1.454783e+03
5.500000e-07	-3.920615e-06	-2.196843e-08	-2.784323e+01	-1.445710e+03
5.600000e-07	-3.786507e-06	-2.181659e-08	-2.689083e+01	-1.435716e+03
5.700000e-07	-3.651013e-06	-2.165616e-08	-2.592858e+01	-1.424785e+03
5.800000e-07	-3.514075e-06	-2.149249e-08	-2.495608e+01	-1.413063e+03
5.900000e-07	-3.375712e-06	-2.132006e-08	-2.397346e+01	-1.400818e+03
6.000000e-07	-3.235949e-06	-2.113859e-08	-2.298090e+01	-1.388344e+03
6.100000e-07	-3.094772e-06	-2.094674e-08	-2.197830e+01	-1.375861e+03
6.200000e-07	-2.952276e-06	-2.074579e-08	-2.096633e+01	-1.363426e+03
6.300000e-07	-2.808572e-06	-2.053850e-08	-1.994578e+01	-1.350899e+03
6.400000e-07	-2.663811e-06	-2.031871e-08	-1.891772e+01	-1.337965e+03
6.500000e-07	-2.518136e-06	-2.009341e-08	-1.788317e+01	-1.324213e+03
6.600000e-07	-2.371665e-06	-1.985833e-08	-1.684297e+01	-1.309256e+03
6.700000e-07	-2.224431e-06	-1.961202e-08	-1.579735e+01	-1.292841e+03
6.800000e-07	-2.076443e-06	-1.934842e-08	-1.474638e+01	-1.274932e+03
6.900000e-07	-1.927797e-06	-1.907080e-08	-1.369073e+01	-1.255712e+03
7.000000e-07	-1.778556e-06	-1.878016e-08	-1.263086e+01	-1.235520e+03
7.100000e-07	-1.628771e-06	-1.847329e-08	-1.156713e+01	-1.214725e+03
7.200000e-07	-1.478508e-06	-1.815111e-08	-1.049999e+01	-1.193573e+03
7.300000e-07	-1.327810e-06	-1.781136e-08	-9.429771e+00	-1.172064e+03
7.400000e-07	-1.176641e-06	-1.745008e-08	-8.356210e+00	-1.149888e+03
7.500000e-07	-1.024973e-06	-1.706342e-08	-7.279099e+00	-1.126461e+03
7.600000e-07	-8.728749e-07	-1.665469e-08	-6.198939e+00	-1.101044e+03
7.700000e-07	-7.204588e-07	-1.621831e-08	-5.116518e+00	-1.072924e+03
7.800000e-07	-5.677722e-07	-1.575033e-08	-4.032176e+00	-1.041599e+03
7.900000e-07	-4.148321e-07	-1.524419e-08	-2.946034e+00	-1.006896e+03
8.000000e-07	-2.617246e-07	-1.469585e-08	-1.858703e+00	-9.689807e+02
8.100000e-07	-1.085464e-07	-1.409856e-08	-7.708690e-01	-9.282306e+02
8.200000e-07	4.465725e-08	-1.344644e-08	3.171446e-01	-8.849786e+02
8.300000e-07	1.979128e-07	-1.273608e-08	1.405527e+00	-8.391952e+02
8.400000e-07	3.511097e-07	-1.195283e-08	2.493493e+00	-7.901871e+02
8.500000e-07	5.041883e-07	-1.108436e-08	3.580619e+00	-7.364114e+02
8.600000e-07	6.572199e-07	-1.011172e-08	4.667411e+00	-6.754835e+02
8.700000e-07	8.100975e-07	-9.013219e-09	5.753109e+00	-6.044202e+02
8.800000e-07	9.626548e-07	-7.750170e-09	6.836533e+00	-5.201033e+02
8.900000e-07	1.114862e-06	-6.275205e-09	7.917472e+00	-4.198911e+02
9.000000e-07	1.266690e-06	-4.530470e-09	8.995718e+00	-3.022623e+02
9.100000e-07	1.417967e-06	-2.452932e-09	1.007004e+01	-1.673514e+02
9.200000e-07	1.568725e-06	-1.016329e-10	1.114069e+01	-1.725099e+01
9.300000e-07	1.718963e-06	2.352607e-09	1.220765e+01	1.440083e+02
9.400000e-07	1.868598e-06	4.810599e-09	1.327032e+01	3.108207e+02
9.500000e-07	2.017630e-06	7.266135e-09	1.432870e+01	4.766618e+02
9.600000e-07	2.165927e-06	9.710788e-09	1.538187e+01	6.349261e+02
9.700000e-07	2.313386e-06	1.200256e-08	1.642909e+01	7.797911e+02
9.800000e-07	2.459981e-06	1.393800e-08	1.747017e+01	9.069472e+02
9.900000e-07	2.605603e-06	1.547835e-08	1.850434e+01	1.014062e+03
1.000000e-06	2.750202e-06	1.669944e-08	1.953125e+01	1.100903e+03
1.010000e-06	2.893729e-06	1.767408e-08	2.055054e+01	1.169111e+03
1.020000e-06	3.036102e-06	1.846309e-08	2.156164e+01	1.221693e+03
1.030000e-06	3.177317e-06	1.911153e-08	2.256451e+01	1.262360e+03
1.040000e-06	3.317334e-06	1.965603e-08	2.355887e+01	1.294836e+03
1.050000e-06	3.456071e-06	2.012007e-08	2.454415e+01	1.322290e+03
1.060000e-06	3.593446e-06	2.052195e-08	2.551975e+01	1.346977e+03
1.070000e-06	3.729467e-06	2.087282e-08	2.648574e+01	1.370135e+03
1.080000e-06	3.864121e-06	2.118254e-08	2.744202e+01	1.392112e+03
1.090000e-06	3.997333e-06	2.145875e-08	2.838806e+01	1.412659e+03
1.100000e-06	4.129075e-06	2.170813e-08	2.932366e+01	1.431285e+03
1.110000e-06	4.259352e-06	2.193851e-08	3.024885e+01	1.447585e+03
1.120000e-06	4.388165e-06	2.214874e-08	3.116365e+01	1.461455e+03
1.130000e-06	4.515470e-06	2.234229e-08	3.206773e+01	1.473161e+03
1.140000e-06	4.641249e-06	2.251993e-08	3.296099e+01	1.483269e+03
1.150000e-06	4.765473e-06	2.268700e-08	3.384320e+01	1.492484e+03
1.160000e-06	4.888037e-06	2.284538e-08	3.471361e+01	1.501446e+03
1.170000e-06	5.008838e-06	2.299405e-08	3.557151e+01	1.510569e+03
1.180000e-06	5.127759e-06	2.313056e-08	3.641606e+01	1.519957e+03
1.190000e-06	5.244740e-06	2.325704e-08	3.724683e+01	1.529421e+03
1.200000e-06	5.359709e-06	2.337468e-08	3.806331e+01	1.538579e+03
1.210000e-06	5.472577e-06	2.348539e-08	3.886487e+01	1.547006e+03
1.220000e-06	5.583421e-06	2.358951e-08	3.965206e+01	1.554386e+03
1.230000e-06	5.692342e-06	2.368841e-08	4.042559e+01	1.560613e+03
1.240000e-06	5.799266e-06	2.378362e-08	4.118494e+01	1.565826e+03
1.250000e-06	5.904013e-06	2.387209e-08	4.192882e+01	1.570359e+03
1.260000e-06	6.006553e-06	2.395581e-08	4.265704e+01	1.574635e+03
1.270000e-06	6.106955e-06	2.403538e-08	4.337007e+01	1.579042e+03
1.280000e-06	6.205077e-06	2.411194e-08	4.406690e+01	1.583819e+03
1.290000e-06	6.300832e-06	2.418341e-08	4.474693e+01	1.589001e+03
1.300000e-06	6.394318e-06	2.425048e-08	4.541084e+01	1.594422e+03
1.310000e-06	6.485572e-06	2.431644e-08	4.605891e+01	1.599784e+03
1.320000e-06	6.574484e-06	2.438099e-08	4.669034e+01	1.604757e+03
1.330000e-06	6.661034e-06	2.444507e-08	4.730500e+01	1.609089e+03
1.340000e-06	6.745266e-06	2.450684e-08	4.790319e+01	1.612680e+03
1.350000e-06	6.827064e-06	2.456325e-08	4.848410e+01	1.615607e+03
1.360000e-06	6.906333e-06	2.461326e-08	4.904705e+01	1.618095e+03
1.370000e-06	6.983083e-06	2.465882e-08	4.959211e+01	1.620439e+03
1.380000e-06	7.057187e-06	2.470358e-08	5.011837e+01	1.622909e+03
1.390000e-06	7.128629e-06	2.474763e-08	5.062574e+01	1.625671e+03
1.400000e-06	7.197633e-06	2.479127e-08	5.111579e+01	1.628736e+03
1.410000e-06	7.264153e-06	2.483237e-08	5.158819e+01	1.631967e+03
1.420000e-06	7.328060e-06	2.487069e-08	5.204205e+01	1.635124e+03
1.430000e-06	7.389455e-06	2.490660e-08	5.247806e+01	1.637950e+03
1.440000e-06	7.448336e-06	2.494061e-08	5.289622e+01	1.640250e+03
1.450000e-06	7.504572e-06	2.497037e-08	5.329559e+01	1.641955e+03
1.460000e-06	7.558051e-06	2.499659e-08	5.367538e+01	1.643138e+03
1.470000e-06	7.608422e-06	2.502192e-08	5.403311e+01	1.643993e+03
1.480000e-06	7.655745e-06	2.504374e-08	5.436918e+01	1.644770e+03
1.490000e-06	7.700432e-06	2.506450e-08	5.468654e+01	1.645696e+03
1.500000e-06	7.742392e-06	2.508645e-08	5.498453e+01	1.646909e+03
1.510000e-06	7.781515e-06	2.510760e-08	5.526237e+01	1.648414e+03
1.520000e-06	7.817924e-06	2.512571e-08	5.552094e+01	1.650087e+03
1.530000e-06	7.851574e-06	2.514273e-08	5.575991e+01	1.651719e+03
1.540000e-06	7.882414e-06	2.515906e-08	5.597893e+01	1.653082e+03
1.550000e-06	7.910493e-06	2.517205e-08	5.617834e+01	1.654005e+03
1.560000e-06	7.935676e-06	2.518110e-08	5.635719e+01	1.654425e+03
1.570000e-06	7.957972e-06	2.518843e-08	5.651552e+01	1.654408e+03
1.580000e-06	7.977503e-06	2.519686e-08	5.665423e+01	1.654127e+03
1.590000e-06	7.994111e-06	2.520577e-08	5.677217e+01	1.653805e+03
1.600000e-06	8.007713e-06	2.521469e-08	5.686877e+01	1.653649e+03
1.610000e-06	8.018209e-06	2.522170e-08	5.694331e+01	1.653780e+03
1.620000e-06	8.025633e-06	2.522466e-08	5.699603e+01	1.654203e+03
1.630000e-06	8.030264e-06	2.522620e-08	5.702892e+01	1.654801e+03
1.640000e-06	8.032035e-06	2.522772e-08	5.704150e+01	1.655374e+03
1.650000e-06	8.030992e-06	2.522385e-08	5.703410e+01	1.655705e+03
1.660000e-06	8.027360e-06	2.521044e-08	5.700830e+01	1.655623e+03
1.670000e-06	8.021017e-06	2.520484e-08	5.696325e+01	1.655057e+03
1.680000e-06	8.011932e-06	2.519966e-08	5.689873e+01	1.654058e+03
1.690000e-06	8.000163e-06	2.519221e-08	5.681515e+01	1.652779e+03
1.700000e-06	7.985563e-06	2.518886e-08	5.671147e+01	1.651433e+03
1.710000e-06	7.968333e-06	2.519069e-08	5.658910e+01	1.650221e+03
1.720000e-06	7.948924e-06	2.518201e-08	5.645127e+01	1.649277e+03
1.730000e-06	7.926979e-06	2.505422e-08	5.629542e+01	1.648631e+03
1.740000e-06	7.901699e-06	2.502868e-08	5.611589e+01	1.648200e+03
1.750000e-06	7.872665e-06	2.508604e-08	5.590970e+01	1.647820e+03
1.760000e-06	7.840257e-06	2.506370e-08	5.567954e+01	1.647302e+03
1.770000e-06	7.805389e-06	2.505617e-08	5.543192e+01	1.646489e+03
1.780000e-06	7.768262e-06	2.516654e-08	5.516825e+01	1.645303e+03
1.790000e-06	7.728952e-06	2.515088e-08	5.488908e+01	1.643769e+03
1.800000e-06	7.687596e-06	2.498103e-08	5.459538e+01	1.641993e+03
1.810000e-06	7.643659e-06	2.509303e-08	5.428335e+01	1.640129e+03
1.820000e-06	7.597016e-06	2.499170e-08	5.395211e+01	1.638316e+03
1.830000e-06	7.547714e-06	2.498178e-08	5.360197e+01	1.636630e+03
1.840000e-06	7.495347e-06	2.503625e-08	5.323008e+01	1.635056e+03
1.850000e-06	7.440043e-06	2.489207e-08	5.283732e+01	1.633485e+03
1.860000e-06	7.382098e-06	2.494496e-08	5.242581e+01	1.631750e+03
1.870000e-06	7.321607e-06	2.478169e-08	5.199622e+01	1.629679e+03
1.880000e-06	7.258324e-06	2.480752e-08	5.154680e+01	1.627152e+03
1.890000e-06	7.192108e-06	2.482612e-08	5.107655e+01	1.624143e+03
1.900000e-06	7.123190e-06	2.470390e-08	5.058711e+01	1.620730e+03
1.910000e-06	7.051452e-06	2.474497e-08	5.007765e+01	1.617079e+03
1.920000e-06	6.976992e-06	2.461749e-08	4.954885e+01	1.613387e+03
1.930000e-06	6.899764e-06	2.460365e-08	4.900039e+01	1.609825e+03
1.940000e-06	6.819782e-06	2.452085e-08	4.843238e+01	1.606482e+03
1.950000e-06	6.737353e-06	2.449250e-08	4.784700e+01	1.603333e+03
1.960000e-06	6.652422e-06	2.447148e-08	4.724384e+01	1.600247e+03
1.970000e-06	6.564972e-06	2.433951e-08	4.662279e+01	1.597024e+03
1.980000e-06	6.475180e-06	2.433628e-08	4.598511e+01	1.593455e+03
1.990000e-06	6.383256e-06	2.423641e-08	4.533229e+01	1.589392e+03
2.000000e-06	6.289010e-06	2.419260e-08	4.466297e+01	1.584790e+03
2.010000e-06	6.192389e-06	2.410479e-08	4.397679e+01	1.579723e+03
2.020000e-06	6.093630e-06	2.404269e-08	4.327544e+01	1.574362e+03
2.030000e-06	5.992676e-06	2.396466e-08	4.255849e+01	1.568919e+03
2.040000e-06	5.889503e-06	2.387856e-08	4.182577e+01	1.563576e+03
2.050000e-06	5.784278e-06	2.382370e-08	4.107850e+01	1.558427e+03
2.060000e-06	5.677182e-06	2.372489e-08	4.031792e+01	1.553441e+03
2.070000e-06	5.568091e-06	2.364358e-08	3.954319e+01	1.548465e+03
2.080000e-06	5.456921e-06	2.353587e-08	3.875369e+01	1.543272e+03
2.090000e-06	5.343745e-06	2.346551e-08	3.794994e+01	1.537627e+03
2.100000e-06	5.228642e-06	2.336423e-08	3.713250e+01	1.531361e+03
2.110000e-06	5.111483e-06	2.327535e-08	3.630047e+01	1.524426e+03
2.120000e-06	4.992268e-06	2.317005e-08	3.545383e+01	1.516908e+03
2.130000e-06	4.871230e-06	2.306130e-08	3.459426e+01	1.509006e+03
2.140000e-06	4.748494e-06	2.294076e-08	3.372262e+01	1.500961e+03
2.150000e-06	4.624077e-06	2.282295e-08	3.283903e+01	1.492981e+03
2.160000e-06	4.497899e-06	2.271247e-08	3.194295e+01	1.485164e+03
2.170000e-06	4.370016e-06	2.258729e-08	3.103476e+01	1.477457e+03
2.180000e-06	4.240504e-06	2.246051e-08	3.011500e+01	1.469664e+03
2.190000e-06	4.109561e-06	2.232139e-08	2.918507e+01	1.461498e+03
2.200000e-06	3.977127e-06	2.218348e-08	2.824456e+01	1.452662e+03
2.210000e-06	3.843100e-06	2.203074e-08	2.729273e+01	1.442941e+03
2.220000e-06	3.707594e-06	2.188123e-08	2.633041e+01	1.432269e+03
2.230000e-06	3.570770e-06	2.171902e-08	2.535872e+01	1.420750e+03
2.240000e-06	3.432646e-06	2.155218e-08	2.437779e+01	1.408625e+03
2.250000e-06	3.293191e-06	2.137385e-08	2.338741e+01	1.396189e+03
2.260000e-06	3.152401e-06	2.118927e-08	2.238756e+01	1.383694e+03
2.270000e-06	3.010320e-06	2.099841e-08	2.137854e+01	1.371251e+03
2.280000e-06	2.867053e-06	2.080140e-08	2.036109e+01	1.358777e+03
2.290000e-06	2.722711e-06	2.059577e-08	1.933601e+01	1.346000e+03
2.300000e-06	2.577404e-06	2.037463e-08	1.830408e+01	1.332525e+03
2.310000e-06	2.431241e-06	2.014188e-08	1.726606e+01	1.317946e+03
2.320000e-06	2.284418e-06	1.989866e-08	1.622336e+01	1.301962e+03
2.330000e-06	2.136841e-06	1.964473e-08	1.517531e+01	1.284470e+03
2.340000e-06	1.988434e-06	1.937629e-08	1.412136e+01	1.265595e+03
2.350000e-06	1.839288e-06	1.909526e-08	1.306217e+01	1.245643e+03
2.360000e-06	1.689547e-06	1.879871e-08	1.199874e+01	1.224987e+03
2.370000e-06	1.539276e-06	1.848385e-08	1.093155e+01	1.203925e+03
2.380000e-06	1.388490e-06	1.815168e-08	9.860705e+00	1.182536e+03
2.390000e-06	1.237261e-06	1.780017e-08	8.786721e+00	1.160600e+03
2.400000e-06	1.085661e-06	1.742671e-08	7.710089e+00	1.137602e+03
2.410000e-06	9.336692e-07	1.702788e-08	6.630685e+00	1.112832e+03
2.420000e-06	7.813064e-07	1.660155e-08	5.548642e+00	1.085549e+03
2.430000e-06	6.287347e-07	1.614504e-08	4.465116e+00	1.055173e+03
2.440000e-06	4.759890e-07	1.565174e-08	3.380354e+00	1.021432e+03
2.450000e-06	3.230884e-07	1.511931e-08	2.294493e+00	9.844020e+02
2.460000e-06	1.700519e-07	1.454263e-08	1.207666e+00	9.444207e+02
2.470000e-06	1.687673e-08	1.391597e-08	1.198543e-01	9.018650e+02
2.480000e-06	-1.363939e-07	1.323091e-08	-9.686353e-01	8.568421e+02
2.490000e-06	-2.896515e-07	1.247504e-08	-2.057032e+00	8.088743e+02
2.500000e-06	-4.428122e-07	1.163677e-08	-3.144741e+00	7.566702e+02
2.510000e-06	-5.958598e-07	1.070011e-08	-4.231647e+00	6.980714e+02
2.520000e-06	-7.487453e-07	9.645661e-09	-5.317401e+00	6.302273e+02
2.530000e-06	-9.013207e-07	8.445768e-09	-6.400954e+00	5.500002e+02
2.540000e-06	-1.053529e-06	7.054748e-09	-7.481902e+00	4.545457e+02
2.550000e-06	-1.205390e-06	5.417231e-09	-8.560376e+00	3.419602e+02
2.560000e-06	-1.356819e-06	3.463592e-09	-9.635788e+00	2.118622e+02
2.570000e-06	-1.507711e-06	1.173789e-09	-1.070739e+01	6.577163e+01
2.580000e-06	-1.658054e-06	-1.311214e-09	-1.177509e+01	-9.281230e+01
2.590000e-06	-1.807814e-06	-3.834306e-09	-1.283864e+01	-2.586779e+02
2.600000e-06	-1.956955e-06	-6.358209e-09	-1.389781e+01	-4.254832e+02
2.610000e-06	-2.105319e-06	-8.878324e-09	-1.495145e+01	-5.865557e+02
2.620000e-06	-2.252724e-06	-1.129602e-08	-1.599828e+01	-7.357659e+02
2.630000e-06	-2.399273e-06	-1.339951e-08	-1.703903e+01	-8.683111e+02
2.640000e-06	-2.545031e-06	-1.508978e-08	-1.807417e+01	-9.812660e+02
2.650000e-06	-2.689893e-06	-1.642628e-08	-1.910295e+01	-1.073806e+03
2.660000e-06	-2.833738e-06	-1.748849e-08	-2.012450e+01	-1.147078e+03
2.670000e-06	-2.976479e-06	-1.834348e-08	-2.113821e+01	-1.203763e+03
2.680000e-06	-3.118029e-06	-1.904524e-08	-2.214346e+01	-1.247443e+03
2.690000e-06	-3.258285e-06	-1.962944e-08	-2.313952e+01	-1.281903e+03
2.700000e-06	-3.397262e-06	-2.011870e-08	-2.412651e+01	-1.310517e+03
2.710000e-06	-3.534951e-06	-2.053618e-08	-2.510434e+01	-1.335823e+03
2.720000e-06	-3.671304e-06	-2.089937e-08	-2.607268e+01	-1.359348e+03
2.730000e-06	-3.806300e-06	-2.122118e-08	-2.703139e+01	-1.381668e+03
2.740000e-06	-3.939940e-06	-2.150856e-08	-2.798047e+01	-1.402669e+03
2.750000e-06	-4.072181e-06	-2.176617e-08	-2.891961e+01	-1.421894e+03
2.760000e-06	-4.202992e-06	-2.200112e-08	-2.984860e+01	-1.438884e+03
2.770000e-06	-4.332397e-06	-2.221725e-08	-3.076760e+01	-1.453437e+03
2.780000e-06	-4.460286e-06	-2.241644e-08	-3.167583e+01	-1.465713e+03
2.790000e-06	-4.586632e-06	-2.259813e-08	-3.257311e+01	-1.476209e+03
2.800000e-06	-4.711327e-06	-2.276581e-08	-3.345866e+01	-1.485607e+03
2.810000e-06	-4.834357e-06	-2.292329e-08	-3.433239e+01	-1.494586e+03
2.820000e-06	-4.955719e-06	-2.306971e-08	-3.519427e+01	-1.503637e+03
2.830000e-06	-5.075252e-06	-2.320667e-08	-3.604317e+01	-1.512957e+03
2.840000e-06	-5.192802e-06	-2.333461e-08	-3.687798e+01	-1.522432e+03
2.850000e-06	-5.308251e-06	-2.345459e-08	-3.769787e+01	-1.531722e+03
2.860000e-06	-5.421600e-06	-2.356666e-08	-3.850284e+01	-1.540397e+03
2.870000e-06	-5.532810e-06	-2.367064e-08	-3.929263e+01	-1.548097e+03
2.880000e-06	-5.641961e-06	-2.376768e-08	-4.006779e+01	-1.554649e+03
2.890000e-06	-5.749189e-06	-2.385849e-08	-4.082930e+01	-1.560124e+03
2.900000e-06	-5.854384e-06	-2.394601e-08	-4.157637e+01	-1.564809e+03
2.910000e-06	-5.957426e-06	-2.403075e-08	-4.230815e+01	-1.569115e+03
2.920000e-06	-6.058178e-06	-2.411097e-08	-4.302366e+01	-1.573451e+03
2.930000e-06	-6.156682e-06	-2.418574e-08	-4.372321e+01	-1.578109e+03
2.940000e-06	-6.253032e-06	-2.425715e-08	-4.440747e+01	-1.583184e+03
