# Temperatura_=_83.92
# Concentracion g/m^3_=_41000.0
# C_Vs_to_Am_M_A/Vsm_=_65563218390.804596
# pendiente_HvsI_1/m_=_3716.3
# ordenada_HvsI_A/m_=_1297.0
# frecuencia_Hz_=_302507.4264124302

Tiempo_(s)	Campo_(V.s)	Magnetizacion_(V.s)	Campo_(kA/m)	Magnetizacion_(A/m)
0.000000e+00	-8.018962e-06	-2.287729e-08	-5.685336e+01	-1.500387e+03
1.000000e-08	-8.014690e-06	-2.287442e-08	-5.682308e+01	-1.499374e+03
2.000000e-08	-8.007865e-06	-2.286710e-08	-5.677469e+01	-1.498008e+03
3.000000e-08	-7.998314e-06	-2.285853e-08	-5.670698e+01	-1.496572e+03
4.000000e-08	-7.985898e-06	-2.284738e-08	-5.661895e+01	-1.495336e+03
5.000000e-08	-7.970580e-06	-2.283216e-08	-5.651034e+01	-1.494471e+03
6.000000e-08	-7.952523e-06	-2.281679e-08	-5.638232e+01	-1.493996e+03
7.000000e-08	-7.932146e-06	-2.280343e-08	-5.623785e+01	-1.493780e+03
8.000000e-08	-7.909273e-06	-2.282461e-08	-5.607569e+01	-1.493581e+03
9.000000e-08	-7.883226e-06	-2.284667e-08	-5.589101e+01	-1.493131e+03
1.000000e-07	-7.853880e-06	-2.279753e-08	-5.568296e+01	-1.492217e+03
1.100000e-07	-7.821629e-06	-2.274077e-08	-5.545430e+01	-1.490760e+03
1.200000e-07	-7.786633e-06	-2.271035e-08	-5.520618e+01	-1.488829e+03
1.300000e-07	-7.749072e-06	-2.267051e-08	-5.493989e+01	-1.486629e+03
1.400000e-07	-7.709322e-06	-2.260653e-08	-5.465806e+01	-1.484426e+03
1.500000e-07	-7.667334e-06	-2.260095e-08	-5.436037e+01	-1.482463e+03
1.600000e-07	-7.622679e-06	-2.263513e-08	-5.404377e+01	-1.480878e+03
1.700000e-07	-7.575356e-06	-2.252968e-08	-5.370826e+01	-1.479655e+03
1.800000e-07	-7.525217e-06	-2.251769e-08	-5.335278e+01	-1.478622e+03
1.900000e-07	-7.471972e-06	-2.252641e-08	-5.297528e+01	-1.477499e+03
2.000000e-07	-7.415944e-06	-2.245090e-08	-5.257805e+01	-1.475986e+03
2.100000e-07	-7.357276e-06	-2.244753e-08	-5.216210e+01	-1.473850e+03
2.200000e-07	-7.295913e-06	-2.240234e-08	-5.172705e+01	-1.471002e+03
2.300000e-07	-7.231943e-06	-2.234819e-08	-5.127351e+01	-1.467522e+03
2.400000e-07	-7.165243e-06	-2.227678e-08	-5.080062e+01	-1.463641e+03
2.500000e-07	-7.095780e-06	-2.222887e-08	-5.030813e+01	-1.459663e+03
2.600000e-07	-7.023500e-06	-2.219664e-08	-4.979568e+01	-1.455878e+03
2.700000e-07	-6.948385e-06	-2.215109e-08	-4.926312e+01	-1.452467e+03
2.800000e-07	-6.870543e-06	-2.210704e-08	-4.871123e+01	-1.449450e+03
2.900000e-07	-6.789979e-06	-2.203833e-08	-4.814005e+01	-1.446675e+03
3.000000e-07	-6.706902e-06	-2.197721e-08	-4.755103e+01	-1.443866e+03
3.100000e-07	-6.621507e-06	-2.190668e-08	-4.694559e+01	-1.440715e+03
3.200000e-07	-6.533788e-06	-2.184329e-08	-4.632368e+01	-1.436971e+03
3.300000e-07	-6.443640e-06	-2.179510e-08	-4.568454e+01	-1.432526e+03
3.400000e-07	-6.351110e-06	-2.172776e-08	-4.502852e+01	-1.427449e+03
3.500000e-07	-6.256381e-06	-2.166153e-08	-4.435691e+01	-1.421961e+03
3.600000e-07	-6.159361e-06	-2.159229e-08	-4.366904e+01	-1.416372e+03
3.700000e-07	-6.060027e-06	-2.151650e-08	-4.296478e+01	-1.410974e+03
3.800000e-07	-5.958556e-06	-2.143912e-08	-4.224536e+01	-1.405949e+03
3.900000e-07	-5.854991e-06	-2.136233e-08	-4.151110e+01	-1.401309e+03
4.000000e-07	-5.749344e-06	-2.127931e-08	-4.076208e+01	-1.396881e+03
4.100000e-07	-5.641694e-06	-2.119118e-08	-3.999886e+01	-1.392363e+03
4.200000e-07	-5.532073e-06	-2.110918e-08	-3.922165e+01	-1.387412e+03
4.300000e-07	-5.420461e-06	-2.101814e-08	-3.843034e+01	-1.381754e+03
4.400000e-07	-5.306736e-06	-2.091993e-08	-3.762405e+01	-1.375274e+03
4.500000e-07	-5.190885e-06	-2.081996e-08	-3.680268e+01	-1.368051e+03
4.600000e-07	-5.073093e-06	-2.072020e-08	-3.596755e+01	-1.360338e+03
4.700000e-07	-4.953501e-06	-2.061625e-08	-3.511966e+01	-1.352485e+03
4.800000e-07	-4.832160e-06	-2.050607e-08	-3.425937e+01	-1.344822e+03
4.900000e-07	-4.709015e-06	-2.039391e-08	-3.338628e+01	-1.337549e+03
5.000000e-07	-4.584151e-06	-2.027426e-08	-3.250101e+01	-1.330668e+03
5.100000e-07	-4.457621e-06	-2.015002e-08	-3.160394e+01	-1.323965e+03
5.200000e-07	-4.329424e-06	-2.002424e-08	-3.069504e+01	-1.317071e+03
5.300000e-07	-4.199709e-06	-1.989617e-08	-2.977537e+01	-1.309571e+03
5.400000e-07	-4.068459e-06	-1.976194e-08	-2.884483e+01	-1.301130e+03
5.500000e-07	-3.935665e-06	-1.962012e-08	-2.790334e+01	-1.291600e+03
5.600000e-07	-3.801377e-06	-1.947452e-08	-2.695126e+01	-1.281071e+03
5.700000e-07	-3.665591e-06	-1.932350e-08	-2.598855e+01	-1.269844e+03
5.800000e-07	-3.528394e-06	-1.916800e-08	-2.501584e+01	-1.258340e+03
5.900000e-07	-3.389857e-06	-1.900511e-08	-2.403363e+01	-1.246956e+03
6.000000e-07	-3.249924e-06	-1.883400e-08	-2.304152e+01	-1.235932e+03
6.100000e-07	-3.108580e-06	-1.865163e-08	-2.203942e+01	-1.225254e+03
6.200000e-07	-2.965917e-06	-1.846076e-08	-2.102795e+01	-1.214639e+03
6.300000e-07	-2.822083e-06	-1.826673e-08	-2.000819e+01	-1.203601e+03
6.400000e-07	-2.677187e-06	-1.806840e-08	-1.898090e+01	-1.191593e+03
6.500000e-07	-2.531366e-06	-1.786200e-08	-1.794704e+01	-1.178169e+03
6.600000e-07	-2.384690e-06	-1.764318e-08	-1.690713e+01	-1.163127e+03
6.700000e-07	-2.237176e-06	-1.741185e-08	-1.586128e+01	-1.146578e+03
6.800000e-07	-2.089002e-06	-1.716563e-08	-1.481075e+01	-1.128910e+03
6.900000e-07	-1.940234e-06	-1.690688e-08	-1.375600e+01	-1.110665e+03
7.000000e-07	-1.790842e-06	-1.663728e-08	-1.269683e+01	-1.092344e+03
7.100000e-07	-1.640845e-06	-1.635665e-08	-1.163337e+01	-1.074209e+03
7.200000e-07	-1.490252e-06	-1.606087e-08	-1.056569e+01	-1.056144e+03
7.300000e-07	-1.339111e-06	-1.574505e-08	-9.494120e+00	-1.037626e+03
7.400000e-07	-1.187515e-06	-1.540899e-08	-8.419326e+00	-1.017820e+03
7.500000e-07	-1.035573e-06	-1.504864e-08	-7.342076e+00	-9.957800e+02
7.600000e-07	-8.833022e-07	-1.466288e-08	-6.262494e+00	-9.707097e+02
7.700000e-07	-7.306932e-07	-1.424838e-08	-5.180517e+00	-9.421829e+02
7.800000e-07	-5.778075e-07	-1.380151e-08	-4.096578e+00	-9.102577e+02
7.900000e-07	-4.246950e-07	-1.331742e-08	-3.011030e+00	-8.754228e+02
8.000000e-07	-2.714678e-07	-1.278737e-08	-1.924671e+00	-8.383641e+02
8.100000e-07	-1.181597e-07	-1.220283e-08	-8.377363e-01	-7.995957e+02
8.200000e-07	3.522775e-08	-1.155586e-08	2.497600e-01	-7.590441e+02
8.300000e-07	1.886196e-07	-1.083754e-08	1.337288e+00	-7.157059e+02
8.400000e-07	3.419367e-07	-1.003230e-08	2.424285e+00	-6.674943e+02
8.500000e-07	4.951810e-07	-9.118820e-09	3.510767e+00	-6.113563e+02
8.600000e-07	6.483519e-07	-8.069690e-09	4.596728e+00	-5.436821e+02
8.700000e-07	8.012897e-07	-6.846620e-09	5.681037e+00	-4.609546e+02
8.800000e-07	9.539358e-07	-5.394566e-09	6.763277e+00	-3.605201e+02
8.900000e-07	1.106338e-06	-3.649708e-09	7.843789e+00	-2.413187e+02
9.000000e-07	1.258418e-06	-1.567672e-09	8.922015e+00	-1.044048e+02
9.100000e-07	1.410041e-06	7.813023e-10	9.996999e+00	4.687498e+01
9.200000e-07	1.561195e-06	3.231747e-09	1.106866e+01	2.071165e+02
9.300000e-07	1.711819e-06	5.691624e-09	1.213657e+01	3.694832e+02
9.400000e-07	1.861835e-06	8.129031e-09	1.320016e+01	5.266158e+02
9.500000e-07	2.011201e-06	1.041117e-08	1.425914e+01	6.716579e+02
9.600000e-07	2.159801e-06	1.233849e-08	1.531270e+01	7.991971e+02
9.700000e-07	2.307499e-06	1.384831e-08	1.635986e+01	9.059447e+02
9.800000e-07	2.454277e-06	1.501191e-08	1.740049e+01	9.910274e+02
9.900000e-07	2.600086e-06	1.591543e-08	1.843426e+01	1.055855e+03
1.000000e-06	2.744956e-06	1.662803e-08	1.946137e+01	1.103610e+03
1.010000e-06	2.888904e-06	1.719982e-08	2.048194e+01	1.138492e+03
1.020000e-06	3.031701e-06	1.766838e-08	2.149435e+01	1.164884e+03
1.030000e-06	3.173291e-06	1.806242e-08	2.249820e+01	1.186607e+03
1.040000e-06	3.313626e-06	1.840245e-08	2.349316e+01	1.206421e+03
1.050000e-06	3.452677e-06	1.870008e-08	2.447902e+01	1.225822e+03
1.060000e-06	3.590391e-06	1.896403e-08	2.545539e+01	1.245149e+03
1.070000e-06	3.726673e-06	1.920230e-08	2.642161e+01	1.263922e+03
1.080000e-06	3.861538e-06	1.942134e-08	2.737779e+01	1.281292e+03
1.090000e-06	3.995043e-06	1.962224e-08	2.832432e+01	1.296487e+03
1.100000e-06	4.127173e-06	1.980831e-08	2.926110e+01	1.309122e+03
1.110000e-06	4.257772e-06	1.998385e-08	3.018704e+01	1.319335e+03
1.120000e-06	4.386828e-06	2.014714e-08	3.110203e+01	1.327731e+03
1.130000e-06	4.514397e-06	2.029810e-08	3.200647e+01	1.335180e+03
1.140000e-06	4.640477e-06	2.043676e-08	3.290036e+01	1.342544e+03
1.150000e-06	4.764995e-06	2.056818e-08	3.378317e+01	1.350442e+03
1.160000e-06	4.887806e-06	2.069537e-08	3.465389e+01	1.359094e+03
1.170000e-06	5.008835e-06	2.081584e-08	3.551197e+01	1.368306e+03
1.180000e-06	5.128060e-06	2.092850e-08	3.635726e+01	1.377580e+03
1.190000e-06	5.245383e-06	2.103618e-08	3.718906e+01	1.386301e+03
1.200000e-06	5.360695e-06	2.113878e-08	3.800661e+01	1.393949e+03
1.210000e-06	5.473925e-06	2.123638e-08	3.880939e+01	1.400262e+03
1.220000e-06	5.585094e-06	2.132950e-08	3.959757e+01	1.405310e+03
1.230000e-06	5.694322e-06	2.141762e-08	4.037198e+01	1.409461e+03
1.240000e-06	5.801577e-06	2.150146e-08	4.113240e+01	1.413254e+03
1.250000e-06	5.906690e-06	2.157964e-08	4.187764e+01	1.417232e+03
1.260000e-06	6.009625e-06	2.165526e-08	4.260743e+01	1.421779e+03
1.270000e-06	6.110397e-06	2.172977e-08	4.332189e+01	1.427015e+03
1.280000e-06	6.208840e-06	2.180314e-08	4.401985e+01	1.432778e+03
1.290000e-06	6.304883e-06	2.187300e-08	4.470077e+01	1.438692e+03
1.300000e-06	6.398671e-06	2.193914e-08	4.536572e+01	1.444297e+03
1.310000e-06	6.490238e-06	2.200390e-08	4.601492e+01	1.449198e+03
1.320000e-06	6.579423e-06	2.206650e-08	4.664723e+01	1.453184e+03
1.330000e-06	6.666196e-06	2.212636e-08	4.726244e+01	1.456290e+03
1.340000e-06	6.750687e-06	2.218290e-08	4.786147e+01	1.458772e+03
1.350000e-06	6.832804e-06	2.223489e-08	4.844366e+01	1.461019e+03
1.360000e-06	6.912426e-06	2.228431e-08	4.900818e+01	1.463429e+03
1.370000e-06	6.989570e-06	2.233242e-08	4.955511e+01	1.466282e+03
1.380000e-06	7.064137e-06	2.238035e-08	5.008379e+01	1.469659e+03
1.390000e-06	7.135980e-06	2.242715e-08	5.059314e+01	1.473423e+03
1.400000e-06	7.205289e-06	2.247269e-08	5.108453e+01	1.477272e+03
1.410000e-06	7.272102e-06	2.251594e-08	5.155823e+01	1.480837e+03
1.420000e-06	7.336238e-06	2.255457e-08	5.201295e+01	1.483804e+03
1.430000e-06	7.397873e-06	2.258859e-08	5.244993e+01	1.486007e+03
1.440000e-06	7.457077e-06	2.261974e-08	5.286968e+01	1.487482e+03
1.450000e-06	7.513626e-06	2.264947e-08	5.327060e+01	1.488448e+03
1.460000e-06	7.567358e-06	2.267855e-08	5.365155e+01	1.489233e+03
1.470000e-06	7.618018e-06	2.270645e-08	5.401073e+01	1.490173e+03
1.480000e-06	7.665587e-06	2.273196e-08	5.434798e+01	1.491506e+03
1.490000e-06	7.710482e-06	2.275637e-08	5.466629e+01	1.493297e+03
1.500000e-06	7.752696e-06	2.278054e-08	5.496557e+01	1.495428e+03
1.510000e-06	7.792054e-06	2.280158e-08	5.524462e+01	1.497636e+03
1.520000e-06	7.828695e-06	2.281873e-08	5.550440e+01	1.499600e+03
1.530000e-06	7.862597e-06	2.283557e-08	5.574476e+01	1.501044e+03
1.540000e-06	7.893645e-06	2.285175e-08	5.596489e+01	1.501826e+03
1.550000e-06	7.921960e-06	2.286462e-08	5.616563e+01	1.501979e+03
1.560000e-06	7.947416e-06	2.287352e-08	5.634611e+01	1.501699e+03
1.570000e-06	7.969903e-06	2.288191e-08	5.650554e+01	1.501285e+03
1.580000e-06	7.989650e-06	2.289230e-08	5.664555e+01	1.501041e+03
1.590000e-06	8.006555e-06	2.290271e-08	5.676540e+01	1.501182e+03
1.600000e-06	8.020417e-06	2.291153e-08	5.686368e+01	1.501771e+03
1.610000e-06	8.031120e-06	2.291878e-08	5.693956e+01	1.502699e+03
1.620000e-06	8.038707e-06	2.292321e-08	5.699336e+01	1.503719e+03
1.630000e-06	8.043511e-06	2.292477e-08	5.702741e+01	1.504532e+03
1.640000e-06	8.045498e-06	2.292418e-08	5.704150e+01	1.504874e+03
1.650000e-06	8.044616e-06	2.291820e-08	5.703525e+01	1.504600e+03
1.660000e-06	8.041105e-06	2.290758e-08	5.701036e+01	1.503729e+03
1.670000e-06	8.034894e-06	2.290131e-08	5.696632e+01	1.502435e+03
1.680000e-06	8.025974e-06	2.289547e-08	5.690308e+01	1.500987e+03
1.690000e-06	8.014344e-06	2.288976e-08	5.682062e+01	1.499670e+03
1.700000e-06	7.999875e-06	2.288464e-08	5.671804e+01	1.498688e+03
1.710000e-06	7.982805e-06	2.287815e-08	5.659702e+01	1.498108e+03
1.720000e-06	7.963457e-06	2.285714e-08	5.645984e+01	1.497837e+03
1.730000e-06	7.941615e-06	2.277715e-08	5.630499e+01	1.497660e+03
1.740000e-06	7.916537e-06	2.273110e-08	5.612719e+01	1.497305e+03
1.750000e-06	7.887719e-06	2.275550e-08	5.592287e+01	1.496538e+03
1.760000e-06	7.855494e-06	2.275299e-08	5.569440e+01	1.495233e+03
1.770000e-06	7.820688e-06	2.273596e-08	5.544763e+01	1.493421e+03
1.780000e-06	7.783604e-06	2.277829e-08	5.518471e+01	1.491270e+03
1.790000e-06	7.744371e-06	2.279133e-08	5.490655e+01	1.489038e+03
1.800000e-06	7.703124e-06	2.268816e-08	5.461412e+01	1.486985e+03
1.810000e-06	7.659350e-06	2.271595e-08	5.430377e+01	1.485285e+03
1.820000e-06	7.612788e-06	2.269047e-08	5.397365e+01	1.483969e+03
1.830000e-06	7.563496e-06	2.262410e-08	5.362417e+01	1.482905e+03
1.840000e-06	7.511242e-06	2.264377e-08	5.325370e+01	1.481838e+03
1.850000e-06	7.456084e-06	2.254968e-08	5.286264e+01	1.480462e+03
1.860000e-06	7.398215e-06	2.254700e-08	5.245236e+01	1.478519e+03
1.870000e-06	7.337675e-06	2.250534e-08	5.202313e+01	1.475872e+03
1.880000e-06	7.274325e-06	2.247210e-08	5.157399e+01	1.472554e+03
1.890000e-06	7.208125e-06	2.247489e-08	5.110464e+01	1.468756e+03
1.900000e-06	7.139235e-06	2.237588e-08	5.061622e+01	1.464772e+03
1.910000e-06	7.067534e-06	2.234229e-08	5.010787e+01	1.460906e+03
1.920000e-06	6.993054e-06	2.226299e-08	4.957982e+01	1.457377e+03
1.930000e-06	6.915849e-06	2.222698e-08	4.903245e+01	1.454254e+03
1.940000e-06	6.835959e-06	2.219267e-08	4.846603e+01	1.451432e+03
1.950000e-06	6.753546e-06	2.212084e-08	4.788173e+01	1.448664e+03
1.960000e-06	6.668601e-06	2.208278e-08	4.727949e+01	1.445639e+03
1.970000e-06	6.581192e-06	2.199323e-08	4.665977e+01	1.442081e+03
1.980000e-06	6.491415e-06	2.194195e-08	4.602326e+01	1.437836e+03
1.990000e-06	6.399347e-06	2.186791e-08	4.537052e+01	1.432920e+03
2.000000e-06	6.305020e-06	2.180316e-08	4.470175e+01	1.427519e+03
2.010000e-06	6.208470e-06	2.173483e-08	4.401722e+01	1.421925e+03
2.020000e-06	6.109757e-06	2.165579e-08	4.331736e+01	1.416445e+03
2.030000e-06	6.008806e-06	2.158306e-08	4.260163e+01	1.411303e+03
2.040000e-06	5.905601e-06	2.149788e-08	4.186992e+01	1.406562e+03
2.050000e-06	5.800309e-06	2.142330e-08	4.112341e+01	1.402099e+03
2.060000e-06	5.693157e-06	2.133076e-08	4.036372e+01	1.397640e+03
2.070000e-06	5.584094e-06	2.124640e-08	3.959048e+01	1.392843e+03
2.080000e-06	5.472941e-06	2.115586e-08	3.880242e+01	1.387406e+03
2.090000e-06	5.359652e-06	2.106923e-08	3.799922e+01	1.381160e+03
2.100000e-06	5.244357e-06	2.097325e-08	3.718179e+01	1.374128e+03
2.110000e-06	5.127107e-06	2.087799e-08	3.635050e+01	1.366521e+03
2.120000e-06	5.007859e-06	2.077700e-08	3.550505e+01	1.358669e+03
2.130000e-06	4.886722e-06	2.066744e-08	3.464621e+01	1.350922e+03
2.140000e-06	4.763795e-06	2.055737e-08	3.377467e+01	1.343527e+03
2.150000e-06	4.639199e-06	2.044339e-08	3.289130e+01	1.336545e+03
2.160000e-06	4.512935e-06	2.033002e-08	3.199610e+01	1.329822e+03
2.170000e-06	4.385020e-06	2.020815e-08	3.108920e+01	1.323024e+03
2.180000e-06	4.255542e-06	2.008444e-08	3.017123e+01	1.315736e+03
2.190000e-06	4.124502e-06	1.995584e-08	2.924217e+01	1.307587e+03
2.200000e-06	3.991913e-06	1.982310e-08	2.830213e+01	1.298368e+03
2.210000e-06	3.857845e-06	1.968184e-08	2.735161e+01	1.288100e+03
2.220000e-06	3.722273e-06	1.953620e-08	2.639042e+01	1.277031e+03
2.230000e-06	3.585256e-06	1.938086e-08	2.541899e+01	1.265560e+03
2.240000e-06	3.446871e-06	1.921716e-08	2.443785e+01	1.254106e+03
2.250000e-06	3.307162e-06	1.904790e-08	2.344734e+01	1.242967e+03
2.260000e-06	3.166198e-06	1.887577e-08	2.244792e+01	1.232207e+03
2.270000e-06	3.023990e-06	1.869898e-08	2.143968e+01	1.221614e+03
2.280000e-06	2.880604e-06	1.851146e-08	2.042309e+01	1.210752e+03
2.290000e-06	2.736123e-06	1.831572e-08	1.939875e+01	1.199072e+03
2.300000e-06	2.590748e-06	1.810841e-08	1.836805e+01	1.186085e+03
2.310000e-06	2.444500e-06	1.789256e-08	1.733118e+01	1.171507e+03
2.320000e-06	2.297357e-06	1.766909e-08	1.628796e+01	1.155357e+03
2.330000e-06	2.149410e-06	1.743513e-08	1.523903e+01	1.137956e+03
2.340000e-06	2.000809e-06	1.718821e-08	1.418547e+01	1.119817e+03
2.350000e-06	1.851603e-06	1.692429e-08	1.312762e+01	1.101476e+03
2.360000e-06	1.701756e-06	1.664399e-08	1.206523e+01	1.083279e+03
2.370000e-06	1.551366e-06	1.635000e-08	1.099898e+01	1.065229e+03
2.380000e-06	1.400482e-06	1.604243e-08	9.929231e+00	1.046914e+03
2.390000e-06	1.249086e-06	1.571610e-08	8.855851e+00	1.027571e+03
2.400000e-06	1.097247e-06	1.536614e-08	7.779336e+00	1.006260e+03
2.410000e-06	9.450538e-07	1.499032e-08	6.700305e+00	9.821170e+02
2.420000e-06	7.925245e-07	1.458579e-08	5.618893e+00	9.545920e+02
2.430000e-06	6.396888e-07	1.414894e-08	4.535308e+00	9.236023e+02
2.440000e-06	4.866514e-07	1.367565e-08	3.450294e+00	8.895298e+02
2.450000e-06	3.335194e-07	1.316074e-08	2.364608e+00	8.530371e+02
2.460000e-06	1.802506e-07	1.259619e-08	1.277952e+00	8.147299e+02
2.470000e-06	2.689226e-08	1.197498e-08	1.906625e-01	7.747430e+02
2.480000e-06	-1.264914e-07	1.128528e-08	-8.968068e-01	7.323647e+02
2.490000e-06	-2.798805e-07	1.051112e-08	-1.984316e+00	6.858184e+02
2.500000e-06	-4.331844e-07	9.637469e-09	-3.071220e+00	6.322980e+02
2.510000e-06	-5.864247e-07	8.641890e-09	-4.157673e+00	5.682952e+02
2.520000e-06	-7.395332e-07	7.487019e-09	-5.243191e+00	4.901904e+02
2.530000e-06	-8.923663e-07	6.124440e-09	-6.326757e+00	3.950036e+02
2.540000e-06	-1.044905e-06	4.496757e-09	-7.408234e+00	2.811541e+02
2.550000e-06	-1.197060e-06	2.538291e-09	-8.486995e+00	1.490573e+02
2.560000e-06	-1.348735e-06	2.473197e-10	-9.562351e+00	1.410427e+00
2.570000e-06	-1.499968e-06	-2.231826e-09	-1.063457e+01	-1.569223e+02
2.580000e-06	-1.650665e-06	-4.752569e-09	-1.170299e+01	-3.194304e+02
2.590000e-06	-1.800654e-06	-7.269206e-09	-1.276640e+01	-4.788008e+02
2.600000e-06	-1.949894e-06	-9.682309e-09	-1.382449e+01	-6.279299e+02
2.610000e-06	-2.098476e-06	-1.178382e-08	-1.487791e+01	-7.609091e+02
2.620000e-06	-2.246351e-06	-1.345696e-08	-1.592633e+01	-8.737945e+02
2.630000e-06	-2.393319e-06	-1.474847e-08	-1.696831e+01	-9.650181e+02
2.640000e-06	-2.539401e-06	-1.574620e-08	-1.800401e+01	-1.035374e+03
2.650000e-06	-2.684586e-06	-1.652802e-08	-1.903335e+01	-1.087609e+03
2.660000e-06	-2.828795e-06	-1.715131e-08	-2.005578e+01	-1.125716e+03
2.670000e-06	-2.971885e-06	-1.765710e-08	-2.107027e+01	-1.154109e+03
2.680000e-06	-3.113648e-06	-1.807690e-08	-2.207535e+01	-1.176833e+03
2.690000e-06	-3.254176e-06	-1.843289e-08	-2.307167e+01	-1.196986e+03
2.700000e-06	-3.393485e-06	-1.874063e-08	-2.405935e+01	-1.216426e+03
2.710000e-06	-3.531510e-06	-1.901411e-08	-2.503793e+01	-1.235797e+03
2.720000e-06	-3.668210e-06	-1.926217e-08	-2.600712e+01	-1.254808e+03
2.730000e-06	-3.803533e-06	-1.948893e-08	-2.696654e+01	-1.272671e+03
2.740000e-06	-3.937476e-06	-1.969501e-08	-2.791618e+01	-1.288550e+03
2.750000e-06	-4.070036e-06	-1.988158e-08	-2.885601e+01	-1.301926e+03
2.760000e-06	-4.201171e-06	-2.005402e-08	-2.978574e+01	-1.312788e+03
2.770000e-06	-4.330833e-06	-2.021558e-08	-3.070503e+01	-1.321624e+03
2.780000e-06	-4.459020e-06	-2.036686e-08	-3.161385e+01	-1.329251e+03
2.790000e-06	-4.585634e-06	-2.050958e-08	-3.251153e+01	-1.336564e+03
2.800000e-06	-4.710669e-06	-2.064473e-08	-3.339801e+01	-1.344269e+03
2.810000e-06	-4.834104e-06	-2.077331e-08	-3.427315e+01	-1.352710e+03
2.820000e-06	-4.955807e-06	-2.089382e-08	-3.513601e+01	-1.361804e+03
2.830000e-06	-5.075651e-06	-2.100597e-08	-3.598569e+01	-1.371124e+03
2.840000e-06	-5.193515e-06	-2.111191e-08	-3.682132e+01	-1.380065e+03
2.850000e-06	-5.309298e-06	-2.121149e-08	-3.764221e+01	-1.388061e+03
2.860000e-06	-5.422960e-06	-2.130514e-08	-3.844806e+01	-1.394765e+03
2.870000e-06	-5.534440e-06	-2.139428e-08	-3.923844e+01	-1.400150e+03
2.880000e-06	-5.643837e-06	-2.148016e-08	-4.001405e+01	-1.404508e+03
2.890000e-06	-5.751319e-06	-2.156260e-08	-4.077608e+01	-1.408346e+03
2.900000e-06	-5.856822e-06	-2.164143e-08	-4.152408e+01	-1.412224e+03
2.910000e-06	-5.960152e-06	-2.171703e-08	-4.225668e+01	-1.416586e+03
2.920000e-06	-6.061158e-06	-2.179054e-08	-4.297280e+01	-1.421631e+03
2.930000e-06	-6.159969e-06	-2.186322e-08	-4.367335e+01	-1.427277e+03
2.940000e-06	-6.256671e-06	-2.193302e-08	-4.435896e+01	-1.433195e+03
