# Temperatura_=_87.18
# Concentracion g/m^3_=_41000.0
# C_Vs_to_Am_M_A/Vsm_=_65563218390.804596
# pendiente_HvsI_1/m_=_3716.3
# ordenada_HvsI_A/m_=_1297.0
# frecuencia_Hz_=_302509.45366733405

Tiempo_(s)	Campo_(V.s)	Magnetizacion_(V.s)	Campo_(kA/m)	Magnetizacion_(A/m)
0.000000e+00	-8.027564e-06	-2.334030e-08	-5.685020e+01	-1.530048e+03
1.000000e-08	-8.023122e-06	-2.333605e-08	-5.681873e+01	-1.528994e+03
2.000000e-08	-8.016162e-06	-2.332887e-08	-5.676945e+01	-1.527632e+03
3.000000e-08	-8.006432e-06	-2.332276e-08	-5.670054e+01	-1.526236e+03
4.000000e-08	-7.993758e-06	-2.331314e-08	-5.661078e+01	-1.525052e+03
5.000000e-08	-7.978153e-06	-2.329590e-08	-5.650027e+01	-1.524224e+03
6.000000e-08	-7.959864e-06	-2.327685e-08	-5.637075e+01	-1.523746e+03
7.000000e-08	-7.939334e-06	-2.325807e-08	-5.622536e+01	-1.523469e+03
8.000000e-08	-7.916192e-06	-2.329975e-08	-5.606147e+01	-1.523149e+03
9.000000e-08	-7.889803e-06	-2.331549e-08	-5.587459e+01	-1.522532e+03
1.000000e-07	-7.860235e-06	-2.324602e-08	-5.566519e+01	-1.521432e+03
1.100000e-07	-7.827773e-06	-2.319533e-08	-5.543530e+01	-1.519799e+03
1.200000e-07	-7.792505e-06	-2.317178e-08	-5.518554e+01	-1.517733e+03
1.300000e-07	-7.754754e-06	-2.312702e-08	-5.491819e+01	-1.515454e+03
1.400000e-07	-7.714819e-06	-2.304701e-08	-5.463537e+01	-1.513233e+03
1.500000e-07	-7.672606e-06	-2.306627e-08	-5.433643e+01	-1.511304e+03
1.600000e-07	-7.627781e-06	-2.307910e-08	-5.401898e+01	-1.509784e+03
1.700000e-07	-7.580157e-06	-2.294844e-08	-5.368171e+01	-1.508633e+03
1.800000e-07	-7.529579e-06	-2.297497e-08	-5.332353e+01	-1.507656e+03
1.900000e-07	-7.475982e-06	-2.296998e-08	-5.294396e+01	-1.506561e+03
2.000000e-07	-7.419580e-06	-2.290933e-08	-5.254453e+01	-1.505041e+03
2.100000e-07	-7.360519e-06	-2.291556e-08	-5.212626e+01	-1.502867e+03
2.200000e-07	-7.298846e-06	-2.284720e-08	-5.168950e+01	-1.499958e+03
2.300000e-07	-7.234523e-06	-2.280646e-08	-5.123398e+01	-1.496402e+03
2.400000e-07	-7.167472e-06	-2.272206e-08	-5.075913e+01	-1.492430e+03
2.500000e-07	-7.097677e-06	-2.267659e-08	-5.026485e+01	-1.488343e+03
2.600000e-07	-7.025051e-06	-2.262866e-08	-4.975052e+01	-1.484420e+03
2.700000e-07	-6.949569e-06	-2.257887e-08	-4.921597e+01	-1.480834e+03
2.800000e-07	-6.871384e-06	-2.252590e-08	-4.866227e+01	-1.477594e+03
2.900000e-07	-6.790514e-06	-2.244533e-08	-4.808956e+01	-1.474551e+03
3.000000e-07	-6.707128e-06	-2.239651e-08	-4.749903e+01	-1.471441e+03
3.100000e-07	-6.621473e-06	-2.231983e-08	-4.689243e+01	-1.467974e+03
3.200000e-07	-6.533477e-06	-2.226771e-08	-4.626926e+01	-1.463924e+03
3.300000e-07	-6.443099e-06	-2.221063e-08	-4.562922e+01	-1.459204e+03
3.400000e-07	-6.350432e-06	-2.213721e-08	-4.497296e+01	-1.453895e+03
3.500000e-07	-6.255494e-06	-2.206740e-08	-4.430062e+01	-1.448218e+03
3.600000e-07	-6.158216e-06	-2.199093e-08	-4.361171e+01	-1.442462e+03
3.700000e-07	-6.058633e-06	-2.191121e-08	-4.290647e+01	-1.436896e+03
3.800000e-07	-5.956934e-06	-2.183107e-08	-4.218625e+01	-1.431671e+03
3.900000e-07	-5.853130e-06	-2.175676e-08	-4.145113e+01	-1.426773e+03
4.000000e-07	-5.747178e-06	-2.166247e-08	-4.070079e+01	-1.422016e+03
4.100000e-07	-5.639226e-06	-2.156869e-08	-3.993629e+01	-1.417105e+03
4.200000e-07	-5.529358e-06	-2.147877e-08	-3.915821e+01	-1.411718e+03
4.300000e-07	-5.417405e-06	-2.138200e-08	-3.836538e+01	-1.405614e+03
4.400000e-07	-5.303323e-06	-2.127550e-08	-3.755746e+01	-1.398709e+03
4.500000e-07	-5.187261e-06	-2.117309e-08	-3.673553e+01	-1.391110e+03
4.600000e-07	-5.069265e-06	-2.107019e-08	-3.589990e+01	-1.383078e+03
4.700000e-07	-4.949369e-06	-2.096046e-08	-3.505080e+01	-1.374952e+03
4.800000e-07	-4.827684e-06	-2.084695e-08	-3.418905e+01	-1.367035e+03
4.900000e-07	-4.704311e-06	-2.073056e-08	-3.331534e+01	-1.359493e+03
5.000000e-07	-4.579272e-06	-2.060986e-08	-3.242982e+01	-1.352294e+03
5.100000e-07	-4.452497e-06	-2.047918e-08	-3.153202e+01	-1.345204e+03
5.200000e-07	-4.324059e-06	-2.034605e-08	-3.062244e+01	-1.337853e+03
5.300000e-07	-4.194121e-06	-2.020742e-08	-2.970223e+01	-1.329844e+03
5.400000e-07	-4.062642e-06	-2.006363e-08	-2.877112e+01	-1.320876e+03
5.500000e-07	-3.929632e-06	-1.991161e-08	-2.782916e+01	-1.310840e+03
5.600000e-07	-3.795093e-06	-1.975979e-08	-2.687637e+01	-1.299859e+03
5.700000e-07	-3.658964e-06	-1.960489e-08	-2.591232e+01	-1.288248e+03
5.800000e-07	-3.521394e-06	-1.944613e-08	-2.493807e+01	-1.276418e+03
5.900000e-07	-3.382562e-06	-1.928044e-08	-2.395488e+01	-1.264738e+03
6.000000e-07	-3.242335e-06	-1.910435e-08	-2.296181e+01	-1.253405e+03
6.100000e-07	-3.100650e-06	-1.891615e-08	-2.195841e+01	-1.242360e+03
6.200000e-07	-2.957737e-06	-1.871740e-08	-2.094632e+01	-1.231288e+03
6.300000e-07	-2.813768e-06	-1.851453e-08	-1.992675e+01	-1.219697e+03
6.400000e-07	-2.668795e-06	-1.830284e-08	-1.890007e+01	-1.207055e+03
6.500000e-07	-2.522822e-06	-1.808464e-08	-1.786631e+01	-1.192955e+03
6.600000e-07	-2.375949e-06	-1.785568e-08	-1.682617e+01	-1.177241e+03
6.700000e-07	-2.228323e-06	-1.761481e-08	-1.578070e+01	-1.160066e+03
6.800000e-07	-2.079974e-06	-1.736141e-08	-1.473012e+01	-1.141840e+03
6.900000e-07	-1.930904e-06	-1.709665e-08	-1.367442e+01	-1.123096e+03
7.000000e-07	-1.781219e-06	-1.681997e-08	-1.261437e+01	-1.104300e+03
7.100000e-07	-1.630990e-06	-1.652786e-08	-1.155046e+01	-1.085660e+03
7.200000e-07	-1.480214e-06	-1.621950e-08	-1.048269e+01	-1.067004e+03
7.300000e-07	-1.328903e-06	-1.589106e-08	-9.411126e+00	-1.047770e+03
7.400000e-07	-1.177113e-06	-1.554151e-08	-8.336167e+00	-1.027110e+03
7.500000e-07	-1.024900e-06	-1.516834e-08	-7.258212e+00	-1.004107e+03
7.600000e-07	-8.723566e-07	-1.477126e-08	-6.177920e+00	-9.780196e+02
7.700000e-07	-7.195081e-07	-1.434587e-08	-5.095466e+00	-9.484899e+02
7.800000e-07	-5.664043e-07	-1.388723e-08	-4.011203e+00	-9.156307e+02
7.900000e-07	-4.131435e-07	-1.338767e-08	-2.925830e+00	-8.799461e+02
8.000000e-07	-2.597206e-07	-1.283730e-08	-1.839308e+00	-8.420797e+02
8.100000e-07	-1.061979e-07	-1.223065e-08	-7.520799e-01	-8.024403e+02
8.200000e-07	4.742578e-08	-1.156151e-08	3.358634e-01	-7.607997e+02
8.300000e-07	2.010935e-07	-1.081885e-08	1.424119e+00	-7.159791e+02
8.400000e-07	3.546766e-07	-9.985378e-09	2.511775e+00	-6.657363e+02
8.500000e-07	5.081665e-07	-9.040764e-09	3.598771e+00	-6.069268e+02
8.600000e-07	6.615531e-07	-7.953574e-09	4.685035e+00	-5.359471e+02
8.700000e-07	8.147233e-07	-6.682717e-09	5.769768e+00	-4.494024e+02
8.800000e-07	9.676430e-07	-5.169408e-09	6.852726e+00	-3.448713e+02
8.900000e-07	1.120290e-06	-3.345401e-09	7.933752e+00	-2.216060e+02
9.000000e-07	1.272558e-06	-1.181598e-09	9.012097e+00	-8.100511e+01
9.100000e-07	1.424442e-06	1.212161e-09	1.008772e+01	7.326780e+01
9.200000e-07	1.575850e-06	3.670306e-09	1.115997e+01	2.355734e+02
9.300000e-07	1.726650e-06	6.131717e-09	1.222792e+01	3.989629e+02
9.400000e-07	1.876811e-06	8.571906e-09	1.329134e+01	5.561054e+02
9.500000e-07	2.026278e-06	1.084706e-08	1.434984e+01	7.003039e+02
9.600000e-07	2.174910e-06	1.275132e-08	1.540244e+01	8.264040e+02
9.700000e-07	2.322569e-06	1.423515e-08	1.644814e+01	9.314223e+02
9.800000e-07	2.469317e-06	1.537711e-08	1.748739e+01	1.014783e+03
9.900000e-07	2.615207e-06	1.626225e-08	1.852057e+01	1.078137e+03
1.000000e-06	2.760158e-06	1.696077e-08	1.954709e+01	1.124818e+03
1.010000e-06	2.904112e-06	1.752286e-08	2.056655e+01	1.159072e+03
1.020000e-06	3.046985e-06	1.798556e-08	2.157837e+01	1.185240e+03
1.030000e-06	3.188683e-06	1.837857e-08	2.258185e+01	1.207035e+03
1.040000e-06	3.329041e-06	1.871953e-08	2.357585e+01	1.227084e+03
1.050000e-06	3.468034e-06	1.901941e-08	2.456018e+01	1.246758e+03
1.060000e-06	3.605758e-06	1.928567e-08	2.553552e+01	1.266307e+03
1.070000e-06	3.742119e-06	1.952685e-08	2.650121e+01	1.285214e+03
1.080000e-06	3.877049e-06	1.974704e-08	2.745677e+01	1.302642e+03
1.090000e-06	4.010653e-06	1.994938e-08	2.840294e+01	1.317860e+03
1.100000e-06	4.142791e-06	2.013700e-08	2.933872e+01	1.330541e+03
1.110000e-06	4.273372e-06	2.031396e-08	3.026348e+01	1.340874e+03
1.120000e-06	4.402514e-06	2.048007e-08	3.117805e+01	1.349486e+03
1.130000e-06	4.530079e-06	2.063619e-08	3.208145e+01	1.357241e+03
1.140000e-06	4.656062e-06	2.078164e-08	3.297365e+01	1.364971e+03
1.150000e-06	4.780490e-06	2.091876e-08	3.385483e+01	1.373248e+03
1.160000e-06	4.903237e-06	2.105027e-08	3.472411e+01	1.382249e+03
1.170000e-06	5.024302e-06	2.117442e-08	3.558147e+01	1.391751e+03
1.180000e-06	5.143591e-06	2.129090e-08	3.642626e+01	1.401246e+03
1.190000e-06	5.260902e-06	2.140112e-08	3.725705e+01	1.410133e+03
1.200000e-06	5.376219e-06	2.150622e-08	3.807370e+01	1.417922e+03
1.210000e-06	5.489514e-06	2.160473e-08	3.887605e+01	1.424384e+03
1.220000e-06	5.600732e-06	2.169988e-08	3.966368e+01	1.429615e+03
1.230000e-06	5.709936e-06	2.179308e-08	4.043705e+01	1.433992e+03
1.240000e-06	5.817089e-06	2.188320e-08	4.119589e+01	1.438047e+03
1.250000e-06	5.922124e-06	2.196581e-08	4.193974e+01	1.442299e+03
1.260000e-06	6.025000e-06	2.204469e-08	4.266829e+01	1.447103e+03
1.270000e-06	6.125681e-06	2.212134e-08	4.338130e+01	1.452553e+03
1.280000e-06	6.224088e-06	2.219579e-08	4.407821e+01	1.458475e+03
1.290000e-06	6.320098e-06	2.226631e-08	4.475814e+01	1.464499e+03
1.300000e-06	6.413786e-06	2.233328e-08	4.542162e+01	1.470186e+03
1.310000e-06	6.505187e-06	2.239913e-08	4.606891e+01	1.475172e+03
1.320000e-06	6.594246e-06	2.246326e-08	4.669962e+01	1.479281e+03
1.330000e-06	6.680975e-06	2.252718e-08	4.731382e+01	1.482569e+03
1.340000e-06	6.765406e-06	2.258932e-08	4.791175e+01	1.485298e+03
1.350000e-06	6.847432e-06	2.264764e-08	4.849265e+01	1.487845e+03
1.360000e-06	6.926952e-06	2.270156e-08	4.905580e+01	1.490581e+03
1.370000e-06	7.003935e-06	2.275096e-08	4.960098e+01	1.493752e+03
1.380000e-06	7.078279e-06	2.279822e-08	5.012748e+01	1.497405e+03
1.390000e-06	7.149980e-06	2.284488e-08	5.063526e+01	1.501386e+03
1.400000e-06	7.219177e-06	2.289193e-08	5.112530e+01	1.505388e+03
1.410000e-06	7.285838e-06	2.293775e-08	5.159738e+01	1.509057e+03
1.420000e-06	7.349829e-06	2.298003e-08	5.205056e+01	1.512102e+03
1.430000e-06	7.411333e-06	2.301869e-08	5.248612e+01	1.514389e+03
1.440000e-06	7.470376e-06	2.305407e-08	5.290426e+01	1.515975e+03
1.450000e-06	7.526725e-06	2.308703e-08	5.330332e+01	1.517091e+03
1.460000e-06	7.580243e-06	2.311844e-08	5.368233e+01	1.518061e+03
1.470000e-06	7.630709e-06	2.314667e-08	5.403972e+01	1.519204e+03
1.480000e-06	7.678104e-06	2.317116e-08	5.437536e+01	1.520731e+03
1.490000e-06	7.722769e-06	2.319477e-08	5.469168e+01	1.522684e+03
1.500000e-06	7.764731e-06	2.321835e-08	5.498884e+01	1.524930e+03
1.510000e-06	7.803849e-06	2.324043e-08	5.526587e+01	1.527201e+03
1.520000e-06	7.840297e-06	2.325985e-08	5.552399e+01	1.529189e+03
1.530000e-06	7.874002e-06	2.327897e-08	5.576268e+01	1.530640e+03
1.540000e-06	7.904850e-06	2.329701e-08	5.598115e+01	1.531434e+03
1.550000e-06	7.932995e-06	2.331150e-08	5.618047e+01	1.531624e+03
1.560000e-06	7.958237e-06	2.332219e-08	5.635923e+01	1.531415e+03
1.570000e-06	7.980513e-06	2.333049e-08	5.651698e+01	1.531099e+03
1.580000e-06	8.000043e-06	2.333929e-08	5.665530e+01	1.530963e+03
1.590000e-06	8.016675e-06	2.334824e-08	5.677308e+01	1.531199e+03
1.600000e-06	8.030273e-06	2.335717e-08	5.686938e+01	1.531846e+03
1.610000e-06	8.040764e-06	2.336520e-08	5.694367e+01	1.532780e+03
1.620000e-06	8.048193e-06	2.337059e-08	5.699629e+01	1.533756e+03
1.630000e-06	8.052821e-06	2.337357e-08	5.702906e+01	1.534487e+03
1.640000e-06	8.054577e-06	2.337366e-08	5.704150e+01	1.534731e+03
1.650000e-06	8.053465e-06	2.336551e-08	5.703362e+01	1.534372e+03
1.660000e-06	8.049746e-06	2.335269e-08	5.700728e+01	1.533449e+03
1.670000e-06	8.043326e-06	2.334486e-08	5.696182e+01	1.532146e+03
1.680000e-06	8.034177e-06	2.333800e-08	5.689703e+01	1.530730e+03
1.690000e-06	8.022327e-06	2.333071e-08	5.681310e+01	1.529463e+03
1.700000e-06	8.007649e-06	2.332587e-08	5.670916e+01	1.528526e+03
1.710000e-06	7.990384e-06	2.332158e-08	5.658689e+01	1.527955e+03
1.720000e-06	7.970827e-06	2.329782e-08	5.644839e+01	1.527641e+03
1.730000e-06	7.948666e-06	2.318966e-08	5.629145e+01	1.527359e+03
1.740000e-06	7.923229e-06	2.316766e-08	5.611131e+01	1.526848e+03
1.750000e-06	7.894117e-06	2.320300e-08	5.590514e+01	1.525897e+03
1.760000e-06	7.861642e-06	2.318161e-08	5.567515e+01	1.524411e+03
1.770000e-06	7.826681e-06	2.316362e-08	5.542756e+01	1.522448e+03
1.780000e-06	7.789391e-06	2.322654e-08	5.516348e+01	1.520201e+03
1.790000e-06	7.749899e-06	2.320809e-08	5.488381e+01	1.517934e+03
1.800000e-06	7.708406e-06	2.311244e-08	5.458996e+01	1.515902e+03
1.810000e-06	7.664308e-06	2.319238e-08	5.427766e+01	1.514260e+03
1.820000e-06	7.617516e-06	2.311225e-08	5.394629e+01	1.513016e+03
1.830000e-06	7.568074e-06	2.309353e-08	5.359614e+01	1.512015e+03
1.840000e-06	7.515549e-06	2.308455e-08	5.322417e+01	1.510984e+03
1.850000e-06	7.460084e-06	2.296896e-08	5.283137e+01	1.509612e+03
1.860000e-06	7.401860e-06	2.300863e-08	5.241904e+01	1.507639e+03
1.870000e-06	7.341002e-06	2.292481e-08	5.198805e+01	1.504937e+03
1.880000e-06	7.277414e-06	2.293402e-08	5.153773e+01	1.501545e+03
1.890000e-06	7.210977e-06	2.291845e-08	5.106723e+01	1.497661e+03
1.900000e-06	7.141797e-06	2.282247e-08	5.057731e+01	1.493574e+03
1.910000e-06	7.069741e-06	2.278908e-08	5.006701e+01	1.489579e+03
1.920000e-06	6.994975e-06	2.268852e-08	4.953753e+01	1.485886e+03
1.930000e-06	6.917436e-06	2.269015e-08	4.898841e+01	1.482554e+03
1.940000e-06	6.837180e-06	2.261749e-08	4.842004e+01	1.479476e+03
1.950000e-06	6.754467e-06	2.256241e-08	4.783428e+01	1.476414e+03
1.960000e-06	6.669214e-06	2.250559e-08	4.723053e+01	1.473074e+03
1.970000e-06	6.581490e-06	2.240794e-08	4.660928e+01	1.469205e+03
1.980000e-06	6.491438e-06	2.236742e-08	4.597154e+01	1.464675e+03
1.990000e-06	6.399132e-06	2.227662e-08	4.531785e+01	1.459515e+03
2.000000e-06	6.304499e-06	2.222533e-08	4.464767e+01	1.453912e+03
2.010000e-06	6.207589e-06	2.213915e-08	4.396136e+01	1.448147e+03
2.020000e-06	6.108521e-06	2.206150e-08	4.325977e+01	1.442504e+03
2.030000e-06	6.007280e-06	2.196680e-08	4.254280e+01	1.437173e+03
2.040000e-06	5.903844e-06	2.188531e-08	4.181027e+01	1.432191e+03
2.050000e-06	5.798339e-06	2.180849e-08	4.106311e+01	1.427420e+03
2.060000e-06	5.690904e-06	2.171386e-08	4.030226e+01	1.422585e+03
2.070000e-06	5.581468e-06	2.163204e-08	3.952725e+01	1.417361e+03
2.080000e-06	5.470021e-06	2.153734e-08	3.873800e+01	1.411477e+03
2.090000e-06	5.356519e-06	2.144922e-08	3.793419e+01	1.404797e+03
2.100000e-06	5.240951e-06	2.133690e-08	3.711575e+01	1.397373e+03
2.110000e-06	5.123412e-06	2.123416e-08	3.628336e+01	1.389430e+03
2.120000e-06	5.003948e-06	2.111848e-08	3.543733e+01	1.381294e+03
2.130000e-06	4.882614e-06	2.100501e-08	3.457806e+01	1.373291e+03
2.140000e-06	4.759480e-06	2.088465e-08	3.370604e+01	1.365634e+03
2.150000e-06	4.634587e-06	2.077072e-08	3.282156e+01	1.358352e+03
2.160000e-06	4.508024e-06	2.065466e-08	3.192526e+01	1.351262e+03
2.170000e-06	4.379835e-06	2.052999e-08	3.101744e+01	1.344026e+03
2.180000e-06	4.250081e-06	2.040195e-08	3.009854e+01	1.336240e+03
2.190000e-06	4.118754e-06	2.026875e-08	2.916850e+01	1.327565e+03
2.200000e-06	3.985830e-06	2.013036e-08	2.822714e+01	1.317830e+03
2.210000e-06	3.851469e-06	1.997839e-08	2.727562e+01	1.307092e+03
2.220000e-06	3.715639e-06	1.982198e-08	2.631368e+01	1.295619e+03
2.230000e-06	3.578350e-06	1.965463e-08	2.534142e+01	1.283808e+03
2.240000e-06	3.439656e-06	1.948500e-08	2.435921e+01	1.272054e+03
2.250000e-06	3.299578e-06	1.931098e-08	2.336720e+01	1.260614e+03
2.260000e-06	3.158268e-06	1.913629e-08	2.236646e+01	1.249506e+03
2.270000e-06	3.015843e-06	1.895461e-08	2.135782e+01	1.238485e+03
2.280000e-06	2.872273e-06	1.876388e-08	2.034108e+01	1.227096e+03
2.290000e-06	2.727572e-06	1.856081e-08	1.931632e+01	1.214802e+03
2.300000e-06	2.581947e-06	1.834439e-08	1.828502e+01	1.201146e+03
2.310000e-06	2.435487e-06	1.811918e-08	1.724781e+01	1.185890e+03
2.320000e-06	2.288110e-06	1.788693e-08	1.620411e+01	1.169098e+03
2.330000e-06	2.139859e-06	1.764374e-08	1.515421e+01	1.151118e+03
2.340000e-06	1.990910e-06	1.738551e-08	1.409938e+01	1.132466e+03
2.350000e-06	1.841332e-06	1.711216e-08	1.304008e+01	1.113647e+03
2.360000e-06	1.691203e-06	1.682350e-08	1.197689e+01	1.094960e+03
2.370000e-06	1.540626e-06	1.652068e-08	1.091052e+01	1.076349e+03
2.380000e-06	1.389656e-06	1.620480e-08	9.841371e+00	1.057356e+03
2.390000e-06	1.238265e-06	1.586856e-08	8.769239e+00	1.037196e+03
2.400000e-06	1.086385e-06	1.550568e-08	7.693643e+00	1.014949e+03
2.410000e-06	9.340811e-07	1.511496e-08	6.615044e+00	9.897973e+02
2.420000e-06	7.813872e-07	1.469550e-08	5.533686e+00	9.612585e+02
2.430000e-06	6.283084e-07	1.424534e-08	4.449601e+00	9.293112e+02
2.440000e-06	4.749984e-07	1.375847e-08	3.363879e+00	8.943662e+02
2.450000e-06	3.215909e-07	1.322863e-08	2.277466e+00	8.570617e+02
2.460000e-06	1.680255e-07	1.264902e-08	1.189935e+00	8.179155e+02
2.470000e-06	1.432428e-08	1.201145e-08	1.014428e-01	7.769194e+02
2.480000e-06	-1.394008e-07	1.130130e-08	-9.872187e-01	7.331884e+02
2.490000e-06	-2.931020e-07	1.050107e-08	-2.075712e+00	6.847805e+02
2.500000e-06	-4.467308e-07	9.593832e-09	-3.163691e+00	6.287754e+02
2.510000e-06	-6.002117e-07	8.555627e-09	-4.250624e+00	5.616408e+02
2.520000e-06	-7.535350e-07	7.351811e-09	-5.336439e+00	4.798455e+02
2.530000e-06	-9.066184e-07	5.933252e-09	-6.420557e+00	3.806125e+02
2.540000e-06	-1.059260e-06	4.234995e-09	-7.501547e+00	2.626549e+02
2.550000e-06	-1.211442e-06	2.189344e-09	-8.579282e+00	1.267286e+02
2.560000e-06	-1.363137e-06	-1.671026e-10	-9.653565e+00	-2.413835e+01
2.570000e-06	-1.514324e-06	-2.664744e-09	-1.072425e+01	-1.848182e+02
2.580000e-06	-1.665041e-06	-5.185209e-09	-1.179161e+01	-3.486501e+02
2.590000e-06	-1.815221e-06	-7.703303e-09	-1.285517e+01	-5.083090e+02
2.600000e-06	-1.964679e-06	-1.011256e-08	-1.391361e+01	-6.568157e+02
2.610000e-06	-2.113403e-06	-1.219479e-08	-1.496685e+01	-7.884960e+02
2.620000e-06	-2.261405e-06	-1.384101e-08	-1.601499e+01	-8.997035e+02
2.630000e-06	-2.408487e-06	-1.510766e-08	-1.705660e+01	-9.891756e+02
2.640000e-06	-2.554678e-06	-1.608473e-08	-1.809191e+01	-1.057968e+03
2.650000e-06	-2.699999e-06	-1.685003e-08	-1.912105e+01	-1.109005e+03
2.660000e-06	-2.844164e-06	-1.746225e-08	-2.014201e+01	-1.146358e+03
2.670000e-06	-2.987123e-06	-1.796111e-08	-2.115443e+01	-1.174420e+03
2.680000e-06	-3.128936e-06	-1.837695e-08	-2.215873e+01	-1.197145e+03
2.690000e-06	-3.269597e-06	-1.873346e-08	-2.315487e+01	-1.217500e+03
2.700000e-06	-3.408988e-06	-1.904433e-08	-2.414202e+01	-1.237213e+03
2.710000e-06	-3.547020e-06	-1.932093e-08	-2.511955e+01	-1.256827e+03
2.720000e-06	-3.683709e-06	-1.957183e-08	-2.608756e+01	-1.275999e+03
2.730000e-06	-3.818982e-06	-1.980211e-08	-2.704555e+01	-1.293938e+03
2.740000e-06	-3.952954e-06	-2.001289e-08	-2.799432e+01	-1.309844e+03
2.750000e-06	-4.085587e-06	-2.020356e-08	-2.893361e+01	-1.323255e+03
2.760000e-06	-4.216732e-06	-2.037688e-08	-2.986236e+01	-1.334213e+03
2.770000e-06	-4.346485e-06	-2.053809e-08	-3.078126e+01	-1.343235e+03
2.780000e-06	-4.474731e-06	-2.069226e-08	-3.168948e+01	-1.351146e+03
2.790000e-06	-4.601375e-06	-2.084063e-08	-3.258636e+01	-1.358811e+03
2.800000e-06	-4.726470e-06	-2.098182e-08	-3.347226e+01	-1.366897e+03
2.810000e-06	-4.849834e-06	-2.111572e-08	-3.434591e+01	-1.375700e+03
2.820000e-06	-4.971453e-06	-2.124154e-08	-3.520720e+01	-1.385103e+03
2.830000e-06	-5.091291e-06	-2.135778e-08	-3.605588e+01	-1.394662e+03
2.840000e-06	-5.209231e-06	-2.146537e-08	-3.689111e+01	-1.403784e+03
2.850000e-06	-5.325073e-06	-2.156700e-08	-3.771149e+01	-1.411925e+03
2.860000e-06	-5.438685e-06	-2.166611e-08	-3.851608e+01	-1.418772e+03
2.870000e-06	-5.550159e-06	-2.176206e-08	-3.930552e+01	-1.424329e+03
2.880000e-06	-5.659599e-06	-2.185275e-08	-4.008057e+01	-1.428901e+03
2.890000e-06	-5.767044e-06	-2.193842e-08	-4.084148e+01	-1.432993e+03
2.900000e-06	-5.872458e-06	-2.202026e-08	-4.158801e+01	-1.437145e+03
2.910000e-06	-5.975725e-06	-2.209970e-08	-4.231933e+01	-1.441771e+03
2.920000e-06	-6.076701e-06	-2.217605e-08	-4.303443e+01	-1.447045e+03
2.930000e-06	-6.175437e-06	-2.225006e-08	-4.373367e+01	-1.452865e+03
2.940000e-06	-6.271974e-06	-2.232157e-08	-4.441733e+01	-1.458906e+03
