# Temperatura_=_51.75
# Concentracion g/m^3_=_41000.0
# C_Vs_to_Am_M_A/Vsm_=_65563218390.804596
# pendiente_HvsI_1/m_=_3716.3
# ordenada_HvsI_A/m_=_1297.0
# frecuencia_Hz_=_302508.87512309756

Tiempo_(s)	Campo_(V.s)	Magnetizacion_(V.s)	Campo_(kA/m)	Magnetizacion_(A/m)
0.000000e+00	-8.006422e-06	-2.568063e-08	-5.685243e+01	-1.682501e+03
1.000000e-08	-8.001929e-06	-2.567690e-08	-5.682053e+01	-1.682213e+03
2.000000e-08	-7.994960e-06	-2.566960e-08	-5.677104e+01	-1.681508e+03
3.000000e-08	-7.985200e-06	-2.566227e-08	-5.670174e+01	-1.680471e+03
4.000000e-08	-7.972523e-06	-2.565088e-08	-5.661172e+01	-1.679257e+03
5.000000e-08	-7.956943e-06	-2.563332e-08	-5.650109e+01	-1.678045e+03
6.000000e-08	-7.938700e-06	-2.561568e-08	-5.637155e+01	-1.676979e+03
7.000000e-08	-7.918133e-06	-2.560475e-08	-5.622550e+01	-1.676133e+03
8.000000e-08	-7.894957e-06	-2.563770e-08	-5.606093e+01	-1.675489e+03
9.000000e-08	-7.868677e-06	-2.564527e-08	-5.587432e+01	-1.674948e+03
1.000000e-07	-7.839207e-06	-2.559618e-08	-5.566506e+01	-1.674366e+03
1.100000e-07	-7.806840e-06	-2.555817e-08	-5.543523e+01	-1.673603e+03
1.200000e-07	-7.771751e-06	-2.552452e-08	-5.518607e+01	-1.672562e+03
1.300000e-07	-7.734137e-06	-2.545747e-08	-5.491898e+01	-1.671224e+03
1.400000e-07	-7.694281e-06	-2.537922e-08	-5.463596e+01	-1.669641e+03
1.500000e-07	-7.652169e-06	-2.542823e-08	-5.433693e+01	-1.667915e+03
1.600000e-07	-7.607505e-06	-2.545837e-08	-5.401978e+01	-1.666160e+03
1.700000e-07	-7.560148e-06	-2.536501e-08	-5.368351e+01	-1.664450e+03
1.800000e-07	-7.509932e-06	-2.538919e-08	-5.332693e+01	-1.662795e+03
1.900000e-07	-7.456677e-06	-2.534574e-08	-5.294877e+01	-1.661130e+03
2.000000e-07	-7.400509e-06	-2.523648e-08	-5.254993e+01	-1.659331e+03
2.100000e-07	-7.341607e-06	-2.522523e-08	-5.213167e+01	-1.657258e+03
2.200000e-07	-7.280103e-06	-2.521889e-08	-5.169494e+01	-1.654796e+03
2.300000e-07	-7.215975e-06	-2.518555e-08	-5.123958e+01	-1.651903e+03
2.400000e-07	-7.149087e-06	-2.508634e-08	-5.076462e+01	-1.648621e+03
2.500000e-07	-7.079464e-06	-2.505697e-08	-5.027024e+01	-1.645073e+03
2.600000e-07	-7.007012e-06	-2.502471e-08	-4.975577e+01	-1.641424e+03
2.700000e-07	-6.931696e-06	-2.496128e-08	-4.922096e+01	-1.637832e+03
2.800000e-07	-6.853699e-06	-2.491622e-08	-4.866712e+01	-1.634398e+03
2.900000e-07	-6.773074e-06	-2.488171e-08	-4.809461e+01	-1.631131e+03
3.000000e-07	-6.689989e-06	-2.483143e-08	-4.750463e+01	-1.627941e+03
3.100000e-07	-6.604606e-06	-2.472874e-08	-4.689834e+01	-1.624667e+03
3.200000e-07	-6.516852e-06	-2.466954e-08	-4.627521e+01	-1.621121e+03
3.300000e-07	-6.426683e-06	-2.462095e-08	-4.563494e+01	-1.617149e+03
3.400000e-07	-6.334212e-06	-2.454680e-08	-4.497831e+01	-1.612675e+03
3.500000e-07	-6.239487e-06	-2.447291e-08	-4.430569e+01	-1.607730e+03
3.600000e-07	-6.142434e-06	-2.441451e-08	-4.361652e+01	-1.602438e+03
3.700000e-07	-6.043172e-06	-2.434428e-08	-4.291168e+01	-1.596981e+03
3.800000e-07	-5.941785e-06	-2.425755e-08	-4.219174e+01	-1.591539e+03
3.900000e-07	-5.838217e-06	-2.418013e-08	-4.145632e+01	-1.586228e+03
4.000000e-07	-5.732522e-06	-2.409440e-08	-4.070580e+01	-1.581064e+03
4.100000e-07	-5.624842e-06	-2.400206e-08	-3.994118e+01	-1.575949e+03
4.200000e-07	-5.515275e-06	-2.391149e-08	-3.916316e+01	-1.570701e+03
4.300000e-07	-5.403700e-06	-2.382766e-08	-3.837088e+01	-1.565104e+03
4.400000e-07	-5.290017e-06	-2.372684e-08	-3.756364e+01	-1.558978e+03
4.500000e-07	-5.174361e-06	-2.361816e-08	-3.674238e+01	-1.552231e+03
4.600000e-07	-5.056761e-06	-2.351040e-08	-3.590732e+01	-1.544892e+03
4.700000e-07	-4.937249e-06	-2.340253e-08	-3.505868e+01	-1.537099e+03
4.800000e-07	-4.815963e-06	-2.328808e-08	-3.419745e+01	-1.529058e+03
4.900000e-07	-4.692937e-06	-2.317149e-08	-3.332386e+01	-1.520972e+03
5.000000e-07	-4.568168e-06	-2.305420e-08	-3.243789e+01	-1.512969e+03
5.100000e-07	-4.441711e-06	-2.292389e-08	-3.153994e+01	-1.505057e+03
5.200000e-07	-4.313622e-06	-2.278568e-08	-3.063040e+01	-1.497110e+03
5.300000e-07	-4.183894e-06	-2.264178e-08	-2.970922e+01	-1.488896e+03
5.400000e-07	-4.052683e-06	-2.249985e-08	-2.877751e+01	-1.480141e+03
5.500000e-07	-3.920026e-06	-2.235065e-08	-2.783553e+01	-1.470614e+03
5.600000e-07	-3.785840e-06	-2.219395e-08	-2.688269e+01	-1.460193e+03
5.700000e-07	-3.650214e-06	-2.202745e-08	-2.591963e+01	-1.448903e+03
5.800000e-07	-3.513182e-06	-2.185399e-08	-2.494659e+01	-1.436910e+03
5.900000e-07	-3.374748e-06	-2.167442e-08	-2.396359e+01	-1.424463e+03
6.000000e-07	-3.234897e-06	-2.148769e-08	-2.297053e+01	-1.411810e+03
6.100000e-07	-3.093670e-06	-2.128984e-08	-2.196770e+01	-1.399110e+03
6.200000e-07	-2.951178e-06	-2.108033e-08	-2.095588e+01	-1.386364e+03
6.300000e-07	-2.807567e-06	-2.086592e-08	-1.993612e+01	-1.373400e+03
6.400000e-07	-2.662916e-06	-2.064185e-08	-1.890898e+01	-1.359906e+03
6.500000e-07	-2.517290e-06	-2.041125e-08	-1.787491e+01	-1.345511e+03
6.600000e-07	-2.370816e-06	-2.017199e-08	-1.683482e+01	-1.329892e+03
6.700000e-07	-2.223555e-06	-1.991958e-08	-1.578914e+01	-1.312867e+03
6.800000e-07	-2.075547e-06	-1.964818e-08	-1.473815e+01	-1.294444e+03
6.900000e-07	-1.926900e-06	-1.936000e-08	-1.368264e+01	-1.274809e+03
7.000000e-07	-1.777636e-06	-1.905875e-08	-1.262273e+01	-1.254256e+03
7.100000e-07	-1.627690e-06	-1.874066e-08	-1.155799e+01	-1.233064e+03
7.200000e-07	-1.477172e-06	-1.840635e-08	-1.048918e+01	-1.211371e+03
7.300000e-07	-1.326195e-06	-1.805330e-08	-9.417113e+00	-1.189077e+03
7.400000e-07	-1.174813e-06	-1.767913e-08	-8.342172e+00	-1.165819e+03
7.500000e-07	-1.023108e-06	-1.727867e-08	-7.264941e+00	-1.141021e+03
7.600000e-07	-8.710943e-07	-1.685123e-08	-6.185513e+00	-1.114019e+03
7.700000e-07	-7.188049e-07	-1.639542e-08	-5.104128e+00	-1.084219e+03
7.800000e-07	-5.662162e-07	-1.590461e-08	-4.020618e+00	-1.051246e+03
7.900000e-07	-4.133390e-07	-1.537385e-08	-2.935060e+00	-1.015010e+03
8.000000e-07	-2.602880e-07	-1.479871e-08	-1.848267e+00	-9.756733e+02
8.100000e-07	-1.071088e-07	-1.417305e-08	-7.605636e-01	-9.334899e+02
8.200000e-07	4.612223e-08	-1.348844e-08	3.275072e-01	-8.885571e+02
8.300000e-07	1.993696e-07	-1.273505e-08	1.415694e+00	-8.405281e+02
8.400000e-07	3.526082e-07	-1.190165e-08	2.503819e+00	-7.883761e+02
8.500000e-07	5.057636e-07	-1.097563e-08	3.591353e+00	-7.302895e+02
8.600000e-07	6.587345e-07	-9.935412e-09	4.677577e+00	-6.637591e+02
8.700000e-07	8.113959e-07	-8.752147e-09	5.761603e+00	-5.858819e+02
8.800000e-07	9.637536e-07	-7.383196e-09	6.843474e+00	-4.938460e+02
8.900000e-07	1.115792e-06	-5.773875e-09	7.923077e+00	-3.855195e+02
9.000000e-07	1.267444e-06	-3.864250e-09	8.999935e+00	-2.600262e+02
9.100000e-07	1.418727e-06	-1.645553e-09	1.007417e+01	-1.181815e+02
9.200000e-07	1.569618e-06	7.621231e-10	1.114563e+01	3.731919e+01
9.300000e-07	1.719969e-06	3.220020e-09	1.221325e+01	2.020224e+02
9.400000e-07	1.869641e-06	5.678504e-09	1.327605e+01	3.701498e+02
9.500000e-07	2.018671e-06	8.133612e-09	1.433428e+01	5.352787e+02
9.600000e-07	2.167039e-06	1.055555e-08	1.538783e+01	6.911521e+02
9.700000e-07	2.314544e-06	1.278928e-08	1.643524e+01	8.324713e+02
9.800000e-07	2.461119e-06	1.465769e-08	1.747604e+01	9.555263e+02
9.900000e-07	2.606731e-06	1.614064e-08	1.851002e+01	1.058555e+03
1.000000e-06	2.751303e-06	1.731380e-08	1.953660e+01	1.141773e+03
1.010000e-06	2.894863e-06	1.825274e-08	2.055600e+01	1.207095e+03
1.020000e-06	3.037299e-06	1.901382e-08	2.156742e+01	1.257612e+03
1.030000e-06	3.178586e-06	1.964066e-08	2.257067e+01	1.296946e+03
1.040000e-06	3.318632e-06	2.016503e-08	2.356512e+01	1.328627e+03
1.050000e-06	3.457283e-06	2.061209e-08	2.454966e+01	1.355587e+03
1.060000e-06	3.594559e-06	2.100146e-08	2.552444e+01	1.379869e+03
1.070000e-06	3.730524e-06	2.134444e-08	2.648991e+01	1.402570e+03
1.080000e-06	3.865144e-06	2.164901e-08	2.744582e+01	1.423988e+03
1.090000e-06	3.998371e-06	2.192099e-08	2.839185e+01	1.443907e+03
1.100000e-06	4.130207e-06	2.216705e-08	2.932800e+01	1.461922e+03
1.110000e-06	4.260480e-06	2.239310e-08	3.025305e+01	1.477728e+03
1.120000e-06	4.389195e-06	2.260094e-08	3.116703e+01	1.491294e+03
1.130000e-06	4.516434e-06	2.279187e-08	3.207054e+01	1.502910e+03
1.140000e-06	4.642183e-06	2.296873e-08	3.296346e+01	1.513113e+03
1.150000e-06	4.766446e-06	2.313492e-08	3.384584e+01	1.522530e+03
1.160000e-06	4.889015e-06	2.329166e-08	3.471618e+01	1.531708e+03
1.170000e-06	5.009770e-06	2.343797e-08	3.557364e+01	1.540978e+03
1.180000e-06	5.128742e-06	2.357409e-08	3.641845e+01	1.550395e+03
1.190000e-06	5.245820e-06	2.370122e-08	3.724980e+01	1.559764e+03
1.200000e-06	5.360840e-06	2.382195e-08	3.806654e+01	1.568742e+03
1.210000e-06	5.473734e-06	2.393589e-08	3.886819e+01	1.576969e+03
1.220000e-06	5.584603e-06	2.404167e-08	3.965545e+01	1.584199e+03
1.230000e-06	5.693571e-06	2.414034e-08	4.042922e+01	1.590376e+03
1.240000e-06	5.800535e-06	2.423332e-08	4.118875e+01	1.595657e+03
1.250000e-06	5.905304e-06	2.432073e-08	4.193270e+01	1.600354e+03
1.260000e-06	6.007940e-06	2.440440e-08	4.266151e+01	1.604841e+03
1.270000e-06	6.108463e-06	2.448446e-08	4.337530e+01	1.609442e+03
1.280000e-06	6.206612e-06	2.456117e-08	4.407224e+01	1.614343e+03
1.290000e-06	6.302320e-06	2.463405e-08	4.475185e+01	1.619549e+03
1.300000e-06	6.395794e-06	2.470315e-08	4.541560e+01	1.624898e+03
1.310000e-06	6.487064e-06	2.477095e-08	4.606369e+01	1.630125e+03
1.320000e-06	6.575994e-06	2.483719e-08	4.669517e+01	1.634957e+03
1.330000e-06	6.662508e-06	2.490078e-08	4.730949e+01	1.639195e+03
1.340000e-06	6.746733e-06	2.495972e-08	4.790756e+01	1.642781e+03
1.350000e-06	6.828591e-06	2.501281e-08	4.848883e+01	1.645802e+03
1.360000e-06	6.907910e-06	2.506262e-08	4.905206e+01	1.648463e+03
1.370000e-06	6.984739e-06	2.511064e-08	4.959761e+01	1.651017e+03
1.380000e-06	7.058909e-06	2.515733e-08	5.012428e+01	1.653679e+03
1.390000e-06	7.130404e-06	2.520370e-08	5.063196e+01	1.656569e+03
1.400000e-06	7.199488e-06	2.524943e-08	5.112251e+01	1.659672e+03
1.410000e-06	7.266038e-06	2.529166e-08	5.159507e+01	1.662851e+03
1.420000e-06	7.329869e-06	2.532921e-08	5.204833e+01	1.665901e+03
1.430000e-06	7.391196e-06	2.536304e-08	5.248380e+01	1.668610e+03
1.440000e-06	7.450036e-06	2.539513e-08	5.290162e+01	1.670833e+03
1.450000e-06	7.506226e-06	2.542501e-08	5.330062e+01	1.672535e+03
1.460000e-06	7.559662e-06	2.545266e-08	5.368005e+01	1.673805e+03
1.470000e-06	7.610039e-06	2.547761e-08	5.403778e+01	1.674818e+03
1.480000e-06	7.657348e-06	2.550011e-08	5.437371e+01	1.675787e+03
1.490000e-06	7.701926e-06	2.552279e-08	5.469025e+01	1.676892e+03
1.500000e-06	7.743805e-06	2.554583e-08	5.498763e+01	1.678225e+03
1.510000e-06	7.782857e-06	2.556859e-08	5.526493e+01	1.679766e+03
1.520000e-06	7.819210e-06	2.558959e-08	5.552307e+01	1.681392e+03
1.530000e-06	7.852819e-06	2.560836e-08	5.576172e+01	1.682918e+03
1.540000e-06	7.883590e-06	2.562276e-08	5.598022e+01	1.684158e+03
1.550000e-06	7.911625e-06	2.563229e-08	5.617929e+01	1.684985e+03
1.560000e-06	7.936791e-06	2.564067e-08	5.635799e+01	1.685370e+03
1.570000e-06	7.959032e-06	2.565021e-08	5.651592e+01	1.685393e+03
1.580000e-06	7.978490e-06	2.565998e-08	5.665409e+01	1.685215e+03
1.590000e-06	7.995077e-06	2.566853e-08	5.677187e+01	1.685029e+03
1.600000e-06	8.008696e-06	2.567706e-08	5.686858e+01	1.684997e+03
1.610000e-06	8.019221e-06	2.568479e-08	5.694332e+01	1.685206e+03
1.620000e-06	8.026674e-06	2.568992e-08	5.699624e+01	1.685637e+03
1.630000e-06	8.031295e-06	2.569321e-08	5.702905e+01	1.686174e+03
1.640000e-06	8.033048e-06	2.569443e-08	5.704150e+01	1.686641e+03
1.650000e-06	8.031967e-06	2.568834e-08	5.703382e+01	1.686857e+03
1.660000e-06	8.028252e-06	2.567881e-08	5.700744e+01	1.686691e+03
1.670000e-06	8.021813e-06	2.567241e-08	5.696172e+01	1.686100e+03
1.680000e-06	8.012680e-06	2.566621e-08	5.689687e+01	1.685145e+03
1.690000e-06	8.000824e-06	2.566013e-08	5.681268e+01	1.683964e+03
1.700000e-06	7.986137e-06	2.565756e-08	5.670839e+01	1.682734e+03
1.710000e-06	7.968913e-06	2.565425e-08	5.658609e+01	1.681615e+03
1.720000e-06	7.949455e-06	2.562688e-08	5.644792e+01	1.680704e+03
1.730000e-06	7.927470e-06	2.554795e-08	5.629180e+01	1.680010e+03
1.740000e-06	7.902187e-06	2.553317e-08	5.611227e+01	1.679453e+03
1.750000e-06	7.873167e-06	2.554872e-08	5.590621e+01	1.678899e+03
1.760000e-06	7.840769e-06	2.552741e-08	5.567615e+01	1.678199e+03
1.770000e-06	7.805811e-06	2.553342e-08	5.542792e+01	1.677244e+03
1.780000e-06	7.768651e-06	2.561084e-08	5.516405e+01	1.675988e+03
1.790000e-06	7.729410e-06	2.558195e-08	5.488541e+01	1.674466e+03
1.800000e-06	7.688055e-06	2.550617e-08	5.459175e+01	1.672770e+03
1.810000e-06	7.644048e-06	2.554373e-08	5.427926e+01	1.671013e+03
1.820000e-06	7.597337e-06	2.545868e-08	5.394758e+01	1.669285e+03
1.830000e-06	7.547894e-06	2.545476e-08	5.359649e+01	1.667619e+03
1.840000e-06	7.495415e-06	2.547072e-08	5.322385e+01	1.665967e+03
1.850000e-06	7.440067e-06	2.543010e-08	5.283082e+01	1.664222e+03
1.860000e-06	7.382021e-06	2.539803e-08	5.241865e+01	1.662240e+03
1.870000e-06	7.321403e-06	2.527572e-08	5.198821e+01	1.659898e+03
1.880000e-06	7.258045e-06	2.528898e-08	5.153832e+01	1.657127e+03
1.890000e-06	7.191818e-06	2.525538e-08	5.106805e+01	1.653947e+03
1.900000e-06	7.122857e-06	2.519171e-08	5.057836e+01	1.650460e+03
1.910000e-06	7.051035e-06	2.518399e-08	5.006836e+01	1.646822e+03
1.920000e-06	6.976467e-06	2.511118e-08	4.953887e+01	1.643201e+03
1.930000e-06	6.899207e-06	2.506214e-08	4.899026e+01	1.639716e+03
1.940000e-06	6.819259e-06	2.497907e-08	4.842256e+01	1.636406e+03
1.950000e-06	6.736828e-06	2.495269e-08	4.783723e+01	1.633209e+03
1.960000e-06	6.651858e-06	2.490588e-08	4.723387e+01	1.629978e+03
1.970000e-06	6.564404e-06	2.482583e-08	4.661288e+01	1.626528e+03
1.980000e-06	6.474589e-06	2.477800e-08	4.597511e+01	1.622689e+03
1.990000e-06	6.382525e-06	2.470798e-08	4.532138e+01	1.618361e+03
2.000000e-06	6.288221e-06	2.464075e-08	4.465174e+01	1.613541e+03
2.010000e-06	6.191656e-06	2.455350e-08	4.396604e+01	1.608332e+03
2.020000e-06	6.092913e-06	2.448813e-08	4.326489e+01	1.602903e+03
2.030000e-06	5.991992e-06	2.440942e-08	4.254826e+01	1.597441e+03
2.040000e-06	5.888914e-06	2.433743e-08	4.181631e+01	1.592086e+03
2.050000e-06	5.783786e-06	2.426440e-08	4.106982e+01	1.586885e+03
2.060000e-06	5.676662e-06	2.417640e-08	4.030914e+01	1.581772e+03
2.070000e-06	5.567468e-06	2.407498e-08	3.953377e+01	1.576584e+03
2.080000e-06	5.456258e-06	2.397484e-08	3.874409e+01	1.571108e+03
2.090000e-06	5.343031e-06	2.389155e-08	3.794008e+01	1.565147e+03
2.100000e-06	5.227827e-06	2.379828e-08	3.712204e+01	1.558580e+03
2.110000e-06	5.110683e-06	2.370365e-08	3.629022e+01	1.551400e+03
2.120000e-06	4.991573e-06	2.359691e-08	3.544443e+01	1.543718e+03
2.130000e-06	4.870546e-06	2.348325e-08	3.458503e+01	1.535727e+03
2.140000e-06	4.747720e-06	2.335853e-08	3.371286e+01	1.527635e+03
2.150000e-06	4.623202e-06	2.323938e-08	3.282868e+01	1.519602e+03
2.160000e-06	4.496979e-06	2.312324e-08	3.193239e+01	1.511672e+03
2.170000e-06	4.369108e-06	2.300068e-08	3.102440e+01	1.503755e+03
2.180000e-06	4.239615e-06	2.286640e-08	3.010488e+01	1.495645e+03
2.190000e-06	4.108543e-06	2.272620e-08	2.917416e+01	1.487071e+03
2.200000e-06	3.975943e-06	2.257941e-08	2.823259e+01	1.477784e+03
2.210000e-06	3.841913e-06	2.242703e-08	2.728086e+01	1.467622e+03
2.220000e-06	3.706447e-06	2.227131e-08	2.631894e+01	1.456569e+03
2.230000e-06	3.569582e-06	2.210808e-08	2.534708e+01	1.444754e+03
2.240000e-06	3.431382e-06	2.193642e-08	2.436574e+01	1.432410e+03
2.250000e-06	3.291878e-06	2.175288e-08	2.337515e+01	1.419794e+03
2.260000e-06	3.151094e-06	2.155916e-08	2.237546e+01	1.407100e+03
2.270000e-06	3.009087e-06	2.135982e-08	2.136708e+01	1.394377e+03
2.280000e-06	2.865926e-06	2.115930e-08	2.035052e+01	1.381503e+03
2.290000e-06	2.721678e-06	2.095020e-08	1.932624e+01	1.368197e+03
2.300000e-06	2.576430e-06	2.072527e-08	1.829485e+01	1.354097e+03
2.310000e-06	2.430216e-06	2.048493e-08	1.725661e+01	1.338854e+03
2.320000e-06	2.283173e-06	2.023399e-08	1.621247e+01	1.322239e+03
2.330000e-06	2.135391e-06	1.997210e-08	1.516310e+01	1.304203e+03
2.340000e-06	1.986937e-06	1.969561e-08	1.410895e+01	1.284887e+03
2.350000e-06	1.837862e-06	1.940453e-08	1.305039e+01	1.264565e+03
2.360000e-06	1.688197e-06	1.909690e-08	1.198764e+01	1.243534e+03
2.370000e-06	1.538015e-06	1.876934e-08	1.092122e+01	1.221982e+03
2.380000e-06	1.387334e-06	1.842332e-08	9.851257e+00	1.199886e+03
2.390000e-06	1.236167e-06	1.805845e-08	8.777844e+00	1.176955e+03
2.400000e-06	1.084585e-06	1.767326e-08	7.701476e+00	1.152664e+03
2.410000e-06	9.326107e-07	1.725762e-08	6.622332e+00	1.126358e+03
2.420000e-06	7.802998e-07	1.680997e-08	5.540795e+00	1.097408e+03
2.430000e-06	6.277255e-07	1.632980e-08	4.457387e+00	1.065364e+03
2.440000e-06	4.749268e-07	1.581152e-08	3.372385e+00	1.030053e+03
2.450000e-06	3.219583e-07	1.525279e-08	2.286178e+00	9.915758e+02
2.460000e-06	1.688802e-07	1.464662e-08	1.199193e+00	9.501836e+02
2.470000e-06	1.570116e-08	1.398634e-08	1.114917e-01	9.060472e+02
2.480000e-06	-1.375110e-07	1.326085e-08	-9.764457e-01	8.589746e+02
2.490000e-06	-2.907067e-07	1.245749e-08	-2.064266e+00	8.081512e+02
2.500000e-06	-4.438913e-07	1.156509e-08	-3.152007e+00	7.519896e+02
2.510000e-06	-5.969559e-07	1.056609e-08	-4.238896e+00	6.881587e+02
2.520000e-06	-7.497709e-07	9.435909e-09	-5.324013e+00	6.138251e+02
2.530000e-06	-9.023803e-07	8.138624e-09	-6.407671e+00	5.260932e+02
2.540000e-06	-1.054739e-06	6.625950e-09	-7.489550e+00	4.225755e+02
2.550000e-06	-1.206683e-06	4.833693e-09	-8.568476e+00	3.019839e+02
2.560000e-06	-1.358080e-06	2.708606e-09	-9.643526e+00	1.646189e+02
2.570000e-06	-1.508945e-06	3.162565e-10	-1.071480e+01	1.263688e+01
2.580000e-06	-1.659306e-06	-2.188001e-09	-1.178249e+01	-1.499796e+02
2.590000e-06	-1.809054e-06	-4.711045e-09	-1.284583e+01	-3.177703e+02
2.600000e-06	-1.958038e-06	-7.234356e-09	-1.390374e+01	-4.844171e+02
2.610000e-06	-2.106237e-06	-9.741902e-09	-1.495608e+01	-6.435312e+02
2.620000e-06	-2.253732e-06	-1.211117e-08	-1.600342e+01	-7.894660e+02
2.630000e-06	-2.400412e-06	-1.414694e-08	-1.704498e+01	-9.180077e+02
2.640000e-06	-2.546223e-06	-1.577785e-08	-1.808036e+01	-1.026820e+03
2.650000e-06	-2.691149e-06	-1.706440e-08	-1.910945e+01	-1.115569e+03
2.660000e-06	-2.835067e-06	-1.808604e-08	-2.013140e+01	-1.185729e+03
2.670000e-06	-2.977821e-06	-1.890877e-08	-2.114507e+01	-1.240116e+03
2.680000e-06	-3.119264e-06	-1.958467e-08	-2.214944e+01	-1.282270e+03
2.690000e-06	-3.259456e-06	-2.014789e-08	-2.314492e+01	-1.315805e+03
2.700000e-06	-3.398400e-06	-2.062242e-08	-2.413154e+01	-1.343863e+03
2.710000e-06	-3.536058e-06	-2.103090e-08	-2.510903e+01	-1.368758e+03
2.720000e-06	-3.672429e-06	-2.138940e-08	-2.607738e+01	-1.391849e+03
2.730000e-06	-3.807415e-06	-2.170520e-08	-2.703590e+01	-1.413640e+03
2.740000e-06	-3.941002e-06	-2.198492e-08	-2.798448e+01	-1.434026e+03
2.750000e-06	-4.073247e-06	-2.223690e-08	-2.892353e+01	-1.452625e+03
2.760000e-06	-4.204065e-06	-2.246797e-08	-2.985245e+01	-1.469079e+03
2.770000e-06	-4.333478e-06	-2.268218e-08	-3.077139e+01	-1.483269e+03
2.780000e-06	-4.461468e-06	-2.287991e-08	-3.168023e+01	-1.495396e+03
2.790000e-06	-4.587762e-06	-2.306189e-08	-3.257702e+01	-1.505939e+03
2.800000e-06	-4.712452e-06	-2.322980e-08	-3.346243e+01	-1.515518e+03
2.810000e-06	-4.835573e-06	-2.338502e-08	-3.433670e+01	-1.524719e+03
2.820000e-06	-4.956939e-06	-2.353007e-08	-3.519850e+01	-1.533945e+03
2.830000e-06	-5.076357e-06	-2.366700e-08	-3.604647e+01	-1.543330e+03
2.840000e-06	-5.193791e-06	-2.379610e-08	-3.688035e+01	-1.552743e+03
2.850000e-06	-5.309258e-06	-2.391564e-08	-3.770026e+01	-1.561871e+03
2.860000e-06	-5.422512e-06	-2.402652e-08	-3.850447e+01	-1.570345e+03
2.870000e-06	-5.533562e-06	-2.413113e-08	-3.929301e+01	-1.577874e+03
2.880000e-06	-5.642643e-06	-2.422969e-08	-4.006758e+01	-1.584345e+03
2.890000e-06	-5.749863e-06	-2.432147e-08	-4.082893e+01	-1.589855e+03
2.900000e-06	-5.855147e-06	-2.440770e-08	-4.157654e+01	-1.594681e+03
2.910000e-06	-5.958165e-06	-2.449051e-08	-4.230806e+01	-1.599191e+03
2.920000e-06	-6.058877e-06	-2.456988e-08	-4.302320e+01	-1.603733e+03
2.930000e-06	-6.157457e-06	-2.464513e-08	-4.372320e+01	-1.608540e+03
2.940000e-06	-6.253847e-06	-2.471681e-08	-4.440765e+01	-1.613669e+03
