# Temperatura_=_44.3
# Concentracion g/m^3_=_41000.0
# C_Vs_to_Am_M_A/Vsm_=_65563218390.804596
# pendiente_HvsI_1/m_=_3716.3
# ordenada_HvsI_A/m_=_1297.0
# frecuencia_Hz_=_302505.2930770437

Tiempo_(s)	Campo_(V.s)	Magnetizacion_(V.s)	Campo_(kA/m)	Magnetizacion_(A/m)
0.000000e+00	-7.994331e-06	-2.522302e-08	-5.685593e+01	-1.653017e+03
1.000000e-08	-7.990205e-06	-2.522062e-08	-5.682659e+01	-1.652853e+03
2.000000e-08	-7.983535e-06	-2.521360e-08	-5.677916e+01	-1.652216e+03
3.000000e-08	-7.974148e-06	-2.520689e-08	-5.671239e+01	-1.651175e+03
4.000000e-08	-7.961896e-06	-2.519896e-08	-5.662526e+01	-1.649892e+03
5.000000e-08	-7.946700e-06	-2.518471e-08	-5.651718e+01	-1.648576e+03
6.000000e-08	-7.928800e-06	-2.516740e-08	-5.638988e+01	-1.647412e+03
7.000000e-08	-7.908591e-06	-2.515319e-08	-5.624615e+01	-1.646514e+03
8.000000e-08	-7.885895e-06	-2.516938e-08	-5.608474e+01	-1.645891e+03
9.000000e-08	-7.860098e-06	-2.520195e-08	-5.590127e+01	-1.645449e+03
1.000000e-07	-7.830995e-06	-2.516272e-08	-5.569429e+01	-1.645025e+03
1.100000e-07	-7.798997e-06	-2.511050e-08	-5.546672e+01	-1.644444e+03
1.200000e-07	-7.764251e-06	-2.507880e-08	-5.521960e+01	-1.643569e+03
1.300000e-07	-7.726925e-06	-2.502143e-08	-5.495413e+01	-1.642349e+03
1.400000e-07	-7.687439e-06	-2.494991e-08	-5.467331e+01	-1.640821e+03
1.500000e-07	-7.645715e-06	-2.495670e-08	-5.437657e+01	-1.639100e+03
1.600000e-07	-7.601374e-06	-2.502858e-08	-5.406121e+01	-1.637329e+03
1.700000e-07	-7.554375e-06	-2.493251e-08	-5.372695e+01	-1.635626e+03
1.800000e-07	-7.504502e-06	-2.491968e-08	-5.337226e+01	-1.634038e+03
1.900000e-07	-7.451531e-06	-2.491037e-08	-5.299552e+01	-1.632522e+03
2.000000e-07	-7.395701e-06	-2.479657e-08	-5.259846e+01	-1.630954e+03
2.100000e-07	-7.337161e-06	-2.481212e-08	-5.218212e+01	-1.629164e+03
2.200000e-07	-7.275961e-06	-2.480928e-08	-5.174686e+01	-1.626993e+03
2.300000e-07	-7.212165e-06	-2.476287e-08	-5.129314e+01	-1.624346e+03
2.400000e-07	-7.145651e-06	-2.466795e-08	-5.082010e+01	-1.621225e+03
2.500000e-07	-7.076455e-06	-2.462013e-08	-5.032797e+01	-1.617734e+03
2.600000e-07	-7.004529e-06	-2.460605e-08	-4.981643e+01	-1.614052e+03
2.700000e-07	-6.929778e-06	-2.454233e-08	-4.928480e+01	-1.610373e+03
2.800000e-07	-6.852349e-06	-2.449479e-08	-4.873412e+01	-1.606854e+03
2.900000e-07	-6.772118e-06	-2.445898e-08	-4.816352e+01	-1.603558e+03
3.000000e-07	-6.689267e-06	-2.440613e-08	-4.757428e+01	-1.600436e+03
3.100000e-07	-6.604226e-06	-2.430561e-08	-4.696946e+01	-1.597338e+03
3.200000e-07	-6.516971e-06	-2.423834e-08	-4.634890e+01	-1.594059e+03
3.300000e-07	-6.427323e-06	-2.422308e-08	-4.571132e+01	-1.590401e+03
3.400000e-07	-6.335260e-06	-2.414889e-08	-4.505657e+01	-1.586237e+03
3.500000e-07	-6.240928e-06	-2.406687e-08	-4.438568e+01	-1.581546e+03
3.600000e-07	-6.144343e-06	-2.400980e-08	-4.369876e+01	-1.576425e+03
3.700000e-07	-6.045488e-06	-2.394715e-08	-4.299570e+01	-1.571055e+03
3.800000e-07	-5.944469e-06	-2.386542e-08	-4.227725e+01	-1.565641e+03
3.900000e-07	-5.841374e-06	-2.378795e-08	-4.154404e+01	-1.560350e+03
4.000000e-07	-5.736231e-06	-2.371112e-08	-4.079626e+01	-1.555247e+03
4.100000e-07	-5.628986e-06	-2.361330e-08	-4.003352e+01	-1.550274e+03
4.200000e-07	-5.519710e-06	-2.352710e-08	-3.925635e+01	-1.545262e+03
4.300000e-07	-5.408497e-06	-2.344026e-08	-3.846540e+01	-1.539982e+03
4.400000e-07	-5.295240e-06	-2.334369e-08	-3.765991e+01	-1.534211e+03
4.500000e-07	-5.179916e-06	-2.323652e-08	-3.683973e+01	-1.527809e+03
4.600000e-07	-5.062650e-06	-2.313432e-08	-3.600572e+01	-1.520756e+03
4.700000e-07	-4.943546e-06	-2.303105e-08	-3.515866e+01	-1.513166e+03
4.800000e-07	-4.822634e-06	-2.291667e-08	-3.429872e+01	-1.505248e+03
4.900000e-07	-4.699959e-06	-2.280574e-08	-3.342626e+01	-1.497238e+03
5.000000e-07	-4.575552e-06	-2.269367e-08	-3.254147e+01	-1.489319e+03
5.100000e-07	-4.449487e-06	-2.257039e-08	-3.164490e+01	-1.481555e+03
5.200000e-07	-4.321857e-06	-2.243248e-08	-3.073718e+01	-1.473860e+03
5.300000e-07	-4.192609e-06	-2.229611e-08	-2.981797e+01	-1.466015e+03
5.400000e-07	-4.061756e-06	-2.215817e-08	-2.888734e+01	-1.457725e+03
5.500000e-07	-3.929375e-06	-2.201209e-08	-2.794584e+01	-1.448709e+03
5.600000e-07	-3.795503e-06	-2.186021e-08	-2.699374e+01	-1.438782e+03
5.700000e-07	-3.660224e-06	-2.170130e-08	-2.603163e+01	-1.427917e+03
5.800000e-07	-3.523579e-06	-2.153661e-08	-2.505981e+01	-1.416250e+03
5.900000e-07	-3.385497e-06	-2.136338e-08	-2.407776e+01	-1.404041e+03
6.000000e-07	-3.246023e-06	-2.118393e-08	-2.308582e+01	-1.391583e+03
6.100000e-07	-3.105195e-06	-2.099122e-08	-2.208424e+01	-1.379104e+03
6.200000e-07	-2.963048e-06	-2.079002e-08	-2.107329e+01	-1.366679e+03
6.300000e-07	-2.819739e-06	-2.058236e-08	-2.005408e+01	-1.354186e+03
6.400000e-07	-2.675424e-06	-2.036549e-08	-1.902770e+01	-1.341324e+03
6.500000e-07	-2.530225e-06	-2.014089e-08	-1.799504e+01	-1.327693e+03
6.600000e-07	-2.384063e-06	-1.990864e-08	-1.695553e+01	-1.312899e+03
6.700000e-07	-2.237007e-06	-1.966504e-08	-1.590967e+01	-1.296677e+03
6.800000e-07	-2.089281e-06	-1.940286e-08	-1.485904e+01	-1.278964e+03
6.900000e-07	-1.940926e-06	-1.912594e-08	-1.380393e+01	-1.259915e+03
7.000000e-07	-1.791952e-06	-1.883562e-08	-1.274442e+01	-1.239848e+03
7.100000e-07	-1.642383e-06	-1.853102e-08	-1.168068e+01	-1.219121e+03
7.200000e-07	-1.492248e-06	-1.820888e-08	-1.061291e+01	-1.197986e+03
7.300000e-07	-1.341663e-06	-1.787010e-08	-9.541950e+00	-1.176465e+03
7.400000e-07	-1.190641e-06	-1.751195e-08	-8.467873e+00	-1.154280e+03
7.500000e-07	-1.039184e-06	-1.712889e-08	-7.390706e+00	-1.130881e+03
7.600000e-07	-8.873759e-07	-1.672082e-08	-6.311045e+00	-1.105555e+03
7.700000e-07	-7.352604e-07	-1.628575e-08	-5.229195e+00	-1.077598e+03
7.800000e-07	-5.829054e-07	-1.582070e-08	-4.145641e+00	-1.046495e+03
7.900000e-07	-4.303880e-07	-1.531783e-08	-3.060933e+00	-1.012043e+03
8.000000e-07	-2.776752e-07	-1.477311e-08	-1.974835e+00	-9.743711e+02
8.100000e-07	-1.248006e-07	-1.417889e-08	-8.875861e-01	-9.338178e+02
8.200000e-07	2.812134e-08	-1.352927e-08	1.999998e-01	-8.906953e+02
8.300000e-07	1.811138e-07	-1.282064e-08	1.288087e+00	-8.449790e+02
8.400000e-07	3.340811e-07	-1.204107e-08	2.375995e+00	-7.960109e+02
8.500000e-07	4.869171e-07	-1.117530e-08	3.462970e+00	-7.423088e+02
8.600000e-07	6.396262e-07	-1.020680e-08	4.549042e+00	-6.815619e+02
8.700000e-07	7.921503e-07	-9.113600e-09	5.633798e+00	-6.108548e+02
8.800000e-07	9.444313e-07	-7.856988e-09	6.716826e+00	-5.271110e+02
8.900000e-07	1.096388e-06	-6.390009e-09	7.797544e+00	-4.276872e+02
9.000000e-07	1.247936e-06	-4.655514e-09	8.875357e+00	-3.110082e+02
9.100000e-07	1.398998e-06	-2.598629e-09	9.949717e+00	-1.771049e+02
9.200000e-07	1.549610e-06	-2.672312e-10	1.102087e+01	-2.792988e+01
9.300000e-07	1.699740e-06	2.181026e-09	1.208861e+01	1.326388e+02
9.400000e-07	1.849303e-06	4.640102e-09	1.315230e+01	2.991323e+02
9.500000e-07	1.998209e-06	7.096185e-09	1.421133e+01	4.651211e+02
9.600000e-07	2.146352e-06	9.539319e-09	1.526492e+01	6.240320e+02
9.700000e-07	2.293698e-06	1.184502e-08	1.631285e+01	7.700047e+02
9.800000e-07	2.440176e-06	1.381530e-08	1.735461e+01	8.986267e+02
9.900000e-07	2.585650e-06	1.539150e-08	1.838922e+01	1.007416e+03
1.000000e-06	2.730073e-06	1.663923e-08	1.941637e+01	1.095969e+03
1.010000e-06	2.873464e-06	1.763400e-08	2.043617e+01	1.165766e+03
1.020000e-06	3.015751e-06	1.843783e-08	2.144812e+01	1.219689e+03
1.030000e-06	3.156896e-06	1.909666e-08	2.245194e+01	1.261376e+03
1.040000e-06	3.296828e-06	1.964923e-08	2.344714e+01	1.294537e+03
1.050000e-06	3.435437e-06	2.011888e-08	2.443294e+01	1.322379e+03
1.060000e-06	3.572694e-06	2.052495e-08	2.540911e+01	1.347235e+03
1.070000e-06	3.708624e-06	2.087863e-08	2.637585e+01	1.370433e+03
1.080000e-06	3.843258e-06	2.119046e-08	2.733338e+01	1.392406e+03
1.090000e-06	3.976512e-06	2.146842e-08	2.828108e+01	1.412968e+03
1.100000e-06	4.108302e-06	2.171967e-08	2.921837e+01	1.431660e+03
1.110000e-06	4.238619e-06	2.195054e-08	3.014520e+01	1.448078e+03
1.120000e-06	4.367446e-06	2.216157e-08	3.106141e+01	1.462095e+03
1.130000e-06	4.494715e-06	2.235485e-08	3.196655e+01	1.473944e+03
1.140000e-06	4.620464e-06	2.253243e-08	3.286089e+01	1.484162e+03
1.150000e-06	4.744666e-06	2.269894e-08	3.374422e+01	1.493432e+03
1.160000e-06	4.867186e-06	2.285645e-08	3.461558e+01	1.502394e+03
1.170000e-06	4.987987e-06	2.300454e-08	3.547472e+01	1.511478e+03
1.180000e-06	5.106967e-06	2.314087e-08	3.632091e+01	1.520812e+03
1.190000e-06	5.223999e-06	2.326933e-08	3.715325e+01	1.530235e+03
1.200000e-06	5.339019e-06	2.338959e-08	3.797127e+01	1.539382e+03
1.210000e-06	5.451990e-06	2.350072e-08	3.877473e+01	1.547838e+03
1.220000e-06	5.562919e-06	2.360432e-08	3.956366e+01	1.555278e+03
1.230000e-06	5.671901e-06	2.370243e-08	4.033874e+01	1.561581e+03
1.240000e-06	5.778896e-06	2.379580e-08	4.109969e+01	1.566863e+03
1.250000e-06	5.883754e-06	2.388350e-08	4.184544e+01	1.571439e+03
1.260000e-06	5.986455e-06	2.396704e-08	4.257585e+01	1.575722e+03
1.270000e-06	6.087006e-06	2.404750e-08	4.329098e+01	1.580099e+03
1.280000e-06	6.185300e-06	2.412440e-08	4.399005e+01	1.584823e+03
1.290000e-06	6.281232e-06	2.419624e-08	4.467232e+01	1.589946e+03
1.300000e-06	6.374855e-06	2.426463e-08	4.533817e+01	1.595321e+03
1.310000e-06	6.466209e-06	2.433128e-08	4.598789e+01	1.600665e+03
1.320000e-06	6.555227e-06	2.439570e-08	4.662098e+01	1.605653e+03
1.330000e-06	6.641889e-06	2.445772e-08	4.723732e+01	1.610028e+03
1.340000e-06	6.726208e-06	2.451669e-08	4.783700e+01	1.613676e+03
1.350000e-06	6.808138e-06	2.457205e-08	4.841969e+01	1.616655e+03
1.360000e-06	6.887624e-06	2.462381e-08	4.898500e+01	1.619176e+03
1.370000e-06	6.964616e-06	2.467291e-08	4.953257e+01	1.621524e+03
1.380000e-06	7.038995e-06	2.471939e-08	5.006156e+01	1.623970e+03
1.390000e-06	7.110757e-06	2.476390e-08	5.057193e+01	1.626689e+03
1.400000e-06	7.179999e-06	2.480753e-08	5.106438e+01	1.629708e+03
1.410000e-06	7.246699e-06	2.484857e-08	5.153876e+01	1.632906e+03
1.420000e-06	7.310799e-06	2.488573e-08	5.199463e+01	1.636059e+03
1.430000e-06	7.372389e-06	2.491967e-08	5.243267e+01	1.638914e+03
1.440000e-06	7.431474e-06	2.495226e-08	5.285288e+01	1.641272e+03
1.450000e-06	7.487925e-06	2.498251e-08	5.325436e+01	1.643052e+03
1.460000e-06	7.541570e-06	2.501002e-08	5.363589e+01	1.644313e+03
1.470000e-06	7.592155e-06	2.503414e-08	5.399565e+01	1.645233e+03
1.480000e-06	7.639757e-06	2.505597e-08	5.433420e+01	1.646050e+03
1.490000e-06	7.684647e-06	2.507761e-08	5.465345e+01	1.646992e+03
1.500000e-06	7.726795e-06	2.509961e-08	5.495321e+01	1.648199e+03
1.510000e-06	7.766123e-06	2.512149e-08	5.523291e+01	1.649690e+03
1.520000e-06	7.802791e-06	2.514107e-08	5.549370e+01	1.651353e+03
1.530000e-06	7.836694e-06	2.515786e-08	5.573482e+01	1.652992e+03
1.540000e-06	7.867723e-06	2.517138e-08	5.595549e+01	1.654383e+03
1.550000e-06	7.896080e-06	2.518204e-08	5.615717e+01	1.655354e+03
1.560000e-06	7.921609e-06	2.519261e-08	5.633873e+01	1.655834e+03
1.570000e-06	7.944190e-06	2.520355e-08	5.649933e+01	1.655875e+03
1.580000e-06	7.964039e-06	2.521344e-08	5.664049e+01	1.655638e+03
1.590000e-06	7.981009e-06	2.522258e-08	5.676119e+01	1.655340e+03
1.600000e-06	7.994900e-06	2.523141e-08	5.685998e+01	1.655184e+03
1.610000e-06	8.005670e-06	2.523898e-08	5.693658e+01	1.655300e+03
1.620000e-06	8.013377e-06	2.524288e-08	5.699139e+01	1.655701e+03
1.630000e-06	8.018320e-06	2.524395e-08	5.702654e+01	1.656285e+03
1.640000e-06	8.020423e-06	2.524318e-08	5.704150e+01	1.656864e+03
1.650000e-06	8.019631e-06	2.524012e-08	5.703587e+01	1.657224e+03
1.660000e-06	8.016264e-06	2.523110e-08	5.701192e+01	1.657192e+03
1.670000e-06	8.010216e-06	2.522628e-08	5.696891e+01	1.656688e+03
1.680000e-06	8.001456e-06	2.522214e-08	5.690661e+01	1.655750e+03
1.690000e-06	7.990038e-06	2.521508e-08	5.682540e+01	1.654516e+03
1.700000e-06	7.975753e-06	2.520943e-08	5.672380e+01	1.653189e+03
1.710000e-06	7.958847e-06	2.520638e-08	5.660357e+01	1.651966e+03
1.720000e-06	7.939696e-06	2.519158e-08	5.646737e+01	1.650987e+03
1.730000e-06	7.918057e-06	2.511265e-08	5.631347e+01	1.650292e+03
1.740000e-06	7.893216e-06	2.506394e-08	5.613680e+01	1.649813e+03
1.750000e-06	7.864659e-06	2.509355e-08	5.593370e+01	1.649403e+03
1.760000e-06	7.832677e-06	2.508730e-08	5.570624e+01	1.648883e+03
1.770000e-06	7.798096e-06	2.507767e-08	5.546031e+01	1.648103e+03
1.780000e-06	7.761256e-06	2.514112e-08	5.519830e+01	1.646981e+03
1.790000e-06	7.722239e-06	2.516610e-08	5.492081e+01	1.645533e+03
1.800000e-06	7.681189e-06	2.504529e-08	5.462886e+01	1.643854e+03
1.810000e-06	7.637611e-06	2.507133e-08	5.431893e+01	1.642083e+03
1.820000e-06	7.591273e-06	2.505626e-08	5.398938e+01	1.640352e+03
1.830000e-06	7.542290e-06	2.500204e-08	5.364101e+01	1.638732e+03
1.840000e-06	7.490319e-06	2.505906e-08	5.327139e+01	1.637207e+03
1.850000e-06	7.435376e-06	2.495996e-08	5.288063e+01	1.635670e+03
1.860000e-06	7.377704e-06	2.493316e-08	5.247046e+01	1.633962e+03
1.870000e-06	7.317478e-06	2.485283e-08	5.204213e+01	1.631914e+03
1.880000e-06	7.254587e-06	2.482590e-08	5.159486e+01	1.629407e+03
1.890000e-06	7.188756e-06	2.486408e-08	5.112666e+01	1.626416e+03
1.900000e-06	7.120178e-06	2.476846e-08	5.063893e+01	1.623015e+03
1.910000e-06	7.048828e-06	2.476287e-08	5.013149e+01	1.619368e+03
1.920000e-06	6.974810e-06	2.467331e-08	4.960507e+01	1.615670e+03
1.930000e-06	6.898144e-06	2.460934e-08	4.905982e+01	1.612095e+03
1.940000e-06	6.818696e-06	2.456600e-08	4.849478e+01	1.608735e+03
1.950000e-06	6.736691e-06	2.452581e-08	4.791156e+01	1.605576e+03
1.960000e-06	6.652167e-06	2.452022e-08	4.731042e+01	1.602491e+03
1.970000e-06	6.565135e-06	2.440201e-08	4.669145e+01	1.599286e+03
1.980000e-06	6.475699e-06	2.435732e-08	4.605538e+01	1.595754e+03
1.990000e-06	6.384061e-06	2.429080e-08	4.540365e+01	1.591742e+03
2.000000e-06	6.290201e-06	2.422481e-08	4.473611e+01	1.587198e+03
2.010000e-06	6.194061e-06	2.415247e-08	4.405236e+01	1.582184e+03
2.020000e-06	6.095728e-06	2.407995e-08	4.335301e+01	1.576864e+03
2.030000e-06	5.995184e-06	2.401341e-08	4.263794e+01	1.571444e+03
2.040000e-06	5.892438e-06	2.391937e-08	4.190721e+01	1.566106e+03
2.050000e-06	5.787609e-06	2.385806e-08	4.116166e+01	1.560950e+03
2.060000e-06	5.680855e-06	2.377201e-08	4.040242e+01	1.555953e+03
2.070000e-06	5.572140e-06	2.368832e-08	3.962924e+01	1.550975e+03
2.080000e-06	5.461383e-06	2.358951e-08	3.884153e+01	1.545797e+03
2.090000e-06	5.348604e-06	2.350864e-08	3.803944e+01	1.540186e+03
2.100000e-06	5.233848e-06	2.341560e-08	3.722330e+01	1.533973e+03
2.110000e-06	5.117074e-06	2.331706e-08	3.639279e+01	1.527100e+03
2.120000e-06	4.998319e-06	2.321636e-08	3.554820e+01	1.519646e+03
2.130000e-06	4.877729e-06	2.310687e-08	3.469057e+01	1.511797e+03
2.140000e-06	4.755364e-06	2.299245e-08	3.382030e+01	1.503791e+03
2.150000e-06	4.631226e-06	2.287130e-08	3.293743e+01	1.495834e+03
2.160000e-06	4.505364e-06	2.275909e-08	3.204229e+01	1.488029e+03
2.170000e-06	4.377879e-06	2.263432e-08	3.113561e+01	1.480332e+03
2.180000e-06	4.248773e-06	2.250623e-08	3.021741e+01	1.472559e+03
2.190000e-06	4.118130e-06	2.237136e-08	2.928827e+01	1.464428e+03
2.200000e-06	3.985979e-06	2.223450e-08	2.834841e+01	1.455644e+03
2.210000e-06	3.852309e-06	2.208455e-08	2.739774e+01	1.445988e+03
2.220000e-06	3.717205e-06	2.193178e-08	2.643688e+01	1.435384e+03
2.230000e-06	3.580674e-06	2.177054e-08	2.546587e+01	1.423925e+03
2.240000e-06	3.442766e-06	2.160114e-08	2.448506e+01	1.411840e+03
2.250000e-06	3.303579e-06	2.142467e-08	2.349516e+01	1.399426e+03
2.260000e-06	3.163132e-06	2.123950e-08	2.249629e+01	1.386938e+03
2.270000e-06	3.021441e-06	2.105061e-08	2.148858e+01	1.374502e+03
2.280000e-06	2.878528e-06	2.085649e-08	2.047218e+01	1.362052e+03
2.290000e-06	2.734524e-06	2.065647e-08	1.944802e+01	1.349335e+03
2.300000e-06	2.589542e-06	2.043910e-08	1.841690e+01	1.335967e+03
2.310000e-06	2.443650e-06	2.020598e-08	1.737932e+01	1.321541e+03
2.320000e-06	2.297010e-06	1.996239e-08	1.633641e+01	1.305744e+03
2.330000e-06	2.149589e-06	1.971062e-08	1.528794e+01	1.288450e+03
2.340000e-06	2.001427e-06	1.944515e-08	1.423422e+01	1.269756e+03
2.350000e-06	1.852661e-06	1.916590e-08	1.317618e+01	1.249943e+03
2.360000e-06	1.703321e-06	1.887198e-08	1.211407e+01	1.229372e+03
2.370000e-06	1.553427e-06	1.855768e-08	1.104802e+01	1.208340e+03
2.380000e-06	1.402985e-06	1.822444e-08	9.978072e+00	1.186945e+03
2.390000e-06	1.252098e-06	1.787374e-08	8.904961e+00	1.164996e+03
2.400000e-06	1.100822e-06	1.750424e-08	7.829079e+00	1.142013e+03
2.410000e-06	9.491588e-07	1.710829e-08	6.750447e+00	1.117314e+03
2.420000e-06	7.971739e-07	1.668177e-08	5.669526e+00	1.090172e+03
2.430000e-06	6.448857e-07	1.622400e-08	4.586448e+00	1.060004e+03
2.440000e-06	4.923630e-07	1.573063e-08	3.501701e+00	1.026510e+03
2.450000e-06	3.396723e-07	1.519949e-08	2.415760e+00	9.897299e+02
2.460000e-06	1.868025e-07	1.462641e-08	1.328546e+00	9.499618e+02
2.470000e-06	3.380582e-08	1.400393e-08	2.404280e-01	9.075556e+02
2.480000e-06	-1.192403e-07	1.332165e-08	-8.480406e-01	8.626155e+02
2.490000e-06	-2.722375e-07	1.256856e-08	-1.936162e+00	8.146903e+02
2.500000e-06	-4.251301e-07	1.173435e-08	-3.023539e+00	7.625431e+02
2.510000e-06	-5.779493e-07	1.080270e-08	-4.110394e+00	7.040871e+02
2.520000e-06	-7.306076e-07	9.751128e-09	-5.196104e+00	6.365435e+02
2.530000e-06	-8.829596e-07	8.552037e-09	-6.279637e+00	5.568257e+02
2.540000e-06	-1.034990e-06	7.166980e-09	-7.360880e+00	4.621013e+02
2.550000e-06	-1.186642e-06	5.539484e-09	-8.439438e+00	3.504282e+02
2.560000e-06	-1.337844e-06	3.601588e-09	-9.514789e+00	2.213344e+02
2.570000e-06	-1.488639e-06	1.335453e-09	-1.058725e+01	7.620836e+01
2.580000e-06	-1.638971e-06	-1.134697e-09	-1.165642e+01	-8.160250e+01
2.590000e-06	-1.788629e-06	-3.655080e-09	-1.272079e+01	-2.470310e+02
2.600000e-06	-1.937521e-06	-6.178119e-09	-1.377971e+01	-4.138442e+02
2.610000e-06	-2.085679e-06	-8.695358e-09	-1.483341e+01	-5.754215e+02
2.620000e-06	-2.233082e-06	-1.112118e-08	-1.588175e+01	-7.256155e+02
2.630000e-06	-2.379660e-06	-1.325636e-08	-1.692421e+01	-8.595378e+02
2.640000e-06	-2.525348e-06	-1.498588e-08	-1.796035e+01	-9.741243e+02
2.650000e-06	-2.670109e-06	-1.635298e-08	-1.898990e+01	-1.068383e+03
2.660000e-06	-2.813853e-06	-1.743588e-08	-2.001221e+01	-1.143294e+03
2.670000e-06	-2.956502e-06	-1.830657e-08	-2.102674e+01	-1.201401e+03
2.680000e-06	-3.097942e-06	-1.902033e-08	-2.203266e+01	-1.246196e+03
2.690000e-06	-3.238119e-06	-1.961355e-08	-2.302960e+01	-1.281434e+03
2.700000e-06	-3.377070e-06	-2.011041e-08	-2.401783e+01	-1.310515e+03
2.710000e-06	-3.514761e-06	-2.053470e-08	-2.499709e+01	-1.336044e+03
2.720000e-06	-3.651133e-06	-2.090481e-08	-2.596697e+01	-1.359636e+03
2.730000e-06	-3.786124e-06	-2.122981e-08	-2.692703e+01	-1.381956e+03
2.740000e-06	-3.919713e-06	-2.151813e-08	-2.787712e+01	-1.402963e+03
2.750000e-06	-4.051922e-06	-2.177733e-08	-2.881739e+01	-1.422237e+03
2.760000e-06	-4.182720e-06	-2.201271e-08	-2.974763e+01	-1.439332e+03
2.770000e-06	-4.312073e-06	-2.222863e-08	-3.066760e+01	-1.454027e+03
2.780000e-06	-4.439968e-06	-2.242781e-08	-3.157719e+01	-1.466451e+03
2.790000e-06	-4.566336e-06	-2.261157e-08	-3.247593e+01	-1.477067e+03
2.800000e-06	-4.691116e-06	-2.278142e-08	-3.336337e+01	-1.486537e+03
2.810000e-06	-4.814227e-06	-2.294007e-08	-3.423894e+01	-1.495531e+03
2.820000e-06	-4.935576e-06	-2.308893e-08	-3.510197e+01	-1.504552e+03
2.830000e-06	-5.055079e-06	-2.322703e-08	-3.595188e+01	-1.513820e+03
2.840000e-06	-5.172617e-06	-2.335430e-08	-3.678781e+01	-1.523247e+03
2.850000e-06	-5.288083e-06	-2.347236e-08	-3.760902e+01	-1.532516e+03
2.860000e-06	-5.401432e-06	-2.358416e-08	-3.841515e+01	-1.541208e+03
2.870000e-06	-5.512685e-06	-2.369001e-08	-3.920639e+01	-1.548960e+03
2.880000e-06	-5.621921e-06	-2.378919e-08	-3.998328e+01	-1.555586e+03
2.890000e-06	-5.729179e-06	-2.388206e-08	-4.074610e+01	-1.561135e+03
2.900000e-06	-5.834438e-06	-2.396931e-08	-4.149471e+01	-1.565872e+03
2.910000e-06	-5.937586e-06	-2.405241e-08	-4.222830e+01	-1.570195e+03
2.920000e-06	-6.038468e-06	-2.413115e-08	-4.294577e+01	-1.574511e+03
2.930000e-06	-6.137115e-06	-2.420539e-08	-4.364736e+01	-1.579121e+03
2.940000e-06	-6.233592e-06	-2.427698e-08	-4.433350e+01	-1.584136e+03
