# Temperatura_=_29.89
# Concentracion g/m^3_=_28200.0
# C_Vs_to_Am_M_A/Vsm_=_65563218390.804596
# pendiente_HvsI_1/m_=_3716.3
# ordenada_HvsI_A/m_=_1297.0
# frecuencia_Hz_=_302305.8775280215

Tiempo_(s)	Campo_(V.s)	Magnetizacion_(V.s)	Campo_(kA/m)	Magnetizacion_(A/m)
0.000000e+00	-6.866437e-06	-2.391963e-08	-4.951424e+01	-1.565837e+03
1.000000e-08	-6.863863e-06	-2.391429e-08	-4.949569e+01	-1.565501e+03
2.000000e-08	-6.858935e-06	-2.390593e-08	-4.946015e+01	-1.565013e+03
3.000000e-08	-6.851939e-06	-2.389681e-08	-4.940970e+01	-1.564370e+03
4.000000e-08	-6.842700e-06	-2.388754e-08	-4.934308e+01	-1.563571e+03
5.000000e-08	-6.830901e-06	-2.387510e-08	-4.925800e+01	-1.562615e+03
6.000000e-08	-6.816507e-06	-2.385910e-08	-4.915420e+01	-1.561499e+03
7.000000e-08	-6.799714e-06	-2.383469e-08	-4.903311e+01	-1.560227e+03
8.000000e-08	-6.780885e-06	-2.380185e-08	-4.889733e+01	-1.558804e+03
9.000000e-08	-6.759970e-06	-2.381337e-08	-4.874651e+01	-1.557240e+03
1.000000e-07	-6.736448e-06	-2.381986e-08	-4.857689e+01	-1.555551e+03
1.100000e-07	-6.710064e-06	-2.375549e-08	-4.838663e+01	-1.553757e+03
1.200000e-07	-6.681078e-06	-2.370115e-08	-4.817761e+01	-1.551877e+03
1.300000e-07	-6.649885e-06	-2.367793e-08	-4.795268e+01	-1.549927e+03
1.400000e-07	-6.616586e-06	-2.361078e-08	-4.771256e+01	-1.547915e+03
1.500000e-07	-6.581396e-06	-2.354854e-08	-4.745880e+01	-1.545831e+03
1.600000e-07	-6.544385e-06	-2.360784e-08	-4.719192e+01	-1.543655e+03
1.700000e-07	-6.505302e-06	-2.353042e-08	-4.691009e+01	-1.541350e+03
1.800000e-07	-6.464030e-06	-2.343442e-08	-4.661247e+01	-1.538869e+03
1.900000e-07	-6.420264e-06	-2.345771e-08	-4.629687e+01	-1.536164e+03
2.000000e-07	-6.374071e-06	-2.335181e-08	-4.596377e+01	-1.533191e+03
2.100000e-07	-6.325571e-06	-2.330927e-08	-4.561404e+01	-1.529920e+03
2.200000e-07	-6.274345e-06	-2.329926e-08	-4.524464e+01	-1.526339e+03
2.300000e-07	-6.220483e-06	-2.322517e-08	-4.485624e+01	-1.522455e+03
2.400000e-07	-6.164299e-06	-2.316436e-08	-4.445109e+01	-1.518293e+03
2.500000e-07	-6.105786e-06	-2.307538e-08	-4.402915e+01	-1.513885e+03
2.600000e-07	-6.045041e-06	-2.301455e-08	-4.359111e+01	-1.509265e+03
2.700000e-07	-5.982096e-06	-2.294035e-08	-4.313721e+01	-1.504459e+03
2.800000e-07	-5.916872e-06	-2.285563e-08	-4.266688e+01	-1.499478e+03
2.900000e-07	-5.849421e-06	-2.278334e-08	-4.218049e+01	-1.494316e+03
3.000000e-07	-5.779808e-06	-2.268671e-08	-4.167851e+01	-1.488954e+03
3.100000e-07	-5.708061e-06	-2.260776e-08	-4.116114e+01	-1.483362e+03
3.200000e-07	-5.634091e-06	-2.251637e-08	-4.062773e+01	-1.477509e+03
3.300000e-07	-5.557714e-06	-2.243536e-08	-4.007697e+01	-1.471368e+03
3.400000e-07	-5.478996e-06	-2.233681e-08	-3.950934e+01	-1.464921e+03
3.500000e-07	-5.398165e-06	-2.222293e-08	-3.892646e+01	-1.458162e+03
3.600000e-07	-5.315462e-06	-2.212528e-08	-3.833009e+01	-1.451094e+03
3.700000e-07	-5.231010e-06	-2.200537e-08	-3.772110e+01	-1.443724e+03
3.800000e-07	-5.144890e-06	-2.189029e-08	-3.710008e+01	-1.436057e+03
3.900000e-07	-5.057073e-06	-2.177073e-08	-3.646682e+01	-1.428089e+03
4.000000e-07	-4.967411e-06	-2.164027e-08	-3.582027e+01	-1.419808e+03
4.100000e-07	-4.875930e-06	-2.149715e-08	-3.516059e+01	-1.411192e+03
4.200000e-07	-4.782769e-06	-2.135902e-08	-3.448881e+01	-1.402215e+03
4.300000e-07	-4.688081e-06	-2.122347e-08	-3.380600e+01	-1.392847e+03
4.400000e-07	-4.591735e-06	-2.106882e-08	-3.311125e+01	-1.383064e+03
4.500000e-07	-4.493611e-06	-2.090952e-08	-3.240367e+01	-1.372853e+03
4.600000e-07	-4.393823e-06	-2.075026e-08	-3.168409e+01	-1.362204e+03
4.700000e-07	-4.292477e-06	-2.058558e-08	-3.095329e+01	-1.351115e+03
4.800000e-07	-4.189693e-06	-2.041156e-08	-3.021210e+01	-1.339582e+03
4.900000e-07	-4.085413e-06	-2.023319e-08	-2.946013e+01	-1.327597e+03
5.000000e-07	-3.979580e-06	-2.004447e-08	-2.869696e+01	-1.315136e+03
5.100000e-07	-3.872242e-06	-1.983989e-08	-2.792295e+01	-1.302166e+03
5.200000e-07	-3.763509e-06	-1.962352e-08	-2.713887e+01	-1.288640e+03
5.300000e-07	-3.653495e-06	-1.940179e-08	-2.634555e+01	-1.274506e+03
5.400000e-07	-3.542207e-06	-1.917346e-08	-2.554305e+01	-1.259711e+03
5.500000e-07	-3.429533e-06	-1.893428e-08	-2.473054e+01	-1.244210e+03
5.600000e-07	-3.315356e-06	-1.868565e-08	-2.390721e+01	-1.227967e+03
5.700000e-07	-3.199711e-06	-1.842663e-08	-2.307329e+01	-1.210956e+03
5.800000e-07	-3.082749e-06	-1.815623e-08	-2.222987e+01	-1.193154e+03
5.900000e-07	-2.964659e-06	-1.787296e-08	-2.137832e+01	-1.174534e+03
6.000000e-07	-2.845544e-06	-1.757851e-08	-2.051937e+01	-1.155055e+03
6.100000e-07	-2.725359e-06	-1.726890e-08	-1.965271e+01	-1.134657e+03
6.200000e-07	-2.604088e-06	-1.693859e-08	-1.877822e+01	-1.113256e+03
6.300000e-07	-2.481797e-06	-1.658740e-08	-1.789637e+01	-1.090751e+03
6.400000e-07	-2.358540e-06	-1.621829e-08	-1.700756e+01	-1.067025e+03
6.500000e-07	-2.234394e-06	-1.583256e-08	-1.611234e+01	-1.041958e+03
6.600000e-07	-2.109541e-06	-1.542868e-08	-1.521201e+01	-1.015433e+03
6.700000e-07	-1.984071e-06	-1.500219e-08	-1.430724e+01	-9.873413e+02
6.800000e-07	-1.857958e-06	-1.454936e-08	-1.339784e+01	-9.575798e+02
6.900000e-07	-1.731243e-06	-1.407004e-08	-1.248408e+01	-9.260451e+02
7.000000e-07	-1.603940e-06	-1.356115e-08	-1.156610e+01	-8.926234e+02
7.100000e-07	-1.475994e-06	-1.301975e-08	-1.064347e+01	-8.571839e+02
7.200000e-07	-1.347447e-06	-1.244346e-08	-9.716516e+00	-8.195767e+02
7.300000e-07	-1.218481e-06	-1.183119e-08	-8.786535e+00	-7.796434e+02
7.400000e-07	-1.089170e-06	-1.118248e-08	-7.854066e+00	-7.372383e+02
7.500000e-07	-9.595460e-07	-1.049622e-08	-6.919338e+00	-6.922602e+02
7.600000e-07	-8.296311e-07	-9.771197e-09	-5.982515e+00	-6.446886e+02
7.700000e-07	-6.994532e-07	-9.008656e-09	-5.043795e+00	-5.946160e+02
7.800000e-07	-5.689963e-07	-8.211430e-09	-4.103063e+00	-5.422675e+02
7.900000e-07	-4.382664e-07	-7.384984e-09	-3.160363e+00	-4.879986e+02
8.000000e-07	-3.074050e-07	-6.535485e-09	-2.216714e+00	-4.322686e+02
8.100000e-07	-1.764404e-07	-5.670371e-09	-1.272321e+00	-3.755899e+02
8.200000e-07	-4.533043e-08	-4.798810e-09	-3.268802e-01	-3.184594e+02
8.300000e-07	8.587052e-08	-3.926511e-09	6.192169e-01	-2.612853e+02
8.400000e-07	2.170655e-07	-3.057333e-09	1.565271e+00	-2.043221e+02
8.500000e-07	3.481900e-07	-2.193171e-09	2.510817e+00	-1.476292e+02
8.600000e-07	4.791913e-07	-1.333554e-09	3.455475e+00	-9.106260e+01
8.700000e-07	6.100287e-07	-4.729926e-10	4.398950e+00	-3.430540e+01
8.800000e-07	7.406851e-07	3.984289e-10	5.341120e+00	2.306686e+01
8.900000e-07	8.710434e-07	1.289502e-09	6.281141e+00	8.149624e+01
9.000000e-07	1.001023e-06	2.203463e-09	7.218430e+00	1.413435e+02
9.100000e-07	1.130644e-06	3.142713e-09	8.153138e+00	2.027986e+02
9.200000e-07	1.259908e-06	4.105610e-09	9.085266e+00	2.658176e+02
9.300000e-07	1.388771e-06	5.085679e-09	1.001450e+01	3.300975e+02
9.400000e-07	1.517156e-06	6.075814e-09	1.094029e+01	3.950936e+02
9.500000e-07	1.644953e-06	7.064672e-09	1.186184e+01	4.600770e+02
9.600000e-07	1.772062e-06	8.041436e-09	1.277843e+01	5.242191e+02
9.700000e-07	1.898502e-06	8.992232e-09	1.369020e+01	5.866897e+02
9.800000e-07	2.024251e-06	9.903474e-09	1.459698e+01	6.467492e+02
9.900000e-07	2.149256e-06	1.076756e-08	1.549840e+01	7.038208e+02
1.000000e-06	2.273625e-06	1.158018e-08	1.639523e+01	7.575329e+02
1.010000e-06	2.397287e-06	1.233909e-08	1.728697e+01	8.077257e+02
1.020000e-06	2.520005e-06	1.304638e-08	1.817189e+01	8.544282e+02
1.030000e-06	2.641722e-06	1.370512e-08	1.904960e+01	8.978118e+02
1.040000e-06	2.762392e-06	1.431717e-08	1.991976e+01	9.381343e+02
1.050000e-06	2.881917e-06	1.488753e-08	2.078166e+01	9.756845e+02
1.060000e-06	3.000375e-06	1.542087e-08	2.163586e+01	1.010739e+03
1.070000e-06	3.117778e-06	1.591840e-08	2.248247e+01	1.043537e+03
1.080000e-06	3.233999e-06	1.637934e-08	2.332054e+01	1.074269e+03
1.090000e-06	3.348923e-06	1.681089e-08	2.414927e+01	1.103086e+03
1.100000e-06	3.462533e-06	1.721897e-08	2.496851e+01	1.130115e+03
1.110000e-06	3.574762e-06	1.760439e-08	2.577780e+01	1.155470e+03
1.120000e-06	3.685586e-06	1.796817e-08	2.657696e+01	1.179272e+03
1.130000e-06	3.795210e-06	1.831195e-08	2.736746e+01	1.201647e+03
1.140000e-06	3.903678e-06	1.863517e-08	2.814963e+01	1.222728e+03
1.150000e-06	4.010850e-06	1.893893e-08	2.892245e+01	1.242646e+03
1.160000e-06	4.116575e-06	1.922496e-08	2.968484e+01	1.261516e+03
1.170000e-06	4.220727e-06	1.949635e-08	3.043589e+01	1.279431e+03
1.180000e-06	4.323338e-06	1.975465e-08	3.117583e+01	1.296459e+03
1.190000e-06	4.424492e-06	1.999745e-08	3.190525e+01	1.312643e+03
1.200000e-06	4.524106e-06	2.022906e-08	3.262357e+01	1.328009e+03
1.210000e-06	4.622048e-06	2.045155e-08	3.332984e+01	1.342577e+03
1.220000e-06	4.718202e-06	2.066285e-08	3.402321e+01	1.356370e+03
1.230000e-06	4.812600e-06	2.086232e-08	3.470391e+01	1.369424e+03
1.240000e-06	4.905380e-06	2.104998e-08	3.537296e+01	1.381786e+03
1.250000e-06	4.996542e-06	2.122556e-08	3.603034e+01	1.393514e+03
1.260000e-06	5.085838e-06	2.139307e-08	3.667425e+01	1.404667e+03
1.270000e-06	5.173142e-06	2.155272e-08	3.730381e+01	1.415300e+03
1.280000e-06	5.258621e-06	2.170650e-08	3.792020e+01	1.425456e+03
1.290000e-06	5.342365e-06	2.185684e-08	3.852408e+01	1.435159e+03
1.300000e-06	5.424136e-06	2.200056e-08	3.911374e+01	1.444419e+03
1.310000e-06	5.503839e-06	2.213778e-08	3.968848e+01	1.453231e+03
1.320000e-06	5.581608e-06	2.226680e-08	4.024928e+01	1.461585e+03
1.330000e-06	5.657322e-06	2.238817e-08	4.079526e+01	1.469476e+03
1.340000e-06	5.730766e-06	2.250310e-08	4.132486e+01	1.476905e+03
1.350000e-06	5.801963e-06	2.260960e-08	4.183827e+01	1.483885e+03
1.360000e-06	5.871127e-06	2.270892e-08	4.233701e+01	1.490442e+03
1.370000e-06	5.938275e-06	2.280282e-08	4.282122e+01	1.496610e+03
1.380000e-06	6.003222e-06	2.289414e-08	4.328956e+01	1.502427e+03
1.390000e-06	6.066027e-06	2.297996e-08	4.374245e+01	1.507927e+03
1.400000e-06	6.126857e-06	2.305787e-08	4.418109e+01	1.513139e+03
1.410000e-06	6.185547e-06	2.313192e-08	4.460431e+01	1.518084e+03
1.420000e-06	6.241930e-06	2.320323e-08	4.501089e+01	1.522775e+03
1.430000e-06	6.296068e-06	2.327124e-08	4.540129e+01	1.527216e+03
1.440000e-06	6.347768e-06	2.333452e-08	4.577410e+01	1.531413e+03
1.450000e-06	6.396805e-06	2.339426e-08	4.612771e+01	1.535367e+03
1.460000e-06	6.443430e-06	2.345265e-08	4.646392e+01	1.539083e+03
1.470000e-06	6.487897e-06	2.350836e-08	4.678457e+01	1.542567e+03
1.480000e-06	6.530009e-06	2.355800e-08	4.708825e+01	1.545824e+03
1.490000e-06	6.569658e-06	2.360285e-08	4.737416e+01	1.548856e+03
1.500000e-06	6.607103e-06	2.364528e-08	4.764418e+01	1.551666e+03
1.510000e-06	6.642400e-06	2.368490e-08	4.789871e+01	1.554249e+03
1.520000e-06	6.675304e-06	2.372009e-08	4.813598e+01	1.556601e+03
1.530000e-06	6.705752e-06	2.374979e-08	4.835554e+01	1.558716e+03
1.540000e-06	6.733948e-06	2.377712e-08	4.855886e+01	1.560590e+03
1.550000e-06	6.759691e-06	2.380213e-08	4.874450e+01	1.562224e+03
1.560000e-06	6.782821e-06	2.382329e-08	4.891129e+01	1.563624e+03
1.570000e-06	6.803666e-06	2.384125e-08	4.906160e+01	1.564802e+03
1.580000e-06	6.822262e-06	2.385516e-08	4.919570e+01	1.565774e+03
1.590000e-06	6.838250e-06	2.386483e-08	4.931099e+01	1.566558e+03
1.600000e-06	6.851589e-06	2.387211e-08	4.940718e+01	1.567170e+03
1.610000e-06	6.862253e-06	2.387962e-08	4.948408e+01	1.567625e+03
1.620000e-06	6.870207e-06	2.388742e-08	4.954144e+01	1.567930e+03
1.630000e-06	6.875728e-06	2.389354e-08	4.958125e+01	1.568091e+03
1.640000e-06	6.878883e-06	2.389612e-08	4.960400e+01	1.568107e+03
1.650000e-06	6.879563e-06	2.389570e-08	4.960890e+01	1.567978e+03
1.660000e-06	6.877862e-06	2.388797e-08	4.959663e+01	1.567701e+03
1.670000e-06	6.874002e-06	2.387481e-08	4.956880e+01	1.567273e+03
1.680000e-06	6.867806e-06	2.386463e-08	4.952412e+01	1.566691e+03
1.690000e-06	6.859230e-06	2.385394e-08	4.946228e+01	1.565954e+03
1.700000e-06	6.848433e-06	2.384305e-08	4.938442e+01	1.565059e+03
1.710000e-06	6.835263e-06	2.383274e-08	4.928945e+01	1.564005e+03
1.720000e-06	6.819706e-06	2.382639e-08	4.917727e+01	1.562794e+03
1.730000e-06	6.802041e-06	2.381380e-08	4.904989e+01	1.561429e+03
1.740000e-06	6.782295e-06	2.373284e-08	4.890750e+01	1.559918e+03
1.750000e-06	6.759710e-06	2.368816e-08	4.874463e+01	1.558276e+03
1.760000e-06	6.733838e-06	2.370524e-08	4.855807e+01	1.556520e+03
1.770000e-06	6.705144e-06	2.367644e-08	4.835115e+01	1.554672e+03
1.780000e-06	6.674104e-06	2.365741e-08	4.812732e+01	1.552748e+03
1.790000e-06	6.641280e-06	2.369194e-08	4.789063e+01	1.550760e+03
1.800000e-06	6.607147e-06	2.358332e-08	4.764449e+01	1.548706e+03
1.810000e-06	6.571150e-06	2.352680e-08	4.738492e+01	1.546570e+03
1.820000e-06	6.532585e-06	2.358841e-08	4.710682e+01	1.544320e+03
1.830000e-06	6.491786e-06	2.348838e-08	4.681262e+01	1.541914e+03
1.840000e-06	6.448822e-06	2.351959e-08	4.650280e+01	1.539302e+03
1.850000e-06	6.403456e-06	2.347764e-08	4.617567e+01	1.536438e+03
1.860000e-06	6.355790e-06	2.333752e-08	4.583195e+01	1.533286e+03
1.870000e-06	6.305768e-06	2.334129e-08	4.547124e+01	1.529827e+03
1.880000e-06	6.253384e-06	2.322935e-08	4.509349e+01	1.526060e+03
1.890000e-06	6.198363e-06	2.321388e-08	4.469673e+01	1.522004e+03
1.900000e-06	6.140783e-06	2.317182e-08	4.428152e+01	1.517688e+03
1.910000e-06	6.081018e-06	2.305411e-08	4.385055e+01	1.513148e+03
1.920000e-06	6.018884e-06	2.304342e-08	4.340250e+01	1.508412e+03
1.930000e-06	5.954516e-06	2.292644e-08	4.293834e+01	1.503499e+03
1.940000e-06	5.888064e-06	2.287597e-08	4.245915e+01	1.498409e+03
1.950000e-06	5.819366e-06	2.279234e-08	4.196377e+01	1.493129e+03
1.960000e-06	5.748288e-06	2.268445e-08	4.145122e+01	1.487631e+03
1.970000e-06	5.674925e-06	2.261995e-08	4.092219e+01	1.481884e+03
1.980000e-06	5.599450e-06	2.248599e-08	4.037794e+01	1.475858e+03
1.990000e-06	5.521684e-06	2.242450e-08	3.981716e+01	1.469532e+03
2.000000e-06	5.441770e-06	2.231504e-08	3.924090e+01	1.462896e+03
2.010000e-06	5.360015e-06	2.221987e-08	3.865136e+01	1.455949e+03
2.020000e-06	5.276489e-06	2.211607e-08	3.804904e+01	1.448696e+03
2.030000e-06	5.191056e-06	2.197530e-08	3.743298e+01	1.441145e+03
2.040000e-06	5.103569e-06	2.187054e-08	3.680211e+01	1.433296e+03
2.050000e-06	5.014269e-06	2.173749e-08	3.615817e+01	1.425140e+03
2.060000e-06	4.923376e-06	2.162174e-08	3.550273e+01	1.416659e+03
2.070000e-06	4.830896e-06	2.147675e-08	3.483585e+01	1.407826e+03
2.080000e-06	4.736612e-06	2.134315e-08	3.415597e+01	1.398614e+03
2.090000e-06	4.640524e-06	2.120232e-08	3.346307e+01	1.388997e+03
2.100000e-06	4.542870e-06	2.104768e-08	3.275888e+01	1.378955e+03
2.110000e-06	4.443770e-06	2.089426e-08	3.204426e+01	1.368478e+03
2.120000e-06	4.343145e-06	2.072306e-08	3.131865e+01	1.357562e+03
2.130000e-06	4.240821e-06	2.054633e-08	3.058079e+01	1.346204e+03
2.140000e-06	4.136885e-06	2.035253e-08	2.983130e+01	1.334398e+03
2.150000e-06	4.031451e-06	2.016867e-08	2.907101e+01	1.322128e+03
2.160000e-06	3.924660e-06	1.997861e-08	2.830093e+01	1.309362e+03
2.170000e-06	3.816560e-06	1.978616e-08	2.752142e+01	1.296061e+03
2.180000e-06	3.707098e-06	1.958062e-08	2.673208e+01	1.282171e+03
2.190000e-06	3.596128e-06	1.936162e-08	2.593187e+01	1.267641e+03
2.200000e-06	3.483693e-06	1.912897e-08	2.512110e+01	1.252422e+03
2.210000e-06	3.369974e-06	1.888847e-08	2.430107e+01	1.236474e+03
2.220000e-06	3.254964e-06	1.864039e-08	2.347172e+01	1.219768e+03
2.230000e-06	3.138593e-06	1.837396e-08	2.263257e+01	1.202279e+03
2.240000e-06	3.020797e-06	1.809043e-08	2.178313e+01	1.183984e+03
2.250000e-06	2.901723e-06	1.779249e-08	2.092448e+01	1.164848e+03
2.260000e-06	2.781548e-06	1.748973e-08	2.005789e+01	1.144819e+03
2.270000e-06	2.660353e-06	1.717372e-08	1.918395e+01	1.123823e+03
2.280000e-06	2.538263e-06	1.684235e-08	1.830355e+01	1.101765e+03
2.290000e-06	2.415346e-06	1.649105e-08	1.741719e+01	1.078533e+03
2.300000e-06	2.291550e-06	1.611803e-08	1.652449e+01	1.054007e+03
2.310000e-06	2.166927e-06	1.572100e-08	1.562583e+01	1.028068e+03
2.320000e-06	2.041570e-06	1.530175e-08	1.472187e+01	1.000604e+03
2.330000e-06	1.915523e-06	1.485949e-08	1.381294e+01	9.715102e+02
2.340000e-06	1.788770e-06	1.439209e-08	1.289891e+01	9.406846e+02
2.350000e-06	1.661266e-06	1.389557e-08	1.197948e+01	9.080185e+02
2.360000e-06	1.533148e-06	1.336639e-08	1.105561e+01	8.733884e+02
2.370000e-06	1.404547e-06	1.280521e-08	1.012826e+01	8.366513e+02
2.380000e-06	1.275534e-06	1.221001e-08	9.197948e+00	7.976503e+02
2.390000e-06	1.146203e-06	1.157815e-08	8.265332e+00	7.562313e+02
2.400000e-06	1.016542e-06	1.090711e-08	7.330339e+00	7.122714e+02
2.410000e-06	8.865304e-07	1.019753e-08	6.392819e+00	6.657143e+02
2.420000e-06	7.562044e-07	9.450004e-09	5.453030e+00	6.166047e+02
2.430000e-06	6.256428e-07	8.665744e-09	4.511544e+00	5.651146e+02
2.440000e-06	4.949372e-07	7.848049e-09	3.569019e+00	5.115499e+02
2.450000e-06	3.641385e-07	7.004809e-09	2.625822e+00	4.563341e+02
2.460000e-06	2.331961e-07	6.145960e-09	1.681589e+00	3.999660e+02
2.470000e-06	1.021367e-07	5.276580e-09	7.365135e-01	3.429575e+02
2.480000e-06	-2.897289e-08	4.402098e-09	-2.089251e-01	2.857602e+02
2.490000e-06	-1.600779e-07	3.528607e-09	-1.154330e+00	2.286955e+02
2.500000e-06	-2.910906e-07	2.657992e-09	-2.099070e+00	1.719023e+02
2.510000e-06	-4.220312e-07	1.791142e-09	-3.043290e+00	1.153152e+02
2.520000e-06	-5.529161e-07	9.246517e-10	-3.987108e+00	5.867904e+01
2.530000e-06	-6.836855e-07	5.149211e-11	-4.930093e+00	1.602084e+00
2.540000e-06	-8.142837e-07	-8.330300e-10	-5.871844e+00	-5.636256e+01
2.550000e-06	-9.446413e-07	-1.734358e-09	-6.811860e+00	-1.156192e+02
2.560000e-06	-1.074667e-06	-2.658046e-09	-7.749480e+00	-1.764342e+02
2.570000e-06	-1.204252e-06	-3.608445e-09	-8.683925e+00	-2.388608e+02
2.580000e-06	-1.333395e-06	-4.583506e-09	-9.615180e+00	-3.026980e+02
2.590000e-06	-1.462210e-06	-5.573421e-09	-1.054408e+01	-3.674914e+02
2.600000e-06	-1.590616e-06	-6.568730e-09	-1.147002e+01	-4.325755e+02
2.610000e-06	-1.718435e-06	-7.558909e-09	-1.239172e+01	-4.971495e+02
2.620000e-06	-1.845538e-06	-8.529853e-09	-1.330828e+01	-5.603722e+02
2.630000e-06	-1.971839e-06	-9.465404e-09	-1.421904e+01	-6.214582e+02
2.640000e-06	-2.097402e-06	-1.035533e-08	-1.512448e+01	-6.797601e+02
2.650000e-06	-2.222193e-06	-1.119713e-08	-1.602435e+01	-7.348228e+02
2.660000e-06	-2.346027e-06	-1.198626e-08	-1.691733e+01	-7.864046e+02
2.670000e-06	-2.468906e-06	-1.272091e-08	-1.780342e+01	-8.344648e+02
2.680000e-06	-2.590855e-06	-1.340829e-08	-1.868280e+01	-8.791253e+02
2.690000e-06	-2.711880e-06	-1.405018e-08	-1.955551e+01	-9.206168e+02
2.700000e-06	-2.831953e-06	-1.464748e-08	-2.042136e+01	-9.592219e+02
2.710000e-06	-2.950942e-06	-1.520239e-08	-2.127940e+01	-9.952263e+02
2.720000e-06	-3.068771e-06	-1.571882e-08	-2.212907e+01	-1.028885e+03
2.730000e-06	-3.185329e-06	-1.620063e-08	-2.296958e+01	-1.060409e+03
2.740000e-06	-3.300558e-06	-1.665089e-08	-2.380050e+01	-1.089963e+03
2.750000e-06	-3.414417e-06	-1.707278e-08	-2.462154e+01	-1.117681e+03
2.760000e-06	-3.526890e-06	-1.746885e-08	-2.543259e+01	-1.143680e+03
2.770000e-06	-3.637956e-06	-1.784482e-08	-2.623349e+01	-1.168077e+03
2.780000e-06	-3.747678e-06	-1.819970e-08	-2.702471e+01	-1.190997e+03
2.790000e-06	-3.856246e-06	-1.853066e-08	-2.780760e+01	-1.212571e+03
2.800000e-06	-3.963656e-06	-1.884050e-08	-2.858214e+01	-1.232932e+03
2.810000e-06	-4.069813e-06	-1.913440e-08	-2.934764e+01	-1.252201e+03
2.820000e-06	-4.174578e-06	-1.941472e-08	-3.010311e+01	-1.270482e+03
2.830000e-06	-4.277701e-06	-1.968100e-08	-3.084673e+01	-1.287853e+03
2.840000e-06	-4.379087e-06	-1.993427e-08	-3.157784e+01	-1.304365e+03
2.850000e-06	-4.478891e-06	-2.017341e-08	-3.229752e+01	-1.320049e+03
2.860000e-06	-4.577248e-06	-2.039955e-08	-3.300678e+01	-1.334929e+03
2.870000e-06	-4.674136e-06	-2.061435e-08	-3.370545e+01	-1.349023e+03
2.880000e-06	-4.769335e-06	-2.081926e-08	-3.439193e+01	-1.362363e+03
2.890000e-06	-4.862669e-06	-2.101622e-08	-3.506497e+01	-1.374991e+03
2.900000e-06	-4.954226e-06	-2.120238e-08	-3.572519e+01	-1.386961e+03
2.910000e-06	-5.044103e-06	-2.137799e-08	-3.637330e+01	-1.398332e+03
2.920000e-06	-5.132227e-06	-2.154406e-08	-3.700877e+01	-1.409164e+03
2.930000e-06	-5.218351e-06	-2.170135e-08	-3.762981e+01	-1.419504e+03
2.940000e-06	-5.302465e-06	-2.185060e-08	-3.823636e+01	-1.429384e+03
