# Temperatura_=_39.65
# Concentracion g/m^3_=_28200.0
# C_Vs_to_Am_M_A/Vsm_=_65563218390.804596
# pendiente_HvsI_1/m_=_3716.3
# ordenada_HvsI_A/m_=_1297.0
# frecuencia_Hz_=_302301.5924644642

Tiempo_(s)	Campo_(V.s)	Magnetizacion_(V.s)	Campo_(kA/m)	Magnetizacion_(A/m)
0.000000e+00	-6.854060e-06	-2.468847e-08	-4.951948e+01	-1.616442e+03
1.000000e-08	-6.851703e-06	-2.467717e-08	-4.950245e+01	-1.616086e+03
2.000000e-08	-6.847006e-06	-2.466729e-08	-4.946851e+01	-1.615594e+03
3.000000e-08	-6.840156e-06	-2.465763e-08	-4.941903e+01	-1.614958e+03
4.000000e-08	-6.831018e-06	-2.464825e-08	-4.935300e+01	-1.614166e+03
5.000000e-08	-6.819413e-06	-2.463828e-08	-4.926916e+01	-1.613208e+03
6.000000e-08	-6.805256e-06	-2.462538e-08	-4.916688e+01	-1.612071e+03
7.000000e-08	-6.788660e-06	-2.460682e-08	-4.904698e+01	-1.610752e+03
8.000000e-08	-6.769976e-06	-2.458308e-08	-4.891198e+01	-1.609257e+03
9.000000e-08	-6.749165e-06	-2.456592e-08	-4.876163e+01	-1.607602e+03
1.000000e-07	-6.725758e-06	-2.456022e-08	-4.859252e+01	-1.605816e+03
1.100000e-07	-6.699563e-06	-2.452097e-08	-4.840326e+01	-1.603932e+03
1.200000e-07	-6.670824e-06	-2.446114e-08	-4.819563e+01	-1.601982e+03
1.300000e-07	-6.639879e-06	-2.441140e-08	-4.797206e+01	-1.599990e+03
1.400000e-07	-6.606827e-06	-2.436761e-08	-4.773326e+01	-1.597962e+03
1.500000e-07	-6.571821e-06	-2.434533e-08	-4.748035e+01	-1.595880e+03
1.600000e-07	-6.535014e-06	-2.432082e-08	-4.721443e+01	-1.593707e+03
1.700000e-07	-6.496201e-06	-2.429329e-08	-4.693401e+01	-1.591386e+03
1.800000e-07	-6.455195e-06	-2.423480e-08	-4.663774e+01	-1.588854e+03
1.900000e-07	-6.411718e-06	-2.418168e-08	-4.632363e+01	-1.586048e+03
2.000000e-07	-6.365757e-06	-2.412400e-08	-4.599157e+01	-1.582923e+03
2.100000e-07	-6.317437e-06	-2.405079e-08	-4.564247e+01	-1.579459e+03
2.200000e-07	-6.266505e-06	-2.401623e-08	-4.527449e+01	-1.575660e+03
2.300000e-07	-6.213002e-06	-2.396352e-08	-4.488794e+01	-1.571556e+03
2.400000e-07	-6.157135e-06	-2.389449e-08	-4.448431e+01	-1.567196e+03
2.500000e-07	-6.098886e-06	-2.382516e-08	-4.406347e+01	-1.562627e+03
2.600000e-07	-6.038307e-06	-2.375867e-08	-4.362579e+01	-1.557892e+03
2.700000e-07	-5.975553e-06	-2.369280e-08	-4.317241e+01	-1.553012e+03
2.800000e-07	-5.910657e-06	-2.359727e-08	-4.270355e+01	-1.547984e+03
2.900000e-07	-5.843557e-06	-2.351302e-08	-4.221876e+01	-1.542780e+03
3.000000e-07	-5.774231e-06	-2.343722e-08	-4.171789e+01	-1.537358e+03
3.100000e-07	-5.702757e-06	-2.334121e-08	-4.120150e+01	-1.531669e+03
3.200000e-07	-5.629112e-06	-2.324913e-08	-4.066943e+01	-1.525673e+03
3.300000e-07	-5.553137e-06	-2.315584e-08	-4.012052e+01	-1.519342e+03
3.400000e-07	-5.474822e-06	-2.306266e-08	-3.955471e+01	-1.512671e+03
3.500000e-07	-5.394321e-06	-2.295439e-08	-3.897310e+01	-1.505672e+03
3.600000e-07	-5.311907e-06	-2.284774e-08	-3.837767e+01	-1.498369e+03
3.700000e-07	-5.227761e-06	-2.273542e-08	-3.776973e+01	-1.490785e+03
3.800000e-07	-5.141935e-06	-2.260817e-08	-3.714966e+01	-1.482934e+03
3.900000e-07	-5.054433e-06	-2.248052e-08	-3.651746e+01	-1.474813e+03
4.000000e-07	-4.965098e-06	-2.234398e-08	-3.587204e+01	-1.466400e+03
4.100000e-07	-4.873903e-06	-2.220774e-08	-3.521317e+01	-1.457655e+03
4.200000e-07	-4.781062e-06	-2.206825e-08	-3.454240e+01	-1.448532e+03
4.300000e-07	-4.686672e-06	-2.193017e-08	-3.386045e+01	-1.438987e+03
4.400000e-07	-4.590656e-06	-2.177959e-08	-3.316675e+01	-1.428987e+03
4.500000e-07	-4.492896e-06	-2.161769e-08	-3.246045e+01	-1.418517e+03
4.600000e-07	-4.393408e-06	-2.145178e-08	-3.174167e+01	-1.407577e+03
4.700000e-07	-4.292312e-06	-2.127908e-08	-3.101126e+01	-1.396177e+03
4.800000e-07	-4.189763e-06	-2.109723e-08	-3.027037e+01	-1.384330e+03
4.900000e-07	-4.085779e-06	-2.090818e-08	-2.951909e+01	-1.372037e+03
5.000000e-07	-3.980267e-06	-2.071470e-08	-2.875679e+01	-1.359283e+03
5.100000e-07	-3.873214e-06	-2.050828e-08	-2.798335e+01	-1.346032e+03
5.200000e-07	-3.764749e-06	-2.029227e-08	-2.719970e+01	-1.332229e+03
5.300000e-07	-3.655027e-06	-2.006808e-08	-2.640698e+01	-1.317809e+03
5.400000e-07	-3.544069e-06	-1.983635e-08	-2.560533e+01	-1.302710e+03
5.500000e-07	-3.431773e-06	-1.959163e-08	-2.479401e+01	-1.286876e+03
5.600000e-07	-3.317948e-06	-1.933803e-08	-2.397164e+01	-1.270268e+03
5.700000e-07	-3.202543e-06	-1.907529e-08	-2.313786e+01	-1.252862e+03
5.800000e-07	-3.085752e-06	-1.879730e-08	-2.229406e+01	-1.234644e+03
5.900000e-07	-2.967849e-06	-1.850571e-08	-2.144223e+01	-1.215596e+03
6.000000e-07	-2.848986e-06	-1.820190e-08	-2.058346e+01	-1.195685e+03
6.100000e-07	-2.729093e-06	-1.788422e-08	-1.971726e+01	-1.174857e+03
6.200000e-07	-2.608172e-06	-1.754749e-08	-1.884362e+01	-1.153027e+03
6.300000e-07	-2.486256e-06	-1.719432e-08	-1.796280e+01	-1.130086e+03
6.400000e-07	-2.363328e-06	-1.682319e-08	-1.707466e+01	-1.105910e+03
6.500000e-07	-2.239522e-06	-1.643145e-08	-1.618019e+01	-1.080367e+03
6.600000e-07	-2.114934e-06	-1.601733e-08	-1.528006e+01	-1.053332e+03
6.700000e-07	-1.989670e-06	-1.558170e-08	-1.437504e+01	-1.024693e+03
6.800000e-07	-1.863849e-06	-1.512053e-08	-1.346601e+01	-9.943437e+02
6.900000e-07	-1.737459e-06	-1.462948e-08	-1.255286e+01	-9.621825e+02
7.000000e-07	-1.610407e-06	-1.410967e-08	-1.163493e+01	-9.280947e+02
7.100000e-07	-1.482734e-06	-1.355828e-08	-1.071251e+01	-8.919430e+02
7.200000e-07	-1.354568e-06	-1.297365e-08	-9.786536e+00	-8.535635e+02
7.300000e-07	-1.225992e-06	-1.235123e-08	-8.857598e+00	-8.127741e+02
7.400000e-07	-1.097064e-06	-1.168936e-08	-7.926109e+00	-7.693970e+02
7.500000e-07	-9.678007e-07	-1.098712e-08	-6.992204e+00	-7.232943e+02
7.600000e-07	-8.382033e-07	-1.024036e-08	-6.055884e+00	-6.744087e+02
7.700000e-07	-7.082900e-07	-9.449943e-09	-5.117281e+00	-6.228013e+02
7.800000e-07	-5.780938e-07	-8.621835e-09	-4.176635e+00	-5.686750e+02
7.900000e-07	-4.476943e-07	-7.764195e-09	-3.234519e+00	-5.123755e+02
8.000000e-07	-3.171258e-07	-6.882963e-09	-2.291183e+00	-4.543635e+02
8.100000e-07	-1.863727e-07	-5.982467e-09	-1.346512e+00	-3.951614e+02
8.200000e-07	-5.548125e-08	-5.071165e-09	-4.008431e-01	-3.352804e+02
8.300000e-07	7.550539e-08	-4.155835e-09	5.455143e-01	-2.751422e+02
8.400000e-07	2.064866e-07	-3.237895e-09	1.491832e+00	-2.150109e+02
8.500000e-07	3.374096e-07	-2.320153e-09	2.437730e+00	-1.549506e+02
8.600000e-07	4.682386e-07	-1.403459e-09	3.382948e+00	-9.481919e+01
8.700000e-07	5.988945e-07	-4.817743e-10	4.326916e+00	-3.430425e+01
8.800000e-07	7.292701e-07	4.537684e-10	5.268859e+00	2.700563e+01
8.900000e-07	8.593248e-07	1.408788e-09	6.208483e+00	8.952409e+01
9.000000e-07	9.890862e-07	2.385239e-09	7.145989e+00	1.535635e+02
9.100000e-07	1.118509e-06	3.385314e-09	8.081050e+00	2.192446e+02
9.200000e-07	1.247593e-06	4.408621e-09	9.013657e+00	2.864359e+02
9.300000e-07	1.376287e-06	5.450090e-09	9.943453e+00	3.547363e+02
9.400000e-07	1.504484e-06	6.499047e-09	1.086965e+01	4.235027e+02
9.500000e-07	1.632092e-06	7.541934e-09	1.179160e+01	4.919184e+02
9.600000e-07	1.759011e-06	8.565229e-09	1.270857e+01	5.590884e+02
9.700000e-07	1.885228e-06	9.555020e-09	1.362047e+01	6.241448e+02
9.800000e-07	2.010816e-06	1.049917e-08	1.452782e+01	6.863419e+02
9.900000e-07	2.135800e-06	1.139029e-08	1.543081e+01	7.451275e+02
1.000000e-06	2.260087e-06	1.222422e-08	1.632877e+01	8.001783e+02
1.010000e-06	2.383487e-06	1.299909e-08	1.722031e+01	8.513986e+02
1.020000e-06	2.505899e-06	1.371766e-08	1.810472e+01	8.988867e+02
1.030000e-06	2.627353e-06	1.438387e-08	1.898220e+01	9.428799e+02
1.040000e-06	2.747870e-06	1.500264e-08	1.985292e+01	9.836908e+02
1.050000e-06	2.867319e-06	1.557858e-08	2.071592e+01	1.021649e+03
1.060000e-06	2.985687e-06	1.611643e-08	2.157111e+01	1.057058e+03
1.070000e-06	3.103019e-06	1.661934e-08	2.241881e+01	1.090169e+03
1.080000e-06	3.219220e-06	1.708944e-08	2.325834e+01	1.121180e+03
1.090000e-06	3.334131e-06	1.752960e-08	2.408856e+01	1.150244e+03
1.100000e-06	3.447684e-06	1.794203e-08	2.490896e+01	1.177486e+03
1.110000e-06	3.559864e-06	1.832830e-08	2.571944e+01	1.203025e+03
1.120000e-06	3.670651e-06	1.869031e-08	2.651986e+01	1.226986e+03
1.130000e-06	3.780190e-06	1.903147e-08	2.731127e+01	1.249502e+03
1.140000e-06	3.888602e-06	1.935499e-08	2.809453e+01	1.270714e+03
1.150000e-06	3.995694e-06	1.966311e-08	2.886825e+01	1.290756e+03
1.160000e-06	4.101274e-06	1.995473e-08	2.963104e+01	1.309748e+03
1.170000e-06	4.205306e-06	2.023078e-08	3.038266e+01	1.327782e+03
1.180000e-06	4.307810e-06	2.049258e-08	3.112323e+01	1.344924e+03
1.190000e-06	4.408894e-06	2.073860e-08	3.185355e+01	1.361213e+03
1.200000e-06	4.508462e-06	2.097085e-08	3.257291e+01	1.376675e+03
1.210000e-06	4.606350e-06	2.119147e-08	3.328014e+01	1.391327e+03
1.220000e-06	4.702469e-06	2.140076e-08	3.397458e+01	1.405196e+03
1.230000e-06	4.796845e-06	2.159947e-08	3.465643e+01	1.418319e+03
1.240000e-06	4.889604e-06	2.178792e-08	3.532660e+01	1.430750e+03
1.250000e-06	4.980669e-06	2.196676e-08	3.598453e+01	1.442550e+03
1.260000e-06	5.069856e-06	2.213844e-08	3.662889e+01	1.453784e+03
1.270000e-06	5.157134e-06	2.230325e-08	3.725946e+01	1.464508e+03
1.280000e-06	5.242590e-06	2.246039e-08	3.787687e+01	1.474765e+03
1.290000e-06	5.326254e-06	2.260974e-08	3.848133e+01	1.484576e+03
1.300000e-06	5.407954e-06	2.275201e-08	3.907160e+01	1.493946e+03
1.310000e-06	5.487596e-06	2.288761e-08	3.964700e+01	1.502866e+03
1.320000e-06	5.565260e-06	2.301664e-08	4.020811e+01	1.511323e+03
1.330000e-06	5.640889e-06	2.313993e-08	4.075451e+01	1.519304e+03
1.340000e-06	5.714348e-06	2.325730e-08	4.128525e+01	1.526811e+03
1.350000e-06	5.785647e-06	2.336788e-08	4.180037e+01	1.533856e+03
1.360000e-06	5.854861e-06	2.346985e-08	4.230043e+01	1.540467e+03
1.370000e-06	5.921982e-06	2.356478e-08	4.278537e+01	1.546680e+03
1.380000e-06	5.986954e-06	2.365530e-08	4.325478e+01	1.552536e+03
1.390000e-06	6.049795e-06	2.374125e-08	4.370879e+01	1.558076e+03
1.400000e-06	6.110621e-06	2.382022e-08	4.414826e+01	1.563331e+03
1.410000e-06	6.169371e-06	2.389378e-08	4.457271e+01	1.568324e+03
1.420000e-06	6.225867e-06	2.396498e-08	4.498088e+01	1.573070e+03
1.430000e-06	6.280105e-06	2.403371e-08	4.537274e+01	1.577575e+03
1.440000e-06	6.331875e-06	2.409956e-08	4.574678e+01	1.581840e+03
1.450000e-06	6.381005e-06	2.416194e-08	4.610173e+01	1.585864e+03
1.460000e-06	6.427706e-06	2.422145e-08	4.643914e+01	1.589647e+03
1.470000e-06	6.472236e-06	2.427770e-08	4.676086e+01	1.593188e+03
1.480000e-06	6.514519e-06	2.432794e-08	4.706635e+01	1.596490e+03
1.490000e-06	6.554382e-06	2.437348e-08	4.735436e+01	1.599554e+03
1.500000e-06	6.591984e-06	2.441536e-08	4.762603e+01	1.602382e+03
1.510000e-06	6.627375e-06	2.445343e-08	4.788172e+01	1.604973e+03
1.520000e-06	6.660360e-06	2.448821e-08	4.812003e+01	1.607329e+03
1.530000e-06	6.690945e-06	2.451881e-08	4.834100e+01	1.609448e+03
1.540000e-06	6.719235e-06	2.454692e-08	4.854539e+01	1.611332e+03
1.550000e-06	6.745102e-06	2.457364e-08	4.873227e+01	1.612983e+03
1.560000e-06	6.768442e-06	2.459723e-08	4.890090e+01	1.614408e+03
1.570000e-06	6.789380e-06	2.461516e-08	4.905218e+01	1.615615e+03
1.580000e-06	6.807987e-06	2.462865e-08	4.918661e+01	1.616613e+03
1.590000e-06	6.824100e-06	2.463942e-08	4.930302e+01	1.617414e+03
1.600000e-06	6.837578e-06	2.464665e-08	4.940040e+01	1.618028e+03
1.610000e-06	6.848363e-06	2.465223e-08	4.947832e+01	1.618467e+03
1.620000e-06	6.856491e-06	2.465792e-08	4.953704e+01	1.618741e+03
1.630000e-06	6.862168e-06	2.466342e-08	4.957806e+01	1.618859e+03
1.640000e-06	6.865513e-06	2.466692e-08	4.960222e+01	1.618832e+03
1.650000e-06	6.866437e-06	2.466548e-08	4.960890e+01	1.618664e+03
1.660000e-06	6.864955e-06	2.466108e-08	4.959820e+01	1.618362e+03
1.670000e-06	6.861250e-06	2.465227e-08	4.957142e+01	1.617923e+03
1.680000e-06	6.855236e-06	2.464135e-08	4.952797e+01	1.617344e+03
1.690000e-06	6.846852e-06	2.462913e-08	4.946740e+01	1.616615e+03
1.700000e-06	6.836261e-06	2.461636e-08	4.939088e+01	1.615723e+03
1.710000e-06	6.823357e-06	2.460483e-08	4.929766e+01	1.614657e+03
1.720000e-06	6.808061e-06	2.459215e-08	4.918714e+01	1.613409e+03
1.730000e-06	6.790613e-06	2.457142e-08	4.906109e+01	1.611982e+03
1.740000e-06	6.771047e-06	2.453012e-08	4.891973e+01	1.610387e+03
1.750000e-06	6.748701e-06	2.447570e-08	4.875828e+01	1.608648e+03
1.760000e-06	6.723133e-06	2.446191e-08	4.857355e+01	1.606798e+03
1.770000e-06	6.694771e-06	2.445104e-08	4.836864e+01	1.604870e+03
1.780000e-06	6.664069e-06	2.443807e-08	4.814683e+01	1.602893e+03
1.790000e-06	6.631480e-06	2.441803e-08	4.791138e+01	1.600879e+03
1.800000e-06	6.597461e-06	2.437739e-08	4.766559e+01	1.598821e+03
1.810000e-06	6.561615e-06	2.432062e-08	4.740661e+01	1.596690e+03
1.820000e-06	6.523318e-06	2.431464e-08	4.712992e+01	1.594434e+03
1.830000e-06	6.482737e-06	2.431339e-08	4.683673e+01	1.591992e+03
1.840000e-06	6.440010e-06	2.427132e-08	4.652803e+01	1.589300e+03
1.850000e-06	6.395015e-06	2.424440e-08	4.620296e+01	1.586304e+03
1.860000e-06	6.347702e-06	2.414925e-08	4.586113e+01	1.582974e+03
1.870000e-06	6.297966e-06	2.408254e-08	4.550179e+01	1.579304e+03
1.880000e-06	6.245840e-06	2.403172e-08	4.512519e+01	1.575315e+03
1.890000e-06	6.191123e-06	2.395997e-08	4.472986e+01	1.571049e+03
1.900000e-06	6.133838e-06	2.392086e-08	4.431599e+01	1.566556e+03
1.910000e-06	6.074291e-06	2.383543e-08	4.388577e+01	1.561882e+03
1.920000e-06	6.012376e-06	2.377398e-08	4.343845e+01	1.557058e+03
1.930000e-06	5.948201e-06	2.370086e-08	4.297479e+01	1.552089e+03
1.940000e-06	5.881956e-06	2.359969e-08	4.249619e+01	1.546958e+03
1.950000e-06	5.813603e-06	2.353477e-08	4.200234e+01	1.541628e+03
1.960000e-06	5.742925e-06	2.343486e-08	4.149171e+01	1.536049e+03
1.970000e-06	5.669920e-06	2.335463e-08	4.096426e+01	1.530177e+03
1.980000e-06	5.594802e-06	2.325049e-08	4.042154e+01	1.523979e+03
1.990000e-06	5.517386e-06	2.315278e-08	3.986222e+01	1.517441e+03
2.000000e-06	5.437764e-06	2.306243e-08	3.928697e+01	1.510568e+03
2.010000e-06	5.356298e-06	2.294043e-08	3.869839e+01	1.503381e+03
2.020000e-06	5.273096e-06	2.283749e-08	3.809727e+01	1.495905e+03
2.030000e-06	5.188010e-06	2.270932e-08	3.748254e+01	1.488158e+03
2.040000e-06	5.100842e-06	2.259174e-08	3.685276e+01	1.480145e+03
2.050000e-06	5.011814e-06	2.246676e-08	3.620955e+01	1.471850e+03
2.060000e-06	4.921204e-06	2.233397e-08	3.555491e+01	1.463240e+03
2.070000e-06	4.828995e-06	2.219688e-08	3.488871e+01	1.454271e+03
2.080000e-06	4.735000e-06	2.204627e-08	3.420962e+01	1.444896e+03
2.090000e-06	4.639221e-06	2.190513e-08	3.351762e+01	1.435077e+03
2.100000e-06	4.541858e-06	2.174883e-08	3.281419e+01	1.424793e+03
2.110000e-06	4.443010e-06	2.159172e-08	3.210003e+01	1.414036e+03
2.120000e-06	4.342642e-06	2.142039e-08	3.137489e+01	1.402815e+03
2.130000e-06	4.240610e-06	2.123741e-08	3.063772e+01	1.391142e+03
2.140000e-06	4.136913e-06	2.104446e-08	2.988853e+01	1.379025e+03
2.150000e-06	4.031722e-06	2.085031e-08	2.912854e+01	1.366455e+03
2.160000e-06	3.925181e-06	2.065774e-08	2.835880e+01	1.353404e+03
2.170000e-06	3.817325e-06	2.045714e-08	2.757956e+01	1.339825e+03
2.180000e-06	3.708134e-06	2.024896e-08	2.679067e+01	1.325655e+03
2.190000e-06	3.597554e-06	2.002555e-08	2.599175e+01	1.310830e+03
2.200000e-06	3.485578e-06	1.979000e-08	2.518274e+01	1.295290e+03
2.210000e-06	3.372254e-06	1.954052e-08	2.436399e+01	1.278989e+03
2.220000e-06	3.257554e-06	1.928390e-08	2.353530e+01	1.261899e+03
2.230000e-06	3.141489e-06	1.901227e-08	2.269675e+01	1.244001e+03
2.240000e-06	3.024095e-06	1.872574e-08	2.184860e+01	1.225281e+03
2.250000e-06	2.905422e-06	1.842462e-08	2.099121e+01	1.205714e+03
2.260000e-06	2.785560e-06	1.811116e-08	2.012522e+01	1.185254e+03
2.270000e-06	2.664642e-06	1.778462e-08	1.925161e+01	1.163829e+03
2.280000e-06	2.542824e-06	1.744422e-08	1.837149e+01	1.141339e+03
2.290000e-06	2.420145e-06	1.708902e-08	1.748516e+01	1.117664e+03
2.300000e-06	2.296601e-06	1.671196e-08	1.659257e+01	1.092673e+03
2.310000e-06	2.172265e-06	1.630928e-08	1.569426e+01	1.066238e+03
2.320000e-06	2.047165e-06	1.587941e-08	1.479044e+01	1.038241e+03
2.330000e-06	1.921381e-06	1.542507e-08	1.388167e+01	1.008576e+03
2.340000e-06	1.794950e-06	1.494365e-08	1.296822e+01	9.771389e+02
2.350000e-06	1.667818e-06	1.443645e-08	1.204972e+01	9.438226e+02
2.360000e-06	1.540028e-06	1.389879e-08	1.112645e+01	9.084995e+02
2.370000e-06	1.411718e-06	1.332737e-08	1.019943e+01	8.710160e+02
2.380000e-06	1.283024e-06	1.271969e-08	9.269645e+00	8.311951e+02
2.390000e-06	1.153936e-06	1.207243e-08	8.337000e+00	7.888539e+02
2.400000e-06	1.024487e-06	1.138515e-08	7.401751e+00	7.438339e+02
2.410000e-06	8.947534e-07	1.065695e-08	6.464449e+00	6.960413e+02
2.420000e-06	7.647480e-07	9.887628e-09	5.525181e+00	6.454868e+02
2.430000e-06	6.345039e-07	9.077217e-09	4.584189e+00	5.923161e+02
2.440000e-06	5.041025e-07	8.229710e-09	3.642060e+00	5.368205e+02
2.450000e-06	3.736058e-07	7.352147e-09	2.699242e+00	4.794206e+02
2.460000e-06	2.430025e-07	6.454511e-09	1.755654e+00	4.206224e+02
2.470000e-06	1.122689e-07	5.546360e-09	8.111245e-01	3.609509e+02
2.480000e-06	-1.854439e-08	4.630498e-09	-1.339802e-01	3.008719e+02
2.490000e-06	-1.493641e-07	3.710400e-09	-1.079131e+00	2.407184e+02
2.500000e-06	-2.801180e-07	2.790873e-09	-2.023808e+00	1.806357e+02
2.510000e-06	-4.108100e-07	1.871160e-09	-2.968036e+00	1.205610e+02
2.520000e-06	-5.414303e-07	9.476229e-10	-3.911747e+00	6.024200e+01
2.530000e-06	-6.719375e-07	1.495256e-11	-4.854640e+00	-7.043648e-01
2.540000e-06	-8.022564e-07	-9.314424e-10	-5.796173e+00	-6.270323e+01
2.550000e-06	-9.323146e-07	-1.895013e-09	-6.735823e+00	-1.261187e+02
2.560000e-06	-1.062135e-06	-2.880341e-09	-7.673757e+00	-1.911560e+02
2.570000e-06	-1.191659e-06	-3.891412e-09	-8.609546e+00	-2.577873e+02
2.580000e-06	-1.320789e-06	-4.927633e-09	-9.542490e+00	-3.257167e+02
2.590000e-06	-1.449500e-06	-5.979884e-09	-1.047240e+01	-3.943901e+02
2.600000e-06	-1.577786e-06	-7.033789e-09	-1.139925e+01	-4.630486e+02
2.610000e-06	-1.705460e-06	-8.073070e-09	-1.232167e+01	-5.308156e+02
2.620000e-06	-1.832301e-06	-9.084652e-09	-1.323808e+01	-5.968002e+02
2.630000e-06	-1.958309e-06	-1.005569e-08	-1.414847e+01	-6.601987e+02
2.640000e-06	-2.083642e-06	-1.097425e-08	-1.505398e+01	-7.203764e+02
2.650000e-06	-2.208277e-06	-1.183846e-08	-1.595445e+01	-7.769183e+02
2.660000e-06	-2.331995e-06	-1.264551e-08	-1.684829e+01	-8.296417e+02
2.670000e-06	-2.454706e-06	-1.339385e-08	-1.773486e+01	-8.785744e+02
2.680000e-06	-2.576505e-06	-1.409027e-08	-1.861483e+01	-9.239064e+02
2.690000e-06	-2.697464e-06	-1.473966e-08	-1.948874e+01	-9.659282e+02
2.700000e-06	-2.817416e-06	-1.534372e-08	-2.035538e+01	-1.004969e+03
2.710000e-06	-2.936181e-06	-1.590489e-08	-2.121344e+01	-1.041347e+03
2.720000e-06	-3.053819e-06	-1.642771e-08	-2.206335e+01	-1.075334e+03
2.730000e-06	-3.170267e-06	-1.691544e-08	-2.290467e+01	-1.107151e+03
2.740000e-06	-3.285374e-06	-1.737061e-08	-2.373629e+01	-1.136963e+03
2.750000e-06	-3.399051e-06	-1.779501e-08	-2.455759e+01	-1.164907e+03
2.760000e-06	-3.511352e-06	-1.819110e-08	-2.536895e+01	-1.191101e+03
2.770000e-06	-3.622300e-06	-1.856686e-08	-2.617053e+01	-1.215667e+03
2.780000e-06	-3.731913e-06	-1.892406e-08	-2.696247e+01	-1.238735e+03
2.790000e-06	-3.840360e-06	-1.925901e-08	-2.774598e+01	-1.260443e+03
2.800000e-06	-3.947616e-06	-1.957173e-08	-2.852089e+01	-1.280930e+03
2.810000e-06	-4.053606e-06	-1.986729e-08	-2.928665e+01	-1.300321e+03
2.820000e-06	-4.158203e-06	-2.014938e-08	-3.004234e+01	-1.318723e+03
2.830000e-06	-4.261201e-06	-2.041718e-08	-3.078649e+01	-1.336209e+03
2.840000e-06	-4.362587e-06	-2.067142e-08	-3.151899e+01	-1.352830e+03
2.850000e-06	-4.462430e-06	-2.091149e-08	-3.224034e+01	-1.368615e+03
2.860000e-06	-4.560753e-06	-2.113801e-08	-3.295071e+01	-1.383583e+03
2.870000e-06	-4.657568e-06	-2.135217e-08	-3.365018e+01	-1.397756e+03
2.880000e-06	-4.752723e-06	-2.155650e-08	-3.433766e+01	-1.411167e+03
2.890000e-06	-4.846128e-06	-2.175388e-08	-3.501250e+01	-1.423863e+03
2.900000e-06	-4.937795e-06	-2.194220e-08	-3.567477e+01	-1.435904e+03
2.910000e-06	-5.027715e-06	-2.212100e-08	-3.632443e+01	-1.447353e+03
2.920000e-06	-5.115774e-06	-2.228997e-08	-3.696064e+01	-1.458272e+03
2.930000e-06	-5.201847e-06	-2.244906e-08	-3.758251e+01	-1.468709e+03
2.940000e-06	-5.285995e-06	-2.259939e-08	-3.819046e+01	-1.478694e+03
