# Temperatura_=_88.07
# Concentracion g/m^3_=_28200.0
# C_Vs_to_Am_M_A/Vsm_=_65563218390.804596
# pendiente_HvsI_1/m_=_3716.3
# ordenada_HvsI_A/m_=_1297.0
# frecuencia_Hz_=_302298.95866433525

Tiempo_(s)	Campo_(V.s)	Magnetizacion_(V.s)	Campo_(kA/m)	Magnetizacion_(A/m)
0.000000e+00	-6.872880e-06	-2.875112e-08	-4.951896e+01	-1.882552e+03
1.000000e-08	-6.870583e-06	-2.874427e-08	-4.950242e+01	-1.882057e+03
2.000000e-08	-6.865914e-06	-2.873515e-08	-4.946878e+01	-1.881367e+03
3.000000e-08	-6.859090e-06	-2.872076e-08	-4.941961e+01	-1.880494e+03
4.000000e-08	-6.850064e-06	-2.870662e-08	-4.935458e+01	-1.879446e+03
5.000000e-08	-6.838539e-06	-2.868942e-08	-4.927154e+01	-1.878221e+03
6.000000e-08	-6.824399e-06	-2.867019e-08	-4.916966e+01	-1.876810e+03
7.000000e-08	-6.807820e-06	-2.864279e-08	-4.905021e+01	-1.875197e+03
8.000000e-08	-6.789138e-06	-2.860521e-08	-4.891561e+01	-1.873367e+03
9.000000e-08	-6.768370e-06	-2.859282e-08	-4.876597e+01	-1.871316e+03
1.000000e-07	-6.745056e-06	-2.860485e-08	-4.859800e+01	-1.869056e+03
1.100000e-07	-6.718879e-06	-2.854107e-08	-4.840940e+01	-1.866615e+03
1.200000e-07	-6.690109e-06	-2.846296e-08	-4.820210e+01	-1.864037e+03
1.300000e-07	-6.659091e-06	-2.842754e-08	-4.797862e+01	-1.861369e+03
1.400000e-07	-6.625889e-06	-2.836876e-08	-4.773940e+01	-1.858648e+03
1.500000e-07	-6.590757e-06	-2.827975e-08	-4.748628e+01	-1.855889e+03
1.600000e-07	-6.553900e-06	-2.830243e-08	-4.722072e+01	-1.853075e+03
1.700000e-07	-6.515023e-06	-2.827093e-08	-4.694061e+01	-1.850157e+03
1.800000e-07	-6.473893e-06	-2.813255e-08	-4.664428e+01	-1.847055e+03
1.900000e-07	-6.430350e-06	-2.814131e-08	-4.633055e+01	-1.843681e+03
2.000000e-07	-6.384341e-06	-2.804288e-08	-4.599905e+01	-1.839949e+03
2.100000e-07	-6.336007e-06	-2.795515e-08	-4.565081e+01	-1.835797e+03
2.200000e-07	-6.285038e-06	-2.793660e-08	-4.528358e+01	-1.831202e+03
2.300000e-07	-6.231421e-06	-2.781934e-08	-4.489727e+01	-1.826177e+03
2.400000e-07	-6.175478e-06	-2.774867e-08	-4.449420e+01	-1.820774e+03
2.500000e-07	-6.117131e-06	-2.765575e-08	-4.407381e+01	-1.815062e+03
2.600000e-07	-6.056484e-06	-2.756987e-08	-4.363685e+01	-1.809110e+03
2.700000e-07	-5.993668e-06	-2.749588e-08	-4.318426e+01	-1.802970e+03
2.800000e-07	-5.928634e-06	-2.738889e-08	-4.271569e+01	-1.796660e+03
2.900000e-07	-5.861378e-06	-2.728949e-08	-4.223111e+01	-1.790164e+03
3.000000e-07	-5.791898e-06	-2.716685e-08	-4.173051e+01	-1.783435e+03
3.100000e-07	-5.720234e-06	-2.706320e-08	-4.121418e+01	-1.776407e+03
3.200000e-07	-5.646312e-06	-2.695427e-08	-4.068157e+01	-1.769018e+03
3.300000e-07	-5.570021e-06	-2.684255e-08	-4.013189e+01	-1.761222e+03
3.400000e-07	-5.491482e-06	-2.672882e-08	-3.956602e+01	-1.753000e+03
3.500000e-07	-5.410857e-06	-2.658046e-08	-3.898512e+01	-1.744364e+03
3.600000e-07	-5.328302e-06	-2.645263e-08	-3.839031e+01	-1.735349e+03
3.700000e-07	-5.243971e-06	-2.630754e-08	-3.778271e+01	-1.725994e+03
3.800000e-07	-5.157921e-06	-2.615971e-08	-3.716272e+01	-1.716332e+03
3.900000e-07	-5.070154e-06	-2.601496e-08	-3.653036e+01	-1.706374e+03
4.000000e-07	-4.980647e-06	-2.584862e-08	-3.588547e+01	-1.696101e+03
4.100000e-07	-4.889321e-06	-2.567849e-08	-3.522746e+01	-1.685467e+03
4.200000e-07	-4.796265e-06	-2.550528e-08	-3.455699e+01	-1.674411e+03
4.300000e-07	-4.701659e-06	-2.533721e-08	-3.387536e+01	-1.662872e+03
4.400000e-07	-4.605399e-06	-2.514982e-08	-3.318181e+01	-1.650801e+03
4.500000e-07	-4.507441e-06	-2.495473e-08	-3.247602e+01	-1.638176e+03
4.600000e-07	-4.407772e-06	-2.475777e-08	-3.175791e+01	-1.624998e+03
4.700000e-07	-4.306454e-06	-2.454943e-08	-3.102792e+01	-1.611290e+03
4.800000e-07	-4.203684e-06	-2.433433e-08	-3.028746e+01	-1.597077e+03
4.900000e-07	-4.099447e-06	-2.410961e-08	-2.953643e+01	-1.582376e+03
5.000000e-07	-3.993733e-06	-2.387830e-08	-2.877477e+01	-1.567179e+03
5.100000e-07	-3.886488e-06	-2.363041e-08	-2.800207e+01	-1.551444e+03
5.200000e-07	-3.777806e-06	-2.337543e-08	-2.721902e+01	-1.535103e+03
5.300000e-07	-3.667876e-06	-2.311424e-08	-2.642698e+01	-1.518071e+03
5.400000e-07	-3.556627e-06	-2.284309e-08	-2.562543e+01	-1.500261e+03
5.500000e-07	-3.444006e-06	-2.255795e-08	-2.481399e+01	-1.481603e+03
5.600000e-07	-3.329942e-06	-2.225815e-08	-2.399216e+01	-1.462050e+03
5.700000e-07	-3.214362e-06	-2.194800e-08	-2.315942e+01	-1.441584e+03
5.800000e-07	-3.097415e-06	-2.162182e-08	-2.231681e+01	-1.420205e+03
5.900000e-07	-2.979341e-06	-2.128240e-08	-2.146609e+01	-1.397913e+03
6.000000e-07	-2.860170e-06	-2.092715e-08	-2.060747e+01	-1.374688e+03
6.100000e-07	-2.739881e-06	-2.055551e-08	-1.974079e+01	-1.350478e+03
6.200000e-07	-2.618649e-06	-2.016544e-08	-1.886732e+01	-1.325183e+03
6.300000e-07	-2.496498e-06	-1.975593e-08	-1.798722e+01	-1.298667e+03
6.400000e-07	-2.373245e-06	-1.932734e-08	-1.709918e+01	-1.270764e+03
6.500000e-07	-2.249029e-06	-1.887718e-08	-1.620421e+01	-1.241303e+03
6.600000e-07	-2.124129e-06	-1.840276e-08	-1.530431e+01	-1.210123e+03
6.700000e-07	-1.998608e-06	-1.789998e-08	-1.439994e+01	-1.177089e+03
6.800000e-07	-1.872479e-06	-1.736774e-08	-1.349117e+01	-1.142091e+03
6.900000e-07	-1.745714e-06	-1.680392e-08	-1.257783e+01	-1.105031e+03
7.000000e-07	-1.618247e-06	-1.620860e-08	-1.165944e+01	-1.065803e+03
7.100000e-07	-1.490124e-06	-1.557713e-08	-1.073632e+01	-1.024273e+03
7.200000e-07	-1.361563e-06	-1.490552e-08	-9.810032e+00	-9.802603e+02
7.300000e-07	-1.232659e-06	-1.418974e-08	-8.881285e+00	-9.335443e+02
7.400000e-07	-1.103393e-06	-1.342568e-08	-7.949926e+00	-8.838866e+02
7.500000e-07	-9.738116e-07	-1.261464e-08	-7.016294e+00	-8.310741e+02
7.600000e-07	-8.438954e-07	-1.175711e-08	-6.080250e+00	-7.749741e+02
7.700000e-07	-7.136691e-07	-1.085412e-08	-5.141972e+00	-7.155876e+02
7.800000e-07	-5.831727e-07	-9.903825e-09	-4.201748e+00	-6.530864e+02
7.900000e-07	-4.523779e-07	-8.913212e-09	-3.259374e+00	-5.878209e+02
8.000000e-07	-3.213909e-07	-7.889226e-09	-2.315615e+00	-5.202911e+02
8.100000e-07	-1.903003e-07	-6.835394e-09	-1.371110e+00	-4.510816e+02
8.200000e-07	-5.911940e-08	-5.760164e-09	-4.259541e-01	-3.807717e+02
8.300000e-07	7.212536e-08	-4.674303e-09	5.196619e-01	-3.098372e+02
8.400000e-07	2.034019e-07	-3.585237e-09	1.465506e+00	-2.385668e+02
8.500000e-07	3.346393e-07	-2.493001e-09	2.411070e+00	-1.670125e+02
8.600000e-07	4.657575e-07	-1.395940e-09	3.355774e+00	-9.498935e+01
8.700000e-07	5.967093e-07	-2.882622e-10	4.299279e+00	-2.212867e+01
8.800000e-07	7.274406e-07	8.392248e-10	5.241195e+00	5.202371e+01
8.900000e-07	8.578559e-07	1.995794e-09	6.180835e+00	1.278810e+02
9.000000e-07	9.879437e-07	3.181376e-09	7.118116e+00	2.056868e+02
9.100000e-07	1.117690e-06	4.393645e-09	8.052937e+00	2.854109e+02
9.200000e-07	1.247069e-06	5.634085e-09	8.985108e+00	3.666911e+02
9.300000e-07	1.376137e-06	6.892913e-09	9.915040e+00	4.488352e+02
9.400000e-07	1.504821e-06	8.149864e-09	1.084221e+01	5.308831e+02
9.500000e-07	1.632893e-06	9.383697e-09	1.176496e+01	6.117169e+02
9.600000e-07	1.760184e-06	1.057724e-08	1.268209e+01	6.901984e+02
9.700000e-07	1.886706e-06	1.171586e-08	1.359368e+01	7.653072e+02
9.800000e-07	2.012576e-06	1.278797e-08	1.450057e+01	8.362536e+02
9.900000e-07	2.137920e-06	1.378939e-08	1.540367e+01	9.025485e+02
1.000000e-06	2.262600e-06	1.471859e-08	1.630199e+01	9.640194e+02
1.010000e-06	2.386421e-06	1.557656e-08	1.719411e+01	1.020777e+03
1.020000e-06	2.509316e-06	1.637330e-08	1.807957e+01	1.073144e+03
1.030000e-06	2.631156e-06	1.711105e-08	1.895743e+01	1.121563e+03
1.040000e-06	2.752006e-06	1.779338e-08	1.982815e+01	1.166504e+03
1.050000e-06	2.871846e-06	1.842976e-08	2.069160e+01	1.208397e+03
1.060000e-06	2.990554e-06	1.902655e-08	2.154688e+01	1.247589e+03
1.070000e-06	3.108206e-06	1.958566e-08	2.239456e+01	1.284326e+03
1.080000e-06	3.224707e-06	2.010776e-08	2.323396e+01	1.318780e+03
1.090000e-06	3.339863e-06	2.059336e-08	2.406365e+01	1.351072e+03
1.100000e-06	3.453659e-06	2.104833e-08	2.488354e+01	1.381310e+03
1.110000e-06	3.566134e-06	2.147724e-08	2.569393e+01	1.409618e+03
1.120000e-06	3.677294e-06	2.188235e-08	2.649483e+01	1.436150e+03
1.130000e-06	3.787173e-06	2.226491e-08	2.728651e+01	1.461082e+03
1.140000e-06	3.895892e-06	2.262375e-08	2.806982e+01	1.484600e+03
1.150000e-06	4.003375e-06	2.296405e-08	2.884424e+01	1.506881e+03
1.160000e-06	4.109388e-06	2.328833e-08	2.960806e+01	1.528065e+03
1.170000e-06	4.213834e-06	2.359786e-08	3.036060e+01	1.548252e+03
1.180000e-06	4.316708e-06	2.389129e-08	3.110180e+01	1.567498e+03
1.190000e-06	4.418040e-06	2.416912e-08	3.183189e+01	1.585825e+03
1.200000e-06	4.517854e-06	2.443077e-08	3.255105e+01	1.603241e+03
1.210000e-06	4.616021e-06	2.467734e-08	3.325834e+01	1.619756e+03
1.220000e-06	4.712410e-06	2.491170e-08	3.395282e+01	1.635399e+03
1.230000e-06	4.807062e-06	2.513685e-08	3.463479e+01	1.650220e+03
1.240000e-06	4.900113e-06	2.535242e-08	3.530522e+01	1.664289e+03
1.250000e-06	4.991534e-06	2.555830e-08	3.596390e+01	1.677688e+03
1.260000e-06	5.081075e-06	2.575473e-08	3.660905e+01	1.690490e+03
1.270000e-06	5.168662e-06	2.594153e-08	3.724011e+01	1.702755e+03
1.280000e-06	5.254408e-06	2.611907e-08	3.785791e+01	1.714517e+03
1.290000e-06	5.338378e-06	2.628633e-08	3.846291e+01	1.725787e+03
1.300000e-06	5.420402e-06	2.644567e-08	3.905389e+01	1.736558e+03
1.310000e-06	5.500351e-06	2.659923e-08	3.962992e+01	1.746818e+03
1.320000e-06	5.578281e-06	2.674810e-08	4.019141e+01	1.756560e+03
1.330000e-06	5.654182e-06	2.689234e-08	4.073827e+01	1.765791e+03
1.340000e-06	5.727899e-06	2.703048e-08	4.126940e+01	1.774531e+03
1.350000e-06	5.799438e-06	2.715973e-08	4.178484e+01	1.782815e+03
1.360000e-06	5.868933e-06	2.728122e-08	4.228555e+01	1.790683e+03
1.370000e-06	5.936332e-06	2.739719e-08	4.277116e+01	1.798166e+03
1.380000e-06	6.001504e-06	2.750801e-08	4.324072e+01	1.805289e+03
1.390000e-06	6.064500e-06	2.761167e-08	4.369460e+01	1.812057e+03
1.400000e-06	6.125510e-06	2.770806e-08	4.413419e+01	1.818465e+03
1.410000e-06	6.184485e-06	2.779851e-08	4.455910e+01	1.824503e+03
1.420000e-06	6.241219e-06	2.788236e-08	4.496786e+01	1.830163e+03
1.430000e-06	6.295647e-06	2.796113e-08	4.536002e+01	1.835449e+03
1.440000e-06	6.347634e-06	2.803754e-08	4.573458e+01	1.840383e+03
1.450000e-06	6.396973e-06	2.811193e-08	4.609007e+01	1.844998e+03
1.460000e-06	6.443868e-06	2.818199e-08	4.642795e+01	1.849338e+03
1.470000e-06	6.488629e-06	2.824621e-08	4.675045e+01	1.853445e+03
1.480000e-06	6.531154e-06	2.830421e-08	4.705684e+01	1.857350e+03
1.490000e-06	6.571204e-06	2.835843e-08	4.734540e+01	1.861062e+03
1.500000e-06	6.608959e-06	2.840998e-08	4.761742e+01	1.864574e+03
1.510000e-06	6.644555e-06	2.845838e-08	4.787389e+01	1.867856e+03
1.520000e-06	6.677722e-06	2.850401e-08	4.811286e+01	1.870872e+03
1.530000e-06	6.708447e-06	2.854636e-08	4.833423e+01	1.873587e+03
1.540000e-06	6.736934e-06	2.858465e-08	4.853948e+01	1.875976e+03
1.550000e-06	6.763007e-06	2.861713e-08	4.872733e+01	1.878033e+03
1.560000e-06	6.786427e-06	2.864450e-08	4.889607e+01	1.879771e+03
1.570000e-06	6.807487e-06	2.866699e-08	4.904781e+01	1.881219e+03
1.580000e-06	6.826317e-06	2.868422e-08	4.918348e+01	1.882411e+03
1.590000e-06	6.842594e-06	2.869665e-08	4.930076e+01	1.883383e+03
1.600000e-06	6.856239e-06	2.870548e-08	4.939907e+01	1.884159e+03
1.610000e-06	6.867196e-06	2.871336e-08	4.947801e+01	1.884749e+03
1.620000e-06	6.875376e-06	2.872031e-08	4.953695e+01	1.885154e+03
1.630000e-06	6.881055e-06	2.872588e-08	4.957787e+01	1.885364e+03
1.640000e-06	6.884436e-06	2.872930e-08	4.960223e+01	1.885369e+03
1.650000e-06	6.885362e-06	2.872973e-08	4.960890e+01	1.885163e+03
1.660000e-06	6.883871e-06	2.872474e-08	4.959816e+01	1.884748e+03
1.670000e-06	6.880199e-06	2.870850e-08	4.957170e+01	1.884133e+03
1.680000e-06	6.874238e-06	2.869397e-08	4.952876e+01	1.883330e+03
1.690000e-06	6.865923e-06	2.867887e-08	4.946884e+01	1.882350e+03
1.700000e-06	6.855354e-06	2.866169e-08	4.939269e+01	1.881195e+03
1.710000e-06	6.842459e-06	2.864492e-08	4.929979e+01	1.879858e+03
1.720000e-06	6.827164e-06	2.862908e-08	4.918959e+01	1.878326e+03
1.730000e-06	6.809670e-06	2.861612e-08	4.906354e+01	1.876582e+03
1.740000e-06	6.790093e-06	2.854714e-08	4.892249e+01	1.874617e+03
1.750000e-06	6.767768e-06	2.846928e-08	4.876164e+01	1.872436e+03
1.760000e-06	6.742171e-06	2.847767e-08	4.857721e+01	1.870061e+03
1.770000e-06	6.713655e-06	2.846017e-08	4.837175e+01	1.867531e+03
1.780000e-06	6.682771e-06	2.840693e-08	4.814924e+01	1.864893e+03
1.790000e-06	6.650110e-06	2.842622e-08	4.791391e+01	1.862188e+03
1.800000e-06	6.616100e-06	2.835599e-08	4.766887e+01	1.859444e+03
1.810000e-06	6.580278e-06	2.823745e-08	4.741077e+01	1.856656e+03
1.820000e-06	6.541905e-06	2.830558e-08	4.713430e+01	1.853786e+03
1.830000e-06	6.501234e-06	2.822469e-08	4.684126e+01	1.850767e+03
1.840000e-06	6.458453e-06	2.819547e-08	4.653303e+01	1.847510e+03
1.850000e-06	6.413325e-06	2.820996e-08	4.620788e+01	1.843927e+03
1.860000e-06	6.365900e-06	2.802589e-08	4.586619e+01	1.839945e+03
1.870000e-06	6.316060e-06	2.802811e-08	4.550709e+01	1.835524e+03
1.880000e-06	6.263832e-06	2.793045e-08	4.513079e+01	1.830663e+03
1.890000e-06	6.209052e-06	2.784162e-08	4.473610e+01	1.825401e+03
1.900000e-06	6.151662e-06	2.782059e-08	4.432260e+01	1.819801e+03
1.910000e-06	6.092054e-06	2.764640e-08	4.389313e+01	1.813935e+03
1.920000e-06	6.030119e-06	2.761042e-08	4.344689e+01	1.807864e+03
1.930000e-06	5.965908e-06	2.750763e-08	4.298425e+01	1.801621e+03
1.940000e-06	5.899609e-06	2.740750e-08	4.250657e+01	1.795202e+03
1.950000e-06	5.831058e-06	2.733973e-08	4.201266e+01	1.788571e+03
1.960000e-06	5.760164e-06	2.717996e-08	4.150187e+01	1.781668e+03
1.970000e-06	5.687016e-06	2.710219e-08	4.097484e+01	1.774427e+03
1.980000e-06	5.611732e-06	2.693293e-08	4.043242e+01	1.766794e+03
1.990000e-06	5.534086e-06	2.682785e-08	3.987298e+01	1.758739e+03
2.000000e-06	5.454241e-06	2.671870e-08	3.929770e+01	1.750263e+03
2.010000e-06	5.372587e-06	2.657966e-08	3.870938e+01	1.741391e+03
2.020000e-06	5.289155e-06	2.646817e-08	3.810826e+01	1.732165e+03
2.030000e-06	5.203853e-06	2.628202e-08	3.749366e+01	1.722621e+03
2.040000e-06	5.116511e-06	2.615255e-08	3.686436e+01	1.712779e+03
2.050000e-06	5.027307e-06	2.598920e-08	3.622165e+01	1.702633e+03
2.060000e-06	4.936477e-06	2.583603e-08	3.556722e+01	1.692147e+03
2.070000e-06	4.844041e-06	2.566454e-08	3.490122e+01	1.681265e+03
2.080000e-06	4.749898e-06	2.548441e-08	3.422292e+01	1.669922e+03
2.090000e-06	4.653954e-06	2.531483e-08	3.353165e+01	1.658064e+03
2.100000e-06	4.556385e-06	2.511425e-08	3.282867e+01	1.645657e+03
2.110000e-06	4.457336e-06	2.493152e-08	3.211502e+01	1.632694e+03
2.120000e-06	4.356741e-06	2.472520e-08	3.139023e+01	1.619190e+03
2.130000e-06	4.254562e-06	2.451701e-08	3.065404e+01	1.605173e+03
2.140000e-06	4.150762e-06	2.428542e-08	2.990616e+01	1.590663e+03
2.150000e-06	4.045422e-06	2.405679e-08	2.914719e+01	1.575663e+03
2.160000e-06	3.938775e-06	2.382212e-08	2.837879e+01	1.560145e+03
2.170000e-06	3.830763e-06	2.357673e-08	2.760058e+01	1.544052e+03
2.180000e-06	3.721338e-06	2.332440e-08	2.681217e+01	1.527301e+03
2.190000e-06	3.610444e-06	2.305638e-08	2.601318e+01	1.509807e+03
2.200000e-06	3.498039e-06	2.278060e-08	2.520331e+01	1.491488e+03
2.210000e-06	3.384318e-06	2.248596e-08	2.438395e+01	1.472290e+03
2.220000e-06	3.269265e-06	2.218498e-08	2.355499e+01	1.452183e+03
2.230000e-06	3.152792e-06	2.186519e-08	2.271581e+01	1.431162e+03
2.240000e-06	3.035073e-06	2.153332e-08	2.186764e+01	1.409229e+03
2.250000e-06	2.916117e-06	2.118247e-08	2.101057e+01	1.386374e+03
2.260000e-06	2.795928e-06	2.082005e-08	2.014461e+01	1.362560e+03
2.270000e-06	2.674772e-06	2.044177e-08	1.927168e+01	1.337705e+03
2.280000e-06	2.552728e-06	2.004690e-08	1.839236e+01	1.311687e+03
2.290000e-06	2.429794e-06	1.963053e-08	1.750662e+01	1.284349e+03
2.300000e-06	2.305937e-06	1.918799e-08	1.661423e+01	1.255520e+03
2.310000e-06	2.181198e-06	1.872160e-08	1.571549e+01	1.225032e+03
2.320000e-06	2.055784e-06	1.822947e-08	1.481188e+01	1.192741e+03
2.330000e-06	1.929831e-06	1.771113e-08	1.390440e+01	1.158526e+03
2.340000e-06	1.803121e-06	1.715962e-08	1.299146e+01	1.122287e+03
2.350000e-06	1.675567e-06	1.657698e-08	1.207243e+01	1.083925e+03
2.360000e-06	1.547400e-06	1.595656e-08	1.114899e+01	1.043318e+03
2.370000e-06	1.418748e-06	1.530017e-08	1.022205e+01	1.000304e+03
2.380000e-06	1.289691e-06	1.460316e-08	9.292201e+00	9.546779e+02
2.390000e-06	1.160293e-06	1.386094e-08	8.359889e+00	9.062034e+02
2.400000e-06	1.030570e-06	1.307163e-08	7.425239e+00	8.546514e+02
2.410000e-06	9.005823e-07	1.223435e-08	6.488678e+00	7.998509e+02
2.420000e-06	7.703769e-07	1.135020e-08	5.550551e+00	7.417447e+02
2.430000e-06	6.399025e-07	1.041648e-08	4.610485e+00	6.804346e+02
2.440000e-06	5.091797e-07	9.439411e-09	3.668630e+00	6.162022e+02
2.450000e-06	3.783286e-07	8.425602e-09	2.725850e+00	5.494946e+02
2.460000e-06	2.473589e-07	7.381417e-09	1.782216e+00	4.808730e+02
2.470000e-06	1.162514e-07	6.313883e-09	8.375892e-01	4.109304e+02
2.480000e-06	-1.497719e-08	5.230030e-09	-1.079104e-01	3.401946e+02
2.490000e-06	-1.462179e-07	4.138502e-09	-1.053497e+00	2.690359e+02
2.500000e-06	-2.773686e-07	3.043275e-09	-1.998435e+00	1.976022e+02
2.510000e-06	-4.084156e-07	1.944327e-09	-2.942627e+00	1.257984e+02
2.520000e-06	-5.393660e-07	8.383687e-10	-3.886121e+00	5.331846e+01
2.530000e-06	-6.701435e-07	-2.816048e-10	-4.828371e+00	-2.027236e+01
2.540000e-06	-8.006876e-07	-1.423728e-09	-5.768939e+00	-9.541911e+01
2.550000e-06	-9.310414e-07	-2.594075e-09	-6.708135e+00	-1.724464e+02
2.560000e-06	-1.061159e-06	-3.794507e-09	-7.645627e+00	-2.514415e+02
2.570000e-06	-1.190939e-06	-5.024304e-09	-8.580691e+00	-3.321758e+02
2.580000e-06	-1.320348e-06	-6.276048e-09	-9.513082e+00	-4.140826e+02
2.590000e-06	-1.449344e-06	-7.535754e-09	-1.044250e+01	-4.962962e+02
2.600000e-06	-1.577860e-06	-8.786389e-09	-1.136845e+01	-5.777452e+02
2.610000e-06	-1.705868e-06	-1.000791e-08	-1.229075e+01	-6.572823e+02
2.620000e-06	-1.833166e-06	-1.118172e-08	-1.320793e+01	-7.338255e+02
2.630000e-06	-1.959604e-06	-1.229197e-08	-1.411891e+01	-8.064835e+02
2.640000e-06	-2.085245e-06	-1.332936e-08	-1.502415e+01	-8.746440e+02
2.650000e-06	-2.210163e-06	-1.429357e-08	-1.592418e+01	-9.380116e+02
2.660000e-06	-2.334273e-06	-1.518888e-08	-1.681839e+01	-9.965929e+02
2.670000e-06	-2.457397e-06	-1.601999e-08	-1.770550e+01	-1.050637e+03
2.680000e-06	-2.579558e-06	-1.679266e-08	-1.858567e+01	-1.100551e+03
2.690000e-06	-2.700854e-06	-1.751002e-08	-1.945960e+01	-1.146803e+03
2.700000e-06	-2.821228e-06	-1.817283e-08	-2.032689e+01	-1.189848e+03
2.710000e-06	-2.940419e-06	-1.878800e-08	-2.118566e+01	-1.230067e+03
2.720000e-06	-3.058374e-06	-1.936373e-08	-2.203552e+01	-1.267745e+03
2.730000e-06	-3.175191e-06	-1.990464e-08	-2.287719e+01	-1.303080e+03
2.740000e-06	-3.290748e-06	-2.041048e-08	-2.370978e+01	-1.336208e+03
2.750000e-06	-3.404984e-06	-2.088183e-08	-2.453285e+01	-1.367240e+03
2.760000e-06	-3.517809e-06	-2.132383e-08	-2.534574e+01	-1.396290e+03
2.770000e-06	-3.629212e-06	-2.173980e-08	-2.614841e+01	-1.423500e+03
2.780000e-06	-3.739216e-06	-2.213171e-08	-2.694098e+01	-1.449039e+03
2.790000e-06	-3.847928e-06	-2.250347e-08	-2.772425e+01	-1.473091e+03
2.800000e-06	-3.955454e-06	-2.285542e-08	-2.849897e+01	-1.495839e+03
2.810000e-06	-4.061702e-06	-2.318666e-08	-2.926448e+01	-1.517440e+03
2.820000e-06	-4.166612e-06	-2.349904e-08	-3.002036e+01	-1.538011e+03
2.830000e-06	-4.269963e-06	-2.379594e-08	-3.076500e+01	-1.557623e+03
2.840000e-06	-4.371669e-06	-2.408144e-08	-3.149779e+01	-1.576310e+03
2.850000e-06	-4.471784e-06	-2.435352e-08	-3.221911e+01	-1.594083e+03
2.860000e-06	-4.570359e-06	-2.461083e-08	-3.292935e+01	-1.610950e+03
2.870000e-06	-4.667426e-06	-2.485362e-08	-3.362871e+01	-1.626931e+03
2.880000e-06	-4.762851e-06	-2.508383e-08	-3.431625e+01	-1.642068e+03
2.890000e-06	-4.856501e-06	-2.530532e-08	-3.499100e+01	-1.656424e+03
2.900000e-06	-4.948378e-06	-2.551687e-08	-3.565297e+01	-1.670077e+03
2.910000e-06	-5.038511e-06	-2.571940e-08	-3.630237e+01	-1.683106e+03
2.920000e-06	-5.126831e-06	-2.591487e-08	-3.693872e+01	-1.695577e+03
2.930000e-06	-5.213201e-06	-2.610213e-08	-3.756101e+01	-1.707534e+03
2.940000e-06	-5.297560e-06	-2.627749e-08	-3.816882e+01	-1.718998e+03
