# Temperatura_=_30.8
# Concentracion g/m^3_=_28200.0
# C_Vs_to_Am_M_A/Vsm_=_65563218390.804596
# pendiente_HvsI_1/m_=_3716.3
# ordenada_HvsI_A/m_=_1297.0
# frecuencia_Hz_=_302306.11583672103

Tiempo_(s)	Campo_(V.s)	Magnetizacion_(V.s)	Campo_(kA/m)	Magnetizacion_(A/m)
0.000000e+00	-6.888763e-06	-2.398825e-08	-4.951567e+01	-1.570774e+03
1.000000e-08	-6.886265e-06	-2.398151e-08	-4.949771e+01	-1.570434e+03
2.000000e-08	-6.881458e-06	-2.397536e-08	-4.946317e+01	-1.569953e+03
3.000000e-08	-6.874535e-06	-2.396689e-08	-4.941340e+01	-1.569325e+03
4.000000e-08	-6.865318e-06	-2.395650e-08	-4.934715e+01	-1.568543e+03
5.000000e-08	-6.853602e-06	-2.394330e-08	-4.926294e+01	-1.567597e+03
6.000000e-08	-6.839303e-06	-2.392963e-08	-4.916016e+01	-1.566477e+03
7.000000e-08	-6.822567e-06	-2.390992e-08	-4.903986e+01	-1.565182e+03
8.000000e-08	-6.803744e-06	-2.388409e-08	-4.890456e+01	-1.563717e+03
9.000000e-08	-6.782795e-06	-2.387421e-08	-4.875398e+01	-1.562096e+03
1.000000e-07	-6.759243e-06	-2.388127e-08	-4.858470e+01	-1.560347e+03
1.100000e-07	-6.732851e-06	-2.383205e-08	-4.839499e+01	-1.558499e+03
1.200000e-07	-6.703916e-06	-2.377183e-08	-4.818701e+01	-1.556583e+03
1.300000e-07	-6.672750e-06	-2.373873e-08	-4.796300e+01	-1.554624e+03
1.400000e-07	-6.639379e-06	-2.369244e-08	-4.772313e+01	-1.552629e+03
1.500000e-07	-6.604090e-06	-2.362382e-08	-4.746947e+01	-1.550585e+03
1.600000e-07	-6.567081e-06	-2.363717e-08	-4.720346e+01	-1.548459e+03
1.700000e-07	-6.528005e-06	-2.362878e-08	-4.692258e+01	-1.546199e+03
1.800000e-07	-6.486667e-06	-2.351805e-08	-4.662545e+01	-1.543745e+03
1.900000e-07	-6.442893e-06	-2.353141e-08	-4.631080e+01	-1.541037e+03
2.000000e-07	-6.396664e-06	-2.346752e-08	-4.597852e+01	-1.538026e+03
2.100000e-07	-6.348049e-06	-2.337436e-08	-4.562908e+01	-1.534688e+03
2.200000e-07	-6.296754e-06	-2.335029e-08	-4.526037e+01	-1.531021e+03
2.300000e-07	-6.242822e-06	-2.326123e-08	-4.487272e+01	-1.527049e+03
2.400000e-07	-6.186547e-06	-2.321170e-08	-4.446822e+01	-1.522811e+03
2.500000e-07	-6.127938e-06	-2.314873e-08	-4.404694e+01	-1.518353e+03
2.600000e-07	-6.067075e-06	-2.308130e-08	-4.360946e+01	-1.513714e+03
2.700000e-07	-6.004016e-06	-2.301929e-08	-4.315621e+01	-1.508919e+03
2.800000e-07	-5.938699e-06	-2.292757e-08	-4.268672e+01	-1.503968e+03
2.900000e-07	-5.871152e-06	-2.284641e-08	-4.220120e+01	-1.498840e+03
3.000000e-07	-5.801336e-06	-2.275779e-08	-4.169936e+01	-1.493499e+03
3.100000e-07	-5.729316e-06	-2.268057e-08	-4.118169e+01	-1.487902e+03
3.200000e-07	-5.655132e-06	-2.259674e-08	-4.064847e+01	-1.482008e+03
3.300000e-07	-5.578628e-06	-2.249905e-08	-4.009856e+01	-1.475792e+03
3.400000e-07	-5.499773e-06	-2.239871e-08	-3.953176e+01	-1.469246e+03
3.500000e-07	-5.418780e-06	-2.227948e-08	-3.894959e+01	-1.462380e+03
3.600000e-07	-5.335956e-06	-2.218477e-08	-3.835426e+01	-1.455212e+03
3.700000e-07	-5.251411e-06	-2.207694e-08	-3.774656e+01	-1.447766e+03
3.800000e-07	-5.165098e-06	-2.195436e-08	-3.712616e+01	-1.440055e+03
3.900000e-07	-5.077005e-06	-2.183518e-08	-3.649295e+01	-1.432078e+03
4.000000e-07	-4.987104e-06	-2.169846e-08	-3.584675e+01	-1.423815e+03
4.100000e-07	-4.895425e-06	-2.155775e-08	-3.518777e+01	-1.415231e+03
4.200000e-07	-4.802124e-06	-2.141772e-08	-3.451714e+01	-1.406284e+03
4.300000e-07	-4.707269e-06	-2.128639e-08	-3.383533e+01	-1.396930e+03
4.400000e-07	-4.610689e-06	-2.113936e-08	-3.314112e+01	-1.387137e+03
4.500000e-07	-4.512343e-06	-2.098174e-08	-3.243422e+01	-1.376888e+03
4.600000e-07	-4.412341e-06	-2.082308e-08	-3.171542e+01	-1.366179e+03
4.700000e-07	-4.310728e-06	-2.065136e-08	-3.098504e+01	-1.355020e+03
4.800000e-07	-4.207622e-06	-2.047081e-08	-3.024392e+01	-1.343420e+03
4.900000e-07	-4.103028e-06	-2.028298e-08	-2.949211e+01	-1.331382e+03
5.000000e-07	-3.996857e-06	-2.009224e-08	-2.872897e+01	-1.318893e+03
5.100000e-07	-3.889215e-06	-1.988969e-08	-2.795525e+01	-1.305920e+03
5.200000e-07	-3.780243e-06	-1.968101e-08	-2.717197e+01	-1.292411e+03
5.300000e-07	-3.669938e-06	-1.946621e-08	-2.637911e+01	-1.278306e+03
5.400000e-07	-3.558263e-06	-1.923949e-08	-2.557640e+01	-1.263538e+03
5.500000e-07	-3.445149e-06	-1.900014e-08	-2.476335e+01	-1.248052e+03
5.600000e-07	-3.330565e-06	-1.875075e-08	-2.393974e+01	-1.231803e+03
5.700000e-07	-3.214614e-06	-1.849312e-08	-2.310629e+01	-1.214762e+03
5.800000e-07	-3.097371e-06	-1.821994e-08	-2.226356e+01	-1.196911e+03
5.900000e-07	-2.978950e-06	-1.793303e-08	-2.141236e+01	-1.178229e+03
6.000000e-07	-2.859476e-06	-1.763182e-08	-2.055360e+01	-1.158688e+03
6.100000e-07	-2.738914e-06	-1.731703e-08	-1.968702e+01	-1.138238e+03
6.200000e-07	-2.617266e-06	-1.698590e-08	-1.881262e+01	-1.116805e+03
6.300000e-07	-2.494648e-06	-1.664022e-08	-1.793126e+01	-1.094289e+03
6.400000e-07	-2.371122e-06	-1.627932e-08	-1.704337e+01	-1.070574e+03
6.500000e-07	-2.246702e-06	-1.589676e-08	-1.614905e+01	-1.045535e+03
6.600000e-07	-2.121486e-06	-1.549028e-08	-1.524900e+01	-1.019046e+03
6.700000e-07	-1.995612e-06	-1.505865e-08	-1.434424e+01	-9.909905e+02
6.800000e-07	-1.869077e-06	-1.460431e-08	-1.343472e+01	-9.612571e+02
6.900000e-07	-1.741910e-06	-1.412675e-08	-1.252066e+01	-9.297363e+02
7.000000e-07	-1.614135e-06	-1.362225e-08	-1.160222e+01	-8.963108e+02
7.100000e-07	-1.485755e-06	-1.308273e-08	-1.067945e+01	-8.608479e+02
7.200000e-07	-1.356871e-06	-1.250650e-08	-9.753039e+00	-8.231972e+02
7.300000e-07	-1.227534e-06	-1.189382e-08	-8.823379e+00	-7.831998e+02
7.400000e-07	-1.097797e-06	-1.124353e-08	-7.890847e+00	-7.407088e+02
7.500000e-07	-9.676744e-07	-1.055461e-08	-6.955537e+00	-6.956208e+02
7.600000e-07	-8.372096e-07	-9.826967e-09	-6.017771e+00	-6.479120e+02
7.700000e-07	-7.064628e-07	-9.062793e-09	-5.077977e+00	-5.976714e+02
7.800000e-07	-5.755282e-07	-8.261101e-09	-4.136834e+00	-5.451202e+02
7.900000e-07	-4.444349e-07	-7.429152e-09	-3.194549e+00	-4.906109e+02
8.000000e-07	-3.132200e-07	-6.575259e-09	-2.251391e+00	-4.346005e+02
8.100000e-07	-1.819407e-07	-5.707795e-09	-1.307770e+00	-3.775998e+02
8.200000e-07	-5.051768e-08	-4.833607e-09	-3.631155e-01	-3.201043e+02
8.300000e-07	8.101852e-08	-3.957087e-09	5.823522e-01	-2.625207e+02
8.400000e-07	2.125267e-07	-3.082138e-09	1.527619e+00	-2.051021e+02
8.500000e-07	3.439535e-07	-2.209123e-09	2.472300e+00	-1.479063e+02
8.600000e-07	4.752542e-07	-1.338818e-09	3.416075e+00	-9.078932e+01
8.700000e-07	6.064200e-07	-4.656638e-10	4.358880e+00	-3.343610e+01
8.800000e-07	7.374259e-07	4.181316e-10	5.300536e+00	2.457232e+01
8.900000e-07	8.682079e-07	1.319500e-09	6.240583e+00	8.366817e+01
9.000000e-07	9.987357e-07	2.241280e-09	7.178802e+00	1.441977e+02
9.100000e-07	1.128983e-06	3.186145e-09	8.115003e+00	2.063326e+02
9.200000e-07	1.258826e-06	4.157520e-09	9.048305e+00	2.700077e+02
9.300000e-07	1.388152e-06	5.149822e-09	9.977882e+00	3.348986e+02
9.400000e-07	1.516968e-06	6.152257e-09	1.090380e+01	4.004415e+02
9.500000e-07	1.645202e-06	7.151097e-09	1.182553e+01	4.658922e+02
9.600000e-07	1.772758e-06	8.133144e-09	1.274239e+01	5.304130e+02
9.700000e-07	1.899606e-06	9.086276e-09	1.365416e+01	5.931707e+02
9.800000e-07	2.025743e-06	1.000063e-08	1.456082e+01	6.534291e+02
9.900000e-07	2.151226e-06	1.086893e-08	1.546278e+01	7.106201e+02
1.000000e-06	2.276033e-06	1.168362e-08	1.635988e+01	7.643835e+02
1.010000e-06	2.399997e-06	1.244087e-08	1.725091e+01	8.145730e+02
1.020000e-06	2.523054e-06	1.314585e-08	1.813543e+01	8.612306e+02
1.030000e-06	2.645235e-06	1.380430e-08	1.901366e+01	9.045397e+02
1.040000e-06	2.766416e-06	1.441716e-08	1.988470e+01	9.447680e+02
1.050000e-06	2.886429e-06	1.498658e-08	2.074733e+01	9.822127e+02
1.060000e-06	3.005265e-06	1.551720e-08	2.160151e+01	1.017157e+03
1.070000e-06	3.123042e-06	1.601185e-08	2.244808e+01	1.049845e+03
1.080000e-06	3.239772e-06	1.647371e-08	2.328713e+01	1.080473e+03
1.090000e-06	3.355277e-06	1.690589e-08	2.411736e+01	1.109193e+03
1.100000e-06	3.469414e-06	1.731245e-08	2.493777e+01	1.136132e+03
1.110000e-06	3.582096e-06	1.769621e-08	2.574771e+01	1.161407e+03
1.120000e-06	3.693377e-06	1.805916e-08	2.654759e+01	1.185133e+03
1.130000e-06	3.803392e-06	1.840245e-08	2.733836e+01	1.207436e+03
1.140000e-06	3.912247e-06	1.872399e-08	2.812080e+01	1.228443e+03
1.150000e-06	4.019849e-06	1.902685e-08	2.889423e+01	1.248281e+03
1.160000e-06	4.126021e-06	1.931369e-08	2.965738e+01	1.267063e+03
1.170000e-06	4.230605e-06	1.958450e-08	3.040913e+01	1.284882e+03
1.180000e-06	4.333560e-06	1.983914e-08	3.114915e+01	1.301809e+03
1.190000e-06	4.435053e-06	2.008098e-08	3.187867e+01	1.317891e+03
1.200000e-06	4.535037e-06	2.031303e-08	3.259735e+01	1.333161e+03
1.210000e-06	4.633354e-06	2.053395e-08	3.330404e+01	1.347645e+03
1.220000e-06	4.729861e-06	2.074228e-08	3.399772e+01	1.361373e+03
1.230000e-06	4.824602e-06	2.094018e-08	3.467871e+01	1.374382e+03
1.240000e-06	4.917712e-06	2.112823e-08	3.534797e+01	1.386719e+03
1.250000e-06	5.009159e-06	2.130626e-08	3.600528e+01	1.398440e+03
1.260000e-06	5.098833e-06	2.147579e-08	3.664985e+01	1.409599e+03
1.270000e-06	5.186618e-06	2.163672e-08	3.728084e+01	1.420245e+03
1.280000e-06	5.272522e-06	2.179033e-08	3.789831e+01	1.430414e+03
1.290000e-06	5.356590e-06	2.193733e-08	3.850258e+01	1.440129e+03
1.300000e-06	5.438744e-06	2.207816e-08	3.909309e+01	1.449395e+03
1.310000e-06	5.518810e-06	2.221329e-08	3.966860e+01	1.458209e+03
1.320000e-06	5.596805e-06	2.234348e-08	4.022922e+01	1.466562e+03
1.330000e-06	5.672770e-06	2.246719e-08	4.077524e+01	1.474451e+03
1.340000e-06	5.746498e-06	2.258243e-08	4.130520e+01	1.481880e+03
1.350000e-06	5.817993e-06	2.268920e-08	4.181909e+01	1.488863e+03
1.360000e-06	5.887430e-06	2.278855e-08	4.231820e+01	1.495426e+03
1.370000e-06	5.954800e-06	2.288273e-08	4.280245e+01	1.501601e+03
1.380000e-06	6.019995e-06	2.297238e-08	4.327106e+01	1.507424e+03
1.390000e-06	6.083037e-06	2.305750e-08	4.372420e+01	1.512927e+03
1.400000e-06	6.144051e-06	2.313649e-08	4.416276e+01	1.518140e+03
1.410000e-06	6.202992e-06	2.320986e-08	4.458642e+01	1.523082e+03
1.420000e-06	6.259651e-06	2.328036e-08	4.499368e+01	1.527769e+03
1.430000e-06	6.314084e-06	2.334783e-08	4.538494e+01	1.532207e+03
1.440000e-06	6.366188e-06	2.341224e-08	4.575946e+01	1.536401e+03
1.450000e-06	6.415561e-06	2.347397e-08	4.611435e+01	1.540357e+03
1.460000e-06	6.462402e-06	2.353211e-08	4.645104e+01	1.544076e+03
1.470000e-06	6.507087e-06	2.358603e-08	4.677222e+01	1.547563e+03
1.480000e-06	6.549524e-06	2.363519e-08	4.707726e+01	1.550821e+03
1.490000e-06	6.589509e-06	2.368120e-08	4.736466e+01	1.553850e+03
1.500000e-06	6.627149e-06	2.372450e-08	4.763522e+01	1.556651e+03
1.510000e-06	6.662598e-06	2.376293e-08	4.789002e+01	1.559222e+03
1.520000e-06	6.695649e-06	2.379607e-08	4.812758e+01	1.561559e+03
1.530000e-06	6.726286e-06	2.382591e-08	4.834780e+01	1.563661e+03
1.540000e-06	6.754686e-06	2.385569e-08	4.855194e+01	1.565527e+03
1.550000e-06	6.780672e-06	2.388309e-08	4.873872e+01	1.567161e+03
1.560000e-06	6.804070e-06	2.390523e-08	4.890691e+01	1.568571e+03
1.570000e-06	6.825036e-06	2.392186e-08	4.905761e+01	1.569765e+03
1.580000e-06	6.843689e-06	2.393465e-08	4.919168e+01	1.570757e+03
1.590000e-06	6.859762e-06	2.394568e-08	4.930722e+01	1.571559e+03
1.600000e-06	6.873217e-06	2.395330e-08	4.940393e+01	1.572183e+03
1.610000e-06	6.884060e-06	2.396012e-08	4.948186e+01	1.572638e+03
1.620000e-06	6.892149e-06	2.396661e-08	4.954001e+01	1.572934e+03
1.630000e-06	6.897751e-06	2.397123e-08	4.958028e+01	1.573077e+03
1.640000e-06	6.901009e-06	2.397464e-08	4.960369e+01	1.573074e+03
1.650000e-06	6.901733e-06	2.397507e-08	4.960890e+01	1.572928e+03
1.660000e-06	6.900086e-06	2.397014e-08	4.959706e+01	1.572643e+03
1.670000e-06	6.896279e-06	2.395641e-08	4.956969e+01	1.572217e+03
1.680000e-06	6.890129e-06	2.394501e-08	4.952549e+01	1.571648e+03
1.690000e-06	6.881655e-06	2.393386e-08	4.946458e+01	1.570927e+03
1.700000e-06	6.870959e-06	2.392177e-08	4.938770e+01	1.570046e+03
1.710000e-06	6.857889e-06	2.390986e-08	4.929375e+01	1.568995e+03
1.720000e-06	6.842422e-06	2.389642e-08	4.918258e+01	1.567768e+03
1.730000e-06	6.824834e-06	2.387976e-08	4.905616e+01	1.566368e+03
1.740000e-06	6.805134e-06	2.382450e-08	4.891456e+01	1.564806e+03
1.750000e-06	6.782595e-06	2.376673e-08	4.875254e+01	1.563103e+03
1.760000e-06	6.756750e-06	2.377437e-08	4.856678e+01	1.561290e+03
1.770000e-06	6.728004e-06	2.376213e-08	4.836015e+01	1.559397e+03
1.780000e-06	6.696978e-06	2.372638e-08	4.813714e+01	1.557453e+03
1.790000e-06	6.664191e-06	2.374572e-08	4.790147e+01	1.555472e+03
1.800000e-06	6.630002e-06	2.370451e-08	4.765573e+01	1.553450e+03
1.810000e-06	6.593980e-06	2.360652e-08	4.739680e+01	1.551361e+03
1.820000e-06	6.555406e-06	2.365741e-08	4.711953e+01	1.549160e+03
1.830000e-06	6.514502e-06	2.359294e-08	4.682553e+01	1.546790e+03
1.840000e-06	6.471425e-06	2.353841e-08	4.651589e+01	1.544188e+03
1.850000e-06	6.426021e-06	2.355356e-08	4.618953e+01	1.541300e+03
1.860000e-06	6.378301e-06	2.341707e-08	4.584653e+01	1.538092e+03
1.870000e-06	6.328133e-06	2.341624e-08	4.548592e+01	1.534552e+03
1.880000e-06	6.275574e-06	2.335107e-08	4.510813e+01	1.530696e+03
1.890000e-06	6.220479e-06	2.326873e-08	4.471212e+01	1.526556e+03
1.900000e-06	6.162814e-06	2.325005e-08	4.429763e+01	1.522179e+03
1.910000e-06	6.102947e-06	2.311729e-08	4.386731e+01	1.517607e+03
1.920000e-06	6.040746e-06	2.308074e-08	4.342021e+01	1.512872e+03
1.930000e-06	5.976236e-06	2.300747e-08	4.295653e+01	1.507983e+03
1.940000e-06	5.909598e-06	2.292479e-08	4.247754e+01	1.502928e+03
1.950000e-06	5.840758e-06	2.287150e-08	4.198273e+01	1.497676e+03
1.960000e-06	5.769609e-06	2.274165e-08	4.147132e+01	1.492184e+03
1.970000e-06	5.696136e-06	2.267940e-08	4.094320e+01	1.486410e+03
1.980000e-06	5.620489e-06	2.255971e-08	4.039946e+01	1.480322e+03
1.990000e-06	5.542536e-06	2.247905e-08	3.983914e+01	1.473906e+03
2.000000e-06	5.462449e-06	2.239359e-08	3.926348e+01	1.467163e+03
2.010000e-06	5.380547e-06	2.227303e-08	3.867478e+01	1.460111e+03
2.020000e-06	5.296805e-06	2.217875e-08	3.807285e+01	1.452772e+03
2.030000e-06	5.211130e-06	2.202877e-08	3.745703e+01	1.445164e+03
2.040000e-06	5.123453e-06	2.192154e-08	3.682681e+01	1.437292e+03
2.050000e-06	5.033989e-06	2.180253e-08	3.618376e+01	1.429144e+03
2.060000e-06	4.942914e-06	2.168506e-08	3.552912e+01	1.420691e+03
2.070000e-06	4.850142e-06	2.154958e-08	3.486229e+01	1.411892e+03
2.080000e-06	4.755567e-06	2.139741e-08	3.418249e+01	1.402702e+03
2.090000e-06	4.659237e-06	2.125560e-08	3.349008e+01	1.393084e+03
2.100000e-06	4.561352e-06	2.109269e-08	3.278650e+01	1.383015e+03
2.110000e-06	4.461959e-06	2.094160e-08	3.207207e+01	1.372486e+03
2.120000e-06	4.360955e-06	2.077549e-08	3.134607e+01	1.361502e+03
2.130000e-06	4.258302e-06	2.060451e-08	3.060820e+01	1.350074e+03
2.140000e-06	4.154095e-06	2.041702e-08	2.985918e+01	1.338209e+03
2.150000e-06	4.048435e-06	2.022893e-08	2.909971e+01	1.325899e+03
2.160000e-06	3.941399e-06	2.003993e-08	2.833034e+01	1.313121e+03
2.170000e-06	3.833002e-06	1.984049e-08	2.755119e+01	1.299830e+03
2.180000e-06	3.723175e-06	1.963342e-08	2.676177e+01	1.285966e+03
2.190000e-06	3.611935e-06	1.941180e-08	2.596219e+01	1.271466e+03
2.200000e-06	3.499272e-06	1.918095e-08	2.515238e+01	1.256267e+03
2.210000e-06	3.385167e-06	1.893520e-08	2.433221e+01	1.240322e+03
2.220000e-06	3.269637e-06	1.868406e-08	2.350179e+01	1.223595e+03
2.230000e-06	3.152715e-06	1.841867e-08	2.266137e+01	1.206064e+03
2.240000e-06	3.034489e-06	1.814165e-08	2.181157e+01	1.187711e+03
2.250000e-06	2.915107e-06	1.784980e-08	2.095347e+01	1.168512e+03
2.260000e-06	2.794648e-06	1.754676e-08	2.008762e+01	1.148426e+03
2.270000e-06	2.673148e-06	1.722681e-08	1.921429e+01	1.127389e+03
2.280000e-06	2.550705e-06	1.688944e-08	1.833419e+01	1.105312e+03
2.290000e-06	2.427398e-06	1.653628e-08	1.744787e+01	1.082082e+03
2.300000e-06	2.303287e-06	1.616415e-08	1.655578e+01	1.057578e+03
2.310000e-06	2.178396e-06	1.577240e-08	1.565807e+01	1.031673e+03
2.320000e-06	2.052638e-06	1.535647e-08	1.475414e+01	1.004246e+03
2.330000e-06	1.926054e-06	1.491531e-08	1.384426e+01	9.751845e+02
2.340000e-06	1.798872e-06	1.444281e-08	1.293009e+01	9.443789e+02
2.350000e-06	1.671136e-06	1.394190e-08	1.201194e+01	9.117163e+02
2.360000e-06	1.542797e-06	1.341074e-08	1.108945e+01	8.770705e+02
2.370000e-06	1.413962e-06	1.284982e-08	1.016340e+01	8.402979e+02
2.380000e-06	1.284723e-06	1.225558e-08	9.234444e+00	8.012409e+02
2.390000e-06	1.155087e-06	1.162356e-08	8.302640e+00	7.597448e+02
2.400000e-06	1.025080e-06	1.095254e-08	7.368160e+00	7.156848e+02
2.410000e-06	8.947295e-07	1.024067e-08	6.431217e+00	6.690016e+02
2.420000e-06	7.641015e-07	9.490503e-09	5.492278e+00	6.197365e+02
2.430000e-06	6.332139e-07	8.702975e-09	4.551472e+00	5.680577e+02
2.440000e-06	5.021433e-07	7.882005e-09	3.609351e+00	5.142677e+02
2.450000e-06	3.709648e-07	7.035040e-09	2.666454e+00	4.587875e+02
2.460000e-06	2.396336e-07	6.169062e-09	1.722460e+00	4.021140e+02
2.470000e-06	1.081419e-07	5.292254e-09	7.773120e-01	3.447575e+02
2.480000e-06	-2.346682e-08	4.411580e-09	-1.686769e-01	2.871683e+02
2.490000e-06	-1.550704e-07	3.532384e-09	-1.114629e+00	2.296664e+02
2.500000e-06	-2.865843e-07	2.658140e-09	-2.059936e+00	1.723891e+02
2.510000e-06	-4.180651e-07	1.786089e-09	-3.005006e+00	1.152701e+02
2.520000e-06	-5.494602e-07	9.124681e-10	-3.949459e+00	5.805540e+01
2.530000e-06	-6.806485e-07	2.980163e-11	-4.892427e+00	3.571190e-01
2.540000e-06	-8.115666e-07	-8.682000e-10	-5.833452e+00	-5.826358e+01
2.550000e-06	-9.421979e-07	-1.783973e-09	-6.772415e+00	-1.181983e+02
2.560000e-06	-1.072533e-06	-2.719399e-09	-7.709251e+00	-1.796965e+02
2.570000e-06	-1.202569e-06	-3.677333e-09	-8.643936e+00	-2.427911e+02
2.580000e-06	-1.332300e-06	-4.659618e-09	-9.576425e+00	-3.072596e+02
2.590000e-06	-1.461584e-06	-5.656286e-09	-1.050571e+01	-3.726271e+02
2.600000e-06	-1.590282e-06	-6.657641e-09	-1.143077e+01	-4.382111e+02
2.610000e-06	-1.718389e-06	-7.653088e-09	-1.235159e+01	-5.031993e+02
2.620000e-06	-1.845826e-06	-8.628814e-09	-1.326759e+01	-5.667450e+02
2.630000e-06	-1.972562e-06	-9.569166e-09	-1.417856e+01	-6.280639e+02
2.640000e-06	-2.098614e-06	-1.046221e-08	-1.508461e+01	-6.865152e+02
2.650000e-06	-2.223852e-06	-1.130463e-08	-1.598480e+01	-7.416544e+02
2.660000e-06	-2.348147e-06	-1.209343e-08	-1.687822e+01	-7.932528e+02
2.670000e-06	-2.471476e-06	-1.282708e-08	-1.776470e+01	-8.412830e+02
2.680000e-06	-2.593845e-06	-1.351229e-08	-1.864427e+01	-8.858792e+02
2.690000e-06	-2.715251e-06	-1.415262e-08	-1.951692e+01	-9.272832e+02
2.700000e-06	-2.835678e-06	-1.474688e-08	-2.038254e+01	-9.657864e+02
2.710000e-06	-2.955063e-06	-1.529902e-08	-2.124066e+01	-1.001682e+03
2.720000e-06	-3.073340e-06	-1.581538e-08	-2.209083e+01	-1.035231e+03
2.730000e-06	-3.190399e-06	-1.629897e-08	-2.293223e+01	-1.066648e+03
2.740000e-06	-3.306093e-06	-1.675001e-08	-2.376384e+01	-1.096101e+03
2.750000e-06	-3.420391e-06	-1.716960e-08	-2.458540e+01	-1.123726e+03
2.760000e-06	-3.533352e-06	-1.756063e-08	-2.539735e+01	-1.149641e+03
2.770000e-06	-3.644965e-06	-1.793125e-08	-2.619961e+01	-1.173962e+03
2.780000e-06	-3.755191e-06	-1.828304e-08	-2.699190e+01	-1.196809e+03
2.790000e-06	-3.864112e-06	-1.861405e-08	-2.777481e+01	-1.218310e+03
2.800000e-06	-3.971832e-06	-1.892486e-08	-2.854909e+01	-1.238593e+03
2.810000e-06	-4.078343e-06	-1.921929e-08	-2.931468e+01	-1.257778e+03
2.820000e-06	-4.183487e-06	-1.949881e-08	-3.007045e+01	-1.275966e+03
2.830000e-06	-4.287045e-06	-1.976184e-08	-3.081481e+01	-1.293237e+03
2.840000e-06	-4.388962e-06	-2.001059e-08	-3.154737e+01	-1.309646e+03
2.850000e-06	-4.489213e-06	-2.024628e-08	-3.226797e+01	-1.325232e+03
2.860000e-06	-4.587884e-06	-2.046986e-08	-3.297720e+01	-1.340022e+03
2.870000e-06	-4.685063e-06	-2.068285e-08	-3.367571e+01	-1.354043e+03
2.880000e-06	-4.780607e-06	-2.088775e-08	-3.436248e+01	-1.367330e+03
2.890000e-06	-4.874341e-06	-2.108573e-08	-3.503623e+01	-1.379925e+03
2.900000e-06	-4.966292e-06	-2.127329e-08	-3.569716e+01	-1.391882e+03
2.910000e-06	-5.056577e-06	-2.144951e-08	-3.634612e+01	-1.403255e+03
2.920000e-06	-5.145067e-06	-2.161462e-08	-3.698218e+01	-1.414098e+03
2.930000e-06	-5.231582e-06	-2.177003e-08	-3.760404e+01	-1.424452e+03
2.940000e-06	-5.316100e-06	-2.191678e-08	-3.821154e+01	-1.434344e+03
