# Temperatura_=_76.86
# Concentracion g/m^3_=_28200.0
# C_Vs_to_Am_M_A/Vsm_=_65563218390.804596
# pendiente_HvsI_1/m_=_3716.3
# ordenada_HvsI_A/m_=_1297.0
# frecuencia_Hz_=_302299.7172949432

Tiempo_(s)	Campo_(V.s)	Magnetizacion_(V.s)	Campo_(kA/m)	Magnetizacion_(A/m)
0.000000e+00	-6.889374e-06	-2.785886e-08	-4.951779e+01	-1.823856e+03
1.000000e-08	-6.886601e-06	-2.785290e-08	-4.949786e+01	-1.823385e+03
2.000000e-08	-6.881488e-06	-2.784212e-08	-4.946111e+01	-1.822724e+03
3.000000e-08	-6.874225e-06	-2.782730e-08	-4.940890e+01	-1.821881e+03
4.000000e-08	-6.864674e-06	-2.781169e-08	-4.934026e+01	-1.820859e+03
5.000000e-08	-6.852634e-06	-2.779534e-08	-4.925372e+01	-1.819656e+03
6.000000e-08	-6.837980e-06	-2.777486e-08	-4.914839e+01	-1.818264e+03
7.000000e-08	-6.820903e-06	-2.774801e-08	-4.902565e+01	-1.816676e+03
8.000000e-08	-6.801800e-06	-2.772357e-08	-4.888835e+01	-1.814889e+03
9.000000e-08	-6.780511e-06	-2.772656e-08	-4.873533e+01	-1.812912e+03
1.000000e-07	-6.756591e-06	-2.770929e-08	-4.856340e+01	-1.810763e+03
1.100000e-07	-6.729909e-06	-2.764389e-08	-4.837162e+01	-1.808477e+03
1.200000e-07	-6.700697e-06	-2.758542e-08	-4.816166e+01	-1.806090e+03
1.300000e-07	-6.669220e-06	-2.753610e-08	-4.793542e+01	-1.803635e+03
1.400000e-07	-6.635560e-06	-2.746255e-08	-4.769348e+01	-1.801129e+03
1.500000e-07	-6.600071e-06	-2.742661e-08	-4.743840e+01	-1.798561e+03
1.600000e-07	-6.562789e-06	-2.743176e-08	-4.717044e+01	-1.795896e+03
1.700000e-07	-6.523416e-06	-2.735908e-08	-4.688745e+01	-1.793070e+03
1.800000e-07	-6.481752e-06	-2.729788e-08	-4.658798e+01	-1.790003e+03
1.900000e-07	-6.437570e-06	-2.726296e-08	-4.627042e+01	-1.786618e+03
2.000000e-07	-6.391049e-06	-2.716909e-08	-4.593605e+01	-1.782852e+03
2.100000e-07	-6.342160e-06	-2.709228e-08	-4.558466e+01	-1.778672e+03
2.200000e-07	-6.290516e-06	-2.702125e-08	-4.521346e+01	-1.774083e+03
2.300000e-07	-6.236288e-06	-2.695075e-08	-4.482370e+01	-1.769123e+03
2.400000e-07	-6.179729e-06	-2.688819e-08	-4.441717e+01	-1.763852e+03
2.500000e-07	-6.120810e-06	-2.680762e-08	-4.399369e+01	-1.758339e+03
2.600000e-07	-6.059617e-06	-2.672645e-08	-4.355386e+01	-1.752637e+03
2.700000e-07	-5.996206e-06	-2.662625e-08	-4.309809e+01	-1.746777e+03
2.800000e-07	-5.930573e-06	-2.652725e-08	-4.262635e+01	-1.740751e+03
2.900000e-07	-5.862735e-06	-2.643404e-08	-4.213876e+01	-1.734523e+03
3.000000e-07	-5.792715e-06	-2.633690e-08	-4.163549e+01	-1.728033e+03
3.100000e-07	-5.720533e-06	-2.624295e-08	-4.111667e+01	-1.721214e+03
3.200000e-07	-5.646026e-06	-2.612792e-08	-4.058115e+01	-1.714016e+03
3.300000e-07	-5.569125e-06	-2.599973e-08	-4.002842e+01	-1.706409e+03
3.400000e-07	-5.489917e-06	-2.586861e-08	-3.945911e+01	-1.698395e+03
3.500000e-07	-5.408587e-06	-2.574991e-08	-3.887455e+01	-1.690005e+03
3.600000e-07	-5.325471e-06	-2.563073e-08	-3.827714e+01	-1.681280e+03
3.700000e-07	-5.240682e-06	-2.549348e-08	-3.766771e+01	-1.672262e+03
3.800000e-07	-5.154217e-06	-2.534998e-08	-3.704624e+01	-1.662974e+03
3.900000e-07	-5.065911e-06	-2.519254e-08	-3.641154e+01	-1.653412e+03
4.000000e-07	-4.975717e-06	-2.503176e-08	-3.576326e+01	-1.643540e+03
4.100000e-07	-4.883812e-06	-2.487413e-08	-3.510269e+01	-1.633298e+03
4.200000e-07	-4.790280e-06	-2.471756e-08	-3.443043e+01	-1.622618e+03
4.300000e-07	-4.695179e-06	-2.455149e-08	-3.374688e+01	-1.611438e+03
4.400000e-07	-4.598373e-06	-2.437023e-08	-3.305108e+01	-1.599715e+03
4.500000e-07	-4.499820e-06	-2.418177e-08	-3.234272e+01	-1.587439e+03
4.600000e-07	-4.399543e-06	-2.398720e-08	-3.162198e+01	-1.574621e+03
4.700000e-07	-4.297674e-06	-2.378674e-08	-3.088979e+01	-1.561294e+03
4.800000e-07	-4.194503e-06	-2.357676e-08	-3.014824e+01	-1.547487e+03
4.900000e-07	-4.089783e-06	-2.335867e-08	-2.939556e+01	-1.533215e+03
5.000000e-07	-3.983420e-06	-2.312842e-08	-2.863107e+01	-1.518463e+03
5.100000e-07	-3.875590e-06	-2.289064e-08	-2.785603e+01	-1.503184e+03
5.200000e-07	-3.766381e-06	-2.264651e-08	-2.707109e+01	-1.487303e+03
5.300000e-07	-3.655987e-06	-2.239174e-08	-2.627762e+01	-1.470733e+03
5.400000e-07	-3.544305e-06	-2.212558e-08	-2.547490e+01	-1.453390e+03
5.500000e-07	-3.431073e-06	-2.184658e-08	-2.466105e+01	-1.435207e+03
5.600000e-07	-3.316282e-06	-2.155701e-08	-2.383598e+01	-1.416147e+03
5.700000e-07	-3.200044e-06	-2.125433e-08	-2.300051e+01	-1.396196e+03
5.800000e-07	-3.082504e-06	-2.093677e-08	-2.215568e+01	-1.375357e+03
5.900000e-07	-2.963954e-06	-2.060269e-08	-2.130360e+01	-1.353625e+03
6.000000e-07	-2.844440e-06	-2.025577e-08	-2.044458e+01	-1.330978e+03
6.100000e-07	-2.723798e-06	-1.989540e-08	-1.957746e+01	-1.307352e+03
6.200000e-07	-2.602064e-06	-1.951620e-08	-1.870249e+01	-1.282643e+03
6.300000e-07	-2.479307e-06	-1.911585e-08	-1.782017e+01	-1.256709e+03
6.400000e-07	-2.355596e-06	-1.869482e-08	-1.693099e+01	-1.229388e+03
6.500000e-07	-2.231044e-06	-1.825269e-08	-1.603576e+01	-1.200516e+03
6.600000e-07	-2.105729e-06	-1.778568e-08	-1.513505e+01	-1.169944e+03
6.700000e-07	-1.979771e-06	-1.729289e-08	-1.422972e+01	-1.137550e+03
6.800000e-07	-1.853255e-06	-1.677389e-08	-1.332038e+01	-1.103232e+03
6.900000e-07	-1.726143e-06	-1.622476e-08	-1.240675e+01	-1.066896e+03
7.000000e-07	-1.598314e-06	-1.564020e-08	-1.148798e+01	-1.028434e+03
7.100000e-07	-1.469874e-06	-1.501705e-08	-1.056481e+01	-9.877017e+02
7.200000e-07	-1.340977e-06	-1.435390e-08	-9.638354e+00	-9.445108e+02
7.300000e-07	-1.211655e-06	-1.364997e-08	-8.708840e+00	-8.986355e+02
7.400000e-07	-1.081939e-06	-1.290206e-08	-7.776500e+00	-8.498415e+02
7.500000e-07	-9.518369e-07	-1.210728e-08	-6.841384e+00	-7.979326e+02
7.600000e-07	-8.213906e-07	-1.126549e-08	-5.903794e+00	-7.428051e+02
7.700000e-07	-6.906338e-07	-1.037827e-08	-4.963972e+00	-6.844987e+02
7.800000e-07	-5.596202e-07	-9.446059e-09	-4.022304e+00	-6.232267e+02
7.900000e-07	-4.284198e-07	-8.475152e-09	-3.079293e+00	-5.593762e+02
8.000000e-07	-2.970844e-07	-7.474030e-09	-2.135312e+00	-4.934706e+02
8.100000e-07	-1.656377e-07	-6.449334e-09	-1.190531e+00	-4.260997e+02
8.200000e-07	-3.410454e-08	-5.409244e-09	-2.451285e-01	-3.578270e+02
8.300000e-07	9.746051e-08	-4.359203e-09	7.005032e-01	-2.890947e+02
8.400000e-07	2.290200e-07	-3.304904e-09	1.646095e+00	-2.201463e+02
8.500000e-07	3.605092e-07	-2.249080e-09	2.591182e+00	-1.509864e+02
8.600000e-07	4.919138e-07	-1.189852e-09	3.535660e+00	-8.139048e+01
8.700000e-07	6.232149e-07	-1.205800e-10	4.479395e+00	-1.096518e+01
8.800000e-07	7.543208e-07	9.695782e-10	5.421726e+00	6.074909e+01
8.900000e-07	8.851914e-07	2.087136e-09	6.362366e+00	1.341528e+02
9.000000e-07	1.015765e-06	3.234549e-09	7.300872e+00	2.094642e+02
9.100000e-07	1.145951e-06	4.411140e-09	8.236595e+00	2.866239e+02
9.200000e-07	1.275664e-06	5.612480e-09	9.168908e+00	3.652469e+02
9.300000e-07	1.404869e-06	6.826661e-09	1.009758e+01	4.446330e+02
9.400000e-07	1.533537e-06	8.036897e-09	1.102239e+01	5.238342e+02
9.500000e-07	1.661655e-06	9.226793e-09	1.194325e+01	6.017656e+02
9.600000e-07	1.789149e-06	1.037704e-08	1.285961e+01	6.773387e+02
9.700000e-07	1.915870e-06	1.147053e-08	1.377043e+01	7.495913e+02
9.800000e-07	2.041886e-06	1.249861e-08	1.467618e+01	8.177917e+02
9.900000e-07	2.167302e-06	1.345901e-08	1.557761e+01	8.814984e+02
1.000000e-06	2.292033e-06	1.435164e-08	1.647413e+01	9.405704e+02
1.010000e-06	2.415982e-06	1.517923e-08	1.736502e+01	9.951305e+02
1.020000e-06	2.539088e-06	1.594726e-08	1.824985e+01	1.045495e+03
1.030000e-06	2.661185e-06	1.665766e-08	1.912743e+01	1.092086e+03
1.040000e-06	2.782149e-06	1.731471e-08	1.999686e+01	1.135349e+03
1.050000e-06	2.902006e-06	1.792742e-08	2.085834e+01	1.175688e+03
1.060000e-06	3.020762e-06	1.849804e-08	2.171191e+01	1.213426e+03
1.070000e-06	3.138417e-06	1.903169e-08	2.255756e+01	1.248801e+03
1.080000e-06	3.254940e-06	1.953264e-08	2.339507e+01	1.281976e+03
1.090000e-06	3.370172e-06	2.000247e-08	2.422331e+01	1.313074e+03
1.100000e-06	3.484019e-06	2.044335e-08	2.504160e+01	1.342206e+03
1.110000e-06	3.596514e-06	2.085713e-08	2.585016e+01	1.369497e+03
1.120000e-06	3.707671e-06	2.124758e-08	2.664911e+01	1.395096e+03
1.130000e-06	3.817582e-06	2.161728e-08	2.743910e+01	1.419170e+03
1.140000e-06	3.926306e-06	2.196433e-08	2.822056e+01	1.441894e+03
1.150000e-06	4.033724e-06	2.229198e-08	2.899263e+01	1.463429e+03
1.160000e-06	4.139688e-06	2.260417e-08	2.975425e+01	1.483903e+03
1.170000e-06	4.244075e-06	2.290255e-08	3.050454e+01	1.503407e+03
1.180000e-06	4.346873e-06	2.318594e-08	3.124341e+01	1.521992e+03
1.190000e-06	4.448177e-06	2.345307e-08	3.197154e+01	1.539683e+03
1.200000e-06	4.547985e-06	2.370704e-08	3.268891e+01	1.556491e+03
1.210000e-06	4.646130e-06	2.394661e-08	3.339434e+01	1.572430e+03
1.220000e-06	4.742448e-06	2.417426e-08	3.408663e+01	1.587530e+03
1.230000e-06	4.837003e-06	2.439145e-08	3.476625e+01	1.601841e+03
1.240000e-06	4.929931e-06	2.459785e-08	3.543417e+01	1.615429e+03
1.250000e-06	5.021165e-06	2.479451e-08	3.608992e+01	1.628366e+03
1.260000e-06	5.110564e-06	2.498244e-08	3.673249e+01	1.640720e+03
1.270000e-06	5.198041e-06	2.516101e-08	3.736123e+01	1.652542e+03
1.280000e-06	5.283651e-06	2.533207e-08	3.797656e+01	1.663865e+03
1.290000e-06	5.367473e-06	2.549620e-08	3.857903e+01	1.674698e+03
1.300000e-06	5.449381e-06	2.565300e-08	3.916775e+01	1.685040e+03
1.310000e-06	5.529214e-06	2.580239e-08	3.974156e+01	1.694883e+03
1.320000e-06	5.606987e-06	2.594419e-08	4.030055e+01	1.704224e+03
1.330000e-06	5.682716e-06	2.607948e-08	4.084486e+01	1.713073e+03
1.340000e-06	5.756224e-06	2.620953e-08	4.137321e+01	1.721450e+03
1.350000e-06	5.827519e-06	2.633346e-08	4.188564e+01	1.729388e+03
1.360000e-06	5.896757e-06	2.645096e-08	4.238329e+01	1.736919e+03
1.370000e-06	5.963948e-06	2.656308e-08	4.286623e+01	1.744075e+03
1.380000e-06	6.028985e-06	2.666826e-08	4.333369e+01	1.750874e+03
1.390000e-06	6.091836e-06	2.676740e-08	4.378544e+01	1.757326e+03
1.400000e-06	6.152628e-06	2.685941e-08	4.422238e+01	1.763429e+03
1.410000e-06	6.211283e-06	2.694384e-08	4.464397e+01	1.769180e+03
1.420000e-06	6.267639e-06	2.702394e-08	4.504903e+01	1.774577e+03
1.430000e-06	6.321743e-06	2.710104e-08	4.543791e+01	1.779630e+03
1.440000e-06	6.373399e-06	2.717598e-08	4.580918e+01	1.784358e+03
1.450000e-06	6.422408e-06	2.724715e-08	4.616144e+01	1.788791e+03
1.460000e-06	6.469008e-06	2.731294e-08	4.649638e+01	1.792962e+03
1.470000e-06	6.513429e-06	2.737411e-08	4.681566e+01	1.796903e+03
1.480000e-06	6.555513e-06	2.742961e-08	4.711815e+01	1.800631e+03
1.490000e-06	6.595133e-06	2.748156e-08	4.740292e+01	1.804150e+03
1.500000e-06	6.632505e-06	2.753096e-08	4.767153e+01	1.807448e+03
1.510000e-06	6.667672e-06	2.757736e-08	4.792429e+01	1.810500e+03
1.520000e-06	6.700423e-06	2.762059e-08	4.815970e+01	1.813279e+03
1.530000e-06	6.730758e-06	2.765951e-08	4.837772e+01	1.815761e+03
1.540000e-06	6.758841e-06	2.769302e-08	4.857957e+01	1.817935e+03
1.550000e-06	6.784428e-06	2.772152e-08	4.876348e+01	1.819804e+03
1.560000e-06	6.807406e-06	2.774769e-08	4.892864e+01	1.821387e+03
1.570000e-06	6.828072e-06	2.776995e-08	4.907718e+01	1.822713e+03
1.580000e-06	6.846388e-06	2.778674e-08	4.920882e+01	1.823815e+03
1.590000e-06	6.862118e-06	2.779906e-08	4.932189e+01	1.824720e+03
1.600000e-06	6.875250e-06	2.780760e-08	4.941627e+01	1.825447e+03
1.610000e-06	6.885717e-06	2.781484e-08	4.949150e+01	1.826002e+03
1.620000e-06	6.893448e-06	2.782166e-08	4.954707e+01	1.826382e+03
1.630000e-06	6.898700e-06	2.782847e-08	4.958482e+01	1.826578e+03
1.640000e-06	6.901604e-06	2.783262e-08	4.960569e+01	1.826580e+03
1.650000e-06	6.902050e-06	2.783192e-08	4.960890e+01	1.826383e+03
1.660000e-06	6.900125e-06	2.782458e-08	4.959506e+01	1.825988e+03
1.670000e-06	6.895989e-06	2.781217e-08	4.956534e+01	1.825400e+03
1.680000e-06	6.889505e-06	2.779777e-08	4.951873e+01	1.824628e+03
1.690000e-06	6.880683e-06	2.778012e-08	4.945532e+01	1.823676e+03
1.700000e-06	6.869720e-06	2.776302e-08	4.937653e+01	1.822543e+03
1.710000e-06	6.856366e-06	2.774893e-08	4.928054e+01	1.821226e+03
1.720000e-06	6.840585e-06	2.773771e-08	4.916711e+01	1.819716e+03
1.730000e-06	6.822727e-06	2.770750e-08	4.903876e+01	1.818007e+03
1.740000e-06	6.802663e-06	2.763922e-08	4.889455e+01	1.816102e+03
1.750000e-06	6.779644e-06	2.760187e-08	4.872910e+01	1.814017e+03
1.760000e-06	6.753377e-06	2.759555e-08	4.854030e+01	1.811780e+03
1.770000e-06	6.724320e-06	2.755868e-08	4.833146e+01	1.809428e+03
1.780000e-06	6.693011e-06	2.754093e-08	4.810642e+01	1.806996e+03
1.790000e-06	6.660010e-06	2.752671e-08	4.786922e+01	1.804509e+03
1.800000e-06	6.625620e-06	2.744366e-08	4.762204e+01	1.801968e+03
1.810000e-06	6.589230e-06	2.741671e-08	4.736048e+01	1.799347e+03
1.820000e-06	6.550334e-06	2.742361e-08	4.708092e+01	1.796593e+03
1.830000e-06	6.509249e-06	2.736891e-08	4.678562e+01	1.793630e+03
1.840000e-06	6.465942e-06	2.735699e-08	4.647435e+01	1.790378e+03
1.850000e-06	6.420246e-06	2.728595e-08	4.614590e+01	1.786767e+03
1.860000e-06	6.372226e-06	2.720048e-08	4.580076e+01	1.782751e+03
1.870000e-06	6.321831e-06	2.715150e-08	4.543854e+01	1.778320e+03
1.880000e-06	6.268987e-06	2.704052e-08	4.505872e+01	1.773499e+03
1.890000e-06	6.213540e-06	2.697930e-08	4.466019e+01	1.768342e+03
1.900000e-06	6.155595e-06	2.689778e-08	4.424371e+01	1.762915e+03
1.910000e-06	6.095404e-06	2.682051e-08	4.381108e+01	1.757282e+03
1.920000e-06	6.032857e-06	2.676842e-08	4.336152e+01	1.751482e+03
1.930000e-06	5.968022e-06	2.665290e-08	4.289552e+01	1.745524e+03
1.940000e-06	5.901105e-06	2.656768e-08	4.241454e+01	1.739382e+03
1.950000e-06	5.831942e-06	2.644314e-08	4.191744e+01	1.733001e+03
1.960000e-06	5.760357e-06	2.632909e-08	4.140291e+01	1.726319e+03
1.970000e-06	5.686573e-06	2.623470e-08	4.087258e+01	1.719274e+03
1.980000e-06	5.610662e-06	2.611275e-08	4.032697e+01	1.711829e+03
1.990000e-06	5.532439e-06	2.601623e-08	3.976474e+01	1.703972e+03
2.000000e-06	5.452115e-06	2.588603e-08	3.918740e+01	1.695725e+03
2.010000e-06	5.369962e-06	2.576262e-08	3.859692e+01	1.687125e+03
2.020000e-06	5.286002e-06	2.562333e-08	3.799346e+01	1.678218e+03
2.030000e-06	5.200074e-06	2.548208e-08	3.737584e+01	1.669035e+03
2.040000e-06	5.112148e-06	2.534883e-08	3.674387e+01	1.659583e+03
2.050000e-06	5.022465e-06	2.519389e-08	3.609927e+01	1.649838e+03
2.060000e-06	4.931173e-06	2.503859e-08	3.544310e+01	1.639749e+03
2.070000e-06	4.838196e-06	2.486657e-08	3.477483e+01	1.629250e+03
2.080000e-06	4.743408e-06	2.470159e-08	3.409353e+01	1.618272e+03
2.090000e-06	4.646910e-06	2.452717e-08	3.339994e+01	1.606765e+03
2.100000e-06	4.548858e-06	2.434892e-08	3.269519e+01	1.594705e+03
2.110000e-06	4.449338e-06	2.416354e-08	3.197988e+01	1.582097e+03
2.120000e-06	4.348222e-06	2.396436e-08	3.125310e+01	1.568966e+03
2.130000e-06	4.245431e-06	2.375259e-08	3.051429e+01	1.555344e+03
2.140000e-06	4.141069e-06	2.353179e-08	2.976418e+01	1.541254e+03
2.150000e-06	4.035210e-06	2.331291e-08	2.900332e+01	1.526694e+03
2.160000e-06	3.928011e-06	2.308528e-08	2.823282e+01	1.511629e+03
2.170000e-06	3.819418e-06	2.285220e-08	2.745230e+01	1.495994e+03
2.180000e-06	3.709380e-06	2.260467e-08	2.666139e+01	1.479705e+03
2.190000e-06	3.597950e-06	2.234521e-08	2.586048e+01	1.462675e+03
2.200000e-06	3.485091e-06	2.207200e-08	2.504930e+01	1.444828e+03
2.210000e-06	3.370866e-06	2.178862e-08	2.422830e+01	1.426115e+03
2.220000e-06	3.255256e-06	2.149467e-08	2.339735e+01	1.406514e+03
2.230000e-06	3.138162e-06	2.118713e-08	2.255573e+01	1.386022e+03
2.240000e-06	3.019734e-06	2.086316e-08	2.170452e+01	1.364642e+03
2.250000e-06	2.900163e-06	2.052235e-08	2.084509e+01	1.342360e+03
2.260000e-06	2.779526e-06	2.016688e-08	1.997801e+01	1.319128e+03
2.270000e-06	2.657891e-06	1.979519e-08	1.910375e+01	1.294859e+03
2.280000e-06	2.535342e-06	1.940880e-08	1.822292e+01	1.269424e+03
2.290000e-06	2.411966e-06	1.900364e-08	1.733615e+01	1.242668e+03
2.300000e-06	2.287750e-06	1.857505e-08	1.644334e+01	1.214423e+03
2.310000e-06	2.162686e-06	1.811758e-08	1.554443e+01	1.184535e+03
2.320000e-06	2.036815e-06	1.763348e-08	1.463973e+01	1.152870e+03
2.330000e-06	1.910266e-06	1.712112e-08	1.373015e+01	1.119318e+03
2.340000e-06	1.783052e-06	1.657952e-08	1.281579e+01	1.083786e+03
2.350000e-06	1.655152e-06	1.600953e-08	1.189651e+01	1.046174e+03
2.360000e-06	1.526668e-06	1.540558e-08	1.097301e+01	1.006353e+03
2.370000e-06	1.397688e-06	1.476303e-08	1.004597e+01	9.641530e+02
2.380000e-06	1.268249e-06	1.407878e-08	9.115616e+00	9.193603e+02
2.390000e-06	1.138439e-06	1.334914e-08	8.182601e+00	8.717392e+02
2.400000e-06	1.008364e-06	1.257228e-08	7.247674e+00	8.210724e+02
2.410000e-06	8.779682e-07	1.175052e-08	6.310449e+00	7.672131e+02
2.420000e-06	7.473059e-07	1.088351e-08	5.371306e+00	7.101397e+02
2.430000e-06	6.164931e-07	9.969404e-09	4.431081e+00	6.499955e+02
2.440000e-06	4.854663e-07	9.012946e-09	3.489318e+00	5.871014e+02
2.450000e-06	3.542612e-07	8.021008e-09	2.546274e+00	5.219343e+02
2.460000e-06	2.229314e-07	7.001772e-09	1.602333e+00	4.550678e+02
2.470000e-06	9.142062e-08	5.963014e-09	6.570912e-01	3.870875e+02
2.480000e-06	-4.017756e-08	4.912048e-09	-2.887786e-01	3.184940e+02
2.490000e-06	-1.717245e-07	3.854126e-09	-1.234280e+00	2.496159e+02
2.500000e-06	-3.032167e-07	2.792281e-09	-2.179388e+00	1.805536e+02
2.510000e-06	-4.345821e-07	1.727827e-09	-3.123585e+00	1.111681e+02
2.520000e-06	-5.657904e-07	6.574919e-10	-4.066653e+00	4.112205e+01
2.530000e-06	-6.968980e-07	-4.262081e-10	-5.008996e+00	-3.003230e+01
2.540000e-06	-8.278219e-07	-1.530976e-09	-5.950019e+00	-1.027340e+02
2.550000e-06	-9.584514e-07	-2.661809e-09	-6.888927e+00	-1.772865e+02
2.560000e-06	-1.088804e-06	-3.821613e-09	-7.825842e+00	-2.537479e+02
2.570000e-06	-1.218833e-06	-5.012036e-09	-8.760432e+00	-3.318634e+02
2.580000e-06	-1.348449e-06	-6.224817e-09	-9.692060e+00	-4.110515e+02
2.590000e-06	-1.477584e-06	-7.444972e-09	-1.062022e+01	-4.904504e+02
2.600000e-06	-1.606173e-06	-8.653879e-09	-1.154447e+01	-5.690137e+02
2.610000e-06	-1.734259e-06	-9.829486e-09	-1.246509e+01	-6.456380e+02
2.620000e-06	-1.861726e-06	-1.095608e-08	-1.338127e+01	-7.192974e+02
2.630000e-06	-1.988453e-06	-1.202257e-08	-1.429212e+01	-7.891596e+02
2.640000e-06	-2.114405e-06	-1.302171e-08	-1.519742e+01	-8.546652e+02
2.650000e-06	-2.239512e-06	-1.395038e-08	-1.609662e+01	-9.155570e+02
2.660000e-06	-2.363701e-06	-1.481200e-08	-1.698924e+01	-9.718612e+02
2.670000e-06	-2.486946e-06	-1.561069e-08	-1.787507e+01	-1.023828e+03
2.680000e-06	-2.609248e-06	-1.635269e-08	-1.875413e+01	-1.071848e+03
2.690000e-06	-2.730601e-06	-1.704255e-08	-1.962636e+01	-1.116367e+03
2.700000e-06	-2.850962e-06	-1.768127e-08	-2.049146e+01	-1.157812e+03
2.710000e-06	-2.970241e-06	-1.827625e-08	-2.134879e+01	-1.196539e+03
2.720000e-06	-3.088350e-06	-1.883402e-08	-2.219770e+01	-1.232820e+03
2.730000e-06	-3.205215e-06	-1.935513e-08	-2.303767e+01	-1.266843e+03
2.740000e-06	-3.320749e-06	-1.984077e-08	-2.386809e+01	-1.298744e+03
2.750000e-06	-3.434978e-06	-2.029384e-08	-2.468911e+01	-1.328636e+03
2.760000e-06	-3.547854e-06	-2.071939e-08	-2.550041e+01	-1.356634e+03
2.770000e-06	-3.659278e-06	-2.111987e-08	-2.630128e+01	-1.382879e+03
2.780000e-06	-3.769311e-06	-2.149890e-08	-2.709215e+01	-1.407531e+03
2.790000e-06	-3.878067e-06	-2.185882e-08	-2.787384e+01	-1.430766e+03
2.800000e-06	-3.985607e-06	-2.219876e-08	-2.864679e+01	-1.452751e+03
2.810000e-06	-4.091847e-06	-2.251905e-08	-2.941040e+01	-1.473629e+03
2.820000e-06	-4.196675e-06	-2.282098e-08	-3.016385e+01	-1.493506e+03
2.830000e-06	-4.299978e-06	-2.310830e-08	-3.090635e+01	-1.512449e+03
2.840000e-06	-4.401660e-06	-2.338431e-08	-3.163720e+01	-1.530490e+03
2.850000e-06	-4.501742e-06	-2.364654e-08	-3.235654e+01	-1.547644e+03
2.860000e-06	-4.600278e-06	-2.389292e-08	-3.306478e+01	-1.563922e+03
2.870000e-06	-4.697261e-06	-2.412589e-08	-3.376184e+01	-1.579347e+03
2.880000e-06	-4.792606e-06	-2.434862e-08	-3.444714e+01	-1.593961e+03
2.890000e-06	-4.886171e-06	-2.456447e-08	-3.511964e+01	-1.607825e+03
2.900000e-06	-4.977934e-06	-2.477175e-08	-3.577920e+01	-1.621010e+03
2.910000e-06	-5.067945e-06	-2.496957e-08	-3.642616e+01	-1.633586e+03
2.920000e-06	-5.156187e-06	-2.515779e-08	-3.706040e+01	-1.645613e+03
2.930000e-06	-5.242447e-06	-2.533615e-08	-3.768040e+01	-1.657129e+03
2.940000e-06	-5.326688e-06	-2.550260e-08	-3.828589e+01	-1.668155e+03
