# Temperatura_=_31.24
# Concentracion g/m^3_=_28200.0
# C_Vs_to_Am_M_A/Vsm_=_65563218390.804596
# pendiente_HvsI_1/m_=_3716.3
# ordenada_HvsI_A/m_=_1297.0
# frecuencia_Hz_=_302306.35807680176

Tiempo_(s)	Campo_(V.s)	Magnetizacion_(V.s)	Campo_(kA/m)	Magnetizacion_(A/m)
0.000000e+00	-6.871676e-06	-2.392806e-08	-4.952057e+01	-1.566754e+03
1.000000e-08	-6.869015e-06	-2.392350e-08	-4.950139e+01	-1.566392e+03
2.000000e-08	-6.863945e-06	-2.391189e-08	-4.946485e+01	-1.565897e+03
3.000000e-08	-6.856748e-06	-2.390015e-08	-4.941299e+01	-1.565266e+03
4.000000e-08	-6.847282e-06	-2.389043e-08	-4.934477e+01	-1.564489e+03
5.000000e-08	-6.835347e-06	-2.387785e-08	-4.925876e+01	-1.563556e+03
6.000000e-08	-6.820803e-06	-2.386187e-08	-4.915395e+01	-1.562453e+03
7.000000e-08	-6.803825e-06	-2.383938e-08	-4.903160e+01	-1.561172e+03
8.000000e-08	-6.784846e-06	-2.380735e-08	-4.889483e+01	-1.559716e+03
9.000000e-08	-6.763742e-06	-2.383862e-08	-4.874274e+01	-1.558099e+03
1.000000e-07	-6.740044e-06	-2.384046e-08	-4.857196e+01	-1.556345e+03
1.100000e-07	-6.713485e-06	-2.375589e-08	-4.838057e+01	-1.554489e+03
1.200000e-07	-6.684338e-06	-2.370237e-08	-4.817052e+01	-1.552565e+03
1.300000e-07	-6.652987e-06	-2.368276e-08	-4.794459e+01	-1.550603e+03
1.400000e-07	-6.619495e-06	-2.359746e-08	-4.770323e+01	-1.548612e+03
1.500000e-07	-6.584155e-06	-2.353318e-08	-4.744855e+01	-1.546584e+03
1.600000e-07	-6.547039e-06	-2.365355e-08	-4.718108e+01	-1.544483e+03
1.700000e-07	-6.507854e-06	-2.354343e-08	-4.689869e+01	-1.542256e+03
1.800000e-07	-6.466452e-06	-2.345543e-08	-4.660033e+01	-1.539838e+03
1.900000e-07	-6.422565e-06	-2.351025e-08	-4.628406e+01	-1.537163e+03
2.000000e-07	-6.376228e-06	-2.334711e-08	-4.595013e+01	-1.534181e+03
2.100000e-07	-6.327508e-06	-2.330743e-08	-4.559903e+01	-1.530864e+03
2.200000e-07	-6.276084e-06	-2.327980e-08	-4.522844e+01	-1.527212e+03
2.300000e-07	-6.222094e-06	-2.319684e-08	-4.483937e+01	-1.523251e+03
2.400000e-07	-6.165857e-06	-2.316800e-08	-4.443410e+01	-1.519025e+03
2.500000e-07	-6.107249e-06	-2.308055e-08	-4.401174e+01	-1.514585e+03
2.600000e-07	-6.046327e-06	-2.302779e-08	-4.357271e+01	-1.509974e+03
2.700000e-07	-5.983213e-06	-2.295671e-08	-4.311788e+01	-1.505215e+03
2.800000e-07	-5.917869e-06	-2.287192e-08	-4.264698e+01	-1.500308e+03
2.900000e-07	-5.850268e-06	-2.279716e-08	-4.215981e+01	-1.495228e+03
3.000000e-07	-5.780445e-06	-2.270054e-08	-4.165664e+01	-1.489931e+03
3.100000e-07	-5.708467e-06	-2.263105e-08	-4.113793e+01	-1.484369e+03
3.200000e-07	-5.634241e-06	-2.252331e-08	-4.060302e+01	-1.478497e+03
3.300000e-07	-5.557702e-06	-2.244785e-08	-4.005144e+01	-1.472286e+03
3.400000e-07	-5.478888e-06	-2.234072e-08	-3.948347e+01	-1.465732e+03
3.500000e-07	-5.397944e-06	-2.222186e-08	-3.890015e+01	-1.458846e+03
3.600000e-07	-5.315093e-06	-2.213604e-08	-3.830309e+01	-1.451656e+03
3.700000e-07	-5.230492e-06	-2.201112e-08	-3.769341e+01	-1.444189e+03
3.800000e-07	-5.144275e-06	-2.189141e-08	-3.707210e+01	-1.436467e+03
3.900000e-07	-5.056362e-06	-2.176683e-08	-3.643855e+01	-1.428490e+03
4.000000e-07	-4.966573e-06	-2.164338e-08	-3.579149e+01	-1.420240e+03
4.100000e-07	-4.874965e-06	-2.150078e-08	-3.513131e+01	-1.411678e+03
4.200000e-07	-4.781727e-06	-2.136628e-08	-3.445940e+01	-1.402758e+03
4.300000e-07	-4.686907e-06	-2.123673e-08	-3.377608e+01	-1.393429e+03
4.400000e-07	-4.590393e-06	-2.108594e-08	-3.308055e+01	-1.383655e+03
4.500000e-07	-4.492132e-06	-2.092734e-08	-3.237244e+01	-1.373414e+03
4.600000e-07	-4.392218e-06	-2.076487e-08	-3.165241e+01	-1.362703e+03
4.700000e-07	-4.290763e-06	-2.059647e-08	-3.092128e+01	-1.351530e+03
4.800000e-07	-4.187835e-06	-2.041303e-08	-3.017953e+01	-1.339911e+03
4.900000e-07	-4.083415e-06	-2.022774e-08	-2.942703e+01	-1.327851e+03
5.000000e-07	-3.977486e-06	-2.003627e-08	-2.866366e+01	-1.315341e+03
5.100000e-07	-3.870051e-06	-1.983535e-08	-2.788942e+01	-1.302351e+03
5.200000e-07	-3.761181e-06	-1.962456e-08	-2.710486e+01	-1.288830e+03
5.300000e-07	-3.651045e-06	-1.940862e-08	-2.631116e+01	-1.274716e+03
5.400000e-07	-3.539593e-06	-1.918348e-08	-2.550799e+01	-1.259943e+03
5.500000e-07	-3.426716e-06	-1.894388e-08	-2.469455e+01	-1.244453e+03
5.600000e-07	-3.312400e-06	-1.869428e-08	-2.387073e+01	-1.228200e+03
5.700000e-07	-3.196618e-06	-1.843446e-08	-2.303635e+01	-1.211155e+03
5.800000e-07	-3.079481e-06	-1.816167e-08	-2.219220e+01	-1.193301e+03
5.900000e-07	-2.961226e-06	-1.787290e-08	-2.134001e+01	-1.174620e+03
6.000000e-07	-2.841972e-06	-1.757406e-08	-2.048060e+01	-1.155085e+03
6.100000e-07	-2.721694e-06	-1.726188e-08	-1.961382e+01	-1.134646e+03
6.200000e-07	-2.600368e-06	-1.693375e-08	-1.873949e+01	-1.113229e+03
6.300000e-07	-2.477996e-06	-1.658694e-08	-1.785762e+01	-1.090731e+03
6.400000e-07	-2.354628e-06	-1.622417e-08	-1.696857e+01	-1.067030e+03
6.500000e-07	-2.230373e-06	-1.584206e-08	-1.607313e+01	-1.041996e+03
6.600000e-07	-2.105368e-06	-1.543779e-08	-1.517228e+01	-1.015500e+03
6.700000e-07	-1.979737e-06	-1.501004e-08	-1.426693e+01	-9.874192e+02
6.800000e-07	-1.853501e-06	-1.455731e-08	-1.335721e+01	-9.576414e+02
6.900000e-07	-1.726610e-06	-1.407926e-08	-1.244277e+01	-9.260576e+02
7.000000e-07	-1.599079e-06	-1.356829e-08	-1.152372e+01	-8.925535e+02
7.100000e-07	-1.470965e-06	-1.302522e-08	-1.060047e+01	-8.570010e+02
7.200000e-07	-1.342337e-06	-1.244800e-08	-9.673517e+00	-8.192550e+02
7.300000e-07	-1.213284e-06	-1.183470e-08	-8.743500e+00	-7.791620e+02
7.400000e-07	-1.083880e-06	-1.118284e-08	-7.810952e+00	-7.365800e+02
7.500000e-07	-9.541565e-07	-1.049273e-08	-6.876106e+00	-6.914097e+02
7.600000e-07	-8.241230e-07	-9.765190e-09	-5.939022e+00	-6.436308e+02
7.700000e-07	-6.938055e-07	-8.999343e-09	-4.999892e+00	-5.933354e+02
7.800000e-07	-5.632396e-07	-8.197313e-09	-4.058972e+00	-5.407480e+02
7.900000e-07	-4.324616e-07	-7.365873e-09	-3.116524e+00	-4.862241e+02
8.000000e-07	-3.015338e-07	-6.513931e-09	-2.172996e+00	-4.302234e+02
8.100000e-07	-1.704660e-07	-5.646429e-09	-1.228459e+00	-3.732577e+02
8.200000e-07	-3.924535e-08	-4.771575e-09	-2.828207e-01	-3.158218e+02
8.300000e-07	9.204013e-08	-3.895817e-09	6.632849e-01	-2.583183e+02
8.400000e-07	2.232790e-07	-3.023917e-09	1.609054e+00	-2.009928e+02
8.500000e-07	3.544345e-07	-2.154532e-09	2.554224e+00	-1.438925e+02
8.600000e-07	4.854547e-07	-1.285603e-09	3.498417e+00	-8.686134e+01
8.700000e-07	6.163081e-07	-4.137677e-10	4.441409e+00	-2.957256e+01
8.800000e-07	7.469868e-07	4.703457e-10	5.383142e+00	2.840163e+01
8.900000e-07	8.774272e-07	1.372776e-09	6.323158e+00	8.749699e+01
9.000000e-07	1.007528e-06	2.297815e-09	7.260728e+00	1.480564e+02
9.100000e-07	1.137232e-06	3.245364e-09	8.195435e+00	2.102407e+02
9.200000e-07	1.266545e-06	4.215842e-09	9.127329e+00	2.739678e+02
9.300000e-07	1.395466e-06	5.205880e-09	1.005639e+01	3.388920e+02
9.400000e-07	1.523907e-06	6.205682e-09	1.098200e+01	4.044276e+02
9.500000e-07	1.651767e-06	7.202357e-09	1.190342e+01	4.698116e+02
9.600000e-07	1.779001e-06	8.182168e-09	1.282033e+01	5.341938e+02
9.700000e-07	1.905545e-06	9.132760e-09	1.373226e+01	5.967370e+02
9.800000e-07	2.031374e-06	1.004330e-08	1.463905e+01	6.567103e+02
9.900000e-07	2.156515e-06	1.090696e-08	1.554087e+01	7.135594e+02
1.000000e-06	2.280973e-06	1.171711e-08	1.643777e+01	7.669435e+02
1.010000e-06	2.404620e-06	1.247034e-08	1.732883e+01	8.167383e+02
1.020000e-06	2.527307e-06	1.316987e-08	1.821297e+01	8.630067e+02
1.030000e-06	2.649005e-06	1.382161e-08	1.908999e+01	9.059486e+02
1.040000e-06	2.769685e-06	1.442621e-08	1.995967e+01	9.458419e+02
1.050000e-06	2.889275e-06	1.498992e-08	2.082149e+01	9.829871e+02
1.060000e-06	3.007777e-06	1.551712e-08	2.167547e+01	1.017665e+03
1.070000e-06	3.125227e-06	1.600900e-08	2.252187e+01	1.050112e+03
1.080000e-06	3.241581e-06	1.646708e-08	2.336037e+01	1.080515e+03
1.090000e-06	3.356649e-06	1.689638e-08	2.418961e+01	1.109020e+03
1.100000e-06	3.470316e-06	1.730066e-08	2.500875e+01	1.135749e+03
1.110000e-06	3.582586e-06	1.768086e-08	2.581782e+01	1.160814e+03
1.120000e-06	3.693498e-06	1.803958e-08	2.661710e+01	1.184336e+03
1.130000e-06	3.803126e-06	1.837793e-08	2.740713e+01	1.206442e+03
1.140000e-06	3.911585e-06	1.869501e-08	2.818874e+01	1.227267e+03
1.150000e-06	4.018806e-06	1.899421e-08	2.896143e+01	1.246941e+03
1.160000e-06	4.124530e-06	1.927745e-08	2.972333e+01	1.265580e+03
1.170000e-06	4.228662e-06	1.954632e-08	3.047375e+01	1.283279e+03
1.180000e-06	4.331260e-06	1.980282e-08	3.121312e+01	1.300104e+03
1.190000e-06	4.432436e-06	2.004422e-08	3.194224e+01	1.316099e+03
1.200000e-06	4.532102e-06	2.027462e-08	3.266048e+01	1.331291e+03
1.210000e-06	4.630050e-06	2.049449e-08	3.336634e+01	1.345702e+03
1.220000e-06	4.726145e-06	2.070354e-08	3.405885e+01	1.359358e+03
1.230000e-06	4.820480e-06	2.089989e-08	3.473867e+01	1.372292e+03
1.240000e-06	4.913235e-06	2.108443e-08	3.540711e+01	1.384552e+03
1.250000e-06	5.004350e-06	2.126016e-08	3.606372e+01	1.396192e+03
1.260000e-06	5.093607e-06	2.142849e-08	3.670695e+01	1.407270e+03
1.270000e-06	5.180917e-06	2.158949e-08	3.733615e+01	1.417834e+03
1.280000e-06	5.266356e-06	2.174203e-08	3.795187e+01	1.427923e+03
1.290000e-06	5.350023e-06	2.188800e-08	3.855481e+01	1.437558e+03
1.300000e-06	5.431759e-06	2.202931e-08	3.914384e+01	1.446745e+03
1.310000e-06	5.511422e-06	2.216426e-08	3.971792e+01	1.455479e+03
1.320000e-06	5.589085e-06	2.229292e-08	4.027761e+01	1.463753e+03
1.330000e-06	5.664630e-06	2.241445e-08	4.082202e+01	1.471561e+03
1.340000e-06	5.737931e-06	2.252819e-08	4.135026e+01	1.478908e+03
1.350000e-06	5.809087e-06	2.263297e-08	4.186305e+01	1.485810e+03
1.360000e-06	5.878223e-06	2.272958e-08	4.236127e+01	1.492294e+03
1.370000e-06	5.945324e-06	2.282247e-08	4.284483e+01	1.498393e+03
1.380000e-06	6.010200e-06	2.291103e-08	4.331236e+01	1.504146e+03
1.390000e-06	6.072920e-06	2.299448e-08	4.376435e+01	1.509585e+03
1.400000e-06	6.133654e-06	2.307235e-08	4.420203e+01	1.514741e+03
1.410000e-06	6.192255e-06	2.314488e-08	4.462434e+01	1.519633e+03
1.420000e-06	6.248612e-06	2.321446e-08	4.503047e+01	1.524275e+03
1.430000e-06	6.302748e-06	2.328225e-08	4.542060e+01	1.528673e+03
1.440000e-06	6.354419e-06	2.334714e-08	4.579297e+01	1.532831e+03
1.450000e-06	6.403340e-06	2.340770e-08	4.614552e+01	1.536750e+03
1.460000e-06	6.449795e-06	2.346413e-08	4.648029e+01	1.540432e+03
1.470000e-06	6.494187e-06	2.351658e-08	4.680020e+01	1.543880e+03
1.480000e-06	6.536368e-06	2.356477e-08	4.710418e+01	1.547097e+03
1.490000e-06	6.576065e-06	2.361004e-08	4.739025e+01	1.550084e+03
1.500000e-06	6.613429e-06	2.365329e-08	4.765951e+01	1.552842e+03
1.510000e-06	6.648681e-06	2.369265e-08	4.791356e+01	1.555372e+03
1.520000e-06	6.681541e-06	2.372805e-08	4.815036e+01	1.557673e+03
1.530000e-06	6.711885e-06	2.375837e-08	4.836904e+01	1.559746e+03
1.540000e-06	6.740009e-06	2.378480e-08	4.857171e+01	1.561592e+03
1.550000e-06	6.765699e-06	2.380963e-08	4.875684e+01	1.563215e+03
1.560000e-06	6.788700e-06	2.383130e-08	4.892260e+01	1.564623e+03
1.570000e-06	6.809306e-06	2.384879e-08	4.907109e+01	1.565823e+03
1.580000e-06	6.827649e-06	2.386110e-08	4.920328e+01	1.566824e+03
1.590000e-06	6.843464e-06	2.387118e-08	4.931725e+01	1.567634e+03
1.600000e-06	6.856695e-06	2.387983e-08	4.941261e+01	1.568261e+03
1.610000e-06	6.867222e-06	2.388808e-08	4.948847e+01	1.568713e+03
1.620000e-06	6.875008e-06	2.389535e-08	4.954458e+01	1.568996e+03
1.630000e-06	6.880374e-06	2.390066e-08	4.958324e+01	1.569119e+03
1.640000e-06	6.883399e-06	2.390404e-08	4.960505e+01	1.569089e+03
1.650000e-06	6.883934e-06	2.390544e-08	4.960890e+01	1.568916e+03
1.660000e-06	6.882084e-06	2.389637e-08	4.959557e+01	1.568606e+03
1.670000e-06	6.878153e-06	2.388362e-08	4.956724e+01	1.568163e+03
1.680000e-06	6.871935e-06	2.387453e-08	4.952243e+01	1.567586e+03
1.690000e-06	6.863348e-06	2.386143e-08	4.946055e+01	1.566867e+03
1.700000e-06	6.852528e-06	2.384946e-08	4.938257e+01	1.565997e+03
1.710000e-06	6.839257e-06	2.384113e-08	4.928694e+01	1.564961e+03
1.720000e-06	6.823569e-06	2.383929e-08	4.917388e+01	1.563750e+03
1.730000e-06	6.805806e-06	2.382838e-08	4.904588e+01	1.562362e+03
1.740000e-06	6.785919e-06	2.372413e-08	4.890256e+01	1.560805e+03
1.750000e-06	6.763126e-06	2.368943e-08	4.873830e+01	1.559101e+03
1.760000e-06	6.737060e-06	2.371732e-08	4.855046e+01	1.557280e+03
1.770000e-06	6.708249e-06	2.367626e-08	4.834283e+01	1.555379e+03
1.780000e-06	6.677217e-06	2.366414e-08	4.811920e+01	1.553429e+03
1.790000e-06	6.644400e-06	2.372564e-08	4.788271e+01	1.551450e+03
1.800000e-06	6.610188e-06	2.356737e-08	4.763616e+01	1.549439e+03
1.810000e-06	6.574014e-06	2.351577e-08	4.737547e+01	1.547371e+03
1.820000e-06	6.535252e-06	2.360075e-08	4.709613e+01	1.545201e+03
1.830000e-06	6.494335e-06	2.345241e-08	4.680127e+01	1.542865e+03
1.840000e-06	6.451237e-06	2.355485e-08	4.649068e+01	1.540298e+03
1.850000e-06	6.405764e-06	2.350863e-08	4.616298e+01	1.537441e+03
1.860000e-06	6.357988e-06	2.336825e-08	4.581869e+01	1.534257e+03
1.870000e-06	6.307799e-06	2.341489e-08	4.545700e+01	1.530735e+03
1.880000e-06	6.255260e-06	2.325110e-08	4.507838e+01	1.526890e+03
1.890000e-06	6.200120e-06	2.325495e-08	4.468101e+01	1.522762e+03
1.900000e-06	6.142397e-06	2.319903e-08	4.426503e+01	1.518400e+03
1.910000e-06	6.082457e-06	2.307357e-08	4.383308e+01	1.513852e+03
1.920000e-06	6.020137e-06	2.308434e-08	4.338397e+01	1.509149e+03
1.930000e-06	5.955566e-06	2.293143e-08	4.291864e+01	1.504302e+03
1.940000e-06	5.888942e-06	2.290603e-08	4.243851e+01	1.499294e+03
1.950000e-06	5.820122e-06	2.280287e-08	4.194257e+01	1.494088e+03
1.960000e-06	5.748957e-06	2.270649e-08	4.142972e+01	1.488635e+03
1.970000e-06	5.675535e-06	2.265256e-08	4.090060e+01	1.482889e+03
1.980000e-06	5.599992e-06	2.250373e-08	4.035620e+01	1.476813e+03
1.990000e-06	5.522101e-06	2.246298e-08	3.979488e+01	1.470393e+03
2.000000e-06	5.442084e-06	2.232682e-08	3.921824e+01	1.463634e+03
2.010000e-06	5.360264e-06	2.223931e-08	3.862861e+01	1.456560e+03
2.020000e-06	5.276617e-06	2.213431e-08	3.802581e+01	1.449198e+03
2.030000e-06	5.190963e-06	2.199684e-08	3.740854e+01	1.441575e+03
2.040000e-06	5.103291e-06	2.189692e-08	3.677674e+01	1.433699e+03
2.050000e-06	5.013850e-06	2.175559e-08	3.613219e+01	1.425559e+03
2.060000e-06	4.922781e-06	2.164915e-08	3.547590e+01	1.417125e+03
2.070000e-06	4.830118e-06	2.149106e-08	3.480813e+01	1.408351e+03
2.080000e-06	4.735659e-06	2.135741e-08	3.412741e+01	1.399188e+03
2.090000e-06	4.639345e-06	2.120753e-08	3.343333e+01	1.389592e+03
2.100000e-06	4.541515e-06	2.105240e-08	3.272832e+01	1.379536e+03
2.110000e-06	4.442311e-06	2.090154e-08	3.201341e+01	1.369008e+03
2.120000e-06	4.341597e-06	2.073332e-08	3.128761e+01	1.358015e+03
2.130000e-06	4.239210e-06	2.056392e-08	3.054976e+01	1.346569e+03
2.140000e-06	4.135147e-06	2.037097e-08	2.979984e+01	1.334682e+03
2.150000e-06	4.029560e-06	2.018899e-08	2.903893e+01	1.322351e+03
2.160000e-06	3.922665e-06	1.999347e-08	2.826859e+01	1.309554e+03
2.170000e-06	3.814397e-06	1.979828e-08	2.748836e+01	1.296249e+03
2.180000e-06	3.704719e-06	1.958695e-08	2.669797e+01	1.282375e+03
2.190000e-06	3.593691e-06	1.937026e-08	2.589785e+01	1.267869e+03
2.200000e-06	3.481271e-06	1.913652e-08	2.508769e+01	1.252666e+03
2.210000e-06	3.367479e-06	1.889133e-08	2.426765e+01	1.236717e+03
2.220000e-06	3.252257e-06	1.863887e-08	2.343731e+01	1.219985e+03
2.230000e-06	3.135644e-06	1.837580e-08	2.259694e+01	1.202451e+03
2.240000e-06	3.017706e-06	1.810008e-08	2.174702e+01	1.184097e+03
2.250000e-06	2.898545e-06	1.780652e-08	2.088829e+01	1.164901e+03
2.260000e-06	2.778295e-06	1.750267e-08	2.002172e+01	1.144825e+03
2.270000e-06	2.657034e-06	1.717976e-08	1.914785e+01	1.123802e+03
2.280000e-06	2.534834e-06	1.684534e-08	1.826722e+01	1.101742e+03
2.290000e-06	2.411741e-06	1.649262e-08	1.738015e+01	1.078529e+03
2.300000e-06	2.287811e-06	1.612084e-08	1.648705e+01	1.054034e+03
2.310000e-06	2.163097e-06	1.572410e-08	1.558831e+01	1.028127e+03
2.320000e-06	2.037596e-06	1.530623e-08	1.468389e+01	1.000682e+03
2.330000e-06	1.911356e-06	1.486323e-08	1.377414e+01	9.715839e+02
2.340000e-06	1.784436e-06	1.439306e-08	1.285950e+01	9.407224e+02
2.350000e-06	1.656903e-06	1.389458e-08	1.194043e+01	9.079868e+02
2.360000e-06	1.528819e-06	1.336338e-08	1.101740e+01	8.732550e+02
2.370000e-06	1.400194e-06	1.280009e-08	1.009046e+01	8.363886e+02
2.380000e-06	1.271078e-06	1.220162e-08	9.159991e+00	7.972355e+02
2.390000e-06	1.141598e-06	1.156817e-08	8.226897e+00	7.556460e+02
2.400000e-06	1.011825e-06	1.089567e-08	7.291693e+00	7.114998e+02
2.410000e-06	8.817215e-07	1.018388e-08	6.354104e+00	6.647413e+02
2.420000e-06	7.513620e-07	9.432968e-09	5.414672e+00	6.154150e+02
2.430000e-06	6.207711e-07	8.642417e-09	4.473572e+00	5.636923e+02
2.440000e-06	4.899954e-07	7.819607e-09	3.531140e+00	5.098788e+02
2.450000e-06	3.591173e-07	6.973767e-09	2.587970e+00	4.543984e+02
2.460000e-06	2.280999e-07	6.110408e-09	1.643796e+00	3.977499e+02
2.470000e-06	9.697476e-08	5.234161e-09	6.988462e-01	3.404437e+02
2.480000e-06	-3.424716e-08	4.352288e-09	-2.468013e-01	2.829272e+02
2.490000e-06	-1.654443e-07	3.472700e-09	-1.192270e+00	2.255143e+02
2.500000e-06	-2.965504e-07	2.597853e-09	-2.137083e+00	1.683329e+02
2.510000e-06	-4.275885e-07	1.725625e-09	-3.081406e+00	1.113050e+02
2.520000e-06	-5.585268e-07	8.530355e-10	-4.025010e+00	5.416440e+01
2.530000e-06	-6.893458e-07	-2.671943e-11	-4.967754e+00	-3.487054e+00
2.540000e-06	-8.199771e-07	-9.207469e-10	-5.909145e+00	-6.209403e+01
2.550000e-06	-9.503806e-07	-1.834130e-09	-6.848894e+00	-1.220476e+02
2.560000e-06	-1.080498e-06	-2.770476e-09	-7.786582e+00	-1.835893e+02
2.570000e-06	-1.210249e-06	-3.732028e-09	-8.721629e+00	-2.467373e+02
2.580000e-06	-1.339600e-06	-4.716571e-09	-9.653796e+00	-3.112491e+02
2.590000e-06	-1.468545e-06	-5.715951e-09	-1.058303e+01	-3.766278e+02
2.600000e-06	-1.597036e-06	-6.718886e-09	-1.150900e+01	-4.421705e+02
2.610000e-06	-1.724975e-06	-7.713184e-09	-1.243099e+01	-5.070493e+02
2.620000e-06	-1.852186e-06	-8.684454e-09	-1.334774e+01	-5.704102e+02
2.630000e-06	-1.978581e-06	-9.618280e-09	-1.425859e+01	-6.314705e+02
2.640000e-06	-2.104210e-06	-1.050506e-08	-1.516394e+01	-6.896002e+02
2.650000e-06	-2.229029e-06	-1.134109e-08	-1.606344e+01	-7.443723e+02
2.660000e-06	-2.352959e-06	-1.212462e-08	-1.695654e+01	-7.955795e+02
2.670000e-06	-2.475958e-06	-1.285411e-08	-1.784293e+01	-8.432160e+02
2.680000e-06	-2.598016e-06	-1.353528e-08	-1.872254e+01	-8.874349e+02
2.690000e-06	-2.719146e-06	-1.416986e-08	-1.959546e+01	-9.284905e+02
2.700000e-06	-2.839313e-06	-1.475932e-08	-2.046144e+01	-9.666803e+02
2.710000e-06	-2.958360e-06	-1.530751e-08	-2.131935e+01	-1.002297e+03
2.720000e-06	-3.076190e-06	-1.581867e-08	-2.216849e+01	-1.035595e+03
2.730000e-06	-3.192794e-06	-1.629532e-08	-2.300879e+01	-1.066782e+03
2.740000e-06	-3.308085e-06	-1.674058e-08	-2.383963e+01	-1.096018e+03
2.750000e-06	-3.422008e-06	-1.715809e-08	-2.466061e+01	-1.123431e+03
2.760000e-06	-3.534570e-06	-1.754986e-08	-2.547179e+01	-1.149137e+03
2.770000e-06	-3.645767e-06	-1.792032e-08	-2.627313e+01	-1.173251e+03
2.780000e-06	-3.755577e-06	-1.827120e-08	-2.706447e+01	-1.195898e+03
2.790000e-06	-3.864119e-06	-1.860061e-08	-2.784668e+01	-1.217210e+03
2.800000e-06	-3.971464e-06	-1.890731e-08	-2.862026e+01	-1.237321e+03
2.810000e-06	-4.077559e-06	-1.919574e-08	-2.938483e+01	-1.256355e+03
2.820000e-06	-4.182352e-06	-1.947053e-08	-3.014002e+01	-1.274414e+03
2.830000e-06	-4.285577e-06	-1.973269e-08	-3.088391e+01	-1.291576e+03
2.840000e-06	-4.387076e-06	-1.998265e-08	-3.161536e+01	-1.307893e+03
2.850000e-06	-4.486950e-06	-2.021948e-08	-3.233510e+01	-1.323399e+03
2.860000e-06	-4.585307e-06	-2.044347e-08	-3.304390e+01	-1.338115e+03
2.870000e-06	-4.682180e-06	-2.065521e-08	-3.374202e+01	-1.352064e+03
2.880000e-06	-4.777366e-06	-2.085670e-08	-3.442797e+01	-1.365276e+03
2.890000e-06	-4.870725e-06	-2.105057e-08	-3.510076e+01	-1.377795e+03
2.900000e-06	-4.962327e-06	-2.123456e-08	-3.576089e+01	-1.389673e+03
2.910000e-06	-5.052218e-06	-2.140825e-08	-3.640868e+01	-1.400965e+03
2.920000e-06	-5.140306e-06	-2.157306e-08	-3.704349e+01	-1.411726e+03
2.930000e-06	-5.226407e-06	-2.172998e-08	-3.766397e+01	-1.421999e+03
2.940000e-06	-5.310527e-06	-2.187786e-08	-3.827018e+01	-1.431811e+03
