# Temperatura_=_69.13
# Concentracion g/m^3_=_28200.0
# C_Vs_to_Am_M_A/Vsm_=_65563218390.804596
# pendiente_HvsI_1/m_=_3716.3
# ordenada_HvsI_A/m_=_1297.0
# frecuencia_Hz_=_302301.28707850346

Tiempo_(s)	Campo_(V.s)	Magnetizacion_(V.s)	Campo_(kA/m)	Magnetizacion_(A/m)
0.000000e+00	-6.864639e-06	-2.600901e-08	-4.951831e+01	-1.702823e+03
1.000000e-08	-6.861786e-06	-2.600477e-08	-4.949773e+01	-1.702389e+03
2.000000e-08	-6.856662e-06	-2.599485e-08	-4.946077e+01	-1.701807e+03
3.000000e-08	-6.849486e-06	-2.598109e-08	-4.940901e+01	-1.701075e+03
4.000000e-08	-6.839978e-06	-2.596723e-08	-4.934042e+01	-1.700187e+03
5.000000e-08	-6.827916e-06	-2.595124e-08	-4.925341e+01	-1.699129e+03
6.000000e-08	-6.813331e-06	-2.593451e-08	-4.914820e+01	-1.697883e+03
7.000000e-08	-6.796428e-06	-2.591112e-08	-4.902627e+01	-1.696436e+03
8.000000e-08	-6.777472e-06	-2.588232e-08	-4.888954e+01	-1.694783e+03
9.000000e-08	-6.756355e-06	-2.589866e-08	-4.873721e+01	-1.692937e+03
1.000000e-07	-6.732591e-06	-2.589056e-08	-4.856578e+01	-1.690928e+03
1.100000e-07	-6.705989e-06	-2.581319e-08	-4.837389e+01	-1.688799e+03
1.200000e-07	-6.676829e-06	-2.575572e-08	-4.816354e+01	-1.686596e+03
1.300000e-07	-6.645465e-06	-2.572182e-08	-4.793730e+01	-1.684358e+03
1.400000e-07	-6.612046e-06	-2.564397e-08	-4.769622e+01	-1.682107e+03
1.500000e-07	-6.576737e-06	-2.560390e-08	-4.744152e+01	-1.679832e+03
1.600000e-07	-6.539547e-06	-2.567137e-08	-4.717326e+01	-1.677494e+03
1.700000e-07	-6.500311e-06	-2.556625e-08	-4.689022e+01	-1.675025e+03
1.800000e-07	-6.458874e-06	-2.549948e-08	-4.659131e+01	-1.672342e+03
1.900000e-07	-6.414934e-06	-2.550641e-08	-4.627435e+01	-1.669362e+03
2.000000e-07	-6.368568e-06	-2.536154e-08	-4.593989e+01	-1.666021e+03
2.100000e-07	-6.319835e-06	-2.532233e-08	-4.558835e+01	-1.662285e+03
2.200000e-07	-6.268392e-06	-2.527601e-08	-4.521727e+01	-1.658156e+03
2.300000e-07	-6.214382e-06	-2.518941e-08	-4.482766e+01	-1.653673e+03
2.400000e-07	-6.158013e-06	-2.514936e-08	-4.442104e+01	-1.648895e+03
2.500000e-07	-6.099236e-06	-2.506327e-08	-4.399705e+01	-1.643889e+03
2.600000e-07	-6.038215e-06	-2.498752e-08	-4.355688e+01	-1.638710e+03
2.700000e-07	-5.975032e-06	-2.490806e-08	-4.310111e+01	-1.633389e+03
2.800000e-07	-5.909680e-06	-2.481863e-08	-4.262969e+01	-1.627921e+03
2.900000e-07	-5.842147e-06	-2.472668e-08	-4.214254e+01	-1.622273e+03
3.000000e-07	-5.772393e-06	-2.463088e-08	-4.163936e+01	-1.616389e+03
3.100000e-07	-5.700438e-06	-2.455482e-08	-4.112031e+01	-1.610209e+03
3.200000e-07	-5.626244e-06	-2.443819e-08	-4.058511e+01	-1.603682e+03
3.300000e-07	-5.549696e-06	-2.433626e-08	-4.003293e+01	-1.596780e+03
3.400000e-07	-5.470854e-06	-2.422245e-08	-3.946420e+01	-1.589503e+03
3.500000e-07	-5.389945e-06	-2.409972e-08	-3.888056e+01	-1.581875e+03
3.600000e-07	-5.307178e-06	-2.399478e-08	-3.828352e+01	-1.573935e+03
3.700000e-07	-5.222657e-06	-2.386409e-08	-3.767382e+01	-1.565717e+03
3.800000e-07	-5.136455e-06	-2.373689e-08	-3.705200e+01	-1.557242e+03
3.900000e-07	-5.048524e-06	-2.359867e-08	-3.641771e+01	-1.548505e+03
4.000000e-07	-4.958768e-06	-2.345431e-08	-3.577025e+01	-1.539473e+03
4.100000e-07	-4.867208e-06	-2.330494e-08	-3.510977e+01	-1.530092e+03
4.200000e-07	-4.774011e-06	-2.316151e-08	-3.443750e+01	-1.520299e+03
4.300000e-07	-4.679187e-06	-2.301139e-08	-3.375348e+01	-1.510039e+03
4.400000e-07	-4.582699e-06	-2.284087e-08	-3.305746e+01	-1.499274e+03
4.500000e-07	-4.484549e-06	-2.266645e-08	-3.234945e+01	-1.487994e+03
4.600000e-07	-4.384673e-06	-2.248764e-08	-3.162900e+01	-1.476212e+03
4.700000e-07	-4.283218e-06	-2.230195e-08	-3.089714e+01	-1.463955e+03
4.800000e-07	-4.180290e-06	-2.210753e-08	-3.015467e+01	-1.451251e+03
4.900000e-07	-4.075870e-06	-2.190846e-08	-2.940143e+01	-1.438110e+03
5.000000e-07	-3.969945e-06	-2.169857e-08	-2.863734e+01	-1.424519e+03
5.100000e-07	-3.862496e-06	-2.147944e-08	-2.786225e+01	-1.410432e+03
5.200000e-07	-3.753661e-06	-2.125175e-08	-2.707717e+01	-1.395779e+03
5.300000e-07	-3.643541e-06	-2.101463e-08	-2.628281e+01	-1.380475e+03
5.400000e-07	-3.532104e-06	-2.076659e-08	-2.547895e+01	-1.364439e+03
5.500000e-07	-3.419301e-06	-2.050626e-08	-2.466525e+01	-1.347607e+03
5.600000e-07	-3.305074e-06	-2.023669e-08	-2.384127e+01	-1.329939e+03
5.700000e-07	-3.189375e-06	-1.995511e-08	-2.300667e+01	-1.311420e+03
5.800000e-07	-3.072355e-06	-1.965977e-08	-2.216254e+01	-1.292049e+03
5.900000e-07	-2.954209e-06	-1.935058e-08	-2.131029e+01	-1.271823e+03
6.000000e-07	-2.834980e-06	-1.903094e-08	-2.045023e+01	-1.250719e+03
6.100000e-07	-2.714752e-06	-1.869364e-08	-1.958296e+01	-1.228682e+03
6.200000e-07	-2.593539e-06	-1.833618e-08	-1.870859e+01	-1.205618e+03
6.300000e-07	-2.471307e-06	-1.796130e-08	-1.782686e+01	-1.181396e+03
6.400000e-07	-2.348083e-06	-1.756802e-08	-1.693798e+01	-1.155867e+03
6.500000e-07	-2.223957e-06	-1.715338e-08	-1.604259e+01	-1.128876e+03
6.600000e-07	-2.099088e-06	-1.671698e-08	-1.514184e+01	-1.100280e+03
6.700000e-07	-1.973595e-06	-1.625827e-08	-1.423660e+01	-1.069957e+03
6.800000e-07	-1.847443e-06	-1.577253e-08	-1.332659e+01	-1.037806e+03
6.900000e-07	-1.720631e-06	-1.525638e-08	-1.241184e+01	-1.003732e+03
7.000000e-07	-1.593241e-06	-1.470711e-08	-1.149290e+01	-9.676317e+02
7.100000e-07	-1.465326e-06	-1.412325e-08	-1.057018e+01	-9.293743e+02
7.200000e-07	-1.336907e-06	-1.350025e-08	-9.643824e+00	-8.887928e+02
7.300000e-07	-1.208016e-06	-1.283878e-08	-8.714069e+00	-8.456906e+02
7.400000e-07	-1.078727e-06	-1.213661e-08	-7.781434e+00	-7.998660e+02
7.500000e-07	-9.490573e-07	-1.139119e-08	-6.846059e+00	-7.511529e+02
7.600000e-07	-8.190637e-07	-1.060269e-08	-5.908345e+00	-6.994694e+02
7.700000e-07	-6.888562e-07	-9.771441e-09	-4.969089e+00	-6.448624e+02
7.800000e-07	-5.584490e-07	-8.900280e-09	-4.028392e+00	-5.875364e+02
7.900000e-07	-4.278239e-07	-7.993854e-09	-3.086123e+00	-5.278544e+02
8.000000e-07	-2.970072e-07	-7.058939e-09	-2.142472e+00	-4.663070e+02
8.100000e-07	-1.660818e-07	-6.101027e-09	-1.198037e+00	-4.034500e+02
8.200000e-07	-3.513028e-08	-5.129917e-09	-2.534135e-01	-3.398218e+02
8.300000e-07	9.581716e-08	-4.152972e-09	6.911804e-01	-2.758554e+02
8.400000e-07	2.267650e-07	-3.175559e-09	1.635778e+00	-2.118057e+02
8.500000e-07	3.576712e-07	-2.200521e-09	2.580074e+00	-1.477071e+02
8.600000e-07	4.884723e-07	-1.224248e-09	3.523613e+00	-8.337543e+01
8.700000e-07	6.191331e-07	-2.392236e-10	4.466138e+00	-1.845599e+01
8.800000e-07	7.496126e-07	7.631567e-10	5.407357e+00	4.748845e+01
8.900000e-07	8.798947e-07	1.789400e-09	6.347151e+00	1.148662e+02
9.000000e-07	1.009923e-06	2.841696e-09	7.285117e+00	1.839429e+02
9.100000e-07	1.139648e-06	3.920849e-09	8.220892e+00	2.547481e+02
9.200000e-07	1.269008e-06	5.025178e-09	9.154035e+00	3.270222e+02
9.300000e-07	1.397851e-06	6.143770e-09	1.008345e+01	4.002124e+02
9.400000e-07	1.526101e-06	7.263907e-09	1.100859e+01	4.735223e+02
9.500000e-07	1.653762e-06	8.370185e-09	1.192947e+01	5.460014e+02
9.600000e-07	1.780812e-06	9.445631e-09	1.284595e+01	6.166605e+02
9.700000e-07	1.907201e-06	1.047666e-08	1.375766e+01	6.845893e+02
9.800000e-07	2.032907e-06	1.145307e-08	1.466444e+01	7.490557e+02
9.900000e-07	2.157955e-06	1.236796e-08	1.556648e+01	8.095707e+02
1.000000e-06	2.282265e-06	1.321824e-08	1.646320e+01	8.659102e+02
1.010000e-06	2.405703e-06	1.400755e-08	1.735362e+01	9.180955e+02
1.020000e-06	2.528230e-06	1.474044e-08	1.823748e+01	9.663403e+02
1.030000e-06	2.649828e-06	1.541878e-08	1.911462e+01	1.010979e+03
1.040000e-06	2.770345e-06	1.604674e-08	1.998398e+01	1.052396e+03
1.050000e-06	2.889719e-06	1.663090e-08	2.084509e+01	1.090959e+03
1.060000e-06	3.008039e-06	1.717722e-08	2.169860e+01	1.126984e+03
1.070000e-06	3.125344e-06	1.768930e-08	2.254478e+01	1.160716e+03
1.080000e-06	3.241469e-06	1.816726e-08	2.338245e+01	1.192336e+03
1.090000e-06	3.356307e-06	1.861375e-08	2.421084e+01	1.221981e+03
1.100000e-06	3.469831e-06	1.903393e-08	2.502975e+01	1.249767e+03
1.110000e-06	3.581908e-06	1.942869e-08	2.583822e+01	1.275813e+03
1.120000e-06	3.692577e-06	1.980063e-08	2.663654e+01	1.300252e+03
1.130000e-06	3.802092e-06	2.015339e-08	2.742653e+01	1.323229e+03
1.140000e-06	3.910466e-06	2.048641e-08	2.820829e+01	1.344895e+03
1.150000e-06	4.017501e-06	2.079996e-08	2.898039e+01	1.365395e+03
1.160000e-06	4.123108e-06	2.109613e-08	2.974218e+01	1.384848e+03
1.170000e-06	4.227166e-06	2.137835e-08	3.049281e+01	1.403345e+03
1.180000e-06	4.329635e-06	2.164562e-08	3.123198e+01	1.420946e+03
1.190000e-06	4.430608e-06	2.189693e-08	3.196035e+01	1.437683e+03
1.200000e-06	4.530065e-06	2.213595e-08	3.267779e+01	1.453578e+03
1.210000e-06	4.627864e-06	2.236347e-08	3.338326e+01	1.468648e+03
1.220000e-06	4.723916e-06	2.257941e-08	3.407614e+01	1.482922e+03
1.230000e-06	4.818229e-06	2.278513e-08	3.475647e+01	1.496443e+03
1.240000e-06	4.910904e-06	2.298031e-08	3.542498e+01	1.509268e+03
1.250000e-06	5.001910e-06	2.316591e-08	3.608145e+01	1.521459e+03
1.260000e-06	5.091027e-06	2.334324e-08	3.672431e+01	1.533079e+03
1.270000e-06	5.178179e-06	2.351194e-08	3.735298e+01	1.544178e+03
1.280000e-06	5.263488e-06	2.367345e-08	3.796836e+01	1.554793e+03
1.290000e-06	5.347012e-06	2.382622e-08	3.857086e+01	1.564941e+03
1.300000e-06	5.428620e-06	2.397246e-08	3.915954e+01	1.574625e+03
1.310000e-06	5.508185e-06	2.411327e-08	3.973349e+01	1.583842e+03
1.320000e-06	5.585710e-06	2.424849e-08	4.029271e+01	1.592589e+03
1.330000e-06	5.661149e-06	2.437769e-08	4.083690e+01	1.600865e+03
1.340000e-06	5.734385e-06	2.450014e-08	4.136519e+01	1.608684e+03
1.350000e-06	5.805466e-06	2.461516e-08	4.187793e+01	1.616064e+03
1.360000e-06	5.874484e-06	2.472229e-08	4.237579e+01	1.623032e+03
1.370000e-06	5.941386e-06	2.482317e-08	4.285840e+01	1.629615e+03
1.380000e-06	6.006104e-06	2.491828e-08	4.332524e+01	1.635839e+03
1.390000e-06	6.068721e-06	2.500822e-08	4.377693e+01	1.641723e+03
1.400000e-06	6.129335e-06	2.509158e-08	4.421418e+01	1.647284e+03
1.410000e-06	6.187838e-06	2.516994e-08	4.463619e+01	1.652531e+03
1.420000e-06	6.244080e-06	2.524479e-08	4.504189e+01	1.657476e+03
1.430000e-06	6.298007e-06	2.531540e-08	4.543089e+01	1.662131e+03
1.440000e-06	6.349461e-06	2.538271e-08	4.580206e+01	1.666513e+03
1.450000e-06	6.398286e-06	2.544732e-08	4.615426e+01	1.670640e+03
1.460000e-06	6.444687e-06	2.550797e-08	4.648898e+01	1.674530e+03
1.470000e-06	6.488960e-06	2.556413e-08	4.680834e+01	1.678196e+03
1.480000e-06	6.530960e-06	2.561517e-08	4.711131e+01	1.681647e+03
1.490000e-06	6.570538e-06	2.566298e-08	4.739681e+01	1.684880e+03
1.500000e-06	6.607863e-06	2.570957e-08	4.766605e+01	1.687888e+03
1.510000e-06	6.642930e-06	2.575331e-08	4.791901e+01	1.690657e+03
1.520000e-06	6.675561e-06	2.579241e-08	4.815440e+01	1.693173e+03
1.530000e-06	6.705849e-06	2.582522e-08	4.837288e+01	1.695427e+03
1.540000e-06	6.733886e-06	2.585352e-08	4.857513e+01	1.697417e+03
1.550000e-06	6.759387e-06	2.587923e-08	4.875907e+01	1.699151e+03
1.560000e-06	6.782311e-06	2.590272e-08	4.892444e+01	1.700642e+03
1.570000e-06	6.802954e-06	2.592318e-08	4.907335e+01	1.701907e+03
1.580000e-06	6.821283e-06	2.593932e-08	4.920557e+01	1.702964e+03
1.590000e-06	6.837039e-06	2.595172e-08	4.931923e+01	1.703828e+03
1.600000e-06	6.850187e-06	2.595946e-08	4.941407e+01	1.704505e+03
1.610000e-06	6.860643e-06	2.596566e-08	4.948949e+01	1.705000e+03
1.620000e-06	6.868376e-06	2.597119e-08	4.954527e+01	1.705313e+03
1.630000e-06	6.873696e-06	2.597567e-08	4.958365e+01	1.705446e+03
1.640000e-06	6.876685e-06	2.597845e-08	4.960521e+01	1.705402e+03
1.650000e-06	6.877197e-06	2.597789e-08	4.960890e+01	1.705189e+03
1.660000e-06	6.875318e-06	2.597011e-08	4.959535e+01	1.704815e+03
1.670000e-06	6.871242e-06	2.595791e-08	4.956595e+01	1.704291e+03
1.680000e-06	6.864793e-06	2.594668e-08	4.951943e+01	1.703617e+03
1.690000e-06	6.856021e-06	2.593303e-08	4.945615e+01	1.702792e+03
1.700000e-06	6.845100e-06	2.591943e-08	4.937737e+01	1.701803e+03
1.710000e-06	6.831800e-06	2.590681e-08	4.928143e+01	1.700632e+03
1.720000e-06	6.816123e-06	2.589791e-08	4.916834e+01	1.699264e+03
1.730000e-06	6.798367e-06	2.587743e-08	4.904026e+01	1.697691e+03
1.740000e-06	6.778422e-06	2.578873e-08	4.889639e+01	1.695918e+03
1.750000e-06	6.755525e-06	2.574580e-08	4.873122e+01	1.693969e+03
1.760000e-06	6.729395e-06	2.575879e-08	4.854273e+01	1.691881e+03
1.770000e-06	6.700536e-06	2.572669e-08	4.833455e+01	1.689701e+03
1.780000e-06	6.669381e-06	2.571488e-08	4.810981e+01	1.687473e+03
1.790000e-06	6.636476e-06	2.573912e-08	4.787245e+01	1.685226e+03
1.800000e-06	6.602247e-06	2.561204e-08	4.762554e+01	1.682963e+03
1.810000e-06	6.566135e-06	2.557030e-08	4.736504e+01	1.680656e+03
1.820000e-06	6.527495e-06	2.562026e-08	4.708632e+01	1.678247e+03
1.830000e-06	6.486574e-06	2.550760e-08	4.679113e+01	1.675658e+03
1.840000e-06	6.443380e-06	2.555521e-08	4.647955e+01	1.672803e+03
1.850000e-06	6.397809e-06	2.550618e-08	4.615082e+01	1.669610e+03
1.860000e-06	6.349957e-06	2.538613e-08	4.580564e+01	1.666030e+03
1.870000e-06	6.299748e-06	2.539569e-08	4.544345e+01	1.662053e+03
1.880000e-06	6.247201e-06	2.525773e-08	4.506440e+01	1.657702e+03
1.890000e-06	6.192053e-06	2.522173e-08	4.466659e+01	1.653032e+03
1.900000e-06	6.134331e-06	2.515907e-08	4.425021e+01	1.648107e+03
1.910000e-06	6.074397e-06	2.504449e-08	4.381787e+01	1.642991e+03
1.920000e-06	6.012090e-06	2.502636e-08	4.336842e+01	1.637723e+03
1.930000e-06	5.947505e-06	2.490232e-08	4.290254e+01	1.632315e+03
1.940000e-06	5.880833e-06	2.484461e-08	4.242159e+01	1.626743e+03
1.950000e-06	5.811973e-06	2.473111e-08	4.192487e+01	1.620959e+03
1.960000e-06	5.740816e-06	2.462222e-08	4.141158e+01	1.614902e+03
1.970000e-06	5.667346e-06	2.455780e-08	4.088160e+01	1.608516e+03
1.980000e-06	5.591728e-06	2.442040e-08	4.033613e+01	1.601762e+03
1.990000e-06	5.513783e-06	2.435217e-08	3.977387e+01	1.594630e+03
2.000000e-06	5.433690e-06	2.422208e-08	3.919612e+01	1.587136e+03
2.010000e-06	5.351807e-06	2.410971e-08	3.860545e+01	1.579313e+03
2.020000e-06	5.268136e-06	2.398981e-08	3.800189e+01	1.571200e+03
2.030000e-06	5.182557e-06	2.384714e-08	3.738456e+01	1.562825e+03
2.040000e-06	5.094906e-06	2.373897e-08	3.675228e+01	1.554193e+03
2.050000e-06	5.005453e-06	2.359160e-08	3.610701e+01	1.545282e+03
2.060000e-06	4.914451e-06	2.345656e-08	3.545056e+01	1.536045e+03
2.070000e-06	4.821874e-06	2.329154e-08	3.478276e+01	1.526421e+03
2.080000e-06	4.727542e-06	2.314077e-08	3.410229e+01	1.516350e+03
2.090000e-06	4.631382e-06	2.298474e-08	3.340864e+01	1.505786e+03
2.100000e-06	4.533632e-06	2.282066e-08	3.270351e+01	1.494708e+03
2.110000e-06	4.434417e-06	2.265649e-08	3.198782e+01	1.483120e+03
2.120000e-06	4.333679e-06	2.246945e-08	3.126114e+01	1.471045e+03
2.130000e-06	4.231314e-06	2.227624e-08	3.052274e+01	1.458514e+03
2.140000e-06	4.127328e-06	2.206726e-08	2.977263e+01	1.445544e+03
2.150000e-06	4.021841e-06	2.186678e-08	2.901169e+01	1.432134e+03
2.160000e-06	3.914952e-06	2.165698e-08	2.824064e+01	1.418248e+03
2.170000e-06	3.806686e-06	2.144459e-08	2.745967e+01	1.403827e+03
2.180000e-06	3.697087e-06	2.121895e-08	2.666907e+01	1.388788e+03
2.190000e-06	3.586082e-06	2.098180e-08	2.586833e+01	1.373048e+03
2.200000e-06	3.473661e-06	2.073018e-08	2.505737e+01	1.356535e+03
2.210000e-06	3.359893e-06	2.046570e-08	2.423671e+01	1.339198e+03
2.220000e-06	3.244722e-06	2.019260e-08	2.340592e+01	1.321014e+03
2.230000e-06	3.128172e-06	1.990451e-08	2.256518e+01	1.301977e+03
2.240000e-06	3.010336e-06	1.960361e-08	2.171516e+01	1.282088e+03
2.250000e-06	2.891266e-06	1.928728e-08	2.085625e+01	1.261333e+03
2.260000e-06	2.771042e-06	1.895882e-08	1.998901e+01	1.239671e+03
2.270000e-06	2.649825e-06	1.861243e-08	1.911461e+01	1.217023e+03
2.280000e-06	2.527746e-06	1.825221e-08	1.823399e+01	1.193273e+03
2.290000e-06	2.404818e-06	1.787255e-08	1.734724e+01	1.168276e+03
2.300000e-06	2.281015e-06	1.747180e-08	1.645418e+01	1.141877e+03
2.310000e-06	2.156418e-06	1.704513e-08	1.555540e+01	1.113927e+03
2.320000e-06	2.031051e-06	1.659191e-08	1.465106e+01	1.084295e+03
2.330000e-06	1.904924e-06	1.611102e-08	1.374124e+01	1.052873e+03
2.340000e-06	1.778158e-06	1.560225e-08	1.282680e+01	1.019565e+03
2.350000e-06	1.650818e-06	1.506687e-08	1.190824e+01	9.842744e+02
2.360000e-06	1.522847e-06	1.449862e-08	1.098511e+01	9.468820e+02
2.370000e-06	1.394277e-06	1.389468e-08	1.005766e+01	9.072354e+02
2.380000e-06	1.265265e-06	1.325157e-08	9.127034e+00	8.651475e+02
2.390000e-06	1.135861e-06	1.256763e-08	8.193572e+00	8.204148e+02
2.400000e-06	1.006152e-06	1.183949e-08	7.257913e+00	7.728517e+02
2.410000e-06	8.762291e-07	1.106796e-08	6.320709e+00	7.223372e+02
2.420000e-06	7.460689e-07	1.025426e-08	5.381794e+00	6.688630e+02
2.430000e-06	6.156873e-07	9.398419e-09	4.441282e+00	6.125699e+02
2.440000e-06	4.851485e-07	8.504676e-09	3.499636e+00	5.537606e+02
2.450000e-06	3.544218e-07	7.577655e-09	2.556634e+00	4.928813e+02
2.460000e-06	2.235159e-07	6.625268e-09	1.612340e+00	4.304713e+02
2.470000e-06	9.243895e-08	5.655785e-09	6.668116e-01	3.670863e+02
2.480000e-06	-3.874975e-08	4.676487e-09	-2.795227e-01	3.032108e+02
2.490000e-06	-1.699051e-07	3.693029e-09	-1.225616e+00	2.391767e+02
2.500000e-06	-3.009966e-07	2.708203e-09	-2.171249e+00	1.751073e+02
2.510000e-06	-4.319339e-07	1.722777e-09	-3.115770e+00	1.109013e+02
2.520000e-06	-5.626996e-07	7.335532e-10	-4.059054e+00	4.626225e+01
2.530000e-06	-6.933500e-07	-2.653935e-10	-5.001505e+00	-1.922698e+01
2.540000e-06	-8.238141e-07	-1.280777e-09	-5.942612e+00	-8.600005e+01
2.550000e-06	-9.540364e-07	-2.319350e-09	-6.881975e+00	-1.543914e+02
2.560000e-06	-1.083987e-06	-3.384070e-09	-7.819381e+00	-2.245323e+02
2.570000e-06	-1.213602e-06	-4.476214e-09	-8.754361e+00	-2.962799e+02
2.580000e-06	-1.342857e-06	-5.591917e-09	-9.686749e+00	-3.691937e+02
2.590000e-06	-1.471672e-06	-6.718419e-09	-1.061596e+01	-4.425642e+02
2.600000e-06	-1.599913e-06	-7.838247e-09	-1.154103e+01	-5.154886e+02
2.610000e-06	-1.727486e-06	-8.932449e-09	-1.246128e+01	-5.869785e+02
2.620000e-06	-1.854383e-06	-9.988842e-09	-1.337666e+01	-6.560793e+02
2.630000e-06	-1.980624e-06	-1.099563e-08	-1.428730e+01	-7.219791e+02
2.640000e-06	-2.106115e-06	-1.194108e-08	-1.519254e+01	-7.840882e+02
2.650000e-06	-2.230699e-06	-1.282483e-08	-1.609123e+01	-8.420786e+02
2.660000e-06	-2.354381e-06	-1.364915e-08	-1.698341e+01	-8.958800e+02
2.670000e-06	-2.477149e-06	-1.441488e-08	-1.786900e+01	-9.456383e+02
2.680000e-06	-2.599012e-06	-1.512703e-08	-1.874806e+01	-9.916498e+02
2.690000e-06	-2.719998e-06	-1.578888e-08	-1.962080e+01	-1.034287e+03
2.700000e-06	-2.839919e-06	-1.640246e-08	-2.048586e+01	-1.073930e+03
2.710000e-06	-2.958689e-06	-1.697121e-08	-2.134261e+01	-1.110919e+03
2.720000e-06	-3.076344e-06	-1.750151e-08	-2.219131e+01	-1.145528e+03
2.730000e-06	-3.192773e-06	-1.799644e-08	-2.303118e+01	-1.177960e+03
2.740000e-06	-3.307853e-06	-1.845825e-08	-2.386131e+01	-1.208366e+03
2.750000e-06	-3.421585e-06	-1.889110e-08	-2.468173e+01	-1.236869e+03
2.760000e-06	-3.533921e-06	-1.929689e-08	-2.549206e+01	-1.263585e+03
2.770000e-06	-3.644811e-06	-1.968134e-08	-2.629198e+01	-1.288638e+03
2.780000e-06	-3.754403e-06	-2.004675e-08	-2.708252e+01	-1.312172e+03
2.790000e-06	-3.862818e-06	-2.039000e-08	-2.786457e+01	-1.334336e+03
2.800000e-06	-3.970026e-06	-2.071016e-08	-2.863792e+01	-1.355278e+03
2.810000e-06	-4.075961e-06	-2.101141e-08	-2.940209e+01	-1.375130e+03
2.820000e-06	-4.180471e-06	-2.129927e-08	-3.015597e+01	-1.393995e+03
2.830000e-06	-4.283437e-06	-2.157480e-08	-3.089873e+01	-1.411943e+03
2.840000e-06	-4.384785e-06	-2.183653e-08	-3.162980e+01	-1.429017e+03
2.850000e-06	-4.484492e-06	-2.208282e-08	-3.234904e+01	-1.445241e+03
2.860000e-06	-4.582716e-06	-2.231577e-08	-3.305758e+01	-1.460632e+03
2.870000e-06	-4.679392e-06	-2.253646e-08	-3.375496e+01	-1.475215e+03
2.880000e-06	-4.774336e-06	-2.274723e-08	-3.443984e+01	-1.489027e+03
2.890000e-06	-4.867531e-06	-2.295062e-08	-3.511211e+01	-1.502118e+03
2.900000e-06	-4.958989e-06	-2.314658e-08	-3.577184e+01	-1.514551e+03
2.910000e-06	-5.048752e-06	-2.333379e-08	-3.641935e+01	-1.526389e+03
2.920000e-06	-5.136681e-06	-2.350873e-08	-3.705363e+01	-1.537688e+03
2.930000e-06	-5.222568e-06	-2.367231e-08	-3.767318e+01	-1.548490e+03
2.940000e-06	-5.306522e-06	-2.382497e-08	-3.827878e+01	-1.558821e+03
