# Temperatura_=_38.25
# Concentracion g/m^3_=_28200.0
# C_Vs_to_Am_M_A/Vsm_=_65563218390.804596
# pendiente_HvsI_1/m_=_3716.3
# ordenada_HvsI_A/m_=_1297.0
# frecuencia_Hz_=_302302.0113875077

Tiempo_(s)	Campo_(V.s)	Magnetizacion_(V.s)	Campo_(kA/m)	Magnetizacion_(A/m)
0.000000e+00	-6.860096e-06	-2.448770e-08	-4.951598e+01	-1.603779e+03
1.000000e-08	-6.857222e-06	-2.448563e-08	-4.949524e+01	-1.603377e+03
2.000000e-08	-6.852070e-06	-2.447487e-08	-4.945804e+01	-1.602835e+03
3.000000e-08	-6.844816e-06	-2.446304e-08	-4.940569e+01	-1.602151e+03
4.000000e-08	-6.835278e-06	-2.445154e-08	-4.933685e+01	-1.601318e+03
5.000000e-08	-6.823203e-06	-2.443524e-08	-4.924968e+01	-1.600325e+03
6.000000e-08	-6.808537e-06	-2.441693e-08	-4.914383e+01	-1.599161e+03
7.000000e-08	-6.791515e-06	-2.439254e-08	-4.902097e+01	-1.597820e+03
8.000000e-08	-6.772466e-06	-2.436039e-08	-4.888347e+01	-1.596305e+03
9.000000e-08	-6.751230e-06	-2.439519e-08	-4.873018e+01	-1.594631e+03
1.000000e-07	-6.727343e-06	-2.439324e-08	-4.855777e+01	-1.592822e+03
1.100000e-07	-6.700642e-06	-2.430802e-08	-4.836505e+01	-1.590916e+03
1.200000e-07	-6.671423e-06	-2.425751e-08	-4.815414e+01	-1.588950e+03
1.300000e-07	-6.640055e-06	-2.423843e-08	-4.792773e+01	-1.586953e+03
1.400000e-07	-6.606539e-06	-2.414918e-08	-4.768581e+01	-1.584940e+03
1.500000e-07	-6.571131e-06	-2.409322e-08	-4.743024e+01	-1.582900e+03
1.600000e-07	-6.533932e-06	-2.420952e-08	-4.716174e+01	-1.580798e+03
1.700000e-07	-6.494698e-06	-2.407867e-08	-4.687855e+01	-1.578576e+03
1.800000e-07	-6.453290e-06	-2.401286e-08	-4.657966e+01	-1.576164e+03
1.900000e-07	-6.409349e-06	-2.406440e-08	-4.626250e+01	-1.573491e+03
2.000000e-07	-6.362930e-06	-2.390361e-08	-4.592745e+01	-1.570498e+03
2.100000e-07	-6.314169e-06	-2.388779e-08	-4.557549e+01	-1.567152e+03
2.200000e-07	-6.262741e-06	-2.383996e-08	-4.520428e+01	-1.563449e+03
2.300000e-07	-6.208692e-06	-2.374427e-08	-4.481416e+01	-1.559414e+03
2.400000e-07	-6.152305e-06	-2.371628e-08	-4.440716e+01	-1.555092e+03
2.500000e-07	-6.093582e-06	-2.362852e-08	-4.398330e+01	-1.550538e+03
2.600000e-07	-6.032633e-06	-2.357247e-08	-4.354337e+01	-1.545801e+03
2.700000e-07	-5.969488e-06	-2.349860e-08	-4.308760e+01	-1.540909e+03
2.800000e-07	-5.904080e-06	-2.341421e-08	-4.261548e+01	-1.535868e+03
2.900000e-07	-5.836440e-06	-2.333246e-08	-4.212726e+01	-1.530656e+03
3.000000e-07	-5.766581e-06	-2.323433e-08	-4.162302e+01	-1.525233e+03
3.100000e-07	-5.694575e-06	-2.317487e-08	-4.110328e+01	-1.519550e+03
3.200000e-07	-5.620354e-06	-2.307012e-08	-4.056755e+01	-1.513562e+03
3.300000e-07	-5.543815e-06	-2.298600e-08	-4.001510e+01	-1.507239e+03
3.400000e-07	-5.465026e-06	-2.286992e-08	-3.944640e+01	-1.500572e+03
3.500000e-07	-5.384113e-06	-2.275065e-08	-3.886238e+01	-1.493572e+03
3.600000e-07	-5.301345e-06	-2.266314e-08	-3.826496e+01	-1.486264e+03
3.700000e-07	-5.216866e-06	-2.253912e-08	-3.765519e+01	-1.478673e+03
3.800000e-07	-5.130693e-06	-2.242709e-08	-3.703319e+01	-1.470819e+03
3.900000e-07	-5.042788e-06	-2.229874e-08	-3.639870e+01	-1.462702e+03
4.000000e-07	-4.953006e-06	-2.216501e-08	-3.575065e+01	-1.454303e+03
4.100000e-07	-4.861432e-06	-2.201902e-08	-3.508968e+01	-1.445584e+03
4.200000e-07	-4.768254e-06	-2.188609e-08	-3.441712e+01	-1.436497e+03
4.300000e-07	-4.673473e-06	-2.175057e-08	-3.373300e+01	-1.426995e+03
4.400000e-07	-4.577036e-06	-2.159222e-08	-3.303692e+01	-1.417039e+03
4.500000e-07	-4.478871e-06	-2.143328e-08	-3.232836e+01	-1.406609e+03
4.600000e-07	-4.379024e-06	-2.126886e-08	-3.160767e+01	-1.395701e+03
4.700000e-07	-4.277633e-06	-2.109946e-08	-3.087584e+01	-1.384323e+03
4.800000e-07	-4.174769e-06	-2.091843e-08	-3.013337e+01	-1.372486e+03
4.900000e-07	-4.070463e-06	-2.073225e-08	-2.938049e+01	-1.360194e+03
5.000000e-07	-3.964640e-06	-2.053168e-08	-2.861666e+01	-1.347435e+03
5.100000e-07	-3.857244e-06	-2.032285e-08	-2.784148e+01	-1.334177e+03
5.200000e-07	-3.748423e-06	-2.010725e-08	-2.705601e+01	-1.320369e+03
5.300000e-07	-3.638347e-06	-1.988603e-08	-2.626149e+01	-1.305951e+03
5.400000e-07	-3.527007e-06	-1.965533e-08	-2.545784e+01	-1.290859e+03
5.500000e-07	-3.414299e-06	-1.941189e-08	-2.464431e+01	-1.275039e+03
5.600000e-07	-3.300115e-06	-1.916115e-08	-2.382014e+01	-1.258451e+03
5.700000e-07	-3.184420e-06	-1.889842e-08	-2.298505e+01	-1.241066e+03
5.800000e-07	-3.067386e-06	-1.862282e-08	-2.214030e+01	-1.222867e+03
5.900000e-07	-2.949240e-06	-1.833078e-08	-2.128753e+01	-1.203831e+03
6.000000e-07	-2.830073e-06	-1.802613e-08	-2.042739e+01	-1.183924e+03
6.100000e-07	-2.709906e-06	-1.770352e-08	-1.956002e+01	-1.163087e+03
6.200000e-07	-2.588728e-06	-1.736471e-08	-1.868537e+01	-1.141236e+03
6.300000e-07	-2.466534e-06	-1.700994e-08	-1.780337e+01	-1.118260e+03
6.400000e-07	-2.343353e-06	-1.663823e-08	-1.691426e+01	-1.094036e+03
6.500000e-07	-2.219276e-06	-1.624782e-08	-1.601867e+01	-1.068434e+03
6.600000e-07	-2.094458e-06	-1.583598e-08	-1.511774e+01	-1.041329e+03
6.700000e-07	-1.969021e-06	-1.539983e-08	-1.421234e+01	-1.012608e+03
6.800000e-07	-1.842984e-06	-1.493674e-08	-1.330260e+01	-9.821652e+02
6.900000e-07	-1.716296e-06	-1.444776e-08	-1.238818e+01	-9.498950e+02
7.000000e-07	-1.589004e-06	-1.392584e-08	-1.146939e+01	-9.156802e+02
7.100000e-07	-1.461170e-06	-1.337018e-08	-1.054668e+01	-8.793808e+02
7.200000e-07	-1.332821e-06	-1.277822e-08	-9.620262e+00	-8.408325e+02
7.300000e-07	-1.204038e-06	-1.214929e-08	-8.690713e+00	-7.998563e+02
7.400000e-07	-1.074899e-06	-1.148293e-08	-7.758588e+00	-7.562828e+02
7.500000e-07	-9.454038e-07	-1.077894e-08	-6.823898e+00	-7.099881e+02
7.600000e-07	-8.155183e-07	-1.003344e-08	-5.886388e+00	-6.609341e+02
7.700000e-07	-6.852894e-07	-9.244147e-09	-4.946399e+00	-6.092047e+02
7.800000e-07	-5.548612e-07	-8.416750e-09	-4.004972e+00	-5.550261e+02
7.900000e-07	-4.242891e-07	-7.558060e-09	-3.062507e+00	-4.987636e+02
8.000000e-07	-2.935746e-07	-6.677806e-09	-2.119013e+00	-4.408905e+02
8.100000e-07	-1.627504e-07	-5.781314e-09	-1.174728e+00	-3.819308e+02
8.200000e-07	-3.180674e-08	-4.875923e-09	-2.295802e-01	-3.223850e+02
8.300000e-07	9.918480e-08	-3.965558e-09	7.159131e-01	-2.626522e+02
8.400000e-07	2.301885e-07	-3.054470e-09	1.661494e+00	-2.029651e+02
8.500000e-07	3.612141e-07	-2.145964e-09	2.607233e+00	-1.433519e+02
8.600000e-07	4.921410e-07	-1.238693e-09	3.552260e+00	-8.363749e+01
8.700000e-07	6.228307e-07	-3.253888e-10	4.495574e+00	-2.348443e+01
8.800000e-07	7.532655e-07	6.057393e-10	5.437049e+00	3.752934e+01
8.900000e-07	8.834944e-07	1.557103e-09	6.377037e+00	9.981126e+01
9.000000e-07	1.013474e-06	2.531593e-09	7.315230e+00	1.636507e+02
9.100000e-07	1.143109e-06	3.531063e-09	8.250930e+00	2.291317e+02
9.200000e-07	1.272299e-06	4.552681e-09	9.183418e+00	2.960789e+02
9.300000e-07	1.400985e-06	5.589388e-09	1.011227e+01	3.640468e+02
9.400000e-07	1.529084e-06	6.630743e-09	1.103689e+01	4.323562e+02
9.500000e-07	1.656531e-06	7.663790e-09	1.195680e+01	5.001681e+02
9.600000e-07	1.783415e-06	8.673327e-09	1.287264e+01	5.665835e+02
9.700000e-07	1.909721e-06	9.647721e-09	1.378431e+01	6.307487e+02
9.800000e-07	2.035312e-06	1.057570e-08	1.469082e+01	6.919484e+02
9.900000e-07	2.160244e-06	1.145085e-08	1.559258e+01	7.496710e+02
1.000000e-06	2.284468e-06	1.226920e-08	1.648923e+01	8.036378e+02
1.010000e-06	2.407828e-06	1.302854e-08	1.737964e+01	8.537948e+02
1.020000e-06	2.530298e-06	1.373330e-08	1.826362e+01	9.002738e+02
1.030000e-06	2.651764e-06	1.438671e-08	1.914036e+01	9.433335e+02
1.040000e-06	2.772097e-06	1.499107e-08	2.000892e+01	9.832961e+02
1.050000e-06	2.891342e-06	1.555467e-08	2.086962e+01	1.020490e+03
1.060000e-06	3.009591e-06	1.608114e-08	2.172314e+01	1.055209e+03
1.070000e-06	3.126850e-06	1.657399e-08	2.256951e+01	1.087694e+03
1.080000e-06	3.242969e-06	1.703320e-08	2.340766e+01	1.118129e+03
1.090000e-06	3.357735e-06	1.746391e-08	2.423603e+01	1.146657e+03
1.100000e-06	3.471043e-06	1.787016e-08	2.505389e+01	1.173397e+03
1.110000e-06	3.582941e-06	1.825204e-08	2.586157e+01	1.198464e+03
1.120000e-06	3.693602e-06	1.861153e-08	2.666031e+01	1.221982e+03
1.130000e-06	3.803067e-06	1.894958e-08	2.745043e+01	1.244083e+03
1.140000e-06	3.911306e-06	1.926696e-08	2.823169e+01	1.264905e+03
1.150000e-06	4.018279e-06	1.956623e-08	2.900383e+01	1.284579e+03
1.160000e-06	4.123723e-06	1.984883e-08	2.976492e+01	1.303219e+03
1.170000e-06	4.227543e-06	2.011800e-08	3.051428e+01	1.320914e+03
1.180000e-06	4.329894e-06	2.037560e-08	3.125305e+01	1.337727e+03
1.190000e-06	4.430815e-06	2.061792e-08	3.198150e+01	1.353699e+03
1.200000e-06	4.530234e-06	2.084706e-08	3.269910e+01	1.368855e+03
1.210000e-06	4.627962e-06	2.106384e-08	3.340450e+01	1.383219e+03
1.220000e-06	4.723830e-06	2.127019e-08	3.409647e+01	1.396822e+03
1.230000e-06	4.817930e-06	2.146578e-08	3.477568e+01	1.409705e+03
1.240000e-06	4.910426e-06	2.165149e-08	3.544331e+01	1.421923e+03
1.250000e-06	5.001297e-06	2.182849e-08	3.609922e+01	1.433535e+03
1.260000e-06	5.090316e-06	2.199812e-08	3.674176e+01	1.444598e+03
1.270000e-06	5.177427e-06	2.215929e-08	3.737052e+01	1.455162e+03
1.280000e-06	5.262749e-06	2.231264e-08	3.798637e+01	1.465257e+03
1.290000e-06	5.346255e-06	2.245918e-08	3.858911e+01	1.474900e+03
1.300000e-06	5.427743e-06	2.260080e-08	3.917730e+01	1.484091e+03
1.310000e-06	5.507129e-06	2.273673e-08	3.975030e+01	1.492823e+03
1.320000e-06	5.584550e-06	2.286524e-08	4.030912e+01	1.501088e+03
1.330000e-06	5.659846e-06	2.298576e-08	4.085261e+01	1.508885e+03
1.340000e-06	5.732862e-06	2.309882e-08	4.137963e+01	1.516222e+03
1.350000e-06	5.803781e-06	2.320617e-08	4.189152e+01	1.523122e+03
1.360000e-06	5.872699e-06	2.330702e-08	4.238897e+01	1.529615e+03
1.370000e-06	5.939506e-06	2.340164e-08	4.287118e+01	1.535738e+03
1.380000e-06	6.004080e-06	2.349072e-08	4.333728e+01	1.541526e+03
1.390000e-06	6.066530e-06	2.357506e-08	4.378804e+01	1.547010e+03
1.400000e-06	6.127082e-06	2.365382e-08	4.422511e+01	1.552210e+03
1.410000e-06	6.185556e-06	2.372769e-08	4.464717e+01	1.557142e+03
1.420000e-06	6.241715e-06	2.379783e-08	4.505252e+01	1.561813e+03
1.430000e-06	6.295611e-06	2.386468e-08	4.544155e+01	1.566229e+03
1.440000e-06	6.347017e-06	2.392864e-08	4.581259e+01	1.570392e+03
1.450000e-06	6.395720e-06	2.398899e-08	4.616413e+01	1.574309e+03
1.460000e-06	6.442010e-06	2.404631e-08	4.649825e+01	1.577987e+03
1.470000e-06	6.486227e-06	2.410094e-08	4.681740e+01	1.581433e+03
1.480000e-06	6.528202e-06	2.415053e-08	4.712038e+01	1.584653e+03
1.490000e-06	6.567698e-06	2.419493e-08	4.740546e+01	1.587648e+03
1.500000e-06	6.604924e-06	2.423616e-08	4.767415e+01	1.590418e+03
1.510000e-06	6.639941e-06	2.427412e-08	4.792691e+01	1.592958e+03
1.520000e-06	6.672507e-06	2.430757e-08	4.816197e+01	1.595263e+03
1.530000e-06	6.702707e-06	2.433693e-08	4.837995e+01	1.597326e+03
1.540000e-06	6.730692e-06	2.436393e-08	4.858195e+01	1.599149e+03
1.550000e-06	6.756170e-06	2.438901e-08	4.876584e+01	1.600735e+03
1.560000e-06	6.779040e-06	2.441088e-08	4.893092e+01	1.602092e+03
1.570000e-06	6.799603e-06	2.442763e-08	4.907934e+01	1.603235e+03
1.580000e-06	6.817833e-06	2.444116e-08	4.921092e+01	1.604177e+03
1.590000e-06	6.833457e-06	2.445207e-08	4.932370e+01	1.604932e+03
1.600000e-06	6.846490e-06	2.445861e-08	4.941777e+01	1.605512e+03
1.610000e-06	6.856809e-06	2.446277e-08	4.949226e+01	1.605924e+03
1.620000e-06	6.864437e-06	2.446690e-08	4.954731e+01	1.606175e+03
1.630000e-06	6.869695e-06	2.447216e-08	4.958527e+01	1.606269e+03
1.640000e-06	6.872587e-06	2.447612e-08	4.960614e+01	1.606211e+03
1.650000e-06	6.872970e-06	2.447807e-08	4.960890e+01	1.606007e+03
1.660000e-06	6.871001e-06	2.446810e-08	4.959469e+01	1.605659e+03
1.670000e-06	6.866897e-06	2.445461e-08	4.956507e+01	1.605172e+03
1.680000e-06	6.860396e-06	2.444309e-08	4.951814e+01	1.604544e+03
1.690000e-06	6.851533e-06	2.442901e-08	4.945417e+01	1.603770e+03
1.700000e-06	6.840572e-06	2.441650e-08	4.937506e+01	1.602841e+03
1.710000e-06	6.827205e-06	2.440505e-08	4.927858e+01	1.601745e+03
1.720000e-06	6.811344e-06	2.440369e-08	4.916409e+01	1.600474e+03
1.730000e-06	6.793412e-06	2.439178e-08	4.903465e+01	1.599026e+03
1.740000e-06	6.773418e-06	2.428330e-08	4.889034e+01	1.597411e+03
1.750000e-06	6.750509e-06	2.424946e-08	4.872498e+01	1.595651e+03
1.760000e-06	6.724324e-06	2.427462e-08	4.853598e+01	1.593778e+03
1.770000e-06	6.695460e-06	2.423252e-08	4.832764e+01	1.591831e+03
1.780000e-06	6.664349e-06	2.422617e-08	4.810308e+01	1.589843e+03
1.790000e-06	6.631448e-06	2.428111e-08	4.786560e+01	1.587836e+03
1.800000e-06	6.597196e-06	2.411467e-08	4.761838e+01	1.585809e+03
1.810000e-06	6.560932e-06	2.408623e-08	4.735662e+01	1.583736e+03
1.820000e-06	6.522020e-06	2.416607e-08	4.707575e+01	1.581569e+03
1.830000e-06	6.480934e-06	2.401336e-08	4.677920e+01	1.579240e+03
1.840000e-06	6.437727e-06	2.412304e-08	4.646733e+01	1.576677e+03
1.850000e-06	6.392211e-06	2.404895e-08	4.613880e+01	1.573815e+03
1.860000e-06	6.344406e-06	2.391837e-08	4.579374e+01	1.570610e+03
1.870000e-06	6.294142e-06	2.397476e-08	4.543094e+01	1.567045e+03
1.880000e-06	6.241544e-06	2.380482e-08	4.505129e+01	1.563136e+03
1.890000e-06	6.186377e-06	2.381733e-08	4.465310e+01	1.558920e+03
1.900000e-06	6.128609e-06	2.374648e-08	4.423613e+01	1.554451e+03
1.910000e-06	6.068618e-06	2.361491e-08	4.380311e+01	1.549780e+03
1.920000e-06	6.006277e-06	2.363489e-08	4.335314e+01	1.544946e+03
1.930000e-06	5.941753e-06	2.348788e-08	4.288740e+01	1.539965e+03
1.940000e-06	5.875102e-06	2.346855e-08	4.240632e+01	1.534824e+03
1.950000e-06	5.806217e-06	2.334988e-08	4.190911e+01	1.529489e+03
1.960000e-06	5.735016e-06	2.324582e-08	4.139518e+01	1.523914e+03
1.970000e-06	5.661542e-06	2.318526e-08	4.086485e+01	1.518049e+03
1.980000e-06	5.585973e-06	2.303469e-08	4.031940e+01	1.511860e+03
1.990000e-06	5.508067e-06	2.300103e-08	3.975707e+01	1.505327e+03
2.000000e-06	5.428023e-06	2.286204e-08	3.917931e+01	1.498456e+03
2.010000e-06	5.346131e-06	2.277443e-08	3.858823e+01	1.491265e+03
2.020000e-06	5.262452e-06	2.265920e-08	3.798423e+01	1.483782e+03
2.030000e-06	5.176896e-06	2.251726e-08	3.736669e+01	1.476030e+03
2.040000e-06	5.089261e-06	2.242489e-08	3.673415e+01	1.468017e+03
2.050000e-06	4.999831e-06	2.228299e-08	3.608864e+01	1.459732e+03
2.060000e-06	4.908802e-06	2.217178e-08	3.543159e+01	1.451144e+03
2.070000e-06	4.816198e-06	2.200674e-08	3.476318e+01	1.442207e+03
2.080000e-06	4.721839e-06	2.186949e-08	3.408210e+01	1.432873e+03
2.090000e-06	4.625656e-06	2.171593e-08	3.338786e+01	1.423098e+03
2.100000e-06	4.527936e-06	2.156174e-08	3.268251e+01	1.412855e+03
2.110000e-06	4.428780e-06	2.141259e-08	3.196681e+01	1.402134e+03
2.120000e-06	4.328140e-06	2.124016e-08	3.124039e+01	1.390939e+03
2.130000e-06	4.225840e-06	2.106508e-08	3.050199e+01	1.379281e+03
2.140000e-06	4.121858e-06	2.086575e-08	2.975145e+01	1.367167e+03
2.150000e-06	4.016367e-06	2.068066e-08	2.899002e+01	1.354594e+03
2.160000e-06	3.909547e-06	2.047940e-08	2.821900e+01	1.341537e+03
2.170000e-06	3.801391e-06	2.028043e-08	2.743833e+01	1.327952e+03
2.180000e-06	3.691866e-06	2.006429e-08	2.664779e+01	1.313781e+03
2.190000e-06	3.580924e-06	1.984135e-08	2.584701e+01	1.298961e+03
2.200000e-06	3.468532e-06	1.960332e-08	2.503576e+01	1.283432e+03
2.210000e-06	3.354786e-06	1.935612e-08	2.421475e+01	1.267149e+03
2.220000e-06	3.239689e-06	1.910097e-08	2.338399e+01	1.250079e+03
2.230000e-06	3.123238e-06	1.882946e-08	2.254344e+01	1.232202e+03
2.240000e-06	3.005482e-06	1.854355e-08	2.169348e+01	1.213497e+03
2.250000e-06	2.886459e-06	1.824194e-08	2.083438e+01	1.193938e+03
2.260000e-06	2.766258e-06	1.793284e-08	1.996677e+01	1.173474e+03
2.270000e-06	2.645106e-06	1.760430e-08	1.909230e+01	1.152033e+03
2.280000e-06	2.523092e-06	1.726272e-08	1.821161e+01	1.129513e+03
2.290000e-06	2.400185e-06	1.690088e-08	1.732447e+01	1.105795e+03
2.300000e-06	2.276438e-06	1.652194e-08	1.643127e+01	1.080749e+03
2.310000e-06	2.151922e-06	1.611925e-08	1.553251e+01	1.054248e+03
2.320000e-06	2.026685e-06	1.569359e-08	1.462855e+01	1.026175e+03
2.330000e-06	1.900752e-06	1.524059e-08	1.371957e+01	9.964202e+02
2.340000e-06	1.774090e-06	1.475965e-08	1.280533e+01	9.648806e+02
2.350000e-06	1.646706e-06	1.424924e-08	1.188588e+01	9.314447e+02
2.360000e-06	1.518754e-06	1.370587e-08	1.096232e+01	8.959822e+02
2.370000e-06	1.390314e-06	1.313051e-08	1.003525e+01	8.583380e+02
2.380000e-06	1.261386e-06	1.251919e-08	9.104648e+00	8.183366e+02
2.390000e-06	1.132053e-06	1.187209e-08	8.171128e+00	7.758014e+02
2.400000e-06	1.002403e-06	1.118346e-08	7.235316e+00	7.305855e+02
2.410000e-06	8.724687e-07	1.045380e-08	6.297455e+00	6.826126e+02
2.420000e-06	7.423036e-07	9.682419e-09	5.357926e+00	6.319150e+02
2.430000e-06	6.118818e-07	8.870031e-09	4.416545e+00	5.786619e+02
2.440000e-06	4.812511e-07	8.023928e-09	3.473657e+00	5.231663e+02
2.450000e-06	3.505099e-07	7.149285e-09	2.529970e+00	4.658643e+02
2.460000e-06	2.196556e-07	6.253080e-09	1.585468e+00	4.072684e+02
2.470000e-06	8.867295e-08	5.343645e-09	6.400389e-01	3.478976e+02
2.480000e-06	-4.238306e-08	4.429020e-09	-3.059197e-01	2.881998e+02
2.490000e-06	-1.734124e-07	3.514680e-09	-1.251686e+00	2.284793e+02
2.500000e-06	-3.044026e-07	2.602164e-09	-2.197169e+00	1.688468e+02
2.510000e-06	-4.352994e-07	1.690924e-09	-3.141979e+00	1.092044e+02
2.520000e-06	-5.660677e-07	7.756336e-10	-4.085860e+00	4.927101e+01
2.530000e-06	-6.966879e-07	-1.495001e-10	-5.028673e+00	-1.135323e+01
2.540000e-06	-8.270708e-07	-1.089489e-09	-5.969774e+00	-7.309405e+01
2.550000e-06	-9.571912e-07	-2.051562e-09	-6.908979e+00	-1.362990e+02
2.560000e-06	-1.087070e-06	-3.038399e-09	-7.846438e+00	-2.011413e+02
2.570000e-06	-1.216617e-06	-4.050113e-09	-8.781506e+00	-2.675513e+02
2.580000e-06	-1.345735e-06	-5.082753e-09	-9.713478e+00	-3.351879e+02
2.590000e-06	-1.474443e-06	-6.128264e-09	-1.064249e+01	-4.034567e+02
2.600000e-06	-1.602716e-06	-7.174252e-09	-1.156836e+01	-4.715707e+02
2.610000e-06	-1.730331e-06	-8.201355e-09	-1.248948e+01	-5.386417e+02
2.620000e-06	-1.857148e-06	-9.198482e-09	-1.340484e+01	-6.037861e+02
2.630000e-06	-1.983216e-06	-1.015246e-08	-1.431480e+01	-6.662245e+02
2.640000e-06	-2.108545e-06	-1.105353e-08	-1.521942e+01	-7.253597e+02
2.650000e-06	-2.233063e-06	-1.190177e-08	-1.611819e+01	-7.808207e+02
2.660000e-06	-2.356682e-06	-1.269386e-08	-1.701046e+01	-8.324682e+02
2.670000e-06	-2.479373e-06	-1.342808e-08	-1.789605e+01	-8.803672e+02
2.680000e-06	-2.601145e-06	-1.411111e-08	-1.877499e+01	-9.247343e+02
2.690000e-06	-2.722036e-06	-1.474692e-08	-1.964758e+01	-9.658740e+02
2.700000e-06	-2.841960e-06	-1.533825e-08	-2.051319e+01	-1.004118e+03
2.710000e-06	-2.960707e-06	-1.588826e-08	-2.137030e+01	-1.039778e+03
2.720000e-06	-3.078256e-06	-1.639942e-08	-2.221876e+01	-1.073116e+03
2.730000e-06	-3.194578e-06	-1.687518e-08	-2.305837e+01	-1.104338e+03
2.740000e-06	-3.309580e-06	-1.731951e-08	-2.388845e+01	-1.133600e+03
2.750000e-06	-3.423224e-06	-1.773547e-08	-2.470874e+01	-1.161029e+03
2.760000e-06	-3.535395e-06	-1.812689e-08	-2.551838e+01	-1.186740e+03
2.770000e-06	-3.646153e-06	-1.849906e-08	-2.631783e+01	-1.210852e+03
2.780000e-06	-3.755715e-06	-1.884929e-08	-2.710864e+01	-1.233494e+03
2.790000e-06	-3.864110e-06	-1.917505e-08	-2.789104e+01	-1.254802e+03
2.800000e-06	-3.971230e-06	-1.948020e-08	-2.866423e+01	-1.274912e+03
2.810000e-06	-4.076998e-06	-1.977025e-08	-2.942765e+01	-1.293947e+03
2.820000e-06	-4.181309e-06	-2.004730e-08	-3.018057e+01	-1.312005e+03
2.830000e-06	-4.283991e-06	-2.031056e-08	-3.092173e+01	-1.329159e+03
2.840000e-06	-4.385086e-06	-2.055929e-08	-3.165143e+01	-1.345458e+03
2.850000e-06	-4.484720e-06	-2.079355e-08	-3.237058e+01	-1.360932e+03
2.860000e-06	-4.582895e-06	-2.101609e-08	-3.307921e+01	-1.375604e+03
2.870000e-06	-4.679541e-06	-2.122810e-08	-3.377679e+01	-1.389502e+03
2.880000e-06	-4.774434e-06	-2.142929e-08	-3.446173e+01	-1.402663e+03
2.890000e-06	-4.867490e-06	-2.162226e-08	-3.513341e+01	-1.415136e+03
2.900000e-06	-4.958843e-06	-2.180615e-08	-3.579279e+01	-1.426979e+03
2.910000e-06	-5.048521e-06	-2.198063e-08	-3.644008e+01	-1.438251e+03
2.920000e-06	-5.136332e-06	-2.214701e-08	-3.707390e+01	-1.449007e+03
2.930000e-06	-5.222076e-06	-2.230395e-08	-3.769280e+01	-1.459283e+03
2.940000e-06	-5.305899e-06	-2.245024e-08	-3.829783e+01	-1.469104e+03
