# Temperatura_=_55.34
# Concentracion g/m^3_=_28200.0
# C_Vs_to_Am_M_A/Vsm_=_65563218390.804596
# pendiente_HvsI_1/m_=_3716.3
# ordenada_HvsI_A/m_=_1297.0
# frecuencia_Hz_=_302304.3196339844

Tiempo_(s)	Campo_(V.s)	Magnetizacion_(V.s)	Campo_(kA/m)	Magnetizacion_(A/m)
0.000000e+00	-6.870194e-06	-2.543150e-08	-4.951712e+01	-1.665834e+03
1.000000e-08	-6.867533e-06	-2.542746e-08	-4.949793e+01	-1.665438e+03
2.000000e-08	-6.862597e-06	-2.541829e-08	-4.946236e+01	-1.664893e+03
3.000000e-08	-6.855586e-06	-2.540740e-08	-4.941182e+01	-1.664201e+03
4.000000e-08	-6.846295e-06	-2.539502e-08	-4.934486e+01	-1.663361e+03
5.000000e-08	-6.834459e-06	-2.538105e-08	-4.925955e+01	-1.662363e+03
6.000000e-08	-6.820064e-06	-2.536478e-08	-4.915580e+01	-1.661195e+03
7.000000e-08	-6.803308e-06	-2.534002e-08	-4.903503e+01	-1.659844e+03
8.000000e-08	-6.784489e-06	-2.530479e-08	-4.889939e+01	-1.658304e+03
9.000000e-08	-6.763486e-06	-2.533588e-08	-4.874801e+01	-1.656579e+03
1.000000e-07	-6.739862e-06	-2.533405e-08	-4.857774e+01	-1.654685e+03
1.100000e-07	-6.713432e-06	-2.524851e-08	-4.838725e+01	-1.652654e+03
1.200000e-07	-6.684427e-06	-2.519297e-08	-4.817819e+01	-1.650520e+03
1.300000e-07	-6.653204e-06	-2.516997e-08	-4.795315e+01	-1.648320e+03
1.400000e-07	-6.619829e-06	-2.508408e-08	-4.771260e+01	-1.646074e+03
1.500000e-07	-6.584562e-06	-2.502934e-08	-4.745842e+01	-1.643786e+03
1.600000e-07	-6.547526e-06	-2.513415e-08	-4.719148e+01	-1.641432e+03
1.700000e-07	-6.508447e-06	-2.499839e-08	-4.690981e+01	-1.638966e+03
1.800000e-07	-6.467158e-06	-2.492524e-08	-4.661222e+01	-1.636324e+03
1.900000e-07	-6.423335e-06	-2.497077e-08	-4.629636e+01	-1.633438e+03
2.000000e-07	-6.377073e-06	-2.481836e-08	-4.596293e+01	-1.630251e+03
2.100000e-07	-6.328511e-06	-2.480344e-08	-4.561292e+01	-1.626726e+03
2.200000e-07	-6.277239e-06	-2.475987e-08	-4.524337e+01	-1.622854e+03
2.300000e-07	-6.223330e-06	-2.466131e-08	-4.485483e+01	-1.618654e+03
2.400000e-07	-6.167069e-06	-2.461615e-08	-4.444932e+01	-1.614169e+03
2.500000e-07	-6.108450e-06	-2.452527e-08	-4.402682e+01	-1.609448e+03
2.600000e-07	-6.047632e-06	-2.447048e-08	-4.358847e+01	-1.604537e+03
2.700000e-07	-5.984652e-06	-2.439438e-08	-4.313454e+01	-1.599463e+03
2.800000e-07	-5.919402e-06	-2.431234e-08	-4.266426e+01	-1.594227e+03
2.900000e-07	-5.851890e-06	-2.422139e-08	-4.217766e+01	-1.588806e+03
3.000000e-07	-5.782151e-06	-2.411014e-08	-4.167502e+01	-1.583154e+03
3.100000e-07	-5.710259e-06	-2.404766e-08	-4.115685e+01	-1.577222e+03
3.200000e-07	-5.636136e-06	-2.394529e-08	-4.062260e+01	-1.570963e+03
3.300000e-07	-5.559673e-06	-2.385874e-08	-4.007150e+01	-1.564348e+03
3.400000e-07	-5.480939e-06	-2.373906e-08	-3.950402e+01	-1.557372e+03
3.500000e-07	-5.400097e-06	-2.361633e-08	-3.892135e+01	-1.550051e+03
3.600000e-07	-5.317420e-06	-2.351571e-08	-3.832545e+01	-1.542414e+03
3.700000e-07	-5.233020e-06	-2.338522e-08	-3.771714e+01	-1.534492e+03
3.800000e-07	-5.146904e-06	-2.327412e-08	-3.709645e+01	-1.526306e+03
3.900000e-07	-5.059082e-06	-2.314525e-08	-3.646347e+01	-1.517856e+03
4.000000e-07	-4.969397e-06	-2.300873e-08	-3.581707e+01	-1.509117e+03
4.100000e-07	-4.877843e-06	-2.285457e-08	-3.515719e+01	-1.500046e+03
4.200000e-07	-4.784619e-06	-2.271206e-08	-3.448527e+01	-1.490588e+03
4.300000e-07	-4.689860e-06	-2.256816e-08	-3.380230e+01	-1.480690e+03
4.400000e-07	-4.593475e-06	-2.240454e-08	-3.310759e+01	-1.470315e+03
4.500000e-07	-4.495321e-06	-2.223865e-08	-3.240015e+01	-1.459444e+03
4.600000e-07	-4.395475e-06	-2.206507e-08	-3.168051e+01	-1.448079e+03
4.700000e-07	-4.294096e-06	-2.188850e-08	-3.094981e+01	-1.436235e+03
4.800000e-07	-4.191312e-06	-2.170196e-08	-3.020900e+01	-1.423932e+03
4.900000e-07	-4.087055e-06	-2.151284e-08	-2.945756e+01	-1.411179e+03
5.000000e-07	-3.981210e-06	-2.130800e-08	-2.869468e+01	-1.397962e+03
5.100000e-07	-3.873811e-06	-2.109230e-08	-2.792060e+01	-1.384243e+03
5.200000e-07	-3.765021e-06	-2.086918e-08	-2.713649e+01	-1.369962e+03
5.300000e-07	-3.654961e-06	-2.063911e-08	-2.634323e+01	-1.355046e+03
5.400000e-07	-3.543638e-06	-2.039920e-08	-2.554087e+01	-1.339421e+03
5.500000e-07	-3.430962e-06	-2.014467e-08	-2.472876e+01	-1.323027e+03
5.600000e-07	-3.316792e-06	-1.988066e-08	-2.390587e+01	-1.305824e+03
5.700000e-07	-3.201060e-06	-1.960551e-08	-2.307173e+01	-1.287791e+03
5.800000e-07	-3.083992e-06	-1.932103e-08	-2.222796e+01	-1.268923e+03
5.900000e-07	-2.965846e-06	-1.902288e-08	-2.137642e+01	-1.249212e+03
6.000000e-07	-2.846675e-06	-1.871211e-08	-2.051749e+01	-1.228637e+03
6.100000e-07	-2.726441e-06	-1.838137e-08	-1.965090e+01	-1.207146e+03
6.200000e-07	-2.605110e-06	-1.803118e-08	-1.877640e+01	-1.184651e+03
6.300000e-07	-2.482748e-06	-1.766457e-08	-1.789447e+01	-1.161034e+03
6.400000e-07	-2.359383e-06	-1.728203e-08	-1.700532e+01	-1.136150e+03
6.500000e-07	-2.235142e-06	-1.688049e-08	-1.610985e+01	-1.109849e+03
6.600000e-07	-2.110243e-06	-1.645685e-08	-1.520963e+01	-1.081989e+03
6.700000e-07	-1.984729e-06	-1.600763e-08	-1.430499e+01	-1.052442e+03
6.800000e-07	-1.858546e-06	-1.552971e-08	-1.339552e+01	-1.021098e+03
6.900000e-07	-1.731705e-06	-1.502575e-08	-1.248131e+01	-9.878558e+02
7.000000e-07	-1.604277e-06	-1.449062e-08	-1.156287e+01	-9.526089e+02
7.100000e-07	-1.476338e-06	-1.392218e-08	-1.064074e+01	-9.152294e+02
7.200000e-07	-1.347869e-06	-1.331530e-08	-9.714806e+00	-8.755607e+02
7.300000e-07	-1.218927e-06	-1.266938e-08	-8.785451e+00	-8.334223e+02
7.400000e-07	-1.089629e-06	-1.198281e-08	-7.853531e+00	-7.886312e+02
7.500000e-07	-9.599240e-07	-1.125369e-08	-6.918679e+00	-7.410374e+02
7.600000e-07	-8.298503e-07	-1.048336e-08	-5.981169e+00	-6.905681e+02
7.700000e-07	-6.994923e-07	-9.672383e-09	-5.041610e+00	-6.372700e+02
7.800000e-07	-5.688884e-07	-8.823007e-09	-4.100279e+00	-5.813370e+02
7.900000e-07	-4.381226e-07	-7.937910e-09	-3.157781e+00	-5.231140e+02
8.000000e-07	-3.072210e-07	-7.023576e-09	-2.214304e+00	-4.630706e+02
8.100000e-07	-1.761893e-07	-6.087202e-09	-1.269889e+00	-4.017450e+02
8.200000e-07	-4.502190e-08	-5.139440e-09	-3.244966e-01	-3.396674e+02
8.300000e-07	8.626204e-08	-4.186094e-09	6.217361e-01	-2.772759e+02
8.400000e-07	2.175658e-07	-3.232410e-09	1.568112e+00	-2.148435e+02
8.500000e-07	3.487942e-07	-2.281679e-09	2.513944e+00	-1.524329e+02
8.600000e-07	4.798602e-07	-1.331430e-09	3.458606e+00	-8.989090e+01
8.700000e-07	6.107509e-07	-3.741906e-10	4.402004e+00	-2.688775e+01
8.800000e-07	7.414758e-07	5.987094e-10	5.344207e+00	3.700419e+01
8.900000e-07	8.719760e-07	1.591936e-09	6.284791e+00	1.022057e+02
9.000000e-07	1.002158e-06	2.609067e-09	7.223079e+00	1.690199e+02
9.100000e-07	1.131921e-06	3.652449e-09	8.158351e+00	2.375369e+02
9.200000e-07	1.261254e-06	4.722393e-09	9.090521e+00	3.075730e+02
9.300000e-07	1.390177e-06	5.809884e-09	1.001974e+01	3.786579e+02
9.400000e-07	1.518568e-06	6.902614e-09	1.094512e+01	4.500703e+02
9.500000e-07	1.646342e-06	7.985543e-09	1.186605e+01	5.209178e+02
9.600000e-07	1.773526e-06	9.039827e-09	1.278273e+01	5.902436e+02
9.700000e-07	1.900095e-06	1.005349e-08	1.369499e+01	6.571406e+02
9.800000e-07	2.025984e-06	1.101859e-08	1.460234e+01	7.208522e+02
9.900000e-07	2.151161e-06	1.192808e-08	1.550456e+01	7.808437e+02
1.000000e-06	2.275635e-06	1.277654e-08	1.640170e+01	8.368326e+02
1.010000e-06	2.399293e-06	1.356449e-08	1.729297e+01	8.887795e+02
1.020000e-06	2.522005e-06	1.429421e-08	1.817742e+01	9.368437e+02
1.030000e-06	2.643725e-06	1.496881e-08	1.905472e+01	9.813192e+02
1.040000e-06	2.764405e-06	1.559255e-08	1.992453e+01	1.022564e+03
1.050000e-06	2.883962e-06	1.617382e-08	2.078623e+01	1.060936e+03
1.060000e-06	3.002452e-06	1.671771e-08	2.164025e+01	1.096754e+03
1.070000e-06	3.119950e-06	1.722687e-08	2.248713e+01	1.130270e+03
1.080000e-06	3.236329e-06	1.770067e-08	2.332593e+01	1.161678e+03
1.090000e-06	3.351377e-06	1.814411e-08	2.415514e+01	1.191121e+03
1.100000e-06	3.465022e-06	1.856241e-08	2.497424e+01	1.218722e+03
1.110000e-06	3.577270e-06	1.895479e-08	2.578327e+01	1.244599e+03
1.120000e-06	3.688182e-06	1.932252e-08	2.658267e+01	1.268877e+03
1.130000e-06	3.797870e-06	1.967017e-08	2.737325e+01	1.291699e+03
1.140000e-06	3.906388e-06	1.999940e-08	2.815540e+01	1.313208e+03
1.150000e-06	4.013644e-06	2.031017e-08	2.892845e+01	1.333544e+03
1.160000e-06	4.119458e-06	2.060363e-08	2.969111e+01	1.352825e+03
1.170000e-06	4.223677e-06	2.088198e-08	3.044227e+01	1.371140e+03
1.180000e-06	4.326276e-06	2.114667e-08	3.118175e+01	1.388550e+03
1.190000e-06	4.427390e-06	2.139565e-08	3.191054e+01	1.405090e+03
1.200000e-06	4.527030e-06	2.163211e-08	3.262869e+01	1.420783e+03
1.210000e-06	4.625024e-06	2.185787e-08	3.333499e+01	1.435648e+03
1.220000e-06	4.721218e-06	2.207330e-08	3.402831e+01	1.449717e+03
1.230000e-06	4.815634e-06	2.227599e-08	3.470881e+01	1.463034e+03
1.240000e-06	4.908429e-06	2.246670e-08	3.537764e+01	1.475660e+03
1.250000e-06	4.999556e-06	2.264771e-08	3.603444e+01	1.487660e+03
1.260000e-06	5.088818e-06	2.282118e-08	3.667780e+01	1.499101e+03
1.270000e-06	5.176156e-06	2.298728e-08	3.730729e+01	1.510036e+03
1.280000e-06	5.261693e-06	2.314690e-08	3.792380e+01	1.520500e+03
1.290000e-06	5.345452e-06	2.329945e-08	3.852749e+01	1.530511e+03
1.300000e-06	5.427222e-06	2.344508e-08	3.911685e+01	1.540066e+03
1.310000e-06	5.506926e-06	2.358327e-08	3.969132e+01	1.549154e+03
1.320000e-06	5.584656e-06	2.371513e-08	4.025157e+01	1.557765e+03
1.330000e-06	5.660321e-06	2.384111e-08	4.079692e+01	1.565894e+03
1.340000e-06	5.733745e-06	2.396067e-08	4.132612e+01	1.573550e+03
1.350000e-06	5.804979e-06	2.407340e-08	4.183954e+01	1.580754e+03
1.360000e-06	5.874183e-06	2.417701e-08	4.233833e+01	1.587536e+03
1.370000e-06	5.941377e-06	2.427304e-08	4.282264e+01	1.593932e+03
1.380000e-06	6.006387e-06	2.436366e-08	4.329120e+01	1.599979e+03
1.390000e-06	6.069191e-06	2.445208e-08	4.374386e+01	1.605704e+03
1.400000e-06	6.129992e-06	2.453617e-08	4.418209e+01	1.611128e+03
1.410000e-06	6.188711e-06	2.461384e-08	4.460530e+01	1.616264e+03
1.420000e-06	6.245129e-06	2.468744e-08	4.501194e+01	1.621120e+03
1.430000e-06	6.299304e-06	2.475704e-08	4.540241e+01	1.625705e+03
1.440000e-06	6.351053e-06	2.482326e-08	4.577539e+01	1.630026e+03
1.450000e-06	6.400123e-06	2.488653e-08	4.612907e+01	1.634093e+03
1.460000e-06	6.446740e-06	2.494577e-08	4.646506e+01	1.637921e+03
1.470000e-06	6.491218e-06	2.500153e-08	4.678564e+01	1.641521e+03
1.480000e-06	6.533427e-06	2.505231e-08	4.708986e+01	1.644902e+03
1.490000e-06	6.573197e-06	2.509886e-08	4.737650e+01	1.648065e+03
1.500000e-06	6.610762e-06	2.514363e-08	4.764725e+01	1.651006e+03
1.510000e-06	6.646128e-06	2.518515e-08	4.790215e+01	1.653716e+03
1.520000e-06	6.678955e-06	2.522203e-08	4.813875e+01	1.656184e+03
1.530000e-06	6.709314e-06	2.525442e-08	4.835757e+01	1.658399e+03
1.540000e-06	6.737467e-06	2.528354e-08	4.856048e+01	1.660359e+03
1.550000e-06	6.763162e-06	2.530932e-08	4.874568e+01	1.662067e+03
1.560000e-06	6.786311e-06	2.533133e-08	4.891252e+01	1.663535e+03
1.570000e-06	6.807168e-06	2.534946e-08	4.906285e+01	1.664779e+03
1.580000e-06	6.825675e-06	2.536451e-08	4.919624e+01	1.665817e+03
1.590000e-06	6.841581e-06	2.537618e-08	4.931088e+01	1.666666e+03
1.600000e-06	6.854917e-06	2.538427e-08	4.940700e+01	1.667336e+03
1.610000e-06	6.865634e-06	2.539141e-08	4.948425e+01	1.667834e+03
1.620000e-06	6.873611e-06	2.539884e-08	4.954174e+01	1.668162e+03
1.630000e-06	6.879133e-06	2.540554e-08	4.958154e+01	1.668320e+03
1.640000e-06	6.882292e-06	2.540905e-08	4.960431e+01	1.668309e+03
1.650000e-06	6.882929e-06	2.541068e-08	4.960890e+01	1.668133e+03
1.660000e-06	6.881171e-06	2.540236e-08	4.959623e+01	1.667797e+03
1.670000e-06	6.877253e-06	2.538968e-08	4.956799e+01	1.667310e+03
1.680000e-06	6.871010e-06	2.537894e-08	4.952299e+01	1.666675e+03
1.690000e-06	6.862444e-06	2.536473e-08	4.946126e+01	1.665894e+03
1.700000e-06	6.851707e-06	2.535064e-08	4.938387e+01	1.664959e+03
1.710000e-06	6.838541e-06	2.533838e-08	4.928897e+01	1.663859e+03
1.720000e-06	6.822978e-06	2.533460e-08	4.917680e+01	1.662581e+03
1.730000e-06	6.805332e-06	2.532400e-08	4.904962e+01	1.661115e+03
1.740000e-06	6.785548e-06	2.521962e-08	4.890703e+01	1.659461e+03
1.750000e-06	6.762882e-06	2.518308e-08	4.874366e+01	1.657630e+03
1.760000e-06	6.736978e-06	2.520501e-08	4.855696e+01	1.655648e+03
1.770000e-06	6.708278e-06	2.516191e-08	4.835010e+01	1.653550e+03
1.780000e-06	6.677252e-06	2.514832e-08	4.812648e+01	1.651372e+03
1.790000e-06	6.644447e-06	2.519485e-08	4.789003e+01	1.649142e+03
1.800000e-06	6.610261e-06	2.503737e-08	4.764364e+01	1.646872e+03
1.810000e-06	6.574181e-06	2.499706e-08	4.738359e+01	1.644548e+03
1.820000e-06	6.535574e-06	2.507668e-08	4.710533e+01	1.642132e+03
1.830000e-06	6.494756e-06	2.495046e-08	4.681114e+01	1.639567e+03
1.840000e-06	6.451773e-06	2.504656e-08	4.650133e+01	1.636785e+03
1.850000e-06	6.406397e-06	2.496175e-08	4.617429e+01	1.633722e+03
1.860000e-06	6.358689e-06	2.482286e-08	4.583043e+01	1.630332e+03
1.870000e-06	6.308572e-06	2.487107e-08	4.546921e+01	1.626594e+03
1.880000e-06	6.256020e-06	2.471900e-08	4.509043e+01	1.622519e+03
1.890000e-06	6.200864e-06	2.473219e-08	4.469290e+01	1.618140e+03
1.900000e-06	6.143226e-06	2.466324e-08	4.427747e+01	1.613505e+03
1.910000e-06	6.083373e-06	2.453126e-08	4.384608e+01	1.608664e+03
1.920000e-06	6.021145e-06	2.452719e-08	4.339757e+01	1.603652e+03
1.930000e-06	5.956755e-06	2.437837e-08	4.293348e+01	1.598481e+03
1.940000e-06	5.890249e-06	2.436348e-08	4.245413e+01	1.593137e+03
1.950000e-06	5.821469e-06	2.424463e-08	4.195840e+01	1.587581e+03
1.960000e-06	5.750356e-06	2.413966e-08	4.144585e+01	1.581765e+03
1.970000e-06	5.676951e-06	2.407199e-08	4.091678e+01	1.575638e+03
1.980000e-06	5.601443e-06	2.391834e-08	4.037256e+01	1.569165e+03
1.990000e-06	5.523642e-06	2.387555e-08	3.981180e+01	1.562330e+03
2.000000e-06	5.443682e-06	2.373919e-08	3.923549e+01	1.555141e+03
2.010000e-06	5.361895e-06	2.365153e-08	3.864600e+01	1.547624e+03
2.020000e-06	5.278328e-06	2.352188e-08	3.804370e+01	1.539810e+03
2.030000e-06	5.192823e-06	2.337063e-08	3.742741e+01	1.531727e+03
2.040000e-06	5.105306e-06	2.326441e-08	3.679663e+01	1.523381e+03
2.050000e-06	5.016011e-06	2.312010e-08	3.615304e+01	1.514760e+03
2.060000e-06	4.925098e-06	2.300987e-08	3.549778e+01	1.505825e+03
2.070000e-06	4.832512e-06	2.284740e-08	3.483046e+01	1.496525e+03
2.080000e-06	4.738100e-06	2.270970e-08	3.414998e+01	1.486806e+03
2.090000e-06	4.641958e-06	2.254723e-08	3.345704e+01	1.476621e+03
2.100000e-06	4.544265e-06	2.238571e-08	3.275292e+01	1.465945e+03
2.110000e-06	4.445119e-06	2.222565e-08	3.203832e+01	1.454772e+03
2.120000e-06	4.344479e-06	2.204695e-08	3.131295e+01	1.443114e+03
2.130000e-06	4.242185e-06	2.186234e-08	3.057567e+01	1.430990e+03
2.140000e-06	4.138268e-06	2.165609e-08	2.982668e+01	1.418413e+03
2.150000e-06	4.032852e-06	2.146413e-08	2.906690e+01	1.405381e+03
2.160000e-06	3.926080e-06	2.125567e-08	2.829733e+01	1.391865e+03
2.170000e-06	3.817983e-06	2.105157e-08	2.751822e+01	1.377813e+03
2.180000e-06	3.708497e-06	2.082887e-08	2.672909e+01	1.363155e+03
2.190000e-06	3.597552e-06	2.059905e-08	2.592946e+01	1.347816e+03
2.200000e-06	3.485153e-06	2.035226e-08	2.511933e+01	1.331730e+03
2.210000e-06	3.371395e-06	2.009785e-08	2.429942e+01	1.314848e+03
2.220000e-06	3.256279e-06	1.983285e-08	2.346972e+01	1.297142e+03
2.230000e-06	3.139790e-06	1.955007e-08	2.263012e+01	1.278602e+03
2.240000e-06	3.021935e-06	1.925177e-08	2.178068e+01	1.259223e+03
2.250000e-06	2.902816e-06	1.894011e-08	2.092213e+01	1.238992e+03
2.260000e-06	2.782586e-06	1.862191e-08	2.005556e+01	1.217869e+03
2.270000e-06	2.661352e-06	1.828557e-08	1.918177e+01	1.195781e+03
2.280000e-06	2.539218e-06	1.793609e-08	1.830149e+01	1.172620e+03
2.290000e-06	2.416198e-06	1.756401e-08	1.741481e+01	1.148251e+03
2.300000e-06	2.292345e-06	1.717208e-08	1.652214e+01	1.122524e+03
2.310000e-06	2.167735e-06	1.675493e-08	1.562401e+01	1.095293e+03
2.320000e-06	2.042360e-06	1.631668e-08	1.472037e+01	1.066422e+03
2.330000e-06	1.916250e-06	1.585174e-08	1.381142e+01	1.035796e+03
2.340000e-06	1.789404e-06	1.535628e-08	1.289718e+01	1.003311e+03
2.350000e-06	1.661901e-06	1.482979e-08	1.197820e+01	9.688653e+02
2.360000e-06	1.533847e-06	1.427054e-08	1.105524e+01	9.323403e+02
2.370000e-06	1.405224e-06	1.367966e-08	1.012819e+01	8.935910e+02
2.380000e-06	1.276123e-06	1.305277e-08	9.197693e+00	8.524449e+02
2.390000e-06	1.146694e-06	1.238546e-08	8.264831e+00	8.087163e+02
2.400000e-06	1.016987e-06	1.167424e-08	7.329965e+00	7.622371e+02
2.410000e-06	8.869834e-07	1.092136e-08	6.392958e+00	7.128990e+02
2.420000e-06	7.566489e-07	1.012668e-08	5.453568e+00	6.606973e+02
2.430000e-06	6.261102e-07	9.290730e-09	4.512706e+00	6.057661e+02
2.440000e-06	4.954330e-07	8.418444e-09	3.570847e+00	5.483923e+02
2.450000e-06	3.645546e-07	7.514054e-09	2.627537e+00	4.890018e+02
2.460000e-06	2.335017e-07	6.584647e-09	1.682970e+00	4.281141e+02
2.470000e-06	1.023088e-07	5.638443e-09	7.373936e-01	3.662724e+02
2.480000e-06	-2.900295e-08	4.684005e-09	-2.090396e-01	3.039608e+02
2.490000e-06	-1.603460e-07	3.729085e-09	-1.155698e+00	2.415245e+02
2.500000e-06	-2.916018e-07	2.774935e-09	-2.101728e+00	1.791117e+02
2.510000e-06	-4.227342e-07	1.820075e-09	-3.046869e+00	1.166519e+02
2.520000e-06	-5.537377e-07	8.602137e-10	-3.991080e+00	5.387730e+01
2.530000e-06	-6.845362e-07	-1.109330e-10	-4.933813e+00	-9.612735e+00
2.540000e-06	-8.151152e-07	-1.098302e-09	-5.874966e+00	-7.425508e+01
2.550000e-06	-9.454170e-07	-2.105543e-09	-6.814119e+00	-1.404117e+02
2.560000e-06	-1.075415e-06	-3.136233e-09	-7.751084e+00	-2.082660e+02
2.570000e-06	-1.205108e-06	-4.193382e-09	-8.685848e+00	-2.777461e+02
2.580000e-06	-1.334420e-06	-5.273795e-09	-9.617873e+00	-3.484928e+02
2.590000e-06	-1.463330e-06	-6.366309e-09	-1.054699e+01	-4.198760e+02
2.600000e-06	-1.591746e-06	-7.456298e-09	-1.147255e+01	-4.910589e+02
2.610000e-06	-1.719504e-06	-8.528289e-09	-1.239337e+01	-5.610963e+02
2.620000e-06	-1.846592e-06	-9.569029e-09	-1.330936e+01	-6.290483e+02
2.630000e-06	-1.972986e-06	-1.056457e-08	-1.422035e+01	-6.940888e+02
2.640000e-06	-2.098604e-06	-1.150306e-08	-1.512575e+01	-7.555900e+02
2.650000e-06	-2.223440e-06	-1.238148e-08	-1.602551e+01	-8.131692e+02
2.660000e-06	-2.347382e-06	-1.319957e-08	-1.691882e+01	-8.666950e+02
2.670000e-06	-2.470369e-06	-1.395908e-08	-1.780525e+01	-9.162557e+02
2.680000e-06	-2.592425e-06	-1.466614e-08	-1.868498e+01	-9.621008e+02
2.690000e-06	-2.713570e-06	-1.532427e-08	-1.955813e+01	-1.004571e+03
2.700000e-06	-2.833768e-06	-1.593661e-08	-2.042446e+01	-1.044031e+03
2.710000e-06	-2.952850e-06	-1.650431e-08	-2.128275e+01	-1.080819e+03
2.720000e-06	-3.070715e-06	-1.703122e-08	-2.213226e+01	-1.115214e+03
2.730000e-06	-3.187359e-06	-1.752214e-08	-2.297298e+01	-1.147431e+03
2.740000e-06	-3.302664e-06	-1.798157e-08	-2.380404e+01	-1.177631e+03
2.750000e-06	-3.416554e-06	-1.841264e-08	-2.462491e+01	-1.205942e+03
2.760000e-06	-3.529065e-06	-1.881618e-08	-2.543583e+01	-1.232482e+03
2.770000e-06	-3.640201e-06	-1.919746e-08	-2.623685e+01	-1.257372e+03
2.780000e-06	-3.750014e-06	-1.955934e-08	-2.702833e+01	-1.280750e+03
2.790000e-06	-3.858594e-06	-1.990115e-08	-2.781092e+01	-1.302758e+03
2.800000e-06	-3.965985e-06	-2.022018e-08	-2.858494e+01	-1.323539e+03
2.810000e-06	-4.072118e-06	-2.052005e-08	-2.934990e+01	-1.343222e+03
2.820000e-06	-4.176872e-06	-2.080596e-08	-3.010492e+01	-1.361908e+03
2.830000e-06	-4.280044e-06	-2.107767e-08	-3.084854e+01	-1.379669e+03
2.840000e-06	-4.381536e-06	-2.133512e-08	-3.158004e+01	-1.396548e+03
2.850000e-06	-4.481396e-06	-2.157726e-08	-3.229978e+01	-1.412572e+03
2.860000e-06	-4.579713e-06	-2.180725e-08	-3.300841e+01	-1.427760e+03
2.870000e-06	-4.676557e-06	-2.202544e-08	-3.370641e+01	-1.442137e+03
2.880000e-06	-4.771785e-06	-2.223359e-08	-3.439277e+01	-1.455744e+03
2.890000e-06	-4.865250e-06	-2.243540e-08	-3.506642e+01	-1.468633e+03
2.900000e-06	-4.956926e-06	-2.262790e-08	-3.572718e+01	-1.480871e+03
2.910000e-06	-5.046845e-06	-2.280899e-08	-3.637527e+01	-1.492525e+03
2.920000e-06	-5.134948e-06	-2.297838e-08	-3.701028e+01	-1.503654e+03
2.930000e-06	-5.221108e-06	-2.313881e-08	-3.763128e+01	-1.514301e+03
2.940000e-06	-5.305328e-06	-2.329134e-08	-3.823830e+01	-1.524489e+03
