# Temperatura_=_57.86
# Concentracion g/m^3_=_28200.0
# C_Vs_to_Am_M_A/Vsm_=_65563218390.804596
# pendiente_HvsI_1/m_=_3716.3
# ordenada_HvsI_A/m_=_1297.0
# frecuencia_Hz_=_302304.16410727275

Tiempo_(s)	Campo_(V.s)	Magnetizacion_(V.s)	Campo_(kA/m)	Magnetizacion_(A/m)
0.000000e+00	-6.869135e-06	-2.573482e-08	-4.951601e+01	-1.685095e+03
1.000000e-08	-6.866478e-06	-2.573093e-08	-4.949686e+01	-1.684678e+03
2.000000e-08	-6.861515e-06	-2.572169e-08	-4.946109e+01	-1.684101e+03
3.000000e-08	-6.854491e-06	-2.571094e-08	-4.941045e+01	-1.683370e+03
4.000000e-08	-6.845194e-06	-2.570111e-08	-4.934344e+01	-1.682487e+03
5.000000e-08	-6.833390e-06	-2.568647e-08	-4.925835e+01	-1.681448e+03
6.000000e-08	-6.818954e-06	-2.566832e-08	-4.915428e+01	-1.680246e+03
7.000000e-08	-6.802056e-06	-2.564177e-08	-4.903248e+01	-1.678871e+03
8.000000e-08	-6.783140e-06	-2.560729e-08	-4.889612e+01	-1.677317e+03
9.000000e-08	-6.762100e-06	-2.563459e-08	-4.874445e+01	-1.675585e+03
1.000000e-07	-6.738449e-06	-2.563837e-08	-4.857397e+01	-1.673690e+03
1.100000e-07	-6.711948e-06	-2.555011e-08	-4.838293e+01	-1.671656e+03
1.200000e-07	-6.682901e-06	-2.548928e-08	-4.817355e+01	-1.669514e+03
1.300000e-07	-6.651749e-06	-2.546596e-08	-4.794899e+01	-1.667296e+03
1.400000e-07	-6.618444e-06	-2.538102e-08	-4.770891e+01	-1.665022e+03
1.500000e-07	-6.583182e-06	-2.531874e-08	-4.745473e+01	-1.662695e+03
1.600000e-07	-6.546109e-06	-2.542311e-08	-4.718749e+01	-1.660297e+03
1.700000e-07	-6.506930e-06	-2.530306e-08	-4.690507e+01	-1.657783e+03
1.800000e-07	-6.465493e-06	-2.520716e-08	-4.660637e+01	-1.655095e+03
1.900000e-07	-6.421575e-06	-2.525882e-08	-4.628978e+01	-1.652167e+03
2.000000e-07	-6.375309e-06	-2.510457e-08	-4.595627e+01	-1.648938e+03
2.100000e-07	-6.326724e-06	-2.508376e-08	-4.560605e+01	-1.645369e+03
2.200000e-07	-6.275389e-06	-2.505836e-08	-4.523600e+01	-1.641445e+03
2.300000e-07	-6.221447e-06	-2.494805e-08	-4.484716e+01	-1.637177e+03
2.400000e-07	-6.165189e-06	-2.490320e-08	-4.444163e+01	-1.632602e+03
2.500000e-07	-6.106552e-06	-2.480991e-08	-4.401895e+01	-1.627768e+03
2.600000e-07	-6.045653e-06	-2.474739e-08	-4.357996e+01	-1.622721e+03
2.700000e-07	-5.982588e-06	-2.467213e-08	-4.312536e+01	-1.617494e+03
2.800000e-07	-5.917313e-06	-2.458118e-08	-4.265483e+01	-1.612098e+03
2.900000e-07	-5.849816e-06	-2.448790e-08	-4.216828e+01	-1.606521e+03
3.000000e-07	-5.780074e-06	-2.437678e-08	-4.166554e+01	-1.600730e+03
3.100000e-07	-5.708181e-06	-2.431278e-08	-4.114730e+01	-1.594681e+03
3.200000e-07	-5.634076e-06	-2.420621e-08	-4.061312e+01	-1.588334e+03
3.300000e-07	-5.557633e-06	-2.411762e-08	-4.006208e+01	-1.581656e+03
3.400000e-07	-5.478862e-06	-2.400912e-08	-3.949426e+01	-1.574636e+03
3.500000e-07	-5.397913e-06	-2.388313e-08	-3.891074e+01	-1.567278e+03
3.600000e-07	-5.315131e-06	-2.378175e-08	-3.831401e+01	-1.559598e+03
3.700000e-07	-5.230693e-06	-2.364880e-08	-3.770534e+01	-1.551616e+03
3.800000e-07	-5.144547e-06	-2.353062e-08	-3.708436e+01	-1.543345e+03
3.900000e-07	-5.056644e-06	-2.339689e-08	-3.645071e+01	-1.534781e+03
4.000000e-07	-4.966889e-06	-2.325253e-08	-3.580371e+01	-1.525904e+03
4.100000e-07	-4.875324e-06	-2.310018e-08	-3.514367e+01	-1.516676e+03
4.200000e-07	-4.782159e-06	-2.295991e-08	-3.447209e+01	-1.507053e+03
4.300000e-07	-4.687411e-06	-2.281734e-08	-3.378910e+01	-1.496992e+03
4.400000e-07	-4.590976e-06	-2.264907e-08	-3.309395e+01	-1.486463e+03
4.500000e-07	-4.492781e-06	-2.247926e-08	-3.238612e+01	-1.475449e+03
4.600000e-07	-4.392898e-06	-2.230326e-08	-3.166611e+01	-1.463951e+03
4.700000e-07	-4.291463e-06	-2.212042e-08	-3.093492e+01	-1.451982e+03
4.800000e-07	-4.188566e-06	-2.193221e-08	-3.019319e+01	-1.439552e+03
4.900000e-07	-4.084206e-06	-2.174290e-08	-2.944091e+01	-1.426661e+03
5.000000e-07	-3.978290e-06	-2.153908e-08	-2.867742e+01	-1.413291e+03
5.100000e-07	-3.870840e-06	-2.132108e-08	-2.790287e+01	-1.399401e+03
5.200000e-07	-3.762038e-06	-2.109317e-08	-2.711857e+01	-1.384933e+03
5.300000e-07	-3.651959e-06	-2.085700e-08	-2.632506e+01	-1.369818e+03
5.400000e-07	-3.540536e-06	-2.061212e-08	-2.552188e+01	-1.353991e+03
5.500000e-07	-3.427738e-06	-2.035576e-08	-2.470877e+01	-1.337398e+03
5.600000e-07	-3.313492e-06	-2.009024e-08	-2.388524e+01	-1.320004e+03
5.700000e-07	-3.197790e-06	-1.981251e-08	-2.305120e+01	-1.301790e+03
5.800000e-07	-3.080773e-06	-1.952345e-08	-2.220769e+01	-1.282746e+03
5.900000e-07	-2.962597e-06	-1.922146e-08	-2.135582e+01	-1.262860e+03
6.000000e-07	-2.843405e-06	-1.890721e-08	-2.049663e+01	-1.242098e+03
6.100000e-07	-2.723202e-06	-1.857370e-08	-1.963014e+01	-1.220397e+03
6.200000e-07	-2.601936e-06	-1.822034e-08	-1.875600e+01	-1.197663e+03
6.300000e-07	-2.479645e-06	-1.785045e-08	-1.787447e+01	-1.173770e+03
6.400000e-07	-2.356374e-06	-1.746345e-08	-1.698587e+01	-1.148574e+03
6.500000e-07	-2.232207e-06	-1.705612e-08	-1.609082e+01	-1.121928e+03
6.600000e-07	-2.107323e-06	-1.662651e-08	-1.519059e+01	-1.093696e+03
6.700000e-07	-1.981797e-06	-1.617149e-08	-1.428574e+01	-1.063758e+03
6.800000e-07	-1.855591e-06	-1.568812e-08	-1.337599e+01	-1.032012e+03
6.900000e-07	-1.728754e-06	-1.517680e-08	-1.246169e+01	-9.983592e+02
7.000000e-07	-1.601365e-06	-1.463454e-08	-1.154340e+01	-9.626925e+02
7.100000e-07	-1.473459e-06	-1.405964e-08	-1.062140e+01	-9.248789e+02
7.200000e-07	-1.345048e-06	-1.344698e-08	-9.695753e+00	-8.847527e+02
7.300000e-07	-1.216147e-06	-1.279461e-08	-8.766569e+00	-8.421231e+02
7.400000e-07	-1.086803e-06	-1.209916e-08	-7.834193e+00	-7.967967e+02
7.500000e-07	-9.570478e-07	-1.136136e-08	-6.898859e+00	-7.486162e+02
7.600000e-07	-8.269766e-07	-1.058194e-08	-5.961243e+00	-6.975062e+02
7.700000e-07	-6.966508e-07	-9.758854e-09	-5.021793e+00	-6.435155e+02
7.800000e-07	-5.660416e-07	-8.893764e-09	-4.080299e+00	-5.868449e+02
7.900000e-07	-4.352589e-07	-7.994276e-09	-3.137555e+00	-5.278495e+02
8.000000e-07	-3.043767e-07	-7.068615e-09	-2.194093e+00	-4.670095e+02
8.100000e-07	-1.733810e-07	-6.123584e-09	-1.249813e+00	-4.048727e+02
8.200000e-07	-4.227900e-08	-5.166032e-09	-3.047673e-01	-3.419745e+02
8.300000e-07	8.892336e-08	-4.200784e-09	6.410022e-01	-2.787534e+02
8.400000e-07	2.201259e-07	-3.235445e-09	1.586773e+00	-2.154776e+02
8.500000e-07	3.512279e-07	-2.271183e-09	2.531819e+00	-1.522005e+02
8.600000e-07	4.822375e-07	-1.305901e-09	3.476199e+00	-8.875786e+01
8.700000e-07	6.130848e-07	-3.353413e-10	4.419409e+00	-2.480940e+01
8.800000e-07	7.436975e-07	6.504333e-10	5.360928e+00	4.007918e+01
8.900000e-07	8.740836e-07	1.659824e-09	6.300813e+00	1.063290e+02
9.000000e-07	1.004226e-06	2.695013e-09	7.238940e+00	1.742355e+02
9.100000e-07	1.134025e-06	3.755875e-09	8.174592e+00	2.438728e+02
9.200000e-07	1.263375e-06	4.841600e-09	9.107013e+00	3.150345e+02
9.300000e-07	1.392243e-06	5.944358e-09	1.003595e+01	3.872221e+02
9.400000e-07	1.520550e-06	7.053054e-09	1.096085e+01	4.596852e+02
9.500000e-07	1.648259e-06	8.151247e-09	1.188144e+01	5.315042e+02
9.600000e-07	1.775401e-06	9.220542e-09	1.279794e+01	6.017007e+02
9.700000e-07	1.901966e-06	1.024741e-08	1.371028e+01	6.693544e+02
9.800000e-07	2.027833e-06	1.122267e-08	1.461759e+01	7.337052e+02
9.900000e-07	2.152965e-06	1.213904e-08	1.551960e+01	7.942242e+02
1.000000e-06	2.277406e-06	1.299183e-08	1.641663e+01	8.506429e+02
1.010000e-06	2.401040e-06	1.378289e-08	1.730785e+01	9.029413e+02
1.020000e-06	2.523737e-06	1.451660e-08	1.819231e+01	9.513008e+02
1.030000e-06	2.645448e-06	1.519670e-08	1.906966e+01	9.960360e+02
1.040000e-06	2.766113e-06	1.582708e-08	1.993946e+01	1.037521e+03
1.050000e-06	2.885679e-06	1.641316e-08	2.080136e+01	1.076127e+03
1.060000e-06	3.004179e-06	1.695914e-08	2.165556e+01	1.112176e+03
1.070000e-06	3.121572e-06	1.747019e-08	2.250179e+01	1.145921e+03
1.080000e-06	3.237781e-06	1.794771e-08	2.333948e+01	1.177549e+03
1.090000e-06	3.352758e-06	1.839537e-08	2.416829e+01	1.207199e+03
1.100000e-06	3.466380e-06	1.881650e-08	2.498732e+01	1.234986e+03
1.110000e-06	3.578564e-06	1.921209e-08	2.579600e+01	1.261023e+03
1.120000e-06	3.689462e-06	1.958355e-08	2.659540e+01	1.285439e+03
1.130000e-06	3.799166e-06	1.993311e-08	2.738621e+01	1.308376e+03
1.140000e-06	3.907623e-06	2.026155e-08	2.816801e+01	1.329986e+03
1.150000e-06	4.014823e-06	2.057355e-08	2.894076e+01	1.350415e+03
1.160000e-06	4.120587e-06	2.086935e-08	2.970316e+01	1.369790e+03
1.170000e-06	4.224741e-06	2.114942e-08	3.045395e+01	1.388205e+03
1.180000e-06	4.327349e-06	2.141592e-08	3.119360e+01	1.405724e+03
1.190000e-06	4.428491e-06	2.166683e-08	3.192268e+01	1.422382e+03
1.200000e-06	4.528107e-06	2.190519e-08	3.264076e+01	1.438196e+03
1.210000e-06	4.626020e-06	2.213229e-08	3.334656e+01	1.453180e+03
1.220000e-06	4.722173e-06	2.234855e-08	3.403968e+01	1.467360e+03
1.230000e-06	4.816612e-06	2.255358e-08	3.472045e+01	1.480775e+03
1.240000e-06	4.909418e-06	2.274696e-08	3.538944e+01	1.493482e+03
1.250000e-06	5.000574e-06	2.292923e-08	3.604653e+01	1.505547e+03
1.260000e-06	5.089833e-06	2.310241e-08	3.668995e+01	1.517039e+03
1.270000e-06	5.177158e-06	2.326754e-08	3.731943e+01	1.528018e+03
1.280000e-06	5.262646e-06	2.342729e-08	3.793567e+01	1.538525e+03
1.290000e-06	5.346318e-06	2.358141e-08	3.853882e+01	1.548582e+03
1.300000e-06	5.428066e-06	2.372898e-08	3.912810e+01	1.558194e+03
1.310000e-06	5.507760e-06	2.386896e-08	3.970257e+01	1.567352e+03
1.320000e-06	5.585446e-06	2.400248e-08	4.026257e+01	1.576045e+03
1.330000e-06	5.661031e-06	2.413000e-08	4.080742e+01	1.584265e+03
1.340000e-06	5.734372e-06	2.425027e-08	4.133610e+01	1.592016e+03
1.350000e-06	5.805563e-06	2.436143e-08	4.184928e+01	1.599313e+03
1.360000e-06	5.874724e-06	2.446527e-08	4.234783e+01	1.606184e+03
1.370000e-06	5.941822e-06	2.456580e-08	4.283149e+01	1.612660e+03
1.380000e-06	6.006710e-06	2.466084e-08	4.329924e+01	1.618775e+03
1.390000e-06	6.069444e-06	2.475055e-08	4.375146e+01	1.624556e+03
1.400000e-06	6.130203e-06	2.483380e-08	4.418943e+01	1.630028e+03
1.410000e-06	6.188890e-06	2.491146e-08	4.461248e+01	1.635206e+03
1.420000e-06	6.245345e-06	2.498482e-08	4.501943e+01	1.640102e+03
1.430000e-06	6.299567e-06	2.505306e-08	4.541030e+01	1.644727e+03
1.440000e-06	6.351371e-06	2.511927e-08	4.578372e+01	1.649091e+03
1.450000e-06	6.400463e-06	2.518252e-08	4.613760e+01	1.653207e+03
1.460000e-06	6.447050e-06	2.524214e-08	4.647342e+01	1.657087e+03
1.470000e-06	6.491489e-06	2.529873e-08	4.679376e+01	1.660740e+03
1.480000e-06	6.533657e-06	2.535161e-08	4.709773e+01	1.664173e+03
1.490000e-06	6.573353e-06	2.540121e-08	4.738387e+01	1.667383e+03
1.500000e-06	6.610766e-06	2.544632e-08	4.765356e+01	1.670364e+03
1.510000e-06	6.645953e-06	2.548772e-08	4.790721e+01	1.673102e+03
1.520000e-06	6.678720e-06	2.552532e-08	4.814341e+01	1.675583e+03
1.530000e-06	6.709129e-06	2.555705e-08	4.836261e+01	1.677800e+03
1.540000e-06	6.737313e-06	2.558505e-08	4.856577e+01	1.679749e+03
1.550000e-06	6.763065e-06	2.561094e-08	4.875141e+01	1.681438e+03
1.560000e-06	6.786210e-06	2.563408e-08	4.891825e+01	1.682881e+03
1.570000e-06	6.806963e-06	2.565345e-08	4.906785e+01	1.684101e+03
1.580000e-06	6.825376e-06	2.566828e-08	4.920058e+01	1.685118e+03
1.590000e-06	6.841227e-06	2.567959e-08	4.931484e+01	1.685953e+03
1.600000e-06	6.854477e-06	2.568845e-08	4.941035e+01	1.686618e+03
1.610000e-06	6.865019e-06	2.569640e-08	4.948635e+01	1.687118e+03
1.620000e-06	6.872875e-06	2.570353e-08	4.954297e+01	1.687452e+03
1.630000e-06	6.878359e-06	2.570875e-08	4.958250e+01	1.687616e+03
1.640000e-06	6.881452e-06	2.571115e-08	4.960480e+01	1.687608e+03
1.650000e-06	6.882021e-06	2.571087e-08	4.960890e+01	1.687425e+03
1.660000e-06	6.880248e-06	2.570164e-08	4.959612e+01	1.687073e+03
1.670000e-06	6.876340e-06	2.568735e-08	4.956795e+01	1.686558e+03
1.680000e-06	6.870117e-06	2.567686e-08	4.952309e+01	1.685887e+03
1.690000e-06	6.861506e-06	2.566490e-08	4.946102e+01	1.685063e+03
1.700000e-06	6.850677e-06	2.565228e-08	4.938296e+01	1.684085e+03
1.710000e-06	6.837490e-06	2.563979e-08	4.928790e+01	1.682948e+03
1.720000e-06	6.821892e-06	2.563292e-08	4.917546e+01	1.681642e+03
1.730000e-06	6.804155e-06	2.562147e-08	4.904760e+01	1.680158e+03
1.740000e-06	6.784327e-06	2.551834e-08	4.890467e+01	1.678495e+03
1.750000e-06	6.761685e-06	2.547230e-08	4.874146e+01	1.676662e+03
1.760000e-06	6.735758e-06	2.550205e-08	4.855457e+01	1.674678e+03
1.770000e-06	6.707026e-06	2.546659e-08	4.834745e+01	1.672574e+03
1.780000e-06	6.676001e-06	2.544668e-08	4.812381e+01	1.670382e+03
1.790000e-06	6.643152e-06	2.549963e-08	4.788702e+01	1.668128e+03
1.800000e-06	6.608934e-06	2.535404e-08	4.764036e+01	1.665823e+03
1.810000e-06	6.572845e-06	2.529410e-08	4.738021e+01	1.663457e+03
1.820000e-06	6.534182e-06	2.537842e-08	4.710151e+01	1.660994e+03
1.830000e-06	6.493294e-06	2.522938e-08	4.680677e+01	1.658382e+03
1.840000e-06	6.450258e-06	2.530326e-08	4.649655e+01	1.655555e+03
1.850000e-06	6.404868e-06	2.524817e-08	4.616935e+01	1.652451e+03
1.860000e-06	6.357146e-06	2.508194e-08	4.582535e+01	1.649019e+03
1.870000e-06	6.306953e-06	2.514255e-08	4.546353e+01	1.645233e+03
1.880000e-06	6.254372e-06	2.499583e-08	4.508451e+01	1.641097e+03
1.890000e-06	6.199203e-06	2.498897e-08	4.468682e+01	1.636637e+03
1.900000e-06	6.141520e-06	2.493437e-08	4.427101e+01	1.631899e+03
1.910000e-06	6.081694e-06	2.477894e-08	4.383976e+01	1.626930e+03
1.920000e-06	6.019511e-06	2.478839e-08	4.339151e+01	1.621770e+03
1.930000e-06	5.955078e-06	2.464662e-08	4.292706e+01	1.616441e+03
1.940000e-06	5.888560e-06	2.461409e-08	4.244756e+01	1.610937e+03
1.950000e-06	5.819877e-06	2.450931e-08	4.195246e+01	1.605235e+03
1.960000e-06	5.748807e-06	2.439139e-08	4.144015e+01	1.599292e+03
1.970000e-06	5.675333e-06	2.433575e-08	4.091052e+01	1.593066e+03
1.980000e-06	5.599768e-06	2.416911e-08	4.036581e+01	1.586521e+03
1.990000e-06	5.521948e-06	2.412381e-08	3.980484e+01	1.579635e+03
2.000000e-06	5.441990e-06	2.399397e-08	3.922847e+01	1.572408e+03
2.010000e-06	5.360176e-06	2.389190e-08	3.863871e+01	1.564852e+03
2.020000e-06	5.276527e-06	2.377307e-08	3.803573e+01	1.556986e+03
2.030000e-06	5.190963e-06	2.361607e-08	3.741894e+01	1.548828e+03
2.040000e-06	5.103365e-06	2.352273e-08	3.678749e+01	1.540380e+03
2.050000e-06	5.014011e-06	2.337609e-08	3.614339e+01	1.531629e+03
2.060000e-06	4.923046e-06	2.325658e-08	3.548767e+01	1.522544e+03
2.070000e-06	4.830423e-06	2.309041e-08	3.482000e+01	1.513081e+03
2.080000e-06	4.736037e-06	2.294735e-08	3.413962e+01	1.503197e+03
2.090000e-06	4.639821e-06	2.279107e-08	3.344605e+01	1.492854e+03
2.100000e-06	4.542048e-06	2.262454e-08	3.274126e+01	1.482030e+03
2.110000e-06	4.442857e-06	2.246500e-08	3.202624e+01	1.470721e+03
2.120000e-06	4.342164e-06	2.227890e-08	3.130040e+01	1.458936e+03
2.130000e-06	4.239841e-06	2.209147e-08	3.056280e+01	1.446685e+03
2.140000e-06	4.135862e-06	2.188240e-08	2.981327e+01	1.433976e+03
2.150000e-06	4.030335e-06	2.169010e-08	2.905259e+01	1.420797e+03
2.160000e-06	3.923498e-06	2.148378e-08	2.828245e+01	1.407118e+03
2.170000e-06	3.815372e-06	2.127750e-08	2.750303e+01	1.392884e+03
2.180000e-06	3.705799e-06	2.105186e-08	2.671317e+01	1.378031e+03
2.190000e-06	3.594745e-06	2.081488e-08	2.591264e+01	1.362491e+03
2.200000e-06	3.482279e-06	2.056579e-08	2.510193e+01	1.346204e+03
2.210000e-06	3.368487e-06	2.030711e-08	2.428167e+01	1.329127e+03
2.220000e-06	3.253369e-06	2.004042e-08	2.345184e+01	1.311236e+03
2.230000e-06	3.136869e-06	1.975542e-08	2.261206e+01	1.292519e+03
2.240000e-06	3.019030e-06	1.945731e-08	2.176262e+01	1.272966e+03
2.250000e-06	2.899980e-06	1.914262e-08	2.090444e+01	1.252553e+03
2.260000e-06	2.779776e-06	1.882052e-08	2.003796e+01	1.231231e+03
2.270000e-06	2.658557e-06	1.848001e-08	1.916415e+01	1.208916e+03
2.280000e-06	2.536414e-06	1.812601e-08	1.828369e+01	1.185494e+03
2.290000e-06	2.413405e-06	1.775095e-08	1.739698e+01	1.160827e+03
2.300000e-06	2.289621e-06	1.735449e-08	1.650468e+01	1.134768e+03
2.310000e-06	2.165077e-06	1.693299e-08	1.560691e+01	1.107174e+03
2.320000e-06	2.039691e-06	1.648788e-08	1.470307e+01	1.077919e+03
2.330000e-06	1.913524e-06	1.601539e-08	1.379360e+01	1.046894e+03
2.340000e-06	1.786722e-06	1.551302e-08	1.287954e+01	1.014002e+03
2.350000e-06	1.659240e-06	1.498077e-08	1.196059e+01	9.791403e+02
2.360000e-06	1.531092e-06	1.441583e-08	1.103685e+01	9.421876e+02
2.370000e-06	1.402418e-06	1.381876e-08	1.010930e+01	9.029913e+02
2.380000e-06	1.273346e-06	1.318564e-08	9.178889e+00	8.613685e+02
2.390000e-06	1.143917e-06	1.251214e-08	8.245904e+00	8.171229e+02
2.400000e-06	1.014138e-06	1.179197e-08	7.310392e+00	7.700779e+02
2.410000e-06	8.840299e-07	1.102867e-08	6.372510e+00	7.201203e+02
2.420000e-06	7.536441e-07	1.022339e-08	5.432627e+00	6.672458e+02
2.430000e-06	6.230843e-07	9.375847e-09	4.491490e+00	6.115936e+02
2.440000e-06	4.923454e-07	8.490976e-09	3.549062e+00	5.534598e+02
2.450000e-06	3.614380e-07	7.575420e-09	2.605418e+00	4.932809e+02
2.460000e-06	2.304389e-07	6.636550e-09	1.661114e+00	4.315868e+02
2.470000e-06	9.935270e-08	5.679323e-09	7.161818e-01	3.689278e+02
2.480000e-06	-3.179614e-08	4.712274e-09	-2.292018e-01	3.057905e+02
2.490000e-06	-1.629538e-07	3.743348e-09	-1.174649e+00	2.425170e+02
2.500000e-06	-2.940985e-07	2.772777e-09	-2.120003e+00	1.792481e+02
2.510000e-06	-4.251780e-07	1.801303e-09	-3.064886e+00	1.159024e+02
2.520000e-06	-5.561102e-07	8.271610e-10	-4.008708e+00	5.220110e+01
2.530000e-06	-6.869199e-07	-1.565215e-10	-4.951647e+00	-1.226499e+01
2.540000e-06	-8.175668e-07	-1.156896e-09	-5.893413e+00	-7.793578e+01
2.550000e-06	-9.479091e-07	-2.179561e-09	-6.832982e+00	-1.451689e+02
2.560000e-06	-1.077985e-06	-3.227548e-09	-7.770632e+00	-2.141349e+02
2.570000e-06	-1.207720e-06	-4.302262e-09	-8.705827e+00	-2.847417e+02
2.580000e-06	-1.337018e-06	-5.399498e-09	-9.637865e+00	-3.566036e+02
2.590000e-06	-1.465916e-06	-6.508638e-09	-1.056703e+01	-4.290614e+02
2.600000e-06	-1.594310e-06	-7.614353e-09	-1.149255e+01	-5.012498e+02
2.610000e-06	-1.722037e-06	-8.700429e-09	-1.241327e+01	-5.721996e+02
2.620000e-06	-1.849097e-06	-9.753024e-09	-1.332918e+01	-6.409541e+02
2.630000e-06	-1.975511e-06	-1.075773e-08	-1.424043e+01	-7.066798e+02
2.640000e-06	-2.101171e-06	-1.170426e-08	-1.514625e+01	-7.687511e+02
2.650000e-06	-2.225898e-06	-1.258951e-08	-1.604534e+01	-8.267964e+02
2.660000e-06	-2.349670e-06	-1.341361e-08	-1.693755e+01	-8.807020e+02
2.670000e-06	-2.472571e-06	-1.417856e-08	-1.782348e+01	-9.305775e+02
2.680000e-06	-2.594640e-06	-1.489114e-08	-1.870341e+01	-9.766939e+02
2.690000e-06	-2.715817e-06	-1.555302e-08	-1.957691e+01	-1.019411e+03
2.700000e-06	-2.835946e-06	-1.616590e-08	-2.044285e+01	-1.059106e+03
2.710000e-06	-2.954980e-06	-1.673494e-08	-2.130091e+01	-1.096126e+03
2.720000e-06	-3.072801e-06	-1.726660e-08	-2.215022e+01	-1.130751e+03
2.730000e-06	-3.189322e-06	-1.776284e-08	-2.299016e+01	-1.163192e+03
2.740000e-06	-3.304531e-06	-1.822575e-08	-2.382064e+01	-1.193605e+03
2.750000e-06	-3.418377e-06	-1.865984e-08	-2.464129e+01	-1.222111e+03
2.760000e-06	-3.530835e-06	-1.906521e-08	-2.545195e+01	-1.248822e+03
2.770000e-06	-3.641913e-06	-1.944774e-08	-2.625265e+01	-1.273858e+03
2.780000e-06	-3.751682e-06	-1.981345e-08	-2.704392e+01	-1.297359e+03
2.790000e-06	-3.860238e-06	-2.015867e-08	-2.782644e+01	-1.319472e+03
2.800000e-06	-3.967622e-06	-2.047871e-08	-2.860052e+01	-1.340349e+03
2.810000e-06	-4.073734e-06	-2.077929e-08	-2.936542e+01	-1.360125e+03
2.820000e-06	-4.178401e-06	-2.106667e-08	-3.011991e+01	-1.378909e+03
2.830000e-06	-4.281487e-06	-2.134000e-08	-3.086301e+01	-1.396775e+03
2.840000e-06	-4.382934e-06	-2.159887e-08	-3.159428e+01	-1.413768e+03
2.850000e-06	-4.482805e-06	-2.184445e-08	-3.231421e+01	-1.429912e+03
2.860000e-06	-4.581159e-06	-2.207750e-08	-3.302318e+01	-1.445221e+03
2.870000e-06	-4.677992e-06	-2.229734e-08	-3.372121e+01	-1.459714e+03
2.880000e-06	-4.773166e-06	-2.250697e-08	-3.440726e+01	-1.473424e+03
2.890000e-06	-4.866541e-06	-2.270869e-08	-3.508036e+01	-1.486401e+03
2.900000e-06	-4.958195e-06	-2.290011e-08	-3.574104e+01	-1.498710e+03
2.910000e-06	-5.048129e-06	-2.308178e-08	-3.638933e+01	-1.510420e+03
2.920000e-06	-5.136217e-06	-2.325440e-08	-3.702431e+01	-1.521595e+03
2.930000e-06	-5.222293e-06	-2.341881e-08	-3.764479e+01	-1.532284e+03
2.940000e-06	-5.306432e-06	-2.357358e-08	-3.825130e+01	-1.542517e+03
