# Temperatura_=_49.78
# Concentracion g/m^3_=_28200.0
# C_Vs_to_Am_M_A/Vsm_=_65563218390.804596
# pendiente_HvsI_1/m_=_3716.3
# ordenada_HvsI_A/m_=_1297.0
# frecuencia_Hz_=_302303.8235283137

Tiempo_(s)	Campo_(V.s)	Magnetizacion_(V.s)	Campo_(kA/m)	Magnetizacion_(A/m)
0.000000e+00	-6.891608e-06	-2.504412e-08	-4.951512e+01	-1.639785e+03
1.000000e-08	-6.888610e-06	-2.503665e-08	-4.949357e+01	-1.639382e+03
2.000000e-08	-6.883327e-06	-2.502577e-08	-4.945562e+01	-1.638846e+03
3.000000e-08	-6.875911e-06	-2.501586e-08	-4.940234e+01	-1.638172e+03
4.000000e-08	-6.866167e-06	-2.500242e-08	-4.933232e+01	-1.637347e+03
5.000000e-08	-6.853903e-06	-2.498846e-08	-4.924421e+01	-1.636355e+03
6.000000e-08	-6.839079e-06	-2.497162e-08	-4.913770e+01	-1.635183e+03
7.000000e-08	-6.821933e-06	-2.494922e-08	-4.901451e+01	-1.633820e+03
8.000000e-08	-6.802754e-06	-2.493348e-08	-4.887671e+01	-1.632270e+03
9.000000e-08	-6.781308e-06	-2.495200e-08	-4.872263e+01	-1.630551e+03
1.000000e-07	-6.757166e-06	-2.491842e-08	-4.854917e+01	-1.628693e+03
1.100000e-07	-6.730264e-06	-2.485704e-08	-4.835588e+01	-1.626736e+03
1.200000e-07	-6.700863e-06	-2.481748e-08	-4.814464e+01	-1.624719e+03
1.300000e-07	-6.669241e-06	-2.476815e-08	-4.791744e+01	-1.622671e+03
1.400000e-07	-6.635488e-06	-2.468449e-08	-4.767493e+01	-1.620600e+03
1.500000e-07	-6.599865e-06	-2.468951e-08	-4.741898e+01	-1.618490e+03
1.600000e-07	-6.562372e-06	-2.471948e-08	-4.714961e+01	-1.616296e+03
1.700000e-07	-6.522722e-06	-2.459479e-08	-4.686473e+01	-1.613954e+03
1.800000e-07	-6.480831e-06	-2.460215e-08	-4.656374e+01	-1.611391e+03
1.900000e-07	-6.436474e-06	-2.455355e-08	-4.624505e+01	-1.608536e+03
2.000000e-07	-6.389740e-06	-2.444248e-08	-4.590927e+01	-1.605339e+03
2.100000e-07	-6.340576e-06	-2.442775e-08	-4.555604e+01	-1.601780e+03
2.200000e-07	-6.288697e-06	-2.433302e-08	-4.518330e+01	-1.597868e+03
2.300000e-07	-6.234291e-06	-2.428313e-08	-4.479239e+01	-1.593641e+03
2.400000e-07	-6.177558e-06	-2.423437e-08	-4.438478e+01	-1.589155e+03
2.500000e-07	-6.118458e-06	-2.415174e-08	-4.396015e+01	-1.584466e+03
2.600000e-07	-6.057074e-06	-2.409089e-08	-4.351912e+01	-1.579619e+03
2.700000e-07	-5.993514e-06	-2.401481e-08	-4.306245e+01	-1.574636e+03
2.800000e-07	-5.927718e-06	-2.393049e-08	-4.258972e+01	-1.569506e+03
2.900000e-07	-5.859680e-06	-2.383524e-08	-4.210088e+01	-1.564195e+03
3.000000e-07	-5.789466e-06	-2.376301e-08	-4.159639e+01	-1.558651e+03
3.100000e-07	-5.717081e-06	-2.368337e-08	-4.107632e+01	-1.552818e+03
3.200000e-07	-5.642401e-06	-2.357459e-08	-4.053976e+01	-1.546651e+03
3.300000e-07	-5.565343e-06	-2.348122e-08	-3.998611e+01	-1.540125e+03
3.400000e-07	-5.486001e-06	-2.335743e-08	-3.941605e+01	-1.533239e+03
3.500000e-07	-5.404614e-06	-2.325332e-08	-3.883130e+01	-1.526011e+03
3.600000e-07	-5.321388e-06	-2.315186e-08	-3.823333e+01	-1.518472e+03
3.700000e-07	-5.236414e-06	-2.302983e-08	-3.762280e+01	-1.510652e+03
3.800000e-07	-5.149755e-06	-2.291307e-08	-3.700018e+01	-1.502567e+03
3.900000e-07	-5.061321e-06	-2.277833e-08	-3.636479e+01	-1.494213e+03
4.000000e-07	-4.971033e-06	-2.263941e-08	-3.571609e+01	-1.485562e+03
4.100000e-07	-4.878984e-06	-2.249497e-08	-3.505473e+01	-1.476572e+03
4.200000e-07	-4.785304e-06	-2.236050e-08	-3.438165e+01	-1.467191e+03
4.300000e-07	-4.690017e-06	-2.221109e-08	-3.369703e+01	-1.457375e+03
4.400000e-07	-4.593010e-06	-2.204906e-08	-3.300005e+01	-1.447091e+03
4.500000e-07	-4.494294e-06	-2.188818e-08	-3.229079e+01	-1.436328e+03
4.600000e-07	-4.393929e-06	-2.171825e-08	-3.156968e+01	-1.425091e+03
4.700000e-07	-4.291996e-06	-2.154262e-08	-3.083731e+01	-1.413394e+03
4.800000e-07	-4.188564e-06	-2.135444e-08	-3.009417e+01	-1.401252e+03
4.900000e-07	-4.083527e-06	-2.116360e-08	-2.933950e+01	-1.388665e+03
5.000000e-07	-3.976981e-06	-2.096029e-08	-2.857398e+01	-1.375612e+03
5.100000e-07	-3.868998e-06	-2.074837e-08	-2.779814e+01	-1.362050e+03
5.200000e-07	-3.759682e-06	-2.052831e-08	-2.701272e+01	-1.347916e+03
5.300000e-07	-3.649148e-06	-2.029988e-08	-2.621855e+01	-1.333140e+03
5.400000e-07	-3.537244e-06	-2.006143e-08	-2.541454e+01	-1.317656e+03
5.500000e-07	-3.423887e-06	-1.981112e-08	-2.460008e+01	-1.301410e+03
5.600000e-07	-3.309063e-06	-1.955457e-08	-2.377509e+01	-1.284368e+03
5.700000e-07	-3.192782e-06	-1.928386e-08	-2.293963e+01	-1.266513e+03
5.800000e-07	-3.075170e-06	-1.899895e-08	-2.209461e+01	-1.247836e+03
5.900000e-07	-2.956438e-06	-1.869741e-08	-2.124154e+01	-1.228322e+03
6.000000e-07	-2.836704e-06	-1.838551e-08	-2.038127e+01	-1.207939e+03
6.100000e-07	-2.715884e-06	-1.805848e-08	-1.951319e+01	-1.186623e+03
6.200000e-07	-2.593934e-06	-1.771375e-08	-1.863701e+01	-1.164281e+03
6.300000e-07	-2.471013e-06	-1.735204e-08	-1.775384e+01	-1.140792e+03
6.400000e-07	-2.347201e-06	-1.697095e-08	-1.686427e+01	-1.116019e+03
6.500000e-07	-2.222544e-06	-1.656977e-08	-1.596863e+01	-1.089823e+03
6.600000e-07	-2.097208e-06	-1.614606e-08	-1.506811e+01	-1.062074e+03
6.700000e-07	-1.971247e-06	-1.569990e-08	-1.416310e+01	-1.032659e+03
6.800000e-07	-1.844634e-06	-1.522725e-08	-1.325341e+01	-1.001473e+03
6.900000e-07	-1.717344e-06	-1.472771e-08	-1.233885e+01	-9.684170e+02
7.000000e-07	-1.589409e-06	-1.419609e-08	-1.141965e+01	-9.333747e+02
7.100000e-07	-1.460885e-06	-1.362862e-08	-1.049623e+01	-8.962053e+02
7.200000e-07	-1.331870e-06	-1.302214e-08	-9.569274e+00	-8.567387e+02
7.300000e-07	-1.202465e-06	-1.237733e-08	-8.639517e+00	-8.147857e+02
7.400000e-07	-1.072642e-06	-1.169478e-08	-7.706761e+00	-7.701648e+02
7.500000e-07	-9.424787e-07	-1.097057e-08	-6.771560e+00	-7.227407e+02
7.600000e-07	-8.120001e-07	-1.020466e-08	-5.834093e+00	-6.724675e+02
7.700000e-07	-6.812017e-07	-9.396490e-09	-4.894327e+00	-6.194272e+02
7.800000e-07	-5.501918e-07	-8.550835e-09	-3.953041e+00	-5.638511e+02
7.900000e-07	-4.189868e-07	-7.673082e-09	-3.010354e+00	-5.061149e+02
8.000000e-07	-2.876199e-07	-6.768759e-09	-2.066503e+00	-4.467052e+02
8.100000e-07	-1.561320e-07	-5.845746e-09	-1.121783e+00	-3.861587e+02
8.200000e-07	-2.453372e-08	-4.913033e-09	-1.762709e-01	-3.249846e+02
8.300000e-07	1.070930e-07	-3.975347e-09	7.694462e-01	-2.635840e+02
8.400000e-07	2.387198e-07	-3.036621e-09	1.715164e+00	-2.021842e+02
8.500000e-07	3.702754e-07	-2.099292e-09	2.660370e+00	-1.408030e+02
8.600000e-07	5.017101e-07	-1.161716e-09	3.604708e+00	-7.925244e+01
8.700000e-07	6.330426e-07	-2.174554e-10	4.548311e+00	-1.718584e+01
8.800000e-07	7.641924e-07	7.420691e-10	5.490601e+00	4.582053e+01
8.900000e-07	8.950788e-07	1.720502e-09	6.431000e+00	1.101639e+02
9.000000e-07	1.025623e-06	2.722774e-09	7.368936e+00	1.761098e+02
9.100000e-07	1.155765e-06	3.751288e-09	8.303992e+00	2.437058e+02
9.200000e-07	1.285487e-06	4.804209e-09	9.236018e+00	3.127301e+02
9.300000e-07	1.414738e-06	5.873496e-09	1.016467e+01	3.826875e+02
9.400000e-07	1.543492e-06	6.946927e-09	1.108974e+01	4.528502e+02
9.500000e-07	1.671698e-06	8.008858e-09	1.201088e+01	5.223392e+02
9.600000e-07	1.799243e-06	9.041999e-09	1.292727e+01	5.902279e+02
9.700000e-07	1.926055e-06	1.003520e-08	1.383840e+01	6.556499e+02
9.800000e-07	2.052176e-06	1.097796e-08	1.474456e+01	7.178928e+02
9.900000e-07	2.177635e-06	1.186372e-08	1.564596e+01	7.764612e+02
1.000000e-06	2.302342e-06	1.268856e-08	1.654196e+01	8.311021e+02
1.010000e-06	2.426246e-06	1.345487e-08	1.743219e+01	8.817928e+02
1.020000e-06	2.549257e-06	1.416638e-08	1.831601e+01	9.286974e+02
1.030000e-06	2.671265e-06	1.482643e-08	1.919262e+01	9.721052e+02
1.040000e-06	2.792211e-06	1.543767e-08	2.006159e+01	1.012364e+03
1.050000e-06	2.912048e-06	1.600641e-08	2.092260e+01	1.049823e+03
1.060000e-06	3.030771e-06	1.653725e-08	2.177561e+01	1.084791e+03
1.070000e-06	3.148426e-06	1.703304e-08	2.262094e+01	1.117517e+03
1.080000e-06	3.264968e-06	1.749605e-08	2.345828e+01	1.148192e+03
1.090000e-06	3.380150e-06	1.793045e-08	2.428584e+01	1.176960e+03
1.100000e-06	3.493892e-06	1.833948e-08	2.510306e+01	1.203942e+03
1.110000e-06	3.606231e-06	1.872221e-08	2.591020e+01	1.229251e+03
1.120000e-06	3.717266e-06	1.908233e-08	2.670797e+01	1.253007e+03
1.130000e-06	3.827170e-06	1.942512e-08	2.749761e+01	1.275341e+03
1.140000e-06	3.935891e-06	1.975052e-08	2.827875e+01	1.296386e+03
1.150000e-06	4.043265e-06	2.005694e-08	2.905022e+01	1.316273e+03
1.160000e-06	4.149146e-06	2.034454e-08	2.981095e+01	1.335115e+03
1.170000e-06	4.253397e-06	2.061603e-08	3.055999e+01	1.353003e+03
1.180000e-06	4.356055e-06	2.087410e-08	3.129757e+01	1.370000e+03
1.190000e-06	4.457259e-06	2.111672e-08	3.202470e+01	1.386149e+03
1.200000e-06	4.556982e-06	2.134785e-08	3.274120e+01	1.401479e+03
1.210000e-06	4.655016e-06	2.156809e-08	3.344555e+01	1.416016e+03
1.220000e-06	4.751266e-06	2.177842e-08	3.413710e+01	1.429790e+03
1.230000e-06	4.845768e-06	2.197849e-08	3.481608e+01	1.442842e+03
1.240000e-06	4.938605e-06	2.216760e-08	3.548310e+01	1.455222e+03
1.250000e-06	5.029769e-06	2.234612e-08	3.613810e+01	1.466988e+03
1.260000e-06	5.119072e-06	2.251506e-08	3.677973e+01	1.478196e+03
1.270000e-06	5.206449e-06	2.267578e-08	3.740751e+01	1.488892e+03
1.280000e-06	5.291954e-06	2.282984e-08	3.802185e+01	1.499113e+03
1.290000e-06	5.375598e-06	2.297880e-08	3.862282e+01	1.508878e+03
1.300000e-06	5.457252e-06	2.312239e-08	3.920949e+01	1.518193e+03
1.310000e-06	5.536874e-06	2.326007e-08	3.978156e+01	1.527056e+03
1.320000e-06	5.614571e-06	2.338940e-08	4.033980e+01	1.535463e+03
1.330000e-06	5.690179e-06	2.351140e-08	4.088304e+01	1.543414e+03
1.340000e-06	5.763482e-06	2.362844e-08	4.140971e+01	1.550915e+03
1.350000e-06	5.834602e-06	2.373785e-08	4.192069e+01	1.557981e+03
1.360000e-06	5.903714e-06	2.383957e-08	4.241725e+01	1.564635e+03
1.370000e-06	5.970730e-06	2.393551e-08	4.289875e+01	1.570904e+03
1.380000e-06	6.035491e-06	2.402645e-08	4.336404e+01	1.576815e+03
1.390000e-06	6.098088e-06	2.411277e-08	4.381380e+01	1.582394e+03
1.400000e-06	6.158760e-06	2.419274e-08	4.424972e+01	1.587664e+03
1.410000e-06	6.217366e-06	2.426741e-08	4.467079e+01	1.592642e+03
1.420000e-06	6.273680e-06	2.433855e-08	4.507540e+01	1.597344e+03
1.430000e-06	6.327724e-06	2.440563e-08	4.546370e+01	1.601784e+03
1.440000e-06	6.379237e-06	2.446831e-08	4.583381e+01	1.605975e+03
1.450000e-06	6.428105e-06	2.452914e-08	4.618492e+01	1.609928e+03
1.460000e-06	6.474600e-06	2.458914e-08	4.651897e+01	1.613654e+03
1.470000e-06	6.518918e-06	2.464479e-08	4.683739e+01	1.617159e+03
1.480000e-06	6.560865e-06	2.469366e-08	4.713878e+01	1.620445e+03
1.490000e-06	6.600317e-06	2.473838e-08	4.742223e+01	1.623510e+03
1.500000e-06	6.637595e-06	2.478242e-08	4.769007e+01	1.626345e+03
1.510000e-06	6.672653e-06	2.482373e-08	4.794196e+01	1.628941e+03
1.520000e-06	6.705209e-06	2.485993e-08	4.817587e+01	1.631291e+03
1.530000e-06	6.735388e-06	2.488978e-08	4.839270e+01	1.633390e+03
1.540000e-06	6.763320e-06	2.491683e-08	4.859338e+01	1.635238e+03
1.550000e-06	6.788742e-06	2.494179e-08	4.877604e+01	1.636842e+03
1.560000e-06	6.811571e-06	2.496298e-08	4.894006e+01	1.638213e+03
1.570000e-06	6.832093e-06	2.498097e-08	4.908751e+01	1.639364e+03
1.580000e-06	6.850254e-06	2.499470e-08	4.921799e+01	1.640311e+03
1.590000e-06	6.865809e-06	2.500556e-08	4.932975e+01	1.641066e+03
1.600000e-06	6.878729e-06	2.501224e-08	4.942258e+01	1.641640e+03
1.610000e-06	6.888912e-06	2.501758e-08	4.949575e+01	1.642040e+03
1.620000e-06	6.896450e-06	2.502358e-08	4.954990e+01	1.642275e+03
1.630000e-06	6.901637e-06	2.502878e-08	4.958717e+01	1.642352e+03
1.640000e-06	6.904420e-06	2.503135e-08	4.960717e+01	1.642278e+03
1.650000e-06	6.904661e-06	2.502890e-08	4.960890e+01	1.642062e+03
1.660000e-06	6.902566e-06	2.501900e-08	4.959384e+01	1.641711e+03
1.670000e-06	6.898280e-06	2.500957e-08	4.956305e+01	1.641227e+03
1.680000e-06	6.891624e-06	2.499736e-08	4.951523e+01	1.640608e+03
1.690000e-06	6.882641e-06	2.498357e-08	4.945068e+01	1.639843e+03
1.700000e-06	6.871404e-06	2.497250e-08	4.936995e+01	1.638919e+03
1.710000e-06	6.857767e-06	2.496191e-08	4.927197e+01	1.637819e+03
1.720000e-06	6.841830e-06	2.495248e-08	4.915746e+01	1.636531e+03
1.730000e-06	6.823839e-06	2.491346e-08	4.902820e+01	1.635053e+03
1.740000e-06	6.803589e-06	2.484230e-08	4.888271e+01	1.633397e+03
1.750000e-06	6.780398e-06	2.483298e-08	4.871609e+01	1.631588e+03
1.760000e-06	6.754036e-06	2.482155e-08	4.852668e+01	1.629665e+03
1.770000e-06	6.724893e-06	2.477945e-08	4.831729e+01	1.627667e+03
1.780000e-06	6.693488e-06	2.480041e-08	4.809165e+01	1.625628e+03
1.790000e-06	6.660381e-06	2.478052e-08	4.785378e+01	1.623567e+03
1.800000e-06	6.625843e-06	2.466124e-08	4.760563e+01	1.621476e+03
1.810000e-06	6.589208e-06	2.469357e-08	4.734242e+01	1.619321e+03
1.820000e-06	6.550079e-06	2.465431e-08	4.706128e+01	1.617046e+03
1.830000e-06	6.508800e-06	2.459973e-08	4.676470e+01	1.614578e+03
1.840000e-06	6.465318e-06	2.465688e-08	4.645229e+01	1.611844e+03
1.850000e-06	6.419531e-06	2.452342e-08	4.612331e+01	1.608786e+03
1.860000e-06	6.371326e-06	2.450255e-08	4.577697e+01	1.605369e+03
1.870000e-06	6.320666e-06	2.445963e-08	4.541299e+01	1.601592e+03
1.880000e-06	6.267546e-06	2.433756e-08	4.503132e+01	1.597483e+03
1.890000e-06	6.211818e-06	2.433115e-08	4.463093e+01	1.593091e+03
1.900000e-06	6.153702e-06	2.421632e-08	4.421337e+01	1.588475e+03
1.910000e-06	6.093321e-06	2.416199e-08	4.377954e+01	1.583686e+03
1.920000e-06	6.030529e-06	2.411631e-08	4.332840e+01	1.578755e+03
1.930000e-06	5.965510e-06	2.402037e-08	4.286125e+01	1.573685e+03
1.940000e-06	5.898389e-06	2.396585e-08	4.237899e+01	1.568451e+03
1.950000e-06	5.829041e-06	2.382969e-08	4.188074e+01	1.563005e+03
1.960000e-06	5.757364e-06	2.376554e-08	4.136575e+01	1.557291e+03
1.970000e-06	5.683482e-06	2.365210e-08	4.083492e+01	1.551259e+03
1.980000e-06	5.607410e-06	2.355614e-08	4.028835e+01	1.544876e+03
1.990000e-06	5.528968e-06	2.348929e-08	3.972476e+01	1.538129e+03
2.000000e-06	5.448445e-06	2.336186e-08	3.914622e+01	1.531032e+03
2.010000e-06	5.366120e-06	2.326895e-08	3.855472e+01	1.523611e+03
2.020000e-06	5.281945e-06	2.312560e-08	3.794994e+01	1.515898e+03
2.030000e-06	5.195804e-06	2.301307e-08	3.733103e+01	1.507916e+03
2.040000e-06	5.107691e-06	2.289317e-08	3.669795e+01	1.499669e+03
2.050000e-06	5.017853e-06	2.276294e-08	3.605248e+01	1.491139e+03
2.060000e-06	4.926402e-06	2.262718e-08	3.539542e+01	1.482288e+03
2.070000e-06	4.833232e-06	2.247211e-08	3.472601e+01	1.473066e+03
2.080000e-06	4.738240e-06	2.233152e-08	3.404351e+01	1.463425e+03
2.090000e-06	4.641549e-06	2.217073e-08	3.334880e+01	1.453327e+03
2.100000e-06	4.543336e-06	2.202218e-08	3.264315e+01	1.442752e+03
2.110000e-06	4.443616e-06	2.185826e-08	3.192668e+01	1.431699e+03
2.120000e-06	4.342319e-06	2.168645e-08	3.119887e+01	1.420181e+03
2.130000e-06	4.239403e-06	2.149731e-08	3.045944e+01	1.408213e+03
2.140000e-06	4.134900e-06	2.130341e-08	2.970861e+01	1.395801e+03
2.150000e-06	4.028879e-06	2.111249e-08	2.894686e+01	1.382935e+03
2.160000e-06	3.921529e-06	2.091057e-08	2.817557e+01	1.369579e+03
2.170000e-06	3.812792e-06	2.070418e-08	2.739431e+01	1.355677e+03
2.180000e-06	3.702619e-06	2.048427e-08	2.660273e+01	1.341162e+03
2.190000e-06	3.590986e-06	2.025672e-08	2.580067e+01	1.325962e+03
2.200000e-06	3.477958e-06	2.000998e-08	2.498858e+01	1.310020e+03
2.210000e-06	3.363617e-06	1.975642e-08	2.416706e+01	1.293294e+03
2.220000e-06	3.247863e-06	1.949118e-08	2.333538e+01	1.275759e+03
2.230000e-06	3.130707e-06	1.921449e-08	2.249363e+01	1.257406e+03
2.240000e-06	3.012261e-06	1.892292e-08	2.164262e+01	1.238223e+03
2.250000e-06	2.892578e-06	1.861983e-08	2.078272e+01	1.218187e+03
2.260000e-06	2.771744e-06	1.830129e-08	1.991454e+01	1.197246e+03
2.270000e-06	2.649994e-06	1.796562e-08	1.903979e+01	1.175321e+03
2.280000e-06	2.527322e-06	1.761521e-08	1.815841e+01	1.152298e+03
2.290000e-06	2.403782e-06	1.724548e-08	1.727080e+01	1.128045e+03
2.300000e-06	2.279442e-06	1.685681e-08	1.637743e+01	1.102424e+03
2.310000e-06	2.154231e-06	1.644396e-08	1.547781e+01	1.075299e+03
2.320000e-06	2.028213e-06	1.600757e-08	1.457239e+01	1.046551e+03
2.330000e-06	1.901520e-06	1.554165e-08	1.366212e+01	1.016072e+03
2.340000e-06	1.774193e-06	1.504693e-08	1.274730e+01	9.837632e+02
2.350000e-06	1.646229e-06	1.452325e-08	1.182790e+01	9.495160e+02
2.360000e-06	1.517654e-06	1.396885e-08	1.090411e+01	9.132006e+02
2.370000e-06	1.388570e-06	1.338158e-08	9.976653e+00	8.746580e+02
2.380000e-06	1.259066e-06	1.275821e-08	9.046191e+00	8.337042e+02
2.390000e-06	1.129229e-06	1.209401e-08	8.113331e+00	7.901507e+02
2.400000e-06	9.990996e-07	1.138451e-08	7.178373e+00	7.438389e+02
2.410000e-06	8.686542e-07	1.063295e-08	6.241143e+00	6.946826e+02
2.420000e-06	7.379422e-07	9.841700e-09	5.301998e+00	6.427099e+02
2.430000e-06	6.069853e-07	9.012006e-09	4.361093e+00	5.880924e+02
2.440000e-06	4.758450e-07	8.145762e-09	3.418871e+00	5.311515e+02
2.450000e-06	3.445709e-07	7.248254e-09	2.475687e+00	4.723360e+02
2.460000e-06	2.131358e-07	6.329502e-09	1.531347e+00	4.121717e+02
2.470000e-06	8.158433e-08	5.397075e-09	5.861705e-01	3.511883e+02
2.480000e-06	-5.003891e-08	4.458202e-09	-3.595217e-01	2.898384e+02
2.490000e-06	-1.816668e-07	3.517828e-09	-1.305247e+00	2.284238e+02
2.500000e-06	-3.131956e-07	2.579544e-09	-2.250261e+00	1.670465e+02
2.510000e-06	-4.446165e-07	1.642046e-09	-3.194499e+00	1.055961e+02
2.520000e-06	-5.759424e-07	6.980201e-10	-4.138055e+00	4.378035e+01
2.530000e-06	-7.070818e-07	-2.583927e-10	-5.080271e+00	-1.880594e+01
2.540000e-06	-8.379482e-07	-1.231592e-09	-6.020525e+00	-8.258325e+01
2.550000e-06	-9.685473e-07	-2.225292e-09	-6.958859e+00	-1.478807e+02
2.560000e-06	-1.098880e-06	-3.243538e-09	-7.895277e+00	-2.148397e+02
2.570000e-06	-1.228895e-06	-4.288675e-09	-8.829415e+00	-2.833476e+02
2.580000e-06	-1.358540e-06	-5.354022e-09	-9.760895e+00	-3.530141e+02
2.590000e-06	-1.487725e-06	-6.427391e-09	-1.068907e+01	-4.231952e+02
2.600000e-06	-1.616379e-06	-7.497510e-09	-1.161343e+01	-4.930596e+02
2.610000e-06	-1.744452e-06	-8.549220e-09	-1.253361e+01	-5.616862e+02
2.620000e-06	-1.871888e-06	-9.568004e-09	-1.344922e+01	-6.281729e+02
2.630000e-06	-1.998619e-06	-1.054058e-08	-1.435976e+01	-6.917372e+02
2.640000e-06	-2.124532e-06	-1.145696e-08	-1.526443e+01	-7.517933e+02
2.650000e-06	-2.249607e-06	-1.231568e-08	-1.616307e+01	-8.079922e+02
2.660000e-06	-2.373786e-06	-1.311554e-08	-1.705528e+01	-8.602247e+02
2.670000e-06	-2.497017e-06	-1.385679e-08	-1.794067e+01	-9.085880e+02
2.680000e-06	-2.619321e-06	-1.454598e-08	-1.881941e+01	-9.533303e+02
2.690000e-06	-2.740676e-06	-1.518697e-08	-1.969132e+01	-9.947840e+02
2.700000e-06	-2.861054e-06	-1.578219e-08	-2.055622e+01	-1.033304e+03
2.710000e-06	-2.980337e-06	-1.633634e-08	-2.141325e+01	-1.069217e+03
2.720000e-06	-3.098411e-06	-1.685327e-08	-2.226159e+01	-1.102798e+03
2.730000e-06	-3.215284e-06	-1.733382e-08	-2.310131e+01	-1.134260e+03
2.740000e-06	-3.330819e-06	-1.778268e-08	-2.393141e+01	-1.163763e+03
2.750000e-06	-3.444936e-06	-1.820267e-08	-2.475132e+01	-1.191433e+03
2.760000e-06	-3.557701e-06	-1.859511e-08	-2.556152e+01	-1.217386e+03
2.770000e-06	-3.669105e-06	-1.896723e-08	-2.636194e+01	-1.241738e+03
2.780000e-06	-3.779138e-06	-1.932160e-08	-2.715251e+01	-1.264615e+03
2.790000e-06	-3.887869e-06	-1.965513e-08	-2.793372e+01	-1.286150e+03
2.800000e-06	-3.995357e-06	-1.996551e-08	-2.870600e+01	-1.306478e+03
2.810000e-06	-4.101567e-06	-2.025789e-08	-2.946911e+01	-1.325719e+03
2.820000e-06	-4.206365e-06	-2.053668e-08	-3.022206e+01	-1.343973e+03
2.830000e-06	-4.309576e-06	-2.080178e-08	-3.096362e+01	-1.361314e+03
2.840000e-06	-4.411136e-06	-2.105322e-08	-3.169331e+01	-1.377792e+03
2.850000e-06	-4.511101e-06	-2.129116e-08	-3.241155e+01	-1.393442e+03
2.860000e-06	-4.609561e-06	-2.151658e-08	-3.311897e+01	-1.408287e+03
2.870000e-06	-4.706511e-06	-2.172872e-08	-3.381554e+01	-1.422357e+03
2.880000e-06	-4.801764e-06	-2.193091e-08	-3.449992e+01	-1.435688e+03
2.890000e-06	-4.895164e-06	-2.212644e-08	-3.517098e+01	-1.448326e+03
2.900000e-06	-4.986774e-06	-2.231427e-08	-3.582918e+01	-1.460326e+03
2.910000e-06	-5.076670e-06	-2.249389e-08	-3.647507e+01	-1.471747e+03
2.920000e-06	-5.164753e-06	-2.266284e-08	-3.710793e+01	-1.482640e+03
2.930000e-06	-5.250837e-06	-2.282058e-08	-3.772643e+01	-1.493045e+03
2.940000e-06	-5.334980e-06	-2.296748e-08	-3.833099e+01	-1.502988e+03
