# Temperatura_=_83.35
# Concentracion g/m^3_=_28200.0
# C_Vs_to_Am_M_A/Vsm_=_65563218390.804596
# pendiente_HvsI_1/m_=_3716.3
# ordenada_HvsI_A/m_=_1297.0
# frecuencia_Hz_=_302301.7478416018

Tiempo_(s)	Campo_(V.s)	Magnetizacion_(V.s)	Campo_(kA/m)	Magnetizacion_(A/m)
0.000000e+00	-6.878640e-06	-2.799784e-08	-4.952011e+01	-1.833887e+03
1.000000e-08	-6.875988e-06	-2.799024e-08	-4.950101e+01	-1.833412e+03
2.000000e-08	-6.871023e-06	-2.797970e-08	-4.946527e+01	-1.832748e+03
3.000000e-08	-6.863964e-06	-2.796705e-08	-4.941445e+01	-1.831901e+03
4.000000e-08	-6.854634e-06	-2.795506e-08	-4.934728e+01	-1.830872e+03
5.000000e-08	-6.842840e-06	-2.793927e-08	-4.926238e+01	-1.829657e+03
6.000000e-08	-6.828503e-06	-2.791990e-08	-4.915916e+01	-1.828247e+03
7.000000e-08	-6.811729e-06	-2.789175e-08	-4.903841e+01	-1.826635e+03
8.000000e-08	-6.792852e-06	-2.785476e-08	-4.890250e+01	-1.824818e+03
9.000000e-08	-6.771796e-06	-2.786024e-08	-4.875092e+01	-1.822805e+03
1.000000e-07	-6.748173e-06	-2.786421e-08	-4.858086e+01	-1.820618e+03
1.100000e-07	-6.721775e-06	-2.779234e-08	-4.839081e+01	-1.818292e+03
1.200000e-07	-6.692759e-06	-2.772366e-08	-4.818192e+01	-1.815867e+03
1.300000e-07	-6.661514e-06	-2.768661e-08	-4.795699e+01	-1.813379e+03
1.400000e-07	-6.628150e-06	-2.761213e-08	-4.771680e+01	-1.810846e+03
1.500000e-07	-6.592859e-06	-2.753849e-08	-4.746273e+01	-1.808261e+03
1.600000e-07	-6.555777e-06	-2.759709e-08	-4.719578e+01	-1.805586e+03
1.700000e-07	-6.516670e-06	-2.752782e-08	-4.691424e+01	-1.802759e+03
1.800000e-07	-6.475349e-06	-2.741880e-08	-4.661676e+01	-1.799698e+03
1.900000e-07	-6.431585e-06	-2.743119e-08	-4.630170e+01	-1.796324e+03
2.000000e-07	-6.385361e-06	-2.728852e-08	-4.596893e+01	-1.792572e+03
2.100000e-07	-6.336714e-06	-2.720884e-08	-4.561871e+01	-1.788408e+03
2.200000e-07	-6.285362e-06	-2.717726e-08	-4.524903e+01	-1.783833e+03
2.300000e-07	-6.231376e-06	-2.708950e-08	-4.486037e+01	-1.778885e+03
2.400000e-07	-6.175047e-06	-2.705310e-08	-4.445486e+01	-1.773624e+03
2.500000e-07	-6.116349e-06	-2.696085e-08	-4.403228e+01	-1.768116e+03
2.600000e-07	-6.055382e-06	-2.686448e-08	-4.359338e+01	-1.762414e+03
2.700000e-07	-5.992262e-06	-2.677328e-08	-4.313897e+01	-1.756546e+03
2.800000e-07	-5.926923e-06	-2.666946e-08	-4.266859e+01	-1.750503e+03
2.900000e-07	-5.859350e-06	-2.657608e-08	-4.218212e+01	-1.744245e+03
3.000000e-07	-5.789555e-06	-2.647390e-08	-4.167966e+01	-1.737711e+03
3.100000e-07	-5.717648e-06	-2.638766e-08	-4.116199e+01	-1.730835e+03
3.200000e-07	-5.643571e-06	-2.625864e-08	-4.062871e+01	-1.723564e+03
3.300000e-07	-5.567148e-06	-2.613599e-08	-4.007852e+01	-1.715875e+03
3.400000e-07	-5.488378e-06	-2.601625e-08	-3.951145e+01	-1.707772e+03
3.500000e-07	-5.407473e-06	-2.588260e-08	-3.892901e+01	-1.699292e+03
3.600000e-07	-5.324686e-06	-2.577117e-08	-3.833301e+01	-1.690481e+03
3.700000e-07	-5.240137e-06	-2.562992e-08	-3.772434e+01	-1.681385e+03
3.800000e-07	-5.153857e-06	-2.547960e-08	-3.710320e+01	-1.672030e+03
3.900000e-07	-5.065842e-06	-2.532586e-08	-3.646957e+01	-1.662411e+03
4.000000e-07	-4.976049e-06	-2.516814e-08	-3.582314e+01	-1.652487e+03
4.100000e-07	-4.884449e-06	-2.500644e-08	-3.516370e+01	-1.642196e+03
4.200000e-07	-4.791198e-06	-2.484562e-08	-3.449237e+01	-1.631462e+03
4.300000e-07	-4.696374e-06	-2.468486e-08	-3.380973e+01	-1.620220e+03
4.400000e-07	-4.599847e-06	-2.450327e-08	-3.311481e+01	-1.608426e+03
4.500000e-07	-4.501554e-06	-2.431216e-08	-3.240719e+01	-1.596067e+03
4.600000e-07	-4.401593e-06	-2.411705e-08	-3.168756e+01	-1.583161e+03
4.700000e-07	-4.300091e-06	-2.391499e-08	-3.095684e+01	-1.569744e+03
4.800000e-07	-4.197155e-06	-2.370386e-08	-3.021579e+01	-1.555852e+03
4.900000e-07	-4.092760e-06	-2.348345e-08	-2.946424e+01	-1.541504e+03
5.000000e-07	-3.986818e-06	-2.325591e-08	-2.870155e+01	-1.526689e+03
5.100000e-07	-3.879343e-06	-2.301834e-08	-2.792783e+01	-1.511359e+03
5.200000e-07	-3.770489e-06	-2.277141e-08	-2.714417e+01	-1.495436e+03
5.300000e-07	-3.660311e-06	-2.251478e-08	-2.635099e+01	-1.478826e+03
5.400000e-07	-3.548751e-06	-2.224677e-08	-2.554786e+01	-1.461436e+03
5.500000e-07	-3.435785e-06	-2.196772e-08	-2.473460e+01	-1.443198e+03
5.600000e-07	-3.321409e-06	-2.167732e-08	-2.391120e+01	-1.424068e+03
5.700000e-07	-3.205643e-06	-2.137261e-08	-2.307779e+01	-1.404036e+03
5.800000e-07	-3.088503e-06	-2.105084e-08	-2.223448e+01	-1.383108e+03
5.900000e-07	-2.970171e-06	-2.071578e-08	-2.138259e+01	-1.361290e+03
6.000000e-07	-2.850785e-06	-2.037119e-08	-2.052312e+01	-1.338567e+03
6.100000e-07	-2.730313e-06	-2.001150e-08	-1.965583e+01	-1.314885e+03
6.200000e-07	-2.608867e-06	-1.963227e-08	-1.878153e+01	-1.290142e+03
6.300000e-07	-2.486474e-06	-1.923191e-08	-1.790040e+01	-1.264199e+03
6.400000e-07	-2.363074e-06	-1.881088e-08	-1.701203e+01	-1.236889e+03
6.500000e-07	-2.238771e-06	-1.836771e-08	-1.611716e+01	-1.208041e+03
6.600000e-07	-2.113751e-06	-1.790051e-08	-1.521713e+01	-1.177500e+03
6.700000e-07	-1.988094e-06	-1.740814e-08	-1.431252e+01	-1.145136e+03
6.800000e-07	-1.861727e-06	-1.688938e-08	-1.340278e+01	-1.110845e+03
6.900000e-07	-1.734692e-06	-1.634115e-08	-1.248824e+01	-1.074535e+03
7.000000e-07	-1.607093e-06	-1.575708e-08	-1.156964e+01	-1.036102e+03
7.100000e-07	-1.478950e-06	-1.513466e-08	-1.064713e+01	-9.954110e+02
7.200000e-07	-1.350269e-06	-1.447294e-08	-9.720739e+00	-9.522801e+02
7.300000e-07	-1.221148e-06	-1.377070e-08	-8.791182e+00	-9.064876e+02
7.400000e-07	-1.091662e-06	-1.302446e-08	-7.859000e+00	-8.577968e+02
7.500000e-07	-9.618580e-07	-1.223272e-08	-6.924524e+00	-8.060021e+02
7.600000e-07	-8.317585e-07	-1.139344e-08	-5.987923e+00	-7.509834e+02
7.700000e-07	-7.013716e-07	-1.050687e-08	-5.049253e+00	-6.927594e+02
7.800000e-07	-5.707517e-07	-9.575006e-09	-4.108906e+00	-6.315217e+02
7.900000e-07	-4.399132e-07	-8.603467e-09	-3.166984e+00	-5.676385e+02
8.000000e-07	-3.088889e-07	-7.599575e-09	-2.223726e+00	-5.016219e+02
8.100000e-07	-1.776675e-07	-6.571112e-09	-1.279048e+00	-4.340597e+02
8.200000e-07	-4.630851e-08	-5.526877e-09	-3.333802e-01	-3.655238e+02
8.300000e-07	8.505057e-08	-4.472666e-09	6.122886e-01	-2.964735e+02
8.400000e-07	2.163669e-07	-3.414984e-09	1.557650e+00	-2.271748e+02
8.500000e-07	3.476376e-07	-2.355069e-09	2.502682e+00	-1.576555e+02
8.600000e-07	4.788119e-07	-1.290742e-09	3.447020e+00	-8.770995e+01
8.700000e-07	6.097825e-07	-2.160947e-10	4.389893e+00	-1.695592e+01
8.800000e-07	7.405416e-07	8.786084e-10	5.331242e+00	5.506506e+01
8.900000e-07	8.710354e-07	1.999949e-09	6.270682e+00	1.287623e+02
9.000000e-07	1.001199e-06	3.151433e-09	7.207744e+00	2.043707e+02
9.100000e-07	1.131069e-06	4.333096e-09	8.142696e+00	2.818512e+02
9.200000e-07	1.260594e-06	5.540363e-09	9.075155e+00	3.608390e+02
9.300000e-07	1.389682e-06	6.760463e-09	1.000448e+01	4.406490e+02
9.400000e-07	1.518280e-06	7.977226e-09	1.093027e+01	5.203405e+02
9.500000e-07	1.646289e-06	9.173870e-09	1.185182e+01	5.988268e+02
9.600000e-07	1.773639e-06	1.033418e-08	1.276862e+01	6.750088e+02
9.700000e-07	1.900331e-06	1.144056e-08	1.368070e+01	7.479075e+02
9.800000e-07	2.026337e-06	1.248051e-08	1.458783e+01	8.167705e+02
9.900000e-07	2.151685e-06	1.345188e-08	1.549022e+01	8.811363e+02
1.000000e-06	2.276358e-06	1.435386e-08	1.638776e+01	9.408465e+02
1.010000e-06	2.400194e-06	1.518875e-08	1.727926e+01	9.960113e+02
1.020000e-06	2.523076e-06	1.596412e-08	1.816391e+01	1.046940e+03
1.030000e-06	2.645002e-06	1.668219e-08	1.904167e+01	1.094052e+03
1.040000e-06	2.765887e-06	1.734703e-08	1.991193e+01	1.137794e+03
1.050000e-06	2.885614e-06	1.796631e-08	2.077386e+01	1.178572e+03
1.060000e-06	3.004262e-06	1.854438e-08	2.162802e+01	1.216714e+03
1.070000e-06	3.121887e-06	1.908640e-08	2.247482e+01	1.252459e+03
1.080000e-06	3.238410e-06	1.959424e-08	2.331368e+01	1.285973e+03
1.090000e-06	3.353636e-06	2.006843e-08	2.414321e+01	1.317380e+03
1.100000e-06	3.467444e-06	2.051274e-08	2.496252e+01	1.346794e+03
1.110000e-06	3.579839e-06	2.092941e-08	2.577166e+01	1.374344e+03
1.120000e-06	3.690896e-06	2.132173e-08	2.657118e+01	1.400181e+03
1.130000e-06	3.800731e-06	2.169353e-08	2.736189e+01	1.424481e+03
1.140000e-06	3.909366e-06	2.204466e-08	2.814396e+01	1.447423e+03
1.150000e-06	4.016764e-06	2.237827e-08	2.891714e+01	1.469172e+03
1.160000e-06	4.122738e-06	2.269629e-08	2.968006e+01	1.489861e+03
1.170000e-06	4.227088e-06	2.299897e-08	3.043128e+01	1.509579e+03
1.180000e-06	4.329868e-06	2.328520e-08	3.117120e+01	1.528375e+03
1.190000e-06	4.431198e-06	2.355442e-08	3.190069e+01	1.546270e+03
1.200000e-06	4.531053e-06	2.380786e-08	3.261956e+01	1.563269e+03
1.210000e-06	4.629246e-06	2.404837e-08	3.332646e+01	1.579380e+03
1.220000e-06	4.725610e-06	2.427850e-08	3.402019e+01	1.594632e+03
1.230000e-06	4.820194e-06	2.450076e-08	3.470112e+01	1.609073e+03
1.240000e-06	4.913152e-06	2.471346e-08	3.537033e+01	1.622773e+03
1.250000e-06	5.004472e-06	2.491431e-08	3.602776e+01	1.635808e+03
1.260000e-06	5.093882e-06	2.510392e-08	3.667143e+01	1.648254e+03
1.270000e-06	5.181329e-06	2.528200e-08	3.730097e+01	1.660170e+03
1.280000e-06	5.266961e-06	2.545292e-08	3.791744e+01	1.671593e+03
1.290000e-06	5.350881e-06	2.561747e-08	3.852159e+01	1.682538e+03
1.300000e-06	5.432926e-06	2.577513e-08	3.911225e+01	1.693003e+03
1.310000e-06	5.512825e-06	2.592599e-08	3.968745e+01	1.702981e+03
1.320000e-06	5.590681e-06	2.607117e-08	4.024794e+01	1.712465e+03
1.330000e-06	5.666477e-06	2.621049e-08	4.079361e+01	1.721459e+03
1.340000e-06	5.739985e-06	2.634408e-08	4.132280e+01	1.729981e+03
1.350000e-06	5.811328e-06	2.647222e-08	4.183641e+01	1.738056e+03
1.360000e-06	5.880673e-06	2.659307e-08	4.233563e+01	1.745717e+03
1.370000e-06	5.947940e-06	2.670658e-08	4.281989e+01	1.752990e+03
1.380000e-06	6.012953e-06	2.681252e-08	4.328793e+01	1.759896e+03
1.390000e-06	6.075776e-06	2.691114e-08	4.374019e+01	1.766444e+03
1.400000e-06	6.136635e-06	2.700245e-08	4.417832e+01	1.772631e+03
1.410000e-06	6.195439e-06	2.708883e-08	4.460167e+01	1.778456e+03
1.420000e-06	6.251994e-06	2.717115e-08	4.500881e+01	1.783917e+03
1.430000e-06	6.306275e-06	2.724909e-08	4.539958e+01	1.789024e+03
1.440000e-06	6.358149e-06	2.732428e-08	4.577303e+01	1.793798e+03
1.450000e-06	6.407321e-06	2.739622e-08	4.612702e+01	1.798270e+03
1.460000e-06	6.453990e-06	2.746291e-08	4.646300e+01	1.802478e+03
1.470000e-06	6.498563e-06	2.752391e-08	4.678389e+01	1.806453e+03
1.480000e-06	6.540924e-06	2.758061e-08	4.708885e+01	1.810218e+03
1.490000e-06	6.580796e-06	2.763364e-08	4.737589e+01	1.813779e+03
1.500000e-06	6.618340e-06	2.768252e-08	4.764617e+01	1.817124e+03
1.510000e-06	6.653690e-06	2.772901e-08	4.790066e+01	1.820230e+03
1.520000e-06	6.686615e-06	2.777342e-08	4.813769e+01	1.823068e+03
1.530000e-06	6.717134e-06	2.781329e-08	4.835740e+01	1.825611e+03
1.540000e-06	6.745445e-06	2.784709e-08	4.856122e+01	1.827844e+03
1.550000e-06	6.771283e-06	2.787595e-08	4.874723e+01	1.829767e+03
1.560000e-06	6.794443e-06	2.790272e-08	4.891396e+01	1.831395e+03
1.570000e-06	6.815220e-06	2.792566e-08	4.906353e+01	1.832756e+03
1.580000e-06	6.833678e-06	2.794239e-08	4.919642e+01	1.833880e+03
1.590000e-06	6.849607e-06	2.795460e-08	4.931109e+01	1.834797e+03
1.600000e-06	6.862979e-06	2.796297e-08	4.940735e+01	1.835527e+03
1.610000e-06	6.873652e-06	2.796944e-08	4.948419e+01	1.836078e+03
1.620000e-06	6.881619e-06	2.797717e-08	4.954155e+01	1.836450e+03
1.630000e-06	6.887152e-06	2.798510e-08	4.958138e+01	1.836637e+03
1.640000e-06	6.890300e-06	2.798967e-08	4.960404e+01	1.836632e+03
1.650000e-06	6.890974e-06	2.798946e-08	4.960890e+01	1.836429e+03
1.660000e-06	6.889283e-06	2.798108e-08	4.959673e+01	1.836030e+03
1.670000e-06	6.885433e-06	2.796519e-08	4.956901e+01	1.835439e+03
1.680000e-06	6.879253e-06	2.795237e-08	4.952451e+01	1.834663e+03
1.690000e-06	6.870702e-06	2.793878e-08	4.946295e+01	1.833705e+03
1.700000e-06	6.859941e-06	2.792365e-08	4.938549e+01	1.832563e+03
1.710000e-06	6.846784e-06	2.790779e-08	4.929077e+01	1.831231e+03
1.720000e-06	6.831219e-06	2.789337e-08	4.917871e+01	1.829699e+03
1.730000e-06	6.813581e-06	2.787399e-08	4.905174e+01	1.827962e+03
1.740000e-06	6.793838e-06	2.778498e-08	4.890960e+01	1.826023e+03
1.750000e-06	6.771246e-06	2.772664e-08	4.874696e+01	1.823901e+03
1.760000e-06	6.745331e-06	2.774010e-08	4.856040e+01	1.821624e+03
1.770000e-06	6.716570e-06	2.771053e-08	4.835334e+01	1.819233e+03
1.780000e-06	6.685536e-06	2.767720e-08	4.812993e+01	1.816766e+03
1.790000e-06	6.652688e-06	2.771105e-08	4.789345e+01	1.814249e+03
1.800000e-06	6.618479e-06	2.760163e-08	4.764717e+01	1.811687e+03
1.810000e-06	6.582408e-06	2.752117e-08	4.738750e+01	1.809054e+03
1.820000e-06	6.543765e-06	2.758498e-08	4.710930e+01	1.806295e+03
1.830000e-06	6.502883e-06	2.746506e-08	4.681498e+01	1.803335e+03
1.840000e-06	6.459813e-06	2.749964e-08	4.650492e+01	1.800093e+03
1.850000e-06	6.414304e-06	2.748976e-08	4.617729e+01	1.796495e+03
1.860000e-06	6.366500e-06	2.732902e-08	4.583315e+01	1.792494e+03
1.870000e-06	6.316377e-06	2.733022e-08	4.547231e+01	1.788077e+03
1.880000e-06	6.263916e-06	2.717339e-08	4.509464e+01	1.783270e+03
1.890000e-06	6.208882e-06	2.710965e-08	4.469844e+01	1.778123e+03
1.900000e-06	6.151286e-06	2.708096e-08	4.428380e+01	1.772704e+03
1.910000e-06	6.091433e-06	2.694872e-08	4.385291e+01	1.767073e+03
1.920000e-06	6.029155e-06	2.693238e-08	4.340456e+01	1.761269e+03
1.930000e-06	5.964651e-06	2.680096e-08	4.294019e+01	1.755297e+03
1.940000e-06	5.898058e-06	2.671142e-08	4.246079e+01	1.749130e+03
1.950000e-06	5.829227e-06	2.659593e-08	4.196526e+01	1.742712e+03
1.960000e-06	5.758107e-06	2.646297e-08	4.145326e+01	1.735977e+03
1.970000e-06	5.684698e-06	2.640807e-08	4.092478e+01	1.728866e+03
1.980000e-06	5.609142e-06	2.625559e-08	4.038085e+01	1.721342e+03
1.990000e-06	5.531248e-06	2.616980e-08	3.982008e+01	1.713398e+03
2.000000e-06	5.451173e-06	2.602849e-08	3.924361e+01	1.705060e+03
2.010000e-06	5.369283e-06	2.589173e-08	3.865407e+01	1.696373e+03
2.020000e-06	5.285582e-06	2.577219e-08	3.805150e+01	1.687384e+03
2.030000e-06	5.199943e-06	2.560963e-08	3.743497e+01	1.678130e+03
2.040000e-06	5.112285e-06	2.549254e-08	3.680391e+01	1.668617e+03
2.050000e-06	5.022858e-06	2.533069e-08	3.616012e+01	1.658818e+03
2.060000e-06	4.931799e-06	2.518178e-08	3.550458e+01	1.648680e+03
2.070000e-06	4.839137e-06	2.500267e-08	3.483749e+01	1.638129e+03
2.080000e-06	4.744727e-06	2.483055e-08	3.415782e+01	1.627093e+03
2.090000e-06	4.648508e-06	2.466064e-08	3.346513e+01	1.615518e+03
2.100000e-06	4.550745e-06	2.447546e-08	3.276132e+01	1.603380e+03
2.110000e-06	4.451475e-06	2.429777e-08	3.204667e+01	1.590685e+03
2.120000e-06	4.350716e-06	2.409354e-08	3.132129e+01	1.577463e+03
2.130000e-06	4.248327e-06	2.388536e-08	3.058418e+01	1.563754e+03
2.140000e-06	4.144199e-06	2.365649e-08	2.983455e+01	1.549584e+03
2.150000e-06	4.038572e-06	2.343362e-08	2.907413e+01	1.534956e+03
2.160000e-06	3.931634e-06	2.320284e-08	2.830428e+01	1.519836e+03
2.170000e-06	3.823362e-06	2.296923e-08	2.752482e+01	1.504157e+03
2.180000e-06	3.713709e-06	2.272444e-08	2.673541e+01	1.487827e+03
2.190000e-06	3.602603e-06	2.246566e-08	2.593555e+01	1.470753e+03
2.200000e-06	3.490059e-06	2.219450e-08	2.512533e+01	1.452855e+03
2.210000e-06	3.376112e-06	2.190781e-08	2.430501e+01	1.434077e+03
2.220000e-06	3.260760e-06	2.161355e-08	2.347457e+01	1.414399e+03
2.230000e-06	3.144131e-06	2.130251e-08	2.263495e+01	1.393821e+03
2.240000e-06	3.026251e-06	2.097768e-08	2.178632e+01	1.372353e+03
2.250000e-06	2.907111e-06	2.063273e-08	2.092862e+01	1.349990e+03
2.260000e-06	2.786811e-06	2.027483e-08	2.006257e+01	1.326693e+03
2.270000e-06	2.665481e-06	1.990061e-08	1.918910e+01	1.302381e+03
2.280000e-06	2.543209e-06	1.951383e-08	1.830885e+01	1.276928e+03
2.290000e-06	2.420057e-06	1.911065e-08	1.742227e+01	1.250175e+03
2.300000e-06	2.296035e-06	1.868500e-08	1.652941e+01	1.221951e+03
2.310000e-06	2.171195e-06	1.822854e-08	1.563067e+01	1.192092e+03
2.320000e-06	2.045683e-06	1.774213e-08	1.472710e+01	1.160457e+03
2.330000e-06	1.919497e-06	1.723012e-08	1.381867e+01	1.126934e+03
2.340000e-06	1.792601e-06	1.669009e-08	1.290513e+01	1.091428e+03
2.350000e-06	1.664966e-06	1.612039e-08	1.198628e+01	1.053843e+03
2.360000e-06	1.536674e-06	1.551508e-08	1.106269e+01	1.014057e+03
2.370000e-06	1.407881e-06	1.487257e-08	1.013549e+01	9.719093e+02
2.380000e-06	1.278691e-06	1.418728e-08	9.205439e+00	9.271902e+02
2.390000e-06	1.149173e-06	1.345855e-08	8.273025e+00	8.796651e+02
2.400000e-06	1.019335e-06	1.268519e-08	7.338310e+00	8.291097e+02
2.410000e-06	8.891368e-07	1.186576e-08	6.400996e+00	7.753636e+02
2.420000e-06	7.586133e-07	1.100039e-08	5.461343e+00	7.183856e+02
2.430000e-06	6.279391e-07	1.008757e-08	4.520605e+00	6.582970e+02
2.440000e-06	4.971000e-07	9.130792e-09	3.578679e+00	5.953985e+02
2.450000e-06	3.660470e-07	8.136480e-09	2.635214e+00	5.301518e+02
2.460000e-06	2.348330e-07	7.112968e-09	1.690589e+00	4.631252e+02
2.470000e-06	1.035165e-07	6.069578e-09	7.452271e-01	3.949083e+02
2.480000e-06	-2.783663e-08	5.013611e-09	-2.003990e-01	3.260159e+02
2.490000e-06	-1.591571e-07	3.951238e-09	-1.145790e+00	2.567974e+02
2.500000e-06	-2.904304e-07	2.884923e-09	-2.090841e+00	1.873767e+02
2.510000e-06	-4.216836e-07	1.815751e-09	-3.035748e+00	1.176358e+02
2.520000e-06	-5.528435e-07	7.407004e-10	-3.979982e+00	4.725211e+01
2.530000e-06	-6.838034e-07	-3.482863e-10	-4.922777e+00	-2.421708e+01
2.540000e-06	-8.145373e-07	-1.458151e-09	-5.863945e+00	-9.721590e+01
2.550000e-06	-9.449879e-07	-2.596093e-09	-6.803074e+00	-1.720616e+02
2.560000e-06	-1.075138e-06	-3.763891e-09	-7.740038e+00	-2.488320e+02
2.570000e-06	-1.204936e-06	-4.959127e-09	-8.674469e+00	-3.272929e+02
2.580000e-06	-1.334361e-06	-6.175814e-09	-9.606215e+00	-4.068803e+02
2.590000e-06	-1.463424e-06	-7.400104e-09	-1.053535e+01	-4.867431e+02
2.600000e-06	-1.592007e-06	-8.613293e-09	-1.146104e+01	-5.658368e+02
2.610000e-06	-1.719967e-06	-9.796945e-09	-1.238223e+01	-6.430506e+02
2.620000e-06	-1.847204e-06	-1.093471e-08	-1.329823e+01	-7.173437e+02
2.630000e-06	-1.973722e-06	-1.201286e-08	-1.420904e+01	-7.878646e+02
2.640000e-06	-2.099538e-06	-1.302338e-08	-1.511481e+01	-8.540329e+02
2.650000e-06	-2.224567e-06	-1.396362e-08	-1.601491e+01	-9.155729e+02
2.660000e-06	-2.348643e-06	-1.483439e-08	-1.690814e+01	-9.724961e+02
2.670000e-06	-2.471721e-06	-1.563916e-08	-1.779420e+01	-1.025043e+03
2.680000e-06	-2.593866e-06	-1.638705e-08	-1.867354e+01	-1.073601e+03
2.690000e-06	-2.715091e-06	-1.708284e-08	-1.954625e+01	-1.118616e+03
2.700000e-06	-2.835325e-06	-1.772828e-08	-2.041183e+01	-1.160515e+03
2.710000e-06	-2.954523e-06	-1.832839e-08	-2.126994e+01	-1.199660e+03
2.720000e-06	-3.072623e-06	-1.889064e-08	-2.212016e+01	-1.236323e+03
2.730000e-06	-3.189458e-06	-1.941891e-08	-2.296127e+01	-1.270698e+03
2.740000e-06	-3.304890e-06	-1.991118e-08	-2.379228e+01	-1.302919e+03
2.750000e-06	-3.418956e-06	-2.036921e-08	-2.461345e+01	-1.333103e+03
2.760000e-06	-3.531667e-06	-2.079770e-08	-2.542487e+01	-1.361369e+03
2.770000e-06	-3.642967e-06	-2.120112e-08	-2.622613e+01	-1.387859e+03
2.780000e-06	-3.752918e-06	-2.158249e-08	-2.701768e+01	-1.412742e+03
2.790000e-06	-3.861631e-06	-2.194388e-08	-2.780032e+01	-1.436197e+03
2.800000e-06	-3.969138e-06	-2.228528e-08	-2.857427e+01	-1.458397e+03
2.810000e-06	-4.075361e-06	-2.260838e-08	-2.933898e+01	-1.479490e+03
2.820000e-06	-4.180219e-06	-2.291516e-08	-3.009386e+01	-1.499581e+03
2.830000e-06	-4.283538e-06	-2.320717e-08	-3.083768e+01	-1.518737e+03
2.840000e-06	-4.385146e-06	-2.348703e-08	-3.156916e+01	-1.536985e+03
2.850000e-06	-4.485151e-06	-2.375244e-08	-3.228911e+01	-1.554336e+03
2.860000e-06	-4.583660e-06	-2.400109e-08	-3.299828e+01	-1.570794e+03
2.870000e-06	-4.680658e-06	-2.423399e-08	-3.369658e+01	-1.586379e+03
2.880000e-06	-4.776040e-06	-2.445535e-08	-3.438325e+01	-1.601132e+03
2.890000e-06	-4.869567e-06	-2.467010e-08	-3.505656e+01	-1.615114e+03
2.900000e-06	-4.961292e-06	-2.487805e-08	-3.571690e+01	-1.628402e+03
2.910000e-06	-5.051359e-06	-2.507831e-08	-3.636530e+01	-1.641072e+03
2.920000e-06	-5.139619e-06	-2.527020e-08	-3.700070e+01	-1.653190e+03
2.930000e-06	-5.225857e-06	-2.545201e-08	-3.762153e+01	-1.664804e+03
2.940000e-06	-5.310159e-06	-2.562125e-08	-3.822843e+01	-1.675937e+03
