# Temperatura_=_29.92
# Concentracion g/m^3_=_28200.0
# C_Vs_to_Am_M_A/Vsm_=_65563218390.804596
# pendiente_HvsI_1/m_=_3716.3
# ordenada_HvsI_A/m_=_1297.0
# frecuencia_Hz_=_302274.0436920474

Tiempo_(s)	Campo_(V.s)	Magnetizacion_(V.s)	Campo_(kA/m)	Magnetizacion_(A/m)
0.000000e+00	-6.931382e-06	-2.341263e-08	-4.952300e+01	-1.532520e+03
1.000000e-08	-6.928479e-06	-2.340926e-08	-4.950226e+01	-1.532196e+03
2.000000e-08	-6.923278e-06	-2.339772e-08	-4.946510e+01	-1.531708e+03
3.000000e-08	-6.915897e-06	-2.338420e-08	-4.941236e+01	-1.531045e+03
4.000000e-08	-6.906157e-06	-2.337401e-08	-4.934278e+01	-1.530203e+03
5.000000e-08	-6.893929e-06	-2.336079e-08	-4.925541e+01	-1.529184e+03
6.000000e-08	-6.879170e-06	-2.334465e-08	-4.914996e+01	-1.528001e+03
7.000000e-08	-6.861950e-06	-2.332239e-08	-4.902692e+01	-1.526674e+03
8.000000e-08	-6.842649e-06	-2.329223e-08	-4.888902e+01	-1.525231e+03
9.000000e-08	-6.821219e-06	-2.331215e-08	-4.873592e+01	-1.523705e+03
1.000000e-07	-6.797128e-06	-2.332162e-08	-4.856379e+01	-1.522126e+03
1.100000e-07	-6.770213e-06	-2.324955e-08	-4.837149e+01	-1.520517e+03
1.200000e-07	-6.740791e-06	-2.319693e-08	-4.816128e+01	-1.518889e+03
1.300000e-07	-6.709158e-06	-2.317143e-08	-4.793527e+01	-1.517233e+03
1.400000e-07	-6.675318e-06	-2.308632e-08	-4.769349e+01	-1.515524e+03
1.500000e-07	-6.639591e-06	-2.300041e-08	-4.743823e+01	-1.513719e+03
1.600000e-07	-6.602097e-06	-2.310126e-08	-4.717034e+01	-1.511760e+03
1.700000e-07	-6.562495e-06	-2.306359e-08	-4.688740e+01	-1.509591e+03
1.800000e-07	-6.520600e-06	-2.293509e-08	-4.658807e+01	-1.507155e+03
1.900000e-07	-6.476225e-06	-2.299033e-08	-4.627102e+01	-1.504414e+03
2.000000e-07	-6.429436e-06	-2.285927e-08	-4.593672e+01	-1.501348e+03
2.100000e-07	-6.380174e-06	-2.275110e-08	-4.558476e+01	-1.497961e+03
2.200000e-07	-6.328187e-06	-2.277904e-08	-4.521333e+01	-1.494280e+03
2.300000e-07	-6.273630e-06	-2.275164e-08	-4.482353e+01	-1.490343e+03
2.400000e-07	-6.216675e-06	-2.269160e-08	-4.441659e+01	-1.486197e+03
2.500000e-07	-6.157344e-06	-2.256963e-08	-4.399270e+01	-1.481880e+03
2.600000e-07	-6.095743e-06	-2.252549e-08	-4.355257e+01	-1.477417e+03
2.700000e-07	-6.031929e-06	-2.244994e-08	-4.309664e+01	-1.472811e+03
2.800000e-07	-5.965874e-06	-2.234337e-08	-4.262469e+01	-1.468046e+03
2.900000e-07	-5.897590e-06	-2.231666e-08	-4.213681e+01	-1.463087e+03
3.000000e-07	-5.827104e-06	-2.224800e-08	-4.163321e+01	-1.457893e+03
3.100000e-07	-5.754427e-06	-2.213526e-08	-4.111395e+01	-1.452423e+03
3.200000e-07	-5.679476e-06	-2.200748e-08	-4.057844e+01	-1.446647e+03
3.300000e-07	-5.602161e-06	-2.194594e-08	-4.002605e+01	-1.440549e+03
3.400000e-07	-5.522553e-06	-2.187278e-08	-3.945727e+01	-1.434132e+03
3.500000e-07	-5.440836e-06	-2.175115e-08	-3.887342e+01	-1.427410e+03
3.600000e-07	-5.357298e-06	-2.166000e-08	-3.827657e+01	-1.420401e+03
3.700000e-07	-5.272030e-06	-2.154379e-08	-3.766735e+01	-1.413122e+03
3.800000e-07	-5.185032e-06	-2.141604e-08	-3.704577e+01	-1.405575e+03
3.900000e-07	-5.096219e-06	-2.129679e-08	-3.641122e+01	-1.397750e+03
4.000000e-07	-5.005491e-06	-2.119087e-08	-3.576299e+01	-1.389618e+03
4.100000e-07	-4.912962e-06	-2.106000e-08	-3.510189e+01	-1.381144e+03
4.200000e-07	-4.818849e-06	-2.090206e-08	-3.442948e+01	-1.372288e+03
4.300000e-07	-4.723116e-06	-2.076130e-08	-3.374549e+01	-1.363018e+03
4.400000e-07	-4.625642e-06	-2.061975e-08	-3.304906e+01	-1.353311e+03
4.500000e-07	-4.526440e-06	-2.046464e-08	-3.234029e+01	-1.343163e+03
4.600000e-07	-4.425584e-06	-2.030351e-08	-3.161970e+01	-1.332578e+03
4.700000e-07	-4.323188e-06	-2.013748e-08	-3.088810e+01	-1.321567e+03
4.800000e-07	-4.219250e-06	-1.995598e-08	-3.014549e+01	-1.310137e+03
4.900000e-07	-4.113831e-06	-1.976907e-08	-2.939230e+01	-1.298281e+03
5.000000e-07	-4.006894e-06	-1.959114e-08	-2.862826e+01	-1.285973e+03
5.100000e-07	-3.898481e-06	-1.940527e-08	-2.785368e+01	-1.273169e+03
5.200000e-07	-3.788742e-06	-1.919398e-08	-2.706962e+01	-1.259810e+03
5.300000e-07	-3.677666e-06	-1.896452e-08	-2.627601e+01	-1.245830e+03
5.400000e-07	-3.565149e-06	-1.873177e-08	-2.547210e+01	-1.231166e+03
5.500000e-07	-3.451182e-06	-1.849831e-08	-2.465784e+01	-1.215769e+03
5.600000e-07	-3.335727e-06	-1.825821e-08	-2.383294e+01	-1.199605e+03
5.700000e-07	-3.218819e-06	-1.800612e-08	-2.299766e+01	-1.182655e+03
5.800000e-07	-3.100727e-06	-1.773503e-08	-2.215392e+01	-1.164909e+03
5.900000e-07	-2.981499e-06	-1.744577e-08	-2.130207e+01	-1.146353e+03
6.000000e-07	-2.861072e-06	-1.714487e-08	-2.044165e+01	-1.126957e+03
6.100000e-07	-2.739628e-06	-1.683447e-08	-1.957396e+01	-1.106667e+03
6.200000e-07	-2.617236e-06	-1.651139e-08	-1.869950e+01	-1.085403e+03
6.300000e-07	-2.493713e-06	-1.616818e-08	-1.781696e+01	-1.063057e+03
6.400000e-07	-2.369207e-06	-1.580241e-08	-1.692740e+01	-1.039505e+03
6.500000e-07	-2.243926e-06	-1.541460e-08	-1.603229e+01	-1.014617e+03
6.600000e-07	-2.117947e-06	-1.501158e-08	-1.513220e+01	-9.882646e+02
6.700000e-07	-1.991368e-06	-1.459108e-08	-1.422783e+01	-9.603307e+02
6.800000e-07	-1.864093e-06	-1.414427e-08	-1.331848e+01	-9.307086e+02
6.900000e-07	-1.735990e-06	-1.366456e-08	-1.240322e+01	-8.992967e+02
7.000000e-07	-1.607169e-06	-1.315025e-08	-1.148282e+01	-8.659902e+02
7.100000e-07	-1.477883e-06	-1.260726e-08	-1.055911e+01	-8.306733e+02
7.200000e-07	-1.348266e-06	-1.203490e-08	-9.633026e+00	-7.932177e+02
7.300000e-07	-1.218303e-06	-1.143139e-08	-8.704471e+00	-7.534905e+02
7.400000e-07	-1.087966e-06	-1.079120e-08	-7.773246e+00	-7.113742e+02
7.500000e-07	-9.572122e-07	-1.011033e-08	-6.839043e+00	-6.667943e+02
7.600000e-07	-8.259796e-07	-9.390267e-09	-5.901419e+00	-6.197529e+02
7.700000e-07	-6.943385e-07	-8.637480e-09	-4.960876e+00	-5.703568e+02
7.800000e-07	-5.624538e-07	-7.853903e-09	-4.018593e+00	-5.188339e+02
7.900000e-07	-4.304282e-07	-7.043406e-09	-3.075303e+00	-4.655289e+02
8.000000e-07	-2.982601e-07	-6.213926e-09	-2.130994e+00	-4.108769e+02
8.100000e-07	-1.659320e-07	-5.369689e-09	-1.185543e+00	-3.553537e+02
8.200000e-07	-3.350615e-08	-4.517181e-09	-2.393931e-01	-2.994126e+02
8.300000e-07	9.893008e-08	-3.663270e-09	7.068309e-01	-2.434163e+02
8.400000e-07	2.313720e-07	-2.814820e-09	1.653095e+00	-1.875800e+02
8.500000e-07	3.637652e-07	-1.969300e-09	2.599012e+00	-1.319361e+02
8.600000e-07	4.960390e-07	-1.122915e-09	3.544075e+00	-7.633234e+01
8.700000e-07	6.281911e-07	-2.738112e-10	4.488270e+00	-2.046416e+01
8.800000e-07	7.601952e-07	5.828451e-10	5.431406e+00	3.606035e+01
8.900000e-07	8.919521e-07	1.456171e-09	6.372776e+00	9.363497e+01
9.000000e-07	1.023303e-06	2.352327e-09	7.311247e+00	1.525639e+02
9.100000e-07	1.154181e-06	3.271061e-09	8.246339e+00	2.129814e+02
9.200000e-07	1.284584e-06	4.212251e-09	9.178031e+00	2.747980e+02
9.300000e-07	1.414531e-06	5.171669e-09	1.010647e+01	3.376825e+02
9.400000e-07	1.544076e-06	6.140900e-09	1.103204e+01	4.010853e+02
9.500000e-07	1.673140e-06	7.107394e-09	1.195417e+01	4.642954e+02
9.600000e-07	1.801532e-06	8.056392e-09	1.287150e+01	5.265230e+02
9.700000e-07	1.929080e-06	8.973454e-09	1.378280e+01	5.869909e+02
9.800000e-07	2.055845e-06	9.851329e-09	1.468850e+01	6.450193e+02
9.900000e-07	2.181926e-06	1.068512e-08	1.558932e+01	7.000898e+02
1.000000e-06	2.307296e-06	1.146727e-08	1.648506e+01	7.518804e+02
1.010000e-06	2.431968e-06	1.219848e-08	1.737581e+01	8.002680e+02
1.020000e-06	2.555737e-06	1.288112e-08	1.826011e+01	8.453031e+02
1.030000e-06	2.678443e-06	1.351941e-08	1.913681e+01	8.871647e+02
1.040000e-06	2.800160e-06	1.411507e-08	2.000645e+01	9.261069e+02
1.050000e-06	2.920772e-06	1.467170e-08	2.086819e+01	9.624079e+02
1.060000e-06	3.040167e-06	1.518953e-08	2.172123e+01	9.963309e+02
1.070000e-06	3.158489e-06	1.567097e-08	2.256662e+01	1.028101e+03
1.080000e-06	3.275804e-06	1.612155e-08	2.340481e+01	1.057898e+03
1.090000e-06	3.391948e-06	1.654441e-08	2.423463e+01	1.085863e+03
1.100000e-06	3.506688e-06	1.694100e-08	2.505441e+01	1.112114e+03
1.110000e-06	3.619907e-06	1.731387e-08	2.586333e+01	1.136759e+03
1.120000e-06	3.731673e-06	1.766775e-08	2.666188e+01	1.159909e+03
1.130000e-06	3.842163e-06	1.800300e-08	2.745130e+01	1.181681e+03
1.140000e-06	3.951456e-06	1.831954e-08	2.823217e+01	1.202199e+03
1.150000e-06	4.059473e-06	1.861643e-08	2.900392e+01	1.221580e+03
1.160000e-06	4.166058e-06	1.889423e-08	2.976545e+01	1.239933e+03
1.170000e-06	4.271099e-06	1.915538e-08	3.051594e+01	1.257345e+03
1.180000e-06	4.374567e-06	1.940324e-08	3.125519e+01	1.273883e+03
1.190000e-06	4.476461e-06	1.963817e-08	3.198320e+01	1.289590e+03
1.200000e-06	4.576832e-06	1.986268e-08	3.270033e+01	1.304498e+03
1.210000e-06	4.675550e-06	2.007768e-08	3.340564e+01	1.318632e+03
1.220000e-06	4.772394e-06	2.028116e-08	3.409757e+01	1.332018e+03
1.230000e-06	4.867443e-06	2.047305e-08	3.477667e+01	1.344692e+03
1.240000e-06	4.960865e-06	2.065490e-08	3.544415e+01	1.356697e+03
1.250000e-06	5.052643e-06	2.082809e-08	3.609988e+01	1.368083e+03
1.260000e-06	5.142572e-06	2.099351e-08	3.674240e+01	1.378898e+03
1.270000e-06	5.230542e-06	2.114965e-08	3.737092e+01	1.389185e+03
1.280000e-06	5.316595e-06	2.129744e-08	3.798575e+01	1.398975e+03
1.290000e-06	5.400824e-06	2.143890e-08	3.858754e+01	1.408284e+03
1.300000e-06	5.483166e-06	2.157402e-08	3.917586e+01	1.417116e+03
1.310000e-06	5.563470e-06	2.170184e-08	3.974961e+01	1.425472e+03
1.320000e-06	5.641708e-06	2.182392e-08	4.030860e+01	1.433351e+03
1.330000e-06	5.717842e-06	2.194000e-08	4.085256e+01	1.440758e+03
1.340000e-06	5.791702e-06	2.204927e-08	4.138027e+01	1.447711e+03
1.350000e-06	5.863343e-06	2.215088e-08	4.189213e+01	1.454243e+03
1.360000e-06	5.932995e-06	2.224432e-08	4.238978e+01	1.460393e+03
1.370000e-06	6.000576e-06	2.233141e-08	4.287262e+01	1.466207e+03
1.380000e-06	6.065868e-06	2.241418e-08	4.333912e+01	1.471729e+03
1.390000e-06	6.128944e-06	2.249338e-08	4.378978e+01	1.476993e+03
1.400000e-06	6.190004e-06	2.256895e-08	4.422604e+01	1.482022e+03
1.410000e-06	6.249003e-06	2.264229e-08	4.464758e+01	1.486826e+03
1.420000e-06	6.305756e-06	2.271238e-08	4.505306e+01	1.491400e+03
1.430000e-06	6.360180e-06	2.277808e-08	4.544191e+01	1.495734e+03
1.440000e-06	6.412141e-06	2.283970e-08	4.581315e+01	1.499816e+03
1.450000e-06	6.461459e-06	2.289804e-08	4.616552e+01	1.503637e+03
1.460000e-06	6.508314e-06	2.295217e-08	4.650029e+01	1.507191e+03
1.470000e-06	6.552982e-06	2.300100e-08	4.681943e+01	1.510484e+03
1.480000e-06	6.595274e-06	2.304564e-08	4.712159e+01	1.513523e+03
1.490000e-06	6.635069e-06	2.308687e-08	4.740592e+01	1.516322e+03
1.500000e-06	6.672636e-06	2.312669e-08	4.767433e+01	1.518894e+03
1.510000e-06	6.708000e-06	2.316429e-08	4.792699e+01	1.521249e+03
1.520000e-06	6.740892e-06	2.319721e-08	4.816200e+01	1.523393e+03
1.530000e-06	6.771340e-06	2.322552e-08	4.837954e+01	1.525327e+03
1.540000e-06	6.799539e-06	2.325049e-08	4.858102e+01	1.527051e+03
1.550000e-06	6.825269e-06	2.327228e-08	4.876485e+01	1.528565e+03
1.560000e-06	6.848393e-06	2.329085e-08	4.893006e+01	1.529871e+03
1.570000e-06	6.869179e-06	2.330747e-08	4.907858e+01	1.530973e+03
1.580000e-06	6.887570e-06	2.332205e-08	4.920997e+01	1.531883e+03
1.590000e-06	6.903367e-06	2.333316e-08	4.932284e+01	1.532614e+03
1.600000e-06	6.916567e-06	2.334131e-08	4.941715e+01	1.533182e+03
1.610000e-06	6.926998e-06	2.334846e-08	4.949168e+01	1.533601e+03
1.620000e-06	6.934724e-06	2.335539e-08	4.954688e+01	1.533885e+03
1.630000e-06	6.940055e-06	2.336067e-08	4.958497e+01	1.534038e+03
1.640000e-06	6.942985e-06	2.336170e-08	4.960590e+01	1.534061e+03
1.650000e-06	6.943405e-06	2.336143e-08	4.960890e+01	1.533949e+03
1.660000e-06	6.941464e-06	2.335439e-08	4.959504e+01	1.533691e+03
1.670000e-06	6.937328e-06	2.334297e-08	4.956549e+01	1.533274e+03
1.680000e-06	6.930862e-06	2.333462e-08	4.951929e+01	1.532687e+03
1.690000e-06	6.922055e-06	2.332397e-08	4.945636e+01	1.531922e+03
1.700000e-06	6.910961e-06	2.331230e-08	4.937710e+01	1.530978e+03
1.710000e-06	6.897363e-06	2.330094e-08	4.927994e+01	1.529863e+03
1.720000e-06	6.881407e-06	2.329362e-08	4.916594e+01	1.528594e+03
1.730000e-06	6.863397e-06	2.327777e-08	4.903727e+01	1.527196e+03
1.740000e-06	6.843224e-06	2.318274e-08	4.889314e+01	1.525702e+03
1.750000e-06	6.820104e-06	2.314686e-08	4.872795e+01	1.524142e+03
1.760000e-06	6.793652e-06	2.317906e-08	4.853896e+01	1.522544e+03
1.770000e-06	6.764396e-06	2.314618e-08	4.832993e+01	1.520924e+03
1.780000e-06	6.732908e-06	2.312812e-08	4.810496e+01	1.519282e+03
1.790000e-06	6.699681e-06	2.320873e-08	4.786756e+01	1.517600e+03
1.800000e-06	6.665048e-06	2.311141e-08	4.762011e+01	1.515842e+03
1.810000e-06	6.628460e-06	2.303025e-08	4.735870e+01	1.513956e+03
1.820000e-06	6.589289e-06	2.312475e-08	4.707884e+01	1.511884e+03
1.830000e-06	6.547889e-06	2.298282e-08	4.678304e+01	1.509568e+03
1.840000e-06	6.504331e-06	2.302377e-08	4.647183e+01	1.506961e+03
1.850000e-06	6.458342e-06	2.304733e-08	4.614325e+01	1.504035e+03
1.860000e-06	6.410013e-06	2.289411e-08	4.579795e+01	1.500784e+03
1.870000e-06	6.359283e-06	2.286874e-08	4.543550e+01	1.497224e+03
1.880000e-06	6.306038e-06	2.269334e-08	4.505508e+01	1.493392e+03
1.890000e-06	6.250214e-06	2.269952e-08	4.465623e+01	1.489330e+03
1.900000e-06	6.191947e-06	2.269170e-08	4.423992e+01	1.485082e+03
1.910000e-06	6.131415e-06	2.258405e-08	4.380744e+01	1.480679e+03
1.920000e-06	6.068423e-06	2.261850e-08	4.335737e+01	1.476136e+03
1.930000e-06	6.003218e-06	2.244321e-08	4.289150e+01	1.471442e+03
1.940000e-06	5.935949e-06	2.235442e-08	4.241088e+01	1.466571e+03
1.950000e-06	5.866354e-06	2.229211e-08	4.191364e+01	1.461482e+03
1.960000e-06	5.794378e-06	2.221680e-08	4.139939e+01	1.456135e+03
1.970000e-06	5.720164e-06	2.218014e-08	4.086915e+01	1.450493e+03
1.980000e-06	5.643753e-06	2.202870e-08	4.032321e+01	1.444533e+03
1.990000e-06	5.564998e-06	2.197217e-08	3.976052e+01	1.438252e+03
2.000000e-06	5.484158e-06	2.182849e-08	3.918295e+01	1.431658e+03
2.010000e-06	5.401531e-06	2.172959e-08	3.859259e+01	1.424770e+03
2.020000e-06	5.317076e-06	2.166084e-08	3.798919e+01	1.417605e+03
2.030000e-06	5.230598e-06	2.153206e-08	3.737132e+01	1.410173e+03
2.040000e-06	5.142076e-06	2.141785e-08	3.673886e+01	1.402469e+03
2.050000e-06	5.051886e-06	2.125796e-08	3.609447e+01	1.394473e+03
2.060000e-06	4.960098e-06	2.116488e-08	3.543866e+01	1.386150e+03
2.070000e-06	4.866569e-06	2.102585e-08	3.477042e+01	1.377463e+03
2.080000e-06	4.771228e-06	2.088878e-08	3.408924e+01	1.368373e+03
2.090000e-06	4.674148e-06	2.074465e-08	3.339563e+01	1.358855e+03
2.100000e-06	4.575529e-06	2.058604e-08	3.269102e+01	1.348895e+03
2.110000e-06	4.475321e-06	2.043567e-08	3.197506e+01	1.338496e+03
2.120000e-06	4.373469e-06	2.027307e-08	3.124735e+01	1.327667e+03
2.130000e-06	4.269947e-06	2.012315e-08	3.050771e+01	1.316416e+03
2.140000e-06	4.164889e-06	1.993273e-08	2.975709e+01	1.304744e+03
2.150000e-06	4.058491e-06	1.973801e-08	2.899691e+01	1.292634e+03
2.160000e-06	3.950730e-06	1.953553e-08	2.822698e+01	1.280050e+03
2.170000e-06	3.841525e-06	1.934547e-08	2.744674e+01	1.266936e+03
2.180000e-06	3.730865e-06	1.914772e-08	2.665610e+01	1.253230e+03
2.190000e-06	3.618758e-06	1.893604e-08	2.585513e+01	1.238866e+03
2.200000e-06	3.505271e-06	1.870440e-08	2.504429e+01	1.223788e+03
2.210000e-06	3.390378e-06	1.845469e-08	2.422341e+01	1.207955e+03
2.220000e-06	3.273925e-06	1.820238e-08	2.339138e+01	1.191344e+03
2.230000e-06	3.156125e-06	1.794593e-08	2.254973e+01	1.173940e+03
2.240000e-06	3.037078e-06	1.767979e-08	2.169917e+01	1.155734e+03
2.250000e-06	2.916752e-06	1.738724e-08	2.083947e+01	1.136702e+03
2.260000e-06	2.795389e-06	1.707930e-08	1.997236e+01	1.116803e+03
2.270000e-06	2.673139e-06	1.675389e-08	1.909891e+01	1.095968e+03
2.280000e-06	2.549971e-06	1.642307e-08	1.821891e+01	1.074100e+03
2.290000e-06	2.425737e-06	1.607997e-08	1.733129e+01	1.051081e+03
2.300000e-06	2.300504e-06	1.571738e-08	1.643653e+01	1.026782e+03
2.310000e-06	2.174630e-06	1.532560e-08	1.553719e+01	1.001072e+03
2.320000e-06	2.048183e-06	1.490700e-08	1.463376e+01	9.738290e+02
2.330000e-06	1.920893e-06	1.446679e-08	1.372430e+01	9.449428e+02
2.340000e-06	1.792708e-06	1.400418e-08	1.280846e+01	9.143103e+02
2.350000e-06	1.663911e-06	1.351599e-08	1.188823e+01	8.818290e+02
2.360000e-06	1.534686e-06	1.299366e-08	1.096495e+01	8.473886e+02
2.370000e-06	1.405046e-06	1.243265e-08	1.003871e+01	8.108657e+02
2.380000e-06	1.275001e-06	1.183249e-08	9.109562e+00	7.721278e+02
2.390000e-06	1.144565e-06	1.120248e-08	8.177631e+00	7.310476e+02
2.400000e-06	1.013824e-06	1.054118e-08	7.243518e+00	6.875283e+02
2.410000e-06	8.828568e-07	9.844968e-09	6.307792e+00	6.415353e+02
2.420000e-06	7.516382e-07	9.111422e-09	5.370268e+00	5.931275e+02
2.430000e-06	6.201025e-07	8.338862e-09	4.430478e+00	5.424802e+02
2.440000e-06	4.882509e-07	7.533262e-09	3.488431e+00	4.898899e+02
2.450000e-06	3.562327e-07	6.702508e-09	2.545194e+00	4.357578e+02
2.460000e-06	2.240823e-07	5.856787e-09	1.601013e+00	3.805494e+02
2.470000e-06	9.172053e-08	5.003528e-09	6.553204e-01	3.247360e+02
2.480000e-06	-4.074625e-08	4.147007e-09	-2.911218e-01	2.687272e+02
2.490000e-06	-1.731985e-07	3.291656e-09	-1.237460e+00	2.128071e+02
2.500000e-06	-3.055314e-07	2.439812e-09	-2.182946e+00	1.570888e+02
2.510000e-06	-4.377700e-07	1.588830e-09	-3.127758e+00	1.014973e+02
2.520000e-06	-5.699041e-07	7.335634e-10	-4.071823e+00	4.578696e+01
2.530000e-06	-7.018084e-07	-1.283435e-10	-5.014247e+00	-1.040620e+01
2.540000e-06	-8.334347e-07	-1.002695e-09	-5.954684e+00	-6.748641e+01
2.550000e-06	-9.647133e-07	-1.893643e-09	-6.892637e+00	-1.258071e+02
2.560000e-06	-1.095664e-06	-2.803973e-09	-7.828244e+00	-1.855839e+02
2.570000e-06	-1.226293e-06	-3.735637e-09	-8.761559e+00	-2.468276e+02
2.580000e-06	-1.356580e-06	-4.688891e-09	-9.692426e+00	-3.093101e+02
2.590000e-06	-1.486465e-06	-5.658755e-09	-1.062042e+01	-3.725703e+02
2.600000e-06	-1.615875e-06	-6.630242e-09	-1.154502e+01	-4.359573e+02
2.610000e-06	-1.744743e-06	-7.590541e-09	-1.246576e+01	-4.987042e+02
2.620000e-06	-1.872946e-06	-8.528583e-09	-1.338173e+01	-5.600170e+02
2.630000e-06	-2.000378e-06	-9.433245e-09	-1.429221e+01	-6.191651e+02
2.640000e-06	-2.127076e-06	-1.029716e-08	-1.519743e+01	-6.755547e+02
2.650000e-06	-2.253031e-06	-1.111297e-08	-1.609735e+01	-7.287775e+02
2.660000e-06	-2.378100e-06	-1.187687e-08	-1.699093e+01	-7.786268e+02
2.670000e-06	-2.502206e-06	-1.258960e-08	-1.787764e+01	-8.250832e+02
2.680000e-06	-2.625308e-06	-1.325282e-08	-1.875718e+01	-8.682770e+02
2.690000e-06	-2.747379e-06	-1.386835e-08	-1.962934e+01	-9.084368e+02
2.700000e-06	-2.868444e-06	-1.444127e-08	-2.049432e+01	-9.458361e+02
2.710000e-06	-2.988463e-06	-1.497569e-08	-2.135183e+01	-9.807484e+02
2.720000e-06	-3.107352e-06	-1.547369e-08	-2.220126e+01	-1.013417e+03
2.730000e-06	-3.225059e-06	-1.594074e-08	-2.304224e+01	-1.044040e+03
2.740000e-06	-3.341441e-06	-1.637930e-08	-2.387376e+01	-1.072775e+03
2.750000e-06	-3.456436e-06	-1.679101e-08	-2.469538e+01	-1.099747e+03
2.760000e-06	-3.570039e-06	-1.717995e-08	-2.550704e+01	-1.125067e+03
2.770000e-06	-3.682210e-06	-1.754446e-08	-2.630847e+01	-1.148844e+03
2.780000e-06	-3.792965e-06	-1.788489e-08	-2.709980e+01	-1.171192e+03
2.790000e-06	-3.902310e-06	-1.820453e-08	-2.788103e+01	-1.192233e+03
2.800000e-06	-4.010422e-06	-1.850692e-08	-2.865347e+01	-1.212087e+03
2.810000e-06	-4.117318e-06	-1.879548e-08	-2.941721e+01	-1.230869e+03
2.820000e-06	-4.222807e-06	-1.906998e-08	-3.017091e+01	-1.248675e+03
2.830000e-06	-4.326765e-06	-1.933018e-08	-3.091366e+01	-1.265581e+03
2.840000e-06	-4.429070e-06	-1.957650e-08	-3.164461e+01	-1.281640e+03
2.850000e-06	-4.529719e-06	-1.981097e-08	-3.236372e+01	-1.296888e+03
2.860000e-06	-4.628778e-06	-2.003389e-08	-3.307147e+01	-1.311350e+03
2.870000e-06	-4.726288e-06	-2.024561e-08	-3.376816e+01	-1.325053e+03
2.880000e-06	-4.822172e-06	-2.044573e-08	-3.445322e+01	-1.338028e+03
2.890000e-06	-4.916251e-06	-2.063415e-08	-3.512539e+01	-1.350314e+03
2.900000e-06	-5.008497e-06	-2.081228e-08	-3.578447e+01	-1.361959e+03
2.910000e-06	-5.099046e-06	-2.098033e-08	-3.643142e+01	-1.373013e+03
2.920000e-06	-5.187828e-06	-2.114019e-08	-3.706574e+01	-1.383523e+03
2.930000e-06	-5.274626e-06	-2.129425e-08	-3.768589e+01	-1.393523e+03
2.940000e-06	-5.359415e-06	-2.144129e-08	-3.829169e+01	-1.403036e+03
