# Temperatura_=_87.18
# Concentracion g/m^3_=_28200.0
# C_Vs_to_Am_M_A/Vsm_=_65563218390.804596
# pendiente_HvsI_1/m_=_3716.3
# ordenada_HvsI_A/m_=_1297.0
# frecuencia_Hz_=_302271.4472305841

Tiempo_(s)	Campo_(V.s)	Magnetizacion_(V.s)	Campo_(kA/m)	Magnetizacion_(A/m)
0.000000e+00	-6.912560e-06	-3.166278e-08	-4.952140e+01	-2.073073e+03
1.000000e-08	-6.909346e-06	-3.165688e-08	-4.949838e+01	-2.072453e+03
2.000000e-08	-6.903858e-06	-3.164243e-08	-4.945907e+01	-2.071610e+03
3.000000e-08	-6.896317e-06	-3.162687e-08	-4.940504e+01	-2.070565e+03
4.000000e-08	-6.886454e-06	-3.160590e-08	-4.933438e+01	-2.069335e+03
5.000000e-08	-6.873972e-06	-3.157957e-08	-4.924496e+01	-2.067929e+03
6.000000e-08	-6.858906e-06	-3.155201e-08	-4.913703e+01	-2.066343e+03
7.000000e-08	-6.841474e-06	-3.152012e-08	-4.901215e+01	-2.064568e+03
8.000000e-08	-6.822046e-06	-3.148622e-08	-4.887297e+01	-2.062595e+03
9.000000e-08	-6.800406e-06	-3.151059e-08	-4.871794e+01	-2.060426e+03
1.000000e-07	-6.776002e-06	-3.149614e-08	-4.854311e+01	-2.058075e+03
1.100000e-07	-6.748765e-06	-3.141454e-08	-4.834799e+01	-2.055575e+03
1.200000e-07	-6.719036e-06	-3.135401e-08	-4.813501e+01	-2.052962e+03
1.300000e-07	-6.687090e-06	-3.130567e-08	-4.790614e+01	-2.050273e+03
1.400000e-07	-6.653029e-06	-3.119646e-08	-4.766213e+01	-2.047527e+03
1.500000e-07	-6.617196e-06	-3.112072e-08	-4.740543e+01	-2.044713e+03
1.600000e-07	-6.579554e-06	-3.120332e-08	-4.713576e+01	-2.041791e+03
1.700000e-07	-6.539734e-06	-3.109265e-08	-4.685049e+01	-2.038685e+03
1.800000e-07	-6.497653e-06	-3.100857e-08	-4.654902e+01	-2.035307e+03
1.900000e-07	-6.453085e-06	-3.102183e-08	-4.622974e+01	-2.031563e+03
2.000000e-07	-6.406109e-06	-3.086472e-08	-4.589321e+01	-2.027382e+03
2.100000e-07	-6.356661e-06	-3.079087e-08	-4.553896e+01	-2.022728e+03
2.200000e-07	-6.304481e-06	-3.072136e-08	-4.516515e+01	-2.017609e+03
2.300000e-07	-6.249788e-06	-3.063065e-08	-4.477333e+01	-2.012072e+03
2.400000e-07	-6.192726e-06	-3.057172e-08	-4.436453e+01	-2.006192e+03
2.500000e-07	-6.133330e-06	-3.046566e-08	-4.393902e+01	-2.000052e+03
2.600000e-07	-6.071715e-06	-3.038719e-08	-4.349762e+01	-1.993716e+03
2.700000e-07	-6.007813e-06	-3.028516e-08	-4.303983e+01	-1.987217e+03
2.800000e-07	-5.941676e-06	-3.017612e-08	-4.256602e+01	-1.980547e+03
2.900000e-07	-5.873373e-06	-3.007660e-08	-4.207670e+01	-1.973658e+03
3.000000e-07	-5.802873e-06	-2.996115e-08	-4.157163e+01	-1.966475e+03
3.100000e-07	-5.730160e-06	-2.986508e-08	-4.105072e+01	-1.958921e+03
3.200000e-07	-5.655106e-06	-2.972254e-08	-4.051304e+01	-1.950932e+03
3.300000e-07	-5.577657e-06	-2.959192e-08	-3.995820e+01	-1.942474e+03
3.400000e-07	-5.497910e-06	-2.944372e-08	-3.938689e+01	-1.933553e+03
3.500000e-07	-5.416159e-06	-2.930247e-08	-3.880123e+01	-1.924203e+03
3.600000e-07	-5.332676e-06	-2.917727e-08	-3.820315e+01	-1.914476e+03
3.700000e-07	-5.247448e-06	-2.901868e-08	-3.759259e+01	-1.904418e+03
3.800000e-07	-5.160487e-06	-2.886880e-08	-3.696960e+01	-1.894057e+03
3.900000e-07	-5.071712e-06	-2.869775e-08	-3.633362e+01	-1.883383e+03
4.000000e-07	-4.981010e-06	-2.851979e-08	-3.568383e+01	-1.872352e+03
4.100000e-07	-4.888525e-06	-2.833620e-08	-3.502127e+01	-1.860895e+03
4.200000e-07	-4.794480e-06	-2.816116e-08	-3.434754e+01	-1.848933e+03
4.300000e-07	-4.698856e-06	-2.797426e-08	-3.366248e+01	-1.836397e+03
4.400000e-07	-4.601491e-06	-2.776837e-08	-3.296497e+01	-1.823244e+03
4.500000e-07	-4.502396e-06	-2.756027e-08	-3.225505e+01	-1.809465e+03
4.600000e-07	-4.401635e-06	-2.734170e-08	-3.153320e+01	-1.795081e+03
4.700000e-07	-4.299365e-06	-2.711443e-08	-3.080054e+01	-1.780128e+03
4.800000e-07	-4.195629e-06	-2.687778e-08	-3.005738e+01	-1.764638e+03
4.900000e-07	-4.090414e-06	-2.663923e-08	-2.930362e+01	-1.748620e+03
5.000000e-07	-3.983674e-06	-2.638220e-08	-2.853894e+01	-1.732048e+03
5.100000e-07	-3.875331e-06	-2.611228e-08	-2.776278e+01	-1.714859e+03
5.200000e-07	-3.765647e-06	-2.583226e-08	-2.697700e+01	-1.696960e+03
5.300000e-07	-3.654743e-06	-2.554244e-08	-2.618249e+01	-1.678245e+03
5.400000e-07	-3.542450e-06	-2.524013e-08	-2.537803e+01	-1.658622e+03
5.500000e-07	-3.428721e-06	-2.492629e-08	-2.456327e+01	-1.638023e+03
5.600000e-07	-3.313466e-06	-2.460429e-08	-2.373759e+01	-1.616414e+03
5.700000e-07	-3.196707e-06	-2.426442e-08	-2.290113e+01	-1.593792e+03
5.800000e-07	-3.078711e-06	-2.390519e-08	-2.205581e+01	-1.570166e+03
5.900000e-07	-2.959654e-06	-2.352467e-08	-2.120288e+01	-1.545532e+03
6.000000e-07	-2.839516e-06	-2.312953e-08	-2.034222e+01	-1.519854e+03
6.100000e-07	-2.718362e-06	-2.271589e-08	-1.947427e+01	-1.493046e+03
6.200000e-07	-2.596221e-06	-2.228397e-08	-1.859926e+01	-1.464968e+03
6.300000e-07	-2.472946e-06	-2.183115e-08	-1.771612e+01	-1.435439e+03
6.400000e-07	-2.348657e-06	-2.135449e-08	-1.682572e+01	-1.404256e+03
6.500000e-07	-2.223617e-06	-2.084960e-08	-1.592994e+01	-1.371226e+03
6.600000e-07	-2.097927e-06	-2.031405e-08	-1.502950e+01	-1.336179e+03
6.700000e-07	-1.971605e-06	-1.974998e-08	-1.412453e+01	-1.298983e+03
6.800000e-07	-1.844553e-06	-1.915437e-08	-1.321433e+01	-1.259535e+03
6.900000e-07	-1.716790e-06	-1.852333e-08	-1.229904e+01	-1.217740e+03
7.000000e-07	-1.588453e-06	-1.784688e-08	-1.137964e+01	-1.173479e+03
7.100000e-07	-1.459590e-06	-1.712687e-08	-1.045647e+01	-1.126586e+03
7.200000e-07	-1.330287e-06	-1.636177e-08	-9.530140e+00	-1.076833e+03
7.300000e-07	-1.200580e-06	-1.554778e-08	-8.600927e+00	-1.023944e+03
7.400000e-07	-1.070425e-06	-1.468458e-08	-7.668500e+00	-9.676307e+02
7.500000e-07	-9.399058e-07	-1.376972e-08	-6.733461e+00	-9.076535e+02
7.600000e-07	-8.090392e-07	-1.279972e-08	-5.795937e+00	-8.438866e+02
7.700000e-07	-6.778179e-07	-1.177356e-08	-4.855870e+00	-7.763795e+02
7.800000e-07	-5.463503e-07	-1.069491e-08	-3.914040e+00	-7.053903e+02
7.900000e-07	-4.146659e-07	-9.570915e-09	-2.970656e+00	-6.313807e+02
8.000000e-07	-2.827920e-07	-8.409159e-09	-2.025915e+00	-5.549654e+02
8.100000e-07	-1.507790e-07	-7.217717e-09	-1.080177e+00	-4.768246e+02
8.200000e-07	-1.870558e-08	-6.008154e-09	-1.340063e-01	-3.975914e+02
8.300000e-07	1.133907e-07	-4.789188e-09	8.123282e-01	-3.177419e+02
8.400000e-07	2.455062e-07	-3.565251e-09	1.758800e+00	-2.375105e+02
8.500000e-07	3.775246e-07	-2.335053e-09	2.704577e+00	-1.568537e+02
8.600000e-07	5.094256e-07	-1.096779e-09	3.649513e+00	-7.547472e+01
8.700000e-07	6.412221e-07	1.573683e-10	4.593699e+00	7.092069e+00
8.800000e-07	7.727650e-07	1.436959e-09	5.536069e+00	9.135107e+01
8.900000e-07	9.039947e-07	2.746540e-09	6.476196e+00	1.776950e+02
9.000000e-07	1.034897e-06	4.090940e-09	7.413976e+00	2.662649e+02
9.100000e-07	1.165406e-06	5.469033e-09	8.348940e+00	3.568508e+02
9.200000e-07	1.295427e-06	6.873686e-09	9.280407e+00	4.488538e+02
9.300000e-07	1.424990e-06	8.286460e-09	1.020859e+01	5.413208e+02
9.400000e-07	1.554058e-06	9.687646e-09	1.113323e+01	6.330431e+02
9.500000e-07	1.682503e-06	1.105566e-08	1.205341e+01	7.227029e+02
9.600000e-07	1.810334e-06	1.236697e-08	1.296919e+01	8.090364e+02
9.700000e-07	1.937533e-06	1.360689e-08	1.388044e+01	8.909842e+02
9.800000e-07	2.063963e-06	1.476573e-08	1.478618e+01	9.678021e+02
9.900000e-07	2.189614e-06	1.584228e-08	1.568634e+01	1.039113e+03
1.000000e-06	2.314594e-06	1.683622e-08	1.658169e+01	1.104898e+03
1.010000e-06	2.438880e-06	1.775467e-08	1.747207e+01	1.165433e+03
1.020000e-06	2.562280e-06	1.860596e-08	1.835611e+01	1.221190e+03
1.030000e-06	2.684621e-06	1.939593e-08	1.923256e+01	1.272729e+03
1.040000e-06	2.805865e-06	2.012790e-08	2.010115e+01	1.320596e+03
1.050000e-06	2.925989e-06	2.080695e-08	2.096171e+01	1.365257e+03
1.060000e-06	3.044996e-06	2.144015e-08	2.181427e+01	1.407060e+03
1.070000e-06	3.162883e-06	2.203007e-08	2.265881e+01	1.446243e+03
1.080000e-06	3.279663e-06	2.258333e-08	2.349542e+01	1.482963e+03
1.090000e-06	3.395124e-06	2.310385e-08	2.432259e+01	1.517335e+03
1.100000e-06	3.509135e-06	2.359196e-08	2.513935e+01	1.549476e+03
1.110000e-06	3.621811e-06	2.404813e-08	2.594656e+01	1.579531e+03
1.120000e-06	3.733223e-06	2.447712e-08	2.674472e+01	1.607678e+03
1.130000e-06	3.843333e-06	2.488285e-08	2.753354e+01	1.634124e+03
1.140000e-06	3.952181e-06	2.526683e-08	2.831333e+01	1.659076e+03
1.150000e-06	4.059732e-06	2.563015e-08	2.908382e+01	1.682721e+03
1.160000e-06	4.165841e-06	2.597513e-08	2.984398e+01	1.705201e+03
1.170000e-06	4.270434e-06	2.630191e-08	3.059328e+01	1.726609e+03
1.180000e-06	4.373425e-06	2.660988e-08	3.133111e+01	1.746991e+03
1.190000e-06	4.474916e-06	2.689900e-08	3.205818e+01	1.766362e+03
1.200000e-06	4.574880e-06	2.717139e-08	3.277433e+01	1.784727e+03
1.210000e-06	4.673152e-06	2.743100e-08	3.347835e+01	1.802104e+03
1.220000e-06	4.769648e-06	2.767942e-08	3.416964e+01	1.818532e+03
1.230000e-06	4.864359e-06	2.791768e-08	3.484815e+01	1.834076e+03
1.240000e-06	4.957406e-06	2.814586e-08	3.551473e+01	1.848821e+03
1.250000e-06	5.048768e-06	2.836326e-08	3.616925e+01	1.862854e+03
1.260000e-06	5.138235e-06	2.856949e-08	3.681018e+01	1.876255e+03
1.270000e-06	5.225698e-06	2.876266e-08	3.743677e+01	1.889078e+03
1.280000e-06	5.311312e-06	2.894335e-08	3.805011e+01	1.901352e+03
1.290000e-06	5.395176e-06	2.911718e-08	3.865090e+01	1.913082e+03
1.300000e-06	5.477080e-06	2.928516e-08	3.923766e+01	1.924258e+03
1.310000e-06	5.556936e-06	2.944523e-08	3.980975e+01	1.934869e+03
1.320000e-06	5.634779e-06	2.959847e-08	4.036742e+01	1.944915e+03
1.330000e-06	5.710454e-06	2.974641e-08	4.090955e+01	1.954411e+03
1.340000e-06	5.783831e-06	2.988878e-08	4.143522e+01	1.963388e+03
1.350000e-06	5.855017e-06	3.002357e-08	4.194519e+01	1.971888e+03
1.360000e-06	5.924175e-06	3.015003e-08	4.244064e+01	1.979951e+03
1.370000e-06	5.991234e-06	3.026960e-08	4.292105e+01	1.987612e+03
1.380000e-06	6.056065e-06	3.038094e-08	4.338550e+01	1.994887e+03
1.390000e-06	6.118778e-06	3.048475e-08	4.383477e+01	2.001780e+03
1.400000e-06	6.179533e-06	3.058169e-08	4.427002e+01	2.008284e+03
1.410000e-06	6.238192e-06	3.067296e-08	4.469025e+01	2.014391e+03
1.420000e-06	6.294558e-06	3.075983e-08	4.509406e+01	2.020101e+03
1.430000e-06	6.348626e-06	3.084141e-08	4.548140e+01	2.025431e+03
1.440000e-06	6.400150e-06	3.091817e-08	4.585052e+01	2.030414e+03
1.450000e-06	6.448977e-06	3.099167e-08	4.620031e+01	2.035093e+03
1.460000e-06	6.495405e-06	3.106255e-08	4.653292e+01	2.039515e+03
1.470000e-06	6.539692e-06	3.112850e-08	4.685019e+01	2.043716e+03
1.480000e-06	6.581689e-06	3.118859e-08	4.715106e+01	2.047717e+03
1.490000e-06	6.621228e-06	3.124396e-08	4.743431e+01	2.051511e+03
1.500000e-06	6.658516e-06	3.129686e-08	4.770144e+01	2.055072e+03
1.510000e-06	6.693543e-06	3.134680e-08	4.795237e+01	2.058361e+03
1.520000e-06	6.726087e-06	3.138994e-08	4.818552e+01	2.061335e+03
1.530000e-06	6.756243e-06	3.142701e-08	4.840156e+01	2.063965e+03
1.540000e-06	6.784134e-06	3.146273e-08	4.860137e+01	2.066241e+03
1.550000e-06	6.809542e-06	3.149600e-08	4.878339e+01	2.068176e+03
1.560000e-06	6.832384e-06	3.152390e-08	4.894703e+01	2.069804e+03
1.570000e-06	6.852889e-06	3.154630e-08	4.909392e+01	2.071170e+03
1.580000e-06	6.870986e-06	3.156334e-08	4.922357e+01	2.072320e+03
1.590000e-06	6.886492e-06	3.157683e-08	4.933466e+01	2.073288e+03
1.600000e-06	6.899386e-06	3.158784e-08	4.942703e+01	2.074088e+03
1.610000e-06	6.909532e-06	3.159673e-08	4.949972e+01	2.074716e+03
1.620000e-06	6.916991e-06	3.160501e-08	4.955315e+01	2.075154e+03
1.630000e-06	6.922035e-06	3.161085e-08	4.958928e+01	2.075374e+03
1.640000e-06	6.924648e-06	3.161197e-08	4.960801e+01	2.075355e+03
1.650000e-06	6.924773e-06	3.160970e-08	4.960890e+01	2.075084e+03
1.660000e-06	6.922590e-06	3.159706e-08	4.959326e+01	2.074566e+03
1.670000e-06	6.918182e-06	3.158405e-08	4.956169e+01	2.073815e+03
1.680000e-06	6.911381e-06	3.157257e-08	4.951296e+01	2.072854e+03
1.690000e-06	6.902277e-06	3.155696e-08	4.944774e+01	2.071701e+03
1.700000e-06	6.890998e-06	3.153905e-08	4.936694e+01	2.070371e+03
1.710000e-06	6.877270e-06	3.152154e-08	4.926859e+01	2.068862e+03
1.720000e-06	6.861142e-06	3.150920e-08	4.915305e+01	2.067169e+03
1.730000e-06	6.842954e-06	3.147180e-08	4.902275e+01	2.065281e+03
1.740000e-06	6.822525e-06	3.136483e-08	4.887640e+01	2.063194e+03
1.750000e-06	6.799099e-06	3.134119e-08	4.870858e+01	2.060918e+03
1.760000e-06	6.772460e-06	3.135141e-08	4.851774e+01	2.058477e+03
1.770000e-06	6.743067e-06	3.130111e-08	4.830717e+01	2.055907e+03
1.780000e-06	6.711453e-06	3.130466e-08	4.808068e+01	2.053247e+03
1.790000e-06	6.678161e-06	3.132792e-08	4.784218e+01	2.050525e+03
1.800000e-06	6.643436e-06	3.117084e-08	4.759341e+01	2.047743e+03
1.810000e-06	6.606632e-06	3.116083e-08	4.732975e+01	2.044874e+03
1.820000e-06	6.567294e-06	3.118141e-08	4.704793e+01	2.041857e+03
1.830000e-06	6.525790e-06	3.105452e-08	4.675060e+01	2.038607e+03
1.840000e-06	6.481978e-06	3.113484e-08	4.643673e+01	2.035029e+03
1.850000e-06	6.435754e-06	3.102272e-08	4.610558e+01	2.031042e+03
1.860000e-06	6.387204e-06	3.092289e-08	4.575777e+01	2.026592e+03
1.870000e-06	6.336278e-06	3.091041e-08	4.539294e+01	2.021669e+03
1.880000e-06	6.282922e-06	3.073962e-08	4.501070e+01	2.016302e+03
1.890000e-06	6.226940e-06	3.072792e-08	4.460964e+01	2.010559e+03
1.900000e-06	6.168550e-06	3.060133e-08	4.419134e+01	2.004521e+03
1.910000e-06	6.107870e-06	3.048407e-08	4.375663e+01	1.998262e+03
1.920000e-06	6.044839e-06	3.045841e-08	4.330508e+01	1.991831e+03
1.930000e-06	5.979659e-06	3.030514e-08	4.283813e+01	1.985238e+03
1.940000e-06	5.912309e-06	3.024028e-08	4.235564e+01	1.978451e+03
1.950000e-06	5.842686e-06	3.007416e-08	4.185686e+01	1.971403e+03
1.960000e-06	5.770707e-06	2.996692e-08	4.134120e+01	1.964017e+03
1.970000e-06	5.696502e-06	2.986746e-08	4.080960e+01	1.956220e+03
1.980000e-06	5.620081e-06	2.971739e-08	4.026212e+01	1.947964e+03
1.990000e-06	5.541304e-06	2.963630e-08	3.969777e+01	1.939239e+03
2.000000e-06	5.460501e-06	2.946786e-08	3.911889e+01	1.930067e+03
2.010000e-06	5.377906e-06	2.933986e-08	3.852718e+01	1.920494e+03
2.020000e-06	5.293418e-06	2.915977e-08	3.792191e+01	1.910573e+03
2.030000e-06	5.206918e-06	2.899966e-08	3.730223e+01	1.900340e+03
2.040000e-06	5.118475e-06	2.887354e-08	3.666863e+01	1.889803e+03
2.050000e-06	5.028327e-06	2.870722e-08	3.602281e+01	1.878932e+03
2.060000e-06	4.936525e-06	2.854098e-08	3.536514e+01	1.867667e+03
2.070000e-06	4.842988e-06	2.833253e-08	3.469505e+01	1.855931e+03
2.080000e-06	4.747704e-06	2.815007e-08	3.401243e+01	1.843647e+03
2.090000e-06	4.650749e-06	2.794290e-08	3.331785e+01	1.830762e+03
2.100000e-06	4.552259e-06	2.774377e-08	3.261227e+01	1.817250e+03
2.110000e-06	4.452230e-06	2.754155e-08	3.189567e+01	1.803121e+03
2.120000e-06	4.350583e-06	2.732349e-08	3.116747e+01	1.788406e+03
2.130000e-06	4.247250e-06	2.709127e-08	3.042719e+01	1.773143e+03
2.140000e-06	4.142322e-06	2.684202e-08	2.967549e+01	1.757352e+03
2.150000e-06	4.035986e-06	2.660015e-08	2.891370e+01	1.741023e+03
2.160000e-06	3.928266e-06	2.634264e-08	2.814200e+01	1.724109e+03
2.170000e-06	3.819141e-06	2.608039e-08	2.736023e+01	1.706526e+03
2.180000e-06	3.708639e-06	2.579511e-08	2.656859e+01	1.688173e+03
2.190000e-06	3.596738e-06	2.549989e-08	2.576694e+01	1.668949e+03
2.200000e-06	3.483445e-06	2.518798e-08	2.495531e+01	1.648773e+03
2.210000e-06	3.368756e-06	2.486777e-08	2.413368e+01	1.627599e+03
2.220000e-06	3.252581e-06	2.453312e-08	2.330141e+01	1.605410e+03
2.230000e-06	3.135003e-06	2.418638e-08	2.245908e+01	1.582213e+03
2.240000e-06	3.016102e-06	2.382391e-08	2.160728e+01	1.558013e+03
2.250000e-06	2.895976e-06	2.344402e-08	2.074670e+01	1.532789e+03
2.260000e-06	2.774811e-06	2.304499e-08	1.987868e+01	1.506480e+03
2.270000e-06	2.652719e-06	2.261883e-08	1.900401e+01	1.478966e+03
2.280000e-06	2.529711e-06	2.217323e-08	1.812278e+01	1.450082e+03
2.290000e-06	2.405769e-06	2.170432e-08	1.723487e+01	1.419633e+03
2.300000e-06	2.280932e-06	2.121427e-08	1.634054e+01	1.387416e+03
2.310000e-06	2.155361e-06	2.069410e-08	1.544095e+01	1.353251e+03
2.320000e-06	2.029097e-06	2.014542e-08	1.453640e+01	1.316990e+03
2.330000e-06	1.902052e-06	1.956207e-08	1.362625e+01	1.278519e+03
2.340000e-06	1.774219e-06	1.894340e-08	1.271046e+01	1.237742e+03
2.350000e-06	1.645716e-06	1.828858e-08	1.178987e+01	1.194554e+03
2.360000e-06	1.516720e-06	1.759438e-08	1.086574e+01	1.148813e+03
2.370000e-06	1.387307e-06	1.685498e-08	9.938636e+00	1.100317e+03
2.380000e-06	1.257544e-06	1.606441e-08	9.009017e+00	1.048807e+03
2.390000e-06	1.127428e-06	1.522240e-08	8.076868e+00	9.939948e+02
2.400000e-06	9.969725e-07	1.432678e-08	7.142286e+00	9.356112e+02
2.410000e-06	8.661600e-07	1.337823e-08	6.205148e+00	8.734734e+02
2.420000e-06	7.350372e-07	1.237744e-08	5.265788e+00	8.075498e+02
2.430000e-06	6.036611e-07	1.132536e-08	4.324613e+00	7.380074e+02
2.440000e-06	4.721068e-07	1.022306e-08	3.382161e+00	6.652238e+02
2.450000e-06	3.403902e-07	9.073061e-09	2.438547e+00	5.897573e+02
2.460000e-06	2.084706e-07	7.885924e-09	1.493478e+00	5.122728e+02
2.470000e-06	7.643604e-08	6.675759e-09	5.475859e-01	4.334376e+02
2.480000e-06	-5.565456e-08	5.453220e-09	-3.987079e-01	3.538077e+02
2.490000e-06	-1.877053e-07	4.224493e-09	-1.344716e+00	2.737286e+02
2.500000e-06	-3.196348e-07	2.991190e-09	-2.289856e+00	1.932766e+02
2.510000e-06	-4.514622e-07	1.751668e-09	-3.234264e+00	1.122565e+02
2.520000e-06	-5.832065e-07	4.998600e-10	-4.178077e+00	3.026130e+01
2.530000e-06	-7.147666e-07	-7.713488e-10	-5.120570e+00	-5.321473e+01
2.540000e-06	-8.461009e-07	-2.069905e-09	-6.061446e+00	-1.386307e+02
2.550000e-06	-9.771994e-07	-3.402256e-09	-7.000632e+00	-2.262506e+02
2.560000e-06	-1.107928e-06	-4.769708e-09	-7.937169e+00	-3.160234e+02
2.570000e-06	-1.238222e-06	-6.168709e-09	-8.870593e+00	-4.075171e+02
2.580000e-06	-1.368051e-06	-7.587372e-09	-9.800683e+00	-4.999216e+02
2.590000e-06	-1.497445e-06	-9.007163e-09	-1.072766e+01	-5.921221e+02
2.600000e-06	-1.626442e-06	-1.040419e-08	-1.165179e+01	-6.828278e+02
2.610000e-06	-1.754902e-06	-1.175260e-08	-1.257208e+01	-7.707319e+02
2.620000e-06	-1.882726e-06	-1.303427e-08	-1.348780e+01	-8.546711e+02
2.630000e-06	-2.009783e-06	-1.423857e-08	-1.439804e+01	-9.337559e+02
2.640000e-06	-2.135994e-06	-1.536104e-08	-1.530221e+01	-1.007449e+03
2.650000e-06	-2.261399e-06	-1.640087e-08	-1.620061e+01	-1.075584e+03
2.660000e-06	-2.385940e-06	-1.736123e-08	-1.709281e+01	-1.138321e+03
2.670000e-06	-2.509539e-06	-1.825075e-08	-1.797827e+01	-1.196060e+03
2.680000e-06	-2.632136e-06	-1.907476e-08	-1.885656e+01	-1.249338e+03
2.690000e-06	-2.753812e-06	-1.983598e-08	-1.972824e+01	-1.298716e+03
2.700000e-06	-2.874552e-06	-2.054150e-08	-2.059322e+01	-1.344701e+03
2.710000e-06	-2.994110e-06	-2.120001e-08	-2.144973e+01	-1.387694e+03
2.720000e-06	-3.112450e-06	-2.181734e-08	-2.229751e+01	-1.427978e+03
2.730000e-06	-3.229599e-06	-2.239437e-08	-2.313676e+01	-1.465738e+03
2.740000e-06	-3.345499e-06	-2.293174e-08	-2.396707e+01	-1.501103e+03
2.750000e-06	-3.460030e-06	-2.343306e-08	-2.478757e+01	-1.534185e+03
2.760000e-06	-3.573096e-06	-2.390393e-08	-2.559757e+01	-1.565114e+03
2.770000e-06	-3.684745e-06	-2.434597e-08	-2.639742e+01	-1.594055e+03
2.780000e-06	-3.795030e-06	-2.476167e-08	-2.718750e+01	-1.621205e+03
2.790000e-06	-3.904042e-06	-2.515601e-08	-2.796846e+01	-1.646773e+03
2.800000e-06	-4.011828e-06	-2.553211e-08	-2.874064e+01	-1.670958e+03
2.810000e-06	-4.118294e-06	-2.588640e-08	-2.950336e+01	-1.693924e+03
2.820000e-06	-4.223312e-06	-2.621661e-08	-3.025570e+01	-1.715783e+03
2.830000e-06	-4.326786e-06	-2.653053e-08	-3.099698e+01	-1.736602e+03
2.840000e-06	-4.428665e-06	-2.683094e-08	-3.172685e+01	-1.756405e+03
2.850000e-06	-4.528924e-06	-2.711837e-08	-3.244510e+01	-1.775201e+03
2.860000e-06	-4.627556e-06	-2.739141e-08	-3.315169e+01	-1.792998e+03
2.870000e-06	-4.724645e-06	-2.764921e-08	-3.384724e+01	-1.809827e+03
2.880000e-06	-4.820091e-06	-2.789460e-08	-3.453101e+01	-1.825741e+03
2.890000e-06	-4.913765e-06	-2.812708e-08	-3.520209e+01	-1.840818e+03
2.900000e-06	-5.005678e-06	-2.835009e-08	-3.586055e+01	-1.855146e+03
2.910000e-06	-5.095814e-06	-2.856306e-08	-3.650628e+01	-1.868810e+03
2.920000e-06	-5.184103e-06	-2.876700e-08	-3.713879e+01	-1.881875e+03
2.930000e-06	-5.270406e-06	-2.896048e-08	-3.775706e+01	-1.894383e+03
2.940000e-06	-5.354747e-06	-2.913961e-08	-3.836127e+01	-1.906347e+03
