# Temperatura_=_74.4
# Concentracion g/m^3_=_28200.0
# C_Vs_to_Am_M_A/Vsm_=_65563218390.804596
# pendiente_HvsI_1/m_=_3716.3
# ordenada_HvsI_A/m_=_1297.0
# frecuencia_Hz_=_302271.61775909364

Tiempo_(s)	Campo_(V.s)	Magnetizacion_(V.s)	Campo_(kA/m)	Magnetizacion_(A/m)
0.000000e+00	-6.895809e-06	-2.928145e-08	-4.952058e+01	-1.916522e+03
1.000000e-08	-6.892449e-06	-2.927927e-08	-4.949645e+01	-1.915981e+03
2.000000e-08	-6.886812e-06	-2.926515e-08	-4.945597e+01	-1.915224e+03
3.000000e-08	-6.879112e-06	-2.925132e-08	-4.940067e+01	-1.914265e+03
4.000000e-08	-6.869037e-06	-2.923529e-08	-4.932832e+01	-1.913119e+03
5.000000e-08	-6.856354e-06	-2.921357e-08	-4.923724e+01	-1.911796e+03
6.000000e-08	-6.841071e-06	-2.918403e-08	-4.912749e+01	-1.910302e+03
7.000000e-08	-6.823502e-06	-2.914639e-08	-4.900132e+01	-1.908640e+03
8.000000e-08	-6.804024e-06	-2.910343e-08	-4.886145e+01	-1.906817e+03
9.000000e-08	-6.782244e-06	-2.916748e-08	-4.870504e+01	-1.904843e+03
1.000000e-07	-6.757673e-06	-2.914959e-08	-4.852859e+01	-1.902736e+03
1.100000e-07	-6.730344e-06	-2.903827e-08	-4.833233e+01	-1.900519e+03
1.200000e-07	-6.700567e-06	-2.899622e-08	-4.811850e+01	-1.898217e+03
1.300000e-07	-6.668579e-06	-2.897755e-08	-4.788878e+01	-1.895847e+03
1.400000e-07	-6.634414e-06	-2.884039e-08	-4.764343e+01	-1.893411e+03
1.500000e-07	-6.598525e-06	-2.875972e-08	-4.738570e+01	-1.890890e+03
1.600000e-07	-6.560845e-06	-2.894478e-08	-4.711512e+01	-1.888237e+03
1.700000e-07	-6.520969e-06	-2.872932e-08	-4.682875e+01	-1.885391e+03
1.800000e-07	-6.478883e-06	-2.865434e-08	-4.652652e+01	-1.882276e+03
1.900000e-07	-6.434267e-06	-2.873094e-08	-4.620613e+01	-1.878824e+03
2.000000e-07	-6.387224e-06	-2.849635e-08	-4.586830e+01	-1.874981e+03
2.100000e-07	-6.337745e-06	-2.849413e-08	-4.551298e+01	-1.870726e+03
2.200000e-07	-6.285539e-06	-2.844233e-08	-4.513807e+01	-1.866065e+03
2.300000e-07	-6.230846e-06	-2.835305e-08	-4.474531e+01	-1.861040e+03
2.400000e-07	-6.173779e-06	-2.832038e-08	-4.433550e+01	-1.855706e+03
2.500000e-07	-6.114297e-06	-2.819326e-08	-4.390834e+01	-1.850125e+03
2.600000e-07	-6.052637e-06	-2.811724e-08	-4.346555e+01	-1.844345e+03
2.700000e-07	-5.988852e-06	-2.800633e-08	-4.300748e+01	-1.838390e+03
2.800000e-07	-5.922759e-06	-2.790978e-08	-4.253286e+01	-1.832252e+03
2.900000e-07	-5.854388e-06	-2.782444e-08	-4.204187e+01	-1.825896e+03
3.000000e-07	-5.783876e-06	-2.771275e-08	-4.153550e+01	-1.819269e+03
3.100000e-07	-5.711139e-06	-2.764806e-08	-4.101316e+01	-1.812315e+03
3.200000e-07	-5.636145e-06	-2.749879e-08	-4.047461e+01	-1.804986e+03
3.300000e-07	-5.558848e-06	-2.739377e-08	-3.991952e+01	-1.797258e+03
3.400000e-07	-5.479137e-06	-2.724719e-08	-3.934710e+01	-1.789131e+03
3.500000e-07	-5.397316e-06	-2.711722e-08	-3.875951e+01	-1.780626e+03
3.600000e-07	-5.313808e-06	-2.701735e-08	-3.815982e+01	-1.771771e+03
3.700000e-07	-5.228603e-06	-2.685775e-08	-3.754794e+01	-1.762595e+03
3.800000e-07	-5.141665e-06	-2.672523e-08	-3.692362e+01	-1.753105e+03
3.900000e-07	-5.052987e-06	-2.655999e-08	-3.628680e+01	-1.743289e+03
4.000000e-07	-4.962438e-06	-2.640065e-08	-3.563654e+01	-1.733109e+03
4.100000e-07	-4.870142e-06	-2.622448e-08	-3.497374e+01	-1.722510e+03
4.200000e-07	-4.776236e-06	-2.607323e-08	-3.429938e+01	-1.711436e+03
4.300000e-07	-4.680642e-06	-2.590499e-08	-3.361290e+01	-1.699839e+03
4.400000e-07	-4.583304e-06	-2.570729e-08	-3.291389e+01	-1.687690e+03
4.500000e-07	-4.484262e-06	-2.551176e-08	-3.220264e+01	-1.674987e+03
4.600000e-07	-4.383555e-06	-2.530546e-08	-3.147944e+01	-1.661745e+03
4.700000e-07	-4.281281e-06	-2.510020e-08	-3.074498e+01	-1.647987e+03
4.800000e-07	-4.177678e-06	-2.488329e-08	-3.000098e+01	-1.633731e+03
4.900000e-07	-4.072588e-06	-2.467097e-08	-2.924630e+01	-1.618971e+03
5.000000e-07	-3.965832e-06	-2.443312e-08	-2.847966e+01	-1.603678e+03
5.100000e-07	-3.857603e-06	-2.418224e-08	-2.770244e+01	-1.587789e+03
5.200000e-07	-3.748038e-06	-2.392000e-08	-2.691563e+01	-1.571223e+03
5.300000e-07	-3.637249e-06	-2.365104e-08	-2.612002e+01	-1.553892e+03
5.400000e-07	-3.525170e-06	-2.336996e-08	-2.531516e+01	-1.535719e+03
5.500000e-07	-3.411603e-06	-2.307527e-08	-2.449960e+01	-1.516647e+03
5.600000e-07	-3.296440e-06	-2.277432e-08	-2.367259e+01	-1.496646e+03
5.700000e-07	-3.179774e-06	-2.245525e-08	-2.283478e+01	-1.475706e+03
5.800000e-07	-3.061913e-06	-2.212322e-08	-2.198839e+01	-1.453824e+03
5.900000e-07	-2.943071e-06	-2.177281e-08	-2.113495e+01	-1.430987e+03
6.000000e-07	-2.823212e-06	-2.141315e-08	-2.027421e+01	-1.407151e+03
6.100000e-07	-2.702276e-06	-2.103116e-08	-1.940574e+01	-1.382233e+03
6.200000e-07	-2.580191e-06	-2.062966e-08	-1.852902e+01	-1.356109e+03
6.300000e-07	-2.457027e-06	-2.020369e-08	-1.764454e+01	-1.328623e+03
6.400000e-07	-2.332995e-06	-1.975449e-08	-1.675384e+01	-1.299601e+03
6.500000e-07	-2.208175e-06	-1.928131e-08	-1.585747e+01	-1.268878e+03
6.600000e-07	-2.082670e-06	-1.878162e-08	-1.495619e+01	-1.236305e+03
6.700000e-07	-1.956538e-06	-1.825709e-08	-1.405040e+01	-1.201758e+03
6.800000e-07	-1.829700e-06	-1.770170e-08	-1.313954e+01	-1.165131e+03
6.900000e-07	-1.702257e-06	-1.711675e-08	-1.222434e+01	-1.126315e+03
7.000000e-07	-1.574309e-06	-1.648873e-08	-1.130552e+01	-1.085181e+03
7.100000e-07	-1.445818e-06	-1.582210e-08	-1.038279e+01	-1.041558e+03
7.200000e-07	-1.316805e-06	-1.510904e-08	-9.456317e+00	-9.952297e+02
7.300000e-07	-1.187312e-06	-1.435201e-08	-8.526392e+00	-9.459511e+02
7.400000e-07	-1.057376e-06	-1.354894e-08	-7.593287e+00	-8.934815e+02
7.500000e-07	-9.269912e-07	-1.269333e-08	-6.656963e+00	-8.376380e+02
7.600000e-07	-7.962289e-07	-1.178957e-08	-5.717924e+00	-7.783514e+02
7.700000e-07	-6.652004e-07	-1.083540e-08	-4.776975e+00	-7.157137e+02
7.800000e-07	-5.339658e-07	-9.836548e-09	-3.834546e+00	-6.500020e+02
7.900000e-07	-4.025650e-07	-8.797296e-09	-2.890923e+00	-5.816676e+02
8.000000e-07	-2.710280e-07	-7.728287e-09	-1.946321e+00	-5.112879e+02
8.100000e-07	-1.393972e-07	-6.632916e-09	-1.001047e+00	-4.394857e+02
8.200000e-07	-7.659994e-09	-5.522777e-09	-5.500839e-02	-3.668308e+02
8.300000e-07	1.241205e-07	-4.406566e-09	8.913411e-01	-2.937437e+02
8.400000e-07	2.558426e-07	-3.286995e-09	1.837271e+00	-2.204232e+02
8.500000e-07	3.875017e-07	-2.164669e-09	2.782749e+00	-1.468166e+02
8.600000e-07	5.190852e-07	-1.036908e-09	3.727685e+00	-7.264254e+01
8.700000e-07	6.505386e-07	1.027839e-10	4.671685e+00	2.534440e+00
8.800000e-07	7.818141e-07	1.268425e-09	5.614409e+00	7.918930e+01
8.900000e-07	9.128303e-07	2.463158e-09	6.555269e+00	1.577039e+02
9.000000e-07	1.043517e-06	3.689050e-09	7.493766e+00	2.382426e+02
9.100000e-07	1.173805e-06	4.943333e-09	8.429399e+00	3.206620e+02
9.200000e-07	1.303541e-06	6.220961e-09	9.361065e+00	4.044738e+02
9.300000e-07	1.432677e-06	7.509247e-09	1.028842e+01	4.888687e+02
9.400000e-07	1.561241e-06	8.791909e-09	1.121167e+01	5.727988e+02
9.500000e-07	1.689254e-06	1.004809e-08	1.213097e+01	6.551007e+02
9.600000e-07	1.816669e-06	1.125694e-08	1.304597e+01	7.346377e+02
9.700000e-07	1.943411e-06	1.240467e-08	1.395613e+01	8.104328e+02
9.800000e-07	2.069458e-06	1.347946e-08	1.486131e+01	8.817706e+02
9.900000e-07	2.194842e-06	1.448299e-08	1.576172e+01	9.482500e+02
1.000000e-06	2.319503e-06	1.541051e-08	1.665695e+01	1.009785e+03
1.010000e-06	2.443413e-06	1.626776e-08	1.754678e+01	1.066559e+03
1.020000e-06	2.566495e-06	1.705964e-08	1.843066e+01	1.118942e+03
1.030000e-06	2.688435e-06	1.779476e-08	1.930634e+01	1.167400e+03
1.040000e-06	2.809162e-06	1.848102e-08	2.017331e+01	1.212407e+03
1.050000e-06	2.928823e-06	1.912253e-08	2.103263e+01	1.254383e+03
1.060000e-06	3.047472e-06	1.972234e-08	2.188468e+01	1.293654e+03
1.070000e-06	3.165105e-06	2.028024e-08	2.272943e+01	1.330455e+03
1.080000e-06	3.281604e-06	2.080107e-08	2.356604e+01	1.364946e+03
1.090000e-06	3.396760e-06	2.128672e-08	2.439301e+01	1.397246e+03
1.100000e-06	3.510416e-06	2.173981e-08	2.520920e+01	1.427471e+03
1.110000e-06	3.622656e-06	2.216394e-08	2.601523e+01	1.455752e+03
1.120000e-06	3.733594e-06	2.256775e-08	2.681190e+01	1.482249e+03
1.130000e-06	3.843314e-06	2.295108e-08	2.759982e+01	1.507143e+03
1.140000e-06	3.951878e-06	2.331297e-08	2.837945e+01	1.530620e+03
1.150000e-06	4.059246e-06	2.365497e-08	2.915049e+01	1.552850e+03
1.160000e-06	4.165138e-06	2.397981e-08	2.991093e+01	1.573967e+03
1.170000e-06	4.269331e-06	2.428629e-08	3.065916e+01	1.594061e+03
1.180000e-06	4.371935e-06	2.457251e-08	3.139599e+01	1.613183e+03
1.190000e-06	4.473019e-06	2.484060e-08	3.212190e+01	1.631352e+03
1.200000e-06	4.572660e-06	2.509584e-08	3.283745e+01	1.648577e+03
1.210000e-06	4.670558e-06	2.534139e-08	3.354048e+01	1.664870e+03
1.220000e-06	4.766537e-06	2.557705e-08	3.422973e+01	1.680267e+03
1.230000e-06	4.860812e-06	2.579976e-08	3.490675e+01	1.694822e+03
1.240000e-06	4.953473e-06	2.601062e-08	3.557216e+01	1.708613e+03
1.250000e-06	5.044476e-06	2.621059e-08	3.622568e+01	1.721722e+03
1.260000e-06	5.133513e-06	2.640036e-08	3.686508e+01	1.734230e+03
1.270000e-06	5.220590e-06	2.658010e-08	3.749040e+01	1.746196e+03
1.280000e-06	5.305901e-06	2.675106e-08	3.810304e+01	1.757655e+03
1.290000e-06	5.389509e-06	2.691618e-08	3.870345e+01	1.768619e+03
1.300000e-06	5.471150e-06	2.707574e-08	3.928973e+01	1.779080e+03
1.310000e-06	5.550569e-06	2.722665e-08	3.986007e+01	1.789020e+03
1.320000e-06	5.627955e-06	2.737047e-08	4.041580e+01	1.798428e+03
1.330000e-06	5.703268e-06	2.750930e-08	4.095664e+01	1.807302e+03
1.340000e-06	5.776281e-06	2.764019e-08	4.148096e+01	1.815657e+03
1.350000e-06	5.847100e-06	2.776223e-08	4.198953e+01	1.823523e+03
1.360000e-06	5.915943e-06	2.787713e-08	4.248391e+01	1.830938e+03
1.370000e-06	5.982699e-06	2.798665e-08	4.296330e+01	1.837943e+03
1.380000e-06	6.047193e-06	2.808774e-08	4.342645e+01	1.844573e+03
1.390000e-06	6.109568e-06	2.818169e-08	4.387438e+01	1.850854e+03
1.400000e-06	6.170050e-06	2.826911e-08	4.430872e+01	1.856803e+03
1.410000e-06	6.228366e-06	2.835238e-08	4.472750e+01	1.862431e+03
1.420000e-06	6.284366e-06	2.843318e-08	4.512965e+01	1.867744e+03
1.430000e-06	6.338145e-06	2.850990e-08	4.551585e+01	1.872754e+03
1.440000e-06	6.389317e-06	2.858179e-08	4.588333e+01	1.877476e+03
1.450000e-06	6.437754e-06	2.865053e-08	4.623117e+01	1.881928e+03
1.460000e-06	6.483857e-06	2.871664e-08	4.656225e+01	1.886132e+03
1.470000e-06	6.527930e-06	2.877693e-08	4.687875e+01	1.890102e+03
1.480000e-06	6.569694e-06	2.883264e-08	4.717866e+01	1.893843e+03
1.490000e-06	6.608916e-06	2.888398e-08	4.746033e+01	1.897351e+03
1.500000e-06	6.645881e-06	2.893256e-08	4.772578e+01	1.900610e+03
1.510000e-06	6.680555e-06	2.897733e-08	4.797478e+01	1.903597e+03
1.520000e-06	6.712784e-06	2.901708e-08	4.820623e+01	1.906291e+03
1.530000e-06	6.742696e-06	2.905325e-08	4.842103e+01	1.908681e+03
1.540000e-06	6.770389e-06	2.908684e-08	4.861990e+01	1.910765e+03
1.550000e-06	6.795554e-06	2.911683e-08	4.880062e+01	1.912559e+03
1.560000e-06	6.818083e-06	2.914163e-08	4.896241e+01	1.914089e+03
1.570000e-06	6.838327e-06	2.916219e-08	4.910778e+01	1.915388e+03
1.580000e-06	6.856114e-06	2.917891e-08	4.923552e+01	1.916490e+03
1.590000e-06	6.871211e-06	2.919162e-08	4.934394e+01	1.917417e+03
1.600000e-06	6.883784e-06	2.920267e-08	4.943423e+01	1.918180e+03
1.610000e-06	6.893618e-06	2.921350e-08	4.950484e+01	1.918778e+03
1.620000e-06	6.900782e-06	2.922269e-08	4.955629e+01	1.919196e+03
1.630000e-06	6.905671e-06	2.922795e-08	4.959140e+01	1.919414e+03
1.640000e-06	6.908108e-06	2.922808e-08	4.960890e+01	1.919417e+03
1.650000e-06	6.908032e-06	2.922826e-08	4.960835e+01	1.919192e+03
1.660000e-06	6.905694e-06	2.921357e-08	4.959156e+01	1.918739e+03
1.670000e-06	6.901126e-06	2.920282e-08	4.955876e+01	1.918065e+03
1.680000e-06	6.894142e-06	2.919375e-08	4.950861e+01	1.917184e+03
1.690000e-06	6.884880e-06	2.917974e-08	4.944210e+01	1.916109e+03
1.700000e-06	6.873379e-06	2.916598e-08	4.935951e+01	1.914854e+03
1.710000e-06	6.859372e-06	2.915279e-08	4.925892e+01	1.913426e+03
1.720000e-06	6.843081e-06	2.915284e-08	4.914193e+01	1.911829e+03
1.730000e-06	6.824840e-06	2.912027e-08	4.901093e+01	1.910069e+03
1.740000e-06	6.804361e-06	2.896411e-08	4.886387e+01	1.908152e+03
1.750000e-06	6.780760e-06	2.896696e-08	4.869438e+01	1.906093e+03
1.760000e-06	6.753893e-06	2.900548e-08	4.850145e+01	1.903916e+03
1.770000e-06	6.724340e-06	2.893380e-08	4.828921e+01	1.901644e+03
1.780000e-06	6.692593e-06	2.896096e-08	4.806123e+01	1.899300e+03
1.790000e-06	6.659219e-06	2.903662e-08	4.782157e+01	1.896891e+03
1.800000e-06	6.624473e-06	2.877699e-08	4.757205e+01	1.894406e+03
1.810000e-06	6.587569e-06	2.881905e-08	4.730703e+01	1.891811e+03
1.820000e-06	6.548089e-06	2.889005e-08	4.702351e+01	1.889049e+03
1.830000e-06	6.506505e-06	2.866650e-08	4.672489e+01	1.886048e+03
1.840000e-06	6.462683e-06	2.888232e-08	4.641019e+01	1.882736e+03
1.850000e-06	6.416519e-06	2.869898e-08	4.607867e+01	1.879051e+03
1.860000e-06	6.368022e-06	2.856726e-08	4.573040e+01	1.874957e+03
1.870000e-06	6.317022e-06	2.860364e-08	4.536416e+01	1.870453e+03
1.880000e-06	6.263563e-06	2.834924e-08	4.498026e+01	1.865564e+03
1.890000e-06	6.207511e-06	2.844233e-08	4.457773e+01	1.860343e+03
1.900000e-06	6.149065e-06	2.831524e-08	4.415802e+01	1.854852e+03
1.910000e-06	6.088386e-06	2.820925e-08	4.372227e+01	1.849145e+03
1.920000e-06	6.025275e-06	2.823112e-08	4.326905e+01	1.843258e+03
1.930000e-06	5.960037e-06	2.800661e-08	4.280056e+01	1.837194e+03
1.940000e-06	5.892743e-06	2.800001e-08	4.231730e+01	1.830929e+03
1.950000e-06	5.823120e-06	2.779422e-08	4.181732e+01	1.824415e+03
1.960000e-06	5.751079e-06	2.772532e-08	4.129998e+01	1.817596e+03
1.970000e-06	5.676838e-06	2.765150e-08	4.076684e+01	1.810418e+03
1.980000e-06	5.600427e-06	2.748410e-08	4.021811e+01	1.802847e+03
1.990000e-06	5.521632e-06	2.745295e-08	3.965226e+01	1.794875e+03
2.000000e-06	5.440827e-06	2.724902e-08	3.907198e+01	1.786515e+03
2.010000e-06	5.358259e-06	2.716387e-08	3.847904e+01	1.777793e+03
2.020000e-06	5.273859e-06	2.698781e-08	3.787294e+01	1.768741e+03
2.030000e-06	5.187405e-06	2.684197e-08	3.725209e+01	1.759374e+03
2.040000e-06	5.098885e-06	2.673285e-08	3.661640e+01	1.749689e+03
2.050000e-06	5.008708e-06	2.655951e-08	3.596882e+01	1.739657e+03
2.060000e-06	4.917014e-06	2.642027e-08	3.531034e+01	1.729229e+03
2.070000e-06	4.823641e-06	2.621062e-08	3.463981e+01	1.718348e+03
2.080000e-06	4.728392e-06	2.606422e-08	3.395580e+01	1.706960e+03
2.090000e-06	4.631440e-06	2.587138e-08	3.325956e+01	1.695030e+03
2.100000e-06	4.533040e-06	2.569670e-08	3.255293e+01	1.682543e+03
2.110000e-06	4.433204e-06	2.550866e-08	3.183598e+01	1.669510e+03
2.120000e-06	4.331704e-06	2.529871e-08	3.110708e+01	1.655951e+03
2.130000e-06	4.228382e-06	2.507544e-08	3.036510e+01	1.641889e+03
2.140000e-06	4.123497e-06	2.483145e-08	2.961189e+01	1.627329e+03
2.150000e-06	4.017256e-06	2.461500e-08	2.884895e+01	1.612251e+03
2.160000e-06	3.909705e-06	2.437871e-08	2.807660e+01	1.596604e+03
2.170000e-06	3.800773e-06	2.414947e-08	2.729433e+01	1.580314e+03
2.180000e-06	3.690435e-06	2.388840e-08	2.650196e+01	1.563293e+03
2.190000e-06	3.578623e-06	2.362237e-08	2.569901e+01	1.545459e+03
2.200000e-06	3.465379e-06	2.332825e-08	2.488578e+01	1.526745e+03
2.210000e-06	3.350787e-06	2.303093e-08	2.406287e+01	1.507110e+03
2.220000e-06	3.234769e-06	2.272244e-08	2.322971e+01	1.486539e+03
2.230000e-06	3.117318e-06	2.240196e-08	2.238627e+01	1.465027e+03
2.240000e-06	2.998521e-06	2.205936e-08	2.153315e+01	1.442568e+03
2.250000e-06	2.878614e-06	2.169556e-08	2.067207e+01	1.419132e+03
2.260000e-06	2.757700e-06	2.132145e-08	1.980375e+01	1.394651e+03
2.270000e-06	2.635803e-06	2.092786e-08	1.892838e+01	1.369018e+03
2.280000e-06	2.513021e-06	2.052567e-08	1.804665e+01	1.342086e+03
2.290000e-06	2.389445e-06	2.009908e-08	1.715922e+01	1.313688e+03
2.300000e-06	2.265037e-06	1.964824e-08	1.626581e+01	1.283652e+03
2.310000e-06	2.139766e-06	1.915894e-08	1.536621e+01	1.251822e+03
2.320000e-06	2.013642e-06	1.864314e-08	1.446048e+01	1.218063e+03
2.330000e-06	1.886736e-06	1.809368e-08	1.354914e+01	1.182265e+03
2.340000e-06	1.759105e-06	1.751602e-08	1.263258e+01	1.144322e+03
2.350000e-06	1.630901e-06	1.690877e-08	1.171192e+01	1.104116e+03
2.360000e-06	1.502199e-06	1.626507e-08	1.078768e+01	1.061494e+03
2.370000e-06	1.373023e-06	1.557837e-08	9.860030e+00	1.016256e+03
2.380000e-06	1.243468e-06	1.484176e-08	8.929665e+00	9.681661e+02
2.390000e-06	1.113514e-06	1.405717e-08	7.996428e+00	9.169759e+02
2.400000e-06	9.832204e-07	1.322030e-08	7.060759e+00	8.624732e+02
2.410000e-06	8.526173e-07	1.233775e-08	6.122864e+00	8.045376e+02
2.420000e-06	7.217509e-07	1.140927e-08	5.183079e+00	7.431933e+02
2.430000e-06	5.907012e-07	1.043023e-08	4.241977e+00	6.786440e+02
2.440000e-06	4.594625e-07	9.404172e-09	3.299519e+00	6.112761e+02
2.450000e-06	3.280848e-07	8.338460e-09	2.356061e+00	5.416257e+02
2.460000e-06	1.965867e-07	7.245385e-09	1.411740e+00	4.703087e+02
2.470000e-06	6.500241e-08	6.137797e-09	4.667990e-01	3.979280e+02
2.480000e-06	-6.661771e-08	5.024780e-09	-4.783989e-01	3.249730e+02
2.490000e-06	-1.982319e-07	3.907729e-09	-1.423555e+00	2.517360e+02
2.500000e-06	-3.298160e-07	2.783303e-09	-2.368493e+00	1.782634e+02
2.510000e-06	-4.613433e-07	1.650074e-09	-3.313025e+00	1.043575e+02
2.520000e-06	-5.927198e-07	5.035781e-10	-4.256474e+00	2.963140e+01
2.530000e-06	-7.238793e-07	-6.592045e-10	-5.198363e+00	-4.638963e+01
2.540000e-06	-8.547925e-07	-1.844765e-09	-6.138485e+00	-1.241399e+02
2.550000e-06	-9.854555e-07	-3.057343e-09	-7.076809e+00	-2.038825e+02
2.560000e-06	-1.115808e-06	-4.297702e-09	-8.012903e+00	-2.856025e+02
2.570000e-06	-1.245792e-06	-5.567178e-09	-8.946350e+00	-3.689477e+02
2.580000e-06	-1.375376e-06	-6.857801e-09	-9.876926e+00	-4.532282e+02
2.590000e-06	-1.504461e-06	-8.153149e-09	-1.080392e+01	-5.374767e+02
2.600000e-06	-1.633056e-06	-9.431022e-09	-1.172740e+01	-6.205589e+02
2.610000e-06	-1.761195e-06	-1.067162e-08	-1.264759e+01	-7.013106e+02
2.620000e-06	-1.888739e-06	-1.185819e-08	-1.356352e+01	-7.786778e+02
2.630000e-06	-2.015522e-06	-1.297616e-08	-1.447398e+01	-8.518329e+02
2.640000e-06	-2.141431e-06	-1.402115e-08	-1.537817e+01	-9.202484e+02
2.650000e-06	-2.266423e-06	-1.499369e-08	-1.627577e+01	-9.837181e+02
2.660000e-06	-2.390518e-06	-1.589353e-08	-1.716692e+01	-1.042327e+03
2.670000e-06	-2.513639e-06	-1.672712e-08	-1.805109e+01	-1.096383e+03
2.680000e-06	-2.635784e-06	-1.749790e-08	-1.892825e+01	-1.146325e+03
2.690000e-06	-2.757012e-06	-1.820969e-08	-1.979881e+01	-1.192635e+03
2.700000e-06	-2.877305e-06	-1.887192e-08	-2.066266e+01	-1.235757e+03
2.710000e-06	-2.996551e-06	-1.949129e-08	-2.151900e+01	-1.276058e+03
2.720000e-06	-3.114590e-06	-2.007219e-08	-2.236667e+01	-1.313808e+03
2.730000e-06	-3.231299e-06	-2.061259e-08	-2.320479e+01	-1.349191e+03
2.740000e-06	-3.346687e-06	-2.111460e-08	-2.403342e+01	-1.382339e+03
2.750000e-06	-3.460808e-06	-2.158538e-08	-2.485296e+01	-1.413365e+03
2.760000e-06	-3.573458e-06	-2.202909e-08	-2.566192e+01	-1.442393e+03
2.770000e-06	-3.684560e-06	-2.244541e-08	-2.645978e+01	-1.469570e+03
2.780000e-06	-3.794346e-06	-2.283822e-08	-2.724817e+01	-1.495072e+03
2.790000e-06	-3.902979e-06	-2.320956e-08	-2.802830e+01	-1.519085e+03
2.800000e-06	-4.010428e-06	-2.355892e-08	-2.879992e+01	-1.541787e+03
2.810000e-06	-4.116587e-06	-2.388735e-08	-2.956227e+01	-1.563328e+03
2.820000e-06	-4.221317e-06	-2.419859e-08	-3.031436e+01	-1.583817e+03
2.830000e-06	-4.324465e-06	-2.449652e-08	-3.105510e+01	-1.603318e+03
2.840000e-06	-4.425877e-06	-2.477947e-08	-3.178336e+01	-1.621860e+03
2.850000e-06	-4.525662e-06	-2.504873e-08	-3.249994e+01	-1.639455e+03
2.860000e-06	-4.623969e-06	-2.530392e-08	-3.320591e+01	-1.656112e+03
2.870000e-06	-4.720756e-06	-2.554393e-08	-3.390096e+01	-1.671856e+03
2.880000e-06	-4.815938e-06	-2.577152e-08	-3.458449e+01	-1.686734e+03
2.890000e-06	-4.909233e-06	-2.599015e-08	-3.525446e+01	-1.700816e+03
2.900000e-06	-5.000726e-06	-2.620063e-08	-3.591150e+01	-1.714183e+03
2.910000e-06	-5.090515e-06	-2.639993e-08	-3.655630e+01	-1.726919e+03
2.920000e-06	-5.178470e-06	-2.658769e-08	-3.718792e+01	-1.739093e+03
2.930000e-06	-5.264404e-06	-2.676615e-08	-3.780504e+01	-1.750749e+03
2.940000e-06	-5.348379e-06	-2.693543e-08	-3.840809e+01	-1.761908e+03
