# Temperatura_=_29.28
# Concentracion g/m^3_=_28200.0
# C_Vs_to_Am_M_A/Vsm_=_65563218390.804596
# pendiente_HvsI_1/m_=_3716.3
# ordenada_HvsI_A/m_=_1297.0
# frecuencia_Hz_=_302274.99467679963

Tiempo_(s)	Campo_(V.s)	Magnetizacion_(V.s)	Campo_(kA/m)	Magnetizacion_(A/m)
0.000000e+00	-6.932804e-06	-2.344301e-08	-4.951639e+01	-1.533981e+03
1.000000e-08	-6.929039e-06	-2.343933e-08	-4.948951e+01	-1.533610e+03
2.000000e-08	-6.923051e-06	-2.342635e-08	-4.944674e+01	-1.533079e+03
3.000000e-08	-6.914907e-06	-2.341639e-08	-4.938857e+01	-1.532374e+03
4.000000e-08	-6.904405e-06	-2.340445e-08	-4.931356e+01	-1.531488e+03
5.000000e-08	-6.891296e-06	-2.338810e-08	-4.921994e+01	-1.530420e+03
6.000000e-08	-6.875563e-06	-2.336259e-08	-4.910756e+01	-1.529179e+03
7.000000e-08	-6.857581e-06	-2.332885e-08	-4.897913e+01	-1.527785e+03
8.000000e-08	-6.837642e-06	-2.331612e-08	-4.883672e+01	-1.526271e+03
9.000000e-08	-6.815318e-06	-2.337485e-08	-4.867727e+01	-1.524673e+03
1.000000e-07	-6.790182e-06	-2.333085e-08	-4.849774e+01	-1.523031e+03
1.100000e-07	-6.762326e-06	-2.324728e-08	-4.829878e+01	-1.521373e+03
1.200000e-07	-6.732115e-06	-2.322601e-08	-4.808301e+01	-1.519715e+03
1.300000e-07	-6.699687e-06	-2.317605e-08	-4.785140e+01	-1.518049e+03
1.400000e-07	-6.665099e-06	-2.303107e-08	-4.760436e+01	-1.516344e+03
1.500000e-07	-6.628756e-06	-2.304755e-08	-4.734479e+01	-1.514545e+03
1.600000e-07	-6.590540e-06	-2.318661e-08	-4.707183e+01	-1.512585e+03
1.700000e-07	-6.550058e-06	-2.298614e-08	-4.678270e+01	-1.510392e+03
1.800000e-07	-6.507221e-06	-2.301985e-08	-4.647674e+01	-1.507902e+03
1.900000e-07	-6.461899e-06	-2.301426e-08	-4.615304e+01	-1.505072e+03
2.000000e-07	-6.414227e-06	-2.279098e-08	-4.581255e+01	-1.501886e+03
2.100000e-07	-6.363965e-06	-2.278804e-08	-4.545356e+01	-1.498359e+03
2.200000e-07	-6.310955e-06	-2.275731e-08	-4.507494e+01	-1.494531e+03
2.300000e-07	-6.255523e-06	-2.276310e-08	-4.467903e+01	-1.490456e+03
2.400000e-07	-6.197709e-06	-2.268143e-08	-4.426610e+01	-1.486191e+03
2.500000e-07	-6.137586e-06	-2.256858e-08	-4.383668e+01	-1.481783e+03
2.600000e-07	-6.075272e-06	-2.253553e-08	-4.339162e+01	-1.477254e+03
2.700000e-07	-6.010701e-06	-2.242461e-08	-4.293043e+01	-1.472602e+03
2.800000e-07	-5.943870e-06	-2.234372e-08	-4.245310e+01	-1.467798e+03
2.900000e-07	-5.874816e-06	-2.230772e-08	-4.195989e+01	-1.462795e+03
3.000000e-07	-5.803568e-06	-2.224702e-08	-4.145101e+01	-1.457540e+03
3.100000e-07	-5.730060e-06	-2.212530e-08	-4.092600e+01	-1.451986e+03
3.200000e-07	-5.654232e-06	-2.199252e-08	-4.038441e+01	-1.446103e+03
3.300000e-07	-5.576070e-06	-2.195273e-08	-3.982615e+01	-1.439881e+03
3.400000e-07	-5.495598e-06	-2.183756e-08	-3.925139e+01	-1.433333e+03
3.500000e-07	-5.413160e-06	-2.173028e-08	-3.866260e+01	-1.426481e+03
3.600000e-07	-5.329043e-06	-2.164347e-08	-3.806180e+01	-1.419355e+03
3.700000e-07	-5.243243e-06	-2.151482e-08	-3.744899e+01	-1.411971e+03
3.800000e-07	-5.155663e-06	-2.139354e-08	-3.682346e+01	-1.404333e+03
3.900000e-07	-5.066228e-06	-2.126973e-08	-3.618469e+01	-1.396422e+03
4.000000e-07	-4.974935e-06	-2.116663e-08	-3.553265e+01	-1.388201e+03
4.100000e-07	-4.881858e-06	-2.101479e-08	-3.486785e+01	-1.379625e+03
4.200000e-07	-4.787192e-06	-2.086975e-08	-3.419172e+01	-1.370648e+03
4.300000e-07	-4.690911e-06	-2.073111e-08	-3.350405e+01	-1.361234e+03
4.400000e-07	-4.592822e-06	-2.058340e-08	-3.280347e+01	-1.351364e+03
4.500000e-07	-4.492994e-06	-2.042785e-08	-3.209046e+01	-1.341039e+03
4.600000e-07	-4.391625e-06	-2.026028e-08	-3.136645e+01	-1.330272e+03
4.700000e-07	-4.288734e-06	-2.009214e-08	-3.063157e+01	-1.319080e+03
4.800000e-07	-4.184249e-06	-1.989892e-08	-2.988530e+01	-1.307472e+03
4.900000e-07	-4.078200e-06	-1.971703e-08	-2.912787e+01	-1.295440e+03
5.000000e-07	-3.970652e-06	-1.953687e-08	-2.835972e+01	-1.282955e+03
5.100000e-07	-3.861729e-06	-1.934816e-08	-2.758176e+01	-1.269963e+03
5.200000e-07	-3.751506e-06	-1.913222e-08	-2.679451e+01	-1.256400e+03
5.300000e-07	-3.639880e-06	-1.890298e-08	-2.599724e+01	-1.242192e+03
5.400000e-07	-3.526844e-06	-1.867292e-08	-2.518989e+01	-1.227277e+03
5.500000e-07	-3.412336e-06	-1.843237e-08	-2.437204e+01	-1.211608e+03
5.600000e-07	-3.296241e-06	-1.818712e-08	-2.354285e+01	-1.195156e+03
5.700000e-07	-3.178811e-06	-1.792519e-08	-2.270413e+01	-1.177909e+03
5.800000e-07	-3.060270e-06	-1.764905e-08	-2.185747e+01	-1.159858e+03
5.900000e-07	-2.940584e-06	-1.735315e-08	-2.100263e+01	-1.140991e+03
6.000000e-07	-2.819771e-06	-1.705194e-08	-2.013974e+01	-1.121273e+03
6.100000e-07	-2.697861e-06	-1.673875e-08	-1.926902e+01	-1.100641e+03
6.200000e-07	-2.574924e-06	-1.640987e-08	-1.839097e+01	-1.079003e+03
6.300000e-07	-2.451013e-06	-1.606125e-08	-1.750595e+01	-1.056242e+03
6.400000e-07	-2.326209e-06	-1.568565e-08	-1.661456e+01	-1.032225e+03
6.500000e-07	-2.200655e-06	-1.528931e-08	-1.571781e+01	-1.006818e+03
6.600000e-07	-2.074432e-06	-1.487585e-08	-1.481629e+01	-9.798968e+02
6.700000e-07	-1.947528e-06	-1.444791e-08	-1.390989e+01	-9.513508e+02
6.800000e-07	-1.819915e-06	-1.399144e-08	-1.299844e+01	-9.210815e+02
6.900000e-07	-1.691610e-06	-1.350220e-08	-1.208204e+01	-8.889944e+02
7.000000e-07	-1.562652e-06	-1.297818e-08	-1.116098e+01	-8.549892e+02
7.100000e-07	-1.433128e-06	-1.242486e-08	-1.023588e+01	-8.189508e+02
7.200000e-07	-1.303161e-06	-1.183835e-08	-9.307607e+00	-7.807497e+02
7.300000e-07	-1.172840e-06	-1.122171e-08	-8.376818e+00	-7.402530e+02
7.400000e-07	-1.042163e-06	-1.057283e-08	-7.443478e+00	-6.973479e+02
7.500000e-07	-9.111268e-07	-9.880445e-09	-6.507571e+00	-6.519737e+02
7.600000e-07	-7.797453e-07	-9.151224e-09	-5.569201e+00	-6.041564e+02
7.700000e-07	-6.480970e-07	-8.386466e-09	-4.628925e+00	-5.540358e+02
7.800000e-07	-5.163069e-07	-7.591489e-09	-3.687636e+00	-5.018781e+02
7.900000e-07	-3.843786e-07	-6.770677e-09	-2.745360e+00	-4.480647e+02
8.000000e-07	-2.522586e-07	-5.933811e-09	-1.801715e+00	-3.930574e+02
8.100000e-07	-1.199993e-07	-5.086821e-09	-8.570750e-01	-3.373421e+02
8.200000e-07	1.234848e-08	-4.236080e-09	8.819699e-02	-2.813603e+02
8.300000e-07	1.447283e-07	-3.387881e-09	1.033697e+00	-2.254410e+02
8.400000e-07	2.770811e-07	-2.543182e-09	1.979005e+00	-1.697475e+02
8.500000e-07	4.093388e-07	-1.700539e-09	2.923634e+00	-1.142518e+02
8.600000e-07	5.414377e-07	-8.540236e-10	3.867129e+00	-5.874315e+01
8.700000e-07	6.733910e-07	-2.758426e-12	4.809583e+00	-2.873058e+00
8.800000e-07	8.051733e-07	8.590421e-10	5.750816e+00	5.377039e+01
8.900000e-07	9.367162e-07	1.736976e-09	6.690340e+00	1.115717e+02
9.000000e-07	1.067959e-06	2.637993e-09	7.627720e+00	1.707969e+02
9.100000e-07	1.198875e-06	3.560792e-09	8.562766e+00	2.315195e+02
9.200000e-07	1.329395e-06	4.505002e-09	9.494982e+00	2.935776e+02
9.300000e-07	1.459436e-06	5.465277e-09	1.042378e+01	3.565695e+02
9.400000e-07	1.588909e-06	6.430942e-09	1.134852e+01	4.198890e+02
9.500000e-07	1.717715e-06	7.392479e-09	1.226849e+01	4.827931e+02
9.600000e-07	1.845846e-06	8.333611e-09	1.318365e+01	5.444893e+02
9.700000e-07	1.973209e-06	9.241996e-09	1.409331e+01	6.042258e+02
9.800000e-07	2.099795e-06	1.010772e-08	1.499743e+01	6.613707e+02
9.900000e-07	2.225656e-06	1.092809e-08	1.589638e+01	7.154660e+02
1.000000e-06	2.350741e-06	1.169366e-08	1.678978e+01	7.662516e+02
1.010000e-06	2.475023e-06	1.240707e-08	1.767744e+01	8.136580e+02
1.020000e-06	2.598412e-06	1.307427e-08	1.855872e+01	8.577740e+02
1.030000e-06	2.720856e-06	1.369779e-08	1.943326e+01	8.987986e+02
1.040000e-06	2.842243e-06	1.428061e-08	2.030025e+01	9.369891e+02
1.050000e-06	2.962494e-06	1.482255e-08	2.115912e+01	9.726147e+02
1.060000e-06	3.081589e-06	1.532701e-08	2.200974e+01	1.005923e+03
1.070000e-06	3.199620e-06	1.579832e-08	2.285276e+01	1.037125e+03
1.080000e-06	3.316604e-06	1.624285e-08	2.368829e+01	1.066390e+03
1.090000e-06	3.432271e-06	1.665940e-08	2.451442e+01	1.093856e+03
1.100000e-06	3.546499e-06	1.705055e-08	2.533028e+01	1.119643e+03
1.110000e-06	3.659263e-06	1.741733e-08	2.613568e+01	1.143866e+03
1.120000e-06	3.770647e-06	1.776268e-08	2.693122e+01	1.166643e+03
1.130000e-06	3.880817e-06	1.809057e-08	2.771809e+01	1.188095e+03
1.140000e-06	3.989756e-06	1.840155e-08	2.849617e+01	1.208343e+03
1.150000e-06	4.097333e-06	1.869455e-08	2.926452e+01	1.227501e+03
1.160000e-06	4.203486e-06	1.896969e-08	3.002270e+01	1.245663e+03
1.170000e-06	4.307999e-06	1.923047e-08	3.076916e+01	1.262907e+03
1.180000e-06	4.410825e-06	1.947615e-08	3.150358e+01	1.279286e+03
1.190000e-06	4.512234e-06	1.970768e-08	3.222788e+01	1.294837e+03
1.200000e-06	4.612107e-06	1.992984e-08	3.294120e+01	1.309589e+03
1.210000e-06	4.710238e-06	2.014166e-08	3.364209e+01	1.323567e+03
1.220000e-06	4.806531e-06	2.034194e-08	3.432984e+01	1.336805e+03
1.230000e-06	4.901024e-06	2.053170e-08	3.500474e+01	1.349340e+03
1.240000e-06	4.993882e-06	2.071229e-08	3.566797e+01	1.361223e+03
1.250000e-06	5.085066e-06	2.088503e-08	3.631924e+01	1.372503e+03
1.260000e-06	5.174351e-06	2.104946e-08	3.695694e+01	1.383229e+03
1.270000e-06	5.261675e-06	2.120395e-08	3.758063e+01	1.393438e+03
1.280000e-06	5.347197e-06	2.135008e-08	3.819146e+01	1.403157e+03
1.290000e-06	5.430912e-06	2.149078e-08	3.878939e+01	1.412399e+03
1.300000e-06	5.512593e-06	2.162536e-08	3.937278e+01	1.421164e+03
1.310000e-06	5.592168e-06	2.175300e-08	3.994112e+01	1.429452e+03
1.320000e-06	5.669743e-06	2.187533e-08	4.049520e+01	1.437264e+03
1.330000e-06	5.745169e-06	2.199174e-08	4.103391e+01	1.444608e+03
1.340000e-06	5.818258e-06	2.209846e-08	4.155594e+01	1.451504e+03
1.350000e-06	5.889185e-06	2.219641e-08	4.206252e+01	1.457985e+03
1.360000e-06	5.958087e-06	2.228917e-08	4.255464e+01	1.464089e+03
1.370000e-06	6.024851e-06	2.237859e-08	4.303150e+01	1.469860e+03
1.380000e-06	6.089383e-06	2.246169e-08	4.349240e+01	1.475337e+03
1.390000e-06	6.151814e-06	2.253968e-08	4.393831e+01	1.480552e+03
1.400000e-06	6.212265e-06	2.261479e-08	4.437007e+01	1.485525e+03
1.410000e-06	6.270493e-06	2.268590e-08	4.478595e+01	1.490265e+03
1.420000e-06	6.326391e-06	2.275295e-08	4.518519e+01	1.494769e+03
1.430000e-06	6.380054e-06	2.281797e-08	4.556848e+01	1.499032e+03
1.440000e-06	6.431177e-06	2.288090e-08	4.593361e+01	1.503043e+03
1.450000e-06	6.479611e-06	2.293937e-08	4.627954e+01	1.506797e+03
1.460000e-06	6.525697e-06	2.299255e-08	4.660870e+01	1.510290e+03
1.470000e-06	6.569633e-06	2.303933e-08	4.692251e+01	1.513525e+03
1.480000e-06	6.611169e-06	2.308232e-08	4.721917e+01	1.516509e+03
1.490000e-06	6.650221e-06	2.312349e-08	4.749809e+01	1.519253e+03
1.500000e-06	6.687067e-06	2.316253e-08	4.776126e+01	1.521765e+03
1.510000e-06	6.721673e-06	2.319869e-08	4.800843e+01	1.524056e+03
1.520000e-06	6.753819e-06	2.323108e-08	4.823802e+01	1.526132e+03
1.530000e-06	6.783564e-06	2.325930e-08	4.845048e+01	1.527998e+03
1.540000e-06	6.810978e-06	2.328494e-08	4.864627e+01	1.529658e+03
1.550000e-06	6.835817e-06	2.330870e-08	4.882368e+01	1.531114e+03
1.560000e-06	6.858088e-06	2.332791e-08	4.898275e+01	1.532371e+03
1.570000e-06	6.878066e-06	2.334343e-08	4.912544e+01	1.533434e+03
1.580000e-06	6.895576e-06	2.335631e-08	4.925050e+01	1.534313e+03
1.590000e-06	6.910472e-06	2.336553e-08	4.935689e+01	1.535016e+03
1.600000e-06	6.922790e-06	2.337262e-08	4.944487e+01	1.535556e+03
1.610000e-06	6.932292e-06	2.337935e-08	4.951274e+01	1.535943e+03
1.620000e-06	6.939122e-06	2.338703e-08	4.956152e+01	1.536186e+03
1.630000e-06	6.943666e-06	2.339345e-08	4.959398e+01	1.536292e+03
1.640000e-06	6.945755e-06	2.339517e-08	4.960890e+01	1.536264e+03
1.650000e-06	6.945270e-06	2.339496e-08	4.960544e+01	1.536098e+03
1.660000e-06	6.942573e-06	2.338264e-08	4.958617e+01	1.535787e+03
1.670000e-06	6.937624e-06	2.337457e-08	4.955082e+01	1.535320e+03
1.680000e-06	6.930242e-06	2.336612e-08	4.949810e+01	1.534684e+03
1.690000e-06	6.920623e-06	2.335330e-08	4.942940e+01	1.533870e+03
1.700000e-06	6.908710e-06	2.334143e-08	4.934431e+01	1.532872e+03
1.710000e-06	6.894281e-06	2.333399e-08	4.924126e+01	1.531697e+03
1.720000e-06	6.877575e-06	2.333821e-08	4.912194e+01	1.530360e+03
1.730000e-06	6.858950e-06	2.328244e-08	4.898891e+01	1.528888e+03
1.740000e-06	6.837922e-06	2.317264e-08	4.883872e+01	1.527318e+03
1.750000e-06	6.813614e-06	2.320610e-08	4.866510e+01	1.525689e+03
1.760000e-06	6.786102e-06	2.321357e-08	4.846860e+01	1.524034e+03
1.770000e-06	6.755954e-06	2.314398e-08	4.825327e+01	1.522376e+03
1.780000e-06	6.723723e-06	2.322386e-08	4.802307e+01	1.520715e+03
1.790000e-06	6.690014e-06	2.325436e-08	4.778231e+01	1.519030e+03
1.800000e-06	6.654871e-06	2.302885e-08	4.753131e+01	1.517276e+03
1.810000e-06	6.617388e-06	2.312880e-08	4.726359e+01	1.515387e+03
1.820000e-06	6.577331e-06	2.310381e-08	4.697749e+01	1.513294e+03
1.830000e-06	6.535194e-06	2.296418e-08	4.667653e+01	1.510926e+03
1.840000e-06	6.490733e-06	2.314058e-08	4.635898e+01	1.508233e+03
1.850000e-06	6.443914e-06	2.298226e-08	4.602458e+01	1.505187e+03
1.860000e-06	6.394725e-06	2.296987e-08	4.567326e+01	1.501790e+03
1.870000e-06	6.343034e-06	2.286827e-08	4.530406e+01	1.498074e+03
1.880000e-06	6.288863e-06	2.267445e-08	4.491716e+01	1.494088e+03
1.890000e-06	6.232131e-06	2.277570e-08	4.451196e+01	1.489891e+03
1.900000e-06	6.173115e-06	2.263180e-08	4.409044e+01	1.485535e+03
1.910000e-06	6.111827e-06	2.264669e-08	4.365271e+01	1.481052e+03
1.920000e-06	6.048118e-06	2.261961e-08	4.319768e+01	1.476450e+03
1.930000e-06	5.982231e-06	2.242611e-08	4.272709e+01	1.471711e+03
1.940000e-06	5.914137e-06	2.239629e-08	4.224074e+01	1.466792e+03
1.950000e-06	5.843681e-06	2.225297e-08	4.173752e+01	1.461642e+03
1.960000e-06	5.770831e-06	2.226699e-08	4.121720e+01	1.456209e+03
1.970000e-06	5.695865e-06	2.214357e-08	4.068177e+01	1.450457e+03
1.980000e-06	5.618631e-06	2.204192e-08	4.013013e+01	1.444368e+03
1.990000e-06	5.539004e-06	2.198701e-08	3.956142e+01	1.437945e+03
2.000000e-06	5.457504e-06	2.180892e-08	3.897931e+01	1.431209e+03
2.010000e-06	5.374264e-06	2.176129e-08	3.838478e+01	1.424188e+03
2.020000e-06	5.289141e-06	2.162984e-08	3.777681e+01	1.416903e+03
2.030000e-06	5.201910e-06	2.153990e-08	3.715378e+01	1.409366e+03
2.040000e-06	5.112736e-06	2.139467e-08	3.651686e+01	1.401565e+03
2.050000e-06	5.022001e-06	2.126427e-08	3.586881e+01	1.393471e+03
2.060000e-06	4.929624e-06	2.116622e-08	3.520902e+01	1.385040e+03
2.070000e-06	4.835416e-06	2.101003e-08	3.453615e+01	1.376225e+03
2.080000e-06	4.739401e-06	2.088424e-08	3.385038e+01	1.366985e+03
2.090000e-06	4.641798e-06	2.071326e-08	3.315327e+01	1.357295e+03
2.100000e-06	4.542647e-06	2.056998e-08	3.244510e+01	1.347148e+03
2.110000e-06	4.441891e-06	2.040613e-08	3.172546e+01	1.336553e+03
2.120000e-06	4.339524e-06	2.026114e-08	3.099432e+01	1.325525e+03
2.130000e-06	4.235520e-06	2.009763e-08	3.025150e+01	1.314080e+03
2.140000e-06	4.129956e-06	1.990185e-08	2.949752e+01	1.302217e+03
2.150000e-06	4.023014e-06	1.970377e-08	2.873370e+01	1.289914e+03
2.160000e-06	3.914690e-06	1.950143e-08	2.796002e+01	1.277129e+03
2.170000e-06	3.804926e-06	1.931123e-08	2.717605e+01	1.263798e+03
2.180000e-06	3.693752e-06	1.910259e-08	2.638201e+01	1.249851e+03
2.190000e-06	3.581052e-06	1.889076e-08	2.557707e+01	1.235221e+03
2.200000e-06	3.466984e-06	1.864812e-08	2.476236e+01	1.219852e+03
2.210000e-06	3.351567e-06	1.839609e-08	2.393801e+01	1.203710e+03
2.220000e-06	3.234671e-06	1.813728e-08	2.310310e+01	1.186775e+03
2.230000e-06	3.116408e-06	1.788415e-08	2.225842e+01	1.169041e+03
2.240000e-06	2.996853e-06	1.760932e-08	2.140452e+01	1.150497e+03
2.250000e-06	2.876127e-06	1.731197e-08	2.054225e+01	1.131119e+03
2.260000e-06	2.754434e-06	1.699585e-08	1.967308e+01	1.110855e+03
2.270000e-06	2.631840e-06	1.666411e-08	1.879748e+01	1.089625e+03
2.280000e-06	2.508266e-06	1.632792e-08	1.791487e+01	1.067320e+03
2.290000e-06	2.383733e-06	1.597967e-08	1.702541e+01	1.043812e+03
2.300000e-06	2.258382e-06	1.561167e-08	1.613011e+01	1.018966e+03
2.310000e-06	2.132231e-06	1.520871e-08	1.522911e+01	9.926536e+02
2.320000e-06	2.005286e-06	1.478115e-08	1.432242e+01	9.647580e+02
2.330000e-06	1.877617e-06	1.432717e-08	1.341057e+01	9.351766e+02
2.340000e-06	1.749257e-06	1.385295e-08	1.249378e+01	9.038148e+02
2.350000e-06	1.620271e-06	1.335096e-08	1.157252e+01	8.705757e+02
2.360000e-06	1.490778e-06	1.281623e-08	1.064763e+01	8.353504e+02
2.370000e-06	1.360897e-06	1.224306e-08	9.719979e+00	7.980147e+02
2.380000e-06	1.230709e-06	1.163130e-08	8.790131e+00	7.584348e+02
2.390000e-06	1.100203e-06	1.098920e-08	7.858019e+00	7.164864e+02
2.400000e-06	9.693159e-07	1.031167e-08	6.923177e+00	6.720844e+02
2.410000e-06	8.380864e-07	9.601732e-09	5.985892e+00	6.252166e+02
2.420000e-06	7.065642e-07	8.856130e-09	5.046517e+00	5.759759e+02
2.430000e-06	5.747700e-07	8.072118e-09	4.105199e+00	5.245785e+02
2.440000e-06	4.427674e-07	7.254967e-09	3.162392e+00	4.713636e+02
2.450000e-06	3.106675e-07	6.415258e-09	2.218891e+00	4.167669e+02
2.460000e-06	1.784718e-07	5.566408e-09	1.274705e+00	3.612728e+02
2.470000e-06	4.614739e-08	4.710852e-09	3.296000e-01	3.053485e+02
2.480000e-06	-8.629516e-08	3.853441e-09	-6.163488e-01	2.493748e+02
2.490000e-06	-2.187639e-07	3.000373e-09	-1.562485e+00	1.935848e+02
2.500000e-06	-3.510964e-07	2.151853e-09	-2.507648e+00	1.380268e+02
2.510000e-06	-4.833043e-07	1.302809e-09	-3.451921e+00	8.255824e+01
2.520000e-06	-6.154228e-07	4.472566e-10	-4.395555e+00	2.687736e+01
2.530000e-06	-7.473732e-07	-4.169605e-10	-5.337989e+00	-2.941309e+01
2.540000e-06	-8.790470e-07	-1.293679e-09	-6.278447e+00	-8.671963e+01
2.550000e-06	-1.010334e-06	-2.187408e-09	-7.216144e+00	-1.453650e+02
2.560000e-06	-1.141181e-06	-3.101922e-09	-8.150697e+00	-2.055054e+02
2.570000e-06	-1.271659e-06	-4.038579e-09	-9.082613e+00	-2.670741e+02
2.580000e-06	-1.401846e-06	-4.995236e-09	-1.001245e+01	-3.297617e+02
2.590000e-06	-1.531665e-06	-5.965302e-09	-1.093966e+01	-3.930356e+02
2.600000e-06	-1.660921e-06	-6.933570e-09	-1.186285e+01	-4.561970e+02
2.610000e-06	-1.789554e-06	-7.885849e-09	-1.278159e+01	-5.184620e+02
2.620000e-06	-1.917578e-06	-8.811933e-09	-1.369598e+01	-5.790522e+02
2.630000e-06	-2.044870e-06	-9.703653e-09	-1.460515e+01	-6.372806e+02
2.640000e-06	-2.171400e-06	-1.055326e-08	-1.550886e+01	-6.926164e+02
2.650000e-06	-2.297134e-06	-1.135309e-08	-1.640690e+01	-7.447209e+02
2.660000e-06	-2.421906e-06	-1.210036e-08	-1.729806e+01	-7.934524e+02
2.670000e-06	-2.545621e-06	-1.279604e-08	-1.818167e+01	-8.388425e+02
2.680000e-06	-2.668329e-06	-1.344320e-08	-1.905810e+01	-8.810533e+02
2.690000e-06	-2.790107e-06	-1.404559e-08	-1.992788e+01	-9.203252e+02
2.700000e-06	-2.910877e-06	-1.460874e-08	-2.079045e+01	-9.569274e+02
2.710000e-06	-3.030583e-06	-1.513531e-08	-2.164543e+01	-9.911193e+02
2.720000e-06	-3.149207e-06	-1.562551e-08	-2.249268e+01	-1.023127e+03
2.730000e-06	-3.266608e-06	-1.608329e-08	-2.333120e+01	-1.053135e+03
2.740000e-06	-3.382628e-06	-1.651268e-08	-2.415986e+01	-1.081293e+03
2.750000e-06	-3.497218e-06	-1.691771e-08	-2.497829e+01	-1.107726e+03
2.760000e-06	-3.610367e-06	-1.729922e-08	-2.578645e+01	-1.132550e+03
2.770000e-06	-3.722032e-06	-1.765462e-08	-2.658399e+01	-1.155881e+03
2.780000e-06	-3.832271e-06	-1.798805e-08	-2.737136e+01	-1.177839e+03
2.790000e-06	-3.941223e-06	-1.830448e-08	-2.814953e+01	-1.198547e+03
2.800000e-06	-4.048973e-06	-1.860540e-08	-2.891911e+01	-1.218120e+03
2.810000e-06	-4.155483e-06	-1.889015e-08	-2.967985e+01	-1.236664e+03
2.820000e-06	-4.260557e-06	-1.916053e-08	-3.043032e+01	-1.254261e+03
2.830000e-06	-4.364040e-06	-1.941859e-08	-3.116943e+01	-1.270975e+03
2.840000e-06	-4.465840e-06	-1.966269e-08	-3.189652e+01	-1.286848e+03
2.850000e-06	-4.565924e-06	-1.989491e-08	-3.261135e+01	-1.301911e+03
2.860000e-06	-4.664466e-06	-2.011642e-08	-3.331517e+01	-1.316190e+03
2.870000e-06	-4.761508e-06	-2.032559e-08	-3.400828e+01	-1.329715e+03
2.880000e-06	-4.856854e-06	-2.052147e-08	-3.468927e+01	-1.342521e+03
2.890000e-06	-4.950372e-06	-2.070590e-08	-3.535720e+01	-1.354655e+03
2.900000e-06	-5.042115e-06	-2.088266e-08	-3.601247e+01	-1.366166e+03
2.910000e-06	-5.132164e-06	-2.105065e-08	-3.665562e+01	-1.377104e+03
2.920000e-06	-5.220379e-06	-2.120904e-08	-3.728569e+01	-1.387513e+03
2.930000e-06	-5.306503e-06	-2.136136e-08	-3.790081e+01	-1.397423e+03
2.940000e-06	-5.390568e-06	-2.150747e-08	-3.850123e+01	-1.406851e+03
