# Temperatura_=_54.16
# Concentracion g/m^3_=_28200.0
# C_Vs_to_Am_M_A/Vsm_=_65563218390.804596
# pendiente_HvsI_1/m_=_3716.3
# ordenada_HvsI_A/m_=_1297.0
# frecuencia_Hz_=_302274.6071586233

Tiempo_(s)	Campo_(V.s)	Magnetizacion_(V.s)	Campo_(kA/m)	Magnetizacion_(A/m)
0.000000e+00	-6.911528e-06	-2.717380e-08	-4.952092e+01	-1.778973e+03
1.000000e-08	-6.908601e-06	-2.716819e-08	-4.949995e+01	-1.778506e+03
2.000000e-08	-6.903374e-06	-2.715531e-08	-4.946250e+01	-1.777842e+03
3.000000e-08	-6.896024e-06	-2.714249e-08	-4.940984e+01	-1.776989e+03
4.000000e-08	-6.886336e-06	-2.712920e-08	-4.934042e+01	-1.775965e+03
5.000000e-08	-6.874070e-06	-2.711151e-08	-4.925254e+01	-1.774788e+03
6.000000e-08	-6.859187e-06	-2.709106e-08	-4.914590e+01	-1.773471e+03
7.000000e-08	-6.841926e-06	-2.706437e-08	-4.902223e+01	-1.772028e+03
8.000000e-08	-6.822643e-06	-2.703025e-08	-4.888407e+01	-1.770466e+03
9.000000e-08	-6.801161e-06	-2.705212e-08	-4.873015e+01	-1.768789e+03
1.000000e-07	-6.777048e-06	-2.704997e-08	-4.855738e+01	-1.767003e+03
1.100000e-07	-6.750129e-06	-2.697356e-08	-4.836451e+01	-1.765110e+03
1.200000e-07	-6.720666e-06	-2.692195e-08	-4.815340e+01	-1.763114e+03
1.300000e-07	-6.689016e-06	-2.689851e-08	-4.792663e+01	-1.761019e+03
1.400000e-07	-6.655199e-06	-2.681097e-08	-4.768434e+01	-1.758818e+03
1.500000e-07	-6.619555e-06	-2.673154e-08	-4.742895e+01	-1.756499e+03
1.600000e-07	-6.582128e-06	-2.681900e-08	-4.716078e+01	-1.754039e+03
1.700000e-07	-6.542535e-06	-2.671165e-08	-4.687710e+01	-1.751400e+03
1.800000e-07	-6.500621e-06	-2.660311e-08	-4.657679e+01	-1.748543e+03
1.900000e-07	-6.456217e-06	-2.664934e-08	-4.625863e+01	-1.745425e+03
2.000000e-07	-6.409417e-06	-2.652374e-08	-4.592331e+01	-1.742010e+03
2.100000e-07	-6.360165e-06	-2.648273e-08	-4.557043e+01	-1.738278e+03
2.200000e-07	-6.308222e-06	-2.647060e-08	-4.519825e+01	-1.734226e+03
2.300000e-07	-6.253774e-06	-2.638900e-08	-4.480813e+01	-1.729868e+03
2.400000e-07	-6.197001e-06	-2.632305e-08	-4.440136e+01	-1.725233e+03
2.500000e-07	-6.137813e-06	-2.621594e-08	-4.397728e+01	-1.720355e+03
2.600000e-07	-6.076324e-06	-2.614436e-08	-4.353671e+01	-1.715266e+03
2.700000e-07	-6.012650e-06	-2.605932e-08	-4.308048e+01	-1.709985e+03
2.800000e-07	-5.946695e-06	-2.596953e-08	-4.260792e+01	-1.704513e+03
2.900000e-07	-5.878483e-06	-2.589666e-08	-4.211919e+01	-1.698833e+03
3.000000e-07	-5.808136e-06	-2.579393e-08	-4.161515e+01	-1.692916e+03
3.100000e-07	-5.735635e-06	-2.571436e-08	-4.109568e+01	-1.686724e+03
3.200000e-07	-5.660788e-06	-2.560138e-08	-4.055940e+01	-1.680220e+03
3.300000e-07	-5.583545e-06	-2.550121e-08	-4.000596e+01	-1.673379e+03
3.400000e-07	-5.504029e-06	-2.538882e-08	-3.943623e+01	-1.666187e+03
3.500000e-07	-5.422460e-06	-2.526914e-08	-3.885179e+01	-1.658646e+03
3.600000e-07	-5.339106e-06	-2.516824e-08	-3.825456e+01	-1.650762e+03
3.700000e-07	-5.254028e-06	-2.503550e-08	-3.764498e+01	-1.642546e+03
3.800000e-07	-5.167213e-06	-2.491092e-08	-3.702295e+01	-1.634000e+03
3.900000e-07	-5.078583e-06	-2.477129e-08	-3.638792e+01	-1.625116e+03
4.000000e-07	-4.988072e-06	-2.462080e-08	-3.573941e+01	-1.615871e+03
4.100000e-07	-4.895770e-06	-2.446319e-08	-3.507807e+01	-1.606236e+03
4.200000e-07	-4.801865e-06	-2.431497e-08	-3.440524e+01	-1.596174e+03
4.300000e-07	-4.706416e-06	-2.416274e-08	-3.372135e+01	-1.585656e+03
4.400000e-07	-4.609208e-06	-2.398800e-08	-3.302486e+01	-1.574661e+03
4.500000e-07	-4.510202e-06	-2.380936e-08	-3.231548e+01	-1.563180e+03
4.600000e-07	-4.409622e-06	-2.362601e-08	-3.159483e+01	-1.551214e+03
4.700000e-07	-4.307493e-06	-2.343663e-08	-3.086308e+01	-1.538769e+03
4.800000e-07	-4.203854e-06	-2.324164e-08	-3.012051e+01	-1.525843e+03
4.900000e-07	-4.098712e-06	-2.304691e-08	-2.936717e+01	-1.512424e+03
5.000000e-07	-3.991990e-06	-2.283463e-08	-2.860251e+01	-1.498478e+03
5.100000e-07	-3.883811e-06	-2.260196e-08	-2.782741e+01	-1.483953e+03
5.200000e-07	-3.774279e-06	-2.235804e-08	-2.704261e+01	-1.468786e+03
5.300000e-07	-3.663438e-06	-2.210879e-08	-2.624844e+01	-1.452908e+03
5.400000e-07	-3.551262e-06	-2.185142e-08	-2.544470e+01	-1.436259e+03
5.500000e-07	-3.437585e-06	-2.158383e-08	-2.463021e+01	-1.418792e+03
5.600000e-07	-3.322401e-06	-2.130855e-08	-2.380492e+01	-1.400478e+03
5.700000e-07	-3.205825e-06	-2.101910e-08	-2.296966e+01	-1.381300e+03
5.800000e-07	-3.087972e-06	-2.071345e-08	-2.212524e+01	-1.361246e+03
5.900000e-07	-2.969028e-06	-2.039254e-08	-2.127301e+01	-1.340289e+03
6.000000e-07	-2.849046e-06	-2.006070e-08	-2.041334e+01	-1.318382e+03
6.100000e-07	-2.727947e-06	-1.970952e-08	-1.954567e+01	-1.295444e+03
6.200000e-07	-2.605710e-06	-1.933708e-08	-1.866985e+01	-1.271360e+03
6.300000e-07	-2.482436e-06	-1.894287e-08	-1.778659e+01	-1.245992e+03
6.400000e-07	-2.358252e-06	-1.852629e-08	-1.689682e+01	-1.219185e+03
6.500000e-07	-2.233273e-06	-1.808821e-08	-1.600135e+01	-1.190789e+03
6.600000e-07	-2.107639e-06	-1.762872e-08	-1.510118e+01	-1.160668e+03
6.700000e-07	-1.981350e-06	-1.714611e-08	-1.419633e+01	-1.128702e+03
6.800000e-07	-1.854383e-06	-1.663387e-08	-1.328661e+01	-1.094785e+03
6.900000e-07	-1.726791e-06	-1.608721e-08	-1.237242e+01	-1.058809e+03
7.000000e-07	-1.598597e-06	-1.550203e-08	-1.145391e+01	-1.020651e+03
7.100000e-07	-1.469753e-06	-1.488141e-08	-1.053075e+01	-9.801538e+02
7.200000e-07	-1.340353e-06	-1.422144e-08	-9.603599e+00	-9.371243e+02
7.300000e-07	-1.210572e-06	-1.352199e-08	-8.673721e+00	-8.913478e+02
7.400000e-07	-1.080394e-06	-1.277971e-08	-7.740995e+00	-8.426165e+02
7.500000e-07	-9.498242e-07	-1.198869e-08	-6.805466e+00	-7.907740e+02
7.600000e-07	-8.189437e-07	-1.114897e-08	-5.867711e+00	-7.357649e+02
7.700000e-07	-6.877471e-07	-1.026237e-08	-4.927691e+00	-6.776774e+02
7.800000e-07	-5.563066e-07	-9.333711e-09	-3.985923e+00	-6.167671e+02
7.900000e-07	-4.247400e-07	-8.370288e-09	-3.043251e+00	-5.534516e+02
8.000000e-07	-2.930685e-07	-7.381360e-09	-2.099829e+00	-4.882719e+02
8.100000e-07	-1.612264e-07	-6.371644e-09	-1.155183e+00	-4.218235e+02
8.200000e-07	-2.919479e-08	-5.350033e-09	-2.091799e-01	-3.546681e+02
8.300000e-07	1.028840e-07	-4.323511e-09	7.371613e-01	-2.872439e+02
8.400000e-07	2.349456e-07	-3.295536e-09	1.683379e+00	-2.197919e+02
8.500000e-07	3.669390e-07	-2.267195e-09	2.629109e+00	-1.523177e+02
8.600000e-07	4.987958e-07	-1.236605e-09	3.573860e+00	-8.459782e+01
8.700000e-07	6.304952e-07	-1.981779e-10	4.517482e+00	-1.623556e+01
8.800000e-07	7.620239e-07	8.574841e-10	5.459882e+00	5.324387e+01
8.900000e-07	8.933243e-07	1.936825e-09	6.400646e+00	1.242747e+02
9.000000e-07	1.024250e-06	3.044967e-09	7.338725e+00	1.971312e+02
9.100000e-07	1.154788e-06	4.181273e-09	8.274025e+00	2.718317e+02
9.200000e-07	1.284943e-06	5.342756e-09	9.206584e+00	3.480845e+02
9.300000e-07	1.414659e-06	6.521305e-09	1.013600e+01	4.252880e+02
9.400000e-07	1.543817e-06	7.702753e-09	1.106141e+01	5.025845e+02
9.500000e-07	1.672310e-06	8.870745e-09	1.198206e+01	5.789582e+02
9.600000e-07	1.800110e-06	1.000398e-08	1.289774e+01	6.533581e+02
9.700000e-07	1.927238e-06	1.108594e-08	1.380861e+01	7.248227e+02
9.800000e-07	2.053711e-06	1.210731e-08	1.471479e+01	7.925852e+02
9.900000e-07	2.179464e-06	1.306397e-08	1.561580e+01	8.561403e+02
1.000000e-06	2.304492e-06	1.395515e-08	1.651163e+01	9.152660e+02
1.010000e-06	2.428771e-06	1.478393e-08	1.740208e+01	9.700002e+02
1.020000e-06	2.552171e-06	1.555344e-08	1.828624e+01	1.020582e+03
1.030000e-06	2.674555e-06	1.626825e-08	1.916312e+01	1.067375e+03
1.040000e-06	2.795861e-06	1.693208e-08	2.003228e+01	1.110788e+03
1.050000e-06	2.915978e-06	1.755038e-08	2.089291e+01	1.151207e+03
1.060000e-06	3.035005e-06	1.812605e-08	2.174574e+01	1.188957e+03
1.070000e-06	3.153026e-06	1.866145e-08	2.259135e+01	1.224285e+03
1.080000e-06	3.269932e-06	1.915950e-08	2.342898e+01	1.257370e+03
1.090000e-06	3.385562e-06	1.962491e-08	2.425747e+01	1.288346e+03
1.100000e-06	3.499800e-06	2.006160e-08	2.507598e+01	1.317329e+03
1.110000e-06	3.612611e-06	2.047086e-08	2.588426e+01	1.344447e+03
1.120000e-06	3.724036e-06	2.085643e-08	2.668262e+01	1.369844e+03
1.130000e-06	3.834204e-06	2.122224e-08	2.747197e+01	1.393686e+03
1.140000e-06	3.943181e-06	2.156932e-08	2.825279e+01	1.416144e+03
1.150000e-06	4.050912e-06	2.189569e-08	2.902468e+01	1.437378e+03
1.160000e-06	4.157169e-06	2.220363e-08	2.978601e+01	1.457521e+03
1.170000e-06	4.261773e-06	2.249427e-08	3.053549e+01	1.476669e+03
1.180000e-06	4.364789e-06	2.276667e-08	3.127361e+01	1.494875e+03
1.190000e-06	4.466337e-06	2.302114e-08	3.200119e+01	1.512167e+03
1.200000e-06	4.566385e-06	2.326360e-08	3.271803e+01	1.528553e+03
1.210000e-06	4.664793e-06	2.349815e-08	3.342313e+01	1.544047e+03
1.220000e-06	4.761379e-06	2.372415e-08	3.411516e+01	1.558675e+03
1.230000e-06	4.856177e-06	2.393712e-08	3.479439e+01	1.572487e+03
1.240000e-06	4.949298e-06	2.413619e-08	3.546160e+01	1.585551e+03
1.250000e-06	5.040753e-06	2.432520e-08	3.611687e+01	1.597949e+03
1.260000e-06	5.130383e-06	2.450430e-08	3.675906e+01	1.609756e+03
1.270000e-06	5.218053e-06	2.467224e-08	3.738722e+01	1.621034e+03
1.280000e-06	5.303837e-06	2.483260e-08	3.800186e+01	1.631820e+03
1.290000e-06	5.387818e-06	2.498872e-08	3.860358e+01	1.642124e+03
1.300000e-06	5.469822e-06	2.513958e-08	3.919114e+01	1.651938e+03
1.310000e-06	5.549762e-06	2.528280e-08	3.976391e+01	1.661239e+03
1.320000e-06	5.627731e-06	2.541809e-08	4.032255e+01	1.670011e+03
1.330000e-06	5.703625e-06	2.554659e-08	4.086633e+01	1.678248e+03
1.340000e-06	5.777252e-06	2.566790e-08	4.139386e+01	1.685965e+03
1.350000e-06	5.848667e-06	2.578047e-08	4.190555e+01	1.693196e+03
1.360000e-06	5.918007e-06	2.588518e-08	4.240237e+01	1.699991e+03
1.370000e-06	5.985235e-06	2.598364e-08	4.288406e+01	1.706405e+03
1.380000e-06	6.050275e-06	2.607606e-08	4.335007e+01	1.712488e+03
1.390000e-06	6.113164e-06	2.616258e-08	4.380066e+01	1.718279e+03
1.400000e-06	6.174039e-06	2.624356e-08	4.423683e+01	1.723798e+03
1.410000e-06	6.232752e-06	2.632163e-08	4.465751e+01	1.729053e+03
1.420000e-06	6.289213e-06	2.639759e-08	4.506205e+01	1.734038e+03
1.430000e-06	6.343451e-06	2.647035e-08	4.545066e+01	1.738746e+03
1.440000e-06	6.395160e-06	2.653906e-08	4.582116e+01	1.743169e+03
1.450000e-06	6.444202e-06	2.660354e-08	4.617255e+01	1.747310e+03
1.460000e-06	6.490810e-06	2.666370e-08	4.650649e+01	1.751177e+03
1.470000e-06	6.535251e-06	2.671866e-08	4.682491e+01	1.754784e+03
1.480000e-06	6.577385e-06	2.676870e-08	4.712680e+01	1.758146e+03
1.490000e-06	6.617095e-06	2.681511e-08	4.741132e+01	1.761272e+03
1.500000e-06	6.654597e-06	2.685903e-08	4.768002e+01	1.764167e+03
1.510000e-06	6.689797e-06	2.689907e-08	4.793223e+01	1.766825e+03
1.520000e-06	6.722507e-06	2.693491e-08	4.816660e+01	1.769236e+03
1.530000e-06	6.752839e-06	2.696744e-08	4.838392e+01	1.771388e+03
1.540000e-06	6.780946e-06	2.699757e-08	4.858531e+01	1.773277e+03
1.550000e-06	6.806616e-06	2.702367e-08	4.876923e+01	1.774904e+03
1.560000e-06	6.829649e-06	2.704487e-08	4.893426e+01	1.776284e+03
1.570000e-06	6.850265e-06	2.706229e-08	4.908198e+01	1.777439e+03
1.580000e-06	6.868502e-06	2.707634e-08	4.921264e+01	1.778397e+03
1.590000e-06	6.884171e-06	2.708798e-08	4.932491e+01	1.779183e+03
1.600000e-06	6.897273e-06	2.709732e-08	4.941879e+01	1.779818e+03
1.610000e-06	6.907675e-06	2.710540e-08	4.949332e+01	1.780308e+03
1.620000e-06	6.915358e-06	2.711253e-08	4.954836e+01	1.780652e+03
1.630000e-06	6.920628e-06	2.711804e-08	4.958613e+01	1.780837e+03
1.640000e-06	6.923478e-06	2.711929e-08	4.960655e+01	1.780847e+03
1.650000e-06	6.923807e-06	2.711915e-08	4.960890e+01	1.780667e+03
1.660000e-06	6.921793e-06	2.711030e-08	4.959448e+01	1.780287e+03
1.670000e-06	6.917622e-06	2.709861e-08	4.956459e+01	1.779706e+03
1.680000e-06	6.911103e-06	2.708902e-08	4.951788e+01	1.778932e+03
1.690000e-06	6.902186e-06	2.707593e-08	4.945399e+01	1.777979e+03
1.700000e-06	6.891003e-06	2.706180e-08	4.937386e+01	1.776865e+03
1.710000e-06	6.877420e-06	2.704714e-08	4.927654e+01	1.775606e+03
1.720000e-06	6.861486e-06	2.703871e-08	4.916238e+01	1.774216e+03
1.730000e-06	6.843471e-06	2.702000e-08	4.903330e+01	1.772704e+03
1.740000e-06	6.823263e-06	2.692308e-08	4.888850e+01	1.771076e+03
1.750000e-06	6.800093e-06	2.689330e-08	4.872250e+01	1.769335e+03
1.760000e-06	6.773660e-06	2.691704e-08	4.853310e+01	1.767487e+03
1.770000e-06	6.744452e-06	2.687458e-08	4.832383e+01	1.765535e+03
1.780000e-06	6.712995e-06	2.685889e-08	4.809844e+01	1.763482e+03
1.790000e-06	6.679849e-06	2.691070e-08	4.786095e+01	1.761327e+03
1.800000e-06	6.645316e-06	2.677801e-08	4.761352e+01	1.759062e+03
1.810000e-06	6.608752e-06	2.675108e-08	4.735154e+01	1.756665e+03
1.820000e-06	6.569629e-06	2.683128e-08	4.707123e+01	1.754107e+03
1.830000e-06	6.528301e-06	2.669428e-08	4.677512e+01	1.751349e+03
1.840000e-06	6.484730e-06	2.675146e-08	4.646293e+01	1.748348e+03
1.850000e-06	6.438748e-06	2.666970e-08	4.613347e+01	1.745063e+03
1.860000e-06	6.390438e-06	2.650895e-08	4.578733e+01	1.741469e+03
1.870000e-06	6.339720e-06	2.650902e-08	4.542393e+01	1.737552e+03
1.880000e-06	6.286569e-06	2.636999e-08	4.504311e+01	1.733322e+03
1.890000e-06	6.230801e-06	2.639243e-08	4.464353e+01	1.728801e+03
1.900000e-06	6.172576e-06	2.633573e-08	4.422635e+01	1.724023e+03
1.910000e-06	6.112116e-06	2.621657e-08	4.379316e+01	1.719021e+03
1.920000e-06	6.049262e-06	2.621613e-08	4.334281e+01	1.713821e+03
1.930000e-06	5.984207e-06	2.605447e-08	4.287670e+01	1.708431e+03
1.940000e-06	5.917023e-06	2.600176e-08	4.239532e+01	1.702844e+03
1.950000e-06	5.847534e-06	2.589324e-08	4.189743e+01	1.697033e+03
1.960000e-06	5.775699e-06	2.579124e-08	4.138274e+01	1.690962e+03
1.970000e-06	5.701639e-06	2.573299e-08	4.085210e+01	1.684596e+03
1.980000e-06	5.625397e-06	2.558792e-08	4.030583e+01	1.677901e+03
1.990000e-06	5.546823e-06	2.552712e-08	3.974285e+01	1.670861e+03
2.000000e-06	5.466188e-06	2.538596e-08	3.916510e+01	1.663468e+03
2.010000e-06	5.383745e-06	2.527993e-08	3.857440e+01	1.655730e+03
2.020000e-06	5.299446e-06	2.515317e-08	3.797040e+01	1.647655e+03
2.030000e-06	5.213137e-06	2.500393e-08	3.735199e+01	1.639251e+03
2.040000e-06	5.124819e-06	2.490049e-08	3.671920e+01	1.630513e+03
2.050000e-06	5.034794e-06	2.475048e-08	3.607417e+01	1.621426e+03
2.060000e-06	4.943185e-06	2.462075e-08	3.541780e+01	1.611962e+03
2.070000e-06	4.849869e-06	2.444944e-08	3.474919e+01	1.602087e+03
2.080000e-06	4.754689e-06	2.429927e-08	3.406723e+01	1.591767e+03
2.090000e-06	4.657828e-06	2.413691e-08	3.337322e+01	1.580978e+03
2.100000e-06	4.559415e-06	2.396954e-08	3.266809e+01	1.569705e+03
2.110000e-06	4.459485e-06	2.380482e-08	3.195210e+01	1.557946e+03
2.120000e-06	4.357961e-06	2.361466e-08	3.122468e+01	1.545706e+03
2.130000e-06	4.254713e-06	2.341575e-08	3.048491e+01	1.532987e+03
2.140000e-06	4.149928e-06	2.319717e-08	2.973413e+01	1.519782e+03
2.150000e-06	4.043723e-06	2.299482e-08	2.897317e+01	1.506066e+03
2.160000e-06	3.936179e-06	2.278179e-08	2.820262e+01	1.491797e+03
2.170000e-06	3.827268e-06	2.256926e-08	2.742228e+01	1.476913e+03
2.180000e-06	3.716896e-06	2.233742e-08	2.663147e+01	1.461348e+03
2.190000e-06	3.605051e-06	2.209044e-08	2.583010e+01	1.445036e+03
2.200000e-06	3.491800e-06	2.182564e-08	2.501866e+01	1.427923e+03
2.210000e-06	3.377168e-06	2.155101e-08	2.419733e+01	1.409975e+03
2.220000e-06	3.261095e-06	2.126985e-08	2.336566e+01	1.391168e+03
2.230000e-06	3.143623e-06	2.097477e-08	2.252398e+01	1.371491e+03
2.240000e-06	3.024819e-06	2.066198e-08	2.167275e+01	1.350925e+03
2.250000e-06	2.904825e-06	2.032925e-08	2.081300e+01	1.329433e+03
2.260000e-06	2.783795e-06	1.998604e-08	1.994582e+01	1.306949e+03
2.270000e-06	2.661789e-06	1.962670e-08	1.907165e+01	1.283372e+03
2.280000e-06	2.538833e-06	1.925497e-08	1.819068e+01	1.258572e+03
2.290000e-06	2.415011e-06	1.886031e-08	1.730349e+01	1.232400e+03
2.300000e-06	2.290337e-06	1.844186e-08	1.641021e+01	1.204703e+03
2.310000e-06	2.164768e-06	1.799323e-08	1.551051e+01	1.175337e+03
2.320000e-06	2.038412e-06	1.751874e-08	1.460517e+01	1.144175e+03
2.330000e-06	1.911369e-06	1.701541e-08	1.369491e+01	1.111106e+03
2.340000e-06	1.783677e-06	1.648232e-08	1.278000e+01	1.076026e+03
2.350000e-06	1.655385e-06	1.591918e-08	1.186079e+01	1.038821e+03
2.360000e-06	1.526516e-06	1.531931e-08	1.093745e+01	9.993472e+02
2.370000e-06	1.397164e-06	1.467800e-08	1.001065e+01	9.574281e+02
2.380000e-06	1.267480e-06	1.399333e-08	9.081460e+00	9.128553e+02
2.390000e-06	1.137447e-06	1.326753e-08	8.149777e+00	8.654134e+02
2.400000e-06	1.006965e-06	1.249642e-08	7.214878e+00	8.149179e+02
2.410000e-06	8.761083e-07	1.167970e-08	6.277294e+00	7.612641e+02
2.420000e-06	7.449937e-07	1.081797e-08	5.337861e+00	7.044743e+02
2.430000e-06	6.137018e-07	9.910832e-09	4.397158e+00	6.447313e+02
2.440000e-06	4.822258e-07	8.960104e-09	3.455135e+00	5.823860e+02
2.450000e-06	3.505460e-07	7.972756e-09	2.511653e+00	5.179334e+02
2.460000e-06	2.187550e-07	6.960113e-09	1.567374e+00	4.519556e+02
2.470000e-06	8.689826e-08	5.935656e-09	6.226239e-01	3.850401e+02
2.480000e-06	-4.501830e-08	4.906986e-09	-3.225549e-01	3.176885e+02
2.490000e-06	-1.768857e-07	3.876770e-09	-1.267382e+00	2.502335e+02
2.500000e-06	-3.086802e-07	2.844083e-09	-2.211686e+00	1.827833e+02
2.510000e-06	-4.404111e-07	1.807049e-09	-3.155535e+00	1.152087e+02
2.520000e-06	-5.720726e-07	7.625305e-10	-4.098886e+00	4.717769e+01
2.530000e-06	-7.036043e-07	-2.946076e-10	-5.041307e+00	-2.176481e+01
2.540000e-06	-8.348774e-07	-1.368646e-09	-5.981876e+00	-9.208549e+01
2.550000e-06	-9.659068e-07	-2.462710e-09	-6.920698e+00	-1.641409e+02
2.560000e-06	-1.096681e-06	-3.582643e-09	-7.857689e+00	-2.380683e+02
2.570000e-06	-1.227060e-06	-4.734046e-09	-8.791852e+00	-3.137123e+02
2.580000e-06	-1.356965e-06	-5.910572e-09	-9.722620e+00	-3.906005e+02
2.590000e-06	-1.486448e-06	-7.098541e-09	-1.065036e+01	-4.679752e+02
2.600000e-06	-1.615503e-06	-8.281080e-09	-1.157504e+01	-5.448743e+02
2.610000e-06	-1.744034e-06	-9.438754e-09	-1.249596e+01	-6.202460e+02
2.620000e-06	-1.871898e-06	-1.055500e-08	-1.341210e+01	-6.930762e+02
2.630000e-06	-1.999025e-06	-1.161863e-08	-1.432297e+01	-7.625036e+02
2.640000e-06	-2.125411e-06	-1.262040e-08	-1.522852e+01	-8.279058e+02
2.650000e-06	-2.250955e-06	-1.355383e-08	-1.612803e+01	-8.889395e+02
2.660000e-06	-2.375579e-06	-1.442013e-08	-1.702096e+01	-9.455368e+02
2.670000e-06	-2.499233e-06	-1.522153e-08	-1.790694e+01	-9.978595e+02
2.680000e-06	-2.621908e-06	-1.596335e-08	-1.878590e+01	-1.046228e+03
2.690000e-06	-2.743651e-06	-1.665277e-08	-1.965819e+01	-1.091039e+03
2.700000e-06	-2.864399e-06	-1.729363e-08	-2.052335e+01	-1.132697e+03
2.710000e-06	-2.984042e-06	-1.789192e-08	-2.138059e+01	-1.171557e+03
2.720000e-06	-3.102616e-06	-1.845142e-08	-2.223016e+01	-1.207898e+03
2.730000e-06	-3.219974e-06	-1.897140e-08	-2.307104e+01	-1.241926e+03
2.740000e-06	-3.335967e-06	-1.945426e-08	-2.390212e+01	-1.273791e+03
2.750000e-06	-3.450564e-06	-1.990626e-08	-2.472320e+01	-1.303614e+03
2.760000e-06	-3.563707e-06	-2.033098e-08	-2.553387e+01	-1.331515e+03
2.770000e-06	-3.675389e-06	-2.073088e-08	-2.633407e+01	-1.357631e+03
2.780000e-06	-3.785661e-06	-2.110929e-08	-2.712417e+01	-1.382119e+03
2.790000e-06	-3.894664e-06	-2.146558e-08	-2.790517e+01	-1.405149e+03
2.800000e-06	-4.002490e-06	-2.180015e-08	-2.867774e+01	-1.426889e+03
2.810000e-06	-4.109074e-06	-2.211660e-08	-2.944141e+01	-1.447486e+03
2.820000e-06	-4.214263e-06	-2.241777e-08	-3.019509e+01	-1.467052e+03
2.830000e-06	-4.317928e-06	-2.270407e-08	-3.093784e+01	-1.485658e+03
2.840000e-06	-4.419862e-06	-2.297304e-08	-3.166820e+01	-1.503340e+03
2.850000e-06	-4.520123e-06	-2.322575e-08	-3.238657e+01	-1.520113e+03
2.860000e-06	-4.618875e-06	-2.346596e-08	-3.309412e+01	-1.535987e+03
2.870000e-06	-4.716094e-06	-2.369551e-08	-3.379069e+01	-1.550982e+03
2.880000e-06	-4.811649e-06	-2.391560e-08	-3.447535e+01	-1.565136e+03
2.890000e-06	-4.905385e-06	-2.412541e-08	-3.514696e+01	-1.578512e+03
2.900000e-06	-4.997341e-06	-2.432483e-08	-3.580582e+01	-1.591186e+03
2.910000e-06	-5.087572e-06	-2.451288e-08	-3.645233e+01	-1.603238e+03
2.920000e-06	-5.176055e-06	-2.468815e-08	-3.708630e+01	-1.614737e+03
2.930000e-06	-5.262535e-06	-2.485398e-08	-3.770593e+01	-1.625731e+03
2.940000e-06	-5.346981e-06	-2.501209e-08	-3.831098e+01	-1.636242e+03
