# Temperatura_=_30.7
# Concentracion g/m^3_=_28200.0
# C_Vs_to_Am_M_A/Vsm_=_65563218390.804596
# pendiente_HvsI_1/m_=_3716.3
# ordenada_HvsI_A/m_=_1297.0
# frecuencia_Hz_=_302273.8018730769

Tiempo_(s)	Campo_(V.s)	Magnetizacion_(V.s)	Campo_(kA/m)	Magnetizacion_(A/m)
0.000000e+00	-6.887815e-06	-2.338809e-08	-4.951868e+01	-1.530249e+03
1.000000e-08	-6.884381e-06	-2.338426e-08	-4.949400e+01	-1.529900e+03
2.000000e-08	-6.878688e-06	-2.337462e-08	-4.945307e+01	-1.529376e+03
3.000000e-08	-6.870820e-06	-2.336409e-08	-4.939650e+01	-1.528664e+03
4.000000e-08	-6.860622e-06	-2.335269e-08	-4.932318e+01	-1.527761e+03
5.000000e-08	-6.847866e-06	-2.333568e-08	-4.923148e+01	-1.526674e+03
6.000000e-08	-6.832535e-06	-2.331482e-08	-4.912126e+01	-1.525420e+03
7.000000e-08	-6.814896e-06	-2.328845e-08	-4.899445e+01	-1.524023e+03
8.000000e-08	-6.795277e-06	-2.326111e-08	-4.885340e+01	-1.522513e+03
9.000000e-08	-6.773435e-06	-2.327539e-08	-4.869637e+01	-1.520921e+03
1.000000e-07	-6.748914e-06	-2.326538e-08	-4.852008e+01	-1.519273e+03
1.100000e-07	-6.721556e-06	-2.320266e-08	-4.832339e+01	-1.517583e+03
1.200000e-07	-6.691678e-06	-2.316042e-08	-4.810859e+01	-1.515856e+03
1.300000e-07	-6.659671e-06	-2.312803e-08	-4.787848e+01	-1.514080e+03
1.400000e-07	-6.625568e-06	-2.304739e-08	-4.763330e+01	-1.512226e+03
1.500000e-07	-6.589648e-06	-2.300311e-08	-4.737507e+01	-1.510255e+03
1.600000e-07	-6.551921e-06	-2.305772e-08	-4.710384e+01	-1.508116e+03
1.700000e-07	-6.512065e-06	-2.296729e-08	-4.681730e+01	-1.505762e+03
1.800000e-07	-6.469911e-06	-2.289496e-08	-4.651424e+01	-1.503149e+03
1.900000e-07	-6.425214e-06	-2.290864e-08	-4.619290e+01	-1.500248e+03
2.000000e-07	-6.378126e-06	-2.279643e-08	-4.585436e+01	-1.497048e+03
2.100000e-07	-6.328558e-06	-2.274465e-08	-4.549801e+01	-1.493555e+03
2.200000e-07	-6.276244e-06	-2.273303e-08	-4.512190e+01	-1.489796e+03
2.300000e-07	-6.221415e-06	-2.268243e-08	-4.472772e+01	-1.485803e+03
2.400000e-07	-6.164238e-06	-2.260852e-08	-4.431666e+01	-1.481615e+03
2.500000e-07	-6.104749e-06	-2.250528e-08	-4.388897e+01	-1.477262e+03
2.600000e-07	-6.043017e-06	-2.245714e-08	-4.344516e+01	-1.472759e+03
2.700000e-07	-5.979046e-06	-2.237615e-08	-4.298525e+01	-1.468105e+03
2.800000e-07	-5.912810e-06	-2.228606e-08	-4.250907e+01	-1.463281e+03
2.900000e-07	-5.844347e-06	-2.224125e-08	-4.201686e+01	-1.458254e+03
3.000000e-07	-5.773736e-06	-2.216526e-08	-4.150922e+01	-1.452987e+03
3.100000e-07	-5.701022e-06	-2.207344e-08	-4.098645e+01	-1.447442e+03
3.200000e-07	-5.626017e-06	-2.196663e-08	-4.044722e+01	-1.441594e+03
3.300000e-07	-5.548586e-06	-2.188038e-08	-3.989054e+01	-1.435431e+03
3.400000e-07	-5.468912e-06	-2.177116e-08	-3.931774e+01	-1.428957e+03
3.500000e-07	-5.387244e-06	-2.166625e-08	-3.873060e+01	-1.422185e+03
3.600000e-07	-5.303755e-06	-2.158110e-08	-3.813037e+01	-1.415131e+03
3.700000e-07	-5.218536e-06	-2.146473e-08	-3.751771e+01	-1.407808e+03
3.800000e-07	-5.131602e-06	-2.135092e-08	-3.689271e+01	-1.400217e+03
3.900000e-07	-5.042891e-06	-2.122667e-08	-3.625494e+01	-1.392344e+03
4.000000e-07	-4.952327e-06	-2.109463e-08	-3.560385e+01	-1.384162e+03
4.100000e-07	-4.859957e-06	-2.095239e-08	-3.493977e+01	-1.375635e+03
4.200000e-07	-4.766029e-06	-2.081808e-08	-3.426449e+01	-1.366724e+03
4.300000e-07	-4.670523e-06	-2.068577e-08	-3.357787e+01	-1.357397e+03
4.400000e-07	-4.573259e-06	-2.053394e-08	-3.287860e+01	-1.347633e+03
4.500000e-07	-4.474293e-06	-2.037383e-08	-3.216711e+01	-1.337422e+03
4.600000e-07	-4.373687e-06	-2.021058e-08	-3.144382e+01	-1.326768e+03
4.700000e-07	-4.271590e-06	-2.004325e-08	-3.070981e+01	-1.315675e+03
4.800000e-07	-4.168011e-06	-1.986662e-08	-2.996515e+01	-1.304148e+03
4.900000e-07	-4.062871e-06	-1.969000e-08	-2.920926e+01	-1.292178e+03
5.000000e-07	-3.956217e-06	-1.950343e-08	-2.844249e+01	-1.279740e+03
5.100000e-07	-3.848077e-06	-1.929932e-08	-2.766504e+01	-1.266794e+03
5.200000e-07	-3.738576e-06	-1.908271e-08	-2.687781e+01	-1.253286e+03
5.300000e-07	-3.627807e-06	-1.886006e-08	-2.608145e+01	-1.239159e+03
5.400000e-07	-3.515705e-06	-1.863080e-08	-2.527551e+01	-1.224358e+03
5.500000e-07	-3.402157e-06	-1.839153e-08	-2.445918e+01	-1.208836e+03
5.600000e-07	-3.287112e-06	-1.814623e-08	-2.363209e+01	-1.192563e+03
5.700000e-07	-3.170622e-06	-1.788910e-08	-2.279461e+01	-1.175515e+03
5.800000e-07	-3.052924e-06	-1.761569e-08	-2.194844e+01	-1.157674e+03
5.900000e-07	-2.934187e-06	-1.732870e-08	-2.109480e+01	-1.139014e+03
6.000000e-07	-2.814304e-06	-1.703185e-08	-2.023292e+01	-1.119494e+03
6.100000e-07	-2.693399e-06	-1.671904e-08	-1.936370e+01	-1.099050e+03
6.200000e-07	-2.571541e-06	-1.638659e-08	-1.848763e+01	-1.077594e+03
6.300000e-07	-2.448606e-06	-1.603357e-08	-1.760380e+01	-1.055017e+03
6.400000e-07	-2.324644e-06	-1.566220e-08	-1.671260e+01	-1.031200e+03
6.500000e-07	-2.199827e-06	-1.527363e-08	-1.581526e+01	-1.006019e+03
6.600000e-07	-2.074406e-06	-1.486605e-08	-1.491356e+01	-9.793601e+02
6.700000e-07	-1.948443e-06	-1.443791e-08	-1.400797e+01	-9.511158e+02
6.800000e-07	-1.821735e-06	-1.398520e-08	-1.309703e+01	-9.211889e+02
6.900000e-07	-1.694279e-06	-1.350195e-08	-1.218071e+01	-8.894825e+02
7.000000e-07	-1.566288e-06	-1.298558e-08	-1.126054e+01	-8.558920e+02
7.100000e-07	-1.437801e-06	-1.243919e-08	-1.033680e+01	-8.202976e+02
7.200000e-07	-1.308833e-06	-1.185960e-08	-9.409613e+00	-7.825654e+02
7.300000e-07	-1.179479e-06	-1.124766e-08	-8.479648e+00	-7.425579e+02
7.400000e-07	-1.049777e-06	-1.060089e-08	-7.547178e+00	-7.001565e+02
7.500000e-07	-9.197717e-07	-9.916823e-09	-6.612530e+00	-6.552918e+02
7.600000e-07	-7.894116e-07	-9.197381e-09	-5.675330e+00	-6.079766e+02
7.700000e-07	-6.586827e-07	-8.442741e-09	-4.735478e+00	-5.583333e+02
7.800000e-07	-5.277065e-07	-7.655082e-09	-3.793849e+00	-5.066065e+02
7.900000e-07	-3.964699e-07	-6.840625e-09	-2.850348e+00	-4.531552e+02
8.000000e-07	-2.650674e-07	-6.007943e-09	-1.905653e+00	-3.984214e+02
8.100000e-07	-1.335366e-07	-5.162747e-09	-9.600367e-01	-3.428772e+02
8.200000e-07	-1.899734e-09	-4.312302e-09	-1.365779e-02	-2.869602e+02
8.300000e-07	1.297508e-07	-3.461686e-09	9.328198e-01	-2.310064e+02
8.400000e-07	2.614050e-07	-2.614187e-09	1.879323e+00	-1.751974e+02
8.500000e-07	3.929088e-07	-1.767442e-09	2.824746e+00	-1.195309e+02
8.600000e-07	5.242690e-07	-9.192249e-10	3.769136e+00	-6.382594e+01
8.700000e-07	6.554663e-07	-6.821393e-11	4.712355e+00	-7.762204e+00
8.800000e-07	7.864082e-07	7.929202e-10	5.653737e+00	4.905018e+01
8.900000e-07	9.170888e-07	1.671582e-09	6.593242e+00	1.069832e+02
9.000000e-07	1.047429e-06	2.573571e-09	7.530296e+00	1.663008e+02
9.100000e-07	1.177321e-06	3.499672e-09	8.464131e+00	2.270842e+02
9.200000e-07	1.306734e-06	4.448758e-09	9.394523e+00	2.891850e+02
9.300000e-07	1.435736e-06	5.412225e-09	1.032196e+01	3.522176e+02
9.400000e-07	1.564295e-06	6.379838e-09	1.124621e+01	4.155897e+02
9.500000e-07	1.692326e-06	7.339818e-09	1.216667e+01	4.785671e+02
9.600000e-07	1.819756e-06	8.277626e-09	1.308280e+01	5.403593e+02
9.700000e-07	1.946494e-06	9.183292e-09	1.399396e+01	6.002105e+02
9.800000e-07	2.072430e-06	1.004961e-08	1.489936e+01	6.574803e+02
9.900000e-07	2.197648e-06	1.087107e-08	1.579959e+01	7.117009e+02
1.000000e-06	2.322249e-06	1.163955e-08	1.669538e+01	7.626035e+02
1.010000e-06	2.446040e-06	1.235732e-08	1.758535e+01	8.101135e+02
1.020000e-06	2.568701e-06	1.302829e-08	1.846720e+01	8.543184e+02
1.030000e-06	2.690264e-06	1.365549e-08	1.934116e+01	8.954194e+02
1.040000e-06	2.810869e-06	1.423885e-08	2.020823e+01	9.336777e+02
1.050000e-06	2.930459e-06	1.478135e-08	2.106800e+01	9.693661e+02
1.060000e-06	3.049009e-06	1.528642e-08	2.192029e+01	1.002734e+03
1.070000e-06	3.166446e-06	1.575717e-08	2.276458e+01	1.033991e+03
1.080000e-06	3.282645e-06	1.619888e-08	2.359998e+01	1.063303e+03
1.090000e-06	3.397469e-06	1.661471e-08	2.442548e+01	1.090802e+03
1.100000e-06	3.510924e-06	1.700636e-08	2.524115e+01	1.116603e+03
1.110000e-06	3.623106e-06	1.737443e-08	2.604765e+01	1.140820e+03
1.120000e-06	3.733977e-06	1.772285e-08	2.684474e+01	1.163570e+03
1.130000e-06	3.843570e-06	1.805226e-08	2.763264e+01	1.184979e+03
1.140000e-06	3.951982e-06	1.836378e-08	2.841205e+01	1.205175e+03
1.150000e-06	4.058974e-06	1.865388e-08	2.918125e+01	1.224280e+03
1.160000e-06	4.164417e-06	1.892554e-08	2.993931e+01	1.242396e+03
1.170000e-06	4.268396e-06	1.918392e-08	3.068685e+01	1.259604e+03
1.180000e-06	4.370847e-06	1.942936e-08	3.142340e+01	1.275958e+03
1.190000e-06	4.471859e-06	1.966216e-08	3.214961e+01	1.291494e+03
1.200000e-06	4.571297e-06	1.988520e-08	3.286450e+01	1.306233e+03
1.210000e-06	4.668900e-06	2.009839e-08	3.356620e+01	1.320197e+03
1.220000e-06	4.764694e-06	2.029816e-08	3.425489e+01	1.333412e+03
1.230000e-06	4.858813e-06	2.048606e-08	3.493154e+01	1.345917e+03
1.240000e-06	4.951397e-06	2.066444e-08	3.559716e+01	1.357760e+03
1.250000e-06	5.042224e-06	2.083414e-08	3.625014e+01	1.368996e+03
1.260000e-06	5.131116e-06	2.099636e-08	3.688922e+01	1.379676e+03
1.270000e-06	5.218104e-06	2.115033e-08	3.751460e+01	1.389842e+03
1.280000e-06	5.303255e-06	2.129742e-08	3.812678e+01	1.399524e+03
1.290000e-06	5.386635e-06	2.143867e-08	3.872622e+01	1.408732e+03
1.300000e-06	5.468034e-06	2.157301e-08	3.931143e+01	1.417469e+03
1.310000e-06	5.547314e-06	2.169944e-08	3.988139e+01	1.425728e+03
1.320000e-06	5.624513e-06	2.181861e-08	4.043641e+01	1.433509e+03
1.330000e-06	5.699544e-06	2.193187e-08	4.097583e+01	1.440818e+03
1.340000e-06	5.772404e-06	2.203734e-08	4.149964e+01	1.447677e+03
1.350000e-06	5.843201e-06	2.213486e-08	4.200862e+01	1.454122e+03
1.360000e-06	5.911964e-06	2.222789e-08	4.250298e+01	1.460198e+03
1.370000e-06	5.978630e-06	2.231701e-08	4.298226e+01	1.465952e+03
1.380000e-06	6.043096e-06	2.240005e-08	4.344573e+01	1.471426e+03
1.390000e-06	6.105411e-06	2.247791e-08	4.389373e+01	1.476653e+03
1.400000e-06	6.165674e-06	2.255229e-08	4.432698e+01	1.481649e+03
1.410000e-06	6.223781e-06	2.262503e-08	4.474474e+01	1.486416e+03
1.420000e-06	6.279616e-06	2.269392e-08	4.514614e+01	1.490945e+03
1.430000e-06	6.333172e-06	2.275699e-08	4.553118e+01	1.495223e+03
1.440000e-06	6.384168e-06	2.281654e-08	4.589781e+01	1.499238e+03
1.450000e-06	6.432527e-06	2.287342e-08	4.624547e+01	1.502984e+03
1.460000e-06	6.478576e-06	2.292746e-08	4.657653e+01	1.506464e+03
1.470000e-06	6.522433e-06	2.297827e-08	4.689184e+01	1.509687e+03
1.480000e-06	6.563905e-06	2.302382e-08	4.718999e+01	1.512669e+03
1.490000e-06	6.602994e-06	2.306403e-08	4.747101e+01	1.515426e+03
1.500000e-06	6.639893e-06	2.310162e-08	4.773630e+01	1.517971e+03
1.510000e-06	6.674482e-06	2.313708e-08	4.798497e+01	1.520309e+03
1.520000e-06	6.706572e-06	2.316973e-08	4.821567e+01	1.522439e+03
1.530000e-06	6.736343e-06	2.319786e-08	4.842970e+01	1.524354e+03
1.540000e-06	6.763829e-06	2.322274e-08	4.862730e+01	1.526048e+03
1.550000e-06	6.788703e-06	2.324538e-08	4.880614e+01	1.527515e+03
1.560000e-06	6.811035e-06	2.326444e-08	4.896669e+01	1.528757e+03
1.570000e-06	6.831114e-06	2.327912e-08	4.911104e+01	1.529782e+03
1.580000e-06	6.848739e-06	2.329030e-08	4.923775e+01	1.530607e+03
1.590000e-06	6.863775e-06	2.329989e-08	4.934585e+01	1.531256e+03
1.600000e-06	6.876305e-06	2.330875e-08	4.943593e+01	1.531750e+03
1.610000e-06	6.886146e-06	2.331755e-08	4.950668e+01	1.532110e+03
1.620000e-06	6.893313e-06	2.332459e-08	4.955821e+01	1.532351e+03
1.630000e-06	6.898076e-06	2.332751e-08	4.959245e+01	1.532475e+03
1.640000e-06	6.900364e-06	2.332661e-08	4.960890e+01	1.532477e+03
1.650000e-06	6.900187e-06	2.332503e-08	4.960763e+01	1.532346e+03
1.660000e-06	6.897761e-06	2.331787e-08	4.959018e+01	1.532062e+03
1.670000e-06	6.893034e-06	2.331019e-08	4.955620e+01	1.531608e+03
1.680000e-06	6.885932e-06	2.330495e-08	4.950515e+01	1.530970e+03
1.690000e-06	6.876572e-06	2.329675e-08	4.943785e+01	1.530141e+03
1.700000e-06	6.864962e-06	2.328444e-08	4.935438e+01	1.529125e+03
1.710000e-06	6.850931e-06	2.327011e-08	4.925351e+01	1.527934e+03
1.720000e-06	6.834599e-06	2.325836e-08	4.913609e+01	1.526589e+03
1.730000e-06	6.816258e-06	2.323040e-08	4.900424e+01	1.525120e+03
1.740000e-06	6.795605e-06	2.314799e-08	4.885576e+01	1.523557e+03
1.750000e-06	6.771830e-06	2.312734e-08	4.868483e+01	1.521928e+03
1.760000e-06	6.744834e-06	2.314168e-08	4.849074e+01	1.520253e+03
1.770000e-06	6.715227e-06	2.311249e-08	4.827789e+01	1.518541e+03
1.780000e-06	6.683519e-06	2.311234e-08	4.804993e+01	1.516786e+03
1.790000e-06	6.650146e-06	2.314012e-08	4.781000e+01	1.514967e+03
1.800000e-06	6.615302e-06	2.304487e-08	4.755950e+01	1.513047e+03
1.810000e-06	6.578339e-06	2.301853e-08	4.729376e+01	1.510980e+03
1.820000e-06	6.538855e-06	2.304876e-08	4.700990e+01	1.508716e+03
1.830000e-06	6.497201e-06	2.295793e-08	4.671043e+01	1.506208e+03
1.840000e-06	6.453317e-06	2.299764e-08	4.639494e+01	1.503423e+03
1.850000e-06	6.407054e-06	2.292725e-08	4.606234e+01	1.500340e+03
1.860000e-06	6.358422e-06	2.280906e-08	4.571271e+01	1.496960e+03
1.870000e-06	6.307403e-06	2.277595e-08	4.534592e+01	1.493301e+03
1.880000e-06	6.253931e-06	2.266145e-08	4.496149e+01	1.489395e+03
1.890000e-06	6.197820e-06	2.268570e-08	4.455809e+01	1.485280e+03
1.900000e-06	6.139305e-06	2.262432e-08	4.413740e+01	1.480988e+03
1.910000e-06	6.078573e-06	2.253128e-08	4.370079e+01	1.476543e+03
1.920000e-06	6.015498e-06	2.252297e-08	4.324732e+01	1.471949e+03
1.930000e-06	5.950295e-06	2.237311e-08	4.277855e+01	1.467195e+03
1.940000e-06	5.882971e-06	2.231007e-08	4.229454e+01	1.462253e+03
1.950000e-06	5.813355e-06	2.222311e-08	4.179405e+01	1.457084e+03
1.960000e-06	5.741416e-06	2.214905e-08	4.127686e+01	1.451651e+03
1.970000e-06	5.667241e-06	2.209016e-08	4.074359e+01	1.445924e+03
1.980000e-06	5.590839e-06	2.197018e-08	4.019431e+01	1.439886e+03
1.990000e-06	5.512061e-06	2.190872e-08	3.962795e+01	1.433533e+03
2.000000e-06	5.431249e-06	2.177348e-08	3.904697e+01	1.426875e+03
2.010000e-06	5.348712e-06	2.167612e-08	3.845358e+01	1.419930e+03
2.020000e-06	5.264298e-06	2.156449e-08	3.784670e+01	1.412711e+03
2.030000e-06	5.177837e-06	2.144034e-08	3.722511e+01	1.405226e+03
2.040000e-06	5.089474e-06	2.134439e-08	3.658984e+01	1.397466e+03
2.050000e-06	4.999459e-06	2.121382e-08	3.594269e+01	1.389409e+03
2.060000e-06	4.907803e-06	2.110341e-08	3.528375e+01	1.381022e+03
2.070000e-06	4.814456e-06	2.094872e-08	3.461265e+01	1.372266e+03
2.080000e-06	4.719310e-06	2.081276e-08	3.392862e+01	1.363106e+03
2.090000e-06	4.622463e-06	2.066636e-08	3.323235e+01	1.353515e+03
2.100000e-06	4.524143e-06	2.051629e-08	3.252549e+01	1.343479e+03
2.110000e-06	4.424248e-06	2.036647e-08	3.180732e+01	1.332998e+03
2.120000e-06	4.322697e-06	2.019885e-08	3.107723e+01	1.322077e+03
2.130000e-06	4.219539e-06	2.002545e-08	3.033560e+01	1.310721e+03
2.140000e-06	4.114837e-06	1.982955e-08	2.958286e+01	1.298926e+03
2.150000e-06	4.008729e-06	1.964836e-08	2.882002e+01	1.286676e+03
2.160000e-06	3.901282e-06	1.946086e-08	2.804755e+01	1.273935e+03
2.170000e-06	3.792440e-06	1.927091e-08	2.726505e+01	1.260654e+03
2.180000e-06	3.682163e-06	1.906093e-08	2.647223e+01	1.246777e+03
2.190000e-06	3.570443e-06	1.883873e-08	2.566904e+01	1.232246e+03
2.200000e-06	3.457314e-06	1.860191e-08	2.485572e+01	1.217012e+03
2.210000e-06	3.342809e-06	1.835753e-08	2.403251e+01	1.201037e+03
2.220000e-06	3.226847e-06	1.810849e-08	2.319883e+01	1.184296e+03
2.230000e-06	3.109527e-06	1.784887e-08	2.235537e+01	1.166768e+03
2.240000e-06	2.990967e-06	1.757333e-08	2.150301e+01	1.148434e+03
2.250000e-06	2.871131e-06	1.727682e-08	2.064147e+01	1.129257e+03
2.260000e-06	2.750207e-06	1.696968e-08	1.977211e+01	1.109185e+03
2.270000e-06	2.628403e-06	1.664760e-08	1.889642e+01	1.088138e+03
2.280000e-06	2.505696e-06	1.631583e-08	1.801424e+01	1.066016e+03
2.290000e-06	2.382103e-06	1.596643e-08	1.712569e+01	1.042700e+03
2.300000e-06	2.257667e-06	1.559570e-08	1.623108e+01	1.018069e+03
2.310000e-06	2.132412e-06	1.519727e-08	1.533058e+01	9.920039e+02
2.320000e-06	2.006417e-06	1.477658e-08	1.442477e+01	9.643940e+02
2.330000e-06	1.879781e-06	1.433309e-08	1.351434e+01	9.351393e+02
2.340000e-06	1.752482e-06	1.386515e-08	1.259914e+01	9.041436e+02
2.350000e-06	1.624412e-06	1.336949e-08	1.167841e+01	8.713063e+02
2.360000e-06	1.495720e-06	1.283931e-08	1.075321e+01	8.365142e+02
2.370000e-06	1.366638e-06	1.227208e-08	9.825191e+00	7.996382e+02
2.380000e-06	1.237265e-06	1.167002e-08	8.895089e+00	7.605401e+02
2.390000e-06	1.107579e-06	1.103778e-08	7.962735e+00	7.190907e+02
2.400000e-06	9.775043e-07	1.037026e-08	7.027588e+00	6.751972e+02
2.410000e-06	8.470282e-07	9.667093e-09	6.089554e+00	6.288364e+02
2.420000e-06	7.162515e-07	8.927606e-09	5.149359e+00	5.800851e+02
2.430000e-06	5.852631e-07	8.150143e-09	4.207642e+00	5.291395e+02
2.440000e-06	4.540473e-07	7.340102e-09	3.264290e+00	4.763164e+02
2.450000e-06	3.227205e-07	6.506748e-09	2.320140e+00	4.220302e+02
2.460000e-06	1.912479e-07	5.657763e-09	1.374942e+00	3.667485e+02
2.470000e-06	5.964799e-08	4.801698e-09	4.288283e-01	3.109306e+02
2.480000e-06	-7.193445e-08	3.945897e-09	-5.171595e-01	2.549598e+02
2.490000e-06	-2.035378e-07	3.094514e-09	-1.463298e+00	1.990835e+02
2.500000e-06	-3.350722e-07	2.244649e-09	-2.408940e+00	1.433730e+02
2.510000e-06	-4.664821e-07	1.391160e-09	-3.353688e+00	8.771460e+01
2.520000e-06	-5.978136e-07	5.320516e-10	-4.297871e+00	3.183600e+01
2.530000e-06	-7.290019e-07	-3.369764e-10	-5.241025e+00	-2.463513e+01
2.540000e-06	-8.599670e-07	-1.217522e-09	-6.182575e+00	-8.208876e+01
2.550000e-06	-9.905939e-07	-2.111997e-09	-7.121693e+00	-1.408415e+02
2.560000e-06	-1.120760e-06	-3.025622e-09	-8.057495e+00	-2.010537e+02
2.570000e-06	-1.250516e-06	-3.961896e-09	-8.990354e+00	-2.626703e+02
2.580000e-06	-1.379897e-06	-4.919850e-09	-9.920515e+00	-3.253975e+02
2.590000e-06	-1.508928e-06	-5.892240e-09	-1.084816e+01	-3.887179e+02
2.600000e-06	-1.637579e-06	-6.863082e-09	-1.177308e+01	-4.519438e+02
2.610000e-06	-1.765653e-06	-7.817962e-09	-1.269384e+01	-5.142960e+02
2.620000e-06	-1.892909e-06	-8.747458e-09	-1.360872e+01	-5.749943e+02
2.630000e-06	-2.019289e-06	-9.641293e-09	-1.451731e+01	-6.333448e+02
2.640000e-06	-2.144897e-06	-1.049310e-08	-1.542034e+01	-6.888068e+02
2.650000e-06	-2.269770e-06	-1.129428e-08	-1.631809e+01	-7.410323e+02
2.660000e-06	-2.393818e-06	-1.204115e-08	-1.720991e+01	-7.898730e+02
2.670000e-06	-2.516884e-06	-1.273663e-08	-1.809468e+01	-8.353577e+02
2.680000e-06	-2.638863e-06	-1.338508e-08	-1.897162e+01	-8.776493e+02
2.690000e-06	-2.759900e-06	-1.399007e-08	-1.984180e+01	-9.169918e+02
2.700000e-06	-2.880026e-06	-1.455604e-08	-2.070542e+01	-9.536584e+02
2.710000e-06	-2.998919e-06	-1.508454e-08	-2.156018e+01	-9.879112e+02
2.720000e-06	-3.116621e-06	-1.557524e-08	-2.240638e+01	-1.019976e+03
2.730000e-06	-3.233171e-06	-1.603317e-08	-2.324429e+01	-1.050034e+03
2.740000e-06	-3.348454e-06	-1.646060e-08	-2.407309e+01	-1.078231e+03
2.750000e-06	-3.462349e-06	-1.686298e-08	-2.489193e+01	-1.104686e+03
2.760000e-06	-3.574738e-06	-1.724416e-08	-2.569993e+01	-1.129512e+03
2.770000e-06	-3.685731e-06	-1.760124e-08	-2.649789e+01	-1.152824e+03
2.780000e-06	-3.795455e-06	-1.793535e-08	-2.728672e+01	-1.174745e+03
2.790000e-06	-3.904024e-06	-1.825128e-08	-2.806726e+01	-1.195403e+03
2.800000e-06	-4.011350e-06	-1.855187e-08	-2.883887e+01	-1.214924e+03
2.810000e-06	-4.117288e-06	-1.883719e-08	-2.960049e+01	-1.233417e+03
2.820000e-06	-4.221822e-06	-1.910711e-08	-3.035201e+01	-1.250974e+03
2.830000e-06	-4.324729e-06	-1.936227e-08	-3.109184e+01	-1.267659e+03
2.840000e-06	-4.425975e-06	-1.960469e-08	-3.181974e+01	-1.283513e+03
2.850000e-06	-4.525680e-06	-1.983621e-08	-3.253655e+01	-1.298563e+03
2.860000e-06	-4.623818e-06	-2.005662e-08	-3.324209e+01	-1.312829e+03
2.870000e-06	-4.720380e-06	-2.026507e-08	-3.393631e+01	-1.326335e+03
2.880000e-06	-4.815204e-06	-2.046322e-08	-3.461802e+01	-1.339114e+03
2.890000e-06	-4.908261e-06	-2.065162e-08	-3.528704e+01	-1.351211e+03
2.900000e-06	-4.999600e-06	-2.082952e-08	-3.594371e+01	-1.362679e+03
2.910000e-06	-5.089203e-06	-2.099688e-08	-3.658789e+01	-1.373572e+03
2.920000e-06	-5.176968e-06	-2.115500e-08	-3.721886e+01	-1.383936e+03
2.930000e-06	-5.262735e-06	-2.130567e-08	-3.783547e+01	-1.393806e+03
2.940000e-06	-5.346538e-06	-2.144778e-08	-3.843795e+01	-1.403200e+03
