# Temperatura_=_78.13
# Concentracion g/m^3_=_28200.0
# C_Vs_to_Am_M_A/Vsm_=_65563218390.804596
# pendiente_HvsI_1/m_=_3716.3
# ordenada_HvsI_A/m_=_1297.0
# frecuencia_Hz_=_302269.74139058706

Tiempo_(s)	Campo_(V.s)	Magnetizacion_(V.s)	Campo_(kA/m)	Magnetizacion_(A/m)
0.000000e+00	-6.884410e-06	-2.972616e-08	-4.952200e+01	-1.945879e+03
1.000000e-08	-6.881078e-06	-2.971931e-08	-4.949803e+01	-1.945327e+03
2.000000e-08	-6.875505e-06	-2.970555e-08	-4.945794e+01	-1.944567e+03
3.000000e-08	-6.867786e-06	-2.969360e-08	-4.940242e+01	-1.943611e+03
4.000000e-08	-6.857704e-06	-2.967827e-08	-4.932989e+01	-1.942466e+03
5.000000e-08	-6.845085e-06	-2.965694e-08	-4.923912e+01	-1.941139e+03
6.000000e-08	-6.829913e-06	-2.962777e-08	-4.912998e+01	-1.939629e+03
7.000000e-08	-6.812367e-06	-2.959263e-08	-4.900377e+01	-1.937936e+03
8.000000e-08	-6.792813e-06	-2.955927e-08	-4.886311e+01	-1.936063e+03
9.000000e-08	-6.771037e-06	-2.959165e-08	-4.870647e+01	-1.934018e+03
1.000000e-07	-6.746526e-06	-2.956740e-08	-4.853015e+01	-1.931821e+03
1.100000e-07	-6.719211e-06	-2.948696e-08	-4.833366e+01	-1.929503e+03
1.200000e-07	-6.689459e-06	-2.944069e-08	-4.811965e+01	-1.927095e+03
1.300000e-07	-6.657545e-06	-2.939912e-08	-4.789008e+01	-1.924622e+03
1.400000e-07	-6.623510e-06	-2.928096e-08	-4.764525e+01	-1.922097e+03
1.500000e-07	-6.587698e-06	-2.923453e-08	-4.738765e+01	-1.919503e+03
1.600000e-07	-6.550074e-06	-2.933102e-08	-4.711700e+01	-1.916801e+03
1.700000e-07	-6.510261e-06	-2.915928e-08	-4.683061e+01	-1.913924e+03
1.800000e-07	-6.468207e-06	-2.911731e-08	-4.652810e+01	-1.910793e+03
1.900000e-07	-6.423675e-06	-2.912739e-08	-4.620777e+01	-1.907329e+03
2.000000e-07	-6.376753e-06	-2.896030e-08	-4.587024e+01	-1.903470e+03
2.100000e-07	-6.327400e-06	-2.893010e-08	-4.551523e+01	-1.899182e+03
2.200000e-07	-6.275328e-06	-2.885352e-08	-4.514066e+01	-1.894471e+03
2.300000e-07	-6.220749e-06	-2.879251e-08	-4.474805e+01	-1.889372e+03
2.400000e-07	-6.163767e-06	-2.873240e-08	-4.433816e+01	-1.883946e+03
2.500000e-07	-6.104433e-06	-2.861959e-08	-4.391135e+01	-1.878262e+03
2.600000e-07	-6.042866e-06	-2.854089e-08	-4.346847e+01	-1.872374e+03
2.700000e-07	-5.979053e-06	-2.843200e-08	-4.300944e+01	-1.866315e+03
2.800000e-07	-5.913027e-06	-2.833075e-08	-4.253450e+01	-1.860081e+03
2.900000e-07	-5.844801e-06	-2.823682e-08	-4.204372e+01	-1.853637e+03
3.000000e-07	-5.774376e-06	-2.813656e-08	-4.153713e+01	-1.846926e+03
3.100000e-07	-5.701744e-06	-2.805226e-08	-4.101466e+01	-1.839882e+03
3.200000e-07	-5.626843e-06	-2.791906e-08	-4.047587e+01	-1.832452e+03
3.300000e-07	-5.549619e-06	-2.780177e-08	-3.992038e+01	-1.824602e+03
3.400000e-07	-5.470122e-06	-2.765305e-08	-3.934852e+01	-1.816328e+03
3.500000e-07	-5.388581e-06	-2.752789e-08	-3.876197e+01	-1.807651e+03
3.600000e-07	-5.305267e-06	-2.741428e-08	-3.816266e+01	-1.798606e+03
3.700000e-07	-5.220227e-06	-2.725886e-08	-3.755094e+01	-1.789228e+03
3.800000e-07	-5.133479e-06	-2.712081e-08	-3.692693e+01	-1.779537e+03
3.900000e-07	-5.044976e-06	-2.695525e-08	-3.629030e+01	-1.769527e+03
4.000000e-07	-4.954589e-06	-2.678658e-08	-3.564011e+01	-1.759166e+03
4.100000e-07	-4.862443e-06	-2.661130e-08	-3.497727e+01	-1.748400e+03
4.200000e-07	-4.768739e-06	-2.645416e-08	-3.430323e+01	-1.737166e+03
4.300000e-07	-4.673420e-06	-2.628095e-08	-3.361757e+01	-1.725406e+03
4.400000e-07	-4.576321e-06	-2.608487e-08	-3.291910e+01	-1.713083e+03
4.500000e-07	-4.477435e-06	-2.588902e-08	-3.220777e+01	-1.700183e+03
4.600000e-07	-4.376942e-06	-2.568087e-08	-3.148490e+01	-1.686716e+03
4.700000e-07	-4.274906e-06	-2.547111e-08	-3.075091e+01	-1.672703e+03
4.800000e-07	-4.171400e-06	-2.525115e-08	-3.000636e+01	-1.658167e+03
4.900000e-07	-4.066475e-06	-2.503145e-08	-2.925159e+01	-1.643110e+03
5.000000e-07	-3.959973e-06	-2.478850e-08	-2.848549e+01	-1.627510e+03
5.100000e-07	-3.851982e-06	-2.453121e-08	-2.770867e+01	-1.611316e+03
5.200000e-07	-3.742655e-06	-2.426537e-08	-2.692224e+01	-1.594452e+03
5.300000e-07	-3.632035e-06	-2.399097e-08	-2.612651e+01	-1.576832e+03
5.400000e-07	-3.520178e-06	-2.370594e-08	-2.532189e+01	-1.558374e+03
5.500000e-07	-3.406925e-06	-2.341031e-08	-2.450722e+01	-1.539017e+03
5.600000e-07	-3.292055e-06	-2.310977e-08	-2.368092e+01	-1.518722e+03
5.700000e-07	-3.175693e-06	-2.278781e-08	-2.284388e+01	-1.497473e+03
5.800000e-07	-3.058056e-06	-2.244945e-08	-2.199768e+01	-1.475262e+03
5.900000e-07	-2.939285e-06	-2.209227e-08	-2.114332e+01	-1.452075e+03
6.000000e-07	-2.819561e-06	-2.172253e-08	-2.028210e+01	-1.427870e+03
6.100000e-07	-2.698886e-06	-2.133415e-08	-1.941404e+01	-1.402569e+03
6.200000e-07	-2.577120e-06	-2.092727e-08	-1.853814e+01	-1.376051e+03
6.300000e-07	-2.454276e-06	-2.049851e-08	-1.765448e+01	-1.348161e+03
6.400000e-07	-2.330491e-06	-2.004462e-08	-1.676405e+01	-1.318727e+03
6.500000e-07	-2.205940e-06	-1.956679e-08	-1.586811e+01	-1.287579e+03
6.600000e-07	-2.080702e-06	-1.906233e-08	-1.496723e+01	-1.254558e+03
6.700000e-07	-1.954721e-06	-1.853279e-08	-1.406100e+01	-1.219534e+03
6.800000e-07	-1.828031e-06	-1.797083e-08	-1.314967e+01	-1.182388e+03
6.900000e-07	-1.700761e-06	-1.737404e-08	-1.223418e+01	-1.143008e+03
7.000000e-07	-1.572977e-06	-1.673558e-08	-1.131498e+01	-1.101258e+03
7.100000e-07	-1.444715e-06	-1.605798e-08	-1.039234e+01	-1.056967e+03
7.200000e-07	-1.316001e-06	-1.533532e-08	-9.466465e+00	-1.009922e+03
7.300000e-07	-1.186837e-06	-1.456669e-08	-8.537338e+00	-9.598808e+02
7.400000e-07	-1.057189e-06	-1.375164e-08	-7.604732e+00	-9.066069e+02
7.500000e-07	-9.270666e-07	-1.288572e-08	-6.668718e+00	-8.499197e+02
7.600000e-07	-7.965196e-07	-1.196984e-08	-5.729647e+00	-7.897502e+02
7.700000e-07	-6.656602e-07	-1.100073e-08	-4.788329e+00	-7.261886e+02
7.800000e-07	-5.346025e-07	-9.986603e-09	-3.845585e+00	-6.595090e+02
7.900000e-07	-4.034168e-07	-8.933179e-09	-2.901920e+00	-5.901600e+02
8.000000e-07	-2.721114e-07	-7.849556e-09	-1.957394e+00	-5.187175e+02
8.100000e-07	-1.406672e-07	-6.740337e-09	-1.011869e+00	-4.458050e+02
8.200000e-07	-9.152779e-09	-5.612986e-09	-6.583918e-02	-3.719954e+02
8.300000e-07	1.223743e-07	-4.478501e-09	8.802816e-01	-2.977136e+02
8.400000e-07	2.539188e-07	-3.340196e-09	1.826528e+00	-2.231635e+02
8.500000e-07	3.854226e-07	-2.198025e-09	2.772482e+00	-1.482959e+02
8.600000e-07	5.168127e-07	-1.048908e-09	3.717617e+00	-7.283139e+01
8.700000e-07	6.480498e-07	1.108839e-10	4.661652e+00	3.665929e+00
8.800000e-07	7.790640e-07	1.292497e-09	5.604083e+00	8.167238e+01
8.900000e-07	9.097875e-07	2.502897e-09	6.544423e+00	1.615705e+02
9.000000e-07	1.040143e-06	3.747787e-09	7.482117e+00	2.435226e+02
9.100000e-07	1.170047e-06	5.025708e-09	8.416566e+00	3.273778e+02
9.200000e-07	1.299468e-06	6.326841e-09	9.347536e+00	4.126344e+02
9.300000e-07	1.428453e-06	7.637263e-09	1.027537e+01	4.984635e+02
9.400000e-07	1.556946e-06	8.940795e-09	1.119966e+01	5.837928e+02
9.500000e-07	1.684849e-06	1.021783e-08	1.211972e+01	6.674329e+02
9.600000e-07	1.812149e-06	1.144535e-08	1.303543e+01	7.482232e+02
9.700000e-07	1.938765e-06	1.260964e-08	1.394622e+01	8.251682e+02
9.800000e-07	2.064611e-06	1.370040e-08	1.485148e+01	8.975417e+02
9.900000e-07	2.189732e-06	1.471622e-08	1.575152e+01	9.649419e+02
1.000000e-06	2.314223e-06	1.565771e-08	1.664703e+01	1.027291e+03
1.010000e-06	2.437988e-06	1.653042e-08	1.753731e+01	1.084786e+03
1.020000e-06	2.560747e-06	1.733910e-08	1.842036e+01	1.137816e+03
1.030000e-06	2.682405e-06	1.808847e-08	1.929549e+01	1.186865e+03
1.040000e-06	2.803032e-06	1.878526e-08	2.016320e+01	1.232424e+03
1.050000e-06	2.922608e-06	1.943288e-08	2.102336e+01	1.274921e+03
1.060000e-06	3.041099e-06	2.003503e-08	2.187570e+01	1.314688e+03
1.070000e-06	3.158502e-06	2.059530e-08	2.272023e+01	1.351961e+03
1.080000e-06	3.274715e-06	2.112145e-08	2.355619e+01	1.386896e+03
1.090000e-06	3.389567e-06	2.161651e-08	2.438236e+01	1.419611e+03
1.100000e-06	3.503047e-06	2.208145e-08	2.519866e+01	1.450219e+03
1.110000e-06	3.615182e-06	2.251661e-08	2.600528e+01	1.478851e+03
1.120000e-06	3.725975e-06	2.292525e-08	2.680226e+01	1.505672e+03
1.130000e-06	3.835519e-06	2.331217e-08	2.759025e+01	1.530867e+03
1.140000e-06	3.943884e-06	2.367843e-08	2.836976e+01	1.554628e+03
1.150000e-06	4.050961e-06	2.402431e-08	2.914000e+01	1.577128e+03
1.160000e-06	4.156558e-06	2.435096e-08	2.989959e+01	1.598504e+03
1.170000e-06	4.260578e-06	2.465881e-08	3.064785e+01	1.618846e+03
1.180000e-06	4.362994e-06	2.494768e-08	3.138456e+01	1.638201e+03
1.190000e-06	4.463915e-06	2.521978e-08	3.211053e+01	1.656587e+03
1.200000e-06	4.563327e-06	2.547997e-08	3.282563e+01	1.674007e+03
1.210000e-06	4.660978e-06	2.573030e-08	3.352806e+01	1.690478e+03
1.220000e-06	4.756841e-06	2.596915e-08	3.421764e+01	1.706033e+03
1.230000e-06	4.851039e-06	2.619519e-08	3.489524e+01	1.720734e+03
1.240000e-06	4.943659e-06	2.640914e-08	3.556149e+01	1.734664e+03
1.250000e-06	5.034563e-06	2.661064e-08	3.621540e+01	1.747911e+03
1.260000e-06	5.123494e-06	2.680036e-08	3.685511e+01	1.760560e+03
1.270000e-06	5.210501e-06	2.697957e-08	3.748098e+01	1.772672e+03
1.280000e-06	5.295714e-06	2.715108e-08	3.809395e+01	1.784281e+03
1.290000e-06	5.379185e-06	2.731770e-08	3.869438e+01	1.795396e+03
1.300000e-06	5.460699e-06	2.747867e-08	3.928074e+01	1.806003e+03
1.310000e-06	5.540067e-06	2.763428e-08	3.985167e+01	1.816084e+03
1.320000e-06	5.617392e-06	2.778318e-08	4.040789e+01	1.825623e+03
1.330000e-06	5.692590e-06	2.792420e-08	4.094881e+01	1.834621e+03
1.340000e-06	5.765529e-06	2.805700e-08	4.147349e+01	1.843095e+03
1.350000e-06	5.836318e-06	2.818119e-08	4.198270e+01	1.851079e+03
1.360000e-06	5.905073e-06	2.829704e-08	4.247728e+01	1.858618e+03
1.370000e-06	5.971735e-06	2.840527e-08	4.295680e+01	1.865753e+03
1.380000e-06	6.036202e-06	2.850700e-08	4.342054e+01	1.872520e+03
1.390000e-06	6.098522e-06	2.860297e-08	4.386883e+01	1.878941e+03
1.400000e-06	6.158884e-06	2.869446e-08	4.430304e+01	1.885024e+03
1.410000e-06	6.217112e-06	2.878272e-08	4.472189e+01	1.890772e+03
1.420000e-06	6.273009e-06	2.886684e-08	4.512397e+01	1.896183e+03
1.430000e-06	6.326636e-06	2.894538e-08	4.550973e+01	1.901264e+03
1.440000e-06	6.377682e-06	2.901866e-08	4.587693e+01	1.906028e+03
1.450000e-06	6.426112e-06	2.908774e-08	4.622530e+01	1.910498e+03
1.460000e-06	6.472248e-06	2.915308e-08	4.655717e+01	1.914702e+03
1.470000e-06	6.516201e-06	2.921300e-08	4.687334e+01	1.918666e+03
1.480000e-06	6.557768e-06	2.926842e-08	4.717235e+01	1.922407e+03
1.490000e-06	6.596940e-06	2.931935e-08	4.745412e+01	1.925927e+03
1.500000e-06	6.633957e-06	2.936766e-08	4.772040e+01	1.929215e+03
1.510000e-06	6.668644e-06	2.941470e-08	4.796992e+01	1.932249e+03
1.520000e-06	6.700817e-06	2.945764e-08	4.820135e+01	1.935004e+03
1.530000e-06	6.730647e-06	2.949655e-08	4.841593e+01	1.937458e+03
1.540000e-06	6.758274e-06	2.953062e-08	4.861466e+01	1.939601e+03
1.550000e-06	6.783413e-06	2.955923e-08	4.879550e+01	1.941438e+03
1.560000e-06	6.805992e-06	2.958197e-08	4.895791e+01	1.942991e+03
1.570000e-06	6.826274e-06	2.959999e-08	4.910381e+01	1.944288e+03
1.580000e-06	6.844122e-06	2.961511e-08	4.923220e+01	1.945365e+03
1.590000e-06	6.859367e-06	2.962738e-08	4.934186e+01	1.946249e+03
1.600000e-06	6.871996e-06	2.963759e-08	4.943270e+01	1.946958e+03
1.610000e-06	6.881875e-06	2.964712e-08	4.950376e+01	1.947497e+03
1.620000e-06	6.889118e-06	2.965684e-08	4.955587e+01	1.947860e+03
1.630000e-06	6.894024e-06	2.966383e-08	4.959116e+01	1.948033e+03
1.640000e-06	6.896491e-06	2.966523e-08	4.960890e+01	1.948002e+03
1.650000e-06	6.896434e-06	2.966283e-08	4.960849e+01	1.947756e+03
1.660000e-06	6.894120e-06	2.964787e-08	4.959185e+01	1.947295e+03
1.670000e-06	6.889590e-06	2.963532e-08	4.955926e+01	1.946623e+03
1.680000e-06	6.882664e-06	2.962392e-08	4.950944e+01	1.945749e+03
1.690000e-06	6.873447e-06	2.961034e-08	4.944314e+01	1.944684e+03
1.700000e-06	6.861952e-06	2.959737e-08	4.936045e+01	1.943434e+03
1.710000e-06	6.847981e-06	2.958463e-08	4.925995e+01	1.942003e+03
1.720000e-06	6.831741e-06	2.957806e-08	4.914313e+01	1.940388e+03
1.730000e-06	6.813529e-06	2.953689e-08	4.901213e+01	1.938591e+03
1.740000e-06	6.792997e-06	2.942676e-08	4.886444e+01	1.936617e+03
1.750000e-06	6.769385e-06	2.941541e-08	4.869458e+01	1.934482e+03
1.760000e-06	6.742604e-06	2.941869e-08	4.850194e+01	1.932212e+03
1.770000e-06	6.713187e-06	2.936029e-08	4.829033e+01	1.929838e+03
1.780000e-06	6.681606e-06	2.939151e-08	4.806316e+01	1.927390e+03
1.790000e-06	6.648338e-06	2.940644e-08	4.782385e+01	1.924888e+03
1.800000e-06	6.613640e-06	2.921466e-08	4.757425e+01	1.922326e+03
1.810000e-06	6.576776e-06	2.926948e-08	4.730908e+01	1.919677e+03
1.820000e-06	6.537407e-06	2.926941e-08	4.702589e+01	1.916884e+03
1.830000e-06	6.495953e-06	2.914951e-08	4.672769e+01	1.913872e+03
1.840000e-06	6.452228e-06	2.927194e-08	4.641316e+01	1.910559e+03
1.850000e-06	6.406156e-06	2.910072e-08	4.608175e+01	1.906875e+03
1.860000e-06	6.357773e-06	2.903494e-08	4.573371e+01	1.902772e+03
1.870000e-06	6.306929e-06	2.899419e-08	4.536797e+01	1.898239e+03
1.880000e-06	6.253612e-06	2.881428e-08	4.498445e+01	1.893300e+03
1.890000e-06	6.197690e-06	2.885531e-08	4.458218e+01	1.888006e+03
1.900000e-06	6.139373e-06	2.872310e-08	4.416269e+01	1.882424e+03
1.910000e-06	6.078806e-06	2.865118e-08	4.372700e+01	1.876618e+03
1.920000e-06	6.015870e-06	2.862327e-08	4.327428e+01	1.870630e+03
1.930000e-06	5.950797e-06	2.845837e-08	4.280619e+01	1.864473e+03
1.940000e-06	5.883603e-06	2.840334e-08	4.232284e+01	1.858125e+03
1.950000e-06	5.814116e-06	2.822184e-08	4.182300e+01	1.851536e+03
1.960000e-06	5.742254e-06	2.815188e-08	4.130606e+01	1.844642e+03
1.970000e-06	5.668194e-06	2.805087e-08	4.077333e+01	1.837382e+03
1.980000e-06	5.591965e-06	2.792301e-08	4.022498e+01	1.829714e+03
1.990000e-06	5.513416e-06	2.785156e-08	3.965995e+01	1.821620e+03
2.000000e-06	5.432813e-06	2.767659e-08	3.908014e+01	1.813112e+03
2.010000e-06	5.350369e-06	2.757008e-08	3.848710e+01	1.804219e+03
2.020000e-06	5.266157e-06	2.739333e-08	3.788133e+01	1.794980e+03
2.030000e-06	5.179976e-06	2.725586e-08	3.726140e+01	1.785423e+03
2.040000e-06	5.091776e-06	2.713102e-08	3.662695e+01	1.775552e+03
2.050000e-06	5.001834e-06	2.697129e-08	3.597996e+01	1.765347e+03
2.060000e-06	4.910293e-06	2.681569e-08	3.532148e+01	1.754761e+03
2.070000e-06	4.817171e-06	2.662046e-08	3.465161e+01	1.743735e+03
2.080000e-06	4.722202e-06	2.645964e-08	3.396847e+01	1.732206e+03
2.090000e-06	4.625471e-06	2.626761e-08	3.327265e+01	1.720127e+03
2.100000e-06	4.527176e-06	2.608772e-08	3.256558e+01	1.707474e+03
2.110000e-06	4.427420e-06	2.589335e-08	3.184800e+01	1.694248e+03
2.120000e-06	4.326143e-06	2.568245e-08	3.111948e+01	1.680465e+03
2.130000e-06	4.223101e-06	2.545404e-08	3.037826e+01	1.666151e+03
2.140000e-06	4.118424e-06	2.521464e-08	2.962528e+01	1.651318e+03
2.150000e-06	4.012328e-06	2.498939e-08	2.886209e+01	1.635955e+03
2.160000e-06	3.904899e-06	2.475133e-08	2.808932e+01	1.620024e+03
2.170000e-06	3.796124e-06	2.451222e-08	2.730687e+01	1.603457e+03
2.180000e-06	3.685960e-06	2.424928e-08	2.651442e+01	1.586171e+03
2.190000e-06	3.574299e-06	2.397477e-08	2.571120e+01	1.568081e+03
2.200000e-06	3.461216e-06	2.367836e-08	2.489775e+01	1.549115e+03
2.210000e-06	3.346798e-06	2.337613e-08	2.407470e+01	1.529225e+03
2.220000e-06	3.231061e-06	2.306046e-08	2.324217e+01	1.508386e+03
2.230000e-06	3.114019e-06	2.273446e-08	2.240024e+01	1.486588e+03
2.240000e-06	2.995577e-06	2.238885e-08	2.154825e+01	1.463822e+03
2.250000e-06	2.875870e-06	2.202618e-08	2.068715e+01	1.440060e+03
2.260000e-06	2.755159e-06	2.164762e-08	1.981884e+01	1.415241e+03
2.270000e-06	2.633551e-06	2.124742e-08	1.894406e+01	1.389261e+03
2.280000e-06	2.510983e-06	2.083434e-08	1.806239e+01	1.361979e+03
2.290000e-06	2.387519e-06	2.039791e-08	1.717427e+01	1.333228e+03
2.300000e-06	2.263276e-06	1.993911e-08	1.628055e+01	1.302835e+03
2.310000e-06	2.138302e-06	1.944706e-08	1.538157e+01	1.270634e+03
2.320000e-06	2.012557e-06	1.892559e-08	1.447703e+01	1.236483e+03
2.330000e-06	1.886000e-06	1.837149e-08	1.356667e+01	1.200260e+03
2.340000e-06	1.758625e-06	1.778628e-08	1.265041e+01	1.161852e+03
2.350000e-06	1.630545e-06	1.716885e-08	1.172909e+01	1.121135e+03
2.360000e-06	1.501965e-06	1.651520e-08	1.080416e+01	1.077957e+03
2.370000e-06	1.373020e-06	1.581800e-08	9.876616e+00	1.032120e+03
2.380000e-06	1.243743e-06	1.507327e-08	8.946681e+00	9.833933e+02
2.390000e-06	1.114074e-06	1.427900e-08	8.013931e+00	9.315312e+02
2.400000e-06	9.840461e-07	1.343106e-08	7.078592e+00	8.763227e+02
2.410000e-06	8.536734e-07	1.253805e-08	6.140775e+00	8.176444e+02
2.420000e-06	7.230083e-07	1.159692e-08	5.200855e+00	7.555136e+02
2.430000e-06	5.921154e-07	1.060297e-08	4.259296e+00	6.901246e+02
2.440000e-06	4.609845e-07	9.560207e-09	3.316025e+00	6.218547e+02
2.450000e-06	3.296942e-07	8.478956e-09	2.371607e+00	5.512334e+02
2.460000e-06	1.982606e-07	7.372644e-09	1.426159e+00	4.788752e+02
2.470000e-06	6.672190e-08	6.249022e-09	4.799543e-01	4.053870e+02
2.480000e-06	-6.480027e-08	5.117720e-09	-4.661313e-01	3.312682e+02
2.490000e-06	-1.963135e-07	3.982853e-09	-1.412153e+00	2.568239e+02
2.500000e-06	-3.277845e-07	2.839803e-09	-2.357870e+00	1.821140e+02
2.510000e-06	-4.591325e-07	1.684668e-09	-3.302703e+00	1.069516e+02
2.520000e-06	-5.903595e-07	5.167073e-10	-4.246665e+00	3.095552e+01
2.530000e-06	-7.214132e-07	-6.669024e-10	-5.189380e+00	-4.634903e+01
2.540000e-06	-8.522462e-07	-1.872723e-09	-6.130508e+00	-1.254014e+02
2.550000e-06	-9.827901e-07	-3.105254e-09	-7.069557e+00	-2.064722e+02
2.560000e-06	-1.112927e-06	-4.366851e-09	-8.005681e+00	-2.895529e+02
2.570000e-06	-1.242638e-06	-5.657577e-09	-8.938732e+00	-3.742930e+02
2.580000e-06	-1.371962e-06	-6.970924e-09	-9.869006e+00	-4.599966e+02
2.590000e-06	-1.500903e-06	-8.288976e-09	-1.079653e+01	-5.456825e+02
2.600000e-06	-1.629418e-06	-9.588309e-09	-1.172098e+01	-6.301940e+02
2.610000e-06	-1.757438e-06	-1.084917e-08	-1.264187e+01	-7.123404e+02
2.620000e-06	-1.884765e-06	-1.205510e-08	-1.355778e+01	-7.910401e+02
2.630000e-06	-2.011244e-06	-1.319238e-08	-1.446759e+01	-8.654418e+02
2.640000e-06	-2.136885e-06	-1.425424e-08	-1.537137e+01	-9.350015e+02
2.650000e-06	-2.261718e-06	-1.523978e-08	-1.626934e+01	-9.995059e+02
2.660000e-06	-2.385665e-06	-1.615118e-08	-1.716093e+01	-1.059043e+03
2.670000e-06	-2.508648e-06	-1.699440e-08	-1.804560e+01	-1.113931e+03
2.680000e-06	-2.630634e-06	-1.777536e-08	-1.892309e+01	-1.164625e+03
2.690000e-06	-2.751677e-06	-1.849938e-08	-1.979379e+01	-1.211623e+03
2.700000e-06	-2.871831e-06	-1.917164e-08	-2.065810e+01	-1.255385e+03
2.710000e-06	-2.990890e-06	-1.980006e-08	-2.151453e+01	-1.296289e+03
2.720000e-06	-3.108671e-06	-2.038899e-08	-2.236177e+01	-1.334608e+03
2.730000e-06	-3.225167e-06	-2.093888e-08	-2.319977e+01	-1.370529e+03
2.740000e-06	-3.340405e-06	-2.145057e-08	-2.402871e+01	-1.404183e+03
2.750000e-06	-3.454307e-06	-2.192822e-08	-2.484805e+01	-1.435679e+03
2.760000e-06	-3.566709e-06	-2.237694e-08	-2.565660e+01	-1.465140e+03
2.770000e-06	-3.677637e-06	-2.279700e-08	-2.645454e+01	-1.492716e+03
2.780000e-06	-3.787266e-06	-2.319400e-08	-2.724315e+01	-1.518584e+03
2.790000e-06	-3.895739e-06	-2.357076e-08	-2.802343e+01	-1.542937e+03
2.800000e-06	-4.003050e-06	-2.392543e-08	-2.879535e+01	-1.565959e+03
2.810000e-06	-4.109068e-06	-2.425884e-08	-2.955798e+01	-1.587803e+03
2.820000e-06	-4.213653e-06	-2.457568e-08	-3.031030e+01	-1.608581e+03
2.830000e-06	-4.316615e-06	-2.487920e-08	-3.105094e+01	-1.628356e+03
2.840000e-06	-4.417918e-06	-2.516758e-08	-3.177965e+01	-1.647156e+03
2.850000e-06	-4.517644e-06	-2.544053e-08	-3.249701e+01	-1.664990e+03
2.860000e-06	-4.615822e-06	-2.569773e-08	-3.320324e+01	-1.681865e+03
2.870000e-06	-4.712481e-06	-2.593952e-08	-3.389854e+01	-1.697807e+03
2.880000e-06	-4.807421e-06	-2.617043e-08	-3.458148e+01	-1.712865e+03
2.890000e-06	-4.900495e-06	-2.639204e-08	-3.525100e+01	-1.727115e+03
2.900000e-06	-4.991884e-06	-2.660460e-08	-3.590839e+01	-1.740644e+03
2.910000e-06	-5.081563e-06	-2.680632e-08	-3.655348e+01	-1.753541e+03
2.920000e-06	-5.169368e-06	-2.699752e-08	-3.718509e+01	-1.765877e+03
2.930000e-06	-5.255156e-06	-2.717999e-08	-3.780220e+01	-1.777699e+03
2.940000e-06	-5.338962e-06	-2.735138e-08	-3.840504e+01	-1.789027e+03
