# Temperatura_=_64.94
# Concentracion g/m^3_=_28200.0
# C_Vs_to_Am_M_A/Vsm_=_65563218390.804596
# pendiente_HvsI_1/m_=_3716.3
# ordenada_HvsI_A/m_=_1297.0
# frecuencia_Hz_=_302272.8460535753

Tiempo_(s)	Campo_(V.s)	Magnetizacion_(V.s)	Campo_(kA/m)	Magnetizacion_(A/m)
0.000000e+00	-6.932335e-06	-2.822298e-08	-4.952069e+01	-1.847334e+03
1.000000e-08	-6.928965e-06	-2.821299e-08	-4.949662e+01	-1.846829e+03
2.000000e-08	-6.923334e-06	-2.820189e-08	-4.945639e+01	-1.846106e+03
3.000000e-08	-6.915571e-06	-2.818801e-08	-4.940094e+01	-1.845178e+03
4.000000e-08	-6.905431e-06	-2.817240e-08	-4.932851e+01	-1.844063e+03
5.000000e-08	-6.892742e-06	-2.815458e-08	-4.923786e+01	-1.842783e+03
6.000000e-08	-6.877545e-06	-2.813638e-08	-4.912930e+01	-1.841352e+03
7.000000e-08	-6.859974e-06	-2.811318e-08	-4.900379e+01	-1.839785e+03
8.000000e-08	-6.840245e-06	-2.809393e-08	-4.886285e+01	-1.838089e+03
9.000000e-08	-6.818231e-06	-2.805580e-08	-4.870560e+01	-1.836269e+03
1.000000e-07	-6.793511e-06	-2.804222e-08	-4.852901e+01	-1.834329e+03
1.100000e-07	-6.766023e-06	-2.800982e-08	-4.833265e+01	-1.832274e+03
1.200000e-07	-6.736120e-06	-2.795359e-08	-4.811904e+01	-1.830107e+03
1.300000e-07	-6.704011e-06	-2.790158e-08	-4.788968e+01	-1.827830e+03
1.400000e-07	-6.669792e-06	-2.785700e-08	-4.764524e+01	-1.825436e+03
1.500000e-07	-6.633751e-06	-2.781683e-08	-4.738778e+01	-1.822909e+03
1.600000e-07	-6.595907e-06	-2.774527e-08	-4.711744e+01	-1.820221e+03
1.700000e-07	-6.555882e-06	-2.773369e-08	-4.683152e+01	-1.817334e+03
1.800000e-07	-6.513440e-06	-2.763509e-08	-4.652834e+01	-1.814204e+03
1.900000e-07	-6.468543e-06	-2.758830e-08	-4.620763e+01	-1.810789e+03
2.000000e-07	-6.421265e-06	-2.756670e-08	-4.586990e+01	-1.807058e+03
2.100000e-07	-6.371500e-06	-2.745015e-08	-4.551441e+01	-1.802994e+03
2.200000e-07	-6.319025e-06	-2.744055e-08	-4.513955e+01	-1.798599e+03
2.300000e-07	-6.263990e-06	-2.739860e-08	-4.474641e+01	-1.793897e+03
2.400000e-07	-6.206600e-06	-2.728372e-08	-4.433645e+01	-1.788919e+03
2.500000e-07	-6.146874e-06	-2.719715e-08	-4.390981e+01	-1.783702e+03
2.600000e-07	-6.084934e-06	-2.712319e-08	-4.346734e+01	-1.778275e+03
2.700000e-07	-6.020763e-06	-2.702290e-08	-4.300894e+01	-1.772654e+03
2.800000e-07	-5.954267e-06	-2.690822e-08	-4.253393e+01	-1.766834e+03
2.900000e-07	-5.885520e-06	-2.683883e-08	-4.204284e+01	-1.760794e+03
3.000000e-07	-5.814552e-06	-2.675214e-08	-4.153588e+01	-1.754498e+03
3.100000e-07	-5.741329e-06	-2.663356e-08	-4.101281e+01	-1.747910e+03
3.200000e-07	-5.665835e-06	-2.654059e-08	-4.047353e+01	-1.740997e+03
3.300000e-07	-5.588017e-06	-2.641590e-08	-3.991764e+01	-1.733737e+03
3.400000e-07	-5.507929e-06	-2.631162e-08	-3.934554e+01	-1.726126e+03
3.500000e-07	-5.425825e-06	-2.619707e-08	-3.875903e+01	-1.718168e+03
3.600000e-07	-5.341911e-06	-2.606459e-08	-3.815960e+01	-1.709873e+03
3.700000e-07	-5.256245e-06	-2.593331e-08	-3.754765e+01	-1.701250e+03
3.800000e-07	-5.168791e-06	-2.579176e-08	-3.692293e+01	-1.692293e+03
3.900000e-07	-5.079515e-06	-2.565057e-08	-3.628519e+01	-1.682985e+03
4.000000e-07	-4.988414e-06	-2.548948e-08	-3.563442e+01	-1.673295e+03
4.100000e-07	-4.895572e-06	-2.534071e-08	-3.497121e+01	-1.663182e+03
4.200000e-07	-4.801155e-06	-2.517845e-08	-3.429674e+01	-1.652607e+03
4.300000e-07	-4.705049e-06	-2.501240e-08	-3.361021e+01	-1.641539e+03
4.400000e-07	-4.607226e-06	-2.483115e-08	-3.291143e+01	-1.629962e+03
4.500000e-07	-4.507683e-06	-2.463962e-08	-3.220035e+01	-1.617875e+03
4.600000e-07	-4.406436e-06	-2.445029e-08	-3.147710e+01	-1.605288e+03
4.700000e-07	-4.303711e-06	-2.424998e-08	-3.074328e+01	-1.592211e+03
4.800000e-07	-4.199452e-06	-2.404687e-08	-2.999852e+01	-1.578648e+03
4.900000e-07	-4.093692e-06	-2.383525e-08	-2.924303e+01	-1.564580e+03
5.000000e-07	-3.986440e-06	-2.361690e-08	-2.847688e+01	-1.549968e+03
5.100000e-07	-3.877676e-06	-2.337798e-08	-2.769993e+01	-1.534752e+03
5.200000e-07	-3.767579e-06	-2.312862e-08	-2.691346e+01	-1.518858e+03
5.300000e-07	-3.656131e-06	-2.286391e-08	-2.611734e+01	-1.502210e+03
5.400000e-07	-3.543242e-06	-2.258923e-08	-2.531092e+01	-1.484747e+03
5.500000e-07	-3.428934e-06	-2.231003e-08	-2.449437e+01	-1.466424e+03
5.600000e-07	-3.313185e-06	-2.202041e-08	-2.366752e+01	-1.447219e+03
5.700000e-07	-3.195996e-06	-2.171809e-08	-2.283039e+01	-1.427124e+03
5.800000e-07	-3.077647e-06	-2.139844e-08	-2.198498e+01	-1.406131e+03
5.900000e-07	-2.958216e-06	-2.106616e-08	-2.113183e+01	-1.384218e+03
6.000000e-07	-2.837564e-06	-2.071525e-08	-2.026996e+01	-1.361332e+03
6.100000e-07	-2.715836e-06	-2.034828e-08	-1.940040e+01	-1.337385e+03
6.200000e-07	-2.593183e-06	-1.996014e-08	-1.852423e+01	-1.312247e+03
6.300000e-07	-2.469476e-06	-1.955092e-08	-1.764054e+01	-1.285766e+03
6.400000e-07	-2.344727e-06	-1.911737e-08	-1.674941e+01	-1.257775e+03
6.500000e-07	-2.219175e-06	-1.865966e-08	-1.585254e+01	-1.228115e+03
6.600000e-07	-2.093003e-06	-1.817801e-08	-1.495123e+01	-1.196643e+03
6.700000e-07	-1.966294e-06	-1.767050e-08	-1.404609e+01	-1.163242e+03
6.800000e-07	-1.838931e-06	-1.713441e-08	-1.313629e+01	-1.127808e+03
6.900000e-07	-1.710751e-06	-1.656032e-08	-1.222064e+01	-1.090233e+03
7.000000e-07	-1.581781e-06	-1.595109e-08	-1.129936e+01	-1.050389e+03
7.100000e-07	-1.452252e-06	-1.530332e-08	-1.037407e+01	-1.008112e+03
7.200000e-07	-1.322393e-06	-1.461696e-08	-9.446429e+00	-9.631945e+02
7.300000e-07	-1.192251e-06	-1.388573e-08	-8.516769e+00	-9.154067e+02
7.400000e-07	-1.061795e-06	-1.310583e-08	-7.584868e+00	-8.645272e+02
7.500000e-07	-9.310089e-07	-1.227620e-08	-6.650602e+00	-8.103921e+02
7.600000e-07	-7.998482e-07	-1.139665e-08	-5.713664e+00	-7.529483e+02
7.700000e-07	-6.683099e-07	-1.047361e-08	-4.774030e+00	-6.922965e+02
7.800000e-07	-5.364581e-07	-9.508395e-09	-3.832154e+00	-6.287132e+02
7.900000e-07	-4.043708e-07	-8.506953e-09	-2.888597e+00	-5.626396e+02
8.000000e-07	-2.721318e-07	-7.473298e-09	-1.943956e+00	-4.946366e+02
8.100000e-07	-1.397763e-07	-6.416925e-09	-9.984833e-01	-4.253081e+02
8.200000e-07	-7.334436e-09	-5.345936e-09	-5.239308e-02	-3.552085e+02
8.300000e-07	1.251371e-07	-4.271027e-09	8.939085e-01	-2.847509e+02
8.400000e-07	2.575557e-07	-3.195544e-09	1.839833e+00	-2.141371e+02
8.500000e-07	3.899022e-07	-2.115145e-09	2.785241e+00	-1.433275e+02
8.600000e-07	5.221534e-07	-1.029100e-09	3.729969e+00	-7.205954e+01
8.700000e-07	6.542030e-07	6.655677e-11	4.673257e+00	8.445868e-02
8.800000e-07	7.860690e-07	1.179192e-09	5.615234e+00	7.357038e+01
8.900000e-07	9.176877e-07	2.320211e-09	6.555444e+00	1.487871e+02
9.000000e-07	1.048949e-06	3.493244e-09	7.493102e+00	2.259269e+02
9.100000e-07	1.179787e-06	4.697460e-09	8.427736e+00	3.048952e+02
9.200000e-07	1.310167e-06	5.924843e-09	9.359097e+00	3.852701e+02
9.300000e-07	1.440111e-06	7.163409e-09	1.028734e+01	4.663185e+02
9.400000e-07	1.569566e-06	8.397674e-09	1.121209e+01	5.470676e+02
9.500000e-07	1.698420e-06	9.609116e-09	1.213256e+01	6.264186e+02
9.600000e-07	1.826628e-06	1.077825e-08	1.304840e+01	7.032793e+02
9.700000e-07	1.954126e-06	1.188735e-08	1.395917e+01	7.766926e+02
9.800000e-07	2.080788e-06	1.292915e-08	1.486398e+01	8.459369e+02
9.900000e-07	2.206715e-06	1.390111e-08	1.576353e+01	9.105840e+02
1.000000e-06	2.331971e-06	1.480372e-08	1.665829e+01	9.705059e+02
1.010000e-06	2.456425e-06	1.563914e-08	1.754732e+01	1.025837e+03
1.020000e-06	2.579978e-06	1.641647e-08	1.842991e+01	1.076902e+03
1.030000e-06	2.702535e-06	1.713814e-08	1.930539e+01	1.124131e+03
1.040000e-06	2.824049e-06	1.780835e-08	2.017342e+01	1.167973e+03
1.050000e-06	2.944449e-06	1.843166e-08	2.103349e+01	1.208835e+03
1.060000e-06	3.063657e-06	1.901118e-08	2.188504e+01	1.247041e+03
1.070000e-06	3.181790e-06	1.955223e-08	2.272892e+01	1.282827e+03
1.080000e-06	3.298809e-06	2.005683e-08	2.356483e+01	1.316358e+03
1.090000e-06	3.414547e-06	2.052819e-08	2.439160e+01	1.347754e+03
1.100000e-06	3.528947e-06	2.097024e-08	2.520881e+01	1.377126e+03
1.110000e-06	3.641960e-06	2.138668e-08	2.601611e+01	1.404598e+03
1.120000e-06	3.753511e-06	2.177851e-08	2.681297e+01	1.430320e+03
1.130000e-06	3.863742e-06	2.214916e-08	2.760040e+01	1.454464e+03
1.140000e-06	3.972831e-06	2.250011e-08	2.837967e+01	1.477209e+03
1.150000e-06	4.080639e-06	2.283253e-08	2.914978e+01	1.498721e+03
1.160000e-06	4.186930e-06	2.314625e-08	2.990907e+01	1.519136e+03
1.170000e-06	4.291624e-06	2.344043e-08	3.065694e+01	1.538549e+03
1.180000e-06	4.394749e-06	2.371528e-08	3.139361e+01	1.557017e+03
1.190000e-06	4.496331e-06	2.397427e-08	3.211925e+01	1.574562e+03
1.200000e-06	4.596414e-06	2.422048e-08	3.283419e+01	1.591198e+03
1.210000e-06	4.694828e-06	2.445735e-08	3.353721e+01	1.606936e+03
1.220000e-06	4.791445e-06	2.468511e-08	3.422738e+01	1.621806e+03
1.230000e-06	4.886300e-06	2.490291e-08	3.490497e+01	1.635860e+03
1.240000e-06	4.979475e-06	2.510838e-08	3.557056e+01	1.649167e+03
1.250000e-06	5.070927e-06	2.530056e-08	3.622385e+01	1.661806e+03
1.260000e-06	5.160477e-06	2.548230e-08	3.686354e+01	1.673852e+03
1.270000e-06	5.248098e-06	2.565364e-08	3.748946e+01	1.685365e+03
1.280000e-06	5.333841e-06	2.581737e-08	3.810196e+01	1.696379e+03
1.290000e-06	5.417782e-06	2.597571e-08	3.870158e+01	1.706906e+03
1.300000e-06	5.499792e-06	2.612829e-08	3.928741e+01	1.716940e+03
1.310000e-06	5.579655e-06	2.627406e-08	3.985791e+01	1.726465e+03
1.320000e-06	5.657470e-06	2.641236e-08	4.041378e+01	1.735469e+03
1.330000e-06	5.733180e-06	2.654467e-08	4.095461e+01	1.743951e+03
1.340000e-06	5.806644e-06	2.667087e-08	4.147939e+01	1.751929e+03
1.350000e-06	5.877939e-06	2.678843e-08	4.198868e+01	1.759433e+03
1.360000e-06	5.947204e-06	2.689809e-08	4.248347e+01	1.766507e+03
1.370000e-06	6.014349e-06	2.700160e-08	4.296312e+01	1.773194e+03
1.380000e-06	6.079251e-06	2.709802e-08	4.342674e+01	1.779531e+03
1.390000e-06	6.142030e-06	2.718671e-08	4.387520e+01	1.785547e+03
1.400000e-06	6.202757e-06	2.726993e-08	4.430900e+01	1.791253e+03
1.410000e-06	6.261314e-06	2.734963e-08	4.472730e+01	1.796655e+03
1.420000e-06	6.317624e-06	2.742633e-08	4.512954e+01	1.801752e+03
1.430000e-06	6.371633e-06	2.749940e-08	4.551535e+01	1.806545e+03
1.440000e-06	6.423117e-06	2.756969e-08	4.588313e+01	1.811042e+03
1.450000e-06	6.472013e-06	2.763762e-08	4.623241e+01	1.815258e+03
1.460000e-06	6.518489e-06	2.770039e-08	4.656441e+01	1.819212e+03
1.470000e-06	6.562726e-06	2.775736e-08	4.688042e+01	1.822924e+03
1.480000e-06	6.604590e-06	2.780923e-08	4.717947e+01	1.826409e+03
1.490000e-06	6.643995e-06	2.785800e-08	4.746095e+01	1.829671e+03
1.500000e-06	6.681136e-06	2.790411e-08	4.772627e+01	1.832703e+03
1.510000e-06	6.715955e-06	2.794725e-08	4.797500e+01	1.835490e+03
1.520000e-06	6.748312e-06	2.798670e-08	4.820614e+01	1.838012e+03
1.530000e-06	6.778333e-06	2.802040e-08	4.842059e+01	1.840254e+03
1.540000e-06	6.806074e-06	2.805035e-08	4.861875e+01	1.842209e+03
1.550000e-06	6.831240e-06	2.807722e-08	4.879853e+01	1.843883e+03
1.560000e-06	6.853849e-06	2.810053e-08	4.896004e+01	1.845298e+03
1.570000e-06	6.874128e-06	2.812017e-08	4.910490e+01	1.846482e+03
1.580000e-06	6.892001e-06	2.813496e-08	4.923257e+01	1.847470e+03
1.590000e-06	6.907333e-06	2.814616e-08	4.934209e+01	1.848291e+03
1.600000e-06	6.920065e-06	2.815644e-08	4.943304e+01	1.848964e+03
1.610000e-06	6.930060e-06	2.816658e-08	4.950444e+01	1.849494e+03
1.620000e-06	6.937372e-06	2.817467e-08	4.955668e+01	1.849871e+03
1.630000e-06	6.942248e-06	2.817840e-08	4.959151e+01	1.850079e+03
1.640000e-06	6.944683e-06	2.817817e-08	4.960890e+01	1.850094e+03
1.650000e-06	6.944630e-06	2.817258e-08	4.960852e+01	1.849898e+03
1.660000e-06	6.942311e-06	2.816669e-08	4.959196e+01	1.849480e+03
1.670000e-06	6.937764e-06	2.815546e-08	4.955947e+01	1.848841e+03
1.680000e-06	6.930779e-06	2.814528e-08	4.950958e+01	1.847991e+03
1.690000e-06	6.921443e-06	2.813573e-08	4.944289e+01	1.846947e+03
1.700000e-06	6.909798e-06	2.812178e-08	4.935970e+01	1.845729e+03
1.710000e-06	6.895776e-06	2.810386e-08	4.925954e+01	1.844355e+03
1.720000e-06	6.879509e-06	2.807543e-08	4.914334e+01	1.842840e+03
1.730000e-06	6.861159e-06	2.803380e-08	4.901225e+01	1.841194e+03
1.740000e-06	6.840416e-06	2.801038e-08	4.886408e+01	1.839421e+03
1.750000e-06	6.816621e-06	2.796509e-08	4.869410e+01	1.837527e+03
1.760000e-06	6.789692e-06	2.794516e-08	4.850173e+01	1.835517e+03
1.770000e-06	6.760040e-06	2.793352e-08	4.828992e+01	1.833393e+03
1.780000e-06	6.728186e-06	2.789968e-08	4.806237e+01	1.831159e+03
1.790000e-06	6.694696e-06	2.785463e-08	4.782314e+01	1.828812e+03
1.800000e-06	6.659713e-06	2.786308e-08	4.757324e+01	1.826340e+03
1.810000e-06	6.622671e-06	2.779949e-08	4.730863e+01	1.823719e+03
1.820000e-06	6.583134e-06	2.778099e-08	4.702620e+01	1.820914e+03
1.830000e-06	6.541356e-06	2.780317e-08	4.672776e+01	1.817884e+03
1.840000e-06	6.497296e-06	2.767875e-08	4.641302e+01	1.814586e+03
1.850000e-06	6.450807e-06	2.766086e-08	4.608093e+01	1.810981e+03
1.860000e-06	6.401945e-06	2.754654e-08	4.573188e+01	1.807048e+03
1.870000e-06	6.350663e-06	2.741833e-08	4.536556e+01	1.802782e+03
1.880000e-06	6.296891e-06	2.741575e-08	4.498144e+01	1.798196e+03
1.890000e-06	6.240526e-06	2.734172e-08	4.457880e+01	1.793322e+03
1.900000e-06	6.181820e-06	2.729494e-08	4.415943e+01	1.788194e+03
1.910000e-06	6.120864e-06	2.722031e-08	4.372400e+01	1.782847e+03
1.920000e-06	6.057455e-06	2.714092e-08	4.327104e+01	1.777301e+03
1.930000e-06	5.991782e-06	2.704302e-08	4.280192e+01	1.771561e+03
1.940000e-06	5.923964e-06	2.690607e-08	4.231746e+01	1.765610e+03
1.950000e-06	5.853832e-06	2.685803e-08	4.181648e+01	1.759419e+03
1.960000e-06	5.781368e-06	2.672920e-08	4.129884e+01	1.752950e+03
1.970000e-06	5.706709e-06	2.664426e-08	4.076551e+01	1.746167e+03
1.980000e-06	5.629839e-06	2.654734e-08	4.021639e+01	1.739044e+03
1.990000e-06	5.550680e-06	2.641520e-08	3.965093e+01	1.731571e+03
2.000000e-06	5.469509e-06	2.632338e-08	3.907109e+01	1.723748e+03
2.010000e-06	5.386549e-06	2.617553e-08	3.847847e+01	1.715584e+03
2.020000e-06	5.301691e-06	2.605695e-08	3.787229e+01	1.707088e+03
2.030000e-06	5.214751e-06	2.590753e-08	3.725124e+01	1.698264e+03
2.040000e-06	5.125891e-06	2.577540e-08	3.661647e+01	1.689097e+03
2.050000e-06	5.035414e-06	2.563047e-08	3.597016e+01	1.679561e+03
2.060000e-06	4.943212e-06	2.547499e-08	3.531152e+01	1.669618e+03
2.070000e-06	4.849214e-06	2.532987e-08	3.464005e+01	1.659229e+03
2.080000e-06	4.753474e-06	2.515686e-08	3.395614e+01	1.648357e+03
2.090000e-06	4.656106e-06	2.499794e-08	3.326059e+01	1.636980e+03
2.100000e-06	4.557256e-06	2.481247e-08	3.255447e+01	1.625092e+03
2.110000e-06	4.456790e-06	2.463300e-08	3.183680e+01	1.612700e+03
2.120000e-06	4.354620e-06	2.443318e-08	3.110695e+01	1.599814e+03
2.130000e-06	4.250776e-06	2.422076e-08	3.036515e+01	1.586442e+03
2.140000e-06	4.145421e-06	2.400154e-08	2.961255e+01	1.572576e+03
2.150000e-06	4.038715e-06	2.378240e-08	2.885030e+01	1.558184e+03
2.160000e-06	3.930559e-06	2.356416e-08	2.807769e+01	1.543213e+03
2.170000e-06	3.820982e-06	2.333215e-08	2.729494e+01	1.527594e+03
2.180000e-06	3.709984e-06	2.309620e-08	2.650203e+01	1.511250e+03
2.190000e-06	3.597514e-06	2.283549e-08	2.569861e+01	1.494113e+03
2.200000e-06	3.483658e-06	2.256265e-08	2.488529e+01	1.476131e+03
2.210000e-06	3.368331e-06	2.227084e-08	2.406145e+01	1.457274e+03
2.220000e-06	3.251481e-06	2.197292e-08	2.322674e+01	1.437529e+03
2.230000e-06	3.133369e-06	2.166052e-08	2.238302e+01	1.416889e+03
2.240000e-06	3.014051e-06	2.133332e-08	2.153068e+01	1.395342e+03
2.250000e-06	2.893492e-06	2.098723e-08	2.066947e+01	1.372846e+03
2.260000e-06	2.771888e-06	2.062744e-08	1.980081e+01	1.349329e+03
2.270000e-06	2.649401e-06	2.025565e-08	1.892582e+01	1.324676e+03
2.280000e-06	2.526033e-06	1.986556e-08	1.804455e+01	1.298742e+03
2.290000e-06	2.401645e-06	1.945506e-08	1.715600e+01	1.271363e+03
2.300000e-06	2.276305e-06	1.901458e-08	1.626064e+01	1.242376e+03
2.310000e-06	2.150243e-06	1.854524e-08	1.536012e+01	1.211631e+03
2.320000e-06	2.023526e-06	1.804542e-08	1.445493e+01	1.179001e+03
2.330000e-06	1.896021e-06	1.751921e-08	1.354410e+01	1.144377e+03
2.340000e-06	1.767756e-06	1.696302e-08	1.262785e+01	1.107656e+03
2.350000e-06	1.638903e-06	1.637494e-08	1.170740e+01	1.068721e+03
2.360000e-06	1.509522e-06	1.574742e-08	1.078317e+01	1.027422e+03
2.370000e-06	1.379704e-06	1.507845e-08	9.855826e+00	9.835678e+02
2.380000e-06	1.249571e-06	1.436715e-08	8.926234e+00	9.369352e+02
2.390000e-06	1.119145e-06	1.360804e-08	7.994540e+00	8.872938e+02
2.400000e-06	9.884585e-07	1.279853e-08	7.060990e+00	8.344509e+02
2.410000e-06	8.574815e-07	1.194133e-08	6.125365e+00	7.783038e+02
2.420000e-06	7.261777e-07	1.103802e-08	5.187404e+00	7.188888e+02
2.430000e-06	5.946411e-07	1.008829e-08	4.247781e+00	6.564126e+02
2.440000e-06	4.628242e-07	9.095735e-09	3.306155e+00	5.912553e+02
2.450000e-06	3.307212e-07	8.067343e-09	2.362486e+00	5.239383e+02
2.460000e-06	1.984147e-07	7.013667e-09	1.417362e+00	4.550591e+02
2.470000e-06	6.594561e-08	5.946015e-09	4.710783e-01	3.852031e+02
2.480000e-06	-6.661046e-08	4.870745e-09	-4.758275e-01	3.148488e+02
2.490000e-06	-1.991272e-07	3.790572e-09	-1.422453e+00	2.442871e+02
2.500000e-06	-3.315515e-07	2.706301e-09	-2.368417e+00	1.735741e+02
2.510000e-06	-4.638377e-07	1.613720e-09	-3.313395e+00	1.025291e+02
2.520000e-06	-5.959390e-07	5.141810e-10	-4.257052e+00	3.078438e+01
2.530000e-06	-7.278188e-07	-5.994205e-10	-5.199127e+00	-4.212126e+01
2.540000e-06	-8.594358e-07	-1.735688e-09	-6.139325e+00	-1.166222e+02
2.550000e-06	-9.907643e-07	-2.895775e-09	-7.077461e+00	-1.930008e+02
2.560000e-06	-1.121700e-06	-4.085403e-09	-8.012794e+00	-2.712831e+02
2.570000e-06	-1.252201e-06	-5.301527e-09	-8.945018e+00	-3.511771e+02
2.580000e-06	-1.382316e-06	-6.538888e-09	-9.874484e+00	-4.320661e+02
2.590000e-06	-1.512095e-06	-7.782492e-09	-1.080155e+01	-5.130601e+02
2.600000e-06	-1.641489e-06	-9.014496e-09	-1.172587e+01	-5.930945e+02
2.610000e-06	-1.770326e-06	-1.021564e-08	-1.264621e+01	-6.710582e+02
2.620000e-06	-1.898429e-06	-1.136487e-08	-1.356131e+01	-7.459270e+02
2.630000e-06	-2.025715e-06	-1.245091e-08	-1.447056e+01	-8.168775e+02
2.640000e-06	-2.152205e-06	-1.346702e-08	-1.537414e+01	-8.833626e+02
2.650000e-06	-2.277935e-06	-1.441054e-08	-1.627228e+01	-9.451384e+02
2.660000e-06	-2.402849e-06	-1.528381e-08	-1.716460e+01	-1.002243e+03
2.670000e-06	-2.526808e-06	-1.609360e-08	-1.805009e+01	-1.054938e+03
2.680000e-06	-2.649665e-06	-1.684398e-08	-1.892771e+01	-1.103620e+03
2.690000e-06	-2.771549e-06	-1.753817e-08	-1.979839e+01	-1.148741e+03
2.700000e-06	-2.892474e-06	-1.818254e-08	-2.066221e+01	-1.190730e+03
2.710000e-06	-3.012279e-06	-1.878707e-08	-2.151803e+01	-1.229947e+03
2.720000e-06	-3.130941e-06	-1.935374e-08	-2.236568e+01	-1.266661e+03
2.730000e-06	-3.248371e-06	-1.988046e-08	-2.320453e+01	-1.301063e+03
2.740000e-06	-3.364543e-06	-2.036829e-08	-2.403440e+01	-1.333285e+03
2.750000e-06	-3.479330e-06	-2.082235e-08	-2.485437e+01	-1.363438e+03
2.760000e-06	-3.592651e-06	-2.124891e-08	-2.566387e+01	-1.391641e+03
2.770000e-06	-3.704547e-06	-2.165208e-08	-2.646320e+01	-1.418031e+03
2.780000e-06	-3.815024e-06	-2.203408e-08	-2.725238e+01	-1.442774e+03
2.790000e-06	-3.924162e-06	-2.239348e-08	-2.803200e+01	-1.466048e+03
2.800000e-06	-4.032094e-06	-2.273229e-08	-2.880300e+01	-1.488026e+03
2.810000e-06	-4.138779e-06	-2.305387e-08	-2.956510e+01	-1.508859e+03
2.820000e-06	-4.244030e-06	-2.335973e-08	-3.031696e+01	-1.528658e+03
2.830000e-06	-4.347726e-06	-2.364784e-08	-3.105771e+01	-1.547493e+03
2.840000e-06	-4.449742e-06	-2.391694e-08	-3.178645e+01	-1.565399e+03
2.850000e-06	-4.550138e-06	-2.417199e-08	-3.250362e+01	-1.582391e+03
2.860000e-06	-4.648969e-06	-2.441553e-08	-3.320962e+01	-1.598480e+03
2.870000e-06	-4.746233e-06	-2.464736e-08	-3.390441e+01	-1.613687e+03
2.880000e-06	-4.841848e-06	-2.486965e-08	-3.458743e+01	-1.628054e+03
2.890000e-06	-4.935645e-06	-2.508405e-08	-3.525747e+01	-1.641646e+03
2.900000e-06	-5.027652e-06	-2.528837e-08	-3.591471e+01	-1.654538e+03
2.910000e-06	-5.117888e-06	-2.548077e-08	-3.655931e+01	-1.666810e+03
2.920000e-06	-5.206260e-06	-2.566106e-08	-3.719059e+01	-1.678527e+03
2.930000e-06	-5.292615e-06	-2.583116e-08	-3.780746e+01	-1.689734e+03
2.940000e-06	-5.376975e-06	-2.599182e-08	-3.841008e+01	-1.700454e+03
