# Temperatura_=_31.92
# Concentracion g/m^3_=_28200.0
# C_Vs_to_Am_M_A/Vsm_=_65563218390.804596
# pendiente_HvsI_1/m_=_3716.3
# ordenada_HvsI_A/m_=_1297.0
# frecuencia_Hz_=_302274.08570948127

Tiempo_(s)	Campo_(V.s)	Magnetizacion_(V.s)	Campo_(kA/m)	Magnetizacion_(A/m)
0.000000e+00	-6.919474e-06	-2.334899e-08	-4.952069e+01	-1.527955e+03
1.000000e-08	-6.916174e-06	-2.334775e-08	-4.949707e+01	-1.527589e+03
2.000000e-08	-6.910567e-06	-2.333759e-08	-4.945694e+01	-1.527044e+03
3.000000e-08	-6.902853e-06	-2.332698e-08	-4.940173e+01	-1.526317e+03
4.000000e-08	-6.892749e-06	-2.331362e-08	-4.932942e+01	-1.525413e+03
5.000000e-08	-6.880055e-06	-2.329453e-08	-4.923858e+01	-1.524347e+03
6.000000e-08	-6.864863e-06	-2.327425e-08	-4.912985e+01	-1.523143e+03
7.000000e-08	-6.847371e-06	-2.324855e-08	-4.900467e+01	-1.521824e+03
8.000000e-08	-6.827830e-06	-2.322282e-08	-4.886482e+01	-1.520415e+03
9.000000e-08	-6.805985e-06	-2.325590e-08	-4.870848e+01	-1.518934e+03
1.000000e-07	-6.781374e-06	-2.324293e-08	-4.853235e+01	-1.517393e+03
1.100000e-07	-6.753986e-06	-2.316618e-08	-4.833633e+01	-1.515795e+03
1.200000e-07	-6.724162e-06	-2.312814e-08	-4.812290e+01	-1.514131e+03
1.300000e-07	-6.692159e-06	-2.310605e-08	-4.789386e+01	-1.512384e+03
1.400000e-07	-6.657972e-06	-2.301268e-08	-4.764919e+01	-1.510527e+03
1.500000e-07	-6.621990e-06	-2.296383e-08	-4.739168e+01	-1.508527e+03
1.600000e-07	-6.584242e-06	-2.305973e-08	-4.712153e+01	-1.506349e+03
1.700000e-07	-6.544245e-06	-2.292542e-08	-4.683528e+01	-1.503959e+03
1.800000e-07	-6.501920e-06	-2.285520e-08	-4.653238e+01	-1.501327e+03
1.900000e-07	-6.457105e-06	-2.289359e-08	-4.621164e+01	-1.498436e+03
2.000000e-07	-6.409861e-06	-2.275144e-08	-4.587353e+01	-1.495276e+03
2.100000e-07	-6.360184e-06	-2.272476e-08	-4.551801e+01	-1.491854e+03
2.200000e-07	-6.307805e-06	-2.270762e-08	-4.514315e+01	-1.488185e+03
2.300000e-07	-6.252912e-06	-2.265843e-08	-4.475029e+01	-1.484291e+03
2.400000e-07	-6.195713e-06	-2.260815e-08	-4.434094e+01	-1.480197e+03
2.500000e-07	-6.136136e-06	-2.250415e-08	-4.391456e+01	-1.475923e+03
2.600000e-07	-6.074248e-06	-2.244670e-08	-4.347164e+01	-1.471480e+03
2.700000e-07	-6.010162e-06	-2.235985e-08	-4.301300e+01	-1.466866e+03
2.800000e-07	-5.943858e-06	-2.227356e-08	-4.253849e+01	-1.462068e+03
2.900000e-07	-5.875310e-06	-2.221384e-08	-4.204791e+01	-1.457064e+03
3.000000e-07	-5.804561e-06	-2.213467e-08	-4.154158e+01	-1.451827e+03
3.100000e-07	-5.731556e-06	-2.206594e-08	-4.101910e+01	-1.446330e+03
3.200000e-07	-5.656241e-06	-2.195826e-08	-4.048009e+01	-1.440555e+03
3.300000e-07	-5.578593e-06	-2.187271e-08	-3.992439e+01	-1.434489e+03
3.400000e-07	-5.498636e-06	-2.176619e-08	-3.935216e+01	-1.428133e+03
3.500000e-07	-5.416694e-06	-2.166688e-08	-3.876572e+01	-1.421491e+03
3.600000e-07	-5.332995e-06	-2.157990e-08	-3.816671e+01	-1.414570e+03
3.700000e-07	-5.247521e-06	-2.145562e-08	-3.755500e+01	-1.407371e+03
3.800000e-07	-5.160267e-06	-2.134553e-08	-3.693055e+01	-1.399889e+03
3.900000e-07	-5.071254e-06	-2.122123e-08	-3.629351e+01	-1.392104e+03
4.000000e-07	-4.980426e-06	-2.109485e-08	-3.564348e+01	-1.383991e+03
4.100000e-07	-4.887792e-06	-2.095790e-08	-3.498052e+01	-1.375519e+03
4.200000e-07	-4.793556e-06	-2.082750e-08	-3.430610e+01	-1.366656e+03
4.300000e-07	-4.697691e-06	-2.068814e-08	-3.362003e+01	-1.357379e+03
4.400000e-07	-4.600076e-06	-2.053107e-08	-3.292142e+01	-1.347675e+03
4.500000e-07	-4.500747e-06	-2.037419e-08	-3.221055e+01	-1.337543e+03
4.600000e-07	-4.399831e-06	-2.021307e-08	-3.148832e+01	-1.326987e+03
4.700000e-07	-4.297376e-06	-2.004922e-08	-3.075509e+01	-1.316014e+03
4.800000e-07	-4.193392e-06	-1.987606e-08	-3.001090e+01	-1.304623e+03
4.900000e-07	-4.087917e-06	-1.970365e-08	-2.925605e+01	-1.292799e+03
5.000000e-07	-3.980839e-06	-1.951669e-08	-2.848972e+01	-1.280511e+03
5.100000e-07	-3.872264e-06	-1.931669e-08	-2.771268e+01	-1.267712e+03
5.200000e-07	-3.762394e-06	-1.910428e-08	-2.692637e+01	-1.254342e+03
5.300000e-07	-3.651148e-06	-1.888154e-08	-2.613022e+01	-1.240341e+03
5.400000e-07	-3.538553e-06	-1.864965e-08	-2.532440e+01	-1.225651e+03
5.500000e-07	-3.424532e-06	-1.840971e-08	-2.450839e+01	-1.210231e+03
5.600000e-07	-3.308955e-06	-1.816629e-08	-2.368124e+01	-1.194050e+03
5.700000e-07	-3.191975e-06	-1.790938e-08	-2.284405e+01	-1.177093e+03
5.800000e-07	-3.073808e-06	-1.763944e-08	-2.199836e+01	-1.159346e+03
5.900000e-07	-2.954514e-06	-1.735718e-08	-2.114461e+01	-1.140789e+03
6.000000e-07	-2.834168e-06	-1.706572e-08	-2.028332e+01	-1.121385e+03
6.100000e-07	-2.712817e-06	-1.675624e-08	-1.941485e+01	-1.101072e+03
6.200000e-07	-2.590377e-06	-1.642733e-08	-1.853859e+01	-1.079762e+03
6.300000e-07	-2.466868e-06	-1.607815e-08	-1.765467e+01	-1.057346e+03
6.400000e-07	-2.342393e-06	-1.570840e-08	-1.676384e+01	-1.033697e+03
6.500000e-07	-2.217138e-06	-1.532043e-08	-1.586742e+01	-1.008691e+03
6.600000e-07	-2.091253e-06	-1.491419e-08	-1.496650e+01	-9.822044e+02
6.700000e-07	-1.964699e-06	-1.448879e-08	-1.406079e+01	-9.541285e+02
6.800000e-07	-1.837410e-06	-1.403793e-08	-1.314981e+01	-9.243615e+02
6.900000e-07	-1.709449e-06	-1.355766e-08	-1.223404e+01	-8.928043e+02
7.000000e-07	-1.580935e-06	-1.304388e-08	-1.131430e+01	-8.593500e+02
7.100000e-07	-1.451907e-06	-1.249954e-08	-1.039088e+01	-8.238773e+02
7.200000e-07	-1.322416e-06	-1.192116e-08	-9.464149e+00	-7.862495e+02
7.300000e-07	-1.192483e-06	-1.130975e-08	-8.534259e+00	-7.463259e+02
7.400000e-07	-1.062176e-06	-1.066448e-08	-7.601691e+00	-7.039826e+02
7.500000e-07	-9.315265e-07	-9.981347e-09	-6.666667e+00	-6.591444e+02
7.600000e-07	-8.004864e-07	-9.261152e-09	-5.728851e+00	-6.118176e+02
7.700000e-07	-6.691236e-07	-8.503733e-09	-4.788725e+00	-5.621188e+02
7.800000e-07	-5.375304e-07	-7.713038e-09	-3.846951e+00	-5.102882e+02
7.900000e-07	-4.057461e-07	-6.895426e-09	-2.903808e+00	-4.566826e+02
8.000000e-07	-2.738124e-07	-6.060620e-09	-1.959596e+00	-4.017440e+02
8.100000e-07	-1.417593e-07	-5.212740e-09	-1.014530e+00	-3.459468e+02
8.200000e-07	-9.634558e-09	-4.358423e-09	-6.895176e-02	-2.897314e+02
8.300000e-07	1.224855e-07	-3.503112e-09	8.765935e-01	-2.334372e+02
8.400000e-07	2.545979e-07	-2.648434e-09	1.822084e+00	-1.772474e+02
8.500000e-07	3.866247e-07	-1.793402e-09	2.766962e+00	-1.211600e+02
8.600000e-07	5.185123e-07	-9.376505e-10	3.710844e+00	-6.499282e+01
8.700000e-07	6.502634e-07	-7.867873e-11	4.653748e+00	-8.424094e+00
8.800000e-07	7.817991e-07	7.910770e-10	5.595112e+00	4.893609e+01
8.900000e-07	9.130835e-07	1.677740e-09	6.534676e+00	1.074560e+02
9.000000e-07	1.044069e-06	2.587963e-09	7.472103e+00	1.673904e+02
9.100000e-07	1.174681e-06	3.524160e-09	8.406857e+00	2.288045e+02
9.200000e-07	1.304901e-06	4.483077e-09	9.338799e+00	2.915274e+02
9.300000e-07	1.434654e-06	5.455137e-09	1.026741e+01	3.551460e+02
9.400000e-07	1.563930e-06	6.433352e-09	1.119260e+01	4.190388e+02
9.500000e-07	1.692658e-06	7.403396e-09	1.211387e+01	4.824440e+02
9.600000e-07	1.820636e-06	8.347110e-09	1.302977e+01	5.445497e+02
9.700000e-07	1.947834e-06	9.254175e-09	1.394009e+01	6.045874e+02
9.800000e-07	2.074316e-06	1.011723e-08	1.484528e+01	6.619153e+02
9.900000e-07	2.200136e-06	1.093304e-08	1.574574e+01	7.160753e+02
1.000000e-06	2.325288e-06	1.169512e-08	1.664142e+01	7.668177e+02
1.010000e-06	2.449620e-06	1.240880e-08	1.753122e+01	8.140932e+02
1.020000e-06	2.572961e-06	1.307829e-08	1.841394e+01	8.580166e+02
1.030000e-06	2.695304e-06	1.370307e-08	1.928952e+01	8.988146e+02
1.040000e-06	2.816633e-06	1.428543e-08	2.015783e+01	9.367685e+02
1.050000e-06	2.936820e-06	1.482612e-08	2.101798e+01	9.721645e+02
1.060000e-06	3.055856e-06	1.532602e-08	2.186989e+01	1.005258e+03
1.070000e-06	3.173838e-06	1.579036e-08	2.271425e+01	1.036258e+03
1.080000e-06	3.290722e-06	1.622649e-08	2.355076e+01	1.065325e+03
1.090000e-06	3.406289e-06	1.663626e-08	2.437783e+01	1.092588e+03
1.100000e-06	3.520419e-06	1.702089e-08	2.519463e+01	1.118158e+03
1.110000e-06	3.633133e-06	1.738521e-08	2.600129e+01	1.142144e+03
1.120000e-06	3.744508e-06	1.773317e-08	2.679837e+01	1.164667e+03
1.130000e-06	3.854645e-06	1.806203e-08	2.758659e+01	1.185854e+03
1.140000e-06	3.963596e-06	1.837071e-08	2.836632e+01	1.205838e+03
1.150000e-06	4.071215e-06	1.865836e-08	2.913652e+01	1.224740e+03
1.160000e-06	4.177359e-06	1.892695e-08	2.989616e+01	1.242665e+03
1.170000e-06	4.281880e-06	1.918066e-08	3.064419e+01	1.259691e+03
1.180000e-06	4.384789e-06	1.942147e-08	3.138068e+01	1.275870e+03
1.190000e-06	4.486282e-06	1.965064e-08	3.210703e+01	1.291233e+03
1.200000e-06	4.586258e-06	1.987106e-08	3.282253e+01	1.305798e+03
1.210000e-06	4.684533e-06	2.008123e-08	3.352586e+01	1.319587e+03
1.220000e-06	4.780929e-06	2.027791e-08	3.421574e+01	1.332629e+03
1.230000e-06	4.875492e-06	2.046419e-08	3.489249e+01	1.344966e+03
1.240000e-06	4.968433e-06	2.064259e-08	3.555764e+01	1.356655e+03
1.250000e-06	5.059748e-06	2.081212e-08	3.621116e+01	1.367755e+03
1.260000e-06	5.149248e-06	2.097234e-08	3.685169e+01	1.378322e+03
1.270000e-06	5.236790e-06	2.112276e-08	3.747820e+01	1.388401e+03
1.280000e-06	5.322401e-06	2.126658e-08	3.809090e+01	1.398015e+03
1.290000e-06	5.406208e-06	2.140513e-08	3.869068e+01	1.407171e+03
1.300000e-06	5.488063e-06	2.153901e-08	3.927649e+01	1.415861e+03
1.310000e-06	5.567824e-06	2.166704e-08	3.984731e+01	1.424070e+03
1.320000e-06	5.645565e-06	2.178904e-08	4.040368e+01	1.431789e+03
1.330000e-06	5.721177e-06	2.190313e-08	4.094482e+01	1.439023e+03
1.340000e-06	5.794496e-06	2.200624e-08	4.146955e+01	1.445792e+03
1.350000e-06	5.865640e-06	2.210180e-08	4.197870e+01	1.452137e+03
1.360000e-06	5.934807e-06	2.219263e-08	4.247371e+01	1.458109e+03
1.370000e-06	6.001858e-06	2.227940e-08	4.295357e+01	1.463763e+03
1.380000e-06	6.066642e-06	2.236010e-08	4.341721e+01	1.469148e+03
1.390000e-06	6.129293e-06	2.243581e-08	4.386559e+01	1.474301e+03
1.400000e-06	6.189963e-06	2.250933e-08	4.429979e+01	1.479238e+03
1.410000e-06	6.248501e-06	2.258074e-08	4.471873e+01	1.483962e+03
1.420000e-06	6.304737e-06	2.264996e-08	4.512119e+01	1.488458e+03
1.430000e-06	6.358663e-06	2.271544e-08	4.550712e+01	1.492710e+03
1.440000e-06	6.410035e-06	2.277493e-08	4.587478e+01	1.496701e+03
1.450000e-06	6.458733e-06	2.282881e-08	4.622330e+01	1.500424e+03
1.460000e-06	6.505097e-06	2.287925e-08	4.655511e+01	1.503883e+03
1.470000e-06	6.549334e-06	2.292807e-08	4.687170e+01	1.507088e+03
1.480000e-06	6.591209e-06	2.297337e-08	4.717139e+01	1.510058e+03
1.490000e-06	6.630633e-06	2.301505e-08	4.745354e+01	1.512812e+03
1.500000e-06	6.667837e-06	2.305487e-08	4.771979e+01	1.515363e+03
1.510000e-06	6.702723e-06	2.309228e-08	4.796946e+01	1.517717e+03
1.520000e-06	6.735113e-06	2.312508e-08	4.820127e+01	1.519870e+03
1.530000e-06	6.765187e-06	2.315259e-08	4.841650e+01	1.521812e+03
1.540000e-06	6.792986e-06	2.317778e-08	4.861545e+01	1.523534e+03
1.550000e-06	6.818168e-06	2.319959e-08	4.879567e+01	1.525028e+03
1.560000e-06	6.840758e-06	2.321743e-08	4.895734e+01	1.526294e+03
1.570000e-06	6.861085e-06	2.323316e-08	4.910282e+01	1.527342e+03
1.580000e-06	6.879000e-06	2.324699e-08	4.923103e+01	1.528190e+03
1.590000e-06	6.894327e-06	2.325815e-08	4.934072e+01	1.528862e+03
1.600000e-06	6.907061e-06	2.326741e-08	4.943185e+01	1.529382e+03
1.610000e-06	6.917024e-06	2.327619e-08	4.950315e+01	1.529770e+03
1.620000e-06	6.924348e-06	2.328330e-08	4.955557e+01	1.530034e+03
1.630000e-06	6.929320e-06	2.328612e-08	4.959115e+01	1.530177e+03
1.640000e-06	6.931800e-06	2.328466e-08	4.960890e+01	1.530188e+03
1.650000e-06	6.931767e-06	2.328358e-08	4.960866e+01	1.530054e+03
1.660000e-06	6.929456e-06	2.327459e-08	4.959212e+01	1.529756e+03
1.670000e-06	6.924885e-06	2.326506e-08	4.955941e+01	1.529282e+03
1.680000e-06	6.917874e-06	2.325780e-08	4.950923e+01	1.528626e+03
1.690000e-06	6.908562e-06	2.324860e-08	4.944259e+01	1.527789e+03
1.700000e-06	6.896991e-06	2.323800e-08	4.935979e+01	1.526785e+03
1.710000e-06	6.882928e-06	2.322717e-08	4.925914e+01	1.525632e+03
1.720000e-06	6.866632e-06	2.322322e-08	4.914252e+01	1.524355e+03
1.730000e-06	6.848364e-06	2.319430e-08	4.901177e+01	1.522978e+03
1.740000e-06	6.827795e-06	2.309128e-08	4.886457e+01	1.521523e+03
1.750000e-06	6.804163e-06	2.308163e-08	4.869544e+01	1.520005e+03
1.760000e-06	6.777281e-06	2.310845e-08	4.850306e+01	1.518429e+03
1.770000e-06	6.747713e-06	2.306593e-08	4.829144e+01	1.516793e+03
1.780000e-06	6.715987e-06	2.307527e-08	4.806439e+01	1.515081e+03
1.790000e-06	6.682567e-06	2.311819e-08	4.782521e+01	1.513270e+03
1.800000e-06	6.647714e-06	2.297049e-08	4.757578e+01	1.511331e+03
1.810000e-06	6.610761e-06	2.299054e-08	4.731132e+01	1.509226e+03
1.820000e-06	6.571200e-06	2.305306e-08	4.702819e+01	1.506923e+03
1.830000e-06	6.529467e-06	2.290842e-08	4.672952e+01	1.504389e+03
1.840000e-06	6.485523e-06	2.299763e-08	4.641502e+01	1.501601e+03
1.850000e-06	6.439187e-06	2.290105e-08	4.608341e+01	1.498546e+03
1.860000e-06	6.390502e-06	2.278273e-08	4.573499e+01	1.495226e+03
1.870000e-06	6.339329e-06	2.277302e-08	4.536876e+01	1.491651e+03
1.880000e-06	6.285634e-06	2.261673e-08	4.498448e+01	1.487842e+03
1.890000e-06	6.229394e-06	2.266125e-08	4.458198e+01	1.483824e+03
1.900000e-06	6.170835e-06	2.259218e-08	4.416289e+01	1.479618e+03
1.910000e-06	6.110039e-06	2.250973e-08	4.372779e+01	1.475241e+03
1.920000e-06	6.046818e-06	2.251377e-08	4.327534e+01	1.470694e+03
1.930000e-06	5.981400e-06	2.235640e-08	4.280716e+01	1.465971e+03
1.940000e-06	5.913818e-06	2.232203e-08	4.232350e+01	1.461051e+03
1.950000e-06	5.843916e-06	2.220104e-08	4.182323e+01	1.455908e+03
1.960000e-06	5.771646e-06	2.212837e-08	4.130601e+01	1.450516e+03
1.970000e-06	5.697169e-06	2.207058e-08	4.077300e+01	1.444851e+03
1.980000e-06	5.620496e-06	2.194617e-08	4.022428e+01	1.438900e+03
1.990000e-06	5.541469e-06	2.190047e-08	3.965870e+01	1.432658e+03
2.000000e-06	5.460469e-06	2.176092e-08	3.907901e+01	1.426127e+03
2.010000e-06	5.377651e-06	2.168238e-08	3.848631e+01	1.419315e+03
2.020000e-06	5.292942e-06	2.156339e-08	3.788006e+01	1.412225e+03
2.030000e-06	5.206242e-06	2.143957e-08	3.725958e+01	1.404855e+03
2.040000e-06	5.117618e-06	2.134362e-08	3.662532e+01	1.397191e+03
2.050000e-06	5.027335e-06	2.120704e-08	3.597919e+01	1.389211e+03
2.060000e-06	4.935387e-06	2.109634e-08	3.532115e+01	1.380883e+03
2.070000e-06	4.841729e-06	2.094364e-08	3.465086e+01	1.372177e+03
2.080000e-06	4.746249e-06	2.081990e-08	3.396754e+01	1.363064e+03
2.090000e-06	4.649102e-06	2.067482e-08	3.327229e+01	1.353529e+03
2.100000e-06	4.550418e-06	2.053032e-08	3.256604e+01	1.343565e+03
2.110000e-06	4.450157e-06	2.037923e-08	3.184849e+01	1.333174e+03
2.120000e-06	4.348255e-06	2.020897e-08	3.111921e+01	1.322364e+03
2.130000e-06	4.244641e-06	2.003249e-08	3.037767e+01	1.311137e+03
2.140000e-06	4.139483e-06	1.983969e-08	2.962509e+01	1.299486e+03
2.150000e-06	4.032929e-06	1.966180e-08	2.886251e+01	1.287385e+03
2.160000e-06	3.925030e-06	1.947232e-08	2.809031e+01	1.274793e+03
2.170000e-06	3.815720e-06	1.928548e-08	2.730801e+01	1.261655e+03
2.180000e-06	3.704953e-06	1.908034e-08	2.651528e+01	1.247909e+03
2.190000e-06	3.592788e-06	1.886665e-08	2.571255e+01	1.233495e+03
2.200000e-06	3.479249e-06	1.863443e-08	2.489999e+01	1.218366e+03
2.210000e-06	3.364254e-06	1.839390e-08	2.407700e+01	1.202486e+03
2.220000e-06	3.247798e-06	1.814448e-08	2.324356e+01	1.185835e+03
2.230000e-06	3.129956e-06	1.788365e-08	2.240020e+01	1.168400e+03
2.240000e-06	3.010798e-06	1.760580e-08	2.154741e+01	1.150164e+03
2.250000e-06	2.890492e-06	1.730665e-08	2.068642e+01	1.131098e+03
2.260000e-06	2.769205e-06	1.699804e-08	1.981841e+01	1.111151e+03
2.270000e-06	2.647023e-06	1.667733e-08	1.894399e+01	1.090245e+03
2.280000e-06	2.523862e-06	1.634957e-08	1.806256e+01	1.068277e+03
2.290000e-06	2.399726e-06	1.600572e-08	1.717415e+01	1.045128e+03
2.300000e-06	2.274754e-06	1.564087e-08	1.627976e+01	1.020669e+03
2.310000e-06	2.149016e-06	1.524622e-08	1.537989e+01	9.947778e+02
2.320000e-06	2.022506e-06	1.482928e-08	1.447450e+01	9.673386e+02
2.330000e-06	1.895192e-06	1.438681e-08	1.356335e+01	9.382475e+02
2.340000e-06	1.767169e-06	1.391904e-08	1.264712e+01	9.074054e+02
2.350000e-06	1.638571e-06	1.342324e-08	1.172678e+01	8.747097e+02
2.360000e-06	1.509460e-06	1.289527e-08	1.080277e+01	8.400452e+02
2.370000e-06	1.379946e-06	1.233279e-08	9.875874e+00	8.032807e+02
2.380000e-06	1.250075e-06	1.173366e-08	8.946430e+00	7.642751e+02
2.390000e-06	1.119806e-06	1.110212e-08	8.014130e+00	7.228945e+02
2.400000e-06	9.891947e-07	1.043354e-08	7.079382e+00	6.790406e+02
2.410000e-06	8.582664e-07	9.729101e-09	6.142366e+00	6.326839e+02
2.420000e-06	7.270345e-07	8.988722e-09	5.203177e+00	5.838950e+02
2.430000e-06	5.955186e-07	8.210910e-09	4.261956e+00	5.328651e+02
2.440000e-06	4.637819e-07	7.400218e-09	3.319154e+00	4.799076e+02
2.450000e-06	3.319630e-07	6.564189e-09	2.375764e+00	4.254363e+02
2.460000e-06	2.000362e-07	5.712416e-09	1.431601e+00	3.699201e+02
2.470000e-06	6.794056e-08	4.853968e-09	4.862311e-01	3.138212e+02
2.480000e-06	-6.422067e-08	3.994473e-09	-4.596089e-01	2.575263e+02
2.490000e-06	-1.963796e-07	3.134985e-09	-1.405433e+00	2.012848e+02
2.500000e-06	-3.284875e-07	2.275691e-09	-2.350891e+00	1.451692e+02
2.510000e-06	-4.604774e-07	1.415602e-09	-3.295504e+00	8.906508e+01
2.520000e-06	-5.923445e-07	5.497251e-10	-4.239239e+00	3.269843e+01
2.530000e-06	-7.240366e-07	-3.252336e-10	-5.181722e+00	-2.430388e+01
2.540000e-06	-8.555163e-07	-1.211382e-09	-6.122685e+00	-8.232985e+01
2.550000e-06	-9.866859e-07	-2.113602e-09	-7.061428e+00	-1.416892e+02
2.560000e-06	-1.117444e-06	-3.037412e-09	-7.997229e+00	-2.025289e+02
2.570000e-06	-1.247777e-06	-3.985737e-09	-8.929981e+00	-2.647741e+02
2.580000e-06	-1.377734e-06	-4.953303e-09	-9.860044e+00	-3.281049e+02
2.590000e-06	-1.507311e-06	-5.932096e-09	-1.078739e+01	-3.919751e+02
2.600000e-06	-1.636403e-06	-6.909924e-09	-1.171126e+01	-4.556684e+02
2.610000e-06	-1.764901e-06	-7.871323e-09	-1.263089e+01	-5.183810e+02
2.620000e-06	-1.892723e-06	-8.804880e-09	-1.354567e+01	-5.793165e+02
2.630000e-06	-2.019772e-06	-9.700904e-09	-1.445493e+01	-6.377750e+02
2.640000e-06	-2.146055e-06	-1.055336e-08	-1.535870e+01	-6.932212e+02
2.650000e-06	-2.271615e-06	-1.135314e-08	-1.625730e+01	-7.453230e+02
2.660000e-06	-2.396254e-06	-1.209707e-08	-1.714930e+01	-7.939551e+02
2.670000e-06	-2.519881e-06	-1.279000e-08	-1.803406e+01	-8.391736e+02
2.680000e-06	-2.642552e-06	-1.343567e-08	-1.891198e+01	-8.811679e+02
2.690000e-06	-2.764259e-06	-1.403744e-08	-1.978301e+01	-9.202046e+02
2.700000e-06	-2.885001e-06	-1.459819e-08	-2.064713e+01	-9.565730e+02
2.710000e-06	-3.004646e-06	-1.511946e-08	-2.150339e+01	-9.905438e+02
2.720000e-06	-3.123139e-06	-1.560256e-08	-2.235141e+01	-1.022345e+03
2.730000e-06	-3.240461e-06	-1.605509e-08	-2.319105e+01	-1.052155e+03
2.740000e-06	-3.356450e-06	-1.648219e-08	-2.402115e+01	-1.080113e+03
2.750000e-06	-3.471021e-06	-1.688625e-08	-2.484110e+01	-1.106335e+03
2.760000e-06	-3.584156e-06	-1.726794e-08	-2.565078e+01	-1.130930e+03
2.770000e-06	-3.695865e-06	-1.762237e-08	-2.645024e+01	-1.154014e+03
2.780000e-06	-3.806122e-06	-1.795149e-08	-2.723932e+01	-1.175710e+03
2.790000e-06	-3.915058e-06	-1.826229e-08	-2.801895e+01	-1.196151e+03
2.800000e-06	-4.022777e-06	-1.855770e-08	-2.878986e+01	-1.215465e+03
2.810000e-06	-4.129266e-06	-1.883889e-08	-2.955197e+01	-1.233763e+03
2.820000e-06	-4.234372e-06	-1.910510e-08	-3.030419e+01	-1.251135e+03
2.830000e-06	-4.337832e-06	-1.935749e-08	-3.104462e+01	-1.267643e+03
2.840000e-06	-4.439665e-06	-1.959820e-08	-3.177341e+01	-1.283323e+03
2.850000e-06	-4.539889e-06	-1.982919e-08	-3.249068e+01	-1.298200e+03
2.860000e-06	-4.638513e-06	-2.005012e-08	-3.319650e+01	-1.312292e+03
2.870000e-06	-4.735562e-06	-2.025774e-08	-3.389106e+01	-1.325623e+03
2.880000e-06	-4.830949e-06	-2.045096e-08	-3.457372e+01	-1.338231e+03
2.890000e-06	-4.924590e-06	-2.063106e-08	-3.524387e+01	-1.350168e+03
2.900000e-06	-5.016449e-06	-2.080166e-08	-3.590128e+01	-1.361492e+03
2.910000e-06	-5.106562e-06	-2.096592e-08	-3.654620e+01	-1.372263e+03
2.920000e-06	-5.194866e-06	-2.112432e-08	-3.717816e+01	-1.382530e+03
2.930000e-06	-5.281157e-06	-2.127684e-08	-3.779573e+01	-1.392325e+03
2.940000e-06	-5.365423e-06	-2.142194e-08	-3.839879e+01	-1.401662e+03
