# Temperatura_=_66.24
# Concentracion g/m^3_=_28200.0
# C_Vs_to_Am_M_A/Vsm_=_65563218390.804596
# pendiente_HvsI_1/m_=_3716.3
# ordenada_HvsI_A/m_=_1297.0
# frecuencia_Hz_=_302273.42526269564

Tiempo_(s)	Campo_(V.s)	Magnetizacion_(V.s)	Campo_(kA/m)	Magnetizacion_(A/m)
0.000000e+00	-6.915971e-06	-2.831435e-08	-4.951720e+01	-1.853198e+03
1.000000e-08	-6.912421e-06	-2.830998e-08	-4.949179e+01	-1.852675e+03
2.000000e-08	-6.906593e-06	-2.829711e-08	-4.945006e+01	-1.851944e+03
3.000000e-08	-6.898634e-06	-2.828516e-08	-4.939307e+01	-1.851017e+03
4.000000e-08	-6.888281e-06	-2.826853e-08	-4.931895e+01	-1.849904e+03
5.000000e-08	-6.875358e-06	-2.824662e-08	-4.922642e+01	-1.848616e+03
6.000000e-08	-6.859862e-06	-2.822010e-08	-4.911547e+01	-1.847164e+03
7.000000e-08	-6.842079e-06	-2.818667e-08	-4.898815e+01	-1.845557e+03
8.000000e-08	-6.822337e-06	-2.816093e-08	-4.884680e+01	-1.843807e+03
9.000000e-08	-6.800271e-06	-2.820663e-08	-4.868881e+01	-1.841928e+03
1.000000e-07	-6.775404e-06	-2.817617e-08	-4.851077e+01	-1.839939e+03
1.100000e-07	-6.747744e-06	-2.808707e-08	-4.831272e+01	-1.837860e+03
1.200000e-07	-6.717669e-06	-2.804608e-08	-4.809739e+01	-1.835705e+03
1.300000e-07	-6.685370e-06	-2.800444e-08	-4.786614e+01	-1.833479e+03
1.400000e-07	-6.650948e-06	-2.788617e-08	-4.761968e+01	-1.831170e+03
1.500000e-07	-6.614817e-06	-2.786067e-08	-4.736099e+01	-1.828747e+03
1.600000e-07	-6.576864e-06	-2.797309e-08	-4.708925e+01	-1.826160e+03
1.700000e-07	-6.536685e-06	-2.779795e-08	-4.680158e+01	-1.823348e+03
1.800000e-07	-6.494155e-06	-2.776319e-08	-4.649707e+01	-1.820246e+03
1.900000e-07	-6.449103e-06	-2.776194e-08	-4.617451e+01	-1.816801e+03
2.000000e-07	-6.401710e-06	-2.756973e-08	-4.583518e+01	-1.812983e+03
2.100000e-07	-6.351764e-06	-2.755049e-08	-4.547757e+01	-1.808789e+03
2.200000e-07	-6.299002e-06	-2.748506e-08	-4.509981e+01	-1.804245e+03
2.300000e-07	-6.243863e-06	-2.743349e-08	-4.470502e+01	-1.799402e+03
2.400000e-07	-6.186395e-06	-2.739318e-08	-4.429356e+01	-1.794318e+03
2.500000e-07	-6.126602e-06	-2.727830e-08	-4.386545e+01	-1.789046e+03
2.600000e-07	-6.064624e-06	-2.720474e-08	-4.342170e+01	-1.783619e+03
2.700000e-07	-6.000389e-06	-2.710717e-08	-4.296179e+01	-1.778040e+03
2.800000e-07	-5.933853e-06	-2.701505e-08	-4.248540e+01	-1.772281e+03
2.900000e-07	-5.865053e-06	-2.693464e-08	-4.199281e+01	-1.766291e+03
3.000000e-07	-5.794104e-06	-2.685404e-08	-4.148482e+01	-1.760004e+03
3.100000e-07	-5.720957e-06	-2.676697e-08	-4.096110e+01	-1.753361e+03
3.200000e-07	-5.645500e-06	-2.661306e-08	-4.042084e+01	-1.746320e+03
3.300000e-07	-5.567677e-06	-2.650585e-08	-3.986364e+01	-1.738868e+03
3.400000e-07	-5.487585e-06	-2.637205e-08	-3.929020e+01	-1.731018e+03
3.500000e-07	-5.405522e-06	-2.625717e-08	-3.870264e+01	-1.722805e+03
3.600000e-07	-5.321727e-06	-2.615445e-08	-3.810268e+01	-1.714271e+03
3.700000e-07	-5.236240e-06	-2.600594e-08	-3.749061e+01	-1.705449e+03
3.800000e-07	-5.149023e-06	-2.586834e-08	-3.686615e+01	-1.696351e+03
3.900000e-07	-5.059964e-06	-2.570648e-08	-3.622850e+01	-1.686960e+03
4.000000e-07	-4.968962e-06	-2.555392e-08	-3.557694e+01	-1.677231e+03
4.100000e-07	-4.876173e-06	-2.539485e-08	-3.491259e+01	-1.667102e+03
4.200000e-07	-4.781838e-06	-2.524911e-08	-3.423717e+01	-1.656509e+03
4.300000e-07	-4.685938e-06	-2.508190e-08	-3.355054e+01	-1.645397e+03
4.400000e-07	-4.588239e-06	-2.489345e-08	-3.285103e+01	-1.633735e+03
4.500000e-07	-4.488764e-06	-2.470713e-08	-3.213881e+01	-1.621520e+03
4.600000e-07	-4.387724e-06	-2.451014e-08	-3.141537e+01	-1.608768e+03
4.700000e-07	-4.285134e-06	-2.431258e-08	-3.068085e+01	-1.595506e+03
4.800000e-07	-4.181098e-06	-2.410296e-08	-2.993596e+01	-1.581753e+03
4.900000e-07	-4.075575e-06	-2.389115e-08	-2.918044e+01	-1.567508e+03
5.000000e-07	-3.968379e-06	-2.365893e-08	-2.841294e+01	-1.552740e+03
5.100000e-07	-3.859693e-06	-2.341679e-08	-2.763476e+01	-1.537389e+03
5.200000e-07	-3.749720e-06	-2.316487e-08	-2.684737e+01	-1.521373e+03
5.300000e-07	-3.638480e-06	-2.290364e-08	-2.605092e+01	-1.504606e+03
5.400000e-07	-3.525906e-06	-2.263197e-08	-2.524490e+01	-1.487011e+03
5.500000e-07	-3.411842e-06	-2.234982e-08	-2.442822e+01	-1.468534e+03
5.600000e-07	-3.296211e-06	-2.206107e-08	-2.360033e+01	-1.449148e+03
5.700000e-07	-3.179175e-06	-2.175079e-08	-2.276236e+01	-1.428849e+03
5.800000e-07	-3.060959e-06	-2.142338e-08	-2.191596e+01	-1.407639e+03
5.900000e-07	-2.941632e-06	-2.107883e-08	-2.106159e+01	-1.385508e+03
6.000000e-07	-2.821282e-06	-2.072523e-08	-2.019991e+01	-1.362418e+03
6.100000e-07	-2.699884e-06	-2.035496e-08	-1.933072e+01	-1.338286e+03
6.200000e-07	-2.577363e-06	-1.996807e-08	-1.845349e+01	-1.312987e+03
6.300000e-07	-2.453758e-06	-1.955972e-08	-1.756850e+01	-1.286363e+03
6.400000e-07	-2.329240e-06	-1.912527e-08	-1.667697e+01	-1.258237e+03
6.500000e-07	-2.204041e-06	-1.866501e-08	-1.578057e+01	-1.228437e+03
6.600000e-07	-2.078206e-06	-1.817939e-08	-1.487961e+01	-1.196810e+03
6.700000e-07	-1.951595e-06	-1.767107e-08	-1.397310e+01	-1.163227e+03
6.800000e-07	-1.824231e-06	-1.713150e-08	-1.306119e+01	-1.127580e+03
6.900000e-07	-1.696290e-06	-1.655645e-08	-1.214515e+01	-1.089762e+03
7.000000e-07	-1.567829e-06	-1.593996e-08	-1.122540e+01	-1.049650e+03
7.100000e-07	-1.438873e-06	-1.528621e-08	-1.030209e+01	-1.007084e+03
7.200000e-07	-1.309425e-06	-1.459065e-08	-9.375263e+00	-9.618627e+02
7.300000e-07	-1.179547e-06	-1.385356e-08	-8.445362e+00	-9.137602e+02
7.400000e-07	-1.049220e-06	-1.307124e-08	-7.512239e+00	-8.625566e+02
7.500000e-07	-9.184660e-07	-1.223738e-08	-6.576064e+00	-8.080896e+02
7.600000e-07	-7.873417e-07	-1.135631e-08	-5.637236e+00	-7.503077e+02
7.700000e-07	-6.558731e-07	-1.042720e-08	-4.695943e+00	-6.893161e+02
7.800000e-07	-5.242985e-07	-9.454742e-09	-3.753890e+00	-6.253988e+02
7.900000e-07	-3.926188e-07	-8.446104e-09	-2.811085e+00	-5.590071e+02
8.000000e-07	-2.607346e-07	-7.409807e-09	-1.866817e+00	-4.907124e+02
8.100000e-07	-1.287181e-07	-6.350163e-09	-9.216000e-01	-4.211268e+02
8.200000e-07	3.358112e-09	-5.277642e-09	2.404353e-02	-3.508072e+02
8.300000e-07	1.354588e-07	-4.199426e-09	9.698628e-01	-2.801615e+02
8.400000e-07	2.675564e-07	-3.120123e-09	1.915659e+00	-2.093781e+02
8.500000e-07	3.996168e-07	-2.039939e-09	2.861190e+00	-1.383973e+02
8.600000e-07	5.315386e-07	-9.535505e-10	3.805728e+00	-6.693395e+01
8.700000e-07	6.632338e-07	1.459933e-10	4.748644e+00	5.449334e+00
8.800000e-07	7.946918e-07	1.268002e-09	5.689861e+00	7.923014e+01
8.900000e-07	9.258889e-07	2.415923e-09	6.629211e+00	1.547967e+02
9.000000e-07	1.056783e-06	3.596148e-09	7.566394e+00	2.323265e+02
9.100000e-07	1.187298e-06	4.805295e-09	8.500855e+00	3.116975e+02
9.200000e-07	1.317399e-06	6.035944e-09	9.432356e+00	3.924516e+02
9.300000e-07	1.447022e-06	7.276484e-09	1.036044e+01	4.738177e+02
9.400000e-07	1.576037e-06	8.511902e-09	1.128416e+01	5.547899e+02
9.500000e-07	1.704452e-06	9.725565e-09	1.220360e+01	6.342476e+02
9.600000e-07	1.832298e-06	1.089616e-08	1.311895e+01	7.110922e+02
9.700000e-07	1.959498e-06	1.200687e-08	1.402968e+01	7.843766e+02
9.800000e-07	2.085959e-06	1.304789e-08	1.493512e+01	8.534033e+02
9.900000e-07	2.211699e-06	1.401844e-08	1.583540e+01	9.177767e+02
1.000000e-06	2.336719e-06	1.491556e-08	1.673052e+01	9.774039e+02
1.010000e-06	2.460885e-06	1.574687e-08	1.761953e+01	1.032451e+03
1.020000e-06	2.584090e-06	1.651858e-08	1.850166e+01	1.083265e+03
1.030000e-06	2.706261e-06	1.723593e-08	1.937638e+01	1.130287e+03
1.040000e-06	2.827327e-06	1.790473e-08	2.024320e+01	1.173967e+03
1.050000e-06	2.947346e-06	1.852607e-08	2.110251e+01	1.214704e+03
1.060000e-06	3.066327e-06	1.910201e-08	2.195439e+01	1.252811e+03
1.070000e-06	3.184203e-06	1.963897e-08	2.279837e+01	1.288515e+03
1.080000e-06	3.300915e-06	2.014456e-08	2.363400e+01	1.321970e+03
1.090000e-06	3.416299e-06	2.061847e-08	2.446013e+01	1.353295e+03
1.100000e-06	3.530235e-06	2.106094e-08	2.527589e+01	1.382604e+03
1.110000e-06	3.642770e-06	2.147546e-08	2.608163e+01	1.410026e+03
1.120000e-06	3.754004e-06	2.186702e-08	2.687804e+01	1.435716e+03
1.130000e-06	3.863989e-06	2.223630e-08	2.766552e+01	1.459850e+03
1.140000e-06	3.972703e-06	2.258668e-08	2.844389e+01	1.482604e+03
1.150000e-06	4.080128e-06	2.291852e-08	2.921304e+01	1.504141e+03
1.160000e-06	4.186088e-06	2.323282e-08	2.997169e+01	1.524587e+03
1.170000e-06	4.290412e-06	2.352834e-08	3.071863e+01	1.544028e+03
1.180000e-06	4.393175e-06	2.380302e-08	3.145440e+01	1.562511e+03
1.190000e-06	4.494423e-06	2.406128e-08	3.217932e+01	1.580055e+03
1.200000e-06	4.594123e-06	2.430915e-08	3.289316e+01	1.596673e+03
1.210000e-06	4.692140e-06	2.454782e-08	3.359494e+01	1.612381e+03
1.220000e-06	4.788312e-06	2.477547e-08	3.428352e+01	1.627218e+03
1.230000e-06	4.882740e-06	2.499085e-08	3.495961e+01	1.641244e+03
1.240000e-06	4.975541e-06	2.519529e-08	3.562405e+01	1.654535e+03
1.250000e-06	5.066658e-06	2.538847e-08	3.627643e+01	1.667175e+03
1.260000e-06	5.155888e-06	2.557056e-08	3.691530e+01	1.679239e+03
1.270000e-06	5.243103e-06	2.574350e-08	3.753975e+01	1.690784e+03
1.280000e-06	5.328500e-06	2.590827e-08	3.815117e+01	1.701840e+03
1.290000e-06	5.412098e-06	2.606702e-08	3.874972e+01	1.712411e+03
1.300000e-06	5.493662e-06	2.621997e-08	3.933371e+01	1.722485e+03
1.310000e-06	5.573136e-06	2.636656e-08	3.990273e+01	1.732041e+03
1.320000e-06	5.650621e-06	2.650604e-08	4.045751e+01	1.741066e+03
1.330000e-06	5.725986e-06	2.663892e-08	4.099711e+01	1.749560e+03
1.340000e-06	5.799099e-06	2.676296e-08	4.152059e+01	1.757539e+03
1.350000e-06	5.870039e-06	2.687854e-08	4.202850e+01	1.765039e+03
1.360000e-06	5.938909e-06	2.698794e-08	4.252160e+01	1.772104e+03
1.370000e-06	6.005691e-06	2.709078e-08	4.299975e+01	1.778780e+03
1.380000e-06	6.070265e-06	2.718528e-08	4.346209e+01	1.785106e+03
1.390000e-06	6.132678e-06	2.727238e-08	4.390896e+01	1.791110e+03
1.400000e-06	6.193059e-06	2.735641e-08	4.434127e+01	1.796809e+03
1.410000e-06	6.251310e-06	2.743874e-08	4.475834e+01	1.802208e+03
1.420000e-06	6.307281e-06	2.751760e-08	4.515908e+01	1.807313e+03
1.430000e-06	6.360958e-06	2.759144e-08	4.554340e+01	1.812126e+03
1.440000e-06	6.412124e-06	2.766071e-08	4.590974e+01	1.816657e+03
1.450000e-06	6.460613e-06	2.772676e-08	4.625692e+01	1.820919e+03
1.460000e-06	6.506699e-06	2.778891e-08	4.658689e+01	1.824930e+03
1.470000e-06	6.550647e-06	2.784582e-08	4.690154e+01	1.828705e+03
1.480000e-06	6.592249e-06	2.789891e-08	4.719941e+01	1.832251e+03
1.490000e-06	6.631375e-06	2.794884e-08	4.747955e+01	1.835566e+03
1.500000e-06	6.668283e-06	2.799459e-08	4.774380e+01	1.838641e+03
1.510000e-06	6.702865e-06	2.803697e-08	4.799140e+01	1.841458e+03
1.520000e-06	6.735003e-06	2.807559e-08	4.822150e+01	1.843998e+03
1.530000e-06	6.764883e-06	2.811032e-08	4.843544e+01	1.846248e+03
1.540000e-06	6.792468e-06	2.814249e-08	4.863294e+01	1.848207e+03
1.550000e-06	6.817439e-06	2.817052e-08	4.881173e+01	1.849886e+03
1.560000e-06	6.839800e-06	2.819189e-08	4.897183e+01	1.851307e+03
1.570000e-06	6.859870e-06	2.820809e-08	4.911553e+01	1.852501e+03
1.580000e-06	6.877558e-06	2.822103e-08	4.924217e+01	1.853499e+03
1.590000e-06	6.892640e-06	2.823256e-08	4.935015e+01	1.854326e+03
1.600000e-06	6.905088e-06	2.824393e-08	4.943929e+01	1.854995e+03
1.610000e-06	6.914781e-06	2.825445e-08	4.950868e+01	1.855510e+03
1.620000e-06	6.921809e-06	2.826318e-08	4.955901e+01	1.855861e+03
1.630000e-06	6.926509e-06	2.826694e-08	4.959265e+01	1.856033e+03
1.640000e-06	6.928778e-06	2.826589e-08	4.960890e+01	1.856011e+03
1.650000e-06	6.928467e-06	2.826307e-08	4.960667e+01	1.855782e+03
1.660000e-06	6.925876e-06	2.824936e-08	4.958813e+01	1.855342e+03
1.670000e-06	6.921120e-06	2.823856e-08	4.955407e+01	1.854692e+03
1.680000e-06	6.913969e-06	2.822828e-08	4.950287e+01	1.853840e+03
1.690000e-06	6.904489e-06	2.821520e-08	4.943500e+01	1.852798e+03
1.700000e-06	6.892768e-06	2.820131e-08	4.935107e+01	1.851577e+03
1.710000e-06	6.878563e-06	2.818763e-08	4.924937e+01	1.850188e+03
1.720000e-06	6.862027e-06	2.818175e-08	4.913097e+01	1.848640e+03
1.730000e-06	6.843539e-06	2.813546e-08	4.899860e+01	1.846944e+03
1.740000e-06	6.822694e-06	2.801895e-08	4.884935e+01	1.845113e+03
1.750000e-06	6.798631e-06	2.802479e-08	4.867707e+01	1.843165e+03
1.760000e-06	6.771420e-06	2.804058e-08	4.848225e+01	1.841119e+03
1.770000e-06	6.741538e-06	2.798569e-08	4.826829e+01	1.838992e+03
1.780000e-06	6.709510e-06	2.802277e-08	4.803898e+01	1.836794e+03
1.790000e-06	6.675985e-06	2.803813e-08	4.779894e+01	1.834520e+03
1.800000e-06	6.641047e-06	2.783631e-08	4.754879e+01	1.832146e+03
1.810000e-06	6.603864e-06	2.788154e-08	4.728257e+01	1.829630e+03
1.820000e-06	6.564101e-06	2.788295e-08	4.699787e+01	1.826914e+03
1.830000e-06	6.522210e-06	2.774937e-08	4.669794e+01	1.823932e+03
1.840000e-06	6.478018e-06	2.789206e-08	4.638153e+01	1.820627e+03
1.850000e-06	6.431490e-06	2.773055e-08	4.604840e+01	1.816957e+03
1.860000e-06	6.382631e-06	2.765969e-08	4.569858e+01	1.812908e+03
1.870000e-06	6.331309e-06	2.762727e-08	4.533112e+01	1.808497e+03
1.880000e-06	6.277515e-06	2.742588e-08	4.494596e+01	1.803764e+03
1.890000e-06	6.221128e-06	2.747116e-08	4.454224e+01	1.798767e+03
1.900000e-06	6.162356e-06	2.734830e-08	4.412144e+01	1.793563e+03
1.910000e-06	6.101325e-06	2.728662e-08	4.368447e+01	1.788194e+03
1.920000e-06	6.037932e-06	2.727140e-08	4.323059e+01	1.782676e+03
1.930000e-06	5.972341e-06	2.709398e-08	4.276097e+01	1.776993e+03
1.940000e-06	5.904614e-06	2.703759e-08	4.227605e+01	1.771100e+03
1.950000e-06	5.834589e-06	2.686212e-08	4.177469e+01	1.764937e+03
1.960000e-06	5.762143e-06	2.681586e-08	4.125599e+01	1.758440e+03
1.970000e-06	5.687478e-06	2.672543e-08	4.072140e+01	1.751558e+03
1.980000e-06	5.610575e-06	2.659791e-08	4.017078e+01	1.744267e+03
1.990000e-06	5.531323e-06	2.653776e-08	3.960336e+01	1.736569e+03
2.000000e-06	5.450163e-06	2.635305e-08	3.902226e+01	1.728494e+03
2.010000e-06	5.367207e-06	2.625248e-08	3.842831e+01	1.720081e+03
2.020000e-06	5.282375e-06	2.609372e-08	3.782093e+01	1.711369e+03
2.030000e-06	5.195529e-06	2.598279e-08	3.719913e+01	1.702379e+03
2.040000e-06	5.106721e-06	2.586916e-08	3.656327e+01	1.693107e+03
2.050000e-06	5.016191e-06	2.570470e-08	3.591509e+01	1.683517e+03
2.060000e-06	4.924047e-06	2.555270e-08	3.525536e+01	1.673553e+03
2.070000e-06	4.830278e-06	2.536328e-08	3.458399e+01	1.663149e+03
2.080000e-06	4.734693e-06	2.521627e-08	3.389961e+01	1.652245e+03
2.090000e-06	4.637458e-06	2.503380e-08	3.320343e+01	1.640801e+03
2.100000e-06	4.538647e-06	2.486910e-08	3.249596e+01	1.628802e+03
2.110000e-06	4.438310e-06	2.468383e-08	3.177757e+01	1.616258e+03
2.120000e-06	4.336310e-06	2.448388e-08	3.104726e+01	1.603192e+03
2.130000e-06	4.232557e-06	2.427149e-08	3.030441e+01	1.589631e+03
2.140000e-06	4.127310e-06	2.404832e-08	2.955086e+01	1.575580e+03
2.150000e-06	4.020671e-06	2.383748e-08	2.878734e+01	1.561023e+03
2.160000e-06	3.912713e-06	2.360835e-08	2.801438e+01	1.545909e+03
2.170000e-06	3.803321e-06	2.337952e-08	2.723115e+01	1.530164e+03
2.180000e-06	3.692443e-06	2.312596e-08	2.643728e+01	1.513702e+03
2.190000e-06	3.580189e-06	2.286793e-08	2.563356e+01	1.496439e+03
2.200000e-06	3.466565e-06	2.258545e-08	2.482003e+01	1.478313e+03
2.210000e-06	3.351495e-06	2.229633e-08	2.399615e+01	1.459286e+03
2.220000e-06	3.234994e-06	2.199704e-08	2.316202e+01	1.439345e+03
2.230000e-06	3.117106e-06	2.168947e-08	2.231796e+01	1.418492e+03
2.240000e-06	2.997866e-06	2.136487e-08	2.146422e+01	1.396725e+03
2.250000e-06	2.877498e-06	2.101941e-08	2.060241e+01	1.374019e+03
2.260000e-06	2.756171e-06	2.065500e-08	1.973373e+01	1.350308e+03
2.270000e-06	2.633866e-06	2.027007e-08	1.885804e+01	1.325485e+03
2.280000e-06	2.510592e-06	1.987531e-08	1.797542e+01	1.299401e+03
2.290000e-06	2.386477e-06	1.946045e-08	1.708678e+01	1.271886e+03
2.300000e-06	2.261640e-06	1.902317e-08	1.619297e+01	1.242763e+03
2.310000e-06	2.135989e-06	1.855125e-08	1.529333e+01	1.211870e+03
2.320000e-06	2.009419e-06	1.805006e-08	1.438711e+01	1.179069e+03
2.330000e-06	1.882063e-06	1.751581e-08	1.347526e+01	1.144244e+03
2.340000e-06	1.754087e-06	1.695667e-08	1.255897e+01	1.107292e+03
2.350000e-06	1.625514e-06	1.637009e-08	1.163841e+01	1.068098e+03
2.360000e-06	1.496428e-06	1.574436e-08	1.071418e+01	1.026517e+03
2.370000e-06	1.366952e-06	1.507014e-08	9.787152e+00	9.823648e+02
2.380000e-06	1.237092e-06	1.434636e-08	8.857372e+00	9.354214e+02
2.390000e-06	1.106831e-06	1.357910e-08	7.924725e+00	8.854595e+02
2.400000e-06	9.762080e-07	1.276428e-08	6.989487e+00	8.322875e+02
2.410000e-06	8.451548e-07	1.190583e-08	6.051168e+00	7.758044e+02
2.420000e-06	7.138019e-07	1.100248e-08	5.110703e+00	7.160495e+02
2.430000e-06	5.822549e-07	1.005058e-08	4.168848e+00	6.532359e+02
2.440000e-06	4.504507e-07	9.052195e-09	3.225152e+00	5.877529e+02
2.450000e-06	3.185275e-07	8.016060e-09	2.280604e+00	5.201326e+02
2.460000e-06	1.865169e-07	6.954961e-09	1.335430e+00	4.509820e+02
2.470000e-06	5.440041e-08	5.879751e-09	3.894979e-01	3.808915e+02
2.480000e-06	-7.775412e-08	4.798949e-09	-5.567066e-01	3.103378e+02
2.490000e-06	-2.098347e-07	3.715312e-09	-1.502382e+00	2.396013e+02
2.500000e-06	-3.418749e-07	2.628937e-09	-2.447767e+00	1.687203e+02
2.510000e-06	-4.738634e-07	1.537182e-09	-3.392783e+00	9.749196e+01
2.520000e-06	-6.057359e-07	4.366978e-10	-4.336968e+00	2.552719e+01
2.530000e-06	-7.374421e-07	-6.777136e-10	-5.279963e+00	-4.765087e+01
2.540000e-06	-8.688720e-07	-1.816195e-09	-6.220979e+00	-1.224811e+02
2.550000e-06	-9.999967e-07	-2.984113e-09	-7.159810e+00	-1.992365e+02
2.560000e-06	-1.130708e-06	-4.182604e-09	-8.095684e+00	-2.779205e+02
2.570000e-06	-1.260945e-06	-5.410284e-09	-9.028158e+00	-3.582076e+02
2.580000e-06	-1.390788e-06	-6.656745e-09	-9.957810e+00	-4.394429e+02
2.590000e-06	-1.520268e-06	-7.906814e-09	-1.088486e+01	-5.207006e+02
2.600000e-06	-1.649288e-06	-9.139306e-09	-1.180863e+01	-6.008890e+02
2.610000e-06	-1.777734e-06	-1.033486e-08	-1.272828e+01	-6.788846e+02
2.620000e-06	-1.905515e-06	-1.147773e-08	-1.364317e+01	-7.536668e+02
2.630000e-06	-2.032569e-06	-1.255659e-08	-1.455286e+01	-8.244311e+02
2.640000e-06	-2.158812e-06	-1.356927e-08	-1.545673e+01	-8.906602e+02
2.650000e-06	-2.284181e-06	-1.451157e-08	-1.635436e+01	-9.521456e+02
2.660000e-06	-2.408618e-06	-1.538437e-08	-1.724530e+01	-1.008959e+03
2.670000e-06	-2.532046e-06	-1.619228e-08	-1.812903e+01	-1.061387e+03
2.680000e-06	-2.654510e-06	-1.693971e-08	-1.900585e+01	-1.109844e+03
2.690000e-06	-2.776062e-06	-1.763067e-08	-1.987614e+01	-1.154786e+03
2.700000e-06	-2.896579e-06	-1.827180e-08	-2.073902e+01	-1.196637e+03
2.710000e-06	-3.016015e-06	-1.887208e-08	-2.159417e+01	-1.235747e+03
2.720000e-06	-3.134308e-06	-1.943460e-08	-2.244112e+01	-1.272373e+03
2.730000e-06	-3.251314e-06	-1.995801e-08	-2.327887e+01	-1.306696e+03
2.740000e-06	-3.367036e-06	-2.044485e-08	-2.410742e+01	-1.338846e+03
2.750000e-06	-3.481379e-06	-2.090201e-08	-2.492610e+01	-1.368933e+03
2.760000e-06	-3.594328e-06	-2.133193e-08	-2.573479e+01	-1.397080e+03
2.770000e-06	-3.705825e-06	-2.173587e-08	-2.653309e+01	-1.423430e+03
2.780000e-06	-3.815886e-06	-2.211812e-08	-2.732111e+01	-1.448155e+03
2.790000e-06	-3.924657e-06	-2.247921e-08	-2.809989e+01	-1.471431e+03
2.800000e-06	-4.032183e-06	-2.281751e-08	-2.886976e+01	-1.493429e+03
2.810000e-06	-4.138468e-06	-2.313458e-08	-2.963074e+01	-1.514291e+03
2.820000e-06	-4.243368e-06	-2.343490e-08	-3.038181e+01	-1.534120e+03
2.830000e-06	-4.346696e-06	-2.372243e-08	-3.112162e+01	-1.552976e+03
2.840000e-06	-4.448284e-06	-2.399669e-08	-3.184897e+01	-1.570888e+03
2.850000e-06	-4.548185e-06	-2.425634e-08	-3.256425e+01	-1.587869e+03
2.860000e-06	-4.646562e-06	-2.450234e-08	-3.326861e+01	-1.603932e+03
2.870000e-06	-4.743413e-06	-2.473546e-08	-3.396205e+01	-1.619106e+03
2.880000e-06	-4.838617e-06	-2.495734e-08	-3.464369e+01	-1.633442e+03
2.890000e-06	-4.932001e-06	-2.516810e-08	-3.531231e+01	-1.647012e+03
2.900000e-06	-5.023600e-06	-2.536722e-08	-3.596814e+01	-1.659898e+03
2.910000e-06	-5.113489e-06	-2.555655e-08	-3.661173e+01	-1.672182e+03
2.920000e-06	-5.201508e-06	-2.573793e-08	-3.724194e+01	-1.683926e+03
2.930000e-06	-5.287476e-06	-2.591097e-08	-3.785745e+01	-1.695173e+03
2.940000e-06	-5.371491e-06	-2.607370e-08	-3.845898e+01	-1.705936e+03
