# Temperatura_=_56.13
# Concentracion g/m^3_=_28200.0
# C_Vs_to_Am_M_A/Vsm_=_65563218390.804596
# pendiente_HvsI_1/m_=_3716.3
# ordenada_HvsI_A/m_=_1297.0
# frecuencia_Hz_=_302273.8000580161

Tiempo_(s)	Campo_(V.s)	Magnetizacion_(V.s)	Campo_(kA/m)	Magnetizacion_(A/m)
0.000000e+00	-6.911477e-06	-2.721004e-08	-4.951938e+01	-1.780763e+03
1.000000e-08	-6.908089e-06	-2.720519e-08	-4.949511e+01	-1.780303e+03
2.000000e-08	-6.902487e-06	-2.719243e-08	-4.945497e+01	-1.779652e+03
3.000000e-08	-6.894692e-06	-2.718105e-08	-4.939912e+01	-1.778820e+03
4.000000e-08	-6.884538e-06	-2.716839e-08	-4.932637e+01	-1.777816e+03
5.000000e-08	-6.871921e-06	-2.715152e-08	-4.923597e+01	-1.776650e+03
6.000000e-08	-6.856784e-06	-2.712839e-08	-4.912752e+01	-1.775328e+03
7.000000e-08	-6.839229e-06	-2.709905e-08	-4.900174e+01	-1.773855e+03
8.000000e-08	-6.819564e-06	-2.707077e-08	-4.886084e+01	-1.772236e+03
9.000000e-08	-6.797605e-06	-2.710300e-08	-4.870351e+01	-1.770478e+03
1.000000e-07	-6.772898e-06	-2.707490e-08	-4.852649e+01	-1.768594e+03
1.100000e-07	-6.745503e-06	-2.699359e-08	-4.833021e+01	-1.766603e+03
1.200000e-07	-6.715694e-06	-2.695441e-08	-4.811663e+01	-1.764523e+03
1.300000e-07	-6.683659e-06	-2.692321e-08	-4.788711e+01	-1.762370e+03
1.400000e-07	-6.649546e-06	-2.682406e-08	-4.764270e+01	-1.760147e+03
1.500000e-07	-6.613625e-06	-2.678796e-08	-4.738533e+01	-1.757843e+03
1.600000e-07	-6.575820e-06	-2.687625e-08	-4.711447e+01	-1.755427e+03
1.700000e-07	-6.535882e-06	-2.670791e-08	-4.682832e+01	-1.752851e+03
1.800000e-07	-6.493700e-06	-2.666769e-08	-4.652609e+01	-1.750058e+03
1.900000e-07	-6.448979e-06	-2.668175e-08	-4.620567e+01	-1.746990e+03
2.000000e-07	-6.401827e-06	-2.652536e-08	-4.586784e+01	-1.743600e+03
2.100000e-07	-6.352229e-06	-2.652452e-08	-4.551248e+01	-1.739860e+03
2.200000e-07	-6.299904e-06	-2.647867e-08	-4.513758e+01	-1.735771e+03
2.300000e-07	-6.245098e-06	-2.641222e-08	-4.474490e+01	-1.731356e+03
2.400000e-07	-6.187956e-06	-2.634371e-08	-4.433550e+01	-1.726654e+03
2.500000e-07	-6.128442e-06	-2.622977e-08	-4.390909e+01	-1.721713e+03
2.600000e-07	-6.066668e-06	-2.615983e-08	-4.346649e+01	-1.716570e+03
2.700000e-07	-6.002624e-06	-2.608128e-08	-4.300763e+01	-1.711249e+03
2.800000e-07	-5.936330e-06	-2.600304e-08	-4.253265e+01	-1.705747e+03
2.900000e-07	-5.867798e-06	-2.591744e-08	-4.204163e+01	-1.700040e+03
3.000000e-07	-5.797074e-06	-2.582771e-08	-4.153490e+01	-1.694087e+03
3.100000e-07	-5.724143e-06	-2.574019e-08	-4.101237e+01	-1.687841e+03
3.200000e-07	-5.648928e-06	-2.560555e-08	-4.047346e+01	-1.681261e+03
3.300000e-07	-5.571312e-06	-2.551856e-08	-3.991736e+01	-1.674322e+03
3.400000e-07	-5.491408e-06	-2.540606e-08	-3.934486e+01	-1.667017e+03
3.500000e-07	-5.409547e-06	-2.529040e-08	-3.875835e+01	-1.659360e+03
3.600000e-07	-5.325860e-06	-2.518395e-08	-3.815875e+01	-1.651369e+03
3.700000e-07	-5.240479e-06	-2.504421e-08	-3.754701e+01	-1.643067e+03
3.800000e-07	-5.153443e-06	-2.491820e-08	-3.692341e+01	-1.634461e+03
3.900000e-07	-5.064580e-06	-2.477429e-08	-3.628672e+01	-1.625543e+03
4.000000e-07	-4.973795e-06	-2.462991e-08	-3.563627e+01	-1.616284e+03
4.100000e-07	-4.881221e-06	-2.447070e-08	-3.497299e+01	-1.606640e+03
4.200000e-07	-4.787066e-06	-2.432685e-08	-3.429839e+01	-1.596563e+03
4.300000e-07	-4.691282e-06	-2.417067e-08	-3.361212e+01	-1.586009e+03
4.400000e-07	-4.593746e-06	-2.399240e-08	-3.291329e+01	-1.574950e+03
4.500000e-07	-4.494522e-06	-2.381469e-08	-3.220237e+01	-1.563377e+03
4.600000e-07	-4.393651e-06	-2.362955e-08	-3.147965e+01	-1.551294e+03
4.700000e-07	-4.291218e-06	-2.344095e-08	-3.074574e+01	-1.538716e+03
4.800000e-07	-4.187325e-06	-2.323987e-08	-3.000137e+01	-1.525654e+03
4.900000e-07	-4.081989e-06	-2.303915e-08	-2.924665e+01	-1.512103e+03
5.000000e-07	-3.975118e-06	-2.282070e-08	-2.848094e+01	-1.498037e+03
5.100000e-07	-3.866719e-06	-2.258938e-08	-2.770429e+01	-1.483404e+03
5.200000e-07	-3.756983e-06	-2.234831e-08	-2.691805e+01	-1.468137e+03
5.300000e-07	-3.645942e-06	-2.210156e-08	-2.612246e+01	-1.452160e+03
5.400000e-07	-3.533502e-06	-2.184596e-08	-2.531685e+01	-1.435402e+03
5.500000e-07	-3.419607e-06	-2.157666e-08	-2.450082e+01	-1.417809e+03
5.600000e-07	-3.304196e-06	-2.129804e-08	-2.367392e+01	-1.399348e+03
5.700000e-07	-3.187368e-06	-2.100090e-08	-2.283687e+01	-1.380004e+03
5.800000e-07	-3.069347e-06	-2.068982e-08	-2.199127e+01	-1.359766e+03
5.900000e-07	-2.950235e-06	-2.036509e-08	-2.113785e+01	-1.338616e+03
6.000000e-07	-2.829972e-06	-2.003225e-08	-2.027620e+01	-1.316513e+03
6.100000e-07	-2.708637e-06	-1.967959e-08	-1.940686e+01	-1.293382e+03
6.200000e-07	-2.586341e-06	-1.930561e-08	-1.853062e+01	-1.269110e+03
6.300000e-07	-2.462994e-06	-1.890994e-08	-1.764687e+01	-1.243553e+03
6.400000e-07	-2.338656e-06	-1.849088e-08	-1.675602e+01	-1.216554e+03
6.500000e-07	-2.213541e-06	-1.804950e-08	-1.585959e+01	-1.187951e+03
6.600000e-07	-2.087818e-06	-1.758461e-08	-1.495881e+01	-1.157597e+03
6.700000e-07	-1.961424e-06	-1.709619e-08	-1.405322e+01	-1.125365e+03
6.800000e-07	-1.834308e-06	-1.657654e-08	-1.314246e+01	-1.091143e+03
6.900000e-07	-1.706572e-06	-1.602254e-08	-1.222726e+01	-1.054820e+03
7.000000e-07	-1.578213e-06	-1.543006e-08	-1.130759e+01	-1.016272e+03
7.100000e-07	-1.449253e-06	-1.480379e-08	-1.038362e+01	-9.753477e+02
7.200000e-07	-1.319778e-06	-1.413770e-08	-9.455949e+00	-9.318612e+02
7.300000e-07	-1.189908e-06	-1.343012e-08	-8.525459e+00	-8.856076e+02
7.400000e-07	-1.059685e-06	-1.267813e-08	-7.592439e+00	-8.363910e+02
7.500000e-07	-9.291247e-07	-1.187627e-08	-6.656997e+00	-7.840686e+02
7.600000e-07	-7.982902e-07	-1.102785e-08	-5.719594e+00	-7.285994e+02
7.700000e-07	-6.672119e-07	-1.013409e-08	-4.780443e+00	-6.700856e+02
7.800000e-07	-5.358908e-07	-9.201379e-09	-3.839552e+00	-6.087953e+02
7.900000e-07	-4.043400e-07	-8.235027e-09	-2.897017e+00	-5.451543e+02
8.000000e-07	-2.725812e-07	-7.243195e-09	-1.952991e+00	-4.797053e+02
8.100000e-07	-1.407123e-07	-6.229216e-09	-1.008176e+00	-4.130372e+02
8.200000e-07	-8.778273e-09	-5.201279e-09	-6.289461e-02	-3.456964e+02
8.300000e-07	1.232412e-07	-4.169317e-09	8.829992e-01	-2.780976e+02
8.400000e-07	2.552478e-07	-3.137729e-09	1.828800e+00	-2.104536e+02
8.500000e-07	3.871900e-07	-2.105933e-09	2.774140e+00	-1.427408e+02
8.600000e-07	5.190416e-07	-1.071260e-09	3.718832e+00	-7.471232e+01
8.700000e-07	6.507019e-07	-2.950265e-11	4.662152e+00	-5.958622e+00
8.800000e-07	7.820673e-07	1.030799e-09	5.603359e+00	6.399259e+01
8.900000e-07	9.131184e-07	2.118210e-09	6.542315e+00	1.355558e+02
9.000000e-07	1.043861e-06	3.237666e-09	7.479059e+00	2.089697e+02
9.100000e-07	1.174309e-06	4.384779e-09	8.413695e+00	2.842050e+02
9.200000e-07	1.304421e-06	5.554213e-09	9.345922e+00	3.609173e+02
9.300000e-07	1.434086e-06	6.737142e-09	1.027495e+01	4.384558e+02
9.400000e-07	1.563181e-06	7.921443e-09	1.119989e+01	5.159242e+02
9.500000e-07	1.691546e-06	9.089036e-09	1.211960e+01	5.922855e+02
9.600000e-07	1.819205e-06	1.021651e-08	1.303425e+01	6.664875e+02
9.700000e-07	1.946255e-06	1.129128e-08	1.394454e+01	7.375876e+02
9.800000e-07	2.072630e-06	1.230440e-08	1.484999e+01	8.048536e+02
9.900000e-07	2.198288e-06	1.325267e-08	1.575030e+01	8.678250e+02
1.000000e-06	2.323251e-06	1.413352e-08	1.664564e+01	9.263266e+02
1.010000e-06	2.447383e-06	1.495282e-08	1.753502e+01	9.804384e+02
1.020000e-06	2.570518e-06	1.571340e-08	1.841726e+01	1.030432e+03
1.030000e-06	2.692739e-06	1.641785e-08	1.929295e+01	1.076690e+03
1.040000e-06	2.813964e-06	1.707141e-08	2.016150e+01	1.119629e+03
1.050000e-06	2.934010e-06	1.767895e-08	2.102161e+01	1.159631e+03
1.060000e-06	3.052948e-06	1.824581e-08	2.187378e+01	1.197013e+03
1.070000e-06	3.170837e-06	1.877470e-08	2.271843e+01	1.232009e+03
1.080000e-06	3.287607e-06	1.926966e-08	2.355506e+01	1.264788e+03
1.090000e-06	3.403027e-06	1.973166e-08	2.438202e+01	1.295476e+03
1.100000e-06	3.517071e-06	2.016517e-08	2.519912e+01	1.324187e+03
1.110000e-06	3.629679e-06	2.057126e-08	2.600594e+01	1.351046e+03
1.120000e-06	3.740870e-06	2.095400e-08	2.680260e+01	1.376200e+03
1.130000e-06	3.850855e-06	2.131730e-08	2.759062e+01	1.399813e+03
1.140000e-06	3.959654e-06	2.166108e-08	2.837015e+01	1.422058e+03
1.150000e-06	4.067128e-06	2.198374e-08	2.914018e+01	1.443090e+03
1.160000e-06	4.173111e-06	2.228610e-08	2.989952e+01	1.463040e+03
1.170000e-06	4.277488e-06	2.257106e-08	3.064737e+01	1.481999e+03
1.180000e-06	4.380275e-06	2.283975e-08	3.138381e+01	1.500019e+03
1.190000e-06	4.481605e-06	2.309396e-08	3.210982e+01	1.517126e+03
1.200000e-06	4.581396e-06	2.333780e-08	3.282480e+01	1.533334e+03
1.210000e-06	4.679526e-06	2.357175e-08	3.352789e+01	1.548657e+03
1.220000e-06	4.775853e-06	2.379326e-08	3.421805e+01	1.563126e+03
1.230000e-06	4.870338e-06	2.400079e-08	3.489502e+01	1.576795e+03
1.240000e-06	4.963200e-06	2.419679e-08	3.556036e+01	1.589733e+03
1.250000e-06	5.054388e-06	2.438352e-08	3.621371e+01	1.602016e+03
1.260000e-06	5.143650e-06	2.456037e-08	3.685325e+01	1.613718e+03
1.270000e-06	5.230976e-06	2.472873e-08	3.747892e+01	1.624894e+03
1.280000e-06	5.316460e-06	2.489008e-08	3.809140e+01	1.635576e+03
1.290000e-06	5.400169e-06	2.504598e-08	3.869116e+01	1.645774e+03
1.300000e-06	5.481979e-06	2.519496e-08	3.927731e+01	1.655478e+03
1.310000e-06	5.561674e-06	2.533659e-08	3.984831e+01	1.664670e+03
1.320000e-06	5.639309e-06	2.547111e-08	4.040454e+01	1.673337e+03
1.330000e-06	5.714798e-06	2.559787e-08	4.094541e+01	1.681479e+03
1.340000e-06	5.787994e-06	2.571690e-08	4.146985e+01	1.689115e+03
1.350000e-06	5.859095e-06	2.582823e-08	4.197927e+01	1.696279e+03
1.360000e-06	5.928174e-06	2.593276e-08	4.247421e+01	1.703019e+03
1.370000e-06	5.995100e-06	2.603133e-08	4.295372e+01	1.709386e+03
1.380000e-06	6.059786e-06	2.612216e-08	4.341718e+01	1.715423e+03
1.390000e-06	6.122360e-06	2.620770e-08	4.386551e+01	1.721163e+03
1.400000e-06	6.182945e-06	2.628950e-08	4.429959e+01	1.726626e+03
1.410000e-06	6.241341e-06	2.636807e-08	4.471799e+01	1.731817e+03
1.420000e-06	6.297466e-06	2.644292e-08	4.512011e+01	1.736738e+03
1.430000e-06	6.351380e-06	2.651280e-08	4.550640e+01	1.741386e+03
1.440000e-06	6.402796e-06	2.657932e-08	4.587478e+01	1.745762e+03
1.450000e-06	6.451507e-06	2.664246e-08	4.622379e+01	1.749874e+03
1.460000e-06	6.497814e-06	2.670204e-08	4.655557e+01	1.753733e+03
1.470000e-06	6.541995e-06	2.675802e-08	4.687211e+01	1.757352e+03
1.480000e-06	6.583777e-06	2.681086e-08	4.717148e+01	1.760740e+03
1.490000e-06	6.623088e-06	2.685934e-08	4.745313e+01	1.763900e+03
1.500000e-06	6.660259e-06	2.690340e-08	4.771946e+01	1.766825e+03
1.510000e-06	6.695132e-06	2.694295e-08	4.796931e+01	1.769504e+03
1.520000e-06	6.727452e-06	2.697852e-08	4.820088e+01	1.771923e+03
1.530000e-06	6.757469e-06	2.701096e-08	4.841594e+01	1.774070e+03
1.540000e-06	6.785238e-06	2.704063e-08	4.861491e+01	1.775942e+03
1.550000e-06	6.810419e-06	2.706600e-08	4.879532e+01	1.777548e+03
1.560000e-06	6.832982e-06	2.708703e-08	4.895698e+01	1.778907e+03
1.570000e-06	6.853276e-06	2.710468e-08	4.910238e+01	1.780046e+03
1.580000e-06	6.871217e-06	2.711845e-08	4.923093e+01	1.780995e+03
1.590000e-06	6.886547e-06	2.712953e-08	4.934077e+01	1.781779e+03
1.600000e-06	6.899289e-06	2.713940e-08	4.943205e+01	1.782413e+03
1.610000e-06	6.909260e-06	2.714748e-08	4.950350e+01	1.782903e+03
1.620000e-06	6.916558e-06	2.715318e-08	4.955578e+01	1.783243e+03
1.630000e-06	6.921503e-06	2.715623e-08	4.959121e+01	1.783419e+03
1.640000e-06	6.923971e-06	2.715625e-08	4.960890e+01	1.783419e+03
1.650000e-06	6.923908e-06	2.715651e-08	4.960845e+01	1.783229e+03
1.660000e-06	6.921606e-06	2.714642e-08	4.959195e+01	1.782845e+03
1.670000e-06	6.917105e-06	2.713757e-08	4.955971e+01	1.782267e+03
1.680000e-06	6.910206e-06	2.712894e-08	4.951028e+01	1.781505e+03
1.690000e-06	6.900939e-06	2.711542e-08	4.944388e+01	1.780567e+03
1.700000e-06	6.889314e-06	2.710046e-08	4.936059e+01	1.779463e+03
1.710000e-06	6.875220e-06	2.708554e-08	4.925961e+01	1.778202e+03
1.720000e-06	6.858890e-06	2.707818e-08	4.914261e+01	1.776787e+03
1.730000e-06	6.840616e-06	2.704016e-08	4.901168e+01	1.775224e+03
1.740000e-06	6.820043e-06	2.693848e-08	4.886428e+01	1.773519e+03
1.750000e-06	6.796368e-06	2.693828e-08	4.869465e+01	1.771683e+03
1.760000e-06	6.769457e-06	2.695266e-08	4.850184e+01	1.769731e+03
1.770000e-06	6.739822e-06	2.690022e-08	4.828951e+01	1.767683e+03
1.780000e-06	6.708039e-06	2.692294e-08	4.806179e+01	1.765557e+03
1.790000e-06	6.674636e-06	2.694500e-08	4.782246e+01	1.763362e+03
1.800000e-06	6.639806e-06	2.676174e-08	4.757291e+01	1.761092e+03
1.810000e-06	6.602828e-06	2.678723e-08	4.730797e+01	1.758724e+03
1.820000e-06	6.563304e-06	2.680846e-08	4.702479e+01	1.756218e+03
1.830000e-06	6.521679e-06	2.670507e-08	4.672656e+01	1.753517e+03
1.840000e-06	6.477791e-06	2.681999e-08	4.641211e+01	1.750563e+03
1.850000e-06	6.431561e-06	2.665055e-08	4.608088e+01	1.747303e+03
1.860000e-06	6.382996e-06	2.656113e-08	4.573292e+01	1.743702e+03
1.870000e-06	6.331920e-06	2.654333e-08	4.536697e+01	1.739748e+03
1.880000e-06	6.278387e-06	2.639411e-08	4.498341e+01	1.735457e+03
1.890000e-06	6.222245e-06	2.645884e-08	4.458117e+01	1.730862e+03
1.900000e-06	6.163677e-06	2.635750e-08	4.416154e+01	1.726009e+03
1.910000e-06	6.102890e-06	2.626816e-08	4.372602e+01	1.720941e+03
1.920000e-06	6.039696e-06	2.622211e-08	4.327324e+01	1.715688e+03
1.930000e-06	5.974313e-06	2.606151e-08	4.280478e+01	1.710259e+03
1.940000e-06	5.906768e-06	2.602604e-08	4.232084e+01	1.704637e+03
1.950000e-06	5.836882e-06	2.588959e-08	4.182011e+01	1.698785e+03
1.960000e-06	5.764689e-06	2.584527e-08	4.130287e+01	1.692659e+03
1.970000e-06	5.690269e-06	2.575118e-08	4.076967e+01	1.686214e+03
1.980000e-06	5.613582e-06	2.561658e-08	4.022022e+01	1.679417e+03
1.990000e-06	5.534602e-06	2.554598e-08	3.965434e+01	1.672255e+03
2.000000e-06	5.453647e-06	2.538446e-08	3.907432e+01	1.664734e+03
2.010000e-06	5.370880e-06	2.529625e-08	3.848130e+01	1.656871e+03
2.020000e-06	5.286264e-06	2.515154e-08	3.787504e+01	1.648689e+03
2.030000e-06	5.199633e-06	2.502840e-08	3.725435e+01	1.640202e+03
2.040000e-06	5.111033e-06	2.490933e-08	3.661955e+01	1.631409e+03
2.050000e-06	5.020780e-06	2.476490e-08	3.597291e+01	1.622288e+03
2.060000e-06	4.928890e-06	2.462996e-08	3.531453e+01	1.612801e+03
2.070000e-06	4.835327e-06	2.445791e-08	3.464417e+01	1.602899e+03
2.080000e-06	4.739949e-06	2.431484e-08	3.396081e+01	1.592536e+03
2.090000e-06	4.642814e-06	2.414274e-08	3.326485e+01	1.581678e+03
2.100000e-06	4.544184e-06	2.397920e-08	3.255819e+01	1.570306e+03
2.110000e-06	4.444009e-06	2.380241e-08	3.184046e+01	1.558421e+03
2.120000e-06	4.342173e-06	2.361489e-08	3.111082e+01	1.546036e+03
2.130000e-06	4.238639e-06	2.341283e-08	3.036902e+01	1.533163e+03
2.140000e-06	4.133593e-06	2.319976e-08	2.961639e+01	1.519806e+03
2.150000e-06	4.027198e-06	2.299924e-08	2.885408e+01	1.505947e+03
2.160000e-06	3.919451e-06	2.278776e-08	2.808210e+01	1.491544e+03
2.170000e-06	3.810298e-06	2.257058e-08	2.730004e+01	1.476534e+03
2.180000e-06	3.699686e-06	2.232942e-08	2.650752e+01	1.460844e+03
2.190000e-06	3.587562e-06	2.208012e-08	2.570418e+01	1.444400e+03
2.200000e-06	3.474005e-06	2.180986e-08	2.489057e+01	1.427140e+03
2.210000e-06	3.359076e-06	2.153369e-08	2.406712e+01	1.409023e+03
2.220000e-06	3.242697e-06	2.124890e-08	2.323329e+01	1.390026e+03
2.230000e-06	3.125002e-06	2.095344e-08	2.239003e+01	1.370140e+03
2.240000e-06	3.006073e-06	2.063699e-08	2.153793e+01	1.349352e+03
2.250000e-06	2.885934e-06	2.030307e-08	2.067715e+01	1.327630e+03
2.260000e-06	2.764743e-06	1.995701e-08	1.980884e+01	1.304914e+03
2.270000e-06	2.642628e-06	1.959533e-08	1.893391e+01	1.281105e+03
2.280000e-06	2.519563e-06	1.921950e-08	1.805217e+01	1.256071e+03
2.290000e-06	2.395523e-06	1.881933e-08	1.716345e+01	1.229658e+03
2.300000e-06	2.270598e-06	1.839482e-08	1.626839e+01	1.201703e+03
2.310000e-06	2.144940e-06	1.793923e-08	1.536808e+01	1.172053e+03
2.320000e-06	2.018572e-06	1.745969e-08	1.446267e+01	1.140573e+03
2.330000e-06	1.891461e-06	1.695243e-08	1.355195e+01	1.107145e+03
2.340000e-06	1.763646e-06	1.641697e-08	1.263618e+01	1.071660e+03
2.350000e-06	1.635152e-06	1.584969e-08	1.171555e+01	1.034002e+03
2.360000e-06	1.506106e-06	1.524451e-08	1.079096e+01	9.940316e+02
2.370000e-06	1.376663e-06	1.459556e-08	9.863519e+00	9.515750e+02
2.380000e-06	1.246905e-06	1.390237e-08	8.933831e+00	9.064328e+02
2.390000e-06	1.116824e-06	1.316957e-08	8.001825e+00	8.584009e+02
2.400000e-06	9.863518e-07	1.238972e-08	7.067018e+00	8.073099e+02
2.410000e-06	8.554852e-07	1.156177e-08	6.129384e+00	7.530731e+02
2.420000e-06	7.243354e-07	1.068891e-08	5.189721e+00	6.957324e+02
2.430000e-06	5.930378e-07	9.772864e-09	4.249000e+00	6.354899e+02
2.440000e-06	4.615718e-07	8.817020e-09	3.307072e+00	5.727125e+02
2.450000e-06	3.299272e-07	7.827741e-09	2.363864e+00	5.079038e+02
2.460000e-06	1.981401e-07	6.814626e-09	1.419635e+00	4.416447e+02
2.470000e-06	6.621851e-08	5.787274e-09	4.744427e-01	3.745092e+02
2.480000e-06	-6.575573e-08	4.754781e-09	-4.711270e-01	3.069737e+02
2.490000e-06	-1.977062e-07	3.719151e-09	-1.416526e+00	2.393365e+02
2.500000e-06	-3.295534e-07	2.680515e-09	-2.361186e+00	1.716683e+02
2.510000e-06	-4.613146e-07	1.637825e-09	-3.305229e+00	1.038052e+02
2.520000e-06	-5.929571e-07	5.881988e-10	-4.248422e+00	3.539143e+01
2.530000e-06	-7.244247e-07	-4.717917e-10	-5.190361e+00	-3.403429e+01
2.540000e-06	-8.556733e-07	-1.551508e-09	-6.130732e+00	-1.049240e+02
2.550000e-06	-9.866325e-07	-2.654857e-09	-7.069029e+00	-1.775983e+02
2.560000e-06	-1.117270e-06	-3.785177e-09	-8.005018e+00	-2.521415e+02
2.570000e-06	-1.247448e-06	-4.946636e-09	-8.937719e+00	-3.283355e+02
2.580000e-06	-1.377182e-06	-6.131869e-09	-9.867239e+00	-4.056450e+02
2.590000e-06	-1.506532e-06	-7.325894e-09	-1.079400e+01	-4.832598e+02
2.600000e-06	-1.635470e-06	-8.510481e-09	-1.171782e+01	-5.601840e+02
2.610000e-06	-1.763891e-06	-9.664912e-09	-1.263793e+01	-6.353557e+02
2.620000e-06	-1.891558e-06	-1.077330e-08	-1.355265e+01	-7.077756e+02
2.630000e-06	-2.018420e-06	-1.182591e-08	-1.446158e+01	-7.766191e+02
2.640000e-06	-2.144565e-06	-1.281596e-08	-1.536539e+01	-8.413145e+02
2.650000e-06	-2.269971e-06	-1.373872e-08	-1.626390e+01	-9.015759e+02
2.660000e-06	-2.394452e-06	-1.459448e-08	-1.715578e+01	-9.573891e+02
2.670000e-06	-2.517925e-06	-1.538745e-08	-1.804044e+01	-1.008960e+03
2.680000e-06	-2.640408e-06	-1.612225e-08	-1.891801e+01	-1.056636e+03
2.690000e-06	-2.761932e-06	-1.680431e-08	-1.978870e+01	-1.100831e+03
2.700000e-06	-2.882481e-06	-1.743797e-08	-2.065242e+01	-1.141945e+03
2.710000e-06	-3.001844e-06	-1.802875e-08	-2.150762e+01	-1.180324e+03
2.720000e-06	-3.120112e-06	-1.858010e-08	-2.235499e+01	-1.216235e+03
2.730000e-06	-3.237290e-06	-1.909190e-08	-2.319455e+01	-1.249868e+03
2.740000e-06	-3.353086e-06	-1.956880e-08	-2.402420e+01	-1.281364e+03
2.750000e-06	-3.467419e-06	-2.001730e-08	-2.484338e+01	-1.310838e+03
2.760000e-06	-3.580341e-06	-2.043851e-08	-2.565245e+01	-1.338409e+03
2.770000e-06	-3.691841e-06	-2.083433e-08	-2.645132e+01	-1.364214e+03
2.780000e-06	-3.801888e-06	-2.120872e-08	-2.723979e+01	-1.388413e+03
2.790000e-06	-3.910731e-06	-2.156066e-08	-2.801962e+01	-1.411176e+03
2.800000e-06	-4.018420e-06	-2.189058e-08	-2.879120e+01	-1.432667e+03
2.810000e-06	-4.124791e-06	-2.220211e-08	-2.955332e+01	-1.453030e+03
2.820000e-06	-4.229793e-06	-2.249822e-08	-3.030564e+01	-1.472370e+03
2.830000e-06	-4.333204e-06	-2.277958e-08	-3.104656e+01	-1.490755e+03
2.840000e-06	-4.434960e-06	-2.304677e-08	-3.177562e+01	-1.508220e+03
2.850000e-06	-4.535081e-06	-2.329885e-08	-3.249297e+01	-1.524780e+03
2.860000e-06	-4.633637e-06	-2.353640e-08	-3.319911e+01	-1.540448e+03
2.870000e-06	-4.730668e-06	-2.376312e-08	-3.389431e+01	-1.555248e+03
2.880000e-06	-4.825978e-06	-2.398026e-08	-3.457719e+01	-1.569224e+03
2.890000e-06	-4.919463e-06	-2.418697e-08	-3.524699e+01	-1.582440e+03
2.900000e-06	-5.011171e-06	-2.438368e-08	-3.590406e+01	-1.594972e+03
2.910000e-06	-5.101183e-06	-2.456912e-08	-3.654898e+01	-1.606895e+03
2.920000e-06	-5.189346e-06	-2.474385e-08	-3.718065e+01	-1.618272e+03
2.930000e-06	-5.275521e-06	-2.490998e-08	-3.779808e+01	-1.629147e+03
2.940000e-06	-5.359675e-06	-2.506612e-08	-3.840102e+01	-1.639536e+03
