# Temperatura_=_69.45
# Concentracion g/m^3_=_28370.0
# C_Vs_to_Am_M_A/Vsm_=_65563218390.804596
# pendiente_HvsI_1/m_=_3716.3
# ordenada_HvsI_A/m_=_1297.0
# frecuencia_Hz_=_302552.85005261394

Tiempo_(s)	Campo_(V.s)	Magnetizacion_(V.s)	Campo_(kA/m)	Magnetizacion_(A/m)
0.000000e+00	-7.864799e-06	-2.728113e-08	-5.683461e+01	-1.785648e+03
1.000000e-08	-7.861166e-06	-2.727984e-08	-5.680836e+01	-1.784829e+03
2.000000e-08	-7.855006e-06	-2.726835e-08	-5.676384e+01	-1.783978e+03
3.000000e-08	-7.846287e-06	-2.725696e-08	-5.670084e+01	-1.783139e+03
4.000000e-08	-7.834764e-06	-2.724518e-08	-5.661757e+01	-1.782327e+03
5.000000e-08	-7.820278e-06	-2.722806e-08	-5.651288e+01	-1.781530e+03
6.000000e-08	-7.802955e-06	-2.720260e-08	-5.638770e+01	-1.780707e+03
7.000000e-08	-7.783326e-06	-2.717305e-08	-5.624585e+01	-1.779800e+03
8.000000e-08	-7.761481e-06	-2.716437e-08	-5.608799e+01	-1.778742e+03
9.000000e-08	-7.736868e-06	-2.721270e-08	-5.591012e+01	-1.777469e+03
1.000000e-07	-7.709100e-06	-2.716963e-08	-5.570946e+01	-1.775933e+03
1.100000e-07	-7.678300e-06	-2.708244e-08	-5.548688e+01	-1.774109e+03
1.200000e-07	-7.644696e-06	-2.705209e-08	-5.524404e+01	-1.772000e+03
1.300000e-07	-7.608399e-06	-2.702165e-08	-5.498175e+01	-1.769633e+03
1.400000e-07	-7.569736e-06	-2.694155e-08	-5.470235e+01	-1.767059e+03
1.500000e-07	-7.529002e-06	-2.685681e-08	-5.440799e+01	-1.764338e+03
1.600000e-07	-7.485964e-06	-2.694010e-08	-5.409698e+01	-1.761530e+03
1.700000e-07	-7.440301e-06	-2.687809e-08	-5.376700e+01	-1.758680e+03
1.800000e-07	-7.391967e-06	-2.675070e-08	-5.341771e+01	-1.755813e+03
1.900000e-07	-7.340700e-06	-2.679366e-08	-5.304723e+01	-1.752922e+03
2.000000e-07	-7.286461e-06	-2.668697e-08	-5.265528e+01	-1.749971e+03
2.100000e-07	-7.229583e-06	-2.663377e-08	-5.224425e+01	-1.746895e+03
2.200000e-07	-7.170038e-06	-2.659419e-08	-5.181395e+01	-1.743613e+03
2.300000e-07	-7.107843e-06	-2.649889e-08	-5.136450e+01	-1.740040e+03
2.400000e-07	-7.043064e-06	-2.646901e-08	-5.089638e+01	-1.736098e+03
2.500000e-07	-6.975583e-06	-2.636631e-08	-5.040873e+01	-1.731728e+03
2.600000e-07	-6.905452e-06	-2.630054e-08	-4.990193e+01	-1.726904e+03
2.700000e-07	-6.832623e-06	-2.621932e-08	-4.937564e+01	-1.721635e+03
2.800000e-07	-6.757054e-06	-2.615583e-08	-4.882954e+01	-1.715961e+03
2.900000e-07	-6.678752e-06	-2.606120e-08	-4.826370e+01	-1.709951e+03
3.000000e-07	-6.597733e-06	-2.595838e-08	-4.767821e+01	-1.703687e+03
3.100000e-07	-6.514341e-06	-2.589140e-08	-4.707559e+01	-1.697252e+03
3.200000e-07	-6.428828e-06	-2.576834e-08	-4.645763e+01	-1.690714e+03
3.300000e-07	-6.341048e-06	-2.568950e-08	-4.582330e+01	-1.684112e+03
3.400000e-07	-6.250896e-06	-2.557801e-08	-4.517182e+01	-1.677449e+03
3.500000e-07	-6.158491e-06	-2.546024e-08	-4.450405e+01	-1.670689e+03
3.600000e-07	-6.063946e-06	-2.535771e-08	-4.382083e+01	-1.663759e+03
3.700000e-07	-5.967158e-06	-2.524035e-08	-4.312139e+01	-1.656561e+03
3.800000e-07	-5.868137e-06	-2.511451e-08	-4.240582e+01	-1.648982e+03
3.900000e-07	-5.767061e-06	-2.498157e-08	-4.167540e+01	-1.640919e+03
4.000000e-07	-5.663994e-06	-2.485457e-08	-4.093060e+01	-1.632285e+03
4.100000e-07	-5.558923e-06	-2.469621e-08	-4.017131e+01	-1.623029e+03
4.200000e-07	-5.451892e-06	-2.455250e-08	-3.939785e+01	-1.613140e+03
4.300000e-07	-5.342941e-06	-2.440729e-08	-3.861052e+01	-1.602648e+03
4.400000e-07	-5.232048e-06	-2.425202e-08	-3.780916e+01	-1.591618e+03
4.500000e-07	-5.119173e-06	-2.408281e-08	-3.699347e+01	-1.580136e+03
4.600000e-07	-5.004281e-06	-2.391142e-08	-3.616321e+01	-1.568289e+03
4.700000e-07	-4.887454e-06	-2.372876e-08	-3.531897e+01	-1.556152e+03
4.800000e-07	-4.768820e-06	-2.353389e-08	-3.446166e+01	-1.543763e+03
4.900000e-07	-4.648491e-06	-2.334064e-08	-3.359211e+01	-1.531118e+03
5.000000e-07	-4.526460e-06	-2.313970e-08	-3.271026e+01	-1.518160e+03
5.100000e-07	-4.402697e-06	-2.292640e-08	-3.181589e+01	-1.504785e+03
5.200000e-07	-4.277263e-06	-2.269218e-08	-3.090944e+01	-1.490848e+03
5.300000e-07	-4.150396e-06	-2.245779e-08	-2.999265e+01	-1.476186e+03
5.400000e-07	-4.022100e-06	-2.221389e-08	-2.906552e+01	-1.460636e+03
5.500000e-07	-3.892231e-06	-2.195515e-08	-2.812703e+01	-1.444056e+03
5.600000e-07	-3.760901e-06	-2.168183e-08	-2.717798e+01	-1.426347e+03
5.700000e-07	-3.628108e-06	-2.140170e-08	-2.621836e+01	-1.407457e+03
5.800000e-07	-3.493880e-06	-2.110510e-08	-2.524837e+01	-1.387393e+03
5.900000e-07	-3.358406e-06	-2.079026e-08	-2.426937e+01	-1.366204e+03
6.000000e-07	-3.221668e-06	-2.046280e-08	-2.328124e+01	-1.343971e+03
6.100000e-07	-3.083632e-06	-2.012018e-08	-2.228372e+01	-1.320774e+03
6.200000e-07	-2.944296e-06	-1.975850e-08	-2.127682e+01	-1.296669e+03
6.300000e-07	-2.803710e-06	-1.937210e-08	-2.026089e+01	-1.271657e+03
6.400000e-07	-2.661926e-06	-1.896717e-08	-1.923628e+01	-1.245659e+03
6.500000e-07	-2.519004e-06	-1.853800e-08	-1.820347e+01	-1.218502e+03
6.600000e-07	-2.375216e-06	-1.808630e-08	-1.716439e+01	-1.189918e+03
6.700000e-07	-2.230633e-06	-1.760478e-08	-1.611957e+01	-1.159553e+03
6.800000e-07	-2.085233e-06	-1.709097e-08	-1.506884e+01	-1.126993e+03
6.900000e-07	-1.939073e-06	-1.654394e-08	-1.401262e+01	-1.091799e+03
7.000000e-07	-1.792243e-06	-1.595498e-08	-1.295156e+01	-1.053548e+03
7.100000e-07	-1.644895e-06	-1.532263e-08	-1.188676e+01	-1.011873e+03
7.200000e-07	-1.497155e-06	-1.464263e-08	-1.081912e+01	-9.665031e+02
7.300000e-07	-1.348992e-06	-1.391378e-08	-9.748431e+00	-9.172897e+02
7.400000e-07	-1.200360e-06	-1.312951e-08	-8.674345e+00	-8.642198e+02
7.500000e-07	-1.051245e-06	-1.228853e-08	-7.596772e+00	-8.074133e+02
7.600000e-07	-9.017411e-07	-1.138680e-08	-6.516391e+00	-7.471051e+02
7.700000e-07	-7.519641e-07	-1.042275e-08	-5.434035e+00	-6.836130e+02
7.800000e-07	-6.019087e-07	-9.398785e-09	-4.349666e+00	-6.172973e+02
7.900000e-07	-4.516595e-07	-8.320318e-09	-3.263897e+00	-5.485171e+02
8.000000e-07	-3.012652e-07	-7.199507e-09	-2.177080e+00	-4.775905e+02
8.100000e-07	-1.507675e-07	-6.048976e-09	-1.089515e+00	-4.047641e+02
8.200000e-07	-1.872005e-10	-4.882920e-09	-1.352796e-03	-3.301966e+02
8.300000e-07	1.504399e-07	-3.709488e-09	1.087147e+00	-2.539604e+02
8.400000e-07	3.010310e-07	-2.533994e-09	2.175387e+00	-1.760606e+02
8.500000e-07	4.515472e-07	-1.352428e-09	3.263085e+00	-9.646850e+01
8.600000e-07	6.019160e-07	-1.593274e-10	4.349719e+00	-1.516750e+01
8.700000e-07	7.521447e-07	1.054314e-09	5.435340e+00	6.779809e+01
8.800000e-07	9.022197e-07	2.298412e-09	6.519850e+00	1.522762e+02
8.900000e-07	1.052029e-06	3.583148e-09	7.602439e+00	2.379702e+02
9.000000e-07	1.201446e-06	4.907501e-09	8.682195e+00	3.244187e+02
9.100000e-07	1.350383e-06	6.258556e-09	9.758482e+00	4.109946e+02
9.200000e-07	1.498806e-06	7.618531e-09	1.083105e+01	4.969263e+02
9.300000e-07	1.646697e-06	8.956332e-09	1.189978e+01	5.813390e+02
9.400000e-07	1.794009e-06	1.024126e-08	1.296432e+01	6.633114e+02
9.500000e-07	1.940699e-06	1.144762e-08	1.402438e+01	7.419435e+02
9.600000e-07	2.086676e-06	1.256500e-08	1.507927e+01	8.164246e+02
9.700000e-07	2.231826e-06	1.358941e-08	1.612819e+01	8.860968e+02
9.800000e-07	2.376129e-06	1.452353e-08	1.717099e+01	9.505042e+02
9.900000e-07	2.519562e-06	1.537788e-08	1.820750e+01	1.009423e+03
1.000000e-06	2.662032e-06	1.615965e-08	1.923705e+01	1.062869e+03
1.010000e-06	2.803389e-06	1.687648e-08	2.025857e+01	1.111083e+03
1.020000e-06	2.943615e-06	1.753399e-08	2.127190e+01	1.154492e+03
1.030000e-06	3.082685e-06	1.814121e-08	2.227688e+01	1.193660e+03
1.040000e-06	3.220485e-06	1.870280e-08	2.327269e+01	1.229225e+03
1.050000e-06	3.356965e-06	1.922318e-08	2.425896e+01	1.261833e+03
1.060000e-06	3.492177e-06	1.970236e-08	2.523606e+01	1.292084e+03
1.070000e-06	3.626222e-06	2.014460e-08	2.620473e+01	1.320484e+03
1.080000e-06	3.759002e-06	2.055946e-08	2.716426e+01	1.347416e+03
1.090000e-06	3.890377e-06	2.094774e-08	2.811363e+01	1.373126e+03
1.100000e-06	4.020366e-06	2.131444e-08	2.905299e+01	1.397735e+03
1.110000e-06	4.148904e-06	2.166161e-08	2.998187e+01	1.421256e+03
1.120000e-06	4.275953e-06	2.199023e-08	3.089998e+01	1.443634e+03
1.130000e-06	4.401564e-06	2.230034e-08	3.180770e+01	1.464777e+03
1.140000e-06	4.525662e-06	2.258968e-08	3.270449e+01	1.484597e+03
1.150000e-06	4.648189e-06	2.285871e-08	3.358992e+01	1.503042e+03
1.160000e-06	4.769091e-06	2.311002e-08	3.446362e+01	1.520117e+03
1.170000e-06	4.888286e-06	2.334596e-08	3.532498e+01	1.535889e+03
1.180000e-06	5.005619e-06	2.357211e-08	3.617287e+01	1.550489e+03
1.190000e-06	5.120966e-06	2.379226e-08	3.700642e+01	1.564090e+03
1.200000e-06	5.234401e-06	2.400387e-08	3.782616e+01	1.576892e+03
1.210000e-06	5.345902e-06	2.420290e-08	3.863192e+01	1.589090e+03
1.220000e-06	5.455490e-06	2.438844e-08	3.942385e+01	1.600852e+03
1.230000e-06	5.563193e-06	2.456444e-08	4.020216e+01	1.612300e+03
1.240000e-06	5.668880e-06	2.473169e-08	4.096591e+01	1.623495e+03
1.250000e-06	5.772456e-06	2.488995e-08	4.171439e+01	1.634440e+03
1.260000e-06	5.873918e-06	2.504117e-08	4.244760e+01	1.645083e+03
1.270000e-06	5.973223e-06	2.518696e-08	4.316523e+01	1.655337e+03
1.280000e-06	6.070280e-06	2.532702e-08	4.386660e+01	1.665096e+03
1.290000e-06	6.165092e-06	2.546027e-08	4.455176e+01	1.674261e+03
1.300000e-06	6.257741e-06	2.558878e-08	4.522128e+01	1.682758e+03
1.310000e-06	6.348146e-06	2.571073e-08	4.587459e+01	1.690553e+03
1.320000e-06	6.436229e-06	2.582533e-08	4.651111e+01	1.697661e+03
1.330000e-06	6.522049e-06	2.593010e-08	4.713129e+01	1.704142e+03
1.340000e-06	6.605611e-06	2.602734e-08	4.773515e+01	1.710097e+03
1.350000e-06	6.686835e-06	2.611893e-08	4.832211e+01	1.715650e+03
1.360000e-06	6.765595e-06	2.620480e-08	4.889126e+01	1.720930e+03
1.370000e-06	6.841842e-06	2.628811e-08	4.944226e+01	1.726054e+03
1.380000e-06	6.915465e-06	2.636792e-08	4.997429e+01	1.731110e+03
1.390000e-06	6.986523e-06	2.644466e-08	5.048779e+01	1.736144e+03
1.400000e-06	7.055174e-06	2.651671e-08	5.098389e+01	1.741161e+03
1.410000e-06	7.121257e-06	2.658541e-08	5.146144e+01	1.746122e+03
1.420000e-06	7.184723e-06	2.665253e-08	5.192008e+01	1.750958e+03
1.430000e-06	7.245794e-06	2.671695e-08	5.236140e+01	1.755584e+03
1.440000e-06	7.304396e-06	2.677628e-08	5.278489e+01	1.759910e+03
1.450000e-06	7.360380e-06	2.683023e-08	5.318945e+01	1.763863e+03
1.460000e-06	7.413653e-06	2.688221e-08	5.357443e+01	1.767397e+03
1.470000e-06	7.463884e-06	2.693341e-08	5.393742e+01	1.770500e+03
1.480000e-06	7.511085e-06	2.698235e-08	5.427851e+01	1.773195e+03
1.490000e-06	7.555661e-06	2.702643e-08	5.460064e+01	1.775537e+03
1.500000e-06	7.597613e-06	2.706555e-08	5.490380e+01	1.777602e+03
1.510000e-06	7.636801e-06	2.710210e-08	5.518699e+01	1.779475e+03
1.520000e-06	7.673334e-06	2.713497e-08	5.545100e+01	1.781232e+03
1.530000e-06	7.707165e-06	2.716308e-08	5.569548e+01	1.782932e+03
1.540000e-06	7.738235e-06	2.718838e-08	5.592000e+01	1.784606e+03
1.550000e-06	7.766677e-06	2.721025e-08	5.612554e+01	1.786252e+03
1.560000e-06	7.792321e-06	2.722793e-08	5.631085e+01	1.787840e+03
1.570000e-06	7.815007e-06	2.724244e-08	5.647479e+01	1.789314e+03
1.580000e-06	7.834985e-06	2.725628e-08	5.661916e+01	1.790607e+03
1.590000e-06	7.852183e-06	2.726925e-08	5.674345e+01	1.791651e+03
1.600000e-06	7.866381e-06	2.727895e-08	5.684604e+01	1.792392e+03
1.610000e-06	7.877500e-06	2.728535e-08	5.692639e+01	1.792799e+03
1.620000e-06	7.885596e-06	2.728909e-08	5.698490e+01	1.792867e+03
1.630000e-06	7.890901e-06	2.729257e-08	5.702323e+01	1.792625e+03
1.640000e-06	7.893428e-06	2.729414e-08	5.704150e+01	1.792125e+03
1.650000e-06	7.893144e-06	2.729113e-08	5.703945e+01	1.791435e+03
1.660000e-06	7.890230e-06	2.727592e-08	5.701839e+01	1.790632e+03
1.670000e-06	7.884754e-06	2.726668e-08	5.697882e+01	1.789782e+03
1.680000e-06	7.876614e-06	2.726063e-08	5.691999e+01	1.788935e+03
1.690000e-06	7.865815e-06	2.724978e-08	5.684195e+01	1.788114e+03
1.700000e-06	7.852194e-06	2.723784e-08	5.674353e+01	1.787313e+03
1.710000e-06	7.835899e-06	2.722880e-08	5.662576e+01	1.786500e+03
1.720000e-06	7.817300e-06	2.722354e-08	5.649136e+01	1.785617e+03
1.730000e-06	7.796347e-06	2.716185e-08	5.633995e+01	1.784601e+03
1.740000e-06	7.772532e-06	2.706914e-08	5.616785e+01	1.783385e+03
1.750000e-06	7.745210e-06	2.709742e-08	5.597041e+01	1.781916e+03
1.760000e-06	7.714262e-06	2.710059e-08	5.574676e+01	1.780163e+03
1.770000e-06	7.680507e-06	2.704256e-08	5.550284e+01	1.778120e+03
1.780000e-06	7.644629e-06	2.704189e-08	5.524356e+01	1.775812e+03
1.790000e-06	7.606425e-06	2.709728e-08	5.496749e+01	1.773282e+03
1.800000e-06	7.566206e-06	2.695110e-08	5.467684e+01	1.770589e+03
1.810000e-06	7.523939e-06	2.692429e-08	5.437140e+01	1.767795e+03
1.820000e-06	7.478959e-06	2.700009e-08	5.404636e+01	1.764951e+03
1.830000e-06	7.431350e-06	2.684355e-08	5.370231e+01	1.762085e+03
1.840000e-06	7.380940e-06	2.690692e-08	5.333803e+01	1.759200e+03
1.850000e-06	7.327486e-06	2.679885e-08	5.295174e+01	1.756266e+03
1.860000e-06	7.271280e-06	2.673341e-08	5.254557e+01	1.753226e+03
1.870000e-06	7.212480e-06	2.674947e-08	5.212066e+01	1.750002e+03
1.880000e-06	7.151112e-06	2.657878e-08	5.167718e+01	1.746508e+03
1.890000e-06	7.086912e-06	2.659989e-08	5.121325e+01	1.742661e+03
1.900000e-06	7.019950e-06	2.650324e-08	5.072935e+01	1.738400e+03
1.910000e-06	6.950363e-06	2.643514e-08	5.022649e+01	1.733688e+03
1.920000e-06	6.877994e-06	2.636701e-08	4.970351e+01	1.728525e+03
1.930000e-06	6.802987e-06	2.627112e-08	4.916148e+01	1.722944e+03
1.940000e-06	6.725267e-06	2.625052e-08	4.859984e+01	1.717009e+03
1.950000e-06	6.644906e-06	2.609970e-08	4.801911e+01	1.710798e+03
1.960000e-06	6.562112e-06	2.604480e-08	4.742081e+01	1.704396e+03
1.970000e-06	6.476870e-06	2.592846e-08	4.680480e+01	1.697876e+03
1.980000e-06	6.389227e-06	2.582949e-08	4.617146e+01	1.691286e+03
1.990000e-06	6.299321e-06	2.574814e-08	4.552176e+01	1.684639e+03
2.000000e-06	6.207298e-06	2.562166e-08	4.485676e+01	1.677906e+03
2.010000e-06	6.113069e-06	2.553531e-08	4.417582e+01	1.671025e+03
2.020000e-06	6.016629e-06	2.539479e-08	4.347890e+01	1.663901e+03
2.030000e-06	5.918021e-06	2.527800e-08	4.276631e+01	1.656426e+03
2.040000e-06	5.817294e-06	2.513362e-08	4.203841e+01	1.648490e+03
2.050000e-06	5.714513e-06	2.502418e-08	4.129567e+01	1.640003e+03
2.060000e-06	5.609696e-06	2.488836e-08	4.053821e+01	1.630903e+03
2.070000e-06	5.502929e-06	2.473769e-08	3.976666e+01	1.621168e+03
2.080000e-06	5.394275e-06	2.458444e-08	3.898148e+01	1.610820e+03
2.090000e-06	5.283749e-06	2.441910e-08	3.818277e+01	1.599915e+03
2.100000e-06	5.171195e-06	2.426415e-08	3.736941e+01	1.588535e+03
2.110000e-06	5.056693e-06	2.409164e-08	3.654196e+01	1.576770e+03
2.120000e-06	4.940262e-06	2.392794e-08	3.570058e+01	1.564697e+03
2.130000e-06	4.821920e-06	2.373987e-08	3.484539e+01	1.552367e+03
2.140000e-06	4.701778e-06	2.354132e-08	3.397718e+01	1.539788e+03
2.150000e-06	4.579865e-06	2.332753e-08	3.309618e+01	1.526914e+03
2.160000e-06	4.456334e-06	2.312406e-08	3.220349e+01	1.513652e+03
2.170000e-06	4.331148e-06	2.290875e-08	3.129885e+01	1.499868e+03
2.180000e-06	4.204389e-06	2.268068e-08	3.038283e+01	1.485401e+03
2.190000e-06	4.076083e-06	2.244274e-08	2.945562e+01	1.470085e+03
2.200000e-06	3.946210e-06	2.219196e-08	2.851711e+01	1.453772e+03
2.210000e-06	3.814917e-06	2.192415e-08	2.756832e+01	1.436349e+03
2.220000e-06	3.682187e-06	2.164450e-08	2.660915e+01	1.417754e+03
2.230000e-06	3.547996e-06	2.136100e-08	2.563943e+01	1.397978e+03
2.240000e-06	3.412536e-06	2.105623e-08	2.466054e+01	1.377062e+03
2.250000e-06	3.275862e-06	2.073416e-08	2.367287e+01	1.355079e+03
2.260000e-06	3.137883e-06	2.039554e-08	2.267577e+01	1.332114e+03
2.270000e-06	2.998706e-06	2.004455e-08	2.167001e+01	1.308231e+03
2.280000e-06	2.858415e-06	1.967071e-08	2.065621e+01	1.283447e+03
2.290000e-06	2.716972e-06	1.927647e-08	1.963408e+01	1.257706e+03
2.300000e-06	2.574480e-06	1.885884e-08	1.860436e+01	1.230858e+03
2.310000e-06	2.431119e-06	1.841640e-08	1.756837e+01	1.202658e+03
2.320000e-06	2.286881e-06	1.794385e-08	1.652604e+01	1.172773e+03
2.330000e-06	2.141801e-06	1.743793e-08	1.547762e+01	1.140801e+03
2.340000e-06	1.995976e-06	1.689899e-08	1.442383e+01	1.106304e+03
2.350000e-06	1.849496e-06	1.632082e-08	1.336530e+01	1.068852e+03
2.360000e-06	1.702449e-06	1.570265e-08	1.230267e+01	1.028060e+03
2.370000e-06	1.554931e-06	1.504006e-08	1.123664e+01	9.836310e+02
2.380000e-06	1.407002e-06	1.432890e-08	1.016764e+01	9.353828e+02
2.390000e-06	1.258582e-06	1.356364e-08	9.095083e+00	8.832684e+02
2.400000e-06	1.109629e-06	1.273830e-08	8.018685e+00	8.273757e+02
2.410000e-06	9.602216e-07	1.185159e-08	6.938997e+00	7.679135e+02
2.420000e-06	8.104904e-07	1.090354e-08	5.856972e+00	7.051822e+02
2.430000e-06	6.605034e-07	9.895196e-09	4.773098e+00	6.395356e+02
2.440000e-06	5.102906e-07	8.832621e-09	3.687591e+00	5.713372e+02
2.450000e-06	3.598982e-07	7.723154e-09	2.600788e+00	5.009186e+02
2.460000e-06	2.093651e-07	6.575777e-09	1.512968e+00	4.285464e+02
2.470000e-06	5.872496e-08	5.404147e-09	4.243732e-01	3.544018e+02
2.480000e-06	-9.192325e-08	4.224819e-09	-6.642792e-01	2.785779e+02
2.490000e-06	-2.425420e-07	3.046176e-09	-1.752719e+00	2.010937e+02
2.500000e-06	-3.931214e-07	1.863939e-09	-2.840874e+00	1.219253e+02
2.510000e-06	-5.436170e-07	6.728700e-10	-3.928423e+00	4.104827e+01
2.520000e-06	-6.939983e-07	-5.383766e-10	-5.015147e+00	-4.151281e+01
2.530000e-06	-8.441297e-07	-1.778853e-09	-6.100065e+00	-1.256367e+02
2.540000e-06	-9.939318e-07	-3.056895e-09	-7.182603e+00	-2.110657e+02
2.550000e-06	-1.143349e-06	-4.376867e-09	-8.262360e+00	-2.973804e+02
2.560000e-06	-1.292247e-06	-5.729155e-09	-9.338367e+00	-3.839941e+02
2.570000e-06	-1.440660e-06	-7.093286e-09	-1.041087e+01	-4.701680e+02
2.580000e-06	-1.588636e-06	-8.442973e-09	-1.148021e+01	-5.550484e+02
2.590000e-06	-1.736041e-06	-9.753424e-09	-1.254542e+01	-6.377196e+02
2.600000e-06	-1.882806e-06	-1.099794e-08	-1.360601e+01	-7.172697e+02
2.610000e-06	-2.028954e-06	-1.215619e-08	-1.466214e+01	-7.928595e+02
2.620000e-06	-2.174369e-06	-1.322027e-08	-1.571298e+01	-8.637876e+02
2.630000e-06	-2.318867e-06	-1.419253e-08	-1.675718e+01	-9.295439e+02
2.640000e-06	-2.462384e-06	-1.507973e-08	-1.779430e+01	-9.898450e+02
2.650000e-06	-2.604964e-06	-1.589020e-08	-1.882466e+01	-1.044647e+03
2.660000e-06	-2.746563e-06	-1.663149e-08	-1.984791e+01	-1.094138e+03
2.670000e-06	-2.886986e-06	-1.731162e-08	-2.086267e+01	-1.138702e+03
2.680000e-06	-3.026182e-06	-1.793847e-08	-2.186856e+01	-1.178875e+03
2.690000e-06	-3.164195e-06	-1.851712e-08	-2.286591e+01	-1.215281e+03
2.700000e-06	-3.300950e-06	-1.905207e-08	-2.385417e+01	-1.248572e+03
2.710000e-06	-3.436496e-06	-1.954622e-08	-2.483368e+01	-1.279363e+03
2.720000e-06	-3.570842e-06	-2.000542e-08	-2.580453e+01	-1.308187e+03
2.730000e-06	-3.703869e-06	-2.043529e-08	-2.676584e+01	-1.335459e+03
2.740000e-06	-3.835587e-06	-2.083808e-08	-2.771770e+01	-1.361461e+03
2.750000e-06	-3.965977e-06	-2.121750e-08	-2.865995e+01	-1.386343e+03
2.760000e-06	-4.094977e-06	-2.157226e-08	-2.959216e+01	-1.410142e+03
2.770000e-06	-4.222575e-06	-2.190096e-08	-3.051425e+01	-1.432816e+03
2.780000e-06	-4.348741e-06	-2.220821e-08	-3.142598e+01	-1.454278e+03
2.790000e-06	-4.473447e-06	-2.250009e-08	-3.232716e+01	-1.474438e+03
2.800000e-06	-4.596605e-06	-2.277831e-08	-3.321715e+01	-1.493231e+03
2.810000e-06	-4.718111e-06	-2.304179e-08	-3.409521e+01	-1.510647e+03
2.820000e-06	-4.837838e-06	-2.329105e-08	-3.496041e+01	-1.526737e+03
2.830000e-06	-4.955605e-06	-2.352763e-08	-3.581145e+01	-1.541618e+03
2.840000e-06	-5.071375e-06	-2.375391e-08	-3.664806e+01	-1.555453e+03
2.850000e-06	-5.185164e-06	-2.396856e-08	-3.747035e+01	-1.568438e+03
2.860000e-06	-5.296892e-06	-2.417208e-08	-3.827775e+01	-1.580772e+03
2.870000e-06	-5.406604e-06	-2.436446e-08	-3.907058e+01	-1.592632e+03
2.880000e-06	-5.514443e-06	-2.454468e-08	-3.984987e+01	-1.604152e+03
2.890000e-06	-5.620393e-06	-2.471422e-08	-4.061552e+01	-1.615410e+03
2.900000e-06	-5.724321e-06	-2.487573e-08	-4.136654e+01	-1.626423e+03
2.910000e-06	-5.826034e-06	-2.503091e-08	-4.210157e+01	-1.637151e+03
2.920000e-06	-5.925575e-06	-2.518112e-08	-4.282089e+01	-1.647514e+03
2.930000e-06	-6.023066e-06	-2.532567e-08	-4.352541e+01	-1.657410e+03
2.940000e-06	-6.118393e-06	-2.546214e-08	-4.421429e+01	-1.666734e+03
