# Temperatura_=_84.68
# Concentracion g/m^3_=_28370.0
# C_Vs_to_Am_M_A/Vsm_=_65563218390.804596
# pendiente_HvsI_1/m_=_3716.3
# ordenada_HvsI_A/m_=_1297.0
# frecuencia_Hz_=_302555.51491623855

Tiempo_(s)	Campo_(V.s)	Magnetizacion_(V.s)	Campo_(kA/m)	Magnetizacion_(A/m)
0.000000e+00	-7.882309e-06	-2.841500e-08	-5.683912e+01	-1.859093e+03
1.000000e-08	-7.879206e-06	-2.841169e-08	-5.681674e+01	-1.858302e+03
2.000000e-08	-7.873465e-06	-2.840193e-08	-5.677535e+01	-1.857447e+03
3.000000e-08	-7.865196e-06	-2.838724e-08	-5.671571e+01	-1.856565e+03
4.000000e-08	-7.854168e-06	-2.837275e-08	-5.663619e+01	-1.855672e+03
5.000000e-08	-7.840317e-06	-2.835735e-08	-5.653632e+01	-1.854756e+03
6.000000e-08	-7.823624e-06	-2.833725e-08	-5.641594e+01	-1.853783e+03
7.000000e-08	-7.804482e-06	-2.831392e-08	-5.627791e+01	-1.852706e+03
8.000000e-08	-7.783132e-06	-2.829515e-08	-5.612395e+01	-1.851472e+03
9.000000e-08	-7.759038e-06	-2.829489e-08	-5.595021e+01	-1.850032e+03
1.000000e-07	-7.731773e-06	-2.829102e-08	-5.575361e+01	-1.848357e+03
1.100000e-07	-7.701490e-06	-2.822717e-08	-5.553524e+01	-1.846437e+03
1.200000e-07	-7.668398e-06	-2.816600e-08	-5.529661e+01	-1.844288e+03
1.300000e-07	-7.632562e-06	-2.813485e-08	-5.503820e+01	-1.841948e+03
1.400000e-07	-7.594339e-06	-2.809311e-08	-5.476257e+01	-1.839470e+03
1.500000e-07	-7.553939e-06	-2.802315e-08	-5.447125e+01	-1.836911e+03
1.600000e-07	-7.511245e-06	-2.799033e-08	-5.416338e+01	-1.834320e+03
1.700000e-07	-7.466063e-06	-2.798903e-08	-5.383758e+01	-1.831728e+03
1.800000e-07	-7.418230e-06	-2.786829e-08	-5.349266e+01	-1.829138e+03
1.900000e-07	-7.367454e-06	-2.782620e-08	-5.312651e+01	-1.826518e+03
2.000000e-07	-7.313671e-06	-2.781168e-08	-5.273868e+01	-1.823806e+03
2.100000e-07	-7.257227e-06	-2.774699e-08	-5.233167e+01	-1.820917e+03
2.200000e-07	-7.198162e-06	-2.772331e-08	-5.190575e+01	-1.817748e+03
2.300000e-07	-7.136470e-06	-2.764197e-08	-5.146089e+01	-1.814200e+03
2.400000e-07	-7.072197e-06	-2.756479e-08	-5.099742e+01	-1.810186e+03
2.500000e-07	-7.005193e-06	-2.747373e-08	-5.051426e+01	-1.805650e+03
2.600000e-07	-6.935458e-06	-2.738036e-08	-5.001140e+01	-1.800572e+03
2.700000e-07	-6.863011e-06	-2.731029e-08	-4.948898e+01	-1.794973e+03
2.800000e-07	-6.787776e-06	-2.722129e-08	-4.894647e+01	-1.788914e+03
2.900000e-07	-6.709846e-06	-2.712713e-08	-4.838451e+01	-1.782484e+03
3.000000e-07	-6.629208e-06	-2.702899e-08	-4.780304e+01	-1.775785e+03
3.100000e-07	-6.546090e-06	-2.693159e-08	-4.720367e+01	-1.768921e+03
3.200000e-07	-6.460895e-06	-2.682672e-08	-4.658934e+01	-1.761972e+03
3.300000e-07	-6.373483e-06	-2.673235e-08	-4.595901e+01	-1.754989e+03
3.400000e-07	-6.283677e-06	-2.664506e-08	-4.531142e+01	-1.747975e+03
3.500000e-07	-6.191585e-06	-2.651367e-08	-4.464735e+01	-1.740892e+03
3.600000e-07	-6.097311e-06	-2.639708e-08	-4.396754e+01	-1.733658e+03
3.700000e-07	-6.000789e-06	-2.628064e-08	-4.327153e+01	-1.726161e+03
3.800000e-07	-5.901981e-06	-2.614707e-08	-4.255903e+01	-1.718275e+03
3.900000e-07	-5.801075e-06	-2.601438e-08	-4.183140e+01	-1.709879e+03
4.000000e-07	-5.698149e-06	-2.587663e-08	-4.108920e+01	-1.700877e+03
4.100000e-07	-5.593178e-06	-2.572721e-08	-4.033226e+01	-1.691207e+03
4.200000e-07	-5.486232e-06	-2.556212e-08	-3.956107e+01	-1.680855e+03
4.300000e-07	-5.377380e-06	-2.540861e-08	-3.877614e+01	-1.669852e+03
4.400000e-07	-5.266589e-06	-2.524232e-08	-3.797723e+01	-1.658270e+03
4.500000e-07	-5.153794e-06	-2.506614e-08	-3.716387e+01	-1.646203e+03
4.600000e-07	-5.039027e-06	-2.488501e-08	-3.633628e+01	-1.633754e+03
4.700000e-07	-4.922339e-06	-2.470129e-08	-3.549486e+01	-1.621009e+03
4.800000e-07	-4.803868e-06	-2.450738e-08	-3.464056e+01	-1.608019e+03
4.900000e-07	-4.683649e-06	-2.430227e-08	-3.377367e+01	-1.594789e+03
5.000000e-07	-4.561682e-06	-2.409430e-08	-3.289417e+01	-1.581266e+03
5.100000e-07	-4.437960e-06	-2.386989e-08	-3.200201e+01	-1.567344e+03
5.200000e-07	-4.312633e-06	-2.362865e-08	-3.109828e+01	-1.552874e+03
5.300000e-07	-4.185863e-06	-2.337832e-08	-3.018414e+01	-1.537684e+03
5.400000e-07	-4.057565e-06	-2.312561e-08	-2.925899e+01	-1.521597e+03
5.500000e-07	-3.927725e-06	-2.285604e-08	-2.832272e+01	-1.504460e+03
5.600000e-07	-3.796352e-06	-2.257168e-08	-2.737539e+01	-1.486159e+03
5.700000e-07	-3.663471e-06	-2.227789e-08	-2.641719e+01	-1.466635e+03
5.800000e-07	-3.529244e-06	-2.197307e-08	-2.544928e+01	-1.445888e+03
5.900000e-07	-3.393765e-06	-2.165580e-08	-2.447235e+01	-1.423969e+03
6.000000e-07	-3.256891e-06	-2.132203e-08	-2.348536e+01	-1.400962e+03
6.100000e-07	-3.118686e-06	-2.097108e-08	-2.248876e+01	-1.376960e+03
6.200000e-07	-2.979316e-06	-2.059682e-08	-2.148377e+01	-1.352032e+03
6.300000e-07	-2.838687e-06	-2.019954e-08	-2.046970e+01	-1.326191e+03
6.400000e-07	-2.696837e-06	-1.977870e-08	-1.944682e+01	-1.299374e+03
6.500000e-07	-2.553855e-06	-1.933717e-08	-1.841578e+01	-1.271418e+03
6.600000e-07	-2.409864e-06	-1.887399e-08	-1.737747e+01	-1.242060e+03
6.700000e-07	-2.265086e-06	-1.838169e-08	-1.633348e+01	-1.210944e+03
6.800000e-07	-2.119525e-06	-1.785507e-08	-1.528383e+01	-1.177648e+03
6.900000e-07	-1.973224e-06	-1.729212e-08	-1.422887e+01	-1.141717e+03
7.000000e-07	-1.826344e-06	-1.669256e-08	-1.316972e+01	-1.102703e+03
7.100000e-07	-1.678980e-06	-1.605030e-08	-1.210708e+01	-1.060212e+03
7.200000e-07	-1.531122e-06	-1.536027e-08	-1.104088e+01	-1.013942e+03
7.300000e-07	-1.382713e-06	-1.461632e-08	-9.970708e+00	-9.637108e+02
7.400000e-07	-1.233759e-06	-1.381483e-08	-8.896605e+00	-9.094749e+02
7.500000e-07	-1.084394e-06	-1.295455e-08	-7.819535e+00	-8.513268e+02
7.600000e-07	-9.347455e-07	-1.203221e-08	-6.740424e+00	-7.894793e+02
7.700000e-07	-7.848195e-07	-1.104613e-08	-5.659312e+00	-7.242343e+02
7.800000e-07	-6.346593e-07	-9.997362e-09	-4.576511e+00	-6.559428e+02
7.900000e-07	-4.843364e-07	-8.889476e-09	-3.492536e+00	-5.849613e+02
8.000000e-07	-3.339172e-07	-7.730769e-09	-2.407868e+00	-5.116108e+02
8.100000e-07	-1.833662e-07	-6.535713e-09	-1.322249e+00	-4.361456e+02
8.200000e-07	-3.270734e-08	-5.317983e-09	-2.358518e-01	-3.587353e+02
8.300000e-07	1.179911e-07	-4.091151e-09	8.508307e-01	-2.794659e+02
8.400000e-07	2.687132e-07	-2.862764e-09	1.937684e+00	-1.983567e+02
8.500000e-07	4.193675e-07	-1.631424e-09	3.024048e+00	-1.153949e+02
8.600000e-07	5.699150e-07	-3.903868e-10	4.109642e+00	-3.057964e+01
8.700000e-07	7.203120e-07	8.710712e-10	5.194150e+00	5.602742e+01
8.800000e-07	8.704821e-07	2.165745e-09	6.277023e+00	1.442554e+02
8.900000e-07	1.020437e-06	3.505573e-09	7.358346e+00	2.337867e+02
9.000000e-07	1.170135e-06	4.888326e-09	8.437810e+00	3.241353e+02
9.100000e-07	1.319496e-06	6.300602e-09	9.514853e+00	4.146465e+02
9.200000e-07	1.468377e-06	7.722681e-09	1.058842e+01	5.045168e+02
9.300000e-07	1.616683e-06	9.124495e-09	1.165785e+01	5.928365e+02
9.400000e-07	1.764430e-06	1.047189e-08	1.272325e+01	6.786471e+02
9.500000e-07	1.911520e-06	1.173933e-08	1.378392e+01	7.610101e+02
9.600000e-07	2.057982e-06	1.291257e-08	1.484005e+01	8.390778e+02
9.700000e-07	2.203781e-06	1.398735e-08	1.589140e+01	9.121580e+02
9.800000e-07	2.348724e-06	1.496745e-08	1.693658e+01	9.797660e+02
9.900000e-07	2.492717e-06	1.586263e-08	1.797491e+01	1.041656e+03
1.000000e-06	2.635735e-06	1.668381e-08	1.900621e+01	1.097831e+03
1.010000e-06	2.777717e-06	1.743542e-08	2.003004e+01	1.148525e+03
1.020000e-06	2.918568e-06	1.812650e-08	2.104571e+01	1.194173e+03
1.030000e-06	3.058193e-06	1.876538e-08	2.205254e+01	1.235350e+03
1.040000e-06	3.196639e-06	1.935532e-08	2.305088e+01	1.272715e+03
1.050000e-06	3.333837e-06	1.990096e-08	2.404021e+01	1.306940e+03
1.060000e-06	3.469585e-06	2.040330e-08	2.501908e+01	1.338653e+03
1.070000e-06	3.604037e-06	2.086829e-08	2.598861e+01	1.368389e+03
1.080000e-06	3.737330e-06	2.130322e-08	2.694978e+01	1.396556e+03
1.090000e-06	3.869306e-06	2.171109e-08	2.790146e+01	1.423426e+03
1.100000e-06	3.999914e-06	2.209580e-08	2.884327e+01	1.449136e+03
1.110000e-06	4.129105e-06	2.245974e-08	2.977486e+01	1.473715e+03
1.120000e-06	4.256713e-06	2.280234e-08	3.069505e+01	1.497111e+03
1.130000e-06	4.382877e-06	2.312399e-08	3.160481e+01	1.519237e+03
1.140000e-06	4.507629e-06	2.342561e-08	3.250439e+01	1.540004e+03
1.150000e-06	4.630796e-06	2.370845e-08	3.339255e+01	1.559355e+03
1.160000e-06	4.752361e-06	2.397235e-08	3.426915e+01	1.577290e+03
1.170000e-06	4.872185e-06	2.422044e-08	3.513319e+01	1.593874e+03
1.180000e-06	4.990199e-06	2.445803e-08	3.598419e+01	1.609233e+03
1.190000e-06	5.106428e-06	2.468717e-08	3.682232e+01	1.623544e+03
1.200000e-06	5.220724e-06	2.490985e-08	3.764650e+01	1.637008e+03
1.210000e-06	5.332900e-06	2.512213e-08	3.845539e+01	1.649826e+03
1.220000e-06	5.443093e-06	2.531863e-08	3.925000e+01	1.662175e+03
1.230000e-06	5.551503e-06	2.550211e-08	4.003174e+01	1.674185e+03
1.240000e-06	5.657927e-06	2.567673e-08	4.079916e+01	1.685928e+03
1.250000e-06	5.762143e-06	2.584197e-08	4.155066e+01	1.697413e+03
1.260000e-06	5.864252e-06	2.599923e-08	4.228696e+01	1.708598e+03
1.270000e-06	5.964323e-06	2.615168e-08	4.300857e+01	1.719395e+03
1.280000e-06	6.062158e-06	2.630027e-08	4.371406e+01	1.729701e+03
1.290000e-06	6.157651e-06	2.644420e-08	4.440265e+01	1.739414e+03
1.300000e-06	6.250924e-06	2.658151e-08	4.507524e+01	1.748455e+03
1.310000e-06	6.342032e-06	2.671065e-08	4.573222e+01	1.756782e+03
1.320000e-06	6.430766e-06	2.683082e-08	4.637208e+01	1.764403e+03
1.330000e-06	6.517166e-06	2.694188e-08	4.699511e+01	1.771371e+03
1.340000e-06	6.601390e-06	2.704746e-08	4.760245e+01	1.777781e+03
1.350000e-06	6.683309e-06	2.714794e-08	4.819316e+01	1.783752e+03
1.360000e-06	6.762733e-06	2.724207e-08	4.876588e+01	1.789412e+03
1.370000e-06	6.839632e-06	2.732961e-08	4.932040e+01	1.794878e+03
1.380000e-06	6.913901e-06	2.741163e-08	4.985595e+01	1.800242e+03
1.390000e-06	6.985596e-06	2.749190e-08	5.037295e+01	1.805557e+03
1.400000e-06	7.054873e-06	2.757076e-08	5.087250e+01	1.810832e+03
1.410000e-06	7.121651e-06	2.764564e-08	5.135403e+01	1.816039e+03
1.420000e-06	7.185852e-06	2.771526e-08	5.181698e+01	1.821114e+03
1.430000e-06	7.247609e-06	2.778084e-08	5.226231e+01	1.825977e+03
1.440000e-06	7.306991e-06	2.784317e-08	5.269052e+01	1.830544e+03
1.450000e-06	7.363736e-06	2.790134e-08	5.309970e+01	1.834742e+03
1.460000e-06	7.417735e-06	2.795740e-08	5.348909e+01	1.838525e+03
1.470000e-06	7.468729e-06	2.801261e-08	5.385680e+01	1.841878e+03
1.480000e-06	7.516679e-06	2.806407e-08	5.420257e+01	1.844820e+03
1.490000e-06	7.561973e-06	2.811209e-08	5.452918e+01	1.847400e+03
1.500000e-06	7.604627e-06	2.815470e-08	5.483676e+01	1.849688e+03
1.510000e-06	7.644484e-06	2.819403e-08	5.512417e+01	1.851764e+03
1.520000e-06	7.681649e-06	2.823026e-08	5.539216e+01	1.853702e+03
1.530000e-06	7.716170e-06	2.826154e-08	5.564109e+01	1.855558e+03
1.540000e-06	7.747934e-06	2.828871e-08	5.587014e+01	1.857365e+03
1.550000e-06	7.777033e-06	2.831155e-08	5.607998e+01	1.859122e+03
1.560000e-06	7.803398e-06	2.833297e-08	5.627009e+01	1.860804e+03
1.570000e-06	7.826796e-06	2.835140e-08	5.643881e+01	1.862360e+03
1.580000e-06	7.847378e-06	2.836719e-08	5.658723e+01	1.863728e+03
1.590000e-06	7.865297e-06	2.838078e-08	5.671644e+01	1.864847e+03
1.600000e-06	7.880270e-06	2.839077e-08	5.682441e+01	1.865665e+03
1.610000e-06	7.892122e-06	2.839700e-08	5.690988e+01	1.866151e+03
1.620000e-06	7.900896e-06	2.839963e-08	5.697315e+01	1.866301e+03
1.630000e-06	7.906819e-06	2.840138e-08	5.701586e+01	1.866139e+03
1.640000e-06	7.910019e-06	2.840122e-08	5.703893e+01	1.865712e+03
1.650000e-06	7.910375e-06	2.839725e-08	5.704150e+01	1.865080e+03
1.660000e-06	7.908011e-06	2.838964e-08	5.702445e+01	1.864311e+03
1.670000e-06	7.903054e-06	2.837851e-08	5.698870e+01	1.863465e+03
1.680000e-06	7.895392e-06	2.837092e-08	5.693346e+01	1.862586e+03
1.690000e-06	7.885079e-06	2.836086e-08	5.685909e+01	1.861693e+03
1.700000e-06	7.872061e-06	2.834603e-08	5.676522e+01	1.860783e+03
1.710000e-06	7.856296e-06	2.832862e-08	5.665154e+01	1.859827e+03
1.720000e-06	7.838101e-06	2.830864e-08	5.652033e+01	1.858779e+03
1.730000e-06	7.817630e-06	2.827546e-08	5.637272e+01	1.857586e+03
1.740000e-06	7.794434e-06	2.820416e-08	5.620546e+01	1.856199e+03
1.750000e-06	7.767861e-06	2.816523e-08	5.601384e+01	1.854582e+03
1.760000e-06	7.737638e-06	2.817718e-08	5.579590e+01	1.852721e+03
1.770000e-06	7.704346e-06	2.815083e-08	5.555583e+01	1.850624e+03
1.780000e-06	7.668758e-06	2.810516e-08	5.529921e+01	1.848326e+03
1.790000e-06	7.630956e-06	2.810464e-08	5.502662e+01	1.845874e+03
1.800000e-06	7.591110e-06	2.810024e-08	5.473929e+01	1.843328e+03
1.810000e-06	7.549223e-06	2.802469e-08	5.443724e+01	1.840739e+03
1.820000e-06	7.504754e-06	2.808028e-08	5.411658e+01	1.838144e+03
1.830000e-06	7.457626e-06	2.806186e-08	5.377674e+01	1.835553e+03
1.840000e-06	7.407790e-06	2.799131e-08	5.341737e+01	1.832942e+03
1.850000e-06	7.354908e-06	2.799466e-08	5.303604e+01	1.830259e+03
1.860000e-06	7.299129e-06	2.786856e-08	5.263382e+01	1.827421e+03
1.870000e-06	7.240698e-06	2.785138e-08	5.221248e+01	1.824330e+03
1.880000e-06	7.179749e-06	2.778656e-08	5.177298e+01	1.820883e+03
1.890000e-06	7.116038e-06	2.771298e-08	5.131356e+01	1.816990e+03
1.900000e-06	7.049454e-06	2.771233e-08	5.083342e+01	1.812586e+03
1.910000e-06	6.980316e-06	2.759200e-08	5.033487e+01	1.807641e+03
1.920000e-06	6.908413e-06	2.752175e-08	4.981638e+01	1.802166e+03
1.930000e-06	6.833753e-06	2.742731e-08	4.927801e+01	1.796212e+03
1.940000e-06	6.756416e-06	2.734802e-08	4.872033e+01	1.789863e+03
1.950000e-06	6.676368e-06	2.727544e-08	4.814311e+01	1.783220e+03
1.960000e-06	6.593889e-06	2.716477e-08	4.754835e+01	1.776386e+03
1.970000e-06	6.509052e-06	2.708419e-08	4.693660e+01	1.769450e+03
1.980000e-06	6.421827e-06	2.694163e-08	4.630762e+01	1.762470e+03
1.990000e-06	6.332208e-06	2.685018e-08	4.566138e+01	1.755464e+03
2.000000e-06	6.240371e-06	2.673569e-08	4.499914e+01	1.748403e+03
2.010000e-06	6.146355e-06	2.661802e-08	4.432120e+01	1.741214e+03
2.020000e-06	6.050126e-06	2.650874e-08	4.362729e+01	1.733792e+03
2.030000e-06	5.951784e-06	2.636701e-08	4.291815e+01	1.726012e+03
2.040000e-06	5.851328e-06	2.622841e-08	4.219377e+01	1.717753e+03
2.050000e-06	5.748762e-06	2.607128e-08	4.145416e+01	1.708907e+03
2.060000e-06	5.644149e-06	2.594136e-08	4.069981e+01	1.699405e+03
2.070000e-06	5.537584e-06	2.578781e-08	3.993137e+01	1.689220e+03
2.080000e-06	5.429058e-06	2.563447e-08	3.914879e+01	1.678373e+03
2.090000e-06	5.318618e-06	2.547331e-08	3.835241e+01	1.666925e+03
2.100000e-06	5.206271e-06	2.530815e-08	3.754228e+01	1.654967e+03
2.110000e-06	5.091998e-06	2.513018e-08	3.671826e+01	1.642603e+03
2.120000e-06	4.975769e-06	2.493723e-08	3.588014e+01	1.629923e+03
2.130000e-06	4.857578e-06	2.474317e-08	3.502787e+01	1.616990e+03
2.140000e-06	4.737556e-06	2.452811e-08	3.416238e+01	1.603820e+03
2.150000e-06	4.615825e-06	2.431148e-08	3.328459e+01	1.590376e+03
2.160000e-06	4.492406e-06	2.409239e-08	3.239462e+01	1.576564e+03
2.170000e-06	4.367259e-06	2.387570e-08	3.149218e+01	1.562245e+03
2.180000e-06	4.240536e-06	2.364087e-08	3.057839e+01	1.547249e+03
2.190000e-06	4.112242e-06	2.339853e-08	2.965327e+01	1.531400e+03
2.200000e-06	3.982425e-06	2.314169e-08	2.871716e+01	1.514536e+03
2.210000e-06	3.851159e-06	2.286726e-08	2.777060e+01	1.496531e+03
2.220000e-06	3.718421e-06	2.257675e-08	2.681343e+01	1.477313e+03
2.230000e-06	3.584329e-06	2.227325e-08	2.584650e+01	1.456867e+03
2.240000e-06	3.448957e-06	2.195186e-08	2.487034e+01	1.435232e+03
2.250000e-06	3.312238e-06	2.161026e-08	2.388446e+01	1.412486e+03
2.260000e-06	3.174236e-06	2.125940e-08	2.288933e+01	1.388723e+03
2.270000e-06	3.035048e-06	2.089769e-08	2.188565e+01	1.364020e+03
2.280000e-06	2.894624e-06	2.052078e-08	2.087305e+01	1.338408e+03
2.290000e-06	2.753098e-06	2.011888e-08	1.985251e+01	1.311844e+03
2.300000e-06	2.610574e-06	1.969272e-08	1.882478e+01	1.284191e+03
2.310000e-06	2.467105e-06	1.923484e-08	1.779023e+01	1.255211e+03
2.320000e-06	2.322733e-06	1.874584e-08	1.674916e+01	1.224570e+03
2.330000e-06	2.177445e-06	1.822460e-08	1.570150e+01	1.191859e+03
2.340000e-06	2.031449e-06	1.767216e-08	1.464872e+01	1.156628e+03
2.350000e-06	1.884911e-06	1.708180e-08	1.359204e+01	1.118422e+03
2.360000e-06	1.737840e-06	1.644734e-08	1.253152e+01	1.076831e+03
2.370000e-06	1.590171e-06	1.576811e-08	1.146668e+01	1.031525e+03
2.380000e-06	1.441917e-06	1.504028e-08	1.039763e+01	9.822918e+02
2.390000e-06	1.293133e-06	1.425830e-08	9.324747e+00	9.290514e+02
2.400000e-06	1.143826e-06	1.341728e-08	8.248095e+00	8.718635e+02
2.410000e-06	9.940876e-07	1.251338e-08	7.168339e+00	8.109132e+02
2.420000e-06	8.440233e-07	1.154293e-08	6.086229e+00	7.464837e+02
2.430000e-06	6.937422e-07	1.050556e-08	5.002557e+00	6.789177e+02
2.440000e-06	5.432914e-07	9.406212e-09	3.917659e+00	6.085744e+02
2.450000e-06	3.926843e-07	8.254970e-09	2.831636e+00	5.357872e+02
2.460000e-06	2.419325e-07	7.062938e-09	1.744569e+00	4.608291e+02
2.470000e-06	9.109128e-08	5.846907e-09	6.568567e-01	3.838918e+02
2.480000e-06	-5.977859e-08	4.621445e-09	-4.310618e-01	3.050810e+02
2.490000e-06	-2.106747e-07	3.392975e-09	-1.519170e+00	2.244303e+02
2.500000e-06	-3.614839e-07	2.160902e-09	-2.606651e+00	1.419308e+02
2.510000e-06	-5.121512e-07	9.188619e-10	-3.693108e+00	5.757424e+01
2.520000e-06	-6.627113e-07	-3.467043e-10	-4.778793e+00	-2.859804e+01
2.530000e-06	-8.131231e-07	-1.643717e-09	-5.863408e+00	-1.164465e+02
2.540000e-06	-9.633099e-07	-2.977969e-09	-6.946402e+00	-2.056929e+02
2.550000e-06	-1.113177e-06	-4.354725e-09	-8.027089e+00	-2.958944e+02
2.560000e-06	-1.262671e-06	-5.764994e-09	-9.105085e+00	-3.864371e+02
2.570000e-06	-1.411683e-06	-7.189173e-09	-1.017961e+01	-4.765519e+02
2.580000e-06	-1.560091e-06	-8.601842e-09	-1.124977e+01	-5.653505e+02
2.590000e-06	-1.707807e-06	-9.973051e-09	-1.231495e+01	-6.518805e+02
2.600000e-06	-1.854817e-06	-1.127496e-08	-1.337504e+01	-7.351917e+02
2.610000e-06	-2.001230e-06	-1.248990e-08	-1.443082e+01	-8.144074e+02
2.620000e-06	-2.147090e-06	-1.361114e-08	-1.548261e+01	-8.887909e+02
2.630000e-06	-2.292191e-06	-1.463728e-08	-1.652893e+01	-9.578019e+02
2.640000e-06	-2.436331e-06	-1.557221e-08	-1.756832e+01	-1.021133e+03
2.650000e-06	-2.579473e-06	-1.642411e-08	-1.860051e+01	-1.078725e+03
2.660000e-06	-2.721624e-06	-1.720263e-08	-1.962556e+01	-1.130758e+03
2.670000e-06	-2.862648e-06	-1.791554e-08	-2.064248e+01	-1.177620e+03
2.680000e-06	-3.002355e-06	-1.856939e-08	-2.164990e+01	-1.219858e+03
2.690000e-06	-3.140854e-06	-1.917301e-08	-2.264861e+01	-1.258114e+03
2.700000e-06	-3.278232e-06	-1.973468e-08	-2.363924e+01	-1.293065e+03
2.710000e-06	-3.414324e-06	-2.025525e-08	-2.462060e+01	-1.325354e+03
2.720000e-06	-3.549161e-06	-2.073722e-08	-2.559290e+01	-1.355542e+03
2.730000e-06	-3.682837e-06	-2.118794e-08	-2.655684e+01	-1.384073e+03
2.740000e-06	-3.815138e-06	-2.161075e-08	-2.751086e+01	-1.411251e+03
2.750000e-06	-3.946010e-06	-2.200784e-08	-2.845457e+01	-1.437248e+03
2.760000e-06	-4.075590e-06	-2.237880e-08	-2.938897e+01	-1.462113e+03
2.770000e-06	-4.203712e-06	-2.272393e-08	-3.031285e+01	-1.485815e+03
2.780000e-06	-4.330366e-06	-2.304676e-08	-3.122615e+01	-1.508270e+03
2.790000e-06	-4.455625e-06	-2.335214e-08	-3.212939e+01	-1.529385e+03
2.800000e-06	-4.579282e-06	-2.364089e-08	-3.302108e+01	-1.549095e+03
2.810000e-06	-4.701363e-06	-2.391668e-08	-3.390140e+01	-1.567383e+03
2.820000e-06	-4.821736e-06	-2.418074e-08	-3.476940e+01	-1.584297e+03
2.830000e-06	-4.940209e-06	-2.443085e-08	-3.562371e+01	-1.599950e+03
2.840000e-06	-5.056756e-06	-2.466869e-08	-3.646413e+01	-1.614507e+03
2.850000e-06	-5.171257e-06	-2.489366e-08	-3.728979e+01	-1.628165e+03
2.860000e-06	-5.283669e-06	-2.510655e-08	-3.810040e+01	-1.641129e+03
2.870000e-06	-5.394020e-06	-2.530737e-08	-3.889613e+01	-1.653583e+03
2.880000e-06	-5.502447e-06	-2.549750e-08	-3.967800e+01	-1.665670e+03
2.890000e-06	-5.609069e-06	-2.567781e-08	-4.044685e+01	-1.677479e+03
2.900000e-06	-5.713735e-06	-2.584925e-08	-4.120159e+01	-1.689033e+03
2.910000e-06	-5.816183e-06	-2.601330e-08	-4.194034e+01	-1.700302e+03
2.920000e-06	-5.916388e-06	-2.616972e-08	-4.266291e+01	-1.711208e+03
2.930000e-06	-6.014525e-06	-2.631957e-08	-4.337057e+01	-1.721649e+03
2.940000e-06	-6.110603e-06	-2.646384e-08	-4.406339e+01	-1.731521e+03
