# Temperatura_=_85.81
# Concentracion g/m^3_=_28370.0
# C_Vs_to_Am_M_A/Vsm_=_65563218390.804596
# pendiente_HvsI_1/m_=_3716.3
# ordenada_HvsI_A/m_=_1297.0
# frecuencia_Hz_=_302556.3077026827

Tiempo_(s)	Campo_(V.s)	Magnetizacion_(V.s)	Campo_(kA/m)	Magnetizacion_(A/m)
0.000000e+00	-7.885334e-06	-3.030096e-08	-5.683364e+01	-1.983371e+03
1.000000e-08	-7.881753e-06	-3.029603e-08	-5.680784e+01	-1.982486e+03
2.000000e-08	-7.875566e-06	-3.028097e-08	-5.676325e+01	-1.981555e+03
3.000000e-08	-7.866800e-06	-3.026711e-08	-5.670006e+01	-1.980611e+03
4.000000e-08	-7.855224e-06	-3.025306e-08	-5.661663e+01	-1.979661e+03
5.000000e-08	-7.840719e-06	-3.023370e-08	-5.651208e+01	-1.978682e+03
6.000000e-08	-7.823424e-06	-3.020559e-08	-5.638743e+01	-1.977628e+03
7.000000e-08	-7.803793e-06	-3.017365e-08	-5.624594e+01	-1.976442e+03
8.000000e-08	-7.781911e-06	-3.016310e-08	-5.608823e+01	-1.975062e+03
9.000000e-08	-7.757147e-06	-3.021352e-08	-5.590973e+01	-1.973438e+03
1.000000e-07	-7.729205e-06	-3.016317e-08	-5.570835e+01	-1.971538e+03
1.100000e-07	-7.698350e-06	-3.006104e-08	-5.548596e+01	-1.969358e+03
1.200000e-07	-7.664674e-06	-3.001997e-08	-5.524324e+01	-1.966920e+03
1.300000e-07	-7.628365e-06	-2.998417e-08	-5.498154e+01	-1.964273e+03
1.400000e-07	-7.589726e-06	-2.990670e-08	-5.470305e+01	-1.961476e+03
1.500000e-07	-7.548843e-06	-2.983138e-08	-5.440838e+01	-1.958593e+03
1.600000e-07	-7.505555e-06	-2.990009e-08	-5.409639e+01	-1.955679e+03
1.700000e-07	-7.459668e-06	-2.981801e-08	-5.376565e+01	-1.952763e+03
1.800000e-07	-7.411153e-06	-2.967769e-08	-5.341598e+01	-1.949844e+03
1.900000e-07	-7.359686e-06	-2.970627e-08	-5.304503e+01	-1.946884e+03
2.000000e-07	-7.305226e-06	-2.960573e-08	-5.265251e+01	-1.943815e+03
2.100000e-07	-7.248125e-06	-2.955584e-08	-5.224096e+01	-1.940539e+03
2.200000e-07	-7.188415e-06	-2.950794e-08	-5.181059e+01	-1.936949e+03
2.300000e-07	-7.126141e-06	-2.940195e-08	-5.136175e+01	-1.932940e+03
2.400000e-07	-7.061243e-06	-2.935488e-08	-5.089400e+01	-1.928426e+03
2.500000e-07	-6.993621e-06	-2.923405e-08	-5.040661e+01	-1.923353e+03
2.600000e-07	-6.923344e-06	-2.917179e-08	-4.990009e+01	-1.917708e+03
2.700000e-07	-6.850301e-06	-2.907825e-08	-4.937364e+01	-1.911522e+03
2.800000e-07	-6.774555e-06	-2.898841e-08	-4.882769e+01	-1.904863e+03
2.900000e-07	-6.696129e-06	-2.888413e-08	-4.826244e+01	-1.897829e+03
3.000000e-07	-6.614963e-06	-2.876893e-08	-4.767743e+01	-1.890530e+03
3.100000e-07	-6.531429e-06	-2.868184e-08	-4.707536e+01	-1.883068e+03
3.200000e-07	-6.445761e-06	-2.855213e-08	-4.645791e+01	-1.875525e+03
3.300000e-07	-6.357806e-06	-2.846722e-08	-4.582397e+01	-1.867942e+03
3.400000e-07	-6.267432e-06	-2.833202e-08	-4.517260e+01	-1.860315e+03
3.500000e-07	-6.174796e-06	-2.820029e-08	-4.450492e+01	-1.852592e+03
3.600000e-07	-6.080041e-06	-2.808592e-08	-4.382198e+01	-1.844681e+03
3.700000e-07	-5.983012e-06	-2.794736e-08	-4.312264e+01	-1.836461e+03
3.800000e-07	-5.883683e-06	-2.780430e-08	-4.240672e+01	-1.827800e+03
3.900000e-07	-5.782308e-06	-2.765875e-08	-4.167606e+01	-1.818578e+03
4.000000e-07	-5.678938e-06	-2.751493e-08	-4.093102e+01	-1.808700e+03
4.100000e-07	-5.573553e-06	-2.733700e-08	-4.017145e+01	-1.798115e+03
4.200000e-07	-5.466176e-06	-2.717483e-08	-3.939753e+01	-1.786820e+03
4.300000e-07	-5.356906e-06	-2.700722e-08	-3.860997e+01	-1.774857e+03
4.400000e-07	-5.245735e-06	-2.682614e-08	-3.780870e+01	-1.762308e+03
4.500000e-07	-5.132582e-06	-2.663115e-08	-3.699315e+01	-1.749276e+03
4.600000e-07	-5.017396e-06	-2.643947e-08	-3.616295e+01	-1.735864e+03
4.700000e-07	-4.900204e-06	-2.624152e-08	-3.531828e+01	-1.722154e+03
4.800000e-07	-4.781277e-06	-2.602786e-08	-3.446111e+01	-1.708186e+03
4.900000e-07	-4.660662e-06	-2.581153e-08	-3.359178e+01	-1.693951e+03
5.000000e-07	-4.538265e-06	-2.558364e-08	-3.270960e+01	-1.679377e+03
5.100000e-07	-4.414131e-06	-2.534212e-08	-3.181491e+01	-1.664340e+03
5.200000e-07	-4.288508e-06	-2.508063e-08	-3.090947e+01	-1.648677e+03
5.300000e-07	-4.161416e-06	-2.481710e-08	-2.999346e+01	-1.632202e+03
5.400000e-07	-4.032740e-06	-2.454025e-08	-2.906602e+01	-1.614734e+03
5.500000e-07	-3.902496e-06	-2.424892e-08	-2.812729e+01	-1.596123e+03
5.600000e-07	-3.770665e-06	-2.394328e-08	-2.717712e+01	-1.576262e+03
5.700000e-07	-3.637438e-06	-2.362904e-08	-2.621688e+01	-1.555105e+03
5.800000e-07	-3.502916e-06	-2.329969e-08	-2.524731e+01	-1.532666e+03
5.900000e-07	-3.367077e-06	-2.295472e-08	-2.426825e+01	-1.509009e+03
6.000000e-07	-3.229981e-06	-2.259369e-08	-2.328013e+01	-1.484226e+03
6.100000e-07	-3.091621e-06	-2.221076e-08	-2.228290e+01	-1.458408e+03
6.200000e-07	-2.951859e-06	-2.180798e-08	-2.127556e+01	-1.431614e+03
6.300000e-07	-2.810714e-06	-2.137804e-08	-2.025826e+01	-1.403838e+03
6.400000e-07	-2.668567e-06	-2.092656e-08	-1.923373e+01	-1.374987e+03
6.500000e-07	-2.525444e-06	-2.045132e-08	-1.820217e+01	-1.344862e+03
6.600000e-07	-2.381265e-06	-1.995004e-08	-1.716300e+01	-1.313160e+03
6.700000e-07	-2.236231e-06	-1.941599e-08	-1.611766e+01	-1.279489e+03
6.800000e-07	-2.090472e-06	-1.884615e-08	-1.506710e+01	-1.243393e+03
6.900000e-07	-1.943985e-06	-1.824025e-08	-1.401129e+01	-1.204393e+03
7.000000e-07	-1.796860e-06	-1.759089e-08	-1.295089e+01	-1.162031e+03
7.100000e-07	-1.649218e-06	-1.689444e-08	-1.188676e+01	-1.115914e+03
7.200000e-07	-1.501077e-06	-1.614603e-08	-1.081903e+01	-1.065751e+03
7.300000e-07	-1.352503e-06	-1.534124e-08	-9.748182e+00	-1.011385e+03
7.400000e-07	-1.203519e-06	-1.447545e-08	-8.674375e+00	-9.527988e+02
7.500000e-07	-1.054143e-06	-1.354767e-08	-7.597752e+00	-8.901133e+02
7.600000e-07	-9.044424e-07	-1.255420e-08	-6.518780e+00	-8.235654e+02
7.700000e-07	-7.544357e-07	-1.149216e-08	-5.437605e+00	-7.534728e+02
7.800000e-07	-6.041522e-07	-1.035884e-08	-4.354435e+00	-6.801912e+02
7.900000e-07	-4.536321e-07	-9.162062e-09	-3.269559e+00	-6.040701e+02
8.000000e-07	-3.029147e-07	-7.917299e-09	-2.183262e+00	-5.254133e+02
8.100000e-07	-1.520703e-07	-6.636731e-09	-1.096049e+00	-4.444508e+02
8.200000e-07	-1.123290e-09	-5.335673e-09	-8.096128e-03	-3.613274e+02
8.300000e-07	1.498475e-07	-4.024495e-09	1.080028e+00	-2.761090e+02
8.400000e-07	3.008388e-07	-2.710116e-09	2.168299e+00	-1.888072e+02
8.500000e-07	4.518167e-07	-1.388627e-09	3.256475e+00	-9.941923e+01
8.600000e-07	6.026330e-07	-5.329617e-11	4.343485e+00	-7.977045e+00
8.700000e-07	7.532432e-07	1.306535e-09	5.429010e+00	8.540085e+01
8.800000e-07	9.035778e-07	2.706247e-09	6.512548e+00	1.804631e+02
8.900000e-07	1.053592e-06	4.154464e-09	7.593779e+00	2.767919e+02
9.000000e-07	1.203261e-06	5.645890e-09	8.672517e+00	3.737883e+02
9.100000e-07	1.352508e-06	7.163714e-09	9.748217e+00	4.706794e+02
9.200000e-07	1.501273e-06	8.684459e-09	1.082045e+01	5.665492e+02
9.300000e-07	1.649564e-06	1.017186e-08	1.188925e+01	6.603895e+02
9.400000e-07	1.797319e-06	1.159040e-08	1.295420e+01	7.511670e+02
9.500000e-07	1.944423e-06	1.291614e-08	1.401446e+01	8.378974e+02
9.600000e-07	2.090759e-06	1.413805e-08	1.506917e+01	9.197204e+02
9.700000e-07	2.236320e-06	1.525201e-08	1.611830e+01	9.959645e+02
9.800000e-07	2.381107e-06	1.626522e-08	1.716186e+01	1.066195e+03
9.900000e-07	2.525013e-06	1.719217e-08	1.819907e+01	1.130243e+03
1.000000e-06	2.667933e-06	1.804119e-08	1.922916e+01	1.188199e+03
1.010000e-06	2.809742e-06	1.882172e-08	2.025125e+01	1.240400e+03
1.020000e-06	2.950392e-06	1.953699e-08	2.126499e+01	1.287372e+03
1.030000e-06	3.089824e-06	2.019629e-08	2.226995e+01	1.329777e+03
1.040000e-06	3.228030e-06	2.080664e-08	2.326607e+01	1.368340e+03
1.050000e-06	3.365052e-06	2.137224e-08	2.425366e+01	1.403780e+03
1.060000e-06	3.500759e-06	2.189541e-08	2.523176e+01	1.436749e+03
1.070000e-06	3.635074e-06	2.237984e-08	2.619984e+01	1.467782e+03
1.080000e-06	3.768120e-06	2.283263e-08	2.715877e+01	1.497276e+03
1.090000e-06	3.899845e-06	2.325930e-08	2.810819e+01	1.525474e+03
1.100000e-06	4.030128e-06	2.366410e-08	2.904720e+01	1.552482e+03
1.110000e-06	4.159039e-06	2.404399e-08	2.997633e+01	1.578297e+03
1.120000e-06	4.286505e-06	2.440099e-08	3.089504e+01	1.602843e+03
1.130000e-06	4.412418e-06	2.473703e-08	3.180256e+01	1.626015e+03
1.140000e-06	4.536837e-06	2.505449e-08	3.269931e+01	1.647720e+03
1.150000e-06	4.659693e-06	2.535191e-08	3.358480e+01	1.667907e+03
1.160000e-06	4.780920e-06	2.563109e-08	3.445854e+01	1.686592e+03
1.170000e-06	4.900433e-06	2.589374e-08	3.531993e+01	1.703861e+03
1.180000e-06	5.018107e-06	2.614242e-08	3.616807e+01	1.719865e+03
1.190000e-06	5.133890e-06	2.638171e-08	3.700258e+01	1.734803e+03
1.200000e-06	5.247764e-06	2.661443e-08	3.782333e+01	1.748895e+03
1.210000e-06	5.359665e-06	2.683637e-08	3.862985e+01	1.762354e+03
1.220000e-06	5.469627e-06	2.704227e-08	3.942241e+01	1.775360e+03
1.230000e-06	5.577641e-06	2.723511e-08	4.020092e+01	1.788040e+03
1.240000e-06	5.683622e-06	2.741729e-08	4.096478e+01	1.800456e+03
1.250000e-06	5.787522e-06	2.759096e-08	4.171364e+01	1.812606e+03
1.260000e-06	5.889271e-06	2.775707e-08	4.244699e+01	1.824432e+03
1.270000e-06	5.988878e-06	2.791697e-08	4.316492e+01	1.835838e+03
1.280000e-06	6.086265e-06	2.807218e-08	4.386683e+01	1.846712e+03
1.290000e-06	6.181322e-06	2.822171e-08	4.455196e+01	1.856950e+03
1.300000e-06	6.274117e-06	2.836549e-08	4.522078e+01	1.866476e+03
1.310000e-06	6.364721e-06	2.850322e-08	4.587381e+01	1.875256e+03
1.320000e-06	6.453034e-06	2.863305e-08	4.651033e+01	1.883308e+03
1.330000e-06	6.539070e-06	2.875397e-08	4.713043e+01	1.890697e+03
1.340000e-06	6.622801e-06	2.886750e-08	4.773393e+01	1.897526e+03
1.350000e-06	6.704123e-06	2.897450e-08	4.832006e+01	1.903920e+03
1.360000e-06	6.783009e-06	2.907681e-08	4.888863e+01	1.910009e+03
1.370000e-06	6.859403e-06	2.917465e-08	4.943923e+01	1.915908e+03
1.380000e-06	6.933239e-06	2.926797e-08	4.997141e+01	1.921700e+03
1.390000e-06	7.004516e-06	2.935529e-08	5.048514e+01	1.927426e+03
1.400000e-06	7.073342e-06	2.943480e-08	5.098121e+01	1.933087e+03
1.410000e-06	7.139645e-06	2.950925e-08	5.145908e+01	1.938640e+03
1.420000e-06	7.203319e-06	2.958112e-08	5.191801e+01	1.944017e+03
1.430000e-06	7.264529e-06	2.965029e-08	5.235918e+01	1.949132e+03
1.440000e-06	7.323264e-06	2.971507e-08	5.278252e+01	1.953904e+03
1.450000e-06	7.379381e-06	2.977769e-08	5.318699e+01	1.958267e+03
1.460000e-06	7.432755e-06	2.984011e-08	5.357168e+01	1.962185e+03
1.470000e-06	7.483127e-06	2.990080e-08	5.393473e+01	1.965656e+03
1.480000e-06	7.530555e-06	2.995681e-08	5.427657e+01	1.968713e+03
1.490000e-06	7.575311e-06	3.000731e-08	5.459915e+01	1.971417e+03
1.500000e-06	7.617344e-06	3.005233e-08	5.490210e+01	1.973846e+03
1.510000e-06	7.656614e-06	3.009189e-08	5.518514e+01	1.976082e+03
1.520000e-06	7.693249e-06	3.012780e-08	5.544919e+01	1.978197e+03
1.530000e-06	7.727247e-06	3.016307e-08	5.569423e+01	1.980239e+03
1.540000e-06	7.758460e-06	3.019599e-08	5.591920e+01	1.982229e+03
1.550000e-06	7.786910e-06	3.022500e-08	5.612426e+01	1.984154e+03
1.560000e-06	7.812530e-06	3.025008e-08	5.630891e+01	1.985974e+03
1.570000e-06	7.835279e-06	3.026860e-08	5.647288e+01	1.987627e+03
1.580000e-06	7.855384e-06	3.028226e-08	5.661778e+01	1.989046e+03
1.590000e-06	7.872669e-06	3.029171e-08	5.674236e+01	1.990164e+03
1.600000e-06	7.886917e-06	3.030014e-08	5.684506e+01	1.990935e+03
1.610000e-06	7.898102e-06	3.030772e-08	5.692567e+01	1.991336e+03
1.620000e-06	7.906270e-06	3.031386e-08	5.698454e+01	1.991375e+03
1.630000e-06	7.911615e-06	3.031866e-08	5.702307e+01	1.991088e+03
1.640000e-06	7.914172e-06	3.031987e-08	5.704150e+01	1.990534e+03
1.650000e-06	7.913911e-06	3.031797e-08	5.703962e+01	1.989787e+03
1.660000e-06	7.911015e-06	3.030304e-08	5.701874e+01	1.988920e+03
1.670000e-06	7.905520e-06	3.029054e-08	5.697914e+01	1.987993e+03
1.680000e-06	7.897333e-06	3.027952e-08	5.692013e+01	1.987048e+03
1.690000e-06	7.886494e-06	3.026492e-08	5.684201e+01	1.986098e+03
1.700000e-06	7.872817e-06	3.025046e-08	5.674343e+01	1.985127e+03
1.710000e-06	7.856416e-06	3.024040e-08	5.662522e+01	1.984095e+03
1.720000e-06	7.837729e-06	3.023259e-08	5.649054e+01	1.982946e+03
1.730000e-06	7.816763e-06	3.016452e-08	5.633942e+01	1.981617e+03
1.740000e-06	7.792952e-06	3.005714e-08	5.616780e+01	1.980055e+03
1.750000e-06	7.765584e-06	3.008231e-08	5.597055e+01	1.978223e+03
1.760000e-06	7.734547e-06	3.008604e-08	5.574685e+01	1.976109e+03
1.770000e-06	7.700653e-06	3.002575e-08	5.550255e+01	1.973730e+03
1.780000e-06	7.664607e-06	3.001516e-08	5.524275e+01	1.971127e+03
1.790000e-06	7.626346e-06	3.005269e-08	5.496699e+01	1.968359e+03
1.800000e-06	7.586076e-06	2.991309e-08	5.467674e+01	1.965490e+03
1.810000e-06	7.543683e-06	2.986971e-08	5.437120e+01	1.962577e+03
1.820000e-06	7.498535e-06	2.997049e-08	5.404579e+01	1.959658e+03
1.830000e-06	7.450730e-06	2.985551e-08	5.370123e+01	1.956739e+03
1.840000e-06	7.400184e-06	2.991325e-08	5.333692e+01	1.953792e+03
1.850000e-06	7.346521e-06	2.980401e-08	5.295014e+01	1.950756e+03
1.860000e-06	7.290090e-06	2.972047e-08	5.254342e+01	1.947539e+03
1.870000e-06	7.231189e-06	2.973146e-08	5.211888e+01	1.944036e+03
1.880000e-06	7.169731e-06	2.955650e-08	5.167593e+01	1.940138e+03
1.890000e-06	7.105419e-06	2.957700e-08	5.121240e+01	1.935754e+03
1.900000e-06	7.038310e-06	2.947509e-08	5.072871e+01	1.930822e+03
1.910000e-06	6.968531e-06	2.939155e-08	5.022578e+01	1.925316e+03
1.920000e-06	6.895991e-06	2.931568e-08	4.970295e+01	1.919257e+03
1.930000e-06	6.820821e-06	2.918982e-08	4.916116e+01	1.912705e+03
1.940000e-06	6.742867e-06	2.915822e-08	4.859930e+01	1.905753e+03
1.950000e-06	6.662283e-06	2.900053e-08	4.801849e+01	1.898507e+03
1.960000e-06	6.579342e-06	2.893049e-08	4.742070e+01	1.891075e+03
1.970000e-06	6.493932e-06	2.879526e-08	4.680510e+01	1.883544e+03
1.980000e-06	6.406025e-06	2.868192e-08	4.617151e+01	1.875967e+03
1.990000e-06	6.315856e-06	2.858603e-08	4.552162e+01	1.868352e+03
2.000000e-06	6.223610e-06	2.843181e-08	4.485675e+01	1.860658e+03
2.010000e-06	6.129109e-06	2.833517e-08	4.417563e+01	1.852802e+03
2.020000e-06	6.032349e-06	2.817917e-08	4.347823e+01	1.844668e+03
2.030000e-06	5.933518e-06	2.805081e-08	4.276591e+01	1.836127e+03
2.040000e-06	5.832574e-06	2.788085e-08	4.203835e+01	1.827053e+03
2.050000e-06	5.729416e-06	2.774407e-08	4.129484e+01	1.817343e+03
2.060000e-06	5.624233e-06	2.758379e-08	4.053673e+01	1.806935e+03
2.070000e-06	5.517244e-06	2.741150e-08	3.976561e+01	1.795812e+03
2.080000e-06	5.408379e-06	2.724804e-08	3.898096e+01	1.784007e+03
2.090000e-06	5.297488e-06	2.707095e-08	3.818171e+01	1.771594e+03
2.100000e-06	5.184607e-06	2.689703e-08	3.736812e+01	1.758670e+03
2.110000e-06	5.069889e-06	2.669173e-08	3.654129e+01	1.745341e+03
2.120000e-06	4.953236e-06	2.649552e-08	3.570051e+01	1.731697e+03
2.130000e-06	4.834566e-06	2.627366e-08	3.484520e+01	1.717791e+03
2.140000e-06	4.714013e-06	2.605079e-08	3.397631e+01	1.703624e+03
2.150000e-06	4.591788e-06	2.581458e-08	3.309537e+01	1.689142e+03
2.160000e-06	4.467946e-06	2.558654e-08	3.220278e+01	1.674233e+03
2.170000e-06	4.342469e-06	2.534224e-08	3.129840e+01	1.658740e+03
2.180000e-06	4.215335e-06	2.508728e-08	3.038209e+01	1.642483e+03
2.190000e-06	4.086618e-06	2.482074e-08	2.945435e+01	1.625277e+03
2.200000e-06	3.956497e-06	2.453910e-08	2.851650e+01	1.606961e+03
2.210000e-06	3.824921e-06	2.424179e-08	2.756817e+01	1.587416e+03
2.220000e-06	3.691863e-06	2.392857e-08	2.660915e+01	1.566582e+03
2.230000e-06	3.557398e-06	2.360468e-08	2.563999e+01	1.544457e+03
2.240000e-06	3.421581e-06	2.325820e-08	2.466109e+01	1.521094e+03
2.250000e-06	3.284516e-06	2.289938e-08	2.367319e+01	1.496581e+03
2.260000e-06	3.146257e-06	2.252363e-08	2.267668e+01	1.471012e+03
2.270000e-06	3.006742e-06	2.213406e-08	2.167113e+01	1.444457e+03
2.280000e-06	2.865980e-06	2.172026e-08	2.065659e+01	1.416929e+03
2.290000e-06	2.724149e-06	2.128370e-08	1.963434e+01	1.388359e+03
2.300000e-06	2.581340e-06	2.081585e-08	1.860504e+01	1.358574e+03
2.310000e-06	2.437480e-06	2.031776e-08	1.756817e+01	1.327298e+03
2.320000e-06	2.292691e-06	1.979041e-08	1.652460e+01	1.294157e+03
2.330000e-06	2.147228e-06	1.923048e-08	1.547618e+01	1.258710e+03
2.340000e-06	2.001176e-06	1.863526e-08	1.442350e+01	1.220478e+03
2.350000e-06	1.854421e-06	1.799843e-08	1.336576e+01	1.178994e+03
2.360000e-06	1.707001e-06	1.731423e-08	1.230323e+01	1.133845e+03
2.370000e-06	1.559046e-06	1.658106e-08	1.123685e+01	1.084711e+03
2.380000e-06	1.410610e-06	1.579476e-08	1.016699e+01	1.031401e+03
2.390000e-06	1.261740e-06	1.494940e-08	9.094004e+00	9.738605e+02
2.400000e-06	1.112424e-06	1.403882e-08	8.017809e+00	9.121791e+02
2.410000e-06	9.627605e-07	1.305918e-08	6.939109e+00	8.465670e+02
2.420000e-06	8.128313e-07	1.201107e-08	5.858492e+00	7.773254e+02
2.430000e-06	6.626159e-07	1.089595e-08	4.775813e+00	7.048049e+02
2.440000e-06	5.120910e-07	9.716702e-09	3.690903e+00	6.293603e+02
2.450000e-06	3.613105e-07	8.481926e-09	2.604150e+00	5.513101e+02
2.460000e-06	2.103934e-07	7.208526e-09	1.516413e+00	4.709046e+02
2.470000e-06	5.941246e-08	5.909290e-09	4.282161e-01	3.883100e+02
2.480000e-06	-9.163670e-08	4.595829e-09	-6.604727e-01	3.036103e+02
2.490000e-06	-2.426725e-07	3.275483e-09	-1.749065e+00	2.168273e+02
2.500000e-06	-3.936405e-07	1.947704e-09	-2.837169e+00	1.279576e+02
2.510000e-06	-5.445249e-07	6.079616e-10	-3.924670e+00	3.701961e+01
2.520000e-06	-6.951958e-07	-7.557037e-10	-5.010633e+00	-5.589453e+01
2.530000e-06	-8.456048e-07	-2.151906e-09	-6.094708e+00	-1.505704e+02
2.540000e-06	-9.957189e-07	-3.588993e-09	-7.176657e+00	-2.466341e+02
2.550000e-06	-1.145464e-06	-5.072217e-09	-8.255947e+00	-3.435321e+02
2.560000e-06	-1.294793e-06	-6.590337e-09	-9.332239e+00	-4.405330e+02
2.570000e-06	-1.443679e-06	-8.121033e-09	-1.040533e+01	-5.367526e+02
2.580000e-06	-1.592058e-06	-9.631230e-09	-1.147478e+01	-6.312000e+02
2.590000e-06	-1.739865e-06	-1.108561e-08	-1.254010e+01	-7.228411e+02
2.600000e-06	-1.887041e-06	-1.245417e-08	-1.360087e+01	-8.106725e+02
2.610000e-06	-2.033429e-06	-1.372162e-08	-1.465596e+01	-8.937962e+02
2.620000e-06	-2.179004e-06	-1.488492e-08	-1.570520e+01	-9.714881e+02
2.630000e-06	-2.323853e-06	-1.594481e-08	-1.674920e+01	-1.043251e+03
2.640000e-06	-2.467871e-06	-1.690840e-08	-1.778721e+01	-1.108848e+03
2.650000e-06	-2.610842e-06	-1.778738e-08	-1.881768e+01	-1.168308e+03
2.660000e-06	-2.752723e-06	-1.859181e-08	-1.984029e+01	-1.221907e+03
2.670000e-06	-2.893538e-06	-1.932970e-08	-2.085521e+01	-1.270130e+03
2.680000e-06	-3.033231e-06	-2.000983e-08	-2.186205e+01	-1.313613e+03
2.690000e-06	-3.171718e-06	-2.063909e-08	-2.286020e+01	-1.353070e+03
2.700000e-06	-3.308928e-06	-2.122356e-08	-2.384914e+01	-1.389229e+03
2.710000e-06	-3.444876e-06	-2.176556e-08	-2.482899e+01	-1.422762e+03
2.720000e-06	-3.579536e-06	-2.226716e-08	-2.579955e+01	-1.454240e+03
2.730000e-06	-3.712927e-06	-2.273427e-08	-2.676097e+01	-1.484092e+03
2.740000e-06	-3.845015e-06	-2.317233e-08	-2.771300e+01	-1.512601e+03
2.750000e-06	-3.975693e-06	-2.358428e-08	-2.865486e+01	-1.539906e+03
2.760000e-06	-4.104982e-06	-2.397158e-08	-2.958671e+01	-1.566027e+03
2.770000e-06	-4.232905e-06	-2.433386e-08	-3.050872e+01	-1.590902e+03
2.780000e-06	-4.359380e-06	-2.467222e-08	-3.142029e+01	-1.614430e+03
2.790000e-06	-4.484368e-06	-2.499137e-08	-3.232114e+01	-1.636511e+03
2.800000e-06	-4.607784e-06	-2.529440e-08	-3.321066e+01	-1.657081e+03
2.810000e-06	-4.729528e-06	-2.558495e-08	-3.408813e+01	-1.676139e+03
2.820000e-06	-4.849611e-06	-2.586250e-08	-3.495363e+01	-1.693752e+03
2.830000e-06	-4.967820e-06	-2.612336e-08	-3.580563e+01	-1.710058e+03
2.840000e-06	-5.084027e-06	-2.636778e-08	-3.664319e+01	-1.725245e+03
2.850000e-06	-5.198205e-06	-2.659890e-08	-3.746613e+01	-1.739531e+03
2.860000e-06	-5.310268e-06	-2.682171e-08	-3.827382e+01	-1.753132e+03
2.870000e-06	-5.420260e-06	-2.703637e-08	-3.906659e+01	-1.766239e+03
2.880000e-06	-5.528330e-06	-2.723998e-08	-3.984551e+01	-1.778994e+03
2.890000e-06	-5.634555e-06	-2.743191e-08	-4.061113e+01	-1.791476e+03
2.900000e-06	-5.738763e-06	-2.761320e-08	-4.136221e+01	-1.803699e+03
2.910000e-06	-5.840764e-06	-2.778553e-08	-4.209738e+01	-1.815617e+03
2.920000e-06	-5.940584e-06	-2.795063e-08	-4.281683e+01	-1.827140e+03
2.930000e-06	-6.038334e-06	-2.810832e-08	-4.352137e+01	-1.838161e+03
2.940000e-06	-6.133990e-06	-2.825833e-08	-4.421081e+01	-1.848569e+03
