# Temperatura_=_69.75
# Concentracion g/m^3_=_28370.0
# C_Vs_to_Am_M_A/Vsm_=_65563218390.804596
# pendiente_HvsI_1/m_=_3716.3
# ordenada_HvsI_A/m_=_1297.0
# frecuencia_Hz_=_302555.0557971224

Tiempo_(s)	Campo_(V.s)	Magnetizacion_(V.s)	Campo_(kA/m)	Magnetizacion_(A/m)
0.000000e+00	-7.940802e-06	-2.748278e-08	-5.683345e+01	-1.799014e+03
1.000000e-08	-7.937789e-06	-2.747776e-08	-5.681188e+01	-1.798258e+03
2.000000e-08	-7.932167e-06	-2.746980e-08	-5.677164e+01	-1.797458e+03
3.000000e-08	-7.924015e-06	-2.745945e-08	-5.671330e+01	-1.796655e+03
4.000000e-08	-7.913051e-06	-2.744985e-08	-5.663483e+01	-1.795861e+03
5.000000e-08	-7.899151e-06	-2.743695e-08	-5.653535e+01	-1.795061e+03
6.000000e-08	-7.882425e-06	-2.741691e-08	-5.641563e+01	-1.794216e+03
7.000000e-08	-7.863232e-06	-2.739429e-08	-5.627827e+01	-1.793269e+03
8.000000e-08	-7.841793e-06	-2.737917e-08	-5.612483e+01	-1.792156e+03
9.000000e-08	-7.817722e-06	-2.737545e-08	-5.595255e+01	-1.790821e+03
1.000000e-07	-7.790550e-06	-2.736088e-08	-5.575808e+01	-1.789222e+03
1.100000e-07	-7.760228e-06	-2.730212e-08	-5.554105e+01	-1.787345e+03
1.200000e-07	-7.726974e-06	-2.725142e-08	-5.530305e+01	-1.785203e+03
1.300000e-07	-7.690999e-06	-2.722331e-08	-5.504557e+01	-1.782833e+03
1.400000e-07	-7.652574e-06	-2.718197e-08	-5.477056e+01	-1.780293e+03
1.500000e-07	-7.611949e-06	-2.711854e-08	-5.447980e+01	-1.777652e+03
1.600000e-07	-7.569019e-06	-2.707345e-08	-5.417254e+01	-1.774971e+03
1.700000e-07	-7.523519e-06	-2.706383e-08	-5.384689e+01	-1.772296e+03
1.800000e-07	-7.475393e-06	-2.697856e-08	-5.350245e+01	-1.769645e+03
1.900000e-07	-7.424399e-06	-2.692572e-08	-5.313748e+01	-1.767003e+03
2.000000e-07	-7.370347e-06	-2.692508e-08	-5.275062e+01	-1.764321e+03
2.100000e-07	-7.313501e-06	-2.687568e-08	-5.234377e+01	-1.761520e+03
2.200000e-07	-7.254035e-06	-2.682889e-08	-5.191816e+01	-1.758503e+03
2.300000e-07	-7.191994e-06	-2.674943e-08	-5.147412e+01	-1.755169e+03
2.400000e-07	-7.127278e-06	-2.666543e-08	-5.101094e+01	-1.751428e+03
2.500000e-07	-7.059799e-06	-2.659415e-08	-5.052799e+01	-1.747212e+03
2.600000e-07	-6.989717e-06	-2.651687e-08	-5.002640e+01	-1.742490e+03
2.700000e-07	-6.916915e-06	-2.645198e-08	-4.950534e+01	-1.737270e+03
2.800000e-07	-6.841335e-06	-2.636434e-08	-4.896441e+01	-1.731601e+03
2.900000e-07	-6.763030e-06	-2.626843e-08	-4.840396e+01	-1.725560e+03
3.000000e-07	-6.681933e-06	-2.617089e-08	-4.782354e+01	-1.719243e+03
3.100000e-07	-6.598404e-06	-2.607689e-08	-4.722571e+01	-1.712749e+03
3.200000e-07	-6.512711e-06	-2.598932e-08	-4.661239e+01	-1.706159e+03
3.300000e-07	-6.424696e-06	-2.590798e-08	-4.598246e+01	-1.699527e+03
3.400000e-07	-6.334286e-06	-2.582500e-08	-4.533538e+01	-1.692864e+03
3.500000e-07	-6.241558e-06	-2.569749e-08	-4.467172e+01	-1.686137e+03
3.600000e-07	-6.146556e-06	-2.557637e-08	-4.399178e+01	-1.679274e+03
3.700000e-07	-6.049199e-06	-2.546713e-08	-4.329498e+01	-1.672169e+03
3.800000e-07	-5.949643e-06	-2.534772e-08	-4.258244e+01	-1.664701e+03
3.900000e-07	-5.848106e-06	-2.522294e-08	-4.185572e+01	-1.656754e+03
4.000000e-07	-5.744503e-06	-2.509465e-08	-4.111422e+01	-1.648228e+03
4.100000e-07	-5.638769e-06	-2.495184e-08	-4.035747e+01	-1.639060e+03
4.200000e-07	-5.531117e-06	-2.478998e-08	-3.958699e+01	-1.629231e+03
4.300000e-07	-5.421584e-06	-2.463608e-08	-3.880305e+01	-1.618766e+03
4.400000e-07	-5.310035e-06	-2.447775e-08	-3.800467e+01	-1.607730e+03
4.500000e-07	-5.196430e-06	-2.431383e-08	-3.719158e+01	-1.596215e+03
4.600000e-07	-5.080822e-06	-2.414362e-08	-3.636416e+01	-1.584318e+03
4.700000e-07	-4.963318e-06	-2.396906e-08	-3.552317e+01	-1.572126e+03
4.800000e-07	-4.844004e-06	-2.378007e-08	-3.466923e+01	-1.559693e+03
4.900000e-07	-4.722906e-06	-2.358031e-08	-3.380251e+01	-1.547025e+03
5.000000e-07	-4.600081e-06	-2.338069e-08	-3.292343e+01	-1.534076e+03
5.100000e-07	-4.475599e-06	-2.316910e-08	-3.203250e+01	-1.520747e+03
5.200000e-07	-4.349520e-06	-2.294100e-08	-3.113014e+01	-1.506895e+03
5.300000e-07	-4.221902e-06	-2.270310e-08	-3.021675e+01	-1.492350e+03
5.400000e-07	-4.092662e-06	-2.246210e-08	-2.929177e+01	-1.476941e+03
5.500000e-07	-3.961841e-06	-2.220345e-08	-2.835546e+01	-1.460512e+03
5.600000e-07	-3.829521e-06	-2.192781e-08	-2.740843e+01	-1.442949e+03
5.700000e-07	-3.695740e-06	-2.164422e-08	-2.645093e+01	-1.424191e+03
5.800000e-07	-3.560634e-06	-2.135321e-08	-2.548396e+01	-1.404231e+03
5.900000e-07	-3.424190e-06	-2.104825e-08	-2.450742e+01	-1.383117e+03
6.000000e-07	-3.286319e-06	-2.072546e-08	-2.352065e+01	-1.360930e+03
6.100000e-07	-3.147081e-06	-2.038541e-08	-2.252411e+01	-1.337760e+03
6.200000e-07	-3.006571e-06	-2.002311e-08	-2.151846e+01	-1.313677e+03
6.300000e-07	-2.864741e-06	-1.963790e-08	-2.050336e+01	-1.288700e+03
6.400000e-07	-2.721629e-06	-1.923208e-08	-1.947909e+01	-1.262768e+03
6.500000e-07	-2.577449e-06	-1.880697e-08	-1.844717e+01	-1.235731e+03
6.600000e-07	-2.432394e-06	-1.835776e-08	-1.740899e+01	-1.207333e+03
6.700000e-07	-2.286561e-06	-1.787874e-08	-1.636524e+01	-1.177230e+03
6.800000e-07	-2.139972e-06	-1.736425e-08	-1.531609e+01	-1.145011e+03
6.900000e-07	-1.992667e-06	-1.681671e-08	-1.426180e+01	-1.110228e+03
7.000000e-07	-1.844750e-06	-1.623573e-08	-1.320314e+01	-1.072439e+03
7.100000e-07	-1.696298e-06	-1.561471e-08	-1.214064e+01	-1.031256e+03
7.200000e-07	-1.547297e-06	-1.494817e-08	-1.107423e+01	-9.863775e+02
7.300000e-07	-1.397844e-06	-1.422744e-08	-1.000457e+01	-9.376213e+02
7.400000e-07	-1.248011e-06	-1.344905e-08	-8.932192e+00	-8.849424e+02
7.500000e-07	-1.097776e-06	-1.261088e-08	-7.856940e+00	-8.284322e+02
7.600000e-07	-9.471396e-07	-1.171255e-08	-6.778813e+00	-7.683025e+02
7.700000e-07	-7.961590e-07	-1.075330e-08	-5.698223e+00	-7.048559e+02
7.800000e-07	-6.448190e-07	-9.734057e-09	-4.615061e+00	-6.384460e+02
7.900000e-07	-4.932190e-07	-8.657407e-09	-3.530038e+00	-5.694340e+02
8.000000e-07	-3.414991e-07	-7.531445e-09	-2.444158e+00	-4.981466e+02
8.100000e-07	-1.896373e-07	-6.369343e-09	-1.357261e+00	-4.248444e+02
8.200000e-07	-3.763489e-08	-5.188035e-09	-2.693582e-01	-3.497028e+02
8.300000e-07	1.144825e-07	-4.000497e-09	8.193674e-01	-2.728107e+02
8.400000e-07	2.666163e-07	-2.809777e-09	1.908211e+00	-1.941873e+02
8.500000e-07	4.186589e-07	-1.615595e-09	2.996401e+00	-1.138139e+02
8.600000e-07	5.705336e-07	-4.114909e-10	4.083390e+00	-3.167871e+01
8.700000e-07	7.222275e-07	8.120630e-10	5.169085e+00	5.217452e+01
8.800000e-07	8.736754e-07	2.067389e-09	6.253019e+00	1.375984e+02
8.900000e-07	1.024743e-06	3.363686e-09	7.334234e+00	2.243036e+02
9.000000e-07	1.175407e-06	4.699874e-09	8.412557e+00	3.118365e+02
9.100000e-07	1.325640e-06	6.065423e-09	9.487794e+00	3.995757e+02
9.200000e-07	1.475421e-06	7.442556e-09	1.055980e+01	4.867509e+02
9.300000e-07	1.624788e-06	8.803270e-09	1.162884e+01	5.724825e+02
9.400000e-07	1.773590e-06	1.011252e-08	1.269383e+01	6.558379e+02
9.500000e-07	1.921762e-06	1.134557e-08	1.375432e+01	7.358979e+02
9.600000e-07	2.069305e-06	1.248972e-08	1.481031e+01	8.118271e+02
9.700000e-07	2.216041e-06	1.353927e-08	1.586052e+01	8.829385e+02
9.800000e-07	2.362002e-06	1.449534e-08	1.690518e+01	9.487446e+02
9.900000e-07	2.507189e-06	1.536729e-08	1.794431e+01	1.008991e+03
1.000000e-06	2.651393e-06	1.616601e-08	1.897640e+01	1.063668e+03
1.010000e-06	2.794487e-06	1.689599e-08	2.000054e+01	1.112993e+03
1.020000e-06	2.936440e-06	1.756529e-08	2.101652e+01	1.157381e+03
1.030000e-06	3.077240e-06	1.818274e-08	2.202424e+01	1.197391e+03
1.040000e-06	3.216801e-06	1.875508e-08	2.302310e+01	1.233664e+03
1.050000e-06	3.355043e-06	1.928477e-08	2.401252e+01	1.266860e+03
1.060000e-06	3.491967e-06	1.977368e-08	2.499250e+01	1.297594e+03
1.070000e-06	3.627518e-06	2.022612e-08	2.596266e+01	1.326395e+03
1.080000e-06	3.761776e-06	2.064855e-08	2.692356e+01	1.353667e+03
1.090000e-06	3.894787e-06	2.104376e-08	2.787554e+01	1.379680e+03
1.100000e-06	4.026413e-06	2.141534e-08	2.881761e+01	1.404570e+03
1.110000e-06	4.156627e-06	2.176637e-08	2.974957e+01	1.428368e+03
1.120000e-06	4.285330e-06	2.209656e-08	3.067072e+01	1.451024e+03
1.130000e-06	4.412466e-06	2.240757e-08	3.158065e+01	1.472451e+03
1.140000e-06	4.538090e-06	2.269890e-08	3.247975e+01	1.492560e+03
1.150000e-06	4.662176e-06	2.297270e-08	3.336786e+01	1.511293e+03
1.160000e-06	4.784654e-06	2.322937e-08	3.424445e+01	1.528647e+03
1.170000e-06	4.905404e-06	2.347024e-08	3.510868e+01	1.544684e+03
1.180000e-06	5.024370e-06	2.370030e-08	3.596013e+01	1.559527e+03
1.190000e-06	5.141512e-06	2.392234e-08	3.679853e+01	1.573346e+03
1.200000e-06	5.256759e-06	2.413669e-08	3.762337e+01	1.586338e+03
1.210000e-06	5.369997e-06	2.433980e-08	3.843383e+01	1.598700e+03
1.220000e-06	5.481123e-06	2.452804e-08	3.922917e+01	1.610605e+03
1.230000e-06	5.590281e-06	2.470456e-08	4.001044e+01	1.622179e+03
1.240000e-06	5.697542e-06	2.487303e-08	4.077811e+01	1.633492e+03
1.250000e-06	5.802693e-06	2.503444e-08	4.153070e+01	1.644552e+03
1.260000e-06	5.905688e-06	2.518951e-08	4.226785e+01	1.655315e+03
1.270000e-06	6.006566e-06	2.533835e-08	4.298985e+01	1.665695e+03
1.280000e-06	6.105209e-06	2.548022e-08	4.369585e+01	1.675589e+03
1.290000e-06	6.201492e-06	2.561502e-08	4.438496e+01	1.684897e+03
1.300000e-06	6.295507e-06	2.574363e-08	4.505784e+01	1.693541e+03
1.310000e-06	6.387391e-06	2.586510e-08	4.571546e+01	1.701483e+03
1.320000e-06	6.476955e-06	2.597853e-08	4.635648e+01	1.708733e+03
1.330000e-06	6.564121e-06	2.608518e-08	4.698035e+01	1.715347e+03
1.340000e-06	6.649002e-06	2.618631e-08	4.758785e+01	1.721421e+03
1.350000e-06	6.731560e-06	2.628274e-08	4.817873e+01	1.727077e+03
1.360000e-06	6.811656e-06	2.637415e-08	4.875199e+01	1.732443e+03
1.370000e-06	6.889254e-06	2.646080e-08	4.930737e+01	1.737636e+03
1.380000e-06	6.964253e-06	2.654289e-08	4.984415e+01	1.742746e+03
1.390000e-06	7.036589e-06	2.662038e-08	5.036187e+01	1.747826e+03
1.400000e-06	7.106435e-06	2.669196e-08	5.086176e+01	1.752883e+03
1.410000e-06	7.173784e-06	2.675827e-08	5.134379e+01	1.757884e+03
1.420000e-06	7.238532e-06	2.682270e-08	5.180720e+01	1.762763e+03
1.430000e-06	7.300765e-06	2.688678e-08	5.225261e+01	1.767438e+03
1.440000e-06	7.360547e-06	2.694914e-08	5.268048e+01	1.771822e+03
1.450000e-06	7.417709e-06	2.700735e-08	5.308960e+01	1.775841e+03
1.460000e-06	7.472186e-06	2.706308e-08	5.347950e+01	1.779449e+03
1.470000e-06	7.523776e-06	2.711719e-08	5.384873e+01	1.782631e+03
1.480000e-06	7.572327e-06	2.716694e-08	5.419622e+01	1.785409e+03
1.490000e-06	7.618108e-06	2.721125e-08	5.452388e+01	1.787835e+03
1.500000e-06	7.661212e-06	2.724956e-08	5.483238e+01	1.789983e+03
1.510000e-06	7.701513e-06	2.728389e-08	5.512082e+01	1.791933e+03
1.520000e-06	7.739075e-06	2.731468e-08	5.538966e+01	1.793763e+03
1.530000e-06	7.773939e-06	2.734371e-08	5.563918e+01	1.795530e+03
1.540000e-06	7.806019e-06	2.737183e-08	5.586879e+01	1.797266e+03
1.550000e-06	7.835339e-06	2.739659e-08	5.607863e+01	1.798971e+03
1.560000e-06	7.861801e-06	2.741924e-08	5.626802e+01	1.800614e+03
1.570000e-06	7.885352e-06	2.743743e-08	5.643659e+01	1.802143e+03
1.580000e-06	7.906154e-06	2.745132e-08	5.658547e+01	1.803493e+03
1.590000e-06	7.924242e-06	2.746318e-08	5.671492e+01	1.804597e+03
1.600000e-06	7.939434e-06	2.747255e-08	5.682366e+01	1.805403e+03
1.610000e-06	7.951497e-06	2.747908e-08	5.691000e+01	1.805877e+03
1.620000e-06	7.960375e-06	2.748171e-08	5.697354e+01	1.806018e+03
1.630000e-06	7.966329e-06	2.748382e-08	5.701615e+01	1.805851e+03
1.640000e-06	7.969517e-06	2.748402e-08	5.703896e+01	1.805425e+03
1.650000e-06	7.969871e-06	2.748053e-08	5.704150e+01	1.804808e+03
1.660000e-06	7.967589e-06	2.747407e-08	5.702517e+01	1.804069e+03
1.670000e-06	7.962720e-06	2.746436e-08	5.699032e+01	1.803274e+03
1.680000e-06	7.955108e-06	2.745882e-08	5.693584e+01	1.802467e+03
1.690000e-06	7.944821e-06	2.744918e-08	5.686221e+01	1.801668e+03
1.700000e-06	7.931726e-06	2.743454e-08	5.676849e+01	1.800871e+03
1.710000e-06	7.915881e-06	2.741776e-08	5.665508e+01	1.800040e+03
1.720000e-06	7.897705e-06	2.739786e-08	5.652500e+01	1.799122e+03
1.730000e-06	7.877226e-06	2.736007e-08	5.637843e+01	1.798054e+03
1.740000e-06	7.853932e-06	2.730246e-08	5.621171e+01	1.796777e+03
1.750000e-06	7.827200e-06	2.727758e-08	5.602038e+01	1.795245e+03
1.760000e-06	7.796877e-06	2.728825e-08	5.580336e+01	1.793436e+03
1.770000e-06	7.763502e-06	2.725789e-08	5.556449e+01	1.791355e+03
1.780000e-06	7.727760e-06	2.721448e-08	5.530868e+01	1.789034e+03
1.790000e-06	7.689710e-06	2.721004e-08	5.503635e+01	1.786529e+03
1.800000e-06	7.649584e-06	2.719755e-08	5.474916e+01	1.783905e+03
1.810000e-06	7.607470e-06	2.713678e-08	5.444775e+01	1.781227e+03
1.820000e-06	7.562768e-06	2.716671e-08	5.412781e+01	1.778545e+03
1.830000e-06	7.515352e-06	2.715836e-08	5.378845e+01	1.775886e+03
1.840000e-06	7.465125e-06	2.706668e-08	5.342896e+01	1.773243e+03
1.850000e-06	7.411820e-06	2.703701e-08	5.304745e+01	1.770575e+03
1.860000e-06	7.355684e-06	2.695941e-08	5.264568e+01	1.767810e+03
1.870000e-06	7.296951e-06	2.694387e-08	5.222531e+01	1.764855e+03
1.880000e-06	7.235626e-06	2.690190e-08	5.178640e+01	1.761608e+03
1.890000e-06	7.171564e-06	2.682935e-08	5.132790e+01	1.757973e+03
1.900000e-06	7.104693e-06	2.679963e-08	5.084930e+01	1.753878e+03
1.910000e-06	7.035085e-06	2.668707e-08	5.035110e+01	1.749282e+03
1.920000e-06	6.962667e-06	2.660090e-08	4.983279e+01	1.744181e+03
1.930000e-06	6.887511e-06	2.652813e-08	4.929489e+01	1.738616e+03
1.940000e-06	6.809605e-06	2.646982e-08	4.873731e+01	1.732657e+03
1.950000e-06	6.729060e-06	2.640895e-08	4.816084e+01	1.726398e+03
1.960000e-06	6.646088e-06	2.630887e-08	4.756699e+01	1.719937e+03
1.970000e-06	6.560627e-06	2.621036e-08	4.695534e+01	1.713363e+03
1.980000e-06	6.472737e-06	2.607822e-08	4.632630e+01	1.706737e+03
1.990000e-06	6.382587e-06	2.598661e-08	4.568108e+01	1.700080e+03
2.000000e-06	6.290226e-06	2.589305e-08	4.502004e+01	1.693373e+03
2.010000e-06	6.195621e-06	2.578592e-08	4.434294e+01	1.686550e+03
2.020000e-06	6.098805e-06	2.567485e-08	4.365002e+01	1.679514e+03
2.030000e-06	5.999827e-06	2.553466e-08	4.294161e+01	1.672147e+03
2.040000e-06	5.898636e-06	2.539101e-08	4.221738e+01	1.664328e+03
2.050000e-06	5.795260e-06	2.525135e-08	4.147750e+01	1.655952e+03
2.060000e-06	5.689879e-06	2.513516e-08	4.072327e+01	1.646946e+03
2.070000e-06	5.582658e-06	2.500409e-08	3.995587e+01	1.637280e+03
2.080000e-06	5.473488e-06	2.485704e-08	3.917453e+01	1.626967e+03
2.090000e-06	5.362318e-06	2.469676e-08	3.837887e+01	1.616064e+03
2.100000e-06	5.249156e-06	2.452940e-08	3.756896e+01	1.604657e+03
2.110000e-06	5.134002e-06	2.435411e-08	3.674478e+01	1.592845e+03
2.120000e-06	5.016853e-06	2.417623e-08	3.590633e+01	1.580718e+03
2.130000e-06	4.897738e-06	2.399804e-08	3.505380e+01	1.568340e+03
2.140000e-06	4.776838e-06	2.380019e-08	3.418851e+01	1.555731e+03
2.150000e-06	4.654280e-06	2.359225e-08	3.331134e+01	1.542857e+03
2.160000e-06	4.530052e-06	2.338210e-08	3.242223e+01	1.529633e+03
2.170000e-06	4.404028e-06	2.316948e-08	3.152025e+01	1.515925e+03
2.180000e-06	4.276367e-06	2.294188e-08	3.060657e+01	1.501568e+03
2.190000e-06	4.147221e-06	2.270695e-08	2.968225e+01	1.486388e+03
2.200000e-06	4.016564e-06	2.245863e-08	2.874712e+01	1.470224e+03
2.210000e-06	3.884397e-06	2.219249e-08	2.780118e+01	1.452951e+03
2.220000e-06	3.750655e-06	2.191169e-08	2.684397e+01	1.434492e+03
2.230000e-06	3.615478e-06	2.161954e-08	2.587649e+01	1.414828e+03
2.240000e-06	3.479062e-06	2.131292e-08	2.490014e+01	1.393994e+03
2.250000e-06	3.341383e-06	2.098946e-08	2.391476e+01	1.372065e+03
2.260000e-06	3.202434e-06	2.065715e-08	2.292027e+01	1.349131e+03
2.270000e-06	3.062112e-06	2.031213e-08	2.191597e+01	1.325269e+03
2.280000e-06	2.920443e-06	1.994490e-08	2.090203e+01	1.300515e+03
2.290000e-06	2.777708e-06	1.955053e-08	1.988045e+01	1.274831e+03
2.300000e-06	2.634038e-06	1.913396e-08	1.885218e+01	1.248087e+03
2.310000e-06	2.489427e-06	1.869152e-08	1.781718e+01	1.220056e+03
2.320000e-06	2.343944e-06	1.822275e-08	1.677594e+01	1.190415e+03
2.330000e-06	2.197749e-06	1.772349e-08	1.572960e+01	1.158764e+03
2.340000e-06	2.050910e-06	1.718934e-08	1.467865e+01	1.124661e+03
2.350000e-06	1.903397e-06	1.661498e-08	1.362288e+01	1.087662e+03
2.360000e-06	1.755165e-06	1.599725e-08	1.256196e+01	1.047358e+03
2.370000e-06	1.606261e-06	1.533895e-08	1.149624e+01	1.003423e+03
2.380000e-06	1.456846e-06	1.463476e-08	1.042685e+01	9.556433e+02
2.390000e-06	1.306973e-06	1.387672e-08	9.354189e+00	9.039397e+02
2.400000e-06	1.156595e-06	1.305867e-08	8.277916e+00	8.483696e+02
2.410000e-06	1.005781e-06	1.217658e-08	7.198515e+00	7.891172e+02
2.420000e-06	8.547265e-07	1.122877e-08	6.117399e+00	7.264658e+02
2.430000e-06	7.034422e-07	1.021867e-08	5.034636e+00	6.607604e+02
2.440000e-06	5.518247e-07	9.155056e-09	3.949488e+00	5.923642e+02
2.450000e-06	4.000291e-07	8.044608e-09	2.863065e+00	5.216161e+02
2.460000e-06	2.481210e-07	6.893991e-09	1.775838e+00	4.487955e+02
2.470000e-06	9.607217e-08	5.714249e-09	6.876021e-01	3.741001e+02
2.480000e-06	-5.601178e-08	4.518925e-09	-4.008843e-01	2.976394e+02
2.490000e-06	-2.080899e-07	3.320282e-09	-1.489329e+00	2.194477e+02
2.500000e-06	-3.600997e-07	2.120395e-09	-2.577285e+00	1.395119e+02
2.510000e-06	-5.119889e-07	9.148140e-10	-3.664377e+00	5.781399e+01
2.520000e-06	-6.637519e-07	-3.077649e-10	-4.750567e+00	-2.562087e+01
2.530000e-06	-8.153203e-07	-1.558113e-09	-5.835363e+00	-1.106752e+02
2.540000e-06	-9.666193e-07	-2.844514e-09	-6.918232e+00	-1.970981e+02
2.550000e-06	-1.117539e-06	-4.174336e-09	-7.998383e+00	-2.844781e+02
2.560000e-06	-1.268058e-06	-5.540495e-09	-9.075674e+00	-3.722347e+02
2.570000e-06	-1.418147e-06	-6.922388e-09	-1.014988e+01	-4.596320e+02
2.580000e-06	-1.567728e-06	-8.295433e-09	-1.122045e+01	-5.458131e+02
2.590000e-06	-1.716841e-06	-9.632018e-09	-1.228768e+01	-6.298525e+02
2.600000e-06	-1.865265e-06	-1.090271e-08	-1.334996e+01	-7.108212e+02
2.610000e-06	-2.012767e-06	-1.208720e-08	-1.440566e+01	-7.878565e+02
2.620000e-06	-2.159452e-06	-1.317842e-08	-1.545550e+01	-8.602286e+02
2.630000e-06	-2.305395e-06	-1.417410e-08	-1.650004e+01	-9.273965e+02
2.640000e-06	-2.450530e-06	-1.508023e-08	-1.753879e+01	-9.890457e+02
2.650000e-06	-2.594771e-06	-1.590529e-08	-1.857115e+01	-1.045105e+03
2.660000e-06	-2.738034e-06	-1.665995e-08	-1.959650e+01	-1.095738e+03
2.670000e-06	-2.880245e-06	-1.735397e-08	-2.061432e+01	-1.141314e+03
2.680000e-06	-3.021312e-06	-1.799214e-08	-2.162396e+01	-1.182363e+03
2.690000e-06	-3.161056e-06	-1.858123e-08	-2.262413e+01	-1.219511e+03
2.700000e-06	-3.299434e-06	-1.912646e-08	-2.361452e+01	-1.253417e+03
2.710000e-06	-3.436558e-06	-1.962991e-08	-2.459593e+01	-1.284716e+03
2.720000e-06	-3.572497e-06	-2.009627e-08	-2.556887e+01	-1.313959e+03
2.730000e-06	-3.707161e-06	-2.053166e-08	-2.653268e+01	-1.341585e+03
2.740000e-06	-3.840498e-06	-2.094096e-08	-2.748699e+01	-1.367896e+03
2.750000e-06	-3.972414e-06	-2.132678e-08	-2.843113e+01	-1.393063e+03
2.760000e-06	-4.102848e-06	-2.168522e-08	-2.936467e+01	-1.417138e+03
2.770000e-06	-4.231934e-06	-2.201729e-08	-3.028855e+01	-1.440089e+03
2.780000e-06	-4.359630e-06	-2.232891e-08	-3.120249e+01	-1.461834e+03
2.790000e-06	-4.485801e-06	-2.262500e-08	-3.210552e+01	-1.482282e+03
2.800000e-06	-4.610377e-06	-2.290792e-08	-3.299712e+01	-1.501363e+03
2.810000e-06	-4.733298e-06	-2.317719e-08	-3.387689e+01	-1.519061e+03
2.820000e-06	-4.854559e-06	-2.343081e-08	-3.474477e+01	-1.535421e+03
2.830000e-06	-4.974099e-06	-2.366967e-08	-3.560034e+01	-1.550550e+03
2.840000e-06	-5.091719e-06	-2.389576e-08	-3.644216e+01	-1.564609e+03
2.850000e-06	-5.207247e-06	-2.411010e-08	-3.726900e+01	-1.577791e+03
2.860000e-06	-5.320643e-06	-2.431496e-08	-3.808060e+01	-1.590295e+03
2.870000e-06	-5.431910e-06	-2.451170e-08	-3.887695e+01	-1.602302e+03
2.880000e-06	-5.541112e-06	-2.469784e-08	-3.965853e+01	-1.613952e+03
2.890000e-06	-5.648442e-06	-2.487298e-08	-4.042670e+01	-1.625329e+03
2.900000e-06	-5.753894e-06	-2.503796e-08	-4.118144e+01	-1.636457e+03
2.910000e-06	-5.857230e-06	-2.519344e-08	-4.192102e+01	-1.647303e+03
2.920000e-06	-5.958300e-06	-2.534339e-08	-4.264440e+01	-1.657790e+03
2.930000e-06	-6.057184e-06	-2.548821e-08	-4.335213e+01	-1.667818e+03
2.940000e-06	-6.154018e-06	-2.562702e-08	-4.404518e+01	-1.677283e+03
