# Temperatura_=_82.88
# Concentracion g/m^3_=_28370.0
# C_Vs_to_Am_M_A/Vsm_=_65563218390.804596
# pendiente_HvsI_1/m_=_3716.3
# ordenada_HvsI_A/m_=_1297.0
# frecuencia_Hz_=_302553.6405688231

Tiempo_(s)	Campo_(V.s)	Magnetizacion_(V.s)	Campo_(kA/m)	Magnetizacion_(A/m)
0.000000e+00	-7.866352e-06	-2.955642e-08	-5.683759e+01	-1.934521e+03
1.000000e-08	-7.862919e-06	-2.955068e-08	-5.681278e+01	-1.933681e+03
2.000000e-08	-7.856991e-06	-2.953827e-08	-5.676995e+01	-1.932783e+03
3.000000e-08	-7.848488e-06	-2.952731e-08	-5.670851e+01	-1.931863e+03
4.000000e-08	-7.837157e-06	-2.951547e-08	-5.662664e+01	-1.930931e+03
5.000000e-08	-7.822868e-06	-2.949694e-08	-5.652340e+01	-1.929970e+03
6.000000e-08	-7.805784e-06	-2.947096e-08	-5.639995e+01	-1.928937e+03
7.000000e-08	-7.786407e-06	-2.944093e-08	-5.625995e+01	-1.927779e+03
8.000000e-08	-7.764800e-06	-2.942538e-08	-5.610383e+01	-1.926438e+03
9.000000e-08	-7.740426e-06	-2.944611e-08	-5.592772e+01	-1.924861e+03
1.000000e-07	-7.712886e-06	-2.940228e-08	-5.572873e+01	-1.923019e+03
1.100000e-07	-7.682365e-06	-2.932983e-08	-5.550820e+01	-1.920902e+03
1.200000e-07	-7.648979e-06	-2.929210e-08	-5.526698e+01	-1.918531e+03
1.300000e-07	-7.612879e-06	-2.925690e-08	-5.500614e+01	-1.915948e+03
1.400000e-07	-7.574502e-06	-2.918891e-08	-5.472885e+01	-1.913212e+03
1.500000e-07	-7.533957e-06	-2.912031e-08	-5.443589e+01	-1.910387e+03
1.600000e-07	-7.491055e-06	-2.915237e-08	-5.412592e+01	-1.907525e+03
1.700000e-07	-7.445530e-06	-2.907270e-08	-5.379697e+01	-1.904662e+03
1.800000e-07	-7.397308e-06	-2.896226e-08	-5.344855e+01	-1.901800e+03
1.900000e-07	-7.346191e-06	-2.896850e-08	-5.307921e+01	-1.898910e+03
2.000000e-07	-7.292150e-06	-2.889495e-08	-5.268875e+01	-1.895927e+03
2.100000e-07	-7.235475e-06	-2.885798e-08	-5.227924e+01	-1.892761e+03
2.200000e-07	-7.176179e-06	-2.880917e-08	-5.185081e+01	-1.889311e+03
2.300000e-07	-7.114266e-06	-2.872022e-08	-5.140346e+01	-1.885472e+03
2.400000e-07	-7.049683e-06	-2.865174e-08	-5.093682e+01	-1.881158e+03
2.500000e-07	-6.982392e-06	-2.853496e-08	-5.045061e+01	-1.876312e+03
2.600000e-07	-6.912404e-06	-2.846540e-08	-4.994492e+01	-1.870917e+03
2.700000e-07	-6.839719e-06	-2.837806e-08	-4.941974e+01	-1.864995e+03
2.800000e-07	-6.764374e-06	-2.829456e-08	-4.887535e+01	-1.858609e+03
2.900000e-07	-6.686246e-06	-2.819230e-08	-4.831084e+01	-1.851851e+03
3.000000e-07	-6.605342e-06	-2.808224e-08	-4.772628e+01	-1.844825e+03
3.100000e-07	-6.522082e-06	-2.799036e-08	-4.712469e+01	-1.837633e+03
3.200000e-07	-6.436713e-06	-2.787355e-08	-4.650787e+01	-1.830354e+03
3.300000e-07	-6.349142e-06	-2.779071e-08	-4.587512e+01	-1.823035e+03
3.400000e-07	-6.259185e-06	-2.766975e-08	-4.522515e+01	-1.815676e+03
3.500000e-07	-6.166952e-06	-2.754808e-08	-4.455873e+01	-1.808230e+03
3.600000e-07	-6.072580e-06	-2.742985e-08	-4.387686e+01	-1.800612e+03
3.700000e-07	-5.975954e-06	-2.729419e-08	-4.317869e+01	-1.792706e+03
3.800000e-07	-5.877062e-06	-2.715531e-08	-4.246416e+01	-1.784383e+03
3.900000e-07	-5.776118e-06	-2.701265e-08	-4.173480e+01	-1.775522e+03
4.000000e-07	-5.673210e-06	-2.687003e-08	-4.099124e+01	-1.766028e+03
4.100000e-07	-5.568232e-06	-2.670236e-08	-4.023274e+01	-1.755845e+03
4.200000e-07	-5.461262e-06	-2.654641e-08	-3.945984e+01	-1.744962e+03
4.300000e-07	-5.352380e-06	-2.638188e-08	-3.867312e+01	-1.733419e+03
4.400000e-07	-5.241559e-06	-2.620612e-08	-3.787239e+01	-1.721289e+03
4.500000e-07	-5.128773e-06	-2.601963e-08	-3.705747e+01	-1.708672e+03
4.600000e-07	-5.013959e-06	-2.583417e-08	-3.622789e+01	-1.695669e+03
4.700000e-07	-4.897246e-06	-2.563971e-08	-3.538459e+01	-1.682365e+03
4.800000e-07	-4.778780e-06	-2.543193e-08	-3.452863e+01	-1.668806e+03
4.900000e-07	-4.658538e-06	-2.522127e-08	-3.365983e+01	-1.654987e+03
5.000000e-07	-4.536565e-06	-2.499920e-08	-3.277852e+01	-1.640846e+03
5.100000e-07	-4.412874e-06	-2.476312e-08	-3.188480e+01	-1.626268e+03
5.200000e-07	-4.287639e-06	-2.450998e-08	-3.097993e+01	-1.611095e+03
5.300000e-07	-4.160949e-06	-2.425581e-08	-3.006455e+01	-1.595148e+03
5.400000e-07	-4.032749e-06	-2.398795e-08	-2.913825e+01	-1.578248e+03
5.500000e-07	-3.903007e-06	-2.370618e-08	-2.820081e+01	-1.560242e+03
5.600000e-07	-3.771663e-06	-2.340866e-08	-2.725180e+01	-1.541021e+03
5.700000e-07	-3.638831e-06	-2.310176e-08	-2.629203e+01	-1.520532e+03
5.800000e-07	-3.504708e-06	-2.278298e-08	-2.532294e+01	-1.498783e+03
5.900000e-07	-3.369325e-06	-2.244830e-08	-2.434474e+01	-1.475832e+03
6.000000e-07	-3.232609e-06	-2.209857e-08	-2.335691e+01	-1.451766e+03
6.100000e-07	-3.094585e-06	-2.172817e-08	-2.235963e+01	-1.426678e+03
6.200000e-07	-2.955265e-06	-2.133848e-08	-2.135299e+01	-1.400631e+03
6.300000e-07	-2.814718e-06	-2.092249e-08	-2.033748e+01	-1.373628e+03
6.400000e-07	-2.672988e-06	-2.048341e-08	-1.931343e+01	-1.345587e+03
6.500000e-07	-2.530157e-06	-2.002016e-08	-1.828141e+01	-1.316325e+03
6.600000e-07	-2.386388e-06	-1.953162e-08	-1.724262e+01	-1.285554e+03
6.700000e-07	-2.241806e-06	-1.901242e-08	-1.619795e+01	-1.252896e+03
6.800000e-07	-2.096405e-06	-1.845773e-08	-1.514738e+01	-1.217909e+03
6.900000e-07	-1.950214e-06	-1.786758e-08	-1.409109e+01	-1.180120e+03
7.000000e-07	-1.803427e-06	-1.723683e-08	-1.303049e+01	-1.139075e+03
7.100000e-07	-1.656120e-06	-1.656150e-08	-1.196614e+01	-1.094379e+03
7.200000e-07	-1.508363e-06	-1.583474e-08	-1.089853e+01	-1.045735e+03
7.300000e-07	-1.360226e-06	-1.505395e-08	-9.828188e+00	-9.929768e+02
7.400000e-07	-1.211668e-06	-1.421460e-08	-8.754792e+00	-9.360794e+02
7.500000e-07	-1.062643e-06	-1.331288e-08	-7.678025e+00	-8.751560e+02
7.600000e-07	-9.132278e-07	-1.234429e-08	-6.598442e+00	-8.104396e+02
7.700000e-07	-7.635730e-07	-1.130869e-08	-5.517125e+00	-7.422488e+02
7.800000e-07	-6.137288e-07	-1.020723e-08	-4.434439e+00	-6.709458e+02
7.900000e-07	-4.636635e-07	-9.045185e-09	-3.350157e+00	-5.968911e+02
8.000000e-07	-3.134042e-07	-7.837001e-09	-2.264473e+00	-5.204031e+02
8.100000e-07	-1.630458e-07	-6.595148e-09	-1.178072e+00	-4.417272e+02
8.200000e-07	-1.263495e-08	-5.332351e-09	-9.129267e-02	-3.610212e+02
8.300000e-07	1.378479e-07	-4.057574e-09	9.960073e-01	-2.783582e+02
8.400000e-07	2.883366e-07	-2.777860e-09	2.083349e+00	-1.937483e+02
8.500000e-07	4.387498e-07	-1.491945e-09	3.170146e+00	-1.071761e+02
8.600000e-07	5.890548e-07	-1.960947e-10	4.256160e+00	-1.864795e+01
8.700000e-07	7.391947e-07	1.121665e-09	5.340981e+00	7.175558e+01
8.800000e-07	8.890756e-07	2.474794e-09	6.423932e+00	1.638323e+02
8.900000e-07	1.038685e-06	3.872918e-09	7.504924e+00	2.572218e+02
9.000000e-07	1.188043e-06	5.315653e-09	8.584093e+00	3.513862e+02
9.100000e-07	1.336982e-06	6.786911e-09	9.660236e+00	4.456131e+02
9.200000e-07	1.485404e-06	8.265718e-09	1.073265e+01	5.390410e+02
9.300000e-07	1.633348e-06	9.718895e-09	1.180161e+01	6.307057e+02
9.400000e-07	1.780749e-06	1.111293e-08	1.286664e+01	7.196029e+02
9.500000e-07	1.927538e-06	1.242072e-08	1.392725e+01	8.047610e+02
9.600000e-07	2.073627e-06	1.362852e-08	1.498280e+01	8.853146e+02
9.700000e-07	2.218949e-06	1.473229e-08	1.603281e+01	9.605704e+02
9.800000e-07	2.363452e-06	1.573636e-08	1.707690e+01	1.030058e+03
9.900000e-07	2.507021e-06	1.665484e-08	1.811425e+01	1.093560e+03
1.000000e-06	2.649648e-06	1.749553e-08	1.914478e+01	1.151119e+03
1.010000e-06	2.791232e-06	1.826662e-08	2.016779e+01	1.203016e+03
1.020000e-06	2.931583e-06	1.897532e-08	2.118188e+01	1.249730e+03
1.030000e-06	3.070763e-06	1.962930e-08	2.218751e+01	1.291882e+03
1.040000e-06	3.208769e-06	2.023233e-08	2.318466e+01	1.330169e+03
1.050000e-06	3.345477e-06	2.079226e-08	2.417243e+01	1.365290e+03
1.060000e-06	3.480893e-06	2.131176e-08	2.515086e+01	1.397891e+03
1.070000e-06	3.615050e-06	2.179127e-08	2.612020e+01	1.428514e+03
1.080000e-06	3.747937e-06	2.223856e-08	2.708037e+01	1.457566e+03
1.090000e-06	3.879486e-06	2.265737e-08	2.803086e+01	1.485307e+03
1.100000e-06	4.009601e-06	2.305414e-08	2.897099e+01	1.511863e+03
1.110000e-06	4.138242e-06	2.342739e-08	2.990048e+01	1.537246e+03
1.120000e-06	4.265374e-06	2.377872e-08	3.081906e+01	1.561393e+03
1.130000e-06	4.391060e-06	2.410989e-08	3.172719e+01	1.584207e+03
1.140000e-06	4.515321e-06	2.442105e-08	3.262503e+01	1.605594e+03
1.150000e-06	4.638053e-06	2.471343e-08	3.351181e+01	1.625501e+03
1.160000e-06	4.759149e-06	2.498581e-08	3.438678e+01	1.643934e+03
1.170000e-06	4.878431e-06	2.524122e-08	3.524864e+01	1.660970e+03
1.180000e-06	4.995910e-06	2.548533e-08	3.609748e+01	1.676747e+03
1.190000e-06	5.111589e-06	2.572183e-08	3.693331e+01	1.691455e+03
1.200000e-06	5.225300e-06	2.595134e-08	3.775492e+01	1.705308e+03
1.210000e-06	5.337024e-06	2.616847e-08	3.856216e+01	1.718514e+03
1.220000e-06	5.446799e-06	2.637081e-08	3.935534e+01	1.731256e+03
1.230000e-06	5.554662e-06	2.656032e-08	4.013469e+01	1.743663e+03
1.240000e-06	5.660610e-06	2.673812e-08	4.090021e+01	1.755804e+03
1.250000e-06	5.764434e-06	2.690710e-08	4.165037e+01	1.767684e+03
1.260000e-06	5.866068e-06	2.706960e-08	4.238472e+01	1.779251e+03
1.270000e-06	5.965594e-06	2.722859e-08	4.310384e+01	1.790413e+03
1.280000e-06	6.062882e-06	2.738314e-08	4.380679e+01	1.801061e+03
1.290000e-06	6.157849e-06	2.753038e-08	4.449296e+01	1.811090e+03
1.300000e-06	6.250616e-06	2.767181e-08	4.516324e+01	1.820421e+03
1.310000e-06	6.341209e-06	2.780485e-08	4.581781e+01	1.829015e+03
1.320000e-06	6.429481e-06	2.792691e-08	4.645561e+01	1.836885e+03
1.330000e-06	6.515448e-06	2.804149e-08	4.707676e+01	1.844090e+03
1.340000e-06	6.599225e-06	2.815347e-08	4.768208e+01	1.850729e+03
1.350000e-06	6.680677e-06	2.826027e-08	4.827060e+01	1.856928e+03
1.360000e-06	6.759611e-06	2.835897e-08	4.884093e+01	1.862817e+03
1.370000e-06	6.835978e-06	2.845183e-08	4.939271e+01	1.868515e+03
1.380000e-06	6.909791e-06	2.853961e-08	4.992604e+01	1.874110e+03
1.390000e-06	6.981052e-06	2.862368e-08	5.044093e+01	1.879652e+03
1.400000e-06	7.049834e-06	2.870335e-08	5.093791e+01	1.885146e+03
1.410000e-06	7.116156e-06	2.877914e-08	5.141712e+01	1.890557e+03
1.420000e-06	7.179917e-06	2.885068e-08	5.187781e+01	1.895818e+03
1.430000e-06	7.241226e-06	2.891745e-08	5.232080e+01	1.900843e+03
1.440000e-06	7.300055e-06	2.898143e-08	5.274586e+01	1.905549e+03
1.450000e-06	7.356234e-06	2.904281e-08	5.315177e+01	1.909864e+03
1.460000e-06	7.409716e-06	2.910234e-08	5.353821e+01	1.913744e+03
1.470000e-06	7.460220e-06	2.915930e-08	5.390311e+01	1.917178e+03
1.480000e-06	7.507778e-06	2.921151e-08	5.424675e+01	1.920193e+03
1.490000e-06	7.552679e-06	2.925847e-08	5.457117e+01	1.922841e+03
1.500000e-06	7.594936e-06	2.930235e-08	5.487650e+01	1.925200e+03
1.510000e-06	7.634441e-06	2.934440e-08	5.516194e+01	1.927349e+03
1.520000e-06	7.671221e-06	2.938167e-08	5.542769e+01	1.929363e+03
1.530000e-06	7.705340e-06	2.941292e-08	5.567420e+01	1.931297e+03
1.540000e-06	7.736716e-06	2.943926e-08	5.590092e+01	1.933179e+03
1.550000e-06	7.765381e-06	2.946325e-08	5.610803e+01	1.935005e+03
1.560000e-06	7.791205e-06	2.948494e-08	5.629462e+01	1.936742e+03
1.570000e-06	7.814086e-06	2.950250e-08	5.645994e+01	1.938336e+03
1.580000e-06	7.834288e-06	2.951718e-08	5.660591e+01	1.939722e+03
1.590000e-06	7.851816e-06	2.953014e-08	5.673256e+01	1.940837e+03
1.600000e-06	7.866370e-06	2.954051e-08	5.683771e+01	1.941629e+03
1.610000e-06	7.877859e-06	2.954715e-08	5.692073e+01	1.942072e+03
1.620000e-06	7.886294e-06	2.955044e-08	5.698167e+01	1.942168e+03
1.630000e-06	7.891828e-06	2.955191e-08	5.702166e+01	1.941944e+03
1.640000e-06	7.894574e-06	2.955087e-08	5.704150e+01	1.941454e+03
1.650000e-06	7.894517e-06	2.954760e-08	5.704109e+01	1.940764e+03
1.660000e-06	7.891827e-06	2.953718e-08	5.702165e+01	1.939943e+03
1.670000e-06	7.886495e-06	2.952921e-08	5.698313e+01	1.939053e+03
1.680000e-06	7.878452e-06	2.951913e-08	5.692502e+01	1.938135e+03
1.690000e-06	7.867802e-06	2.950467e-08	5.684806e+01	1.937204e+03
1.700000e-06	7.854384e-06	2.949083e-08	5.675111e+01	1.936251e+03
1.710000e-06	7.838290e-06	2.947776e-08	5.663483e+01	1.935238e+03
1.720000e-06	7.819926e-06	2.946283e-08	5.650214e+01	1.934115e+03
1.730000e-06	7.799226e-06	2.940679e-08	5.635258e+01	1.932822e+03
1.740000e-06	7.775644e-06	2.932546e-08	5.618219e+01	1.931306e+03
1.750000e-06	7.748646e-06	2.932723e-08	5.598711e+01	1.929529e+03
1.760000e-06	7.718069e-06	2.931975e-08	5.576618e+01	1.927478e+03
1.770000e-06	7.684533e-06	2.927324e-08	5.552387e+01	1.925165e+03
1.780000e-06	7.648787e-06	2.925502e-08	5.526559e+01	1.922627e+03
1.790000e-06	7.610815e-06	2.927081e-08	5.499123e+01	1.919922e+03
1.800000e-06	7.570779e-06	2.917674e-08	5.470195e+01	1.917111e+03
1.810000e-06	7.528650e-06	2.915655e-08	5.439755e+01	1.914252e+03
1.820000e-06	7.483899e-06	2.921293e-08	5.407421e+01	1.911385e+03
1.830000e-06	7.436518e-06	2.912054e-08	5.373186e+01	1.908522e+03
1.840000e-06	7.386364e-06	2.913325e-08	5.336948e+01	1.905641e+03
1.850000e-06	7.333142e-06	2.903687e-08	5.298493e+01	1.902686e+03
1.860000e-06	7.277115e-06	2.897521e-08	5.258011e+01	1.899574e+03
1.870000e-06	7.218504e-06	2.895318e-08	5.215662e+01	1.896202e+03
1.880000e-06	7.157336e-06	2.882665e-08	5.171465e+01	1.892467e+03
1.890000e-06	7.093406e-06	2.883688e-08	5.125273e+01	1.888276e+03
1.900000e-06	7.026674e-06	2.874427e-08	5.077057e+01	1.883564e+03
1.910000e-06	6.957244e-06	2.866199e-08	5.026891e+01	1.878303e+03
1.920000e-06	6.885052e-06	2.857850e-08	4.974730e+01	1.872506e+03
1.930000e-06	6.810262e-06	2.846842e-08	4.920691e+01	1.866227e+03
1.940000e-06	6.732755e-06	2.841587e-08	4.864689e+01	1.859550e+03
1.950000e-06	6.652596e-06	2.828752e-08	4.806771e+01	1.852578e+03
1.960000e-06	6.570020e-06	2.821491e-08	4.747106e+01	1.845417e+03
1.970000e-06	6.484982e-06	2.809126e-08	4.685662e+01	1.838152e+03
1.980000e-06	6.397492e-06	2.798576e-08	4.622448e+01	1.830838e+03
1.990000e-06	6.307717e-06	2.787829e-08	4.557581e+01	1.823489e+03
2.000000e-06	6.215831e-06	2.774110e-08	4.491190e+01	1.816070e+03
2.010000e-06	6.121728e-06	2.763912e-08	4.423197e+01	1.808502e+03
2.020000e-06	6.025412e-06	2.749693e-08	4.353604e+01	1.800677e+03
2.030000e-06	5.927004e-06	2.736828e-08	4.282501e+01	1.792468e+03
2.040000e-06	5.826470e-06	2.721158e-08	4.209861e+01	1.783750e+03
2.050000e-06	5.723760e-06	2.707863e-08	4.135649e+01	1.774419e+03
2.060000e-06	5.619045e-06	2.692373e-08	4.059988e+01	1.764408e+03
2.070000e-06	5.512487e-06	2.676356e-08	3.982996e+01	1.753697e+03
2.080000e-06	5.404056e-06	2.660162e-08	3.904650e+01	1.742310e+03
2.090000e-06	5.293678e-06	2.643096e-08	3.824897e+01	1.730316e+03
2.100000e-06	5.181283e-06	2.625748e-08	3.743687e+01	1.717808e+03
2.110000e-06	5.066963e-06	2.606303e-08	3.661087e+01	1.704891e+03
2.120000e-06	4.950702e-06	2.587226e-08	3.577083e+01	1.691654e+03
2.130000e-06	4.832448e-06	2.566121e-08	3.491640e+01	1.678155e+03
2.140000e-06	4.712326e-06	2.544649e-08	3.404846e+01	1.664402e+03
2.150000e-06	4.590535e-06	2.522066e-08	3.316848e+01	1.650348e+03
2.160000e-06	4.467142e-06	2.499870e-08	3.227691e+01	1.635890e+03
2.170000e-06	4.342091e-06	2.476133e-08	3.137337e+01	1.620880e+03
2.180000e-06	4.215414e-06	2.451573e-08	3.045808e+01	1.605141e+03
2.190000e-06	4.087145e-06	2.425797e-08	2.953128e+01	1.588493e+03
2.200000e-06	3.957397e-06	2.398612e-08	2.859380e+01	1.570773e+03
2.210000e-06	3.826213e-06	2.369775e-08	2.764594e+01	1.551861e+03
2.220000e-06	3.693587e-06	2.339403e-08	2.668766e+01	1.531688e+03
2.230000e-06	3.559588e-06	2.307776e-08	2.571947e+01	1.510248e+03
2.240000e-06	3.424238e-06	2.274116e-08	2.474151e+01	1.487587e+03
2.250000e-06	3.287620e-06	2.239221e-08	2.375439e+01	1.463789e+03
2.260000e-06	3.149850e-06	2.202878e-08	2.275895e+01	1.438947e+03
2.270000e-06	3.010896e-06	2.165115e-08	2.175494e+01	1.413134e+03
2.280000e-06	2.870662e-06	2.125048e-08	2.074170e+01	1.386372e+03
2.290000e-06	2.729272e-06	2.082697e-08	1.972009e+01	1.358601e+03
2.300000e-06	2.586869e-06	2.037569e-08	1.869118e+01	1.329664e+03
2.310000e-06	2.443532e-06	1.989615e-08	1.765551e+01	1.299300e+03
2.320000e-06	2.299291e-06	1.938533e-08	1.661331e+01	1.267152e+03
2.330000e-06	2.154182e-06	1.884136e-08	1.556484e+01	1.232788e+03
2.340000e-06	2.008411e-06	1.826225e-08	1.451158e+01	1.195742e+03
2.350000e-06	1.862073e-06	1.764420e-08	1.345423e+01	1.155549e+03
2.360000e-06	1.715111e-06	1.698270e-08	1.239237e+01	1.111795e+03
2.370000e-06	1.567569e-06	1.627146e-08	1.132632e+01	1.064157e+03
2.380000e-06	1.419508e-06	1.550741e-08	1.025652e+01	1.012433e+03
2.390000e-06	1.270960e-06	1.468590e-08	9.183205e+00	9.565625e+02
2.400000e-06	1.122022e-06	1.380217e-08	8.107062e+00	8.966256e+02
2.410000e-06	9.727285e-07	1.285340e-08	7.028358e+00	8.328279e+02
2.420000e-06	8.231076e-07	1.183609e-08	5.947286e+00	7.654704e+02
2.430000e-06	6.731918e-07	1.075331e-08	4.864084e+00	6.949084e+02
2.440000e-06	5.229862e-07	9.609064e-09	3.778787e+00	6.215073e+02
2.450000e-06	3.725483e-07	8.411184e-09	2.691813e+00	5.455990e+02
2.460000e-06	2.219579e-07	7.173094e-09	1.603736e+00	4.674495e+02
2.470000e-06	7.128077e-08	5.908860e-09	5.150325e-01	3.872387e+02
2.480000e-06	-7.942798e-08	4.632116e-09	-5.738994e-01	3.050597e+02
2.490000e-06	-2.301400e-07	3.349018e-09	-1.662855e+00	2.209354e+02
2.500000e-06	-3.807907e-07	2.060052e-09	-2.751367e+00	1.348526e+02
2.510000e-06	-5.313454e-07	7.608362e-10	-3.839186e+00	4.680730e+01
2.520000e-06	-6.817484e-07	-5.590223e-10	-4.925909e+00	-4.314318e+01
2.530000e-06	-8.318690e-07	-1.908359e-09	-6.010591e+00	-1.348311e+02
2.540000e-06	-9.817233e-07	-3.298971e-09	-7.093349e+00	-2.279381e+02
2.550000e-06	-1.131220e-06	-4.735920e-09	-8.173526e+00	-3.219713e+02
2.560000e-06	-1.280183e-06	-6.207264e-09	-9.249840e+00	-4.162605e+02
2.570000e-06	-1.428675e-06	-7.692106e-09	-1.032275e+01	-5.099779e+02
2.580000e-06	-1.576682e-06	-9.163411e-09	-1.139217e+01	-6.021794e+02
2.590000e-06	-1.724129e-06	-1.058847e-08	-1.245753e+01	-6.918645e+02
2.600000e-06	-1.870949e-06	-1.193577e-08	-1.351836e+01	-7.780462e+02
2.610000e-06	-2.017097e-06	-1.318863e-08	-1.457434e+01	-8.598261e+02
2.620000e-06	-2.162535e-06	-1.434017e-08	-1.562520e+01	-9.364621e+02
2.630000e-06	-2.307097e-06	-1.538898e-08	-1.666971e+01	-1.007425e+03
2.640000e-06	-2.450768e-06	-1.634317e-08	-1.770779e+01	-1.072432e+03
2.650000e-06	-2.593533e-06	-1.721526e-08	-1.873933e+01	-1.131461e+03
2.660000e-06	-2.735190e-06	-1.801459e-08	-1.976286e+01	-1.184738e+03
2.670000e-06	-2.875652e-06	-1.874685e-08	-2.077775e+01	-1.232696e+03
2.680000e-06	-3.014904e-06	-1.941976e-08	-2.178390e+01	-1.275928e+03
2.690000e-06	-3.152941e-06	-2.004128e-08	-2.278127e+01	-1.315116e+03
2.700000e-06	-3.289785e-06	-2.061940e-08	-2.377003e+01	-1.350967e+03
2.710000e-06	-3.425480e-06	-2.115511e-08	-2.475048e+01	-1.384145e+03
2.720000e-06	-3.559975e-06	-2.165045e-08	-2.572226e+01	-1.415221e+03
2.730000e-06	-3.693165e-06	-2.211350e-08	-2.668461e+01	-1.444638e+03
2.740000e-06	-3.824962e-06	-2.254707e-08	-2.763691e+01	-1.472693e+03
2.750000e-06	-3.955387e-06	-2.295397e-08	-2.857928e+01	-1.499542e+03
2.760000e-06	-4.084523e-06	-2.333563e-08	-2.951234e+01	-1.525225e+03
2.770000e-06	-4.212325e-06	-2.369230e-08	-3.043576e+01	-1.549692e+03
2.780000e-06	-4.338666e-06	-2.402606e-08	-3.134863e+01	-1.572850e+03
2.790000e-06	-4.463419e-06	-2.434089e-08	-3.225001e+01	-1.594603e+03
2.800000e-06	-4.586559e-06	-2.464074e-08	-3.313975e+01	-1.614885e+03
2.810000e-06	-4.708141e-06	-2.492772e-08	-3.401823e+01	-1.633685e+03
2.820000e-06	-4.828089e-06	-2.520021e-08	-3.488490e+01	-1.651061e+03
2.830000e-06	-4.946126e-06	-2.545670e-08	-3.573777e+01	-1.667139e+03
2.840000e-06	-5.062066e-06	-2.569765e-08	-3.657548e+01	-1.682097e+03
2.850000e-06	-5.176011e-06	-2.592524e-08	-3.739878e+01	-1.696146e+03
2.860000e-06	-5.287974e-06	-2.614386e-08	-3.820776e+01	-1.709498e+03
2.870000e-06	-5.397844e-06	-2.635407e-08	-3.900161e+01	-1.722343e+03
2.880000e-06	-5.505762e-06	-2.655311e-08	-3.978136e+01	-1.734827e+03
2.890000e-06	-5.611872e-06	-2.674060e-08	-4.054805e+01	-1.747034e+03
2.900000e-06	-5.716014e-06	-2.691782e-08	-4.130052e+01	-1.758985e+03
2.910000e-06	-5.817969e-06	-2.708674e-08	-4.203719e+01	-1.770640e+03
2.920000e-06	-5.917728e-06	-2.724900e-08	-4.275799e+01	-1.781915e+03
2.930000e-06	-6.015374e-06	-2.740450e-08	-4.346352e+01	-1.792705e+03
2.940000e-06	-6.110865e-06	-2.755222e-08	-4.415348e+01	-1.802900e+03
