# Temperatura_=_58.87
# Concentracion g/m^3_=_28370.0
# C_Vs_to_Am_M_A/Vsm_=_65563218390.804596
# pendiente_HvsI_1/m_=_3716.3
# ordenada_HvsI_A/m_=_1297.0
# frecuencia_Hz_=_302549.3563687105

Tiempo_(s)	Campo_(V.s)	Magnetizacion_(V.s)	Campo_(kA/m)	Magnetizacion_(A/m)
0.000000e+00	-7.928380e-06	-2.627673e-08	-5.684143e+01	-1.720122e+03
1.000000e-08	-7.925078e-06	-2.627661e-08	-5.681776e+01	-1.719382e+03
2.000000e-08	-7.919126e-06	-2.626941e-08	-5.677509e+01	-1.718603e+03
3.000000e-08	-7.910567e-06	-2.626070e-08	-5.671373e+01	-1.717828e+03
4.000000e-08	-7.899248e-06	-2.625160e-08	-5.663257e+01	-1.717076e+03
5.000000e-08	-7.885038e-06	-2.623707e-08	-5.653070e+01	-1.716336e+03
6.000000e-08	-7.868040e-06	-2.621492e-08	-5.640884e+01	-1.715575e+03
7.000000e-08	-7.848694e-06	-2.618895e-08	-5.627014e+01	-1.714738e+03
8.000000e-08	-7.827049e-06	-2.617035e-08	-5.611495e+01	-1.713764e+03
9.000000e-08	-7.802584e-06	-2.620523e-08	-5.593956e+01	-1.712596e+03
1.000000e-07	-7.774951e-06	-2.618585e-08	-5.574145e+01	-1.711190e+03
1.100000e-07	-7.744275e-06	-2.610396e-08	-5.552152e+01	-1.709523e+03
1.200000e-07	-7.710740e-06	-2.606713e-08	-5.528110e+01	-1.707601e+03
1.300000e-07	-7.674498e-06	-2.605091e-08	-5.502126e+01	-1.705454e+03
1.400000e-07	-7.635912e-06	-2.599974e-08	-5.474462e+01	-1.703133e+03
1.500000e-07	-7.595110e-06	-2.591465e-08	-5.445210e+01	-1.700697e+03
1.600000e-07	-7.551960e-06	-2.593359e-08	-5.414274e+01	-1.698204e+03
1.700000e-07	-7.506243e-06	-2.592737e-08	-5.381498e+01	-1.695700e+03
1.800000e-07	-7.457818e-06	-2.578510e-08	-5.346780e+01	-1.693206e+03
1.900000e-07	-7.406447e-06	-2.579775e-08	-5.309950e+01	-1.690711e+03
2.000000e-07	-7.352126e-06	-2.577461e-08	-5.271006e+01	-1.688175e+03
2.100000e-07	-7.295107e-06	-2.570427e-08	-5.230127e+01	-1.685529e+03
2.200000e-07	-7.235439e-06	-2.567966e-08	-5.187349e+01	-1.682688e+03
2.300000e-07	-7.173180e-06	-2.559261e-08	-5.142713e+01	-1.679558e+03
2.400000e-07	-7.108255e-06	-2.554431e-08	-5.096166e+01	-1.676056e+03
2.500000e-07	-7.040598e-06	-2.544728e-08	-5.047660e+01	-1.672121e+03
2.600000e-07	-6.970232e-06	-2.539491e-08	-4.997213e+01	-1.667723e+03
2.700000e-07	-6.897035e-06	-2.532400e-08	-4.944735e+01	-1.662869e+03
2.800000e-07	-6.821074e-06	-2.524032e-08	-4.890275e+01	-1.657600e+03
2.900000e-07	-6.742439e-06	-2.516800e-08	-4.833899e+01	-1.651988e+03
3.000000e-07	-6.661122e-06	-2.507428e-08	-4.775600e+01	-1.646122e+03
3.100000e-07	-6.577448e-06	-2.500178e-08	-4.715611e+01	-1.640092e+03
3.200000e-07	-6.491607e-06	-2.490609e-08	-4.654068e+01	-1.633973e+03
3.300000e-07	-6.403451e-06	-2.483455e-08	-4.590866e+01	-1.627814e+03
3.400000e-07	-6.312891e-06	-2.473672e-08	-4.525941e+01	-1.621623e+03
3.500000e-07	-6.220103e-06	-2.461933e-08	-4.459417e+01	-1.615370e+03
3.600000e-07	-6.125115e-06	-2.452001e-08	-4.391317e+01	-1.608984e+03
3.700000e-07	-6.027767e-06	-2.441036e-08	-4.321525e+01	-1.602364e+03
3.800000e-07	-5.928167e-06	-2.429413e-08	-4.250118e+01	-1.595396e+03
3.900000e-07	-5.826539e-06	-2.417501e-08	-4.177258e+01	-1.587968e+03
4.000000e-07	-5.722887e-06	-2.405616e-08	-4.102945e+01	-1.579985e+03
4.100000e-07	-5.617193e-06	-2.391564e-08	-4.027170e+01	-1.571388e+03
4.200000e-07	-5.509537e-06	-2.377339e-08	-3.949987e+01	-1.562157e+03
4.300000e-07	-5.399945e-06	-2.363455e-08	-3.871417e+01	-1.552318e+03
4.400000e-07	-5.288391e-06	-2.348460e-08	-3.791440e+01	-1.541932e+03
4.500000e-07	-5.174739e-06	-2.332498e-08	-3.709958e+01	-1.531085e+03
4.600000e-07	-5.059058e-06	-2.316660e-08	-3.627023e+01	-1.519872e+03
4.700000e-07	-4.941536e-06	-2.299944e-08	-3.542766e+01	-1.508374e+03
4.800000e-07	-4.822242e-06	-2.281825e-08	-3.457240e+01	-1.496640e+03
4.900000e-07	-4.701179e-06	-2.263187e-08	-3.370446e+01	-1.484676e+03
5.000000e-07	-4.578353e-06	-2.244054e-08	-3.282388e+01	-1.472436e+03
5.100000e-07	-4.453789e-06	-2.223647e-08	-3.193083e+01	-1.459820e+03
5.200000e-07	-4.327677e-06	-2.201714e-08	-3.102669e+01	-1.446691e+03
5.300000e-07	-4.200105e-06	-2.179539e-08	-3.011208e+01	-1.432883e+03
5.400000e-07	-4.070942e-06	-2.156407e-08	-2.918606e+01	-1.418229e+03
5.500000e-07	-3.940197e-06	-2.131877e-08	-2.824870e+01	-1.402580e+03
5.600000e-07	-3.807926e-06	-2.105788e-08	-2.730040e+01	-1.385825e+03
5.700000e-07	-3.674228e-06	-2.078849e-08	-2.634187e+01	-1.367904e+03
5.800000e-07	-3.539146e-06	-2.050726e-08	-2.537342e+01	-1.348814e+03
5.900000e-07	-3.402679e-06	-2.021103e-08	-2.439504e+01	-1.328599e+03
6.000000e-07	-3.264832e-06	-1.989940e-08	-2.340677e+01	-1.307339e+03
6.100000e-07	-3.125697e-06	-1.957234e-08	-2.240925e+01	-1.285120e+03
6.200000e-07	-2.985255e-06	-1.922678e-08	-2.140238e+01	-1.262008e+03
6.300000e-07	-2.843513e-06	-1.885887e-08	-2.038617e+01	-1.238019e+03
6.400000e-07	-2.700579e-06	-1.847139e-08	-1.936143e+01	-1.213091e+03
6.500000e-07	-2.556560e-06	-1.806145e-08	-1.832891e+01	-1.187070e+03
6.600000e-07	-2.411701e-06	-1.762773e-08	-1.729036e+01	-1.159703e+03
6.700000e-07	-2.266052e-06	-1.716381e-08	-1.624615e+01	-1.130651e+03
6.800000e-07	-2.119617e-06	-1.666875e-08	-1.519631e+01	-1.099507e+03
6.900000e-07	-1.972525e-06	-1.614040e-08	-1.414175e+01	-1.065832e+03
7.000000e-07	-1.824873e-06	-1.557498e-08	-1.308318e+01	-1.029198e+03
7.100000e-07	-1.676640e-06	-1.496888e-08	-1.202044e+01	-9.892294e+02
7.200000e-07	-1.527850e-06	-1.431751e-08	-1.095371e+01	-9.456422e+02
7.300000e-07	-1.378594e-06	-1.361740e-08	-9.883644e+00	-8.982750e+02
7.400000e-07	-1.228954e-06	-1.286109e-08	-8.810816e+00	-8.471047e+02
7.500000e-07	-1.078944e-06	-1.204699e-08	-7.735339e+00	-7.922470e+02
7.600000e-07	-9.285154e-07	-1.117575e-08	-6.656864e+00	-7.339395e+02
7.700000e-07	-7.777217e-07	-1.024599e-08	-5.575769e+00	-6.725116e+02
7.800000e-07	-6.266027e-07	-9.258158e-09	-4.492342e+00	-6.083430e+02
7.900000e-07	-4.752647e-07	-8.219381e-09	-3.407345e+00	-5.418185e+02
8.000000e-07	-3.237614e-07	-7.137756e-09	-2.321163e+00	-4.732849e+02
8.100000e-07	-1.720881e-07	-6.025689e-09	-1.233762e+00	-4.030165e+02
8.200000e-07	-2.030058e-08	-4.897173e-09	-1.455423e-01	-3.311944e+02
8.300000e-07	1.315436e-07	-3.764887e-09	9.430839e-01	-2.579031e+02
8.400000e-07	2.833709e-07	-2.635574e-09	2.031589e+00	-1.831455e+02
8.500000e-07	4.351195e-07	-1.503355e-09	3.119529e+00	-1.068746e+02
8.600000e-07	5.867354e-07	-3.617725e-10	4.206519e+00	-2.903744e+01
8.700000e-07	7.381768e-07	7.997092e-10	5.292257e+00	5.037465e+01
8.800000e-07	8.893933e-07	1.990648e-09	6.376384e+00	1.312763e+02
8.900000e-07	1.040293e-06	3.220590e-09	7.458241e+00	2.134473e+02
9.000000e-07	1.190796e-06	4.489881e-09	8.537251e+00	2.965054e+02
9.100000e-07	1.340819e-06	5.787802e-09	9.612815e+00	3.799004e+02
9.200000e-07	1.490358e-06	7.099478e-09	1.068491e+01	4.629275e+02
9.300000e-07	1.639442e-06	8.396937e-09	1.175375e+01	5.447638e+02
9.400000e-07	1.787946e-06	9.649061e-09	1.281843e+01	6.245205e+02
9.500000e-07	1.935815e-06	1.083072e-08	1.387856e+01	7.013078e+02
9.600000e-07	2.083002e-06	1.192880e-08	1.493380e+01	7.743036e+02
9.700000e-07	2.229421e-06	1.293889e-08	1.598353e+01	8.428179e+02
9.800000e-07	2.375061e-06	1.386319e-08	1.702767e+01	9.063461e+02
9.900000e-07	2.519805e-06	1.470964e-08	1.806540e+01	9.646046e+02
1.000000e-06	2.663535e-06	1.548358e-08	1.909585e+01	1.017544e+03
1.010000e-06	2.806181e-06	1.619044e-08	2.011853e+01	1.065340e+03
1.020000e-06	2.947693e-06	1.683919e-08	2.113308e+01	1.108363e+03
1.030000e-06	3.088043e-06	1.743824e-08	2.213930e+01	1.147130e+03
1.040000e-06	3.227183e-06	1.799128e-08	2.313685e+01	1.182245e+03
1.050000e-06	3.365090e-06	1.850183e-08	2.412555e+01	1.214339e+03
1.060000e-06	3.501700e-06	1.897028e-08	2.510496e+01	1.244007e+03
1.070000e-06	3.637005e-06	1.940419e-08	2.607501e+01	1.271765e+03
1.080000e-06	3.770996e-06	1.981154e-08	2.703564e+01	1.298014e+03
1.090000e-06	3.903613e-06	2.019292e-08	2.798642e+01	1.323025e+03
1.100000e-06	4.034820e-06	2.055279e-08	2.892709e+01	1.346942e+03
1.110000e-06	4.164586e-06	2.089275e-08	2.985743e+01	1.369800e+03
1.120000e-06	4.292881e-06	2.121281e-08	3.077722e+01	1.391559e+03
1.130000e-06	4.419667e-06	2.151167e-08	3.168620e+01	1.412136e+03
1.140000e-06	4.544921e-06	2.178909e-08	3.258419e+01	1.431445e+03
1.150000e-06	4.668626e-06	2.204815e-08	3.347107e+01	1.449427e+03
1.160000e-06	4.790706e-06	2.229323e-08	3.434631e+01	1.466074e+03
1.170000e-06	4.911040e-06	2.252548e-08	3.520903e+01	1.481441e+03
1.180000e-06	5.029582e-06	2.274559e-08	3.605890e+01	1.495641e+03
1.190000e-06	5.146307e-06	2.295583e-08	3.689574e+01	1.508836e+03
1.200000e-06	5.261108e-06	2.315842e-08	3.771880e+01	1.521215e+03
1.210000e-06	5.373881e-06	2.335071e-08	3.852730e+01	1.532968e+03
1.220000e-06	5.484664e-06	2.352987e-08	3.932155e+01	1.544263e+03
1.230000e-06	5.593547e-06	2.369954e-08	4.010217e+01	1.555227e+03
1.240000e-06	5.700439e-06	2.386148e-08	4.086851e+01	1.565930e+03
1.250000e-06	5.805188e-06	2.401510e-08	4.161950e+01	1.576383e+03
1.260000e-06	5.907767e-06	2.415954e-08	4.235493e+01	1.586546e+03
1.270000e-06	6.008195e-06	2.429738e-08	4.307493e+01	1.596339e+03
1.280000e-06	6.106368e-06	2.443210e-08	4.377876e+01	1.605663e+03
1.290000e-06	6.202197e-06	2.456136e-08	4.446580e+01	1.614420e+03
1.300000e-06	6.295823e-06	2.468297e-08	4.513704e+01	1.622536e+03
1.310000e-06	6.387265e-06	2.479573e-08	4.579262e+01	1.629974e+03
1.320000e-06	6.476350e-06	2.490047e-08	4.643130e+01	1.636742e+03
1.330000e-06	6.563055e-06	2.499843e-08	4.705293e+01	1.642896e+03
1.340000e-06	6.647536e-06	2.509027e-08	4.765860e+01	1.648530e+03
1.350000e-06	6.729683e-06	2.517584e-08	4.824754e+01	1.653766e+03
1.360000e-06	6.809325e-06	2.525765e-08	4.881852e+01	1.658730e+03
1.370000e-06	6.886498e-06	2.533738e-08	4.937181e+01	1.663540e+03
1.380000e-06	6.961063e-06	2.541357e-08	4.990638e+01	1.668287e+03
1.390000e-06	7.032991e-06	2.548591e-08	5.042207e+01	1.673023e+03
1.400000e-06	7.102462e-06	2.555497e-08	5.092012e+01	1.677757e+03
1.410000e-06	7.169416e-06	2.562150e-08	5.140014e+01	1.682456e+03
1.420000e-06	7.233713e-06	2.568387e-08	5.186111e+01	1.687055e+03
1.430000e-06	7.295520e-06	2.574218e-08	5.230423e+01	1.691469e+03
1.440000e-06	7.354898e-06	2.579745e-08	5.272993e+01	1.695609e+03
1.450000e-06	7.411689e-06	2.585068e-08	5.313709e+01	1.699398e+03
1.460000e-06	7.465839e-06	2.590181e-08	5.352531e+01	1.702785e+03
1.470000e-06	7.517034e-06	2.594997e-08	5.389235e+01	1.705751e+03
1.480000e-06	7.565154e-06	2.599424e-08	5.423733e+01	1.708314e+03
1.490000e-06	7.610512e-06	2.603539e-08	5.456252e+01	1.710523e+03
1.500000e-06	7.653155e-06	2.607315e-08	5.486824e+01	1.712452e+03
1.510000e-06	7.693039e-06	2.610590e-08	5.515419e+01	1.714182e+03
1.520000e-06	7.730247e-06	2.613448e-08	5.542095e+01	1.715793e+03
1.530000e-06	7.764757e-06	2.616051e-08	5.566836e+01	1.717348e+03
1.540000e-06	7.796458e-06	2.618398e-08	5.589564e+01	1.718882e+03
1.550000e-06	7.825404e-06	2.620333e-08	5.610316e+01	1.720402e+03
1.560000e-06	7.851527e-06	2.622012e-08	5.629045e+01	1.721883e+03
1.570000e-06	7.874732e-06	2.623534e-08	5.645681e+01	1.723276e+03
1.580000e-06	7.895236e-06	2.624912e-08	5.660381e+01	1.724518e+03
1.590000e-06	7.912937e-06	2.626086e-08	5.673072e+01	1.725542e+03
1.600000e-06	7.927647e-06	2.626902e-08	5.683618e+01	1.726293e+03
1.610000e-06	7.939294e-06	2.627458e-08	5.691968e+01	1.726736e+03
1.620000e-06	7.947798e-06	2.627829e-08	5.698065e+01	1.726864e+03
1.630000e-06	7.953420e-06	2.628089e-08	5.702096e+01	1.726695e+03
1.640000e-06	7.956274e-06	2.628047e-08	5.704141e+01	1.726276e+03
1.650000e-06	7.956286e-06	2.627865e-08	5.704150e+01	1.725670e+03
1.660000e-06	7.953648e-06	2.626888e-08	5.702259e+01	1.724947e+03
1.670000e-06	7.948373e-06	2.626009e-08	5.698477e+01	1.724170e+03
1.680000e-06	7.940433e-06	2.625497e-08	5.692784e+01	1.723390e+03
1.690000e-06	7.929868e-06	2.624597e-08	5.685210e+01	1.722630e+03
1.700000e-06	7.916513e-06	2.623468e-08	5.675635e+01	1.721887e+03
1.710000e-06	7.900453e-06	2.622447e-08	5.664122e+01	1.721134e+03
1.720000e-06	7.881978e-06	2.621426e-08	5.650876e+01	1.720319e+03
1.730000e-06	7.861190e-06	2.617148e-08	5.635973e+01	1.719384e+03
1.740000e-06	7.837638e-06	2.607567e-08	5.619087e+01	1.718267e+03
1.750000e-06	7.810622e-06	2.608449e-08	5.599718e+01	1.716921e+03
1.760000e-06	7.779941e-06	2.610722e-08	5.577722e+01	1.715318e+03
1.770000e-06	7.746271e-06	2.606150e-08	5.553583e+01	1.713456e+03
1.780000e-06	7.710339e-06	2.603281e-08	5.527821e+01	1.711359e+03
1.790000e-06	7.672148e-06	2.607979e-08	5.500441e+01	1.709074e+03
1.800000e-06	7.631936e-06	2.600982e-08	5.471612e+01	1.706658e+03
1.810000e-06	7.589662e-06	2.590415e-08	5.441304e+01	1.704173e+03
1.820000e-06	7.544643e-06	2.601197e-08	5.409028e+01	1.701667e+03
1.830000e-06	7.496912e-06	2.592636e-08	5.374808e+01	1.699168e+03
1.840000e-06	7.446413e-06	2.590143e-08	5.338603e+01	1.696674e+03
1.850000e-06	7.392870e-06	2.587273e-08	5.300217e+01	1.694151e+03
1.860000e-06	7.336536e-06	2.577391e-08	5.259829e+01	1.691539e+03
1.870000e-06	7.277577e-06	2.579844e-08	5.217559e+01	1.688752e+03
1.880000e-06	7.216016e-06	2.567643e-08	5.173424e+01	1.685701e+03
1.890000e-06	7.151652e-06	2.567084e-08	5.127279e+01	1.682297e+03
1.900000e-06	7.084513e-06	2.561508e-08	5.079144e+01	1.678473e+03
1.910000e-06	7.014716e-06	2.551213e-08	5.029105e+01	1.674189e+03
1.920000e-06	6.942114e-06	2.547364e-08	4.977053e+01	1.669444e+03
1.930000e-06	6.866798e-06	2.535943e-08	4.923057e+01	1.664271e+03
1.940000e-06	6.788750e-06	2.533216e-08	4.867101e+01	1.658735e+03
1.950000e-06	6.708083e-06	2.523591e-08	4.809268e+01	1.652922e+03
1.960000e-06	6.625020e-06	2.516032e-08	4.749718e+01	1.646923e+03
1.970000e-06	6.539481e-06	2.507019e-08	4.688391e+01	1.640818e+03
1.980000e-06	6.451477e-06	2.495962e-08	4.625298e+01	1.634664e+03
1.990000e-06	6.361158e-06	2.489021e-08	4.560545e+01	1.628481e+03
2.000000e-06	6.268659e-06	2.476731e-08	4.494229e+01	1.622247e+03
2.010000e-06	6.173922e-06	2.468539e-08	4.426308e+01	1.615900e+03
2.020000e-06	6.076989e-06	2.456740e-08	4.356814e+01	1.609347e+03
2.030000e-06	5.977969e-06	2.445745e-08	4.285823e+01	1.602475e+03
2.040000e-06	5.876751e-06	2.432501e-08	4.213256e+01	1.595169e+03
2.050000e-06	5.773351e-06	2.420395e-08	4.139125e+01	1.587330e+03
2.060000e-06	5.667955e-06	2.408303e-08	4.063562e+01	1.578888e+03
2.070000e-06	5.560675e-06	2.393980e-08	3.986649e+01	1.569813e+03
2.080000e-06	5.451478e-06	2.380450e-08	3.908362e+01	1.560119e+03
2.090000e-06	5.340300e-06	2.365593e-08	3.828655e+01	1.549860e+03
2.100000e-06	5.227097e-06	2.351185e-08	3.747496e+01	1.539118e+03
2.110000e-06	5.111955e-06	2.334448e-08	3.664946e+01	1.527986e+03
2.120000e-06	4.994828e-06	2.318257e-08	3.580973e+01	1.516551e+03
2.130000e-06	4.875724e-06	2.300318e-08	3.495583e+01	1.504872e+03
2.140000e-06	4.754777e-06	2.281637e-08	3.408872e+01	1.492966e+03
2.150000e-06	4.632137e-06	2.262150e-08	3.320947e+01	1.480799e+03
2.160000e-06	4.507848e-06	2.242856e-08	3.231840e+01	1.468287e+03
2.170000e-06	4.381864e-06	2.222630e-08	3.141518e+01	1.455299e+03
2.180000e-06	4.254288e-06	2.201094e-08	3.050053e+01	1.441675e+03
2.190000e-06	4.125164e-06	2.178719e-08	2.957480e+01	1.427245e+03
2.200000e-06	3.994593e-06	2.154927e-08	2.863869e+01	1.411855e+03
2.210000e-06	3.862535e-06	2.129839e-08	2.769191e+01	1.395382e+03
2.220000e-06	3.728933e-06	2.103150e-08	2.673407e+01	1.377754e+03
2.230000e-06	3.593922e-06	2.075467e-08	2.576613e+01	1.358951e+03
2.240000e-06	3.457589e-06	2.046098e-08	2.478871e+01	1.339009e+03
2.250000e-06	3.319969e-06	2.015463e-08	2.380206e+01	1.318000e+03
2.260000e-06	3.181094e-06	1.983322e-08	2.280642e+01	1.296011e+03
2.270000e-06	3.040921e-06	1.949871e-08	2.180146e+01	1.273116e+03
2.280000e-06	2.899446e-06	1.914354e-08	2.078718e+01	1.249347e+03
2.290000e-06	2.756809e-06	1.876798e-08	1.976456e+01	1.224662e+03
2.300000e-06	2.613202e-06	1.836897e-08	1.873500e+01	1.198932e+03
2.310000e-06	2.468672e-06	1.794306e-08	1.769881e+01	1.171928e+03
2.320000e-06	2.323298e-06	1.748962e-08	1.665657e+01	1.143331e+03
2.330000e-06	2.177231e-06	1.700607e-08	1.560936e+01	1.112749e+03
2.340000e-06	2.030515e-06	1.648992e-08	1.455750e+01	1.079746e+03
2.350000e-06	1.883120e-06	1.593654e-08	1.350077e+01	1.043887e+03
2.360000e-06	1.735095e-06	1.534299e-08	1.243952e+01	1.004781e+03
2.370000e-06	1.586504e-06	1.470517e-08	1.137422e+01	9.621170e+02
2.380000e-06	1.437390e-06	1.402145e-08	1.030517e+01	9.157004e+02
2.390000e-06	1.287768e-06	1.328660e-08	9.232477e+00	8.654733e+02
2.400000e-06	1.137617e-06	1.249197e-08	8.155986e+00	8.115173e+02
2.410000e-06	9.869933e-07	1.163568e-08	7.076113e+00	7.540423e+02
2.420000e-06	8.360390e-07	1.071888e-08	5.993867e+00	6.933581e+02
2.430000e-06	6.849161e-07	9.744209e-09	4.910412e+00	6.298359e+02
2.440000e-06	5.336162e-07	8.715760e-09	3.825689e+00	5.638636e+02
2.450000e-06	3.821644e-07	7.644947e-09	2.739875e+00	4.958012e+02
2.460000e-06	2.306141e-07	6.542128e-09	1.653356e+00	4.259437e+02
2.470000e-06	7.895031e-08	5.414778e-09	5.660235e-01	3.544963e+02
2.480000e-06	-7.278085e-08	4.275514e-09	-5.217923e-01	2.815672e+02
2.490000e-06	-2.245135e-07	3.136237e-09	-1.609619e+00	2.071773e+02
2.500000e-06	-3.761344e-07	2.000316e-09	-2.696644e+00	1.312882e+02
2.510000e-06	-5.276540e-07	8.582151e-10	-3.782943e+00	5.384397e+01
2.520000e-06	-6.790796e-07	-3.018116e-10	-4.868568e+00	-2.517999e+01
2.530000e-06	-8.303000e-07	-1.488244e-09	-5.952722e+00	-1.057261e+02
2.540000e-06	-9.812892e-07	-2.709260e-09	-7.035218e+00	-1.876110e+02
2.550000e-06	-1.132041e-06	-3.970350e-09	-8.116013e+00	-2.704946e+02
2.560000e-06	-1.282400e-06	-5.265513e-09	-9.193992e+00	-3.538679e+02
2.570000e-06	-1.432231e-06	-6.577409e-09	-1.026818e+01	-4.370623e+02
2.580000e-06	-1.581460e-06	-7.885435e-09	-1.133806e+01	-5.192802e+02
2.590000e-06	-1.730046e-06	-9.162592e-09	-1.240333e+01	-5.996434e+02
2.600000e-06	-1.878034e-06	-1.038192e-08	-1.346431e+01	-6.772560e+02
2.610000e-06	-2.025338e-06	-1.152163e-08	-1.452038e+01	-7.512726e+02
2.620000e-06	-2.171828e-06	-1.257173e-08	-1.557063e+01	-8.209646e+02
2.630000e-06	-2.317540e-06	-1.353333e-08	-1.661528e+01	-8.857771e+02
2.640000e-06	-2.462411e-06	-1.441115e-08	-1.765392e+01	-9.453688e+02
2.650000e-06	-2.606292e-06	-1.521356e-08	-1.868545e+01	-9.996321e+02
2.660000e-06	-2.749213e-06	-1.594615e-08	-1.971011e+01	-1.048688e+03
2.670000e-06	-2.891022e-06	-1.661648e-08	-2.072679e+01	-1.092863e+03
2.680000e-06	-3.031565e-06	-1.723399e-08	-2.173439e+01	-1.132642e+03
2.690000e-06	-3.170821e-06	-1.780414e-08	-2.273276e+01	-1.168613e+03
2.700000e-06	-3.308773e-06	-1.833024e-08	-2.372180e+01	-1.201406e+03
2.710000e-06	-3.445529e-06	-1.881489e-08	-2.470225e+01	-1.231630e+03
2.720000e-06	-3.581119e-06	-1.926576e-08	-2.567434e+01	-1.259825e+03
2.730000e-06	-3.715425e-06	-1.968588e-08	-2.663723e+01	-1.286423e+03
2.740000e-06	-3.848317e-06	-2.007785e-08	-2.758998e+01	-1.311727e+03
2.750000e-06	-3.979827e-06	-2.044629e-08	-2.853282e+01	-1.335912e+03
2.760000e-06	-4.109996e-06	-2.079028e-08	-2.946605e+01	-1.359039e+03
2.770000e-06	-4.238782e-06	-2.111203e-08	-3.038937e+01	-1.381082e+03
2.780000e-06	-4.366093e-06	-2.141462e-08	-3.130211e+01	-1.401965e+03
2.790000e-06	-4.491859e-06	-2.170084e-08	-3.220376e+01	-1.421600e+03
2.800000e-06	-4.616100e-06	-2.197059e-08	-3.309450e+01	-1.439918e+03
2.810000e-06	-4.738714e-06	-2.222576e-08	-3.397356e+01	-1.456899e+03
2.820000e-06	-4.859605e-06	-2.246854e-08	-3.484027e+01	-1.472579e+03
2.830000e-06	-4.978688e-06	-2.269894e-08	-3.569402e+01	-1.487059e+03
2.840000e-06	-5.095779e-06	-2.291740e-08	-3.653349e+01	-1.500491e+03
2.850000e-06	-5.210816e-06	-2.312397e-08	-3.735823e+01	-1.513057e+03
2.860000e-06	-5.323779e-06	-2.331974e-08	-3.816810e+01	-1.524952e+03
2.870000e-06	-5.434623e-06	-2.350537e-08	-3.896278e+01	-1.536350e+03
2.880000e-06	-5.543484e-06	-2.367966e-08	-3.974325e+01	-1.547390e+03
2.890000e-06	-5.650513e-06	-2.384335e-08	-4.051058e+01	-1.558157e+03
2.900000e-06	-5.755560e-06	-2.399911e-08	-4.126370e+01	-1.568676e+03
2.910000e-06	-5.858444e-06	-2.414642e-08	-4.200131e+01	-1.578920e+03
2.920000e-06	-5.959083e-06	-2.428761e-08	-4.272283e+01	-1.588817e+03
2.930000e-06	-6.057601e-06	-2.442286e-08	-4.342914e+01	-1.598269e+03
2.940000e-06	-6.154077e-06	-2.455227e-08	-4.412081e+01	-1.607179e+03
