# Temperatura_=_50.7
# Concentracion g/m^3_=_28370.0
# C_Vs_to_Am_M_A/Vsm_=_65563218390.804596
# pendiente_HvsI_1/m_=_3716.3
# ordenada_HvsI_A/m_=_1297.0
# frecuencia_Hz_=_302549.4519895105

Tiempo_(s)	Campo_(V.s)	Magnetizacion_(V.s)	Campo_(kA/m)	Magnetizacion_(A/m)
0.000000e+00	-7.866943e-06	-2.549734e-08	-5.684068e+01	-1.667262e+03
1.000000e-08	-7.863406e-06	-2.549365e-08	-5.681512e+01	-1.666542e+03
2.000000e-08	-7.857309e-06	-2.548444e-08	-5.677107e+01	-1.665780e+03
3.000000e-08	-7.848599e-06	-2.547344e-08	-5.670813e+01	-1.665019e+03
4.000000e-08	-7.837058e-06	-2.546186e-08	-5.662475e+01	-1.664279e+03
5.000000e-08	-7.822633e-06	-2.544824e-08	-5.652052e+01	-1.663555e+03
6.000000e-08	-7.805490e-06	-2.543053e-08	-5.639666e+01	-1.662814e+03
7.000000e-08	-7.785993e-06	-2.540904e-08	-5.625579e+01	-1.662010e+03
8.000000e-08	-7.764183e-06	-2.540165e-08	-5.609821e+01	-1.661083e+03
9.000000e-08	-7.739613e-06	-2.540393e-08	-5.592068e+01	-1.659978e+03
1.000000e-07	-7.711909e-06	-2.537239e-08	-5.572052e+01	-1.658654e+03
1.100000e-07	-7.681204e-06	-2.532315e-08	-5.549866e+01	-1.657088e+03
1.200000e-07	-7.647714e-06	-2.528955e-08	-5.525669e+01	-1.655285e+03
1.300000e-07	-7.611571e-06	-2.525803e-08	-5.499555e+01	-1.653271e+03
1.400000e-07	-7.573078e-06	-2.520736e-08	-5.471742e+01	-1.651094e+03
1.500000e-07	-7.532356e-06	-2.516302e-08	-5.442320e+01	-1.648811e+03
1.600000e-07	-7.489253e-06	-2.516018e-08	-5.411177e+01	-1.646476e+03
1.700000e-07	-7.443601e-06	-2.509976e-08	-5.378192e+01	-1.644133e+03
1.800000e-07	-7.395257e-06	-2.503541e-08	-5.343262e+01	-1.641801e+03
1.900000e-07	-7.344067e-06	-2.502213e-08	-5.306276e+01	-1.639469e+03
2.000000e-07	-7.290010e-06	-2.498081e-08	-5.267218e+01	-1.637100e+03
2.100000e-07	-7.233196e-06	-2.495170e-08	-5.226169e+01	-1.634624e+03
2.200000e-07	-7.173703e-06	-2.490490e-08	-5.183184e+01	-1.631960e+03
2.300000e-07	-7.111588e-06	-2.483981e-08	-5.138304e+01	-1.629016e+03
2.400000e-07	-7.046819e-06	-2.477376e-08	-5.091507e+01	-1.625712e+03
2.500000e-07	-6.979381e-06	-2.469984e-08	-5.042781e+01	-1.621986e+03
2.600000e-07	-6.909299e-06	-2.463024e-08	-4.992145e+01	-1.617808e+03
2.700000e-07	-6.836486e-06	-2.456494e-08	-4.939536e+01	-1.613185e+03
2.800000e-07	-6.760935e-06	-2.449661e-08	-4.884949e+01	-1.608158e+03
2.900000e-07	-6.682686e-06	-2.440592e-08	-4.828412e+01	-1.602794e+03
3.000000e-07	-6.601747e-06	-2.432761e-08	-4.769931e+01	-1.597182e+03
3.100000e-07	-6.518393e-06	-2.425569e-08	-4.709705e+01	-1.591408e+03
3.200000e-07	-6.432877e-06	-2.416777e-08	-4.647918e+01	-1.585547e+03
3.300000e-07	-6.345141e-06	-2.408932e-08	-4.584526e+01	-1.579647e+03
3.400000e-07	-6.255077e-06	-2.399962e-08	-4.519453e+01	-1.573718e+03
3.500000e-07	-6.162751e-06	-2.389314e-08	-4.452745e+01	-1.567729e+03
3.600000e-07	-6.068237e-06	-2.378994e-08	-4.384456e+01	-1.561613e+03
3.700000e-07	-5.971494e-06	-2.368943e-08	-4.314557e+01	-1.555272e+03
3.800000e-07	-5.872496e-06	-2.358322e-08	-4.243029e+01	-1.548593e+03
3.900000e-07	-5.771384e-06	-2.346919e-08	-4.169972e+01	-1.541466e+03
4.000000e-07	-5.668238e-06	-2.334879e-08	-4.095447e+01	-1.533798e+03
4.100000e-07	-5.563091e-06	-2.321467e-08	-4.019476e+01	-1.525529e+03
4.200000e-07	-5.455985e-06	-2.307963e-08	-3.942089e+01	-1.516639e+03
4.300000e-07	-5.346973e-06	-2.294279e-08	-3.863325e+01	-1.507151e+03
4.400000e-07	-5.236063e-06	-2.279756e-08	-3.783190e+01	-1.497125e+03
4.500000e-07	-5.123193e-06	-2.264600e-08	-3.701638e+01	-1.486646e+03
4.600000e-07	-5.008374e-06	-2.248970e-08	-3.618678e+01	-1.475806e+03
4.700000e-07	-4.891611e-06	-2.232722e-08	-3.534314e+01	-1.464685e+03
4.800000e-07	-4.773009e-06	-2.215658e-08	-3.448621e+01	-1.453334e+03
4.900000e-07	-4.652681e-06	-2.198013e-08	-3.361681e+01	-1.441761e+03
5.000000e-07	-4.530676e-06	-2.179492e-08	-3.273529e+01	-1.429921e+03
5.100000e-07	-4.406965e-06	-2.159603e-08	-3.184145e+01	-1.417720e+03
5.200000e-07	-4.281652e-06	-2.138319e-08	-3.093603e+01	-1.405024e+03
5.300000e-07	-4.154827e-06	-2.116394e-08	-3.001968e+01	-1.391670e+03
5.400000e-07	-4.026469e-06	-2.093747e-08	-2.909227e+01	-1.377495e+03
5.500000e-07	-3.896608e-06	-2.069644e-08	-2.815399e+01	-1.362351e+03
5.600000e-07	-3.765164e-06	-2.044118e-08	-2.720427e+01	-1.346127e+03
5.700000e-07	-3.632237e-06	-2.018016e-08	-2.624384e+01	-1.328761e+03
5.800000e-07	-3.498097e-06	-1.991213e-08	-2.527465e+01	-1.310248e+03
5.900000e-07	-3.362623e-06	-1.962935e-08	-2.429581e+01	-1.290628e+03
6.000000e-07	-3.225731e-06	-1.933052e-08	-2.330673e+01	-1.269975e+03
6.100000e-07	-3.087650e-06	-1.901146e-08	-2.230906e+01	-1.248373e+03
6.200000e-07	-2.948380e-06	-1.867095e-08	-2.130280e+01	-1.225882e+03
6.300000e-07	-2.807791e-06	-1.830801e-08	-2.028701e+01	-1.202517e+03
6.400000e-07	-2.665968e-06	-1.792587e-08	-1.926230e+01	-1.178215e+03
6.500000e-07	-2.523101e-06	-1.752565e-08	-1.823005e+01	-1.152824e+03
6.600000e-07	-2.379312e-06	-1.710167e-08	-1.719113e+01	-1.126096e+03
6.700000e-07	-2.234666e-06	-1.665083e-08	-1.614603e+01	-1.097695e+03
6.800000e-07	-2.089269e-06	-1.616967e-08	-1.509550e+01	-1.067224e+03
6.900000e-07	-1.943220e-06	-1.565520e-08	-1.404026e+01	-1.034254e+03
7.000000e-07	-1.796507e-06	-1.510299e-08	-1.298022e+01	-9.983663e+02
7.100000e-07	-1.649190e-06	-1.450877e-08	-1.191582e+01	-9.591989e+02
7.200000e-07	-1.501351e-06	-1.386831e-08	-1.084765e+01	-9.164816e+02
7.300000e-07	-1.353092e-06	-1.317812e-08	-9.776438e+00	-8.700682e+02
7.400000e-07	-1.204471e-06	-1.243539e-08	-8.702613e+00	-8.199526e+02
7.500000e-07	-1.055463e-06	-1.163910e-08	-7.625990e+00	-7.662686e+02
7.600000e-07	-9.061072e-07	-1.078880e-08	-6.546856e+00	-7.092736e+02
7.700000e-07	-7.564816e-07	-9.882744e-09	-5.465773e+00	-6.493172e+02
7.800000e-07	-6.066071e-07	-8.921581e-09	-4.382891e+00	-5.867995e+02
7.900000e-07	-4.564895e-07	-7.911867e-09	-3.298253e+00	-5.221248e+02
8.000000e-07	-3.061701e-07	-6.864845e-09	-2.212157e+00	-4.556565e+02
8.100000e-07	-1.556873e-07	-5.791809e-09	-1.124881e+00	-3.876812e+02
8.200000e-07	-5.141533e-09	-4.704388e-09	-3.714889e-02	-3.183859e+02
8.300000e-07	1.453986e-07	-3.614937e-09	1.050542e+00	-2.478528e+02
8.400000e-07	2.959310e-07	-2.528047e-09	2.138177e+00	-1.760728e+02
8.500000e-07	4.464065e-07	-1.439900e-09	3.225401e+00	-1.029762e+02
8.600000e-07	5.967661e-07	-3.473881e-10	4.311788e+00	-2.847618e+01
8.700000e-07	7.469310e-07	7.599766e-10	5.396768e+00	4.748011e+01
8.800000e-07	8.968393e-07	1.897791e-09	6.479893e+00	1.248604e+02
8.900000e-07	1.046442e-06	3.076080e-09	7.560807e+00	2.035040e+02
9.000000e-07	1.195677e-06	4.293887e-09	8.639074e+00	2.830915e+02
9.100000e-07	1.344536e-06	5.540091e-09	9.714619e+00	3.631350e+02
9.200000e-07	1.493004e-06	6.799331e-09	1.078733e+01	4.429881e+02
9.300000e-07	1.641005e-06	8.047411e-09	1.185668e+01	5.218778e+02
9.400000e-07	1.788378e-06	9.257238e-09	1.292149e+01	5.989544e+02
9.500000e-07	1.935083e-06	1.040371e-08	1.398147e+01	6.733539e+02
9.600000e-07	2.081211e-06	1.147133e-08	1.503728e+01	7.442649e+02
9.700000e-07	2.226598e-06	1.245717e-08	1.608774e+01	8.109935e+02
9.800000e-07	2.371075e-06	1.336154e-08	1.713163e+01	8.730178e+02
9.900000e-07	2.514633e-06	1.418949e-08	1.816887e+01	9.300253e+02
1.000000e-06	2.657162e-06	1.494780e-08	1.919868e+01	9.819297e+02
1.010000e-06	2.798571e-06	1.564319e-08	2.022039e+01	1.028865e+03
1.020000e-06	2.938858e-06	1.628088e-08	2.123400e+01	1.071158e+03
1.030000e-06	3.077970e-06	1.686618e-08	2.223912e+01	1.109286e+03
1.040000e-06	3.215839e-06	1.740556e-08	2.323526e+01	1.143818e+03
1.050000e-06	3.352430e-06	1.790466e-08	2.422216e+01	1.175357e+03
1.060000e-06	3.487745e-06	1.836629e-08	2.519985e+01	1.204481e+03
1.070000e-06	3.621815e-06	1.879287e-08	2.616854e+01	1.231693e+03
1.080000e-06	3.754628e-06	1.919139e-08	2.712815e+01	1.257393e+03
1.090000e-06	3.886103e-06	1.956563e-08	2.807809e+01	1.281855e+03
1.100000e-06	4.016146e-06	1.991908e-08	2.901768e+01	1.305230e+03
1.110000e-06	4.144706e-06	2.025042e-08	2.994656e+01	1.327565e+03
1.120000e-06	4.271819e-06	2.055959e-08	3.086499e+01	1.348826e+03
1.130000e-06	4.397493e-06	2.085074e-08	3.177301e+01	1.368938e+03
1.140000e-06	4.521708e-06	2.112248e-08	3.267050e+01	1.387818e+03
1.150000e-06	4.644312e-06	2.137677e-08	3.355634e+01	1.405408e+03
1.160000e-06	4.765220e-06	2.161735e-08	3.442993e+01	1.421695e+03
1.170000e-06	4.884484e-06	2.184444e-08	3.529165e+01	1.436728e+03
1.180000e-06	5.002025e-06	2.205935e-08	3.614091e+01	1.450612e+03
1.190000e-06	5.117656e-06	2.226408e-08	3.697637e+01	1.463499e+03
1.200000e-06	5.231225e-06	2.246104e-08	3.779694e+01	1.475570e+03
1.210000e-06	5.342786e-06	2.264845e-08	3.860299e+01	1.487009e+03
1.220000e-06	5.452444e-06	2.282335e-08	3.939530e+01	1.497981e+03
1.230000e-06	5.560267e-06	2.298756e-08	4.017435e+01	1.508611e+03
1.240000e-06	5.666086e-06	2.314257e-08	4.093892e+01	1.518973e+03
1.250000e-06	5.769740e-06	2.329045e-08	4.168785e+01	1.529083e+03
1.260000e-06	5.871319e-06	2.343139e-08	4.242178e+01	1.538907e+03
1.270000e-06	5.970819e-06	2.356654e-08	4.314069e+01	1.548370e+03
1.280000e-06	6.067977e-06	2.369707e-08	4.384268e+01	1.557380e+03
1.290000e-06	6.162768e-06	2.382148e-08	4.452757e+01	1.565844e+03
1.300000e-06	6.255416e-06	2.393961e-08	4.519698e+01	1.573690e+03
1.310000e-06	6.345862e-06	2.404754e-08	4.585048e+01	1.580880e+03
1.320000e-06	6.434014e-06	2.414567e-08	4.648740e+01	1.587421e+03
1.330000e-06	6.519866e-06	2.423809e-08	4.710770e+01	1.593366e+03
1.340000e-06	6.603469e-06	2.432703e-08	4.771175e+01	1.598804e+03
1.350000e-06	6.684728e-06	2.441136e-08	4.829887e+01	1.603850e+03
1.360000e-06	6.763502e-06	2.449041e-08	4.886803e+01	1.608629e+03
1.370000e-06	6.839796e-06	2.456693e-08	4.941927e+01	1.613254e+03
1.380000e-06	6.913501e-06	2.463952e-08	4.995181e+01	1.617813e+03
1.390000e-06	6.984632e-06	2.470807e-08	5.046575e+01	1.622360e+03
1.400000e-06	7.053315e-06	2.477350e-08	5.096200e+01	1.626904e+03
1.410000e-06	7.119476e-06	2.483594e-08	5.144004e+01	1.631413e+03
1.420000e-06	7.183069e-06	2.489488e-08	5.189951e+01	1.635827e+03
1.430000e-06	7.244243e-06	2.495045e-08	5.234151e+01	1.640061e+03
1.440000e-06	7.302980e-06	2.500279e-08	5.276590e+01	1.644030e+03
1.450000e-06	7.359119e-06	2.505203e-08	5.317151e+01	1.647658e+03
1.460000e-06	7.412470e-06	2.510086e-08	5.355699e+01	1.650893e+03
1.470000e-06	7.462796e-06	2.514790e-08	5.392061e+01	1.653718e+03
1.480000e-06	7.510176e-06	2.519084e-08	5.426294e+01	1.656148e+03
1.490000e-06	7.554887e-06	2.522813e-08	5.458599e+01	1.658232e+03
1.500000e-06	7.596920e-06	2.526111e-08	5.488969e+01	1.660041e+03
1.510000e-06	7.636196e-06	2.529170e-08	5.517347e+01	1.661657e+03
1.520000e-06	7.672837e-06	2.531797e-08	5.543821e+01	1.663159e+03
1.530000e-06	7.706829e-06	2.534113e-08	5.568381e+01	1.664610e+03
1.540000e-06	7.738005e-06	2.536267e-08	5.590906e+01	1.666050e+03
1.550000e-06	7.766484e-06	2.538308e-08	5.611483e+01	1.667485e+03
1.560000e-06	7.792255e-06	2.540102e-08	5.630104e+01	1.668893e+03
1.570000e-06	7.815146e-06	2.541510e-08	5.646643e+01	1.670228e+03
1.580000e-06	7.835262e-06	2.542683e-08	5.661177e+01	1.671428e+03
1.590000e-06	7.852590e-06	2.543703e-08	5.673697e+01	1.672428e+03
1.600000e-06	7.866987e-06	2.544472e-08	5.684099e+01	1.673170e+03
1.610000e-06	7.878373e-06	2.544993e-08	5.692326e+01	1.673618e+03
1.620000e-06	7.886669e-06	2.545347e-08	5.698320e+01	1.673760e+03
1.630000e-06	7.892073e-06	2.545514e-08	5.702224e+01	1.673614e+03
1.640000e-06	7.894738e-06	2.545530e-08	5.704150e+01	1.673220e+03
1.650000e-06	7.894578e-06	2.545153e-08	5.704035e+01	1.672638e+03
1.660000e-06	7.891769e-06	2.544485e-08	5.702005e+01	1.671937e+03
1.670000e-06	7.886367e-06	2.543913e-08	5.698102e+01	1.671178e+03
1.680000e-06	7.878250e-06	2.543316e-08	5.692237e+01	1.670412e+03
1.690000e-06	7.867477e-06	2.542454e-08	5.684454e+01	1.669664e+03
1.700000e-06	7.853921e-06	2.541409e-08	5.674659e+01	1.668936e+03
1.710000e-06	7.837649e-06	2.540320e-08	5.662901e+01	1.668202e+03
1.720000e-06	7.819055e-06	2.538948e-08	5.649467e+01	1.667416e+03
1.730000e-06	7.798191e-06	2.534338e-08	5.634392e+01	1.666523e+03
1.740000e-06	7.774509e-06	2.529832e-08	5.617281e+01	1.665466e+03
1.750000e-06	7.747330e-06	2.529142e-08	5.597644e+01	1.664198e+03
1.760000e-06	7.716557e-06	2.528504e-08	5.575409e+01	1.662691e+03
1.770000e-06	7.682884e-06	2.525476e-08	5.551080e+01	1.660943e+03
1.780000e-06	7.646959e-06	2.524029e-08	5.525123e+01	1.658976e+03
1.790000e-06	7.608840e-06	2.523714e-08	5.497582e+01	1.656833e+03
1.800000e-06	7.568733e-06	2.518817e-08	5.468603e+01	1.654569e+03
1.810000e-06	7.526546e-06	2.518433e-08	5.438122e+01	1.652240e+03
1.820000e-06	7.481664e-06	2.519508e-08	5.405693e+01	1.649895e+03
1.830000e-06	7.434067e-06	2.515491e-08	5.371303e+01	1.647557e+03
1.840000e-06	7.383724e-06	2.512657e-08	5.334930e+01	1.645226e+03
1.850000e-06	7.330385e-06	2.506785e-08	5.296390e+01	1.642869e+03
1.860000e-06	7.274266e-06	2.501947e-08	5.255843e+01	1.640426e+03
1.870000e-06	7.215583e-06	2.498430e-08	5.213443e+01	1.637815e+03
1.880000e-06	7.154283e-06	2.492930e-08	5.169152e+01	1.634947e+03
1.890000e-06	7.090175e-06	2.489344e-08	5.122833e+01	1.631738e+03
1.900000e-06	7.023315e-06	2.483895e-08	5.074525e+01	1.628119e+03
1.910000e-06	6.953786e-06	2.477101e-08	5.024288e+01	1.624054e+03
1.920000e-06	6.881520e-06	2.469340e-08	4.972074e+01	1.619538e+03
1.930000e-06	6.806628e-06	2.463493e-08	4.917962e+01	1.614604e+03
1.940000e-06	6.729050e-06	2.457839e-08	4.861911e+01	1.609315e+03
1.950000e-06	6.648844e-06	2.449439e-08	4.803960e+01	1.603754e+03
1.960000e-06	6.566169e-06	2.441629e-08	4.744225e+01	1.598011e+03
1.970000e-06	6.481026e-06	2.432644e-08	4.682707e+01	1.592164e+03
1.980000e-06	6.393501e-06	2.423835e-08	4.619468e+01	1.586269e+03
1.990000e-06	6.303724e-06	2.414861e-08	4.554602e+01	1.580346e+03
2.000000e-06	6.211772e-06	2.405973e-08	4.488164e+01	1.574376e+03
2.010000e-06	6.117589e-06	2.396269e-08	4.420114e+01	1.568298e+03
2.020000e-06	6.021147e-06	2.385631e-08	4.350433e+01	1.562021e+03
2.030000e-06	5.922566e-06	2.374125e-08	4.279206e+01	1.555435e+03
2.040000e-06	5.821910e-06	2.361902e-08	4.206479e+01	1.548428e+03
2.050000e-06	5.719131e-06	2.350378e-08	4.132218e+01	1.540900e+03
2.060000e-06	5.614326e-06	2.338083e-08	4.056494e+01	1.532783e+03
2.070000e-06	5.507645e-06	2.325534e-08	3.979414e+01	1.524046e+03
2.080000e-06	5.399051e-06	2.311912e-08	3.900952e+01	1.514701e+03
2.090000e-06	5.288491e-06	2.298160e-08	3.821070e+01	1.504801e+03
2.100000e-06	5.175978e-06	2.283524e-08	3.739777e+01	1.494424e+03
2.110000e-06	5.061565e-06	2.267970e-08	3.657110e+01	1.483664e+03
2.120000e-06	4.945218e-06	2.251680e-08	3.573046e+01	1.472605e+03
2.130000e-06	4.826965e-06	2.234503e-08	3.487606e+01	1.461307e+03
2.140000e-06	4.706863e-06	2.216291e-08	3.400829e+01	1.449789e+03
2.150000e-06	4.585016e-06	2.197603e-08	3.312792e+01	1.438021e+03
2.160000e-06	4.461486e-06	2.179111e-08	3.223537e+01	1.425920e+03
2.170000e-06	4.336292e-06	2.159501e-08	3.133082e+01	1.413360e+03
2.180000e-06	4.209561e-06	2.138698e-08	3.041515e+01	1.400184e+03
2.190000e-06	4.081227e-06	2.116991e-08	2.948791e+01	1.386227e+03
2.200000e-06	3.951399e-06	2.094374e-08	2.854987e+01	1.371335e+03
2.210000e-06	3.820155e-06	2.069972e-08	2.760160e+01	1.355387e+03
2.220000e-06	3.687432e-06	2.044414e-08	2.664264e+01	1.338308e+03
2.230000e-06	3.553371e-06	2.017544e-08	2.567401e+01	1.320077e+03
2.240000e-06	3.418003e-06	1.989003e-08	2.469595e+01	1.300726e+03
2.250000e-06	3.281309e-06	1.958859e-08	2.370829e+01	1.280321e+03
2.260000e-06	3.143433e-06	1.927639e-08	2.271211e+01	1.258947e+03
2.270000e-06	3.004315e-06	1.895246e-08	2.170695e+01	1.236673e+03
2.280000e-06	2.863930e-06	1.860776e-08	2.069263e+01	1.213527e+03
2.290000e-06	2.722456e-06	1.824196e-08	1.967044e+01	1.189468e+03
2.300000e-06	2.579974e-06	1.785411e-08	1.864097e+01	1.164367e+03
2.310000e-06	2.436564e-06	1.744037e-08	1.760479e+01	1.137999e+03
2.320000e-06	2.292266e-06	1.699786e-08	1.656220e+01	1.110050e+03
2.330000e-06	2.147101e-06	1.652508e-08	1.551335e+01	1.080134e+03
2.340000e-06	2.001261e-06	1.601942e-08	1.445962e+01	1.047827e+03
2.350000e-06	1.854898e-06	1.547568e-08	1.340211e+01	1.012704e+03
2.360000e-06	1.707936e-06	1.489136e-08	1.234028e+01	9.743838e+02
2.370000e-06	1.560355e-06	1.426595e-08	1.127397e+01	9.325709e+02
2.380000e-06	1.412230e-06	1.359594e-08	1.020372e+01	8.870857e+02
2.390000e-06	1.263619e-06	1.287559e-08	9.129969e+00	8.378865e+02
2.400000e-06	1.114544e-06	1.209881e-08	8.052865e+00	7.850728e+02
2.410000e-06	9.650572e-07	1.126270e-08	6.972785e+00	7.288738e+02
2.420000e-06	8.153197e-07	1.036787e-08	5.890893e+00	6.696194e+02
2.430000e-06	6.653997e-07	9.416494e-09	4.807683e+00	6.077015e+02
2.440000e-06	5.152880e-07	8.414352e-09	3.723087e+00	5.435276e+02
2.450000e-06	3.650221e-07	7.371974e-09	2.637378e+00	4.774753e+02
2.460000e-06	2.146437e-07	6.299861e-09	1.550856e+00	4.098532e+02
2.470000e-06	6.416062e-08	5.211478e-09	4.635769e-01	3.408741e+02
2.480000e-06	-8.639860e-08	4.119571e-09	-6.242520e-01	2.706462e+02
2.490000e-06	-2.369485e-07	3.028863e-09	-1.712014e+00	1.991808e+02
2.500000e-06	-3.874227e-07	1.938853e-09	-2.799228e+00	1.264197e+02
2.510000e-06	-5.377967e-07	8.445428e-10	-3.885718e+00	5.227567e+01
2.520000e-06	-6.880335e-07	-2.665183e-10	-4.971218e+00	-2.331742e+01
2.530000e-06	-8.380940e-07	-1.404593e-09	-6.055443e+00	-1.003532e+02
2.540000e-06	-9.879028e-07	-2.575575e-09	-7.137850e+00	-1.787063e+02
2.550000e-06	-1.137344e-06	-3.783776e-09	-8.217602e+00	-2.580990e+02
2.560000e-06	-1.286352e-06	-5.024931e-09	-9.294225e+00	-3.380853e+02
2.570000e-06	-1.434885e-06	-6.284519e-09	-1.036741e+01	-4.180562e+02
2.580000e-06	-1.582874e-06	-7.541820e-09	-1.143667e+01	-4.972664e+02
2.590000e-06	-1.730297e-06	-8.771281e-09	-1.250184e+01	-5.748799e+02
2.600000e-06	-1.877189e-06	-9.947845e-09	-1.356317e+01	-6.500299e+02
2.610000e-06	-2.023427e-06	-1.105512e-08	-1.461978e+01	-7.218857e+02
2.620000e-06	-2.168876e-06	-1.208217e-08	-1.567068e+01	-7.897183e+02
2.630000e-06	-2.313565e-06	-1.302501e-08	-1.671610e+01	-8.529586e+02
2.640000e-06	-2.457329e-06	-1.388703e-08	-1.775483e+01	-9.112393e+02
2.650000e-06	-2.600019e-06	-1.467407e-08	-1.878580e+01	-9.644172e+02
2.660000e-06	-2.741631e-06	-1.539408e-08	-1.980899e+01	-1.012573e+03
2.670000e-06	-2.882102e-06	-1.605364e-08	-2.082392e+01	-1.055989e+03
2.680000e-06	-3.021421e-06	-1.665860e-08	-2.183054e+01	-1.095109e+03
2.690000e-06	-3.159506e-06	-1.721565e-08	-2.282824e+01	-1.130486e+03
2.700000e-06	-3.296411e-06	-1.772963e-08	-2.381741e+01	-1.162719e+03
2.710000e-06	-3.432175e-06	-1.820533e-08	-2.479834e+01	-1.192398e+03
2.720000e-06	-3.566648e-06	-1.864828e-08	-2.576994e+01	-1.220048e+03
2.730000e-06	-3.699722e-06	-1.906170e-08	-2.673143e+01	-1.246098e+03
2.740000e-06	-3.831436e-06	-1.945024e-08	-2.768310e+01	-1.270852e+03
2.750000e-06	-3.961841e-06	-1.981299e-08	-2.862532e+01	-1.294493e+03
2.760000e-06	-4.090925e-06	-2.014820e-08	-2.955798e+01	-1.317090e+03
2.770000e-06	-4.218666e-06	-2.046165e-08	-3.048094e+01	-1.338628e+03
2.780000e-06	-4.344891e-06	-2.075701e-08	-3.139295e+01	-1.359037e+03
2.790000e-06	-4.469578e-06	-2.103563e-08	-3.229384e+01	-1.378234e+03
2.800000e-06	-4.592733e-06	-2.129843e-08	-3.318367e+01	-1.396152e+03
2.810000e-06	-4.714249e-06	-2.154853e-08	-3.406165e+01	-1.412765e+03
2.820000e-06	-4.834028e-06	-2.178740e-08	-3.492709e+01	-1.428106e+03
2.830000e-06	-4.951904e-06	-2.201372e-08	-3.577878e+01	-1.442266e+03
2.840000e-06	-5.067833e-06	-2.222720e-08	-3.661639e+01	-1.455388e+03
2.850000e-06	-5.181773e-06	-2.242763e-08	-3.743963e+01	-1.467647e+03
2.860000e-06	-5.293609e-06	-2.261687e-08	-3.824768e+01	-1.479229e+03
2.870000e-06	-5.403435e-06	-2.279545e-08	-3.904120e+01	-1.490306e+03
2.880000e-06	-5.511355e-06	-2.296333e-08	-3.982095e+01	-1.501015e+03
2.890000e-06	-5.617394e-06	-2.312195e-08	-4.058711e+01	-1.511443e+03
2.900000e-06	-5.721469e-06	-2.327375e-08	-4.133907e+01	-1.521619e+03
2.910000e-06	-5.823324e-06	-2.341976e-08	-4.207500e+01	-1.531522e+03
2.920000e-06	-5.922949e-06	-2.355948e-08	-4.279482e+01	-1.541086e+03
2.930000e-06	-6.020496e-06	-2.369239e-08	-4.349962e+01	-1.550220e+03
2.940000e-06	-6.115938e-06	-2.381755e-08	-4.418921e+01	-1.558831e+03
