# Temperatura_=_37.81
# Concentracion g/m^3_=_28370.0
# C_Vs_to_Am_M_A/Vsm_=_65563218390.804596
# pendiente_HvsI_1/m_=_3716.3
# ordenada_HvsI_A/m_=_1297.0
# frecuencia_Hz_=_302550.98401540716

Tiempo_(s)	Campo_(V.s)	Magnetizacion_(V.s)	Campo_(kA/m)	Magnetizacion_(A/m)
0.000000e+00	-7.895515e-06	-2.398045e-08	-5.683957e+01	-1.569104e+03
1.000000e-08	-7.892176e-06	-2.397829e-08	-5.681553e+01	-1.568409e+03
2.000000e-08	-7.886234e-06	-2.397086e-08	-5.677276e+01	-1.567666e+03
3.000000e-08	-7.877700e-06	-2.396208e-08	-5.671132e+01	-1.566924e+03
4.000000e-08	-7.866378e-06	-2.395261e-08	-5.662981e+01	-1.566211e+03
5.000000e-08	-7.852138e-06	-2.393904e-08	-5.652730e+01	-1.565528e+03
6.000000e-08	-7.835105e-06	-2.391979e-08	-5.640468e+01	-1.564850e+03
7.000000e-08	-7.815682e-06	-2.389849e-08	-5.626486e+01	-1.564136e+03
8.000000e-08	-7.794034e-06	-2.388711e-08	-5.610901e+01	-1.563329e+03
9.000000e-08	-7.769670e-06	-2.390134e-08	-5.593362e+01	-1.562372e+03
1.000000e-07	-7.742104e-06	-2.388209e-08	-5.573517e+01	-1.561218e+03
1.100000e-07	-7.711495e-06	-2.382931e-08	-5.551481e+01	-1.559837e+03
1.200000e-07	-7.678089e-06	-2.379469e-08	-5.527432e+01	-1.558222e+03
1.300000e-07	-7.641990e-06	-2.376805e-08	-5.501445e+01	-1.556390e+03
1.400000e-07	-7.603539e-06	-2.372333e-08	-5.473765e+01	-1.554377e+03
1.500000e-07	-7.562831e-06	-2.366203e-08	-5.444459e+01	-1.552235e+03
1.600000e-07	-7.519791e-06	-2.366776e-08	-5.413475e+01	-1.550016e+03
1.700000e-07	-7.474214e-06	-2.366382e-08	-5.380664e+01	-1.547766e+03
1.800000e-07	-7.425889e-06	-2.356124e-08	-5.345875e+01	-1.545511e+03
1.900000e-07	-7.374733e-06	-2.355202e-08	-5.309048e+01	-1.543253e+03
2.000000e-07	-7.320701e-06	-2.352742e-08	-5.270150e+01	-1.540965e+03
2.100000e-07	-7.263943e-06	-2.345819e-08	-5.229291e+01	-1.538594e+03
2.200000e-07	-7.204498e-06	-2.342591e-08	-5.186496e+01	-1.536071e+03
2.300000e-07	-7.142405e-06	-2.337308e-08	-5.141795e+01	-1.533314e+03
2.400000e-07	-7.077676e-06	-2.332856e-08	-5.095197e+01	-1.530246e+03
2.500000e-07	-7.010220e-06	-2.324688e-08	-5.046636e+01	-1.526809e+03
2.600000e-07	-6.940099e-06	-2.319348e-08	-4.996156e+01	-1.522966e+03
2.700000e-07	-6.867240e-06	-2.312752e-08	-4.943705e+01	-1.518715e+03
2.800000e-07	-6.791662e-06	-2.305549e-08	-4.889297e+01	-1.514086e+03
2.900000e-07	-6.713390e-06	-2.299288e-08	-4.832948e+01	-1.509134e+03
3.000000e-07	-6.632400e-06	-2.292183e-08	-4.774644e+01	-1.503936e+03
3.100000e-07	-6.549000e-06	-2.285050e-08	-4.714605e+01	-1.498571e+03
3.200000e-07	-6.463430e-06	-2.276382e-08	-4.653003e+01	-1.493109e+03
3.300000e-07	-6.375588e-06	-2.268931e-08	-4.589767e+01	-1.487600e+03
3.400000e-07	-6.285355e-06	-2.259946e-08	-4.524808e+01	-1.482059e+03
3.500000e-07	-6.192859e-06	-2.250524e-08	-4.458220e+01	-1.476464e+03
3.600000e-07	-6.098145e-06	-2.241856e-08	-4.390036e+01	-1.470758e+03
3.700000e-07	-6.001148e-06	-2.232446e-08	-4.320208e+01	-1.464856e+03
3.800000e-07	-5.901934e-06	-2.222096e-08	-4.248784e+01	-1.458653e+03
3.900000e-07	-5.800630e-06	-2.211311e-08	-4.175856e+01	-1.452046e+03
4.000000e-07	-5.697279e-06	-2.200002e-08	-4.101454e+01	-1.444943e+03
4.100000e-07	-5.591925e-06	-2.187353e-08	-4.025609e+01	-1.437282e+03
4.200000e-07	-5.484665e-06	-2.174729e-08	-3.948394e+01	-1.429035e+03
4.300000e-07	-5.375526e-06	-2.162227e-08	-3.869825e+01	-1.420218e+03
4.400000e-07	-5.264411e-06	-2.149004e-08	-3.789833e+01	-1.410878e+03
4.500000e-07	-5.151224e-06	-2.134871e-08	-3.708351e+01	-1.401090e+03
4.600000e-07	-5.036071e-06	-2.120537e-08	-3.625452e+01	-1.390940e+03
4.700000e-07	-4.919074e-06	-2.105342e-08	-3.541226e+01	-1.380504e+03
4.800000e-07	-4.800231e-06	-2.089038e-08	-3.455671e+01	-1.369835e+03
4.900000e-07	-4.679620e-06	-2.072268e-08	-3.368844e+01	-1.358947e+03
5.000000e-07	-4.557289e-06	-2.054896e-08	-3.280778e+01	-1.347806e+03
5.100000e-07	-4.433307e-06	-2.036084e-08	-3.191524e+01	-1.336332e+03
5.200000e-07	-4.307699e-06	-2.016012e-08	-3.101099e+01	-1.324401e+03
5.300000e-07	-4.180504e-06	-1.995509e-08	-3.009532e+01	-1.311865e+03
5.400000e-07	-4.051800e-06	-1.974296e-08	-2.916879e+01	-1.298568e+03
5.500000e-07	-3.921550e-06	-1.951928e-08	-2.823111e+01	-1.284367e+03
5.600000e-07	-3.789821e-06	-1.928370e-08	-2.728280e+01	-1.269149e+03
5.700000e-07	-3.656703e-06	-1.903999e-08	-2.632449e+01	-1.252848e+03
5.800000e-07	-3.522180e-06	-1.878182e-08	-2.535606e+01	-1.235450e+03
5.900000e-07	-3.386319e-06	-1.850896e-08	-2.437800e+01	-1.216985e+03
6.000000e-07	-3.249106e-06	-1.822135e-08	-2.339022e+01	-1.197521e+03
6.100000e-07	-3.110530e-06	-1.792097e-08	-2.239261e+01	-1.177136e+03
6.200000e-07	-2.970687e-06	-1.760422e-08	-2.138588e+01	-1.155893e+03
6.300000e-07	-2.829583e-06	-1.726668e-08	-2.037008e+01	-1.133816e+03
6.400000e-07	-2.687301e-06	-1.690843e-08	-1.934580e+01	-1.110858e+03
6.500000e-07	-2.543956e-06	-1.652938e-08	-1.831386e+01	-1.086889e+03
6.600000e-07	-2.399733e-06	-1.612956e-08	-1.727560e+01	-1.061688e+03
6.700000e-07	-2.254751e-06	-1.570435e-08	-1.623189e+01	-1.034950e+03
6.800000e-07	-2.108976e-06	-1.525195e-08	-1.518245e+01	-1.006303e+03
6.900000e-07	-1.962410e-06	-1.476798e-08	-1.412733e+01	-9.753422e+02
7.000000e-07	-1.815179e-06	-1.424704e-08	-1.306742e+01	-9.416674e+02
7.100000e-07	-1.667449e-06	-1.368618e-08	-1.200392e+01	-9.049241e+02
7.200000e-07	-1.519284e-06	-1.308380e-08	-1.093728e+01	-8.648436e+02
7.300000e-07	-1.370632e-06	-1.243751e-08	-9.867136e+00	-8.212736e+02
7.400000e-07	-1.221462e-06	-1.174341e-08	-8.793270e+00	-7.741970e+02
7.500000e-07	-1.071891e-06	-1.099831e-08	-7.716512e+00	-7.237351e+02
7.600000e-07	-9.219846e-07	-1.019856e-08	-6.637339e+00	-6.701342e+02
7.700000e-07	-7.717223e-07	-9.343494e-09	-5.555605e+00	-6.137375e+02
7.800000e-07	-6.212061e-07	-8.437392e-09	-4.472044e+00	-5.549460e+02
7.900000e-07	-4.704736e-07	-7.489591e-09	-3.386925e+00	-4.941726e+02
8.000000e-07	-3.195066e-07	-6.509227e-09	-2.300118e+00	-4.317972e+02
8.100000e-07	-1.684309e-07	-5.505797e-09	-1.212529e+00	-3.681280e+02
8.200000e-07	-1.725362e-08	-4.491538e-09	-1.242083e-01	-3.033754e+02
8.300000e-07	1.340142e-07	-3.477626e-09	9.647642e-01	-2.376416e+02
8.400000e-07	2.852371e-07	-2.468398e-09	2.053413e+00	-1.709292e+02
8.500000e-07	4.363832e-07	-1.458841e-09	3.141509e+00	-1.031662e+02
8.600000e-07	5.873896e-07	-4.437247e-10	4.228600e+00	-3.424599e+01
8.700000e-07	7.381649e-07	5.847565e-10	5.314027e+00	3.592446e+01
8.800000e-07	8.886927e-07	1.635138e-09	6.397671e+00	1.073739e+02
8.900000e-07	1.038951e-06	2.718316e-09	7.479373e+00	1.800212e+02
9.000000e-07	1.188861e-06	3.837489e-09	8.558571e+00	2.536415e+02
9.100000e-07	1.338334e-06	4.986009e-09	9.634627e+00	3.278494e+02
9.200000e-07	1.487325e-06	6.153907e-09	1.070721e+01	4.021022e+02
9.300000e-07	1.635788e-06	7.319721e-09	1.177599e+01	4.757237e+02
9.400000e-07	1.783654e-06	8.455591e-09	1.284047e+01	5.479460e+02
9.500000e-07	1.930947e-06	9.536656e-09	1.390083e+01	6.179660e+02
9.600000e-07	2.077618e-06	1.055243e-08	1.495671e+01	6.850078e+02
9.700000e-07	2.223406e-06	1.149575e-08	1.600623e+01	7.483855e+02
9.800000e-07	2.368268e-06	1.236284e-08	1.704909e+01	8.075583e+02
9.900000e-07	2.512268e-06	1.315699e-08	1.808574e+01	8.621712e+02
1.000000e-06	2.655311e-06	1.388397e-08	1.911550e+01	9.120770e+02
1.010000e-06	2.797309e-06	1.455052e-08	2.013774e+01	9.573371e+02
1.020000e-06	2.938206e-06	1.516333e-08	2.115206e+01	9.982023e+02
1.030000e-06	3.077971e-06	1.572856e-08	2.215822e+01	1.035075e+03
1.040000e-06	3.216558e-06	1.624995e-08	2.315591e+01	1.068461e+03
1.050000e-06	3.353837e-06	1.673204e-08	2.414417e+01	1.098912e+03
1.060000e-06	3.489804e-06	1.717750e-08	2.512299e+01	1.126971e+03
1.070000e-06	3.624503e-06	1.758987e-08	2.609269e+01	1.153124e+03
1.080000e-06	3.757872e-06	1.797447e-08	2.705280e+01	1.177768e+03
1.090000e-06	3.889880e-06	1.833363e-08	2.800313e+01	1.201186e+03
1.100000e-06	4.020552e-06	1.867157e-08	2.894383e+01	1.223545e+03
1.110000e-06	4.149777e-06	1.898884e-08	2.987411e+01	1.244911e+03
1.120000e-06	4.277537e-06	1.928621e-08	3.079386e+01	1.265269e+03
1.130000e-06	4.403835e-06	1.956595e-08	3.170307e+01	1.284556e+03
1.140000e-06	4.528624e-06	1.982781e-08	3.260142e+01	1.302695e+03
1.150000e-06	4.651889e-06	2.007315e-08	3.348881e+01	1.319624e+03
1.160000e-06	4.773508e-06	2.030495e-08	3.436434e+01	1.335322e+03
1.170000e-06	4.893389e-06	2.052392e-08	3.522735e+01	1.349820e+03
1.180000e-06	5.011501e-06	2.072999e-08	3.607764e+01	1.363206e+03
1.190000e-06	5.127797e-06	2.092481e-08	3.691486e+01	1.375611e+03
1.200000e-06	5.242045e-06	2.111001e-08	3.773732e+01	1.387202e+03
1.210000e-06	5.354168e-06	2.128755e-08	3.854449e+01	1.398150e+03
1.220000e-06	5.464371e-06	2.145639e-08	3.933784e+01	1.408614e+03
1.230000e-06	5.572772e-06	2.161659e-08	4.011821e+01	1.418722e+03
1.240000e-06	5.679190e-06	2.176859e-08	4.088431e+01	1.428551e+03
1.250000e-06	5.783404e-06	2.191261e-08	4.163455e+01	1.438129e+03
1.260000e-06	5.885439e-06	2.204783e-08	4.236910e+01	1.447434e+03
1.270000e-06	5.985364e-06	2.217534e-08	4.308845e+01	1.456403e+03
1.280000e-06	6.083047e-06	2.229619e-08	4.379167e+01	1.464953e+03
1.290000e-06	6.178391e-06	2.241022e-08	4.447805e+01	1.472998e+03
1.300000e-06	6.271543e-06	2.251927e-08	4.514864e+01	1.480468e+03
1.310000e-06	6.362538e-06	2.262310e-08	4.580372e+01	1.487321e+03
1.320000e-06	6.451241e-06	2.271898e-08	4.644229e+01	1.493560e+03
1.330000e-06	6.537683e-06	2.280788e-08	4.706458e+01	1.499227e+03
1.340000e-06	6.621922e-06	2.289292e-08	4.767101e+01	1.504404e+03
1.350000e-06	6.703733e-06	2.297266e-08	4.825997e+01	1.509197e+03
1.360000e-06	6.782949e-06	2.304705e-08	4.883024e+01	1.513725e+03
1.370000e-06	6.859664e-06	2.311864e-08	4.938251e+01	1.518098e+03
1.380000e-06	6.933790e-06	2.318835e-08	4.991614e+01	1.522406e+03
1.390000e-06	7.005341e-06	2.325466e-08	5.043124e+01	1.526703e+03
1.400000e-06	7.074462e-06	2.331666e-08	5.092883e+01	1.531005e+03
1.410000e-06	7.141045e-06	2.337623e-08	5.140816e+01	1.535287e+03
1.420000e-06	7.205037e-06	2.343265e-08	5.186884e+01	1.539490e+03
1.430000e-06	7.266541e-06	2.348608e-08	5.231160e+01	1.543536e+03
1.440000e-06	7.325641e-06	2.353673e-08	5.273707e+01	1.547338e+03
1.450000e-06	7.382133e-06	2.358408e-08	5.314375e+01	1.550820e+03
1.460000e-06	7.435888e-06	2.363007e-08	5.353073e+01	1.553924e+03
1.470000e-06	7.486693e-06	2.367384e-08	5.389647e+01	1.556626e+03
1.480000e-06	7.534477e-06	2.371281e-08	5.424047e+01	1.558936e+03
1.490000e-06	7.579619e-06	2.374761e-08	5.456544e+01	1.560895e+03
1.500000e-06	7.622120e-06	2.377747e-08	5.487141e+01	1.562570e+03
1.510000e-06	7.661795e-06	2.380512e-08	5.515703e+01	1.564041e+03
1.520000e-06	7.698794e-06	2.383185e-08	5.542338e+01	1.565388e+03
1.530000e-06	7.733124e-06	2.385668e-08	5.567052e+01	1.566680e+03
1.540000e-06	7.764613e-06	2.387738e-08	5.589721e+01	1.567962e+03
1.550000e-06	7.793420e-06	2.389359e-08	5.610459e+01	1.569249e+03
1.560000e-06	7.819500e-06	2.390828e-08	5.629234e+01	1.570529e+03
1.570000e-06	7.842603e-06	2.392067e-08	5.645866e+01	1.571759e+03
1.580000e-06	7.862896e-06	2.393192e-08	5.660475e+01	1.572885e+03
1.590000e-06	7.880478e-06	2.394206e-08	5.673132e+01	1.573840e+03
1.600000e-06	7.895133e-06	2.395082e-08	5.683682e+01	1.574567e+03
1.610000e-06	7.906703e-06	2.395754e-08	5.692011e+01	1.575023e+03
1.620000e-06	7.915130e-06	2.396082e-08	5.698078e+01	1.575190e+03
1.630000e-06	7.920694e-06	2.396256e-08	5.702083e+01	1.575077e+03
1.640000e-06	7.923551e-06	2.396314e-08	5.704140e+01	1.574719e+03
1.650000e-06	7.923565e-06	2.396048e-08	5.704150e+01	1.574169e+03
1.660000e-06	7.920923e-06	2.395217e-08	5.702248e+01	1.573493e+03
1.670000e-06	7.915683e-06	2.394534e-08	5.698476e+01	1.572755e+03
1.680000e-06	7.907756e-06	2.394147e-08	5.692769e+01	1.572008e+03
1.690000e-06	7.897185e-06	2.393401e-08	5.685159e+01	1.571285e+03
1.700000e-06	7.883817e-06	2.392420e-08	5.675536e+01	1.570593e+03
1.710000e-06	7.867765e-06	2.391403e-08	5.663980e+01	1.569916e+03
1.720000e-06	7.849384e-06	2.390208e-08	5.650748e+01	1.569214e+03
1.730000e-06	7.828692e-06	2.386414e-08	5.635851e+01	1.568433e+03
1.740000e-06	7.805183e-06	2.380647e-08	5.618927e+01	1.567517e+03
1.750000e-06	7.778148e-06	2.380406e-08	5.599465e+01	1.566414e+03
1.760000e-06	7.747491e-06	2.380743e-08	5.577395e+01	1.565090e+03
1.770000e-06	7.713934e-06	2.377708e-08	5.553237e+01	1.563531e+03
1.780000e-06	7.678135e-06	2.375693e-08	5.527466e+01	1.561748e+03
1.790000e-06	7.640081e-06	2.377882e-08	5.500071e+01	1.559774e+03
1.800000e-06	7.599892e-06	2.372928e-08	5.471139e+01	1.557657e+03
1.810000e-06	7.557619e-06	2.366582e-08	5.440706e+01	1.555451e+03
1.820000e-06	7.512708e-06	2.372356e-08	5.408375e+01	1.553204e+03
1.830000e-06	7.465123e-06	2.367289e-08	5.374119e+01	1.550947e+03
1.840000e-06	7.414824e-06	2.364179e-08	5.337909e+01	1.548689e+03
1.850000e-06	7.361532e-06	2.361620e-08	5.299544e+01	1.546410e+03
1.860000e-06	7.305436e-06	2.355744e-08	5.259161e+01	1.544064e+03
1.870000e-06	7.246680e-06	2.353614e-08	5.216862e+01	1.541585e+03
1.880000e-06	7.185326e-06	2.343991e-08	5.172694e+01	1.538891e+03
1.890000e-06	7.121246e-06	2.341927e-08	5.126563e+01	1.535906e+03
1.900000e-06	7.054444e-06	2.337468e-08	5.078472e+01	1.532564e+03
1.910000e-06	6.984952e-06	2.330637e-08	5.028446e+01	1.528822e+03
1.920000e-06	6.912600e-06	2.326247e-08	4.976360e+01	1.524670e+03
1.930000e-06	6.837579e-06	2.318860e-08	4.922352e+01	1.520129e+03
1.940000e-06	6.759914e-06	2.313760e-08	4.866441e+01	1.515249e+03
1.950000e-06	6.679613e-06	2.305077e-08	4.808633e+01	1.510103e+03
1.960000e-06	6.596830e-06	2.297703e-08	4.749038e+01	1.504770e+03
1.970000e-06	6.511526e-06	2.289978e-08	4.687628e+01	1.499325e+03
1.980000e-06	6.423803e-06	2.282242e-08	4.624476e+01	1.493823e+03
1.990000e-06	6.333799e-06	2.274683e-08	4.559683e+01	1.488289e+03
2.000000e-06	6.241630e-06	2.264778e-08	4.493330e+01	1.482710e+03
2.010000e-06	6.147234e-06	2.255957e-08	4.425375e+01	1.477037e+03
2.020000e-06	6.050621e-06	2.246012e-08	4.355823e+01	1.471191e+03
2.030000e-06	5.951863e-06	2.235772e-08	4.284728e+01	1.465072e+03
2.040000e-06	5.850934e-06	2.224653e-08	4.212070e+01	1.458573e+03
2.050000e-06	5.747905e-06	2.214646e-08	4.137899e+01	1.451599e+03
2.060000e-06	5.642899e-06	2.203360e-08	4.062305e+01	1.444079e+03
2.070000e-06	5.536005e-06	2.190727e-08	3.985353e+01	1.435978e+03
2.080000e-06	5.427186e-06	2.177652e-08	3.907015e+01	1.427298e+03
2.090000e-06	5.316411e-06	2.164747e-08	3.827268e+01	1.418080e+03
2.100000e-06	5.203652e-06	2.151112e-08	3.746093e+01	1.408395e+03
2.110000e-06	5.088923e-06	2.136398e-08	3.663500e+01	1.398325e+03
2.120000e-06	4.972244e-06	2.121521e-08	3.579503e+01	1.387953e+03
2.130000e-06	4.853659e-06	2.105609e-08	3.494134e+01	1.377337e+03
2.140000e-06	4.733234e-06	2.088794e-08	3.407441e+01	1.366504e+03
2.150000e-06	4.611024e-06	2.071276e-08	3.319462e+01	1.355430e+03
2.160000e-06	4.487127e-06	2.053795e-08	3.230269e+01	1.344047e+03
2.170000e-06	4.361559e-06	2.035192e-08	3.139873e+01	1.332241e+03
2.180000e-06	4.234381e-06	2.015780e-08	3.048318e+01	1.319869e+03
2.190000e-06	4.105680e-06	1.995389e-08	2.955666e+01	1.306775e+03
2.200000e-06	3.975517e-06	1.974017e-08	2.861962e+01	1.292810e+03
2.210000e-06	3.843890e-06	1.951197e-08	2.767205e+01	1.277853e+03
2.220000e-06	3.710854e-06	1.927249e-08	2.671432e+01	1.261824e+03
2.230000e-06	3.576425e-06	1.901987e-08	2.574657e+01	1.244697e+03
2.240000e-06	3.440668e-06	1.875304e-08	2.476926e+01	1.226492e+03
2.250000e-06	3.303640e-06	1.847166e-08	2.378281e+01	1.207268e+03
2.260000e-06	3.165294e-06	1.817799e-08	2.278686e+01	1.187104e+03
2.270000e-06	3.025693e-06	1.787063e-08	2.178187e+01	1.166070e+03
2.280000e-06	2.884902e-06	1.754323e-08	2.076832e+01	1.144201e+03
2.290000e-06	2.743000e-06	1.719758e-08	1.974677e+01	1.121470e+03
2.300000e-06	2.600083e-06	1.683235e-08	1.871791e+01	1.097769e+03
2.310000e-06	2.456292e-06	1.644383e-08	1.768277e+01	1.072900e+03
2.320000e-06	2.311652e-06	1.602879e-08	1.664151e+01	1.046576e+03
2.330000e-06	2.166188e-06	1.558486e-08	1.559432e+01	1.018442e+03
2.340000e-06	2.019966e-06	1.510882e-08	1.454168e+01	9.880963e+02
2.350000e-06	1.873009e-06	1.459708e-08	1.348373e+01	9.551338e+02
2.360000e-06	1.725402e-06	1.404897e-08	1.242112e+01	9.191849e+02
2.370000e-06	1.577288e-06	1.346129e-08	1.135485e+01	8.799560e+02
2.380000e-06	1.428816e-06	1.282938e-08	1.028601e+01	8.372635e+02
2.390000e-06	1.279987e-06	1.214885e-08	9.214584e+00	7.910556e+02
2.400000e-06	1.130658e-06	1.141512e-08	8.139575e+00	7.414196e+02
2.410000e-06	9.807848e-07	1.062867e-08	7.060640e+00	6.885725e+02
2.420000e-06	8.304627e-07	9.788546e-09	5.978475e+00	6.328368e+02
2.430000e-06	6.798460e-07	8.897678e-09	4.894191e+00	5.746031e+02
2.440000e-06	5.290589e-07	7.961668e-09	3.808679e+00	5.142856e+02
2.450000e-06	3.781103e-07	6.986787e-09	2.722005e+00	4.522765e+02
2.460000e-06	2.270268e-07	5.983399e-09	1.634359e+00	3.889050e+02
2.470000e-06	7.586462e-08	4.964912e-09	5.461471e-01	3.244075e+02
2.480000e-06	-7.534257e-08	3.943569e-09	-5.423888e-01	2.589133e+02
2.490000e-06	-2.265113e-07	2.924895e-09	-1.630648e+00	1.924480e+02
2.500000e-06	-3.776285e-07	1.907126e-09	-2.718536e+00	1.249552e+02
2.510000e-06	-5.286652e-07	8.872019e-10	-3.805845e+00	5.633254e+01
2.520000e-06	-6.795730e-07	-1.428687e-10	-4.892225e+00	-1.352121e+01
2.530000e-06	-8.303085e-07	-1.191735e-09	-5.977365e+00	-8.465542e+01
2.540000e-06	-9.807307e-07	-2.268594e-09	-7.060250e+00	-1.570202e+02
2.550000e-06	-1.130718e-06	-3.380740e-09	-8.140005e+00	-2.304289e+02
2.560000e-06	-1.280263e-06	-4.524713e-09	-9.216574e+00	-3.045368e+02
2.570000e-06	-1.429334e-06	-5.690409e-09	-1.028973e+01	-3.788391e+02
2.580000e-06	-1.577872e-06	-6.861531e-09	-1.135905e+01	-4.526895e+02
2.590000e-06	-1.725912e-06	-8.014279e-09	-1.242479e+01	-5.253385e+02
2.600000e-06	-1.873374e-06	-9.123570e-09	-1.348636e+01	-5.959859e+02
2.610000e-06	-2.020109e-06	-1.017330e-08	-1.454270e+01	-6.638430e+02
2.620000e-06	-2.166047e-06	-1.115248e-08	-1.559331e+01	-7.281958e+02
2.630000e-06	-2.311124e-06	-1.205345e-08	-1.663771e+01	-7.884629e+02
2.640000e-06	-2.455299e-06	-1.287804e-08	-1.767563e+01	-8.442398e+02
2.650000e-06	-2.598554e-06	-1.363167e-08	-1.870691e+01	-8.953264e+02
2.660000e-06	-2.740754e-06	-1.432197e-08	-1.973060e+01	-9.417332e+02
2.670000e-06	-2.881758e-06	-1.495619e-08	-2.074569e+01	-9.836664e+02
2.680000e-06	-3.021587e-06	-1.553978e-08	-2.175232e+01	-1.021495e+03
2.690000e-06	-3.160270e-06	-1.607691e-08	-2.275069e+01	-1.055704e+03
2.700000e-06	-3.297769e-06	-1.657218e-08	-2.374054e+01	-1.086838e+03
2.710000e-06	-3.434085e-06	-1.702905e-08	-2.472187e+01	-1.115448e+03
2.720000e-06	-3.569127e-06	-1.745312e-08	-2.569404e+01	-1.142039e+03
2.730000e-06	-3.702833e-06	-1.784971e-08	-2.665658e+01	-1.167031e+03
2.740000e-06	-3.835244e-06	-1.822052e-08	-2.760980e+01	-1.190737e+03
2.750000e-06	-3.966293e-06	-1.856732e-08	-2.855322e+01	-1.213353e+03
2.760000e-06	-4.095941e-06	-1.889012e-08	-2.948655e+01	-1.234968e+03
2.770000e-06	-4.224210e-06	-1.919319e-08	-3.040996e+01	-1.255585e+03
2.780000e-06	-4.350994e-06	-1.947865e-08	-3.132267e+01	-1.275149e+03
2.790000e-06	-4.476238e-06	-1.974727e-08	-3.222430e+01	-1.293583e+03
2.800000e-06	-4.599942e-06	-1.999963e-08	-3.311484e+01	-1.310820e+03
2.810000e-06	-4.722013e-06	-2.023852e-08	-3.399362e+01	-1.326827e+03
2.820000e-06	-4.842401e-06	-2.046742e-08	-3.486030e+01	-1.341621e+03
2.830000e-06	-4.960935e-06	-2.068484e-08	-3.571362e+01	-1.355276e+03
2.840000e-06	-5.077391e-06	-2.088872e-08	-3.655198e+01	-1.367914e+03
2.850000e-06	-5.191788e-06	-2.107897e-08	-3.737552e+01	-1.379694e+03
2.860000e-06	-5.304175e-06	-2.125864e-08	-3.818459e+01	-1.390788e+03
2.870000e-06	-5.414506e-06	-2.142821e-08	-3.897886e+01	-1.401362e+03
2.880000e-06	-5.522911e-06	-2.158737e-08	-3.975927e+01	-1.411551e+03
2.890000e-06	-5.629507e-06	-2.173956e-08	-4.052665e+01	-1.421448e+03
2.900000e-06	-5.734131e-06	-2.188608e-08	-4.127983e+01	-1.431091e+03
2.910000e-06	-5.836523e-06	-2.202576e-08	-4.201695e+01	-1.440470e+03
2.920000e-06	-5.936657e-06	-2.215880e-08	-4.273781e+01	-1.449532e+03
2.930000e-06	-6.034740e-06	-2.228457e-08	-4.344391e+01	-1.458198e+03
2.940000e-06	-6.130768e-06	-2.240278e-08	-4.413521e+01	-1.466379e+03
