# Temperatura_=_70.6
# Concentracion g/m^3_=_28370.0
# C_Vs_to_Am_M_A/Vsm_=_65563218390.804596
# pendiente_HvsI_1/m_=_3716.3
# ordenada_HvsI_A/m_=_1297.0
# frecuencia_Hz_=_302553.8243306918

Tiempo_(s)	Campo_(V.s)	Magnetizacion_(V.s)	Campo_(kA/m)	Magnetizacion_(A/m)
0.000000e+00	-7.855164e-06	-2.752879e-08	-5.683554e+01	-1.802168e+03
1.000000e-08	-7.851951e-06	-2.752383e-08	-5.681229e+01	-1.801366e+03
2.000000e-08	-7.846046e-06	-2.751113e-08	-5.676957e+01	-1.800508e+03
3.000000e-08	-7.837602e-06	-2.749858e-08	-5.670847e+01	-1.799639e+03
4.000000e-08	-7.826430e-06	-2.748860e-08	-5.662764e+01	-1.798775e+03
5.000000e-08	-7.812381e-06	-2.747428e-08	-5.652599e+01	-1.797907e+03
6.000000e-08	-7.795529e-06	-2.745135e-08	-5.640406e+01	-1.797001e+03
7.000000e-08	-7.776264e-06	-2.742403e-08	-5.626466e+01	-1.796005e+03
8.000000e-08	-7.754768e-06	-2.740143e-08	-5.610913e+01	-1.794858e+03
9.000000e-08	-7.730584e-06	-2.743032e-08	-5.593415e+01	-1.793504e+03
1.000000e-07	-7.703234e-06	-2.741310e-08	-5.573626e+01	-1.791900e+03
1.100000e-07	-7.672899e-06	-2.732696e-08	-5.551678e+01	-1.790024e+03
1.200000e-07	-7.639786e-06	-2.727800e-08	-5.527719e+01	-1.787883e+03
1.300000e-07	-7.603924e-06	-2.725055e-08	-5.501771e+01	-1.785507e+03
1.400000e-07	-7.565685e-06	-2.719150e-08	-5.474104e+01	-1.782944e+03
1.500000e-07	-7.525324e-06	-2.711589e-08	-5.444901e+01	-1.780256e+03
1.600000e-07	-7.482638e-06	-2.714843e-08	-5.414015e+01	-1.777498e+03
1.700000e-07	-7.437351e-06	-2.713697e-08	-5.381248e+01	-1.774714e+03
1.800000e-07	-7.389452e-06	-2.699148e-08	-5.346591e+01	-1.771922e+03
1.900000e-07	-7.338710e-06	-2.699647e-08	-5.309877e+01	-1.769112e+03
2.000000e-07	-7.284938e-06	-2.694652e-08	-5.270971e+01	-1.766240e+03
2.100000e-07	-7.228421e-06	-2.686508e-08	-5.230078e+01	-1.763238e+03
2.200000e-07	-7.169285e-06	-2.683708e-08	-5.187291e+01	-1.760018e+03
2.300000e-07	-7.107562e-06	-2.674328e-08	-5.142632e+01	-1.756488e+03
2.400000e-07	-7.043241e-06	-2.669918e-08	-5.096092e+01	-1.752567e+03
2.500000e-07	-6.976215e-06	-2.660329e-08	-5.047596e+01	-1.748193e+03
2.600000e-07	-6.906530e-06	-2.653892e-08	-4.997176e+01	-1.743336e+03
2.700000e-07	-6.834147e-06	-2.646482e-08	-4.944804e+01	-1.738005e+03
2.800000e-07	-6.759037e-06	-2.638257e-08	-4.890459e+01	-1.732243e+03
2.900000e-07	-6.681211e-06	-2.630207e-08	-4.834148e+01	-1.726122e+03
3.000000e-07	-6.600644e-06	-2.619889e-08	-4.775854e+01	-1.719729e+03
3.100000e-07	-6.517621e-06	-2.611938e-08	-4.715783e+01	-1.713154e+03
3.200000e-07	-6.432473e-06	-2.601256e-08	-4.654175e+01	-1.706472e+03
3.300000e-07	-6.345171e-06	-2.592009e-08	-4.591008e+01	-1.699729e+03
3.400000e-07	-6.255494e-06	-2.580856e-08	-4.526123e+01	-1.692935e+03
3.500000e-07	-6.163462e-06	-2.568642e-08	-4.459534e+01	-1.686057e+03
3.600000e-07	-6.069316e-06	-2.558367e-08	-4.391415e+01	-1.679025e+03
3.700000e-07	-5.972990e-06	-2.546585e-08	-4.321719e+01	-1.671739e+03
3.800000e-07	-5.874396e-06	-2.533747e-08	-4.250382e+01	-1.664087e+03
3.900000e-07	-5.773691e-06	-2.520459e-08	-4.177517e+01	-1.655959e+03
4.000000e-07	-5.671004e-06	-2.506977e-08	-4.103219e+01	-1.647262e+03
4.100000e-07	-5.566321e-06	-2.492089e-08	-4.027476e+01	-1.637938e+03
4.200000e-07	-5.459619e-06	-2.477449e-08	-3.950273e+01	-1.627972e+03
4.300000e-07	-5.350956e-06	-2.462952e-08	-3.871650e+01	-1.617389e+03
4.400000e-07	-5.240360e-06	-2.446884e-08	-3.791629e+01	-1.606250e+03
4.500000e-07	-5.127852e-06	-2.429617e-08	-3.710225e+01	-1.594643e+03
4.600000e-07	-5.013391e-06	-2.412260e-08	-3.627407e+01	-1.582657e+03
4.700000e-07	-4.896962e-06	-2.394265e-08	-3.543165e+01	-1.570372e+03
4.800000e-07	-4.778703e-06	-2.375228e-08	-3.457600e+01	-1.557834e+03
4.900000e-07	-4.658765e-06	-2.355687e-08	-3.370820e+01	-1.545045e+03
5.000000e-07	-4.537205e-06	-2.335278e-08	-3.282866e+01	-1.531955e+03
5.100000e-07	-4.413901e-06	-2.313279e-08	-3.193650e+01	-1.518464e+03
5.200000e-07	-4.288942e-06	-2.289937e-08	-3.103237e+01	-1.504432e+03
5.300000e-07	-4.162485e-06	-2.266300e-08	-3.011739e+01	-1.489694e+03
5.400000e-07	-4.034486e-06	-2.241664e-08	-2.919127e+01	-1.474083e+03
5.500000e-07	-3.905006e-06	-2.215531e-08	-2.825442e+01	-1.457451e+03
5.600000e-07	-3.773989e-06	-2.188085e-08	-2.730646e+01	-1.439690e+03
5.700000e-07	-3.641483e-06	-2.159799e-08	-2.634772e+01	-1.420742e+03
5.800000e-07	-3.507615e-06	-2.130006e-08	-2.537912e+01	-1.400605e+03
5.900000e-07	-3.372371e-06	-2.098588e-08	-2.440058e+01	-1.379323e+03
6.000000e-07	-3.235821e-06	-2.065567e-08	-2.341258e+01	-1.356976e+03
6.100000e-07	-3.098092e-06	-2.031123e-08	-2.241605e+01	-1.333647e+03
6.200000e-07	-2.959123e-06	-1.994814e-08	-2.141055e+01	-1.309397e+03
6.300000e-07	-2.818847e-06	-1.956104e-08	-2.039559e+01	-1.284238e+03
6.400000e-07	-2.677371e-06	-1.915308e-08	-1.937195e+01	-1.258101e+03
6.500000e-07	-2.534859e-06	-1.872317e-08	-1.834081e+01	-1.230828e+03
6.600000e-07	-2.391528e-06	-1.827111e-08	-1.730375e+01	-1.202162e+03
6.700000e-07	-2.247332e-06	-1.778876e-08	-1.626042e+01	-1.171756e+03
6.800000e-07	-2.102170e-06	-1.727500e-08	-1.521012e+01	-1.139203e+03
6.900000e-07	-1.956242e-06	-1.672726e-08	-1.415426e+01	-1.104061e+03
7.000000e-07	-1.809721e-06	-1.613971e-08	-1.309412e+01	-1.065900e+03
7.100000e-07	-1.662663e-06	-1.550893e-08	-1.203010e+01	-1.024341e+03
7.200000e-07	-1.515081e-06	-1.483119e-08	-1.096227e+01	-9.790980e+02
7.300000e-07	-1.366989e-06	-1.410429e-08	-9.890766e+00	-9.300030e+02
7.400000e-07	-1.218506e-06	-1.332192e-08	-8.816422e+00	-8.770241e+02
7.500000e-07	-1.069676e-06	-1.248117e-08	-7.739576e+00	-8.202643e+02
7.600000e-07	-9.204905e-07	-1.157930e-08	-6.660150e+00	-7.599451e+02
7.700000e-07	-7.710055e-07	-1.061554e-08	-5.578561e+00	-6.963759e+02
7.800000e-07	-6.212735e-07	-9.590528e-09	-4.495185e+00	-6.299147e+02
7.900000e-07	-4.713264e-07	-8.510156e-09	-3.410252e+00	-5.609240e+02
8.000000e-07	-3.211835e-07	-7.386755e-09	-2.323903e+00	-4.897298e+02
8.100000e-07	-1.708674e-07	-6.233488e-09	-1.236300e+00	-4.165900e+02
8.200000e-07	-2.049406e-08	-5.060525e-09	-1.482835e-01	-3.416758e+02
8.300000e-07	1.299073e-07	-3.877897e-09	9.399359e-01	-2.650707e+02
8.400000e-07	2.803104e-07	-2.691922e-09	2.028168e+00	-1.867877e+02
8.500000e-07	4.306052e-07	-1.501680e-09	3.115616e+00	-1.068012e+02
8.600000e-07	5.808013e-07	-3.033232e-10	4.202351e+00	-2.509189e+01
8.700000e-07	7.308545e-07	9.143747e-10	5.288052e+00	5.830458e+01
8.800000e-07	8.807057e-07	2.162618e-09	6.372290e+00	1.432496e+02
8.900000e-07	1.030261e-06	3.452653e-09	7.454386e+00	2.294632e+02
9.000000e-07	1.179447e-06	4.783634e-09	8.533814e+00	3.165017e+02
9.100000e-07	1.328253e-06	6.143154e-09	9.610493e+00	4.037537e+02
9.200000e-07	1.476659e-06	7.512655e-09	1.068427e+01	4.904593e+02
9.300000e-07	1.624542e-06	8.864175e-09	1.175427e+01	5.757486e+02
9.400000e-07	1.771790e-06	1.016748e-08	1.281967e+01	6.586976e+02
9.500000e-07	1.918373e-06	1.139564e-08	1.388027e+01	7.383947e+02
9.600000e-07	2.064267e-06	1.253512e-08	1.493587e+01	8.140100e+02
9.700000e-07	2.209393e-06	1.357887e-08	1.598592e+01	8.848595e+02
9.800000e-07	2.353663e-06	1.452980e-08	1.702978e+01	9.504570e+02
9.900000e-07	2.497076e-06	1.539885e-08	1.806743e+01	1.010547e+03
1.000000e-06	2.639528e-06	1.619466e-08	1.909814e+01	1.065115e+03
1.010000e-06	2.780919e-06	1.692508e-08	2.012116e+01	1.114375e+03
1.020000e-06	2.921195e-06	1.759617e-08	2.113612e+01	1.158736e+03
1.030000e-06	3.060198e-06	1.821633e-08	2.214187e+01	1.198750e+03
1.040000e-06	3.197915e-06	1.878860e-08	2.313831e+01	1.235050e+03
1.050000e-06	3.334385e-06	1.931842e-08	2.412573e+01	1.268291e+03
1.060000e-06	3.469583e-06	1.980692e-08	2.510395e+01	1.299085e+03
1.070000e-06	3.603573e-06	2.025834e-08	2.607342e+01	1.327953e+03
1.080000e-06	3.736337e-06	2.068041e-08	2.703403e+01	1.355297e+03
1.090000e-06	3.867763e-06	2.107732e-08	2.798495e+01	1.381385e+03
1.100000e-06	3.997730e-06	2.145277e-08	2.892532e+01	1.406353e+03
1.110000e-06	4.126231e-06	2.180574e-08	2.985508e+01	1.430229e+03
1.120000e-06	4.253334e-06	2.213798e-08	3.077473e+01	1.452963e+03
1.130000e-06	4.379043e-06	2.245112e-08	3.168429e+01	1.474466e+03
1.140000e-06	4.503244e-06	2.274337e-08	3.258293e+01	1.494649e+03
1.150000e-06	4.625825e-06	2.301534e-08	3.346987e+01	1.513453e+03
1.160000e-06	4.746775e-06	2.327233e-08	3.434499e+01	1.530874e+03
1.170000e-06	4.866073e-06	2.351617e-08	3.520816e+01	1.546973e+03
1.180000e-06	4.983569e-06	2.374797e-08	3.605830e+01	1.561873e+03
1.190000e-06	5.099102e-06	2.396975e-08	3.689422e+01	1.575743e+03
1.200000e-06	5.212685e-06	2.418312e-08	3.771605e+01	1.588782e+03
1.210000e-06	5.324315e-06	2.438413e-08	3.852374e+01	1.601187e+03
1.220000e-06	5.434081e-06	2.457135e-08	3.931795e+01	1.613134e+03
1.230000e-06	5.541974e-06	2.474934e-08	4.009860e+01	1.624751e+03
1.240000e-06	5.647810e-06	2.491975e-08	4.086437e+01	1.636110e+03
1.250000e-06	5.751540e-06	2.508208e-08	4.161490e+01	1.647221e+03
1.260000e-06	5.853171e-06	2.523779e-08	4.235025e+01	1.658040e+03
1.270000e-06	5.952655e-06	2.538718e-08	4.307006e+01	1.668481e+03
1.280000e-06	6.049857e-06	2.553017e-08	4.377335e+01	1.678442e+03
1.290000e-06	6.144765e-06	2.566686e-08	4.446006e+01	1.687818e+03
1.300000e-06	6.237502e-06	2.579620e-08	4.513105e+01	1.696532e+03
1.310000e-06	6.328045e-06	2.591795e-08	4.578617e+01	1.704542e+03
1.320000e-06	6.416301e-06	2.603178e-08	4.642474e+01	1.711855e+03
1.330000e-06	6.502312e-06	2.614077e-08	4.704707e+01	1.718526e+03
1.340000e-06	6.586099e-06	2.624736e-08	4.765330e+01	1.724648e+03
1.350000e-06	6.667529e-06	2.634569e-08	4.824248e+01	1.730343e+03
1.360000e-06	6.746520e-06	2.643522e-08	4.881401e+01	1.735741e+03
1.370000e-06	6.822995e-06	2.651913e-08	4.936735e+01	1.740960e+03
1.380000e-06	6.896805e-06	2.659962e-08	4.990140e+01	1.746095e+03
1.390000e-06	6.968069e-06	2.667613e-08	5.041702e+01	1.751198e+03
1.400000e-06	7.036968e-06	2.674739e-08	5.091554e+01	1.756281e+03
1.410000e-06	7.103340e-06	2.681689e-08	5.139577e+01	1.761312e+03
1.420000e-06	7.167103e-06	2.688451e-08	5.185712e+01	1.766227e+03
1.430000e-06	7.228459e-06	2.694902e-08	5.230105e+01	1.770941e+03
1.440000e-06	7.287359e-06	2.701059e-08	5.272723e+01	1.775366e+03
1.450000e-06	7.343655e-06	2.706972e-08	5.313455e+01	1.779426e+03
1.460000e-06	7.397208e-06	2.712594e-08	5.352203e+01	1.783070e+03
1.470000e-06	7.447749e-06	2.717834e-08	5.388771e+01	1.786280e+03
1.480000e-06	7.495307e-06	2.722579e-08	5.423182e+01	1.789073e+03
1.490000e-06	7.540213e-06	2.726834e-08	5.455673e+01	1.791499e+03
1.500000e-06	7.582508e-06	2.730691e-08	5.486275e+01	1.793631e+03
1.510000e-06	7.622068e-06	2.734269e-08	5.514899e+01	1.795550e+03
1.520000e-06	7.658982e-06	2.737585e-08	5.541608e+01	1.797336e+03
1.530000e-06	7.693236e-06	2.740683e-08	5.566392e+01	1.799051e+03
1.540000e-06	7.724659e-06	2.743486e-08	5.589128e+01	1.800730e+03
1.550000e-06	7.753320e-06	2.745820e-08	5.609866e+01	1.802378e+03
1.560000e-06	7.779193e-06	2.747800e-08	5.628586e+01	1.803971e+03
1.570000e-06	7.802179e-06	2.749278e-08	5.645217e+01	1.805458e+03
1.580000e-06	7.822493e-06	2.750431e-08	5.659915e+01	1.806776e+03
1.590000e-06	7.840045e-06	2.751509e-08	5.672615e+01	1.807860e+03
1.600000e-06	7.854690e-06	2.752405e-08	5.683211e+01	1.808654e+03
1.610000e-06	7.866342e-06	2.753079e-08	5.691641e+01	1.809123e+03
1.620000e-06	7.874890e-06	2.753593e-08	5.697827e+01	1.809258e+03
1.630000e-06	7.880580e-06	2.754102e-08	5.701944e+01	1.809081e+03
1.640000e-06	7.883522e-06	2.754384e-08	5.704072e+01	1.808637e+03
1.650000e-06	7.883629e-06	2.754296e-08	5.704150e+01	1.807990e+03
1.660000e-06	7.881076e-06	2.753102e-08	5.702302e+01	1.807209e+03
1.670000e-06	7.875911e-06	2.751879e-08	5.698565e+01	1.806358e+03
1.680000e-06	7.868021e-06	2.751039e-08	5.692856e+01	1.805486e+03
1.690000e-06	7.857480e-06	2.749823e-08	5.685230e+01	1.804618e+03
1.700000e-06	7.844178e-06	2.748492e-08	5.675605e+01	1.803751e+03
1.710000e-06	7.828209e-06	2.747452e-08	5.664051e+01	1.802857e+03
1.720000e-06	7.809877e-06	2.746420e-08	5.650787e+01	1.801887e+03
1.730000e-06	7.789259e-06	2.742485e-08	5.635869e+01	1.800782e+03
1.740000e-06	7.765904e-06	2.732561e-08	5.618970e+01	1.799482e+03
1.750000e-06	7.739082e-06	2.732349e-08	5.599563e+01	1.797941e+03
1.760000e-06	7.708625e-06	2.734378e-08	5.577527e+01	1.796131e+03
1.770000e-06	7.675206e-06	2.730058e-08	5.553346e+01	1.794052e+03
1.780000e-06	7.639562e-06	2.727284e-08	5.527557e+01	1.791728e+03
1.790000e-06	7.601685e-06	2.730551e-08	5.500151e+01	1.789205e+03
1.800000e-06	7.561750e-06	2.722291e-08	5.471256e+01	1.786540e+03
1.810000e-06	7.519803e-06	2.712838e-08	5.440905e+01	1.783793e+03
1.820000e-06	7.475239e-06	2.722588e-08	5.408661e+01	1.781010e+03
1.830000e-06	7.428039e-06	2.712854e-08	5.374511e+01	1.778218e+03
1.840000e-06	7.378137e-06	2.711850e-08	5.338404e+01	1.775413e+03
1.850000e-06	7.325164e-06	2.708864e-08	5.300076e+01	1.772560e+03
1.860000e-06	7.269374e-06	2.698245e-08	5.259709e+01	1.769595e+03
1.870000e-06	7.210970e-06	2.700271e-08	5.217452e+01	1.766436e+03
1.880000e-06	7.149981e-06	2.686083e-08	5.173323e+01	1.762991e+03
1.890000e-06	7.086264e-06	2.683549e-08	5.127221e+01	1.759172e+03
1.900000e-06	7.019776e-06	2.677425e-08	5.079115e+01	1.754912e+03
1.910000e-06	6.950618e-06	2.667191e-08	5.029076e+01	1.750175e+03
1.920000e-06	6.878661e-06	2.663839e-08	4.977011e+01	1.744958e+03
1.930000e-06	6.804031e-06	2.652125e-08	4.923014e+01	1.739296e+03
1.940000e-06	6.726720e-06	2.648426e-08	4.867075e+01	1.733254e+03
1.950000e-06	6.646763e-06	2.636723e-08	4.809223e+01	1.726918e+03
1.960000e-06	6.564400e-06	2.627553e-08	4.749630e+01	1.720379e+03
1.970000e-06	6.479630e-06	2.618654e-08	4.688295e+01	1.713715e+03
1.980000e-06	6.392445e-06	2.606812e-08	4.625213e+01	1.706983e+03
1.990000e-06	6.302949e-06	2.599258e-08	4.560459e+01	1.700201e+03
2.000000e-06	6.211328e-06	2.585464e-08	4.494167e+01	1.693347e+03
2.010000e-06	6.117525e-06	2.576071e-08	4.426296e+01	1.686359e+03
2.020000e-06	6.021471e-06	2.563408e-08	4.356797e+01	1.679145e+03
2.030000e-06	5.923283e-06	2.551927e-08	4.285754e+01	1.671594e+03
2.040000e-06	5.822985e-06	2.538922e-08	4.213184e+01	1.663592e+03
2.050000e-06	5.720585e-06	2.525607e-08	4.139093e+01	1.655041e+03
2.060000e-06	5.616135e-06	2.511847e-08	4.063519e+01	1.645876e+03
2.070000e-06	5.509745e-06	2.495349e-08	3.986541e+01	1.636067e+03
2.080000e-06	5.401509e-06	2.480656e-08	3.908228e+01	1.625631e+03
2.090000e-06	5.291385e-06	2.464719e-08	3.828548e+01	1.614622e+03
2.100000e-06	5.179222e-06	2.449405e-08	3.747393e+01	1.603121e+03
2.110000e-06	5.065113e-06	2.431759e-08	3.664831e+01	1.591219e+03
2.120000e-06	4.949154e-06	2.414406e-08	3.580929e+01	1.579001e+03
2.130000e-06	4.831329e-06	2.395257e-08	3.495677e+01	1.566521e+03
2.140000e-06	4.711598e-06	2.375243e-08	3.409047e+01	1.553796e+03
2.150000e-06	4.590040e-06	2.354464e-08	3.321094e+01	1.540787e+03
2.160000e-06	4.466840e-06	2.333433e-08	3.231954e+01	1.527406e+03
2.170000e-06	4.342023e-06	2.311599e-08	3.141643e+01	1.513522e+03
2.180000e-06	4.215625e-06	2.288417e-08	3.050189e+01	1.498973e+03
2.190000e-06	4.087631e-06	2.264707e-08	2.957579e+01	1.483593e+03
2.200000e-06	3.958128e-06	2.239502e-08	2.863878e+01	1.467226e+03
2.210000e-06	3.827169e-06	2.213075e-08	2.769124e+01	1.449753e+03
2.220000e-06	3.694756e-06	2.185050e-08	2.673318e+01	1.431102e+03
2.230000e-06	3.561091e-06	2.156244e-08	2.576605e+01	1.411257e+03
2.240000e-06	3.426106e-06	2.125584e-08	2.478937e+01	1.390253e+03
2.250000e-06	3.289669e-06	2.093363e-08	2.380219e+01	1.368162e+03
2.260000e-06	3.151968e-06	2.059406e-08	2.280586e+01	1.345069e+03
2.270000e-06	3.013143e-06	2.023821e-08	2.180140e+01	1.321044e+03
2.280000e-06	2.873190e-06	1.986312e-08	2.078878e+01	1.296112e+03
2.290000e-06	2.732109e-06	1.946869e-08	1.976800e+01	1.270229e+03
2.300000e-06	2.590004e-06	1.905147e-08	1.873981e+01	1.243259e+03
2.310000e-06	2.446874e-06	1.860663e-08	1.770420e+01	1.214967e+03
2.320000e-06	2.302792e-06	1.813224e-08	1.666171e+01	1.185031e+03
2.330000e-06	2.157941e-06	1.762396e-08	1.561365e+01	1.153053e+03
2.340000e-06	2.012365e-06	1.708331e-08	1.456034e+01	1.118597e+03
2.350000e-06	1.866125e-06	1.650684e-08	1.350223e+01	1.081227e+03
2.360000e-06	1.719333e-06	1.588946e-08	1.244013e+01	1.040547e+03
2.370000e-06	1.572020e-06	1.522738e-08	1.137425e+01	9.962431e+02
2.380000e-06	1.424218e-06	1.451598e-08	1.030484e+01	9.481173e+02
2.390000e-06	1.275886e-06	1.375069e-08	9.231589e+00	8.961026e+02
2.400000e-06	1.127042e-06	1.292657e-08	8.154638e+00	8.402693e+02
2.410000e-06	9.778581e-07	1.204258e-08	7.075230e+00	7.808114e+02
2.420000e-06	8.284062e-07	1.109722e-08	5.993880e+00	7.180202e+02
2.430000e-06	6.787518e-07	1.008897e-08	4.911066e+00	6.522452e+02
2.440000e-06	5.289211e-07	9.023180e-09	3.826975e+00	5.838520e+02
2.450000e-06	3.789806e-07	7.908057e-09	2.742090e+00	5.131792e+02
2.460000e-06	2.289459e-07	6.756741e-09	1.656524e+00	4.405040e+02
2.470000e-06	7.877529e-08	5.581153e-09	5.699736e-01	3.660201e+02
2.480000e-06	-7.140531e-08	4.395230e-09	-5.166486e-01	2.898320e+02
2.490000e-06	-2.215734e-07	3.206504e-09	-1.603180e+00	2.119678e+02
2.500000e-06	-3.717359e-07	2.013950e-09	-2.689672e+00	1.324079e+02
2.510000e-06	-5.218106e-07	8.139239e-10	-3.775527e+00	5.112671e+01
2.520000e-06	-6.717540e-07	-4.049247e-10	-4.860434e+00	-3.185842e+01
2.530000e-06	-8.215320e-07	-1.650069e-09	-5.944143e+00	-1.164387e+02
2.540000e-06	-9.710939e-07	-2.931021e-09	-7.026288e+00	-2.023724e+02
2.550000e-06	-1.120374e-06	-4.255046e-09	-8.106396e+00	-2.892577e+02
2.560000e-06	-1.269291e-06	-5.613183e-09	-9.183877e+00	-3.765245e+02
2.570000e-06	-1.417775e-06	-6.986542e-09	-1.025822e+01	-4.634471e+02
2.580000e-06	-1.565785e-06	-8.350299e-09	-1.132914e+01	-5.491782e+02
2.590000e-06	-1.713227e-06	-9.677471e-09	-1.239595e+01	-6.328017e+02
2.600000e-06	-1.859980e-06	-1.094075e-08	-1.345777e+01	-7.133961e+02
2.610000e-06	-2.006015e-06	-1.212006e-08	-1.451440e+01	-7.901049e+02
2.620000e-06	-2.151352e-06	-1.320596e-08	-1.556597e+01	-8.622021e+02
2.630000e-06	-2.295901e-06	-1.419874e-08	-1.661185e+01	-9.291481e+02
2.640000e-06	-2.439507e-06	-1.510457e-08	-1.765090e+01	-9.906279e+02
2.650000e-06	-2.582030e-06	-1.592961e-08	-1.868212e+01	-1.046567e+03
2.660000e-06	-2.723483e-06	-1.668418e-08	-1.970559e+01	-1.097125e+03
2.670000e-06	-2.863837e-06	-1.737761e-08	-2.072111e+01	-1.142666e+03
2.680000e-06	-3.002978e-06	-1.801550e-08	-2.172786e+01	-1.183711e+03
2.690000e-06	-3.141007e-06	-1.860384e-08	-2.272656e+01	-1.220881e+03
2.700000e-06	-3.277889e-06	-1.914934e-08	-2.371696e+01	-1.254829e+03
2.710000e-06	-3.413467e-06	-1.965337e-08	-2.469793e+01	-1.286183e+03
2.720000e-06	-3.547727e-06	-2.012036e-08	-2.566935e+01	-1.315492e+03
2.730000e-06	-3.680727e-06	-2.055671e-08	-2.663167e+01	-1.343189e+03
2.740000e-06	-3.812465e-06	-2.096729e-08	-2.758485e+01	-1.369576e+03
2.750000e-06	-3.942852e-06	-2.135405e-08	-2.852825e+01	-1.394820e+03
2.760000e-06	-4.071885e-06	-2.171408e-08	-2.946187e+01	-1.418973e+03
2.770000e-06	-4.199531e-06	-2.204834e-08	-3.038544e+01	-1.442002e+03
2.780000e-06	-4.325724e-06	-2.236280e-08	-3.129850e+01	-1.463824e+03
2.790000e-06	-4.450468e-06	-2.266058e-08	-3.220108e+01	-1.484346e+03
2.800000e-06	-4.573632e-06	-2.294138e-08	-3.309222e+01	-1.503500e+03
2.810000e-06	-4.695146e-06	-2.320858e-08	-3.397143e+01	-1.521266e+03
2.820000e-06	-4.814920e-06	-2.346380e-08	-3.483804e+01	-1.537689e+03
2.830000e-06	-4.932817e-06	-2.370609e-08	-3.569108e+01	-1.552876e+03
2.840000e-06	-5.048779e-06	-2.393471e-08	-3.653012e+01	-1.566988e+03
2.850000e-06	-5.162698e-06	-2.415075e-08	-3.735437e+01	-1.580218e+03
2.860000e-06	-5.274519e-06	-2.435729e-08	-3.816345e+01	-1.592766e+03
2.870000e-06	-5.384369e-06	-2.455414e-08	-3.895826e+01	-1.604816e+03
2.880000e-06	-5.492363e-06	-2.474066e-08	-3.973964e+01	-1.616509e+03
2.890000e-06	-5.598472e-06	-2.491774e-08	-4.050739e+01	-1.627931e+03
2.900000e-06	-5.702548e-06	-2.508411e-08	-4.126043e+01	-1.639108e+03
2.910000e-06	-5.804452e-06	-2.524076e-08	-4.199775e+01	-1.650008e+03
2.920000e-06	-5.904190e-06	-2.539093e-08	-4.271939e+01	-1.660556e+03
2.930000e-06	-6.001817e-06	-2.553568e-08	-4.342577e+01	-1.670649e+03
2.940000e-06	-6.097333e-06	-2.567329e-08	-4.411687e+01	-1.680182e+03
