# Temperatura_=_52.2
# Concentracion g/m^3_=_28370.0
# C_Vs_to_Am_M_A/Vsm_=_65563218390.804596
# pendiente_HvsI_1/m_=_3716.3
# ordenada_HvsI_A/m_=_1297.0
# frecuencia_Hz_=_302549.02531266137

Tiempo_(s)	Campo_(V.s)	Magnetizacion_(V.s)	Campo_(kA/m)	Magnetizacion_(A/m)
0.000000e+00	-7.875569e-06	-2.557592e-08	-5.683746e+01	-1.674050e+03
1.000000e-08	-7.872290e-06	-2.557555e-08	-5.681380e+01	-1.673319e+03
2.000000e-08	-7.866445e-06	-2.556711e-08	-5.677162e+01	-1.672547e+03
3.000000e-08	-7.858004e-06	-2.555898e-08	-5.671070e+01	-1.671779e+03
4.000000e-08	-7.846727e-06	-2.555109e-08	-5.662932e+01	-1.671036e+03
5.000000e-08	-7.832548e-06	-2.553833e-08	-5.652698e+01	-1.670312e+03
6.000000e-08	-7.815620e-06	-2.551601e-08	-5.640482e+01	-1.669579e+03
7.000000e-08	-7.796382e-06	-2.549179e-08	-5.626598e+01	-1.668787e+03
8.000000e-08	-7.774899e-06	-2.547135e-08	-5.611094e+01	-1.667878e+03
9.000000e-08	-7.750710e-06	-2.550338e-08	-5.593637e+01	-1.666795e+03
1.000000e-07	-7.723406e-06	-2.549278e-08	-5.573932e+01	-1.665493e+03
1.100000e-07	-7.693098e-06	-2.541229e-08	-5.552058e+01	-1.663950e+03
1.200000e-07	-7.659957e-06	-2.537188e-08	-5.528141e+01	-1.662166e+03
1.300000e-07	-7.624063e-06	-2.535471e-08	-5.502237e+01	-1.660167e+03
1.400000e-07	-7.585767e-06	-2.530772e-08	-5.474599e+01	-1.657997e+03
1.500000e-07	-7.545295e-06	-2.522961e-08	-5.445390e+01	-1.655712e+03
1.600000e-07	-7.502530e-06	-2.524401e-08	-5.414527e+01	-1.653367e+03
1.700000e-07	-7.457152e-06	-2.524255e-08	-5.381778e+01	-1.651007e+03
1.800000e-07	-7.409082e-06	-2.510308e-08	-5.347086e+01	-1.648650e+03
1.900000e-07	-7.358171e-06	-2.511479e-08	-5.310344e+01	-1.646291e+03
2.000000e-07	-7.304318e-06	-2.509131e-08	-5.271478e+01	-1.643890e+03
2.100000e-07	-7.247744e-06	-2.503157e-08	-5.230650e+01	-1.641384e+03
2.200000e-07	-7.188518e-06	-2.501802e-08	-5.187907e+01	-1.638688e+03
2.300000e-07	-7.126696e-06	-2.491287e-08	-5.143290e+01	-1.635715e+03
2.400000e-07	-7.062250e-06	-2.487378e-08	-5.096780e+01	-1.632383e+03
2.500000e-07	-6.995082e-06	-2.479503e-08	-5.048305e+01	-1.628629e+03
2.600000e-07	-6.925210e-06	-2.472976e-08	-4.997879e+01	-1.624423e+03
2.700000e-07	-6.852601e-06	-2.466165e-08	-4.945477e+01	-1.619770e+03
2.800000e-07	-6.777284e-06	-2.458843e-08	-4.891122e+01	-1.614708e+03
2.900000e-07	-6.699298e-06	-2.450893e-08	-4.834840e+01	-1.609306e+03
3.000000e-07	-6.618607e-06	-2.441140e-08	-4.776606e+01	-1.603650e+03
3.100000e-07	-6.535479e-06	-2.435090e-08	-4.716613e+01	-1.597829e+03
3.200000e-07	-6.450236e-06	-2.426076e-08	-4.655093e+01	-1.591918e+03
3.300000e-07	-6.362776e-06	-2.418975e-08	-4.591974e+01	-1.585969e+03
3.400000e-07	-6.272883e-06	-2.410267e-08	-4.527099e+01	-1.579992e+03
3.500000e-07	-6.180646e-06	-2.398053e-08	-4.460532e+01	-1.573961e+03
3.600000e-07	-6.086244e-06	-2.388481e-08	-4.392403e+01	-1.567809e+03
3.700000e-07	-5.989622e-06	-2.378739e-08	-4.322671e+01	-1.561440e+03
3.800000e-07	-5.890776e-06	-2.367337e-08	-4.251335e+01	-1.554742e+03
3.900000e-07	-5.789912e-06	-2.355441e-08	-4.178542e+01	-1.547603e+03
4.000000e-07	-5.687000e-06	-2.343976e-08	-4.104271e+01	-1.539930e+03
4.100000e-07	-5.582033e-06	-2.330483e-08	-4.028517e+01	-1.531660e+03
4.200000e-07	-5.475121e-06	-2.316542e-08	-3.951359e+01	-1.522770e+03
4.300000e-07	-5.366245e-06	-2.303539e-08	-3.872784e+01	-1.513282e+03
4.400000e-07	-5.255391e-06	-2.289145e-08	-3.792781e+01	-1.503253e+03
4.500000e-07	-5.142515e-06	-2.273619e-08	-3.711319e+01	-1.492767e+03
4.600000e-07	-5.027728e-06	-2.258038e-08	-3.628479e+01	-1.481916e+03
4.700000e-07	-4.911068e-06	-2.242226e-08	-3.544286e+01	-1.470781e+03
4.800000e-07	-4.792539e-06	-2.225264e-08	-3.458744e+01	-1.459416e+03
4.900000e-07	-4.672249e-06	-2.207477e-08	-3.371931e+01	-1.447829e+03
5.000000e-07	-4.550268e-06	-2.189187e-08	-3.283899e+01	-1.435978e+03
5.100000e-07	-4.426611e-06	-2.169352e-08	-3.194656e+01	-1.423771e+03
5.200000e-07	-4.301361e-06	-2.147816e-08	-3.104264e+01	-1.411074e+03
5.300000e-07	-4.174574e-06	-2.125885e-08	-3.012763e+01	-1.397724e+03
5.400000e-07	-4.046186e-06	-2.103579e-08	-2.920106e+01	-1.383556e+03
5.500000e-07	-3.916302e-06	-2.079667e-08	-2.826370e+01	-1.368420e+03
5.600000e-07	-3.784913e-06	-2.054067e-08	-2.731547e+01	-1.352202e+03
5.700000e-07	-3.652031e-06	-2.028029e-08	-2.635647e+01	-1.334837e+03
5.800000e-07	-3.517829e-06	-2.000986e-08	-2.538794e+01	-1.316316e+03
5.900000e-07	-3.382278e-06	-1.972525e-08	-2.440968e+01	-1.296682e+03
6.000000e-07	-3.245365e-06	-1.942294e-08	-2.342159e+01	-1.276008e+03
6.100000e-07	-3.107241e-06	-1.910417e-08	-2.242475e+01	-1.254382e+03
6.200000e-07	-2.967911e-06	-1.876484e-08	-2.141922e+01	-1.231871e+03
6.300000e-07	-2.827200e-06	-1.840340e-08	-2.040372e+01	-1.208496e+03
6.400000e-07	-2.685211e-06	-1.802517e-08	-1.937899e+01	-1.184204e+03
6.500000e-07	-2.542309e-06	-1.762694e-08	-1.834768e+01	-1.158853e+03
6.600000e-07	-2.398553e-06	-1.720492e-08	-1.731020e+01	-1.132201e+03
6.700000e-07	-2.253865e-06	-1.675358e-08	-1.626600e+01	-1.103920e+03
6.800000e-07	-2.108349e-06	-1.627243e-08	-1.521582e+01	-1.073614e+03
6.900000e-07	-1.962147e-06	-1.575777e-08	-1.416069e+01	-1.040853e+03
7.000000e-07	-1.815330e-06	-1.520852e-08	-1.310112e+01	-1.005216e+03
7.100000e-07	-1.667957e-06	-1.461917e-08	-1.203754e+01	-9.663294e+02
7.200000e-07	-1.520063e-06	-1.398490e-08	-1.097020e+01	-9.239111e+02
7.300000e-07	-1.371671e-06	-1.330240e-08	-9.899260e+00	-8.778004e+02
7.400000e-07	-1.222850e-06	-1.256532e-08	-8.825231e+00	-8.279754e+02
7.500000e-07	-1.073624e-06	-1.177399e-08	-7.748276e+00	-7.745549e+02
7.600000e-07	-9.240753e-07	-1.092761e-08	-6.668991e+00	-7.177829e+02
7.700000e-07	-7.742598e-07	-1.002593e-08	-5.587782e+00	-6.579985e+02
7.800000e-07	-6.242113e-07	-9.066177e-09	-4.504892e+00	-5.955954e+02
7.900000e-07	-4.739810e-07	-8.055996e-09	-3.420690e+00	-5.309751e+02
8.000000e-07	-3.235685e-07	-7.007382e-09	-2.335173e+00	-4.645025e+02
8.100000e-07	-1.729927e-07	-5.933102e-09	-1.248477e+00	-3.964683e+02
8.200000e-07	-2.227186e-08	-4.844228e-09	-1.607346e-01	-3.270660e+02
8.300000e-07	1.285191e-07	-3.750970e-09	9.275140e-01	-2.563854e+02
8.400000e-07	2.792603e-07	-2.661126e-09	2.015403e+00	-1.844242e+02
8.500000e-07	4.299095e-07	-1.570467e-09	3.102628e+00	-1.111181e+02
8.600000e-07	5.804524e-07	-4.737566e-10	4.189087e+00	-3.638342e+01
8.700000e-07	7.308455e-07	6.398173e-10	5.274464e+00	3.983228e+01
8.800000e-07	8.810407e-07	1.782723e-09	6.358414e+00	1.174989e+02
8.900000e-07	1.030958e-06	2.965803e-09	7.440358e+00	1.964599e+02
9.000000e-07	1.180508e-06	4.186657e-09	8.519646e+00	2.764012e+02
9.100000e-07	1.329625e-06	5.434401e-09	9.595820e+00	3.568398e+02
9.200000e-07	1.478244e-06	6.697239e-09	1.066839e+01	4.371330e+02
9.300000e-07	1.626301e-06	7.953233e-09	1.173691e+01	5.165088e+02
9.400000e-07	1.773780e-06	9.173714e-09	1.280126e+01	5.941153e+02
9.500000e-07	1.920679e-06	1.033138e-08	1.386142e+01	6.690823e+02
9.600000e-07	2.066904e-06	1.141063e-08	1.491671e+01	7.405887e+02
9.700000e-07	2.212403e-06	1.240725e-08	1.596677e+01	8.079278e+02
9.800000e-07	2.357165e-06	1.332228e-08	1.701150e+01	8.705629e+02
9.900000e-07	2.501054e-06	1.416075e-08	1.804994e+01	9.281661e+02
1.000000e-06	2.643880e-06	1.492755e-08	1.908071e+01	9.806361e+02
1.010000e-06	2.785600e-06	1.562869e-08	2.010350e+01	1.028095e+03
1.020000e-06	2.926163e-06	1.627235e-08	2.111792e+01	1.070860e+03
1.030000e-06	3.065523e-06	1.686423e-08	2.212368e+01	1.109404e+03
1.040000e-06	3.203736e-06	1.740863e-08	2.312115e+01	1.144295e+03
1.050000e-06	3.340743e-06	1.791276e-08	2.410993e+01	1.176139e+03
1.060000e-06	3.476389e-06	1.837819e-08	2.508887e+01	1.205522e+03
1.070000e-06	3.610719e-06	1.880929e-08	2.605832e+01	1.232959e+03
1.080000e-06	3.743792e-06	1.921088e-08	2.701870e+01	1.258857e+03
1.090000e-06	3.875464e-06	1.958774e-08	2.796897e+01	1.283502e+03
1.100000e-06	4.005760e-06	1.994471e-08	2.890931e+01	1.307056e+03
1.110000e-06	4.134725e-06	2.028037e-08	2.984004e+01	1.329570e+03
1.120000e-06	4.262239e-06	2.059456e-08	3.076030e+01	1.351017e+03
1.130000e-06	4.388286e-06	2.088836e-08	3.166997e+01	1.371322e+03
1.140000e-06	4.512829e-06	2.116214e-08	3.256880e+01	1.390400e+03
1.150000e-06	4.635759e-06	2.141776e-08	3.345597e+01	1.408189e+03
1.160000e-06	4.757107e-06	2.166020e-08	3.433173e+01	1.424674e+03
1.170000e-06	4.876753e-06	2.189098e-08	3.519521e+01	1.439897e+03
1.180000e-06	4.994571e-06	2.211092e-08	3.604549e+01	1.453958e+03
1.190000e-06	5.110484e-06	2.231933e-08	3.688203e+01	1.467009e+03
1.200000e-06	5.224462e-06	2.251864e-08	3.770460e+01	1.479228e+03
1.210000e-06	5.336432e-06	2.270667e-08	3.851268e+01	1.490801e+03
1.220000e-06	5.446437e-06	2.288218e-08	3.930658e+01	1.501896e+03
1.230000e-06	5.554554e-06	2.304773e-08	4.008685e+01	1.512642e+03
1.240000e-06	5.660744e-06	2.320488e-08	4.085322e+01	1.523116e+03
1.250000e-06	5.764934e-06	2.335650e-08	4.160515e+01	1.533339e+03
1.260000e-06	5.866962e-06	2.350083e-08	4.234148e+01	1.543279e+03
1.270000e-06	5.966752e-06	2.363979e-08	4.306166e+01	1.552865e+03
1.280000e-06	6.064273e-06	2.377330e-08	4.376546e+01	1.562003e+03
1.290000e-06	6.159519e-06	2.389875e-08	4.445284e+01	1.570599e+03
1.300000e-06	6.252501e-06	2.401746e-08	4.512389e+01	1.578578e+03
1.310000e-06	6.343318e-06	2.412773e-08	4.577931e+01	1.585899e+03
1.320000e-06	6.431865e-06	2.422909e-08	4.641835e+01	1.592565e+03
1.330000e-06	6.518090e-06	2.432209e-08	4.704063e+01	1.598624e+03
1.340000e-06	6.602006e-06	2.441105e-08	4.764625e+01	1.604165e+03
1.350000e-06	6.683597e-06	2.449804e-08	4.823508e+01	1.609302e+03
1.360000e-06	6.762775e-06	2.458174e-08	4.880650e+01	1.614159e+03
1.370000e-06	6.839434e-06	2.466087e-08	4.935975e+01	1.618854e+03
1.380000e-06	6.913536e-06	2.473524e-08	4.989454e+01	1.623478e+03
1.390000e-06	6.985006e-06	2.480636e-08	5.041033e+01	1.628088e+03
1.400000e-06	7.053994e-06	2.487299e-08	5.090821e+01	1.632698e+03
1.410000e-06	7.120513e-06	2.493613e-08	5.138828e+01	1.637282e+03
1.420000e-06	7.184420e-06	2.499638e-08	5.184949e+01	1.641779e+03
1.430000e-06	7.245878e-06	2.505406e-08	5.229303e+01	1.646107e+03
1.440000e-06	7.304926e-06	2.510855e-08	5.271917e+01	1.650179e+03
1.450000e-06	7.361351e-06	2.515993e-08	5.312639e+01	1.653918e+03
1.460000e-06	7.415047e-06	2.521138e-08	5.351391e+01	1.657267e+03
1.470000e-06	7.465815e-06	2.526197e-08	5.388030e+01	1.660205e+03
1.480000e-06	7.513593e-06	2.530734e-08	5.422511e+01	1.662743e+03
1.490000e-06	7.558691e-06	2.534672e-08	5.455058e+01	1.664924e+03
1.500000e-06	7.601160e-06	2.538118e-08	5.485708e+01	1.666815e+03
1.510000e-06	7.640879e-06	2.541244e-08	5.514372e+01	1.668497e+03
1.520000e-06	7.677910e-06	2.544167e-08	5.541098e+01	1.670048e+03
1.530000e-06	7.712233e-06	2.546775e-08	5.565868e+01	1.671531e+03
1.540000e-06	7.743761e-06	2.549013e-08	5.588622e+01	1.672987e+03
1.550000e-06	7.772600e-06	2.550862e-08	5.609435e+01	1.674427e+03
1.560000e-06	7.798682e-06	2.552412e-08	5.628258e+01	1.675831e+03
1.570000e-06	7.821846e-06	2.553838e-08	5.644975e+01	1.677155e+03
1.580000e-06	7.842281e-06	2.555274e-08	5.659723e+01	1.678340e+03
1.590000e-06	7.859986e-06	2.556552e-08	5.672501e+01	1.679324e+03
1.600000e-06	7.874690e-06	2.557483e-08	5.683112e+01	1.680051e+03
1.610000e-06	7.886342e-06	2.557939e-08	5.691521e+01	1.680484e+03
1.620000e-06	7.894962e-06	2.558110e-08	5.697743e+01	1.680613e+03
1.630000e-06	7.900708e-06	2.558200e-08	5.701889e+01	1.680453e+03
1.640000e-06	7.903690e-06	2.558052e-08	5.704041e+01	1.680047e+03
1.650000e-06	7.903840e-06	2.557852e-08	5.704150e+01	1.679453e+03
1.660000e-06	7.901305e-06	2.556982e-08	5.702320e+01	1.678740e+03
1.670000e-06	7.896115e-06	2.556256e-08	5.698575e+01	1.677971e+03
1.680000e-06	7.888266e-06	2.555775e-08	5.692910e+01	1.677197e+03
1.690000e-06	7.877837e-06	2.554944e-08	5.685383e+01	1.676445e+03
1.700000e-06	7.864597e-06	2.553857e-08	5.675828e+01	1.675716e+03
1.710000e-06	7.848616e-06	2.552791e-08	5.664295e+01	1.674988e+03
1.720000e-06	7.830316e-06	2.551890e-08	5.651088e+01	1.674213e+03
1.730000e-06	7.809753e-06	2.548765e-08	5.636248e+01	1.673337e+03
1.740000e-06	7.786410e-06	2.539159e-08	5.619401e+01	1.672300e+03
1.750000e-06	7.759623e-06	2.539299e-08	5.600069e+01	1.671055e+03
1.760000e-06	7.729185e-06	2.541781e-08	5.578102e+01	1.669571e+03
1.770000e-06	7.695693e-06	2.537654e-08	5.553932e+01	1.667844e+03
1.780000e-06	7.659948e-06	2.534836e-08	5.528134e+01	1.665892e+03
1.790000e-06	7.621971e-06	2.539120e-08	5.500727e+01	1.663758e+03
1.800000e-06	7.581955e-06	2.533354e-08	5.471848e+01	1.661494e+03
1.810000e-06	7.539966e-06	2.522140e-08	5.441544e+01	1.659158e+03
1.820000e-06	7.495373e-06	2.533086e-08	5.409362e+01	1.656796e+03
1.830000e-06	7.448144e-06	2.524999e-08	5.375277e+01	1.654436e+03
1.840000e-06	7.398169e-06	2.522580e-08	5.339211e+01	1.652078e+03
1.850000e-06	7.345113e-06	2.519993e-08	5.300920e+01	1.649691e+03
1.860000e-06	7.289220e-06	2.507275e-08	5.260582e+01	1.647216e+03
1.870000e-06	7.230678e-06	2.512564e-08	5.218333e+01	1.644574e+03
1.880000e-06	7.169551e-06	2.501381e-08	5.174218e+01	1.641677e+03
1.890000e-06	7.105703e-06	2.498675e-08	5.128140e+01	1.638439e+03
1.900000e-06	7.039055e-06	2.495496e-08	5.080040e+01	1.634792e+03
1.910000e-06	6.969700e-06	2.484781e-08	5.029987e+01	1.630699e+03
1.920000e-06	6.897575e-06	2.481290e-08	4.977935e+01	1.626152e+03
1.930000e-06	6.822841e-06	2.470288e-08	4.924000e+01	1.621185e+03
1.940000e-06	6.745420e-06	2.468559e-08	4.868126e+01	1.615859e+03
1.950000e-06	6.665324e-06	2.459029e-08	4.810321e+01	1.610256e+03
1.960000e-06	6.582798e-06	2.450451e-08	4.750762e+01	1.604466e+03
1.970000e-06	6.497825e-06	2.442627e-08	4.689438e+01	1.598570e+03
1.980000e-06	6.410454e-06	2.430888e-08	4.626383e+01	1.592625e+03
1.990000e-06	6.320752e-06	2.426119e-08	4.561645e+01	1.586654e+03
2.000000e-06	6.228881e-06	2.414317e-08	4.495343e+01	1.580640e+03
2.010000e-06	6.134828e-06	2.405874e-08	4.427465e+01	1.574524e+03
2.020000e-06	6.038559e-06	2.394240e-08	4.357988e+01	1.568217e+03
2.030000e-06	5.940179e-06	2.383128e-08	4.286988e+01	1.561610e+03
2.040000e-06	5.839676e-06	2.370644e-08	4.214456e+01	1.554590e+03
2.050000e-06	5.737054e-06	2.358809e-08	4.140395e+01	1.547055e+03
2.060000e-06	5.632383e-06	2.348261e-08	4.064854e+01	1.538936e+03
2.070000e-06	5.525805e-06	2.334324e-08	3.987937e+01	1.530199e+03
2.080000e-06	5.417265e-06	2.321432e-08	3.909604e+01	1.520854e+03
2.090000e-06	5.306788e-06	2.306631e-08	3.829874e+01	1.510951e+03
2.100000e-06	5.194395e-06	2.292762e-08	3.748761e+01	1.500569e+03
2.110000e-06	5.080061e-06	2.276421e-08	3.666247e+01	1.489799e+03
2.120000e-06	4.963758e-06	2.260526e-08	3.582311e+01	1.478727e+03
2.130000e-06	4.845508e-06	2.243156e-08	3.496972e+01	1.467414e+03
2.140000e-06	4.725382e-06	2.224850e-08	3.410278e+01	1.455882e+03
2.150000e-06	4.603519e-06	2.205889e-08	3.322330e+01	1.444102e+03
2.160000e-06	4.480054e-06	2.187256e-08	3.233226e+01	1.431994e+03
2.170000e-06	4.354936e-06	2.168143e-08	3.142929e+01	1.419431e+03
2.180000e-06	4.228310e-06	2.147069e-08	3.051543e+01	1.406258e+03
2.190000e-06	4.100114e-06	2.125575e-08	2.959025e+01	1.392308e+03
2.200000e-06	3.970337e-06	2.102619e-08	2.865366e+01	1.377424e+03
2.210000e-06	3.839077e-06	2.078230e-08	2.770637e+01	1.361482e+03
2.220000e-06	3.706337e-06	2.052144e-08	2.674839e+01	1.344405e+03
2.230000e-06	3.572262e-06	2.025503e-08	2.578078e+01	1.326170e+03
2.240000e-06	3.436909e-06	1.996961e-08	2.480395e+01	1.306805e+03
2.250000e-06	3.300273e-06	1.967031e-08	2.381786e+01	1.286381e+03
2.260000e-06	3.162341e-06	1.935875e-08	2.282241e+01	1.264983e+03
2.270000e-06	3.023070e-06	1.903482e-08	2.181730e+01	1.242687e+03
2.280000e-06	2.882569e-06	1.868988e-08	2.080331e+01	1.219528e+03
2.290000e-06	2.741035e-06	1.832235e-08	1.978187e+01	1.195473e+03
2.300000e-06	2.598582e-06	1.793394e-08	1.875380e+01	1.170404e+03
2.310000e-06	2.455152e-06	1.752068e-08	1.771867e+01	1.144102e+03
2.320000e-06	2.310812e-06	1.708074e-08	1.667698e+01	1.116261e+03
2.330000e-06	2.165654e-06	1.660934e-08	1.562938e+01	1.086499e+03
2.340000e-06	2.019803e-06	1.610551e-08	1.457678e+01	1.054391e+03
2.350000e-06	1.873391e-06	1.556392e-08	1.352014e+01	1.019509e+03
2.360000e-06	1.726371e-06	1.498328e-08	1.245911e+01	9.814629e+02
2.370000e-06	1.578670e-06	1.436227e-08	1.139316e+01	9.399456e+02
2.380000e-06	1.430292e-06	1.369614e-08	1.032232e+01	8.947636e+02
2.390000e-06	1.281397e-06	1.298084e-08	9.247760e+00	8.458594e+02
2.400000e-06	1.132127e-06	1.220816e-08	8.170487e+00	7.933174e+02
2.410000e-06	9.825209e-07	1.137362e-08	7.090789e+00	7.373525e+02
2.420000e-06	8.326475e-07	1.048052e-08	6.009162e+00	6.782836e+02
2.430000e-06	6.826046e-07	9.531861e-09	4.926313e+00	6.164951e+02
2.440000e-06	5.323746e-07	8.533202e-09	3.842113e+00	5.523907e+02
2.450000e-06	3.819953e-07	7.493341e-09	2.756835e+00	4.863484e+02
2.460000e-06	2.314911e-07	6.423737e-09	1.670656e+00	4.186804e+02
2.470000e-06	8.084147e-08	5.335197e-09	5.834276e-01	3.496057e+02
2.480000e-06	-6.986033e-08	4.238337e-09	-5.041774e-01	2.792396e+02
2.490000e-06	-2.205386e-07	3.141419e-09	-1.591613e+00	2.076008e+02
2.500000e-06	-3.711259e-07	2.045380e-09	-2.678391e+00	1.346368e+02
2.510000e-06	-5.216291e-07	9.449108e-10	-3.764563e+00	6.026430e+01
2.520000e-06	-6.720085e-07	-1.698475e-10	-4.849841e+00	-1.558194e+01
2.530000e-06	-8.221860e-07	-1.309192e-09	-5.933663e+00	-9.289698e+01
2.540000e-06	-9.721273e-07	-2.481316e-09	-7.015779e+00	-1.715593e+02
2.550000e-06	-1.121801e-06	-3.693023e-09	-8.095962e+00	-2.512963e+02
2.560000e-06	-1.271153e-06	-4.939249e-09	-9.173825e+00	-3.316670e+02
2.570000e-06	-1.420071e-06	-6.203138e-09	-1.024856e+01	-4.120665e+02
2.580000e-06	-1.568472e-06	-7.466426e-09	-1.131956e+01	-4.917514e+02
2.590000e-06	-1.716235e-06	-8.706017e-09	-1.238596e+01	-5.698843e+02
2.600000e-06	-1.863253e-06	-9.895349e-09	-1.344698e+01	-6.455933e+02
2.610000e-06	-2.009588e-06	-1.101346e-08	-1.450307e+01	-7.180386e+02
2.620000e-06	-2.155207e-06	-1.205025e-08	-1.555399e+01	-7.864793e+02
2.630000e-06	-2.299947e-06	-1.300231e-08	-1.659856e+01	-8.503319e+02
2.640000e-06	-2.443754e-06	-1.387109e-08	-1.763641e+01	-9.092135e+02
2.650000e-06	-2.586582e-06	-1.466321e-08	-1.866720e+01	-9.629659e+02
2.660000e-06	-2.728458e-06	-1.538825e-08	-1.969111e+01	-1.011657e+03
2.670000e-06	-2.869365e-06	-1.605375e-08	-2.070802e+01	-1.055558e+03
2.680000e-06	-3.009089e-06	-1.666539e-08	-2.171640e+01	-1.095109e+03
2.690000e-06	-3.147540e-06	-1.722878e-08	-2.271559e+01	-1.130858e+03
2.700000e-06	-3.284669e-06	-1.774883e-08	-2.370524e+01	-1.163410e+03
2.710000e-06	-3.420520e-06	-1.822985e-08	-2.468567e+01	-1.193359e+03
2.720000e-06	-3.555192e-06	-1.867664e-08	-2.565759e+01	-1.221241e+03
2.730000e-06	-3.688657e-06	-1.909346e-08	-2.662079e+01	-1.247494e+03
2.740000e-06	-3.820774e-06	-1.948382e-08	-2.757428e+01	-1.272435e+03
2.750000e-06	-3.951516e-06	-1.984840e-08	-2.851783e+01	-1.296255e+03
2.760000e-06	-4.080896e-06	-2.018600e-08	-2.945156e+01	-1.319031e+03
2.770000e-06	-4.208802e-06	-2.050168e-08	-3.037465e+01	-1.340753e+03
2.780000e-06	-4.335335e-06	-2.080032e-08	-3.128783e+01	-1.361353e+03
2.790000e-06	-4.460476e-06	-2.108343e-08	-3.219096e+01	-1.380747e+03
2.800000e-06	-4.583948e-06	-2.135025e-08	-3.308205e+01	-1.398864e+03
2.810000e-06	-4.705752e-06	-2.160245e-08	-3.396110e+01	-1.415676e+03
2.820000e-06	-4.825916e-06	-2.184240e-08	-3.482832e+01	-1.431209e+03
2.830000e-06	-4.944260e-06	-2.207064e-08	-3.568240e+01	-1.445550e+03
2.840000e-06	-5.060537e-06	-2.228682e-08	-3.652157e+01	-1.458839e+03
2.850000e-06	-5.174710e-06	-2.248993e-08	-3.734554e+01	-1.471251e+03
2.860000e-06	-5.286924e-06	-2.268097e-08	-3.815538e+01	-1.482971e+03
2.870000e-06	-5.397128e-06	-2.286049e-08	-3.895072e+01	-1.494173e+03
2.880000e-06	-5.505338e-06	-2.303007e-08	-3.973166e+01	-1.504999e+03
2.890000e-06	-5.611668e-06	-2.319212e-08	-4.049904e+01	-1.515539e+03
2.900000e-06	-5.715944e-06	-2.334737e-08	-4.125159e+01	-1.525828e+03
2.910000e-06	-5.818094e-06	-2.349513e-08	-4.198881e+01	-1.535846e+03
2.920000e-06	-5.918137e-06	-2.363578e-08	-4.271081e+01	-1.545531e+03
2.930000e-06	-6.016054e-06	-2.376992e-08	-4.341747e+01	-1.554792e+03
2.940000e-06	-6.111830e-06	-2.389644e-08	-4.410868e+01	-1.563533e+03
