# Temperatura_=_88.33
# Concentracion g/m^3_=_28370.0
# C_Vs_to_Am_M_A/Vsm_=_65563218390.804596
# pendiente_HvsI_1/m_=_3716.3
# ordenada_HvsI_A/m_=_1297.0
# frecuencia_Hz_=_302556.33206724323

Tiempo_(s)	Campo_(V.s)	Magnetizacion_(V.s)	Campo_(kA/m)	Magnetizacion_(A/m)
0.000000e+00	-7.875797e-06	-3.050298e-08	-5.683329e+01	-1.996486e+03
1.000000e-08	-7.872434e-06	-3.049227e-08	-5.680902e+01	-1.995624e+03
2.000000e-08	-7.866490e-06	-3.048211e-08	-5.676612e+01	-1.994699e+03
3.000000e-08	-7.857947e-06	-3.046905e-08	-5.670448e+01	-1.993744e+03
4.000000e-08	-7.846632e-06	-3.045389e-08	-5.662283e+01	-1.992767e+03
5.000000e-08	-7.832472e-06	-3.043484e-08	-5.652065e+01	-1.991751e+03
6.000000e-08	-7.815464e-06	-3.041287e-08	-5.639792e+01	-1.990652e+03
7.000000e-08	-7.796046e-06	-3.038899e-08	-5.625779e+01	-1.989418e+03
8.000000e-08	-7.774449e-06	-3.038522e-08	-5.610194e+01	-1.987989e+03
9.000000e-08	-7.750122e-06	-3.035893e-08	-5.592639e+01	-1.986318e+03
1.000000e-07	-7.722618e-06	-3.031419e-08	-5.572792e+01	-1.984374e+03
1.100000e-07	-7.692127e-06	-3.027740e-08	-5.550789e+01	-1.982152e+03
1.200000e-07	-7.658857e-06	-3.022719e-08	-5.526781e+01	-1.979674e+03
1.300000e-07	-7.622869e-06	-3.017248e-08	-5.500811e+01	-1.976984e+03
1.400000e-07	-7.584468e-06	-3.011280e-08	-5.473100e+01	-1.974142e+03
1.500000e-07	-7.543934e-06	-3.008132e-08	-5.443850e+01	-1.971208e+03
1.600000e-07	-7.501107e-06	-3.005960e-08	-5.412945e+01	-1.968235e+03
1.700000e-07	-7.455662e-06	-2.996170e-08	-5.380151e+01	-1.965254e+03
1.800000e-07	-7.407493e-06	-2.993701e-08	-5.345392e+01	-1.962264e+03
1.900000e-07	-7.356469e-06	-2.987782e-08	-5.308572e+01	-1.959229e+03
2.000000e-07	-7.302517e-06	-2.979509e-08	-5.269639e+01	-1.956084e+03
2.100000e-07	-7.245832e-06	-2.975661e-08	-5.228734e+01	-1.952736e+03
2.200000e-07	-7.186505e-06	-2.966720e-08	-5.185923e+01	-1.949079e+03
2.300000e-07	-7.124533e-06	-2.962040e-08	-5.141202e+01	-1.945011e+03
2.400000e-07	-7.059946e-06	-2.952573e-08	-5.094595e+01	-1.940447e+03
2.500000e-07	-6.992672e-06	-2.943864e-08	-5.046049e+01	-1.935331e+03
2.600000e-07	-6.922692e-06	-2.933897e-08	-4.995550e+01	-1.929651e+03
2.700000e-07	-6.850056e-06	-2.926024e-08	-4.943134e+01	-1.923433e+03
2.800000e-07	-6.774691e-06	-2.918086e-08	-4.888749e+01	-1.916743e+03
2.900000e-07	-6.696582e-06	-2.906104e-08	-4.832385e+01	-1.909675e+03
3.000000e-07	-6.615797e-06	-2.897135e-08	-4.774089e+01	-1.902336e+03
3.100000e-07	-6.532546e-06	-2.886359e-08	-4.714013e+01	-1.894827e+03
3.200000e-07	-6.447111e-06	-2.874493e-08	-4.652361e+01	-1.887226e+03
3.300000e-07	-6.359444e-06	-2.862626e-08	-4.589099e+01	-1.879577e+03
3.400000e-07	-6.269423e-06	-2.851183e-08	-4.524138e+01	-1.871877e+03
3.500000e-07	-6.177103e-06	-2.839394e-08	-4.457518e+01	-1.864077e+03
3.600000e-07	-6.082624e-06	-2.825773e-08	-4.389340e+01	-1.856086e+03
3.700000e-07	-5.985904e-06	-2.812023e-08	-4.319546e+01	-1.847788e+03
3.800000e-07	-5.886917e-06	-2.797864e-08	-4.248114e+01	-1.839052e+03
3.900000e-07	-5.785882e-06	-2.783102e-08	-4.175206e+01	-1.829759e+03
4.000000e-07	-5.682796e-06	-2.767173e-08	-4.100817e+01	-1.819814e+03
4.100000e-07	-5.577694e-06	-2.750850e-08	-4.024973e+01	-1.809165e+03
4.200000e-07	-5.470595e-06	-2.734948e-08	-3.947688e+01	-1.797803e+03
4.300000e-07	-5.361574e-06	-2.717499e-08	-3.869016e+01	-1.785771e+03
4.400000e-07	-5.250635e-06	-2.698922e-08	-3.788961e+01	-1.773145e+03
4.500000e-07	-5.137696e-06	-2.679807e-08	-3.707462e+01	-1.760025e+03
4.600000e-07	-5.022876e-06	-2.660235e-08	-3.624606e+01	-1.746513e+03
4.700000e-07	-4.906178e-06	-2.639769e-08	-3.540394e+01	-1.732690e+03
4.800000e-07	-4.787553e-06	-2.618370e-08	-3.454792e+01	-1.718600e+03
4.900000e-07	-4.667149e-06	-2.596588e-08	-3.367906e+01	-1.704233e+03
5.000000e-07	-4.545091e-06	-2.573499e-08	-3.279827e+01	-1.689523e+03
5.100000e-07	-4.421335e-06	-2.548992e-08	-3.190522e+01	-1.674350e+03
5.200000e-07	-4.296008e-06	-2.523084e-08	-3.100083e+01	-1.658555e+03
5.300000e-07	-4.169144e-06	-2.496441e-08	-3.008536e+01	-1.641957e+03
5.400000e-07	-4.040717e-06	-2.468838e-08	-2.915860e+01	-1.624378e+03
5.500000e-07	-3.910845e-06	-2.439342e-08	-2.822142e+01	-1.605665e+03
5.600000e-07	-3.779545e-06	-2.408656e-08	-2.727393e+01	-1.585713e+03
5.700000e-07	-3.646760e-06	-2.376888e-08	-2.631573e+01	-1.564474e+03
5.800000e-07	-3.512492e-06	-2.344071e-08	-2.534683e+01	-1.541958e+03
5.900000e-07	-3.376790e-06	-2.309378e-08	-2.436758e+01	-1.518226e+03
6.000000e-07	-3.239833e-06	-2.272962e-08	-2.337927e+01	-1.493367e+03
6.100000e-07	-3.101711e-06	-2.234711e-08	-2.238255e+01	-1.467471e+03
6.200000e-07	-2.962255e-06	-2.194293e-08	-2.137621e+01	-1.440598e+03
6.300000e-07	-2.821494e-06	-2.151560e-08	-2.036045e+01	-1.412745e+03
6.400000e-07	-2.679594e-06	-2.106429e-08	-1.933647e+01	-1.383822e+03
6.500000e-07	-2.536645e-06	-2.058948e-08	-1.830493e+01	-1.353637e+03
6.600000e-07	-2.392839e-06	-2.008452e-08	-1.726719e+01	-1.321894e+03
6.700000e-07	-2.248265e-06	-1.954983e-08	-1.622392e+01	-1.288205e+03
6.800000e-07	-2.102900e-06	-1.898200e-08	-1.517494e+01	-1.252121e+03
6.900000e-07	-1.956759e-06	-1.837642e-08	-1.412035e+01	-1.213165e+03
7.000000e-07	-1.809903e-06	-1.772576e-08	-1.306062e+01	-1.170876e+03
7.100000e-07	-1.662472e-06	-1.703066e-08	-1.199673e+01	-1.124858e+03
7.200000e-07	-1.514557e-06	-1.628496e-08	-1.092934e+01	-1.074813e+03
7.300000e-07	-1.366195e-06	-1.548172e-08	-9.858731e+00	-1.020572e+03
7.400000e-07	-1.217420e-06	-1.461905e-08	-8.785138e+00	-9.621051e+02
7.500000e-07	-1.068188e-06	-1.369187e-08	-7.708253e+00	-8.995213e+02
7.600000e-07	-9.185419e-07	-1.269887e-08	-6.628378e+00	-8.330444e+02
7.700000e-07	-7.686230e-07	-1.163481e-08	-5.546534e+00	-7.629817e+02
7.800000e-07	-6.185073e-07	-1.050293e-08	-4.463269e+00	-6.896815e+02
7.900000e-07	-4.681748e-07	-9.308589e-09	-3.378441e+00	-6.134891e+02
8.000000e-07	-3.176241e-07	-8.064829e-09	-2.292037e+00	-5.347080e+02
8.100000e-07	-1.669696e-07	-6.784805e-09	-1.204885e+00	-4.535712e+02
8.200000e-07	-1.623998e-08	-5.480244e-09	-1.171909e-01	-3.702288e+02
8.300000e-07	1.345781e-07	-4.164736e-09	9.711419e-01	-2.847531e+02
8.400000e-07	2.854454e-07	-2.843107e-09	2.059830e+00	-1.971623e+02
8.500000e-07	4.362572e-07	-1.514827e-09	3.148117e+00	-1.074588e+02
8.600000e-07	5.869596e-07	-1.720644e-10	4.235615e+00	-1.567751e+01
8.700000e-07	7.374514e-07	1.195964e-09	5.321593e+00	7.806333e+01
8.800000e-07	8.876644e-07	2.601573e-09	6.405560e+00	1.735155e+02
8.900000e-07	1.037568e-06	4.052524e-09	7.487295e+00	2.702669e+02
9.000000e-07	1.187085e-06	5.547504e-09	8.566237e+00	3.677261e+02
9.100000e-07	1.336233e-06	7.069761e-09	9.642520e+00	4.651279e+02
9.200000e-07	1.484909e-06	8.594167e-09	1.071539e+01	5.615629e+02
9.300000e-07	1.633028e-06	1.008965e-08	1.178425e+01	6.560270e+02
9.400000e-07	1.780595e-06	1.152062e-08	1.284912e+01	7.474870e+02
9.500000e-07	1.927511e-06	1.286148e-08	1.390930e+01	8.349545e+02
9.600000e-07	2.073694e-06	1.409896e-08	1.496418e+01	9.175598e+02
9.700000e-07	2.219153e-06	1.523174e-08	1.601384e+01	9.946181e+02
9.800000e-07	2.363793e-06	1.626294e-08	1.705759e+01	1.065678e+03
9.900000e-07	2.507492e-06	1.720291e-08	1.809455e+01	1.130551e+03
1.000000e-06	2.650275e-06	1.806329e-08	1.912490e+01	1.189310e+03
1.010000e-06	2.792062e-06	1.885205e-08	2.014807e+01	1.242272e+03
1.020000e-06	2.932658e-06	1.957692e-08	2.116263e+01	1.289952e+03
1.030000e-06	3.072003e-06	2.024377e-08	2.216817e+01	1.333000e+03
1.040000e-06	3.210166e-06	2.086248e-08	2.316519e+01	1.372138e+03
1.050000e-06	3.347151e-06	2.143530e-08	2.415370e+01	1.408084e+03
1.060000e-06	3.482789e-06	2.196524e-08	2.513248e+01	1.441496e+03
1.070000e-06	3.617077e-06	2.245684e-08	2.610154e+01	1.472920e+03
1.080000e-06	3.750121e-06	2.291605e-08	2.706160e+01	1.502761e+03
1.090000e-06	3.881827e-06	2.334670e-08	2.801202e+01	1.531277e+03
1.100000e-06	4.012137e-06	2.375460e-08	2.895237e+01	1.558585e+03
1.110000e-06	4.141055e-06	2.414034e-08	2.988266e+01	1.584690e+03
1.120000e-06	4.268488e-06	2.450108e-08	3.080225e+01	1.609524e+03
1.130000e-06	4.394449e-06	2.484121e-08	3.171120e+01	1.632983e+03
1.140000e-06	4.518944e-06	2.516298e-08	3.260958e+01	1.654976e+03
1.150000e-06	4.641834e-06	2.546659e-08	3.349638e+01	1.675448e+03
1.160000e-06	4.763031e-06	2.575084e-08	3.437096e+01	1.694411e+03
1.170000e-06	4.882536e-06	2.601820e-08	3.523334e+01	1.711946e+03
1.180000e-06	5.000239e-06	2.627081e-08	3.608270e+01	1.728198e+03
1.190000e-06	5.116034e-06	2.651167e-08	3.691830e+01	1.743365e+03
1.200000e-06	5.229920e-06	2.674305e-08	3.774013e+01	1.757665e+03
1.210000e-06	5.341838e-06	2.696674e-08	3.854775e+01	1.771312e+03
1.220000e-06	5.451850e-06	2.717879e-08	3.934162e+01	1.784491e+03
1.230000e-06	5.559970e-06	2.737812e-08	4.012183e+01	1.797333e+03
1.240000e-06	5.666023e-06	2.756471e-08	4.088713e+01	1.809907e+03
1.250000e-06	5.769955e-06	2.774122e-08	4.163712e+01	1.822216e+03
1.260000e-06	5.871770e-06	2.790994e-08	4.237184e+01	1.834208e+03
1.270000e-06	5.971461e-06	2.807184e-08	4.309123e+01	1.845788e+03
1.280000e-06	6.068948e-06	2.822944e-08	4.379471e+01	1.856844e+03
1.290000e-06	6.164131e-06	2.838138e-08	4.448157e+01	1.867271e+03
1.300000e-06	6.257105e-06	2.852744e-08	4.515249e+01	1.876988e+03
1.310000e-06	6.347848e-06	2.866633e-08	4.580731e+01	1.885957e+03
1.320000e-06	6.436310e-06	2.879805e-08	4.644567e+01	1.894189e+03
1.330000e-06	6.522505e-06	2.892193e-08	4.706767e+01	1.901742e+03
1.340000e-06	6.606402e-06	2.903950e-08	4.767309e+01	1.908716e+03
1.350000e-06	6.687949e-06	2.915076e-08	4.826155e+01	1.915235e+03
1.360000e-06	6.766997e-06	2.925381e-08	4.883197e+01	1.921427e+03
1.370000e-06	6.843550e-06	2.935019e-08	4.938439e+01	1.927410e+03
1.380000e-06	6.917530e-06	2.944265e-08	4.991825e+01	1.933271e+03
1.390000e-06	6.988918e-06	2.953149e-08	5.043339e+01	1.939058e+03
1.400000e-06	7.057854e-06	2.961518e-08	5.093085e+01	1.944775e+03
1.410000e-06	7.124297e-06	2.969382e-08	5.141032e+01	1.950389e+03
1.420000e-06	7.188181e-06	2.976712e-08	5.187132e+01	1.955832e+03
1.430000e-06	7.249584e-06	2.983646e-08	5.231442e+01	1.961024e+03
1.440000e-06	7.308457e-06	2.990303e-08	5.273925e+01	1.965882e+03
1.450000e-06	7.364716e-06	2.996664e-08	5.314523e+01	1.970339e+03
1.460000e-06	7.418303e-06	3.002909e-08	5.353193e+01	1.974356e+03
1.470000e-06	7.468926e-06	3.009028e-08	5.389723e+01	1.977925e+03
1.480000e-06	7.516610e-06	3.014577e-08	5.424132e+01	1.981074e+03
1.490000e-06	7.561630e-06	3.019508e-08	5.456620e+01	1.983860e+03
1.500000e-06	7.603965e-06	3.024097e-08	5.487170e+01	1.986358e+03
1.510000e-06	7.643525e-06	3.028387e-08	5.515717e+01	1.988648e+03
1.520000e-06	7.680396e-06	3.032212e-08	5.542324e+01	1.990802e+03
1.530000e-06	7.714575e-06	3.035709e-08	5.566988e+01	1.992872e+03
1.540000e-06	7.745992e-06	3.038879e-08	5.589659e+01	1.994881e+03
1.550000e-06	7.774717e-06	3.041564e-08	5.610388e+01	1.996823e+03
1.560000e-06	7.800630e-06	3.043746e-08	5.629087e+01	1.998661e+03
1.570000e-06	7.823658e-06	3.045582e-08	5.645704e+01	2.000340e+03
1.580000e-06	7.843989e-06	3.047209e-08	5.660376e+01	2.001793e+03
1.590000e-06	7.861550e-06	3.048505e-08	5.673048e+01	2.002957e+03
1.600000e-06	7.876162e-06	3.049423e-08	5.683592e+01	2.003783e+03
1.610000e-06	7.887723e-06	3.049998e-08	5.691935e+01	2.004247e+03
1.620000e-06	7.896176e-06	3.050382e-08	5.698035e+01	2.004351e+03
1.630000e-06	7.901778e-06	3.050640e-08	5.702077e+01	2.004126e+03
1.640000e-06	7.904634e-06	3.050650e-08	5.704138e+01	2.003629e+03
1.650000e-06	7.904650e-06	3.050171e-08	5.704150e+01	2.002925e+03
1.660000e-06	7.902017e-06	3.049601e-08	5.702250e+01	2.002085e+03
1.670000e-06	7.896777e-06	3.048735e-08	5.698468e+01	2.001168e+03
1.680000e-06	7.888842e-06	3.047556e-08	5.692742e+01	2.000216e+03
1.690000e-06	7.878262e-06	3.046041e-08	5.685107e+01	1.999244e+03
1.700000e-06	7.864939e-06	3.044371e-08	5.675494e+01	1.998238e+03
1.710000e-06	7.848926e-06	3.042251e-08	5.663938e+01	1.997162e+03
1.720000e-06	7.830550e-06	3.039500e-08	5.650678e+01	1.995965e+03
1.730000e-06	7.809820e-06	3.033825e-08	5.635719e+01	1.994587e+03
1.740000e-06	7.786240e-06	3.032017e-08	5.618703e+01	1.992978e+03
1.750000e-06	7.759213e-06	3.028216e-08	5.599199e+01	1.991101e+03
1.760000e-06	7.728616e-06	3.024718e-08	5.577120e+01	1.988946e+03
1.770000e-06	7.695106e-06	3.022849e-08	5.552939e+01	1.986526e+03
1.780000e-06	7.659303e-06	3.021159e-08	5.527103e+01	1.983882e+03
1.790000e-06	7.621294e-06	3.016004e-08	5.499674e+01	1.981069e+03
1.800000e-06	7.581250e-06	3.011098e-08	5.470778e+01	1.978150e+03
1.810000e-06	7.539055e-06	3.015258e-08	5.440329e+01	1.975181e+03
1.820000e-06	7.494251e-06	3.008255e-08	5.407998e+01	1.972198e+03
1.830000e-06	7.446835e-06	3.008815e-08	5.373782e+01	1.969210e+03
1.840000e-06	7.396626e-06	3.005712e-08	5.337550e+01	1.966189e+03
1.850000e-06	7.343392e-06	2.998412e-08	5.299135e+01	1.963077e+03
1.860000e-06	7.287387e-06	2.997144e-08	5.258721e+01	1.959787e+03
1.870000e-06	7.228737e-06	2.985660e-08	5.216398e+01	1.956215e+03
1.880000e-06	7.167497e-06	2.981654e-08	5.172205e+01	1.952256e+03
1.890000e-06	7.103546e-06	2.973477e-08	5.126058e+01	1.947820e+03
1.900000e-06	7.036746e-06	2.966188e-08	5.077853e+01	1.942843e+03
1.910000e-06	6.967268e-06	2.959859e-08	5.027716e+01	1.937300e+03
1.920000e-06	6.895095e-06	2.946480e-08	4.975635e+01	1.931209e+03
1.930000e-06	6.820202e-06	2.941783e-08	4.921591e+01	1.924627e+03
1.940000e-06	6.742618e-06	2.929972e-08	4.865605e+01	1.917642e+03
1.950000e-06	6.662398e-06	2.919542e-08	4.807716e+01	1.910358e+03
1.960000e-06	6.579700e-06	2.909371e-08	4.748040e+01	1.902880e+03
1.970000e-06	6.494634e-06	2.898283e-08	4.686655e+01	1.895295e+03
1.980000e-06	6.407203e-06	2.888329e-08	4.623563e+01	1.887654e+03
1.990000e-06	6.317405e-06	2.873238e-08	4.558763e+01	1.879967e+03
2.000000e-06	6.225406e-06	2.863216e-08	4.492375e+01	1.872196e+03
2.010000e-06	6.131198e-06	2.848771e-08	4.424392e+01	1.864261e+03
2.020000e-06	6.034744e-06	2.835766e-08	4.354789e+01	1.856049e+03
2.030000e-06	5.936115e-06	2.820820e-08	4.283616e+01	1.847432e+03
2.040000e-06	5.835434e-06	2.806676e-08	4.210963e+01	1.838286e+03
2.050000e-06	5.732696e-06	2.792074e-08	4.136825e+01	1.828509e+03
2.060000e-06	5.627930e-06	2.774801e-08	4.061224e+01	1.818036e+03
2.070000e-06	5.521238e-06	2.758995e-08	3.984233e+01	1.806848e+03
2.080000e-06	5.412614e-06	2.740864e-08	3.905848e+01	1.794975e+03
2.090000e-06	5.302043e-06	2.723763e-08	3.826058e+01	1.782486e+03
2.100000e-06	5.189483e-06	2.704460e-08	3.744832e+01	1.769477e+03
2.110000e-06	5.074947e-06	2.685666e-08	3.662181e+01	1.756052e+03
2.120000e-06	4.958501e-06	2.664852e-08	3.578151e+01	1.742299e+03
2.130000e-06	4.840218e-06	2.643717e-08	3.492796e+01	1.728272e+03
2.140000e-06	4.720099e-06	2.621011e-08	3.406116e+01	1.713975e+03
2.150000e-06	4.598196e-06	2.597936e-08	3.318148e+01	1.699358e+03
2.160000e-06	4.474573e-06	2.574558e-08	3.228939e+01	1.684312e+03
2.170000e-06	4.349358e-06	2.549725e-08	3.138582e+01	1.668687e+03
2.180000e-06	4.222660e-06	2.523752e-08	3.047154e+01	1.652305e+03
2.190000e-06	4.094400e-06	2.496425e-08	2.954599e+01	1.634984e+03
2.200000e-06	3.964565e-06	2.468515e-08	2.860907e+01	1.616564e+03
2.210000e-06	3.833163e-06	2.438249e-08	2.766085e+01	1.596926e+03
2.220000e-06	3.700321e-06	2.407191e-08	2.670224e+01	1.576008e+03
2.230000e-06	3.566197e-06	2.374533e-08	2.573437e+01	1.553805e+03
2.240000e-06	3.430764e-06	2.340407e-08	2.475706e+01	1.530367e+03
2.250000e-06	3.293962e-06	2.304269e-08	2.376987e+01	1.505778e+03
2.260000e-06	3.155855e-06	2.266607e-08	2.277327e+01	1.480132e+03
2.270000e-06	3.016479e-06	2.227045e-08	2.176750e+01	1.453498e+03
2.280000e-06	2.875966e-06	2.185394e-08	2.075353e+01	1.425892e+03
2.290000e-06	2.734465e-06	2.141517e-08	1.973244e+01	1.397248e+03
2.300000e-06	2.592004e-06	2.095201e-08	1.870440e+01	1.367400e+03
2.310000e-06	2.448585e-06	2.045849e-08	1.766947e+01	1.336077e+03
2.320000e-06	2.304228e-06	1.993076e-08	1.662776e+01	1.302913e+03
2.330000e-06	2.159055e-06	1.936833e-08	1.558016e+01	1.267470e+03
2.340000e-06	2.013172e-06	1.877089e-08	1.452744e+01	1.229274e+03
2.350000e-06	1.866614e-06	1.813457e-08	1.346985e+01	1.187856e+03
2.360000e-06	1.719409e-06	1.745349e-08	1.240759e+01	1.142800e+03
2.370000e-06	1.571573e-06	1.672285e-08	1.134078e+01	1.093781e+03
2.380000e-06	1.423173e-06	1.593691e-08	1.026989e+01	1.040594e+03
2.390000e-06	1.274362e-06	1.509036e-08	9.196044e+00	9.831768e+02
2.400000e-06	1.125177e-06	1.418027e-08	8.119494e+00	9.216029e+02
2.410000e-06	9.756216e-07	1.320472e-08	7.040276e+00	8.560707e+02
2.420000e-06	8.257989e-07	1.215987e-08	5.959126e+00	7.868703e+02
2.430000e-06	6.757998e-07	1.104701e-08	4.876703e+00	7.143438e+02
2.440000e-06	5.255881e-07	9.868059e-09	3.792747e+00	6.388414e+02
2.450000e-06	3.751976e-07	8.634152e-09	2.707499e+00	5.606802e+02
2.460000e-06	2.246861e-07	7.356552e-09	1.621379e+00	4.801125e+02
2.470000e-06	7.406296e-08	6.049703e-09	5.344528e-01	3.973095e+02
2.480000e-06	-7.665448e-08	4.728595e-09	-5.531537e-01	3.123615e+02
2.490000e-06	-2.274136e-07	3.402149e-09	-1.641061e+00	2.252970e+02
2.500000e-06	-3.780873e-07	2.069914e-09	-2.728352e+00	1.361183e+02
2.510000e-06	-5.286177e-07	7.242645e-10	-3.814609e+00	4.484703e+01
2.520000e-06	-6.790216e-07	-6.433859e-10	-4.899952e+00	-4.842381e+01
2.530000e-06	-8.292493e-07	-2.043736e-09	-5.984025e+00	-1.434823e+02
2.540000e-06	-9.792149e-07	-3.487467e-09	-7.066206e+00	-2.399597e+02
2.550000e-06	-1.128860e-06	-4.978710e-09	-8.146076e+00	-3.373096e+02
2.560000e-06	-1.278135e-06	-6.504498e-09	-9.223268e+00	-4.348084e+02
2.570000e-06	-1.427014e-06	-8.040128e-09	-1.029761e+01	-5.315790e+02
2.580000e-06	-1.575418e-06	-9.555831e-09	-1.136852e+01	-6.266352e+02
2.590000e-06	-1.723171e-06	-1.101974e-08	-1.243474e+01	-7.189443e+02
2.600000e-06	-1.870178e-06	-1.240242e-08	-1.349557e+01	-8.074997e+02
2.610000e-06	-2.016484e-06	-1.368484e-08	-1.455134e+01	-8.913953e+02
2.620000e-06	-2.162090e-06	-1.486160e-08	-1.560206e+01	-9.698948e+02
2.630000e-06	-2.306866e-06	-1.593451e-08	-1.664680e+01	-1.042485e+03
2.640000e-06	-2.450665e-06	-1.691193e-08	-1.768448e+01	-1.108910e+03
2.650000e-06	-2.593386e-06	-1.780387e-08	-1.871438e+01	-1.169179e+03
2.660000e-06	-2.735113e-06	-1.861963e-08	-1.973711e+01	-1.223552e+03
2.670000e-06	-2.875846e-06	-1.936733e-08	-2.075267e+01	-1.272498e+03
2.680000e-06	-3.015425e-06	-2.005535e-08	-2.175989e+01	-1.316640e+03
2.690000e-06	-3.153819e-06	-2.069127e-08	-2.275857e+01	-1.356689e+03
2.700000e-06	-3.290975e-06	-2.128206e-08	-2.374832e+01	-1.393371e+03
2.710000e-06	-3.426823e-06	-2.183191e-08	-2.472862e+01	-1.427362e+03
2.720000e-06	-3.561394e-06	-2.234226e-08	-2.569971e+01	-1.459242e+03
2.730000e-06	-3.694788e-06	-2.281671e-08	-2.666231e+01	-1.489451e+03
2.740000e-06	-3.826880e-06	-2.325998e-08	-2.761551e+01	-1.518284e+03
2.750000e-06	-3.957556e-06	-2.367637e-08	-2.855849e+01	-1.545892e+03
2.760000e-06	-4.086889e-06	-2.406788e-08	-2.949179e+01	-1.572305e+03
2.770000e-06	-4.214816e-06	-2.443561e-08	-3.041493e+01	-1.597468e+03
2.780000e-06	-4.341303e-06	-2.478047e-08	-3.132769e+01	-1.621283e+03
2.790000e-06	-4.466334e-06	-2.510458e-08	-3.222994e+01	-1.643652e+03
2.800000e-06	-4.589730e-06	-2.541071e-08	-3.312039e+01	-1.664509e+03
2.810000e-06	-4.711419e-06	-2.570365e-08	-3.399852e+01	-1.683846e+03
2.820000e-06	-4.831408e-06	-2.598252e-08	-3.486438e+01	-1.701729e+03
2.830000e-06	-4.949583e-06	-2.624475e-08	-3.571716e+01	-1.718288e+03
2.840000e-06	-5.065806e-06	-2.649240e-08	-3.655584e+01	-1.733708e+03
2.850000e-06	-5.179995e-06	-2.672740e-08	-3.737986e+01	-1.748206e+03
2.860000e-06	-5.292127e-06	-2.695301e-08	-3.818902e+01	-1.762000e+03
2.870000e-06	-5.402204e-06	-2.716933e-08	-3.898336e+01	-1.775284e+03
2.880000e-06	-5.510338e-06	-2.737532e-08	-3.976368e+01	-1.788203e+03
2.890000e-06	-5.616580e-06	-2.757048e-08	-4.053034e+01	-1.800844e+03
2.900000e-06	-5.720828e-06	-2.775446e-08	-4.128261e+01	-1.813225e+03
2.910000e-06	-5.822941e-06	-2.792974e-08	-4.201948e+01	-1.825306e+03
2.920000e-06	-5.922894e-06	-2.809735e-08	-4.274076e+01	-1.837001e+03
2.930000e-06	-6.020755e-06	-2.825839e-08	-4.344694e+01	-1.848201e+03
2.940000e-06	-6.116456e-06	-2.841222e-08	-4.413754e+01	-1.858797e+03
