# Temperatura_=_35.31
# Concentracion g/m^3_=_28370.0
# C_Vs_to_Am_M_A/Vsm_=_65563218390.804596
# pendiente_HvsI_1/m_=_3716.3
# ordenada_HvsI_A/m_=_1297.0
# frecuencia_Hz_=_302547.45452122326

Tiempo_(s)	Campo_(V.s)	Magnetizacion_(V.s)	Campo_(kA/m)	Magnetizacion_(A/m)
0.000000e+00	-7.877244e-06	-2.300937e-08	-5.683754e+01	-1.505849e+03
1.000000e-08	-7.873867e-06	-2.300573e-08	-5.681318e+01	-1.505151e+03
2.000000e-08	-7.867907e-06	-2.299532e-08	-5.677018e+01	-1.504416e+03
3.000000e-08	-7.859370e-06	-2.298614e-08	-5.670858e+01	-1.503690e+03
4.000000e-08	-7.848043e-06	-2.297905e-08	-5.662685e+01	-1.503000e+03
5.000000e-08	-7.833765e-06	-2.296740e-08	-5.652383e+01	-1.502345e+03
6.000000e-08	-7.816741e-06	-2.294869e-08	-5.640099e+01	-1.501702e+03
7.000000e-08	-7.797441e-06	-2.292724e-08	-5.626173e+01	-1.501026e+03
8.000000e-08	-7.775838e-06	-2.291394e-08	-5.610586e+01	-1.500261e+03
9.000000e-08	-7.751440e-06	-2.294166e-08	-5.592982e+01	-1.499348e+03
1.000000e-07	-7.723877e-06	-2.291695e-08	-5.573094e+01	-1.498237e+03
1.100000e-07	-7.693249e-06	-2.285327e-08	-5.550995e+01	-1.496896e+03
1.200000e-07	-7.659772e-06	-2.282387e-08	-5.526839e+01	-1.495314e+03
1.300000e-07	-7.623660e-06	-2.280216e-08	-5.500783e+01	-1.493504e+03
1.400000e-07	-7.585212e-06	-2.275435e-08	-5.473041e+01	-1.491501e+03
1.500000e-07	-7.544511e-06	-2.268844e-08	-5.443674e+01	-1.489354e+03
1.600000e-07	-7.501510e-06	-2.271993e-08	-5.412647e+01	-1.487114e+03
1.700000e-07	-7.455994e-06	-2.270190e-08	-5.379805e+01	-1.484829e+03
1.800000e-07	-7.407719e-06	-2.258749e-08	-5.344973e+01	-1.482530e+03
1.900000e-07	-7.356553e-06	-2.260247e-08	-5.308055e+01	-1.480224e+03
2.000000e-07	-7.302562e-06	-2.256269e-08	-5.269098e+01	-1.477893e+03
2.100000e-07	-7.245885e-06	-2.250554e-08	-5.228203e+01	-1.475493e+03
2.200000e-07	-7.186489e-06	-2.247945e-08	-5.185346e+01	-1.472964e+03
2.300000e-07	-7.124483e-06	-2.240821e-08	-5.140606e+01	-1.470232e+03
2.400000e-07	-7.059876e-06	-2.237523e-08	-5.093990e+01	-1.467227e+03
2.500000e-07	-6.992611e-06	-2.229727e-08	-5.045456e+01	-1.463893e+03
2.600000e-07	-6.922691e-06	-2.225234e-08	-4.995005e+01	-1.460194e+03
2.700000e-07	-6.850031e-06	-2.218499e-08	-4.942578e+01	-1.456125e+03
2.800000e-07	-6.774698e-06	-2.211911e-08	-4.888222e+01	-1.451707e+03
2.900000e-07	-6.696602e-06	-2.205154e-08	-4.831872e+01	-1.446989e+03
3.000000e-07	-6.615777e-06	-2.196927e-08	-4.773554e+01	-1.442036e+03
3.100000e-07	-6.532548e-06	-2.191038e-08	-4.713501e+01	-1.436918e+03
3.200000e-07	-6.447084e-06	-2.182876e-08	-4.651835e+01	-1.431698e+03
3.300000e-07	-6.359369e-06	-2.176858e-08	-4.588546e+01	-1.426419e+03
3.400000e-07	-6.269323e-06	-2.167833e-08	-4.523573e+01	-1.421094e+03
3.500000e-07	-6.177035e-06	-2.157994e-08	-4.456984e+01	-1.415703e+03
3.600000e-07	-6.082550e-06	-2.149411e-08	-4.388809e+01	-1.410194e+03
3.700000e-07	-5.985774e-06	-2.140130e-08	-4.318981e+01	-1.404489e+03
3.800000e-07	-5.886778e-06	-2.130120e-08	-4.247551e+01	-1.398492e+03
3.900000e-07	-5.785755e-06	-2.119711e-08	-4.174659e+01	-1.392109e+03
4.000000e-07	-5.682659e-06	-2.109576e-08	-4.100272e+01	-1.385257e+03
4.100000e-07	-5.577505e-06	-2.097351e-08	-4.024398e+01	-1.377877e+03
4.200000e-07	-5.470471e-06	-2.085400e-08	-3.947169e+01	-1.369947e+03
4.300000e-07	-5.361544e-06	-2.073445e-08	-3.868574e+01	-1.361478e+03
4.400000e-07	-5.250636e-06	-2.060639e-08	-3.788549e+01	-1.352515e+03
4.500000e-07	-5.137733e-06	-2.046576e-08	-3.707085e+01	-1.343126e+03
4.600000e-07	-5.022913e-06	-2.032401e-08	-3.624237e+01	-1.333387e+03
4.700000e-07	-4.906225e-06	-2.017554e-08	-3.540042e+01	-1.323367e+03
4.800000e-07	-4.787670e-06	-2.001924e-08	-3.454500e+01	-1.313114e+03
4.900000e-07	-4.667285e-06	-1.986123e-08	-3.367637e+01	-1.302636e+03
5.000000e-07	-4.545217e-06	-1.969594e-08	-3.279560e+01	-1.291899e+03
5.100000e-07	-4.421521e-06	-1.951781e-08	-3.190308e+01	-1.280827e+03
5.200000e-07	-4.296218e-06	-1.932374e-08	-3.099898e+01	-1.269304e+03
5.300000e-07	-4.169336e-06	-1.912679e-08	-3.008347e+01	-1.257190e+03
5.400000e-07	-4.040885e-06	-1.892136e-08	-2.915664e+01	-1.244339e+03
5.500000e-07	-3.910938e-06	-1.870537e-08	-2.821902e+01	-1.230617e+03
5.600000e-07	-3.779460e-06	-1.847654e-08	-2.727035e+01	-1.215919e+03
5.700000e-07	-3.646524e-06	-1.823995e-08	-2.631117e+01	-1.200185e+03
5.800000e-07	-3.512243e-06	-1.799057e-08	-2.534227e+01	-1.183398e+03
5.900000e-07	-3.376607e-06	-1.772699e-08	-2.436360e+01	-1.165589e+03
6.000000e-07	-3.239640e-06	-1.744993e-08	-2.337533e+01	-1.146818e+03
6.100000e-07	-3.101422e-06	-1.715881e-08	-2.237803e+01	-1.127157e+03
6.200000e-07	-2.961945e-06	-1.685269e-08	-2.137165e+01	-1.106661e+03
6.300000e-07	-2.821176e-06	-1.652579e-08	-2.035594e+01	-1.085348e+03
6.400000e-07	-2.679233e-06	-1.617922e-08	-1.933177e+01	-1.063172e+03
6.500000e-07	-2.536244e-06	-1.581297e-08	-1.830004e+01	-1.040006e+03
6.600000e-07	-2.392323e-06	-1.542802e-08	-1.726159e+01	-1.015640e+03
6.700000e-07	-2.247609e-06	-1.501891e-08	-1.621742e+01	-9.897843e+02
6.800000e-07	-2.102151e-06	-1.458243e-08	-1.516788e+01	-9.620893e+02
6.900000e-07	-1.955952e-06	-1.411544e-08	-1.411299e+01	-9.321754e+02
7.000000e-07	-1.809095e-06	-1.361347e-08	-1.305336e+01	-8.996684e+02
7.100000e-07	-1.661699e-06	-1.307337e-08	-1.198984e+01	-8.642394e+02
7.200000e-07	-1.513761e-06	-1.249265e-08	-1.092240e+01	-8.256413e+02
7.300000e-07	-1.365308e-06	-1.186939e-08	-9.851254e+00	-7.837374e+02
7.400000e-07	-1.216472e-06	-1.119886e-08	-8.777345e+00	-7.385193e+02
7.500000e-07	-1.067290e-06	-1.048116e-08	-7.700934e+00	-6.901089e+02
7.600000e-07	-9.177727e-07	-9.714540e-09	-6.622106e+00	-6.387456e+02
7.700000e-07	-7.679332e-07	-8.898935e-09	-5.540952e+00	-5.847597e+02
7.800000e-07	-6.177938e-07	-8.035442e-09	-4.457636e+00	-5.285346e+02
7.900000e-07	-4.674133e-07	-7.129990e-09	-3.372578e+00	-4.704639e+02
8.000000e-07	-3.168436e-07	-6.193590e-09	-2.286157e+00	-4.109087e+02
8.100000e-07	-1.661337e-07	-5.237979e-09	-1.198723e+00	-3.501604e+02
8.200000e-07	-1.530827e-08	-4.273182e-09	-1.104555e-01	-2.884170e+02
8.300000e-07	1.355558e-07	-3.305672e-09	9.780903e-01	-2.257725e+02
8.400000e-07	2.863645e-07	-2.340715e-09	2.066237e+00	-1.622256e+02
8.500000e-07	4.371292e-07	-1.376050e-09	3.154066e+00	-9.770295e+01
8.600000e-07	5.878146e-07	-4.093955e-10	4.241323e+00	-3.209761e+01
8.700000e-07	7.382835e-07	5.682035e-10	5.327018e+00	3.468558e+01
8.800000e-07	8.884716e-07	1.568348e-09	6.410686e+00	1.026816e+02
8.900000e-07	1.038412e-06	2.600468e-09	7.492566e+00	1.718220e+02
9.000000e-07	1.188055e-06	3.666048e-09	8.572306e+00	2.419023e+02
9.100000e-07	1.337293e-06	4.759264e-09	9.649118e+00	3.125658e+02
9.200000e-07	1.485979e-06	5.870181e-09	1.072195e+01	3.833058e+02
9.300000e-07	1.634068e-06	6.977643e-09	1.179047e+01	4.534882e+02
9.400000e-07	1.781630e-06	8.057436e-09	1.285519e+01	5.223903e+02
9.500000e-07	1.928591e-06	9.089074e-09	1.391557e+01	5.892534e+02
9.600000e-07	2.074852e-06	1.006155e-08	1.497091e+01	6.533423e+02
9.700000e-07	2.220341e-06	1.096597e-08	1.602067e+01	7.140042e+02
9.800000e-07	2.365042e-06	1.179834e-08	1.706475e+01	7.707213e+02
9.900000e-07	2.508843e-06	1.256181e-08	1.810233e+01	8.231490e+02
1.000000e-06	2.651541e-06	1.326054e-08	1.913196e+01	8.711379e+02
1.010000e-06	2.793244e-06	1.390396e-08	2.015440e+01	9.147349e+02
1.020000e-06	2.933909e-06	1.449640e-08	2.116936e+01	9.541658e+02
1.030000e-06	3.073302e-06	1.504333e-08	2.217513e+01	9.898006e+02
1.040000e-06	3.211400e-06	1.554790e-08	2.317157e+01	1.022108e+03
1.050000e-06	3.348290e-06	1.601292e-08	2.415929e+01	1.051601e+03
1.060000e-06	3.483977e-06	1.644085e-08	2.513832e+01	1.078789e+03
1.070000e-06	3.618325e-06	1.683659e-08	2.610769e+01	1.104130e+03
1.080000e-06	3.751300e-06	1.720769e-08	2.706717e+01	1.127996e+03
1.090000e-06	3.882953e-06	1.755700e-08	2.801709e+01	1.150658e+03
1.100000e-06	4.013195e-06	1.788721e-08	2.895685e+01	1.172277e+03
1.110000e-06	4.142035e-06	1.819670e-08	2.988648e+01	1.192920e+03
1.120000e-06	4.269423e-06	1.848514e-08	3.080564e+01	1.212579e+03
1.130000e-06	4.395324e-06	1.875466e-08	3.171406e+01	1.231197e+03
1.140000e-06	4.519771e-06	1.900730e-08	3.261200e+01	1.248708e+03
1.150000e-06	4.642615e-06	1.924493e-08	3.349837e+01	1.265056e+03
1.160000e-06	4.763821e-06	1.946964e-08	3.437292e+01	1.280224e+03
1.170000e-06	4.883298e-06	1.967950e-08	3.523500e+01	1.294243e+03
1.180000e-06	5.001010e-06	1.987671e-08	3.608433e+01	1.307195e+03
1.190000e-06	5.116977e-06	2.006401e-08	3.692108e+01	1.319206e+03
1.200000e-06	5.230952e-06	2.024422e-08	3.774346e+01	1.330430e+03
1.210000e-06	5.342852e-06	2.041682e-08	3.855086e+01	1.341029e+03
1.220000e-06	5.452820e-06	2.058033e-08	3.934433e+01	1.351154e+03
1.230000e-06	5.560951e-06	2.073552e-08	4.012454e+01	1.360923e+03
1.240000e-06	5.667110e-06	2.088206e-08	4.089052e+01	1.370412e+03
1.250000e-06	5.771087e-06	2.102105e-08	4.164076e+01	1.379648e+03
1.260000e-06	5.872893e-06	2.115207e-08	4.237533e+01	1.388611e+03
1.270000e-06	5.972596e-06	2.127520e-08	4.309473e+01	1.397246e+03
1.280000e-06	6.070070e-06	2.139213e-08	4.379804e+01	1.405476e+03
1.290000e-06	6.165220e-06	2.150389e-08	4.448459e+01	1.413224e+03
1.300000e-06	6.258200e-06	2.161108e-08	4.515547e+01	1.420423e+03
1.310000e-06	6.349003e-06	2.171035e-08	4.581065e+01	1.427040e+03
1.320000e-06	6.437489e-06	2.180056e-08	4.644912e+01	1.433074e+03
1.330000e-06	6.523670e-06	2.188564e-08	4.707095e+01	1.438569e+03
1.340000e-06	6.607573e-06	2.196724e-08	4.767635e+01	1.443599e+03
1.350000e-06	6.689130e-06	2.204416e-08	4.826482e+01	1.448264e+03
1.360000e-06	6.768242e-06	2.211654e-08	4.883564e+01	1.452674e+03
1.370000e-06	6.844834e-06	2.218673e-08	4.938828e+01	1.456932e+03
1.380000e-06	6.918777e-06	2.225538e-08	4.992181e+01	1.461120e+03
1.390000e-06	6.990105e-06	2.232065e-08	5.043647e+01	1.465288e+03
1.400000e-06	7.059037e-06	2.238087e-08	5.093385e+01	1.469449e+03
1.410000e-06	7.125492e-06	2.243816e-08	5.141334e+01	1.473580e+03
1.420000e-06	7.189337e-06	2.249253e-08	5.187401e+01	1.477626e+03
1.430000e-06	7.250729e-06	2.254302e-08	5.231698e+01	1.481513e+03
1.440000e-06	7.309698e-06	2.259167e-08	5.274246e+01	1.485160e+03
1.450000e-06	7.366025e-06	2.263857e-08	5.314889e+01	1.488498e+03
1.460000e-06	7.419644e-06	2.268363e-08	5.353577e+01	1.491475e+03
1.470000e-06	7.470328e-06	2.272627e-08	5.390148e+01	1.494069e+03
1.480000e-06	7.517980e-06	2.276503e-08	5.424531e+01	1.496290e+03
1.490000e-06	7.562958e-06	2.279971e-08	5.456984e+01	1.498180e+03
1.500000e-06	7.605320e-06	2.283002e-08	5.487550e+01	1.499802e+03
1.510000e-06	7.644911e-06	2.285771e-08	5.516116e+01	1.501231e+03
1.520000e-06	7.681819e-06	2.288378e-08	5.542747e+01	1.502543e+03
1.530000e-06	7.716045e-06	2.290764e-08	5.567443e+01	1.503800e+03
1.540000e-06	7.747441e-06	2.292747e-08	5.590096e+01	1.505044e+03
1.550000e-06	7.776101e-06	2.294313e-08	5.610776e+01	1.506288e+03
1.560000e-06	7.801953e-06	2.295670e-08	5.629429e+01	1.507516e+03
1.570000e-06	7.824906e-06	2.296918e-08	5.645991e+01	1.508689e+03
1.580000e-06	7.845201e-06	2.298092e-08	5.660634e+01	1.509752e+03
1.590000e-06	7.862739e-06	2.299023e-08	5.673288e+01	1.510644e+03
1.600000e-06	7.877249e-06	2.299767e-08	5.683758e+01	1.511309e+03
1.610000e-06	7.888662e-06	2.300370e-08	5.691993e+01	1.511709e+03
1.620000e-06	7.897054e-06	2.300724e-08	5.698048e+01	1.511828e+03
1.630000e-06	7.902642e-06	2.300823e-08	5.702080e+01	1.511677e+03
1.640000e-06	7.905469e-06	2.300652e-08	5.704120e+01	1.511292e+03
1.650000e-06	7.905511e-06	2.300403e-08	5.704150e+01	1.510727e+03
1.660000e-06	7.902872e-06	2.299519e-08	5.702246e+01	1.510047e+03
1.670000e-06	7.897580e-06	2.298918e-08	5.698427e+01	1.509314e+03
1.680000e-06	7.889601e-06	2.298554e-08	5.692671e+01	1.508580e+03
1.690000e-06	7.878984e-06	2.297938e-08	5.685010e+01	1.507878e+03
1.700000e-06	7.865589e-06	2.297061e-08	5.675344e+01	1.507214e+03
1.710000e-06	7.849503e-06	2.296297e-08	5.663738e+01	1.506569e+03
1.720000e-06	7.831106e-06	2.295758e-08	5.650464e+01	1.505905e+03
1.730000e-06	7.810398e-06	2.291822e-08	5.635522e+01	1.505165e+03
1.740000e-06	7.786867e-06	2.284346e-08	5.618544e+01	1.504293e+03
1.750000e-06	7.759877e-06	2.285383e-08	5.599069e+01	1.503234e+03
1.760000e-06	7.729324e-06	2.286332e-08	5.577024e+01	1.501950e+03
1.770000e-06	7.695803e-06	2.282644e-08	5.552837e+01	1.500426e+03
1.780000e-06	7.659985e-06	2.281215e-08	5.526993e+01	1.498668e+03
1.790000e-06	7.621924e-06	2.285131e-08	5.499530e+01	1.496708e+03
1.800000e-06	7.581849e-06	2.277387e-08	5.470615e+01	1.494589e+03
1.810000e-06	7.539746e-06	2.270894e-08	5.440236e+01	1.492366e+03
1.820000e-06	7.494976e-06	2.278608e-08	5.407933e+01	1.490087e+03
1.830000e-06	7.447554e-06	2.269684e-08	5.373715e+01	1.487787e+03
1.840000e-06	7.397305e-06	2.269082e-08	5.337459e+01	1.485482e+03
1.850000e-06	7.343965e-06	2.263154e-08	5.298971e+01	1.483158e+03
1.860000e-06	7.287924e-06	2.256194e-08	5.258536e+01	1.480779e+03
1.870000e-06	7.229320e-06	2.257103e-08	5.216250e+01	1.478287e+03
1.880000e-06	7.168095e-06	2.245623e-08	5.172074e+01	1.475610e+03
1.890000e-06	7.104112e-06	2.246168e-08	5.125908e+01	1.472678e+03
1.900000e-06	7.037352e-06	2.239998e-08	5.077738e+01	1.469429e+03
1.910000e-06	6.967836e-06	2.233412e-08	5.027579e+01	1.465821e+03
1.920000e-06	6.895535e-06	2.229183e-08	4.975411e+01	1.461841e+03
1.930000e-06	6.820630e-06	2.220623e-08	4.921364e+01	1.457505e+03
1.940000e-06	6.743045e-06	2.218473e-08	4.865383e+01	1.452854e+03
1.950000e-06	6.662890e-06	2.208851e-08	4.807548e+01	1.447951e+03
1.960000e-06	6.580315e-06	2.203091e-08	4.747967e+01	1.442866e+03
1.970000e-06	6.495244e-06	2.194479e-08	4.686585e+01	1.437665e+03
1.980000e-06	6.407747e-06	2.186734e-08	4.623452e+01	1.432396e+03
1.990000e-06	6.317986e-06	2.180453e-08	4.558686e+01	1.427081e+03
2.000000e-06	6.226071e-06	2.170282e-08	4.492365e+01	1.421709e+03
2.010000e-06	6.131874e-06	2.163097e-08	4.424398e+01	1.416234e+03
2.020000e-06	6.035402e-06	2.152754e-08	4.354790e+01	1.410584e+03
2.030000e-06	5.936785e-06	2.143474e-08	4.283634e+01	1.404667e+03
2.040000e-06	5.836050e-06	2.131735e-08	4.210949e+01	1.398387e+03
2.050000e-06	5.733167e-06	2.122194e-08	4.136715e+01	1.391657e+03
2.060000e-06	5.628278e-06	2.111366e-08	4.061033e+01	1.384411e+03
2.070000e-06	5.521553e-06	2.099448e-08	3.984027e+01	1.376617e+03
2.080000e-06	5.412918e-06	2.087291e-08	3.905642e+01	1.368278e+03
2.090000e-06	5.302331e-06	2.074355e-08	3.825849e+01	1.359431e+03
2.100000e-06	5.189780e-06	2.061631e-08	3.744639e+01	1.350139e+03
2.110000e-06	5.075320e-06	2.047340e-08	3.662051e+01	1.340478e+03
2.120000e-06	4.958882e-06	2.033515e-08	3.578037e+01	1.330521e+03
2.130000e-06	4.840550e-06	2.018050e-08	3.492655e+01	1.320322e+03
2.140000e-06	4.720434e-06	2.002141e-08	3.405986e+01	1.309899e+03
2.150000e-06	4.598534e-06	1.985056e-08	3.318031e+01	1.299232e+03
2.160000e-06	4.474957e-06	1.968269e-08	3.228865e+01	1.288251e+03
2.170000e-06	4.349721e-06	1.950292e-08	3.138502e+01	1.276851e+03
2.180000e-06	4.222914e-06	1.931590e-08	3.047005e+01	1.264897e+03
2.190000e-06	4.094573e-06	1.911943e-08	2.954403e+01	1.252241e+03
2.200000e-06	3.964720e-06	1.891286e-08	2.860708e+01	1.238746e+03
2.210000e-06	3.833323e-06	1.869190e-08	2.765900e+01	1.224298e+03
2.220000e-06	3.700461e-06	1.845893e-08	2.670034e+01	1.208824e+03
2.230000e-06	3.566296e-06	1.821745e-08	2.573229e+01	1.192297e+03
2.240000e-06	3.430900e-06	1.796015e-08	2.475535e+01	1.174737e+03
2.250000e-06	3.294219e-06	1.769077e-08	2.376914e+01	1.156198e+03
2.260000e-06	3.156215e-06	1.740612e-08	2.277338e+01	1.136751e+03
2.270000e-06	3.016937e-06	1.710908e-08	2.176844e+01	1.116458e+03
2.280000e-06	2.876434e-06	1.679244e-08	2.075465e+01	1.095350e+03
2.290000e-06	2.734853e-06	1.645901e-08	1.973309e+01	1.073396e+03
2.300000e-06	2.592278e-06	1.610491e-08	1.870435e+01	1.050492e+03
2.310000e-06	2.448764e-06	1.572948e-08	1.766884e+01	1.026448e+03
2.320000e-06	2.304370e-06	1.532956e-08	1.662697e+01	1.000994e+03
2.330000e-06	2.159158e-06	1.490079e-08	1.557921e+01	9.737916e+02
2.340000e-06	2.013238e-06	1.444095e-08	1.452633e+01	9.444664e+02
2.350000e-06	1.866707e-06	1.394810e-08	1.346905e+01	9.126390e+02
2.360000e-06	1.719500e-06	1.341996e-08	1.240689e+01	8.779656e+02
2.370000e-06	1.571650e-06	1.285265e-08	1.134010e+01	8.401753e+02
2.380000e-06	1.423309e-06	1.224473e-08	1.026976e+01	7.991019e+02
2.390000e-06	1.274545e-06	1.159168e-08	9.196366e+00	7.547040e+02
2.400000e-06	1.125414e-06	1.088793e-08	8.120322e+00	7.070715e+02
2.410000e-06	9.758169e-07	1.013264e-08	7.040919e+00	6.564165e+02
2.420000e-06	8.258310e-07	9.328382e-09	5.958709e+00	6.030497e+02
2.430000e-06	6.756541e-07	8.476522e-09	4.875121e+00	5.473452e+02
2.440000e-06	5.253293e-07	7.580840e-09	3.790466e+00	4.896982e+02
2.450000e-06	3.748530e-07	6.648564e-09	2.704718e+00	4.304816e+02
2.460000e-06	2.242507e-07	5.691748e-09	1.618061e+00	3.700072e+02
2.470000e-06	7.348290e-08	4.721812e-09	5.302093e-01	3.084977e+02
2.480000e-06	-7.737431e-08	3.748696e-09	-5.582874e-01	2.460733e+02
2.490000e-06	-2.281913e-07	2.780112e-09	-1.646494e+00	1.827546e+02
2.500000e-06	-3.789501e-07	1.814452e-09	-2.734280e+00	1.184834e+02
2.510000e-06	-5.296113e-07	8.447850e-10	-3.821362e+00	5.315704e+01
2.520000e-06	-6.801064e-07	-1.378597e-10	-4.907246e+00	-1.332719e+01
2.530000e-06	-8.303449e-07	-1.139062e-09	-5.991279e+00	-8.102368e+01
2.540000e-06	-9.802913e-07	-2.166622e-09	-7.073203e+00	-1.498934e+02
2.550000e-06	-1.129922e-06	-3.228398e-09	-8.152852e+00	-2.197680e+02
2.560000e-06	-1.279198e-06	-4.319135e-09	-9.229939e+00	-2.903294e+02
2.570000e-06	-1.428050e-06	-5.428019e-09	-1.030396e+01	-3.611073e+02
2.580000e-06	-1.576367e-06	-6.540886e-09	-1.137414e+01	-4.314962e+02
2.590000e-06	-1.724067e-06	-7.638441e-09	-1.243985e+01	-5.007910e+02
2.600000e-06	-1.871060e-06	-8.697646e-09	-1.350046e+01	-5.682366e+02
2.610000e-06	-2.017383e-06	-9.701049e-09	-1.455624e+01	-6.330864e+02
2.620000e-06	-2.163033e-06	-1.063848e-08	-1.560717e+01	-6.946616e+02
2.630000e-06	-2.307855e-06	-1.150314e-08	-1.665212e+01	-7.524064e+02
2.640000e-06	-2.451749e-06	-1.229473e-08	-1.769037e+01	-8.059302e+02
2.650000e-06	-2.594640e-06	-1.301910e-08	-1.872139e+01	-8.550338e+02
2.660000e-06	-2.736478e-06	-1.368539e-08	-1.974481e+01	-8.997161e+02
2.670000e-06	-2.877254e-06	-1.429910e-08	-2.076057e+01	-9.401607e+02
2.680000e-06	-3.016880e-06	-1.486460e-08	-2.176802e+01	-9.767056e+02
2.690000e-06	-3.155288e-06	-1.538364e-08	-2.276669e+01	-1.009799e+03
2.700000e-06	-3.292454e-06	-1.586223e-08	-2.375641e+01	-1.039949e+03
2.710000e-06	-3.428324e-06	-1.630423e-08	-2.473676e+01	-1.067670e+03
2.720000e-06	-3.562888e-06	-1.671412e-08	-2.570770e+01	-1.093436e+03
2.730000e-06	-3.696240e-06	-1.709706e-08	-2.666988e+01	-1.117643e+03
2.740000e-06	-3.828321e-06	-1.745431e-08	-2.762290e+01	-1.140588e+03
2.750000e-06	-3.959011e-06	-1.778724e-08	-2.856589e+01	-1.162461e+03
2.760000e-06	-4.088345e-06	-1.809964e-08	-2.949909e+01	-1.183348e+03
2.770000e-06	-4.216255e-06	-1.839462e-08	-3.042201e+01	-1.203258e+03
2.780000e-06	-4.342728e-06	-1.867185e-08	-3.133456e+01	-1.222145e+03
2.790000e-06	-4.467715e-06	-1.893208e-08	-3.223640e+01	-1.239941e+03
2.800000e-06	-4.591084e-06	-1.917499e-08	-3.312655e+01	-1.256585e+03
2.810000e-06	-4.712849e-06	-1.940550e-08	-3.400514e+01	-1.272050e+03
2.820000e-06	-4.832923e-06	-1.962646e-08	-3.487152e+01	-1.286352e+03
2.830000e-06	-4.951109e-06	-1.983626e-08	-3.572428e+01	-1.299562e+03
2.840000e-06	-5.067335e-06	-2.003279e-08	-3.656290e+01	-1.311797e+03
2.850000e-06	-5.181499e-06	-2.021684e-08	-3.738664e+01	-1.323204e+03
2.860000e-06	-5.293566e-06	-2.039090e-08	-3.819525e+01	-1.333946e+03
2.870000e-06	-5.403627e-06	-2.055477e-08	-3.898938e+01	-1.344179e+03
2.880000e-06	-5.511784e-06	-2.070919e-08	-3.976978e+01	-1.354030e+03
2.890000e-06	-5.618123e-06	-2.085678e-08	-4.053706e+01	-1.363587e+03
2.900000e-06	-5.722488e-06	-2.099813e-08	-4.129010e+01	-1.372888e+03
2.910000e-06	-5.824622e-06	-2.113181e-08	-4.202703e+01	-1.381925e+03
2.920000e-06	-5.924487e-06	-2.125837e-08	-4.274760e+01	-1.390650e+03
2.930000e-06	-6.022295e-06	-2.138014e-08	-4.345333e+01	-1.398992e+03
2.940000e-06	-6.118080e-06	-2.149603e-08	-4.414445e+01	-1.406869e+03
