# Temperatura_=_61.32
# Concentracion g/m^3_=_28370.0
# C_Vs_to_Am_M_A/Vsm_=_65563218390.804596
# pendiente_HvsI_1/m_=_3716.3
# ordenada_HvsI_A/m_=_1297.0
# frecuencia_Hz_=_302551.59692423546

Tiempo_(s)	Campo_(V.s)	Magnetizacion_(V.s)	Campo_(kA/m)	Magnetizacion_(A/m)
0.000000e+00	-7.869739e-06	-2.646579e-08	-5.683768e+01	-1.731939e+03
1.000000e-08	-7.866559e-06	-2.646477e-08	-5.681472e+01	-1.731207e+03
2.000000e-08	-7.860755e-06	-2.645587e-08	-5.677280e+01	-1.730422e+03
3.000000e-08	-7.852385e-06	-2.644513e-08	-5.671235e+01	-1.729630e+03
4.000000e-08	-7.841238e-06	-2.643558e-08	-5.663184e+01	-1.728849e+03
5.000000e-08	-7.827207e-06	-2.642213e-08	-5.653050e+01	-1.728076e+03
6.000000e-08	-7.810389e-06	-2.640029e-08	-5.640904e+01	-1.727279e+03
7.000000e-08	-7.791152e-06	-2.637713e-08	-5.627010e+01	-1.726412e+03
8.000000e-08	-7.769666e-06	-2.635765e-08	-5.611493e+01	-1.725419e+03
9.000000e-08	-7.745484e-06	-2.637579e-08	-5.594027e+01	-1.724246e+03
1.000000e-07	-7.718153e-06	-2.637127e-08	-5.574288e+01	-1.722852e+03
1.100000e-07	-7.687719e-06	-2.629637e-08	-5.552308e+01	-1.721214e+03
1.200000e-07	-7.654446e-06	-2.624624e-08	-5.528277e+01	-1.719336e+03
1.300000e-07	-7.618561e-06	-2.622097e-08	-5.502360e+01	-1.717243e+03
1.400000e-07	-7.580379e-06	-2.616967e-08	-5.474783e+01	-1.714980e+03
1.500000e-07	-7.540018e-06	-2.610159e-08	-5.445633e+01	-1.712599e+03
1.600000e-07	-7.497294e-06	-2.610650e-08	-5.414777e+01	-1.710151e+03
1.700000e-07	-7.451986e-06	-2.610864e-08	-5.382054e+01	-1.707675e+03
1.800000e-07	-7.404027e-06	-2.598417e-08	-5.347417e+01	-1.705186e+03
1.900000e-07	-7.353182e-06	-2.597006e-08	-5.310694e+01	-1.702673e+03
2.000000e-07	-7.299336e-06	-2.594316e-08	-5.271806e+01	-1.700093e+03
2.100000e-07	-7.242796e-06	-2.586757e-08	-5.230970e+01	-1.697380e+03
2.200000e-07	-7.183652e-06	-2.584244e-08	-5.188255e+01	-1.694452e+03
2.300000e-07	-7.121879e-06	-2.575697e-08	-5.143640e+01	-1.691221e+03
2.400000e-07	-7.057470e-06	-2.570343e-08	-5.097122e+01	-1.687610e+03
2.500000e-07	-6.990373e-06	-2.561995e-08	-5.048663e+01	-1.683562e+03
2.600000e-07	-6.920614e-06	-2.555101e-08	-4.998281e+01	-1.679053e+03
2.700000e-07	-6.848113e-06	-2.548718e-08	-4.945918e+01	-1.674093e+03
2.800000e-07	-6.772852e-06	-2.540511e-08	-4.891563e+01	-1.668726e+03
2.900000e-07	-6.694912e-06	-2.533245e-08	-4.835272e+01	-1.663025e+03
3.000000e-07	-6.614288e-06	-2.524174e-08	-4.777043e+01	-1.657075e+03
3.100000e-07	-6.531215e-06	-2.516157e-08	-4.717045e+01	-1.650965e+03
3.200000e-07	-6.445962e-06	-2.506476e-08	-4.655473e+01	-1.644767e+03
3.300000e-07	-6.358493e-06	-2.497845e-08	-4.592300e+01	-1.638526e+03
3.400000e-07	-6.268671e-06	-2.488849e-08	-4.527427e+01	-1.632249e+03
3.500000e-07	-6.176595e-06	-2.476931e-08	-4.460927e+01	-1.625904e+03
3.600000e-07	-6.082379e-06	-2.467205e-08	-4.392882e+01	-1.619417e+03
3.700000e-07	-5.985886e-06	-2.456680e-08	-4.323192e+01	-1.612690e+03
3.800000e-07	-5.887114e-06	-2.444807e-08	-4.251855e+01	-1.605610e+03
3.900000e-07	-5.786288e-06	-2.432340e-08	-4.179035e+01	-1.598064e+03
4.000000e-07	-5.683491e-06	-2.419469e-08	-4.104792e+01	-1.589962e+03
4.100000e-07	-5.578656e-06	-2.405561e-08	-4.029077e+01	-1.581246e+03
4.200000e-07	-5.471835e-06	-2.390975e-08	-3.951928e+01	-1.571897e+03
4.300000e-07	-5.363081e-06	-2.377473e-08	-3.873382e+01	-1.561941e+03
4.400000e-07	-5.252361e-06	-2.362567e-08	-3.793417e+01	-1.551440e+03
4.500000e-07	-5.139685e-06	-2.346757e-08	-3.712039e+01	-1.540480e+03
4.600000e-07	-5.025075e-06	-2.330327e-08	-3.629264e+01	-1.529151e+03
4.700000e-07	-4.908526e-06	-2.313347e-08	-3.545089e+01	-1.517535e+03
4.800000e-07	-4.790146e-06	-2.295370e-08	-3.459591e+01	-1.505679e+03
4.900000e-07	-4.669952e-06	-2.276775e-08	-3.372783e+01	-1.493587e+03
5.000000e-07	-4.548046e-06	-2.257659e-08	-3.284739e+01	-1.481211e+03
5.100000e-07	-4.424495e-06	-2.236870e-08	-3.195506e+01	-1.468454e+03
5.200000e-07	-4.299303e-06	-2.214725e-08	-3.105089e+01	-1.455176e+03
5.300000e-07	-4.172582e-06	-2.191815e-08	-3.013567e+01	-1.441215e+03
5.400000e-07	-4.044350e-06	-2.168334e-08	-2.920954e+01	-1.426402e+03
5.500000e-07	-3.914613e-06	-2.143385e-08	-2.827254e+01	-1.410592e+03
5.600000e-07	-3.783346e-06	-2.117176e-08	-2.732449e+01	-1.393672e+03
5.700000e-07	-3.650583e-06	-2.090065e-08	-2.636564e+01	-1.375584e+03
5.800000e-07	-3.516451e-06	-2.061728e-08	-2.539689e+01	-1.356324e+03
5.900000e-07	-3.380979e-06	-2.031962e-08	-2.441848e+01	-1.335937e+03
6.000000e-07	-3.244232e-06	-2.000582e-08	-2.343084e+01	-1.314502e+03
6.100000e-07	-3.106257e-06	-1.967708e-08	-2.243434e+01	-1.292105e+03
6.200000e-07	-2.967035e-06	-1.932695e-08	-2.142884e+01	-1.268811e+03
6.300000e-07	-2.826510e-06	-1.895393e-08	-2.041393e+01	-1.244637e+03
6.400000e-07	-2.684730e-06	-1.856039e-08	-1.938995e+01	-1.219524e+03
6.500000e-07	-2.541923e-06	-1.814679e-08	-1.835855e+01	-1.193320e+03
6.600000e-07	-2.398176e-06	-1.771068e-08	-1.732037e+01	-1.165777e+03
6.700000e-07	-2.253584e-06	-1.724797e-08	-1.627608e+01	-1.136558e+03
6.800000e-07	-2.108273e-06	-1.675509e-08	-1.522659e+01	-1.105260e+03
6.900000e-07	-1.962232e-06	-1.622696e-08	-1.417184e+01	-1.071450e+03
7.000000e-07	-1.815445e-06	-1.566095e-08	-1.311170e+01	-1.034701e+03
7.100000e-07	-1.668076e-06	-1.505121e-08	-1.204736e+01	-9.946381e+02
7.200000e-07	-1.520303e-06	-1.439631e-08	-1.098009e+01	-9.509773e+02
7.300000e-07	-1.372165e-06	-1.369312e-08	-9.910198e+00	-9.035540e+02
7.400000e-07	-1.223577e-06	-1.293605e-08	-8.837053e+00	-8.523408e+02
7.500000e-07	-1.074467e-06	-1.212331e-08	-7.760133e+00	-7.974471e+02
7.600000e-07	-9.249805e-07	-1.125345e-08	-6.680494e+00	-7.391037e+02
7.700000e-07	-7.752028e-07	-1.032415e-08	-5.598754e+00	-6.776326e+02
7.800000e-07	-6.251514e-07	-9.334009e-09	-4.515036e+00	-6.134064e+02
7.900000e-07	-4.749030e-07	-8.292770e-09	-3.429896e+00	-5.468042e+02
8.000000e-07	-3.245217e-07	-7.210465e-09	-2.343796e+00	-4.781684e+02
8.100000e-07	-1.740332e-07	-6.098945e-09	-1.256921e+00	-4.077704e+02
8.200000e-07	-2.342095e-08	-4.968807e-09	-1.691533e-01	-3.357902e+02
8.300000e-07	1.272452e-07	-3.833445e-09	9.190038e-01	-2.623129e+02
8.400000e-07	2.778891e-07	-2.698624e-09	2.007000e+00	-1.873428e+02
8.500000e-07	4.284933e-07	-1.560498e-09	3.094710e+00	-1.108348e+02
8.600000e-07	5.789993e-07	-4.141096e-10	4.181711e+00	-3.273762e+01
8.700000e-07	7.293307e-07	7.503484e-10	5.267451e+00	4.695609e+01
8.800000e-07	8.794415e-07	1.942561e-09	6.351598e+00	1.281608e+02
8.900000e-07	1.029337e-06	3.175482e-09	7.434190e+00	2.106571e+02
9.000000e-07	1.178897e-06	4.447862e-09	8.514357e+00	2.940647e+02
9.100000e-07	1.327994e-06	5.750252e-09	9.591184e+00	3.778353e+02
9.200000e-07	1.476624e-06	7.065890e-09	1.066464e+01	4.612667e+02
9.300000e-07	1.624701e-06	8.370329e-09	1.173409e+01	5.435372e+02
9.400000e-07	1.772170e-06	9.632192e-09	1.279916e+01	6.237582e+02
9.500000e-07	1.919050e-06	1.082383e-08	1.385997e+01	7.010380e+02
9.600000e-07	2.065270e-06	1.193110e-08	1.491602e+01	7.745503e+02
9.700000e-07	2.210692e-06	1.294971e-08	1.596630e+01	8.435987e+02
9.800000e-07	2.355243e-06	1.388318e-08	1.701029e+01	9.076704e+02
9.900000e-07	2.498873e-06	1.473712e-08	1.804763e+01	9.664718e+02
1.000000e-06	2.641602e-06	1.552077e-08	1.907846e+01	1.019943e+03
1.010000e-06	2.783296e-06	1.623648e-08	2.010182e+01	1.068251e+03
1.020000e-06	2.923781e-06	1.689050e-08	2.111645e+01	1.111757e+03
1.030000e-06	3.063026e-06	1.749204e-08	2.212212e+01	1.150971e+03
1.040000e-06	3.201053e-06	1.804745e-08	2.311899e+01	1.186495e+03
1.050000e-06	3.337870e-06	1.856349e-08	2.410713e+01	1.218958e+03
1.060000e-06	3.473434e-06	1.903929e-08	2.508621e+01	1.248959e+03
1.070000e-06	3.607771e-06	1.948145e-08	2.605643e+01	1.277019e+03
1.080000e-06	3.740804e-06	1.989534e-08	2.701724e+01	1.303545e+03
1.090000e-06	3.872436e-06	2.028338e-08	2.796793e+01	1.328816e+03
1.100000e-06	4.002671e-06	2.064715e-08	2.890852e+01	1.352983e+03
1.110000e-06	4.131457e-06	2.098776e-08	2.983865e+01	1.376088e+03
1.120000e-06	4.258792e-06	2.130857e-08	3.075831e+01	1.398094e+03
1.130000e-06	4.384745e-06	2.161069e-08	3.166798e+01	1.418920e+03
1.140000e-06	4.509221e-06	2.189253e-08	3.256698e+01	1.438480e+03
1.150000e-06	4.632076e-06	2.215530e-08	3.345428e+01	1.456712e+03
1.160000e-06	4.753266e-06	2.240356e-08	3.432955e+01	1.473604e+03
1.170000e-06	4.872773e-06	2.263948e-08	3.519267e+01	1.489205e+03
1.180000e-06	4.990519e-06	2.286438e-08	3.604307e+01	1.503625e+03
1.190000e-06	5.106363e-06	2.307878e-08	3.687972e+01	1.517022e+03
1.200000e-06	5.220259e-06	2.328483e-08	3.770232e+01	1.529583e+03
1.210000e-06	5.332223e-06	2.348048e-08	3.851096e+01	1.541498e+03
1.220000e-06	5.442276e-06	2.366300e-08	3.930580e+01	1.552938e+03
1.230000e-06	5.550368e-06	2.383274e-08	4.008647e+01	1.564033e+03
1.240000e-06	5.656401e-06	2.399328e-08	4.085227e+01	1.574860e+03
1.250000e-06	5.760346e-06	2.414789e-08	4.160300e+01	1.585435e+03
1.260000e-06	5.862211e-06	2.429600e-08	4.233870e+01	1.595724e+03
1.270000e-06	5.961855e-06	2.443753e-08	4.305835e+01	1.605651e+03
1.280000e-06	6.059202e-06	2.457347e-08	4.376142e+01	1.615119e+03
1.290000e-06	6.154352e-06	2.470457e-08	4.444863e+01	1.624032e+03
1.300000e-06	6.247358e-06	2.482969e-08	4.512035e+01	1.632313e+03
1.310000e-06	6.338156e-06	2.494676e-08	4.577611e+01	1.639922e+03
1.320000e-06	6.426605e-06	2.505490e-08	4.641492e+01	1.646861e+03
1.330000e-06	6.512768e-06	2.515525e-08	4.703721e+01	1.653181e+03
1.340000e-06	6.596704e-06	2.525033e-08	4.764343e+01	1.658970e+03
1.350000e-06	6.678266e-06	2.533903e-08	4.823249e+01	1.664345e+03
1.360000e-06	6.757390e-06	2.542373e-08	4.880396e+01	1.669430e+03
1.370000e-06	6.834005e-06	2.550528e-08	4.935729e+01	1.674343e+03
1.380000e-06	6.908028e-06	2.558212e-08	4.989191e+01	1.679174e+03
1.390000e-06	6.979512e-06	2.565504e-08	5.040819e+01	1.683979e+03
1.400000e-06	7.048538e-06	2.572458e-08	5.090672e+01	1.688771e+03
1.410000e-06	7.115023e-06	2.579058e-08	5.138689e+01	1.693523e+03
1.420000e-06	7.178912e-06	2.585259e-08	5.184832e+01	1.698174e+03
1.430000e-06	7.240348e-06	2.591208e-08	5.229203e+01	1.702642e+03
1.440000e-06	7.299325e-06	2.596956e-08	5.271798e+01	1.706840e+03
1.450000e-06	7.355775e-06	2.602453e-08	5.312567e+01	1.710693e+03
1.460000e-06	7.409486e-06	2.607624e-08	5.351359e+01	1.714148e+03
1.470000e-06	7.460227e-06	2.612349e-08	5.388006e+01	1.717184e+03
1.480000e-06	7.507994e-06	2.616724e-08	5.422505e+01	1.719815e+03
1.490000e-06	7.553059e-06	2.621023e-08	5.455052e+01	1.722087e+03
1.500000e-06	7.595442e-06	2.624949e-08	5.485662e+01	1.724067e+03
1.510000e-06	7.635039e-06	2.628288e-08	5.514261e+01	1.725837e+03
1.520000e-06	7.672023e-06	2.631216e-08	5.540972e+01	1.727474e+03
1.530000e-06	7.706370e-06	2.633820e-08	5.565778e+01	1.729042e+03
1.540000e-06	7.737946e-06	2.636098e-08	5.588583e+01	1.730580e+03
1.550000e-06	7.766811e-06	2.638098e-08	5.609430e+01	1.732096e+03
1.560000e-06	7.792899e-06	2.639892e-08	5.628272e+01	1.733570e+03
1.570000e-06	7.816057e-06	2.641500e-08	5.644997e+01	1.734958e+03
1.580000e-06	7.836468e-06	2.642973e-08	5.659739e+01	1.736200e+03
1.590000e-06	7.854097e-06	2.644215e-08	5.672471e+01	1.737232e+03
1.600000e-06	7.868818e-06	2.645090e-08	5.683103e+01	1.738001e+03
1.610000e-06	7.880515e-06	2.645588e-08	5.691551e+01	1.738469e+03
1.620000e-06	7.889099e-06	2.645802e-08	5.697750e+01	1.738626e+03
1.630000e-06	7.894832e-06	2.645852e-08	5.701891e+01	1.738490e+03
1.640000e-06	7.897811e-06	2.645875e-08	5.704042e+01	1.738100e+03
1.650000e-06	7.897960e-06	2.645927e-08	5.704150e+01	1.737515e+03
1.660000e-06	7.895445e-06	2.645404e-08	5.702334e+01	1.736802e+03
1.670000e-06	7.890330e-06	2.644586e-08	5.698639e+01	1.736024e+03
1.680000e-06	7.882519e-06	2.644077e-08	5.692998e+01	1.735229e+03
1.690000e-06	7.872103e-06	2.643165e-08	5.685476e+01	1.734443e+03
1.700000e-06	7.858927e-06	2.641939e-08	5.675959e+01	1.733667e+03
1.710000e-06	7.843040e-06	2.640775e-08	5.664485e+01	1.732878e+03
1.720000e-06	7.824803e-06	2.639334e-08	5.651314e+01	1.732032e+03
1.730000e-06	7.804225e-06	2.636108e-08	5.636452e+01	1.731074e+03
1.740000e-06	7.780844e-06	2.627266e-08	5.619565e+01	1.729948e+03
1.750000e-06	7.754047e-06	2.626039e-08	5.600212e+01	1.728610e+03
1.760000e-06	7.723625e-06	2.628700e-08	5.578240e+01	1.727032e+03
1.770000e-06	7.690183e-06	2.625340e-08	5.554087e+01	1.725211e+03
1.780000e-06	7.654496e-06	2.622441e-08	5.528313e+01	1.723166e+03
1.790000e-06	7.616559e-06	2.624657e-08	5.500914e+01	1.720938e+03
1.800000e-06	7.576545e-06	2.620235e-08	5.472015e+01	1.718580e+03
1.810000e-06	7.534547e-06	2.610006e-08	5.441682e+01	1.716142e+03
1.820000e-06	7.489995e-06	2.617424e-08	5.409505e+01	1.713669e+03
1.830000e-06	7.442800e-06	2.612429e-08	5.375420e+01	1.711181e+03
1.840000e-06	7.392856e-06	2.608664e-08	5.339348e+01	1.708675e+03
1.850000e-06	7.339842e-06	2.608118e-08	5.301060e+01	1.706115e+03
1.860000e-06	7.283996e-06	2.596790e-08	5.260726e+01	1.703441e+03
1.870000e-06	7.225540e-06	2.598567e-08	5.218508e+01	1.700572e+03
1.880000e-06	7.164523e-06	2.588521e-08	5.174440e+01	1.697423e+03
1.890000e-06	7.100725e-06	2.583622e-08	5.128362e+01	1.693911e+03
1.900000e-06	7.034097e-06	2.580310e-08	5.080241e+01	1.689974e+03
1.910000e-06	6.964869e-06	2.568963e-08	5.030243e+01	1.685579e+03
1.920000e-06	6.892907e-06	2.566317e-08	4.978270e+01	1.680727e+03
1.930000e-06	6.818268e-06	2.555413e-08	4.924363e+01	1.675454e+03
1.940000e-06	6.740974e-06	2.550981e-08	4.868539e+01	1.669826e+03
1.950000e-06	6.660988e-06	2.542142e-08	4.810771e+01	1.663928e+03
1.960000e-06	6.578519e-06	2.532163e-08	4.751209e+01	1.657848e+03
1.970000e-06	6.493626e-06	2.525303e-08	4.689897e+01	1.651665e+03
1.980000e-06	6.406316e-06	2.513098e-08	4.626839e+01	1.645430e+03
1.990000e-06	6.316688e-06	2.507055e-08	4.562107e+01	1.639162e+03
2.000000e-06	6.224875e-06	2.494659e-08	4.495797e+01	1.632837e+03
2.010000e-06	6.130817e-06	2.484633e-08	4.427865e+01	1.626392e+03
2.020000e-06	6.034543e-06	2.472498e-08	4.358333e+01	1.619734e+03
2.030000e-06	5.936202e-06	2.460807e-08	4.287308e+01	1.612750e+03
2.040000e-06	5.835752e-06	2.449590e-08	4.214760e+01	1.605329e+03
2.050000e-06	5.733155e-06	2.436958e-08	4.140661e+01	1.597371e+03
2.060000e-06	5.628497e-06	2.425380e-08	4.065074e+01	1.588809e+03
2.070000e-06	5.521951e-06	2.410106e-08	3.988123e+01	1.579616e+03
2.080000e-06	5.413535e-06	2.396176e-08	3.909822e+01	1.569805e+03
2.090000e-06	5.303183e-06	2.380172e-08	3.830122e+01	1.559431e+03
2.100000e-06	5.190852e-06	2.365317e-08	3.748993e+01	1.548575e+03
2.110000e-06	5.076666e-06	2.348941e-08	3.666525e+01	1.537328e+03
2.120000e-06	4.960555e-06	2.332557e-08	3.582665e+01	1.525776e+03
2.130000e-06	4.842450e-06	2.314809e-08	3.497367e+01	1.513975e+03
2.140000e-06	4.722472e-06	2.295871e-08	3.410715e+01	1.501943e+03
2.150000e-06	4.600781e-06	2.276592e-08	3.322826e+01	1.489643e+03
2.160000e-06	4.477476e-06	2.256530e-08	3.233771e+01	1.476991e+03
2.170000e-06	4.352492e-06	2.236133e-08	3.143504e+01	1.463856e+03
2.180000e-06	4.225887e-06	2.213801e-08	3.052066e+01	1.450079e+03
2.190000e-06	4.097651e-06	2.191075e-08	2.959450e+01	1.435493e+03
2.200000e-06	3.967971e-06	2.166796e-08	2.865791e+01	1.419942e+03
2.210000e-06	3.836898e-06	2.141662e-08	2.771126e+01	1.403305e+03
2.220000e-06	3.704310e-06	2.115152e-08	2.675367e+01	1.385509e+03
2.230000e-06	3.570347e-06	2.087738e-08	2.578615e+01	1.366538e+03
2.240000e-06	3.435121e-06	2.058257e-08	2.480950e+01	1.346425e+03
2.250000e-06	3.298572e-06	2.027120e-08	2.382330e+01	1.325241e+03
2.260000e-06	3.160665e-06	1.994486e-08	2.282730e+01	1.303075e+03
2.270000e-06	3.021522e-06	1.960360e-08	2.182236e+01	1.279999e+03
2.280000e-06	2.881217e-06	1.924521e-08	2.080904e+01	1.256046e+03
2.290000e-06	2.739804e-06	1.886663e-08	1.978771e+01	1.231176e+03
2.300000e-06	2.597395e-06	1.846795e-08	1.875919e+01	1.205262e+03
2.310000e-06	2.454081e-06	1.804104e-08	1.772413e+01	1.178080e+03
2.320000e-06	2.309914e-06	1.758493e-08	1.668291e+01	1.149314e+03
2.330000e-06	2.164890e-06	1.709684e-08	1.563550e+01	1.118574e+03
2.340000e-06	2.019102e-06	1.657733e-08	1.458257e+01	1.085431e+03
2.350000e-06	1.872714e-06	1.602041e-08	1.352532e+01	1.049452e+03
2.360000e-06	1.725742e-06	1.542354e-08	1.246384e+01	1.010247e+03
2.370000e-06	1.578142e-06	1.478538e-08	1.139783e+01	9.675038e+02
2.380000e-06	1.429991e-06	1.410056e-08	1.032783e+01	9.210272e+02
2.390000e-06	1.281431e-06	1.336207e-08	9.254888e+00	8.707544e+02
2.400000e-06	1.132523e-06	1.256451e-08	8.179432e+00	8.167615e+02
2.410000e-06	9.832317e-07	1.170881e-08	7.101202e+00	7.592513e+02
2.420000e-06	8.335069e-07	1.079632e-08	6.019844e+00	6.985263e+02
2.430000e-06	6.834934e-07	9.825151e-09	4.936400e+00	6.349509e+02
2.440000e-06	5.333230e-07	8.797909e-09	3.851823e+00	5.689065e+02
2.450000e-06	3.829596e-07	7.723281e-09	2.765852e+00	5.007484e+02
2.460000e-06	2.324386e-07	6.613455e-09	1.678743e+00	4.307682e+02
2.470000e-06	8.179853e-08	5.481319e-09	5.907742e-01	3.591700e+02
2.480000e-06	-6.888330e-08	4.340390e-09	-4.974964e-01	2.860618e+02
2.490000e-06	-2.195544e-07	3.200298e-09	-1.585689e+00	2.114659e+02
2.500000e-06	-3.701648e-07	2.060534e-09	-2.673444e+00	1.353457e+02
2.510000e-06	-5.206655e-07	9.138690e-10	-3.760407e+00	5.764711e+01
2.520000e-06	-6.710341e-07	-2.509653e-10	-4.846415e+00	-2.165307e+01
2.530000e-06	-8.211812e-07	-1.443150e-09	-5.930824e+00	-1.024968e+02
2.540000e-06	-9.710221e-07	-2.668945e-09	-7.013021e+00	-1.847013e+02
2.550000e-06	-1.120477e-06	-3.934570e-09	-8.092430e+00	-2.679280e+02
2.560000e-06	-1.269560e-06	-5.234897e-09	-9.169157e+00	-3.516701e+02
2.570000e-06	-1.418233e-06	-6.554457e-09	-1.024291e+01	-4.352615e+02
2.580000e-06	-1.566383e-06	-7.870241e-09	-1.131290e+01	-5.179059e+02
2.590000e-06	-1.713986e-06	-9.153534e-09	-1.237893e+01	-5.987260e+02
2.600000e-06	-1.861000e-06	-1.037918e-08	-1.344072e+01	-6.768243e+02
2.610000e-06	-2.007363e-06	-1.152592e-08	-1.449779e+01	-7.513519e+02
2.620000e-06	-2.152984e-06	-1.258503e-08	-1.554951e+01	-8.215743e+02
2.630000e-06	-2.297696e-06	-1.355489e-08	-1.659467e+01	-8.869286e+02
2.640000e-06	-2.441415e-06	-1.444051e-08	-1.763265e+01	-9.470644e+02
2.650000e-06	-2.584121e-06	-1.525101e-08	-1.866332e+01	-1.001863e+03
2.660000e-06	-2.725812e-06	-1.599253e-08	-1.968665e+01	-1.051437e+03
2.670000e-06	-2.866483e-06	-1.667165e-08	-2.070262e+01	-1.096103e+03
2.680000e-06	-3.006013e-06	-1.729550e-08	-2.171035e+01	-1.136338e+03
2.690000e-06	-3.144377e-06	-1.787086e-08	-2.270966e+01	-1.172727e+03
2.700000e-06	-3.281523e-06	-1.840211e-08	-2.370017e+01	-1.205899e+03
2.710000e-06	-3.417372e-06	-1.889209e-08	-2.468132e+01	-1.236465e+03
2.720000e-06	-3.551988e-06	-1.934649e-08	-2.565355e+01	-1.264970e+03
2.730000e-06	-3.685286e-06	-1.977038e-08	-2.661627e+01	-1.291850e+03
2.740000e-06	-3.817194e-06	-2.016863e-08	-2.756895e+01	-1.317418e+03
2.750000e-06	-3.947828e-06	-2.054331e-08	-2.851243e+01	-1.341855e+03
2.760000e-06	-4.077176e-06	-2.089343e-08	-2.944662e+01	-1.365228e+03
2.770000e-06	-4.205090e-06	-2.122086e-08	-3.037046e+01	-1.387517e+03
2.780000e-06	-4.331480e-06	-2.152660e-08	-3.128328e+01	-1.408649e+03
2.790000e-06	-4.456377e-06	-2.181468e-08	-3.218533e+01	-1.428535e+03
2.800000e-06	-4.579741e-06	-2.208555e-08	-3.307630e+01	-1.447104e+03
2.810000e-06	-4.701504e-06	-2.234325e-08	-3.395571e+01	-1.464330e+03
2.820000e-06	-4.821557e-06	-2.258880e-08	-3.482277e+01	-1.480248e+03
2.830000e-06	-4.939727e-06	-2.282300e-08	-3.567623e+01	-1.494953e+03
2.840000e-06	-5.055919e-06	-2.304673e-08	-3.651540e+01	-1.508591e+03
2.850000e-06	-5.170029e-06	-2.325710e-08	-3.733954e+01	-1.521344e+03
2.860000e-06	-5.282075e-06	-2.345558e-08	-3.814877e+01	-1.533406e+03
2.870000e-06	-5.392175e-06	-2.364303e-08	-3.894395e+01	-1.544952e+03
2.880000e-06	-5.500394e-06	-2.382042e-08	-3.972554e+01	-1.556127e+03
2.890000e-06	-5.606697e-06	-2.398673e-08	-4.049330e+01	-1.567018e+03
2.900000e-06	-5.711004e-06	-2.414314e-08	-4.124663e+01	-1.577660e+03
2.910000e-06	-5.813170e-06	-2.429243e-08	-4.198451e+01	-1.588028e+03
2.920000e-06	-5.913134e-06	-2.443681e-08	-4.270648e+01	-1.598056e+03
2.930000e-06	-6.010971e-06	-2.457665e-08	-4.341309e+01	-1.607651e+03
2.940000e-06	-6.106648e-06	-2.471031e-08	-4.410409e+01	-1.616713e+03
