# Temperatura_=_81.79
# Concentracion g/m^3_=_28370.0
# C_Vs_to_Am_M_A/Vsm_=_65563218390.804596
# pendiente_HvsI_1/m_=_3716.3
# ordenada_HvsI_A/m_=_1297.0
# frecuencia_Hz_=_302556.864372678

Tiempo_(s)	Campo_(V.s)	Magnetizacion_(V.s)	Campo_(kA/m)	Magnetizacion_(A/m)
0.000000e+00	-7.889448e-06	-2.889064e-08	-5.683662e+01	-1.891200e+03
1.000000e-08	-7.886140e-06	-2.888540e-08	-5.681278e+01	-1.890380e+03
2.000000e-08	-7.880233e-06	-2.887409e-08	-5.677024e+01	-1.889509e+03
3.000000e-08	-7.871729e-06	-2.886163e-08	-5.670897e+01	-1.888628e+03
4.000000e-08	-7.860434e-06	-2.884768e-08	-5.662760e+01	-1.887744e+03
5.000000e-08	-7.846196e-06	-2.883138e-08	-5.652503e+01	-1.886842e+03
6.000000e-08	-7.829139e-06	-2.880955e-08	-5.640215e+01	-1.885879e+03
7.000000e-08	-7.809739e-06	-2.878422e-08	-5.626238e+01	-1.884796e+03
8.000000e-08	-7.788100e-06	-2.877075e-08	-5.610649e+01	-1.883531e+03
9.000000e-08	-7.763729e-06	-2.878702e-08	-5.593092e+01	-1.882030e+03
1.000000e-07	-7.736184e-06	-2.875193e-08	-5.573249e+01	-1.880254e+03
1.100000e-07	-7.705596e-06	-2.867701e-08	-5.551213e+01	-1.878191e+03
1.200000e-07	-7.672197e-06	-2.862968e-08	-5.527151e+01	-1.875858e+03
1.300000e-07	-7.636133e-06	-2.859410e-08	-5.501170e+01	-1.873294e+03
1.400000e-07	-7.597722e-06	-2.853675e-08	-5.473498e+01	-1.870560e+03
1.500000e-07	-7.557089e-06	-2.847518e-08	-5.444226e+01	-1.867721e+03
1.600000e-07	-7.514050e-06	-2.849235e-08	-5.413220e+01	-1.864835e+03
1.700000e-07	-7.468411e-06	-2.843921e-08	-5.380341e+01	-1.861944e+03
1.800000e-07	-7.420172e-06	-2.832917e-08	-5.345589e+01	-1.859057e+03
1.900000e-07	-7.369046e-06	-2.831008e-08	-5.308757e+01	-1.856154e+03
2.000000e-07	-7.314901e-06	-2.823904e-08	-5.269750e+01	-1.853178e+03
2.100000e-07	-7.258069e-06	-2.818346e-08	-5.228808e+01	-1.850045e+03
2.200000e-07	-7.198621e-06	-2.814414e-08	-5.185981e+01	-1.846656e+03
2.300000e-07	-7.136596e-06	-2.807730e-08	-5.141297e+01	-1.842910e+03
2.400000e-07	-7.071904e-06	-2.801932e-08	-5.094693e+01	-1.838718e+03
2.500000e-07	-7.004482e-06	-2.790931e-08	-5.046121e+01	-1.834019e+03
2.600000e-07	-6.934448e-06	-2.782768e-08	-4.995667e+01	-1.828791e+03
2.700000e-07	-6.861657e-06	-2.774634e-08	-4.943227e+01	-1.823049e+03
2.800000e-07	-6.786101e-06	-2.765792e-08	-4.888796e+01	-1.816850e+03
2.900000e-07	-6.707854e-06	-2.755793e-08	-4.832426e+01	-1.810278e+03
3.000000e-07	-6.626927e-06	-2.746310e-08	-4.774126e+01	-1.803433e+03
3.100000e-07	-6.543609e-06	-2.737525e-08	-4.714102e+01	-1.796415e+03
3.200000e-07	-6.458115e-06	-2.725631e-08	-4.652511e+01	-1.789303e+03
3.300000e-07	-6.370344e-06	-2.716415e-08	-4.589280e+01	-1.782146e+03
3.400000e-07	-6.280181e-06	-2.705543e-08	-4.524325e+01	-1.774948e+03
3.500000e-07	-6.187791e-06	-2.693136e-08	-4.457766e+01	-1.767670e+03
3.600000e-07	-6.093200e-06	-2.680962e-08	-4.389621e+01	-1.760230e+03
3.700000e-07	-5.996324e-06	-2.667835e-08	-4.319830e+01	-1.752518e+03
3.800000e-07	-5.897241e-06	-2.654533e-08	-4.248450e+01	-1.744409e+03
3.900000e-07	-5.796066e-06	-2.641081e-08	-4.175562e+01	-1.735785e+03
4.000000e-07	-5.692809e-06	-2.627371e-08	-4.101174e+01	-1.726551e+03
4.100000e-07	-5.587519e-06	-2.611636e-08	-4.025322e+01	-1.716646e+03
4.200000e-07	-5.480271e-06	-2.596024e-08	-3.948059e+01	-1.706057e+03
4.300000e-07	-5.371087e-06	-2.579985e-08	-3.869402e+01	-1.694817e+03
4.400000e-07	-5.259987e-06	-2.562833e-08	-3.789363e+01	-1.682995e+03
4.500000e-07	-5.146973e-06	-2.544679e-08	-3.707947e+01	-1.670685e+03
4.600000e-07	-5.031883e-06	-2.526248e-08	-3.625034e+01	-1.657986e+03
4.700000e-07	-4.914745e-06	-2.507190e-08	-3.540647e+01	-1.644980e+03
4.800000e-07	-4.795905e-06	-2.486913e-08	-3.455033e+01	-1.631713e+03
4.900000e-07	-4.675462e-06	-2.466106e-08	-3.368264e+01	-1.618186e+03
5.000000e-07	-4.553267e-06	-2.444489e-08	-3.280233e+01	-1.604340e+03
5.100000e-07	-4.429243e-06	-2.421801e-08	-3.190885e+01	-1.590068e+03
5.200000e-07	-4.303693e-06	-2.397554e-08	-3.100437e+01	-1.575219e+03
5.300000e-07	-4.176644e-06	-2.372487e-08	-3.008909e+01	-1.559620e+03
5.400000e-07	-4.048093e-06	-2.346292e-08	-2.916299e+01	-1.543097e+03
5.500000e-07	-3.917971e-06	-2.318598e-08	-2.822557e+01	-1.525502e+03
5.600000e-07	-3.786241e-06	-2.289526e-08	-2.727658e+01	-1.506725e+03
5.700000e-07	-3.653174e-06	-2.259205e-08	-2.631794e+01	-1.486715e+03
5.800000e-07	-3.518693e-06	-2.227566e-08	-2.534912e+01	-1.465476e+03
5.900000e-07	-3.382833e-06	-2.194603e-08	-2.437038e+01	-1.443062e+03
6.000000e-07	-3.245810e-06	-2.160419e-08	-2.338324e+01	-1.419560e+03
6.100000e-07	-3.107487e-06	-2.124718e-08	-2.238675e+01	-1.395057e+03
6.200000e-07	-2.967754e-06	-2.087052e-08	-2.138009e+01	-1.369618e+03
6.300000e-07	-2.826732e-06	-2.046877e-08	-2.036415e+01	-1.343247e+03
6.400000e-07	-2.684605e-06	-2.004051e-08	-1.934024e+01	-1.315867e+03
6.500000e-07	-2.541451e-06	-1.958627e-08	-1.830894e+01	-1.287301e+03
6.600000e-07	-2.397217e-06	-1.910765e-08	-1.726987e+01	-1.257271e+03
6.700000e-07	-2.252097e-06	-1.860019e-08	-1.622441e+01	-1.225408e+03
6.800000e-07	-2.106297e-06	-1.806098e-08	-1.517404e+01	-1.191281e+03
6.900000e-07	-1.959829e-06	-1.748798e-08	-1.411887e+01	-1.154425e+03
7.000000e-07	-1.812688e-06	-1.687407e-08	-1.305884e+01	-1.114394e+03
7.100000e-07	-1.664935e-06	-1.621540e-08	-1.199441e+01	-1.070796e+03
7.200000e-07	-1.516705e-06	-1.550905e-08	-1.092654e+01	-1.023336e+03
7.300000e-07	-1.368121e-06	-1.474802e-08	-9.856124e+00	-9.718452e+02
7.400000e-07	-1.219231e-06	-1.392680e-08	-8.783498e+00	-9.162934e+02
7.500000e-07	-1.069951e-06	-1.304550e-08	-7.708071e+00	-8.567872e+02
7.600000e-07	-9.203065e-07	-1.210072e-08	-6.630009e+00	-7.935518e+02
7.700000e-07	-7.703186e-07	-1.108887e-08	-5.549476e+00	-7.268984e+02
7.800000e-07	-6.199329e-07	-1.001240e-08	-4.466078e+00	-6.571828e+02
7.900000e-07	-4.693107e-07	-8.878533e-09	-3.380976e+00	-5.847617e+02
8.000000e-07	-3.185303e-07	-7.697613e-09	-2.294734e+00	-5.099518e+02
8.100000e-07	-1.675908e-07	-6.482456e-09	-1.207346e+00	-4.329993e+02
8.200000e-07	-1.657209e-08	-5.246321e-09	-1.193875e-01	-3.540649e+02
8.300000e-07	1.344727e-07	-4.001230e-09	9.687593e-01	-2.732257e+02
8.400000e-07	2.854876e-07	-2.751324e-09	2.056690e+00	-1.904956e+02
8.500000e-07	4.364452e-07	-1.494178e-09	3.144209e+00	-1.058613e+02
8.600000e-07	5.872624e-07	-2.255753e-10	4.230716e+00	-1.932881e+01
8.700000e-07	7.378879e-07	1.064904e-09	5.315841e+00	6.902592e+01
8.800000e-07	8.882503e-07	2.388417e-09	6.399072e+00	1.590096e+02
8.900000e-07	1.038319e-06	3.755525e-09	7.480188e+00	2.502754e+02
9.000000e-07	1.188043e-06	5.164857e-09	8.558820e+00	3.423036e+02
9.100000e-07	1.337305e-06	6.602487e-09	9.634118e+00	4.344032e+02
9.200000e-07	1.486110e-06	8.049103e-09	1.070613e+01	5.257362e+02
9.300000e-07	1.634463e-06	9.471150e-09	1.177488e+01	6.153623e+02
9.400000e-07	1.782327e-06	1.083441e-08	1.284011e+01	7.023003e+02
9.500000e-07	1.929575e-06	1.211497e-08	1.390091e+01	7.855985e+02
9.600000e-07	2.076127e-06	1.329949e-08	1.495669e+01	8.644071e+02
9.700000e-07	2.221908e-06	1.438222e-08	1.600692e+01	9.380433e+02
9.800000e-07	2.366845e-06	1.536675e-08	1.705106e+01	1.006042e+03
9.900000e-07	2.510942e-06	1.626455e-08	1.808915e+01	1.068185e+03
1.000000e-06	2.654085e-06	1.708591e-08	1.912038e+01	1.124508e+03
1.010000e-06	2.796092e-06	1.783942e-08	2.014341e+01	1.175284e+03
1.020000e-06	2.936950e-06	1.853116e-08	2.115817e+01	1.220980e+03
1.030000e-06	3.076615e-06	1.917081e-08	2.216434e+01	1.262202e+03
1.040000e-06	3.215005e-06	1.976361e-08	2.316132e+01	1.299634e+03
1.050000e-06	3.352116e-06	2.031371e-08	2.414908e+01	1.333963e+03
1.060000e-06	3.487898e-06	2.082206e-08	2.512727e+01	1.365825e+03
1.070000e-06	3.622406e-06	2.129097e-08	2.609629e+01	1.395754e+03
1.080000e-06	3.755751e-06	2.172812e-08	2.705692e+01	1.424150e+03
1.090000e-06	3.887773e-06	2.213831e-08	2.800803e+01	1.451271e+03
1.100000e-06	4.018320e-06	2.252691e-08	2.894851e+01	1.477242e+03
1.110000e-06	4.147435e-06	2.289329e-08	2.987866e+01	1.502075e+03
1.120000e-06	4.275089e-06	2.323761e-08	3.079831e+01	1.525707e+03
1.130000e-06	4.401238e-06	2.356168e-08	3.170709e+01	1.548041e+03
1.140000e-06	4.525904e-06	2.386752e-08	3.260521e+01	1.568985e+03
1.150000e-06	4.649022e-06	2.415616e-08	3.349217e+01	1.588482e+03
1.160000e-06	4.770470e-06	2.442633e-08	3.436709e+01	1.606538e+03
1.170000e-06	4.890174e-06	2.467856e-08	3.522945e+01	1.623225e+03
1.180000e-06	5.008123e-06	2.491600e-08	3.607918e+01	1.638680e+03
1.190000e-06	5.124229e-06	2.514413e-08	3.691562e+01	1.653087e+03
1.200000e-06	5.238374e-06	2.536672e-08	3.773794e+01	1.666656e+03
1.210000e-06	5.350502e-06	2.558069e-08	3.854572e+01	1.679594e+03
1.220000e-06	5.460674e-06	2.578059e-08	3.933941e+01	1.692078e+03
1.230000e-06	5.568935e-06	2.596644e-08	4.011934e+01	1.704238e+03
1.240000e-06	5.675201e-06	2.614234e-08	4.088489e+01	1.716141e+03
1.250000e-06	5.779391e-06	2.631064e-08	4.163549e+01	1.727791e+03
1.260000e-06	5.881433e-06	2.647140e-08	4.237062e+01	1.739136e+03
1.270000e-06	5.981306e-06	2.662538e-08	4.309011e+01	1.750085e+03
1.280000e-06	6.078888e-06	2.677372e-08	4.379311e+01	1.760529e+03
1.290000e-06	6.174188e-06	2.691767e-08	4.447966e+01	1.770361e+03
1.300000e-06	6.267281e-06	2.705703e-08	4.515031e+01	1.779504e+03
1.310000e-06	6.358172e-06	2.718723e-08	4.580511e+01	1.787919e+03
1.320000e-06	6.446735e-06	2.730862e-08	4.644312e+01	1.795616e+03
1.330000e-06	6.533000e-06	2.742299e-08	4.706459e+01	1.802655e+03
1.340000e-06	6.617094e-06	2.753219e-08	4.767042e+01	1.809135e+03
1.350000e-06	6.698869e-06	2.763544e-08	4.825953e+01	1.815179e+03
1.360000e-06	6.778151e-06	2.773122e-08	4.883069e+01	1.820919e+03
1.370000e-06	6.854864e-06	2.782128e-08	4.938334e+01	1.826472e+03
1.380000e-06	6.928974e-06	2.790512e-08	4.991724e+01	1.831927e+03
1.390000e-06	7.000520e-06	2.798458e-08	5.043267e+01	1.837334e+03
1.400000e-06	7.069588e-06	2.806159e-08	5.093024e+01	1.842700e+03
1.410000e-06	7.136168e-06	2.813633e-08	5.140989e+01	1.847988e+03
1.420000e-06	7.200165e-06	2.820656e-08	5.187093e+01	1.853132e+03
1.430000e-06	7.261644e-06	2.827161e-08	5.231383e+01	1.858049e+03
1.440000e-06	7.320669e-06	2.833453e-08	5.273906e+01	1.862652e+03
1.450000e-06	7.377057e-06	2.839487e-08	5.314529e+01	1.866872e+03
1.460000e-06	7.430726e-06	2.845264e-08	5.353192e+01	1.870664e+03
1.470000e-06	7.481446e-06	2.850825e-08	5.389732e+01	1.874018e+03
1.480000e-06	7.529203e-06	2.856009e-08	5.424137e+01	1.876959e+03
1.490000e-06	7.574273e-06	2.860765e-08	5.456606e+01	1.879542e+03
1.500000e-06	7.616670e-06	2.865075e-08	5.487149e+01	1.881842e+03
1.510000e-06	7.656326e-06	2.868980e-08	5.515718e+01	1.883941e+03
1.520000e-06	7.693331e-06	2.872549e-08	5.542377e+01	1.885913e+03
1.530000e-06	7.727689e-06	2.875867e-08	5.567129e+01	1.887815e+03
1.540000e-06	7.759231e-06	2.878621e-08	5.589852e+01	1.889674e+03
1.550000e-06	7.788050e-06	2.880946e-08	5.610614e+01	1.891485e+03
1.560000e-06	7.814077e-06	2.882938e-08	5.629363e+01	1.893214e+03
1.570000e-06	7.837150e-06	2.884573e-08	5.645986e+01	1.894807e+03
1.580000e-06	7.857485e-06	2.886125e-08	5.660636e+01	1.896197e+03
1.590000e-06	7.875052e-06	2.887550e-08	5.673291e+01	1.897318e+03
1.600000e-06	7.889619e-06	2.888733e-08	5.683785e+01	1.898119e+03
1.610000e-06	7.901080e-06	2.889323e-08	5.692042e+01	1.898571e+03
1.620000e-06	7.909491e-06	2.889617e-08	5.698101e+01	1.898675e+03
1.630000e-06	7.915088e-06	2.889913e-08	5.702134e+01	1.898461e+03
1.640000e-06	7.917887e-06	2.889978e-08	5.704150e+01	1.897981e+03
1.650000e-06	7.917867e-06	2.889662e-08	5.704135e+01	1.897304e+03
1.660000e-06	7.915236e-06	2.888736e-08	5.702240e+01	1.896502e+03
1.670000e-06	7.910001e-06	2.887848e-08	5.698469e+01	1.895637e+03
1.680000e-06	7.902056e-06	2.886942e-08	5.692745e+01	1.894754e+03
1.690000e-06	7.891450e-06	2.885639e-08	5.685104e+01	1.893869e+03
1.700000e-06	7.878032e-06	2.884175e-08	5.675437e+01	1.892973e+03
1.710000e-06	7.861919e-06	2.882765e-08	5.663830e+01	1.892027e+03
1.720000e-06	7.843511e-06	2.881190e-08	5.650568e+01	1.890978e+03
1.730000e-06	7.822805e-06	2.876029e-08	5.635651e+01	1.889762e+03
1.740000e-06	7.799278e-06	2.868488e-08	5.618702e+01	1.888322e+03
1.750000e-06	7.772249e-06	2.868339e-08	5.599230e+01	1.886614e+03
1.760000e-06	7.741598e-06	2.868618e-08	5.577149e+01	1.884621e+03
1.770000e-06	7.707994e-06	2.864566e-08	5.552940e+01	1.882350e+03
1.780000e-06	7.672112e-06	2.861951e-08	5.527090e+01	1.879837e+03
1.790000e-06	7.634013e-06	2.861991e-08	5.499643e+01	1.877137e+03
1.800000e-06	7.593909e-06	2.854414e-08	5.470752e+01	1.874315e+03
1.810000e-06	7.551767e-06	2.850524e-08	5.440392e+01	1.871434e+03
1.820000e-06	7.506923e-06	2.855170e-08	5.408086e+01	1.868540e+03
1.830000e-06	7.459406e-06	2.848500e-08	5.373854e+01	1.865651e+03
1.840000e-06	7.409156e-06	2.847830e-08	5.337654e+01	1.862753e+03
1.850000e-06	7.355831e-06	2.841794e-08	5.299238e+01	1.859800e+03
1.860000e-06	7.299685e-06	2.834097e-08	5.258789e+01	1.856713e+03
1.870000e-06	7.240955e-06	2.830736e-08	5.216479e+01	1.853395e+03
1.880000e-06	7.179660e-06	2.818229e-08	5.172322e+01	1.849745e+03
1.890000e-06	7.115586e-06	2.815675e-08	5.126162e+01	1.845669e+03
1.900000e-06	7.048731e-06	2.809474e-08	5.077998e+01	1.841099e+03
1.910000e-06	6.979177e-06	2.801554e-08	5.027891e+01	1.836001e+03
1.920000e-06	6.906816e-06	2.794671e-08	4.975761e+01	1.830381e+03
1.930000e-06	6.831795e-06	2.784501e-08	4.921715e+01	1.824287e+03
1.940000e-06	6.754098e-06	2.777538e-08	4.865741e+01	1.817797e+03
1.950000e-06	6.673795e-06	2.765293e-08	4.807890e+01	1.811008e+03
1.960000e-06	6.591040e-06	2.757181e-08	4.748272e+01	1.804022e+03
1.970000e-06	6.505828e-06	2.746752e-08	4.686884e+01	1.796926e+03
1.980000e-06	6.418155e-06	2.735637e-08	4.623723e+01	1.789776e+03
1.990000e-06	6.328137e-06	2.725479e-08	4.558873e+01	1.782588e+03
2.000000e-06	6.236027e-06	2.712505e-08	4.492516e+01	1.775334e+03
2.010000e-06	6.141705e-06	2.701665e-08	4.424565e+01	1.767941e+03
2.020000e-06	6.045157e-06	2.688500e-08	4.355010e+01	1.760306e+03
2.030000e-06	5.946452e-06	2.676057e-08	4.283902e+01	1.752306e+03
2.040000e-06	5.845630e-06	2.661216e-08	4.211269e+01	1.743819e+03
2.050000e-06	5.742699e-06	2.647041e-08	4.137116e+01	1.734742e+03
2.060000e-06	5.637732e-06	2.632042e-08	4.061496e+01	1.725005e+03
2.070000e-06	5.530903e-06	2.616354e-08	3.984535e+01	1.714584e+03
2.080000e-06	5.422211e-06	2.600524e-08	3.906232e+01	1.703499e+03
2.090000e-06	5.311555e-06	2.583937e-08	3.826514e+01	1.691812e+03
2.100000e-06	5.198838e-06	2.567206e-08	3.745311e+01	1.679613e+03
2.110000e-06	5.084192e-06	2.548528e-08	3.662718e+01	1.667000e+03
2.120000e-06	4.967614e-06	2.529611e-08	3.578734e+01	1.654062e+03
2.130000e-06	4.849022e-06	2.509185e-08	3.493299e+01	1.640856e+03
2.140000e-06	4.728567e-06	2.487852e-08	3.406522e+01	1.627395e+03
2.150000e-06	4.606434e-06	2.465340e-08	3.318536e+01	1.613635e+03
2.160000e-06	4.482659e-06	2.443142e-08	3.229366e+01	1.599480e+03
2.170000e-06	4.357318e-06	2.420228e-08	3.139069e+01	1.584788e+03
2.180000e-06	4.230324e-06	2.396338e-08	3.047581e+01	1.569391e+03
2.190000e-06	4.101668e-06	2.371352e-08	2.954896e+01	1.553112e+03
2.200000e-06	3.971603e-06	2.344939e-08	2.861195e+01	1.535795e+03
2.210000e-06	3.840033e-06	2.316711e-08	2.766410e+01	1.517318e+03
2.220000e-06	3.707089e-06	2.287038e-08	2.670636e+01	1.497616e+03
2.230000e-06	3.572809e-06	2.256231e-08	2.573898e+01	1.476678e+03
2.240000e-06	3.437023e-06	2.223683e-08	2.476076e+01	1.454549e+03
2.250000e-06	3.300022e-06	2.189494e-08	2.377379e+01	1.431308e+03
2.260000e-06	3.161848e-06	2.153686e-08	2.277837e+01	1.407046e+03
2.270000e-06	3.022351e-06	2.116675e-08	2.177341e+01	1.381835e+03
2.280000e-06	2.881663e-06	2.077590e-08	2.075988e+01	1.355699e+03
2.290000e-06	2.739924e-06	2.036389e-08	1.973877e+01	1.328581e+03
2.300000e-06	2.597120e-06	1.992409e-08	1.870999e+01	1.300331e+03
2.310000e-06	2.453207e-06	1.945323e-08	1.767323e+01	1.270696e+03
2.320000e-06	2.308432e-06	1.895324e-08	1.663025e+01	1.239328e+03
2.330000e-06	2.163082e-06	1.842032e-08	1.558313e+01	1.205807e+03
2.340000e-06	2.017060e-06	1.785581e-08	1.453117e+01	1.169675e+03
2.350000e-06	1.870286e-06	1.725406e-08	1.347378e+01	1.130475e+03
2.360000e-06	1.722799e-06	1.660841e-08	1.241127e+01	1.087798e+03
2.370000e-06	1.574694e-06	1.591363e-08	1.134430e+01	1.041322e+03
2.380000e-06	1.426130e-06	1.516650e-08	1.027402e+01	9.908453e+02
2.390000e-06	1.277197e-06	1.436378e-08	9.201096e+00	9.363016e+02
2.400000e-06	1.127928e-06	1.349874e-08	8.125741e+00	8.777648e+02
2.410000e-06	9.783286e-07	1.257068e-08	7.048007e+00	8.154329e+02
2.420000e-06	8.284576e-07	1.157749e-08	5.968318e+00	7.495993e+02
2.430000e-06	6.783150e-07	1.051985e-08	4.886670e+00	6.806129e+02
2.440000e-06	5.278789e-07	9.402112e-09	3.802909e+00	6.088340e+02
2.450000e-06	3.772086e-07	8.231006e-09	2.717460e+00	5.345927e+02
2.460000e-06	2.263599e-07	7.019139e-09	1.630727e+00	4.581551e+02
2.470000e-06	7.539030e-08	5.780406e-09	5.431216e-01	3.797036e+02
2.480000e-06	-7.566948e-08	4.527291e-09	-5.451329e-01	2.993351e+02
2.490000e-06	-2.267274e-07	3.270798e-09	-1.633374e+00	2.170763e+02
2.500000e-06	-3.777022e-07	2.013392e-09	-2.721016e+00	1.329169e+02
2.510000e-06	-5.285323e-07	7.486764e-10	-3.807616e+00	4.685308e+01
2.520000e-06	-6.791252e-07	-5.375120e-10	-4.892507e+00	-4.106120e+01
2.530000e-06	-8.295023e-07	-1.856758e-09	-5.975843e+00	-1.306660e+02
2.540000e-06	-9.795887e-07	-3.216409e-09	-7.057086e+00	-2.216554e+02
2.550000e-06	-1.129358e-06	-4.620536e-09	-8.136047e+00	-3.135536e+02
2.560000e-06	-1.278804e-06	-6.058705e-09	-9.212673e+00	-4.057111e+02
2.570000e-06	-1.427814e-06	-7.510187e-09	-1.028616e+01	-4.973231e+02
2.580000e-06	-1.576356e-06	-8.947004e-09	-1.135628e+01	-5.874698e+02
2.590000e-06	-1.724333e-06	-1.033851e-08	-1.242232e+01	-6.751737e+02
2.600000e-06	-1.871640e-06	-1.165672e-08	-1.348354e+01	-7.594690e+02
2.610000e-06	-2.018202e-06	-1.288170e-08	-1.453939e+01	-8.394738e+02
2.620000e-06	-2.164035e-06	-1.400568e-08	-1.558999e+01	-9.144582e+02
2.630000e-06	-2.309181e-06	-1.503124e-08	-1.663565e+01	-9.838987e+02
2.640000e-06	-2.453491e-06	-1.596609e-08	-1.767527e+01	-1.047514e+03
2.650000e-06	-2.596735e-06	-1.682033e-08	-1.870722e+01	-1.105278e+03
2.660000e-06	-2.738842e-06	-1.760213e-08	-1.973098e+01	-1.157406e+03
2.670000e-06	-2.879827e-06	-1.831765e-08	-2.074665e+01	-1.204321e+03
2.680000e-06	-3.019645e-06	-1.897678e-08	-2.175392e+01	-1.246603e+03
2.690000e-06	-3.158271e-06	-1.958564e-08	-2.275260e+01	-1.284919e+03
2.700000e-06	-3.295715e-06	-2.015070e-08	-2.374277e+01	-1.319964e+03
2.710000e-06	-3.431934e-06	-2.067383e-08	-2.472410e+01	-1.352390e+03
2.720000e-06	-3.566841e-06	-2.115713e-08	-2.569599e+01	-1.382761e+03
2.730000e-06	-3.700432e-06	-2.160784e-08	-2.665840e+01	-1.411512e+03
2.740000e-06	-3.832688e-06	-2.202999e-08	-2.761119e+01	-1.438938e+03
2.750000e-06	-3.963546e-06	-2.242815e-08	-2.855391e+01	-1.465194e+03
2.760000e-06	-4.093058e-06	-2.280233e-08	-2.948693e+01	-1.490318e+03
2.770000e-06	-4.221241e-06	-2.315194e-08	-3.041037e+01	-1.514261e+03
2.780000e-06	-4.347996e-06	-2.347808e-08	-3.132353e+01	-1.536931e+03
2.790000e-06	-4.473215e-06	-2.378523e-08	-3.222563e+01	-1.558231e+03
2.800000e-06	-4.596832e-06	-2.407667e-08	-3.311618e+01	-1.578095e+03
2.810000e-06	-4.718841e-06	-2.435499e-08	-3.399515e+01	-1.596509e+03
2.820000e-06	-4.839113e-06	-2.462074e-08	-3.486161e+01	-1.613530e+03
2.830000e-06	-4.957525e-06	-2.487208e-08	-3.571466e+01	-1.629280e+03
2.840000e-06	-5.073969e-06	-2.510986e-08	-3.655354e+01	-1.643932e+03
2.850000e-06	-5.188367e-06	-2.533498e-08	-3.737768e+01	-1.657693e+03
2.860000e-06	-5.300699e-06	-2.555089e-08	-3.818693e+01	-1.670773e+03
2.870000e-06	-5.410952e-06	-2.575641e-08	-3.898121e+01	-1.683359e+03
2.880000e-06	-5.519263e-06	-2.594954e-08	-3.976149e+01	-1.695593e+03
2.890000e-06	-5.625725e-06	-2.613219e-08	-4.052846e+01	-1.707560e+03
2.900000e-06	-5.730201e-06	-2.630642e-08	-4.128112e+01	-1.719278e+03
2.910000e-06	-5.832533e-06	-2.647257e-08	-4.201833e+01	-1.730709e+03
2.920000e-06	-5.932679e-06	-2.662997e-08	-4.273980e+01	-1.741769e+03
2.930000e-06	-6.030725e-06	-2.678063e-08	-4.344613e+01	-1.752352e+03
2.940000e-06	-6.126649e-06	-2.692612e-08	-4.413719e+01	-1.762348e+03
