# Temperatura_=_50.2
# Concentracion g/m^3_=_28370.0
# C_Vs_to_Am_M_A/Vsm_=_65563218390.804596
# pendiente_HvsI_1/m_=_3716.3
# ordenada_HvsI_A/m_=_1297.0
# frecuencia_Hz_=_302548.47322238254

Tiempo_(s)	Campo_(V.s)	Magnetizacion_(V.s)	Campo_(kA/m)	Magnetizacion_(A/m)
0.000000e+00	-7.848083e-06	-2.524332e-08	-5.684184e+01	-1.651899e+03
1.000000e-08	-7.844727e-06	-2.524228e-08	-5.681753e+01	-1.651138e+03
2.000000e-08	-7.838829e-06	-2.523319e-08	-5.677482e+01	-1.650327e+03
3.000000e-08	-7.830351e-06	-2.522346e-08	-5.671341e+01	-1.649519e+03
4.000000e-08	-7.819047e-06	-2.521467e-08	-5.663153e+01	-1.648741e+03
5.000000e-08	-7.804865e-06	-2.520115e-08	-5.652882e+01	-1.647997e+03
6.000000e-08	-7.787924e-06	-2.517852e-08	-5.640612e+01	-1.647261e+03
7.000000e-08	-7.768650e-06	-2.515391e-08	-5.626652e+01	-1.646490e+03
8.000000e-08	-7.747169e-06	-2.513186e-08	-5.611094e+01	-1.645627e+03
9.000000e-08	-7.722988e-06	-2.516552e-08	-5.593580e+01	-1.644612e+03
1.000000e-07	-7.695588e-06	-2.516361e-08	-5.573735e+01	-1.643396e+03
1.100000e-07	-7.665117e-06	-2.508180e-08	-5.551665e+01	-1.641948e+03
1.200000e-07	-7.631845e-06	-2.503850e-08	-5.527568e+01	-1.640258e+03
1.300000e-07	-7.595886e-06	-2.501997e-08	-5.501523e+01	-1.638343e+03
1.400000e-07	-7.557586e-06	-2.496403e-08	-5.473784e+01	-1.636238e+03
1.500000e-07	-7.517137e-06	-2.488294e-08	-5.444487e+01	-1.633992e+03
1.600000e-07	-7.474367e-06	-2.491918e-08	-5.413510e+01	-1.631657e+03
1.700000e-07	-7.429027e-06	-2.494101e-08	-5.380671e+01	-1.629276e+03
1.800000e-07	-7.381070e-06	-2.478173e-08	-5.345937e+01	-1.626872e+03
1.900000e-07	-7.330271e-06	-2.479659e-08	-5.309145e+01	-1.624446e+03
2.000000e-07	-7.276515e-06	-2.476178e-08	-5.270210e+01	-1.621968e+03
2.100000e-07	-7.220024e-06	-2.466979e-08	-5.229295e+01	-1.619386e+03
2.200000e-07	-7.160868e-06	-2.467646e-08	-5.186450e+01	-1.616628e+03
2.300000e-07	-7.099137e-06	-2.460324e-08	-5.141740e+01	-1.613615e+03
2.400000e-07	-7.034824e-06	-2.456642e-08	-5.095159e+01	-1.610272e+03
2.500000e-07	-6.967754e-06	-2.446737e-08	-5.046582e+01	-1.606543e+03
2.600000e-07	-6.898064e-06	-2.440921e-08	-4.996107e+01	-1.602397e+03
2.700000e-07	-6.825745e-06	-2.433783e-08	-4.943728e+01	-1.597837e+03
2.800000e-07	-6.750656e-06	-2.425114e-08	-4.889343e+01	-1.592897e+03
2.900000e-07	-6.672862e-06	-2.419406e-08	-4.832998e+01	-1.587638e+03
3.000000e-07	-6.592345e-06	-2.411423e-08	-4.774682e+01	-1.582138e+03
3.100000e-07	-6.509360e-06	-2.404326e-08	-4.714578e+01	-1.576478e+03
3.200000e-07	-6.424263e-06	-2.394029e-08	-4.652944e+01	-1.570728e+03
3.300000e-07	-6.336951e-06	-2.386936e-08	-4.589706e+01	-1.564933e+03
3.400000e-07	-6.247261e-06	-2.379056e-08	-4.524745e+01	-1.559104e+03
3.500000e-07	-6.155273e-06	-2.367529e-08	-4.458121e+01	-1.553215e+03
3.600000e-07	-6.061143e-06	-2.358698e-08	-4.389945e+01	-1.547201e+03
3.700000e-07	-5.964801e-06	-2.349416e-08	-4.320166e+01	-1.540971e+03
3.800000e-07	-5.866195e-06	-2.338339e-08	-4.248748e+01	-1.534416e+03
3.900000e-07	-5.765527e-06	-2.326009e-08	-4.175837e+01	-1.527431e+03
4.000000e-07	-5.662861e-06	-2.314096e-08	-4.101478e+01	-1.519924e+03
4.100000e-07	-5.558207e-06	-2.301165e-08	-4.025680e+01	-1.511833e+03
4.200000e-07	-5.451574e-06	-2.287356e-08	-3.948448e+01	-1.503135e+03
4.300000e-07	-5.342969e-06	-2.274695e-08	-3.869788e+01	-1.493848e+03
4.400000e-07	-5.232441e-06	-2.261117e-08	-3.789735e+01	-1.484026e+03
4.500000e-07	-5.119975e-06	-2.246437e-08	-3.708279e+01	-1.473747e+03
4.600000e-07	-5.005557e-06	-2.230916e-08	-3.625408e+01	-1.463097e+03
4.700000e-07	-4.889199e-06	-2.214740e-08	-3.541133e+01	-1.452155e+03
4.800000e-07	-4.771031e-06	-2.197695e-08	-3.455547e+01	-1.440970e+03
4.900000e-07	-4.651170e-06	-2.179959e-08	-3.368734e+01	-1.429550e+03
5.000000e-07	-4.529626e-06	-2.161745e-08	-3.280703e+01	-1.417857e+03
5.100000e-07	-4.406329e-06	-2.142106e-08	-3.191401e+01	-1.405800e+03
5.200000e-07	-4.281368e-06	-2.121082e-08	-3.100895e+01	-1.393251e+03
5.300000e-07	-4.154863e-06	-2.099304e-08	-3.009270e+01	-1.380055e+03
5.400000e-07	-4.026904e-06	-2.077068e-08	-2.916593e+01	-1.366053e+03
5.500000e-07	-3.897471e-06	-2.053907e-08	-2.822847e+01	-1.351099e+03
5.600000e-07	-3.766478e-06	-2.029286e-08	-2.727972e+01	-1.335083e+03
5.700000e-07	-3.634035e-06	-2.003520e-08	-2.632047e+01	-1.317944e+03
5.800000e-07	-3.500231e-06	-1.976156e-08	-2.535136e+01	-1.299671e+03
5.900000e-07	-3.365077e-06	-1.947400e-08	-2.437247e+01	-1.280303e+03
6.000000e-07	-3.228637e-06	-1.917264e-08	-2.338427e+01	-1.259911e+03
6.100000e-07	-3.090972e-06	-1.886002e-08	-2.238719e+01	-1.238576e+03
6.200000e-07	-2.952053e-06	-1.852953e-08	-2.138104e+01	-1.216360e+03
6.300000e-07	-2.811836e-06	-1.817730e-08	-2.036547e+01	-1.193280e+03
6.400000e-07	-2.670418e-06	-1.780225e-08	-1.934122e+01	-1.169279e+03
6.500000e-07	-2.527973e-06	-1.740261e-08	-1.830952e+01	-1.144212e+03
6.600000e-07	-2.384549e-06	-1.698185e-08	-1.727074e+01	-1.117840e+03
6.700000e-07	-2.240218e-06	-1.653591e-08	-1.622538e+01	-1.089836e+03
6.800000e-07	-2.095050e-06	-1.606066e-08	-1.517396e+01	-1.059811e+03
6.900000e-07	-1.949193e-06	-1.554994e-08	-1.411755e+01	-1.027339e+03
7.000000e-07	-1.802787e-06	-1.500541e-08	-1.305717e+01	-9.920051e+02
7.100000e-07	-1.655812e-06	-1.441951e-08	-1.199266e+01	-9.534450e+02
7.200000e-07	-1.508325e-06	-1.379016e-08	-1.092444e+01	-9.113837e+02
7.300000e-07	-1.360432e-06	-1.311502e-08	-9.853293e+00	-8.656673e+02
7.400000e-07	-1.212174e-06	-1.238861e-08	-8.779491e+00	-8.162808e+02
7.500000e-07	-1.063530e-06	-1.160732e-08	-7.702902e+00	-7.633491e+02
7.600000e-07	-9.145294e-07	-1.076434e-08	-6.623723e+00	-7.071225e+02
7.700000e-07	-7.652330e-07	-9.865431e-09	-5.542405e+00	-6.479460e+02
7.800000e-07	-6.156292e-07	-8.911278e-09	-4.458859e+00	-5.862191e+02
7.900000e-07	-4.657940e-07	-7.911920e-09	-3.373637e+00	-5.223493e+02
8.000000e-07	-3.158396e-07	-6.878263e-09	-2.287553e+00	-4.567067e+02
8.100000e-07	-1.657307e-07	-5.821646e-09	-1.200349e+00	-3.895867e+02
8.200000e-07	-1.552311e-08	-4.754012e-09	-1.124303e-01	-3.211857e+02
8.300000e-07	1.346833e-07	-3.681643e-09	9.754801e-01	-2.515938e+02
8.400000e-07	2.848729e-07	-2.609783e-09	2.063268e+00	-1.808061e+02
8.500000e-07	4.349699e-07	-1.535464e-09	3.150386e+00	-1.087514e+02
8.600000e-07	5.849222e-07	-4.545746e-10	4.236455e+00	-3.533469e+01
8.700000e-07	7.347034e-07	6.421777e-10	5.321285e+00	3.951238e+01
8.800000e-07	8.842476e-07	1.764102e-09	6.404399e+00	1.157799e+02
8.900000e-07	1.033552e-06	2.922920e-09	7.485780e+00	1.933349e+02
9.000000e-07	1.182582e-06	4.119921e-09	8.565165e+00	2.718890e+02
9.100000e-07	1.331233e-06	5.346247e-09	9.641813e+00	3.509858e+02
9.200000e-07	1.479453e-06	6.588949e-09	1.071534e+01	4.300074e+02
9.300000e-07	1.627151e-06	7.826540e-09	1.178508e+01	5.082043e+02
9.400000e-07	1.774180e-06	9.031166e-09	1.284997e+01	5.847420e+02
9.500000e-07	1.920557e-06	1.017494e-08	1.391015e+01	6.587620e+02
9.600000e-07	2.066336e-06	1.124301e-08	1.496599e+01	7.294481e+02
9.700000e-07	2.211349e-06	1.223120e-08	1.601628e+01	7.960920e+02
9.800000e-07	2.355476e-06	1.314101e-08	1.706016e+01	8.581492e+02
9.900000e-07	2.498694e-06	1.397297e-08	1.809746e+01	9.152783e+02
1.000000e-06	2.640918e-06	1.473242e-08	1.912755e+01	9.673613e+02
1.010000e-06	2.782113e-06	1.542572e-08	2.015020e+01	1.014501e+03
1.020000e-06	2.922174e-06	1.606146e-08	2.116462e+01	1.056996e+03
1.030000e-06	3.060972e-06	1.664840e-08	2.216991e+01	1.095300e+03
1.040000e-06	3.198547e-06	1.719130e-08	2.316633e+01	1.129968e+03
1.050000e-06	3.334912e-06	1.769467e-08	2.415399e+01	1.161593e+03
1.060000e-06	3.470010e-06	1.815704e-08	2.513247e+01	1.190755e+03
1.070000e-06	3.603890e-06	1.858545e-08	2.610214e+01	1.217963e+03
1.080000e-06	3.736531e-06	1.898472e-08	2.706282e+01	1.243628e+03
1.090000e-06	3.867717e-06	1.935863e-08	2.801297e+01	1.268036e+03
1.100000e-06	3.997493e-06	1.971094e-08	2.895291e+01	1.291353e+03
1.110000e-06	4.125936e-06	2.004046e-08	2.988319e+01	1.313637e+03
1.120000e-06	4.252914e-06	2.034842e-08	3.080286e+01	1.334862e+03
1.130000e-06	4.378446e-06	2.063776e-08	3.171207e+01	1.354957e+03
1.140000e-06	4.502516e-06	2.091065e-08	3.261068e+01	1.373839e+03
1.150000e-06	4.624974e-06	2.116775e-08	3.349761e+01	1.391446e+03
1.160000e-06	4.745815e-06	2.141165e-08	3.437283e+01	1.407757e+03
1.170000e-06	4.864969e-06	2.164086e-08	3.523584e+01	1.422814e+03
1.180000e-06	4.982348e-06	2.185376e-08	3.608599e+01	1.436713e+03
1.190000e-06	5.097849e-06	2.205335e-08	3.692253e+01	1.449601e+03
1.200000e-06	5.211317e-06	2.224562e-08	3.774435e+01	1.461654e+03
1.210000e-06	5.322740e-06	2.243232e-08	3.855137e+01	1.473057e+03
1.220000e-06	5.432278e-06	2.261105e-08	3.934473e+01	1.483977e+03
1.230000e-06	5.539968e-06	2.277934e-08	4.012470e+01	1.494544e+03
1.240000e-06	5.645732e-06	2.293662e-08	4.089072e+01	1.504836e+03
1.250000e-06	5.749406e-06	2.308480e-08	4.164161e+01	1.514876e+03
1.260000e-06	5.850902e-06	2.322482e-08	4.237672e+01	1.524636e+03
1.270000e-06	5.950231e-06	2.335799e-08	4.309614e+01	1.534045e+03
1.280000e-06	6.047272e-06	2.348466e-08	4.379898e+01	1.543011e+03
1.290000e-06	6.142048e-06	2.360444e-08	4.448542e+01	1.551442e+03
1.300000e-06	6.234670e-06	2.371975e-08	4.515626e+01	1.559262e+03
1.310000e-06	6.325132e-06	2.382947e-08	4.581146e+01	1.566430e+03
1.320000e-06	6.413243e-06	2.393214e-08	4.644963e+01	1.572948e+03
1.330000e-06	6.499100e-06	2.402637e-08	4.707147e+01	1.578865e+03
1.340000e-06	6.582784e-06	2.411307e-08	4.767757e+01	1.584267e+03
1.350000e-06	6.664092e-06	2.419457e-08	4.826647e+01	1.589268e+03
1.360000e-06	6.742917e-06	2.427245e-08	4.883738e+01	1.593995e+03
1.370000e-06	6.819198e-06	2.434765e-08	4.938986e+01	1.598564e+03
1.380000e-06	6.892853e-06	2.441995e-08	4.992333e+01	1.603069e+03
1.390000e-06	6.963971e-06	2.448985e-08	5.043842e+01	1.607567e+03
1.400000e-06	7.032653e-06	2.455563e-08	5.093587e+01	1.612071e+03
1.410000e-06	7.098818e-06	2.461789e-08	5.141509e+01	1.616556e+03
1.420000e-06	7.162453e-06	2.467692e-08	5.187598e+01	1.620959e+03
1.430000e-06	7.223647e-06	2.473257e-08	5.231919e+01	1.625196e+03
1.440000e-06	7.282409e-06	2.478532e-08	5.274479e+01	1.629178e+03
1.450000e-06	7.338579e-06	2.483525e-08	5.315162e+01	1.632824e+03
1.460000e-06	7.391956e-06	2.488248e-08	5.353822e+01	1.636075e+03
1.470000e-06	7.442324e-06	2.492708e-08	5.390302e+01	1.638907e+03
1.480000e-06	7.489730e-06	2.496866e-08	5.424637e+01	1.641331e+03
1.490000e-06	7.534504e-06	2.500733e-08	5.457066e+01	1.643392e+03
1.500000e-06	7.576643e-06	2.504138e-08	5.487586e+01	1.645158e+03
1.510000e-06	7.616058e-06	2.507106e-08	5.516133e+01	1.646715e+03
1.520000e-06	7.652851e-06	2.509835e-08	5.542782e+01	1.648145e+03
1.530000e-06	7.686904e-06	2.512255e-08	5.567445e+01	1.649517e+03
1.540000e-06	7.718152e-06	2.514401e-08	5.590078e+01	1.650878e+03
1.550000e-06	7.746737e-06	2.516349e-08	5.610781e+01	1.652243e+03
1.560000e-06	7.772521e-06	2.518158e-08	5.629456e+01	1.653593e+03
1.570000e-06	7.795424e-06	2.519618e-08	5.646044e+01	1.654888e+03
1.580000e-06	7.815616e-06	2.520786e-08	5.660669e+01	1.656064e+03
1.590000e-06	7.833049e-06	2.521779e-08	5.673295e+01	1.657056e+03
1.600000e-06	7.847549e-06	2.522547e-08	5.683797e+01	1.657802e+03
1.610000e-06	7.858944e-06	2.523005e-08	5.692050e+01	1.658258e+03
1.620000e-06	7.867266e-06	2.523294e-08	5.698078e+01	1.658408e+03
1.630000e-06	7.872805e-06	2.523585e-08	5.702090e+01	1.658261e+03
1.640000e-06	7.875637e-06	2.523581e-08	5.704140e+01	1.657854e+03
1.650000e-06	7.875650e-06	2.523403e-08	5.704150e+01	1.657246e+03
1.660000e-06	7.872961e-06	2.522529e-08	5.702202e+01	1.656505e+03
1.670000e-06	7.867701e-06	2.521707e-08	5.698393e+01	1.655699e+03
1.680000e-06	7.859815e-06	2.521310e-08	5.692681e+01	1.654885e+03
1.690000e-06	7.849306e-06	2.520438e-08	5.685070e+01	1.654096e+03
1.700000e-06	7.835987e-06	2.519193e-08	5.675423e+01	1.653342e+03
1.710000e-06	7.819951e-06	2.518275e-08	5.663809e+01	1.652606e+03
1.720000e-06	7.801585e-06	2.517740e-08	5.650507e+01	1.651847e+03
1.730000e-06	7.780966e-06	2.515011e-08	5.635573e+01	1.651010e+03
1.740000e-06	7.757573e-06	2.504827e-08	5.618630e+01	1.650036e+03
1.750000e-06	7.730662e-06	2.504627e-08	5.599139e+01	1.648872e+03
1.760000e-06	7.700192e-06	2.507450e-08	5.577070e+01	1.647482e+03
1.770000e-06	7.666818e-06	2.503104e-08	5.552897e+01	1.645850e+03
1.780000e-06	7.631171e-06	2.500662e-08	5.527080e+01	1.643987e+03
1.790000e-06	7.593276e-06	2.506336e-08	5.499633e+01	1.641923e+03
1.800000e-06	7.553339e-06	2.500934e-08	5.470708e+01	1.639705e+03
1.810000e-06	7.511380e-06	2.487721e-08	5.440318e+01	1.637386e+03
1.820000e-06	7.466772e-06	2.499039e-08	5.408009e+01	1.635010e+03
1.830000e-06	7.419542e-06	2.490152e-08	5.373802e+01	1.632609e+03
1.840000e-06	7.369615e-06	2.487879e-08	5.337641e+01	1.630188e+03
1.850000e-06	7.316654e-06	2.488871e-08	5.299282e+01	1.627725e+03
1.860000e-06	7.260840e-06	2.475557e-08	5.258858e+01	1.625174e+03
1.870000e-06	7.202384e-06	2.478074e-08	5.216519e+01	1.622465e+03
1.880000e-06	7.141426e-06	2.464254e-08	5.172368e+01	1.619520e+03
1.890000e-06	7.077700e-06	2.462610e-08	5.126213e+01	1.616264e+03
1.900000e-06	7.011187e-06	2.460480e-08	5.078039e+01	1.612634e+03
1.910000e-06	6.942044e-06	2.450274e-08	5.027961e+01	1.608591e+03
1.920000e-06	6.870125e-06	2.450212e-08	4.975872e+01	1.604130e+03
1.930000e-06	6.795583e-06	2.438187e-08	4.921883e+01	1.599278e+03
1.940000e-06	6.718315e-06	2.434280e-08	4.865919e+01	1.594090e+03
1.950000e-06	6.638340e-06	2.424369e-08	4.807995e+01	1.588640e+03
1.960000e-06	6.555969e-06	2.416870e-08	4.748336e+01	1.583011e+03
1.970000e-06	6.471245e-06	2.410652e-08	4.686972e+01	1.577276e+03
1.980000e-06	6.384095e-06	2.397970e-08	4.623852e+01	1.571488e+03
1.990000e-06	6.294600e-06	2.393469e-08	4.559032e+01	1.565666e+03
2.000000e-06	6.202961e-06	2.381367e-08	4.492661e+01	1.559795e+03
2.010000e-06	6.109118e-06	2.373117e-08	4.424692e+01	1.553818e+03
2.020000e-06	6.013056e-06	2.361598e-08	4.355117e+01	1.547649e+03
2.030000e-06	5.914911e-06	2.351296e-08	4.284032e+01	1.541184e+03
2.040000e-06	5.814723e-06	2.339937e-08	4.211469e+01	1.534314e+03
2.050000e-06	5.712386e-06	2.327611e-08	4.137348e+01	1.526942e+03
2.060000e-06	5.607930e-06	2.317516e-08	4.061693e+01	1.518999e+03
2.070000e-06	5.501585e-06	2.303599e-08	3.984670e+01	1.510450e+03
2.080000e-06	5.393393e-06	2.290830e-08	3.906309e+01	1.501305e+03
2.090000e-06	5.283319e-06	2.275575e-08	3.826585e+01	1.491608e+03
2.100000e-06	5.171237e-06	2.262434e-08	3.745406e+01	1.481433e+03
2.110000e-06	5.057270e-06	2.247179e-08	3.662863e+01	1.470866e+03
2.120000e-06	4.941463e-06	2.232066e-08	3.578987e+01	1.459989e+03
2.130000e-06	4.823611e-06	2.215310e-08	3.493629e+01	1.448859e+03
2.140000e-06	4.703818e-06	2.197172e-08	3.406865e+01	1.437498e+03
2.150000e-06	4.582292e-06	2.178322e-08	3.318848e+01	1.425877e+03
2.160000e-06	4.459159e-06	2.159237e-08	3.229665e+01	1.413920e+03
2.170000e-06	4.334443e-06	2.140556e-08	3.139336e+01	1.401506e+03
2.180000e-06	4.208152e-06	2.120190e-08	3.047867e+01	1.388485e+03
2.190000e-06	4.080215e-06	2.099135e-08	2.955205e+01	1.374697e+03
2.200000e-06	3.950753e-06	2.075924e-08	2.861438e+01	1.359991e+03
2.210000e-06	3.819882e-06	2.051741e-08	2.766652e+01	1.344246e+03
2.220000e-06	3.687648e-06	2.026197e-08	2.670878e+01	1.327389e+03
2.230000e-06	3.554073e-06	2.000272e-08	2.574133e+01	1.309395e+03
2.240000e-06	3.419126e-06	1.972728e-08	2.476393e+01	1.290293e+03
2.250000e-06	3.282848e-06	1.943419e-08	2.377691e+01	1.270147e+03
2.260000e-06	3.145335e-06	1.912410e-08	2.278093e+01	1.249038e+03
2.270000e-06	3.006670e-06	1.879794e-08	2.177661e+01	1.227037e+03
2.280000e-06	2.866845e-06	1.845548e-08	2.076389e+01	1.204173e+03
2.290000e-06	2.725897e-06	1.809724e-08	1.974303e+01	1.180410e+03
2.300000e-06	2.583874e-06	1.771955e-08	1.871440e+01	1.155626e+03
2.310000e-06	2.440850e-06	1.731222e-08	1.767851e+01	1.129606e+03
2.320000e-06	2.296896e-06	1.687633e-08	1.663588e+01	1.102043e+03
2.330000e-06	2.152168e-06	1.640900e-08	1.558765e+01	1.072559e+03
2.340000e-06	2.006775e-06	1.590935e-08	1.453461e+01	1.040737e+03
2.350000e-06	1.860748e-06	1.537264e-08	1.347696e+01	1.006154e+03
2.360000e-06	1.714130e-06	1.479859e-08	1.241505e+01	9.684280e+02
2.370000e-06	1.566930e-06	1.418411e-08	1.134891e+01	9.272594e+02
2.380000e-06	1.419216e-06	1.352126e-08	1.027905e+01	8.824617e+02
2.390000e-06	1.271080e-06	1.280711e-08	9.206135e+00	8.339842e+02
2.400000e-06	1.122575e-06	1.203972e-08	8.130553e+00	7.819178e+02
2.410000e-06	9.737138e-07	1.121548e-08	7.052383e+00	7.264835e+02
2.420000e-06	8.244267e-07	1.033440e-08	5.971131e+00	6.680063e+02
2.430000e-06	6.748193e-07	9.400374e-09	4.887559e+00	6.068763e+02
2.440000e-06	5.250257e-07	8.416054e-09	3.802639e+00	5.435032e+02
2.450000e-06	3.750188e-07	7.386336e-09	2.716174e+00	4.782706e+02
2.460000e-06	2.248772e-07	6.325650e-09	1.628734e+00	4.114953e+02
2.470000e-06	7.462741e-08	5.249075e-09	5.405089e-01	3.433999e+02
2.480000e-06	-7.568766e-08	4.168998e-09	-5.481881e-01	2.741008e+02
2.490000e-06	-2.259248e-07	3.090784e-09	-1.636320e+00	2.036147e+02
2.500000e-06	-3.760504e-07	2.013654e-09	-2.723645e+00	1.318834e+02
2.510000e-06	-5.260844e-07	9.324257e-10	-3.810307e+00	5.881343e+01
2.520000e-06	-6.760083e-07	-1.635070e-10	-4.896171e+00	-1.567519e+01
2.530000e-06	-8.257662e-07	-1.282460e-09	-5.980833e+00	-9.159670e+01
2.540000e-06	-9.752694e-07	-2.434058e-09	-7.063649e+00	-1.688524e+02
2.550000e-06	-1.124454e-06	-3.624400e-09	-8.144161e+00	-2.471951e+02
2.560000e-06	-1.273198e-06	-4.846971e-09	-9.221477e+00	-3.262102e+02
2.570000e-06	-1.421374e-06	-6.089080e-09	-1.029468e+01	-4.053186e+02
2.580000e-06	-1.569025e-06	-7.334310e-09	-1.136408e+01	-4.837996e+02
2.590000e-06	-1.716136e-06	-8.558642e-09	-1.242957e+01	-5.608349e+02
2.600000e-06	-1.862657e-06	-9.734706e-09	-1.349079e+01	-6.355657e+02
2.610000e-06	-2.008483e-06	-1.084108e-08	-1.454697e+01	-7.071590e+02
2.620000e-06	-2.153581e-06	-1.186680e-08	-1.559788e+01	-7.748739e+02
2.630000e-06	-2.297938e-06	-1.280832e-08	-1.664343e+01	-8.381203e+02
2.640000e-06	-2.441301e-06	-1.366816e-08	-1.768177e+01	-8.965034e+02
2.650000e-06	-2.583649e-06	-1.445466e-08	-1.871277e+01	-9.498488e+02
2.660000e-06	-2.724978e-06	-1.517639e-08	-1.973638e+01	-9.982054e+02
2.670000e-06	-2.865165e-06	-1.583896e-08	-2.075172e+01	-1.041826e+03
2.680000e-06	-3.004187e-06	-1.644722e-08	-2.175862e+01	-1.081131e+03
2.690000e-06	-3.142033e-06	-1.700656e-08	-2.275701e+01	-1.116655e+03
2.700000e-06	-3.278699e-06	-1.752245e-08	-2.374685e+01	-1.148987e+03
2.710000e-06	-3.414087e-06	-1.799840e-08	-2.472744e+01	-1.178716e+03
2.720000e-06	-3.548240e-06	-1.844117e-08	-2.569908e+01	-1.206372e+03
2.730000e-06	-3.681159e-06	-1.885441e-08	-2.666178e+01	-1.232392e+03
2.740000e-06	-3.812705e-06	-1.924163e-08	-2.761453e+01	-1.257097e+03
2.750000e-06	-3.942936e-06	-1.960275e-08	-2.855777e+01	-1.280680e+03
2.760000e-06	-4.071917e-06	-1.993590e-08	-2.949195e+01	-1.303223e+03
2.770000e-06	-4.199466e-06	-2.024797e-08	-3.041576e+01	-1.324721e+03
2.780000e-06	-4.325522e-06	-2.054451e-08	-3.132875e+01	-1.345109e+03
2.790000e-06	-4.450118e-06	-2.082597e-08	-3.223117e+01	-1.364303e+03
2.800000e-06	-4.573143e-06	-2.108989e-08	-3.312221e+01	-1.382234e+03
2.810000e-06	-4.694522e-06	-2.133853e-08	-3.400133e+01	-1.398870e+03
2.820000e-06	-4.814112e-06	-2.157554e-08	-3.486749e+01	-1.414236e+03
2.830000e-06	-4.931770e-06	-2.180095e-08	-3.571966e+01	-1.428414e+03
2.840000e-06	-5.047507e-06	-2.201362e-08	-3.655792e+01	-1.441541e+03
2.850000e-06	-5.161244e-06	-2.221339e-08	-3.738169e+01	-1.453788e+03
2.860000e-06	-5.272911e-06	-2.240196e-08	-3.819046e+01	-1.465339e+03
2.870000e-06	-5.382624e-06	-2.257991e-08	-3.898509e+01	-1.476368e+03
2.880000e-06	-5.490479e-06	-2.274664e-08	-3.976626e+01	-1.487015e+03
2.890000e-06	-5.596509e-06	-2.290465e-08	-4.053421e+01	-1.497374e+03
2.900000e-06	-5.700521e-06	-2.305566e-08	-4.128754e+01	-1.507480e+03
2.910000e-06	-5.802299e-06	-2.320055e-08	-4.202470e+01	-1.517317e+03
2.920000e-06	-5.901866e-06	-2.334014e-08	-4.274584e+01	-1.526824e+03
2.930000e-06	-5.999341e-06	-2.347322e-08	-4.345183e+01	-1.535912e+03
2.940000e-06	-6.094748e-06	-2.359824e-08	-4.414284e+01	-1.544487e+03
