# Temperatura_=_40.4
# Concentracion g/m^3_=_28370.0
# C_Vs_to_Am_M_A/Vsm_=_65563218390.804596
# pendiente_HvsI_1/m_=_3716.3
# ordenada_HvsI_A/m_=_1297.0
# frecuencia_Hz_=_302551.0400226765

Tiempo_(s)	Campo_(V.s)	Magnetizacion_(V.s)	Campo_(kA/m)	Magnetizacion_(A/m)
0.000000e+00	-7.877998e-06	-2.417116e-08	-5.683832e+01	-1.582685e+03
1.000000e-08	-7.875280e-06	-2.417825e-08	-5.681871e+01	-1.581995e+03
2.000000e-08	-7.869845e-06	-2.417284e-08	-5.677950e+01	-1.581250e+03
3.000000e-08	-7.861873e-06	-2.416173e-08	-5.672198e+01	-1.580500e+03
4.000000e-08	-7.851170e-06	-2.415334e-08	-5.664476e+01	-1.579776e+03
5.000000e-08	-7.837574e-06	-2.414207e-08	-5.654667e+01	-1.579084e+03
6.000000e-08	-7.821098e-06	-2.411849e-08	-5.642780e+01	-1.578405e+03
7.000000e-08	-7.802199e-06	-2.409376e-08	-5.629145e+01	-1.577699e+03
8.000000e-08	-7.781118e-06	-2.405560e-08	-5.613935e+01	-1.576914e+03
9.000000e-08	-7.757349e-06	-2.410650e-08	-5.596786e+01	-1.575995e+03
1.000000e-07	-7.730444e-06	-2.415514e-08	-5.577375e+01	-1.574893e+03
1.100000e-07	-7.700426e-06	-2.404302e-08	-5.555717e+01	-1.573577e+03
1.200000e-07	-7.667562e-06	-2.397689e-08	-5.532006e+01	-1.572036e+03
1.300000e-07	-7.632027e-06	-2.397827e-08	-5.506368e+01	-1.570283e+03
1.400000e-07	-7.594074e-06	-2.394064e-08	-5.478986e+01	-1.568351e+03
1.500000e-07	-7.553977e-06	-2.382707e-08	-5.450057e+01	-1.566286e+03
1.600000e-07	-7.511646e-06	-2.382526e-08	-5.419515e+01	-1.564138e+03
1.700000e-07	-7.466766e-06	-2.396546e-08	-5.387135e+01	-1.561949e+03
1.800000e-07	-7.419293e-06	-2.373234e-08	-5.352884e+01	-1.559743e+03
1.900000e-07	-7.368971e-06	-2.372916e-08	-5.316578e+01	-1.557522e+03
2.000000e-07	-7.315543e-06	-2.377703e-08	-5.278031e+01	-1.555260e+03
2.100000e-07	-7.259325e-06	-2.362919e-08	-5.237471e+01	-1.552905e+03
2.200000e-07	-7.200486e-06	-2.367596e-08	-5.195019e+01	-1.550387e+03
2.300000e-07	-7.139026e-06	-2.356818e-08	-5.150677e+01	-1.547627e+03
2.400000e-07	-7.075007e-06	-2.354331e-08	-5.104488e+01	-1.544550e+03
2.500000e-07	-7.008310e-06	-2.346572e-08	-5.056368e+01	-1.541095e+03
2.600000e-07	-6.938942e-06	-2.339362e-08	-5.006320e+01	-1.537228e+03
2.700000e-07	-6.866857e-06	-2.333990e-08	-4.954312e+01	-1.532946e+03
2.800000e-07	-6.791987e-06	-2.325476e-08	-4.900295e+01	-1.528279e+03
2.900000e-07	-6.714428e-06	-2.321655e-08	-4.844337e+01	-1.523285e+03
3.000000e-07	-6.634159e-06	-2.311450e-08	-4.786425e+01	-1.518040e+03
3.100000e-07	-6.551407e-06	-2.305244e-08	-4.726721e+01	-1.512626e+03
3.200000e-07	-6.466465e-06	-2.297312e-08	-4.665436e+01	-1.507117e+03
3.300000e-07	-6.379298e-06	-2.289053e-08	-4.602547e+01	-1.501564e+03
3.400000e-07	-6.289767e-06	-2.282535e-08	-4.537952e+01	-1.495985e+03
3.500000e-07	-6.197913e-06	-2.269676e-08	-4.471681e+01	-1.490361e+03
3.600000e-07	-6.103912e-06	-2.262079e-08	-4.403861e+01	-1.484637e+03
3.700000e-07	-6.007674e-06	-2.253789e-08	-4.334427e+01	-1.478725e+03
3.800000e-07	-5.909131e-06	-2.242728e-08	-4.263330e+01	-1.472521e+03
3.900000e-07	-5.808501e-06	-2.231691e-08	-4.190727e+01	-1.465918e+03
4.000000e-07	-5.705854e-06	-2.220871e-08	-4.116670e+01	-1.458821e+03
4.100000e-07	-5.601135e-06	-2.209166e-08	-4.041117e+01	-1.451163e+03
4.200000e-07	-5.494471e-06	-2.194488e-08	-3.964160e+01	-1.442914e+03
4.300000e-07	-5.385923e-06	-2.183107e-08	-3.885845e+01	-1.434085e+03
4.400000e-07	-5.275449e-06	-2.169751e-08	-3.806140e+01	-1.424722e+03
4.500000e-07	-5.162993e-06	-2.155395e-08	-3.725006e+01	-1.414901e+03
4.600000e-07	-5.048524e-06	-2.140618e-08	-3.642418e+01	-1.404710e+03
4.700000e-07	-4.932063e-06	-2.125798e-08	-3.558394e+01	-1.394230e+03
4.800000e-07	-4.813804e-06	-2.109873e-08	-3.473071e+01	-1.383520e+03
4.900000e-07	-4.693823e-06	-2.092681e-08	-3.386508e+01	-1.372598e+03
5.000000e-07	-4.572106e-06	-2.075797e-08	-3.298691e+01	-1.361437e+03
5.100000e-07	-4.448689e-06	-2.057066e-08	-3.209648e+01	-1.349960e+03
5.200000e-07	-4.323656e-06	-2.037146e-08	-3.119439e+01	-1.338046e+03
5.300000e-07	-4.197127e-06	-2.016130e-08	-3.028151e+01	-1.325545e+03
5.400000e-07	-4.069036e-06	-1.995211e-08	-2.935735e+01	-1.312298e+03
5.500000e-07	-3.939404e-06	-1.972927e-08	-2.842208e+01	-1.298155e+03
5.600000e-07	-3.808238e-06	-1.949130e-08	-2.747574e+01	-1.282997e+03
5.700000e-07	-3.675585e-06	-1.924656e-08	-2.651868e+01	-1.266750e+03
5.800000e-07	-3.541649e-06	-1.898848e-08	-2.555235e+01	-1.249393e+03
5.900000e-07	-3.406375e-06	-1.872007e-08	-2.457637e+01	-1.230953e+03
6.000000e-07	-3.269708e-06	-1.843459e-08	-2.359035e+01	-1.211496e+03
6.100000e-07	-3.131772e-06	-1.813723e-08	-2.259516e+01	-1.191104e+03
6.200000e-07	-2.992565e-06	-1.781897e-08	-2.159081e+01	-1.169850e+03
6.300000e-07	-2.852032e-06	-1.748117e-08	-2.057689e+01	-1.147766e+03
6.400000e-07	-2.710259e-06	-1.712387e-08	-1.955402e+01	-1.124821e+03
6.500000e-07	-2.567425e-06	-1.674671e-08	-1.852350e+01	-1.100897e+03
6.600000e-07	-2.423644e-06	-1.635095e-08	-1.748615e+01	-1.075787e+03
6.700000e-07	-2.279012e-06	-1.592890e-08	-1.644265e+01	-1.049194e+03
6.800000e-07	-2.133601e-06	-1.547818e-08	-1.539354e+01	-1.020752e+03
6.900000e-07	-1.987471e-06	-1.499322e-08	-1.433924e+01	-9.900523e+02
7.000000e-07	-1.840736e-06	-1.447884e-08	-1.328058e+01	-9.566872e+02
7.100000e-07	-1.693466e-06	-1.392441e-08	-1.221805e+01	-9.202873e+02
7.200000e-07	-1.545683e-06	-1.332934e-08	-1.115182e+01	-8.805640e+02
7.300000e-07	-1.397381e-06	-1.269053e-08	-1.008185e+01	-8.373419e+02
7.400000e-07	-1.248615e-06	-1.200402e-08	-9.008532e+00	-7.905804e+02
7.500000e-07	-1.099486e-06	-1.126495e-08	-7.932590e+00	-7.403784e+02
7.600000e-07	-9.500517e-07	-1.046745e-08	-6.854450e+00	-6.869643e+02
7.700000e-07	-8.003115e-07	-9.618363e-09	-5.774102e+00	-6.306688e+02
7.800000e-07	-6.502534e-07	-8.714487e-09	-4.691460e+00	-5.718873e+02
7.900000e-07	-5.000190e-07	-7.765750e-09	-3.607546e+00	-5.110343e+02
8.000000e-07	-3.496306e-07	-6.780459e-09	-2.522521e+00	-4.484972e+02
8.100000e-07	-1.990540e-07	-5.774597e-09	-1.436139e+00	-3.845965e+02
8.200000e-07	-4.833481e-08	-4.757812e-09	-3.487269e-01	-3.195567e+02
8.300000e-07	1.024860e-07	-3.737010e-09	7.394177e-01	-2.534944e+02
8.400000e-07	2.533359e-07	-2.718479e-09	1.827772e+00	-1.864232e+02
8.500000e-07	4.041341e-07	-1.699187e-09	2.915754e+00	-1.182777e+02
8.600000e-07	5.547680e-07	-6.768978e-10	4.002550e+00	-4.895138e+01
8.700000e-07	7.051401e-07	3.578318e-10	5.087458e+00	2.165513e+01
8.800000e-07	8.552673e-07	1.412575e-09	6.170597e+00	9.358278e+01
8.900000e-07	1.005175e-06	2.501291e-09	7.252154e+00	1.667669e+02
9.000000e-07	1.154801e-06	3.626626e-09	8.331679e+00	2.410009e+02
9.100000e-07	1.304015e-06	4.783362e-09	9.408231e+00	3.159166e+02
9.200000e-07	1.452760e-06	5.961124e-09	1.048140e+01	3.909844e+02
9.300000e-07	1.601037e-06	7.141215e-09	1.155119e+01	4.655347e+02
9.400000e-07	1.748770e-06	8.296009e-09	1.261706e+01	5.387979e+02
9.500000e-07	1.895836e-06	9.401282e-09	1.367811e+01	6.099598e+02
9.600000e-07	2.042218e-06	1.044259e-08	1.473423e+01	6.782242e+02
9.700000e-07	2.187884e-06	1.140682e-08	1.578519e+01	7.428772e+02
9.800000e-07	2.332710e-06	1.229464e-08	1.683008e+01	8.033449e+02
9.900000e-07	2.476657e-06	1.310819e-08	1.786863e+01	8.592368e+02
1.000000e-06	2.619660e-06	1.385478e-08	1.890037e+01	9.103710e+02
1.010000e-06	2.761606e-06	1.453887e-08	1.992448e+01	9.567792e+02
1.020000e-06	2.902474e-06	1.516567e-08	2.094082e+01	9.986889e+02
1.030000e-06	3.042183e-06	1.574390e-08	2.194880e+01	1.036489e+03
1.040000e-06	3.180639e-06	1.627585e-08	2.294773e+01	1.070680e+03
1.050000e-06	3.317868e-06	1.676943e-08	2.393781e+01	1.101818e+03
1.060000e-06	3.453804e-06	1.722416e-08	2.491856e+01	1.130461e+03
1.070000e-06	3.588421e-06	1.764678e-08	2.588980e+01	1.157114e+03
1.080000e-06	3.721781e-06	1.803795e-08	2.685197e+01	1.182195e+03
1.090000e-06	3.853798e-06	1.840329e-08	2.780445e+01	1.206009e+03
1.100000e-06	3.984409e-06	1.874872e-08	2.874678e+01	1.228743e+03
1.110000e-06	4.113639e-06	1.907377e-08	2.967916e+01	1.250477e+03
1.120000e-06	4.241403e-06	1.937902e-08	3.060095e+01	1.271207e+03
1.130000e-06	4.367668e-06	1.966530e-08	3.151192e+01	1.290870e+03
1.140000e-06	4.492492e-06	1.993319e-08	3.241251e+01	1.309388e+03
1.150000e-06	4.615778e-06	2.018114e-08	3.330199e+01	1.326691e+03
1.160000e-06	4.737471e-06	2.041660e-08	3.417999e+01	1.342749e+03
1.170000e-06	4.857483e-06	2.064034e-08	3.504585e+01	1.357583e+03
1.180000e-06	4.975677e-06	2.085249e-08	3.589860e+01	1.371270e+03
1.190000e-06	5.092021e-06	2.105099e-08	3.673800e+01	1.383940e+03
1.200000e-06	5.206424e-06	2.123959e-08	3.756340e+01	1.395755e+03
1.210000e-06	5.318774e-06	2.141968e-08	3.837399e+01	1.406893e+03
1.220000e-06	5.429121e-06	2.159027e-08	3.917012e+01	1.417520e+03
1.230000e-06	5.537621e-06	2.175187e-08	3.995292e+01	1.427772e+03
1.240000e-06	5.644158e-06	2.190452e-08	4.072157e+01	1.437740e+03
1.250000e-06	5.748576e-06	2.205063e-08	4.147493e+01	1.447461e+03
1.260000e-06	5.850908e-06	2.218883e-08	4.221324e+01	1.456922e+03
1.270000e-06	5.951122e-06	2.232105e-08	4.293626e+01	1.466066e+03
1.280000e-06	6.049075e-06	2.244789e-08	4.364297e+01	1.474812e+03
1.290000e-06	6.144701e-06	2.256856e-08	4.433289e+01	1.483069e+03
1.300000e-06	6.238140e-06	2.268169e-08	4.500704e+01	1.490759e+03
1.310000e-06	6.329428e-06	2.278469e-08	4.566567e+01	1.497835e+03
1.320000e-06	6.418417e-06	2.287973e-08	4.630771e+01	1.504286e+03
1.330000e-06	6.505087e-06	2.296919e-08	4.693302e+01	1.510146e+03
1.340000e-06	6.589497e-06	2.305543e-08	4.754202e+01	1.515490e+03
1.350000e-06	6.671604e-06	2.313635e-08	4.813441e+01	1.520418e+03
1.360000e-06	6.751268e-06	2.321386e-08	4.870917e+01	1.525049e+03
1.370000e-06	6.828415e-06	2.328969e-08	4.926577e+01	1.529497e+03
1.380000e-06	6.902963e-06	2.336319e-08	4.980362e+01	1.533857e+03
1.390000e-06	6.974906e-06	2.343277e-08	5.032268e+01	1.538194e+03
1.400000e-06	7.044383e-06	2.349750e-08	5.082394e+01	1.542532e+03
1.410000e-06	7.111409e-06	2.355828e-08	5.130752e+01	1.546855e+03
1.420000e-06	7.175878e-06	2.361382e-08	5.177265e+01	1.551113e+03
1.430000e-06	7.237844e-06	2.366597e-08	5.221973e+01	1.555232e+03
1.440000e-06	7.297379e-06	2.371625e-08	5.264926e+01	1.559126e+03
1.450000e-06	7.354284e-06	2.376696e-08	5.305982e+01	1.562716e+03
1.460000e-06	7.408503e-06	2.381573e-08	5.345099e+01	1.565941e+03
1.470000e-06	7.459859e-06	2.386137e-08	5.382152e+01	1.568769e+03
1.480000e-06	7.508182e-06	2.390274e-08	5.417016e+01	1.571201e+03
1.490000e-06	7.553767e-06	2.393983e-08	5.449905e+01	1.573272e+03
1.500000e-06	7.596697e-06	2.397284e-08	5.480879e+01	1.575043e+03
1.510000e-06	7.636841e-06	2.400168e-08	5.509841e+01	1.576590e+03
1.520000e-06	7.674273e-06	2.402878e-08	5.536848e+01	1.577993e+03
1.530000e-06	7.709088e-06	2.405293e-08	5.561966e+01	1.579321e+03
1.540000e-06	7.741123e-06	2.407395e-08	5.585079e+01	1.580625e+03
1.550000e-06	7.770377e-06	2.409176e-08	5.606186e+01	1.581924e+03
1.560000e-06	7.796872e-06	2.410843e-08	5.625301e+01	1.583211e+03
1.570000e-06	7.820460e-06	2.412347e-08	5.642319e+01	1.584452e+03
1.580000e-06	7.841299e-06	2.413707e-08	5.657354e+01	1.585593e+03
1.590000e-06	7.859407e-06	2.414788e-08	5.670419e+01	1.586572e+03
1.600000e-06	7.874574e-06	2.415446e-08	5.681361e+01	1.587330e+03
1.610000e-06	7.886736e-06	2.415828e-08	5.690136e+01	1.587824e+03
1.620000e-06	7.895829e-06	2.416094e-08	5.696697e+01	1.588030e+03
1.630000e-06	7.902013e-06	2.416384e-08	5.701158e+01	1.587955e+03
1.640000e-06	7.905488e-06	2.416520e-08	5.703665e+01	1.587627e+03
1.650000e-06	7.906160e-06	2.416790e-08	5.704150e+01	1.587100e+03
1.660000e-06	7.904072e-06	2.416044e-08	5.702644e+01	1.586435e+03
1.670000e-06	7.899366e-06	2.414899e-08	5.699248e+01	1.585698e+03
1.680000e-06	7.891974e-06	2.414863e-08	5.693915e+01	1.584943e+03
1.690000e-06	7.881953e-06	2.414237e-08	5.686685e+01	1.584209e+03
1.700000e-06	7.869145e-06	2.412997e-08	5.677445e+01	1.583507e+03
1.710000e-06	7.853559e-06	2.412277e-08	5.666199e+01	1.582826e+03
1.720000e-06	7.835613e-06	2.412144e-08	5.653252e+01	1.582131e+03
1.730000e-06	7.815464e-06	2.412471e-08	5.638715e+01	1.581373e+03
1.740000e-06	7.792633e-06	2.397004e-08	5.622242e+01	1.580496e+03
1.750000e-06	7.766427e-06	2.394727e-08	5.603336e+01	1.579449e+03
1.760000e-06	7.736519e-06	2.403388e-08	5.581758e+01	1.578194e+03
1.770000e-06	7.703445e-06	2.399264e-08	5.557895e+01	1.576716e+03
1.780000e-06	7.668123e-06	2.393376e-08	5.532411e+01	1.575019e+03
1.790000e-06	7.630587e-06	2.402874e-08	5.505329e+01	1.573133e+03
1.800000e-06	7.590940e-06	2.404330e-08	5.476724e+01	1.571099e+03
1.810000e-06	7.549306e-06	2.376489e-08	5.446687e+01	1.568968e+03
1.820000e-06	7.505104e-06	2.397349e-08	5.414795e+01	1.566785e+03
1.830000e-06	7.458229e-06	2.390835e-08	5.380976e+01	1.564582e+03
1.840000e-06	7.408700e-06	2.381455e-08	5.345242e+01	1.562365e+03
1.850000e-06	7.356118e-06	2.393634e-08	5.307305e+01	1.560117e+03
1.860000e-06	7.300655e-06	2.368617e-08	5.267289e+01	1.557794e+03
1.870000e-06	7.242561e-06	2.380495e-08	5.225376e+01	1.555329e+03
1.880000e-06	7.181909e-06	2.366968e-08	5.181616e+01	1.552644e+03
1.890000e-06	7.118503e-06	2.359477e-08	5.135870e+01	1.549663e+03
1.900000e-06	7.052270e-06	2.365899e-08	5.088084e+01	1.546319e+03
1.910000e-06	6.983406e-06	2.348079e-08	5.038400e+01	1.542570e+03
1.920000e-06	6.911769e-06	2.352597e-08	4.986715e+01	1.538404e+03
1.930000e-06	6.837508e-06	2.336758e-08	4.933137e+01	1.533840e+03
1.940000e-06	6.760570e-06	2.335868e-08	4.877628e+01	1.528931e+03
1.950000e-06	6.680879e-06	2.329393e-08	4.820132e+01	1.523747e+03
1.960000e-06	6.598722e-06	2.316705e-08	4.760857e+01	1.518372e+03
1.970000e-06	6.514149e-06	2.315399e-08	4.699840e+01	1.512882e+03
1.980000e-06	6.427159e-06	2.298954e-08	4.637078e+01	1.507336e+03
1.990000e-06	6.337786e-06	2.299084e-08	4.572597e+01	1.501764e+03
2.000000e-06	6.246279e-06	2.285192e-08	4.506576e+01	1.496155e+03
2.010000e-06	6.152577e-06	2.277967e-08	4.438972e+01	1.490466e+03
2.020000e-06	6.056608e-06	2.268318e-08	4.369732e+01	1.484616e+03
2.030000e-06	5.958544e-06	2.256954e-08	4.298981e+01	1.478505e+03
2.040000e-06	5.858360e-06	2.246836e-08	4.226700e+01	1.472025e+03
2.050000e-06	5.756058e-06	2.233447e-08	4.152891e+01	1.465076e+03
2.060000e-06	5.651665e-06	2.226312e-08	4.077573e+01	1.457582e+03
2.070000e-06	5.545373e-06	2.210695e-08	4.000886e+01	1.449501e+03
2.080000e-06	5.437174e-06	2.199383e-08	3.922822e+01	1.440832e+03
2.090000e-06	5.327054e-06	2.184578e-08	3.843372e+01	1.431613e+03
2.100000e-06	5.214934e-06	2.172778e-08	3.762480e+01	1.421913e+03
2.110000e-06	5.100874e-06	2.157549e-08	3.680188e+01	1.411817e+03
2.120000e-06	4.984929e-06	2.142916e-08	3.596535e+01	1.401411e+03
2.130000e-06	4.867052e-06	2.127250e-08	3.511489e+01	1.390761e+03
2.140000e-06	4.747323e-06	2.109612e-08	3.425107e+01	1.379899e+03
2.150000e-06	4.625757e-06	2.092211e-08	3.337399e+01	1.368811e+03
2.160000e-06	4.502560e-06	2.073974e-08	3.248515e+01	1.357433e+03
2.170000e-06	4.377700e-06	2.056751e-08	3.158431e+01	1.345656e+03
2.180000e-06	4.251233e-06	2.036650e-08	3.067187e+01	1.333338e+03
2.190000e-06	4.123173e-06	2.016908e-08	2.974794e+01	1.320318e+03
2.200000e-06	3.993575e-06	1.994703e-08	2.881292e+01	1.306444e+03
2.210000e-06	3.862538e-06	1.972310e-08	2.786750e+01	1.291584e+03
2.220000e-06	3.730007e-06	1.947897e-08	2.691132e+01	1.275651e+03
2.230000e-06	3.596108e-06	1.923351e-08	2.594527e+01	1.258608e+03
2.240000e-06	3.460909e-06	1.896760e-08	2.496983e+01	1.240470e+03
2.250000e-06	3.324393e-06	1.868551e-08	2.398489e+01	1.221294e+03
2.260000e-06	3.186630e-06	1.839260e-08	2.299096e+01	1.201160e+03
2.270000e-06	3.047599e-06	1.808445e-08	2.198787e+01	1.180145e+03
2.280000e-06	2.907307e-06	1.776007e-08	2.097569e+01	1.158297e+03
2.290000e-06	2.765932e-06	1.741579e-08	1.995569e+01	1.135604e+03
2.300000e-06	2.623592e-06	1.705508e-08	1.892874e+01	1.111975e+03
2.310000e-06	2.480256e-06	1.666618e-08	1.789459e+01	1.087229e+03
2.320000e-06	2.335952e-06	1.625420e-08	1.685347e+01	1.061093e+03
2.330000e-06	2.190817e-06	1.581207e-08	1.580634e+01	1.033218e+03
2.340000e-06	2.045005e-06	1.534010e-08	1.475434e+01	1.003204e+03
2.350000e-06	1.898676e-06	1.483202e-08	1.369860e+01	9.706395e+02
2.360000e-06	1.751726e-06	1.428671e-08	1.263839e+01	9.351388e+02
2.370000e-06	1.604139e-06	1.370337e-08	1.157357e+01	8.963868e+02
2.380000e-06	1.456003e-06	1.307643e-08	1.050480e+01	8.541730e+02
2.390000e-06	1.307332e-06	1.240366e-08	9.432160e+00	8.084171e+02
2.400000e-06	1.158206e-06	1.167850e-08	8.356246e+00	7.591786e+02
2.410000e-06	1.008685e-06	1.089706e-08	7.277479e+00	7.066507e+02
2.420000e-06	8.588179e-07	1.006142e-08	6.196214e+00	6.511385e+02
2.430000e-06	7.086837e-07	9.175190e-09	5.113023e+00	5.930233e+02
2.440000e-06	5.583599e-07	8.241855e-09	4.028465e+00	5.327191e+02
2.450000e-06	4.078875e-07	7.264463e-09	2.942834e+00	4.706253e+02
2.460000e-06	2.573014e-07	6.256878e-09	1.856382e+00	4.070851e+02
2.470000e-06	1.066187e-07	5.232672e-09	7.692348e-01	3.423525e+02
2.480000e-06	-4.413972e-08	4.202774e-09	-3.184600e-01	2.765752e+02
2.490000e-06	-1.949035e-07	3.176029e-09	-1.406194e+00	2.097945e+02
2.500000e-06	-3.456171e-07	2.151993e-09	-2.493564e+00	1.419642e+02
2.510000e-06	-4.962211e-07	1.126005e-09	-3.580145e+00	7.298509e+01
2.520000e-06	-6.466984e-07	8.826378e-11	-4.665811e+00	2.750430e+00
2.530000e-06	-7.970352e-07	-9.672846e-10	-5.750464e+00	-6.880253e+01
2.540000e-06	-9.471785e-07	-2.047891e-09	-6.833720e+00	-1.416436e+02
2.550000e-06	-1.097007e-06	-3.164483e-09	-7.914705e+00	-2.156095e+02
2.560000e-06	-1.246399e-06	-4.314752e-09	-8.992545e+00	-2.903792e+02
2.570000e-06	-1.395267e-06	-5.489292e-09	-1.006660e+01	-3.654680e+02
2.580000e-06	-1.543623e-06	-6.673759e-09	-1.113696e+01	-4.402428e+02
2.590000e-06	-1.691479e-06	-7.845003e-09	-1.220371e+01	-5.139577e+02
2.600000e-06	-1.838622e-06	-8.977462e-09	-1.326532e+01	-5.858048e+02
2.610000e-06	-1.985035e-06	-1.005119e-08	-1.432167e+01	-6.549762e+02
2.620000e-06	-2.130845e-06	-1.105388e-08	-1.537366e+01	-7.207283e+02
2.630000e-06	-2.275910e-06	-1.197795e-08	-1.642028e+01	-7.824419e+02
2.640000e-06	-2.420029e-06	-1.282317e-08	-1.746006e+01	-8.396707e+02
2.650000e-06	-2.563156e-06	-1.359625e-08	-1.849270e+01	-8.921718e+02
2.660000e-06	-2.705265e-06	-1.430503e-08	-1.951800e+01	-9.399167e+02
2.670000e-06	-2.846321e-06	-1.495512e-08	-2.053569e+01	-9.830798e+02
2.680000e-06	-2.986194e-06	-1.555265e-08	-2.154485e+01	-1.022008e+03
2.690000e-06	-3.124811e-06	-1.610387e-08	-2.254494e+01	-1.057176e+03
2.700000e-06	-3.262261e-06	-1.660999e-08	-2.353662e+01	-1.089131e+03
2.710000e-06	-3.398452e-06	-1.707583e-08	-2.451921e+01	-1.118434e+03
2.720000e-06	-3.533359e-06	-1.750933e-08	-2.549254e+01	-1.145610e+03
2.730000e-06	-3.667036e-06	-1.791385e-08	-2.645700e+01	-1.171105e+03
2.740000e-06	-3.799392e-06	-1.829402e-08	-2.741192e+01	-1.195258e+03
2.750000e-06	-3.930380e-06	-1.864938e-08	-2.835698e+01	-1.218290e+03
2.760000e-06	-4.060044e-06	-1.897890e-08	-2.929248e+01	-1.240309e+03
2.770000e-06	-4.188308e-06	-1.928784e-08	-3.021788e+01	-1.261331e+03
2.780000e-06	-4.315117e-06	-1.957901e-08	-3.113278e+01	-1.281309e+03
2.790000e-06	-4.440531e-06	-1.985325e-08	-3.203762e+01	-1.300164e+03
2.800000e-06	-4.564372e-06	-2.011096e-08	-3.293111e+01	-1.317821e+03
2.810000e-06	-4.686536e-06	-2.035460e-08	-3.381250e+01	-1.334237e+03
2.820000e-06	-4.806986e-06	-2.058710e-08	-3.468152e+01	-1.349416e+03
2.830000e-06	-4.925656e-06	-2.080906e-08	-3.553771e+01	-1.363421e+03
2.840000e-06	-5.042371e-06	-2.101908e-08	-3.637979e+01	-1.376368e+03
2.850000e-06	-5.156924e-06	-2.121507e-08	-3.720627e+01	-1.388411e+03
2.860000e-06	-5.269431e-06	-2.139908e-08	-3.801798e+01	-1.399726e+03
2.870000e-06	-5.379972e-06	-2.157385e-08	-3.881552e+01	-1.410485e+03
2.880000e-06	-5.488551e-06	-2.173867e-08	-3.959890e+01	-1.420834e+03
2.890000e-06	-5.595290e-06	-2.189366e-08	-4.036900e+01	-1.430879e+03
2.900000e-06	-5.700069e-06	-2.204036e-08	-4.112496e+01	-1.440671e+03
2.910000e-06	-5.802651e-06	-2.217898e-08	-4.186507e+01	-1.450212e+03
2.920000e-06	-5.903015e-06	-2.231271e-08	-4.258917e+01	-1.459456e+03
2.930000e-06	-6.001290e-06	-2.244197e-08	-4.329821e+01	-1.468327e+03
2.940000e-06	-6.097479e-06	-2.256489e-08	-4.399220e+01	-1.476733e+03
