# Temperatura_=_33.35
# Concentracion g/m^3_=_28370.0
# C_Vs_to_Am_M_A/Vsm_=_65563218390.804596
# pendiente_HvsI_1/m_=_3716.3
# ordenada_HvsI_A/m_=_1297.0
# frecuencia_Hz_=_302545.9776547699

Tiempo_(s)	Campo_(V.s)	Magnetizacion_(V.s)	Campo_(kA/m)	Magnetizacion_(A/m)
0.000000e+00	-7.833536e-06	-2.202157e-08	-5.684205e+01	-1.440448e+03
1.000000e-08	-7.830206e-06	-2.202330e-08	-5.681789e+01	-1.439774e+03
2.000000e-08	-7.824275e-06	-2.201402e-08	-5.677485e+01	-1.439046e+03
3.000000e-08	-7.815791e-06	-2.200394e-08	-5.671329e+01	-1.438312e+03
4.000000e-08	-7.804504e-06	-2.199480e-08	-5.663139e+01	-1.437604e+03
5.000000e-08	-7.790326e-06	-2.198077e-08	-5.652851e+01	-1.436930e+03
6.000000e-08	-7.773398e-06	-2.195845e-08	-5.640568e+01	-1.436275e+03
7.000000e-08	-7.754116e-06	-2.193455e-08	-5.626576e+01	-1.435604e+03
8.000000e-08	-7.732580e-06	-2.191425e-08	-5.610949e+01	-1.434869e+03
9.000000e-08	-7.708302e-06	-2.196416e-08	-5.593332e+01	-1.434018e+03
1.000000e-07	-7.680863e-06	-2.196148e-08	-5.573422e+01	-1.433004e+03
1.100000e-07	-7.650440e-06	-2.187728e-08	-5.551347e+01	-1.431792e+03
1.200000e-07	-7.617213e-06	-2.183969e-08	-5.527236e+01	-1.430368e+03
1.300000e-07	-7.581295e-06	-2.182155e-08	-5.501173e+01	-1.428736e+03
1.400000e-07	-7.543061e-06	-2.176539e-08	-5.473430e+01	-1.426920e+03
1.500000e-07	-7.502681e-06	-2.168664e-08	-5.444129e+01	-1.424958e+03
1.600000e-07	-7.459953e-06	-2.175617e-08	-5.413124e+01	-1.422893e+03
1.700000e-07	-7.414638e-06	-2.177389e-08	-5.380243e+01	-1.420764e+03
1.800000e-07	-7.366746e-06	-2.161623e-08	-5.345491e+01	-1.418596e+03
1.900000e-07	-7.315986e-06	-2.165344e-08	-5.308658e+01	-1.416397e+03
2.000000e-07	-7.262268e-06	-2.159628e-08	-5.269679e+01	-1.414151e+03
2.100000e-07	-7.205843e-06	-2.149506e-08	-5.228736e+01	-1.411820e+03
2.200000e-07	-7.146722e-06	-2.148702e-08	-5.185836e+01	-1.409351e+03
2.300000e-07	-7.085038e-06	-2.141211e-08	-5.141077e+01	-1.406680e+03
2.400000e-07	-7.020761e-06	-2.141625e-08	-5.094436e+01	-1.403745e+03
2.500000e-07	-6.953762e-06	-2.133875e-08	-5.045820e+01	-1.400496e+03
2.600000e-07	-6.884186e-06	-2.128968e-08	-4.995334e+01	-1.396901e+03
2.700000e-07	-6.811952e-06	-2.123041e-08	-4.942919e+01	-1.392955e+03
2.800000e-07	-6.736969e-06	-2.116211e-08	-4.888509e+01	-1.388678e+03
2.900000e-07	-6.659301e-06	-2.110331e-08	-4.832151e+01	-1.384112e+03
3.000000e-07	-6.578862e-06	-2.102427e-08	-4.773783e+01	-1.379318e+03
3.100000e-07	-6.495946e-06	-2.098084e-08	-4.713618e+01	-1.374360e+03
3.200000e-07	-6.410927e-06	-2.088788e-08	-4.651925e+01	-1.369295e+03
3.300000e-07	-6.323750e-06	-2.081428e-08	-4.588668e+01	-1.364164e+03
3.400000e-07	-6.234190e-06	-2.072701e-08	-4.523681e+01	-1.358979e+03
3.500000e-07	-6.142315e-06	-2.062785e-08	-4.457014e+01	-1.353724e+03
3.600000e-07	-6.048314e-06	-2.055981e-08	-4.388804e+01	-1.348352e+03
3.700000e-07	-5.952076e-06	-2.047045e-08	-4.318972e+01	-1.342792e+03
3.800000e-07	-5.853561e-06	-2.036536e-08	-4.247487e+01	-1.336956e+03
3.900000e-07	-5.753035e-06	-2.025940e-08	-4.174543e+01	-1.330757e+03
4.000000e-07	-5.650562e-06	-2.015885e-08	-4.100186e+01	-1.324117e+03
4.100000e-07	-5.546062e-06	-2.004036e-08	-4.024358e+01	-1.316982e+03
4.200000e-07	-5.439586e-06	-1.992575e-08	-3.947097e+01	-1.309326e+03
4.300000e-07	-5.331205e-06	-1.981914e-08	-3.868453e+01	-1.301160e+03
4.400000e-07	-5.220935e-06	-1.969715e-08	-3.788438e+01	-1.292520e+03
4.500000e-07	-5.108813e-06	-1.956275e-08	-3.707080e+01	-1.283469e+03
4.600000e-07	-4.994769e-06	-1.942719e-08	-3.624327e+01	-1.274075e+03
4.700000e-07	-4.878653e-06	-1.928335e-08	-3.540070e+01	-1.264402e+03
4.800000e-07	-4.760622e-06	-1.912826e-08	-3.454424e+01	-1.254493e+03
4.900000e-07	-4.640905e-06	-1.897053e-08	-3.367554e+01	-1.244356e+03
5.000000e-07	-4.519530e-06	-1.880842e-08	-3.279482e+01	-1.233962e+03
5.100000e-07	-4.396383e-06	-1.863424e-08	-3.190123e+01	-1.223239e+03
5.200000e-07	-4.271612e-06	-1.844637e-08	-3.099586e+01	-1.212080e+03
5.300000e-07	-4.145353e-06	-1.825709e-08	-3.007970e+01	-1.200353e+03
5.400000e-07	-4.017591e-06	-1.806079e-08	-2.915262e+01	-1.187923e+03
5.500000e-07	-3.888366e-06	-1.785286e-08	-2.821494e+01	-1.174662e+03
5.600000e-07	-3.757626e-06	-1.763243e-08	-2.726626e+01	-1.160469e+03
5.700000e-07	-3.625408e-06	-1.740455e-08	-2.630685e+01	-1.145283e+03
5.800000e-07	-3.491826e-06	-1.716083e-08	-2.533754e+01	-1.129087e+03
5.900000e-07	-3.356978e-06	-1.690129e-08	-2.435905e+01	-1.111903e+03
6.000000e-07	-3.220948e-06	-1.663055e-08	-2.337199e+01	-1.093785e+03
6.100000e-07	-3.083686e-06	-1.635008e-08	-2.237598e+01	-1.074796e+03
6.200000e-07	-2.945089e-06	-1.605602e-08	-2.137029e+01	-1.054989e+03
6.300000e-07	-2.805176e-06	-1.574354e-08	-2.035504e+01	-1.034379e+03
6.400000e-07	-2.664076e-06	-1.541134e-08	-1.933119e+01	-1.012924e+03
6.500000e-07	-2.521924e-06	-1.505669e-08	-1.829970e+01	-9.905082e+02
6.600000e-07	-2.378872e-06	-1.468270e-08	-1.726168e+01	-9.669373e+02
6.700000e-07	-2.234950e-06	-1.428563e-08	-1.621735e+01	-9.419435e+02
6.800000e-07	-2.090143e-06	-1.386534e-08	-1.516659e+01	-9.152027e+02
6.900000e-07	-1.944592e-06	-1.341658e-08	-1.411044e+01	-8.863618e+02
7.000000e-07	-1.798409e-06	-1.293421e-08	-1.304970e+01	-8.550729e+02
7.100000e-07	-1.651663e-06	-1.241306e-08	-1.198487e+01	-8.210304e+02
7.200000e-07	-1.504409e-06	-1.185335e-08	-1.091636e+01	-7.840053e+02
7.300000e-07	-1.356718e-06	-1.125636e-08	-9.844674e+00	-7.438735e+02
7.400000e-07	-1.208663e-06	-1.061688e-08	-8.770353e+00	-7.006325e+02
7.500000e-07	-1.060205e-06	-9.933836e-09	-7.693107e+00	-6.544041e+02
7.600000e-07	-9.113833e-07	-9.202280e-09	-6.613220e+00	-6.054228e+02
7.700000e-07	-7.622809e-07	-8.422504e-09	-5.531297e+00	-5.540109e+02
7.800000e-07	-6.128956e-07	-7.596871e-09	-4.447320e+00	-5.005424e+02
7.900000e-07	-4.632867e-07	-6.734746e-09	-3.361722e+00	-4.454018e+02
8.000000e-07	-3.135531e-07	-5.847608e-09	-2.275218e+00	-3.889427e+02
8.100000e-07	-1.637394e-07	-4.944864e-09	-1.188133e+00	-3.314518e+02
8.200000e-07	-1.382149e-08	-4.034140e-09	-1.002921e-01	-2.731236e+02
8.300000e-07	1.361794e-07	-3.124504e-09	9.881510e-01	-2.140502e+02
8.400000e-07	2.861136e-07	-2.219070e-09	2.076111e+00	-1.542267e+02
8.500000e-07	4.359703e-07	-1.312508e-09	3.163507e+00	-9.357325e+01
8.600000e-07	5.857637e-07	-4.034849e-10	4.250445e+00	-3.197027e+01
8.700000e-07	7.353847e-07	5.164215e-10	5.336131e+00	3.069785e+01
8.800000e-07	8.847971e-07	1.457629e-09	6.420304e+00	9.449597e+01
8.900000e-07	1.033972e-06	2.429214e-09	7.502754e+00	1.593952e+02
9.000000e-07	1.182810e-06	3.430097e-09	8.582759e+00	2.252399e+02
9.100000e-07	1.331231e-06	4.455668e-09	9.659741e+00	2.917286e+02
9.200000e-07	1.479160e-06	5.498663e-09	1.073315e+01	3.584145e+02
9.300000e-07	1.626544e-06	6.542295e-09	1.180260e+01	4.247225e+02
9.400000e-07	1.773344e-06	7.565486e-09	1.286782e+01	4.899850e+02
9.500000e-07	1.919549e-06	8.547985e-09	1.392872e+01	5.534897e+02
9.600000e-07	2.065086e-06	9.476803e-09	1.498477e+01	6.145356e+02
9.700000e-07	2.209775e-06	1.034159e-08	1.603466e+01	6.724898e+02
9.800000e-07	2.353559e-06	1.113972e-08	1.707800e+01	7.268379e+02
9.900000e-07	2.496471e-06	1.187418e-08	1.811500e+01	7.772239e+02
1.000000e-06	2.638443e-06	1.255025e-08	1.914519e+01	8.234727e+02
1.010000e-06	2.779340e-06	1.317237e-08	2.016757e+01	8.655950e+02
1.020000e-06	2.919086e-06	1.374313e-08	2.118160e+01	9.037734e+02
1.030000e-06	3.057572e-06	1.427084e-08	2.218649e+01	9.383322e+02
1.040000e-06	3.194813e-06	1.475695e-08	2.318234e+01	9.696957e+02
1.050000e-06	3.330889e-06	1.520725e-08	2.416974e+01	9.983390e+02
1.060000e-06	3.465723e-06	1.562447e-08	2.514813e+01	1.024740e+03
1.070000e-06	3.599307e-06	1.601130e-08	2.611745e+01	1.049334e+03
1.080000e-06	3.731665e-06	1.637293e-08	2.707788e+01	1.072484e+03
1.090000e-06	3.862643e-06	1.671119e-08	2.802828e+01	1.094456e+03
1.100000e-06	3.992174e-06	1.702910e-08	2.896819e+01	1.115415e+03
1.110000e-06	4.120309e-06	1.732774e-08	2.989797e+01	1.135437e+03
1.120000e-06	4.247011e-06	1.760666e-08	3.081735e+01	1.154521e+03
1.130000e-06	4.372286e-06	1.786844e-08	3.172638e+01	1.172620e+03
1.140000e-06	4.496102e-06	1.811673e-08	3.262481e+01	1.189672e+03
1.150000e-06	4.618299e-06	1.835103e-08	3.351150e+01	1.205621e+03
1.160000e-06	4.738797e-06	1.857112e-08	3.438587e+01	1.220446e+03
1.170000e-06	4.857611e-06	1.877630e-08	3.524801e+01	1.234168e+03
1.180000e-06	4.974678e-06	1.896833e-08	3.609748e+01	1.246857e+03
1.190000e-06	5.089797e-06	1.914985e-08	3.693281e+01	1.258626e+03
1.200000e-06	5.202948e-06	1.932518e-08	3.775386e+01	1.269616e+03
1.210000e-06	5.314190e-06	1.949335e-08	3.856106e+01	1.279978e+03
1.220000e-06	5.423563e-06	1.965352e-08	3.935470e+01	1.289855e+03
1.230000e-06	5.531047e-06	1.980684e-08	4.013463e+01	1.299363e+03
1.240000e-06	5.636491e-06	1.995147e-08	4.089976e+01	1.308578e+03
1.250000e-06	5.739844e-06	2.008664e-08	4.164971e+01	1.317532e+03
1.260000e-06	5.841120e-06	2.021205e-08	4.238460e+01	1.326213e+03
1.270000e-06	5.940241e-06	2.032930e-08	4.310384e+01	1.334574e+03
1.280000e-06	6.037085e-06	2.044105e-08	4.380657e+01	1.342548e+03
1.290000e-06	6.131702e-06	2.054771e-08	4.449313e+01	1.350061e+03
1.300000e-06	6.224185e-06	2.065002e-08	4.516420e+01	1.357052e+03
1.310000e-06	6.314428e-06	2.074528e-08	4.581903e+01	1.363487e+03
1.320000e-06	6.402334e-06	2.083247e-08	4.645690e+01	1.369364e+03
1.330000e-06	6.487996e-06	2.091357e-08	4.707849e+01	1.374721e+03
1.340000e-06	6.571417e-06	2.099206e-08	4.768381e+01	1.379626e+03
1.350000e-06	6.652468e-06	2.106697e-08	4.827194e+01	1.384172e+03
1.360000e-06	6.731074e-06	2.113818e-08	4.884232e+01	1.388465e+03
1.370000e-06	6.807193e-06	2.120662e-08	4.939465e+01	1.392603e+03
1.380000e-06	6.880675e-06	2.127283e-08	4.992786e+01	1.396666e+03
1.390000e-06	6.951559e-06	2.133692e-08	5.044221e+01	1.400708e+03
1.400000e-06	7.020050e-06	2.139603e-08	5.093920e+01	1.404742e+03
1.410000e-06	7.086028e-06	2.145291e-08	5.141795e+01	1.408751e+03
1.420000e-06	7.149476e-06	2.150841e-08	5.187834e+01	1.412684e+03
1.430000e-06	7.210528e-06	2.156025e-08	5.232135e+01	1.416472e+03
1.440000e-06	7.269076e-06	2.160636e-08	5.274619e+01	1.420038e+03
1.450000e-06	7.325053e-06	2.164852e-08	5.315237e+01	1.423310e+03
1.460000e-06	7.378343e-06	2.169042e-08	5.353906e+01	1.426237e+03
1.470000e-06	7.428634e-06	2.173136e-08	5.390398e+01	1.428792e+03
1.480000e-06	7.475946e-06	2.176964e-08	5.424729e+01	1.430982e+03
1.490000e-06	7.520619e-06	2.180418e-08	5.457145e+01	1.432840e+03
1.500000e-06	7.562697e-06	2.183305e-08	5.487678e+01	1.434425e+03
1.510000e-06	7.602004e-06	2.185885e-08	5.516200e+01	1.435809e+03
1.520000e-06	7.638620e-06	2.188221e-08	5.542769e+01	1.437066e+03
1.530000e-06	7.672553e-06	2.190208e-08	5.567392e+01	1.438259e+03
1.540000e-06	7.703699e-06	2.192034e-08	5.589992e+01	1.439434e+03
1.550000e-06	7.732224e-06	2.193721e-08	5.610691e+01	1.440609e+03
1.560000e-06	7.758038e-06	2.195152e-08	5.629422e+01	1.441774e+03
1.570000e-06	7.780921e-06	2.196152e-08	5.646027e+01	1.442897e+03
1.580000e-06	7.801067e-06	2.197041e-08	5.660645e+01	1.443928e+03
1.590000e-06	7.818461e-06	2.197989e-08	5.673267e+01	1.444808e+03
1.600000e-06	7.832947e-06	2.198758e-08	5.683778e+01	1.445484e+03
1.610000e-06	7.844411e-06	2.199237e-08	5.692096e+01	1.445913e+03
1.620000e-06	7.852759e-06	2.199487e-08	5.698154e+01	1.446074e+03
1.630000e-06	7.858247e-06	2.199809e-08	5.702136e+01	1.445973e+03
1.640000e-06	7.861022e-06	2.199957e-08	5.704150e+01	1.445637e+03
1.650000e-06	7.861007e-06	2.199860e-08	5.704139e+01	1.445112e+03
1.660000e-06	7.858319e-06	2.198765e-08	5.702188e+01	1.444459e+03
1.670000e-06	7.853008e-06	2.197981e-08	5.698334e+01	1.443737e+03
1.680000e-06	7.845013e-06	2.197607e-08	5.692533e+01	1.442999e+03
1.690000e-06	7.834419e-06	2.196859e-08	5.684846e+01	1.442281e+03
1.700000e-06	7.821051e-06	2.196018e-08	5.675146e+01	1.441597e+03
1.710000e-06	7.804970e-06	2.195577e-08	5.663477e+01	1.440938e+03
1.720000e-06	7.786566e-06	2.195745e-08	5.650123e+01	1.440273e+03
1.730000e-06	7.765947e-06	2.192865e-08	5.635161e+01	1.439557e+03
1.740000e-06	7.742561e-06	2.181924e-08	5.618192e+01	1.438739e+03
1.750000e-06	7.715662e-06	2.183086e-08	5.598673e+01	1.437767e+03
1.760000e-06	7.685150e-06	2.186625e-08	5.576533e+01	1.436605e+03
1.770000e-06	7.651751e-06	2.182488e-08	5.552297e+01	1.435233e+03
1.780000e-06	7.616222e-06	2.180972e-08	5.526517e+01	1.433649e+03
1.790000e-06	7.578465e-06	2.187591e-08	5.499120e+01	1.431874e+03
1.800000e-06	7.538600e-06	2.177944e-08	5.470193e+01	1.429943e+03
1.810000e-06	7.496668e-06	2.166233e-08	5.439765e+01	1.427898e+03
1.820000e-06	7.452122e-06	2.179655e-08	5.407442e+01	1.425780e+03
1.830000e-06	7.404933e-06	2.167687e-08	5.373200e+01	1.423618e+03
1.840000e-06	7.355067e-06	2.170444e-08	5.337016e+01	1.421426e+03
1.850000e-06	7.302254e-06	2.170275e-08	5.298694e+01	1.419192e+03
1.860000e-06	7.246542e-06	2.158638e-08	5.258268e+01	1.416885e+03
1.870000e-06	7.188141e-06	2.163899e-08	5.215891e+01	1.414455e+03
1.880000e-06	7.127265e-06	2.147200e-08	5.171717e+01	1.411838e+03
1.890000e-06	7.063691e-06	2.146665e-08	5.125587e+01	1.408973e+03
1.900000e-06	6.997291e-06	2.142798e-08	5.077405e+01	1.405805e+03
1.910000e-06	6.928196e-06	2.133693e-08	5.027268e+01	1.402296e+03
1.920000e-06	6.856318e-06	2.134661e-08	4.975112e+01	1.398435e+03
1.930000e-06	6.781811e-06	2.124251e-08	4.921048e+01	1.394235e+03
1.940000e-06	6.704668e-06	2.123467e-08	4.865071e+01	1.389735e+03
1.950000e-06	6.624880e-06	2.111773e-08	4.807175e+01	1.384990e+03
1.960000e-06	6.542641e-06	2.104609e-08	4.747500e+01	1.380066e+03
1.970000e-06	6.458043e-06	2.099040e-08	4.686114e+01	1.375021e+03
1.980000e-06	6.371059e-06	2.089351e-08	4.622996e+01	1.369902e+03
1.990000e-06	6.281709e-06	2.086252e-08	4.558161e+01	1.364729e+03
2.000000e-06	6.190226e-06	2.074219e-08	4.491779e+01	1.359493e+03
2.010000e-06	6.096536e-06	2.067796e-08	4.423796e+01	1.354155e+03
2.020000e-06	6.000561e-06	2.057252e-08	4.354154e+01	1.348647e+03
2.030000e-06	5.902459e-06	2.048561e-08	4.282968e+01	1.342887e+03
2.040000e-06	5.802393e-06	2.038869e-08	4.210358e+01	1.336785e+03
2.050000e-06	5.700282e-06	2.029216e-08	4.136264e+01	1.330259e+03
2.060000e-06	5.596027e-06	2.019422e-08	4.060614e+01	1.323250e+03
2.070000e-06	5.489802e-06	2.005615e-08	3.983535e+01	1.315723e+03
2.080000e-06	5.381761e-06	1.994341e-08	3.905137e+01	1.307679e+03
2.090000e-06	5.271891e-06	1.981387e-08	3.825413e+01	1.299151e+03
2.100000e-06	5.160005e-06	1.969840e-08	3.744226e+01	1.290194e+03
2.110000e-06	5.046200e-06	1.955694e-08	3.661646e+01	1.280878e+03
2.120000e-06	4.930614e-06	1.942433e-08	3.577774e+01	1.271268e+03
2.130000e-06	4.813088e-06	1.927499e-08	3.492494e+01	1.261414e+03
2.140000e-06	4.693567e-06	1.911966e-08	3.405767e+01	1.251333e+03
2.150000e-06	4.572246e-06	1.895915e-08	3.317733e+01	1.241007e+03
2.160000e-06	4.449289e-06	1.879629e-08	3.228513e+01	1.230373e+03
2.170000e-06	4.324747e-06	1.862548e-08	3.138142e+01	1.219333e+03
2.180000e-06	4.198662e-06	1.843940e-08	3.046652e+01	1.207759e+03
2.190000e-06	4.070937e-06	1.825143e-08	2.953972e+01	1.195516e+03
2.200000e-06	3.941680e-06	1.804798e-08	2.860179e+01	1.182471e+03
2.210000e-06	3.810967e-06	1.783680e-08	2.765331e+01	1.168517e+03
2.220000e-06	3.678865e-06	1.761194e-08	2.669475e+01	1.153581e+03
2.230000e-06	3.545514e-06	1.738416e-08	2.572711e+01	1.137634e+03
2.240000e-06	3.410840e-06	1.713820e-08	2.474989e+01	1.120691e+03
2.250000e-06	3.274811e-06	1.687857e-08	2.376283e+01	1.102799e+03
2.260000e-06	3.137474e-06	1.660226e-08	2.276628e+01	1.084020e+03
2.270000e-06	2.998949e-06	1.630988e-08	2.176111e+01	1.064413e+03
2.280000e-06	2.859358e-06	1.600012e-08	2.074820e+01	1.044003e+03
2.290000e-06	2.718703e-06	1.567721e-08	1.972758e+01	1.022765e+03
2.300000e-06	2.576969e-06	1.533887e-08	1.869912e+01	1.000603e+03
2.310000e-06	2.434233e-06	1.497784e-08	1.766339e+01	9.773416e+02
2.320000e-06	2.290557e-06	1.459151e-08	1.662084e+01	9.527303e+02
2.330000e-06	2.146060e-06	1.417596e-08	1.557234e+01	9.264569e+02
2.340000e-06	2.000837e-06	1.373344e-08	1.451856e+01	8.981726e+02
2.350000e-06	1.854977e-06	1.326088e-08	1.346016e+01	8.675249e+02
2.360000e-06	1.708570e-06	1.275386e-08	1.239780e+01	8.341939e+02
2.370000e-06	1.561649e-06	1.220832e-08	1.133171e+01	7.979287e+02
2.380000e-06	1.414234e-06	1.162377e-08	1.026203e+01	7.585769e+02
2.390000e-06	1.266348e-06	1.099702e-08	9.188929e+00	7.161048e+02
2.400000e-06	1.118035e-06	1.032498e-08	8.112735e+00	6.706034e+02
2.410000e-06	9.693939e-07	9.608148e-09	7.034159e+00	6.222812e+02
2.420000e-06	8.204809e-07	8.846836e-09	5.953610e+00	5.714414e+02
2.430000e-06	6.712807e-07	8.039184e-09	4.870977e+00	5.184488e+02
2.440000e-06	5.218193e-07	7.187544e-09	3.786448e+00	4.636894e+02
2.450000e-06	3.721986e-07	6.301482e-09	2.700764e+00	4.075281e+02
2.460000e-06	2.224444e-07	5.394727e-09	1.614111e+00	3.502712e+02
2.470000e-06	7.255118e-08	4.475836e-09	5.264491e-01	2.921378e+02
2.480000e-06	-7.737424e-08	3.555852e-09	-5.614464e-01	2.332458e+02
2.490000e-06	-2.273013e-07	2.642765e-09	-1.649353e+00	1.736131e+02
2.500000e-06	-3.771610e-07	1.735616e-09	-2.736772e+00	1.131756e+02
2.510000e-06	-5.269234e-07	8.288209e-10	-3.823485e+00	5.182001e+01
2.520000e-06	-6.765501e-07	-8.988618e-11	-4.909213e+00	-1.057480e+01
2.530000e-06	-8.259587e-07	-1.028055e-09	-5.993359e+00	-7.409063e+01
2.540000e-06	-9.751180e-07	-1.994953e-09	-7.075694e+00	-1.387256e+02
2.550000e-06	-1.123914e-06	-2.995145e-09	-8.155397e+00	-2.043582e+02
2.560000e-06	-1.272313e-06	-4.021473e-09	-9.232216e+00	-2.707241e+02
2.570000e-06	-1.420279e-06	-5.065053e-09	-1.030589e+01	-3.374119e+02
2.580000e-06	-1.567700e-06	-6.113363e-09	-1.137562e+01	-4.038759e+02
2.590000e-06	-1.714584e-06	-7.149531e-09	-1.244144e+01	-4.694676e+02
2.600000e-06	-1.860913e-06	-8.154482e-09	-1.350324e+01	-5.334807e+02
2.610000e-06	-2.006596e-06	-9.110571e-09	-1.456035e+01	-5.952061e+02
2.620000e-06	-2.151482e-06	-1.000661e-08	-1.561168e+01	-6.539886e+02
2.630000e-06	-2.295491e-06	-1.083613e-08	-1.665664e+01	-7.092802e+02
2.640000e-06	-2.438582e-06	-1.159779e-08	-1.769494e+01	-7.606823e+02
2.650000e-06	-2.580632e-06	-1.229932e-08	-1.872570e+01	-8.079733e+02
2.660000e-06	-2.721536e-06	-1.294508e-08	-1.974813e+01	-8.511183e+02
2.670000e-06	-2.861308e-06	-1.353872e-08	-2.076235e+01	-8.902590e+02
2.680000e-06	-3.000031e-06	-1.408428e-08	-2.176896e+01	-9.256879e+02
2.690000e-06	-3.137681e-06	-1.458386e-08	-2.276778e+01	-9.578086e+02
2.700000e-06	-3.274139e-06	-1.504513e-08	-2.375796e+01	-9.870882e+02
2.710000e-06	-3.409283e-06	-1.547292e-08	-2.473859e+01	-1.014008e+03
2.720000e-06	-3.543126e-06	-1.587281e-08	-2.570979e+01	-1.039019e+03
2.730000e-06	-3.675743e-06	-1.624820e-08	-2.667209e+01	-1.062503e+03
2.740000e-06	-3.807070e-06	-1.659815e-08	-2.762503e+01	-1.084751e+03
2.750000e-06	-3.937077e-06	-1.692379e-08	-2.856840e+01	-1.105956e+03
2.760000e-06	-4.065772e-06	-1.722656e-08	-2.950223e+01	-1.126211e+03
2.770000e-06	-4.193016e-06	-1.751150e-08	-3.042555e+01	-1.145534e+03
2.780000e-06	-4.318761e-06	-1.777954e-08	-3.133798e+01	-1.163888e+03
2.790000e-06	-4.443073e-06	-1.803049e-08	-3.224002e+01	-1.181209e+03
2.800000e-06	-4.565850e-06	-1.826685e-08	-3.313093e+01	-1.197439e+03
2.810000e-06	-4.686974e-06	-1.849299e-08	-3.400983e+01	-1.212547e+03
2.820000e-06	-4.806343e-06	-1.871094e-08	-3.487600e+01	-1.226541e+03
2.830000e-06	-4.923783e-06	-1.891716e-08	-3.572818e+01	-1.239482e+03
2.840000e-06	-5.039268e-06	-1.911063e-08	-3.656616e+01	-1.251470e+03
2.850000e-06	-5.152726e-06	-1.929031e-08	-3.738944e+01	-1.262642e+03
2.860000e-06	-5.264100e-06	-1.945856e-08	-3.819760e+01	-1.273149e+03
2.870000e-06	-5.373552e-06	-1.961854e-08	-3.899181e+01	-1.283137e+03
2.880000e-06	-5.481193e-06	-1.976957e-08	-3.977288e+01	-1.292730e+03
2.890000e-06	-5.586932e-06	-1.991277e-08	-4.054014e+01	-1.302015e+03
2.900000e-06	-5.690582e-06	-2.004867e-08	-4.129226e+01	-1.311036e+03
2.910000e-06	-5.792090e-06	-2.017899e-08	-4.202882e+01	-1.319790e+03
2.920000e-06	-5.891489e-06	-2.030448e-08	-4.275008e+01	-1.328239e+03
2.930000e-06	-5.988843e-06	-2.042348e-08	-4.345651e+01	-1.336318e+03
2.940000e-06	-6.084035e-06	-2.053483e-08	-4.414725e+01	-1.343955e+03
