# Temperatura_=_26.36
# Concentracion g/m^3_=_28370.0
# C_Vs_to_Am_M_A/Vsm_=_65563218390.804596
# pendiente_HvsI_1/m_=_3716.3
# ordenada_HvsI_A/m_=_1297.0
# frecuencia_Hz_=_302546.4586282652

Tiempo_(s)	Campo_(V.s)	Magnetizacion_(V.s)	Campo_(kA/m)	Magnetizacion_(A/m)
0.000000e+00	-7.920868e-06	-2.000947e-08	-5.683978e+01	-1.308626e+03
1.000000e-08	-7.917397e-06	-2.000975e-08	-5.681487e+01	-1.308068e+03
2.000000e-08	-7.911366e-06	-2.000134e-08	-5.677159e+01	-1.307450e+03
3.000000e-08	-7.902723e-06	-1.999271e-08	-5.670957e+01	-1.306807e+03
4.000000e-08	-7.891256e-06	-1.998468e-08	-5.662728e+01	-1.306162e+03
5.000000e-08	-7.876934e-06	-1.997308e-08	-5.652451e+01	-1.305519e+03
6.000000e-08	-7.859852e-06	-1.995540e-08	-5.640193e+01	-1.304867e+03
7.000000e-08	-7.840386e-06	-1.993463e-08	-5.626225e+01	-1.304175e+03
8.000000e-08	-7.818648e-06	-1.991924e-08	-5.610625e+01	-1.303406e+03
9.000000e-08	-7.794113e-06	-1.995855e-08	-5.593020e+01	-1.302521e+03
1.000000e-07	-7.766375e-06	-1.994904e-08	-5.573114e+01	-1.301485e+03
1.100000e-07	-7.735555e-06	-1.987365e-08	-5.550998e+01	-1.300275e+03
1.200000e-07	-7.701897e-06	-1.984052e-08	-5.526846e+01	-1.298886e+03
1.300000e-07	-7.665590e-06	-1.983311e-08	-5.500792e+01	-1.297328e+03
1.400000e-07	-7.626942e-06	-1.979754e-08	-5.473058e+01	-1.295627e+03
1.500000e-07	-7.586121e-06	-1.971526e-08	-5.443765e+01	-1.293819e+03
1.600000e-07	-7.542935e-06	-1.972963e-08	-5.412775e+01	-1.291942e+03
1.700000e-07	-7.497130e-06	-1.974669e-08	-5.379905e+01	-1.290026e+03
1.800000e-07	-7.448634e-06	-1.961389e-08	-5.345105e+01	-1.288092e+03
1.900000e-07	-7.397215e-06	-1.962443e-08	-5.308207e+01	-1.286138e+03
2.000000e-07	-7.342841e-06	-1.961089e-08	-5.269189e+01	-1.284144e+03
2.100000e-07	-7.285761e-06	-1.955896e-08	-5.228228e+01	-1.282068e+03
2.200000e-07	-7.226051e-06	-1.955223e-08	-5.185380e+01	-1.279853e+03
2.300000e-07	-7.163759e-06	-1.946801e-08	-5.140680e+01	-1.277436e+03
2.400000e-07	-7.098781e-06	-1.944676e-08	-5.094053e+01	-1.274755e+03
2.500000e-07	-7.031066e-06	-1.937666e-08	-5.045460e+01	-1.271761e+03
2.600000e-07	-6.960681e-06	-1.932187e-08	-4.994953e+01	-1.268423e+03
2.700000e-07	-6.887543e-06	-1.925494e-08	-4.942469e+01	-1.264735e+03
2.800000e-07	-6.811664e-06	-1.919142e-08	-4.888018e+01	-1.260715e+03
2.900000e-07	-6.733048e-06	-1.913843e-08	-4.831604e+01	-1.256407e+03
3.000000e-07	-6.651730e-06	-1.905760e-08	-4.773251e+01	-1.251868e+03
3.100000e-07	-6.568051e-06	-1.900403e-08	-4.713203e+01	-1.247160e+03
3.200000e-07	-6.482177e-06	-1.893348e-08	-4.651580e+01	-1.242343e+03
3.300000e-07	-6.393972e-06	-1.888231e-08	-4.588285e+01	-1.237457e+03
3.400000e-07	-6.303405e-06	-1.880405e-08	-4.523294e+01	-1.232521e+03
3.500000e-07	-6.210598e-06	-1.870266e-08	-4.456696e+01	-1.227523e+03
3.600000e-07	-6.115575e-06	-1.863281e-08	-4.388508e+01	-1.222424e+03
3.700000e-07	-6.018309e-06	-1.855243e-08	-4.318710e+01	-1.217160e+03
3.800000e-07	-5.918819e-06	-1.845391e-08	-4.247317e+01	-1.211652e+03
3.900000e-07	-5.817163e-06	-1.835640e-08	-4.174369e+01	-1.205817e+03
4.000000e-07	-5.713390e-06	-1.826717e-08	-4.099902e+01	-1.199580e+03
4.100000e-07	-5.607607e-06	-1.815698e-08	-4.023993e+01	-1.192886e+03
4.200000e-07	-5.499935e-06	-1.803971e-08	-3.946728e+01	-1.185706e+03
4.300000e-07	-5.390380e-06	-1.793082e-08	-3.868112e+01	-1.178043e+03
4.400000e-07	-5.278812e-06	-1.781293e-08	-3.788051e+01	-1.169928e+03
4.500000e-07	-5.165208e-06	-1.768605e-08	-3.706529e+01	-1.161413e+03
4.600000e-07	-5.049640e-06	-1.755811e-08	-3.623598e+01	-1.152561e+03
4.700000e-07	-4.932174e-06	-1.742782e-08	-3.539305e+01	-1.143432e+03
4.800000e-07	-4.812978e-06	-1.728760e-08	-3.453770e+01	-1.134068e+03
4.900000e-07	-4.692023e-06	-1.714082e-08	-3.366974e+01	-1.124486e+03
5.000000e-07	-4.569265e-06	-1.698988e-08	-3.278883e+01	-1.114664e+03
5.100000e-07	-4.444782e-06	-1.682711e-08	-3.189555e+01	-1.104543e+03
5.200000e-07	-4.318690e-06	-1.664961e-08	-3.099072e+01	-1.094032e+03
5.300000e-07	-4.191034e-06	-1.646827e-08	-3.007466e+01	-1.083015e+03
5.400000e-07	-4.061824e-06	-1.628312e-08	-2.914746e+01	-1.071369e+03
5.500000e-07	-3.931141e-06	-1.608700e-08	-2.820968e+01	-1.058973e+03
5.600000e-07	-3.798925e-06	-1.587843e-08	-2.726091e+01	-1.045733e+03
5.700000e-07	-3.665281e-06	-1.566267e-08	-2.630189e+01	-1.031582e+03
5.800000e-07	-3.530339e-06	-1.543815e-08	-2.533355e+01	-1.016496e+03
5.900000e-07	-3.393966e-06	-1.520382e-08	-2.435494e+01	-1.000488e+03
6.000000e-07	-3.256223e-06	-1.495708e-08	-2.336651e+01	-9.835970e+02
6.100000e-07	-3.117245e-06	-1.469873e-08	-2.236920e+01	-9.658781e+02
6.200000e-07	-2.976960e-06	-1.442364e-08	-2.136253e+01	-9.473785e+02
6.300000e-07	-2.835325e-06	-1.412855e-08	-2.034616e+01	-9.281173e+02
6.400000e-07	-2.692489e-06	-1.381425e-08	-1.932118e+01	-9.080657e+02
6.500000e-07	-2.548638e-06	-1.348172e-08	-1.828891e+01	-8.871327e+02
6.600000e-07	-2.403886e-06	-1.313322e-08	-1.725017e+01	-8.651588e+02
6.700000e-07	-2.258359e-06	-1.276336e-08	-1.620588e+01	-8.419195e+02
6.800000e-07	-2.112084e-06	-1.237155e-08	-1.515621e+01	-8.171398e+02
6.900000e-07	-1.965103e-06	-1.195737e-08	-1.410149e+01	-7.905174e+02
7.000000e-07	-1.817506e-06	-1.151806e-08	-1.304234e+01	-7.617525e+02
7.100000e-07	-1.669279e-06	-1.104559e-08	-1.197867e+01	-7.305815e+02
7.200000e-07	-1.520520e-06	-1.053665e-08	-1.091118e+01	-6.968087e+02
7.300000e-07	-1.371377e-06	-9.991171e-09	-9.840940e+00	-6.603322e+02
7.400000e-07	-1.221814e-06	-9.408276e-09	-8.767678e+00	-6.211606e+02
7.500000e-07	-1.071844e-06	-8.787661e-09	-7.691500e+00	-5.794170e+02
7.600000e-07	-9.215340e-07	-8.128615e-09	-6.612885e+00	-5.353301e+02
7.700000e-07	-7.708632e-07	-7.435117e-09	-5.531679e+00	-4.892120e+02
7.800000e-07	-6.198799e-07	-6.703825e-09	-4.448229e+00	-4.414261e+02
7.900000e-07	-4.686676e-07	-5.939353e-09	-3.363137e+00	-3.923489e+02
8.000000e-07	-3.172602e-07	-5.154230e-09	-2.276645e+00	-3.423302e+02
8.100000e-07	-1.657425e-07	-4.359100e-09	-1.189360e+00	-2.916577e+02
8.200000e-07	-1.411228e-08	-3.560104e-09	-1.012691e-01	-2.405308e+02
8.300000e-07	1.376339e-07	-2.763560e-09	9.876546e-01	-1.890464e+02
8.400000e-07	2.893821e-07	-1.975260e-09	2.076592e+00	-1.372001e+02
8.500000e-07	4.410513e-07	-1.191194e-09	3.164963e+00	-8.490319e+01
8.600000e-07	5.925895e-07	-4.080869e-10	4.252395e+00	-3.201133e+01
8.700000e-07	7.439334e-07	3.815790e-10	5.338432e+00	2.163586e+01
8.800000e-07	8.949770e-07	1.186668e-09	6.422314e+00	7.617165e+01
8.900000e-07	1.045687e-06	2.016501e-09	7.503801e+00	1.316601e+02
9.000000e-07	1.196051e-06	2.872449e-09	8.582807e+00	1.880610e+02
9.100000e-07	1.345980e-06	3.749783e-09	9.658689e+00	2.452072e+02
9.200000e-07	1.495417e-06	4.644986e-09	1.073104e+01	3.027965e+02
9.300000e-07	1.644348e-06	5.548189e-09	1.179976e+01	3.604008e+02
9.400000e-07	1.792720e-06	6.441326e-09	1.286447e+01	4.174910e+02
9.500000e-07	1.940469e-06	7.306142e-09	1.392472e+01	4.734754e+02
9.600000e-07	2.087506e-06	8.134243e-09	1.497985e+01	5.277458e+02
9.700000e-07	2.233750e-06	8.915730e-09	1.602928e+01	5.797280e+02
9.800000e-07	2.379205e-06	9.643581e-09	1.707307e+01	6.289285e+02
9.900000e-07	2.523774e-06	1.031882e-08	1.811048e+01	6.749731e+02
1.000000e-06	2.667292e-06	1.094523e-08	1.914036e+01	7.176335e+02
1.010000e-06	2.809769e-06	1.152527e-08	2.016277e+01	7.568374e+02
1.020000e-06	2.951160e-06	1.205975e-08	2.117738e+01	7.926640e+02
1.030000e-06	3.091318e-06	1.255505e-08	2.218315e+01	8.253230e+02
1.040000e-06	3.230295e-06	1.301291e-08	2.318045e+01	8.551240e+02
1.050000e-06	3.368045e-06	1.343830e-08	2.416893e+01	8.824366e+02
1.060000e-06	3.504419e-06	1.383261e-08	2.514755e+01	9.076497e+02
1.070000e-06	3.639428e-06	1.419951e-08	2.611636e+01	9.311332e+02
1.080000e-06	3.773122e-06	1.454454e-08	2.707575e+01	9.532062e+02
1.090000e-06	3.905462e-06	1.486761e-08	2.802542e+01	9.741168e+02
1.100000e-06	4.036425e-06	1.517082e-08	2.896520e+01	9.940326e+02
1.110000e-06	4.165993e-06	1.545608e-08	2.989497e+01	1.013043e+03
1.120000e-06	4.294037e-06	1.572285e-08	3.081381e+01	1.031174e+03
1.130000e-06	4.420573e-06	1.597213e-08	3.172183e+01	1.048404e+03
1.140000e-06	4.545647e-06	1.620734e-08	3.261935e+01	1.064690e+03
1.150000e-06	4.669207e-06	1.642952e-08	3.350601e+01	1.079993e+03
1.160000e-06	4.791191e-06	1.664133e-08	3.438136e+01	1.094289e+03
1.170000e-06	4.911494e-06	1.684091e-08	3.524465e+01	1.107593e+03
1.180000e-06	5.029953e-06	1.702876e-08	3.609471e+01	1.119952e+03
1.190000e-06	5.146477e-06	1.720595e-08	3.693088e+01	1.131453e+03
1.200000e-06	5.261055e-06	1.737490e-08	3.775308e+01	1.142206e+03
1.210000e-06	5.373564e-06	1.753664e-08	3.856044e+01	1.152336e+03
1.220000e-06	5.484082e-06	1.769024e-08	3.935352e+01	1.161963e+03
1.230000e-06	5.592760e-06	1.783701e-08	4.013338e+01	1.171189e+03
1.240000e-06	5.699451e-06	1.797532e-08	4.089899e+01	1.180086e+03
1.250000e-06	5.803999e-06	1.810590e-08	4.164923e+01	1.188693e+03
1.260000e-06	5.906405e-06	1.822934e-08	4.238409e+01	1.197010e+03
1.270000e-06	6.006667e-06	1.834584e-08	4.310356e+01	1.205011e+03
1.280000e-06	6.104681e-06	1.845645e-08	4.380690e+01	1.212648e+03
1.290000e-06	6.200365e-06	1.856013e-08	4.449353e+01	1.219868e+03
1.300000e-06	6.293794e-06	1.865809e-08	4.516397e+01	1.226622e+03
1.310000e-06	6.385022e-06	1.874902e-08	4.581862e+01	1.232883e+03
1.320000e-06	6.473943e-06	1.883261e-08	4.645671e+01	1.238648e+03
1.330000e-06	6.560547e-06	1.891205e-08	4.707818e+01	1.243943e+03
1.340000e-06	6.644870e-06	1.899036e-08	4.768328e+01	1.248823e+03
1.350000e-06	6.726843e-06	1.906410e-08	4.827151e+01	1.253362e+03
1.360000e-06	6.806308e-06	1.913293e-08	4.884175e+01	1.257643e+03
1.370000e-06	6.883275e-06	1.920072e-08	4.939406e+01	1.261750e+03
1.380000e-06	6.957626e-06	1.926697e-08	4.992760e+01	1.265751e+03
1.390000e-06	7.029304e-06	1.932905e-08	5.044196e+01	1.269691e+03
1.400000e-06	7.098575e-06	1.938542e-08	5.093904e+01	1.273589e+03
1.410000e-06	7.165358e-06	1.943916e-08	5.141828e+01	1.277434e+03
1.420000e-06	7.229483e-06	1.949015e-08	5.187844e+01	1.281189e+03
1.430000e-06	7.291134e-06	1.953813e-08	5.232084e+01	1.284802e+03
1.440000e-06	7.350377e-06	1.958435e-08	5.274596e+01	1.288210e+03
1.450000e-06	7.407004e-06	1.962862e-08	5.315232e+01	1.291356e+03
1.460000e-06	7.460914e-06	1.967051e-08	5.353917e+01	1.294196e+03
1.470000e-06	7.511816e-06	1.970948e-08	5.390444e+01	1.296707e+03
1.480000e-06	7.559661e-06	1.974503e-08	5.424777e+01	1.298889e+03
1.490000e-06	7.604823e-06	1.977885e-08	5.457185e+01	1.300769e+03
1.500000e-06	7.647336e-06	1.980839e-08	5.487693e+01	1.302392e+03
1.510000e-06	7.687095e-06	1.983322e-08	5.516224e+01	1.303814e+03
1.520000e-06	7.724178e-06	1.985553e-08	5.542834e+01	1.305095e+03
1.530000e-06	7.758544e-06	1.987606e-08	5.567495e+01	1.306289e+03
1.540000e-06	7.790098e-06	1.989469e-08	5.590138e+01	1.307433e+03
1.550000e-06	7.818959e-06	1.990987e-08	5.610849e+01	1.308547e+03
1.560000e-06	7.844990e-06	1.992419e-08	5.629529e+01	1.309626e+03
1.570000e-06	7.868019e-06	1.993699e-08	5.646054e+01	1.310648e+03
1.580000e-06	7.888306e-06	1.994868e-08	5.660612e+01	1.311577e+03
1.590000e-06	7.905867e-06	1.995727e-08	5.673213e+01	1.312367e+03
1.600000e-06	7.920489e-06	1.996302e-08	5.683706e+01	1.312979e+03
1.610000e-06	7.932077e-06	1.996624e-08	5.692022e+01	1.313379e+03
1.620000e-06	7.940563e-06	1.996630e-08	5.698111e+01	1.313552e+03
1.630000e-06	7.946154e-06	1.996665e-08	5.702123e+01	1.313502e+03
1.640000e-06	7.948979e-06	1.996696e-08	5.704150e+01	1.313250e+03
1.650000e-06	7.948949e-06	1.996914e-08	5.704129e+01	1.312833e+03
1.660000e-06	7.946233e-06	1.996369e-08	5.702180e+01	1.312296e+03
1.670000e-06	7.940946e-06	1.995928e-08	5.698386e+01	1.311687e+03
1.680000e-06	7.932998e-06	1.995650e-08	5.692683e+01	1.311046e+03
1.690000e-06	7.922403e-06	1.994741e-08	5.685080e+01	1.310399e+03
1.700000e-06	7.908961e-06	1.993664e-08	5.675434e+01	1.309755e+03
1.710000e-06	7.892752e-06	1.992843e-08	5.663802e+01	1.309106e+03
1.720000e-06	7.874231e-06	1.992465e-08	5.650511e+01	1.308426e+03
1.730000e-06	7.853379e-06	1.989307e-08	5.635548e+01	1.307679e+03
1.740000e-06	7.829683e-06	1.980520e-08	5.618544e+01	1.306825e+03
1.750000e-06	7.802543e-06	1.981993e-08	5.599069e+01	1.305827e+03
1.760000e-06	7.771731e-06	1.985060e-08	5.576958e+01	1.304661e+03
1.770000e-06	7.737954e-06	1.981005e-08	5.552720e+01	1.303315e+03
1.780000e-06	7.701979e-06	1.977744e-08	5.526904e+01	1.301795e+03
1.790000e-06	7.663761e-06	1.983009e-08	5.499479e+01	1.300126e+03
1.800000e-06	7.623444e-06	1.977540e-08	5.470548e+01	1.298340e+03
1.810000e-06	7.581038e-06	1.967246e-08	5.440118e+01	1.296475e+03
1.820000e-06	7.535969e-06	1.979735e-08	5.407776e+01	1.294565e+03
1.830000e-06	7.488188e-06	1.971715e-08	5.373489e+01	1.292633e+03
1.840000e-06	7.437652e-06	1.970523e-08	5.337224e+01	1.290684e+03
1.850000e-06	7.384119e-06	1.968614e-08	5.298810e+01	1.288701e+03
1.860000e-06	7.327799e-06	1.957785e-08	5.258394e+01	1.286649e+03
1.870000e-06	7.268833e-06	1.964003e-08	5.216081e+01	1.284473e+03
1.880000e-06	7.207242e-06	1.952370e-08	5.171884e+01	1.282111e+03
1.890000e-06	7.142867e-06	1.950547e-08	5.125688e+01	1.279500e+03
1.900000e-06	7.075737e-06	1.948623e-08	5.077516e+01	1.276587e+03
1.910000e-06	7.005949e-06	1.940665e-08	5.027436e+01	1.273335e+03
1.920000e-06	6.933336e-06	1.938314e-08	4.975330e+01	1.269731e+03
1.930000e-06	6.857996e-06	1.929134e-08	4.921266e+01	1.265790e+03
1.940000e-06	6.779941e-06	1.928687e-08	4.865254e+01	1.261548e+03
1.950000e-06	6.699243e-06	1.919980e-08	4.807346e+01	1.257059e+03
1.960000e-06	6.616116e-06	1.912737e-08	4.747694e+01	1.252386e+03
1.970000e-06	6.530491e-06	1.905487e-08	4.686250e+01	1.247590e+03
1.980000e-06	6.442444e-06	1.896670e-08	4.623068e+01	1.242717e+03
1.990000e-06	6.352161e-06	1.893532e-08	4.558281e+01	1.237792e+03
2.000000e-06	6.259692e-06	1.883128e-08	4.491926e+01	1.232811e+03
2.010000e-06	6.164934e-06	1.876637e-08	4.423928e+01	1.227741e+03
2.020000e-06	6.067957e-06	1.867413e-08	4.354338e+01	1.222524e+03
2.030000e-06	5.968893e-06	1.858433e-08	4.283250e+01	1.217083e+03
2.040000e-06	5.867668e-06	1.847470e-08	4.210611e+01	1.211336e+03
2.050000e-06	5.764310e-06	1.838187e-08	4.136442e+01	1.205204e+03
2.060000e-06	5.658946e-06	1.829860e-08	4.060833e+01	1.198626e+03
2.070000e-06	5.551730e-06	1.818181e-08	3.983896e+01	1.191568e+03
2.080000e-06	5.442539e-06	1.807313e-08	3.905541e+01	1.184022e+03
2.090000e-06	5.331329e-06	1.795588e-08	3.825737e+01	1.176014e+03
2.100000e-06	5.218166e-06	1.784851e-08	3.744532e+01	1.167592e+03
2.110000e-06	5.103029e-06	1.771305e-08	3.661910e+01	1.158817e+03
2.120000e-06	4.985913e-06	1.758363e-08	3.577868e+01	1.149750e+03
2.130000e-06	4.866862e-06	1.744337e-08	3.492437e+01	1.140441e+03
2.140000e-06	4.745991e-06	1.729321e-08	3.405701e+01	1.130913e+03
2.150000e-06	4.623430e-06	1.713474e-08	3.317752e+01	1.121153e+03
2.160000e-06	4.499260e-06	1.698260e-08	3.228648e+01	1.111113e+03
2.170000e-06	4.373377e-06	1.682735e-08	3.138315e+01	1.100708e+03
2.180000e-06	4.245796e-06	1.665671e-08	3.046764e+01	1.089828e+03
2.190000e-06	4.116671e-06	1.648162e-08	2.954104e+01	1.078349e+03
2.200000e-06	3.986135e-06	1.629479e-08	2.860432e+01	1.066149e+03
2.210000e-06	3.854071e-06	1.609733e-08	2.765664e+01	1.053126e+03
2.220000e-06	3.720486e-06	1.588513e-08	2.669804e+01	1.039205e+03
2.230000e-06	3.585557e-06	1.566459e-08	2.572979e+01	1.024352e+03
2.240000e-06	3.449343e-06	1.542740e-08	2.475232e+01	1.008570e+03
2.250000e-06	3.311813e-06	1.517880e-08	2.376541e+01	9.918932e+02
2.260000e-06	3.173004e-06	1.492033e-08	2.276933e+01	9.743748e+02
2.270000e-06	3.032928e-06	1.465452e-08	2.176415e+01	9.560657e+02
2.280000e-06	2.891544e-06	1.437416e-08	2.074958e+01	9.369939e+02
2.290000e-06	2.749068e-06	1.407593e-08	1.972718e+01	9.171444e+02
2.300000e-06	2.605647e-06	1.375638e-08	1.869800e+01	8.964425e+02
2.310000e-06	2.461302e-06	1.341569e-08	1.766219e+01	8.747460e+02
2.320000e-06	2.316120e-06	1.305784e-08	1.662037e+01	8.518457e+02
2.330000e-06	2.170167e-06	1.267721e-08	1.557302e+01	8.274774e+02
2.340000e-06	2.023470e-06	1.226952e-08	1.452033e+01	8.013429e+02
2.350000e-06	1.876110e-06	1.183246e-08	1.346288e+01	7.731388e+02
2.360000e-06	1.728112e-06	1.136565e-08	1.240085e+01	7.425894e+02
2.370000e-06	1.579486e-06	1.086698e-08	1.133432e+01	7.094792e+02
2.380000e-06	1.430361e-06	1.033409e-08	1.026420e+01	6.736808e+02
2.390000e-06	1.280816e-06	9.765834e-09	9.191078e+00	6.351744e+02
2.400000e-06	1.130849e-06	9.156757e-09	8.114919e+00	5.940547e+02
2.410000e-06	9.804768e-07	8.504225e-09	7.035856e+00	5.505257e+02
2.420000e-06	8.297855e-07	7.813279e-09	5.954502e+00	5.048812e+02
2.430000e-06	6.788123e-07	7.088873e-09	4.871125e+00	4.574753e+02
2.440000e-06	5.275609e-07	6.333677e-09	3.785752e+00	4.086849e+02
2.450000e-06	3.761288e-07	5.553653e-09	2.699083e+00	3.588702e+02
2.460000e-06	2.246085e-07	4.759978e-09	1.611780e+00	3.083372e+02
2.470000e-06	7.296793e-08	3.960884e-09	5.236144e-01	2.573093e+02
2.480000e-06	-7.873285e-08	3.163036e-09	-5.649833e-01	2.059093e+02
2.490000e-06	-2.303725e-07	2.370394e-09	-1.653142e+00	1.541575e+02
2.500000e-06	-3.819025e-07	1.582576e-09	-2.740514e+00	1.019837e+02
2.510000e-06	-5.333214e-07	7.959791e-10	-3.827089e+00	4.925427e+01
2.520000e-06	-6.846471e-07	2.552141e-12	-4.912996e+00	-4.191264e+00
2.530000e-06	-8.358007e-07	-8.040083e-10	-5.997667e+00	-5.849701e+01
2.540000e-06	-9.866399e-07	-1.630592e-09	-7.080082e+00	-1.137480e+02
2.550000e-06	-1.137102e-06	-2.483112e-09	-8.159788e+00	-1.699327e+02
2.560000e-06	-1.287177e-06	-3.357970e-09	-9.236725e+00	-2.269172e+02
2.570000e-06	-1.436813e-06	-4.250269e-09	-1.031050e+01	-2.844327e+02
2.580000e-06	-1.585953e-06	-5.154000e-09	-1.138072e+01	-3.420809e+02
2.590000e-06	-1.734520e-06	-6.056466e-09	-1.244684e+01	-3.993549e+02
2.600000e-06	-1.882433e-06	-6.941094e-09	-1.350825e+01	-4.556744e+02
2.610000e-06	-2.029587e-06	-7.794863e-09	-1.456422e+01	-5.104308e+02
2.620000e-06	-2.175938e-06	-8.604856e-09	-1.561443e+01	-5.630367e+02
2.630000e-06	-2.321494e-06	-9.360644e-09	-1.665893e+01	-6.129744e+02
2.640000e-06	-2.466138e-06	-1.006029e-08	-1.769689e+01	-6.598369e+02
2.650000e-06	-2.609810e-06	-1.070710e-08	-1.872788e+01	-7.033577e+02
2.660000e-06	-2.752464e-06	-1.130519e-08	-1.975156e+01	-7.434255e+02
2.670000e-06	-2.894080e-06	-1.185816e-08	-2.076778e+01	-7.800828e+02
2.680000e-06	-3.034589e-06	-1.236759e-08	-2.177607e+01	-8.135095e+02
2.690000e-06	-3.173778e-06	-1.283828e-08	-2.277488e+01	-8.439934e+02
2.700000e-06	-3.311681e-06	-1.327711e-08	-2.376447e+01	-8.718932e+02
2.710000e-06	-3.448315e-06	-1.368548e-08	-2.474495e+01	-8.975967e+02
2.720000e-06	-3.583648e-06	-1.406704e-08	-2.571609e+01	-9.214817e+02
2.730000e-06	-3.717762e-06	-1.442255e-08	-2.667849e+01	-9.438825e+02
2.740000e-06	-3.850564e-06	-1.475417e-08	-2.763147e+01	-9.650663e+02
2.750000e-06	-3.981897e-06	-1.506623e-08	-2.857391e+01	-9.852210e+02
2.760000e-06	-4.111895e-06	-1.535953e-08	-2.950677e+01	-1.004455e+03
2.770000e-06	-4.240552e-06	-1.563372e-08	-3.043001e+01	-1.022807e+03
2.780000e-06	-4.367749e-06	-1.588954e-08	-3.134277e+01	-1.040267e+03
2.790000e-06	-4.493442e-06	-1.613125e-08	-3.224473e+01	-1.056796e+03
2.800000e-06	-4.617446e-06	-1.636110e-08	-3.313458e+01	-1.072349e+03
2.810000e-06	-4.739858e-06	-1.658241e-08	-3.401300e+01	-1.086899e+03
2.820000e-06	-4.860681e-06	-1.679461e-08	-3.488002e+01	-1.100448e+03
2.830000e-06	-4.979660e-06	-1.699280e-08	-3.573381e+01	-1.113039e+03
2.840000e-06	-5.096633e-06	-1.717699e-08	-3.657320e+01	-1.124746e+03
2.850000e-06	-5.211502e-06	-1.734931e-08	-3.739749e+01	-1.135676e+03
2.860000e-06	-5.324329e-06	-1.751222e-08	-3.820714e+01	-1.145952e+03
2.870000e-06	-5.435092e-06	-1.766650e-08	-3.900196e+01	-1.155695e+03
2.880000e-06	-5.543793e-06	-1.781265e-08	-3.978200e+01	-1.165015e+03
2.890000e-06	-5.650594e-06	-1.795359e-08	-4.054840e+01	-1.173991e+03
2.900000e-06	-5.755412e-06	-1.808892e-08	-4.130057e+01	-1.182670e+03
2.910000e-06	-5.858098e-06	-1.821706e-08	-4.203744e+01	-1.191063e+03
2.920000e-06	-5.958632e-06	-1.833901e-08	-4.275887e+01	-1.199148e+03
2.930000e-06	-6.057064e-06	-1.845372e-08	-4.346521e+01	-1.206883e+03
2.940000e-06	-6.153349e-06	-1.856025e-08	-4.415615e+01	-1.214213e+03
