# Temperatura_=_59.62
# Concentracion g/m^3_=_28370.0
# C_Vs_to_Am_M_A/Vsm_=_65563218390.804596
# pendiente_HvsI_1/m_=_3716.3
# ordenada_HvsI_A/m_=_1297.0
# frecuencia_Hz_=_302549.66359476635

Tiempo_(s)	Campo_(V.s)	Magnetizacion_(V.s)	Campo_(kA/m)	Magnetizacion_(A/m)
0.000000e+00	-7.887639e-06	-2.624960e-08	-5.683551e+01	-1.717074e+03
1.000000e-08	-7.883955e-06	-2.624947e-08	-5.680896e+01	-1.716335e+03
2.000000e-08	-7.877734e-06	-2.623874e-08	-5.676414e+01	-1.715551e+03
3.000000e-08	-7.868852e-06	-2.622588e-08	-5.670014e+01	-1.714763e+03
4.000000e-08	-7.857212e-06	-2.621228e-08	-5.661627e+01	-1.713987e+03
5.000000e-08	-7.842738e-06	-2.619493e-08	-5.651197e+01	-1.713212e+03
6.000000e-08	-7.825490e-06	-2.617290e-08	-5.638769e+01	-1.712408e+03
7.000000e-08	-7.805901e-06	-2.614741e-08	-5.624654e+01	-1.711525e+03
8.000000e-08	-7.783970e-06	-2.614341e-08	-5.608851e+01	-1.710511e+03
9.000000e-08	-7.759164e-06	-2.618537e-08	-5.590977e+01	-1.709316e+03
1.000000e-07	-7.731176e-06	-2.614124e-08	-5.570809e+01	-1.707905e+03
1.100000e-07	-7.700179e-06	-2.606481e-08	-5.548474e+01	-1.706264e+03
1.200000e-07	-7.666420e-06	-2.603557e-08	-5.524149e+01	-1.704405e+03
1.300000e-07	-7.630050e-06	-2.600540e-08	-5.497942e+01	-1.702358e+03
1.400000e-07	-7.591333e-06	-2.593682e-08	-5.470043e+01	-1.700175e+03
1.500000e-07	-7.550435e-06	-2.586868e-08	-5.440574e+01	-1.697909e+03
1.600000e-07	-7.507199e-06	-2.594022e-08	-5.409419e+01	-1.695610e+03
1.700000e-07	-7.461399e-06	-2.587330e-08	-5.376417e+01	-1.693313e+03
1.800000e-07	-7.412924e-06	-2.575936e-08	-5.341488e+01	-1.691024e+03
1.900000e-07	-7.361484e-06	-2.579104e-08	-5.304423e+01	-1.688721e+03
2.000000e-07	-7.307083e-06	-2.570815e-08	-5.265223e+01	-1.686352e+03
2.100000e-07	-7.249998e-06	-2.566283e-08	-5.224089e+01	-1.683840e+03
2.200000e-07	-7.190275e-06	-2.561450e-08	-5.181055e+01	-1.681092e+03
2.300000e-07	-7.127970e-06	-2.554196e-08	-5.136161e+01	-1.678016e+03
2.400000e-07	-7.062995e-06	-2.550720e-08	-5.089342e+01	-1.674530e+03
2.500000e-07	-6.995297e-06	-2.540638e-08	-5.040561e+01	-1.670579e+03
2.600000e-07	-6.924914e-06	-2.535527e-08	-4.989846e+01	-1.666140e+03
2.700000e-07	-6.851749e-06	-2.528141e-08	-4.937126e+01	-1.661231e+03
2.800000e-07	-6.775883e-06	-2.521204e-08	-4.882459e+01	-1.655902e+03
2.900000e-07	-6.697318e-06	-2.512720e-08	-4.825848e+01	-1.650232e+03
3.000000e-07	-6.616056e-06	-2.503958e-08	-4.767293e+01	-1.644316e+03
3.100000e-07	-6.532443e-06	-2.496984e-08	-4.707045e+01	-1.638244e+03
3.200000e-07	-6.446670e-06	-2.486109e-08	-4.645240e+01	-1.632094e+03
3.300000e-07	-6.358646e-06	-2.479046e-08	-4.581814e+01	-1.625909e+03
3.400000e-07	-6.268263e-06	-2.467881e-08	-4.516687e+01	-1.619695e+03
3.500000e-07	-6.175628e-06	-2.457537e-08	-4.449937e+01	-1.613416e+03
3.600000e-07	-6.080809e-06	-2.448169e-08	-4.381614e+01	-1.606995e+03
3.700000e-07	-5.983692e-06	-2.436796e-08	-4.311635e+01	-1.600330e+03
3.800000e-07	-5.884316e-06	-2.424904e-08	-4.240028e+01	-1.593305e+03
3.900000e-07	-5.782861e-06	-2.412500e-08	-4.166923e+01	-1.585808e+03
4.000000e-07	-5.679435e-06	-2.400475e-08	-4.092398e+01	-1.577748e+03
4.100000e-07	-5.573988e-06	-2.385835e-08	-4.016417e+01	-1.569070e+03
4.200000e-07	-5.466570e-06	-2.372922e-08	-3.939015e+01	-1.559760e+03
4.300000e-07	-5.357243e-06	-2.359145e-08	-3.860238e+01	-1.549847e+03
4.400000e-07	-5.245969e-06	-2.344256e-08	-3.780058e+01	-1.539397e+03
4.500000e-07	-5.132714e-06	-2.328041e-08	-3.698451e+01	-1.528497e+03
4.600000e-07	-5.017418e-06	-2.311928e-08	-3.615372e+01	-1.517241e+03
4.700000e-07	-4.900210e-06	-2.294934e-08	-3.530916e+01	-1.505704e+03
4.800000e-07	-4.781248e-06	-2.276784e-08	-3.445197e+01	-1.493933e+03
4.900000e-07	-4.660540e-06	-2.258642e-08	-3.358219e+01	-1.481926e+03
5.000000e-07	-4.538091e-06	-2.239215e-08	-3.269987e+01	-1.469630e+03
5.100000e-07	-4.413946e-06	-2.218525e-08	-3.180532e+01	-1.456942e+03
5.200000e-07	-4.288240e-06	-2.196307e-08	-3.089953e+01	-1.443720e+03
5.300000e-07	-4.161073e-06	-2.174212e-08	-2.998320e+01	-1.429800e+03
5.400000e-07	-4.032385e-06	-2.150675e-08	-2.905593e+01	-1.415017e+03
5.500000e-07	-3.902120e-06	-2.125903e-08	-2.811729e+01	-1.399226e+03
5.600000e-07	-3.770300e-06	-2.099844e-08	-2.716743e+01	-1.382325e+03
5.700000e-07	-3.637002e-06	-2.072752e-08	-2.620694e+01	-1.364261e+03
5.800000e-07	-3.502392e-06	-2.044304e-08	-2.523698e+01	-1.345039e+03
5.900000e-07	-3.366467e-06	-2.014461e-08	-2.425756e+01	-1.324707e+03
6.000000e-07	-3.229182e-06	-1.983300e-08	-2.326833e+01	-1.303347e+03
6.100000e-07	-3.090625e-06	-1.950220e-08	-2.226994e+01	-1.281042e+03
6.200000e-07	-2.950791e-06	-1.915385e-08	-2.126235e+01	-1.257853e+03
6.300000e-07	-2.809581e-06	-1.878440e-08	-2.024483e+01	-1.233783e+03
6.400000e-07	-2.667163e-06	-1.839570e-08	-1.921863e+01	-1.208761e+03
6.500000e-07	-2.523797e-06	-1.798245e-08	-1.818558e+01	-1.182617e+03
6.600000e-07	-2.379553e-06	-1.754649e-08	-1.714621e+01	-1.155088e+03
6.700000e-07	-2.234526e-06	-1.708154e-08	-1.610119e+01	-1.125825e+03
6.800000e-07	-2.088751e-06	-1.658613e-08	-1.505080e+01	-1.094416e+03
6.900000e-07	-1.942256e-06	-1.605874e-08	-1.399520e+01	-1.060425e+03
7.000000e-07	-1.795112e-06	-1.548978e-08	-1.293493e+01	-1.023430e+03
7.100000e-07	-1.647438e-06	-1.487717e-08	-1.187085e+01	-9.830683e+02
7.200000e-07	-1.499332e-06	-1.421710e-08	-1.080365e+01	-9.390746e+02
7.300000e-07	-1.350808e-06	-1.351029e-08	-9.733438e+00	-8.913075e+02
7.400000e-07	-1.201823e-06	-1.275095e-08	-8.659905e+00	-8.397649e+02
7.500000e-07	-1.052404e-06	-1.193361e-08	-7.583248e+00	-7.845816e+02
7.600000e-07	-9.026429e-07	-1.105750e-08	-6.504122e+00	-7.260110e+02
7.700000e-07	-7.525810e-07	-1.012314e-08	-5.422830e+00	-6.643923e+02
7.800000e-07	-6.022531e-07	-9.131163e-09	-4.339621e+00	-6.001089e+02
7.900000e-07	-4.517038e-07	-8.089279e-09	-3.254816e+00	-5.335432e+02
8.000000e-07	-3.009834e-07	-7.009601e-09	-2.168779e+00	-4.650337e+02
8.100000e-07	-1.501124e-07	-5.902573e-09	-1.081657e+00	-3.948427e+02
8.200000e-07	8.123491e-10	-4.779201e-09	5.853497e-03	-3.231368e+02
8.300000e-07	1.517887e-07	-3.649615e-09	1.093735e+00	-2.499868e+02
8.400000e-07	3.027754e-07	-2.521439e-09	2.181691e+00	-1.753839e+02
8.500000e-07	4.536287e-07	-1.391234e-09	3.268687e+00	-9.927365e+01
8.600000e-07	6.043208e-07	-2.540381e-10	4.354520e+00	-2.160089e+01
8.700000e-07	7.548379e-07	9.014645e-10	5.439092e+00	5.763974e+01
8.800000e-07	9.051576e-07	2.088775e-09	6.522243e+00	1.383547e+02
8.900000e-07	1.055230e-06	3.317276e-09	7.603614e+00	2.203120e+02
9.000000e-07	1.204978e-06	4.586780e-09	8.682641e+00	3.031161e+02
9.100000e-07	1.354298e-06	5.883949e-09	9.758587e+00	3.862039e+02
9.200000e-07	1.503164e-06	7.191342e-09	1.083126e+01	4.688608e+02
9.300000e-07	1.651479e-06	8.480041e-09	1.189997e+01	5.502586e+02
9.400000e-07	1.799180e-06	9.721248e-09	1.296425e+01	6.295095e+02
9.500000e-07	1.946263e-06	1.089170e-08	1.402408e+01	7.057311e+02
9.600000e-07	2.092620e-06	1.197856e-08	1.507867e+01	7.781150e+02
9.700000e-07	2.238229e-06	1.297693e-08	1.612788e+01	8.459897e+02
9.800000e-07	2.383010e-06	1.388962e-08	1.717112e+01	9.088729e+02
9.900000e-07	2.526872e-06	1.472678e-08	1.820773e+01	9.665036e+02
1.000000e-06	2.669700e-06	1.549225e-08	1.923690e+01	1.018854e+03
1.010000e-06	2.811480e-06	1.619341e-08	2.025852e+01	1.066118e+03
1.020000e-06	2.952132e-06	1.683681e-08	2.127201e+01	1.108679e+03
1.030000e-06	3.091494e-06	1.743090e-08	2.227620e+01	1.147060e+03
1.040000e-06	3.229661e-06	1.797840e-08	2.327179e+01	1.181865e+03
1.050000e-06	3.366655e-06	1.848274e-08	2.425892e+01	1.213718e+03
1.060000e-06	3.502333e-06	1.894745e-08	2.523656e+01	1.243205e+03
1.070000e-06	3.636683e-06	1.937723e-08	2.620464e+01	1.270827e+03
1.080000e-06	3.769804e-06	1.978142e-08	2.716386e+01	1.296969e+03
1.090000e-06	3.901502e-06	2.016178e-08	2.811283e+01	1.321889e+03
1.100000e-06	4.031815e-06	2.052213e-08	2.905182e+01	1.345719e+03
1.110000e-06	4.160773e-06	2.085986e-08	2.998105e+01	1.368486e+03
1.120000e-06	4.288156e-06	2.117682e-08	3.089892e+01	1.390144e+03
1.130000e-06	4.414110e-06	2.147370e-08	3.180650e+01	1.410611e+03
1.140000e-06	4.538599e-06	2.174917e-08	3.270352e+01	1.429803e+03
1.150000e-06	4.661440e-06	2.200536e-08	3.358867e+01	1.447668e+03
1.160000e-06	4.782681e-06	2.224643e-08	3.446229e+01	1.464203e+03
1.170000e-06	4.902282e-06	2.247709e-08	3.532409e+01	1.479469e+03
1.180000e-06	5.020108e-06	2.269859e-08	3.617311e+01	1.493584e+03
1.190000e-06	5.135981e-06	2.291055e-08	3.700805e+01	1.506713e+03
1.200000e-06	5.249798e-06	2.311191e-08	3.782817e+01	1.519044e+03
1.210000e-06	5.361589e-06	2.330285e-08	3.863370e+01	1.530765e+03
1.220000e-06	5.471502e-06	2.348217e-08	3.942569e+01	1.542040e+03
1.230000e-06	5.579554e-06	2.365041e-08	4.020427e+01	1.552990e+03
1.240000e-06	5.685592e-06	2.380814e-08	4.096835e+01	1.563679e+03
1.250000e-06	5.789486e-06	2.395880e-08	4.171697e+01	1.574116e+03
1.260000e-06	5.891233e-06	2.410455e-08	4.245012e+01	1.584254e+03
1.270000e-06	5.990845e-06	2.424564e-08	4.316789e+01	1.594014e+03
1.280000e-06	6.088186e-06	2.438209e-08	4.386930e+01	1.603298e+03
1.290000e-06	6.183226e-06	2.451047e-08	4.455412e+01	1.612009e+03
1.300000e-06	6.276054e-06	2.463041e-08	4.522301e+01	1.620078e+03
1.310000e-06	6.366720e-06	2.474130e-08	4.587631e+01	1.627470e+03
1.320000e-06	6.455079e-06	2.484482e-08	4.651299e+01	1.634199e+03
1.330000e-06	6.541102e-06	2.494275e-08	4.713284e+01	1.640324e+03
1.340000e-06	6.624854e-06	2.503549e-08	4.773634e+01	1.645939e+03
1.350000e-06	6.706244e-06	2.512239e-08	4.832280e+01	1.651164e+03
1.360000e-06	6.785158e-06	2.520365e-08	4.889143e+01	1.656126e+03
1.370000e-06	6.861569e-06	2.528191e-08	4.944202e+01	1.660939e+03
1.380000e-06	6.935401e-06	2.535756e-08	4.997402e+01	1.665690e+03
1.390000e-06	7.006672e-06	2.543073e-08	5.048758e+01	1.670427e+03
1.400000e-06	7.075479e-06	2.550039e-08	5.098338e+01	1.675155e+03
1.410000e-06	7.141737e-06	2.556589e-08	5.146081e+01	1.679841e+03
1.420000e-06	7.205434e-06	2.562763e-08	5.191979e+01	1.684418e+03
1.430000e-06	7.266672e-06	2.568641e-08	5.236105e+01	1.688803e+03
1.440000e-06	7.325363e-06	2.574168e-08	5.278395e+01	1.692908e+03
1.450000e-06	7.381458e-06	2.579321e-08	5.318815e+01	1.696661e+03
1.460000e-06	7.434865e-06	2.584360e-08	5.357298e+01	1.700013e+03
1.470000e-06	7.485222e-06	2.589240e-08	5.393584e+01	1.702948e+03
1.480000e-06	7.532624e-06	2.593721e-08	5.427740e+01	1.705487e+03
1.490000e-06	7.577465e-06	2.597829e-08	5.460050e+01	1.707679e+03
1.500000e-06	7.619599e-06	2.601509e-08	5.490411e+01	1.709596e+03
1.510000e-06	7.658885e-06	2.604863e-08	5.518719e+01	1.711320e+03
1.520000e-06	7.695524e-06	2.607787e-08	5.545120e+01	1.712926e+03
1.530000e-06	7.729481e-06	2.610224e-08	5.569588e+01	1.714475e+03
1.540000e-06	7.760651e-06	2.612434e-08	5.592048e+01	1.716001e+03
1.550000e-06	7.789081e-06	2.614495e-08	5.612534e+01	1.717507e+03
1.560000e-06	7.814679e-06	2.616270e-08	5.630979e+01	1.718968e+03
1.570000e-06	7.837420e-06	2.617783e-08	5.647365e+01	1.720336e+03
1.580000e-06	7.857484e-06	2.619137e-08	5.661823e+01	1.721549e+03
1.590000e-06	7.874765e-06	2.620250e-08	5.674275e+01	1.722545e+03
1.600000e-06	7.889032e-06	2.621123e-08	5.684555e+01	1.723271e+03
1.610000e-06	7.900213e-06	2.621727e-08	5.692612e+01	1.723695e+03
1.620000e-06	7.908357e-06	2.622094e-08	5.698480e+01	1.723808e+03
1.630000e-06	7.913695e-06	2.622411e-08	5.702326e+01	1.723633e+03
1.640000e-06	7.916226e-06	2.622409e-08	5.704150e+01	1.723214e+03
1.650000e-06	7.915915e-06	2.622031e-08	5.703926e+01	1.722611e+03
1.660000e-06	7.913012e-06	2.620877e-08	5.701834e+01	1.721890e+03
1.670000e-06	7.907470e-06	2.620281e-08	5.697840e+01	1.721111e+03
1.680000e-06	7.899214e-06	2.619700e-08	5.691892e+01	1.720319e+03
1.690000e-06	7.888326e-06	2.618700e-08	5.684046e+01	1.719538e+03
1.700000e-06	7.874616e-06	2.617594e-08	5.674167e+01	1.718763e+03
1.710000e-06	7.858252e-06	2.616522e-08	5.662376e+01	1.717968e+03
1.720000e-06	7.839594e-06	2.615717e-08	5.648932e+01	1.717108e+03
1.730000e-06	7.818562e-06	2.609593e-08	5.633776e+01	1.716130e+03
1.740000e-06	7.794629e-06	2.601749e-08	5.616532e+01	1.714982e+03
1.750000e-06	7.767188e-06	2.604160e-08	5.596759e+01	1.713625e+03
1.760000e-06	7.736164e-06	2.604252e-08	5.574404e+01	1.712039e+03
1.770000e-06	7.702277e-06	2.599483e-08	5.549986e+01	1.710230e+03
1.780000e-06	7.666219e-06	2.599237e-08	5.524004e+01	1.708224e+03
1.790000e-06	7.627964e-06	2.603650e-08	5.496438e+01	1.706068e+03
1.800000e-06	7.587658e-06	2.591024e-08	5.467396e+01	1.703815e+03
1.810000e-06	7.545234e-06	2.589420e-08	5.436826e+01	1.701519e+03
1.820000e-06	7.500117e-06	2.597585e-08	5.404317e+01	1.699217e+03
1.830000e-06	7.452310e-06	2.587313e-08	5.369868e+01	1.696925e+03
1.840000e-06	7.401706e-06	2.592841e-08	5.333405e+01	1.694628e+03
1.850000e-06	7.348117e-06	2.584065e-08	5.294791e+01	1.692280e+03
1.860000e-06	7.291729e-06	2.581048e-08	5.254159e+01	1.689809e+03
1.870000e-06	7.232732e-06	2.580696e-08	5.211649e+01	1.687127e+03
1.880000e-06	7.171204e-06	2.565624e-08	5.167314e+01	1.684139e+03
1.890000e-06	7.106828e-06	2.568587e-08	5.120926e+01	1.680760e+03
1.900000e-06	7.039640e-06	2.559055e-08	5.072513e+01	1.676927e+03
1.910000e-06	6.969777e-06	2.552707e-08	5.022172e+01	1.672608e+03
1.920000e-06	6.897136e-06	2.546587e-08	4.969830e+01	1.667811e+03
1.930000e-06	6.821845e-06	2.537704e-08	4.915578e+01	1.662578e+03
1.940000e-06	6.743863e-06	2.534186e-08	4.859387e+01	1.656983e+03
1.950000e-06	6.663306e-06	2.521157e-08	4.801340e+01	1.651117e+03
1.960000e-06	6.580320e-06	2.515985e-08	4.741544e+01	1.645075e+03
1.970000e-06	6.494809e-06	2.504782e-08	4.679927e+01	1.638936e+03
1.980000e-06	6.406865e-06	2.497050e-08	4.616558e+01	1.632756e+03
1.990000e-06	6.316666e-06	2.488453e-08	4.551564e+01	1.626549e+03
2.000000e-06	6.224290e-06	2.476037e-08	4.485001e+01	1.620290e+03
2.010000e-06	6.129658e-06	2.467310e-08	4.416813e+01	1.613911e+03
2.020000e-06	6.032832e-06	2.454890e-08	4.347043e+01	1.607316e+03
2.030000e-06	5.933916e-06	2.444690e-08	4.275768e+01	1.600389e+03
2.040000e-06	5.832873e-06	2.431351e-08	4.202960e+01	1.593018e+03
2.050000e-06	5.729752e-06	2.420777e-08	4.128655e+01	1.585103e+03
2.060000e-06	5.624637e-06	2.407073e-08	4.052913e+01	1.576581e+03
2.070000e-06	5.517590e-06	2.392781e-08	3.975778e+01	1.567426e+03
2.080000e-06	5.408623e-06	2.378372e-08	3.897261e+01	1.557657e+03
2.090000e-06	5.297687e-06	2.363993e-08	3.817324e+01	1.547331e+03
2.100000e-06	5.184810e-06	2.349426e-08	3.735989e+01	1.536533e+03
2.110000e-06	5.070064e-06	2.332909e-08	3.653307e+01	1.525355e+03
2.120000e-06	4.953338e-06	2.316802e-08	3.569199e+01	1.513881e+03
2.130000e-06	4.834647e-06	2.298303e-08	3.483674e+01	1.502164e+03
2.140000e-06	4.714099e-06	2.279489e-08	3.396811e+01	1.490217e+03
2.150000e-06	4.591868e-06	2.259804e-08	3.308736e+01	1.477999e+03
2.160000e-06	4.467988e-06	2.240815e-08	3.219472e+01	1.465419e+03
2.170000e-06	4.342424e-06	2.219985e-08	3.128996e+01	1.452344e+03
2.180000e-06	4.215245e-06	2.198463e-08	3.037355e+01	1.438612e+03
2.190000e-06	4.086509e-06	2.175855e-08	2.944593e+01	1.424057e+03
2.200000e-06	3.956368e-06	2.151973e-08	2.850817e+01	1.408528e+03
2.210000e-06	3.824768e-06	2.126501e-08	2.755992e+01	1.391909e+03
2.220000e-06	3.691691e-06	2.099987e-08	2.660101e+01	1.374136e+03
2.230000e-06	3.557170e-06	2.072410e-08	2.563170e+01	1.355198e+03
2.240000e-06	3.421278e-06	2.042803e-08	2.465251e+01	1.335135e+03
2.250000e-06	3.284148e-06	2.011942e-08	2.366440e+01	1.314021e+03
2.260000e-06	3.145824e-06	1.979653e-08	2.266768e+01	1.291943e+03
2.270000e-06	3.006275e-06	1.945951e-08	2.166214e+01	1.268970e+03
2.280000e-06	2.865474e-06	1.909884e-08	2.064758e+01	1.245122e+03
2.290000e-06	2.723523e-06	1.871991e-08	1.962474e+01	1.220348e+03
2.300000e-06	2.580549e-06	1.831805e-08	1.859452e+01	1.194504e+03
2.310000e-06	2.436639e-06	1.789177e-08	1.755755e+01	1.167349e+03
2.320000e-06	2.291904e-06	1.743462e-08	1.651464e+01	1.138554e+03
2.330000e-06	2.146408e-06	1.694387e-08	1.546625e+01	1.107720e+03
2.340000e-06	2.000212e-06	1.641973e-08	1.441282e+01	1.074413e+03
2.350000e-06	1.853436e-06	1.586010e-08	1.335520e+01	1.038204e+03
2.360000e-06	1.706126e-06	1.526279e-08	1.229373e+01	9.987110e+02
2.370000e-06	1.558231e-06	1.462119e-08	1.122806e+01	9.556419e+02
2.380000e-06	1.409747e-06	1.393093e-08	1.015813e+01	9.088218e+02
2.390000e-06	1.260759e-06	1.318718e-08	9.084578e+00	8.582135e+02
2.400000e-06	1.111351e-06	1.238483e-08	8.007997e+00	8.039188e+02
2.410000e-06	9.615298e-07	1.152346e-08	6.928441e+00	7.461638e+02
2.420000e-06	8.113758e-07	1.060424e-08	5.846484e+00	6.852701e+02
2.430000e-06	6.610402e-07	9.627325e-09	4.763219e+00	6.216142e+02
2.440000e-06	5.105399e-07	8.596354e-09	3.678768e+00	5.555828e+02
2.450000e-06	3.598386e-07	7.521573e-09	2.592869e+00	4.875293e+02
2.460000e-06	2.089644e-07	6.416565e-09	1.505723e+00	4.177370e+02
2.470000e-06	5.795258e-08	5.291174e-09	4.175856e-01	3.463976e+02
2.480000e-06	-9.310099e-08	4.157920e-09	-6.708525e-01	2.736047e+02
2.490000e-06	-2.440916e-07	3.026480e-09	-1.758837e+00	1.993670e+02
2.500000e-06	-3.949759e-07	1.894848e-09	-2.846055e+00	1.236375e+02
2.510000e-06	-5.457381e-07	7.556378e-10	-3.932394e+00	4.635668e+01
2.520000e-06	-6.963571e-07	-4.027291e-10	-5.017701e+00	-3.249816e+01
2.530000e-06	-8.467725e-07	-1.588374e-09	-6.101540e+00	-1.128624e+02
2.540000e-06	-9.969542e-07	-2.809622e-09	-7.183696e+00	-1.945416e+02
2.550000e-06	-1.146788e-06	-4.070266e-09	-8.263348e+00	-2.771824e+02
2.560000e-06	-1.296206e-06	-5.363097e-09	-9.340000e+00	-3.602629e+02
2.570000e-06	-1.445221e-06	-6.671730e-09	-1.041375e+01	-4.431036e+02
2.580000e-06	-1.593739e-06	-7.972992e-09	-1.148391e+01	-5.249002e+02
2.590000e-06	-1.741599e-06	-9.240649e-09	-1.254934e+01	-6.047740e+02
2.600000e-06	-1.888715e-06	-1.044768e-08	-1.360940e+01	-6.818348e+02
2.610000e-06	-2.035198e-06	-1.157671e-08	-1.466491e+01	-7.552494e+02
2.620000e-06	-2.181023e-06	-1.261821e-08	-1.571567e+01	-8.243069e+02
2.630000e-06	-2.325951e-06	-1.356994e-08	-1.675997e+01	-8.884734e+02
2.640000e-06	-2.469855e-06	-1.443816e-08	-1.779689e+01	-9.474310e+02
2.650000e-06	-2.612766e-06	-1.523190e-08	-1.882666e+01	-1.001094e+03
2.660000e-06	-2.754686e-06	-1.595929e-08	-1.984929e+01	-1.049602e+03
2.670000e-06	-2.895505e-06	-1.662530e-08	-2.086397e+01	-1.093297e+03
2.680000e-06	-3.035123e-06	-1.723719e-08	-2.187001e+01	-1.132670e+03
2.690000e-06	-3.173541e-06	-1.780164e-08	-2.286740e+01	-1.168312e+03
2.700000e-06	-3.310754e-06	-1.832280e-08	-2.385611e+01	-1.200848e+03
2.710000e-06	-3.446678e-06	-1.880513e-08	-2.483553e+01	-1.230877e+03
2.720000e-06	-3.581390e-06	-1.925454e-08	-2.580622e+01	-1.258926e+03
2.730000e-06	-3.714888e-06	-1.967482e-08	-2.676816e+01	-1.285412e+03
2.740000e-06	-3.846985e-06	-2.006873e-08	-2.772000e+01	-1.310622e+03
2.750000e-06	-3.977698e-06	-2.043644e-08	-2.866188e+01	-1.334720e+03
2.760000e-06	-4.107123e-06	-2.077600e-08	-2.959446e+01	-1.357757e+03
2.770000e-06	-4.235116e-06	-2.109297e-08	-3.051673e+01	-1.379702e+03
2.780000e-06	-4.361609e-06	-2.139344e-08	-3.142820e+01	-1.400477e+03
2.790000e-06	-4.486628e-06	-2.167901e-08	-3.232904e+01	-1.419996e+03
2.800000e-06	-4.610017e-06	-2.194752e-08	-3.321814e+01	-1.438197e+03
2.810000e-06	-4.731726e-06	-2.220234e-08	-3.409513e+01	-1.455064e+03
2.820000e-06	-4.851718e-06	-2.244597e-08	-3.495975e+01	-1.470640e+03
2.830000e-06	-4.969821e-06	-2.267787e-08	-3.581076e+01	-1.485031e+03
2.840000e-06	-5.085957e-06	-2.289747e-08	-3.664759e+01	-1.498391e+03
2.850000e-06	-5.200064e-06	-2.310261e-08	-3.746980e+01	-1.510906e+03
2.860000e-06	-5.312084e-06	-2.329549e-08	-3.827698e+01	-1.522764e+03
2.870000e-06	-5.422117e-06	-2.347718e-08	-3.906984e+01	-1.534140e+03
2.880000e-06	-5.530254e-06	-2.364825e-08	-3.984903e+01	-1.545165e+03
2.890000e-06	-5.636517e-06	-2.381158e-08	-4.061473e+01	-1.555919e+03
2.900000e-06	-5.740759e-06	-2.396806e-08	-4.136586e+01	-1.566422e+03
2.910000e-06	-5.842805e-06	-2.411861e-08	-4.210117e+01	-1.576644e+03
2.920000e-06	-5.942663e-06	-2.426367e-08	-4.282071e+01	-1.586510e+03
2.930000e-06	-6.040437e-06	-2.440078e-08	-4.352523e+01	-1.595924e+03
2.940000e-06	-6.136056e-06	-2.452914e-08	-4.421423e+01	-1.604788e+03
