# Temperatura_=_43.31
# Concentracion g/m^3_=_28370.0
# C_Vs_to_Am_M_A/Vsm_=_65563218390.804596
# pendiente_HvsI_1/m_=_3716.3
# ordenada_HvsI_A/m_=_1297.0
# frecuencia_Hz_=_302550.91281341173

Tiempo_(s)	Campo_(V.s)	Magnetizacion_(V.s)	Campo_(kA/m)	Magnetizacion_(A/m)
0.000000e+00	-7.902937e-06	-2.463161e-08	-5.683938e+01	-1.611790e+03
1.000000e-08	-7.899568e-06	-2.462788e-08	-5.681515e+01	-1.611104e+03
2.000000e-08	-7.893613e-06	-2.461921e-08	-5.677232e+01	-1.610372e+03
3.000000e-08	-7.885054e-06	-2.461008e-08	-5.671076e+01	-1.609640e+03
4.000000e-08	-7.873711e-06	-2.460044e-08	-5.662919e+01	-1.608932e+03
5.000000e-08	-7.859495e-06	-2.458720e-08	-5.652694e+01	-1.608245e+03
6.000000e-08	-7.842457e-06	-2.456981e-08	-5.640440e+01	-1.607553e+03
7.000000e-08	-7.823042e-06	-2.455318e-08	-5.626476e+01	-1.606810e+03
8.000000e-08	-7.801347e-06	-2.454291e-08	-5.610873e+01	-1.605961e+03
9.000000e-08	-7.776875e-06	-2.454578e-08	-5.593272e+01	-1.604952e+03
1.000000e-07	-7.749281e-06	-2.452294e-08	-5.573426e+01	-1.603736e+03
1.100000e-07	-7.718638e-06	-2.447367e-08	-5.551387e+01	-1.602289e+03
1.200000e-07	-7.685115e-06	-2.443645e-08	-5.527277e+01	-1.600608e+03
1.300000e-07	-7.648881e-06	-2.440727e-08	-5.501216e+01	-1.598716e+03
1.400000e-07	-7.610310e-06	-2.436554e-08	-5.473475e+01	-1.596655e+03
1.500000e-07	-7.569588e-06	-2.431209e-08	-5.444188e+01	-1.594476e+03
1.600000e-07	-7.526561e-06	-2.430329e-08	-5.413242e+01	-1.592234e+03
1.700000e-07	-7.480924e-06	-2.429117e-08	-5.380419e+01	-1.589971e+03
1.800000e-07	-7.432510e-06	-2.421032e-08	-5.345599e+01	-1.587712e+03
1.900000e-07	-7.381211e-06	-2.418916e-08	-5.308703e+01	-1.585451e+03
2.000000e-07	-7.326981e-06	-2.416149e-08	-5.269700e+01	-1.583156e+03
2.100000e-07	-7.270003e-06	-2.409986e-08	-5.228720e+01	-1.580768e+03
2.200000e-07	-7.210410e-06	-2.404957e-08	-5.185860e+01	-1.578210e+03
2.300000e-07	-7.148218e-06	-2.398798e-08	-5.141130e+01	-1.575397e+03
2.400000e-07	-7.083366e-06	-2.395493e-08	-5.094487e+01	-1.572251e+03
2.500000e-07	-7.015852e-06	-2.388876e-08	-5.045931e+01	-1.568710e+03
2.600000e-07	-6.945649e-06	-2.382240e-08	-4.995439e+01	-1.564743e+03
2.700000e-07	-6.872635e-06	-2.375789e-08	-4.942926e+01	-1.560351e+03
2.800000e-07	-6.796923e-06	-2.368484e-08	-4.888472e+01	-1.555567e+03
2.900000e-07	-6.718494e-06	-2.360701e-08	-4.832065e+01	-1.550456e+03
3.000000e-07	-6.637359e-06	-2.353574e-08	-4.773711e+01	-1.545096e+03
3.100000e-07	-6.553867e-06	-2.347474e-08	-4.713662e+01	-1.539574e+03
3.200000e-07	-6.468136e-06	-2.339108e-08	-4.652003e+01	-1.533961e+03
3.300000e-07	-6.380100e-06	-2.330903e-08	-4.588686e+01	-1.528306e+03
3.400000e-07	-6.289738e-06	-2.321710e-08	-4.523696e+01	-1.522625e+03
3.500000e-07	-6.197120e-06	-2.311503e-08	-4.457083e+01	-1.516892e+03
3.600000e-07	-6.102302e-06	-2.302561e-08	-4.388888e+01	-1.511046e+03
3.700000e-07	-6.005206e-06	-2.292980e-08	-4.319055e+01	-1.504997e+03
3.800000e-07	-5.905878e-06	-2.282043e-08	-4.247617e+01	-1.498638e+03
3.900000e-07	-5.804510e-06	-2.270784e-08	-4.174711e+01	-1.491861e+03
4.000000e-07	-5.701089e-06	-2.259262e-08	-4.100329e+01	-1.484575e+03
4.100000e-07	-5.595629e-06	-2.246787e-08	-4.024480e+01	-1.476718e+03
4.200000e-07	-5.488213e-06	-2.234258e-08	-3.947224e+01	-1.468264e+03
4.300000e-07	-5.378829e-06	-2.221756e-08	-3.868553e+01	-1.459231e+03
4.400000e-07	-5.267411e-06	-2.208148e-08	-3.788419e+01	-1.449672e+03
4.500000e-07	-5.154020e-06	-2.193572e-08	-3.706866e+01	-1.439662e+03
4.600000e-07	-5.038764e-06	-2.178637e-08	-3.623972e+01	-1.429290e+03
4.700000e-07	-4.921630e-06	-2.162892e-08	-3.539727e+01	-1.418632e+03
4.800000e-07	-4.802648e-06	-2.146331e-08	-3.454153e+01	-1.407740e+03
4.900000e-07	-4.681900e-06	-2.129369e-08	-3.367309e+01	-1.396623e+03
5.000000e-07	-4.559457e-06	-2.111684e-08	-3.279245e+01	-1.385243e+03
5.100000e-07	-4.435340e-06	-2.092535e-08	-3.189978e+01	-1.373513e+03
5.200000e-07	-4.309616e-06	-2.071959e-08	-3.099556e+01	-1.361305e+03
5.300000e-07	-4.182309e-06	-2.051017e-08	-3.007994e+01	-1.348465e+03
5.400000e-07	-4.053450e-06	-2.029331e-08	-2.915316e+01	-1.334835e+03
5.500000e-07	-3.923095e-06	-2.006242e-08	-2.821562e+01	-1.320269e+03
5.600000e-07	-3.791243e-06	-1.982069e-08	-2.726732e+01	-1.304658e+03
5.700000e-07	-3.657982e-06	-1.957121e-08	-2.630888e+01	-1.287938e+03
5.800000e-07	-3.523321e-06	-1.930730e-08	-2.534038e+01	-1.270098e+03
5.900000e-07	-3.387229e-06	-1.902747e-08	-2.436157e+01	-1.251176e+03
6.000000e-07	-3.249836e-06	-1.873419e-08	-2.337342e+01	-1.231241e+03
6.100000e-07	-3.111211e-06	-1.842684e-08	-2.237641e+01	-1.210375e+03
6.200000e-07	-2.971236e-06	-1.810119e-08	-2.136967e+01	-1.188640e+03
6.300000e-07	-2.829909e-06	-1.775515e-08	-2.035323e+01	-1.166054e+03
6.400000e-07	-2.687467e-06	-1.738875e-08	-1.932876e+01	-1.142564e+03
6.500000e-07	-2.544052e-06	-1.700098e-08	-1.829729e+01	-1.118029e+03
6.600000e-07	-2.399713e-06	-1.659016e-08	-1.725918e+01	-1.092215e+03
6.700000e-07	-2.254596e-06	-1.615236e-08	-1.621547e+01	-1.064800e+03
6.800000e-07	-2.108723e-06	-1.568845e-08	-1.516632e+01	-1.035400e+03
6.900000e-07	-1.962091e-06	-1.519303e-08	-1.411172e+01	-1.003598e+03
7.000000e-07	-1.814768e-06	-1.465978e-08	-1.305214e+01	-9.689827e+02
7.100000e-07	-1.666853e-06	-1.408627e-08	-1.198832e+01	-9.311952e+02
7.200000e-07	-1.518479e-06	-1.346828e-08	-1.092118e+01	-8.899647e+02
7.300000e-07	-1.369695e-06	-1.280305e-08	-9.851096e+00	-8.451414e+02
7.400000e-07	-1.220492e-06	-1.208665e-08	-8.778007e+00	-7.967135e+02
7.500000e-07	-1.070834e-06	-1.131749e-08	-7.701638e+00	-7.448092e+02
7.600000e-07	-9.207461e-07	-1.049420e-08	-6.622176e+00	-6.896821e+02
7.700000e-07	-7.703184e-07	-9.616576e-09	-5.540272e+00	-6.316817e+02
7.800000e-07	-6.196363e-07	-8.685697e-09	-4.456538e+00	-5.712123e+02
7.900000e-07	-4.687400e-07	-7.707829e-09	-3.371264e+00	-5.086870e+02
8.000000e-07	-3.176572e-07	-6.696549e-09	-2.284649e+00	-4.444826e+02
8.100000e-07	-1.664271e-07	-5.663405e-09	-1.196974e+00	-3.789008e+02
8.200000e-07	-1.507957e-08	-4.618832e-09	-1.084551e-01	-3.121440e+02
8.300000e-07	1.363295e-07	-3.572746e-09	9.805069e-01	-2.443064e+02
8.400000e-07	2.877114e-07	-2.528859e-09	2.069274e+00	-1.753845e+02
8.500000e-07	4.390008e-07	-1.484503e-09	3.157375e+00	-1.053047e+02
8.600000e-07	5.901433e-07	-4.355519e-10	4.244419e+00	-3.396477e+01
8.700000e-07	7.411000e-07	6.278321e-10	5.330128e+00	3.871620e+01
8.800000e-07	8.918470e-07	1.715897e-09	6.414328e+00	1.127466e+02
8.900000e-07	1.042326e-06	2.840217e-09	7.496599e+00	1.880171e+02
9.000000e-07	1.192410e-06	4.004303e-09	8.576031e+00	2.642677e+02
9.100000e-07	1.341978e-06	5.196512e-09	9.651752e+00	3.410731e+02
9.200000e-07	1.491066e-06	6.403655e-09	1.072402e+01	4.178487e+02
9.300000e-07	1.639698e-06	7.605186e-09	1.179301e+01	4.938773e+02
9.400000e-07	1.787755e-06	8.774993e-09	1.285786e+01	5.683545e+02
9.500000e-07	1.935145e-06	9.887728e-09	1.391792e+01	6.404470e+02
9.600000e-07	2.081827e-06	1.092875e-08	1.497288e+01	7.093581e+02
9.700000e-07	2.227807e-06	1.189197e-08	1.602280e+01	7.743916e+02
9.800000e-07	2.372945e-06	1.277643e-08	1.706666e+01	8.350069e+02
9.900000e-07	2.517107e-06	1.358938e-08	1.810350e+01	8.908594e+02
1.000000e-06	2.660349e-06	1.433573e-08	1.913372e+01	9.418207e+02
1.010000e-06	2.802573e-06	1.501924e-08	2.015663e+01	9.879773e+02
1.020000e-06	2.943675e-06	1.564508e-08	2.117145e+01	1.029608e+03
1.030000e-06	3.083553e-06	1.622013e-08	2.217748e+01	1.067146e+03
1.040000e-06	3.222194e-06	1.674941e-08	2.317462e+01	1.101123e+03
1.050000e-06	3.359650e-06	1.723834e-08	2.416322e+01	1.132115e+03
1.060000e-06	3.495798e-06	1.769002e-08	2.514242e+01	1.160683e+03
1.070000e-06	3.630614e-06	1.810873e-08	2.611205e+01	1.187326e+03
1.080000e-06	3.764094e-06	1.849903e-08	2.707206e+01	1.212446e+03
1.090000e-06	3.896176e-06	1.886483e-08	2.802202e+01	1.236327e+03
1.100000e-06	4.026898e-06	1.921069e-08	2.896219e+01	1.259135e+03
1.110000e-06	4.156181e-06	1.953503e-08	2.989202e+01	1.280930e+03
1.120000e-06	4.283939e-06	1.983802e-08	3.081088e+01	1.301692e+03
1.130000e-06	4.410224e-06	2.012060e-08	3.171915e+01	1.321352e+03
1.140000e-06	4.535054e-06	2.038450e-08	3.261694e+01	1.339831e+03
1.150000e-06	4.658378e-06	2.063330e-08	3.350392e+01	1.357068e+03
1.160000e-06	4.780093e-06	2.086950e-08	3.437931e+01	1.373041e+03
1.170000e-06	4.900092e-06	2.109258e-08	3.524237e+01	1.387788e+03
1.180000e-06	5.018269e-06	2.130280e-08	3.609231e+01	1.401400e+03
1.190000e-06	5.134537e-06	2.150252e-08	3.692854e+01	1.414018e+03
1.200000e-06	5.248854e-06	2.169396e-08	3.775073e+01	1.425813e+03
1.210000e-06	5.361163e-06	2.187609e-08	3.855847e+01	1.436961e+03
1.220000e-06	5.471473e-06	2.204762e-08	3.935184e+01	1.447626e+03
1.230000e-06	5.579847e-06	2.221016e-08	4.013129e+01	1.457935e+03
1.240000e-06	5.686271e-06	2.236372e-08	4.089671e+01	1.467969e+03
1.250000e-06	5.790610e-06	2.250774e-08	4.164713e+01	1.477751e+03
1.260000e-06	5.892780e-06	2.264284e-08	4.238196e+01	1.487257e+03
1.270000e-06	5.992807e-06	2.277269e-08	4.310137e+01	1.496421e+03
1.280000e-06	6.090569e-06	2.289842e-08	4.380450e+01	1.505159e+03
1.290000e-06	6.186041e-06	2.301912e-08	4.449115e+01	1.513380e+03
1.300000e-06	6.279313e-06	2.313485e-08	4.516198e+01	1.521014e+03
1.310000e-06	6.370364e-06	2.324203e-08	4.581683e+01	1.528020e+03
1.320000e-06	6.459086e-06	2.334014e-08	4.645494e+01	1.534400e+03
1.330000e-06	6.545479e-06	2.342845e-08	4.707629e+01	1.540199e+03
1.340000e-06	6.629612e-06	2.351192e-08	4.768139e+01	1.545500e+03
1.350000e-06	6.711432e-06	2.359226e-08	4.826985e+01	1.550413e+03
1.360000e-06	6.790788e-06	2.366839e-08	4.884060e+01	1.555055e+03
1.370000e-06	6.867581e-06	2.374272e-08	4.939291e+01	1.559540e+03
1.380000e-06	6.941772e-06	2.381414e-08	4.992651e+01	1.563955e+03
1.390000e-06	7.013383e-06	2.388382e-08	5.044154e+01	1.568355e+03
1.400000e-06	7.082527e-06	2.394916e-08	5.093884e+01	1.572755e+03
1.410000e-06	7.149188e-06	2.401140e-08	5.141828e+01	1.577128e+03
1.420000e-06	7.213279e-06	2.407025e-08	5.187923e+01	1.581416e+03
1.430000e-06	7.274832e-06	2.412370e-08	5.232193e+01	1.585539e+03
1.440000e-06	7.333900e-06	2.417440e-08	5.274676e+01	1.589411e+03
1.450000e-06	7.390334e-06	2.422315e-08	5.315264e+01	1.592957e+03
1.460000e-06	7.444029e-06	2.427003e-08	5.353883e+01	1.596121e+03
1.470000e-06	7.494804e-06	2.431420e-08	5.390401e+01	1.598881e+03
1.480000e-06	7.542583e-06	2.435562e-08	5.424765e+01	1.601248e+03
1.490000e-06	7.587675e-06	2.439437e-08	5.457196e+01	1.603265e+03
1.500000e-06	7.630176e-06	2.442860e-08	5.487763e+01	1.604999e+03
1.510000e-06	7.669840e-06	2.445784e-08	5.516290e+01	1.606530e+03
1.520000e-06	7.706745e-06	2.448331e-08	5.542833e+01	1.607939e+03
1.530000e-06	7.741025e-06	2.450703e-08	5.567488e+01	1.609290e+03
1.540000e-06	7.772515e-06	2.452775e-08	5.590136e+01	1.610627e+03
1.550000e-06	7.801247e-06	2.454590e-08	5.610801e+01	1.611963e+03
1.560000e-06	7.827189e-06	2.456242e-08	5.629459e+01	1.613282e+03
1.570000e-06	7.850232e-06	2.457600e-08	5.646031e+01	1.614543e+03
1.580000e-06	7.870540e-06	2.458723e-08	5.660638e+01	1.615688e+03
1.590000e-06	7.888071e-06	2.459704e-08	5.673246e+01	1.616653e+03
1.600000e-06	7.902669e-06	2.460609e-08	5.683746e+01	1.617383e+03
1.610000e-06	7.914285e-06	2.461266e-08	5.692100e+01	1.617837e+03
1.620000e-06	7.922768e-06	2.461606e-08	5.698201e+01	1.618000e+03
1.630000e-06	7.928277e-06	2.461673e-08	5.702163e+01	1.617884e+03
1.640000e-06	7.931040e-06	2.461463e-08	5.704150e+01	1.617526e+03
1.650000e-06	7.931036e-06	2.461199e-08	5.704147e+01	1.616981e+03
1.660000e-06	7.928380e-06	2.460849e-08	5.702237e+01	1.616313e+03
1.670000e-06	7.923137e-06	2.460435e-08	5.698466e+01	1.615586e+03
1.680000e-06	7.915166e-06	2.459897e-08	5.692734e+01	1.614849e+03
1.690000e-06	7.904534e-06	2.459003e-08	5.685087e+01	1.614132e+03
1.700000e-06	7.891148e-06	2.457888e-08	5.675459e+01	1.613440e+03
1.710000e-06	7.875017e-06	2.456660e-08	5.663858e+01	1.612751e+03
1.720000e-06	7.856536e-06	2.455051e-08	5.650566e+01	1.612024e+03
1.730000e-06	7.835773e-06	2.451816e-08	5.635633e+01	1.611205e+03
1.740000e-06	7.812184e-06	2.446704e-08	5.618667e+01	1.610238e+03
1.750000e-06	7.785074e-06	2.445657e-08	5.599169e+01	1.609076e+03
1.760000e-06	7.754360e-06	2.445641e-08	5.577079e+01	1.607686e+03
1.770000e-06	7.720697e-06	2.443171e-08	5.552868e+01	1.606061e+03
1.780000e-06	7.684764e-06	2.441102e-08	5.527024e+01	1.604216e+03
1.790000e-06	7.646591e-06	2.441337e-08	5.499570e+01	1.602190e+03
1.800000e-06	7.606340e-06	2.437970e-08	5.470620e+01	1.600034e+03
1.810000e-06	7.564046e-06	2.433066e-08	5.440202e+01	1.597801e+03
1.820000e-06	7.519076e-06	2.436742e-08	5.407858e+01	1.595538e+03
1.830000e-06	7.471428e-06	2.433110e-08	5.373589e+01	1.593276e+03
1.840000e-06	7.421064e-06	2.429467e-08	5.337366e+01	1.591015e+03
1.850000e-06	7.367630e-06	2.426610e-08	5.298935e+01	1.588732e+03
1.860000e-06	7.311454e-06	2.421290e-08	5.258532e+01	1.586372e+03
1.870000e-06	7.252664e-06	2.419750e-08	5.216250e+01	1.583862e+03
1.880000e-06	7.191173e-06	2.410174e-08	5.172025e+01	1.581119e+03
1.890000e-06	7.126898e-06	2.405202e-08	5.125797e+01	1.578061e+03
1.900000e-06	7.059831e-06	2.401789e-08	5.077561e+01	1.574621e+03
1.910000e-06	6.990070e-06	2.394478e-08	5.027387e+01	1.570760e+03
1.920000e-06	6.917584e-06	2.389791e-08	4.975254e+01	1.566470e+03
1.930000e-06	6.842448e-06	2.383967e-08	4.921215e+01	1.561777e+03
1.940000e-06	6.764590e-06	2.378350e-08	4.865218e+01	1.556739e+03
1.950000e-06	6.684130e-06	2.368731e-08	4.807349e+01	1.551432e+03
1.960000e-06	6.601204e-06	2.360262e-08	4.747708e+01	1.545940e+03
1.970000e-06	6.515767e-06	2.352622e-08	4.686260e+01	1.540342e+03
1.980000e-06	6.427943e-06	2.344435e-08	4.623095e+01	1.534694e+03
1.990000e-06	6.337858e-06	2.337510e-08	4.558304e+01	1.529018e+03
2.000000e-06	6.245602e-06	2.327576e-08	4.491952e+01	1.523300e+03
2.010000e-06	6.151124e-06	2.317945e-08	4.424002e+01	1.517488e+03
2.020000e-06	6.054440e-06	2.307327e-08	4.354465e+01	1.511498e+03
2.030000e-06	5.955592e-06	2.296885e-08	4.283372e+01	1.505224e+03
2.040000e-06	5.854558e-06	2.286215e-08	4.210706e+01	1.498560e+03
2.050000e-06	5.751430e-06	2.275772e-08	4.136535e+01	1.491406e+03
2.060000e-06	5.646307e-06	2.264324e-08	4.060928e+01	1.483694e+03
2.070000e-06	5.539266e-06	2.251158e-08	3.983942e+01	1.475388e+03
2.080000e-06	5.430254e-06	2.237680e-08	3.905539e+01	1.466494e+03
2.090000e-06	5.319218e-06	2.224067e-08	3.825680e+01	1.457058e+03
2.100000e-06	5.206246e-06	2.210533e-08	3.744428e+01	1.447151e+03
2.110000e-06	5.091390e-06	2.195792e-08	3.661822e+01	1.436859e+03
2.120000e-06	4.974567e-06	2.180608e-08	3.577801e+01	1.426265e+03
2.130000e-06	4.855824e-06	2.164153e-08	3.492398e+01	1.415427e+03
2.140000e-06	4.735283e-06	2.146548e-08	3.405703e+01	1.404366e+03
2.150000e-06	4.613024e-06	2.128505e-08	3.317772e+01	1.393056e+03
2.160000e-06	4.489029e-06	2.110638e-08	3.228593e+01	1.381422e+03
2.170000e-06	4.363311e-06	2.091826e-08	3.138174e+01	1.369345e+03
2.180000e-06	4.236005e-06	2.071871e-08	3.046613e+01	1.356677e+03
2.190000e-06	4.107169e-06	2.051224e-08	2.953952e+01	1.343257e+03
2.200000e-06	3.976884e-06	2.029263e-08	2.860249e+01	1.328935e+03
2.210000e-06	3.845068e-06	2.005616e-08	2.765444e+01	1.313591e+03
2.220000e-06	3.711769e-06	1.980977e-08	2.669573e+01	1.297149e+03
2.230000e-06	3.577155e-06	1.955414e-08	2.572756e+01	1.279586e+03
2.240000e-06	3.441232e-06	1.928156e-08	2.474997e+01	1.260927e+03
2.250000e-06	3.303993e-06	1.899374e-08	2.376293e+01	1.241236e+03
2.260000e-06	3.165487e-06	1.869379e-08	2.276677e+01	1.220593e+03
2.270000e-06	3.025661e-06	1.837666e-08	2.176111e+01	1.199070e+03
2.280000e-06	2.884631e-06	1.803818e-08	2.074680e+01	1.176697e+03
2.290000e-06	2.742598e-06	1.768366e-08	1.972527e+01	1.153441e+03
2.300000e-06	2.599541e-06	1.731112e-08	1.869638e+01	1.129183e+03
2.310000e-06	2.455497e-06	1.691397e-08	1.766038e+01	1.103714e+03
2.320000e-06	2.310621e-06	1.648832e-08	1.661841e+01	1.076731e+03
2.330000e-06	2.165022e-06	1.603217e-08	1.557124e+01	1.047864e+03
2.340000e-06	2.018731e-06	1.554219e-08	1.451909e+01	1.016700e+03
2.350000e-06	1.871787e-06	1.501564e-08	1.346223e+01	9.828227e+02
2.360000e-06	1.724151e-06	1.445226e-08	1.240042e+01	9.458558e+02
2.370000e-06	1.575848e-06	1.384932e-08	1.133379e+01	9.055034e+02
2.380000e-06	1.426997e-06	1.320017e-08	1.026323e+01	8.615831e+02
2.390000e-06	1.277697e-06	1.249921e-08	9.189430e+00	8.140477e+02
2.400000e-06	1.128043e-06	1.174366e-08	8.113093e+00	7.629914e+02
2.410000e-06	9.781245e-07	1.093446e-08	7.034852e+00	7.086385e+02
2.420000e-06	8.278908e-07	1.007173e-08	5.954343e+00	6.513180e+02
2.430000e-06	6.773981e-07	9.157439e-09	4.871972e+00	5.914247e+02
2.440000e-06	5.267217e-07	8.194553e-09	3.788280e+00	5.293741e+02
2.450000e-06	3.757715e-07	7.189048e-09	2.702618e+00	4.655558e+02
2.460000e-06	2.245794e-07	6.153710e-09	1.615217e+00	4.002933e+02
2.470000e-06	7.328407e-08	5.102615e-09	5.270725e-01	3.338153e+02
2.480000e-06	-7.804165e-08	4.048789e-09	-5.612900e-01	2.662429e+02
2.490000e-06	-2.293561e-07	2.998521e-09	-1.649571e+00	1.975950e+02
2.500000e-06	-3.805744e-07	1.949587e-09	-2.737161e+00	1.278120e+02
2.510000e-06	-5.316265e-07	8.970433e-10	-3.823556e+00	5.679459e+01
2.520000e-06	-6.824722e-07	-1.677242e-10	-4.908466e+00	-1.554854e+01
2.530000e-06	-8.331203e-07	-1.253158e-09	-5.991955e+00	-8.924847e+01
2.540000e-06	-9.834923e-07	-2.368757e-09	-7.073458e+00	-1.642289e+02
2.550000e-06	-1.133506e-06	-3.522919e-09	-8.152384e+00	-2.402697e+02
2.560000e-06	-1.283199e-06	-4.711074e-09	-9.229005e+00	-3.169872e+02
2.570000e-06	-1.432498e-06	-5.920437e-09	-1.030279e+01	-3.938348e+02
2.580000e-06	-1.581252e-06	-7.132291e-09	-1.137266e+01	-4.701250e+02
2.590000e-06	-1.729411e-06	-8.321548e-09	-1.243825e+01	-5.450700e+02
2.600000e-06	-1.876981e-06	-9.463141e-09	-1.349959e+01	-6.178378e+02
2.610000e-06	-2.023860e-06	-1.053964e-08	-1.455598e+01	-6.876164e+02
2.620000e-06	-2.169905e-06	-1.154046e-08	-1.560636e+01	-7.536787e+02
2.630000e-06	-2.315140e-06	-1.246042e-08	-1.665091e+01	-8.154410e+02
2.640000e-06	-2.459518e-06	-1.330258e-08	-1.768931e+01	-8.725067e+02
2.650000e-06	-2.602877e-06	-1.407426e-08	-1.872037e+01	-9.246927e+02
2.660000e-06	-2.745195e-06	-1.478185e-08	-1.974395e+01	-9.720331e+02
2.670000e-06	-2.886455e-06	-1.542985e-08	-2.075992e+01	-1.014762e+03
2.680000e-06	-3.026550e-06	-1.602502e-08	-2.176750e+01	-1.053278e+03
2.690000e-06	-3.165377e-06	-1.657308e-08	-2.276597e+01	-1.088094e+03
2.700000e-06	-3.302949e-06	-1.707756e-08	-2.375542e+01	-1.119780e+03
2.710000e-06	-3.439339e-06	-1.754292e-08	-2.473636e+01	-1.148906e+03
2.720000e-06	-3.574483e-06	-1.797547e-08	-2.570834e+01	-1.175990e+03
2.730000e-06	-3.708287e-06	-1.837994e-08	-2.667069e+01	-1.201461e+03
2.740000e-06	-3.840768e-06	-1.875913e-08	-2.762352e+01	-1.225634e+03
2.750000e-06	-3.971889e-06	-1.911305e-08	-2.856656e+01	-1.248702e+03
2.760000e-06	-4.101638e-06	-1.944261e-08	-2.949973e+01	-1.270752e+03
2.770000e-06	-4.229969e-06	-1.975273e-08	-3.042272e+01	-1.291779e+03
2.780000e-06	-4.356805e-06	-2.004408e-08	-3.133494e+01	-1.311724e+03
2.790000e-06	-4.482144e-06	-2.031763e-08	-3.223641e+01	-1.330508e+03
2.800000e-06	-4.605935e-06	-2.057466e-08	-3.312673e+01	-1.348060e+03
2.810000e-06	-4.728091e-06	-2.081769e-08	-3.400530e+01	-1.364350e+03
2.820000e-06	-4.848535e-06	-2.104993e-08	-3.487155e+01	-1.379399e+03
2.830000e-06	-4.967116e-06	-2.127090e-08	-3.572442e+01	-1.393286e+03
2.840000e-06	-5.083702e-06	-2.147962e-08	-3.656292e+01	-1.406139e+03
2.850000e-06	-5.198271e-06	-2.167657e-08	-3.738692e+01	-1.418124e+03
2.860000e-06	-5.310784e-06	-2.186064e-08	-3.819614e+01	-1.429419e+03
2.870000e-06	-5.421257e-06	-2.203222e-08	-3.899068e+01	-1.440193e+03
2.880000e-06	-5.529774e-06	-2.219473e-08	-3.977115e+01	-1.450584e+03
2.890000e-06	-5.636363e-06	-2.235003e-08	-4.053776e+01	-1.460684e+03
2.900000e-06	-5.740992e-06	-2.249882e-08	-4.129027e+01	-1.470532e+03
2.910000e-06	-5.843452e-06	-2.264028e-08	-4.202718e+01	-1.480113e+03
2.920000e-06	-5.943660e-06	-2.277615e-08	-4.274790e+01	-1.489373e+03
2.930000e-06	-6.041784e-06	-2.290521e-08	-4.345363e+01	-1.498227e+03
2.940000e-06	-6.137823e-06	-2.302529e-08	-4.414436e+01	-1.506587e+03
