# Temperatura_=_53.82
# Concentracion g/m^3_=_28370.0
# C_Vs_to_Am_M_A/Vsm_=_65563218390.804596
# pendiente_HvsI_1/m_=_3716.3
# ordenada_HvsI_A/m_=_1297.0
# frecuencia_Hz_=_302552.331317592

Tiempo_(s)	Campo_(V.s)	Magnetizacion_(V.s)	Campo_(kA/m)	Magnetizacion_(A/m)
0.000000e+00	-7.916873e-06	-2.566192e-08	-5.683310e+01	-1.680350e+03
1.000000e-08	-7.913417e-06	-2.566258e-08	-5.680829e+01	-1.679595e+03
2.000000e-08	-7.907331e-06	-2.565331e-08	-5.676460e+01	-1.678811e+03
3.000000e-08	-7.898711e-06	-2.564243e-08	-5.670272e+01	-1.678047e+03
4.000000e-08	-7.887326e-06	-2.563064e-08	-5.662100e+01	-1.677325e+03
5.000000e-08	-7.872937e-06	-2.561571e-08	-5.651770e+01	-1.676638e+03
6.000000e-08	-7.855714e-06	-2.559403e-08	-5.639406e+01	-1.675952e+03
7.000000e-08	-7.836184e-06	-2.556997e-08	-5.625386e+01	-1.675210e+03
8.000000e-08	-7.814383e-06	-2.555739e-08	-5.609736e+01	-1.674343e+03
9.000000e-08	-7.789765e-06	-2.559978e-08	-5.592063e+01	-1.673285e+03
1.000000e-07	-7.761954e-06	-2.557312e-08	-5.572098e+01	-1.671982e+03
1.100000e-07	-7.731117e-06	-2.548764e-08	-5.549961e+01	-1.670401e+03
1.200000e-07	-7.697494e-06	-2.545353e-08	-5.525824e+01	-1.668538e+03
1.300000e-07	-7.661187e-06	-2.543419e-08	-5.499760e+01	-1.666416e+03
1.400000e-07	-7.622549e-06	-2.537984e-08	-5.472023e+01	-1.664080e+03
1.500000e-07	-7.581709e-06	-2.530346e-08	-5.442705e+01	-1.661593e+03
1.600000e-07	-7.538482e-06	-2.534690e-08	-5.411674e+01	-1.659016e+03
1.700000e-07	-7.492684e-06	-2.533269e-08	-5.378797e+01	-1.656405e+03
1.800000e-07	-7.444167e-06	-2.518567e-08	-5.343967e+01	-1.653791e+03
1.900000e-07	-7.392667e-06	-2.520705e-08	-5.306997e+01	-1.651178e+03
2.000000e-07	-7.338175e-06	-2.516114e-08	-5.267879e+01	-1.648541e+03
2.100000e-07	-7.281005e-06	-2.508642e-08	-5.226838e+01	-1.645825e+03
2.200000e-07	-7.221246e-06	-2.506094e-08	-5.183938e+01	-1.642955e+03
2.300000e-07	-7.158921e-06	-2.498245e-08	-5.139197e+01	-1.639845e+03
2.400000e-07	-7.093906e-06	-2.496015e-08	-5.092525e+01	-1.636416e+03
2.500000e-07	-7.026162e-06	-2.486609e-08	-5.043893e+01	-1.632605e+03
2.600000e-07	-6.955780e-06	-2.481100e-08	-4.993367e+01	-1.628377e+03
2.700000e-07	-6.882621e-06	-2.473775e-08	-4.940849e+01	-1.623731e+03
2.800000e-07	-6.806714e-06	-2.466137e-08	-4.886357e+01	-1.618699e+03
2.900000e-07	-6.728053e-06	-2.458956e-08	-4.829889e+01	-1.613342e+03
3.000000e-07	-6.646679e-06	-2.450375e-08	-4.771472e+01	-1.607738e+03
3.100000e-07	-6.562957e-06	-2.444351e-08	-4.711370e+01	-1.601968e+03
3.200000e-07	-6.477100e-06	-2.434210e-08	-4.649736e+01	-1.596102e+03
3.300000e-07	-6.388943e-06	-2.426502e-08	-4.586450e+01	-1.590184e+03
3.400000e-07	-6.298331e-06	-2.416170e-08	-4.521403e+01	-1.584226e+03
3.500000e-07	-6.205425e-06	-2.405184e-08	-4.454708e+01	-1.578198e+03
3.600000e-07	-6.110389e-06	-2.396626e-08	-4.386484e+01	-1.572033e+03
3.700000e-07	-6.013067e-06	-2.386198e-08	-4.316619e+01	-1.565639e+03
3.800000e-07	-5.913435e-06	-2.374403e-08	-4.245096e+01	-1.558905e+03
3.900000e-07	-5.811784e-06	-2.362401e-08	-4.172124e+01	-1.551723e+03
4.000000e-07	-5.708085e-06	-2.350838e-08	-4.097681e+01	-1.544005e+03
4.100000e-07	-5.602358e-06	-2.337305e-08	-4.021782e+01	-1.535689e+03
4.200000e-07	-5.494732e-06	-2.324320e-08	-3.944520e+01	-1.526757e+03
4.300000e-07	-5.385165e-06	-2.311391e-08	-3.865865e+01	-1.517232e+03
4.400000e-07	-5.273554e-06	-2.296891e-08	-3.785743e+01	-1.507170e+03
4.500000e-07	-5.159915e-06	-2.280998e-08	-3.704164e+01	-1.496654e+03
4.600000e-07	-5.044353e-06	-2.265163e-08	-3.621205e+01	-1.485775e+03
4.700000e-07	-4.926886e-06	-2.248934e-08	-3.536879e+01	-1.474609e+03
4.800000e-07	-4.807621e-06	-2.231737e-08	-3.451262e+01	-1.463207e+03
4.900000e-07	-4.686633e-06	-2.214208e-08	-3.364408e+01	-1.451572e+03
5.000000e-07	-4.563909e-06	-2.195804e-08	-3.276308e+01	-1.439659e+03
5.100000e-07	-4.439482e-06	-2.175723e-08	-3.186985e+01	-1.427375e+03
5.200000e-07	-4.313480e-06	-2.154050e-08	-3.096532e+01	-1.414584e+03
5.300000e-07	-4.185902e-06	-2.132243e-08	-3.004947e+01	-1.401127e+03
5.400000e-07	-4.056771e-06	-2.109592e-08	-2.912247e+01	-1.386839e+03
5.500000e-07	-3.926101e-06	-2.085461e-08	-2.818442e+01	-1.371575e+03
5.600000e-07	-3.793872e-06	-2.059875e-08	-2.723519e+01	-1.355227e+03
5.700000e-07	-3.660243e-06	-2.033652e-08	-2.627590e+01	-1.337736e+03
5.800000e-07	-3.525241e-06	-2.006154e-08	-2.530675e+01	-1.319097e+03
5.900000e-07	-3.388787e-06	-1.977243e-08	-2.432719e+01	-1.299354e+03
6.000000e-07	-3.251022e-06	-1.946740e-08	-2.333821e+01	-1.278583e+03
6.100000e-07	-3.112050e-06	-1.914827e-08	-2.234057e+01	-1.256867e+03
6.200000e-07	-2.971773e-06	-1.881066e-08	-2.133356e+01	-1.234269e+03
6.300000e-07	-2.830169e-06	-1.844858e-08	-2.031702e+01	-1.210803e+03
6.400000e-07	-2.687403e-06	-1.806724e-08	-1.929214e+01	-1.186406e+03
6.500000e-07	-2.543650e-06	-1.766342e-08	-1.826018e+01	-1.160922e+03
6.600000e-07	-2.398971e-06	-1.723768e-08	-1.722157e+01	-1.134101e+03
6.700000e-07	-2.253483e-06	-1.678459e-08	-1.617715e+01	-1.105605e+03
6.800000e-07	-2.107277e-06	-1.630304e-08	-1.512758e+01	-1.075030e+03
6.900000e-07	-1.960379e-06	-1.578775e-08	-1.407304e+01	-1.041944e+03
7.000000e-07	-1.812812e-06	-1.523257e-08	-1.301369e+01	-1.005922e+03
7.100000e-07	-1.664632e-06	-1.463444e-08	-1.194994e+01	-9.665968e+02
7.200000e-07	-1.515943e-06	-1.399127e-08	-1.088255e+01	-9.236916e+02
7.300000e-07	-1.366831e-06	-1.330148e-08	-9.812111e+00	-8.770540e+02
7.400000e-07	-1.217353e-06	-1.255714e-08	-8.739053e+00	-8.266709e+02
7.500000e-07	-1.067490e-06	-1.175742e-08	-7.663226e+00	-7.726693e+02
7.600000e-07	-9.172136e-07	-1.090035e-08	-6.584430e+00	-7.152991e+02
7.700000e-07	-7.665530e-07	-9.984845e-09	-5.502878e+00	-6.549024e+02
7.800000e-07	-6.155996e-07	-9.011083e-09	-4.419224e+00	-5.918720e+02
7.900000e-07	-4.644105e-07	-7.988844e-09	-3.333878e+00	-5.266049e+02
8.000000e-07	-3.130136e-07	-6.930670e-09	-2.247040e+00	-4.594587e+02
8.100000e-07	-1.614531e-07	-5.846236e-09	-1.159029e+00	-3.907155e+02
8.200000e-07	-9.817949e-09	-4.746569e-09	-7.048042e-02	-3.205603e+02
8.300000e-07	1.418114e-07	-3.642549e-09	1.018026e+00	-2.490766e+02
8.400000e-07	2.934238e-07	-2.541309e-09	2.106411e+00	-1.762605e+02
8.500000e-07	4.449951e-07	-1.438398e-09	3.194500e+00	-1.020520e+02
8.600000e-07	5.964780e-07	-3.290277e-10	4.281955e+00	-2.637895e+01
8.700000e-07	7.477661e-07	7.963116e-10	5.368012e+00	5.079208e+01
8.800000e-07	8.987619e-07	1.951640e-09	6.451970e+00	1.294053e+02
8.900000e-07	1.049395e-06	3.148533e-09	7.533324e+00	2.092728e+02
9.000000e-07	1.199626e-06	4.384813e-09	8.611789e+00	2.900469e+02
9.100000e-07	1.349408e-06	5.648640e-09	9.687038e+00	3.712105e+02
9.200000e-07	1.498708e-06	6.926263e-09	1.075883e+01	4.520901e+02
9.300000e-07	1.647551e-06	8.192482e-09	1.182732e+01	5.318893e+02
9.400000e-07	1.795829e-06	9.415248e-09	1.289177e+01	6.097407e+02
9.500000e-07	1.943448e-06	1.057019e-08	1.395149e+01	6.847689e+02
9.600000e-07	2.090374e-06	1.164451e-08	1.500624e+01	7.561594e+02
9.700000e-07	2.236573e-06	1.263366e-08	1.605576e+01	8.232230e+02
9.800000e-07	2.381941e-06	1.354005e-08	1.709931e+01	8.854502e+02
9.900000e-07	2.526384e-06	1.436985e-08	1.813623e+01	9.425469e+02
1.000000e-06	2.669884e-06	1.512969e-08	1.916638e+01	9.944502e+02
1.010000e-06	2.812288e-06	1.582460e-08	2.018866e+01	1.041320e+03
1.020000e-06	2.953576e-06	1.645950e-08	2.120293e+01	1.083510e+03
1.030000e-06	3.093660e-06	1.704527e-08	2.220855e+01	1.121521e+03
1.040000e-06	3.232464e-06	1.758495e-08	2.320499e+01	1.155944e+03
1.050000e-06	3.370017e-06	1.808422e-08	2.419245e+01	1.187395e+03
1.060000e-06	3.506321e-06	1.854439e-08	2.517093e+01	1.216463e+03
1.070000e-06	3.641286e-06	1.897048e-08	2.613982e+01	1.243655e+03
1.080000e-06	3.774881e-06	1.937021e-08	2.709886e+01	1.269368e+03
1.090000e-06	3.907198e-06	1.974428e-08	2.804873e+01	1.293867e+03
1.100000e-06	4.038185e-06	2.009857e-08	2.898904e+01	1.317296e+03
1.110000e-06	4.167683e-06	2.043081e-08	2.991868e+01	1.339688e+03
1.120000e-06	4.295717e-06	2.074072e-08	3.083780e+01	1.361002e+03
1.130000e-06	4.422291e-06	2.103129e-08	3.174644e+01	1.381153e+03
1.140000e-06	4.547360e-06	2.130301e-08	3.264427e+01	1.400053e+03
1.150000e-06	4.670847e-06	2.155899e-08	3.353076e+01	1.417642e+03
1.160000e-06	4.792630e-06	2.180133e-08	3.440500e+01	1.433912e+03
1.170000e-06	4.912743e-06	2.202832e-08	3.526726e+01	1.448914e+03
1.180000e-06	5.031079e-06	2.224313e-08	3.611677e+01	1.462762e+03
1.190000e-06	5.147517e-06	2.244810e-08	3.695264e+01	1.475617e+03
1.200000e-06	5.261990e-06	2.264513e-08	3.777441e+01	1.487667e+03
1.210000e-06	5.374436e-06	2.283255e-08	3.858163e+01	1.499102e+03
1.220000e-06	5.484849e-06	2.300695e-08	3.937425e+01	1.510092e+03
1.230000e-06	5.593381e-06	2.317118e-08	4.015338e+01	1.520761e+03
1.240000e-06	5.699994e-06	2.332852e-08	4.091873e+01	1.531182e+03
1.250000e-06	5.804489e-06	2.347938e-08	4.166886e+01	1.541364e+03
1.260000e-06	5.906823e-06	2.362337e-08	4.240349e+01	1.551266e+03
1.270000e-06	6.006904e-06	2.376037e-08	4.312195e+01	1.560808e+03
1.280000e-06	6.104712e-06	2.388992e-08	4.382409e+01	1.569888e+03
1.290000e-06	6.200273e-06	2.401255e-08	4.451010e+01	1.578409e+03
1.300000e-06	6.293632e-06	2.413014e-08	4.518029e+01	1.586294e+03
1.310000e-06	6.384787e-06	2.424182e-08	4.583467e+01	1.593506e+03
1.320000e-06	6.473638e-06	2.434518e-08	4.647251e+01	1.600053e+03
1.330000e-06	6.560157e-06	2.444084e-08	4.709361e+01	1.605993e+03
1.340000e-06	6.644387e-06	2.453039e-08	4.769827e+01	1.611421e+03
1.350000e-06	6.726270e-06	2.461422e-08	4.828609e+01	1.616458e+03
1.360000e-06	6.805659e-06	2.469442e-08	4.885600e+01	1.621235e+03
1.370000e-06	6.882527e-06	2.477113e-08	4.940781e+01	1.625871e+03
1.380000e-06	6.956792e-06	2.484430e-08	4.994094e+01	1.630457e+03
1.390000e-06	7.028467e-06	2.491458e-08	5.045548e+01	1.635046e+03
1.400000e-06	7.097695e-06	2.498156e-08	5.095245e+01	1.639644e+03
1.410000e-06	7.164398e-06	2.504556e-08	5.143129e+01	1.644217e+03
1.420000e-06	7.228503e-06	2.510629e-08	5.189148e+01	1.648698e+03
1.430000e-06	7.290082e-06	2.516381e-08	5.233354e+01	1.652996e+03
1.440000e-06	7.349181e-06	2.521839e-08	5.275779e+01	1.657020e+03
1.450000e-06	7.405683e-06	2.526952e-08	5.316341e+01	1.660691e+03
1.460000e-06	7.459481e-06	2.531765e-08	5.354961e+01	1.663954e+03
1.470000e-06	7.510259e-06	2.536413e-08	5.391413e+01	1.666792e+03
1.480000e-06	7.557969e-06	2.540848e-08	5.425663e+01	1.669223e+03
1.490000e-06	7.603035e-06	2.544863e-08	5.458014e+01	1.671300e+03
1.500000e-06	7.645481e-06	2.548342e-08	5.488485e+01	1.673099e+03
1.510000e-06	7.685131e-06	2.551470e-08	5.516949e+01	1.674708e+03
1.520000e-06	7.722096e-06	2.554273e-08	5.543485e+01	1.676209e+03
1.530000e-06	7.756378e-06	2.556817e-08	5.568095e+01	1.677671e+03
1.540000e-06	7.787842e-06	2.559122e-08	5.590683e+01	1.679132e+03
1.550000e-06	7.816599e-06	2.561094e-08	5.611326e+01	1.680600e+03
1.560000e-06	7.842587e-06	2.562813e-08	5.629983e+01	1.682048e+03
1.570000e-06	7.865678e-06	2.564220e-08	5.646559e+01	1.683425e+03
1.580000e-06	7.886016e-06	2.565496e-08	5.661159e+01	1.684664e+03
1.590000e-06	7.903496e-06	2.566729e-08	5.673707e+01	1.685692e+03
1.600000e-06	7.917986e-06	2.567734e-08	5.684110e+01	1.686450e+03
1.610000e-06	7.929412e-06	2.568349e-08	5.692312e+01	1.686898e+03
1.620000e-06	7.937697e-06	2.568639e-08	5.698259e+01	1.687023e+03
1.630000e-06	7.943140e-06	2.568839e-08	5.702167e+01	1.686846e+03
1.640000e-06	7.945903e-06	2.568825e-08	5.704150e+01	1.686411e+03
1.650000e-06	7.945787e-06	2.568665e-08	5.704067e+01	1.685787e+03
1.660000e-06	7.942958e-06	2.567740e-08	5.702036e+01	1.685048e+03
1.670000e-06	7.937538e-06	2.567191e-08	5.698145e+01	1.684263e+03
1.680000e-06	7.929470e-06	2.566767e-08	5.692354e+01	1.683488e+03
1.690000e-06	7.918785e-06	2.565782e-08	5.684683e+01	1.682753e+03
1.700000e-06	7.905205e-06	2.564603e-08	5.674934e+01	1.682058e+03
1.710000e-06	7.888910e-06	2.563666e-08	5.663236e+01	1.681375e+03
1.720000e-06	7.870325e-06	2.562812e-08	5.649895e+01	1.680650e+03
1.730000e-06	7.849431e-06	2.558236e-08	5.634896e+01	1.679819e+03
1.740000e-06	7.825695e-06	2.548847e-08	5.617856e+01	1.678813e+03
1.750000e-06	7.798433e-06	2.551003e-08	5.598286e+01	1.677573e+03
1.760000e-06	7.767515e-06	2.553013e-08	5.576090e+01	1.676061e+03
1.770000e-06	7.733690e-06	2.548301e-08	5.551808e+01	1.674265e+03
1.780000e-06	7.697677e-06	2.546397e-08	5.525955e+01	1.672201e+03
1.790000e-06	7.659400e-06	2.551139e-08	5.498477e+01	1.669912e+03
1.800000e-06	7.619064e-06	2.541433e-08	5.469521e+01	1.667454e+03
1.810000e-06	7.576661e-06	2.531286e-08	5.439081e+01	1.664892e+03
1.820000e-06	7.531573e-06	2.542203e-08	5.406714e+01	1.662283e+03
1.830000e-06	7.483794e-06	2.531250e-08	5.372415e+01	1.659666e+03
1.840000e-06	7.433171e-06	2.531175e-08	5.336074e+01	1.657052e+03
1.850000e-06	7.379482e-06	2.526964e-08	5.297532e+01	1.654424e+03
1.860000e-06	7.323056e-06	2.517155e-08	5.257025e+01	1.651732e+03
1.870000e-06	7.264028e-06	2.519467e-08	5.214650e+01	1.648905e+03
1.880000e-06	7.202426e-06	2.503754e-08	5.170428e+01	1.645861e+03
1.890000e-06	7.137994e-06	2.503593e-08	5.124174e+01	1.642516e+03
1.900000e-06	7.070739e-06	2.498374e-08	5.075893e+01	1.638803e+03
1.910000e-06	7.000845e-06	2.490562e-08	5.025718e+01	1.634679e+03
1.920000e-06	6.928172e-06	2.488115e-08	4.973548e+01	1.630134e+03
1.930000e-06	6.852821e-06	2.477229e-08	4.919456e+01	1.625192e+03
1.940000e-06	6.774748e-06	2.474509e-08	4.863409e+01	1.619907e+03
1.950000e-06	6.694032e-06	2.462447e-08	4.805466e+01	1.614355e+03
1.960000e-06	6.610830e-06	2.455581e-08	4.745737e+01	1.608617e+03
1.970000e-06	6.525160e-06	2.447572e-08	4.684237e+01	1.602767e+03
1.980000e-06	6.437094e-06	2.438302e-08	4.621017e+01	1.596858e+03
1.990000e-06	6.346763e-06	2.432098e-08	4.556170e+01	1.590909e+03
2.000000e-06	6.254253e-06	2.418836e-08	4.489760e+01	1.584901e+03
2.010000e-06	6.159474e-06	2.410616e-08	4.421721e+01	1.578776e+03
2.020000e-06	6.062485e-06	2.399076e-08	4.352095e+01	1.572447e+03
2.030000e-06	5.963367e-06	2.389532e-08	4.280941e+01	1.565806e+03
2.040000e-06	5.862079e-06	2.377334e-08	4.208229e+01	1.558744e+03
2.050000e-06	5.758638e-06	2.366204e-08	4.133972e+01	1.551164e+03
2.060000e-06	5.653218e-06	2.354007e-08	4.058293e+01	1.542999e+03
2.070000e-06	5.545926e-06	2.339407e-08	3.981271e+01	1.534219e+03
2.080000e-06	5.436685e-06	2.326027e-08	3.902850e+01	1.524835e+03
2.090000e-06	5.325475e-06	2.311656e-08	3.823016e+01	1.514899e+03
2.100000e-06	5.212305e-06	2.298127e-08	3.741774e+01	1.504486e+03
2.110000e-06	5.097129e-06	2.281743e-08	3.659092e+01	1.493687e+03
2.120000e-06	4.979963e-06	2.265760e-08	3.574981e+01	1.482585e+03
2.130000e-06	4.860919e-06	2.248082e-08	3.489523e+01	1.471237e+03
2.140000e-06	4.740049e-06	2.230155e-08	3.402754e+01	1.459660e+03
2.150000e-06	4.617499e-06	2.211253e-08	3.314779e+01	1.447822e+03
2.160000e-06	4.493250e-06	2.192693e-08	3.225583e+01	1.435641e+03
2.170000e-06	4.367286e-06	2.172971e-08	3.135157e+01	1.422988e+03
2.180000e-06	4.239788e-06	2.151911e-08	3.043630e+01	1.409711e+03
2.190000e-06	4.110749e-06	2.130037e-08	2.950996e+01	1.395643e+03
2.200000e-06	3.980251e-06	2.106762e-08	2.857315e+01	1.380634e+03
2.210000e-06	3.848233e-06	2.082394e-08	2.762543e+01	1.364562e+03
2.220000e-06	3.714678e-06	2.056650e-08	2.666667e+01	1.347357e+03
2.230000e-06	3.579744e-06	2.030089e-08	2.569802e+01	1.329001e+03
2.240000e-06	3.443494e-06	2.001568e-08	2.471992e+01	1.309525e+03
2.250000e-06	3.305994e-06	1.971676e-08	2.373285e+01	1.289001e+03
2.260000e-06	3.167260e-06	1.940228e-08	2.273691e+01	1.267511e+03
2.270000e-06	3.027185e-06	1.907289e-08	2.173135e+01	1.245129e+03
2.280000e-06	2.885862e-06	1.872265e-08	2.071683e+01	1.221880e+03
2.290000e-06	2.743460e-06	1.835549e-08	1.969456e+01	1.197724e+03
2.300000e-06	2.600032e-06	1.796598e-08	1.866493e+01	1.172530e+03
2.310000e-06	2.455650e-06	1.755085e-08	1.762845e+01	1.146069e+03
2.320000e-06	2.310411e-06	1.710748e-08	1.658582e+01	1.118026e+03
2.330000e-06	2.164447e-06	1.663115e-08	1.553798e+01	1.088009e+03
2.340000e-06	2.017864e-06	1.612086e-08	1.448570e+01	1.055589e+03
2.350000e-06	1.870642e-06	1.557487e-08	1.342884e+01	1.020336e+03
2.360000e-06	1.722637e-06	1.499058e-08	1.236635e+01	9.818649e+02
2.370000e-06	1.573962e-06	1.436310e-08	1.129905e+01	9.398721e+02
2.380000e-06	1.424854e-06	1.368944e-08	1.022864e+01	8.941722e+02
2.390000e-06	1.275391e-06	1.296385e-08	9.155687e+00	8.447168e+02
2.400000e-06	1.125576e-06	1.218064e-08	8.080207e+00	7.915987e+02
2.410000e-06	9.753547e-07	1.133844e-08	7.001809e+00	7.350393e+02
2.420000e-06	8.247485e-07	1.043936e-08	5.920648e+00	6.753615e+02
2.430000e-06	6.739529e-07	9.483480e-09	4.838127e+00	6.129496e+02
2.440000e-06	5.229689e-07	8.473588e-09	3.754253e+00	5.482038e+02
2.450000e-06	3.717078e-07	7.418884e-09	2.668391e+00	4.814954e+02
2.460000e-06	2.202410e-07	6.333248e-09	1.581051e+00	4.131279e+02
2.470000e-06	6.864935e-08	5.230822e-09	4.928153e-01	3.433119e+02
2.480000e-06	-8.299594e-08	4.123538e-09	-5.958055e-01	2.721556e+02
2.490000e-06	-2.346130e-07	3.017584e-09	-1.684224e+00	1.996745e+02
2.500000e-06	-3.861010e-07	1.911815e-09	-2.771715e+00	1.258192e+02
2.510000e-06	-5.374733e-07	8.020380e-10	-3.858376e+00	5.051567e+01
2.520000e-06	-6.887153e-07	-3.242944e-10	-4.944102e+00	-2.628391e+01
2.530000e-06	-8.397295e-07	-1.477747e-09	-6.028192e+00	-1.045505e+02
2.540000e-06	-9.904513e-07	-2.666250e-09	-7.110184e+00	-1.841327e+02
2.550000e-06	-1.140753e-06	-3.893775e-09	-8.189160e+00	-2.647242e+02
2.560000e-06	-1.290614e-06	-5.153345e-09	-9.264970e+00	-3.458500e+02
2.570000e-06	-1.440059e-06	-6.431967e-09	-1.033779e+01	-4.268733e+02
2.580000e-06	-1.589037e-06	-7.707668e-09	-1.140727e+01	-5.070243e+02
2.590000e-06	-1.737521e-06	-8.953111e-09	-1.247320e+01	-5.854476e+02
2.600000e-06	-1.885388e-06	-1.014161e-08	-1.353469e+01	-6.612637e+02
2.610000e-06	-2.032496e-06	-1.125422e-08	-1.459074e+01	-7.336362e+02
2.620000e-06	-2.178772e-06	-1.228239e-08	-1.564082e+01	-8.018393e+02
2.630000e-06	-2.324284e-06	-1.322357e-08	-1.668541e+01	-8.653141e+02
2.640000e-06	-2.468984e-06	-1.408223e-08	-1.772417e+01	-9.237105e+02
2.650000e-06	-2.612683e-06	-1.486711e-08	-1.875575e+01	-9.769076e+02
2.660000e-06	-2.755288e-06	-1.558638e-08	-1.977947e+01	-1.025012e+03
2.670000e-06	-2.896762e-06	-1.624581e-08	-2.079508e+01	-1.068332e+03
2.680000e-06	-3.037083e-06	-1.685174e-08	-2.180240e+01	-1.107337e+03
2.690000e-06	-3.176179e-06	-1.741060e-08	-2.280093e+01	-1.142601e+03
2.700000e-06	-3.314025e-06	-1.792582e-08	-2.379050e+01	-1.174740e+03
2.710000e-06	-3.450622e-06	-1.840128e-08	-2.477108e+01	-1.204355e+03
2.720000e-06	-3.585938e-06	-1.884301e-08	-2.574249e+01	-1.231976e+03
2.730000e-06	-3.719911e-06	-1.925418e-08	-2.670424e+01	-1.258030e+03
2.740000e-06	-3.852580e-06	-1.964027e-08	-2.765664e+01	-1.282817e+03
2.750000e-06	-3.983855e-06	-2.000280e-08	-2.859903e+01	-1.306508e+03
2.760000e-06	-4.113729e-06	-2.033830e-08	-2.953135e+01	-1.329163e+03
2.770000e-06	-4.242294e-06	-2.065180e-08	-3.045429e+01	-1.350756e+03
2.780000e-06	-4.369372e-06	-2.094789e-08	-3.136655e+01	-1.371208e+03
2.790000e-06	-4.494943e-06	-2.122770e-08	-3.226799e+01	-1.390430e+03
2.800000e-06	-4.618913e-06	-2.149079e-08	-3.315794e+01	-1.408353e+03
2.810000e-06	-4.741223e-06	-2.173919e-08	-3.403597e+01	-1.424952e+03
2.820000e-06	-4.861902e-06	-2.197649e-08	-3.490229e+01	-1.440265e+03
2.830000e-06	-4.980717e-06	-2.220254e-08	-3.575523e+01	-1.454390e+03
2.840000e-06	-5.097548e-06	-2.241656e-08	-3.659393e+01	-1.467478e+03
2.850000e-06	-5.212345e-06	-2.261789e-08	-3.741803e+01	-1.479713e+03
2.860000e-06	-5.325017e-06	-2.280675e-08	-3.822687e+01	-1.491287e+03
2.870000e-06	-5.435612e-06	-2.298396e-08	-3.902080e+01	-1.502377e+03
2.880000e-06	-5.544250e-06	-2.315131e-08	-3.980068e+01	-1.513119e+03
2.890000e-06	-5.650997e-06	-2.331155e-08	-4.056699e+01	-1.523601e+03
2.900000e-06	-5.755771e-06	-2.346536e-08	-4.131914e+01	-1.533847e+03
2.910000e-06	-5.858389e-06	-2.361245e-08	-4.205580e+01	-1.543828e+03
2.920000e-06	-5.958749e-06	-2.375313e-08	-4.277626e+01	-1.553471e+03
2.930000e-06	-6.056992e-06	-2.388638e-08	-4.348152e+01	-1.562678e+03
2.940000e-06	-6.153150e-06	-2.401100e-08	-4.417181e+01	-1.571349e+03
