# Temperatura_=_72.5
# Concentracion g/m^3_=_28370.0
# C_Vs_to_Am_M_A/Vsm_=_65563218390.804596
# pendiente_HvsI_1/m_=_3716.3
# ordenada_HvsI_A/m_=_1297.0
# frecuencia_Hz_=_302556.35884185863

Tiempo_(s)	Campo_(V.s)	Magnetizacion_(V.s)	Campo_(kA/m)	Magnetizacion_(A/m)
0.000000e+00	-7.897406e-06	-2.761172e-08	-5.683649e+01	-1.807575e+03
1.000000e-08	-7.894318e-06	-2.760821e-08	-5.681427e+01	-1.806794e+03
2.000000e-08	-7.888667e-06	-2.759936e-08	-5.677360e+01	-1.805964e+03
3.000000e-08	-7.880499e-06	-2.758742e-08	-5.671481e+01	-1.805127e+03
4.000000e-08	-7.869482e-06	-2.757445e-08	-5.663553e+01	-1.804299e+03
5.000000e-08	-7.855471e-06	-2.755880e-08	-5.653470e+01	-1.803470e+03
6.000000e-08	-7.838644e-06	-2.753712e-08	-5.641359e+01	-1.802602e+03
7.000000e-08	-7.819478e-06	-2.751307e-08	-5.627566e+01	-1.801638e+03
8.000000e-08	-7.798095e-06	-2.749542e-08	-5.612176e+01	-1.800514e+03
9.000000e-08	-7.773954e-06	-2.750553e-08	-5.594803e+01	-1.799172e+03
1.000000e-07	-7.746654e-06	-2.749589e-08	-5.575155e+01	-1.797564e+03
1.100000e-07	-7.716297e-06	-2.742492e-08	-5.553307e+01	-1.795668e+03
1.200000e-07	-7.683115e-06	-2.736876e-08	-5.529427e+01	-1.793489e+03
1.300000e-07	-7.647265e-06	-2.733563e-08	-5.503626e+01	-1.791058e+03
1.400000e-07	-7.609032e-06	-2.728657e-08	-5.476111e+01	-1.788425e+03
1.500000e-07	-7.568642e-06	-2.721501e-08	-5.447043e+01	-1.785653e+03
1.600000e-07	-7.525915e-06	-2.720121e-08	-5.416292e+01	-1.782802e+03
1.700000e-07	-7.480619e-06	-2.720650e-08	-5.383693e+01	-1.779919e+03
1.800000e-07	-7.432676e-06	-2.709021e-08	-5.349190e+01	-1.777028e+03
1.900000e-07	-7.381813e-06	-2.707422e-08	-5.312584e+01	-1.774121e+03
2.000000e-07	-7.327985e-06	-2.704340e-08	-5.273845e+01	-1.771160e+03
2.100000e-07	-7.271441e-06	-2.694912e-08	-5.233151e+01	-1.768078e+03
2.200000e-07	-7.212231e-06	-2.690791e-08	-5.190539e+01	-1.764791e+03
2.300000e-07	-7.150404e-06	-2.681699e-08	-5.146042e+01	-1.761207e+03
2.400000e-07	-7.085926e-06	-2.676581e-08	-5.099639e+01	-1.757244e+03
2.500000e-07	-7.018731e-06	-2.669815e-08	-5.051280e+01	-1.752840e+03
2.600000e-07	-6.948902e-06	-2.661669e-08	-5.001024e+01	-1.747964e+03
2.700000e-07	-6.876366e-06	-2.653671e-08	-4.948822e+01	-1.742622e+03
2.800000e-07	-6.801006e-06	-2.645887e-08	-4.894586e+01	-1.736856e+03
2.900000e-07	-6.722906e-06	-2.637295e-08	-4.838379e+01	-1.730733e+03
3.000000e-07	-6.642154e-06	-2.627057e-08	-4.780262e+01	-1.724342e+03
3.100000e-07	-6.558972e-06	-2.619414e-08	-4.720398e+01	-1.717769e+03
3.200000e-07	-6.473587e-06	-2.609679e-08	-4.658947e+01	-1.711089e+03
3.300000e-07	-6.385897e-06	-2.598722e-08	-4.595838e+01	-1.704349e+03
3.400000e-07	-6.295844e-06	-2.588310e-08	-4.531028e+01	-1.697558e+03
3.500000e-07	-6.203514e-06	-2.576086e-08	-4.464579e+01	-1.690683e+03
3.600000e-07	-6.108997e-06	-2.565380e-08	-4.396557e+01	-1.683655e+03
3.700000e-07	-6.012296e-06	-2.554147e-08	-4.326963e+01	-1.676376e+03
3.800000e-07	-5.913365e-06	-2.541261e-08	-4.255764e+01	-1.668732e+03
3.900000e-07	-5.812292e-06	-2.528012e-08	-4.183023e+01	-1.660611e+03
4.000000e-07	-5.709134e-06	-2.514372e-08	-4.108781e+01	-1.651923e+03
4.100000e-07	-5.603922e-06	-2.499887e-08	-4.033062e+01	-1.642607e+03
4.200000e-07	-5.496748e-06	-2.484558e-08	-3.955930e+01	-1.632646e+03
4.300000e-07	-5.387671e-06	-2.469919e-08	-3.877429e+01	-1.622063e+03
4.400000e-07	-5.276643e-06	-2.453861e-08	-3.797524e+01	-1.610920e+03
4.500000e-07	-5.163625e-06	-2.437033e-08	-3.716186e+01	-1.599300e+03
4.600000e-07	-5.048681e-06	-2.419940e-08	-3.633463e+01	-1.587296e+03
4.700000e-07	-4.931783e-06	-2.402053e-08	-3.549333e+01	-1.574985e+03
4.800000e-07	-4.813012e-06	-2.382788e-08	-3.463856e+01	-1.562416e+03
4.900000e-07	-4.692534e-06	-2.362567e-08	-3.377149e+01	-1.549591e+03
5.000000e-07	-4.570361e-06	-2.341859e-08	-3.289223e+01	-1.536462e+03
5.100000e-07	-4.446427e-06	-2.319831e-08	-3.200029e+01	-1.522932e+03
5.200000e-07	-4.320873e-06	-2.296845e-08	-3.109670e+01	-1.508862e+03
5.300000e-07	-4.193806e-06	-2.273231e-08	-3.018222e+01	-1.494089e+03
5.400000e-07	-4.065224e-06	-2.248871e-08	-2.925683e+01	-1.478447e+03
5.500000e-07	-3.935115e-06	-2.222580e-08	-2.832046e+01	-1.461789e+03
5.600000e-07	-3.803479e-06	-2.194897e-08	-2.737309e+01	-1.444008e+03
5.700000e-07	-3.670404e-06	-2.166606e-08	-2.641537e+01	-1.425045e+03
5.800000e-07	-3.535908e-06	-2.136967e-08	-2.544742e+01	-1.404896e+03
5.900000e-07	-3.400024e-06	-2.105532e-08	-2.446949e+01	-1.383608e+03
6.000000e-07	-3.262864e-06	-2.072332e-08	-2.348236e+01	-1.361256e+03
6.100000e-07	-3.124457e-06	-2.037847e-08	-2.248627e+01	-1.337925e+03
6.200000e-07	-2.984680e-06	-2.001426e-08	-2.148031e+01	-1.313678e+03
6.300000e-07	-2.843574e-06	-1.962913e-08	-2.046479e+01	-1.288526e+03
6.400000e-07	-2.701291e-06	-1.922486e-08	-1.944080e+01	-1.262405e+03
6.500000e-07	-2.557976e-06	-1.879764e-08	-1.840938e+01	-1.235157e+03
6.600000e-07	-2.413755e-06	-1.834333e-08	-1.737145e+01	-1.206528e+03
6.700000e-07	-2.268742e-06	-1.786039e-08	-1.632781e+01	-1.176175e+03
6.800000e-07	-2.123004e-06	-1.734793e-08	-1.527895e+01	-1.143691e+03
6.900000e-07	-1.976529e-06	-1.680098e-08	-1.422480e+01	-1.108636e+03
7.000000e-07	-1.829336e-06	-1.621558e-08	-1.316547e+01	-1.070577e+03
7.100000e-07	-1.681577e-06	-1.558649e-08	-1.210207e+01	-1.029133e+03
7.200000e-07	-1.533347e-06	-1.491154e-08	-1.103527e+01	-9.840104e+02
7.300000e-07	-1.384682e-06	-1.418516e-08	-9.965354e+00	-9.350344e+02
7.400000e-07	-1.235636e-06	-1.340284e-08	-8.892694e+00	-8.821630e+02
7.500000e-07	-1.086132e-06	-1.256288e-08	-7.816733e+00	-8.254879e+02
7.600000e-07	-9.361744e-07	-1.166472e-08	-6.737513e+00	-7.652187e+02
7.700000e-07	-7.858648e-07	-1.070412e-08	-5.655756e+00	-7.016534e+02
7.800000e-07	-6.352673e-07	-9.679425e-09	-4.571927e+00	-6.351394e+02
7.900000e-07	-4.844515e-07	-8.598546e-09	-3.486527e+00	-5.660306e+02
8.000000e-07	-3.334644e-07	-7.469561e-09	-2.399895e+00	-4.946474e+02
8.100000e-07	-1.823796e-07	-6.307585e-09	-1.312559e+00	-4.212448e+02
8.200000e-07	-3.125472e-08	-5.125858e-09	-2.249357e-01	-3.459951e+02
8.300000e-07	1.199375e-07	-3.937675e-09	8.631730e-01	-2.689863e+02
8.400000e-07	2.711591e-07	-2.748321e-09	1.951493e+00	-1.902392e+02
8.500000e-07	4.222944e-07	-1.552888e-09	3.039192e+00	-1.097389e+02
8.600000e-07	5.732563e-07	-3.464294e-10	4.125643e+00	-2.747883e+01
8.700000e-07	7.240522e-07	8.800980e-10	5.210899e+00	5.649127e+01
8.800000e-07	8.746664e-07	2.137186e-09	6.294848e+00	1.420182e+02
8.900000e-07	1.025068e-06	3.435346e-09	7.377265e+00	2.288082e+02
9.000000e-07	1.175173e-06	4.774085e-09	8.457550e+00	3.164045e+02
9.100000e-07	1.324859e-06	6.141537e-09	9.534817e+00	4.041849e+02
9.200000e-07	1.474054e-06	7.518178e-09	1.060856e+01	4.913807e+02
9.300000e-07	1.622693e-06	8.876408e-09	1.167829e+01	5.771158e+02
9.400000e-07	1.770675e-06	1.018501e-08	1.274329e+01	6.604627e+02
9.500000e-07	1.918055e-06	1.141692e-08	1.380396e+01	7.405083e+02
9.600000e-07	2.064812e-06	1.255883e-08	1.486015e+01	8.164232e+02
9.700000e-07	2.210759e-06	1.360637e-08	1.591052e+01	8.875261e+02
9.800000e-07	2.355894e-06	1.456331e-08	1.695503e+01	9.533341e+02
9.900000e-07	2.500206e-06	1.543730e-08	1.799362e+01	1.013596e+03
1.000000e-06	2.643563e-06	1.623823e-08	1.902534e+01	1.068302e+03
1.010000e-06	2.785872e-06	1.697144e-08	2.004952e+01	1.117671e+03
1.020000e-06	2.927023e-06	1.764334e-08	2.106536e+01	1.162117e+03
1.030000e-06	3.066908e-06	1.826206e-08	2.207209e+01	1.202195e+03
1.040000e-06	3.205581e-06	1.883295e-08	2.307010e+01	1.238544e+03
1.050000e-06	3.342996e-06	1.936274e-08	2.405906e+01	1.271820e+03
1.060000e-06	3.479026e-06	1.985269e-08	2.503805e+01	1.302639e+03
1.070000e-06	3.613791e-06	2.030688e-08	2.600793e+01	1.331527e+03
1.080000e-06	3.747367e-06	2.073141e-08	2.696926e+01	1.358887e+03
1.090000e-06	3.879555e-06	2.112841e-08	2.792060e+01	1.384989e+03
1.100000e-06	4.010325e-06	2.150287e-08	2.886173e+01	1.409973e+03
1.110000e-06	4.139707e-06	2.185663e-08	2.979288e+01	1.433866e+03
1.120000e-06	4.267547e-06	2.218888e-08	3.071292e+01	1.456621e+03
1.130000e-06	4.393888e-06	2.250176e-08	3.162218e+01	1.478150e+03
1.140000e-06	4.518818e-06	2.279416e-08	3.252128e+01	1.498363e+03
1.150000e-06	4.642194e-06	2.306774e-08	3.340920e+01	1.517202e+03
1.160000e-06	4.763973e-06	2.332504e-08	3.428563e+01	1.534663e+03
1.170000e-06	4.884015e-06	2.356861e-08	3.514955e+01	1.550805e+03
1.180000e-06	5.002245e-06	2.380165e-08	3.600044e+01	1.565750e+03
1.190000e-06	5.118676e-06	2.402584e-08	3.683838e+01	1.579666e+03
1.200000e-06	5.233123e-06	2.424199e-08	3.766203e+01	1.592750e+03
1.210000e-06	5.345513e-06	2.444637e-08	3.847089e+01	1.605200e+03
1.220000e-06	5.455950e-06	2.463563e-08	3.926568e+01	1.617189e+03
1.230000e-06	5.564528e-06	2.481288e-08	4.004711e+01	1.628845e+03
1.240000e-06	5.671149e-06	2.498133e-08	4.081444e+01	1.640241e+03
1.250000e-06	5.775625e-06	2.514293e-08	4.156634e+01	1.651387e+03
1.260000e-06	5.877952e-06	2.529818e-08	4.230278e+01	1.662239e+03
1.270000e-06	5.978168e-06	2.544750e-08	4.302402e+01	1.672715e+03
1.280000e-06	6.076121e-06	2.559219e-08	4.372897e+01	1.682709e+03
1.290000e-06	6.171741e-06	2.573111e-08	4.441713e+01	1.692122e+03
1.300000e-06	6.265173e-06	2.586479e-08	4.508955e+01	1.700874e+03
1.310000e-06	6.356428e-06	2.599028e-08	4.574630e+01	1.708925e+03
1.320000e-06	6.445331e-06	2.610568e-08	4.638612e+01	1.716282e+03
1.330000e-06	6.531877e-06	2.621305e-08	4.700898e+01	1.722997e+03
1.340000e-06	6.616163e-06	2.631401e-08	4.761557e+01	1.729166e+03
1.350000e-06	6.698182e-06	2.640776e-08	4.820585e+01	1.734908e+03
1.360000e-06	6.777792e-06	2.649623e-08	4.877879e+01	1.740351e+03
1.370000e-06	6.854874e-06	2.658264e-08	4.933354e+01	1.745615e+03
1.380000e-06	6.929309e-06	2.666624e-08	4.986924e+01	1.750790e+03
1.390000e-06	7.001088e-06	2.674564e-08	5.038582e+01	1.755930e+03
1.400000e-06	7.070385e-06	2.682041e-08	5.088454e+01	1.761046e+03
1.410000e-06	7.137223e-06	2.689161e-08	5.136556e+01	1.766107e+03
1.420000e-06	7.201516e-06	2.695875e-08	5.182827e+01	1.771049e+03
1.430000e-06	7.263294e-06	2.702090e-08	5.227288e+01	1.775789e+03
1.440000e-06	7.322626e-06	2.707949e-08	5.269989e+01	1.780240e+03
1.450000e-06	7.379370e-06	2.713697e-08	5.310826e+01	1.784327e+03
1.460000e-06	7.433404e-06	2.719341e-08	5.349714e+01	1.788000e+03
1.470000e-06	7.484465e-06	2.724794e-08	5.386462e+01	1.791241e+03
1.480000e-06	7.532464e-06	2.729868e-08	5.421006e+01	1.794069e+03
1.490000e-06	7.577764e-06	2.734576e-08	5.453607e+01	1.796534e+03
1.500000e-06	7.620442e-06	2.738631e-08	5.484323e+01	1.798708e+03
1.510000e-06	7.660352e-06	2.742076e-08	5.513045e+01	1.800671e+03
1.520000e-06	7.697560e-06	2.745203e-08	5.539823e+01	1.802502e+03
1.530000e-06	7.732100e-06	2.748093e-08	5.564681e+01	1.804260e+03
1.540000e-06	7.763866e-06	2.750811e-08	5.587543e+01	1.805979e+03
1.550000e-06	7.792939e-06	2.753218e-08	5.608466e+01	1.807664e+03
1.560000e-06	7.819227e-06	2.755465e-08	5.627385e+01	1.809288e+03
1.570000e-06	7.842547e-06	2.757343e-08	5.644168e+01	1.810800e+03
1.580000e-06	7.863140e-06	2.758835e-08	5.658989e+01	1.812138e+03
1.590000e-06	7.881080e-06	2.760041e-08	5.671899e+01	1.813234e+03
1.600000e-06	7.896086e-06	2.761010e-08	5.682699e+01	1.814036e+03
1.610000e-06	7.907991e-06	2.761629e-08	5.691267e+01	1.814509e+03
1.620000e-06	7.916742e-06	2.761929e-08	5.697565e+01	1.814648e+03
1.630000e-06	7.922576e-06	2.762188e-08	5.701764e+01	1.814476e+03
1.640000e-06	7.925642e-06	2.762258e-08	5.703970e+01	1.814040e+03
1.650000e-06	7.925892e-06	2.762214e-08	5.704150e+01	1.813406e+03
1.660000e-06	7.923504e-06	2.761604e-08	5.702432e+01	1.812643e+03
1.670000e-06	7.918535e-06	2.760581e-08	5.698855e+01	1.811818e+03
1.680000e-06	7.910893e-06	2.759802e-08	5.693356e+01	1.810978e+03
1.690000e-06	7.900593e-06	2.758671e-08	5.685943e+01	1.810146e+03
1.700000e-06	7.887481e-06	2.757338e-08	5.676507e+01	1.809318e+03
1.710000e-06	7.871607e-06	2.755995e-08	5.665082e+01	1.808462e+03
1.720000e-06	7.853328e-06	2.754422e-08	5.651927e+01	1.807525e+03
1.730000e-06	7.832770e-06	2.750794e-08	5.637132e+01	1.806446e+03
1.740000e-06	7.809468e-06	2.742817e-08	5.620362e+01	1.805161e+03
1.750000e-06	7.782736e-06	2.740520e-08	5.601123e+01	1.803620e+03
1.760000e-06	7.752343e-06	2.742214e-08	5.579250e+01	1.801795e+03
1.770000e-06	7.718916e-06	2.739349e-08	5.555192e+01	1.799682e+03
1.780000e-06	7.683257e-06	2.736207e-08	5.529529e+01	1.797308e+03
1.790000e-06	7.645442e-06	2.737805e-08	5.502315e+01	1.794718e+03
1.800000e-06	7.605532e-06	2.733668e-08	5.473592e+01	1.791972e+03
1.810000e-06	7.563534e-06	2.723407e-08	5.443367e+01	1.789134e+03
1.820000e-06	7.518963e-06	2.728971e-08	5.411289e+01	1.786254e+03
1.830000e-06	7.471707e-06	2.723083e-08	5.377280e+01	1.783362e+03
1.840000e-06	7.421658e-06	2.716581e-08	5.341260e+01	1.780459e+03
1.850000e-06	7.368552e-06	2.716551e-08	5.303041e+01	1.777515e+03
1.860000e-06	7.312634e-06	2.706526e-08	5.262798e+01	1.774468e+03
1.870000e-06	7.254037e-06	2.707171e-08	5.220626e+01	1.771239e+03
1.880000e-06	7.192916e-06	2.697764e-08	5.176638e+01	1.767735e+03
1.890000e-06	7.129098e-06	2.689558e-08	5.130709e+01	1.763872e+03
1.900000e-06	7.062355e-06	2.686173e-08	5.082675e+01	1.759580e+03
1.910000e-06	6.992924e-06	2.676284e-08	5.032707e+01	1.754821e+03
1.920000e-06	6.920789e-06	2.670543e-08	4.980792e+01	1.749591e+03
1.930000e-06	6.846001e-06	2.660583e-08	4.926968e+01	1.743922e+03
1.940000e-06	6.768552e-06	2.655178e-08	4.871230e+01	1.737879e+03
1.950000e-06	6.688433e-06	2.645188e-08	4.813569e+01	1.731544e+03
1.960000e-06	6.605806e-06	2.633248e-08	4.754103e+01	1.725007e+03
1.970000e-06	6.520754e-06	2.626349e-08	4.692893e+01	1.718346e+03
1.980000e-06	6.433270e-06	2.615449e-08	4.629932e+01	1.711616e+03
1.990000e-06	6.343422e-06	2.607371e-08	4.565270e+01	1.704837e+03
2.000000e-06	6.251402e-06	2.595161e-08	4.499044e+01	1.697986e+03
2.010000e-06	6.157155e-06	2.583757e-08	4.431216e+01	1.691003e+03
2.020000e-06	6.060662e-06	2.571612e-08	4.361771e+01	1.683795e+03
2.030000e-06	5.961994e-06	2.558315e-08	4.290761e+01	1.676250e+03
2.040000e-06	5.861249e-06	2.545714e-08	4.218256e+01	1.668256e+03
2.050000e-06	5.758460e-06	2.532478e-08	4.144281e+01	1.659715e+03
2.060000e-06	5.653614e-06	2.519945e-08	4.068824e+01	1.650557e+03
2.070000e-06	5.546858e-06	2.504517e-08	3.991994e+01	1.640754e+03
2.080000e-06	5.438226e-06	2.489389e-08	3.913813e+01	1.630320e+03
2.090000e-06	5.327643e-06	2.473083e-08	3.834228e+01	1.619308e+03
2.100000e-06	5.215055e-06	2.456756e-08	3.753200e+01	1.607797e+03
2.110000e-06	5.100490e-06	2.439334e-08	3.670749e+01	1.595878e+03
2.120000e-06	4.983996e-06	2.421322e-08	3.586910e+01	1.583636e+03
2.130000e-06	4.865607e-06	2.402728e-08	3.501707e+01	1.571127e+03
2.140000e-06	4.745360e-06	2.382739e-08	3.415167e+01	1.558366e+03
2.150000e-06	4.623286e-06	2.362223e-08	3.327312e+01	1.545319e+03
2.160000e-06	4.499524e-06	2.341102e-08	3.238243e+01	1.531898e+03
2.170000e-06	4.374208e-06	2.319577e-08	3.148054e+01	1.517976e+03
2.180000e-06	4.247313e-06	2.296342e-08	3.056730e+01	1.503392e+03
2.190000e-06	4.118762e-06	2.272274e-08	2.964214e+01	1.487979e+03
2.200000e-06	3.988683e-06	2.246831e-08	2.870597e+01	1.471586e+03
2.210000e-06	3.857118e-06	2.219958e-08	2.775913e+01	1.454091e+03
2.220000e-06	3.724126e-06	2.191766e-08	2.680200e+01	1.435423e+03
2.230000e-06	3.589788e-06	2.162815e-08	2.583519e+01	1.415566e+03
2.240000e-06	3.454048e-06	2.132497e-08	2.485828e+01	1.394554e+03
2.250000e-06	3.317002e-06	2.100366e-08	2.387198e+01	1.372458e+03
2.260000e-06	3.178674e-06	2.066759e-08	2.287646e+01	1.349363e+03
2.270000e-06	3.039085e-06	2.031376e-08	2.187186e+01	1.325339e+03
2.280000e-06	2.898313e-06	1.993909e-08	2.085874e+01	1.300414e+03
2.290000e-06	2.756400e-06	1.954069e-08	1.983741e+01	1.274544e+03
2.300000e-06	2.613514e-06	1.912292e-08	1.880908e+01	1.247595e+03
2.310000e-06	2.469731e-06	1.868000e-08	1.777430e+01	1.219338e+03
2.320000e-06	2.325049e-06	1.820720e-08	1.673304e+01	1.189450e+03
2.330000e-06	2.179588e-06	1.770000e-08	1.568618e+01	1.157538e+03
2.340000e-06	2.033415e-06	1.716007e-08	1.463420e+01	1.123165e+03
2.350000e-06	1.886559e-06	1.658433e-08	1.357730e+01	1.085893e+03
2.360000e-06	1.739061e-06	1.596858e-08	1.251577e+01	1.045324e+03
2.370000e-06	1.590980e-06	1.530917e-08	1.145005e+01	1.001141e+03
2.380000e-06	1.442404e-06	1.460005e-08	1.038077e+01	9.531355e+02
2.390000e-06	1.293338e-06	1.383563e-08	9.307965e+00	9.012322e+02
2.400000e-06	1.143832e-06	1.301055e-08	8.231992e+00	8.454904e+02
2.410000e-06	9.939139e-07	1.212649e-08	7.153055e+00	7.860925e+02
2.420000e-06	8.436374e-07	1.118307e-08	6.071537e+00	7.233177e+02
2.430000e-06	6.931812e-07	1.017815e-08	4.988725e+00	6.575050e+02
2.440000e-06	5.425951e-07	9.113249e-09	3.904979e+00	5.890108e+02
2.450000e-06	3.918049e-07	7.997206e-09	2.819763e+00	5.181671e+02
2.460000e-06	2.407962e-07	6.841758e-09	1.732975e+00	4.452477e+02
2.470000e-06	8.967515e-08	5.658486e-09	6.453792e-01	3.704462e+02
2.480000e-06	-6.148543e-08	4.462035e-09	-4.425018e-01	2.938709e+02
2.490000e-06	-2.126433e-07	3.263556e-09	-1.530363e+00	2.155569e+02
2.500000e-06	-3.637216e-07	2.064379e-09	-2.617652e+00	1.354945e+02
2.510000e-06	-5.146816e-07	8.590718e-10	-3.704090e+00	5.367055e+01
2.520000e-06	-6.654807e-07	-3.656973e-10	-4.789369e+00	-2.988381e+01
2.530000e-06	-8.160646e-07	-1.620261e-09	-5.873099e+00	-1.150453e+02
2.540000e-06	-9.663950e-07	-2.910819e-09	-6.955006e+00	-2.015579e+02
2.550000e-06	-1.116416e-06	-4.245421e-09	-8.034683e+00	-2.890068e+02
2.560000e-06	-1.266108e-06	-5.614645e-09	-9.111995e+00	-3.768102e+02
2.570000e-06	-1.415405e-06	-6.997251e-09	-1.018647e+01	-4.642331e+02
2.580000e-06	-1.564182e-06	-8.369696e-09	-1.125719e+01	-5.504216e+02
2.590000e-06	-1.712362e-06	-9.704209e-09	-1.232362e+01	-6.344551e+02
2.600000e-06	-1.859845e-06	-1.097265e-08	-1.338503e+01	-7.154103e+02
2.610000e-06	-2.006605e-06	-1.215390e-08	-1.444125e+01	-7.924307e+02
2.620000e-06	-2.152703e-06	-1.324229e-08	-1.549269e+01	-8.647925e+02
2.630000e-06	-2.298019e-06	-1.423890e-08	-1.653851e+01	-9.319594e+02
2.640000e-06	-2.442330e-06	-1.514769e-08	-1.757710e+01	-9.936203e+02
2.650000e-06	-2.585613e-06	-1.597575e-08	-1.860829e+01	-1.049706e+03
2.660000e-06	-2.727935e-06	-1.673351e-08	-1.963255e+01	-1.100379e+03
2.670000e-06	-2.869218e-06	-1.742911e-08	-2.064935e+01	-1.146010e+03
2.680000e-06	-3.009246e-06	-1.806767e-08	-2.165711e+01	-1.187124e+03
2.690000e-06	-3.148067e-06	-1.865586e-08	-2.265619e+01	-1.224346e+03
2.700000e-06	-3.285740e-06	-1.920133e-08	-2.364700e+01	-1.258332e+03
2.710000e-06	-3.422102e-06	-1.970690e-08	-2.462837e+01	-1.289714e+03
2.720000e-06	-3.557200e-06	-2.017631e-08	-2.560065e+01	-1.319044e+03
2.730000e-06	-3.691068e-06	-2.061388e-08	-2.656409e+01	-1.346758e+03
2.740000e-06	-3.823624e-06	-2.102187e-08	-2.751807e+01	-1.373159e+03
2.750000e-06	-3.954820e-06	-2.140578e-08	-2.846227e+01	-1.398418e+03
2.760000e-06	-4.084702e-06	-2.176543e-08	-2.939701e+01	-1.422588e+03
2.770000e-06	-4.213177e-06	-2.210153e-08	-3.032163e+01	-1.445637e+03
2.780000e-06	-4.340166e-06	-2.241718e-08	-3.123555e+01	-1.467483e+03
2.790000e-06	-4.465673e-06	-2.271571e-08	-3.213881e+01	-1.488034e+03
2.800000e-06	-4.589540e-06	-2.299793e-08	-3.303026e+01	-1.507222e+03
2.810000e-06	-4.711793e-06	-2.326523e-08	-3.391009e+01	-1.525027e+03
2.820000e-06	-4.832410e-06	-2.351997e-08	-3.477816e+01	-1.541492e+03
2.830000e-06	-4.951159e-06	-2.376184e-08	-3.563278e+01	-1.556724e+03
2.840000e-06	-5.067915e-06	-2.399262e-08	-3.647305e+01	-1.570881e+03
2.850000e-06	-5.182612e-06	-2.421304e-08	-3.729851e+01	-1.584157e+03
2.860000e-06	-5.295215e-06	-2.442207e-08	-3.810890e+01	-1.596750e+03
2.870000e-06	-5.405765e-06	-2.461815e-08	-3.890451e+01	-1.608842e+03
2.880000e-06	-5.514381e-06	-2.480121e-08	-3.968620e+01	-1.620575e+03
2.890000e-06	-5.621144e-06	-2.497441e-08	-4.045456e+01	-1.632034e+03
2.900000e-06	-5.725952e-06	-2.514025e-08	-4.120885e+01	-1.643247e+03
2.910000e-06	-5.828633e-06	-2.529862e-08	-4.194783e+01	-1.654181e+03
2.920000e-06	-5.929090e-06	-2.545078e-08	-4.267080e+01	-1.664762e+03
2.930000e-06	-6.027345e-06	-2.559776e-08	-4.337793e+01	-1.674890e+03
2.940000e-06	-6.123461e-06	-2.573832e-08	-4.406967e+01	-1.684459e+03
