# Temperatura_=_36.34
# Concentracion g/m^3_=_28370.0
# C_Vs_to_Am_M_A/Vsm_=_65563218390.804596
# pendiente_HvsI_1/m_=_3716.3
# ordenada_HvsI_A/m_=_1297.0
# frecuencia_Hz_=_302548.47694241523

Tiempo_(s)	Campo_(V.s)	Magnetizacion_(V.s)	Campo_(kA/m)	Magnetizacion_(A/m)
0.000000e+00	-7.867727e-06	-2.291842e-08	-5.683669e+01	-1.499130e+03
1.000000e-08	-7.864403e-06	-2.291759e-08	-5.681269e+01	-1.498462e+03
2.000000e-08	-7.858458e-06	-2.291151e-08	-5.676973e+01	-1.497740e+03
3.000000e-08	-7.849968e-06	-2.290347e-08	-5.670840e+01	-1.497008e+03
4.000000e-08	-7.838749e-06	-2.289393e-08	-5.662736e+01	-1.496294e+03
5.000000e-08	-7.824593e-06	-2.288081e-08	-5.652509e+01	-1.495600e+03
6.000000e-08	-7.807597e-06	-2.286069e-08	-5.640231e+01	-1.494907e+03
7.000000e-08	-7.788258e-06	-2.283996e-08	-5.626261e+01	-1.494180e+03
8.000000e-08	-7.766690e-06	-2.282684e-08	-5.610680e+01	-1.493373e+03
9.000000e-08	-7.742404e-06	-2.283963e-08	-5.593136e+01	-1.492439e+03
1.000000e-07	-7.714966e-06	-2.283759e-08	-5.573314e+01	-1.491338e+03
1.100000e-07	-7.684466e-06	-2.277928e-08	-5.551281e+01	-1.490048e+03
1.200000e-07	-7.651205e-06	-2.273858e-08	-5.527254e+01	-1.488565e+03
1.300000e-07	-7.615292e-06	-2.271725e-08	-5.501310e+01	-1.486906e+03
1.400000e-07	-7.576991e-06	-2.267677e-08	-5.473641e+01	-1.485104e+03
1.500000e-07	-7.536523e-06	-2.262360e-08	-5.444407e+01	-1.483204e+03
1.600000e-07	-7.493749e-06	-2.261927e-08	-5.413507e+01	-1.481249e+03
1.700000e-07	-7.448369e-06	-2.262914e-08	-5.380724e+01	-1.479272e+03
1.800000e-07	-7.400314e-06	-2.251997e-08	-5.346009e+01	-1.477289e+03
1.900000e-07	-7.349381e-06	-2.250141e-08	-5.309215e+01	-1.475293e+03
2.000000e-07	-7.295472e-06	-2.249257e-08	-5.270270e+01	-1.473249e+03
2.100000e-07	-7.238895e-06	-2.242232e-08	-5.229400e+01	-1.471101e+03
2.200000e-07	-7.179700e-06	-2.241018e-08	-5.186637e+01	-1.468776e+03
2.300000e-07	-7.117928e-06	-2.235179e-08	-5.142012e+01	-1.466196e+03
2.400000e-07	-7.053524e-06	-2.229839e-08	-5.095487e+01	-1.463288e+03
2.500000e-07	-6.986369e-06	-2.222788e-08	-5.046974e+01	-1.459998e+03
2.600000e-07	-6.916561e-06	-2.216274e-08	-4.996545e+01	-1.456297e+03
2.700000e-07	-6.843973e-06	-2.210571e-08	-4.944107e+01	-1.452188e+03
2.800000e-07	-6.768575e-06	-2.204052e-08	-4.889639e+01	-1.447705e+03
2.900000e-07	-6.690544e-06	-2.198194e-08	-4.833269e+01	-1.442909e+03
3.000000e-07	-6.609899e-06	-2.190653e-08	-4.775011e+01	-1.437876e+03
3.100000e-07	-6.526819e-06	-2.183731e-08	-4.714993e+01	-1.432688e+03
3.200000e-07	-6.441551e-06	-2.175715e-08	-4.653396e+01	-1.427415e+03
3.300000e-07	-6.354045e-06	-2.167509e-08	-4.590181e+01	-1.422104e+03
3.400000e-07	-6.264158e-06	-2.160033e-08	-4.525246e+01	-1.416770e+03
3.500000e-07	-6.171963e-06	-2.150470e-08	-4.458645e+01	-1.411393e+03
3.600000e-07	-6.077624e-06	-2.142069e-08	-4.390494e+01	-1.405917e+03
3.700000e-07	-5.981024e-06	-2.133235e-08	-4.320709e+01	-1.400256e+03
3.800000e-07	-5.882188e-06	-2.123261e-08	-4.249310e+01	-1.394311e+03
3.900000e-07	-5.781340e-06	-2.112635e-08	-4.176457e+01	-1.387980e+03
4.000000e-07	-5.678459e-06	-2.101631e-08	-4.102136e+01	-1.381175e+03
4.100000e-07	-5.573502e-06	-2.090307e-08	-4.026315e+01	-1.373834e+03
4.200000e-07	-5.466588e-06	-2.078109e-08	-3.949079e+01	-1.365930e+03
4.300000e-07	-5.357768e-06	-2.066607e-08	-3.870468e+01	-1.357476e+03
4.400000e-07	-5.247017e-06	-2.053665e-08	-3.790461e+01	-1.348517e+03
4.500000e-07	-5.134266e-06	-2.039904e-08	-3.709009e+01	-1.339125e+03
4.600000e-07	-5.019530e-06	-2.025617e-08	-3.626124e+01	-1.329380e+03
4.700000e-07	-4.902881e-06	-2.011044e-08	-3.541856e+01	-1.319356e+03
4.800000e-07	-4.784407e-06	-1.995716e-08	-3.456270e+01	-1.309103e+03
4.900000e-07	-4.664215e-06	-1.979692e-08	-3.369443e+01	-1.298636e+03
5.000000e-07	-4.542320e-06	-1.963145e-08	-3.281386e+01	-1.287922e+03
5.100000e-07	-4.418705e-06	-1.945100e-08	-3.192086e+01	-1.276885e+03
5.200000e-07	-4.293443e-06	-1.926099e-08	-3.101596e+01	-1.265411e+03
5.300000e-07	-4.166702e-06	-1.906237e-08	-3.010038e+01	-1.253358e+03
5.400000e-07	-4.038477e-06	-1.885925e-08	-2.917408e+01	-1.240577e+03
5.500000e-07	-3.908730e-06	-1.864370e-08	-2.823678e+01	-1.226932e+03
5.600000e-07	-3.777513e-06	-1.841580e-08	-2.728887e+01	-1.212316e+03
5.700000e-07	-3.644864e-06	-1.817861e-08	-2.633061e+01	-1.196663e+03
5.800000e-07	-3.510828e-06	-1.793058e-08	-2.536233e+01	-1.179956e+03
5.900000e-07	-3.375497e-06	-1.767144e-08	-2.438469e+01	-1.162224e+03
6.000000e-07	-3.238867e-06	-1.739833e-08	-2.339767e+01	-1.143526e+03
6.100000e-07	-3.100899e-06	-1.711171e-08	-2.240098e+01	-1.123933e+03
6.200000e-07	-2.961656e-06	-1.680606e-08	-2.139509e+01	-1.103506e+03
6.300000e-07	-2.821184e-06	-1.648049e-08	-2.038032e+01	-1.082262e+03
6.400000e-07	-2.679508e-06	-1.613401e-08	-1.935684e+01	-1.060161e+03
6.500000e-07	-2.536695e-06	-1.576899e-08	-1.832516e+01	-1.037079e+03
6.600000e-07	-2.392922e-06	-1.538502e-08	-1.728654e+01	-1.012810e+03
6.700000e-07	-2.248379e-06	-1.497799e-08	-1.624236e+01	-9.870685e+02
6.800000e-07	-2.103043e-06	-1.454401e-08	-1.519244e+01	-9.595093e+02
6.900000e-07	-1.956907e-06	-1.407790e-08	-1.413675e+01	-9.297551e+02
7.000000e-07	-1.810153e-06	-1.357758e-08	-1.307660e+01	-8.974335e+02
7.100000e-07	-1.662898e-06	-1.304047e-08	-1.201283e+01	-8.622163e+02
7.200000e-07	-1.515169e-06	-1.246462e-08	-1.094562e+01	-8.238560e+02
7.300000e-07	-1.366977e-06	-1.184513e-08	-9.875080e+00	-7.822145e+02
7.400000e-07	-1.218367e-06	-1.118056e-08	-8.801520e+00	-7.372813e+02
7.500000e-07	-1.069355e-06	-1.046996e-08	-7.725051e+00	-6.891753e+02
7.600000e-07	-9.199933e-07	-9.708954e-09	-6.646059e+00	-6.381331e+02
7.700000e-07	-7.703501e-07	-8.895692e-09	-5.565032e+00	-5.844816e+02
7.800000e-07	-6.204257e-07	-8.034885e-09	-4.481974e+00	-5.286017e+02
7.900000e-07	-4.702330e-07	-7.135929e-09	-3.396977e+00	-4.708847e+02
8.000000e-07	-3.198639e-07	-6.207107e-09	-2.310706e+00	-4.116898e+02
8.100000e-07	-1.694425e-07	-5.257693e-09	-1.224058e+00	-3.513078e+02
8.200000e-07	-1.895462e-08	-4.296709e-09	-1.369287e-01	-2.899360e+02
8.300000e-07	1.315929e-07	-3.333868e-09	9.506314e-01	-2.276685e+02
8.400000e-07	2.821869e-07	-2.373780e-09	2.038527e+00	-1.645041e+02
8.500000e-07	4.327596e-07	-1.415898e-09	3.126268e+00	-1.003694e+02
8.600000e-07	5.831599e-07	-4.554948e-10	4.212765e+00	-3.515667e+01
8.700000e-07	7.333774e-07	5.165066e-10	5.297940e+00	3.123066e+01
8.800000e-07	8.834037e-07	1.511091e-09	6.381735e+00	9.883022e+01
8.900000e-07	1.033123e-06	2.538927e-09	7.463313e+00	1.675772e+02
9.000000e-07	1.182485e-06	3.598786e-09	8.542311e+00	2.372720e+02
9.100000e-07	1.331443e-06	4.685538e-09	9.618387e+00	3.075636e+02
9.200000e-07	1.479942e-06	5.790827e-09	1.069114e+01	3.779515e+02
9.300000e-07	1.627931e-06	6.893869e-09	1.176022e+01	4.478077e+02
9.400000e-07	1.775350e-06	7.969673e-09	1.282518e+01	5.164152e+02
9.500000e-07	1.922180e-06	8.998205e-09	1.388588e+01	5.830200e+02
9.600000e-07	2.068348e-06	9.967598e-09	1.494181e+01	6.468900e+02
9.700000e-07	2.213729e-06	1.086971e-08	1.599204e+01	7.073737e+02
9.800000e-07	2.358228e-06	1.170041e-08	1.703591e+01	7.639524e+02
9.900000e-07	2.501751e-06	1.246259e-08	1.807273e+01	8.162787e+02
1.000000e-06	2.644294e-06	1.316193e-08	1.910246e+01	8.641987e+02
1.010000e-06	2.785823e-06	1.380562e-08	2.012487e+01	9.077536e+02
1.020000e-06	2.926254e-06	1.439890e-08	2.113935e+01	9.471624e+02
1.030000e-06	3.065515e-06	1.494578e-08	2.214537e+01	9.827885e+02
1.040000e-06	3.203509e-06	1.544887e-08	2.314225e+01	1.015094e+03
1.050000e-06	3.340238e-06	1.591048e-08	2.412998e+01	1.044588e+03
1.060000e-06	3.475731e-06	1.633692e-08	2.510878e+01	1.071775e+03
1.070000e-06	3.609947e-06	1.673397e-08	2.607837e+01	1.097112e+03
1.080000e-06	3.742858e-06	1.710549e-08	2.703852e+01	1.120970e+03
1.090000e-06	3.874437e-06	1.745526e-08	2.798905e+01	1.143622e+03
1.100000e-06	4.004629e-06	1.778527e-08	2.892956e+01	1.165231e+03
1.110000e-06	4.133399e-06	1.809504e-08	2.985980e+01	1.185868e+03
1.120000e-06	4.260672e-06	1.838403e-08	3.077922e+01	1.205525e+03
1.130000e-06	4.386478e-06	1.865311e-08	3.168805e+01	1.224151e+03
1.140000e-06	4.510860e-06	1.890393e-08	3.258659e+01	1.241678e+03
1.150000e-06	4.633709e-06	1.914001e-08	3.347405e+01	1.258052e+03
1.160000e-06	4.754913e-06	1.936388e-08	3.434963e+01	1.273254e+03
1.170000e-06	4.874390e-06	1.957513e-08	3.521274e+01	1.287312e+03
1.180000e-06	4.992105e-06	1.977345e-08	3.606312e+01	1.300305e+03
1.190000e-06	5.107910e-06	1.996091e-08	3.689970e+01	1.312354e+03
1.200000e-06	5.221702e-06	2.014227e-08	3.772173e+01	1.323610e+03
1.210000e-06	5.333493e-06	2.031638e-08	3.852931e+01	1.334232e+03
1.220000e-06	5.443354e-06	2.047997e-08	3.932296e+01	1.344368e+03
1.230000e-06	5.551361e-06	2.063339e-08	4.010320e+01	1.354135e+03
1.240000e-06	5.657356e-06	2.077777e-08	4.086891e+01	1.363611e+03
1.250000e-06	5.761247e-06	2.091371e-08	4.161942e+01	1.372823e+03
1.260000e-06	5.863004e-06	2.104100e-08	4.235452e+01	1.381756e+03
1.270000e-06	5.962605e-06	2.116442e-08	4.307404e+01	1.390359e+03
1.280000e-06	6.060015e-06	2.128491e-08	4.377773e+01	1.398559e+03
1.290000e-06	6.155173e-06	2.139951e-08	4.446515e+01	1.406281e+03
1.300000e-06	6.248163e-06	2.150564e-08	4.513692e+01	1.413463e+03
1.310000e-06	6.339003e-06	2.160201e-08	4.579314e+01	1.420073e+03
1.320000e-06	6.427490e-06	2.169155e-08	4.643238e+01	1.426111e+03
1.330000e-06	6.513567e-06	2.177572e-08	4.705420e+01	1.431619e+03
1.340000e-06	6.597397e-06	2.185512e-08	4.765979e+01	1.436670e+03
1.350000e-06	6.678948e-06	2.193019e-08	4.824892e+01	1.441362e+03
1.360000e-06	6.758057e-06	2.200380e-08	4.882040e+01	1.445800e+03
1.370000e-06	6.834627e-06	2.207647e-08	4.937355e+01	1.450084e+03
1.380000e-06	6.908562e-06	2.214558e-08	4.990766e+01	1.454295e+03
1.390000e-06	6.979938e-06	2.221139e-08	5.042328e+01	1.458480e+03
1.400000e-06	7.048865e-06	2.227256e-08	5.092121e+01	1.462651e+03
1.410000e-06	7.115275e-06	2.232945e-08	5.140096e+01	1.466786e+03
1.420000e-06	7.179078e-06	2.238315e-08	5.186188e+01	1.470830e+03
1.430000e-06	7.240417e-06	2.243348e-08	5.230499e+01	1.474710e+03
1.440000e-06	7.299363e-06	2.248100e-08	5.273082e+01	1.478349e+03
1.450000e-06	7.355690e-06	2.252677e-08	5.313772e+01	1.481676e+03
1.460000e-06	7.409323e-06	2.257126e-08	5.352517e+01	1.484641e+03
1.470000e-06	7.459991e-06	2.261341e-08	5.389120e+01	1.487224e+03
1.480000e-06	7.507581e-06	2.265256e-08	5.423499e+01	1.489435e+03
1.490000e-06	7.552495e-06	2.268833e-08	5.455945e+01	1.491314e+03
1.500000e-06	7.594809e-06	2.271757e-08	5.486513e+01	1.492922e+03
1.510000e-06	7.634356e-06	2.274118e-08	5.515081e+01	1.494337e+03
1.520000e-06	7.671210e-06	2.276351e-08	5.541705e+01	1.495631e+03
1.530000e-06	7.705408e-06	2.278497e-08	5.566410e+01	1.496869e+03
1.540000e-06	7.736865e-06	2.280515e-08	5.589135e+01	1.498092e+03
1.550000e-06	7.765647e-06	2.282383e-08	5.609927e+01	1.499316e+03
1.560000e-06	7.791663e-06	2.284212e-08	5.628721e+01	1.500528e+03
1.570000e-06	7.814762e-06	2.285797e-08	5.645408e+01	1.501691e+03
1.580000e-06	7.835121e-06	2.286920e-08	5.660115e+01	1.502752e+03
1.590000e-06	7.852722e-06	2.287791e-08	5.672830e+01	1.503652e+03
1.600000e-06	7.867358e-06	2.288281e-08	5.683403e+01	1.504338e+03
1.610000e-06	7.878953e-06	2.288383e-08	5.691779e+01	1.504770e+03
1.620000e-06	7.887444e-06	2.288417e-08	5.697913e+01	1.504931e+03
1.630000e-06	7.893069e-06	2.288596e-08	5.701977e+01	1.504827e+03
1.640000e-06	7.895980e-06	2.288900e-08	5.704080e+01	1.504490e+03
1.650000e-06	7.896077e-06	2.289057e-08	5.704150e+01	1.503969e+03
1.660000e-06	7.893474e-06	2.288636e-08	5.702270e+01	1.503321e+03
1.670000e-06	7.888239e-06	2.287905e-08	5.698488e+01	1.502606e+03
1.680000e-06	7.880287e-06	2.287277e-08	5.692743e+01	1.501872e+03
1.690000e-06	7.869705e-06	2.286226e-08	5.685099e+01	1.501150e+03
1.700000e-06	7.856463e-06	2.284960e-08	5.675532e+01	1.500450e+03
1.710000e-06	7.840514e-06	2.283802e-08	5.664011e+01	1.499758e+03
1.720000e-06	7.822170e-06	2.282765e-08	5.650759e+01	1.499042e+03
1.730000e-06	7.801503e-06	2.280157e-08	5.635829e+01	1.498257e+03
1.740000e-06	7.778014e-06	2.273831e-08	5.618860e+01	1.497357e+03
1.750000e-06	7.751119e-06	2.272490e-08	5.599431e+01	1.496299e+03
1.760000e-06	7.720660e-06	2.274327e-08	5.577428e+01	1.495055e+03
1.770000e-06	7.687256e-06	2.271739e-08	5.553297e+01	1.493618e+03
1.780000e-06	7.651617e-06	2.268916e-08	5.527551e+01	1.491998e+03
1.790000e-06	7.613756e-06	2.270062e-08	5.500200e+01	1.490227e+03
1.800000e-06	7.573794e-06	2.267474e-08	5.471332e+01	1.488346e+03
1.810000e-06	7.531753e-06	2.259581e-08	5.440961e+01	1.486398e+03
1.820000e-06	7.487061e-06	2.266499e-08	5.408675e+01	1.484423e+03
1.830000e-06	7.439722e-06	2.264850e-08	5.374477e+01	1.482439e+03
1.840000e-06	7.389681e-06	2.260165e-08	5.338328e+01	1.480447e+03
1.850000e-06	7.336587e-06	2.260944e-08	5.299972e+01	1.478418e+03
1.860000e-06	7.280680e-06	2.251278e-08	5.259585e+01	1.476300e+03
1.870000e-06	7.222169e-06	2.250222e-08	5.217316e+01	1.474025e+03
1.880000e-06	7.161070e-06	2.243477e-08	5.173178e+01	1.471514e+03
1.890000e-06	7.097215e-06	2.239113e-08	5.127049e+01	1.468692e+03
1.900000e-06	7.030577e-06	2.237730e-08	5.078910e+01	1.465500e+03
1.910000e-06	6.961272e-06	2.229129e-08	5.028844e+01	1.461901e+03
1.920000e-06	6.889227e-06	2.225908e-08	4.976798e+01	1.457890e+03
1.930000e-06	6.814505e-06	2.217248e-08	4.922819e+01	1.453494e+03
1.940000e-06	6.737088e-06	2.212174e-08	4.866892e+01	1.448767e+03
1.950000e-06	6.656991e-06	2.205890e-08	4.809031e+01	1.443785e+03
1.960000e-06	6.574453e-06	2.197406e-08	4.749405e+01	1.438626e+03
1.970000e-06	6.489469e-06	2.191907e-08	4.688012e+01	1.433367e+03
1.980000e-06	6.402072e-06	2.182134e-08	4.624876e+01	1.428061e+03
1.990000e-06	6.312447e-06	2.175753e-08	4.560131e+01	1.422732e+03
2.000000e-06	6.220715e-06	2.165918e-08	4.493863e+01	1.417368e+03
2.010000e-06	6.126755e-06	2.157089e-08	4.425986e+01	1.411921e+03
2.020000e-06	6.030518e-06	2.148070e-08	4.356464e+01	1.406314e+03
2.030000e-06	5.932191e-06	2.138121e-08	4.285433e+01	1.400448e+03
2.040000e-06	5.831773e-06	2.128153e-08	4.212890e+01	1.394220e+03
2.050000e-06	5.729188e-06	2.116878e-08	4.138782e+01	1.387539e+03
2.060000e-06	5.624516e-06	2.106502e-08	4.063168e+01	1.380334e+03
2.070000e-06	5.517960e-06	2.093907e-08	3.986191e+01	1.372569e+03
2.080000e-06	5.409512e-06	2.082041e-08	3.907848e+01	1.364248e+03
2.090000e-06	5.299073e-06	2.069665e-08	3.828066e+01	1.355407e+03
2.100000e-06	5.186650e-06	2.057210e-08	3.746852e+01	1.346114e+03
2.110000e-06	5.072381e-06	2.043288e-08	3.664303e+01	1.336448e+03
2.120000e-06	4.956220e-06	2.028624e-08	3.580388e+01	1.326486e+03
2.130000e-06	4.838070e-06	2.012923e-08	3.495036e+01	1.316286e+03
2.140000e-06	4.718073e-06	1.996130e-08	3.408350e+01	1.305872e+03
2.150000e-06	4.596380e-06	1.979244e-08	3.320439e+01	1.295223e+03
2.160000e-06	4.473056e-06	1.962287e-08	3.231349e+01	1.284275e+03
2.170000e-06	4.348014e-06	1.945085e-08	3.141019e+01	1.272921e+03
2.180000e-06	4.221350e-06	1.926440e-08	3.049516e+01	1.261024e+03
2.190000e-06	4.093194e-06	1.907039e-08	2.956936e+01	1.248437e+03
2.200000e-06	3.963529e-06	1.886144e-08	2.863265e+01	1.235018e+03
2.210000e-06	3.832375e-06	1.864133e-08	2.768519e+01	1.220651e+03
2.220000e-06	3.699787e-06	1.841020e-08	2.672737e+01	1.205258e+03
2.230000e-06	3.565794e-06	1.816969e-08	2.575940e+01	1.188812e+03
2.240000e-06	3.430490e-06	1.791295e-08	2.478196e+01	1.171330e+03
2.250000e-06	3.293913e-06	1.763999e-08	2.379532e+01	1.152865e+03
2.260000e-06	3.156077e-06	1.735589e-08	2.279960e+01	1.133488e+03
2.270000e-06	3.017034e-06	1.705909e-08	2.179514e+01	1.113263e+03
2.280000e-06	2.876803e-06	1.674606e-08	2.078211e+01	1.092223e+03
2.290000e-06	2.735455e-06	1.641514e-08	1.976101e+01	1.070343e+03
2.300000e-06	2.593036e-06	1.606618e-08	1.873217e+01	1.047520e+03
2.310000e-06	2.449680e-06	1.569181e-08	1.769656e+01	1.023570e+03
2.320000e-06	2.305468e-06	1.529023e-08	1.665477e+01	9.982252e+02
2.330000e-06	2.160385e-06	1.486029e-08	1.560669e+01	9.711534e+02
2.340000e-06	2.014576e-06	1.440306e-08	1.455336e+01	9.419819e+02
2.350000e-06	1.868208e-06	1.391531e-08	1.349599e+01	9.103334e+02
2.360000e-06	1.721261e-06	1.339131e-08	1.243444e+01	8.758653e+02
2.370000e-06	1.573747e-06	1.282705e-08	1.136879e+01	8.383065e+02
2.380000e-06	1.425699e-06	1.221987e-08	1.029929e+01	7.974897e+02
2.390000e-06	1.277154e-06	1.156979e-08	9.226202e+00	7.533714e+02
2.400000e-06	1.128197e-06	1.087291e-08	8.150128e+00	7.060389e+02
2.410000e-06	9.788600e-07	1.012615e-08	7.071314e+00	6.557012e+02
2.420000e-06	8.291642e-07	9.327800e-09	5.989907e+00	6.026659e+02
2.430000e-06	6.791545e-07	8.478967e-09	4.906232e+00	5.473043e+02
2.440000e-06	5.289281e-07	7.585284e-09	3.820992e+00	4.900091e+02
2.450000e-06	3.785718e-07	6.656656e-09	2.734814e+00	4.311514e+02
2.460000e-06	2.280692e-07	5.705567e-09	1.647579e+00	3.710419e+02
2.470000e-06	7.744819e-08	4.742982e-09	5.594880e-01	3.099028e+02
2.480000e-06	-7.318583e-08	3.778923e-09	-5.286966e-01	2.478542e+02
2.490000e-06	-2.238233e-07	2.818456e-09	-1.616907e+00	1.849167e+02
2.500000e-06	-3.743914e-07	1.859117e-09	-2.704615e+00	1.210323e+02
2.510000e-06	-5.248340e-07	8.944049e-10	-3.791417e+00	5.609758e+01
2.520000e-06	-6.751581e-07	-8.494658e-11	-4.877363e+00	-9.991280e+00
2.530000e-06	-8.252872e-07	-1.083252e-09	-5.961900e+00	-7.729101e+01
2.540000e-06	-9.751696e-07	-2.104679e-09	-7.044655e+00	-1.457660e+02
2.550000e-06	-1.124723e-06	-3.157978e-09	-8.125036e+00	-2.152525e+02
2.560000e-06	-1.273883e-06	-4.240201e-09	-9.202567e+00	-2.854380e+02
2.570000e-06	-1.422530e-06	-5.340979e-09	-1.027640e+01	-3.558581e+02
2.580000e-06	-1.570560e-06	-6.447731e-09	-1.134577e+01	-4.259136e+02
2.590000e-06	-1.718049e-06	-7.541153e-09	-1.241124e+01	-4.949053e+02
2.600000e-06	-1.864953e-06	-8.597346e-09	-1.347248e+01	-5.620832e+02
2.610000e-06	-2.011182e-06	-9.597922e-09	-1.452884e+01	-6.267039e+02
2.620000e-06	-2.156699e-06	-1.053163e-08	-1.558006e+01	-6.880906e+02
2.630000e-06	-2.301360e-06	-1.139544e-08	-1.662509e+01	-7.456870e+02
2.640000e-06	-2.445086e-06	-1.219000e-08	-1.766338e+01	-7.991004e+02
2.650000e-06	-2.587844e-06	-1.291702e-08	-1.869466e+01	-8.481275e+02
2.660000e-06	-2.729551e-06	-1.358429e-08	-1.971836e+01	-8.927614e+02
2.670000e-06	-2.870153e-06	-1.419452e-08	-2.073407e+01	-9.331794e+02
2.680000e-06	-3.009590e-06	-1.475438e-08	-2.174137e+01	-9.697127e+02
2.690000e-06	-3.147798e-06	-1.526872e-08	-2.273978e+01	-1.002803e+03
2.700000e-06	-3.284798e-06	-1.574496e-08	-2.372948e+01	-1.032954e+03
2.710000e-06	-3.420599e-06	-1.618958e-08	-2.471051e+01	-1.060674e+03
2.720000e-06	-3.555165e-06	-1.660225e-08	-2.568262e+01	-1.086436e+03
2.730000e-06	-3.688465e-06	-1.698823e-08	-2.664558e+01	-1.110637e+03
2.740000e-06	-3.820399e-06	-1.734913e-08	-2.759868e+01	-1.133572e+03
2.750000e-06	-3.950960e-06	-1.768507e-08	-2.854185e+01	-1.155434e+03
2.760000e-06	-4.080196e-06	-1.799925e-08	-2.947546e+01	-1.176314e+03
2.770000e-06	-4.208050e-06	-1.829268e-08	-3.039908e+01	-1.196221e+03
2.780000e-06	-4.334425e-06	-1.856660e-08	-3.131202e+01	-1.215113e+03
2.790000e-06	-4.459274e-06	-1.882305e-08	-3.221393e+01	-1.232922e+03
2.800000e-06	-4.582608e-06	-1.906571e-08	-3.310490e+01	-1.249590e+03
2.810000e-06	-4.704352e-06	-1.929794e-08	-3.398438e+01	-1.265086e+03
2.820000e-06	-4.824332e-06	-1.952149e-08	-3.485112e+01	-1.279427e+03
2.830000e-06	-4.942443e-06	-1.973507e-08	-3.570435e+01	-1.292678e+03
2.840000e-06	-5.058574e-06	-1.993458e-08	-3.654329e+01	-1.304951e+03
2.850000e-06	-5.172628e-06	-2.011968e-08	-3.736722e+01	-1.316393e+03
2.860000e-06	-5.284595e-06	-2.029167e-08	-3.817607e+01	-1.327160e+03
2.870000e-06	-5.394573e-06	-2.045385e-08	-3.897056e+01	-1.337407e+03
2.880000e-06	-5.502690e-06	-2.060758e-08	-3.975160e+01	-1.347259e+03
2.890000e-06	-5.608949e-06	-2.075437e-08	-4.051921e+01	-1.356805e+03
2.900000e-06	-5.713186e-06	-2.089531e-08	-4.127223e+01	-1.366085e+03
2.910000e-06	-5.815214e-06	-2.102946e-08	-4.200928e+01	-1.375093e+03
2.920000e-06	-5.915043e-06	-2.115806e-08	-4.273045e+01	-1.383787e+03
2.930000e-06	-6.012836e-06	-2.128086e-08	-4.343691e+01	-1.392096e+03
2.940000e-06	-6.108537e-06	-2.139539e-08	-4.412826e+01	-1.399946e+03
