# Temperatura_=_61.39
# Concentracion g/m^3_=_41000.0
# C_Vs_to_Am_M_A/Vsm_=_65563218390.804596
# pendiente_HvsI_1/m_=_3716.3
# ordenada_HvsI_A/m_=_1297.0
# frecuencia_Hz_=_301609.557009463

Tiempo_(s)	Campo_(V.s)	Magnetizacion_(V.s)	Campo_(kA/m)	Magnetizacion_(A/m)
0.000000e+00	-5.330899e-06	-2.494558e-08	-3.833988e+01	-1.631444e+03
1.000000e-08	-5.328595e-06	-2.494016e-08	-3.832331e+01	-1.631089e+03
2.000000e-08	-5.324511e-06	-2.493404e-08	-3.829394e+01	-1.630847e+03
3.000000e-08	-5.318825e-06	-2.492699e-08	-3.825305e+01	-1.630676e+03
4.000000e-08	-5.311540e-06	-2.491713e-08	-3.820065e+01	-1.630473e+03
5.000000e-08	-5.302547e-06	-2.490362e-08	-3.813598e+01	-1.630110e+03
6.000000e-08	-5.291531e-06	-2.488834e-08	-3.805674e+01	-1.629471e+03
7.000000e-08	-5.278563e-06	-2.487227e-08	-3.796348e+01	-1.628490e+03
8.000000e-08	-5.263509e-06	-2.486484e-08	-3.785521e+01	-1.627171e+03
9.000000e-08	-5.246128e-06	-2.486421e-08	-3.773021e+01	-1.625588e+03
1.000000e-07	-5.226745e-06	-2.484640e-08	-3.759081e+01	-1.623865e+03
1.100000e-07	-5.205531e-06	-2.480896e-08	-3.743824e+01	-1.622138e+03
1.200000e-07	-5.182609e-06	-2.475839e-08	-3.727338e+01	-1.620514e+03
1.300000e-07	-5.158287e-06	-2.471335e-08	-3.709846e+01	-1.619043e+03
1.400000e-07	-5.132422e-06	-2.471691e-08	-3.691243e+01	-1.617699e+03
1.500000e-07	-5.104791e-06	-2.470331e-08	-3.671371e+01	-1.616393e+03
1.600000e-07	-5.075659e-06	-2.464974e-08	-3.650420e+01	-1.615000e+03
1.700000e-07	-5.045098e-06	-2.463928e-08	-3.628440e+01	-1.613394e+03
1.800000e-07	-5.012526e-06	-2.460534e-08	-3.605014e+01	-1.611490e+03
1.900000e-07	-4.977880e-06	-2.454117e-08	-3.580097e+01	-1.609261e+03
2.000000e-07	-4.941710e-06	-2.452532e-08	-3.554083e+01	-1.606749e+03
2.100000e-07	-4.903929e-06	-2.448035e-08	-3.526911e+01	-1.604043e+03
2.200000e-07	-4.864403e-06	-2.441503e-08	-3.498484e+01	-1.601253e+03
2.300000e-07	-4.823019e-06	-2.439302e-08	-3.468720e+01	-1.598467e+03
2.400000e-07	-4.779671e-06	-2.434547e-08	-3.437545e+01	-1.595722e+03
2.500000e-07	-4.734589e-06	-2.428773e-08	-3.405122e+01	-1.592995e+03
2.600000e-07	-4.687743e-06	-2.424483e-08	-3.371430e+01	-1.590202e+03
2.700000e-07	-4.638873e-06	-2.417774e-08	-3.336282e+01	-1.587228e+03
2.800000e-07	-4.587809e-06	-2.412194e-08	-3.299557e+01	-1.583963e+03
2.900000e-07	-4.534799e-06	-2.408356e-08	-3.261432e+01	-1.580336e+03
3.000000e-07	-4.480184e-06	-2.402386e-08	-3.222153e+01	-1.576336e+03
3.100000e-07	-4.423990e-06	-2.396567e-08	-3.181739e+01	-1.572019e+03
3.200000e-07	-4.366017e-06	-2.390351e-08	-3.140044e+01	-1.567491e+03
3.300000e-07	-4.306397e-06	-2.381675e-08	-3.097166e+01	-1.562874e+03
3.400000e-07	-4.245372e-06	-2.374559e-08	-3.053276e+01	-1.558268e+03
3.500000e-07	-4.182881e-06	-2.369172e-08	-3.008332e+01	-1.553716e+03
3.600000e-07	-4.118947e-06	-2.361653e-08	-2.962351e+01	-1.549197e+03
3.700000e-07	-4.053499e-06	-2.353548e-08	-2.915281e+01	-1.544622e+03
3.800000e-07	-3.986429e-06	-2.346295e-08	-2.867044e+01	-1.539867e+03
3.900000e-07	-3.917869e-06	-2.337409e-08	-2.817736e+01	-1.534808e+03
4.000000e-07	-3.848044e-06	-2.328627e-08	-2.767517e+01	-1.529359e+03
4.100000e-07	-3.777078e-06	-2.320779e-08	-2.716478e+01	-1.523501e+03
4.200000e-07	-3.704903e-06	-2.312001e-08	-2.664571e+01	-1.517283e+03
4.300000e-07	-3.631170e-06	-2.302741e-08	-2.611541e+01	-1.510810e+03
4.400000e-07	-3.555769e-06	-2.293141e-08	-2.557313e+01	-1.504207e+03
4.500000e-07	-3.479036e-06	-2.282713e-08	-2.502126e+01	-1.497578e+03
4.600000e-07	-3.400973e-06	-2.272235e-08	-2.445983e+01	-1.490971e+03
4.700000e-07	-3.321435e-06	-2.262092e-08	-2.388780e+01	-1.484359e+03
4.800000e-07	-3.240591e-06	-2.251232e-08	-2.330637e+01	-1.477648e+03
4.900000e-07	-3.158630e-06	-2.239959e-08	-2.271690e+01	-1.470699e+03
5.000000e-07	-3.075648e-06	-2.228804e-08	-2.212010e+01	-1.463372e+03
5.100000e-07	-2.991772e-06	-2.216940e-08	-2.151686e+01	-1.455568e+03
5.200000e-07	-2.907051e-06	-2.203996e-08	-2.090754e+01	-1.447257e+03
5.300000e-07	-2.821390e-06	-2.190723e-08	-2.029147e+01	-1.438488e+03
5.400000e-07	-2.734800e-06	-2.177743e-08	-1.966871e+01	-1.429369e+03
5.500000e-07	-2.647344e-06	-2.164395e-08	-1.903973e+01	-1.420032e+03
5.600000e-07	-2.558894e-06	-2.149887e-08	-1.840359e+01	-1.410588e+03
5.700000e-07	-2.469215e-06	-2.134753e-08	-1.775862e+01	-1.401081e+03
5.800000e-07	-2.378400e-06	-2.119562e-08	-1.710548e+01	-1.391473e+03
5.900000e-07	-2.286781e-06	-2.103799e-08	-1.644656e+01	-1.381646e+03
6.000000e-07	-2.194424e-06	-2.087291e-08	-1.578232e+01	-1.371432e+03
6.100000e-07	-2.101274e-06	-2.070309e-08	-1.511239e+01	-1.360660e+03
6.200000e-07	-2.007382e-06	-2.052859e-08	-1.443711e+01	-1.349209e+03
6.300000e-07	-1.912817e-06	-2.034617e-08	-1.375700e+01	-1.337038e+03
6.400000e-07	-1.817648e-06	-2.015605e-08	-1.307254e+01	-1.324202e+03
6.500000e-07	-1.721857e-06	-1.995919e-08	-1.238361e+01	-1.310828e+03
6.600000e-07	-1.625372e-06	-1.975456e-08	-1.168969e+01	-1.297070e+03
6.700000e-07	-1.528221e-06	-1.954367e-08	-1.099098e+01	-1.283056e+03
6.800000e-07	-1.430408e-06	-1.932450e-08	-1.028751e+01	-1.268831e+03
6.900000e-07	-1.331965e-06	-1.909530e-08	-9.579510e+00	-1.254334e+03
7.000000e-07	-1.233011e-06	-1.885670e-08	-8.867826e+00	-1.239400e+03
7.100000e-07	-1.133661e-06	-1.860938e-08	-8.153301e+00	-1.223799e+03
7.200000e-07	-1.034038e-06	-1.835266e-08	-7.436816e+00	-1.207292e+03
7.300000e-07	-9.341476e-07	-1.808486e-08	-6.718399e+00	-1.189702e+03
7.400000e-07	-8.340042e-07	-1.780646e-08	-5.998167e+00	-1.170952e+03
7.500000e-07	-7.336297e-07	-1.751503e-08	-5.276273e+00	-1.151088e+03
7.600000e-07	-6.329557e-07	-1.720529e-08	-4.552224e+00	-1.130243e+03
7.700000e-07	-5.320362e-07	-1.687890e-08	-3.826410e+00	-1.108578e+03
7.800000e-07	-4.309438e-07	-1.653917e-08	-3.099352e+00	-1.086203e+03
7.900000e-07	-3.297201e-07	-1.618323e-08	-2.371351e+00	-1.063102e+03
8.000000e-07	-2.283871e-07	-1.580691e-08	-1.642563e+00	-1.039093e+03
8.100000e-07	-1.269518e-07	-1.540607e-08	-9.130386e-01	-1.013832e+03
8.200000e-07	-2.545827e-08	-1.498106e-08	-1.830962e-01	-9.868709e+02
8.300000e-07	7.606128e-08	-1.453053e-08	5.470336e-01	-9.577477e+02
8.400000e-07	1.775291e-07	-1.404928e-08	1.276791e+00	-9.260880e+02
8.500000e-07	2.789529e-07	-1.353579e-08	2.006232e+00	-8.916768e+02
8.600000e-07	3.803646e-07	-1.298621e-08	2.735586e+00	-8.544763e+02
8.700000e-07	4.816234e-07	-1.239563e-08	3.463841e+00	-8.145685e+02
8.800000e-07	5.826922e-07	-1.175957e-08	4.190729e+00	-7.720287e+02
8.900000e-07	6.835901e-07	-1.107063e-08	4.916388e+00	-7.267554e+02
9.000000e-07	7.842905e-07	-1.031883e-08	5.640625e+00	-6.783010e+02
9.100000e-07	8.847828e-07	-9.493407e-09	6.363367e+00	-6.257565e+02
9.200000e-07	9.850032e-07	-8.581521e-09	7.084153e+00	-5.677363e+02
9.300000e-07	1.084905e-06	-7.567117e-09	7.802650e+00	-5.024918e+02
9.400000e-07	1.184444e-06	-6.429270e-09	8.518531e+00	-4.281537e+02
9.500000e-07	1.283571e-06	-5.144765e-09	9.231458e+00	-3.430688e+02
9.600000e-07	1.382234e-06	-3.691898e-09	9.941043e+00	-2.461728e+02
9.700000e-07	1.480342e-06	-2.057998e-09	1.064664e+01	-1.373235e+02
9.800000e-07	1.577717e-06	-2.439302e-10	1.134696e+01	-1.751921e+01
9.900000e-07	1.674276e-06	1.728694e-09	1.204141e+01	1.110530e+02
1.000000e-06	1.770115e-06	3.805686e-09	1.273069e+01	2.451635e+02
1.010000e-06	1.865329e-06	5.909815e-09	1.341547e+01	3.808657e+02
1.020000e-06	1.959976e-06	7.958678e-09	1.409617e+01	5.139474e+02
1.030000e-06	2.053982e-06	9.880767e-09	1.477226e+01	6.404306e+02
1.040000e-06	2.147234e-06	1.162693e-08	1.544293e+01	7.570292e+02
1.050000e-06	2.239732e-06	1.317517e-08	1.610818e+01	8.614852e+02
1.060000e-06	2.331569e-06	1.452556e-08	1.676867e+01	9.527299e+02
1.070000e-06	2.422700e-06	1.569011e-08	1.742408e+01	1.030852e+03
1.080000e-06	2.512909e-06	1.668660e-08	1.807287e+01	1.096892e+03
1.090000e-06	2.601992e-06	1.753859e-08	1.871355e+01	1.152527e+03
1.100000e-06	2.689985e-06	1.827094e-08	1.934640e+01	1.199699e+03
1.110000e-06	2.777103e-06	1.890343e-08	1.997296e+01	1.240281e+03
1.120000e-06	2.863330e-06	1.945115e-08	2.059310e+01	1.275832e+03
1.130000e-06	2.948630e-06	1.992886e-08	2.120658e+01	1.307469e+03
1.140000e-06	3.033020e-06	2.034856e-08	2.181351e+01	1.335869e+03
1.150000e-06	3.116528e-06	2.071869e-08	2.241410e+01	1.361364e+03
1.160000e-06	3.199054e-06	2.104705e-08	2.300763e+01	1.384096e+03
1.170000e-06	3.280296e-06	2.133952e-08	2.359193e+01	1.404168e+03
1.180000e-06	3.360241e-06	2.160254e-08	2.416689e+01	1.421764e+03
1.190000e-06	3.438937e-06	2.184173e-08	2.473287e+01	1.437197e+03
1.200000e-06	3.516434e-06	2.206000e-08	2.529023e+01	1.450895e+03
1.210000e-06	3.592755e-06	2.226135e-08	2.583913e+01	1.463334e+03
1.220000e-06	3.667765e-06	2.244931e-08	2.637861e+01	1.474946e+03
1.230000e-06	3.741209e-06	2.262212e-08	2.690682e+01	1.486038e+03
1.240000e-06	3.813030e-06	2.278106e-08	2.742335e+01	1.496751e+03
1.250000e-06	3.883426e-06	2.292935e-08	2.792964e+01	1.507061e+03
1.260000e-06	3.952505e-06	2.306707e-08	2.842646e+01	1.516827e+03
1.270000e-06	4.020336e-06	2.319453e-08	2.891430e+01	1.525866e+03
1.280000e-06	4.086726e-06	2.331195e-08	2.939178e+01	1.534038e+03
1.290000e-06	4.151370e-06	2.342165e-08	2.985670e+01	1.541301e+03
1.300000e-06	4.214482e-06	2.352360e-08	3.031060e+01	1.547734e+03
1.310000e-06	4.276284e-06	2.361908e-08	3.075508e+01	1.553526e+03
1.320000e-06	4.336717e-06	2.371027e-08	3.118972e+01	1.558919e+03
1.330000e-06	4.395767e-06	2.379709e-08	3.161441e+01	1.564145e+03
1.340000e-06	4.453114e-06	2.388047e-08	3.202684e+01	1.569367e+03
1.350000e-06	4.508627e-06	2.395905e-08	3.242609e+01	1.574639e+03
1.360000e-06	4.562503e-06	2.403228e-08	3.281357e+01	1.579906e+03
1.370000e-06	4.614684e-06	2.410120e-08	3.318886e+01	1.585031e+03
1.380000e-06	4.664924e-06	2.416589e-08	3.355018e+01	1.589847e+03
1.390000e-06	4.713199e-06	2.422659e-08	3.389738e+01	1.594217e+03
1.400000e-06	4.759768e-06	2.428418e-08	3.423230e+01	1.598075e+03
1.410000e-06	4.804784e-06	2.433988e-08	3.455605e+01	1.601448e+03
1.420000e-06	4.848267e-06	2.439224e-08	3.486879e+01	1.604445e+03
1.430000e-06	4.889969e-06	2.444058e-08	3.516871e+01	1.607220e+03
1.440000e-06	4.929752e-06	2.448680e-08	3.545483e+01	1.609925e+03
1.450000e-06	4.967889e-06	2.453094e-08	3.572911e+01	1.612662e+03
1.460000e-06	5.004442e-06	2.457239e-08	3.599200e+01	1.615455e+03
1.470000e-06	5.039285e-06	2.460844e-08	3.624259e+01	1.618247e+03
1.480000e-06	5.072237e-06	2.463830e-08	3.647959e+01	1.620921e+03
1.490000e-06	5.103302e-06	2.466411e-08	3.670300e+01	1.623342e+03
1.500000e-06	5.132675e-06	2.468873e-08	3.691425e+01	1.625403e+03
1.510000e-06	5.160434e-06	2.471361e-08	3.711390e+01	1.627058e+03
1.520000e-06	5.186264e-06	2.473811e-08	3.729966e+01	1.628341e+03
1.530000e-06	5.210040e-06	2.476207e-08	3.747066e+01	1.629352e+03
1.540000e-06	5.232024e-06	2.478354e-08	3.762878e+01	1.630230e+03
1.550000e-06	5.252325e-06	2.479995e-08	3.777478e+01	1.631109e+03
1.560000e-06	5.270830e-06	2.481366e-08	3.790787e+01	1.632077e+03
1.570000e-06	5.287347e-06	2.482705e-08	3.802665e+01	1.633150e+03
1.580000e-06	5.301873e-06	2.484004e-08	3.813113e+01	1.634271e+03
1.590000e-06	5.314416e-06	2.485083e-08	3.822134e+01	1.635328e+03
1.600000e-06	5.324810e-06	2.485893e-08	3.829609e+01	1.636192e+03
1.610000e-06	5.333068e-06	2.486540e-08	3.835549e+01	1.636758e+03
1.620000e-06	5.339412e-06	2.486965e-08	3.840111e+01	1.636978e+03
1.630000e-06	5.343997e-06	2.487317e-08	3.843408e+01	1.636876e+03
1.640000e-06	5.346799e-06	2.487561e-08	3.845424e+01	1.636541e+03
1.650000e-06	5.347600e-06	2.487679e-08	3.846000e+01	1.636098e+03
1.660000e-06	5.346495e-06	2.487659e-08	3.845205e+01	1.635671e+03
1.670000e-06	5.343744e-06	2.487298e-08	3.843226e+01	1.635339e+03
1.680000e-06	5.339420e-06	2.486785e-08	3.840117e+01	1.635117e+03
1.690000e-06	5.333305e-06	2.486182e-08	3.835718e+01	1.634947e+03
1.700000e-06	5.325257e-06	2.485297e-08	3.829931e+01	1.634720e+03
1.710000e-06	5.315532e-06	2.484251e-08	3.822936e+01	1.634306e+03
1.720000e-06	5.304220e-06	2.483176e-08	3.814801e+01	1.633596e+03
1.730000e-06	5.291070e-06	2.481385e-08	3.805343e+01	1.632538e+03
1.740000e-06	5.275882e-06	2.477504e-08	3.794420e+01	1.631153e+03
1.750000e-06	5.258412e-06	2.474151e-08	3.781856e+01	1.629527e+03
1.760000e-06	5.238397e-06	2.473690e-08	3.767461e+01	1.627791e+03
1.770000e-06	5.215952e-06	2.474545e-08	3.751319e+01	1.626078e+03
1.780000e-06	5.191903e-06	2.474695e-08	3.734022e+01	1.624484e+03
1.790000e-06	5.167098e-06	2.469086e-08	3.716182e+01	1.623043e+03
1.800000e-06	5.141098e-06	2.463915e-08	3.697483e+01	1.621716e+03
1.810000e-06	5.113121e-06	2.465148e-08	3.677362e+01	1.620401e+03
1.820000e-06	5.083312e-06	2.463601e-08	3.655923e+01	1.618971e+03
1.830000e-06	5.051746e-06	2.462076e-08	3.633221e+01	1.617306e+03
1.840000e-06	5.018228e-06	2.463309e-08	3.609115e+01	1.615330e+03
1.850000e-06	4.983099e-06	2.459634e-08	3.583850e+01	1.613034e+03
1.860000e-06	4.946247e-06	2.458183e-08	3.557347e+01	1.610470e+03
1.870000e-06	4.907369e-06	2.456997e-08	3.529385e+01	1.607737e+03
1.880000e-06	4.866848e-06	2.448778e-08	3.500242e+01	1.604940e+03
1.890000e-06	4.824628e-06	2.445785e-08	3.469878e+01	1.602161e+03
1.900000e-06	4.780715e-06	2.443362e-08	3.438296e+01	1.599423e+03
1.910000e-06	4.735126e-06	2.438478e-08	3.405508e+01	1.596689e+03
1.920000e-06	4.687625e-06	2.437081e-08	3.371345e+01	1.593866e+03
1.930000e-06	4.638519e-06	2.430378e-08	3.336027e+01	1.590837e+03
1.940000e-06	4.587665e-06	2.423956e-08	3.299454e+01	1.587498e+03
1.950000e-06	4.534761e-06	2.419050e-08	3.261405e+01	1.583788e+03
1.960000e-06	4.479933e-06	2.410806e-08	3.221972e+01	1.579712e+03
1.970000e-06	4.423361e-06	2.407009e-08	3.181286e+01	1.575339e+03
1.980000e-06	4.365209e-06	2.401905e-08	3.139463e+01	1.570781e+03
1.990000e-06	4.305659e-06	2.393862e-08	3.096635e+01	1.566158e+03
2.000000e-06	4.244755e-06	2.386723e-08	3.052832e+01	1.561560e+03
2.010000e-06	4.182136e-06	2.379617e-08	3.007796e+01	1.557019e+03
2.020000e-06	4.117728e-06	2.373693e-08	2.961474e+01	1.552496e+03
2.030000e-06	4.051864e-06	2.365048e-08	2.914105e+01	1.547892e+03
2.040000e-06	3.984705e-06	2.357894e-08	2.865804e+01	1.543081e+03
2.050000e-06	3.916180e-06	2.350883e-08	2.816521e+01	1.537942e+03
2.060000e-06	3.846074e-06	2.341142e-08	2.766101e+01	1.532404e+03
2.070000e-06	3.774501e-06	2.332362e-08	2.714625e+01	1.526461e+03
2.080000e-06	3.701702e-06	2.322531e-08	2.662268e+01	1.520177e+03
2.090000e-06	3.627609e-06	2.314518e-08	2.608980e+01	1.513665e+03
2.100000e-06	3.552174e-06	2.305798e-08	2.554728e+01	1.507048e+03
2.110000e-06	3.475247e-06	2.295001e-08	2.499401e+01	1.500421e+03
2.120000e-06	3.396785e-06	2.284803e-08	2.442971e+01	1.493816e+03
2.130000e-06	3.317041e-06	2.274187e-08	2.385620e+01	1.487192e+03
2.140000e-06	3.236168e-06	2.263401e-08	2.327455e+01	1.480441e+03
2.150000e-06	3.154150e-06	2.251101e-08	2.268468e+01	1.473421e+03
2.160000e-06	3.071036e-06	2.239653e-08	2.208692e+01	1.465997e+03
2.170000e-06	2.987002e-06	2.228771e-08	2.148255e+01	1.458083e+03
2.180000e-06	2.901906e-06	2.216720e-08	2.087054e+01	1.449666e+03
2.190000e-06	2.815506e-06	2.203446e-08	2.024915e+01	1.440810e+03
2.200000e-06	2.727934e-06	2.189585e-08	1.961933e+01	1.431632e+03
2.210000e-06	2.639441e-06	2.176638e-08	1.898288e+01	1.422264e+03
2.220000e-06	2.550072e-06	2.162608e-08	1.834015e+01	1.412804e+03
2.230000e-06	2.459818e-06	2.147412e-08	1.769104e+01	1.403280e+03
2.240000e-06	2.368819e-06	2.132250e-08	1.703657e+01	1.393637e+03
2.250000e-06	2.277140e-06	2.117007e-08	1.637722e+01	1.383741e+03
2.260000e-06	2.184749e-06	2.100618e-08	1.571274e+01	1.373419e+03
2.270000e-06	2.091472e-06	2.083293e-08	1.504189e+01	1.362509e+03
2.280000e-06	1.997189e-06	2.066104e-08	1.436381e+01	1.350902e+03
2.290000e-06	1.902084e-06	2.048436e-08	1.367981e+01	1.338580e+03
2.300000e-06	1.806298e-06	2.029731e-08	1.299091e+01	1.325615e+03
2.310000e-06	1.709919e-06	2.009675e-08	1.229775e+01	1.312145e+03
2.320000e-06	1.613053e-06	1.988957e-08	1.160110e+01	1.298322e+03
2.330000e-06	1.515687e-06	1.967750e-08	1.090084e+01	1.284261e+03
2.340000e-06	1.417829e-06	1.945633e-08	1.019704e+01	1.269986e+03
2.350000e-06	1.319469e-06	1.922648e-08	9.489632e+00	1.255411e+03
2.360000e-06	1.220667e-06	1.898793e-08	8.779048e+00	1.240354e+03
2.370000e-06	1.121560e-06	1.874178e-08	8.066268e+00	1.224576e+03
2.380000e-06	1.022175e-06	1.848349e-08	7.351490e+00	1.207848e+03
2.390000e-06	9.225196e-07	1.821050e-08	6.634771e+00	1.190010e+03
2.400000e-06	8.226238e-07	1.792557e-08	5.916319e+00	1.171014e+03
2.410000e-06	7.224961e-07	1.763211e-08	5.196200e+00	1.150925e+03
2.420000e-06	6.221345e-07	1.732477e-08	4.474398e+00	1.129889e+03
2.430000e-06	5.215718e-07	1.699921e-08	3.751150e+00	1.108065e+03
2.440000e-06	4.208249e-07	1.665601e-08	3.026577e+00	1.085540e+03
2.450000e-06	3.198834e-07	1.629470e-08	2.300605e+00	1.062265e+03
2.460000e-06	2.187735e-07	1.591412e-08	1.573421e+00	1.038020e+03
2.470000e-06	1.175253e-07	1.551253e-08	8.452433e-01	1.012434e+03
2.480000e-06	1.609987e-08	1.508920e-08	1.157904e-01	9.850453e+02
2.490000e-06	-8.536351e-08	1.463782e-08	-6.139353e-01	9.554044e+02
2.500000e-06	-1.866907e-07	1.414999e-08	-1.342681e+00	9.231658e+02
2.510000e-06	-2.879313e-07	1.362274e-08	-2.070805e+00	8.881534e+02
2.520000e-06	-3.890822e-07	1.305804e-08	-2.798283e+00	8.503626e+02
2.530000e-06	-4.900756e-07	1.245472e-08	-3.524629e+00	8.098867e+02
2.540000e-06	-5.909046e-07	1.180664e-08	-4.249792e+00	7.667780e+02
2.550000e-06	-6.914958e-07	1.110543e-08	-4.973245e+00	7.208741e+02
2.560000e-06	-7.917864e-07	1.034033e-08	-5.694536e+00	6.716355e+02
2.570000e-06	-8.918107e-07	9.500262e-09	-6.413912e+00	6.180481e+02
2.580000e-06	-9.915904e-07	8.573132e-09	-7.131529e+00	5.586344e+02
2.590000e-06	-1.091070e-06	7.541023e-09	-7.846986e+00	4.915958e+02
2.600000e-06	-1.190166e-06	6.382013e-09	-8.559685e+00	4.150784e+02
2.610000e-06	-1.288822e-06	5.073801e-09	-9.269218e+00	3.275241e+02
2.620000e-06	-1.386981e-06	3.595627e-09	-9.975181e+00	2.280409e+02
2.630000e-06	-1.484701e-06	1.934434e-09	-1.067798e+01	1.167179e+02
2.640000e-06	-1.582027e-06	9.244973e-11	-1.137796e+01	-5.189505e+00
2.650000e-06	-1.678811e-06	-1.903252e-09	-1.207403e+01	-1.352519e+02
2.660000e-06	-1.775019e-06	-3.996511e-09	-1.276596e+01	-2.700535e+02
2.670000e-06	-1.870700e-06	-6.108276e-09	-1.345409e+01	-4.055495e+02
2.680000e-06	-1.965738e-06	-8.153432e-09	-1.413761e+01	-5.375360e+02
2.690000e-06	-2.059819e-06	-1.006385e-08	-1.481424e+01	-6.621479e+02
2.700000e-06	-2.152839e-06	-1.179607e-08	-1.548324e+01	-7.762963e+02
2.710000e-06	-2.245022e-06	-1.332848e-08	-1.614622e+01	-8.779712e+02
2.720000e-06	-2.336521e-06	-1.466269e-08	-1.680429e+01	-9.663610e+02
2.730000e-06	-2.427274e-06	-1.581445e-08	-1.745698e+01	-1.041780e+03
2.740000e-06	-2.517141e-06	-1.680387e-08	-1.810331e+01	-1.105437e+03
2.750000e-06	-2.606115e-06	-1.765190e-08	-1.874321e+01	-1.159093e+03
2.760000e-06	-2.694272e-06	-1.837976e-08	-1.937723e+01	-1.204704e+03
2.770000e-06	-2.781655e-06	-1.900863e-08	-2.000569e+01	-1.244092e+03
2.780000e-06	-2.868025e-06	-1.955133e-08	-2.062687e+01	-1.278727e+03
2.790000e-06	-2.953122e-06	-2.002086e-08	-2.123889e+01	-1.309629e+03
2.800000e-06	-3.037100e-06	-2.043440e-08	-2.184285e+01	-1.337388e+03
2.810000e-06	-3.120085e-06	-2.080193e-08	-2.243968e+01	-1.362284e+03
2.820000e-06	-3.201960e-06	-2.112824e-08	-2.302853e+01	-1.384437e+03
2.830000e-06	-3.282799e-06	-2.141938e-08	-2.360993e+01	-1.403960e+03
2.840000e-06	-3.362697e-06	-2.168147e-08	-2.418455e+01	-1.421062e+03
2.850000e-06	-3.441404e-06	-2.192015e-08	-2.475061e+01	-1.436086e+03
2.860000e-06	-3.518537e-06	-2.214056e-08	-2.530535e+01	-1.449475e+03
2.870000e-06	-3.594145e-06	-2.234289e-08	-2.584913e+01	-1.461705e+03
2.880000e-06	-3.668380e-06	-2.252722e-08	-2.638303e+01	-1.473186e+03
2.890000e-06	-3.741281e-06	-2.269683e-08	-2.690733e+01	-1.484192e+03
2.900000e-06	-3.812944e-06	-2.285381e-08	-2.742273e+01	-1.494827e+03
2.910000e-06	-3.883155e-06	-2.300157e-08	-2.792769e+01	-1.505036e+03
2.920000e-06	-3.951816e-06	-2.314186e-08	-2.842150e+01	-1.514663e+03
2.930000e-06	-4.019109e-06	-2.327272e-08	-2.890548e+01	-1.523527e+03
2.940000e-06	-4.085072e-06	-2.339158e-08	-2.937988e+01	-1.531504e+03
