# Temperatura_=_94.25
# Concentracion g/m^3_=_41000.0
# C_Vs_to_Am_M_A/Vsm_=_65563218390.804596
# pendiente_HvsI_1/m_=_3716.3
# ordenada_HvsI_A/m_=_1297.0
# frecuencia_Hz_=_301608.7571148846

Tiempo_(s)	Campo_(V.s)	Magnetizacion_(V.s)	Campo_(kA/m)	Magnetizacion_(A/m)
0.000000e+00	-5.319738e-06	-2.305530e-08	-3.834633e+01	-1.506394e+03
1.000000e-08	-5.317524e-06	-2.304799e-08	-3.833037e+01	-1.506280e+03
2.000000e-08	-5.313514e-06	-2.304118e-08	-3.830146e+01	-1.506257e+03
3.000000e-08	-5.307855e-06	-2.303263e-08	-3.826067e+01	-1.506199e+03
4.000000e-08	-5.300617e-06	-2.301994e-08	-3.820850e+01	-1.505954e+03
5.000000e-08	-5.291619e-06	-2.300587e-08	-3.814364e+01	-1.505388e+03
6.000000e-08	-5.280542e-06	-2.299054e-08	-3.806379e+01	-1.504430e+03
7.000000e-08	-5.267593e-06	-2.296944e-08	-3.797045e+01	-1.503094e+03
8.000000e-08	-5.252635e-06	-2.295014e-08	-3.786263e+01	-1.501476e+03
9.000000e-08	-5.235385e-06	-2.294376e-08	-3.773829e+01	-1.499728e+03
1.000000e-07	-5.216056e-06	-2.292918e-08	-3.759895e+01	-1.498015e+03
1.100000e-07	-5.194830e-06	-2.289962e-08	-3.744595e+01	-1.496465e+03
1.200000e-07	-5.171892e-06	-2.285672e-08	-3.728061e+01	-1.495131e+03
1.300000e-07	-5.147616e-06	-2.280322e-08	-3.710562e+01	-1.493981e+03
1.400000e-07	-5.121849e-06	-2.280585e-08	-3.691988e+01	-1.492903e+03
1.500000e-07	-5.094267e-06	-2.278911e-08	-3.672107e+01	-1.491741e+03
1.600000e-07	-5.065170e-06	-2.272483e-08	-3.651132e+01	-1.490341e+03
1.700000e-07	-5.034663e-06	-2.273393e-08	-3.629142e+01	-1.488592e+03
1.800000e-07	-5.002232e-06	-2.270131e-08	-3.605765e+01	-1.486458e+03
1.900000e-07	-4.967720e-06	-2.262093e-08	-3.580887e+01	-1.483980e+03
2.000000e-07	-4.931634e-06	-2.260410e-08	-3.554876e+01	-1.481261e+03
2.100000e-07	-4.893967e-06	-2.254920e-08	-3.527724e+01	-1.478429e+03
2.200000e-07	-4.854553e-06	-2.249087e-08	-3.499313e+01	-1.475593e+03
2.300000e-07	-4.813240e-06	-2.247941e-08	-3.469533e+01	-1.472805e+03
2.400000e-07	-4.769928e-06	-2.242402e-08	-3.438313e+01	-1.470049e+03
2.500000e-07	-4.724918e-06	-2.237015e-08	-3.405868e+01	-1.467242e+03
2.600000e-07	-4.678192e-06	-2.232688e-08	-3.372187e+01	-1.464259e+03
2.700000e-07	-4.629594e-06	-2.224629e-08	-3.337156e+01	-1.460979e+03
2.800000e-07	-4.578902e-06	-2.217524e-08	-3.300616e+01	-1.457320e+03
2.900000e-07	-4.526147e-06	-2.214150e-08	-3.262588e+01	-1.453265e+03
3.000000e-07	-4.471746e-06	-2.210446e-08	-3.223374e+01	-1.448870e+03
3.100000e-07	-4.415765e-06	-2.202777e-08	-3.183021e+01	-1.444245e+03
3.200000e-07	-4.357959e-06	-2.193761e-08	-3.141353e+01	-1.439519e+03
3.300000e-07	-4.298481e-06	-2.186211e-08	-3.098479e+01	-1.434801e+03
3.400000e-07	-4.237576e-06	-2.179227e-08	-3.054577e+01	-1.430142e+03
3.500000e-07	-4.175254e-06	-2.172716e-08	-3.009653e+01	-1.425522e+03
3.600000e-07	-4.111622e-06	-2.165449e-08	-2.963785e+01	-1.420854e+03
3.700000e-07	-4.046430e-06	-2.156990e-08	-2.916793e+01	-1.416012e+03
3.800000e-07	-3.979497e-06	-2.148415e-08	-2.868546e+01	-1.410870e+03
3.900000e-07	-3.911102e-06	-2.139011e-08	-2.819244e+01	-1.405343e+03
4.000000e-07	-3.841414e-06	-2.130088e-08	-2.769011e+01	-1.399414e+03
4.100000e-07	-3.770526e-06	-2.121785e-08	-2.717913e+01	-1.393139e+03
4.200000e-07	-3.698490e-06	-2.113124e-08	-2.665987e+01	-1.386628e+03
4.300000e-07	-3.625046e-06	-2.103545e-08	-2.613046e+01	-1.380012e+03
4.400000e-07	-3.549950e-06	-2.093414e-08	-2.558915e+01	-1.373396e+03
4.500000e-07	-3.473391e-06	-2.082886e-08	-2.503729e+01	-1.366823e+03
4.600000e-07	-3.395558e-06	-2.072200e-08	-2.447624e+01	-1.360262e+03
4.700000e-07	-3.316310e-06	-2.061662e-08	-2.390500e+01	-1.353609e+03
4.800000e-07	-3.235666e-06	-2.050330e-08	-2.332369e+01	-1.346719e+03
4.900000e-07	-3.153890e-06	-2.038620e-08	-2.273422e+01	-1.339454e+03
5.000000e-07	-3.071076e-06	-2.027019e-08	-2.213727e+01	-1.331718e+03
5.100000e-07	-2.987351e-06	-2.014737e-08	-2.153376e+01	-1.323494e+03
5.200000e-07	-2.902817e-06	-2.001525e-08	-2.092441e+01	-1.314846e+03
5.300000e-07	-2.817323e-06	-1.988343e-08	-2.030814e+01	-1.305900e+03
5.400000e-07	-2.730841e-06	-1.975249e-08	-1.968476e+01	-1.296797e+03
5.500000e-07	-2.643541e-06	-1.961756e-08	-1.905547e+01	-1.287652e+03
5.600000e-07	-2.555374e-06	-1.947343e-08	-1.841993e+01	-1.278506e+03
5.700000e-07	-2.466084e-06	-1.932177e-08	-1.777630e+01	-1.269309e+03
5.800000e-07	-2.375588e-06	-1.916660e-08	-1.712398e+01	-1.259929e+03
5.900000e-07	-2.284128e-06	-1.900758e-08	-1.646471e+01	-1.250188e+03
6.000000e-07	-2.191955e-06	-1.884491e-08	-1.580029e+01	-1.239913e+03
6.100000e-07	-2.099083e-06	-1.867772e-08	-1.513084e+01	-1.228991e+03
6.200000e-07	-2.005419e-06	-1.850677e-08	-1.445568e+01	-1.217399e+03
6.300000e-07	-1.911006e-06	-1.832914e-08	-1.377512e+01	-1.205217e+03
6.400000e-07	-1.815993e-06	-1.814297e-08	-1.309024e+01	-1.192596e+03
6.500000e-07	-1.720385e-06	-1.794899e-08	-1.240107e+01	-1.179708e+03
6.600000e-07	-1.624187e-06	-1.775012e-08	-1.170764e+01	-1.166685e+03
6.700000e-07	-1.527400e-06	-1.754778e-08	-1.100997e+01	-1.153564e+03
6.800000e-07	-1.429934e-06	-1.733752e-08	-1.030741e+01	-1.140261e+03
6.900000e-07	-1.331758e-06	-1.711707e-08	-9.599725e+00	-1.126584e+03
7.000000e-07	-1.232979e-06	-1.688665e-08	-8.887696e+00	-1.112279e+03
7.100000e-07	-1.133772e-06	-1.664716e-08	-8.172579e+00	-1.097095e+03
7.200000e-07	-1.034235e-06	-1.639958e-08	-7.455091e+00	-1.080858e+03
7.300000e-07	-9.344442e-07	-1.614437e-08	-6.735765e+00	-1.063519e+03
7.400000e-07	-8.344121e-07	-1.588010e-08	-6.014702e+00	-1.045160e+03
7.500000e-07	-7.341326e-07	-1.560329e-08	-5.291856e+00	-1.025960e+03
7.600000e-07	-6.336417e-07	-1.530734e-08	-4.567487e+00	-1.006120e+03
7.700000e-07	-5.330156e-07	-1.499256e-08	-3.842142e+00	-9.857731e+02
7.800000e-07	-4.322469e-07	-1.466287e-08	-3.115770e+00	-9.649056e+02
7.900000e-07	-3.313237e-07	-1.431934e-08	-2.388284e+00	-9.433142e+02
8.000000e-07	-2.302953e-07	-1.395939e-08	-1.660041e+00	-9.206192e+02
8.100000e-07	-1.291070e-07	-1.357718e-08	-9.306434e-01	-8.963320e+02
8.200000e-07	-2.782676e-08	-1.317069e-08	-2.005839e-01	-8.699597e+02
8.300000e-07	7.339896e-08	-1.273591e-08	5.290826e-01	-8.411161e+02
8.400000e-07	1.746542e-07	-1.226814e-08	1.258962e+00	-8.095995e+02
8.500000e-07	2.759108e-07	-1.176442e-08	1.988851e+00	-7.754068e+02
8.600000e-07	3.770196e-07	-1.122288e-08	2.717675e+00	-7.386644e+02
8.700000e-07	4.780174e-07	-1.063798e-08	3.445698e+00	-6.994857e+02
8.800000e-07	5.788972e-07	-1.000003e-08	4.172871e+00	-6.577835e+02
8.900000e-07	6.796073e-07	-9.301829e-09	4.898821e+00	-6.130884e+02
9.000000e-07	7.801085e-07	-8.532118e-09	5.623265e+00	-5.644317e+02
9.100000e-07	8.804143e-07	-7.678724e-09	6.346301e+00	-5.103394e+02
9.200000e-07	9.805370e-07	-6.723713e-09	7.068016e+00	-4.489684e+02
9.300000e-07	1.080367e-06	-5.645912e-09	7.787625e+00	-3.783771e+02
9.400000e-07	1.179768e-06	-4.422848e-09	8.504133e+00	-2.968937e+02
9.500000e-07	1.278739e-06	-3.030638e-09	9.217552e+00	-2.035120e+02
9.600000e-07	1.377252e-06	-1.453849e-09	9.927662e+00	-9.823394e+01
9.700000e-07	1.475048e-06	3.050831e-10	1.063260e+01	1.772044e+01
9.800000e-07	1.572064e-06	2.216289e-09	1.133192e+01	1.418933e+02
9.900000e-07	1.668410e-06	4.219636e-09	1.202642e+01	2.707781e+02
1.000000e-06	1.764117e-06	6.233047e-09	1.271630e+01	4.001952e+02
1.010000e-06	1.859197e-06	8.168624e-09	1.340167e+01	5.257915e+02
1.020000e-06	1.953665e-06	9.952259e-09	1.408262e+01	6.435745e+02
1.030000e-06	2.047435e-06	1.153920e-08	1.475855e+01	7.503850e+02
1.040000e-06	2.140493e-06	1.291609e-08	1.542934e+01	8.442233e+02
1.050000e-06	2.232922e-06	1.409252e-08	1.609560e+01	9.243785e+02
1.060000e-06	2.324698e-06	1.508834e-08	1.675715e+01	9.913472e+02
1.070000e-06	2.415732e-06	1.592803e-08	1.741335e+01	1.046575e+03
1.080000e-06	2.505758e-06	1.663400e-08	1.806228e+01	1.092082e+03
1.090000e-06	2.594618e-06	1.723052e-08	1.870282e+01	1.130062e+03
1.100000e-06	2.682428e-06	1.774138e-08	1.933578e+01	1.162523e+03
1.110000e-06	2.769370e-06	1.818127e-08	1.996248e+01	1.191041e+03
1.120000e-06	2.855472e-06	1.856374e-08	2.058313e+01	1.216662e+03
1.130000e-06	2.940647e-06	1.890211e-08	2.119710e+01	1.239927e+03
1.140000e-06	3.024930e-06	1.920352e-08	2.180464e+01	1.261012e+03
1.150000e-06	3.108312e-06	1.947185e-08	2.240568e+01	1.279909e+03
1.160000e-06	3.190611e-06	1.971367e-08	2.299892e+01	1.296604e+03
1.170000e-06	3.271664e-06	1.993516e-08	2.358317e+01	1.311205e+03
1.180000e-06	3.351475e-06	2.013892e-08	2.415848e+01	1.323986e+03
1.190000e-06	3.430073e-06	2.032549e-08	2.472504e+01	1.335359e+03
1.200000e-06	3.507452e-06	2.049654e-08	2.528280e+01	1.345794e+03
1.210000e-06	3.583613e-06	2.065720e-08	2.583180e+01	1.355709e+03
1.220000e-06	3.658373e-06	2.080841e-08	2.637069e+01	1.365383e+03
1.230000e-06	3.731483e-06	2.094865e-08	2.689769e+01	1.374913e+03
1.240000e-06	3.803120e-06	2.107863e-08	2.741408e+01	1.384219e+03
1.250000e-06	3.873476e-06	2.119994e-08	2.792122e+01	1.393107e+03
1.260000e-06	3.942532e-06	2.131359e-08	2.841900e+01	1.401354e+03
1.270000e-06	4.010303e-06	2.142057e-08	2.890751e+01	1.408796e+03
1.280000e-06	4.076612e-06	2.152247e-08	2.938549e+01	1.415388e+03
1.290000e-06	4.141191e-06	2.161860e-08	2.985099e+01	1.421227e+03
1.300000e-06	4.204177e-06	2.170962e-08	3.030502e+01	1.426522e+03
1.310000e-06	4.265832e-06	2.179601e-08	3.074945e+01	1.431536e+03
1.320000e-06	4.326198e-06	2.187693e-08	3.118458e+01	1.436509e+03
1.330000e-06	4.385112e-06	2.195401e-08	3.160925e+01	1.441593e+03
1.340000e-06	4.442238e-06	2.202860e-08	3.202103e+01	1.446815e+03
1.350000e-06	4.497601e-06	2.210067e-08	3.242011e+01	1.452084e+03
1.360000e-06	4.551389e-06	2.216998e-08	3.280783e+01	1.457225e+03
1.370000e-06	4.603486e-06	2.223618e-08	3.318336e+01	1.462041e+03
1.380000e-06	4.653574e-06	2.229916e-08	3.354441e+01	1.466382e+03
1.390000e-06	4.701709e-06	2.235816e-08	3.389139e+01	1.470186e+03
1.400000e-06	4.748217e-06	2.241271e-08	3.422663e+01	1.473499e+03
1.410000e-06	4.793163e-06	2.246268e-08	3.455061e+01	1.476459e+03
1.420000e-06	4.836575e-06	2.250896e-08	3.486354e+01	1.479247e+03
1.430000e-06	4.878153e-06	2.255428e-08	3.516325e+01	1.482032e+03
1.440000e-06	4.917826e-06	2.259858e-08	3.544922e+01	1.484916e+03
1.450000e-06	4.955880e-06	2.264056e-08	3.572353e+01	1.487911e+03
1.460000e-06	4.992402e-06	2.267975e-08	3.598679e+01	1.490932e+03
1.470000e-06	5.027245e-06	2.271628e-08	3.623795e+01	1.493832e+03
1.480000e-06	5.060150e-06	2.274903e-08	3.647514e+01	1.496450e+03
1.490000e-06	5.091238e-06	2.277621e-08	3.669923e+01	1.498662e+03
1.500000e-06	5.120639e-06	2.280014e-08	3.691116e+01	1.500424e+03
1.510000e-06	5.148410e-06	2.282344e-08	3.711134e+01	1.501782e+03
1.520000e-06	5.174292e-06	2.284639e-08	3.729791e+01	1.502861e+03
1.530000e-06	5.198069e-06	2.286900e-08	3.746930e+01	1.503822e+03
1.540000e-06	5.219970e-06	2.288935e-08	3.762717e+01	1.504816e+03
1.550000e-06	5.240185e-06	2.290690e-08	3.777289e+01	1.505937e+03
1.560000e-06	5.258636e-06	2.292248e-08	3.790589e+01	1.507194e+03
1.570000e-06	5.275147e-06	2.293836e-08	3.802490e+01	1.508511e+03
1.580000e-06	5.289704e-06	2.295267e-08	3.812983e+01	1.509751e+03
1.590000e-06	5.302245e-06	2.296236e-08	3.822023e+01	1.510765e+03
1.600000e-06	5.312625e-06	2.296964e-08	3.829506e+01	1.511434e+03
1.610000e-06	5.320881e-06	2.297471e-08	3.835457e+01	1.511711e+03
1.620000e-06	5.327269e-06	2.297823e-08	3.840061e+01	1.511634e+03
1.630000e-06	5.331906e-06	2.298137e-08	3.843404e+01	1.511314e+03
1.640000e-06	5.334694e-06	2.298336e-08	3.845413e+01	1.510900e+03
1.650000e-06	5.335507e-06	2.298440e-08	3.846000e+01	1.510533e+03
1.660000e-06	5.334480e-06	2.298292e-08	3.845260e+01	1.510302e+03
1.670000e-06	5.331768e-06	2.297793e-08	3.843305e+01	1.510214e+03
1.680000e-06	5.327453e-06	2.297291e-08	3.840194e+01	1.510195e+03
1.690000e-06	5.321335e-06	2.296752e-08	3.835784e+01	1.510110e+03
1.700000e-06	5.313374e-06	2.295861e-08	3.830046e+01	1.509805e+03
1.710000e-06	5.303830e-06	2.294809e-08	3.823166e+01	1.509158e+03
1.720000e-06	5.292638e-06	2.293944e-08	3.815098e+01	1.508114e+03
1.730000e-06	5.279541e-06	2.293450e-08	3.805658e+01	1.506706e+03
1.740000e-06	5.264387e-06	2.290188e-08	3.794734e+01	1.505046e+03
1.750000e-06	5.247031e-06	2.286304e-08	3.782223e+01	1.503291e+03
1.760000e-06	5.227154e-06	2.284346e-08	3.767895e+01	1.501604e+03
1.770000e-06	5.204810e-06	2.283783e-08	3.751789e+01	1.500098e+03
1.780000e-06	5.180899e-06	2.284725e-08	3.734554e+01	1.498809e+03
1.790000e-06	5.156222e-06	2.279626e-08	3.716766e+01	1.497685e+03
1.800000e-06	5.130336e-06	2.276288e-08	3.698106e+01	1.496602e+03
1.810000e-06	5.102524e-06	2.278282e-08	3.678058e+01	1.495401e+03
1.820000e-06	5.072857e-06	2.272030e-08	3.656673e+01	1.493933e+03
1.830000e-06	5.041399e-06	2.269754e-08	3.633998e+01	1.492101e+03
1.840000e-06	5.007998e-06	2.273285e-08	3.609921e+01	1.489886e+03
1.850000e-06	4.972995e-06	2.268308e-08	3.584690e+01	1.487346e+03
1.860000e-06	4.936280e-06	2.264823e-08	3.558225e+01	1.484592e+03
1.870000e-06	4.897507e-06	2.260893e-08	3.530276e+01	1.481750e+03
1.880000e-06	4.857048e-06	2.253166e-08	3.501112e+01	1.478921e+03
1.890000e-06	4.814909e-06	2.252009e-08	3.470737e+01	1.476144e+03
1.900000e-06	4.771122e-06	2.247157e-08	3.439173e+01	1.473385e+03
1.910000e-06	4.725655e-06	2.241058e-08	3.406400e+01	1.470551e+03
1.920000e-06	4.678308e-06	2.242063e-08	3.372270e+01	1.467513e+03
1.930000e-06	4.629322e-06	2.237272e-08	3.336959e+01	1.464157e+03
1.940000e-06	4.578557e-06	2.227904e-08	3.300366e+01	1.460411e+03
1.950000e-06	4.525751e-06	2.218474e-08	3.262302e+01	1.456276e+03
1.960000e-06	4.471065e-06	2.213058e-08	3.222883e+01	1.451820e+03
1.970000e-06	4.414670e-06	2.211204e-08	3.182232e+01	1.447162e+03
1.980000e-06	4.356696e-06	2.203045e-08	3.140442e+01	1.442429e+03
1.990000e-06	4.297314e-06	2.195774e-08	3.097637e+01	1.437721e+03
2.000000e-06	4.236518e-06	2.189422e-08	3.053814e+01	1.433074e+03
2.010000e-06	4.174059e-06	2.180615e-08	3.008791e+01	1.428453e+03
2.020000e-06	4.109840e-06	2.173200e-08	2.962501e+01	1.423758e+03
2.030000e-06	4.044170e-06	2.164590e-08	2.915163e+01	1.418861e+03
2.040000e-06	3.977236e-06	2.158433e-08	2.866916e+01	1.413640e+03
2.050000e-06	3.908992e-06	2.150772e-08	2.817723e+01	1.408025e+03
2.060000e-06	3.839139e-06	2.139957e-08	2.767371e+01	1.402015e+03
2.070000e-06	3.767742e-06	2.130597e-08	2.715906e+01	1.395678e+03
2.080000e-06	3.695129e-06	2.120937e-08	2.663564e+01	1.389134e+03
2.090000e-06	3.621226e-06	2.112402e-08	2.610293e+01	1.382510e+03
2.100000e-06	3.546010e-06	2.102573e-08	2.556075e+01	1.375901e+03
2.110000e-06	3.469327e-06	2.092076e-08	2.500799e+01	1.369336e+03
2.120000e-06	3.391108e-06	2.082122e-08	2.444416e+01	1.362765e+03
2.130000e-06	3.311610e-06	2.071315e-08	2.387112e+01	1.356073e+03
2.140000e-06	3.230963e-06	2.059822e-08	2.328979e+01	1.349113e+03
2.150000e-06	3.149191e-06	2.047303e-08	2.270035e+01	1.341752e+03
2.160000e-06	3.066359e-06	2.036163e-08	2.210327e+01	1.333909e+03
2.170000e-06	2.982589e-06	2.024903e-08	2.149943e+01	1.325586e+03
2.180000e-06	2.897766e-06	2.012330e-08	2.088800e+01	1.316862e+03
2.190000e-06	2.811680e-06	1.999188e-08	2.026747e+01	1.307870e+03
2.200000e-06	2.724391e-06	1.985758e-08	1.963826e+01	1.298750e+03
2.210000e-06	2.636133e-06	1.972452e-08	1.900206e+01	1.289604e+03
2.220000e-06	2.546987e-06	1.958297e-08	1.835948e+01	1.280453e+03
2.230000e-06	2.456902e-06	1.943709e-08	1.771012e+01	1.271229e+03
2.240000e-06	2.366049e-06	1.928682e-08	1.705522e+01	1.261787e+03
2.250000e-06	2.274599e-06	1.913228e-08	1.639602e+01	1.251944e+03
2.260000e-06	2.182442e-06	1.897017e-08	1.573172e+01	1.241537e+03
2.270000e-06	2.089423e-06	1.880090e-08	1.506121e+01	1.230469e+03
2.280000e-06	1.995490e-06	1.863109e-08	1.438411e+01	1.218741e+03
2.290000e-06	1.900641e-06	1.845818e-08	1.370041e+01	1.206450e+03
2.300000e-06	1.805032e-06	1.827994e-08	1.301123e+01	1.193757e+03
2.310000e-06	1.708866e-06	1.808802e-08	1.231804e+01	1.180831e+03
2.320000e-06	1.612247e-06	1.788554e-08	1.162158e+01	1.167787e+03
2.330000e-06	1.515130e-06	1.767886e-08	1.092153e+01	1.154637e+03
2.340000e-06	1.417441e-06	1.746653e-08	1.021736e+01	1.141273e+03
2.350000e-06	1.319290e-06	1.724683e-08	9.509856e+00	1.127483e+03
2.360000e-06	1.220739e-06	1.702077e-08	8.799465e+00	1.113008e+03
2.370000e-06	1.121791e-06	1.678802e-08	8.086217e+00	1.097609e+03
2.380000e-06	1.022541e-06	1.654128e-08	7.370794e+00	1.081135e+03
2.390000e-06	9.230545e-07	1.627645e-08	6.653665e+00	1.063566e+03
2.400000e-06	8.233048e-07	1.599867e-08	5.934638e+00	1.045009e+03
2.410000e-06	7.233160e-07	1.571512e-08	5.213887e+00	1.025655e+03
2.420000e-06	6.231331e-07	1.542176e-08	4.491737e+00	1.005699e+03
2.430000e-06	5.227687e-07	1.511388e-08	3.768280e+00	9.852470e+02
2.440000e-06	4.222390e-07	1.478903e-08	3.043630e+00	9.642474e+02
2.450000e-06	3.215303e-07	1.444442e-08	2.317691e+00	9.424560e+02
2.460000e-06	2.206821e-07	1.407849e-08	1.590745e+00	9.194623e+02
2.470000e-06	1.197293e-07	1.368919e-08	8.630462e-01	8.947671e+02
2.480000e-06	1.864390e-08	1.327793e-08	1.343910e-01	8.678917e+02
2.490000e-06	-8.256201e-08	1.283994e-08	-5.951327e-01	8.384846e+02
2.500000e-06	-1.836522e-07	1.236556e-08	-1.323822e+00	8.063882e+02
2.510000e-06	-2.845270e-07	1.184980e-08	-2.050959e+00	7.716357e+02
2.520000e-06	-3.852866e-07	1.129329e-08	-2.777266e+00	7.343649e+02
2.530000e-06	-4.859820e-07	1.069483e-08	-3.503110e+00	6.946628e+02
2.540000e-06	-5.865872e-07	1.004742e-08	-4.228303e+00	6.523740e+02
2.550000e-06	-6.869796e-07	9.340040e-09	-4.951963e+00	6.069290e+02
2.560000e-06	-7.871365e-07	8.559291e-09	-5.673925e+00	5.572466e+02
2.570000e-06	-8.870553e-07	7.690680e-09	-6.394171e+00	5.017574e+02
2.580000e-06	-9.866711e-07	6.716138e-09	-7.112233e+00	4.385703e+02
2.590000e-06	-1.085922e-06	5.614382e-09	-7.827662e+00	3.657684e+02
2.600000e-06	-1.184815e-06	4.363566e-09	-8.540517e+00	2.817897e+02
2.610000e-06	-1.283405e-06	2.943132e-09	-9.251186e+00	1.858185e+02
2.620000e-06	-1.381604e-06	1.340803e-09	-9.959032e+00	7.810608e+01
2.630000e-06	-1.479238e-06	-4.398929e-10	-1.066281e+01	-3.985692e+01
2.640000e-06	-1.576320e-06	-2.369430e-09	-1.136260e+01	-1.653650e+02
2.650000e-06	-1.672868e-06	-4.384832e-09	-1.205855e+01	-2.947304e+02
2.660000e-06	-1.768918e-06	-6.402431e-09	-1.275091e+01	-4.236915e+02
2.670000e-06	-1.864483e-06	-8.333448e-09	-1.343977e+01	-5.479283e+02
2.680000e-06	-1.959332e-06	-1.010569e-08	-1.412348e+01	-6.635908e+02
2.690000e-06	-2.053215e-06	-1.167883e-08	-1.480022e+01	-7.677471e+02
2.700000e-06	-2.146137e-06	-1.304252e-08	-1.547002e+01	-8.586700e+02
2.710000e-06	-2.238231e-06	-1.420539e-08	-1.613387e+01	-9.359210e+02
2.720000e-06	-2.329565e-06	-1.518933e-08	-1.679223e+01	-1.000227e+03
2.730000e-06	-2.420177e-06	-1.602019e-08	-1.744539e+01	-1.053190e+03
2.740000e-06	-2.509896e-06	-1.672042e-08	-1.809211e+01	-1.096902e+03
2.750000e-06	-2.598655e-06	-1.731344e-08	-1.873191e+01	-1.133543e+03
2.760000e-06	-2.686648e-06	-1.781845e-08	-1.936619e+01	-1.165044e+03
2.770000e-06	-2.773800e-06	-1.825272e-08	-1.999442e+01	-1.192873e+03
2.780000e-06	-2.859876e-06	-1.863152e-08	-2.061488e+01	-1.217959e+03
2.790000e-06	-2.944756e-06	-1.896620e-08	-2.122672e+01	-1.240752e+03
2.800000e-06	-3.028558e-06	-1.926531e-08	-2.183079e+01	-1.261372e+03
2.810000e-06	-3.111455e-06	-1.953333e-08	-2.242833e+01	-1.279796e+03
2.820000e-06	-3.193324e-06	-1.977486e-08	-2.301847e+01	-1.296028e+03
2.830000e-06	-3.274079e-06	-1.999582e-08	-2.360058e+01	-1.310211e+03
2.840000e-06	-3.353725e-06	-2.019910e-08	-2.417469e+01	-1.322652e+03
2.850000e-06	-3.432105e-06	-2.038484e-08	-2.473968e+01	-1.333786e+03
2.860000e-06	-3.508997e-06	-2.055599e-08	-2.529395e+01	-1.344078e+03
2.870000e-06	-3.584470e-06	-2.071541e-08	-2.583798e+01	-1.353925e+03
2.880000e-06	-3.658589e-06	-2.086390e-08	-2.637225e+01	-1.363567e+03
2.890000e-06	-3.731360e-06	-2.100367e-08	-2.689680e+01	-1.373061e+03
2.900000e-06	-3.802892e-06	-2.113448e-08	-2.741243e+01	-1.382297e+03
2.910000e-06	-3.872984e-06	-2.125850e-08	-2.791768e+01	-1.391066e+03
2.920000e-06	-3.941495e-06	-2.137749e-08	-2.841153e+01	-1.399152e+03
2.930000e-06	-4.008613e-06	-2.148711e-08	-2.889533e+01	-1.406411e+03
2.940000e-06	-4.074432e-06	-2.158729e-08	-2.936978e+01	-1.412830e+03
