# Temperatura_=_67.41
# Concentracion g/m^3_=_41000.0
# C_Vs_to_Am_M_A/Vsm_=_65563218390.804596
# pendiente_HvsI_1/m_=_3716.3
# ordenada_HvsI_A/m_=_1297.0
# frecuencia_Hz_=_301608.4411793206

Tiempo_(s)	Campo_(V.s)	Magnetizacion_(V.s)	Campo_(kA/m)	Magnetizacion_(A/m)
0.000000e+00	-5.306143e-06	-2.448209e-08	-3.834796e+01	-1.600136e+03
1.000000e-08	-5.303641e-06	-2.447615e-08	-3.832988e+01	-1.599884e+03
2.000000e-08	-5.299360e-06	-2.447008e-08	-3.829894e+01	-1.599730e+03
3.000000e-08	-5.293440e-06	-2.446242e-08	-3.825616e+01	-1.599603e+03
4.000000e-08	-5.285946e-06	-2.444970e-08	-3.820200e+01	-1.599385e+03
5.000000e-08	-5.276691e-06	-2.443477e-08	-3.813511e+01	-1.598953e+03
6.000000e-08	-5.265384e-06	-2.441891e-08	-3.805339e+01	-1.598215e+03
7.000000e-08	-5.252192e-06	-2.440009e-08	-3.795806e+01	-1.597137e+03
8.000000e-08	-5.236917e-06	-2.440333e-08	-3.784766e+01	-1.595758e+03
9.000000e-08	-5.219324e-06	-2.440477e-08	-3.772051e+01	-1.594176e+03
1.000000e-07	-5.199732e-06	-2.437508e-08	-3.757892e+01	-1.592520e+03
1.100000e-07	-5.178306e-06	-2.434771e-08	-3.742408e+01	-1.590913e+03
1.200000e-07	-5.155242e-06	-2.429064e-08	-3.725739e+01	-1.589434e+03
1.300000e-07	-5.130841e-06	-2.422917e-08	-3.708104e+01	-1.588098e+03
1.400000e-07	-5.104843e-06	-2.429566e-08	-3.689315e+01	-1.586849e+03
1.500000e-07	-5.077035e-06	-2.423893e-08	-3.669218e+01	-1.585585e+03
1.600000e-07	-5.047780e-06	-2.415127e-08	-3.648075e+01	-1.584182e+03
1.700000e-07	-5.017092e-06	-2.420571e-08	-3.625896e+01	-1.582539e+03
1.800000e-07	-4.984365e-06	-2.411052e-08	-3.602245e+01	-1.580601e+03
1.900000e-07	-4.949597e-06	-2.405077e-08	-3.577117e+01	-1.578379e+03
2.000000e-07	-4.913333e-06	-2.410681e-08	-3.550909e+01	-1.575936e+03
2.100000e-07	-4.875444e-06	-2.402102e-08	-3.523527e+01	-1.573368e+03
2.200000e-07	-4.835795e-06	-2.393962e-08	-3.494871e+01	-1.570768e+03
2.300000e-07	-4.794277e-06	-2.392400e-08	-3.464866e+01	-1.568191e+03
2.400000e-07	-4.750824e-06	-2.386282e-08	-3.433462e+01	-1.565637e+03
2.500000e-07	-4.705629e-06	-2.383525e-08	-3.400800e+01	-1.563042e+03
2.600000e-07	-4.658633e-06	-2.378062e-08	-3.366835e+01	-1.560302e+03
2.700000e-07	-4.609754e-06	-2.371607e-08	-3.331510e+01	-1.557300e+03
2.800000e-07	-4.558867e-06	-2.366005e-08	-3.294733e+01	-1.553944e+03
2.900000e-07	-4.506001e-06	-2.361128e-08	-3.256527e+01	-1.550195e+03
3.000000e-07	-4.451423e-06	-2.356899e-08	-3.217083e+01	-1.546082e+03
3.100000e-07	-4.395226e-06	-2.350123e-08	-3.176469e+01	-1.541694e+03
3.200000e-07	-4.337318e-06	-2.343185e-08	-3.134618e+01	-1.537151e+03
3.300000e-07	-4.277767e-06	-2.335424e-08	-3.091580e+01	-1.532571e+03
3.400000e-07	-4.216750e-06	-2.327877e-08	-3.047482e+01	-1.528031e+03
3.500000e-07	-4.154317e-06	-2.321571e-08	-3.002362e+01	-1.523544e+03
3.600000e-07	-4.090489e-06	-2.314834e-08	-2.956233e+01	-1.519056e+03
3.700000e-07	-4.025190e-06	-2.307762e-08	-2.909040e+01	-1.514460e+03
3.800000e-07	-3.958245e-06	-2.299429e-08	-2.860658e+01	-1.509629e+03
3.900000e-07	-3.889773e-06	-2.290154e-08	-2.811173e+01	-1.504458e+03
4.000000e-07	-3.820074e-06	-2.282300e-08	-2.760801e+01	-1.498893e+03
4.100000e-07	-3.749197e-06	-2.273896e-08	-2.709578e+01	-1.492947e+03
4.200000e-07	-3.677097e-06	-2.265338e-08	-2.657470e+01	-1.486697e+03
4.300000e-07	-3.603540e-06	-2.255891e-08	-2.604310e+01	-1.480259e+03
4.400000e-07	-3.528312e-06	-2.246084e-08	-2.549942e+01	-1.473745e+03
4.500000e-07	-3.451707e-06	-2.235663e-08	-2.494579e+01	-1.467230e+03
4.600000e-07	-3.373827e-06	-2.225120e-08	-2.438294e+01	-1.460723e+03
4.700000e-07	-3.294575e-06	-2.215208e-08	-2.381018e+01	-1.454160e+03
4.800000e-07	-3.213955e-06	-2.203936e-08	-2.322754e+01	-1.447423e+03
4.900000e-07	-3.132101e-06	-2.192622e-08	-2.263597e+01	-1.440374e+03
5.000000e-07	-3.049232e-06	-2.181396e-08	-2.203707e+01	-1.432894e+03
5.100000e-07	-2.965478e-06	-2.169587e-08	-2.143177e+01	-1.424924e+03
5.200000e-07	-2.880974e-06	-2.156407e-08	-2.082105e+01	-1.416477e+03
5.300000e-07	-2.795570e-06	-2.143050e-08	-2.020383e+01	-1.407636e+03
5.400000e-07	-2.709202e-06	-2.129874e-08	-1.957964e+01	-1.398526e+03
5.500000e-07	-2.621960e-06	-2.116055e-08	-1.894914e+01	-1.389268e+03
5.600000e-07	-2.533799e-06	-2.101698e-08	-1.831199e+01	-1.379940e+03
5.700000e-07	-2.444548e-06	-2.086918e-08	-1.766696e+01	-1.370542e+03
5.800000e-07	-2.354084e-06	-2.072007e-08	-1.701317e+01	-1.360991e+03
5.900000e-07	-2.262638e-06	-2.056214e-08	-1.635229e+01	-1.351139e+03
6.000000e-07	-2.170524e-06	-2.039499e-08	-1.568657e+01	-1.340816e+03
6.100000e-07	-2.077695e-06	-2.022164e-08	-1.501569e+01	-1.329877e+03
6.200000e-07	-1.984040e-06	-2.004581e-08	-1.433884e+01	-1.318245e+03
6.300000e-07	-1.889745e-06	-1.986314e-08	-1.365736e+01	-1.305937e+03
6.400000e-07	-1.794877e-06	-1.967165e-08	-1.297174e+01	-1.293050e+03
6.500000e-07	-1.699378e-06	-1.947461e-08	-1.228156e+01	-1.279733e+03
6.600000e-07	-1.603309e-06	-1.927167e-08	-1.158725e+01	-1.266132e+03
6.700000e-07	-1.506647e-06	-1.906297e-08	-1.088867e+01	-1.252331e+03
6.800000e-07	-1.409343e-06	-1.884381e-08	-1.018545e+01	-1.238317e+03
6.900000e-07	-1.311387e-06	-1.861485e-08	-9.477506e+00	-1.223966e+03
7.000000e-07	-1.212809e-06	-1.837662e-08	-8.765077e+00	-1.209067e+03
7.100000e-07	-1.113754e-06	-1.812969e-08	-8.049197e+00	-1.193377e+03
7.200000e-07	-1.014389e-06	-1.787253e-08	-7.331079e+00	-1.176680e+03
7.300000e-07	-9.147695e-07	-1.760470e-08	-6.611120e+00	-1.158852e+03
7.400000e-07	-8.149305e-07	-1.732602e-08	-5.889575e+00	-1.139882e+03
7.500000e-07	-7.149022e-07	-1.703152e-08	-5.166662e+00	-1.119875e+03
7.600000e-07	-6.146623e-07	-1.671857e-08	-4.442219e+00	-1.098993e+03
7.700000e-07	-5.142397e-07	-1.639067e-08	-3.716456e+00	-1.077387e+03
7.800000e-07	-4.136413e-07	-1.604954e-08	-2.989422e+00	-1.055116e+03
7.900000e-07	-3.129458e-07	-1.569014e-08	-2.261687e+00	-1.032081e+03
8.000000e-07	-2.121413e-07	-1.530912e-08	-1.533164e+00	-1.008016e+03
8.100000e-07	-1.111548e-07	-1.490507e-08	-8.033255e-01	-9.825132e+02
8.200000e-07	-1.012619e-08	-1.447629e-08	-7.318286e-02	-9.551019e+02
8.300000e-07	9.083891e-08	-1.401955e-08	6.565008e-01	-9.253503e+02
8.400000e-07	1.917621e-07	-1.353290e-08	1.385881e+00	-8.929549e+02
8.500000e-07	2.926598e-07	-1.301199e-08	2.115078e+00	-8.577892e+02
8.600000e-07	3.934941e-07	-1.245212e-08	2.843816e+00	-8.198845e+02
8.700000e-07	4.942114e-07	-1.184972e-08	3.571710e+00	-7.793368e+02
8.800000e-07	5.947603e-07	-1.119741e-08	4.298386e+00	-7.361544e+02
8.900000e-07	6.951493e-07	-1.048751e-08	5.023905e+00	-6.900836e+02
9.000000e-07	7.953944e-07	-9.710779e-09	5.748386e+00	-6.404611e+02
9.100000e-07	8.954146e-07	-8.857227e-09	6.471240e+00	-5.861450e+02
9.200000e-07	9.951613e-07	-7.911718e-09	7.192119e+00	-5.255637e+02
9.300000e-07	1.094659e-06	-6.853149e-09	7.911197e+00	-4.568945e+02
9.400000e-07	1.193826e-06	-5.660538e-09	8.627887e+00	-3.783579e+02
9.500000e-07	1.292536e-06	-4.311826e-09	9.341268e+00	-2.885787e+02
9.600000e-07	1.390644e-06	-2.787399e-09	1.005031e+01	-1.869442e+02
9.700000e-07	1.487970e-06	-1.081494e-09	1.075369e+01	-7.388472e+01
9.800000e-07	1.584514e-06	7.916170e-10	1.145143e+01	4.899151e+01
9.900000e-07	1.680425e-06	2.794471e-09	1.214458e+01	1.789499e+02
1.000000e-06	1.775802e-06	4.862635e-09	1.283388e+01	3.123701e+02
1.010000e-06	1.870580e-06	6.915287e-09	1.351885e+01	4.451428e+02
1.020000e-06	1.964716e-06	8.873192e-09	1.419918e+01	5.731533e+02
1.030000e-06	2.058167e-06	1.067779e-08	1.487455e+01	6.927669e+02
1.040000e-06	2.150889e-06	1.229350e-08	1.554467e+01	8.012307e+02
1.050000e-06	2.242988e-06	1.370859e-08	1.621027e+01	8.969214e+02
1.060000e-06	2.334495e-06	1.493125e-08	1.687160e+01	9.794061e+02
1.070000e-06	2.425191e-06	1.597995e-08	1.752707e+01	1.049317e+03
1.080000e-06	2.514718e-06	1.687531e-08	1.817409e+01	1.108079e+03
1.090000e-06	2.603061e-06	1.763928e-08	1.881255e+01	1.157559e+03
1.100000e-06	2.690524e-06	1.829618e-08	1.944465e+01	1.199708e+03
1.110000e-06	2.777167e-06	1.886286e-08	2.007083e+01	1.236260e+03
1.120000e-06	2.862871e-06	1.935441e-08	2.069022e+01	1.268555e+03
1.130000e-06	2.947610e-06	1.978623e-08	2.130264e+01	1.297472e+03
1.140000e-06	3.031490e-06	2.016730e-08	2.190885e+01	1.323485e+03
1.150000e-06	3.114515e-06	2.050384e-08	2.250888e+01	1.346799e+03
1.160000e-06	3.196367e-06	2.080424e-08	2.310043e+01	1.367505e+03
1.170000e-06	3.276952e-06	2.107419e-08	2.368282e+01	1.385723e+03
1.180000e-06	3.356378e-06	2.131805e-08	2.425684e+01	1.401685e+03
1.190000e-06	3.434633e-06	2.153899e-08	2.482240e+01	1.415757e+03
1.200000e-06	3.511681e-06	2.174076e-08	2.537923e+01	1.428388e+03
1.210000e-06	3.587491e-06	2.192854e-08	2.592712e+01	1.440034e+03
1.220000e-06	3.661839e-06	2.210562e-08	2.646443e+01	1.451063e+03
1.230000e-06	3.734512e-06	2.226997e-08	2.698965e+01	1.461695e+03
1.240000e-06	3.805742e-06	2.242062e-08	2.750443e+01	1.471980e+03
1.250000e-06	3.875664e-06	2.256054e-08	2.800976e+01	1.481823e+03
1.260000e-06	3.944256e-06	2.269128e-08	2.850549e+01	1.491048e+03
1.270000e-06	4.011583e-06	2.281178e-08	2.899206e+01	1.499484e+03
1.280000e-06	4.077306e-06	2.292298e-08	2.946705e+01	1.507030e+03
1.290000e-06	4.141340e-06	2.302714e-08	2.992983e+01	1.513706e+03
1.300000e-06	4.203990e-06	2.312389e-08	3.038261e+01	1.519650e+03
1.310000e-06	4.265244e-06	2.321427e-08	3.082530e+01	1.525085e+03
1.320000e-06	4.325201e-06	2.330045e-08	3.125861e+01	1.530257e+03
1.330000e-06	4.383713e-06	2.338323e-08	3.168148e+01	1.535371e+03
1.340000e-06	4.440388e-06	2.346279e-08	3.209107e+01	1.540540e+03
1.350000e-06	4.495355e-06	2.353885e-08	3.248833e+01	1.545761e+03
1.360000e-06	4.548757e-06	2.360965e-08	3.287427e+01	1.550931e+03
1.370000e-06	4.600403e-06	2.367385e-08	3.324752e+01	1.555890e+03
1.380000e-06	4.650030e-06	2.373359e-08	3.360617e+01	1.560476e+03
1.390000e-06	4.697746e-06	2.379239e-08	3.395102e+01	1.564578e+03
1.400000e-06	4.743829e-06	2.384952e-08	3.428407e+01	1.568171e+03
1.410000e-06	4.788393e-06	2.390373e-08	3.460614e+01	1.571323e+03
1.420000e-06	4.831383e-06	2.395380e-08	3.491683e+01	1.574169e+03
1.430000e-06	4.872484e-06	2.400058e-08	3.521387e+01	1.576868e+03
1.440000e-06	4.911793e-06	2.404468e-08	3.549797e+01	1.579556e+03
1.450000e-06	4.949461e-06	2.408484e-08	3.577019e+01	1.582302e+03
1.460000e-06	4.985583e-06	2.412238e-08	3.603125e+01	1.585094e+03
1.470000e-06	5.020043e-06	2.415708e-08	3.628029e+01	1.587845e+03
1.480000e-06	5.052521e-06	2.418683e-08	3.651502e+01	1.590427e+03
1.490000e-06	5.083200e-06	2.421152e-08	3.673674e+01	1.592714e+03
1.500000e-06	5.112284e-06	2.423447e-08	3.694693e+01	1.594622e+03
1.510000e-06	5.139733e-06	2.425910e-08	3.714530e+01	1.596139e+03
1.520000e-06	5.165160e-06	2.428380e-08	3.732907e+01	1.597327e+03
1.530000e-06	5.188503e-06	2.430668e-08	3.749777e+01	1.598304e+03
1.540000e-06	5.210070e-06	2.432690e-08	3.765364e+01	1.599206e+03
1.550000e-06	5.229989e-06	2.434311e-08	3.779759e+01	1.600145e+03
1.560000e-06	5.248165e-06	2.435606e-08	3.792895e+01	1.601176e+03
1.570000e-06	5.264387e-06	2.436765e-08	3.804619e+01	1.602281e+03
1.580000e-06	5.278576e-06	2.437800e-08	3.814873e+01	1.603379e+03
1.590000e-06	5.290737e-06	2.438650e-08	3.823663e+01	1.604351e+03
1.600000e-06	5.300703e-06	2.439438e-08	3.830865e+01	1.605081e+03
1.610000e-06	5.308518e-06	2.440278e-08	3.836513e+01	1.605492e+03
1.620000e-06	5.314503e-06	2.440971e-08	3.840838e+01	1.605573e+03
1.630000e-06	5.318798e-06	2.441370e-08	3.843942e+01	1.605380e+03
1.640000e-06	5.321227e-06	2.441576e-08	3.845698e+01	1.605021e+03
1.650000e-06	5.321645e-06	2.441519e-08	3.846000e+01	1.604621e+03
1.660000e-06	5.320300e-06	2.441136e-08	3.845028e+01	1.604283e+03
1.670000e-06	5.317330e-06	2.440764e-08	3.842881e+01	1.604054e+03
1.680000e-06	5.312698e-06	2.440231e-08	3.839534e+01	1.603913e+03
1.690000e-06	5.306195e-06	2.439581e-08	3.834834e+01	1.603776e+03
1.700000e-06	5.297874e-06	2.438697e-08	3.828820e+01	1.603521e+03
1.710000e-06	5.288007e-06	2.437788e-08	3.821689e+01	1.603029e+03
1.720000e-06	5.276548e-06	2.437380e-08	3.813408e+01	1.602218e+03
1.730000e-06	5.263211e-06	2.434759e-08	3.803769e+01	1.601069e+03
1.740000e-06	5.247785e-06	2.430155e-08	3.792620e+01	1.599635e+03
1.750000e-06	5.230095e-06	2.428752e-08	3.779836e+01	1.598025e+03
1.760000e-06	5.209817e-06	2.427442e-08	3.765181e+01	1.596370e+03
1.770000e-06	5.187147e-06	2.429667e-08	3.748797e+01	1.594785e+03
1.780000e-06	5.163047e-06	2.429233e-08	3.731380e+01	1.593337e+03
1.790000e-06	5.138239e-06	2.417532e-08	3.713450e+01	1.592025e+03
1.800000e-06	5.112117e-06	2.420325e-08	3.694572e+01	1.590782e+03
1.810000e-06	5.084032e-06	2.421118e-08	3.674275e+01	1.589497e+03
1.820000e-06	5.054248e-06	2.413649e-08	3.652750e+01	1.588049e+03
1.830000e-06	5.022617e-06	2.419994e-08	3.629890e+01	1.586344e+03
1.840000e-06	4.989008e-06	2.414993e-08	3.605600e+01	1.584342e+03
1.850000e-06	4.953852e-06	2.405556e-08	3.580192e+01	1.582064e+03
1.860000e-06	4.916964e-06	2.411010e-08	3.553534e+01	1.579585e+03
1.870000e-06	4.878094e-06	2.406621e-08	3.525442e+01	1.577002e+03
1.880000e-06	4.837571e-06	2.400856e-08	3.496155e+01	1.574403e+03
1.890000e-06	4.795262e-06	2.399807e-08	3.465579e+01	1.571833e+03
1.900000e-06	4.751288e-06	2.392618e-08	3.433798e+01	1.569276e+03
1.910000e-06	4.705689e-06	2.393060e-08	3.400843e+01	1.566660e+03
1.920000e-06	4.658189e-06	2.388624e-08	3.366514e+01	1.563872e+03
1.930000e-06	4.609073e-06	2.382116e-08	3.331018e+01	1.560799e+03
1.940000e-06	4.558168e-06	2.378827e-08	3.294228e+01	1.557359e+03
1.950000e-06	4.505259e-06	2.369362e-08	3.255991e+01	1.553527e+03
1.960000e-06	4.450489e-06	2.364974e-08	3.216408e+01	1.549345e+03
1.970000e-06	4.393956e-06	2.359470e-08	3.175551e+01	1.544912e+03
1.980000e-06	4.335850e-06	2.352177e-08	3.133557e+01	1.540351e+03
1.990000e-06	4.276350e-06	2.347525e-08	3.090556e+01	1.535774e+03
2.000000e-06	4.215498e-06	2.338526e-08	3.046577e+01	1.531246e+03
2.010000e-06	4.152970e-06	2.332461e-08	3.001388e+01	1.526765e+03
2.020000e-06	4.088685e-06	2.325049e-08	2.954929e+01	1.522263e+03
2.030000e-06	4.022980e-06	2.316799e-08	2.907443e+01	1.517626e+03
2.040000e-06	3.955962e-06	2.310232e-08	2.859009e+01	1.512729e+03
2.050000e-06	3.887601e-06	2.301333e-08	2.809604e+01	1.507475e+03
2.060000e-06	3.817724e-06	2.293599e-08	2.759103e+01	1.501824e+03
2.070000e-06	3.746304e-06	2.283903e-08	2.707487e+01	1.495804e+03
2.080000e-06	3.673594e-06	2.274677e-08	2.654939e+01	1.489503e+03
2.090000e-06	3.599584e-06	2.266355e-08	2.601451e+01	1.483038e+03
2.100000e-06	3.524232e-06	2.256767e-08	2.546994e+01	1.476519e+03
2.110000e-06	3.447493e-06	2.246759e-08	2.491534e+01	1.470007e+03
2.120000e-06	3.369285e-06	2.235963e-08	2.435012e+01	1.463494e+03
2.130000e-06	3.289755e-06	2.226241e-08	2.377535e+01	1.456904e+03
2.140000e-06	3.209096e-06	2.214988e-08	2.319242e+01	1.450111e+03
2.150000e-06	3.127351e-06	2.202518e-08	2.260164e+01	1.442977e+03
2.160000e-06	3.044552e-06	2.191219e-08	2.200325e+01	1.435394e+03
2.170000e-06	2.960828e-06	2.180479e-08	2.139817e+01	1.427317e+03
2.180000e-06	2.876076e-06	2.168420e-08	2.078565e+01	1.418775e+03
2.190000e-06	2.790052e-06	2.154769e-08	2.016395e+01	1.409865e+03
2.200000e-06	2.702737e-06	2.141399e-08	1.953292e+01	1.400713e+03
2.210000e-06	2.614439e-06	2.128167e-08	1.889478e+01	1.391435e+03
2.220000e-06	2.525357e-06	2.113988e-08	1.825097e+01	1.382095e+03
2.230000e-06	2.435432e-06	2.098594e-08	1.760108e+01	1.372672e+03
2.240000e-06	2.344713e-06	2.083300e-08	1.694545e+01	1.363070e+03
2.250000e-06	2.253284e-06	2.067988e-08	1.628469e+01	1.353130e+03
2.260000e-06	2.161173e-06	2.051747e-08	1.561899e+01	1.342685e+03
2.270000e-06	2.068213e-06	2.034672e-08	1.494716e+01	1.331600e+03
2.280000e-06	1.974368e-06	2.017582e-08	1.426894e+01	1.319818e+03
2.290000e-06	1.879654e-06	1.999874e-08	1.358443e+01	1.307373e+03
2.300000e-06	1.784121e-06	1.980814e-08	1.289400e+01	1.294380e+03
2.310000e-06	1.688070e-06	1.960594e-08	1.219983e+01	1.280991e+03
2.320000e-06	1.591597e-06	1.939955e-08	1.150261e+01	1.267342e+03
2.330000e-06	1.494616e-06	1.919033e-08	1.080172e+01	1.253500e+03
2.340000e-06	1.397100e-06	1.897087e-08	1.009696e+01	1.239426e+03
2.350000e-06	1.299108e-06	1.874124e-08	9.388769e+00	1.224976e+03
2.360000e-06	1.200710e-06	1.850261e-08	8.677634e+00	1.209928e+03
2.370000e-06	1.101995e-06	1.825582e-08	7.964217e+00	1.194037e+03
2.380000e-06	1.002971e-06	1.799747e-08	7.248557e+00	1.177103e+03
2.390000e-06	9.036264e-07	1.772391e-08	6.530588e+00	1.159026e+03
2.400000e-06	8.040518e-07	1.743768e-08	5.810954e+00	1.139822e+03
2.410000e-06	7.042476e-07	1.714188e-08	5.089660e+00	1.119612e+03
2.420000e-06	6.042198e-07	1.683172e-08	4.366750e+00	1.098563e+03
2.430000e-06	5.040532e-07	1.650504e-08	3.642837e+00	1.076813e+03
2.440000e-06	4.037735e-07	1.616149e-08	2.918107e+00	1.054391e+03
2.450000e-06	3.033723e-07	1.579843e-08	2.192499e+00	1.031163e+03
2.460000e-06	2.028469e-07	1.541550e-08	1.465992e+00	1.006827e+03
2.470000e-06	1.022214e-07	1.501122e-08	7.387630e-01	9.809541e+02
2.480000e-06	1.495574e-09	1.458280e-08	1.080864e-02	9.530737e+02
2.490000e-06	-9.928652e-08	1.412278e-08	-7.175524e-01	9.227745e+02
2.500000e-06	-2.000232e-07	1.362615e-08	-1.445585e+00	8.897891e+02
2.510000e-06	-3.006770e-07	1.309073e-08	-2.173020e+00	8.540288e+02
2.520000e-06	-4.012275e-07	1.251620e-08	-2.899707e+00	8.155491e+02
2.530000e-06	-5.016863e-07	1.190289e-08	-3.625732e+00	7.744415e+02
2.540000e-06	-6.019990e-07	1.124175e-08	-4.350700e+00	7.306728e+02
2.550000e-06	-7.020698e-07	1.052085e-08	-5.073921e+00	6.839118e+02
2.560000e-06	-8.019034e-07	9.731092e-09	-5.795427e+00	6.333950e+02
2.570000e-06	-9.015219e-07	8.862310e-09	-6.515379e+00	5.778800e+02
2.580000e-06	-1.000899e-06	7.898242e-09	-7.233584e+00	5.157217e+02
2.590000e-06	-1.099925e-06	6.820306e-09	-7.949258e+00	4.450789e+02
2.600000e-06	-1.198569e-06	5.605363e-09	-8.662162e+00	3.642272e+02
2.610000e-06	-1.296855e-06	4.230792e-09	-9.372484e+00	2.719262e+02
2.620000e-06	-1.394603e-06	2.680689e-09	-1.007892e+01	1.677671e+02
2.630000e-06	-1.491770e-06	9.486639e-10	-1.078115e+01	5.242728e+01
2.640000e-06	-1.588467e-06	-9.501472e-10	-1.147999e+01	-7.223271e+01
2.650000e-06	-1.684706e-06	-2.972236e-09	-1.217552e+01	-2.032621e+02
2.660000e-06	-1.780511e-06	-5.051421e-09	-1.286791e+01	-3.368982e+02
2.670000e-06	-1.875751e-06	-7.105844e-09	-1.355622e+01	-4.689885e+02
2.680000e-06	-1.970129e-06	-9.055349e-09	-1.423830e+01	-5.954817e+02
2.690000e-06	-2.063447e-06	-1.084551e-08	-1.491271e+01	-7.129028e+02
2.700000e-06	-2.155851e-06	-1.244536e-08	-1.558053e+01	-8.187261e+02
2.710000e-06	-2.247607e-06	-1.384548e-08	-1.624366e+01	-9.115849e+02
2.720000e-06	-2.338659e-06	-1.505435e-08	-1.690170e+01	-9.912909e+02
2.730000e-06	-2.428844e-06	-1.609139e-08	-1.755347e+01	-1.058673e+03
2.740000e-06	-2.518124e-06	-1.697800e-08	-1.819871e+01	-1.115282e+03
2.750000e-06	-2.606587e-06	-1.773619e-08	-1.883803e+01	-1.163031e+03
2.760000e-06	-2.694339e-06	-1.838954e-08	-1.947222e+01	-1.203847e+03
2.770000e-06	-2.781226e-06	-1.895441e-08	-2.010016e+01	-1.239391e+03
2.780000e-06	-2.866879e-06	-1.944145e-08	-2.071919e+01	-1.270904e+03
2.790000e-06	-2.951361e-06	-1.986581e-08	-2.132975e+01	-1.299171e+03
2.800000e-06	-3.034892e-06	-2.024272e-08	-2.193344e+01	-1.324596e+03
2.810000e-06	-3.117418e-06	-2.057763e-08	-2.252986e+01	-1.347345e+03
2.820000e-06	-3.198857e-06	-2.087525e-08	-2.311842e+01	-1.367506e+03
2.830000e-06	-3.279261e-06	-2.114167e-08	-2.369951e+01	-1.385217e+03
2.840000e-06	-3.358649e-06	-2.138310e-08	-2.427326e+01	-1.400740e+03
2.850000e-06	-3.436582e-06	-2.160632e-08	-2.483648e+01	-1.414465e+03
2.860000e-06	-3.512909e-06	-2.181236e-08	-2.538810e+01	-1.426849e+03
2.870000e-06	-3.587887e-06	-2.200020e-08	-2.592998e+01	-1.438336e+03
2.880000e-06	-3.661491e-06	-2.217096e-08	-2.646192e+01	-1.449269e+03
2.890000e-06	-3.733835e-06	-2.232933e-08	-2.698476e+01	-1.459829e+03
2.900000e-06	-3.804989e-06	-2.247906e-08	-2.749899e+01	-1.470032e+03
2.910000e-06	-3.874610e-06	-2.261965e-08	-2.800215e+01	-1.479759e+03
2.920000e-06	-3.942735e-06	-2.275098e-08	-2.849449e+01	-1.488829e+03
2.930000e-06	-4.009518e-06	-2.287151e-08	-2.897714e+01	-1.497080e+03
2.940000e-06	-4.074874e-06	-2.298076e-08	-2.944948e+01	-1.504435e+03
