# Temperatura_=_66.13
# Concentracion g/m^3_=_41000.0
# C_Vs_to_Am_M_A/Vsm_=_65563218390.804596
# pendiente_HvsI_1/m_=_3716.3
# ordenada_HvsI_A/m_=_1297.0
# frecuencia_Hz_=_301608.3864543732

Tiempo_(s)	Campo_(V.s)	Magnetizacion_(V.s)	Campo_(kA/m)	Magnetizacion_(A/m)
0.000000e+00	-5.320792e-06	-2.486838e-08	-3.834290e+01	-1.625716e+03
1.000000e-08	-5.318529e-06	-2.486292e-08	-3.832659e+01	-1.625421e+03
2.000000e-08	-5.314435e-06	-2.485748e-08	-3.829709e+01	-1.625241e+03
3.000000e-08	-5.308756e-06	-2.485115e-08	-3.825616e+01	-1.625119e+03
4.000000e-08	-5.301519e-06	-2.484205e-08	-3.820401e+01	-1.624943e+03
5.000000e-08	-5.292557e-06	-2.482982e-08	-3.813943e+01	-1.624581e+03
6.000000e-08	-5.281542e-06	-2.481584e-08	-3.806005e+01	-1.623923e+03
7.000000e-08	-5.268570e-06	-2.479989e-08	-3.796657e+01	-1.622913e+03
8.000000e-08	-5.253628e-06	-2.478374e-08	-3.785889e+01	-1.621570e+03
9.000000e-08	-5.236395e-06	-2.478355e-08	-3.773471e+01	-1.619981e+03
1.000000e-07	-5.217051e-06	-2.477562e-08	-3.759531e+01	-1.618279e+03
1.100000e-07	-5.195862e-06	-2.473753e-08	-3.744262e+01	-1.616599e+03
1.200000e-07	-5.172982e-06	-2.468999e-08	-3.727774e+01	-1.615043e+03
1.300000e-07	-5.148721e-06	-2.463937e-08	-3.710291e+01	-1.613645e+03
1.400000e-07	-5.122933e-06	-2.462886e-08	-3.691708e+01	-1.612367e+03
1.500000e-07	-5.095376e-06	-2.464048e-08	-3.671850e+01	-1.611106e+03
1.600000e-07	-5.066254e-06	-2.458306e-08	-3.650864e+01	-1.609730e+03
1.700000e-07	-5.035723e-06	-2.455800e-08	-3.628862e+01	-1.608112e+03
1.800000e-07	-5.003374e-06	-2.454906e-08	-3.605550e+01	-1.606172e+03
1.900000e-07	-4.968934e-06	-2.445946e-08	-3.580732e+01	-1.603896e+03
2.000000e-07	-4.932852e-06	-2.442572e-08	-3.554731e+01	-1.601333e+03
2.100000e-07	-4.895154e-06	-2.439586e-08	-3.527565e+01	-1.598582e+03
2.200000e-07	-4.855723e-06	-2.430050e-08	-3.499150e+01	-1.595752e+03
2.300000e-07	-4.814412e-06	-2.428711e-08	-3.469380e+01	-1.592929e+03
2.400000e-07	-4.771080e-06	-2.428015e-08	-3.438154e+01	-1.590143e+03
2.500000e-07	-4.726031e-06	-2.421739e-08	-3.405690e+01	-1.587363e+03
2.600000e-07	-4.679245e-06	-2.417346e-08	-3.371975e+01	-1.584501e+03
2.700000e-07	-4.630514e-06	-2.408693e-08	-3.336859e+01	-1.581442e+03
2.800000e-07	-4.579714e-06	-2.401564e-08	-3.300251e+01	-1.578081e+03
2.900000e-07	-4.526932e-06	-2.399418e-08	-3.262215e+01	-1.574357e+03
3.000000e-07	-4.472509e-06	-2.394992e-08	-3.222996e+01	-1.570272e+03
3.100000e-07	-4.416507e-06	-2.388542e-08	-3.182641e+01	-1.565893e+03
3.200000e-07	-4.358707e-06	-2.381009e-08	-3.140988e+01	-1.561328e+03
3.300000e-07	-4.299212e-06	-2.372545e-08	-3.098115e+01	-1.556697e+03
3.400000e-07	-4.238238e-06	-2.364681e-08	-3.054175e+01	-1.552091e+03
3.500000e-07	-4.175802e-06	-2.359058e-08	-3.009182e+01	-1.547541e+03
3.600000e-07	-4.111989e-06	-2.353187e-08	-2.963197e+01	-1.543011e+03
3.700000e-07	-4.046768e-06	-2.344719e-08	-2.916197e+01	-1.538404e+03
3.800000e-07	-3.979930e-06	-2.336487e-08	-2.868033e+01	-1.533593e+03
3.900000e-07	-3.911538e-06	-2.327337e-08	-2.818747e+01	-1.528461e+03
4.000000e-07	-3.841843e-06	-2.318135e-08	-2.768523e+01	-1.522932e+03
4.100000e-07	-3.770944e-06	-2.310791e-08	-2.717433e+01	-1.517000e+03
4.200000e-07	-3.698798e-06	-2.302290e-08	-2.665442e+01	-1.510726e+03
4.300000e-07	-3.625166e-06	-2.293096e-08	-2.612381e+01	-1.504221e+03
4.400000e-07	-3.549910e-06	-2.283260e-08	-2.558150e+01	-1.497608e+03
4.500000e-07	-3.473224e-06	-2.272707e-08	-2.502888e+01	-1.490979e+03
4.600000e-07	-3.395279e-06	-2.261958e-08	-2.446719e+01	-1.484368e+03
4.700000e-07	-3.316058e-06	-2.251284e-08	-2.389630e+01	-1.477734e+03
4.800000e-07	-3.235467e-06	-2.240318e-08	-2.331554e+01	-1.470971e+03
4.900000e-07	-3.153660e-06	-2.228791e-08	-2.272603e+01	-1.463939e+03
5.000000e-07	-3.070864e-06	-2.217690e-08	-2.212938e+01	-1.456504e+03
5.100000e-07	-2.987150e-06	-2.205584e-08	-2.152612e+01	-1.448582e+03
5.200000e-07	-2.902533e-06	-2.192330e-08	-2.091635e+01	-1.440161e+03
5.300000e-07	-2.816981e-06	-2.179081e-08	-2.029984e+01	-1.431305e+03
5.400000e-07	-2.730538e-06	-2.166038e-08	-1.967691e+01	-1.422131e+03
5.500000e-07	-2.643211e-06	-2.152589e-08	-1.904761e+01	-1.412769e+03
5.600000e-07	-2.554942e-06	-2.137937e-08	-1.841152e+01	-1.403317e+03
5.700000e-07	-2.465636e-06	-2.122719e-08	-1.776796e+01	-1.393803e+03
5.800000e-07	-2.375180e-06	-2.107161e-08	-1.711612e+01	-1.384172e+03
5.900000e-07	-2.283724e-06	-2.090998e-08	-1.645706e+01	-1.374292e+03
6.000000e-07	-2.191538e-06	-2.074331e-08	-1.579274e+01	-1.363992e+03
6.100000e-07	-2.098644e-06	-2.057527e-08	-1.512333e+01	-1.353111e+03
6.200000e-07	-2.004971e-06	-2.040262e-08	-1.444830e+01	-1.341544e+03
6.300000e-07	-1.910550e-06	-2.021971e-08	-1.376788e+01	-1.329276e+03
6.400000e-07	-1.815509e-06	-2.002754e-08	-1.308299e+01	-1.316381e+03
6.500000e-07	-1.719887e-06	-1.982805e-08	-1.239391e+01	-1.302994e+03
6.600000e-07	-1.623650e-06	-1.962257e-08	-1.170041e+01	-1.289270e+03
6.700000e-07	-1.526749e-06	-1.941207e-08	-1.100212e+01	-1.275315e+03
6.800000e-07	-1.429124e-06	-1.919400e-08	-1.029861e+01	-1.261151e+03
6.900000e-07	-1.330912e-06	-1.896418e-08	-9.590870e+00	-1.246684e+03
7.000000e-07	-1.232200e-06	-1.872394e-08	-8.879526e+00	-1.231726e+03
7.100000e-07	-1.133028e-06	-1.847386e-08	-8.164870e+00	-1.216036e+03
7.200000e-07	-1.033503e-06	-1.821480e-08	-7.447667e+00	-1.199379e+03
7.300000e-07	-9.336549e-07	-1.794690e-08	-6.728140e+00	-1.181599e+03
7.400000e-07	-8.335684e-07	-1.766759e-08	-6.006893e+00	-1.162647e+03
7.500000e-07	-7.333113e-07	-1.737476e-08	-5.284416e+00	-1.142597e+03
7.600000e-07	-6.328628e-07	-1.706327e-08	-4.560560e+00	-1.121599e+03
7.700000e-07	-5.322119e-07	-1.673402e-08	-3.835246e+00	-1.099817e+03
7.800000e-07	-4.314284e-07	-1.638904e-08	-3.108976e+00	-1.077343e+03
7.900000e-07	-3.305357e-07	-1.602846e-08	-2.381919e+00	-1.054127e+03
8.000000e-07	-2.294720e-07	-1.564932e-08	-1.653630e+00	-1.029950e+03
8.100000e-07	-1.282666e-07	-1.524708e-08	-9.243200e-01	-1.004437e+03
8.200000e-07	-2.698077e-08	-1.482081e-08	-1.944298e-01	-9.771235e+02
8.300000e-07	7.430480e-08	-1.436522e-08	5.354581e-01	-9.475545e+02
8.400000e-07	1.755552e-07	-1.387771e-08	1.265092e+00	-9.153815e+02
8.500000e-07	2.767736e-07	-1.335660e-08	1.994497e+00	-8.804260e+02
8.600000e-07	3.779091e-07	-1.279853e-08	2.723303e+00	-8.426812e+02
8.700000e-07	4.789258e-07	-1.220057e-08	3.451254e+00	-8.022375e+02
8.800000e-07	5.798017e-07	-1.155386e-08	4.178189e+00	-7.591430e+02
8.900000e-07	6.805150e-07	-1.084947e-08	4.903953e+00	-7.132276e+02
9.000000e-07	7.810515e-07	-1.007981e-08	5.628443e+00	-6.639415e+02
9.100000e-07	8.813772e-07	-9.235230e-09	6.351414e+00	-6.102582e+02
9.200000e-07	9.814596e-07	-8.301145e-09	7.072632e+00	-5.506881e+02
9.300000e-07	1.081242e-06	-7.259552e-09	7.791685e+00	-4.834240e+02
9.400000e-07	1.180682e-06	-6.089187e-09	8.508274e+00	-4.066110e+02
9.500000e-07	1.279722e-06	-4.766372e-09	9.221980e+00	-3.187005e+02
9.600000e-07	1.378185e-06	-3.269354e-09	9.931533e+00	-2.188229e+02
9.700000e-07	1.475927e-06	-1.588042e-09	1.063588e+01	-1.071022e+02
9.800000e-07	1.572977e-06	2.700452e-10	1.133525e+01	1.516123e+01
9.900000e-07	1.669344e-06	2.273758e-09	1.202969e+01	1.454880e+02
1.000000e-06	1.765021e-06	4.364529e-09	1.271916e+01	2.804137e+02
1.010000e-06	1.860091e-06	6.462898e-09	1.340426e+01	4.158538e+02
1.020000e-06	1.954574e-06	8.485341e-09	1.408512e+01	5.475797e+02
1.030000e-06	2.048393e-06	1.036536e-08	1.476121e+01	6.717207e+02
1.040000e-06	2.141461e-06	1.206043e-08	1.543188e+01	7.852035e+02
1.050000e-06	2.233852e-06	1.355289e-08	1.609767e+01	8.860526e+02
1.060000e-06	2.325632e-06	1.484620e-08	1.675906e+01	9.735042e+02
1.070000e-06	2.416679e-06	1.595718e-08	1.741517e+01	1.047928e+03
1.080000e-06	2.506719e-06	1.690784e-08	1.806402e+01	1.110587e+03
1.090000e-06	2.595625e-06	1.772034e-08	1.870469e+01	1.163289e+03
1.100000e-06	2.683508e-06	1.841867e-08	1.933800e+01	1.208022e+03
1.110000e-06	2.770485e-06	1.902063e-08	1.996478e+01	1.246627e+03
1.120000e-06	2.856542e-06	1.954029e-08	2.058493e+01	1.280578e+03
1.130000e-06	2.941645e-06	1.999301e-08	2.119819e+01	1.310887e+03
1.140000e-06	3.025908e-06	2.039260e-08	2.180542e+01	1.338131e+03
1.150000e-06	3.109302e-06	2.074576e-08	2.240637e+01	1.362572e+03
1.160000e-06	3.191572e-06	2.106039e-08	2.299923e+01	1.384319e+03
1.170000e-06	3.272598e-06	2.134321e-08	2.358312e+01	1.403476e+03
1.180000e-06	3.352408e-06	2.159850e-08	2.415825e+01	1.420249e+03
1.190000e-06	3.431027e-06	2.182932e-08	2.472480e+01	1.434983e+03
1.200000e-06	3.508447e-06	2.203803e-08	2.528270e+01	1.448124e+03
1.210000e-06	3.584631e-06	2.223043e-08	2.583171e+01	1.460148e+03
1.220000e-06	3.659414e-06	2.240930e-08	2.637061e+01	1.471466e+03
1.230000e-06	3.732562e-06	2.257635e-08	2.689773e+01	1.482344e+03
1.240000e-06	3.804198e-06	2.273194e-08	2.741396e+01	1.492878e+03
1.250000e-06	3.874546e-06	2.287904e-08	2.792090e+01	1.503000e+03
1.260000e-06	3.943585e-06	2.301583e-08	2.841841e+01	1.512544e+03
1.270000e-06	4.011338e-06	2.314072e-08	2.890666e+01	1.521323e+03
1.280000e-06	4.077626e-06	2.325508e-08	2.938435e+01	1.529210e+03
1.290000e-06	4.142227e-06	2.336192e-08	2.984988e+01	1.536193e+03
1.300000e-06	4.205314e-06	2.346190e-08	3.030450e+01	1.542386e+03
1.310000e-06	4.266995e-06	2.355510e-08	3.074899e+01	1.548000e+03
1.320000e-06	4.327341e-06	2.364399e-08	3.118385e+01	1.553291e+03
1.330000e-06	4.386299e-06	2.373024e-08	3.160872e+01	1.558485e+03
1.340000e-06	4.443516e-06	2.381294e-08	3.202104e+01	1.563721e+03
1.350000e-06	4.498940e-06	2.389022e-08	3.242043e+01	1.569025e+03
1.360000e-06	4.552717e-06	2.396353e-08	3.280796e+01	1.574309e+03
1.370000e-06	4.604811e-06	2.403181e-08	3.318337e+01	1.579415e+03
1.380000e-06	4.654977e-06	2.409569e-08	3.354488e+01	1.584166e+03
1.390000e-06	4.703146e-06	2.415727e-08	3.389199e+01	1.588431e+03
1.400000e-06	4.749589e-06	2.421540e-08	3.422667e+01	1.592163e+03
1.410000e-06	4.794503e-06	2.426942e-08	3.455033e+01	1.595413e+03
1.420000e-06	4.837895e-06	2.431847e-08	3.486303e+01	1.598311e+03
1.430000e-06	4.879477e-06	2.436453e-08	3.516267e+01	1.601027e+03
1.440000e-06	4.919232e-06	2.440902e-08	3.544916e+01	1.603717e+03
1.450000e-06	4.957333e-06	2.445193e-08	3.572372e+01	1.606475e+03
1.460000e-06	4.993830e-06	2.449224e-08	3.598673e+01	1.609309e+03
1.470000e-06	5.028633e-06	2.452871e-08	3.623753e+01	1.612146e+03
1.480000e-06	5.061518e-06	2.456114e-08	3.647451e+01	1.614853e+03
1.490000e-06	5.092628e-06	2.458813e-08	3.669869e+01	1.617289e+03
1.500000e-06	5.122070e-06	2.461243e-08	3.691085e+01	1.619348e+03
1.510000e-06	5.149865e-06	2.463691e-08	3.711116e+01	1.620994e+03
1.520000e-06	5.175727e-06	2.466131e-08	3.729752e+01	1.622271e+03
1.530000e-06	5.199468e-06	2.468414e-08	3.746861e+01	1.623293e+03
1.540000e-06	5.221378e-06	2.470474e-08	3.762650e+01	1.624204e+03
1.550000e-06	5.241634e-06	2.472278e-08	3.777246e+01	1.625135e+03
1.560000e-06	5.260150e-06	2.473745e-08	3.790590e+01	1.626165e+03
1.570000e-06	5.276661e-06	2.475128e-08	3.802488e+01	1.627299e+03
1.580000e-06	5.291191e-06	2.476423e-08	3.812958e+01	1.628467e+03
1.590000e-06	5.303798e-06	2.477434e-08	3.822043e+01	1.629549e+03
1.600000e-06	5.314222e-06	2.478282e-08	3.829555e+01	1.630414e+03
1.610000e-06	5.322478e-06	2.478941e-08	3.835505e+01	1.630964e+03
1.620000e-06	5.328877e-06	2.479395e-08	3.840116e+01	1.631163e+03
1.630000e-06	5.333507e-06	2.479890e-08	3.843452e+01	1.631047e+03
1.640000e-06	5.336271e-06	2.480254e-08	3.845444e+01	1.630718e+03
1.650000e-06	5.337042e-06	2.480363e-08	3.846000e+01	1.630305e+03
1.660000e-06	5.335936e-06	2.480216e-08	3.845203e+01	1.629928e+03
1.670000e-06	5.333180e-06	2.479720e-08	3.843217e+01	1.629659e+03
1.680000e-06	5.328827e-06	2.479275e-08	3.840080e+01	1.629497e+03
1.690000e-06	5.322653e-06	2.478655e-08	3.835630e+01	1.629373e+03
1.700000e-06	5.314628e-06	2.477763e-08	3.829848e+01	1.629167e+03
1.710000e-06	5.305016e-06	2.476840e-08	3.822921e+01	1.628749e+03
1.720000e-06	5.293762e-06	2.475912e-08	3.814811e+01	1.628017e+03
1.730000e-06	5.280608e-06	2.474923e-08	3.805332e+01	1.626930e+03
1.740000e-06	5.265420e-06	2.471064e-08	3.794387e+01	1.625523e+03
1.750000e-06	5.248046e-06	2.466486e-08	3.781867e+01	1.623898e+03
1.760000e-06	5.228184e-06	2.466142e-08	3.767554e+01	1.622188e+03
1.770000e-06	5.205802e-06	2.466699e-08	3.751425e+01	1.620527e+03
1.780000e-06	5.181799e-06	2.468219e-08	3.734128e+01	1.619004e+03
1.790000e-06	5.157085e-06	2.464061e-08	3.716318e+01	1.617637e+03
1.800000e-06	5.131228e-06	2.455273e-08	3.697685e+01	1.616371e+03
1.810000e-06	5.103341e-06	2.457263e-08	3.677589e+01	1.615096e+03
1.820000e-06	5.073548e-06	2.455747e-08	3.656119e+01	1.613677e+03
1.830000e-06	5.042085e-06	2.450170e-08	3.633446e+01	1.611994e+03
1.840000e-06	5.008729e-06	2.454614e-08	3.609410e+01	1.609980e+03
1.850000e-06	4.973731e-06	2.451575e-08	3.584189e+01	1.607635e+03
1.860000e-06	4.937024e-06	2.447252e-08	3.557737e+01	1.605021e+03
1.870000e-06	4.898272e-06	2.450408e-08	3.529812e+01	1.602243e+03
1.880000e-06	4.857823e-06	2.439320e-08	3.500663e+01	1.599408e+03
1.890000e-06	4.815673e-06	2.433030e-08	3.470289e+01	1.596591e+03
1.900000e-06	4.771863e-06	2.432885e-08	3.438718e+01	1.593811e+03
1.910000e-06	4.726487e-06	2.425155e-08	3.406019e+01	1.591021e+03
1.920000e-06	4.679171e-06	2.427249e-08	3.371922e+01	1.588126e+03
1.930000e-06	4.630169e-06	2.421774e-08	3.336610e+01	1.585009e+03
1.940000e-06	4.579440e-06	2.411686e-08	3.300054e+01	1.581572e+03
1.950000e-06	4.526690e-06	2.407136e-08	3.262041e+01	1.577767e+03
1.960000e-06	4.472031e-06	2.398113e-08	3.222653e+01	1.573611e+03
1.970000e-06	4.415570e-06	2.395812e-08	3.181965e+01	1.569181e+03
1.980000e-06	4.357543e-06	2.390297e-08	3.140149e+01	1.564591e+03
1.990000e-06	4.298140e-06	2.382482e-08	3.097342e+01	1.559959e+03
2.000000e-06	4.237378e-06	2.377400e-08	3.053556e+01	1.555363e+03
2.010000e-06	4.174935e-06	2.366723e-08	3.008558e+01	1.550822e+03
2.020000e-06	4.110698e-06	2.361611e-08	2.962267e+01	1.546284e+03
2.030000e-06	4.045047e-06	2.353348e-08	2.914957e+01	1.541643e+03
2.040000e-06	3.978077e-06	2.346180e-08	2.866697e+01	1.536772e+03
2.050000e-06	3.909766e-06	2.340736e-08	2.817470e+01	1.531557e+03
2.060000e-06	3.839922e-06	2.329039e-08	2.767140e+01	1.525939e+03
2.070000e-06	3.768500e-06	2.321332e-08	2.715671e+01	1.519925e+03
2.080000e-06	3.695796e-06	2.310865e-08	2.663279e+01	1.513591e+03
2.090000e-06	3.621808e-06	2.302260e-08	2.609961e+01	1.507052e+03
2.100000e-06	3.546537e-06	2.293484e-08	2.555719e+01	1.500428e+03
2.110000e-06	3.469876e-06	2.282255e-08	2.500475e+01	1.493802e+03
2.120000e-06	3.391637e-06	2.273549e-08	2.444095e+01	1.487191e+03
2.130000e-06	3.312039e-06	2.262334e-08	2.386734e+01	1.480539e+03
2.140000e-06	3.231358e-06	2.251555e-08	2.328594e+01	1.473729e+03
2.150000e-06	3.149672e-06	2.238725e-08	2.269729e+01	1.466620e+03
2.160000e-06	3.066894e-06	2.227533e-08	2.210077e+01	1.459085e+03
2.170000e-06	2.983112e-06	2.217201e-08	2.149702e+01	1.451053e+03
2.180000e-06	2.898291e-06	2.204360e-08	2.088578e+01	1.442531e+03
2.190000e-06	2.812184e-06	2.191229e-08	2.026527e+01	1.433594e+03
2.200000e-06	2.724902e-06	2.177060e-08	1.963629e+01	1.424368e+03
2.210000e-06	2.636644e-06	2.164037e-08	1.900029e+01	1.414979e+03
2.220000e-06	2.547489e-06	2.149790e-08	1.835781e+01	1.405513e+03
2.230000e-06	2.457384e-06	2.135016e-08	1.770850e+01	1.395982e+03
2.240000e-06	2.366472e-06	2.120259e-08	1.705336e+01	1.386309e+03
2.250000e-06	2.274894e-06	2.104752e-08	1.639343e+01	1.376353e+03
2.260000e-06	2.182592e-06	2.088049e-08	1.572828e+01	1.365939e+03
2.270000e-06	2.089485e-06	2.070388e-08	1.505733e+01	1.354916e+03
2.280000e-06	1.995429e-06	2.053195e-08	1.437954e+01	1.343197e+03
2.290000e-06	1.900535e-06	2.035383e-08	1.369571e+01	1.330784e+03
2.300000e-06	1.804933e-06	2.016754e-08	1.300678e+01	1.317770e+03
2.310000e-06	1.708695e-06	1.996845e-08	1.231327e+01	1.304298e+03
2.320000e-06	1.611947e-06	1.976264e-08	1.161607e+01	1.290516e+03
2.330000e-06	1.514747e-06	1.954924e-08	1.091563e+01	1.276518e+03
2.340000e-06	1.417094e-06	1.932511e-08	1.021192e+01	1.262299e+03
2.350000e-06	1.318936e-06	1.909443e-08	9.504564e+00	1.247745e+03
2.360000e-06	1.220349e-06	1.885736e-08	8.794126e+00	1.232650e+03
2.370000e-06	1.121451e-06	1.861315e-08	8.081444e+00	1.216769e+03
2.380000e-06	1.022271e-06	1.835446e-08	7.366730e+00	1.199881e+03
2.390000e-06	9.228543e-07	1.807911e-08	6.650308e+00	1.181848e+03
2.400000e-06	8.231811e-07	1.779111e-08	5.932039e+00	1.162651e+03
2.410000e-06	7.231942e-07	1.749373e-08	5.211510e+00	1.142382e+03
2.420000e-06	6.229132e-07	1.718385e-08	4.488861e+00	1.121203e+03
2.430000e-06	5.224270e-07	1.685735e-08	3.764734e+00	1.099267e+03
2.440000e-06	4.218005e-07	1.651185e-08	3.039595e+00	1.076643e+03
2.450000e-06	3.210411e-07	1.614609e-08	2.313499e+00	1.053245e+03
2.460000e-06	2.201309e-07	1.575917e-08	1.586316e+00	1.028816e+03
2.470000e-06	1.190498e-07	1.535351e-08	8.579014e-01	1.002957e+03
2.480000e-06	1.785641e-08	1.492633e-08	1.286776e-01	9.751947e+02
2.490000e-06	-8.330484e-08	1.446900e-08	-6.003145e-01	9.450909e+02
2.500000e-06	-1.843812e-07	1.397414e-08	-1.328695e+00	9.123294e+02
2.510000e-06	-2.854033e-07	1.343960e-08	-2.056685e+00	8.767708e+02
2.520000e-06	-3.863536e-07	1.286909e-08	-2.784156e+00	8.384380e+02
2.530000e-06	-4.872070e-07	1.225864e-08	-3.510930e+00	7.974259e+02
2.540000e-06	-5.878600e-07	1.160107e-08	-4.236260e+00	7.537509e+02
2.550000e-06	-6.882376e-07	1.088681e-08	-4.959604e+00	7.071739e+02
2.560000e-06	-7.883836e-07	1.010569e-08	-5.681280e+00	6.570478e+02
2.570000e-06	-8.882934e-07	9.247325e-09	-6.401254e+00	6.022414e+02
2.580000e-06	-9.878870e-07	8.296794e-09	-7.118949e+00	5.411802e+02
2.590000e-06	-1.087145e-06	7.234940e-09	-7.834226e+00	4.720204e+02
2.600000e-06	-1.186090e-06	6.041200e-09	-8.547250e+00	3.929411e+02
2.610000e-06	-1.284684e-06	4.693786e-09	-9.257737e+00	3.025087e+02
2.620000e-06	-1.382852e-06	3.172136e-09	-9.965162e+00	2.000434e+02
2.630000e-06	-1.480473e-06	1.464082e-09	-1.066864e+01	8.591163e+01
2.640000e-06	-1.577536e-06	-4.213193e-10	-1.136810e+01	-3.832720e+01
2.650000e-06	-1.674127e-06	-2.446573e-09	-1.206416e+01	-1.699598e+02
2.660000e-06	-1.770271e-06	-4.551404e-09	-1.275700e+01	-3.053531e+02
2.670000e-06	-1.865877e-06	-6.655506e-09	-1.344595e+01	-4.403496e+02
2.680000e-06	-1.960717e-06	-8.671963e-09	-1.412940e+01	-5.707558e+02
2.690000e-06	-2.054620e-06	-1.053698e-08	-1.480608e+01	-6.928386e+02
2.700000e-06	-2.147557e-06	-1.221554e-08	-1.547581e+01	-8.037407e+02
2.710000e-06	-2.239629e-06	-1.369321e-08	-1.613930e+01	-9.017431e+02
2.720000e-06	-2.330940e-06	-1.497378e-08	-1.679731e+01	-9.863380e+02
2.730000e-06	-2.421479e-06	-1.607244e-08	-1.744975e+01	-1.058111e+03
2.740000e-06	-2.511125e-06	-1.701298e-08	-1.809577e+01	-1.118473e+03
2.750000e-06	-2.599913e-06	-1.781965e-08	-1.873560e+01	-1.169302e+03
2.760000e-06	-2.688021e-06	-1.851343e-08	-1.937052e+01	-1.212578e+03
2.770000e-06	-2.775308e-06	-1.911174e-08	-1.999953e+01	-1.250078e+03
2.780000e-06	-2.861442e-06	-1.962780e-08	-2.062023e+01	-1.283181e+03
2.790000e-06	-2.946383e-06	-2.007499e-08	-2.123234e+01	-1.312798e+03
2.800000e-06	-3.030258e-06	-2.046848e-08	-2.183676e+01	-1.339428e+03
2.810000e-06	-3.113124e-06	-2.081806e-08	-2.243391e+01	-1.363286e+03
2.820000e-06	-3.194940e-06	-2.112943e-08	-2.302350e+01	-1.384467e+03
2.830000e-06	-3.275717e-06	-2.140997e-08	-2.360560e+01	-1.403093e+03
2.840000e-06	-3.355464e-06	-2.166456e-08	-2.418028e+01	-1.419397e+03
2.850000e-06	-3.433862e-06	-2.189705e-08	-2.474523e+01	-1.433750e+03
2.860000e-06	-3.510768e-06	-2.211137e-08	-2.529943e+01	-1.446614e+03
2.870000e-06	-3.586270e-06	-2.230676e-08	-2.584352e+01	-1.458457e+03
2.880000e-06	-3.660363e-06	-2.248435e-08	-2.637745e+01	-1.469665e+03
2.890000e-06	-3.733139e-06	-2.264845e-08	-2.690189e+01	-1.480468e+03
2.900000e-06	-3.804656e-06	-2.280145e-08	-2.741726e+01	-1.490925e+03
2.910000e-06	-3.874697e-06	-2.294585e-08	-2.792199e+01	-1.500940e+03
2.920000e-06	-3.943222e-06	-2.308203e-08	-2.841580e+01	-1.510336e+03
2.930000e-06	-4.010434e-06	-2.320710e-08	-2.890014e+01	-1.518932e+03
2.940000e-06	-4.076276e-06	-2.332110e-08	-2.937462e+01	-1.526623e+03
