# Temperatura_=_82.41
# Concentracion g/m^3_=_41000.0
# C_Vs_to_Am_M_A/Vsm_=_65563218390.804596
# pendiente_HvsI_1/m_=_3716.3
# ordenada_HvsI_A/m_=_1297.0
# frecuencia_Hz_=_301606.4530572524

Tiempo_(s)	Campo_(V.s)	Magnetizacion_(V.s)	Campo_(kA/m)	Magnetizacion_(A/m)
0.000000e+00	-5.320735e-06	-2.347692e-08	-3.834519e+01	-1.535130e+03
1.000000e-08	-5.318197e-06	-2.346934e-08	-3.832689e+01	-1.534977e+03
2.000000e-08	-5.313884e-06	-2.346305e-08	-3.829581e+01	-1.534896e+03
3.000000e-08	-5.307970e-06	-2.345444e-08	-3.825319e+01	-1.534772e+03
4.000000e-08	-5.300467e-06	-2.344205e-08	-3.819912e+01	-1.534467e+03
5.000000e-08	-5.291175e-06	-2.342763e-08	-3.813215e+01	-1.533860e+03
6.000000e-08	-5.279849e-06	-2.341146e-08	-3.805053e+01	-1.532888e+03
7.000000e-08	-5.266575e-06	-2.339700e-08	-3.795487e+01	-1.531565e+03
8.000000e-08	-5.251200e-06	-2.339364e-08	-3.784406e+01	-1.529978e+03
9.000000e-08	-5.233538e-06	-2.337644e-08	-3.771677e+01	-1.528263e+03
1.000000e-07	-5.213818e-06	-2.335548e-08	-3.757466e+01	-1.526563e+03
1.100000e-07	-5.192238e-06	-2.333141e-08	-3.741914e+01	-1.524986e+03
1.200000e-07	-5.169038e-06	-2.326831e-08	-3.725194e+01	-1.523570e+03
1.300000e-07	-5.144511e-06	-2.324324e-08	-3.707519e+01	-1.522278e+03
1.400000e-07	-5.118455e-06	-2.325780e-08	-3.688740e+01	-1.521006e+03
1.500000e-07	-5.090633e-06	-2.318365e-08	-3.668690e+01	-1.519617e+03
1.600000e-07	-5.061325e-06	-2.317053e-08	-3.647568e+01	-1.517982e+03
1.700000e-07	-5.030551e-06	-2.316921e-08	-3.625390e+01	-1.516020e+03
1.800000e-07	-4.997747e-06	-2.307242e-08	-3.601749e+01	-1.513718e+03
1.900000e-07	-4.962932e-06	-2.306404e-08	-3.576659e+01	-1.511135e+03
2.000000e-07	-4.926573e-06	-2.303477e-08	-3.550456e+01	-1.508379e+03
2.100000e-07	-4.888574e-06	-2.293824e-08	-3.523071e+01	-1.505568e+03
2.200000e-07	-4.848827e-06	-2.291532e-08	-3.494426e+01	-1.502793e+03
2.300000e-07	-4.807215e-06	-2.289806e-08	-3.464438e+01	-1.500084e+03
2.400000e-07	-4.763643e-06	-2.283340e-08	-3.433037e+01	-1.497403e+03
2.500000e-07	-4.718314e-06	-2.277573e-08	-3.400369e+01	-1.494646e+03
2.600000e-07	-4.671264e-06	-2.271602e-08	-3.366461e+01	-1.491683e+03
2.700000e-07	-4.622229e-06	-2.265792e-08	-3.331123e+01	-1.488392e+03
2.800000e-07	-4.571036e-06	-2.260865e-08	-3.294230e+01	-1.484698e+03
2.900000e-07	-4.517878e-06	-2.257870e-08	-3.255920e+01	-1.480599e+03
3.000000e-07	-4.463065e-06	-2.250837e-08	-3.216417e+01	-1.476166e+03
3.100000e-07	-4.406652e-06	-2.242966e-08	-3.175762e+01	-1.471519e+03
3.200000e-07	-4.348545e-06	-2.236837e-08	-3.133886e+01	-1.466794e+03
3.300000e-07	-4.288817e-06	-2.227065e-08	-3.090841e+01	-1.462098e+03
3.400000e-07	-4.227589e-06	-2.220533e-08	-3.046716e+01	-1.457478e+03
3.500000e-07	-4.164997e-06	-2.215591e-08	-3.001607e+01	-1.452904e+03
3.600000e-07	-4.101028e-06	-2.207228e-08	-2.955507e+01	-1.448280e+03
3.700000e-07	-4.035462e-06	-2.198260e-08	-2.908255e+01	-1.443474e+03
3.800000e-07	-3.968244e-06	-2.190218e-08	-2.859812e+01	-1.438359e+03
3.900000e-07	-3.899575e-06	-2.181841e-08	-2.810324e+01	-1.432853e+03
4.000000e-07	-3.829650e-06	-2.172898e-08	-2.759931e+01	-1.426943e+03
4.100000e-07	-3.758591e-06	-2.164623e-08	-2.708721e+01	-1.420693e+03
4.200000e-07	-3.686280e-06	-2.155641e-08	-2.656608e+01	-1.414216e+03
4.300000e-07	-3.612438e-06	-2.145948e-08	-2.603392e+01	-1.407645e+03
4.400000e-07	-3.536985e-06	-2.136135e-08	-2.549015e+01	-1.401082e+03
4.500000e-07	-3.460116e-06	-2.125348e-08	-2.493618e+01	-1.394568e+03
4.600000e-07	-3.381910e-06	-2.114830e-08	-2.437257e+01	-1.388063e+03
4.700000e-07	-3.302313e-06	-2.104430e-08	-2.379893e+01	-1.381458e+03
4.800000e-07	-3.221396e-06	-2.092958e-08	-2.321578e+01	-1.374607e+03
4.900000e-07	-3.139326e-06	-2.081439e-08	-2.262432e+01	-1.367368e+03
5.000000e-07	-3.056280e-06	-2.069937e-08	-2.202583e+01	-1.359651e+03
5.100000e-07	-2.972356e-06	-2.057772e-08	-2.142101e+01	-1.351443e+03
5.200000e-07	-2.887593e-06	-2.044698e-08	-2.081015e+01	-1.342813e+03
5.300000e-07	-2.801906e-06	-2.031523e-08	-2.019262e+01	-1.333886e+03
5.400000e-07	-2.715266e-06	-2.018649e-08	-1.956823e+01	-1.324806e+03
5.500000e-07	-2.627712e-06	-2.005066e-08	-1.893725e+01	-1.315681e+03
5.600000e-07	-2.539164e-06	-1.990208e-08	-1.829911e+01	-1.306546e+03
5.700000e-07	-2.449530e-06	-1.974850e-08	-1.765314e+01	-1.297344e+03
5.800000e-07	-2.358862e-06	-1.959795e-08	-1.699972e+01	-1.287938e+03
5.900000e-07	-2.267322e-06	-1.944001e-08	-1.634001e+01	-1.278146e+03
6.000000e-07	-2.175014e-06	-1.927538e-08	-1.567477e+01	-1.267797e+03
6.100000e-07	-2.081962e-06	-1.910818e-08	-1.500417e+01	-1.256780e+03
6.200000e-07	-1.988128e-06	-1.893601e-08	-1.432793e+01	-1.245080e+03
6.300000e-07	-1.893557e-06	-1.875503e-08	-1.364638e+01	-1.232780e+03
6.400000e-07	-1.798404e-06	-1.856587e-08	-1.296064e+01	-1.220035e+03
6.500000e-07	-1.702652e-06	-1.837153e-08	-1.227058e+01	-1.207017e+03
6.600000e-07	-1.606268e-06	-1.817104e-08	-1.157596e+01	-1.193853e+03
6.700000e-07	-1.509301e-06	-1.796580e-08	-1.087715e+01	-1.180575e+03
6.800000e-07	-1.411661e-06	-1.775229e-08	-1.017348e+01	-1.167093e+03
6.900000e-07	-1.313392e-06	-1.752815e-08	-9.465286e+00	-1.153210e+03
7.000000e-07	-1.214644e-06	-1.729347e-08	-8.753630e+00	-1.138670e+03
7.100000e-07	-1.115445e-06	-1.705164e-08	-8.038726e+00	-1.123226e+03
7.200000e-07	-1.015863e-06	-1.680271e-08	-7.321067e+00	-1.106706e+03
7.300000e-07	-9.160066e-07	-1.654385e-08	-6.601426e+00	-1.089067e+03
7.400000e-07	-8.158950e-07	-1.627383e-08	-5.879948e+00	-1.070391e+03
7.500000e-07	-7.155828e-07	-1.598823e-08	-5.157024e+00	-1.050855e+03
7.600000e-07	-6.150835e-07	-1.568402e-08	-4.432750e+00	-1.030653e+03
7.700000e-07	-5.143696e-07	-1.536326e-08	-3.706931e+00	-1.009904e+03
7.800000e-07	-4.135251e-07	-1.502896e-08	-2.980171e+00	-9.885797e+02
7.900000e-07	-3.125795e-07	-1.467987e-08	-2.252681e+00	-9.664622e+02
8.000000e-07	-2.114533e-07	-1.431159e-08	-1.523890e+00	-9.431618e+02
8.100000e-07	-1.101998e-07	-1.391850e-08	-7.941821e-01	-9.181861e+02
8.200000e-07	-8.926684e-09	-1.349864e-08	-6.433234e-02	-8.910455e+02
8.300000e-07	9.237226e-08	-1.304988e-08	6.657034e-01	-8.613613e+02
8.400000e-07	1.936429e-07	-1.256845e-08	1.395535e+00	-8.289397e+02
8.500000e-07	2.949249e-07	-1.205174e-08	2.125449e+00	-7.937797e+02
8.600000e-07	3.961432e-07	-1.149535e-08	2.854903e+00	-7.559996e+02
8.700000e-07	4.971385e-07	-1.089283e-08	3.582750e+00	-7.156905e+02
8.800000e-07	5.979273e-07	-1.023458e-08	4.309110e+00	-6.727291e+02
8.900000e-07	6.985341e-07	-9.512295e-09	5.034157e+00	-6.265999e+02
9.000000e-07	7.989558e-07	-8.715949e-09	5.757871e+00	-5.762854e+02
9.100000e-07	8.991888e-07	-7.833956e-09	6.480225e+00	-5.202704e+02
9.200000e-07	9.992325e-07	-6.849499e-09	7.201214e+00	-4.566876e+02
9.300000e-07	1.099058e-06	-5.737260e-09	7.920634e+00	-3.835972e+02
9.400000e-07	1.198537e-06	-4.471963e-09	8.637551e+00	-2.993587e+02
9.500000e-07	1.297517e-06	-3.032280e-09	9.350877e+00	-2.030274e+02
9.600000e-07	1.395879e-06	-1.405406e-09	1.005974e+01	-9.469038e+01
9.700000e-07	1.493493e-06	4.035902e-10	1.076323e+01	2.433383e+01
9.800000e-07	1.590378e-06	2.361670e-09	1.146145e+01	1.514875e+02
9.900000e-07	1.686618e-06	4.405356e-09	1.215503e+01	2.831756e+02
1.000000e-06	1.782249e-06	6.451911e-09	1.284421e+01	4.151516e+02
1.010000e-06	1.877242e-06	8.416815e-09	1.352881e+01	5.430230e+02
1.020000e-06	1.971544e-06	1.022823e-08	1.420842e+01	6.627867e+02
1.030000e-06	2.065127e-06	1.184395e-08	1.488285e+01	7.712975e+02
1.040000e-06	2.158029e-06	1.324783e-08	1.555237e+01	8.665877e+02
1.050000e-06	2.250353e-06	1.444591e-08	1.621772e+01	9.479863e+02
1.060000e-06	2.342085e-06	1.545841e-08	1.687881e+01	1.016030e+03
1.070000e-06	2.433015e-06	1.631124e-08	1.753412e+01	1.072197e+03
1.080000e-06	2.522851e-06	1.702883e-08	1.818154e+01	1.118532e+03
1.090000e-06	2.611517e-06	1.763563e-08	1.882054e+01	1.157239e+03
1.100000e-06	2.699171e-06	1.815540e-08	1.945224e+01	1.190330e+03
1.110000e-06	2.785966e-06	1.860255e-08	2.007775e+01	1.219384e+03
1.120000e-06	2.871915e-06	1.899116e-08	2.069716e+01	1.245446e+03
1.130000e-06	2.956919e-06	1.933542e-08	2.130976e+01	1.269063e+03
1.140000e-06	3.041002e-06	1.964222e-08	2.191573e+01	1.290422e+03
1.150000e-06	3.124156e-06	1.991601e-08	2.251500e+01	1.309528e+03
1.160000e-06	3.206204e-06	2.016215e-08	2.310629e+01	1.326386e+03
1.170000e-06	3.287051e-06	2.038557e-08	2.368894e+01	1.341119e+03
1.180000e-06	3.366732e-06	2.058952e-08	2.426318e+01	1.354014e+03
1.190000e-06	3.445188e-06	2.077549e-08	2.482860e+01	1.365493e+03
1.200000e-06	3.522354e-06	2.094877e-08	2.538471e+01	1.376026e+03
1.210000e-06	3.598273e-06	2.111183e-08	2.593184e+01	1.386029e+03
1.220000e-06	3.672785e-06	2.126446e-08	2.646883e+01	1.395777e+03
1.230000e-06	3.745692e-06	2.140484e-08	2.699425e+01	1.405362e+03
1.240000e-06	3.817193e-06	2.153506e-08	2.750954e+01	1.414699e+03
1.250000e-06	3.887371e-06	2.165791e-08	2.801530e+01	1.423596e+03
1.260000e-06	3.956182e-06	2.177259e-08	2.851120e+01	1.431830e+03
1.270000e-06	4.023714e-06	2.187984e-08	2.899788e+01	1.439243e+03
1.280000e-06	4.089715e-06	2.198047e-08	2.947354e+01	1.445796e+03
1.290000e-06	4.153993e-06	2.207505e-08	2.993677e+01	1.451591e+03
1.300000e-06	4.216766e-06	2.216437e-08	3.038916e+01	1.456840e+03
1.310000e-06	4.278161e-06	2.224910e-08	3.083162e+01	1.461809e+03
1.320000e-06	4.338246e-06	2.233047e-08	3.126464e+01	1.466738e+03
1.330000e-06	4.396893e-06	2.240890e-08	3.168729e+01	1.471779e+03
1.340000e-06	4.453763e-06	2.248526e-08	3.209714e+01	1.476959e+03
1.350000e-06	4.508903e-06	2.255857e-08	3.249451e+01	1.482185e+03
1.360000e-06	4.562453e-06	2.262764e-08	3.288043e+01	1.487283e+03
1.370000e-06	4.614255e-06	2.269169e-08	3.325377e+01	1.492058e+03
1.380000e-06	4.663990e-06	2.275100e-08	3.361219e+01	1.496356e+03
1.390000e-06	4.711795e-06	2.280797e-08	3.395671e+01	1.500115e+03
1.400000e-06	4.758005e-06	2.286202e-08	3.428973e+01	1.503380e+03
1.410000e-06	4.802690e-06	2.291438e-08	3.461176e+01	1.506284e+03
1.420000e-06	4.845802e-06	2.296292e-08	3.492246e+01	1.509006e+03
1.430000e-06	4.887017e-06	2.300722e-08	3.521949e+01	1.511713e+03
1.440000e-06	4.926392e-06	2.305080e-08	3.550326e+01	1.514510e+03
1.450000e-06	4.964187e-06	2.309288e-08	3.577563e+01	1.517409e+03
1.460000e-06	5.000416e-06	2.313202e-08	3.603672e+01	1.520333e+03
1.470000e-06	5.034860e-06	2.316598e-08	3.628496e+01	1.523142e+03
1.480000e-06	5.067372e-06	2.319557e-08	3.651926e+01	1.525680e+03
1.490000e-06	5.098158e-06	2.322112e-08	3.674113e+01	1.527827e+03
1.500000e-06	5.127300e-06	2.324433e-08	3.695114e+01	1.529540e+03
1.510000e-06	5.154703e-06	2.326768e-08	3.714863e+01	1.530861e+03
1.520000e-06	5.180135e-06	2.329103e-08	3.733192e+01	1.531910e+03
1.530000e-06	5.203554e-06	2.331294e-08	3.750069e+01	1.532842e+03
1.540000e-06	5.225182e-06	2.333189e-08	3.765656e+01	1.533802e+03
1.550000e-06	5.245137e-06	2.334874e-08	3.780037e+01	1.534882e+03
1.560000e-06	5.263264e-06	2.336389e-08	3.793100e+01	1.536090e+03
1.570000e-06	5.279379e-06	2.337887e-08	3.804714e+01	1.537356e+03
1.580000e-06	5.293520e-06	2.339288e-08	3.814905e+01	1.538552e+03
1.590000e-06	5.305692e-06	2.340311e-08	3.823677e+01	1.539534e+03
1.600000e-06	5.315699e-06	2.340946e-08	3.830889e+01	1.540190e+03
1.610000e-06	5.323599e-06	2.341371e-08	3.836582e+01	1.540473e+03
1.620000e-06	5.329642e-06	2.341797e-08	3.840938e+01	1.540416e+03
1.630000e-06	5.333899e-06	2.342250e-08	3.844005e+01	1.540121e+03
1.640000e-06	5.336270e-06	2.342503e-08	3.845714e+01	1.539726e+03
1.650000e-06	5.336667e-06	2.342426e-08	3.846000e+01	1.539362e+03
1.660000e-06	5.335225e-06	2.342192e-08	3.844961e+01	1.539110e+03
1.670000e-06	5.332186e-06	2.342043e-08	3.842770e+01	1.538979e+03
1.680000e-06	5.327518e-06	2.341643e-08	3.839407e+01	1.538899e+03
1.690000e-06	5.320946e-06	2.340915e-08	3.834670e+01	1.538747e+03
1.700000e-06	5.312595e-06	2.339698e-08	3.828652e+01	1.538385e+03
1.710000e-06	5.302688e-06	2.338174e-08	3.821512e+01	1.537703e+03
1.720000e-06	5.291114e-06	2.336785e-08	3.813172e+01	1.536651e+03
1.730000e-06	5.277639e-06	2.333789e-08	3.803460e+01	1.535261e+03
1.740000e-06	5.262111e-06	2.331805e-08	3.792270e+01	1.533634e+03
1.750000e-06	5.244319e-06	2.329481e-08	3.779447e+01	1.531910e+03
1.760000e-06	5.223939e-06	2.327335e-08	3.764760e+01	1.530228e+03
1.770000e-06	5.201210e-06	2.329259e-08	3.748379e+01	1.528684e+03
1.780000e-06	5.177119e-06	2.325527e-08	3.731018e+01	1.527300e+03
1.790000e-06	5.152251e-06	2.320390e-08	3.713096e+01	1.526022e+03
1.800000e-06	5.126025e-06	2.320379e-08	3.694196e+01	1.524736e+03
1.810000e-06	5.097772e-06	2.314374e-08	3.673835e+01	1.523304e+03
1.820000e-06	5.067732e-06	2.314377e-08	3.652186e+01	1.521603e+03
1.830000e-06	5.035971e-06	2.315675e-08	3.629296e+01	1.519565e+03
1.840000e-06	5.002301e-06	2.307388e-08	3.605031e+01	1.517196e+03
1.850000e-06	4.967033e-06	2.308637e-08	3.579615e+01	1.514565e+03
1.860000e-06	4.929973e-06	2.310103e-08	3.552906e+01	1.511787e+03
1.870000e-06	4.890973e-06	2.302582e-08	3.524800e+01	1.508977e+03
1.880000e-06	4.850299e-06	2.297499e-08	3.495487e+01	1.506215e+03
1.890000e-06	4.807849e-06	2.292050e-08	3.464895e+01	1.503518e+03
1.900000e-06	4.763699e-06	2.291267e-08	3.433076e+01	1.500830e+03
1.910000e-06	4.717864e-06	2.289742e-08	3.400044e+01	1.498040e+03
1.920000e-06	4.670263e-06	2.280794e-08	3.365739e+01	1.495015e+03
1.930000e-06	4.621059e-06	2.276446e-08	3.330280e+01	1.491640e+03
1.940000e-06	4.570047e-06	2.269123e-08	3.293517e+01	1.487857e+03
1.950000e-06	4.517013e-06	2.262893e-08	3.255296e+01	1.483678e+03
1.960000e-06	4.462078e-06	2.257047e-08	3.215706e+01	1.479186e+03
1.970000e-06	4.405368e-06	2.250325e-08	3.174837e+01	1.474511e+03
1.980000e-06	4.347103e-06	2.248513e-08	3.132846e+01	1.469784e+03
1.990000e-06	4.287479e-06	2.238090e-08	3.089877e+01	1.465103e+03
2.000000e-06	4.226378e-06	2.228517e-08	3.045843e+01	1.460496e+03
2.010000e-06	4.163566e-06	2.223442e-08	3.000576e+01	1.455921e+03
2.020000e-06	4.099108e-06	2.215588e-08	2.954123e+01	1.451269e+03
2.030000e-06	4.033223e-06	2.208261e-08	2.906641e+01	1.446406e+03
2.040000e-06	3.965979e-06	2.198859e-08	2.858180e+01	1.441211e+03
2.050000e-06	3.897328e-06	2.192255e-08	2.808705e+01	1.435616e+03
2.060000e-06	3.827145e-06	2.183566e-08	2.758126e+01	1.429626e+03
2.070000e-06	3.755515e-06	2.172847e-08	2.706504e+01	1.423315e+03
2.080000e-06	3.682659e-06	2.164096e-08	2.653998e+01	1.416807e+03
2.090000e-06	3.608509e-06	2.154541e-08	2.600560e+01	1.410230e+03
2.100000e-06	3.532956e-06	2.146087e-08	2.546112e+01	1.403676e+03
2.110000e-06	3.455902e-06	2.134531e-08	2.490581e+01	1.397169e+03
2.120000e-06	3.377372e-06	2.123839e-08	2.433986e+01	1.390653e+03
2.130000e-06	3.297585e-06	2.113812e-08	2.376485e+01	1.384008e+03
2.140000e-06	3.216719e-06	2.102288e-08	2.318208e+01	1.377083e+03
2.150000e-06	3.134822e-06	2.090722e-08	2.259187e+01	1.369747e+03
2.160000e-06	3.051845e-06	2.078849e-08	2.199387e+01	1.361922e+03
2.170000e-06	2.967912e-06	2.068215e-08	2.138898e+01	1.353615e+03
2.180000e-06	2.882899e-06	2.055625e-08	2.077632e+01	1.344909e+03
2.190000e-06	2.796583e-06	2.041896e-08	2.015426e+01	1.335937e+03
2.200000e-06	2.709093e-06	2.028135e-08	1.952375e+01	1.326839e+03
2.210000e-06	2.620649e-06	2.014918e-08	1.888635e+01	1.317712e+03
2.220000e-06	2.531313e-06	2.001221e-08	1.824253e+01	1.308569e+03
2.230000e-06	2.441107e-06	1.985916e-08	1.759244e+01	1.299337e+03
2.240000e-06	2.350144e-06	1.971112e-08	1.693689e+01	1.289863e+03
2.250000e-06	2.258469e-06	1.955855e-08	1.627621e+01	1.279964e+03
2.260000e-06	2.166036e-06	1.939800e-08	1.561007e+01	1.269478e+03
2.270000e-06	2.072707e-06	1.922980e-08	1.493747e+01	1.258312e+03
2.280000e-06	1.978413e-06	1.906114e-08	1.425792e+01	1.246472e+03
2.290000e-06	1.883295e-06	1.888519e-08	1.357243e+01	1.234062e+03
2.300000e-06	1.787519e-06	1.869650e-08	1.288219e+01	1.221244e+03
2.310000e-06	1.691252e-06	1.849829e-08	1.218842e+01	1.208186e+03
2.320000e-06	1.594535e-06	1.829479e-08	1.149141e+01	1.194998e+03
2.330000e-06	1.497297e-06	1.809029e-08	1.079064e+01	1.181687e+03
2.340000e-06	1.399528e-06	1.787865e-08	1.008604e+01	1.168138e+03
2.350000e-06	1.301280e-06	1.765987e-08	9.377996e+00	1.154136e+03
2.360000e-06	1.202647e-06	1.742918e-08	8.667172e+00	1.139421e+03
2.370000e-06	1.103710e-06	1.718766e-08	7.954154e+00	1.123756e+03
2.380000e-06	1.004518e-06	1.693321e-08	7.239308e+00	1.106995e+03
2.390000e-06	9.050669e-07	1.666476e-08	6.522587e+00	1.089122e+03
2.400000e-06	8.052887e-07	1.638683e-08	5.803511e+00	1.070244e+03
2.410000e-06	7.052146e-07	1.609993e-08	5.082302e+00	1.050550e+03
2.420000e-06	6.049128e-07	1.579980e-08	4.359453e+00	1.030224e+03
2.430000e-06	5.044378e-07	1.548184e-08	3.635355e+00	1.009360e+03
2.440000e-06	4.038493e-07	1.514630e-08	2.910439e+00	9.878896e+02
2.450000e-06	3.031208e-07	1.479355e-08	2.184514e+00	9.655556e+02
2.460000e-06	2.022360e-07	1.442126e-08	1.457464e+00	9.419387e+02
2.470000e-06	1.012213e-07	1.402522e-08	7.294760e-01	9.165374e+02
2.480000e-06	1.408139e-10	1.360312e-08	1.014810e-03	8.888775e+02
2.490000e-06	-1.009450e-07	1.314958e-08	-7.274850e-01	8.586154e+02
2.500000e-06	-2.019853e-07	1.265855e-08	-1.455657e+00	8.256007e+02
2.510000e-06	-3.028894e-07	1.212688e-08	-2.182847e+00	7.898669e+02
2.520000e-06	-4.036918e-07	1.155575e-08	-2.909304e+00	7.515409e+02
2.530000e-06	-5.044194e-07	1.094300e-08	-3.635223e+00	7.106841e+02
2.540000e-06	-6.050150e-07	1.027745e-08	-4.360189e+00	6.671026e+02
2.550000e-06	-7.054336e-07	9.545323e-09	-5.083881e+00	6.201796e+02
2.560000e-06	-8.056145e-07	8.735430e-09	-5.805859e+00	5.687857e+02
2.570000e-06	-9.055461e-07	7.835447e-09	-6.526040e+00	5.113131e+02
2.580000e-06	-1.005181e-06	6.827240e-09	-7.244083e+00	4.458514e+02
2.590000e-06	-1.104419e-06	5.689189e-09	-7.959268e+00	3.704917e+02
2.600000e-06	-1.203262e-06	4.397754e-09	-8.671605e+00	2.837101e+02
2.610000e-06	-1.301746e-06	2.931615e-09	-9.381352e+00	1.847581e+02
2.620000e-06	-1.399809e-06	1.279958e-09	-1.008807e+01	7.397574e+01
2.630000e-06	-1.497342e-06	-5.516793e-10	-1.079096e+01	-4.704626e+01
2.640000e-06	-1.594320e-06	-2.529251e-09	-1.148986e+01	-1.755040e+02
2.650000e-06	-1.690778e-06	-4.586571e-09	-1.218501e+01	-3.076251e+02
2.660000e-06	-1.786765e-06	-6.640027e-09	-1.287676e+01	-4.390867e+02
2.670000e-06	-1.882238e-06	-8.602353e-09	-1.356481e+01	-5.655355e+02
2.680000e-06	-1.976946e-06	-1.040323e-08	-1.424735e+01	-6.831168e+02
2.690000e-06	-2.070664e-06	-1.200225e-08	-1.492275e+01	-7.889171e+02
2.700000e-06	-2.163442e-06	-1.338810e-08	-1.559137e+01	-8.812438e+02
2.710000e-06	-2.255456e-06	-1.456988e-08	-1.625450e+01	-9.596989e+02
2.720000e-06	-2.346707e-06	-1.556969e-08	-1.691212e+01	-1.025048e+03
2.730000e-06	-2.437166e-06	-1.641318e-08	-1.756404e+01	-1.078926e+03
2.740000e-06	-2.526707e-06	-1.712522e-08	-1.820933e+01	-1.123443e+03
2.750000e-06	-2.615361e-06	-1.772947e-08	-1.884824e+01	-1.160789e+03
2.760000e-06	-2.703279e-06	-1.824527e-08	-1.948185e+01	-1.192901e+03
2.770000e-06	-2.790379e-06	-1.868822e-08	-2.010955e+01	-1.221244e+03
2.780000e-06	-2.876404e-06	-1.907215e-08	-2.072951e+01	-1.246752e+03
2.790000e-06	-2.961157e-06	-1.941078e-08	-2.134031e+01	-1.269880e+03
2.800000e-06	-3.044804e-06	-1.971325e-08	-2.194313e+01	-1.290758e+03
2.810000e-06	-3.127501e-06	-1.998580e-08	-2.253910e+01	-1.309380e+03
2.820000e-06	-3.209188e-06	-2.023109e-08	-2.312780e+01	-1.325768e+03
2.830000e-06	-3.289784e-06	-2.045307e-08	-2.370864e+01	-1.340078e+03
2.840000e-06	-3.369273e-06	-2.065589e-08	-2.428149e+01	-1.352632e+03
2.850000e-06	-3.447388e-06	-2.084077e-08	-2.484445e+01	-1.363869e+03
2.860000e-06	-3.523956e-06	-2.101204e-08	-2.539625e+01	-1.374258e+03
2.870000e-06	-3.599170e-06	-2.117238e-08	-2.593830e+01	-1.384190e+03
2.880000e-06	-3.673063e-06	-2.132219e-08	-2.647083e+01	-1.393903e+03
2.890000e-06	-3.745654e-06	-2.146326e-08	-2.699398e+01	-1.403446e+03
2.900000e-06	-3.817005e-06	-2.159571e-08	-2.750819e+01	-1.412709e+03
2.910000e-06	-3.886867e-06	-2.171998e-08	-2.801166e+01	-1.421482e+03
2.920000e-06	-3.955165e-06	-2.183709e-08	-2.850387e+01	-1.429551e+03
2.930000e-06	-4.022063e-06	-2.194570e-08	-2.898599e+01	-1.436779e+03
2.940000e-06	-4.087584e-06	-2.204474e-08	-2.945818e+01	-1.443157e+03
