# Temperatura_=_35.79
# Concentracion g/m^3_=_41000.0
# C_Vs_to_Am_M_A/Vsm_=_65563218390.804596
# pendiente_HvsI_1/m_=_3716.3
# ordenada_HvsI_A/m_=_1297.0
# frecuencia_Hz_=_301610.87730079546

Tiempo_(s)	Campo_(V.s)	Magnetizacion_(V.s)	Campo_(kA/m)	Magnetizacion_(A/m)
0.000000e+00	-5.319085e-06	-2.368570e-08	-3.834078e+01	-1.548305e+03
1.000000e-08	-5.316441e-06	-2.368064e-08	-3.832172e+01	-1.547879e+03
2.000000e-08	-5.311994e-06	-2.367532e-08	-3.828967e+01	-1.547497e+03
3.000000e-08	-5.305959e-06	-2.366888e-08	-3.824617e+01	-1.547168e+03
4.000000e-08	-5.298380e-06	-2.365703e-08	-3.819154e+01	-1.546848e+03
5.000000e-08	-5.289012e-06	-2.364290e-08	-3.812401e+01	-1.546456e+03
6.000000e-08	-5.277581e-06	-2.362595e-08	-3.804161e+01	-1.545898e+03
7.000000e-08	-5.264275e-06	-2.360249e-08	-3.794570e+01	-1.545099e+03
8.000000e-08	-5.248857e-06	-2.361648e-08	-3.783457e+01	-1.544029e+03
9.000000e-08	-5.231115e-06	-2.362290e-08	-3.770668e+01	-1.542712e+03
1.000000e-07	-5.211364e-06	-2.358546e-08	-3.756431e+01	-1.541219e+03
1.100000e-07	-5.189770e-06	-2.356788e-08	-3.740866e+01	-1.539646e+03
1.200000e-07	-5.166587e-06	-2.350446e-08	-3.724155e+01	-1.538085e+03
1.300000e-07	-5.142030e-06	-2.342665e-08	-3.706454e+01	-1.536593e+03
1.400000e-07	-5.115802e-06	-2.350539e-08	-3.687549e+01	-1.535170e+03
1.500000e-07	-5.087796e-06	-2.341953e-08	-3.667362e+01	-1.533758e+03
1.600000e-07	-5.058344e-06	-2.335794e-08	-3.646132e+01	-1.532260e+03
1.700000e-07	-5.027425e-06	-2.347621e-08	-3.623845e+01	-1.530561e+03
1.800000e-07	-4.994506e-06	-2.333685e-08	-3.600117e+01	-1.528571e+03
1.900000e-07	-4.959627e-06	-2.324795e-08	-3.574975e+01	-1.526247e+03
2.000000e-07	-4.923214e-06	-2.327247e-08	-3.548728e+01	-1.523611e+03
2.100000e-07	-4.885140e-06	-2.313701e-08	-3.521284e+01	-1.520742e+03
2.200000e-07	-4.845333e-06	-2.312783e-08	-3.492591e+01	-1.517755e+03
2.300000e-07	-4.803571e-06	-2.316629e-08	-3.462488e+01	-1.514767e+03
2.400000e-07	-4.759843e-06	-2.306592e-08	-3.430968e+01	-1.511863e+03
2.500000e-07	-4.714403e-06	-2.303087e-08	-3.398214e+01	-1.509064e+03
2.600000e-07	-4.667145e-06	-2.295786e-08	-3.364150e+01	-1.506329e+03
2.700000e-07	-4.617909e-06	-2.291012e-08	-3.328660e+01	-1.503558e+03
2.800000e-07	-4.566598e-06	-2.290067e-08	-3.291674e+01	-1.500624e+03
2.900000e-07	-4.513452e-06	-2.283415e-08	-3.253366e+01	-1.497409e+03
3.000000e-07	-4.458733e-06	-2.275263e-08	-3.213923e+01	-1.493840e+03
3.100000e-07	-4.402340e-06	-2.270922e-08	-3.173275e+01	-1.489904e+03
3.200000e-07	-4.344157e-06	-2.267327e-08	-3.131335e+01	-1.485657e+03
3.300000e-07	-4.284367e-06	-2.257049e-08	-3.088237e+01	-1.481200e+03
3.400000e-07	-4.223141e-06	-2.250577e-08	-3.044105e+01	-1.476649e+03
3.500000e-07	-4.160522e-06	-2.246694e-08	-2.998969e+01	-1.472101e+03
3.600000e-07	-4.096529e-06	-2.236563e-08	-2.952841e+01	-1.467598e+03
3.700000e-07	-4.030991e-06	-2.229706e-08	-2.905600e+01	-1.463121e+03
3.800000e-07	-3.963809e-06	-2.225712e-08	-2.857174e+01	-1.458588e+03
3.900000e-07	-3.895158e-06	-2.217068e-08	-2.807690e+01	-1.453887e+03
4.000000e-07	-3.825247e-06	-2.207319e-08	-2.757297e+01	-1.448903e+03
4.100000e-07	-3.754166e-06	-2.197921e-08	-2.706061e+01	-1.443559e+03
4.200000e-07	-3.681810e-06	-2.190530e-08	-2.653905e+01	-1.437834e+03
4.300000e-07	-3.607917e-06	-2.182422e-08	-2.600642e+01	-1.431773e+03
4.400000e-07	-3.532407e-06	-2.174222e-08	-2.546213e+01	-1.425466e+03
4.500000e-07	-3.455507e-06	-2.164771e-08	-2.490783e+01	-1.419023e+03
4.600000e-07	-3.377304e-06	-2.153317e-08	-2.434412e+01	-1.412535e+03
4.700000e-07	-3.297700e-06	-2.142415e-08	-2.377033e+01	-1.406043e+03
4.800000e-07	-3.216783e-06	-2.131776e-08	-2.318706e+01	-1.399523e+03
4.900000e-07	-3.134710e-06	-2.122724e-08	-2.259547e+01	-1.392888e+03
5.000000e-07	-3.051637e-06	-2.112348e-08	-2.199667e+01	-1.386018e+03
5.100000e-07	-2.967768e-06	-2.100823e-08	-2.139213e+01	-1.378788e+03
5.200000e-07	-2.883039e-06	-2.088743e-08	-2.078139e+01	-1.371111e+03
5.300000e-07	-2.797318e-06	-2.075869e-08	-2.016350e+01	-1.362958e+03
5.400000e-07	-2.710683e-06	-2.063211e-08	-1.953902e+01	-1.354370e+03
5.500000e-07	-2.623201e-06	-2.050886e-08	-1.890843e+01	-1.345438e+03
5.600000e-07	-2.534756e-06	-2.037716e-08	-1.827091e+01	-1.336274e+03
5.700000e-07	-2.445134e-06	-2.022738e-08	-1.762490e+01	-1.326969e+03
5.800000e-07	-2.354354e-06	-2.007442e-08	-1.697054e+01	-1.317561e+03
5.900000e-07	-2.262694e-06	-1.991910e-08	-1.630985e+01	-1.308018e+03
6.000000e-07	-2.170348e-06	-1.976206e-08	-1.564420e+01	-1.298238e+03
6.100000e-07	-2.077301e-06	-1.960296e-08	-1.497350e+01	-1.288082e+03
6.200000e-07	-1.983452e-06	-1.944010e-08	-1.429703e+01	-1.277409e+03
6.300000e-07	-1.888848e-06	-1.926792e-08	-1.361511e+01	-1.266118e+03
6.400000e-07	-1.793699e-06	-1.908577e-08	-1.292926e+01	-1.254180e+03
6.500000e-07	-1.698039e-06	-1.889558e-08	-1.223973e+01	-1.241644e+03
6.600000e-07	-1.601768e-06	-1.869893e-08	-1.154579e+01	-1.228617e+03
6.700000e-07	-1.504768e-06	-1.849978e-08	-1.084660e+01	-1.215224e+03
6.800000e-07	-1.407046e-06	-1.829320e-08	-1.014221e+01	-1.201566e+03
6.900000e-07	-1.308729e-06	-1.807831e-08	-9.433522e+00	-1.187672e+03
7.000000e-07	-1.209910e-06	-1.785450e-08	-8.721218e+00	-1.173478e+03
7.100000e-07	-1.110714e-06	-1.762438e-08	-8.006198e+00	-1.158834e+03
7.200000e-07	-1.011222e-06	-1.738602e-08	-7.289047e+00	-1.143537e+03
7.300000e-07	-9.114445e-07	-1.713648e-08	-6.569833e+00	-1.127381e+03
7.400000e-07	-8.114014e-07	-1.687557e-08	-5.848706e+00	-1.110214e+03
7.500000e-07	-7.111277e-07	-1.660392e-08	-5.125918e+00	-1.091973e+03
7.600000e-07	-6.106648e-07	-1.631708e-08	-4.401766e+00	-1.072693e+03
7.700000e-07	-5.100178e-07	-1.601293e-08	-3.676287e+00	-1.052487e+03
7.800000e-07	-4.091739e-07	-1.569766e-08	-2.949388e+00	-1.031486e+03
7.900000e-07	-3.081757e-07	-1.536841e-08	-2.221378e+00	-1.009778e+03
8.000000e-07	-2.070732e-07	-1.502318e-08	-1.492616e+00	-9.873402e+02
8.100000e-07	-1.058897e-07	-1.465905e-08	-7.632692e-01	-9.640111e+02
8.200000e-07	-4.608897e-09	-1.427422e-08	-3.322164e-02	-9.394943e+02
8.300000e-07	9.673436e-08	-1.386811e-08	6.972762e-01	-9.134073e+02
8.400000e-07	1.980719e-07	-1.343639e-08	1.427733e+00	-8.853579e+02
8.500000e-07	2.993162e-07	-1.297619e-08	2.157517e+00	-8.550258e+02
8.600000e-07	4.004107e-07	-1.248504e-08	2.886222e+00	-8.222206e+02
8.700000e-07	5.014153e-07	-1.196065e-08	3.614279e+00	-7.868916e+02
8.800000e-07	6.023292e-07	-1.139849e-08	4.341681e+00	-7.490766e+02
8.900000e-07	7.030697e-07	-1.079298e-08	5.067834e+00	-7.087937e+02
9.000000e-07	8.035447e-07	-1.013792e-08	5.792074e+00	-6.658999e+02
9.100000e-07	9.037544e-07	-9.426159e-09	6.514401e+00	-6.199540e+02
9.200000e-07	1.003743e-06	-8.646343e-09	7.235134e+00	-5.701274e+02
9.300000e-07	1.103451e-06	-7.787800e-09	7.953842e+00	-5.152012e+02
9.400000e-07	1.202760e-06	-6.836988e-09	8.669678e+00	-4.536717e+02
9.500000e-07	1.301578e-06	-5.772267e-09	9.381976e+00	-3.839608e+02
9.600000e-07	1.399878e-06	-4.572008e-09	1.009054e+01	-3.047031e+02
9.700000e-07	1.497581e-06	-3.219033e-09	1.079480e+01	-2.150577e+02
9.800000e-07	1.594550e-06	-1.705209e-09	1.149376e+01	-1.149829e+02
9.900000e-07	1.690767e-06	-3.529357e-11	1.218731e+01	-5.409600e+00
1.000000e-06	1.786312e-06	1.765713e-09	1.287601e+01	1.117280e+02
1.010000e-06	1.881260e-06	3.651965e-09	1.356041e+01	2.336254e+02
1.020000e-06	1.975598e-06	5.559158e-09	1.424041e+01	3.568875e+02
1.030000e-06	2.069212e-06	7.418316e-09	1.491520e+01	4.779106e+02
1.040000e-06	2.162123e-06	9.169853e-09	1.558492e+01	5.933000e+02
1.050000e-06	2.254378e-06	1.077341e-08	1.624990e+01	7.002490e+02
1.060000e-06	2.345934e-06	1.220774e-08	1.690986e+01	7.968148e+02
1.070000e-06	2.436686e-06	1.347024e-08	1.756400e+01	8.820470e+02
1.080000e-06	2.526398e-06	1.456948e-08	1.821066e+01	9.559577e+02
1.090000e-06	2.614993e-06	1.552315e-08	1.884927e+01	1.019352e+03
1.100000e-06	2.702638e-06	1.635047e-08	1.948103e+01	1.073563e+03
1.110000e-06	2.789424e-06	1.706727e-08	2.010660e+01	1.120153e+03
1.120000e-06	2.875312e-06	1.768942e-08	2.072569e+01	1.160645e+03
1.130000e-06	2.960261e-06	1.823398e-08	2.133802e+01	1.196315e+03
1.140000e-06	3.044253e-06	1.871138e-08	2.194344e+01	1.228103e+03
1.150000e-06	3.127340e-06	1.913038e-08	2.254235e+01	1.256605e+03
1.160000e-06	3.209382e-06	1.950339e-08	2.313372e+01	1.282153e+03
1.170000e-06	3.290153e-06	1.983674e-08	2.371593e+01	1.304934e+03
1.180000e-06	3.369707e-06	2.013306e-08	2.428937e+01	1.325109e+03
1.190000e-06	3.448074e-06	2.039773e-08	2.485425e+01	1.342901e+03
1.200000e-06	3.525212e-06	2.063812e-08	2.541027e+01	1.358626e+03
1.210000e-06	3.601130e-06	2.085927e-08	2.595750e+01	1.372681e+03
1.220000e-06	3.675641e-06	2.106385e-08	2.649458e+01	1.385484e+03
1.230000e-06	3.748504e-06	2.125144e-08	2.701980e+01	1.397402e+03
1.240000e-06	3.819847e-06	2.142447e-08	2.753405e+01	1.408695e+03
1.250000e-06	3.889878e-06	2.158452e-08	2.803884e+01	1.419479e+03
1.260000e-06	3.958592e-06	2.173399e-08	2.853414e+01	1.429740e+03
1.270000e-06	4.025967e-06	2.187180e-08	2.901979e+01	1.439373e+03
1.280000e-06	4.091805e-06	2.199834e-08	2.949436e+01	1.448249e+03
1.290000e-06	4.155987e-06	2.211466e-08	2.995699e+01	1.456277e+03
1.300000e-06	4.218726e-06	2.222340e-08	3.040922e+01	1.463447e+03
1.310000e-06	4.280096e-06	2.232467e-08	3.085159e+01	1.469851e+03
1.320000e-06	4.340115e-06	2.241883e-08	3.128421e+01	1.475660e+03
1.330000e-06	4.398636e-06	2.250805e-08	3.170604e+01	1.481082e+03
1.340000e-06	4.455404e-06	2.259287e-08	3.211523e+01	1.486311e+03
1.350000e-06	4.510495e-06	2.267348e-08	3.251234e+01	1.491477e+03
1.360000e-06	4.563980e-06	2.274926e-08	3.289787e+01	1.496619e+03
1.370000e-06	4.615660e-06	2.282215e-08	3.327039e+01	1.501688e+03
1.380000e-06	4.665319e-06	2.289045e-08	3.362834e+01	1.506569e+03
1.390000e-06	4.713061e-06	2.295288e-08	3.397247e+01	1.511132e+03
1.400000e-06	4.759141e-06	2.301057e-08	3.430462e+01	1.515269e+03
1.410000e-06	4.803721e-06	2.306518e-08	3.462596e+01	1.518935e+03
1.420000e-06	4.846730e-06	2.311670e-08	3.493597e+01	1.522161e+03
1.430000e-06	4.887878e-06	2.316507e-08	3.523258e+01	1.525039e+03
1.440000e-06	4.927209e-06	2.321080e-08	3.551608e+01	1.527697e+03
1.450000e-06	4.964914e-06	2.325398e-08	3.578786e+01	1.530257e+03
1.460000e-06	5.001035e-06	2.329443e-08	3.604823e+01	1.532799e+03
1.470000e-06	5.035372e-06	2.333006e-08	3.629574e+01	1.535342e+03
1.480000e-06	5.067778e-06	2.335999e-08	3.652932e+01	1.537840e+03
1.490000e-06	5.098444e-06	2.338541e-08	3.675037e+01	1.540204e+03
1.500000e-06	5.127486e-06	2.340937e-08	3.695971e+01	1.542334e+03
1.510000e-06	5.154826e-06	2.343354e-08	3.715678e+01	1.544151e+03
1.520000e-06	5.180165e-06	2.345796e-08	3.733942e+01	1.545630e+03
1.530000e-06	5.203463e-06	2.348062e-08	3.750736e+01	1.546803e+03
1.540000e-06	5.224998e-06	2.350019e-08	3.766259e+01	1.547751e+03
1.550000e-06	5.244893e-06	2.351703e-08	3.780600e+01	1.548583e+03
1.560000e-06	5.262979e-06	2.353089e-08	3.793636e+01	1.549396e+03
1.570000e-06	5.279060e-06	2.354333e-08	3.805228e+01	1.550249e+03
1.580000e-06	5.293150e-06	2.355503e-08	3.815384e+01	1.551147e+03
1.590000e-06	5.305238e-06	2.356430e-08	3.824098e+01	1.552041e+03
1.600000e-06	5.315105e-06	2.357143e-08	3.831210e+01	1.552844e+03
1.610000e-06	5.322831e-06	2.357757e-08	3.836778e+01	1.553463e+03
1.620000e-06	5.328723e-06	2.358276e-08	3.841026e+01	1.553826e+03
1.630000e-06	5.332929e-06	2.358722e-08	3.844057e+01	1.553909e+03
1.640000e-06	5.335287e-06	2.359116e-08	3.845757e+01	1.553742e+03
1.650000e-06	5.335624e-06	2.359202e-08	3.846000e+01	1.553400e+03
1.660000e-06	5.334144e-06	2.358831e-08	3.844933e+01	1.552976e+03
1.670000e-06	5.331048e-06	2.358558e-08	3.842702e+01	1.552557e+03
1.680000e-06	5.326288e-06	2.357927e-08	3.839270e+01	1.552188e+03
1.690000e-06	5.319654e-06	2.357197e-08	3.834488e+01	1.551866e+03
1.700000e-06	5.311254e-06	2.356462e-08	3.828434e+01	1.551535e+03
1.710000e-06	5.301266e-06	2.355739e-08	3.821234e+01	1.551108e+03
1.720000e-06	5.289613e-06	2.355892e-08	3.812834e+01	1.550494e+03
1.730000e-06	5.276052e-06	2.352175e-08	3.803059e+01	1.549628e+03
1.740000e-06	5.260420e-06	2.346771e-08	3.791792e+01	1.548490e+03
1.750000e-06	5.242510e-06	2.347138e-08	3.778882e+01	1.547120e+03
1.760000e-06	5.221982e-06	2.345246e-08	3.764085e+01	1.545595e+03
1.770000e-06	5.199136e-06	2.348730e-08	3.747617e+01	1.544017e+03
1.780000e-06	5.175004e-06	2.348472e-08	3.730222e+01	1.542469e+03
1.790000e-06	5.150140e-06	2.335064e-08	3.712300e+01	1.540995e+03
1.800000e-06	5.123861e-06	2.343639e-08	3.693358e+01	1.539580e+03
1.810000e-06	5.095574e-06	2.341129e-08	3.672968e+01	1.538156e+03
1.820000e-06	5.065522e-06	2.328391e-08	3.651306e+01	1.536616e+03
1.830000e-06	5.033624e-06	2.341837e-08	3.628314e+01	1.534851e+03
1.840000e-06	4.999792e-06	2.338196e-08	3.603927e+01	1.532778e+03
1.850000e-06	4.964447e-06	2.331511e-08	3.578450e+01	1.530370e+03
1.860000e-06	4.927249e-06	2.343201e-08	3.551637e+01	1.527665e+03
1.870000e-06	4.888048e-06	2.328762e-08	3.523381e+01	1.524753e+03
1.880000e-06	4.847270e-06	2.318825e-08	3.493987e+01	1.521755e+03
1.890000e-06	4.804737e-06	2.320459e-08	3.463328e+01	1.518781e+03
1.900000e-06	4.760568e-06	2.311598e-08	3.431491e+01	1.515902e+03
1.910000e-06	4.714712e-06	2.318085e-08	3.398437e+01	1.513125e+03
1.920000e-06	4.666980e-06	2.308900e-08	3.364031e+01	1.510390e+03
1.930000e-06	4.617625e-06	2.299348e-08	3.328455e+01	1.507589e+03
1.940000e-06	4.566475e-06	2.303040e-08	3.291585e+01	1.504593e+03
1.950000e-06	4.513311e-06	2.292258e-08	3.253264e+01	1.501293e+03
1.960000e-06	4.458258e-06	2.286116e-08	3.213581e+01	1.497629e+03
1.970000e-06	4.401456e-06	2.280713e-08	3.172637e+01	1.493607e+03
1.980000e-06	4.343089e-06	2.277044e-08	3.130566e+01	1.489295e+03
1.990000e-06	4.283377e-06	2.271290e-08	3.087524e+01	1.484803e+03
2.000000e-06	4.222264e-06	2.259701e-08	3.043473e+01	1.480244e+03
2.010000e-06	4.159417e-06	2.261079e-08	2.998172e+01	1.475704e+03
2.020000e-06	4.094898e-06	2.250735e-08	2.951665e+01	1.471211e+03
2.030000e-06	4.028990e-06	2.238781e-08	2.904158e+01	1.466728e+03
2.040000e-06	3.961735e-06	2.235140e-08	2.855679e+01	1.462163e+03
2.050000e-06	3.893135e-06	2.228070e-08	2.806232e+01	1.457399e+03
2.060000e-06	3.822929e-06	2.223204e-08	2.755626e+01	1.452330e+03
2.070000e-06	3.751254e-06	2.211116e-08	2.703962e+01	1.446888e+03
2.080000e-06	3.678418e-06	2.202764e-08	2.651460e+01	1.441072e+03
2.090000e-06	3.604238e-06	2.194393e-08	2.597990e+01	1.434938e+03
2.100000e-06	3.528689e-06	2.183694e-08	2.543533e+01	1.428586e+03
2.110000e-06	3.451646e-06	2.176771e-08	2.488000e+01	1.422123e+03
2.120000e-06	3.373076e-06	2.167050e-08	2.431365e+01	1.415632e+03
2.130000e-06	3.293249e-06	2.157958e-08	2.373825e+01	1.409136e+03
2.140000e-06	3.212326e-06	2.145741e-08	2.315494e+01	1.402596e+03
2.150000e-06	3.130316e-06	2.134822e-08	2.256380e+01	1.395913e+03
2.160000e-06	3.047265e-06	2.124064e-08	2.196515e+01	1.388962e+03
2.170000e-06	2.963316e-06	2.112166e-08	2.136004e+01	1.381625e+03
2.180000e-06	2.878239e-06	2.101991e-08	2.074679e+01	1.373828e+03
2.190000e-06	2.791772e-06	2.089431e-08	2.012352e+01	1.365559e+03
2.200000e-06	2.704181e-06	2.076123e-08	1.949215e+01	1.356874e+03
2.210000e-06	2.615704e-06	2.062330e-08	1.885439e+01	1.347872e+03
2.220000e-06	2.526291e-06	2.049366e-08	1.820989e+01	1.338664e+03
2.230000e-06	2.435993e-06	2.035630e-08	1.755901e+01	1.329331e+03
2.240000e-06	2.344992e-06	2.021417e-08	1.690306e+01	1.319895e+03
2.250000e-06	2.253332e-06	2.007286e-08	1.624237e+01	1.310302e+03
2.260000e-06	2.160952e-06	1.991712e-08	1.557648e+01	1.300441e+03
2.270000e-06	2.067653e-06	1.975008e-08	1.490396e+01	1.290167e+03
2.280000e-06	1.973341e-06	1.957902e-08	1.422415e+01	1.279344e+03
2.290000e-06	1.878213e-06	1.941193e-08	1.353845e+01	1.267890e+03
2.300000e-06	1.782436e-06	1.924170e-08	1.284807e+01	1.255795e+03
2.310000e-06	1.686131e-06	1.905721e-08	1.215389e+01	1.243123e+03
2.320000e-06	1.589358e-06	1.885684e-08	1.145633e+01	1.229991e+03
2.330000e-06	1.492121e-06	1.865346e-08	1.075544e+01	1.216524e+03
2.340000e-06	1.394371e-06	1.844842e-08	1.005084e+01	1.202806e+03
2.350000e-06	1.296100e-06	1.823696e-08	9.342488e+00	1.188845e+03
2.360000e-06	1.197389e-06	1.801473e-08	8.630965e+00	1.174554e+03
2.370000e-06	1.098333e-06	1.778172e-08	7.916951e+00	1.159765e+03
2.380000e-06	9.990207e-07	1.753924e-08	7.201095e+00	1.144270e+03
2.390000e-06	8.994996e-07	1.728181e-08	6.483731e+00	1.127872e+03
2.400000e-06	7.997677e-07	1.701239e-08	5.764848e+00	1.110437e+03
2.410000e-06	6.997847e-07	1.673785e-08	5.044156e+00	1.091928e+03
2.420000e-06	5.995517e-07	1.645293e-08	4.321661e+00	1.072403e+03
2.430000e-06	4.991419e-07	1.614969e-08	3.597892e+00	1.051985e+03
2.440000e-06	3.985894e-07	1.583232e-08	2.873094e+00	1.030801e+03
2.450000e-06	2.978811e-07	1.550279e-08	2.147173e+00	1.008916e+03
2.460000e-06	1.970465e-07	1.515396e-08	1.420342e+00	9.862754e+02
2.470000e-06	9.606313e-08	1.478110e-08	6.924378e-01	9.626803e+02
2.480000e-06	-5.069943e-09	1.438921e-08	-3.654493e-02	9.378073e+02
2.490000e-06	-1.062294e-07	1.398039e-08	-7.657177e-01	9.112637e+02
2.500000e-06	-2.073012e-07	1.354469e-08	-1.494259e+00	8.826680e+02
2.510000e-06	-3.082648e-07	1.307575e-08	-2.222020e+00	8.517284e+02
2.520000e-06	-4.091181e-07	1.257149e-08	-2.948986e+00	8.182908e+02
2.530000e-06	-5.098225e-07	1.203140e-08	-3.674879e+00	7.823340e+02
2.540000e-06	-6.102908e-07	1.145546e-08	-4.399070e+00	7.439028e+02
2.550000e-06	-7.105462e-07	1.083992e-08	-5.121727e+00	7.029888e+02
2.560000e-06	-8.105799e-07	1.017672e-08	-5.842785e+00	6.593862e+02
2.570000e-06	-9.103204e-07	9.452689e-09	-6.561730e+00	6.125624e+02
2.580000e-06	-1.009796e-06	8.656364e-09	-7.278764e+00	5.615876e+02
2.590000e-06	-1.109058e-06	7.778128e-09	-7.994263e+00	5.051575e+02
2.600000e-06	-1.208016e-06	6.804991e-09	-8.707567e+00	4.417263e+02
2.610000e-06	-1.306488e-06	5.718482e-09	-9.417365e+00	3.697402e+02
2.620000e-06	-1.404434e-06	4.497108e-09	-1.012338e+01	2.879360e+02
2.630000e-06	-1.501874e-06	3.123014e-09	-1.082574e+01	1.956499e+02
2.640000e-06	-1.598822e-06	1.587778e-09	-1.152455e+01	9.307188e+01
2.650000e-06	-1.695302e-06	-1.024512e-10	-1.222000e+01	-1.861263e+01
2.660000e-06	-1.791313e-06	-1.922951e-09	-1.291206e+01	-1.372333e+02
2.670000e-06	-1.886753e-06	-3.824680e-09	-1.360000e+01	-2.598067e+02
2.680000e-06	-1.981391e-06	-5.738225e-09	-1.428217e+01	-3.828471e+02
2.690000e-06	-2.075058e-06	-7.593671e-09	-1.495734e+01	-5.027642e+02
2.700000e-06	-2.167730e-06	-9.334786e-09	-1.562533e+01	-6.162779e+02
2.710000e-06	-2.259556e-06	-1.092587e-08	-1.628722e+01	-7.207768e+02
2.720000e-06	-2.350672e-06	-1.234904e-08	-1.694400e+01	-8.145603e+02
2.730000e-06	-2.441027e-06	-1.360161e-08	-1.759530e+01	-8.969275e+02
2.740000e-06	-2.530486e-06	-1.469310e-08	-1.824014e+01	-9.681093e+02
2.750000e-06	-2.619060e-06	-1.563910e-08	-1.887859e+01	-1.029070e+03
2.760000e-06	-2.706899e-06	-1.645824e-08	-1.951174e+01	-1.081228e+03
2.770000e-06	-2.793841e-06	-1.717007e-08	-2.013843e+01	-1.126159e+03
2.780000e-06	-2.879588e-06	-1.779050e-08	-2.075651e+01	-1.165339e+03
2.790000e-06	-2.964139e-06	-1.833131e-08	-2.136597e+01	-1.199967e+03
2.800000e-06	-3.047734e-06	-1.880382e-08	-2.196854e+01	-1.230891e+03
2.810000e-06	-3.130452e-06	-1.922125e-08	-2.256478e+01	-1.258632e+03
2.820000e-06	-3.212120e-06	-1.959200e-08	-2.315346e+01	-1.283474e+03
2.830000e-06	-3.292695e-06	-1.992228e-08	-2.373425e+01	-1.305589e+03
2.840000e-06	-3.372195e-06	-2.021897e-08	-2.430730e+01	-1.325145e+03
2.850000e-06	-3.450361e-06	-2.048549e-08	-2.487073e+01	-1.342388e+03
2.860000e-06	-3.526984e-06	-2.072559e-08	-2.542305e+01	-1.357658e+03
2.870000e-06	-3.602177e-06	-2.094487e-08	-2.596505e+01	-1.371363e+03
2.880000e-06	-3.676011e-06	-2.114745e-08	-2.649725e+01	-1.383915e+03
2.890000e-06	-3.748527e-06	-2.133468e-08	-2.701996e+01	-1.395659e+03
2.900000e-06	-3.819731e-06	-2.150745e-08	-2.753321e+01	-1.406821e+03
2.910000e-06	-3.889423e-06	-2.166761e-08	-2.803556e+01	-1.417481e+03
2.920000e-06	-3.957591e-06	-2.181743e-08	-2.852692e+01	-1.427598e+03
2.930000e-06	-4.024435e-06	-2.195666e-08	-2.900875e+01	-1.437055e+03
2.940000e-06	-4.089910e-06	-2.208452e-08	-2.948070e+01	-1.445726e+03
