# Temperatura_=_60.65
# Concentracion g/m^3_=_28200.0
# C_Vs_to_Am_M_A/Vsm_=_65563218390.804596
# pendiente_HvsI_1/m_=_3716.3
# ordenada_HvsI_A/m_=_1297.0
# frecuencia_Hz_=_301746.4286593521

Tiempo_(s)	Campo_(V.s)	Magnetizacion_(V.s)	Campo_(kA/m)	Magnetizacion_(A/m)
0.000000e+00	-5.319534e-06	-2.169381e-08	-3.830134e+01	-1.418855e+03
1.000000e-08	-5.317274e-06	-2.169169e-08	-3.828506e+01	-1.418505e+03
2.000000e-08	-5.313174e-06	-2.168214e-08	-3.825555e+01	-1.418005e+03
3.000000e-08	-5.307436e-06	-2.167116e-08	-3.821423e+01	-1.417344e+03
4.000000e-08	-5.300113e-06	-2.165855e-08	-3.816151e+01	-1.416507e+03
5.000000e-08	-5.291118e-06	-2.163917e-08	-3.809674e+01	-1.415478e+03
6.000000e-08	-5.280112e-06	-2.161421e-08	-3.801749e+01	-1.414248e+03
7.000000e-08	-5.267186e-06	-2.157831e-08	-3.792442e+01	-1.412813e+03
8.000000e-08	-5.252312e-06	-2.155469e-08	-3.781733e+01	-1.411182e+03
9.000000e-08	-5.235236e-06	-2.160361e-08	-3.769438e+01	-1.409372e+03
1.000000e-07	-5.216071e-06	-2.158561e-08	-3.755639e+01	-1.407411e+03
1.100000e-07	-5.194991e-06	-2.149598e-08	-3.740461e+01	-1.405329e+03
1.200000e-07	-5.172119e-06	-2.145438e-08	-3.723993e+01	-1.403153e+03
1.300000e-07	-5.147706e-06	-2.133284e-08	-3.706415e+01	-1.400901e+03
1.400000e-07	-5.121757e-06	-2.128873e-08	-3.687731e+01	-1.398583e+03
1.500000e-07	-5.094156e-06	-2.143441e-08	-3.667859e+01	-1.396192e+03
1.600000e-07	-5.065026e-06	-2.127116e-08	-3.646885e+01	-1.393708e+03
1.700000e-07	-5.034447e-06	-2.121431e-08	-3.624868e+01	-1.391102e+03
1.800000e-07	-5.002001e-06	-2.132002e-08	-3.601506e+01	-1.388337e+03
1.900000e-07	-4.967499e-06	-2.106446e-08	-3.576664e+01	-1.385378e+03
2.000000e-07	-4.931505e-06	-2.102534e-08	-3.550748e+01	-1.382193e+03
2.100000e-07	-4.893887e-06	-2.108310e-08	-3.523662e+01	-1.378757e+03
2.200000e-07	-4.854416e-06	-2.091388e-08	-3.495243e+01	-1.375058e+03
2.300000e-07	-4.813146e-06	-2.089936e-08	-3.465528e+01	-1.371090e+03
2.400000e-07	-4.769921e-06	-2.085952e-08	-3.434406e+01	-1.366856e+03
2.500000e-07	-4.724911e-06	-2.073188e-08	-3.401997e+01	-1.362365e+03
2.600000e-07	-4.678153e-06	-2.071877e-08	-3.368331e+01	-1.357624e+03
2.700000e-07	-4.629498e-06	-2.060019e-08	-3.333299e+01	-1.352639e+03
2.800000e-07	-4.578764e-06	-2.050172e-08	-3.296770e+01	-1.347415e+03
2.900000e-07	-4.526018e-06	-2.044587e-08	-3.258792e+01	-1.341948e+03
3.000000e-07	-4.471579e-06	-2.036112e-08	-3.219595e+01	-1.336233e+03
3.100000e-07	-4.415552e-06	-2.026747e-08	-3.179255e+01	-1.330263e+03
3.200000e-07	-4.357737e-06	-2.016451e-08	-3.137627e+01	-1.324030e+03
3.300000e-07	-4.298235e-06	-2.008067e-08	-3.094785e+01	-1.317526e+03
3.400000e-07	-4.237278e-06	-1.995114e-08	-3.050896e+01	-1.310748e+03
3.500000e-07	-4.174875e-06	-1.984574e-08	-3.005964e+01	-1.303695e+03
3.600000e-07	-4.111112e-06	-1.974467e-08	-2.960054e+01	-1.296367e+03
3.700000e-07	-4.045855e-06	-1.962099e-08	-2.913068e+01	-1.288765e+03
3.800000e-07	-3.978964e-06	-1.951807e-08	-2.864906e+01	-1.280888e+03
3.900000e-07	-3.910539e-06	-1.937265e-08	-2.815639e+01	-1.272731e+03
4.000000e-07	-3.840761e-06	-1.922970e-08	-2.765398e+01	-1.264286e+03
4.100000e-07	-3.769850e-06	-1.911440e-08	-2.714341e+01	-1.255539e+03
4.200000e-07	-3.697785e-06	-1.897608e-08	-2.662453e+01	-1.246473e+03
4.300000e-07	-3.624243e-06	-1.883361e-08	-2.609502e+01	-1.237068e+03
4.400000e-07	-3.549086e-06	-1.868167e-08	-2.555388e+01	-1.227305e+03
4.500000e-07	-3.472492e-06	-1.852870e-08	-2.500239e+01	-1.217166e+03
4.600000e-07	-3.394574e-06	-1.836178e-08	-2.444137e+01	-1.206634e+03
4.700000e-07	-3.315268e-06	-1.819474e-08	-2.387036e+01	-1.195698e+03
4.800000e-07	-3.234664e-06	-1.803332e-08	-2.329000e+01	-1.184347e+03
4.900000e-07	-3.152883e-06	-1.784767e-08	-2.270117e+01	-1.172572e+03
5.000000e-07	-3.070070e-06	-1.765894e-08	-2.210490e+01	-1.160362e+03
5.100000e-07	-2.986363e-06	-1.746135e-08	-2.150220e+01	-1.147702e+03
5.200000e-07	-2.901757e-06	-1.725934e-08	-2.089303e+01	-1.134569e+03
5.300000e-07	-2.816178e-06	-1.704977e-08	-2.027685e+01	-1.120937e+03
5.400000e-07	-2.729606e-06	-1.683329e-08	-1.965352e+01	-1.106769e+03
5.500000e-07	-2.642198e-06	-1.661476e-08	-1.902417e+01	-1.092028e+03
5.600000e-07	-2.553867e-06	-1.637965e-08	-1.838817e+01	-1.076670e+03
5.700000e-07	-2.464370e-06	-1.613337e-08	-1.774378e+01	-1.060654e+03
5.800000e-07	-2.373739e-06	-1.587387e-08	-1.709123e+01	-1.043937e+03
5.900000e-07	-2.282198e-06	-1.560604e-08	-1.643213e+01	-1.026484e+03
6.000000e-07	-2.189913e-06	-1.532348e-08	-1.576766e+01	-1.008258e+03
6.100000e-07	-2.096894e-06	-1.503119e-08	-1.509791e+01	-9.892279e+02
6.200000e-07	-2.003071e-06	-1.473080e-08	-1.442238e+01	-9.693584e+02
6.300000e-07	-1.908534e-06	-1.441434e-08	-1.374170e+01	-9.486115e+02
6.400000e-07	-1.813410e-06	-1.408309e-08	-1.305679e+01	-9.269415e+02
6.500000e-07	-1.717702e-06	-1.373532e-08	-1.236768e+01	-9.042931e+02
6.600000e-07	-1.621328e-06	-1.337439e-08	-1.167377e+01	-8.806000e+02
6.700000e-07	-1.524291e-06	-1.299672e-08	-1.097510e+01	-8.557851e+02
6.800000e-07	-1.426632e-06	-1.260042e-08	-1.027194e+01	-8.297622e+02
6.900000e-07	-1.328335e-06	-1.218227e-08	-9.564182e+00	-8.024395e+02
7.000000e-07	-1.229483e-06	-1.174254e-08	-8.852439e+00	-7.737240e+02
7.100000e-07	-1.130215e-06	-1.127766e-08	-8.137696e+00	-7.435273e+02
7.200000e-07	-1.030601e-06	-1.078975e-08	-7.420463e+00	-7.117717e+02
7.300000e-07	-9.306698e-07	-1.028177e-08	-6.700944e+00	-6.783977e+02
7.400000e-07	-8.305124e-07	-9.749497e-09	-5.979798e+00	-6.433708e+02
7.500000e-07	-7.301437e-07	-9.192281e-09	-5.257130e+00	-6.066890e+02
7.600000e-07	-6.295733e-07	-8.606541e-09	-4.533010e+00	-5.683891e+02
7.700000e-07	-5.288583e-07	-7.997572e-09	-3.807849e+00	-5.285508e+02
7.800000e-07	-4.279890e-07	-7.369503e-09	-3.081576e+00	-4.872987e+02
7.900000e-07	-3.269921e-07	-6.722661e-09	-2.354386e+00	-4.447986e+02
8.000000e-07	-2.258756e-07	-6.059518e-09	-1.626334e+00	-4.012504e+02
8.100000e-07	-1.245693e-07	-5.385746e-09	-8.969151e-01	-3.568737e+02
8.200000e-07	-2.309497e-08	-4.704221e-09	-1.662868e-01	-3.118901e+02
8.300000e-07	7.839993e-08	-4.016036e-09	5.644897e-01	-2.665013e+02
8.400000e-07	1.798693e-07	-3.325137e-09	1.295083e+00	-2.208668e+02
8.500000e-07	2.812470e-07	-2.632061e-09	2.025015e+00	-1.750849e+02
8.600000e-07	3.825165e-07	-1.935737e-09	2.754169e+00	-1.291801e+02
8.700000e-07	4.837121e-07	-1.234074e-09	3.482790e+00	-8.309986e+01
8.800000e-07	5.847638e-07	-5.283544e-10	4.210376e+00	-3.672309e+01
8.900000e-07	6.856191e-07	1.845281e-10	4.936547e+00	1.011957e+01
9.000000e-07	7.862277e-07	9.072851e-10	5.660942e+00	5.761567e+01
9.100000e-07	8.866393e-07	1.642132e-09	6.383918e+00	1.059348e+02
9.200000e-07	9.868052e-07	2.389891e-09	7.105126e+00	1.551912e+02
9.300000e-07	1.086669e-06	3.151892e-09	7.824159e+00	2.054119e+02
9.400000e-07	1.186173e-06	3.930406e-09	8.540601e+00	2.565142e+02
9.500000e-07	1.285254e-06	4.720765e-09	9.253995e+00	3.082978e+02
9.600000e-07	1.383868e-06	5.517544e-09	9.964026e+00	3.604527e+02
9.700000e-07	1.481789e-06	6.314937e-09	1.066908e+01	4.125814e+02
9.800000e-07	1.578947e-06	7.104911e-09	1.136863e+01	4.642339e+02
9.900000e-07	1.675387e-06	7.875668e-09	1.206301e+01	5.149477e+02
1.000000e-06	1.771164e-06	8.622423e-09	1.275261e+01	5.642889e+02
1.010000e-06	1.866280e-06	9.343393e-09	1.343746e+01	6.118873e+02
1.020000e-06	1.960761e-06	1.003484e-08	1.411773e+01	6.574610e+02
1.030000e-06	2.054581e-06	1.069370e-08	1.479325e+01	7.008281e+02
1.040000e-06	2.147654e-06	1.131739e-08	1.546339e+01	7.419054e+02
1.050000e-06	2.240087e-06	1.190630e-08	1.612892e+01	7.806952e+02
1.060000e-06	2.331889e-06	1.245815e-08	1.678990e+01	8.172648e+02
1.070000e-06	2.422874e-06	1.297963e-08	1.744501e+01	8.517237e+02
1.080000e-06	2.512894e-06	1.347346e-08	1.809316e+01	8.842007e+02
1.090000e-06	2.601841e-06	1.394073e-08	1.873360e+01	9.148272e+02
1.100000e-06	2.689701e-06	1.437974e-08	1.936620e+01	9.437257e+02
1.110000e-06	2.776632e-06	1.479164e-08	1.999211e+01	9.710057e+02
1.120000e-06	2.862663e-06	1.518109e-08	2.061155e+01	9.967647e+02
1.130000e-06	2.947780e-06	1.555045e-08	2.122440e+01	1.021092e+03
1.140000e-06	3.032059e-06	1.590159e-08	2.183122e+01	1.044072e+03
1.150000e-06	3.115422e-06	1.623199e-08	2.243144e+01	1.065792e+03
1.160000e-06	3.197712e-06	1.654449e-08	2.302394e+01	1.086337e+03
1.170000e-06	3.278789e-06	1.683924e-08	2.360771e+01	1.105793e+03
1.180000e-06	3.358641e-06	1.711776e-08	2.418265e+01	1.124239e+03
1.190000e-06	3.437318e-06	1.738297e-08	2.474914e+01	1.141750e+03
1.200000e-06	3.514820e-06	1.763652e-08	2.530716e+01	1.158386e+03
1.210000e-06	3.591134e-06	1.787681e-08	2.585663e+01	1.174200e+03
1.220000e-06	3.666029e-06	1.810471e-08	2.639589e+01	1.189232e+03
1.230000e-06	3.739245e-06	1.832049e-08	2.692305e+01	1.203516e+03
1.240000e-06	3.810934e-06	1.852392e-08	2.743922e+01	1.217087e+03
1.250000e-06	3.881290e-06	1.871744e-08	2.794579e+01	1.229979e+03
1.260000e-06	3.950303e-06	1.890220e-08	2.844270e+01	1.242229e+03
1.270000e-06	4.018083e-06	1.907804e-08	2.893072e+01	1.253878e+03
1.280000e-06	4.084454e-06	1.924616e-08	2.940860e+01	1.264967e+03
1.290000e-06	4.149160e-06	1.940716e-08	2.987449e+01	1.275534e+03
1.300000e-06	4.212317e-06	1.956177e-08	3.032923e+01	1.285608e+03
1.310000e-06	4.273998e-06	1.970962e-08	3.077334e+01	1.295209e+03
1.320000e-06	4.334353e-06	1.985057e-08	3.120791e+01	1.304346e+03
1.330000e-06	4.393359e-06	1.998399e-08	3.163276e+01	1.313020e+03
1.340000e-06	4.450598e-06	2.010814e-08	3.204488e+01	1.321227e+03
1.350000e-06	4.505997e-06	2.022432e-08	3.244377e+01	1.328966e+03
1.360000e-06	4.559797e-06	2.033408e-08	3.283113e+01	1.336245e+03
1.370000e-06	4.611919e-06	2.043780e-08	3.320642e+01	1.343080e+03
1.380000e-06	4.662042e-06	2.053532e-08	3.356731e+01	1.349502e+03
1.390000e-06	4.710189e-06	2.062696e-08	3.391398e+01	1.355553e+03
1.400000e-06	4.756619e-06	2.071382e-08	3.424828e+01	1.361277e+03
1.410000e-06	4.801503e-06	2.079710e-08	3.457145e+01	1.366720e+03
1.420000e-06	4.844903e-06	2.087607e-08	3.488393e+01	1.371917e+03
1.430000e-06	4.886479e-06	2.095134e-08	3.518329e+01	1.376891e+03
1.440000e-06	4.926175e-06	2.102378e-08	3.546910e+01	1.381648e+03
1.450000e-06	4.964229e-06	2.109124e-08	3.574309e+01	1.386180e+03
1.460000e-06	5.000671e-06	2.115465e-08	3.600548e+01	1.390468e+03
1.470000e-06	5.035394e-06	2.121506e-08	3.625549e+01	1.394488e+03
1.480000e-06	5.068190e-06	2.127130e-08	3.649163e+01	1.398220e+03
1.490000e-06	5.099190e-06	2.132299e-08	3.671484e+01	1.401649e+03
1.500000e-06	5.128544e-06	2.136860e-08	3.692618e+01	1.404775e+03
1.510000e-06	5.156215e-06	2.140996e-08	3.712542e+01	1.407607e+03
1.520000e-06	5.181902e-06	2.144932e-08	3.731037e+01	1.410162e+03
1.530000e-06	5.205539e-06	2.148560e-08	3.748056e+01	1.412466e+03
1.540000e-06	5.227380e-06	2.151817e-08	3.763781e+01	1.414540e+03
1.550000e-06	5.247557e-06	2.154675e-08	3.778309e+01	1.416403e+03
1.560000e-06	5.265961e-06	2.157149e-08	3.791561e+01	1.418065e+03
1.570000e-06	5.282332e-06	2.159087e-08	3.803348e+01	1.419529e+03
1.580000e-06	5.296694e-06	2.160701e-08	3.813689e+01	1.420793e+03
1.590000e-06	5.309130e-06	2.162243e-08	3.822643e+01	1.421850e+03
1.600000e-06	5.319424e-06	2.163632e-08	3.830055e+01	1.422696e+03
1.610000e-06	5.327589e-06	2.164833e-08	3.835933e+01	1.423332e+03
1.620000e-06	5.333863e-06	2.165784e-08	3.840451e+01	1.423765e+03
1.630000e-06	5.338385e-06	2.166230e-08	3.843707e+01	1.424007e+03
1.640000e-06	5.341000e-06	2.166413e-08	3.845590e+01	1.424073e+03
1.650000e-06	5.341570e-06	2.166613e-08	3.846000e+01	1.423978e+03
1.660000e-06	5.340356e-06	2.166065e-08	3.845126e+01	1.423733e+03
1.670000e-06	5.337496e-06	2.165155e-08	3.843066e+01	1.423340e+03
1.680000e-06	5.333038e-06	2.164483e-08	3.839857e+01	1.422794e+03
1.690000e-06	5.326752e-06	2.163501e-08	3.835331e+01	1.422083e+03
1.700000e-06	5.318576e-06	2.162287e-08	3.829444e+01	1.421192e+03
1.710000e-06	5.308808e-06	2.161103e-08	3.822411e+01	1.420106e+03
1.720000e-06	5.297408e-06	2.160755e-08	3.814203e+01	1.418816e+03
1.730000e-06	5.284048e-06	2.160534e-08	3.804583e+01	1.417323e+03
1.740000e-06	5.268692e-06	2.148796e-08	3.793527e+01	1.415638e+03
1.750000e-06	5.251210e-06	2.143262e-08	3.780940e+01	1.413781e+03
1.760000e-06	5.231131e-06	2.146217e-08	3.766482e+01	1.411782e+03
1.770000e-06	5.208567e-06	2.144578e-08	3.750236e+01	1.409669e+03
1.780000e-06	5.184422e-06	2.155163e-08	3.732852e+01	1.407469e+03
1.790000e-06	5.159534e-06	2.142363e-08	3.714932e+01	1.405198e+03
1.800000e-06	5.133580e-06	2.122079e-08	3.696244e+01	1.402859e+03
1.810000e-06	5.105648e-06	2.139095e-08	3.676133e+01	1.400443e+03
1.820000e-06	5.075773e-06	2.125268e-08	3.654623e+01	1.397927e+03
1.830000e-06	5.044206e-06	2.115230e-08	3.631894e+01	1.395278e+03
1.840000e-06	5.010634e-06	2.138637e-08	3.607722e+01	1.392461e+03
1.850000e-06	4.975382e-06	2.117058e-08	3.582340e+01	1.389439e+03
1.860000e-06	4.938527e-06	2.109096e-08	3.555804e+01	1.386183e+03
1.870000e-06	4.899704e-06	2.118848e-08	3.527850e+01	1.382672e+03
1.880000e-06	4.859206e-06	2.096232e-08	3.498692e+01	1.378896e+03
1.890000e-06	4.816990e-06	2.099853e-08	3.468296e+01	1.374850e+03
1.900000e-06	4.773077e-06	2.092365e-08	3.436678e+01	1.370541e+03
1.910000e-06	4.727466e-06	2.077622e-08	3.403837e+01	1.365977e+03
1.920000e-06	4.679869e-06	2.089091e-08	3.369566e+01	1.361165e+03
1.930000e-06	4.630615e-06	2.069924e-08	3.334103e+01	1.356111e+03
1.940000e-06	4.579691e-06	2.061685e-08	3.297437e+01	1.350817e+03
1.950000e-06	4.526700e-06	2.056585e-08	3.259283e+01	1.345279e+03
1.960000e-06	4.471766e-06	2.042556e-08	3.219730e+01	1.339491e+03
1.970000e-06	4.415102e-06	2.040326e-08	3.178931e+01	1.333446e+03
1.980000e-06	4.356879e-06	2.021443e-08	3.137010e+01	1.327135e+03
1.990000e-06	4.297287e-06	2.017889e-08	3.094103e+01	1.320552e+03
2.000000e-06	4.236244e-06	2.010787e-08	3.050151e+01	1.313695e+03
2.010000e-06	4.173561e-06	1.993187e-08	3.005018e+01	1.306563e+03
2.020000e-06	4.109191e-06	1.986422e-08	2.958671e+01	1.299155e+03
2.030000e-06	4.043374e-06	1.969992e-08	2.911282e+01	1.291474e+03
2.040000e-06	3.976254e-06	1.964367e-08	2.862955e+01	1.283516e+03
2.050000e-06	3.907705e-06	1.950557e-08	2.813599e+01	1.275278e+03
2.060000e-06	3.837619e-06	1.933766e-08	2.763135e+01	1.266747e+03
2.070000e-06	3.766086e-06	1.925051e-08	2.711631e+01	1.257910e+03
2.080000e-06	3.693325e-06	1.906907e-08	2.659242e+01	1.248748e+03
2.090000e-06	3.619229e-06	1.894049e-08	2.605892e+01	1.239243e+03
2.100000e-06	3.543747e-06	1.877608e-08	2.551544e+01	1.229373e+03
2.110000e-06	3.466785e-06	1.863963e-08	2.496130e+01	1.219122e+03
2.120000e-06	3.388295e-06	1.848718e-08	2.439616e+01	1.208475e+03
2.130000e-06	3.308553e-06	1.829382e-08	2.382202e+01	1.197420e+03
2.140000e-06	3.227704e-06	1.813650e-08	2.323989e+01	1.185948e+03
2.150000e-06	3.145802e-06	1.794136e-08	2.265018e+01	1.174050e+03
2.160000e-06	3.062840e-06	1.776931e-08	2.205285e+01	1.161712e+03
2.170000e-06	2.978904e-06	1.757115e-08	2.144850e+01	1.148918e+03
2.180000e-06	2.893865e-06	1.737001e-08	2.083620e+01	1.135645e+03
2.190000e-06	2.807527e-06	1.716227e-08	2.021456e+01	1.121863e+03
2.200000e-06	2.720042e-06	1.693414e-08	1.958466e+01	1.107535e+03
2.210000e-06	2.631633e-06	1.671406e-08	1.894810e+01	1.092621e+03
2.220000e-06	2.542355e-06	1.647452e-08	1.830529e+01	1.077079e+03
2.230000e-06	2.452226e-06	1.623469e-08	1.765635e+01	1.060865e+03
2.240000e-06	2.361307e-06	1.597598e-08	1.700172e+01	1.043941e+03
2.250000e-06	2.269640e-06	1.571433e-08	1.634170e+01	1.026269e+03
2.260000e-06	2.177304e-06	1.543278e-08	1.567687e+01	1.007817e+03
2.270000e-06	2.084113e-06	1.513409e-08	1.500588e+01	9.885492e+02
2.280000e-06	1.989897e-06	1.482974e-08	1.432751e+01	9.684324e+02
2.290000e-06	1.894795e-06	1.451158e-08	1.364277e+01	9.474259e+02
2.300000e-06	1.798970e-06	1.417968e-08	1.295282e+01	9.254817e+02
2.310000e-06	1.702579e-06	1.382819e-08	1.225879e+01	9.025412e+02
2.320000e-06	1.605718e-06	1.346453e-08	1.156138e+01	8.785350e+02
2.330000e-06	1.508309e-06	1.308093e-08	1.086002e+01	8.533832e+02
2.340000e-06	1.410339e-06	1.267850e-08	1.015463e+01	8.269976e+02
2.350000e-06	1.311942e-06	1.225625e-08	9.446157e+00	7.992855e+02
2.360000e-06	1.213201e-06	1.181708e-08	8.735207e+00	7.701547e+02
2.370000e-06	1.114152e-06	1.135508e-08	8.022038e+00	7.395190e+02
2.380000e-06	1.014866e-06	1.086500e-08	7.307169e+00	7.073053e+02
2.390000e-06	9.154034e-07	1.034779e-08	6.591024e+00	6.734604e+02
2.400000e-06	8.157017e-07	9.804228e-09	5.873159e+00	6.379584e+02
2.410000e-06	7.156759e-07	9.238366e-09	5.152959e+00	6.008079e+02
2.420000e-06	6.153679e-07	8.645762e-09	4.430729e+00	5.620575e+02
2.430000e-06	5.148066e-07	8.029336e-09	3.706675e+00	5.217998e+02
2.440000e-06	4.140805e-07	7.395679e-09	2.981434e+00	4.801717e+02
2.450000e-06	3.132543e-07	6.745091e-09	2.255472e+00	4.373497e+02
2.460000e-06	2.122677e-07	6.073978e-09	1.528355e+00	3.935411e+02
2.470000e-06	1.111139e-07	5.389275e-09	8.000349e-01	3.489680e+02
2.480000e-06	9.867059e-09	4.699133e-09	7.104411e-02	3.038487e+02
2.490000e-06	-9.138701e-08	4.001491e-09	-6.579984e-01	2.583748e+02
2.500000e-06	-1.925945e-07	3.298777e-09	-1.386705e+00	2.126904e+02
2.510000e-06	-2.936990e-07	2.595713e-09	-2.114671e+00	1.668735e+02
2.520000e-06	-3.947254e-07	1.891787e-09	-2.842074e+00	1.209263e+02
2.530000e-06	-4.956515e-07	1.184692e-09	-3.568755e+00	7.477547e+01
2.540000e-06	-5.964289e-07	4.712693e-10	-4.294366e+00	2.828345e+01
2.550000e-06	-6.969475e-07	-2.493336e-10	-5.018113e+00	-1.872769e+01
2.560000e-06	-7.971600e-07	-9.773170e-10	-5.739656e+00	-6.644422e+01
2.570000e-06	-8.970946e-07	-1.718758e-09	-6.459198e+00	-1.150236e+02
2.580000e-06	-9.966720e-07	-2.474325e-09	-7.176168e+00	-1.645581e+02
2.590000e-06	-1.095894e-06	-3.244547e-09	-7.890576e+00	-2.150451e+02
2.600000e-06	-1.194789e-06	-4.029604e-09	-8.602638e+00	-2.663684e+02
2.610000e-06	-1.293330e-06	-4.823223e-09	-9.312145e+00	-3.182950e+02
2.620000e-06	-1.391459e-06	-5.619828e-09	-1.001869e+01	-3.704868e+02
2.630000e-06	-1.489001e-06	-6.414269e-09	-1.072100e+01	-4.225276e+02
2.640000e-06	-1.585950e-06	-7.200023e-09	-1.141905e+01	-4.739594e+02
2.650000e-06	-1.682451e-06	-7.969715e-09	-1.211387e+01	-5.243240e+02
2.660000e-06	-1.778494e-06	-8.716621e-09	-1.280539e+01	-5.732023e+02
2.670000e-06	-1.873990e-06	-9.437669e-09	-1.349298e+01	-6.202475e+02
2.680000e-06	-1.968755e-06	-1.012728e-08	-1.417529e+01	-6.652057e+02
2.690000e-06	-2.062650e-06	-1.078171e-08	-1.485135e+01	-7.079239e+02
2.700000e-06	-2.155639e-06	-1.140430e-08	-1.552088e+01	-7.483450e+02
2.710000e-06	-2.247720e-06	-1.199427e-08	-1.618388e+01	-7.864921e+02
2.720000e-06	-2.338956e-06	-1.254914e-08	-1.684079e+01	-8.224471e+02
2.730000e-06	-2.429398e-06	-1.306807e-08	-1.749198e+01	-8.563270e+02
2.740000e-06	-2.519003e-06	-1.355528e-08	-1.813715e+01	-8.882630e+02
2.750000e-06	-2.607725e-06	-1.401707e-08	-1.877596e+01	-9.183846e+02
2.760000e-06	-2.695655e-06	-1.445364e-08	-1.940907e+01	-9.468110e+02
2.770000e-06	-2.782737e-06	-1.486468e-08	-2.003607e+01	-9.736478e+02
2.780000e-06	-2.868718e-06	-1.525434e-08	-2.065515e+01	-9.989896e+02
2.790000e-06	-2.953514e-06	-1.562138e-08	-2.126569e+01	-1.022924e+03
2.800000e-06	-3.037233e-06	-1.596539e-08	-2.186847e+01	-1.045537e+03
2.810000e-06	-3.120020e-06	-1.629076e-08	-2.246455e+01	-1.066913e+03
2.820000e-06	-3.201842e-06	-1.660111e-08	-2.305368e+01	-1.087139e+03
2.830000e-06	-3.282620e-06	-1.689689e-08	-2.363529e+01	-1.106299e+03
2.840000e-06	-3.362306e-06	-1.717749e-08	-2.420904e+01	-1.124472e+03
2.850000e-06	-3.440670e-06	-1.744262e-08	-2.477328e+01	-1.141728e+03
2.860000e-06	-3.517475e-06	-1.769287e-08	-2.532628e+01	-1.158125e+03
2.870000e-06	-3.592834e-06	-1.793191e-08	-2.586888e+01	-1.173712e+03
2.880000e-06	-3.666867e-06	-1.816150e-08	-2.640192e+01	-1.188528e+03
2.890000e-06	-3.739607e-06	-1.838015e-08	-2.692566e+01	-1.202607e+03
2.900000e-06	-3.811085e-06	-1.858733e-08	-2.744031e+01	-1.215981e+03
2.910000e-06	-3.881066e-06	-1.878421e-08	-2.794418e+01	-1.228686e+03
2.920000e-06	-3.949504e-06	-1.896956e-08	-2.843695e+01	-1.240761e+03
2.930000e-06	-4.016573e-06	-1.914371e-08	-2.891985e+01	-1.252246e+03
2.940000e-06	-4.082275e-06	-1.930930e-08	-2.939291e+01	-1.263184e+03
