# Temperatura_=_28.68
# Concentracion g/m^3_=_28200.0
# C_Vs_to_Am_M_A/Vsm_=_65563218390.804596
# pendiente_HvsI_1/m_=_3716.3
# ordenada_HvsI_A/m_=_1297.0
# frecuencia_Hz_=_301750.4345019878

Tiempo_(s)	Campo_(V.s)	Magnetizacion_(V.s)	Campo_(kA/m)	Magnetizacion_(A/m)
0.000000e+00	-5.315195e-06	-1.756402e-08	-3.829895e+01	-1.148012e+03
1.000000e-08	-5.312791e-06	-1.756112e-08	-3.828163e+01	-1.147759e+03
2.000000e-08	-5.308528e-06	-1.755324e-08	-3.825091e+01	-1.147387e+03
3.000000e-08	-5.302668e-06	-1.754295e-08	-3.820869e+01	-1.146883e+03
4.000000e-08	-5.295171e-06	-1.753252e-08	-3.815467e+01	-1.146230e+03
5.000000e-08	-5.285984e-06	-1.751890e-08	-3.808847e+01	-1.145407e+03
6.000000e-08	-5.274875e-06	-1.750094e-08	-3.800843e+01	-1.144400e+03
7.000000e-08	-5.261816e-06	-1.748045e-08	-3.791433e+01	-1.143204e+03
8.000000e-08	-5.246792e-06	-1.745735e-08	-3.780607e+01	-1.141828e+03
9.000000e-08	-5.229515e-06	-1.745825e-08	-3.768158e+01	-1.140295e+03
1.000000e-07	-5.210106e-06	-1.744971e-08	-3.754173e+01	-1.138635e+03
1.100000e-07	-5.188829e-06	-1.740097e-08	-3.738842e+01	-1.136887e+03
1.200000e-07	-5.165811e-06	-1.735731e-08	-3.722256e+01	-1.135084e+03
1.300000e-07	-5.141278e-06	-1.731194e-08	-3.704578e+01	-1.133250e+03
1.400000e-07	-5.115271e-06	-1.725830e-08	-3.685839e+01	-1.131393e+03
1.500000e-07	-5.087576e-06	-1.728587e-08	-3.665883e+01	-1.129506e+03
1.600000e-07	-5.058270e-06	-1.723545e-08	-3.644767e+01	-1.127561e+03
1.700000e-07	-5.027543e-06	-1.716104e-08	-3.622626e+01	-1.125521e+03
1.800000e-07	-4.995021e-06	-1.719569e-08	-3.599192e+01	-1.123342e+03
1.900000e-07	-4.960410e-06	-1.711526e-08	-3.574253e+01	-1.120982e+03
2.000000e-07	-4.924165e-06	-1.704555e-08	-3.548137e+01	-1.118407e+03
2.100000e-07	-4.886359e-06	-1.705651e-08	-3.520895e+01	-1.115593e+03
2.200000e-07	-4.846760e-06	-1.696657e-08	-3.492362e+01	-1.112533e+03
2.300000e-07	-4.805375e-06	-1.690871e-08	-3.462541e+01	-1.109228e+03
2.400000e-07	-4.762045e-06	-1.687355e-08	-3.431320e+01	-1.105691e+03
2.500000e-07	-4.716877e-06	-1.678843e-08	-3.398774e+01	-1.101936e+03
2.600000e-07	-4.669982e-06	-1.676518e-08	-3.364984e+01	-1.097976e+03
2.700000e-07	-4.621191e-06	-1.667257e-08	-3.329827e+01	-1.093819e+03
2.800000e-07	-4.570276e-06	-1.657076e-08	-3.293140e+01	-1.089469e+03
2.900000e-07	-4.517320e-06	-1.652109e-08	-3.254982e+01	-1.084922e+03
3.000000e-07	-4.462682e-06	-1.644707e-08	-3.215612e+01	-1.080170e+03
3.100000e-07	-4.406473e-06	-1.638384e-08	-3.175111e+01	-1.075207e+03
3.200000e-07	-4.348530e-06	-1.631648e-08	-3.133360e+01	-1.070025e+03
3.300000e-07	-4.288918e-06	-1.622422e-08	-3.090405e+01	-1.064619e+03
3.400000e-07	-4.227867e-06	-1.612079e-08	-3.046415e+01	-1.058987e+03
3.500000e-07	-4.165336e-06	-1.602609e-08	-3.001357e+01	-1.053129e+03
3.600000e-07	-4.101422e-06	-1.594094e-08	-2.955304e+01	-1.047044e+03
3.700000e-07	-4.036084e-06	-1.585075e-08	-2.908224e+01	-1.040730e+03
3.800000e-07	-3.969063e-06	-1.576890e-08	-2.859932e+01	-1.034181e+03
3.900000e-07	-3.900564e-06	-1.565588e-08	-2.810575e+01	-1.027386e+03
4.000000e-07	-3.830828e-06	-1.552060e-08	-2.760326e+01	-1.020332e+03
4.100000e-07	-3.759855e-06	-1.541764e-08	-2.709186e+01	-1.013006e+03
4.200000e-07	-3.687708e-06	-1.530266e-08	-2.657200e+01	-1.005393e+03
4.300000e-07	-3.614174e-06	-1.518498e-08	-2.604215e+01	-9.974803e+02
4.400000e-07	-3.538944e-06	-1.505979e-08	-2.550007e+01	-9.892595e+02
4.500000e-07	-3.462220e-06	-1.492266e-08	-2.494724e+01	-9.807235e+02
4.600000e-07	-3.384223e-06	-1.478190e-08	-2.438522e+01	-9.718668e+02
4.700000e-07	-3.304894e-06	-1.464398e-08	-2.381361e+01	-9.626827e+02
4.800000e-07	-3.224190e-06	-1.451293e-08	-2.323209e+01	-9.531620e+02
4.900000e-07	-3.142309e-06	-1.436231e-08	-2.264210e+01	-9.432907e+02
5.000000e-07	-3.059407e-06	-1.420184e-08	-2.204474e+01	-9.330500e+02
5.100000e-07	-2.975571e-06	-1.403229e-08	-2.144065e+01	-9.224161e+02
5.200000e-07	-2.890918e-06	-1.385845e-08	-2.083068e+01	-9.113618e+02
5.300000e-07	-2.805311e-06	-1.367855e-08	-2.021384e+01	-8.998587e+02
5.400000e-07	-2.718688e-06	-1.349400e-08	-1.958967e+01	-8.878784e+02
5.500000e-07	-2.631140e-06	-1.330682e-08	-1.895883e+01	-8.753945e+02
5.600000e-07	-2.542775e-06	-1.310646e-08	-1.832212e+01	-8.623824e+02
5.700000e-07	-2.453393e-06	-1.289795e-08	-1.767807e+01	-8.488195e+02
5.800000e-07	-2.362729e-06	-1.268548e-08	-1.702478e+01	-8.346830e+02
5.900000e-07	-2.271079e-06	-1.246466e-08	-1.636440e+01	-8.199489e+02
6.000000e-07	-2.178789e-06	-1.222778e-08	-1.569939e+01	-8.045901e+02
6.100000e-07	-2.085790e-06	-1.197837e-08	-1.502928e+01	-7.885751e+02
6.200000e-07	-1.991998e-06	-1.171962e-08	-1.435346e+01	-7.718677e+02
6.300000e-07	-1.897492e-06	-1.145077e-08	-1.367249e+01	-7.544274e+02
6.400000e-07	-1.802333e-06	-1.117251e-08	-1.298682e+01	-7.362102e+02
6.500000e-07	-1.706609e-06	-1.088234e-08	-1.229707e+01	-7.171694e+02
6.600000e-07	-1.610375e-06	-1.057840e-08	-1.160365e+01	-6.972572e+02
6.700000e-07	-1.513538e-06	-1.026006e-08	-1.090589e+01	-6.764249e+02
6.800000e-07	-1.415996e-06	-9.927396e-09	-1.020305e+01	-6.546239e+02
6.900000e-07	-1.317758e-06	-9.579631e-09	-9.495181e+00	-6.318064e+02
7.000000e-07	-1.218871e-06	-9.214407e-09	-8.782648e+00	-6.079268e+02
7.100000e-07	-1.119506e-06	-8.828724e-09	-8.066669e+00	-5.829440e+02
7.200000e-07	-1.019863e-06	-8.426883e-09	-7.348685e+00	-5.568252e+02
7.300000e-07	-9.199855e-07	-8.010228e-09	-6.629011e+00	-5.295502e+02
7.400000e-07	-8.198884e-07	-7.577067e-09	-5.907754e+00	-5.011175e+02
7.500000e-07	-7.195269e-07	-7.129671e-09	-5.184594e+00	-4.715495e+02
7.600000e-07	-6.189980e-07	-6.664645e-09	-4.460227e+00	-4.408971e+02
7.700000e-07	-5.183269e-07	-6.181424e-09	-3.734836e+00	-4.092418e+02
7.800000e-07	-4.174592e-07	-5.684151e-09	-3.008028e+00	-3.766949e+02
7.900000e-07	-3.164632e-07	-5.175966e-09	-2.280294e+00	-3.433933e+02
8.000000e-07	-2.153274e-07	-4.658013e-09	-1.551554e+00	-3.094907e+02
8.100000e-07	-1.140931e-07	-4.135876e-09	-8.221047e-01	-2.751472e+02
8.200000e-07	-1.280117e-08	-3.612041e-09	-9.223960e-02	-2.405150e+02
8.300000e-07	8.855374e-08	-3.085657e-09	6.380793e-01	-2.057253e+02
8.400000e-07	1.899092e-07	-2.556885e-09	1.368402e+00	-1.708759e+02
8.500000e-07	2.911675e-07	-2.029479e-09	2.098024e+00	-1.360211e+02
8.600000e-07	3.923274e-07	-1.505108e-09	2.826939e+00	-1.011676e+02
8.700000e-07	4.933638e-07	-9.796210e-10	3.554962e+00	-6.627423e+01
8.800000e-07	5.942364e-07	-4.509630e-10	4.281805e+00	-3.125859e+01
8.900000e-07	6.949541e-07	8.452347e-11	5.007533e+00	3.991554e+00
9.000000e-07	7.954354e-07	6.280450e-10	5.731557e+00	3.960221e+01
9.100000e-07	8.956436e-07	1.179502e-09	6.453613e+00	7.569443e+01
9.200000e-07	9.956573e-07	1.738576e-09	7.174268e+00	1.123648e+02
9.300000e-07	1.095492e-06	2.305705e-09	7.893636e+00	1.496676e+02
9.400000e-07	1.195062e-06	2.882019e-09	8.611089e+00	1.876006e+02
9.500000e-07	1.294193e-06	3.465039e-09	9.325381e+00	2.260960e+02
9.600000e-07	1.392624e-06	4.053651e-09	1.003464e+01	2.650195e+02
9.700000e-07	1.490254e-06	4.647058e-09	1.073812e+01	3.041750e+02
9.800000e-07	1.587115e-06	5.241250e-09	1.143605e+01	3.433172e+02
9.900000e-07	1.683314e-06	5.830322e-09	1.212922e+01	3.821694e+02
1.000000e-06	1.778962e-06	6.411006e-09	1.281842e+01	4.204446e+02
1.010000e-06	1.874004e-06	6.980470e-09	1.350324e+01	4.578671e+02
1.020000e-06	1.968408e-06	7.533661e-09	1.418348e+01	4.941928e+02
1.030000e-06	2.062100e-06	8.065962e-09	1.485859e+01	5.292238e+02
1.040000e-06	2.155044e-06	8.575041e-09	1.552830e+01	5.628185e+02
1.050000e-06	2.247382e-06	9.060632e-09	1.619365e+01	5.948936e+02
1.060000e-06	2.339131e-06	9.522116e-09	1.685475e+01	6.254206e+02
1.070000e-06	2.430051e-06	9.961999e-09	1.750988e+01	6.544159e+02
1.080000e-06	2.519800e-06	1.038159e-08	1.815657e+01	6.819290e+02
1.090000e-06	2.608371e-06	1.078059e-08	1.879478e+01	7.080287e+02
1.100000e-06	2.696090e-06	1.115661e-08	1.942683e+01	7.327915e+02
1.110000e-06	2.782985e-06	1.151346e-08	2.005296e+01	7.562920e+02
1.120000e-06	2.868926e-06	1.185175e-08	2.067222e+01	7.785976e+02
1.130000e-06	2.953899e-06	1.217355e-08	2.128449e+01	7.997675e+02
1.140000e-06	3.038053e-06	1.247722e-08	2.189087e+01	8.198534e+02
1.150000e-06	3.121396e-06	1.276198e-08	2.249140e+01	8.389034e+02
1.160000e-06	3.203529e-06	1.303378e-08	2.308322e+01	8.569655e+02
1.170000e-06	3.284417e-06	1.329224e-08	2.366606e+01	8.740902e+02
1.180000e-06	3.364155e-06	1.353967e-08	2.424062e+01	8.903315e+02
1.190000e-06	3.442647e-06	1.377589e-08	2.480620e+01	9.057461e+02
1.200000e-06	3.519950e-06	1.399933e-08	2.536321e+01	9.203908e+02
1.210000e-06	3.596030e-06	1.421011e-08	2.591141e+01	9.343197e+02
1.220000e-06	3.670614e-06	1.440816e-08	2.644883e+01	9.475808e+02
1.230000e-06	3.743531e-06	1.459703e-08	2.697424e+01	9.602140e+02
1.240000e-06	3.815006e-06	1.477791e-08	2.748926e+01	9.722507e+02
1.250000e-06	3.885188e-06	1.495055e-08	2.799495e+01	9.837141e+02
1.260000e-06	3.954102e-06	1.511646e-08	2.849152e+01	9.946218e+02
1.270000e-06	4.021725e-06	1.527376e-08	2.897878e+01	1.004988e+03
1.280000e-06	4.087734e-06	1.542268e-08	2.945441e+01	1.014825e+03
1.290000e-06	4.152056e-06	1.556577e-08	2.991789e+01	1.024148e+03
1.300000e-06	4.214919e-06	1.570194e-08	3.037085e+01	1.032972e+03
1.310000e-06	4.276392e-06	1.582799e-08	3.081380e+01	1.041315e+03
1.320000e-06	4.336579e-06	1.594662e-08	3.124748e+01	1.049199e+03
1.330000e-06	4.395315e-06	1.605994e-08	3.167070e+01	1.056643e+03
1.340000e-06	4.452263e-06	1.616672e-08	3.208104e+01	1.063671e+03
1.350000e-06	4.507503e-06	1.626508e-08	3.247908e+01	1.070307e+03
1.360000e-06	4.561176e-06	1.635813e-08	3.286582e+01	1.076575e+03
1.370000e-06	4.613066e-06	1.644849e-08	3.323972e+01	1.082502e+03
1.380000e-06	4.662837e-06	1.653454e-08	3.359835e+01	1.088115e+03
1.390000e-06	4.710703e-06	1.661466e-08	3.394325e+01	1.093442e+03
1.400000e-06	4.757043e-06	1.669000e-08	3.427716e+01	1.098509e+03
1.410000e-06	4.801856e-06	1.676257e-08	3.460006e+01	1.103336e+03
1.420000e-06	4.845025e-06	1.683190e-08	3.491112e+01	1.107940e+03
1.430000e-06	4.886317e-06	1.689811e-08	3.520865e+01	1.112328e+03
1.440000e-06	4.925818e-06	1.696104e-08	3.549328e+01	1.116496e+03
1.450000e-06	4.963720e-06	1.702029e-08	3.576638e+01	1.120437e+03
1.460000e-06	5.000020e-06	1.707615e-08	3.602794e+01	1.124136e+03
1.470000e-06	5.034602e-06	1.712834e-08	3.627713e+01	1.127578e+03
1.480000e-06	5.067295e-06	1.717685e-08	3.651269e+01	1.130752e+03
1.490000e-06	5.098179e-06	1.722058e-08	3.673523e+01	1.133654e+03
1.500000e-06	5.127389e-06	1.725772e-08	3.694571e+01	1.136287e+03
1.510000e-06	5.154942e-06	1.728999e-08	3.714424e+01	1.138666e+03
1.520000e-06	5.180503e-06	1.731992e-08	3.732842e+01	1.140809e+03
1.530000e-06	5.203960e-06	1.734950e-08	3.749744e+01	1.142742e+03
1.540000e-06	5.225602e-06	1.737720e-08	3.765338e+01	1.144485e+03
1.550000e-06	5.245586e-06	1.740129e-08	3.779738e+01	1.146057e+03
1.560000e-06	5.263781e-06	1.742176e-08	3.792849e+01	1.147467e+03
1.570000e-06	5.279934e-06	1.743857e-08	3.804488e+01	1.148717e+03
1.580000e-06	5.294082e-06	1.745350e-08	3.814683e+01	1.149802e+03
1.590000e-06	5.306276e-06	1.746660e-08	3.823469e+01	1.150715e+03
1.600000e-06	5.316306e-06	1.747830e-08	3.830696e+01	1.151450e+03
1.610000e-06	5.324205e-06	1.748772e-08	3.836388e+01	1.152007e+03
1.620000e-06	5.330286e-06	1.749521e-08	3.840769e+01	1.152389e+03
1.630000e-06	5.334648e-06	1.749934e-08	3.843912e+01	1.152610e+03
1.640000e-06	5.337101e-06	1.750171e-08	3.845680e+01	1.152684e+03
1.650000e-06	5.337545e-06	1.750422e-08	3.846000e+01	1.152629e+03
1.660000e-06	5.336203e-06	1.750349e-08	3.845033e+01	1.152454e+03
1.670000e-06	5.333259e-06	1.749770e-08	3.842912e+01	1.152163e+03
1.680000e-06	5.328677e-06	1.749158e-08	3.839610e+01	1.151750e+03
1.690000e-06	5.322194e-06	1.748296e-08	3.834938e+01	1.151199e+03
1.700000e-06	5.313874e-06	1.747229e-08	3.828944e+01	1.150493e+03
1.710000e-06	5.304010e-06	1.746143e-08	3.821836e+01	1.149611e+03
1.720000e-06	5.292462e-06	1.745101e-08	3.813515e+01	1.148543e+03
1.730000e-06	5.278965e-06	1.744247e-08	3.803790e+01	1.147287e+03
1.740000e-06	5.263458e-06	1.739328e-08	3.792616e+01	1.145856e+03
1.750000e-06	5.245732e-06	1.734101e-08	3.779844e+01	1.144278e+03
1.760000e-06	5.225465e-06	1.734207e-08	3.765240e+01	1.142585e+03
1.770000e-06	5.202810e-06	1.733430e-08	3.748916e+01	1.140815e+03
1.780000e-06	5.178574e-06	1.734871e-08	3.731453e+01	1.138999e+03
1.790000e-06	5.153495e-06	1.731997e-08	3.713382e+01	1.137157e+03
1.800000e-06	5.127303e-06	1.719100e-08	3.694509e+01	1.135292e+03
1.810000e-06	5.099094e-06	1.723682e-08	3.674182e+01	1.133389e+03
1.820000e-06	5.068830e-06	1.724547e-08	3.652376e+01	1.131418e+03
1.830000e-06	5.036948e-06	1.715121e-08	3.629403e+01	1.129337e+03
1.840000e-06	5.003237e-06	1.723305e-08	3.605112e+01	1.127104e+03
1.850000e-06	4.967863e-06	1.718818e-08	3.579623e+01	1.124677e+03
1.860000e-06	4.930912e-06	1.708272e-08	3.552998e+01	1.122026e+03
1.870000e-06	4.892020e-06	1.711812e-08	3.524974e+01	1.119133e+03
1.880000e-06	4.851440e-06	1.700717e-08	3.495734e+01	1.115992e+03
1.890000e-06	4.809181e-06	1.696704e-08	3.465284e+01	1.112611e+03
1.900000e-06	4.765152e-06	1.695770e-08	3.433559e+01	1.109002e+03
1.910000e-06	4.719377e-06	1.682204e-08	3.400575e+01	1.105179e+03
1.920000e-06	4.671671e-06	1.686843e-08	3.366200e+01	1.101154e+03
1.930000e-06	4.622289e-06	1.680030e-08	3.330618e+01	1.096934e+03
1.940000e-06	4.571179e-06	1.668485e-08	3.293790e+01	1.092521e+03
1.950000e-06	4.517936e-06	1.666547e-08	3.255426e+01	1.087908e+03
1.960000e-06	4.462785e-06	1.653085e-08	3.215686e+01	1.083089e+03
1.970000e-06	4.406031e-06	1.647185e-08	3.174792e+01	1.078055e+03
1.980000e-06	4.347751e-06	1.639154e-08	3.132798e+01	1.072800e+03
1.990000e-06	4.288052e-06	1.630663e-08	3.089782e+01	1.067321e+03
2.000000e-06	4.226835e-06	1.627313e-08	3.045671e+01	1.061616e+03
2.010000e-06	4.163968e-06	1.614031e-08	3.000372e+01	1.055685e+03
2.020000e-06	4.099464e-06	1.605301e-08	2.953893e+01	1.049526e+03
2.030000e-06	4.033536e-06	1.593115e-08	2.906389e+01	1.043137e+03
2.040000e-06	3.966311e-06	1.584080e-08	2.857949e+01	1.036509e+03
2.050000e-06	3.897681e-06	1.577222e-08	2.808497e+01	1.029632e+03
2.060000e-06	3.827507e-06	1.563308e-08	2.757933e+01	1.022492e+03
2.070000e-06	3.755876e-06	1.554953e-08	2.706319e+01	1.015074e+03
2.080000e-06	3.682956e-06	1.540906e-08	2.653776e+01	1.007365e+03
2.090000e-06	3.608641e-06	1.528601e-08	2.600227e+01	9.993534e+02
2.100000e-06	3.532920e-06	1.517393e-08	2.545667e+01	9.910312e+02
2.110000e-06	3.455810e-06	1.503958e-08	2.490105e+01	9.823921e+02
2.120000e-06	3.377186e-06	1.491783e-08	2.433451e+01	9.734303e+02
2.130000e-06	3.297296e-06	1.474981e-08	2.375887e+01	9.641385e+02
2.140000e-06	3.216364e-06	1.460714e-08	2.317570e+01	9.545062e+02
2.150000e-06	3.134402e-06	1.444921e-08	2.258512e+01	9.445178e+02
2.160000e-06	3.051391e-06	1.429560e-08	2.198698e+01	9.341528e+02
2.170000e-06	2.967388e-06	1.414542e-08	2.138169e+01	9.233862e+02
2.180000e-06	2.882338e-06	1.397992e-08	2.076886e+01	9.121901e+02
2.190000e-06	2.795922e-06	1.380868e-08	2.014618e+01	9.005359e+02
2.200000e-06	2.708365e-06	1.361245e-08	1.951529e+01	8.883959e+02
2.210000e-06	2.619940e-06	1.342756e-08	1.887814e+01	8.757441e+02
2.220000e-06	2.530606e-06	1.322485e-08	1.823443e+01	8.625567e+02
2.230000e-06	2.440450e-06	1.300921e-08	1.758481e+01	8.488113e+02
2.240000e-06	2.349511e-06	1.278860e-08	1.692954e+01	8.344848e+02
2.250000e-06	2.257868e-06	1.256788e-08	1.626920e+01	8.195524e+02
2.260000e-06	2.165549e-06	1.233692e-08	1.560399e+01	8.039856e+02
2.270000e-06	2.072271e-06	1.208707e-08	1.493187e+01	7.877515e+02
2.280000e-06	1.977910e-06	1.183258e-08	1.425195e+01	7.708125e+02
2.290000e-06	1.882699e-06	1.156458e-08	1.356590e+01	7.531267e+02
2.300000e-06	1.786926e-06	1.128463e-08	1.287580e+01	7.346493e+02
2.310000e-06	1.690703e-06	1.098883e-08	1.218246e+01	7.153330e+02
2.320000e-06	1.593978e-06	1.068181e-08	1.148550e+01	6.951297e+02
2.330000e-06	1.496675e-06	1.036023e-08	1.078438e+01	6.739906e+02
2.340000e-06	1.398798e-06	1.002190e-08	1.007912e+01	6.518673e+02
2.350000e-06	1.300450e-06	9.669090e-09	9.370472e+00	6.287126e+02
2.360000e-06	1.201729e-06	9.303335e-09	8.659130e+00	6.044819e+02
2.370000e-06	1.102684e-06	8.923887e-09	7.945454e+00	5.791363e+02
2.380000e-06	1.003389e-06	8.523404e-09	7.229979e+00	5.526466e+02
2.390000e-06	9.038970e-07	8.100768e-09	6.513084e+00	5.249980e+02
2.400000e-06	8.042097e-07	7.656992e-09	5.794781e+00	4.961960e+02
2.410000e-06	7.043185e-07	7.198410e-09	5.075009e+00	4.662717e+02
2.420000e-06	6.041909e-07	6.724209e-09	4.353533e+00	4.352859e+02
2.430000e-06	5.038401e-07	6.235848e-09	3.630450e+00	4.033298e+02
2.440000e-06	4.033116e-07	5.738625e-09	2.906086e+00	3.705237e+02
2.450000e-06	3.026980e-07	5.231236e-09	2.181109e+00	3.370109e+02
2.460000e-06	2.019558e-07	4.708922e-09	1.455205e+00	3.029486e+02
2.470000e-06	1.010378e-07	4.177077e-09	7.280339e-01	2.684957e+02
2.480000e-06	1.874420e-11	3.644038e-09	1.350624e-04	2.337993e+02
2.490000e-06	-1.011905e-07	3.111678e-09	-7.291343e-01	1.989811e+02
2.500000e-06	-2.024573e-07	2.576581e-09	-1.458818e+00	1.641255e+02
2.510000e-06	-3.035211e-07	2.037926e-09	-2.187040e+00	1.292721e+02
2.520000e-06	-4.043581e-07	1.501283e-09	-2.913627e+00	9.441175e+01
2.530000e-06	-5.050015e-07	9.654536e-10	-3.638819e+00	5.948911e+01
2.540000e-06	-6.054688e-07	4.278295e-10	-4.362741e+00	2.441068e+01
2.550000e-06	-7.056974e-07	-1.145199e-10	-5.084944e+00	-1.094213e+01
2.560000e-06	-8.056473e-07	-6.632049e-10	-5.805139e+00	-4.669584e+01
2.570000e-06	-9.053394e-07	-1.217853e-09	-6.523477e+00	-8.296574e+01
2.580000e-06	-1.004775e-06	-1.779950e-09	-7.239968e+00	-1.198366e+02
2.590000e-06	-1.103963e-06	-2.351655e-09	-7.954670e+00	-1.573459e+02
2.600000e-06	-1.202844e-06	-2.934345e-09	-8.667161e+00	-1.954710e+02
2.610000e-06	-1.301290e-06	-3.526387e-09	-9.376525e+00	-2.341225e+02
2.620000e-06	-1.399212e-06	-4.123716e-09	-1.008211e+01	-2.731453e+02
2.630000e-06	-1.496603e-06	-4.724755e-09	-1.078386e+01	-3.123258e+02
2.640000e-06	-1.593503e-06	-5.325997e-09	-1.148208e+01	-3.514066e+02
2.650000e-06	-1.689898e-06	-5.921538e-09	-1.217666e+01	-3.901052e+02
2.660000e-06	-1.785802e-06	-6.506176e-09	-1.286770e+01	-4.281359e+02
2.670000e-06	-1.881220e-06	-7.076512e-09	-1.355524e+01	-4.652313e+02
2.680000e-06	-1.975959e-06	-7.629678e-09	-1.423789e+01	-5.011604e+02
2.690000e-06	-2.069812e-06	-8.158906e-09	-1.491416e+01	-5.357431e+02
2.700000e-06	-2.162592e-06	-8.662465e-09	-1.558268e+01	-5.688563e+02
2.710000e-06	-2.254413e-06	-9.143891e-09	-1.624430e+01	-6.004353e+02
2.720000e-06	-2.345523e-06	-9.603933e-09	-1.690080e+01	-6.304669e+02
2.730000e-06	-2.435867e-06	-1.004068e-08	-1.755179e+01	-6.589799e+02
2.740000e-06	-2.525342e-06	-1.045552e-08	-1.819650e+01	-6.860313e+02
2.750000e-06	-2.613931e-06	-1.085296e-08	-1.883484e+01	-7.116936e+02
2.760000e-06	-2.701736e-06	-1.123116e-08	-1.946752e+01	-7.360434e+02
2.770000e-06	-2.788714e-06	-1.158588e-08	-2.009425e+01	-7.591536e+02
2.780000e-06	-2.874582e-06	-1.191940e-08	-2.071297e+01	-7.810888e+02
2.790000e-06	-2.959207e-06	-1.223475e-08	-2.132275e+01	-8.019055e+02
2.800000e-06	-3.042783e-06	-1.253406e-08	-2.192495e+01	-8.216539e+02
2.810000e-06	-3.125389e-06	-1.281886e-08	-2.252018e+01	-8.403818e+02
2.820000e-06	-3.206942e-06	-1.309140e-08	-2.310781e+01	-8.581376e+02
2.830000e-06	-3.287467e-06	-1.335138e-08	-2.368804e+01	-8.749730e+02
2.840000e-06	-3.367005e-06	-1.359832e-08	-2.426116e+01	-8.909430e+02
2.850000e-06	-3.445217e-06	-1.383496e-08	-2.482472e+01	-9.061046e+02
2.860000e-06	-3.521868e-06	-1.406063e-08	-2.537703e+01	-9.205143e+02
2.870000e-06	-3.597100e-06	-1.427348e-08	-2.591912e+01	-9.342243e+02
2.880000e-06	-3.670966e-06	-1.447311e-08	-2.645136e+01	-9.472804e+02
2.890000e-06	-3.743526e-06	-1.466181e-08	-2.697420e+01	-9.597195e+02
2.900000e-06	-3.814870e-06	-1.484273e-08	-2.748827e+01	-9.715704e+02
2.910000e-06	-3.884755e-06	-1.501499e-08	-2.799183e+01	-9.828541e+02
2.920000e-06	-3.953015e-06	-1.517843e-08	-2.848369e+01	-9.935869e+02
2.930000e-06	-4.019927e-06	-1.533455e-08	-2.896582e+01	-1.003782e+03
2.940000e-06	-4.085513e-06	-1.548334e-08	-2.943841e+01	-1.013453e+03
