# Temperatura_=_76.27
# Concentracion g/m^3_=_28200.0
# C_Vs_to_Am_M_A/Vsm_=_65563218390.804596
# pendiente_HvsI_1/m_=_3716.3
# ordenada_HvsI_A/m_=_1297.0
# frecuencia_Hz_=_301746.13878971356

Tiempo_(s)	Campo_(V.s)	Magnetizacion_(V.s)	Campo_(kA/m)	Magnetizacion_(A/m)
0.000000e+00	-5.319540e-06	-2.458483e-08	-3.829861e+01	-1.609050e+03
1.000000e-08	-5.317087e-06	-2.458102e-08	-3.828096e+01	-1.608627e+03
2.000000e-08	-5.312835e-06	-2.457084e-08	-3.825035e+01	-1.608027e+03
3.000000e-08	-5.306960e-06	-2.455895e-08	-3.820804e+01	-1.607241e+03
4.000000e-08	-5.299506e-06	-2.454427e-08	-3.815438e+01	-1.606255e+03
5.000000e-08	-5.290355e-06	-2.452126e-08	-3.808850e+01	-1.605054e+03
6.000000e-08	-5.279191e-06	-2.449376e-08	-3.800812e+01	-1.603624e+03
7.000000e-08	-5.266084e-06	-2.445887e-08	-3.791375e+01	-1.601959e+03
8.000000e-08	-5.251019e-06	-2.444204e-08	-3.780529e+01	-1.600064e+03
9.000000e-08	-5.233723e-06	-2.446729e-08	-3.768077e+01	-1.597956e+03
1.000000e-07	-5.214328e-06	-2.443715e-08	-3.754113e+01	-1.595662e+03
1.100000e-07	-5.193063e-06	-2.435954e-08	-3.738803e+01	-1.593217e+03
1.200000e-07	-5.170061e-06	-2.430114e-08	-3.722242e+01	-1.590654e+03
1.300000e-07	-5.145580e-06	-2.419405e-08	-3.704617e+01	-1.588002e+03
1.400000e-07	-5.119565e-06	-2.417062e-08	-3.685887e+01	-1.585275e+03
1.500000e-07	-5.091859e-06	-2.423442e-08	-3.665940e+01	-1.582472e+03
1.600000e-07	-5.062610e-06	-2.409909e-08	-3.644882e+01	-1.579577e+03
1.700000e-07	-5.031945e-06	-2.406059e-08	-3.622804e+01	-1.576555e+03
1.800000e-07	-4.999447e-06	-2.408886e-08	-3.599407e+01	-1.573363e+03
1.900000e-07	-4.964855e-06	-2.390679e-08	-3.574502e+01	-1.569955e+03
2.000000e-07	-4.928700e-06	-2.388768e-08	-3.548472e+01	-1.566289e+03
2.100000e-07	-4.890965e-06	-2.389302e-08	-3.521304e+01	-1.562331e+03
2.200000e-07	-4.851403e-06	-2.373883e-08	-3.492821e+01	-1.558060e+03
2.300000e-07	-4.810005e-06	-2.367728e-08	-3.463016e+01	-1.553472e+03
2.400000e-07	-4.766650e-06	-2.359733e-08	-3.431802e+01	-1.548570e+03
2.500000e-07	-4.721509e-06	-2.350070e-08	-3.399303e+01	-1.543368e+03
2.600000e-07	-4.674590e-06	-2.346929e-08	-3.365523e+01	-1.537880e+03
2.700000e-07	-4.625683e-06	-2.334704e-08	-3.330312e+01	-1.532119e+03
2.800000e-07	-4.574730e-06	-2.323245e-08	-3.293627e+01	-1.526091e+03
2.900000e-07	-4.521829e-06	-2.314922e-08	-3.255541e+01	-1.519795e+03
3.000000e-07	-4.467269e-06	-2.305181e-08	-3.216260e+01	-1.513222e+03
3.100000e-07	-4.411124e-06	-2.295239e-08	-3.175837e+01	-1.506361e+03
3.200000e-07	-4.353173e-06	-2.284511e-08	-3.134115e+01	-1.499199e+03
3.300000e-07	-4.293506e-06	-2.273429e-08	-3.091157e+01	-1.491724e+03
3.400000e-07	-4.232389e-06	-2.259134e-08	-3.047155e+01	-1.483931e+03
3.500000e-07	-4.169823e-06	-2.246292e-08	-3.002110e+01	-1.475818e+03
3.600000e-07	-4.105887e-06	-2.234383e-08	-2.956079e+01	-1.467388e+03
3.700000e-07	-4.040471e-06	-2.222237e-08	-2.908982e+01	-1.458644e+03
3.800000e-07	-3.973407e-06	-2.209726e-08	-2.860698e+01	-1.449590e+03
3.900000e-07	-3.904864e-06	-2.192695e-08	-2.811350e+01	-1.440222e+03
4.000000e-07	-3.835027e-06	-2.176624e-08	-2.761070e+01	-1.430531e+03
4.100000e-07	-3.764025e-06	-2.162897e-08	-2.709951e+01	-1.420501e+03
4.200000e-07	-3.691815e-06	-2.147463e-08	-2.657963e+01	-1.410113e+03
4.300000e-07	-3.618138e-06	-2.131079e-08	-2.604918e+01	-1.399341e+03
4.400000e-07	-3.542862e-06	-2.113512e-08	-2.550723e+01	-1.388164e+03
4.500000e-07	-3.466202e-06	-2.095228e-08	-2.495531e+01	-1.376561e+03
4.600000e-07	-3.388290e-06	-2.076270e-08	-2.439437e+01	-1.364515e+03
4.700000e-07	-3.309058e-06	-2.058023e-08	-2.382393e+01	-1.352015e+03
4.800000e-07	-3.228443e-06	-2.039454e-08	-2.324354e+01	-1.339051e+03
4.900000e-07	-3.146555e-06	-2.018455e-08	-2.265397e+01	-1.325610e+03
5.000000e-07	-3.063601e-06	-1.996528e-08	-2.205673e+01	-1.311680e+03
5.100000e-07	-2.979714e-06	-1.973877e-08	-2.145278e+01	-1.297240e+03
5.200000e-07	-2.894972e-06	-1.950779e-08	-2.084267e+01	-1.282262e+03
5.300000e-07	-2.809343e-06	-1.927020e-08	-2.022617e+01	-1.266713e+03
5.400000e-07	-2.722762e-06	-1.902649e-08	-1.960282e+01	-1.250555e+03
5.500000e-07	-2.635252e-06	-1.877326e-08	-1.897279e+01	-1.233748e+03
5.600000e-07	-2.546769e-06	-1.850247e-08	-1.833574e+01	-1.216253e+03
5.700000e-07	-2.457178e-06	-1.822418e-08	-1.769072e+01	-1.198033e+03
5.800000e-07	-2.366473e-06	-1.793925e-08	-1.703768e+01	-1.179056e+03
5.900000e-07	-2.274886e-06	-1.764140e-08	-1.637829e+01	-1.159291e+03
6.000000e-07	-2.182570e-06	-1.732453e-08	-1.571366e+01	-1.138703e+03
6.100000e-07	-2.089458e-06	-1.699238e-08	-1.504329e+01	-1.117256e+03
6.200000e-07	-1.995556e-06	-1.664762e-08	-1.436723e+01	-1.094900e+03
6.300000e-07	-1.900918e-06	-1.628804e-08	-1.368587e+01	-1.071578e+03
6.400000e-07	-1.805685e-06	-1.591506e-08	-1.300023e+01	-1.047215e+03
6.500000e-07	-1.709929e-06	-1.552606e-08	-1.231082e+01	-1.021729e+03
6.600000e-07	-1.613580e-06	-1.511984e-08	-1.161715e+01	-9.950247e+02
6.700000e-07	-1.516571e-06	-1.469457e-08	-1.091872e+01	-9.670033e+02
6.800000e-07	-1.418813e-06	-1.424844e-08	-1.021490e+01	-9.375637e+02
6.900000e-07	-1.320367e-06	-1.377713e-08	-9.506130e+00	-9.066074e+02
7.000000e-07	-1.221439e-06	-1.327949e-08	-8.793888e+00	-8.740416e+02
7.100000e-07	-1.122117e-06	-1.275463e-08	-8.078808e+00	-8.397818e+02
7.200000e-07	-1.022451e-06	-1.220325e-08	-7.361249e+00	-8.037551e+02
7.300000e-07	-9.225339e-07	-1.162675e-08	-6.641885e+00	-7.659033e+02
7.400000e-07	-8.223879e-07	-1.102306e-08	-5.920872e+00	-7.261888e+02
7.500000e-07	-7.220081e-07	-1.039004e-08	-5.198177e+00	-6.846003e+02
7.600000e-07	-6.214193e-07	-9.725289e-09	-4.473977e+00	-6.411617e+02
7.700000e-07	-5.206467e-07	-9.033949e-09	-3.748454e+00	-5.959387e+02
7.800000e-07	-4.196855e-07	-8.321666e-09	-3.021572e+00	-5.490450e+02
7.900000e-07	-3.185543e-07	-7.588070e-09	-2.293467e+00	-5.006423e+02
8.000000e-07	-2.172828e-07	-6.832937e-09	-1.564351e+00	-4.509352e+02
8.100000e-07	-1.159227e-07	-6.060430e-09	-8.345986e-01	-4.001579e+02
8.200000e-07	-1.452884e-08	-5.273526e-09	-1.046020e-01	-3.485541e+02
8.300000e-07	8.684379e-08	-4.476318e-09	6.252415e-01	-2.963517e+02
8.400000e-07	1.881925e-07	-3.674408e-09	1.354913e+00	-2.437360e+02
8.500000e-07	2.895589e-07	-2.869299e-09	2.084711e+00	-1.908262e+02
8.600000e-07	3.908912e-07	-2.061107e-09	2.814264e+00	-1.376596e+02
8.700000e-07	4.920938e-07	-1.248028e-09	3.542883e+00	-8.418785e+01
8.800000e-07	5.931630e-07	-4.270257e-10	4.270543e+00	-3.028684e+01
8.900000e-07	6.940314e-07	4.056174e-10	4.996756e+00	2.421836e+01
9.000000e-07	7.946506e-07	1.249924e-09	5.721175e+00	7.951767e+01
9.100000e-07	8.950286e-07	2.105892e-09	6.443857e+00	1.357735e+02
9.200000e-07	9.951667e-07	2.975827e-09	7.164812e+00	1.930781e+02
9.300000e-07	1.095031e-06	3.861222e-09	7.883795e+00	2.514181e+02
9.400000e-07	1.194565e-06	4.762827e-09	8.600402e+00	3.106521e+02
9.500000e-07	1.293695e-06	5.673393e-09	9.314103e+00	3.705053e+02
9.600000e-07	1.392233e-06	6.586765e-09	1.002354e+01	4.305830e+02
9.700000e-07	1.490088e-06	7.497523e-09	1.072805e+01	4.904003e+02
9.800000e-07	1.587159e-06	8.396445e-09	1.142693e+01	5.494247e+02
9.900000e-07	1.683489e-06	9.272859e-09	1.212047e+01	6.071235e+02
1.000000e-06	1.779205e-06	1.011985e-08	1.280958e+01	6.630106e+02
1.010000e-06	1.874343e-06	1.093607e-08	1.349454e+01	7.166844e+02
1.020000e-06	1.968827e-06	1.171407e-08	1.417478e+01	7.678528e+02
1.030000e-06	2.062579e-06	1.244725e-08	1.484976e+01	8.163431e+02
1.040000e-06	2.155654e-06	1.313760e-08	1.551987e+01	8.620965e+02
1.050000e-06	2.248049e-06	1.378913e-08	1.618508e+01	9.051504e+02
1.060000e-06	2.339754e-06	1.440235e-08	1.684531e+01	9.456130e+02
1.070000e-06	2.430661e-06	1.498081e-08	1.749981e+01	9.836360e+02
1.080000e-06	2.520536e-06	1.552606e-08	1.814688e+01	1.019389e+03
1.090000e-06	2.609333e-06	1.603804e-08	1.878618e+01	1.053040e+03
1.100000e-06	2.697185e-06	1.651825e-08	1.941868e+01	1.084743e+03
1.110000e-06	2.784129e-06	1.697099e-08	2.004465e+01	1.114634e+03
1.120000e-06	2.870120e-06	1.739809e-08	2.066375e+01	1.142836e+03
1.130000e-06	2.955182e-06	1.780072e-08	2.127616e+01	1.169456e+03
1.140000e-06	3.039366e-06	1.818219e-08	2.188225e+01	1.194599e+03
1.150000e-06	3.122657e-06	1.854405e-08	2.248191e+01	1.218365e+03
1.160000e-06	3.204844e-06	1.888903e-08	2.307363e+01	1.240855e+03
1.170000e-06	3.285698e-06	1.921512e-08	2.365575e+01	1.262167e+03
1.180000e-06	3.365389e-06	1.952197e-08	2.422949e+01	1.282391e+03
1.190000e-06	3.443998e-06	1.981294e-08	2.479545e+01	1.301608e+03
1.200000e-06	3.521354e-06	2.008891e-08	2.535238e+01	1.319885e+03
1.210000e-06	3.597499e-06	2.035122e-08	2.590059e+01	1.337274e+03
1.220000e-06	3.672286e-06	2.060178e-08	2.643903e+01	1.353817e+03
1.230000e-06	3.745432e-06	2.084056e-08	2.696565e+01	1.369545e+03
1.240000e-06	3.817063e-06	2.106758e-08	2.748136e+01	1.384491e+03
1.250000e-06	3.887359e-06	2.128332e-08	2.798747e+01	1.398688e+03
1.260000e-06	3.956333e-06	2.148757e-08	2.848406e+01	1.412174e+03
1.270000e-06	4.024017e-06	2.168092e-08	2.897135e+01	1.424996e+03
1.280000e-06	4.090212e-06	2.186400e-08	2.944793e+01	1.437203e+03
1.290000e-06	4.154749e-06	2.203805e-08	2.991257e+01	1.448843e+03
1.300000e-06	4.217774e-06	2.220603e-08	3.036633e+01	1.459959e+03
1.310000e-06	4.279372e-06	2.236792e-08	3.080981e+01	1.470581e+03
1.320000e-06	4.339609e-06	2.252365e-08	3.124349e+01	1.480728e+03
1.330000e-06	4.398438e-06	2.267352e-08	3.166704e+01	1.490406e+03
1.340000e-06	4.455497e-06	2.281702e-08	3.207784e+01	1.499609e+03
1.350000e-06	4.510754e-06	2.295052e-08	3.247567e+01	1.508331e+03
1.360000e-06	4.564429e-06	2.307321e-08	3.286211e+01	1.516564e+03
1.370000e-06	4.616337e-06	2.318852e-08	3.323582e+01	1.524311e+03
1.380000e-06	4.666191e-06	2.329757e-08	3.359476e+01	1.531589e+03
1.390000e-06	4.714157e-06	2.340072e-08	3.394009e+01	1.538424e+03
1.400000e-06	4.760452e-06	2.349867e-08	3.427340e+01	1.544857e+03
1.410000e-06	4.805183e-06	2.359153e-08	3.459545e+01	1.550931e+03
1.420000e-06	4.848379e-06	2.367975e-08	3.490644e+01	1.556691e+03
1.430000e-06	4.889689e-06	2.376335e-08	3.520385e+01	1.562173e+03
1.440000e-06	4.929206e-06	2.384141e-08	3.548837e+01	1.567399e+03
1.450000e-06	4.967176e-06	2.391551e-08	3.576173e+01	1.572379e+03
1.460000e-06	5.003555e-06	2.398643e-08	3.602365e+01	1.577109e+03
1.470000e-06	5.038193e-06	2.405500e-08	3.627303e+01	1.581572e+03
1.480000e-06	5.070922e-06	2.411969e-08	3.650866e+01	1.585750e+03
1.490000e-06	5.101825e-06	2.417911e-08	3.673115e+01	1.589625e+03
1.500000e-06	5.131044e-06	2.423328e-08	3.694152e+01	1.593184e+03
1.510000e-06	5.158589e-06	2.428232e-08	3.713983e+01	1.596424e+03
1.520000e-06	5.184171e-06	2.432756e-08	3.732401e+01	1.599354e+03
1.530000e-06	5.207678e-06	2.436815e-08	3.749326e+01	1.601987e+03
1.540000e-06	5.229336e-06	2.440502e-08	3.764918e+01	1.604344e+03
1.550000e-06	5.249362e-06	2.443754e-08	3.779336e+01	1.606442e+03
1.560000e-06	5.267613e-06	2.446470e-08	3.792476e+01	1.608299e+03
1.570000e-06	5.283799e-06	2.448741e-08	3.804130e+01	1.609924e+03
1.580000e-06	5.298018e-06	2.450743e-08	3.814367e+01	1.611321e+03
1.590000e-06	5.310289e-06	2.452526e-08	3.823201e+01	1.612492e+03
1.600000e-06	5.320391e-06	2.453948e-08	3.830474e+01	1.613435e+03
1.610000e-06	5.328411e-06	2.455175e-08	3.836248e+01	1.614151e+03
1.620000e-06	5.334595e-06	2.456194e-08	3.840701e+01	1.614643e+03
1.630000e-06	5.339004e-06	2.456762e-08	3.843875e+01	1.614921e+03
1.640000e-06	5.341495e-06	2.457055e-08	3.845669e+01	1.614995e+03
1.650000e-06	5.341956e-06	2.457187e-08	3.846000e+01	1.614878e+03
1.660000e-06	5.340583e-06	2.456681e-08	3.845012e+01	1.614580e+03
1.670000e-06	5.337592e-06	2.455814e-08	3.842859e+01	1.614106e+03
1.680000e-06	5.332963e-06	2.454928e-08	3.839525e+01	1.613453e+03
1.690000e-06	5.326428e-06	2.453737e-08	3.834820e+01	1.612610e+03
1.700000e-06	5.318107e-06	2.452198e-08	3.828830e+01	1.611564e+03
1.710000e-06	5.308269e-06	2.450406e-08	3.821747e+01	1.610297e+03
1.720000e-06	5.296714e-06	2.449392e-08	3.813428e+01	1.608799e+03
1.730000e-06	5.283168e-06	2.447097e-08	3.803675e+01	1.607067e+03
1.740000e-06	5.267639e-06	2.437766e-08	3.792495e+01	1.605108e+03
1.750000e-06	5.249936e-06	2.433196e-08	3.779750e+01	1.602942e+03
1.760000e-06	5.229643e-06	2.433803e-08	3.765139e+01	1.600601e+03
1.770000e-06	5.206950e-06	2.433209e-08	3.748801e+01	1.598118e+03
1.780000e-06	5.182714e-06	2.437690e-08	3.731352e+01	1.595526e+03
1.790000e-06	5.157655e-06	2.424918e-08	3.713310e+01	1.592850e+03
1.800000e-06	5.131447e-06	2.412259e-08	3.694442e+01	1.590101e+03
1.810000e-06	5.103186e-06	2.421220e-08	3.674095e+01	1.587274e+03
1.820000e-06	5.072958e-06	2.409101e-08	3.652332e+01	1.584345e+03
1.830000e-06	5.041171e-06	2.403797e-08	3.629447e+01	1.581278e+03
1.840000e-06	5.007510e-06	2.415182e-08	3.605212e+01	1.578028e+03
1.850000e-06	4.972156e-06	2.397431e-08	3.579758e+01	1.574550e+03
1.860000e-06	4.935163e-06	2.391618e-08	3.553125e+01	1.570802e+03
1.870000e-06	4.896218e-06	2.395027e-08	3.525086e+01	1.566755e+03
1.880000e-06	4.855603e-06	2.380721e-08	3.495845e+01	1.562393e+03
1.890000e-06	4.813304e-06	2.380534e-08	3.465391e+01	1.557713e+03
1.900000e-06	4.769271e-06	2.368780e-08	3.433689e+01	1.552722e+03
1.910000e-06	4.723464e-06	2.357192e-08	3.400710e+01	1.547436e+03
1.920000e-06	4.675645e-06	2.361518e-08	3.366282e+01	1.541868e+03
1.930000e-06	4.626198e-06	2.345410e-08	3.330683e+01	1.536030e+03
1.940000e-06	4.575120e-06	2.337009e-08	3.293908e+01	1.529924e+03
1.950000e-06	4.521989e-06	2.329207e-08	3.255656e+01	1.523549e+03
1.960000e-06	4.466947e-06	2.315606e-08	3.216028e+01	1.516895e+03
1.970000e-06	4.410234e-06	2.308262e-08	3.175196e+01	1.509948e+03
1.980000e-06	4.351981e-06	2.291477e-08	3.133256e+01	1.502696e+03
1.990000e-06	4.292282e-06	2.285413e-08	3.090275e+01	1.495130e+03
2.000000e-06	4.231064e-06	2.276287e-08	3.046201e+01	1.487244e+03
2.010000e-06	4.168156e-06	2.258849e-08	3.000910e+01	1.479039e+03
2.020000e-06	4.103605e-06	2.246453e-08	2.954436e+01	1.470518e+03
2.030000e-06	4.037646e-06	2.230781e-08	2.906948e+01	1.461685e+03
2.040000e-06	3.970402e-06	2.222197e-08	2.858534e+01	1.452540e+03
2.050000e-06	3.901792e-06	2.206893e-08	2.809138e+01	1.443080e+03
2.060000e-06	3.831611e-06	2.190223e-08	2.758610e+01	1.433293e+03
2.070000e-06	3.760007e-06	2.177405e-08	2.707058e+01	1.423162e+03
2.080000e-06	3.687176e-06	2.158209e-08	2.654623e+01	1.412665e+03
2.090000e-06	3.612970e-06	2.142566e-08	2.601197e+01	1.401779e+03
2.100000e-06	3.537356e-06	2.125095e-08	2.546758e+01	1.390481e+03
2.110000e-06	3.460290e-06	2.108580e-08	2.491274e+01	1.378752e+03
2.120000e-06	3.381738e-06	2.089791e-08	2.434720e+01	1.366577e+03
2.130000e-06	3.301927e-06	2.068905e-08	2.377259e+01	1.353944e+03
2.140000e-06	3.221004e-06	2.050417e-08	2.318998e+01	1.340844e+03
2.150000e-06	3.139008e-06	2.029152e-08	2.259963e+01	1.327264e+03
2.160000e-06	3.056004e-06	2.008904e-08	2.200204e+01	1.313190e+03
2.170000e-06	2.972056e-06	1.986970e-08	2.139765e+01	1.298598e+03
2.180000e-06	2.886959e-06	1.963766e-08	2.078498e+01	1.283460e+03
2.190000e-06	2.800504e-06	1.939043e-08	2.016254e+01	1.267740e+03
2.200000e-06	2.712939e-06	1.913691e-08	1.953210e+01	1.251399e+03
2.210000e-06	2.624465e-06	1.888921e-08	1.889512e+01	1.234398e+03
2.220000e-06	2.535041e-06	1.861564e-08	1.825131e+01	1.216698e+03
2.230000e-06	2.444755e-06	1.833008e-08	1.760128e+01	1.198265e+03
2.240000e-06	2.353801e-06	1.803511e-08	1.694645e+01	1.179065e+03
2.250000e-06	2.262214e-06	1.773864e-08	1.628706e+01	1.159067e+03
2.260000e-06	2.169884e-06	1.742399e-08	1.562232e+01	1.138237e+03
2.270000e-06	2.076576e-06	1.709371e-08	1.495054e+01	1.116534e+03
2.280000e-06	1.982189e-06	1.675258e-08	1.427099e+01	1.093908e+03
2.290000e-06	1.886929e-06	1.639136e-08	1.358516e+01	1.070295e+03
2.300000e-06	1.791054e-06	1.601320e-08	1.289489e+01	1.045620e+03
2.310000e-06	1.694696e-06	1.561796e-08	1.220115e+01	1.019794e+03
2.320000e-06	1.597837e-06	1.520875e-08	1.150381e+01	9.927231e+02
2.330000e-06	1.500364e-06	1.477729e-08	1.080203e+01	9.643058e+02
2.340000e-06	1.402397e-06	1.432099e-08	1.009671e+01	9.344417e+02
2.350000e-06	1.304077e-06	1.384026e-08	9.388847e+00	9.030337e+02
2.360000e-06	1.205372e-06	1.333831e-08	8.678208e+00	8.699910e+02
2.370000e-06	1.106332e-06	1.281224e-08	7.965162e+00	8.352322e+02
2.380000e-06	1.006989e-06	1.225550e-08	7.249930e+00	7.986882e+02
2.390000e-06	9.073392e-07	1.166729e-08	6.532489e+00	7.603060e+02
2.400000e-06	8.074538e-07	1.105089e-08	5.813353e+00	7.200548e+02
2.410000e-06	7.073908e-07	1.040996e-08	5.092938e+00	6.779326e+02
2.420000e-06	6.070699e-07	9.739934e-09	4.370667e+00	6.339744e+02
2.430000e-06	5.065304e-07	9.041581e-09	3.646821e+00	5.882593e+02
2.440000e-06	4.058291e-07	8.320735e-09	2.921811e+00	5.409149e+02
2.450000e-06	3.048954e-07	7.577825e-09	2.195128e+00	4.921160e+02
2.460000e-06	2.038021e-07	6.811717e-09	1.467296e+00	4.420773e+02
2.470000e-06	1.026357e-07	6.030195e-09	7.389371e-01	3.910382e+02
2.480000e-06	1.417872e-09	5.239605e-09	1.020812e-02	3.392405e+02
2.490000e-06	-9.978198e-08	4.439709e-09	-7.183914e-01	2.869025e+02
2.500000e-06	-2.009194e-07	3.632716e-09	-1.446541e+00	2.341929e+02
2.510000e-06	-3.019978e-07	2.822857e-09	-2.174266e+00	1.812088e+02
2.520000e-06	-4.030210e-07	2.010901e-09	-2.901594e+00	1.279626e+02
2.530000e-06	-5.038618e-07	1.194912e-09	-3.627609e+00	7.438256e+01
2.540000e-06	-6.044856e-07	3.719453e-10	-4.352061e+00	2.032716e+01
2.550000e-06	-7.048741e-07	-4.636907e-10	-5.074819e+00	-3.438695e+01
2.560000e-06	-8.049915e-07	-1.315044e-09	-5.795625e+00	-8.994631e+01
2.570000e-06	-9.048721e-07	-2.182312e-09	-6.514726e+00	-1.464974e+02
2.580000e-06	-1.004463e-06	-3.063533e-09	-7.231745e+00	-2.041056e+02
2.590000e-06	-1.103714e-06	-3.957991e-09	-7.946312e+00	-2.627224e+02
2.600000e-06	-1.202638e-06	-4.865786e-09	-8.658525e+00	-3.221680e+02
2.610000e-06	-1.301183e-06	-5.781758e-09	-9.368013e+00	-3.821313e+02
2.620000e-06	-1.399228e-06	-6.700209e-09	-1.007390e+01	-4.421880e+02
2.630000e-06	-1.496720e-06	-7.614882e-09	-1.077580e+01	-5.018351e+02
2.640000e-06	-1.593669e-06	-8.514282e-09	-1.147380e+01	-5.605349e+02
2.650000e-06	-1.690102e-06	-9.390740e-09	-1.216808e+01	-6.177636e+02
2.660000e-06	-1.786064e-06	-1.023867e-08	-1.285896e+01	-6.730559e+02
2.670000e-06	-1.881542e-06	-1.105022e-08	-1.354637e+01	-7.260395e+02
2.680000e-06	-1.976320e-06	-1.182172e-08	-1.422874e+01	-7.764562e+02
2.690000e-06	-2.070207e-06	-1.255154e-08	-1.490468e+01	-8.241670e+02
2.700000e-06	-2.163087e-06	-1.324182e-08	-1.557338e+01	-8.691426e+02
2.710000e-06	-2.255051e-06	-1.389177e-08	-1.623549e+01	-9.114437e+02
2.720000e-06	-2.346286e-06	-1.450376e-08	-1.689235e+01	-9.511936e+02
2.730000e-06	-2.436791e-06	-1.507983e-08	-1.754395e+01	-9.885516e+02
2.740000e-06	-2.526429e-06	-1.562123e-08	-1.818930e+01	-1.023688e+03
2.750000e-06	-2.615076e-06	-1.612832e-08	-1.882753e+01	-1.056768e+03
2.760000e-06	-2.702913e-06	-1.660350e-08	-1.945992e+01	-1.087942e+03
2.770000e-06	-2.789965e-06	-1.705189e-08	-2.008666e+01	-1.117340e+03
2.780000e-06	-2.875933e-06	-1.747477e-08	-2.070560e+01	-1.145080e+03
2.790000e-06	-2.960693e-06	-1.787531e-08	-2.131584e+01	-1.171269e+03
2.800000e-06	-3.044353e-06	-1.825544e-08	-2.191816e+01	-1.196009e+03
2.810000e-06	-3.127003e-06	-1.861590e-08	-2.251320e+01	-1.219401e+03
2.820000e-06	-3.208637e-06	-1.895656e-08	-2.310094e+01	-1.241546e+03
2.830000e-06	-3.289275e-06	-1.927803e-08	-2.368150e+01	-1.262539e+03
2.840000e-06	-3.368880e-06	-1.958317e-08	-2.425462e+01	-1.282469e+03
2.850000e-06	-3.447180e-06	-1.987396e-08	-2.481835e+01	-1.301412e+03
2.860000e-06	-3.523926e-06	-2.014984e-08	-2.537090e+01	-1.319432e+03
2.870000e-06	-3.599245e-06	-2.041127e-08	-2.591317e+01	-1.336576e+03
2.880000e-06	-3.673193e-06	-2.065969e-08	-2.644556e+01	-1.352884e+03
2.890000e-06	-3.745765e-06	-2.089785e-08	-2.696805e+01	-1.368387e+03
2.900000e-06	-3.817130e-06	-2.112697e-08	-2.748185e+01	-1.383116e+03
2.910000e-06	-3.887068e-06	-2.134540e-08	-2.798538e+01	-1.397106e+03
2.920000e-06	-3.955416e-06	-2.155114e-08	-2.847746e+01	-1.410399e+03
2.930000e-06	-4.022377e-06	-2.174517e-08	-2.895955e+01	-1.423042e+03
2.940000e-06	-4.087937e-06	-2.192848e-08	-2.943155e+01	-1.435083e+03
