# Temperatura_=_29.61
# Concentracion g/m^3_=_28200.0
# C_Vs_to_Am_M_A/Vsm_=_65563218390.804596
# pendiente_HvsI_1/m_=_3716.3
# ordenada_HvsI_A/m_=_1297.0
# frecuencia_Hz_=_301749.2794637502

Tiempo_(s)	Campo_(V.s)	Magnetizacion_(V.s)	Campo_(kA/m)	Magnetizacion_(A/m)
0.000000e+00	-5.312488e-06	-1.761604e-08	-3.829584e+01	-1.152342e+03
1.000000e-08	-5.310071e-06	-1.761200e-08	-3.827842e+01	-1.152041e+03
2.000000e-08	-5.305843e-06	-1.760388e-08	-3.824794e+01	-1.151617e+03
3.000000e-08	-5.300004e-06	-1.759610e-08	-3.820585e+01	-1.151064e+03
4.000000e-08	-5.292580e-06	-1.758611e-08	-3.815233e+01	-1.150371e+03
5.000000e-08	-5.283439e-06	-1.756925e-08	-3.808644e+01	-1.149527e+03
6.000000e-08	-5.272280e-06	-1.754610e-08	-3.800599e+01	-1.148521e+03
7.000000e-08	-5.259229e-06	-1.751125e-08	-3.791191e+01	-1.147350e+03
8.000000e-08	-5.244175e-06	-1.750126e-08	-3.780340e+01	-1.146015e+03
9.000000e-08	-5.226829e-06	-1.754384e-08	-3.767835e+01	-1.144528e+03
1.000000e-07	-5.207433e-06	-1.751898e-08	-3.753853e+01	-1.142908e+03
1.100000e-07	-5.186217e-06	-1.745452e-08	-3.738559e+01	-1.141176e+03
1.200000e-07	-5.163223e-06	-1.741812e-08	-3.721984e+01	-1.139355e+03
1.300000e-07	-5.138716e-06	-1.730290e-08	-3.704317e+01	-1.137463e+03
1.400000e-07	-5.112686e-06	-1.730704e-08	-3.685554e+01	-1.135506e+03
1.500000e-07	-5.084954e-06	-1.739804e-08	-3.665563e+01	-1.133484e+03
1.600000e-07	-5.055691e-06	-1.723665e-08	-3.644468e+01	-1.131383e+03
1.700000e-07	-5.025044e-06	-1.723987e-08	-3.622376e+01	-1.129180e+03
1.800000e-07	-4.992532e-06	-1.728799e-08	-3.598939e+01	-1.126847e+03
1.900000e-07	-4.957884e-06	-1.708746e-08	-3.573962e+01	-1.124357e+03
2.000000e-07	-4.921678e-06	-1.710280e-08	-3.547863e+01	-1.121684e+03
2.100000e-07	-4.883912e-06	-1.710557e-08	-3.520639e+01	-1.118808e+03
2.200000e-07	-4.844374e-06	-1.696902e-08	-3.492137e+01	-1.115721e+03
2.300000e-07	-4.802998e-06	-1.696453e-08	-3.462311e+01	-1.112418e+03
2.400000e-07	-4.759650e-06	-1.689674e-08	-3.431063e+01	-1.108902e+03
2.500000e-07	-4.714538e-06	-1.682220e-08	-3.398543e+01	-1.105181e+03
2.600000e-07	-4.667681e-06	-1.681431e-08	-3.364765e+01	-1.101259e+03
2.700000e-07	-4.618892e-06	-1.670294e-08	-3.329595e+01	-1.097141e+03
2.800000e-07	-4.568001e-06	-1.662955e-08	-3.292910e+01	-1.092826e+03
2.900000e-07	-4.515093e-06	-1.658267e-08	-3.254770e+01	-1.088309e+03
3.000000e-07	-4.460505e-06	-1.650751e-08	-3.215420e+01	-1.083582e+03
3.100000e-07	-4.404344e-06	-1.643489e-08	-3.174935e+01	-1.078637e+03
3.200000e-07	-4.346397e-06	-1.635887e-08	-3.133163e+01	-1.073465e+03
3.300000e-07	-4.286739e-06	-1.627348e-08	-3.090158e+01	-1.068059e+03
3.400000e-07	-4.225675e-06	-1.616327e-08	-3.046139e+01	-1.062415e+03
3.500000e-07	-4.163194e-06	-1.608442e-08	-3.001099e+01	-1.056533e+03
3.600000e-07	-4.099316e-06	-1.599421e-08	-2.955051e+01	-1.050413e+03
3.700000e-07	-4.033987e-06	-1.590108e-08	-2.907958e+01	-1.044054e+03
3.800000e-07	-3.967014e-06	-1.581913e-08	-2.859679e+01	-1.037456e+03
3.900000e-07	-3.898522e-06	-1.568699e-08	-2.810306e+01	-1.030613e+03
4.000000e-07	-3.828744e-06	-1.557062e-08	-2.760005e+01	-1.023517e+03
4.100000e-07	-3.757792e-06	-1.547303e-08	-2.708859e+01	-1.016159e+03
4.200000e-07	-3.685663e-06	-1.535694e-08	-2.656863e+01	-1.008525e+03
4.300000e-07	-3.612092e-06	-1.523371e-08	-2.603828e+01	-1.000603e+03
4.400000e-07	-3.536902e-06	-1.510535e-08	-2.549627e+01	-9.923805e+02
4.500000e-07	-3.460265e-06	-1.497362e-08	-2.494382e+01	-9.838454e+02
4.600000e-07	-3.382303e-06	-1.483331e-08	-2.438182e+01	-9.749878e+02
4.700000e-07	-3.302958e-06	-1.470014e-08	-2.380985e+01	-9.657974e+02
4.800000e-07	-3.222285e-06	-1.456295e-08	-2.322831e+01	-9.562628e+02
4.900000e-07	-3.140420e-06	-1.440518e-08	-2.263817e+01	-9.463706e+02
5.000000e-07	-3.057480e-06	-1.424188e-08	-2.204029e+01	-9.361037e+02
5.100000e-07	-2.973637e-06	-1.407533e-08	-2.143589e+01	-9.254412e+02
5.200000e-07	-2.888960e-06	-1.390590e-08	-2.082549e+01	-9.143588e+02
5.300000e-07	-2.803339e-06	-1.372906e-08	-2.020828e+01	-9.028297e+02
5.400000e-07	-2.716752e-06	-1.354714e-08	-1.958410e+01	-8.908258e+02
5.500000e-07	-2.629309e-06	-1.336077e-08	-1.895375e+01	-8.783190e+02
5.600000e-07	-2.540956e-06	-1.315824e-08	-1.831685e+01	-8.652825e+02
5.700000e-07	-2.451534e-06	-1.294902e-08	-1.767224e+01	-8.516908e+02
5.800000e-07	-2.360953e-06	-1.273349e-08	-1.701927e+01	-8.375194e+02
5.900000e-07	-2.269376e-06	-1.250703e-08	-1.635913e+01	-8.227436e+02
6.000000e-07	-2.177077e-06	-1.226657e-08	-1.569378e+01	-8.073376e+02
6.100000e-07	-2.084053e-06	-1.201843e-08	-1.502320e+01	-7.912723e+02
6.200000e-07	-1.990237e-06	-1.176395e-08	-1.434691e+01	-7.745148e+02
6.300000e-07	-1.895686e-06	-1.149661e-08	-1.366533e+01	-7.570271e+02
6.400000e-07	-1.800564e-06	-1.121920e-08	-1.297963e+01	-7.387668e+02
6.500000e-07	-1.704917e-06	-1.092755e-08	-1.229014e+01	-7.196869e+02
6.600000e-07	-1.608710e-06	-1.062186e-08	-1.159662e+01	-6.997375e+02
6.700000e-07	-1.511928e-06	-1.030244e-08	-1.089895e+01	-6.788668e+02
6.800000e-07	-1.414470e-06	-9.969061e-09	-1.019641e+01	-6.570226e+02
6.900000e-07	-1.316304e-06	-9.619705e-09	-9.488765e+00	-6.341542e+02
7.000000e-07	-1.217524e-06	-9.251578e-09	-8.776696e+00	-6.102138e+02
7.100000e-07	-1.118261e-06	-8.864695e-09	-8.061144e+00	-5.851595e+02
7.200000e-07	-1.018666e-06	-8.462615e-09	-7.343200e+00	-5.589579e+02
7.300000e-07	-9.187675e-07	-8.047803e-09	-6.623068e+00	-5.315883e+02
7.400000e-07	-8.186237e-07	-7.616497e-09	-5.901167e+00	-5.030470e+02
7.500000e-07	-7.183026e-07	-7.167241e-09	-5.177988e+00	-4.733523e+02
7.600000e-07	-6.177892e-07	-6.695039e-09	-4.453423e+00	-4.425488e+02
7.700000e-07	-5.171544e-07	-6.204393e-09	-3.727982e+00	-4.107099e+02
7.800000e-07	-4.163852e-07	-5.703639e-09	-3.001573e+00	-3.779386e+02
7.900000e-07	-3.154825e-07	-5.193271e-09	-2.274201e+00	-3.443644e+02
8.000000e-07	-2.144802e-07	-4.673349e-09	-1.546112e+00	-3.101371e+02
8.100000e-07	-1.133546e-07	-4.147492e-09	-8.171329e-01	-2.754160e+02
8.200000e-07	-1.211038e-08	-3.618086e-09	-8.729944e-02	-2.403573e+02
8.300000e-07	8.919468e-08	-3.082153e-09	6.429727e-01	-2.050994e+02
8.400000e-07	1.904642e-07	-2.544757e-09	1.372988e+00	-1.697487e+02
8.500000e-07	2.916898e-07	-2.008227e-09	2.102688e+00	-1.343683e+02
8.600000e-07	3.928314e-07	-1.472625e-09	2.831782e+00	-9.897100e+01
8.700000e-07	4.938381e-07	-9.360675e-10	3.559903e+00	-6.351791e+01
8.800000e-07	5.947316e-07	-3.955759e-10	4.287209e+00	-2.792494e+01
8.900000e-07	6.954428e-07	1.498453e-10	5.013200e+00	7.924853e+00
9.000000e-07	7.959457e-07	7.020620e-10	5.737689e+00	4.416310e+01
9.100000e-07	8.962826e-07	1.261283e-09	6.460983e+00	8.091464e+01
9.200000e-07	9.963892e-07	1.828938e-09	7.182616e+00	1.182754e+02
9.300000e-07	1.096155e-06	2.406063e-09	7.901788e+00	1.562924e+02
9.400000e-07	1.195532e-06	2.995026e-09	8.618162e+00	1.949490e+02
9.500000e-07	1.294421e-06	3.591034e-09	9.331020e+00	2.341572e+02
9.600000e-07	1.392740e-06	4.190921e-09	1.003977e+01	2.737579e+02
9.700000e-07	1.490396e-06	4.793937e-09	1.074374e+01	3.135300e+02
9.800000e-07	1.587327e-06	5.395226e-09	1.144248e+01	3.532059e+02
9.900000e-07	1.683577e-06	5.989601e-09	1.213631e+01	3.924924e+02
1.000000e-06	1.779173e-06	6.573988e-09	1.282543e+01	4.310937e+02
1.010000e-06	1.874181e-06	7.146845e-09	1.351030e+01	4.687339e+02
1.020000e-06	1.968550e-06	7.701237e-09	1.419058e+01	5.051755e+02
1.030000e-06	2.062192e-06	8.232859e-09	1.486561e+01	5.402332e+02
1.040000e-06	2.155114e-06	8.740636e-09	1.553545e+01	5.737802e+02
1.050000e-06	2.247393e-06	9.223670e-09	1.620066e+01	6.057485e+02
1.060000e-06	2.339007e-06	9.681484e-09	1.686107e+01	6.361231e+02
1.070000e-06	2.429714e-06	1.011790e-08	1.751494e+01	6.649315e+02
1.080000e-06	2.519346e-06	1.053389e-08	1.816107e+01	6.922316e+02
1.090000e-06	2.607962e-06	1.092801e-08	1.879987e+01	7.180992e+02
1.100000e-06	2.695663e-06	1.130174e-08	1.943207e+01	7.426165e+02
1.110000e-06	2.782479e-06	1.165629e-08	2.005790e+01	7.658643e+02
1.120000e-06	2.868404e-06	1.199261e-08	2.067731e+01	7.879168e+02
1.130000e-06	2.953413e-06	1.231046e-08	2.129011e+01	8.088400e+02
1.140000e-06	3.037559e-06	1.261162e-08	2.189669e+01	8.286923e+02
1.150000e-06	3.120754e-06	1.289692e-08	2.249641e+01	8.475264e+02
1.160000e-06	3.202825e-06	1.316797e-08	2.308803e+01	8.653925e+02
1.170000e-06	3.283738e-06	1.342291e-08	2.367130e+01	8.823401e+02
1.180000e-06	3.363442e-06	1.366592e-08	2.424585e+01	8.984193e+02
1.190000e-06	3.441898e-06	1.389893e-08	2.481142e+01	9.136805e+02
1.200000e-06	3.519122e-06	1.411964e-08	2.536810e+01	9.281742e+02
1.210000e-06	3.595148e-06	1.432887e-08	2.591614e+01	9.419486e+02
1.220000e-06	3.669760e-06	1.452628e-08	2.645399e+01	9.550482e+02
1.230000e-06	3.742713e-06	1.471394e-08	2.697989e+01	9.675128e+02
1.240000e-06	3.814230e-06	1.489157e-08	2.749543e+01	9.793762e+02
1.250000e-06	3.884423e-06	1.506139e-08	2.800143e+01	9.906666e+02
1.260000e-06	3.953288e-06	1.522515e-08	2.849784e+01	1.001407e+03
1.270000e-06	4.020863e-06	1.538184e-08	2.898497e+01	1.011617e+03
1.280000e-06	4.086863e-06	1.553101e-08	2.946074e+01	1.021314e+03
1.290000e-06	4.151152e-06	1.567257e-08	2.992418e+01	1.030512e+03
1.300000e-06	4.213969e-06	1.580587e-08	3.037701e+01	1.039225e+03
1.310000e-06	4.275460e-06	1.593084e-08	3.082027e+01	1.047470e+03
1.320000e-06	4.335660e-06	1.604891e-08	3.125423e+01	1.055263e+03
1.330000e-06	4.394365e-06	1.616262e-08	3.167742e+01	1.062621e+03
1.340000e-06	4.451267e-06	1.626948e-08	3.208760e+01	1.069564e+03
1.350000e-06	4.506467e-06	1.636694e-08	3.248552e+01	1.076115e+03
1.360000e-06	4.560081e-06	1.645884e-08	3.287201e+01	1.082299e+03
1.370000e-06	4.611888e-06	1.654667e-08	3.324546e+01	1.088144e+03
1.380000e-06	4.661702e-06	1.662996e-08	3.360455e+01	1.093677e+03
1.390000e-06	4.709614e-06	1.670827e-08	3.394993e+01	1.098926e+03
1.400000e-06	4.755852e-06	1.678392e-08	3.428325e+01	1.103918e+03
1.410000e-06	4.800579e-06	1.685777e-08	3.460567e+01	1.108671e+03
1.420000e-06	4.843659e-06	1.692706e-08	3.491621e+01	1.113202e+03
1.430000e-06	4.884857e-06	1.699289e-08	3.521320e+01	1.117515e+03
1.440000e-06	4.924313e-06	1.705426e-08	3.549762e+01	1.121611e+03
1.450000e-06	4.962160e-06	1.711047e-08	3.577044e+01	1.125482e+03
1.460000e-06	4.998409e-06	1.716321e-08	3.603175e+01	1.129118e+03
1.470000e-06	5.032908e-06	1.721307e-08	3.628045e+01	1.132506e+03
1.480000e-06	5.065464e-06	1.726018e-08	3.651513e+01	1.135639e+03
1.490000e-06	5.096260e-06	1.730294e-08	3.673712e+01	1.138512e+03
1.500000e-06	5.125449e-06	1.734083e-08	3.694754e+01	1.141129e+03
1.510000e-06	5.152885e-06	1.737614e-08	3.714531e+01	1.143498e+03
1.520000e-06	5.178321e-06	1.740936e-08	3.732867e+01	1.145634e+03
1.530000e-06	5.201783e-06	1.743931e-08	3.749780e+01	1.147556e+03
1.540000e-06	5.223449e-06	1.746602e-08	3.765399e+01	1.149281e+03
1.550000e-06	5.243436e-06	1.748989e-08	3.779807e+01	1.150824e+03
1.560000e-06	5.261566e-06	1.751040e-08	3.792876e+01	1.152194e+03
1.570000e-06	5.277640e-06	1.752610e-08	3.804463e+01	1.153396e+03
1.580000e-06	5.291764e-06	1.753860e-08	3.814644e+01	1.154430e+03
1.590000e-06	5.303919e-06	1.754982e-08	3.823406e+01	1.155295e+03
1.600000e-06	5.313942e-06	1.756005e-08	3.830632e+01	1.155987e+03
1.610000e-06	5.321907e-06	1.757020e-08	3.836374e+01	1.156509e+03
1.620000e-06	5.328006e-06	1.757882e-08	3.840770e+01	1.156863e+03
1.630000e-06	5.332377e-06	1.758414e-08	3.843921e+01	1.157059e+03
1.640000e-06	5.334846e-06	1.758875e-08	3.845701e+01	1.157106e+03
1.650000e-06	5.335261e-06	1.759248e-08	3.846000e+01	1.157017e+03
1.660000e-06	5.333885e-06	1.758801e-08	3.845008e+01	1.156800e+03
1.670000e-06	5.330905e-06	1.758019e-08	3.842860e+01	1.156459e+03
1.680000e-06	5.326283e-06	1.757385e-08	3.839528e+01	1.155993e+03
1.690000e-06	5.319729e-06	1.756622e-08	3.834804e+01	1.155396e+03
1.700000e-06	5.311317e-06	1.755596e-08	3.828739e+01	1.154654e+03
1.710000e-06	5.301356e-06	1.754655e-08	3.821559e+01	1.153758e+03
1.720000e-06	5.289768e-06	1.754957e-08	3.813206e+01	1.152699e+03
1.730000e-06	5.276230e-06	1.753982e-08	3.803447e+01	1.151473e+03
1.740000e-06	5.260662e-06	1.744351e-08	3.792224e+01	1.150087e+03
1.750000e-06	5.242952e-06	1.741270e-08	3.779458e+01	1.148554e+03
1.760000e-06	5.222661e-06	1.742546e-08	3.764830e+01	1.146895e+03
1.770000e-06	5.199901e-06	1.742135e-08	3.748423e+01	1.145131e+03
1.780000e-06	5.175589e-06	1.750172e-08	3.730898e+01	1.143285e+03
1.790000e-06	5.150576e-06	1.735857e-08	3.712867e+01	1.141371e+03
1.800000e-06	5.124424e-06	1.724973e-08	3.694015e+01	1.139393e+03
1.810000e-06	5.096115e-06	1.737357e-08	3.673608e+01	1.137347e+03
1.820000e-06	5.065858e-06	1.721453e-08	3.651797e+01	1.135214e+03
1.830000e-06	5.034048e-06	1.719493e-08	3.628866e+01	1.132972e+03
1.840000e-06	5.000358e-06	1.734820e-08	3.604581e+01	1.130591e+03
1.850000e-06	4.965052e-06	1.715366e-08	3.579129e+01	1.128044e+03
1.860000e-06	4.928060e-06	1.714626e-08	3.552463e+01	1.125306e+03
1.870000e-06	4.889075e-06	1.718103e-08	3.524360e+01	1.122363e+03
1.880000e-06	4.848491e-06	1.702618e-08	3.495105e+01	1.119205e+03
1.890000e-06	4.806194e-06	1.707446e-08	3.464614e+01	1.115832e+03
1.900000e-06	4.762203e-06	1.694922e-08	3.432903e+01	1.112249e+03
1.910000e-06	4.716486e-06	1.687171e-08	3.399947e+01	1.108462e+03
1.920000e-06	4.668748e-06	1.695261e-08	3.365534e+01	1.104476e+03
1.930000e-06	4.619405e-06	1.678516e-08	3.329965e+01	1.100294e+03
1.940000e-06	4.568347e-06	1.674240e-08	3.293159e+01	1.095914e+03
1.950000e-06	4.515081e-06	1.668114e-08	3.254761e+01	1.091330e+03
1.960000e-06	4.459893e-06	1.657981e-08	3.214978e+01	1.086533e+03
1.970000e-06	4.403085e-06	1.654295e-08	3.174028e+01	1.081515e+03
1.980000e-06	4.344801e-06	1.639488e-08	3.132012e+01	1.076267e+03
1.990000e-06	4.285180e-06	1.637670e-08	3.089034e+01	1.070784e+03
2.000000e-06	4.223998e-06	1.629593e-08	3.044930e+01	1.065063e+03
2.010000e-06	4.161080e-06	1.616870e-08	2.999575e+01	1.059103e+03
2.020000e-06	4.096548e-06	1.608937e-08	2.953056e+01	1.052906e+03
2.030000e-06	4.030639e-06	1.596065e-08	2.905545e+01	1.046470e+03
2.040000e-06	3.963433e-06	1.592317e-08	2.857098e+01	1.039792e+03
2.050000e-06	3.894771e-06	1.579315e-08	2.807602e+01	1.032868e+03
2.060000e-06	3.824527e-06	1.567029e-08	2.756965e+01	1.025689e+03
2.070000e-06	3.752898e-06	1.558397e-08	2.705331e+01	1.018242e+03
2.080000e-06	3.680079e-06	1.543541e-08	2.652838e+01	1.010517e+03
2.090000e-06	3.605895e-06	1.532576e-08	2.599362e+01	1.002498e+03
2.100000e-06	3.530356e-06	1.518861e-08	2.544908e+01	9.941756e+02
2.110000e-06	3.453360e-06	1.507917e-08	2.489404e+01	9.855371e+02
2.120000e-06	3.374847e-06	1.494026e-08	2.432808e+01	9.765728e+02
2.130000e-06	3.295112e-06	1.478403e-08	2.375329e+01	9.672722e+02
2.140000e-06	3.214298e-06	1.465010e-08	2.317073e+01	9.576235e+02
2.150000e-06	3.132379e-06	1.449366e-08	2.258021e+01	9.476121e+02
2.160000e-06	3.049409e-06	1.434701e-08	2.198211e+01	9.372196e+02
2.170000e-06	2.965513e-06	1.417730e-08	2.137733e+01	9.264241e+02
2.180000e-06	2.880451e-06	1.400918e-08	2.076415e+01	9.152003e+02
2.190000e-06	2.794022e-06	1.382726e-08	2.014111e+01	9.035208e+02
2.200000e-06	2.706492e-06	1.363706e-08	1.951014e+01	8.913574e+02
2.210000e-06	2.618106e-06	1.345225e-08	1.887300e+01	8.786825e+02
2.220000e-06	2.528821e-06	1.325192e-08	1.822937e+01	8.654694e+02
2.230000e-06	2.438649e-06	1.304425e-08	1.757935e+01	8.516931e+02
2.240000e-06	2.347729e-06	1.282407e-08	1.692394e+01	8.373293e+02
2.250000e-06	2.256120e-06	1.260351e-08	1.626356e+01	8.223530e+02
2.260000e-06	2.163850e-06	1.236506e-08	1.559843e+01	8.067376e+02
2.270000e-06	2.070709e-06	1.211405e-08	1.492700e+01	7.904528e+02
2.280000e-06	1.976476e-06	1.185620e-08	1.424771e+01	7.734641e+02
2.290000e-06	1.881333e-06	1.158530e-08	1.356186e+01	7.557322e+02
2.300000e-06	1.785587e-06	1.130421e-08	1.287166e+01	7.372128e+02
2.310000e-06	1.689374e-06	1.100965e-08	1.217809e+01	7.178582e+02
2.320000e-06	1.592685e-06	1.070388e-08	1.148110e+01	6.976175e+02
2.330000e-06	1.495436e-06	1.038153e-08	1.078006e+01	6.764387e+02
2.340000e-06	1.397611e-06	1.004375e-08	1.007488e+01	6.542699e+02
2.350000e-06	1.299343e-06	9.691223e-09	9.366504e+00	6.310611e+02
2.360000e-06	1.200720e-06	9.325082e-09	8.655563e+00	6.067661e+02
2.370000e-06	1.101779e-06	8.942027e-09	7.942334e+00	5.813452e+02
2.380000e-06	1.002525e-06	8.537928e-09	7.226845e+00	5.547689e+02
2.390000e-06	9.029851e-07	8.112786e-09	6.509299e+00	5.270213e+02
2.400000e-06	8.032009e-07	7.667611e-09	5.789990e+00	4.981052e+02
2.410000e-06	7.032182e-07	7.207991e-09	5.069250e+00	4.680471e+02
2.420000e-06	6.030593e-07	6.733593e-09	4.347240e+00	4.369004e+02
2.430000e-06	5.027051e-07	6.245382e-09	3.623822e+00	4.047484e+02
2.440000e-06	4.021647e-07	5.745579e-09	2.899062e+00	3.717029e+02
2.450000e-06	3.014509e-07	5.232394e-09	2.173052e+00	3.379010e+02
2.460000e-06	2.006264e-07	4.703178e-09	1.446244e+00	3.034966e+02
2.470000e-06	9.972649e-08	4.164274e-09	7.188928e-01	2.686497e+02
2.480000e-06	-1.256221e-09	3.624714e-09	-9.055654e-03	2.335122e+02
2.490000e-06	-1.022737e-07	3.083045e-09	-7.372545e-01	1.982139e+02
2.500000e-06	-2.032379e-07	2.539625e-09	-1.465070e+00	1.628483e+02
2.510000e-06	-3.040742e-07	1.996778e-09	-2.191963e+00	1.274628e+02
2.520000e-06	-4.048114e-07	1.455910e-09	-2.918141e+00	9.205327e+01
2.530000e-06	-5.054766e-07	9.140409e-10	-3.643801e+00	5.656545e+01
2.540000e-06	-6.060269e-07	3.676404e-10	-4.368633e+00	2.090295e+01
2.550000e-06	-7.064091e-07	-1.836954e-10	-5.092252e+00	-1.505807e+01
2.560000e-06	-8.064966e-07	-7.417985e-10	-5.813747e+00	-5.144948e+01
2.570000e-06	-9.062457e-07	-1.308795e-09	-6.532803e+00	-8.838920e+01
2.580000e-06	-1.005673e-06	-1.883991e-09	-7.249536e+00	-1.259594e+02
2.590000e-06	-1.104760e-06	-2.467724e-09	-7.963822e+00	-1.641880e+02
2.600000e-06	-1.203503e-06	-3.062276e-09	-8.675622e+00	-2.030358e+02
2.610000e-06	-1.301873e-06	-3.664396e-09	-9.384740e+00	-2.423916e+02
2.620000e-06	-1.399809e-06	-4.270792e-09	-1.009072e+01	-2.820750e+02
2.630000e-06	-1.497197e-06	-4.879988e-09	-1.079276e+01	-3.218479e+02
2.640000e-06	-1.594026e-06	-5.488037e-09	-1.149076e+01	-3.614320e+02
2.650000e-06	-1.690334e-06	-6.089335e-09	-1.218502e+01	-4.005308e+02
2.660000e-06	-1.786191e-06	-6.678066e-09	-1.287601e+01	-4.388527e+02
2.670000e-06	-1.881546e-06	-7.250303e-09	-1.356340e+01	-4.761320e+02
2.680000e-06	-1.976131e-06	-7.804380e-09	-1.424523e+01	-5.121471e+02
2.690000e-06	-2.069766e-06	-8.335627e-09	-1.492020e+01	-5.467310e+02
2.700000e-06	-2.162441e-06	-8.840501e-09	-1.558827e+01	-5.797761e+02
2.710000e-06	-2.254275e-06	-9.320948e-09	-1.625027e+01	-6.112324e+02
2.720000e-06	-2.345366e-06	-9.778020e-09	-1.690691e+01	-6.410996e+02
2.730000e-06	-2.435657e-06	-1.021056e-08	-1.755779e+01	-6.694167e+02
2.740000e-06	-2.525028e-06	-1.062038e-08	-1.820203e+01	-6.962484e+02
2.750000e-06	-2.613538e-06	-1.101188e-08	-1.884007e+01	-7.216738e+02
2.760000e-06	-2.701318e-06	-1.138466e-08	-1.947284e+01	-7.457753e+02
2.770000e-06	-2.788264e-06	-1.173539e-08	-2.009960e+01	-7.686321e+02
2.780000e-06	-2.874111e-06	-1.206665e-08	-2.071844e+01	-7.903156e+02
2.790000e-06	-2.958776e-06	-1.237965e-08	-2.132877e+01	-8.108894e+02
2.800000e-06	-3.042391e-06	-1.267568e-08	-2.193151e+01	-8.304097e+02
2.810000e-06	-3.125032e-06	-1.295728e-08	-2.252725e+01	-8.489281e+02
2.820000e-06	-3.206629e-06	-1.322512e-08	-2.311545e+01	-8.664944e+02
2.830000e-06	-3.287152e-06	-1.348005e-08	-2.369591e+01	-8.831582e+02
2.840000e-06	-3.366619e-06	-1.372411e-08	-2.426876e+01	-8.989697e+02
2.850000e-06	-3.444749e-06	-1.395746e-08	-2.483197e+01	-9.139797e+02
2.860000e-06	-3.521331e-06	-1.417957e-08	-2.538402e+01	-9.282379e+02
2.870000e-06	-3.596482e-06	-1.439010e-08	-2.592576e+01	-9.417916e+02
2.880000e-06	-3.670262e-06	-1.458921e-08	-2.645762e+01	-9.546839e+02
2.890000e-06	-3.742720e-06	-1.477809e-08	-2.697993e+01	-9.669526e+02
2.900000e-06	-3.813936e-06	-1.495682e-08	-2.749331e+01	-9.786299e+02
2.910000e-06	-3.883685e-06	-1.512450e-08	-2.799611e+01	-9.897421e+02
2.920000e-06	-3.951858e-06	-1.528236e-08	-2.848754e+01	-1.000311e+03
2.930000e-06	-4.018634e-06	-1.543360e-08	-2.896891e+01	-1.010355e+03
2.940000e-06	-4.084096e-06	-1.557945e-08	-2.944080e+01	-1.019891e+03
