# Temperatura_=_90.64
# Concentracion g/m^3_=_28200.0
# C_Vs_to_Am_M_A/Vsm_=_65563218390.804596
# pendiente_HvsI_1/m_=_3716.3
# ordenada_HvsI_A/m_=_1297.0
# frecuencia_Hz_=_301741.3561248097

Tiempo_(s)	Campo_(V.s)	Magnetizacion_(V.s)	Campo_(kA/m)	Magnetizacion_(A/m)
0.000000e+00	-5.292810e-06	-2.785423e-08	-3.830224e+01	-1.821468e+03
1.000000e-08	-5.290327e-06	-2.784401e-08	-3.828427e+01	-1.820974e+03
2.000000e-08	-5.286023e-06	-2.783052e-08	-3.825313e+01	-1.820284e+03
3.000000e-08	-5.280079e-06	-2.781608e-08	-3.821011e+01	-1.819370e+03
4.000000e-08	-5.272561e-06	-2.779752e-08	-3.815571e+01	-1.818202e+03
5.000000e-08	-5.263334e-06	-2.777265e-08	-3.808893e+01	-1.816755e+03
6.000000e-08	-5.252130e-06	-2.774132e-08	-3.800785e+01	-1.815015e+03
7.000000e-08	-5.239063e-06	-2.769817e-08	-3.791329e+01	-1.812988e+03
8.000000e-08	-5.224002e-06	-2.767645e-08	-3.780430e+01	-1.810698e+03
9.000000e-08	-5.206683e-06	-2.768861e-08	-3.767897e+01	-1.808186e+03
1.000000e-07	-5.187269e-06	-2.764508e-08	-3.753847e+01	-1.805508e+03
1.100000e-07	-5.165936e-06	-2.757237e-08	-3.738410e+01	-1.802717e+03
1.200000e-07	-5.142849e-06	-2.750651e-08	-3.721703e+01	-1.799861e+03
1.300000e-07	-5.118364e-06	-2.738922e-08	-3.703984e+01	-1.796966e+03
1.400000e-07	-5.092353e-06	-2.739520e-08	-3.685160e+01	-1.794036e+03
1.500000e-07	-5.064647e-06	-2.742209e-08	-3.665110e+01	-1.791047e+03
1.600000e-07	-5.035466e-06	-2.726128e-08	-3.643993e+01	-1.787955e+03
1.700000e-07	-5.004876e-06	-2.726630e-08	-3.621856e+01	-1.784698e+03
1.800000e-07	-4.972379e-06	-2.725133e-08	-3.598339e+01	-1.781211e+03
1.900000e-07	-4.937775e-06	-2.705299e-08	-3.573297e+01	-1.777433e+03
2.000000e-07	-4.901663e-06	-2.704610e-08	-3.547164e+01	-1.773318e+03
2.100000e-07	-4.863930e-06	-2.698682e-08	-3.519858e+01	-1.768836e+03
2.200000e-07	-4.824399e-06	-2.682247e-08	-3.491251e+01	-1.763977e+03
2.300000e-07	-4.783099e-06	-2.678664e-08	-3.461364e+01	-1.758750e+03
2.400000e-07	-4.739849e-06	-2.670052e-08	-3.430065e+01	-1.753170e+03
2.500000e-07	-4.694749e-06	-2.661614e-08	-3.397428e+01	-1.747256e+03
2.600000e-07	-4.647897e-06	-2.656231e-08	-3.363523e+01	-1.741024e+03
2.700000e-07	-4.599180e-06	-2.640231e-08	-3.328268e+01	-1.734480e+03
2.800000e-07	-4.548351e-06	-2.626621e-08	-3.291485e+01	-1.727623e+03
2.900000e-07	-4.495559e-06	-2.617833e-08	-3.253281e+01	-1.720441e+03
3.000000e-07	-4.441137e-06	-2.608945e-08	-3.213897e+01	-1.712922e+03
3.100000e-07	-4.385150e-06	-2.597114e-08	-3.173381e+01	-1.705049e+03
3.200000e-07	-4.327377e-06	-2.583399e-08	-3.131573e+01	-1.696815e+03
3.300000e-07	-4.267877e-06	-2.570172e-08	-3.088515e+01	-1.688218e+03
3.400000e-07	-4.206951e-06	-2.554057e-08	-3.044425e+01	-1.679261e+03
3.500000e-07	-4.144651e-06	-2.539702e-08	-2.999341e+01	-1.669955e+03
3.600000e-07	-4.081067e-06	-2.526794e-08	-2.953327e+01	-1.660309e+03
3.700000e-07	-4.016031e-06	-2.513273e-08	-2.906263e+01	-1.650329e+03
3.800000e-07	-3.949300e-06	-2.497310e-08	-2.857972e+01	-1.640013e+03
3.900000e-07	-3.881040e-06	-2.477025e-08	-2.808575e+01	-1.629351e+03
4.000000e-07	-3.811488e-06	-2.459837e-08	-2.758242e+01	-1.618321e+03
4.100000e-07	-3.740744e-06	-2.444447e-08	-2.707048e+01	-1.606899e+03
4.200000e-07	-3.668879e-06	-2.427100e-08	-2.655041e+01	-1.595055e+03
4.300000e-07	-3.595638e-06	-2.408535e-08	-2.602039e+01	-1.582761e+03
4.400000e-07	-3.520750e-06	-2.388449e-08	-2.547845e+01	-1.569995e+03
4.500000e-07	-3.444383e-06	-2.367520e-08	-2.492581e+01	-1.556741e+03
4.600000e-07	-3.366800e-06	-2.346262e-08	-2.436437e+01	-1.542990e+03
4.700000e-07	-3.287921e-06	-2.325767e-08	-2.379355e+01	-1.528735e+03
4.800000e-07	-3.207593e-06	-2.303796e-08	-2.321224e+01	-1.513969e+03
4.900000e-07	-3.125998e-06	-2.279501e-08	-2.262177e+01	-1.498681e+03
5.000000e-07	-3.043312e-06	-2.254642e-08	-2.202340e+01	-1.482852e+03
5.100000e-07	-2.959767e-06	-2.229203e-08	-2.141881e+01	-1.466456e+03
5.200000e-07	-2.875420e-06	-2.203285e-08	-2.080842e+01	-1.449458e+03
5.300000e-07	-2.790073e-06	-2.176604e-08	-2.019080e+01	-1.431816e+03
5.400000e-07	-2.703718e-06	-2.149012e-08	-1.956588e+01	-1.413489e+03
5.500000e-07	-2.616521e-06	-2.120069e-08	-1.893486e+01	-1.394433e+03
5.600000e-07	-2.528549e-06	-2.089535e-08	-1.829824e+01	-1.374609e+03
5.700000e-07	-2.439485e-06	-2.058213e-08	-1.765371e+01	-1.353980e+03
5.800000e-07	-2.349137e-06	-2.025616e-08	-1.699990e+01	-1.332512e+03
5.900000e-07	-2.257809e-06	-1.991302e-08	-1.633899e+01	-1.310167e+03
6.000000e-07	-2.165826e-06	-1.955178e-08	-1.567334e+01	-1.286904e+03
6.100000e-07	-2.073183e-06	-1.917764e-08	-1.500291e+01	-1.262671e+03
6.200000e-07	-1.979772e-06	-1.879225e-08	-1.432692e+01	-1.237405e+03
6.300000e-07	-1.885616e-06	-1.839130e-08	-1.364555e+01	-1.211031e+03
6.400000e-07	-1.790800e-06	-1.797338e-08	-1.295941e+01	-1.183462e+03
6.500000e-07	-1.695460e-06	-1.753192e-08	-1.226946e+01	-1.154603e+03
6.600000e-07	-1.599642e-06	-1.706868e-08	-1.157606e+01	-1.124353e+03
6.700000e-07	-1.503205e-06	-1.658733e-08	-1.087818e+01	-1.092611e+03
6.800000e-07	-1.406130e-06	-1.608310e-08	-1.017568e+01	-1.059273e+03
6.900000e-07	-1.308412e-06	-1.554893e-08	-9.468527e+00	-1.024240e+03
7.000000e-07	-1.210021e-06	-1.498261e-08	-8.756506e+00	-9.874111e+02
7.100000e-07	-1.111088e-06	-1.438720e-08	-8.040558e+00	-9.486909e+02
7.200000e-07	-1.011734e-06	-1.376454e-08	-7.321567e+00	-9.079888e+02
7.300000e-07	-9.121205e-07	-1.311555e-08	-6.600701e+00	-8.652249e+02
7.400000e-07	-8.123724e-07	-1.243761e-08	-5.878859e+00	-8.203388e+02
7.500000e-07	-7.124301e-07	-1.172511e-08	-5.155611e+00	-7.733005e+02
7.600000e-07	-6.122852e-07	-1.097253e-08	-4.430897e+00	-7.241225e+02
7.700000e-07	-5.119999e-07	-1.018447e-08	-3.705166e+00	-6.728714e+02
7.800000e-07	-4.115579e-07	-9.370262e-09	-2.978303e+00	-6.196741e+02
7.900000e-07	-3.110008e-07	-8.533146e-09	-2.250606e+00	-5.647182e+02
8.000000e-07	-2.103580e-07	-7.674032e-09	-1.522288e+00	-5.082423e+02
8.100000e-07	-1.095781e-07	-6.797595e-09	-7.929787e-01	-4.505177e+02
8.200000e-07	-8.737732e-09	-5.908056e-09	-6.323195e-02	-3.918212e+02
8.300000e-07	9.213075e-08	-5.004930e-09	6.667185e-01	-3.324038e+02
8.400000e-07	1.930078e-07	-4.093360e-09	1.396731e+00	-2.724594e+02
8.500000e-07	2.938468e-07	-3.176916e-09	2.126468e+00	-2.120992e+02
8.600000e-07	3.945973e-07	-2.254215e-09	2.855564e+00	-1.513376e+02
8.700000e-07	4.952106e-07	-1.322778e-09	3.583668e+00	-9.009293e+01
8.800000e-07	5.957127e-07	-3.792408e-10	4.310967e+00	-2.820526e+01
8.900000e-07	6.960637e-07	5.796219e-10	5.037173e+00	3.453028e+01
9.000000e-07	7.962225e-07	1.553661e-09	5.761987e+00	9.831875e+01
9.100000e-07	8.961323e-07	2.542109e-09	6.485000e+00	1.633157e+02
9.200000e-07	9.958517e-07	3.547195e-09	7.206635e+00	2.295800e+02
9.300000e-07	1.095315e-06	4.571049e-09	7.926419e+00	2.970377e+02
9.400000e-07	1.194380e-06	5.612445e-09	8.643314e+00	3.654623e+02
9.500000e-07	1.292907e-06	6.662393e-09	9.356324e+00	4.344757e+02
9.600000e-07	1.390724e-06	7.713850e-09	1.006419e+01	5.035703e+02
9.700000e-07	1.487827e-06	8.759767e-09	1.076689e+01	5.721489e+02
9.800000e-07	1.584278e-06	9.787964e-09	1.146487e+01	6.395768e+02
9.900000e-07	1.680137e-06	1.078639e-08	1.215857e+01	7.052376e+02
1.000000e-06	1.775372e-06	1.174734e-08	1.284775e+01	7.685860e+02
1.010000e-06	1.869985e-06	1.266581e-08	1.353244e+01	8.291884e+02
1.020000e-06	1.964013e-06	1.353749e-08	1.421288e+01	8.867479e+02
1.030000e-06	2.057365e-06	1.436181e-08	1.488844e+01	9.411106e+02
1.040000e-06	2.150065e-06	1.513753e-08	1.555928e+01	9.922546e+02
1.050000e-06	2.242153e-06	1.586430e-08	1.622569e+01	1.040266e+03
1.060000e-06	2.333444e-06	1.654558e-08	1.688633e+01	1.085307e+03
1.070000e-06	2.423755e-06	1.718798e-08	1.753988e+01	1.127580e+03
1.080000e-06	2.512986e-06	1.779297e-08	1.818561e+01	1.167300e+03
1.090000e-06	2.601164e-06	1.836113e-08	1.882373e+01	1.204671e+03
1.100000e-06	2.688489e-06	1.889459e-08	1.945567e+01	1.239872e+03
1.110000e-06	2.775042e-06	1.939518e-08	2.008202e+01	1.273058e+03
1.120000e-06	2.860669e-06	1.986664e-08	2.070167e+01	1.304357e+03
1.130000e-06	2.945346e-06	2.031270e-08	2.131445e+01	1.333888e+03
1.140000e-06	3.029170e-06	2.073531e-08	2.192106e+01	1.361757e+03
1.150000e-06	3.112012e-06	2.113437e-08	2.252055e+01	1.388077e+03
1.160000e-06	3.193649e-06	2.151323e-08	2.311134e+01	1.412957e+03
1.170000e-06	3.274051e-06	2.187331e-08	2.369318e+01	1.436512e+03
1.180000e-06	3.353322e-06	2.221550e-08	2.426684e+01	1.458849e+03
1.190000e-06	3.431466e-06	2.254017e-08	2.483234e+01	1.480068e+03
1.200000e-06	3.508413e-06	2.284578e-08	2.538918e+01	1.500254e+03
1.210000e-06	3.584030e-06	2.313391e-08	2.593639e+01	1.519473e+03
1.220000e-06	3.658114e-06	2.340712e-08	2.647251e+01	1.537775e+03
1.230000e-06	3.730626e-06	2.366919e-08	2.699725e+01	1.555200e+03
1.240000e-06	3.801795e-06	2.392039e-08	2.751228e+01	1.571778e+03
1.250000e-06	3.871693e-06	2.416093e-08	2.801811e+01	1.587541e+03
1.260000e-06	3.940300e-06	2.439111e-08	2.851459e+01	1.602526e+03
1.270000e-06	4.007574e-06	2.460800e-08	2.900143e+01	1.616774e+03
1.280000e-06	4.073243e-06	2.481157e-08	2.947666e+01	1.630335e+03
1.290000e-06	4.137264e-06	2.500477e-08	2.993995e+01	1.643259e+03
1.300000e-06	4.199878e-06	2.518995e-08	3.039307e+01	1.655594e+03
1.310000e-06	4.261153e-06	2.536780e-08	3.083649e+01	1.667380e+03
1.320000e-06	4.321059e-06	2.553867e-08	3.127001e+01	1.678643e+03
1.330000e-06	4.379421e-06	2.570308e-08	3.169236e+01	1.689400e+03
1.340000e-06	4.435969e-06	2.586079e-08	3.210158e+01	1.699652e+03
1.350000e-06	4.490860e-06	2.601007e-08	3.249880e+01	1.709398e+03
1.360000e-06	4.544255e-06	2.615131e-08	3.288520e+01	1.718633e+03
1.370000e-06	4.595843e-06	2.628546e-08	3.325853e+01	1.727359e+03
1.380000e-06	4.645307e-06	2.641208e-08	3.361649e+01	1.735588e+03
1.390000e-06	4.692856e-06	2.653026e-08	3.396058e+01	1.743341e+03
1.400000e-06	4.738808e-06	2.664072e-08	3.429312e+01	1.750649e+03
1.410000e-06	4.783236e-06	2.674360e-08	3.461463e+01	1.757548e+03
1.420000e-06	4.826073e-06	2.684035e-08	3.492462e+01	1.764075e+03
1.430000e-06	4.867064e-06	2.693441e-08	3.522126e+01	1.770259e+03
1.440000e-06	4.906253e-06	2.702395e-08	3.550486e+01	1.776123e+03
1.450000e-06	4.943861e-06	2.710789e-08	3.577702e+01	1.781676e+03
1.460000e-06	4.979921e-06	2.718676e-08	3.603797e+01	1.786919e+03
1.470000e-06	5.014228e-06	2.726081e-08	3.628624e+01	1.791845e+03
1.480000e-06	5.046614e-06	2.733035e-08	3.652061e+01	1.796446e+03
1.490000e-06	5.077268e-06	2.739406e-08	3.674244e+01	1.800714e+03
1.500000e-06	5.106336e-06	2.745334e-08	3.695279e+01	1.804647e+03
1.510000e-06	5.133673e-06	2.750896e-08	3.715062e+01	1.808249e+03
1.520000e-06	5.159007e-06	2.756072e-08	3.733395e+01	1.811528e+03
1.530000e-06	5.182337e-06	2.760763e-08	3.750279e+01	1.814494e+03
1.540000e-06	5.203838e-06	2.764910e-08	3.765838e+01	1.817159e+03
1.550000e-06	5.223675e-06	2.768440e-08	3.780193e+01	1.819530e+03
1.560000e-06	5.241701e-06	2.771357e-08	3.793238e+01	1.821610e+03
1.570000e-06	5.257677e-06	2.773783e-08	3.804800e+01	1.823399e+03
1.580000e-06	5.271712e-06	2.775814e-08	3.814956e+01	1.824897e+03
1.590000e-06	5.283764e-06	2.777548e-08	3.823678e+01	1.826106e+03
1.600000e-06	5.293657e-06	2.779065e-08	3.830837e+01	1.827033e+03
1.610000e-06	5.301502e-06	2.780390e-08	3.836514e+01	1.827692e+03
1.620000e-06	5.307492e-06	2.781355e-08	3.840849e+01	1.828104e+03
1.630000e-06	5.311734e-06	2.781818e-08	3.843919e+01	1.828295e+03
1.640000e-06	5.314151e-06	2.781993e-08	3.845668e+01	1.828286e+03
1.650000e-06	5.314610e-06	2.781967e-08	3.846000e+01	1.828097e+03
1.660000e-06	5.313214e-06	2.781302e-08	3.844990e+01	1.827731e+03
1.670000e-06	5.310152e-06	2.780384e-08	3.842774e+01	1.827182e+03
1.680000e-06	5.305413e-06	2.779309e-08	3.839344e+01	1.826429e+03
1.690000e-06	5.298782e-06	2.777952e-08	3.834546e+01	1.825444e+03
1.700000e-06	5.290408e-06	2.776318e-08	3.828486e+01	1.824198e+03
1.710000e-06	5.280488e-06	2.774400e-08	3.821307e+01	1.822666e+03
1.720000e-06	5.268884e-06	2.773359e-08	3.812910e+01	1.820842e+03
1.730000e-06	5.255357e-06	2.770561e-08	3.803121e+01	1.818735e+03
1.740000e-06	5.239794e-06	2.761308e-08	3.791858e+01	1.816375e+03
1.750000e-06	5.222027e-06	2.756799e-08	3.779001e+01	1.813809e+03
1.760000e-06	5.201643e-06	2.755313e-08	3.764250e+01	1.811092e+03
1.770000e-06	5.178870e-06	2.754586e-08	3.747770e+01	1.808277e+03
1.780000e-06	5.154647e-06	2.757580e-08	3.730240e+01	1.805407e+03
1.790000e-06	5.129740e-06	2.742456e-08	3.712216e+01	1.802501e+03
1.800000e-06	5.103690e-06	2.735185e-08	3.693365e+01	1.799557e+03
1.810000e-06	5.075492e-06	2.741670e-08	3.672958e+01	1.796543e+03
1.820000e-06	5.045313e-06	2.724069e-08	3.651119e+01	1.793409e+03
1.830000e-06	5.013499e-06	2.722811e-08	3.628096e+01	1.790092e+03
1.840000e-06	4.979841e-06	2.732391e-08	3.603739e+01	1.786526e+03
1.850000e-06	4.944594e-06	2.714306e-08	3.578232e+01	1.782654e+03
1.860000e-06	4.907657e-06	2.711804e-08	3.551502e+01	1.778435e+03
1.870000e-06	4.868761e-06	2.709911e-08	3.523355e+01	1.773844e+03
1.880000e-06	4.828243e-06	2.695541e-08	3.494033e+01	1.768878e+03
1.890000e-06	4.785978e-06	2.695149e-08	3.463447e+01	1.763547e+03
1.900000e-06	4.742029e-06	2.678238e-08	3.431642e+01	1.757868e+03
1.910000e-06	4.696421e-06	2.668980e-08	3.398638e+01	1.751861e+03
1.920000e-06	4.648880e-06	2.673380e-08	3.364234e+01	1.745538e+03
1.930000e-06	4.599707e-06	2.656736e-08	3.328649e+01	1.738904e+03
1.940000e-06	4.548882e-06	2.645955e-08	3.291869e+01	1.731954e+03
1.950000e-06	4.496077e-06	2.633665e-08	3.253656e+01	1.724677e+03
1.960000e-06	4.441270e-06	2.621398e-08	3.213994e+01	1.717056e+03
1.970000e-06	4.384679e-06	2.611767e-08	3.173041e+01	1.709080e+03
1.980000e-06	4.326548e-06	2.592804e-08	3.130974e+01	1.700740e+03
1.990000e-06	4.267029e-06	2.586910e-08	3.087902e+01	1.692038e+03
2.000000e-06	4.206131e-06	2.574906e-08	3.043832e+01	1.682979e+03
2.010000e-06	4.143564e-06	2.555396e-08	2.998554e+01	1.673574e+03
2.020000e-06	4.079284e-06	2.540120e-08	2.952037e+01	1.663831e+03
2.030000e-06	4.013572e-06	2.524411e-08	2.904483e+01	1.653754e+03
2.040000e-06	3.946531e-06	2.515271e-08	2.855968e+01	1.643340e+03
2.050000e-06	3.878185e-06	2.496409e-08	2.806509e+01	1.632574e+03
2.060000e-06	3.808334e-06	2.477693e-08	2.755960e+01	1.621434e+03
2.070000e-06	3.736920e-06	2.461608e-08	2.704280e+01	1.609893e+03
2.080000e-06	3.664221e-06	2.440452e-08	2.651670e+01	1.597921e+03
2.090000e-06	3.590250e-06	2.422816e-08	2.598140e+01	1.585493e+03
2.100000e-06	3.515013e-06	2.402986e-08	2.543693e+01	1.572588e+03
2.110000e-06	3.438425e-06	2.384489e-08	2.488270e+01	1.559192e+03
2.120000e-06	3.360301e-06	2.362852e-08	2.431734e+01	1.545296e+03
2.130000e-06	3.280841e-06	2.339891e-08	2.374231e+01	1.530894e+03
2.140000e-06	3.200249e-06	2.318070e-08	2.315910e+01	1.515979e+03
2.150000e-06	3.118532e-06	2.293872e-08	2.256774e+01	1.500538e+03
2.160000e-06	3.035778e-06	2.271069e-08	2.196888e+01	1.484549e+03
2.170000e-06	2.952113e-06	2.245754e-08	2.136342e+01	1.467983e+03
2.180000e-06	2.867500e-06	2.219200e-08	2.075111e+01	1.450804e+03
2.190000e-06	2.781621e-06	2.191285e-08	2.012963e+01	1.432970e+03
2.200000e-06	2.694444e-06	2.163103e-08	1.949876e+01	1.414438e+03
2.210000e-06	2.606328e-06	2.134567e-08	1.886110e+01	1.395165e+03
2.220000e-06	2.517368e-06	2.103485e-08	1.821732e+01	1.375113e+03
2.230000e-06	2.427494e-06	2.071600e-08	1.756694e+01	1.354247e+03
2.240000e-06	2.336796e-06	2.038789e-08	1.691058e+01	1.332531e+03
2.250000e-06	2.245453e-06	2.005423e-08	1.624957e+01	1.309927e+03
2.260000e-06	2.153515e-06	1.969491e-08	1.558425e+01	1.286392e+03
2.270000e-06	2.060780e-06	1.931755e-08	1.491315e+01	1.261869e+03
2.280000e-06	1.966990e-06	1.892739e-08	1.423443e+01	1.236294e+03
2.290000e-06	1.872166e-06	1.851887e-08	1.354822e+01	1.209586e+03
2.300000e-06	1.776631e-06	1.809450e-08	1.285686e+01	1.181657e+03
2.310000e-06	1.680626e-06	1.764985e-08	1.216211e+01	1.152410e+03
2.320000e-06	1.584185e-06	1.718463e-08	1.146420e+01	1.121743e+03
2.330000e-06	1.487277e-06	1.669209e-08	1.076291e+01	1.089554e+03
2.340000e-06	1.389877e-06	1.617275e-08	1.005806e+01	1.055741e+03
2.350000e-06	1.291990e-06	1.562867e-08	9.349688e+00	1.020203e+03
2.360000e-06	1.193672e-06	1.506289e-08	8.638189e+00	9.828423e+02
2.370000e-06	1.095031e-06	1.446975e-08	7.924359e+00	9.435635e+02
2.380000e-06	9.961147e-07	1.384111e-08	7.208538e+00	9.022785e+02
2.390000e-06	8.969338e-07	1.317570e-08	6.490800e+00	8.589121e+02
2.400000e-06	7.974676e-07	1.247706e-08	5.770998e+00	8.134113e+02
2.410000e-06	6.977175e-07	1.175104e-08	5.049141e+00	7.657570e+02
2.420000e-06	5.977593e-07	1.099294e-08	4.325778e+00	7.159761e+02
2.430000e-06	4.976719e-07	1.020326e-08	3.601480e+00	6.641520e+02
2.440000e-06	3.975388e-07	9.386352e-09	2.876851e+00	6.104293e+02
2.450000e-06	2.973332e-07	8.541076e-09	2.151697e+00	5.550117e+02
2.460000e-06	1.970130e-07	7.669870e-09	1.425715e+00	4.981493e+02
2.470000e-06	9.658646e-08	6.781178e-09	6.989629e-01	4.401180e+02
2.480000e-06	-3.944498e-09	5.881194e-09	-2.854497e-02	3.811906e+02
2.490000e-06	-1.045261e-07	4.969883e-09	-7.564191e-01	3.216048e+02
2.500000e-06	-2.050373e-07	4.047670e-09	-1.483784e+00	2.615331e+02
2.510000e-06	-3.054576e-07	3.119085e-09	-2.210491e+00	2.010598e+02
2.520000e-06	-4.058010e-07	2.188269e-09	-2.936642e+00	1.401712e+02
2.530000e-06	-5.060725e-07	1.251711e-09	-3.662272e+00	7.876058e+01
2.540000e-06	-6.062221e-07	3.038954e-10	-4.387020e+00	1.665124e+01
2.550000e-06	-7.061422e-07	-6.596337e-10	-5.110108e+00	-4.636669e+01
2.560000e-06	-8.058362e-07	-1.640143e-09	-5.831559e+00	-1.104892e+02
2.570000e-06	-9.052955e-07	-2.640109e-09	-6.551311e+00	-1.758487e+02
2.580000e-06	-1.004478e-06	-3.658808e-09	-7.269063e+00	-2.424693e+02
2.590000e-06	-1.103341e-06	-4.693144e-09	-7.984498e+00	-3.102344e+02
2.600000e-06	-1.201907e-06	-5.741283e-09	-8.697788e+00	-3.788733e+02
2.610000e-06	-1.300031e-06	-6.796471e-09	-9.407878e+00	-4.479678e+02
2.620000e-06	-1.397535e-06	-7.852115e-09	-1.011348e+01	-5.169799e+02
2.630000e-06	-1.494484e-06	-8.899482e-09	-1.081506e+01	-5.852960e+02
2.640000e-06	-1.590996e-06	-9.927389e-09	-1.151349e+01	-6.522809e+02
2.650000e-06	-1.687147e-06	-1.092471e-08	-1.220930e+01	-7.173337e+02
2.660000e-06	-1.782813e-06	-1.188194e-08	-1.290161e+01	-7.799374e+02
2.670000e-06	-1.877765e-06	-1.279534e-08	-1.358874e+01	-8.396957e+02
2.680000e-06	-1.971826e-06	-1.366192e-08	-1.426943e+01	-8.963526e+02
2.690000e-06	-2.064973e-06	-1.447907e-08	-1.494350e+01	-9.497938e+02
2.700000e-06	-2.157264e-06	-1.524937e-08	-1.561137e+01	-1.000031e+03
2.710000e-06	-2.248767e-06	-1.597522e-08	-1.627355e+01	-1.047176e+03
2.720000e-06	-2.339519e-06	-1.665598e-08	-1.693029e+01	-1.091406e+03
2.730000e-06	-2.429443e-06	-1.729344e-08	-1.758104e+01	-1.132929e+03
2.740000e-06	-2.518499e-06	-1.789344e-08	-1.822551e+01	-1.171959e+03
2.750000e-06	-2.606771e-06	-1.845985e-08	-1.886430e+01	-1.208694e+03
2.760000e-06	-2.694232e-06	-1.899284e-08	-1.949723e+01	-1.243306e+03
2.770000e-06	-2.780688e-06	-1.949255e-08	-2.012288e+01	-1.275942e+03
2.780000e-06	-2.866054e-06	-1.996330e-08	-2.074064e+01	-1.306726e+03
2.790000e-06	-2.950337e-06	-2.040676e-08	-2.135057e+01	-1.335772e+03
2.800000e-06	-3.033628e-06	-2.082428e-08	-2.195332e+01	-1.363189e+03
2.810000e-06	-3.115923e-06	-2.121960e-08	-2.254886e+01	-1.389087e+03
2.820000e-06	-3.197135e-06	-2.159725e-08	-2.313656e+01	-1.413578e+03
2.830000e-06	-3.277339e-06	-2.195720e-08	-2.371697e+01	-1.436775e+03
2.840000e-06	-3.356440e-06	-2.229681e-08	-2.428940e+01	-1.458785e+03
2.850000e-06	-3.434162e-06	-2.261817e-08	-2.485184e+01	-1.479702e+03
2.860000e-06	-3.510437e-06	-2.292320e-08	-2.540382e+01	-1.499607e+03
2.870000e-06	-3.585280e-06	-2.321280e-08	-2.594544e+01	-1.518561e+03
2.880000e-06	-3.658761e-06	-2.348877e-08	-2.647719e+01	-1.536610e+03
2.890000e-06	-3.731034e-06	-2.375171e-08	-2.700020e+01	-1.553791e+03
2.900000e-06	-3.801983e-06	-2.400180e-08	-2.751364e+01	-1.570134e+03
2.910000e-06	-3.871331e-06	-2.423955e-08	-2.801548e+01	-1.585672e+03
2.920000e-06	-3.939191e-06	-2.446624e-08	-2.850657e+01	-1.600443e+03
2.930000e-06	-4.005778e-06	-2.468397e-08	-2.898844e+01	-1.614491e+03
2.940000e-06	-4.071029e-06	-2.489204e-08	-2.946063e+01	-1.627866e+03
