# Temperatura_=_46.08
# Concentracion g/m^3_=_28200.0
# C_Vs_to_Am_M_A/Vsm_=_65563218390.804596
# pendiente_HvsI_1/m_=_3716.3
# ordenada_HvsI_A/m_=_1297.0
# frecuencia_Hz_=_301745.56210316945

Tiempo_(s)	Campo_(V.s)	Magnetizacion_(V.s)	Campo_(kA/m)	Magnetizacion_(A/m)
0.000000e+00	-5.305171e-06	-2.052650e-08	-3.830325e+01	-1.342711e+03
1.000000e-08	-5.302761e-06	-2.052247e-08	-3.828585e+01	-1.342381e+03
2.000000e-08	-5.298561e-06	-2.051244e-08	-3.825552e+01	-1.341907e+03
3.000000e-08	-5.292787e-06	-2.050315e-08	-3.821383e+01	-1.341279e+03
4.000000e-08	-5.285506e-06	-2.049246e-08	-3.816127e+01	-1.340484e+03
5.000000e-08	-5.276474e-06	-2.047413e-08	-3.809606e+01	-1.339507e+03
6.000000e-08	-5.265351e-06	-2.044974e-08	-3.801574e+01	-1.338341e+03
7.000000e-08	-5.252391e-06	-2.041187e-08	-3.792218e+01	-1.336984e+03
8.000000e-08	-5.237501e-06	-2.039428e-08	-3.781467e+01	-1.335446e+03
9.000000e-08	-5.220323e-06	-2.044345e-08	-3.769065e+01	-1.333744e+03
1.000000e-07	-5.201042e-06	-2.041856e-08	-3.755143e+01	-1.331904e+03
1.100000e-07	-5.179854e-06	-2.033925e-08	-3.739846e+01	-1.329951e+03
1.200000e-07	-5.156894e-06	-2.030092e-08	-3.723269e+01	-1.327908e+03
1.300000e-07	-5.132428e-06	-2.016979e-08	-3.705604e+01	-1.325790e+03
1.400000e-07	-5.106438e-06	-2.016039e-08	-3.686840e+01	-1.323601e+03
1.500000e-07	-5.078791e-06	-2.028737e-08	-3.666878e+01	-1.321335e+03
1.600000e-07	-5.049612e-06	-2.010398e-08	-3.645811e+01	-1.318975e+03
1.700000e-07	-5.019007e-06	-2.009576e-08	-3.623715e+01	-1.316496e+03
1.800000e-07	-4.986560e-06	-2.017574e-08	-3.600288e+01	-1.313869e+03
1.900000e-07	-4.952040e-06	-1.992294e-08	-3.575365e+01	-1.311066e+03
2.000000e-07	-4.915976e-06	-1.992283e-08	-3.549327e+01	-1.308061e+03
2.100000e-07	-4.878315e-06	-1.994561e-08	-3.522135e+01	-1.304836e+03
2.200000e-07	-4.838888e-06	-1.978468e-08	-3.493669e+01	-1.301375e+03
2.300000e-07	-4.797670e-06	-1.979000e-08	-3.463910e+01	-1.297672e+03
2.400000e-07	-4.754448e-06	-1.973087e-08	-3.432704e+01	-1.293724e+03
2.500000e-07	-4.709473e-06	-1.963150e-08	-3.400232e+01	-1.289529e+03
2.600000e-07	-4.662768e-06	-1.962634e-08	-3.366511e+01	-1.285091e+03
2.700000e-07	-4.614130e-06	-1.950103e-08	-3.331394e+01	-1.280412e+03
2.800000e-07	-4.563415e-06	-1.940908e-08	-3.294778e+01	-1.275493e+03
2.900000e-07	-4.510733e-06	-1.935692e-08	-3.256742e+01	-1.270338e+03
3.000000e-07	-4.456400e-06	-1.927675e-08	-3.217513e+01	-1.264947e+03
3.100000e-07	-4.400462e-06	-1.919302e-08	-3.177126e+01	-1.259321e+03
3.200000e-07	-4.342765e-06	-1.910256e-08	-3.135469e+01	-1.253461e+03
3.300000e-07	-4.283374e-06	-1.901494e-08	-3.092589e+01	-1.247364e+03
3.400000e-07	-4.222504e-06	-1.888996e-08	-3.048641e+01	-1.241028e+03
3.500000e-07	-4.160184e-06	-1.879751e-08	-3.003646e+01	-1.234447e+03
3.600000e-07	-4.096482e-06	-1.869661e-08	-2.957653e+01	-1.227614e+03
3.700000e-07	-4.031356e-06	-1.858724e-08	-2.910632e+01	-1.220519e+03
3.800000e-07	-3.964618e-06	-1.849715e-08	-2.862448e+01	-1.213153e+03
3.900000e-07	-3.896298e-06	-1.835158e-08	-2.813121e+01	-1.205504e+03
4.000000e-07	-3.826663e-06	-1.821976e-08	-2.762845e+01	-1.197560e+03
4.100000e-07	-3.755902e-06	-1.811200e-08	-2.711755e+01	-1.189309e+03
4.200000e-07	-3.684015e-06	-1.798121e-08	-2.659852e+01	-1.180741e+03
4.300000e-07	-3.610742e-06	-1.784449e-08	-2.606950e+01	-1.171844e+03
4.400000e-07	-3.535821e-06	-1.770239e-08	-2.552857e+01	-1.162607e+03
4.500000e-07	-3.459380e-06	-1.755913e-08	-2.497667e+01	-1.153019e+03
4.600000e-07	-3.381606e-06	-1.740268e-08	-2.441514e+01	-1.143067e+03
4.700000e-07	-3.302471e-06	-1.724651e-08	-2.384379e+01	-1.132736e+03
4.800000e-07	-3.221970e-06	-1.708685e-08	-2.326257e+01	-1.122011e+03
4.900000e-07	-3.140317e-06	-1.690742e-08	-2.267304e+01	-1.110877e+03
5.000000e-07	-3.057626e-06	-1.672740e-08	-2.207601e+01	-1.099314e+03
5.100000e-07	-2.973980e-06	-1.654174e-08	-2.147208e+01	-1.087304e+03
5.200000e-07	-2.889521e-06	-1.635334e-08	-2.086230e+01	-1.074825e+03
5.300000e-07	-2.804168e-06	-1.615676e-08	-2.024605e+01	-1.061853e+03
5.400000e-07	-2.717816e-06	-1.595074e-08	-1.962259e+01	-1.048361e+03
5.500000e-07	-2.630532e-06	-1.574004e-08	-1.899240e+01	-1.034318e+03
5.600000e-07	-2.542355e-06	-1.551338e-08	-1.835576e+01	-1.019689e+03
5.700000e-07	-2.453197e-06	-1.527971e-08	-1.771205e+01	-1.004438e+03
5.800000e-07	-2.362851e-06	-1.503646e-08	-1.705975e+01	-9.885238e+02
5.900000e-07	-2.271427e-06	-1.478003e-08	-1.639967e+01	-9.719064e+02
6.000000e-07	-2.179310e-06	-1.450857e-08	-1.573458e+01	-9.545455e+02
6.100000e-07	-2.086518e-06	-1.422932e-08	-1.506462e+01	-9.364018e+02
6.200000e-07	-1.992930e-06	-1.394346e-08	-1.438892e+01	-9.174372e+02
6.300000e-07	-1.898585e-06	-1.364308e-08	-1.370775e+01	-8.976132e+02
6.400000e-07	-1.803609e-06	-1.332957e-08	-1.302203e+01	-8.768889e+02
6.500000e-07	-1.708023e-06	-1.299810e-08	-1.233190e+01	-8.552179e+02
6.600000e-07	-1.611836e-06	-1.265064e-08	-1.163743e+01	-8.325461e+02
6.700000e-07	-1.515125e-06	-1.228825e-08	-1.093917e+01	-8.088090e+02
6.800000e-07	-1.417843e-06	-1.190930e-08	-1.023680e+01	-7.839317e+02
6.900000e-07	-1.319896e-06	-1.150967e-08	-9.529629e+00	-7.578307e+02
7.000000e-07	-1.221317e-06	-1.108762e-08	-8.817889e+00	-7.304182e+02
7.100000e-07	-1.122226e-06	-1.064476e-08	-8.102454e+00	-7.016086e+02
7.200000e-07	-1.022765e-06	-1.018196e-08	-7.384346e+00	-6.713278e+02
7.300000e-07	-9.230142e-07	-9.699018e-09	-6.664147e+00	-6.395215e+02
7.400000e-07	-8.230331e-07	-9.193807e-09	-5.942285e+00	-6.061658e+02
7.500000e-07	-7.228724e-07	-8.666262e-09	-5.219127e+00	-5.712735e+02
7.600000e-07	-6.225211e-07	-8.111856e-09	-4.494592e+00	-5.349003e+02
7.700000e-07	-5.220385e-07	-7.535473e-09	-3.769109e+00	-4.971452e+02
7.800000e-07	-4.214555e-07	-6.943406e-09	-3.042902e+00	-4.581483e+02
7.900000e-07	-3.207224e-07	-6.334914e-09	-2.315611e+00	-4.180829e+02
8.000000e-07	-2.198125e-07	-5.711408e-09	-1.587043e+00	-3.771450e+02
8.100000e-07	-1.187756e-07	-5.077732e-09	-8.575579e-01	-3.355378e+02
8.200000e-07	-1.767226e-08	-4.438292e-09	-1.275935e-01	-2.934555e+02
8.300000e-07	8.347837e-08	-3.793533e-09	6.027124e-01	-2.510661e+02
8.400000e-07	1.846206e-07	-3.145888e-09	1.332958e+00	-2.084957e+02
8.500000e-07	2.856711e-07	-2.496663e-09	2.062540e+00	-1.658166e+02
8.600000e-07	3.866163e-07	-1.845503e-09	2.791363e+00	-1.230401e+02
8.700000e-07	4.874542e-07	-1.190662e-09	3.519412e+00	-8.011719e+01
8.800000e-07	5.881347e-07	-5.324530e-10	4.246323e+00	-3.694623e+01
8.900000e-07	6.886199e-07	1.310539e-10	4.971824e+00	6.611372e+00
9.000000e-07	7.889466e-07	8.018500e-10	5.696182e+00	5.070906e+01
9.100000e-07	8.891340e-07	1.482416e-09	6.419533e+00	9.548881e+01
9.200000e-07	9.890901e-07	2.173884e-09	7.141214e+00	1.410537e+02
9.300000e-07	1.088766e-06	2.876319e-09	7.860870e+00	1.874428e+02
9.400000e-07	1.188086e-06	3.594735e-09	8.577964e+00	2.346127e+02
9.500000e-07	1.286912e-06	4.324098e-09	9.291484e+00	2.824276e+02
9.600000e-07	1.385091e-06	5.058090e-09	1.000034e+01	3.306602e+02
9.700000e-07	1.482514e-06	5.793919e-09	1.070373e+01	3.790046e+02
9.800000e-07	1.579275e-06	6.526976e-09	1.140234e+01	4.270978e+02
9.900000e-07	1.675405e-06	7.249601e-09	1.209640e+01	4.745489e+02
1.000000e-06	1.770868e-06	7.956474e-09	1.278564e+01	5.209709e+02
1.010000e-06	1.865709e-06	8.642157e-09	1.347039e+01	5.660110e+02
1.020000e-06	1.959922e-06	9.300034e-09	1.415061e+01	6.093755e+02
1.030000e-06	2.053447e-06	9.928203e-09	1.482585e+01	6.508468e+02
1.040000e-06	2.146244e-06	1.052434e-08	1.549585e+01	6.902896e+02
1.050000e-06	2.238463e-06	1.109072e-08	1.616167e+01	7.276482e+02
1.060000e-06	2.330085e-06	1.162581e-08	1.682318e+01	7.629356e+02
1.070000e-06	2.420854e-06	1.213092e-08	1.747852e+01	7.962174e+02
1.080000e-06	2.510551e-06	1.260730e-08	1.812614e+01	8.275934e+02
1.090000e-06	2.599179e-06	1.305796e-08	1.876603e+01	8.571804e+02
1.100000e-06	2.686835e-06	1.348291e-08	1.939890e+01	8.850988e+02
1.110000e-06	2.773532e-06	1.388255e-08	2.002485e+01	9.114628e+02
1.120000e-06	2.859319e-06	1.426111e-08	2.064424e+01	9.363763e+02
1.130000e-06	2.944246e-06	1.461910e-08	2.125741e+01	9.599322e+02
1.140000e-06	3.028344e-06	1.495855e-08	2.186459e+01	9.822137e+02
1.150000e-06	3.111506e-06	1.527775e-08	2.246503e+01	1.003298e+03
1.160000e-06	3.193482e-06	1.557941e-08	2.305689e+01	1.023256e+03
1.170000e-06	3.274279e-06	1.586676e-08	2.364024e+01	1.042158e+03
1.180000e-06	3.353890e-06	1.614025e-08	2.421503e+01	1.060070e+03
1.190000e-06	3.432280e-06	1.639895e-08	2.478100e+01	1.077053e+03
1.200000e-06	3.509504e-06	1.664446e-08	2.533856e+01	1.093165e+03
1.210000e-06	3.585493e-06	1.687681e-08	2.588720e+01	1.108457e+03
1.220000e-06	3.660047e-06	1.709590e-08	2.642548e+01	1.122975e+03
1.230000e-06	3.733026e-06	1.730320e-08	2.695238e+01	1.136762e+03
1.240000e-06	3.804543e-06	1.749953e-08	2.746874e+01	1.149858e+03
1.250000e-06	3.874685e-06	1.768720e-08	2.797516e+01	1.162302e+03
1.260000e-06	3.943512e-06	1.786689e-08	2.847210e+01	1.174132e+03
1.270000e-06	4.011066e-06	1.803759e-08	2.895983e+01	1.185387e+03
1.280000e-06	4.077100e-06	1.820048e-08	2.943660e+01	1.196099e+03
1.290000e-06	4.141457e-06	1.835682e-08	2.990125e+01	1.206299e+03
1.300000e-06	4.204326e-06	1.850635e-08	3.035517e+01	1.216008e+03
1.310000e-06	4.265791e-06	1.864793e-08	3.079894e+01	1.225241e+03
1.320000e-06	4.325917e-06	1.878238e-08	3.123305e+01	1.234004e+03
1.330000e-06	4.384582e-06	1.890992e-08	3.165661e+01	1.242301e+03
1.340000e-06	4.441511e-06	1.902963e-08	3.206764e+01	1.250134e+03
1.350000e-06	4.496689e-06	1.913956e-08	3.246602e+01	1.257507e+03
1.360000e-06	4.550232e-06	1.924265e-08	3.285260e+01	1.264436e+03
1.370000e-06	4.601999e-06	1.934110e-08	3.322636e+01	1.270943e+03
1.380000e-06	4.651749e-06	1.943355e-08	3.358555e+01	1.277063e+03
1.390000e-06	4.699589e-06	1.952114e-08	3.393095e+01	1.282837e+03
1.400000e-06	4.745763e-06	1.960418e-08	3.426433e+01	1.288308e+03
1.410000e-06	4.790438e-06	1.968352e-08	3.458688e+01	1.293515e+03
1.420000e-06	4.833571e-06	1.975941e-08	3.489830e+01	1.298488e+03
1.430000e-06	4.874872e-06	1.983338e-08	3.519650e+01	1.303243e+03
1.440000e-06	4.914364e-06	1.990317e-08	3.548163e+01	1.307783e+03
1.450000e-06	4.952219e-06	1.996620e-08	3.575494e+01	1.312094e+03
1.460000e-06	4.988522e-06	2.002572e-08	3.601705e+01	1.316159e+03
1.470000e-06	5.023092e-06	2.008397e-08	3.626664e+01	1.319954e+03
1.480000e-06	5.055721e-06	2.013748e-08	3.650222e+01	1.323463e+03
1.490000e-06	5.086582e-06	2.018537e-08	3.672504e+01	1.326674e+03
1.500000e-06	5.115778e-06	2.022899e-08	3.693584e+01	1.329592e+03
1.510000e-06	5.143288e-06	2.026795e-08	3.713445e+01	1.332228e+03
1.520000e-06	5.168826e-06	2.030275e-08	3.731884e+01	1.334606e+03
1.530000e-06	5.192330e-06	2.033627e-08	3.748853e+01	1.336750e+03
1.540000e-06	5.214063e-06	2.036723e-08	3.764545e+01	1.338684e+03
1.550000e-06	5.234129e-06	2.039361e-08	3.779033e+01	1.340425e+03
1.560000e-06	5.252364e-06	2.041718e-08	3.792198e+01	1.341983e+03
1.570000e-06	5.268559e-06	2.043699e-08	3.803891e+01	1.343359e+03
1.580000e-06	5.282792e-06	2.045203e-08	3.814167e+01	1.344548e+03
1.590000e-06	5.295058e-06	2.046447e-08	3.823023e+01	1.345545e+03
1.600000e-06	5.305175e-06	2.047638e-08	3.830327e+01	1.346343e+03
1.610000e-06	5.313232e-06	2.048802e-08	3.836145e+01	1.346943e+03
1.620000e-06	5.319406e-06	2.049750e-08	3.840602e+01	1.347352e+03
1.630000e-06	5.323843e-06	2.050240e-08	3.843806e+01	1.347581e+03
1.640000e-06	5.326379e-06	2.050490e-08	3.845637e+01	1.347645e+03
1.650000e-06	5.326882e-06	2.050747e-08	3.846000e+01	1.347557e+03
1.660000e-06	5.325626e-06	2.050176e-08	3.845093e+01	1.347326e+03
1.670000e-06	5.322746e-06	2.049377e-08	3.843014e+01	1.346955e+03
1.680000e-06	5.318205e-06	2.048659e-08	3.839736e+01	1.346438e+03
1.690000e-06	5.311755e-06	2.047800e-08	3.835078e+01	1.345763e+03
1.700000e-06	5.303491e-06	2.046745e-08	3.829112e+01	1.344917e+03
1.710000e-06	5.293708e-06	2.045491e-08	3.822048e+01	1.343885e+03
1.720000e-06	5.282252e-06	2.045416e-08	3.813777e+01	1.342663e+03
1.730000e-06	5.268856e-06	2.044682e-08	3.804105e+01	1.341252e+03
1.740000e-06	5.253500e-06	2.033351e-08	3.793019e+01	1.339665e+03
1.750000e-06	5.235980e-06	2.029663e-08	3.780369e+01	1.337920e+03
1.760000e-06	5.215862e-06	2.031862e-08	3.765844e+01	1.336045e+03
1.770000e-06	5.193312e-06	2.030832e-08	3.749562e+01	1.334063e+03
1.780000e-06	5.169199e-06	2.041254e-08	3.732153e+01	1.331996e+03
1.790000e-06	5.144333e-06	2.025306e-08	3.714200e+01	1.329857e+03
1.800000e-06	5.118384e-06	2.010668e-08	3.695465e+01	1.327647e+03
1.810000e-06	5.090371e-06	2.026529e-08	3.675240e+01	1.325356e+03
1.820000e-06	5.060396e-06	2.007540e-08	3.653597e+01	1.322963e+03
1.830000e-06	5.028772e-06	2.002771e-08	3.630765e+01	1.320444e+03
1.840000e-06	4.995154e-06	2.023172e-08	3.606493e+01	1.317769e+03
1.850000e-06	4.959910e-06	1.999939e-08	3.581047e+01	1.314910e+03
1.860000e-06	4.923087e-06	1.998364e-08	3.554460e+01	1.311843e+03
1.870000e-06	4.884289e-06	2.005099e-08	3.526448e+01	1.308551e+03
1.880000e-06	4.843825e-06	1.985009e-08	3.497233e+01	1.305021e+03
1.890000e-06	4.801617e-06	1.990905e-08	3.466760e+01	1.301247e+03
1.900000e-06	4.757711e-06	1.977265e-08	3.435060e+01	1.297227e+03
1.910000e-06	4.712144e-06	1.966189e-08	3.402160e+01	1.292962e+03
1.920000e-06	4.664602e-06	1.978252e-08	3.367835e+01	1.288454e+03
1.930000e-06	4.615372e-06	1.958362e-08	3.332291e+01	1.283705e+03
1.940000e-06	4.564496e-06	1.952299e-08	3.295558e+01	1.278718e+03
1.950000e-06	4.511551e-06	1.946602e-08	3.257332e+01	1.273494e+03
1.960000e-06	4.456697e-06	1.934467e-08	3.217728e+01	1.268036e+03
1.970000e-06	4.400154e-06	1.931039e-08	3.176904e+01	1.262342e+03
1.980000e-06	4.342025e-06	1.913208e-08	3.134935e+01	1.256414e+03
1.990000e-06	4.282550e-06	1.911632e-08	3.091994e+01	1.250248e+03
2.000000e-06	4.221675e-06	1.903325e-08	3.048043e+01	1.243841e+03
2.010000e-06	4.159140e-06	1.887844e-08	3.002892e+01	1.237188e+03
2.020000e-06	4.094856e-06	1.879795e-08	2.956480e+01	1.230281e+03
2.030000e-06	4.029082e-06	1.864717e-08	2.908991e+01	1.223109e+03
2.040000e-06	3.962000e-06	1.861294e-08	2.860557e+01	1.215663e+03
2.050000e-06	3.893587e-06	1.846993e-08	2.811164e+01	1.207929e+03
2.060000e-06	3.823698e-06	1.832357e-08	2.760703e+01	1.199898e+03
2.070000e-06	3.752318e-06	1.823488e-08	2.709167e+01	1.191557e+03
2.080000e-06	3.679677e-06	1.806220e-08	2.656721e+01	1.182895e+03
2.090000e-06	3.605725e-06	1.793980e-08	2.603328e+01	1.173902e+03
2.100000e-06	3.530393e-06	1.777898e-08	2.548938e+01	1.164565e+03
2.110000e-06	3.453619e-06	1.765325e-08	2.493508e+01	1.154873e+03
2.120000e-06	3.375309e-06	1.750399e-08	2.436968e+01	1.144813e+03
2.130000e-06	3.295711e-06	1.733062e-08	2.379498e+01	1.134371e+03
2.140000e-06	3.215006e-06	1.718622e-08	2.321229e+01	1.123530e+03
2.150000e-06	3.133213e-06	1.700598e-08	2.262175e+01	1.112275e+03
2.160000e-06	3.050399e-06	1.684080e-08	2.202383e+01	1.100585e+03
2.170000e-06	2.966652e-06	1.664667e-08	2.141918e+01	1.088443e+03
2.180000e-06	2.881841e-06	1.645361e-08	2.080684e+01	1.075824e+03
2.190000e-06	2.795712e-06	1.625155e-08	2.018500e+01	1.062706e+03
2.200000e-06	2.708400e-06	1.604003e-08	1.955460e+01	1.049059e+03
2.210000e-06	2.620186e-06	1.583471e-08	1.891770e+01	1.034852e+03
2.220000e-06	2.531085e-06	1.560627e-08	1.827439e+01	1.020048e+03
2.230000e-06	2.441105e-06	1.537351e-08	1.762474e+01	1.004611e+03
2.240000e-06	2.350368e-06	1.512841e-08	1.696962e+01	9.884993e+02
2.250000e-06	2.258903e-06	1.488271e-08	1.630925e+01	9.716727e+02
2.260000e-06	2.166720e-06	1.461455e-08	1.564368e+01	9.540913e+02
2.270000e-06	2.073726e-06	1.432869e-08	1.497227e+01	9.357162e+02
2.280000e-06	1.979849e-06	1.403449e-08	1.429448e+01	9.165093e+02
2.290000e-06	1.885032e-06	1.372623e-08	1.360990e+01	8.964316e+02
2.300000e-06	1.789371e-06	1.340764e-08	1.291923e+01	8.754410e+02
2.310000e-06	1.693196e-06	1.307567e-08	1.222485e+01	8.534892e+02
2.320000e-06	1.596611e-06	1.273195e-08	1.152751e+01	8.305193e+02
2.330000e-06	1.499551e-06	1.236480e-08	1.082673e+01	8.064637e+02
2.340000e-06	1.401974e-06	1.197596e-08	1.012223e+01	7.812448e+02
2.350000e-06	1.303918e-06	1.157079e-08	9.414270e+00	7.547773e+02
2.360000e-06	1.205439e-06	1.115230e-08	8.703251e+00	7.269732e+02
2.370000e-06	1.106588e-06	1.071321e-08	7.989545e+00	6.977494e+02
2.380000e-06	1.007462e-06	1.024780e-08	7.273857e+00	6.670363e+02
2.390000e-06	9.080480e-07	9.753552e-09	6.556092e+00	6.347875e+02
2.400000e-06	8.083592e-07	9.231073e-09	5.836340e+00	6.009888e+02
2.410000e-06	7.084426e-07	8.689026e-09	5.114944e+00	5.656651e+02
2.420000e-06	6.082825e-07	8.126083e-09	4.391790e+00	5.288842e+02
2.430000e-06	5.079416e-07	7.542020e-09	3.667330e+00	4.907576e+02
2.440000e-06	4.074987e-07	6.942230e-09	2.942134e+00	4.514357e+02
2.450000e-06	3.069686e-07	6.328375e-09	2.216308e+00	4.110997e+02
2.460000e-06	2.062990e-07	5.698644e-09	1.489475e+00	3.699491e+02
2.470000e-06	1.055273e-07	5.058393e-09	7.619054e-01	3.281863e+02
2.480000e-06	4.697080e-09	4.412843e-09	3.391284e-02	2.859999e+02
2.490000e-06	-9.615962e-08	3.762418e-09	-6.942709e-01	2.435473e+02
2.500000e-06	-1.969548e-07	3.109352e-09	-1.422010e+00	2.009403e+02
2.510000e-06	-2.977240e-07	2.457491e-09	-2.149562e+00	1.582341e+02
2.520000e-06	-3.984620e-07	1.806873e-09	-2.876889e+00	1.154225e+02
2.530000e-06	-4.990702e-07	1.151997e-09	-3.603279e+00	7.244025e+01
2.540000e-06	-5.995440e-07	4.904223e-10	-4.328698e+00	2.917328e+01
2.550000e-06	-6.998397e-07	-1.789760e-10	-5.052831e+00	-1.452375e+01
2.560000e-06	-7.999095e-07	-8.582978e-10	-5.775333e+00	-5.880382e+01
2.570000e-06	-8.997042e-07	-1.548673e-09	-6.495849e+00	-1.038005e+02
2.580000e-06	-9.991489e-07	-2.250042e-09	-7.213839e+00	-1.496010e+02
2.590000e-06	-1.098206e-06	-2.962235e-09	-7.929029e+00	-1.962224e+02
2.600000e-06	-1.196864e-06	-3.686354e-09	-8.641339e+00	-2.435954e+02
2.610000e-06	-1.295146e-06	-4.418012e-09	-9.350930e+00	-2.915573e+02
2.620000e-06	-1.392965e-06	-5.154164e-09	-1.005719e+01	-3.398569e+02
2.630000e-06	-1.490209e-06	-5.892451e-09	-1.075928e+01	-3.881692e+02
2.640000e-06	-1.586902e-06	-6.626258e-09	-1.145741e+01	-4.361200e+02
2.650000e-06	-1.683183e-06	-7.348131e-09	-1.215256e+01	-4.833164e+02
2.660000e-06	-1.779067e-06	-8.053792e-09	-1.284484e+01	-5.293782e+02
2.670000e-06	-1.874323e-06	-8.739124e-09	-1.353258e+01	-5.739672e+02
2.680000e-06	-1.968661e-06	-9.395421e-09	-1.421370e+01	-6.168103e+02
2.690000e-06	-2.062060e-06	-1.001987e-08	-1.488804e+01	-6.577130e+02
2.700000e-06	-2.154689e-06	-1.061490e-08	-1.555682e+01	-6.965634e+02
2.710000e-06	-2.246543e-06	-1.118152e-08	-1.622001e+01	-7.333271e+02
2.720000e-06	-2.337527e-06	-1.171546e-08	-1.687690e+01	-7.680338e+02
2.730000e-06	-2.427612e-06	-1.221555e-08	-1.752732e+01	-8.007606e+02
2.740000e-06	-2.516817e-06	-1.268824e-08	-1.817138e+01	-8.316139e+02
2.750000e-06	-2.605266e-06	-1.313572e-08	-1.880998e+01	-8.607129e+02
2.760000e-06	-2.692993e-06	-1.355789e-08	-1.944337e+01	-8.881767e+02
2.770000e-06	-2.779836e-06	-1.395553e-08	-2.007037e+01	-9.141170e+02
2.780000e-06	-2.865532e-06	-1.433155e-08	-2.068909e+01	-9.386344e+02
2.790000e-06	-2.950030e-06	-1.468572e-08	-2.129917e+01	-9.618188e+02
2.800000e-06	-3.033493e-06	-1.501834e-08	-2.190177e+01	-9.837513e+02
2.810000e-06	-3.116027e-06	-1.533374e-08	-2.249767e+01	-1.004507e+03
2.820000e-06	-3.197566e-06	-1.563501e-08	-2.308638e+01	-1.024158e+03
2.830000e-06	-3.278073e-06	-1.592190e-08	-2.366763e+01	-1.042771e+03
2.840000e-06	-3.357445e-06	-1.619411e-08	-2.424070e+01	-1.060413e+03
2.850000e-06	-3.435432e-06	-1.645184e-08	-2.480376e+01	-1.077142e+03
2.860000e-06	-3.511972e-06	-1.669508e-08	-2.535638e+01	-1.093015e+03
2.870000e-06	-3.587062e-06	-1.692550e-08	-2.589853e+01	-1.108082e+03
2.880000e-06	-3.660734e-06	-1.714559e-08	-2.643044e+01	-1.122388e+03
2.890000e-06	-3.733159e-06	-1.735515e-08	-2.695334e+01	-1.135974e+03
2.900000e-06	-3.804355e-06	-1.755305e-08	-2.746738e+01	-1.148880e+03
2.910000e-06	-3.874067e-06	-1.774218e-08	-2.797070e+01	-1.161146e+03
2.920000e-06	-3.942268e-06	-1.792364e-08	-2.846311e+01	-1.172809e+03
2.930000e-06	-4.009116e-06	-1.809504e-08	-2.894575e+01	-1.183906e+03
2.940000e-06	-4.074541e-06	-1.825631e-08	-2.941812e+01	-1.194470e+03
