# Temperatura_=_79.33
# Concentracion g/m^3_=_28200.0
# C_Vs_to_Am_M_A/Vsm_=_65563218390.804596
# pendiente_HvsI_1/m_=_3716.3
# ordenada_HvsI_A/m_=_1297.0
# frecuencia_Hz_=_301742.5212306497

Tiempo_(s)	Campo_(V.s)	Magnetizacion_(V.s)	Campo_(kA/m)	Magnetizacion_(A/m)
0.000000e+00	-5.320038e-06	-2.564370e-08	-3.830183e+01	-1.678476e+03
1.000000e-08	-5.317569e-06	-2.563720e-08	-3.828406e+01	-1.678010e+03
2.000000e-08	-5.313323e-06	-2.562522e-08	-3.825349e+01	-1.677367e+03
3.000000e-08	-5.307473e-06	-2.561184e-08	-3.821137e+01	-1.676541e+03
4.000000e-08	-5.300043e-06	-2.559619e-08	-3.815788e+01	-1.675519e+03
5.000000e-08	-5.290845e-06	-2.557438e-08	-3.809166e+01	-1.674285e+03
6.000000e-08	-5.279587e-06	-2.554674e-08	-3.801060e+01	-1.672825e+03
7.000000e-08	-5.266453e-06	-2.550761e-08	-3.791605e+01	-1.671130e+03
8.000000e-08	-5.251317e-06	-2.549273e-08	-3.780708e+01	-1.669200e+03
9.000000e-08	-5.233904e-06	-2.552214e-08	-3.768171e+01	-1.667049e+03
1.000000e-07	-5.214435e-06	-2.548214e-08	-3.754154e+01	-1.664697e+03
1.100000e-07	-5.193110e-06	-2.540454e-08	-3.738801e+01	-1.662176e+03
1.200000e-07	-5.170027e-06	-2.534539e-08	-3.722183e+01	-1.659518e+03
1.300000e-07	-5.145458e-06	-2.521283e-08	-3.704494e+01	-1.656753e+03
1.400000e-07	-5.119311e-06	-2.521650e-08	-3.685669e+01	-1.653900e+03
1.500000e-07	-5.091459e-06	-2.528526e-08	-3.665617e+01	-1.650964e+03
1.600000e-07	-5.062122e-06	-2.511581e-08	-3.644496e+01	-1.647936e+03
1.700000e-07	-5.031365e-06	-2.511815e-08	-3.622352e+01	-1.644786e+03
1.800000e-07	-4.998715e-06	-2.512628e-08	-3.598846e+01	-1.641476e+03
1.900000e-07	-4.963972e-06	-2.490604e-08	-3.573832e+01	-1.637960e+03
2.000000e-07	-4.927681e-06	-2.491915e-08	-3.547705e+01	-1.634189e+03
2.100000e-07	-4.889780e-06	-2.489119e-08	-3.520418e+01	-1.630124e+03
2.200000e-07	-4.850131e-06	-2.472684e-08	-3.491872e+01	-1.625733e+03
2.300000e-07	-4.808652e-06	-2.471074e-08	-3.462009e+01	-1.621002e+03
2.400000e-07	-4.765167e-06	-2.461813e-08	-3.430702e+01	-1.615928e+03
2.500000e-07	-4.719922e-06	-2.451087e-08	-3.398127e+01	-1.610519e+03
2.600000e-07	-4.672876e-06	-2.447592e-08	-3.364256e+01	-1.604791e+03
2.700000e-07	-4.623892e-06	-2.433933e-08	-3.328990e+01	-1.598759e+03
2.800000e-07	-4.572867e-06	-2.422926e-08	-3.292255e+01	-1.592439e+03
2.900000e-07	-4.519822e-06	-2.415762e-08	-3.254064e+01	-1.585836e+03
3.000000e-07	-4.465101e-06	-2.405217e-08	-3.214668e+01	-1.578951e+03
3.100000e-07	-4.408849e-06	-2.393281e-08	-3.174169e+01	-1.571777e+03
3.200000e-07	-4.350812e-06	-2.382725e-08	-3.132385e+01	-1.564303e+03
3.300000e-07	-4.291050e-06	-2.371052e-08	-3.089359e+01	-1.556516e+03
3.400000e-07	-4.229845e-06	-2.355624e-08	-3.045295e+01	-1.548405e+03
3.500000e-07	-4.167215e-06	-2.344228e-08	-3.000204e+01	-1.539964e+03
3.600000e-07	-4.103208e-06	-2.331929e-08	-2.954122e+01	-1.531190e+03
3.700000e-07	-4.037716e-06	-2.317805e-08	-2.906971e+01	-1.522081e+03
3.800000e-07	-3.970549e-06	-2.304410e-08	-2.858614e+01	-1.512638e+03
3.900000e-07	-3.901892e-06	-2.286701e-08	-2.809183e+01	-1.502860e+03
4.000000e-07	-3.832023e-06	-2.270749e-08	-2.758881e+01	-1.492739e+03
4.100000e-07	-3.760961e-06	-2.256633e-08	-2.707720e+01	-1.482264e+03
4.200000e-07	-3.688693e-06	-2.240414e-08	-2.655690e+01	-1.471417e+03
4.300000e-07	-3.615000e-06	-2.223085e-08	-2.602635e+01	-1.460177e+03
4.400000e-07	-3.539648e-06	-2.205083e-08	-2.548384e+01	-1.448520e+03
4.500000e-07	-3.462876e-06	-2.186359e-08	-2.493112e+01	-1.436423e+03
4.600000e-07	-3.384874e-06	-2.166762e-08	-2.436954e+01	-1.423866e+03
4.700000e-07	-3.305529e-06	-2.147893e-08	-2.379829e+01	-1.410832e+03
4.800000e-07	-3.224772e-06	-2.127905e-08	-2.321688e+01	-1.397307e+03
4.900000e-07	-3.142798e-06	-2.105566e-08	-2.262671e+01	-1.383278e+03
5.000000e-07	-3.059767e-06	-2.082638e-08	-2.202892e+01	-1.368728e+03
5.100000e-07	-2.975800e-06	-2.059086e-08	-2.142440e+01	-1.353639e+03
5.200000e-07	-2.891044e-06	-2.035331e-08	-2.081419e+01	-1.337986e+03
5.300000e-07	-2.805357e-06	-2.011029e-08	-2.019728e+01	-1.321738e+03
5.400000e-07	-2.718701e-06	-1.985595e-08	-1.957340e+01	-1.304860e+03
5.500000e-07	-2.631153e-06	-1.959096e-08	-1.894310e+01	-1.287313e+03
5.600000e-07	-2.542656e-06	-1.930766e-08	-1.830596e+01	-1.269057e+03
5.700000e-07	-2.453074e-06	-1.901450e-08	-1.766101e+01	-1.250053e+03
5.800000e-07	-2.362283e-06	-1.871384e-08	-1.700736e+01	-1.230264e+03
5.900000e-07	-2.270536e-06	-1.840015e-08	-1.634682e+01	-1.209652e+03
6.000000e-07	-2.178148e-06	-1.806936e-08	-1.568167e+01	-1.188179e+03
6.100000e-07	-2.085047e-06	-1.772692e-08	-1.501138e+01	-1.165801e+03
6.200000e-07	-1.991090e-06	-1.737293e-08	-1.433494e+01	-1.142465e+03
6.300000e-07	-1.896382e-06	-1.699977e-08	-1.365308e+01	-1.118109e+03
6.400000e-07	-1.801071e-06	-1.660978e-08	-1.296689e+01	-1.092658e+03
6.500000e-07	-1.705181e-06	-1.620285e-08	-1.227652e+01	-1.066028e+03
6.600000e-07	-1.608754e-06	-1.577751e-08	-1.158229e+01	-1.038123e+03
6.700000e-07	-1.511760e-06	-1.533178e-08	-1.088398e+01	-1.008846e+03
6.800000e-07	-1.414067e-06	-1.486322e-08	-1.018064e+01	-9.780931e+02
6.900000e-07	-1.315745e-06	-1.436976e-08	-9.472762e+00	-9.457653e+02
7.000000e-07	-1.216884e-06	-1.385003e-08	-8.761009e+00	-9.117660e+02
7.100000e-07	-1.117537e-06	-1.330309e-08	-8.045752e+00	-8.760055e+02
7.200000e-07	-1.017799e-06	-1.273023e-08	-7.327688e+00	-8.384031e+02
7.300000e-07	-9.178032e-07	-1.213082e-08	-6.607762e+00	-7.988915e+02
7.400000e-07	-8.176339e-07	-1.150038e-08	-5.886589e+00	-7.574229e+02
7.500000e-07	-7.172347e-07	-1.083821e-08	-5.163761e+00	-7.139766e+02
7.600000e-07	-6.166256e-07	-1.014175e-08	-4.439422e+00	-6.685693e+02
7.700000e-07	-5.158508e-07	-9.417307e-09	-3.713889e+00	-6.212638e+02
7.800000e-07	-4.149014e-07	-8.671556e-09	-2.987100e+00	-5.721763e+02
7.900000e-07	-3.138346e-07	-7.901417e-09	-2.259465e+00	-5.214775e+02
8.000000e-07	-2.126698e-07	-7.107524e-09	-1.531125e+00	-4.693869e+02
8.100000e-07	-1.113789e-07	-6.295059e-09	-8.018771e-01	-4.161579e+02
8.200000e-07	-1.002283e-08	-5.472109e-09	-7.215976e-02	-3.620552e+02
8.300000e-07	9.136311e-08	-4.641191e-09	6.577725e-01	-3.073259e+02
8.400000e-07	1.928218e-07	-3.804331e-09	1.388229e+00	-2.521695e+02
8.500000e-07	2.942698e-07	-2.963327e-09	2.118608e+00	-1.967111e+02
8.600000e-07	3.955871e-07	-2.116589e-09	2.848046e+00	-1.409844e+02
8.700000e-07	4.967736e-07	-1.262725e-09	3.576542e+00	-8.492789e+01
8.800000e-07	5.977961e-07	-4.009881e-10	4.303858e+00	-2.839784e+01
8.900000e-07	6.986393e-07	4.717495e-10	5.029883e+00	2.880313e+01
9.000000e-07	7.992574e-07	1.355660e-09	5.754286e+00	8.688473e+01
9.100000e-07	8.996278e-07	2.252417e-09	6.476908e+00	1.460211e+02
9.200000e-07	9.997447e-07	3.165943e-09	7.197704e+00	2.063037e+02
9.300000e-07	1.099619e-06	4.099562e-09	7.916751e+00	2.677034e+02
9.400000e-07	1.199171e-06	5.051137e-09	8.633482e+00	3.300482e+02
9.500000e-07	1.298235e-06	6.012322e-09	9.346698e+00	3.930200e+02
9.600000e-07	1.396763e-06	6.976484e-09	1.005605e+01	4.561735e+02
9.700000e-07	1.494640e-06	7.934523e-09	1.076072e+01	5.189722e+02
9.800000e-07	1.591717e-06	8.877206e-09	1.145963e+01	5.808367e+02
9.900000e-07	1.688060e-06	9.794997e-09	1.215326e+01	6.411985e+02
1.000000e-06	1.783772e-06	1.068131e-08	1.284234e+01	6.995492e+02
1.010000e-06	1.878864e-06	1.153091e-08	1.352696e+01	7.554805e+02
1.020000e-06	1.973344e-06	1.233832e-08	1.420717e+01	8.087071e+02
1.030000e-06	2.067120e-06	1.310150e-08	1.488232e+01	8.590732e+02
1.040000e-06	2.160129e-06	1.381998e-08	1.555193e+01	9.065430e+02
1.050000e-06	2.252486e-06	1.449546e-08	1.621687e+01	9.511778e+02
1.060000e-06	2.344254e-06	1.512969e-08	1.687755e+01	9.931073e+02
1.070000e-06	2.435184e-06	1.572816e-08	1.753221e+01	1.032499e+03
1.080000e-06	2.524981e-06	1.629279e-08	1.817871e+01	1.069534e+03
1.090000e-06	2.613675e-06	1.682355e-08	1.881726e+01	1.104386e+03
1.100000e-06	2.701463e-06	1.732140e-08	1.944929e+01	1.137212e+03
1.110000e-06	2.788367e-06	1.779021e-08	2.007497e+01	1.168151e+03
1.120000e-06	2.874308e-06	1.823267e-08	2.069370e+01	1.197327e+03
1.130000e-06	2.959283e-06	1.865005e-08	2.130548e+01	1.224855e+03
1.140000e-06	3.043399e-06	1.904578e-08	2.191108e+01	1.250845e+03
1.150000e-06	3.126672e-06	1.941914e-08	2.251060e+01	1.275408e+03
1.160000e-06	3.208850e-06	1.977300e-08	2.310225e+01	1.298652e+03
1.170000e-06	3.289762e-06	2.010926e-08	2.368478e+01	1.320683e+03
1.180000e-06	3.369457e-06	2.042928e-08	2.425855e+01	1.341595e+03
1.190000e-06	3.447971e-06	2.073238e-08	2.482381e+01	1.361470e+03
1.200000e-06	3.525247e-06	2.101834e-08	2.538016e+01	1.380375e+03
1.210000e-06	3.601271e-06	2.129001e-08	2.592750e+01	1.398362e+03
1.220000e-06	3.675927e-06	2.154830e-08	2.646499e+01	1.415469e+03
1.230000e-06	3.749015e-06	2.179315e-08	2.699119e+01	1.431731e+03
1.240000e-06	3.820653e-06	2.202684e-08	2.750695e+01	1.447179e+03
1.250000e-06	3.890932e-06	2.225097e-08	2.801293e+01	1.461851e+03
1.260000e-06	3.959878e-06	2.246477e-08	2.850931e+01	1.475790e+03
1.270000e-06	4.027516e-06	2.266604e-08	2.899627e+01	1.489046e+03
1.280000e-06	4.093582e-06	2.285548e-08	2.947191e+01	1.501672e+03
1.290000e-06	4.157951e-06	2.303672e-08	2.993534e+01	1.513718e+03
1.300000e-06	4.220834e-06	2.321023e-08	3.038807e+01	1.525225e+03
1.310000e-06	4.282322e-06	2.337723e-08	3.083075e+01	1.536223e+03
1.320000e-06	4.342524e-06	2.353749e-08	3.126418e+01	1.546727e+03
1.330000e-06	4.401281e-06	2.369248e-08	3.168721e+01	1.556739e+03
1.340000e-06	4.458230e-06	2.384177e-08	3.209721e+01	1.566254e+03
1.350000e-06	4.513458e-06	2.398218e-08	3.249483e+01	1.575263e+03
1.360000e-06	4.567096e-06	2.411295e-08	3.288099e+01	1.583764e+03
1.370000e-06	4.618959e-06	2.423270e-08	3.325438e+01	1.591763e+03
1.380000e-06	4.668752e-06	2.434475e-08	3.361287e+01	1.599278e+03
1.390000e-06	4.716611e-06	2.445149e-08	3.395743e+01	1.606341e+03
1.400000e-06	4.762823e-06	2.455390e-08	3.429014e+01	1.612992e+03
1.410000e-06	4.807524e-06	2.465077e-08	3.461197e+01	1.619275e+03
1.420000e-06	4.850646e-06	2.474112e-08	3.492243e+01	1.625230e+03
1.430000e-06	4.891902e-06	2.482769e-08	3.521945e+01	1.630890e+03
1.440000e-06	4.931395e-06	2.490930e-08	3.550378e+01	1.636276e+03
1.450000e-06	4.969263e-06	2.498529e-08	3.577642e+01	1.641393e+03
1.460000e-06	5.005553e-06	2.505753e-08	3.603768e+01	1.646237e+03
1.470000e-06	5.040048e-06	2.512735e-08	3.628603e+01	1.650796e+03
1.480000e-06	5.072554e-06	2.519234e-08	3.652006e+01	1.655055e+03
1.490000e-06	5.103356e-06	2.525144e-08	3.674182e+01	1.658999e+03
1.500000e-06	5.132565e-06	2.530530e-08	3.695212e+01	1.662624e+03
1.510000e-06	5.160053e-06	2.535587e-08	3.715002e+01	1.665929e+03
1.520000e-06	5.185526e-06	2.540322e-08	3.733341e+01	1.668924e+03
1.530000e-06	5.208972e-06	2.544631e-08	3.750221e+01	1.671623e+03
1.540000e-06	5.230608e-06	2.548505e-08	3.765798e+01	1.674044e+03
1.550000e-06	5.250569e-06	2.551815e-08	3.780169e+01	1.676201e+03
1.560000e-06	5.268677e-06	2.554524e-08	3.793206e+01	1.678107e+03
1.570000e-06	5.284739e-06	2.556697e-08	3.804770e+01	1.679769e+03
1.580000e-06	5.298872e-06	2.558580e-08	3.814945e+01	1.681189e+03
1.590000e-06	5.311027e-06	2.560384e-08	3.823696e+01	1.682368e+03
1.600000e-06	5.320988e-06	2.561934e-08	3.830867e+01	1.683305e+03
1.610000e-06	5.328838e-06	2.563133e-08	3.836519e+01	1.684003e+03
1.620000e-06	5.334852e-06	2.564082e-08	3.840849e+01	1.684468e+03
1.630000e-06	5.339150e-06	2.564601e-08	3.843943e+01	1.684711e+03
1.640000e-06	5.341575e-06	2.564853e-08	3.845689e+01	1.684746e+03
1.650000e-06	5.342007e-06	2.564892e-08	3.846000e+01	1.684587e+03
1.660000e-06	5.340606e-06	2.564205e-08	3.844991e+01	1.684246e+03
1.670000e-06	5.337557e-06	2.563346e-08	3.842796e+01	1.683729e+03
1.680000e-06	5.332841e-06	2.562426e-08	3.839401e+01	1.683033e+03
1.690000e-06	5.326224e-06	2.561215e-08	3.834637e+01	1.682151e+03
1.700000e-06	5.317828e-06	2.559777e-08	3.828592e+01	1.681069e+03
1.710000e-06	5.307875e-06	2.558129e-08	3.821427e+01	1.679771e+03
1.720000e-06	5.296277e-06	2.557549e-08	3.813076e+01	1.678243e+03
1.730000e-06	5.282724e-06	2.555131e-08	3.803319e+01	1.676479e+03
1.740000e-06	5.267130e-06	2.544651e-08	3.792092e+01	1.674483e+03
1.750000e-06	5.249361e-06	2.540885e-08	3.779299e+01	1.672271e+03
1.760000e-06	5.228990e-06	2.541082e-08	3.764633e+01	1.669866e+03
1.770000e-06	5.206171e-06	2.540638e-08	3.748204e+01	1.667302e+03
1.780000e-06	5.181850e-06	2.546954e-08	3.730695e+01	1.664609e+03
1.790000e-06	5.156784e-06	2.530330e-08	3.712648e+01	1.661816e+03
1.800000e-06	5.130520e-06	2.519349e-08	3.693739e+01	1.658939e+03
1.810000e-06	5.102171e-06	2.528584e-08	3.673329e+01	1.655977e+03
1.820000e-06	5.071907e-06	2.510543e-08	3.651541e+01	1.652916e+03
1.830000e-06	5.040008e-06	2.509276e-08	3.628575e+01	1.649724e+03
1.840000e-06	5.006206e-06	2.520954e-08	3.604239e+01	1.646359e+03
1.850000e-06	4.970835e-06	2.499003e-08	3.578774e+01	1.642773e+03
1.860000e-06	4.933820e-06	2.498750e-08	3.552124e+01	1.638921e+03
1.870000e-06	4.894792e-06	2.500171e-08	3.524026e+01	1.634764e+03
1.880000e-06	4.854073e-06	2.482758e-08	3.494710e+01	1.630276e+03
1.890000e-06	4.811635e-06	2.485592e-08	3.464156e+01	1.625446e+03
1.900000e-06	4.767491e-06	2.470415e-08	3.432375e+01	1.620273e+03
1.910000e-06	4.721594e-06	2.460446e-08	3.399331e+01	1.614770e+03
1.920000e-06	4.673745e-06	2.465254e-08	3.364882e+01	1.608952e+03
1.930000e-06	4.624281e-06	2.445567e-08	3.329270e+01	1.602836e+03
1.940000e-06	4.573122e-06	2.437713e-08	3.292438e+01	1.596433e+03
1.950000e-06	4.519923e-06	2.429631e-08	3.254137e+01	1.589749e+03
1.960000e-06	4.464829e-06	2.416866e-08	3.214472e+01	1.582781e+03
1.970000e-06	4.408052e-06	2.407452e-08	3.173595e+01	1.575522e+03
1.980000e-06	4.349699e-06	2.390104e-08	3.131584e+01	1.567958e+03
1.990000e-06	4.289914e-06	2.385537e-08	3.088541e+01	1.560078e+03
2.000000e-06	4.228641e-06	2.372114e-08	3.044427e+01	1.551873e+03
2.010000e-06	4.165641e-06	2.355185e-08	2.999070e+01	1.543336e+03
2.020000e-06	4.100968e-06	2.343640e-08	2.952509e+01	1.534464e+03
2.030000e-06	4.034930e-06	2.327324e-08	2.904964e+01	1.525259e+03
2.040000e-06	3.967606e-06	2.319035e-08	2.856495e+01	1.515719e+03
2.050000e-06	3.898918e-06	2.301295e-08	2.807042e+01	1.505843e+03
2.060000e-06	3.828705e-06	2.284453e-08	2.756492e+01	1.495621e+03
2.070000e-06	3.757049e-06	2.270453e-08	2.704903e+01	1.485041e+03
2.080000e-06	3.684148e-06	2.250354e-08	2.652418e+01	1.474083e+03
2.090000e-06	3.609942e-06	2.234569e-08	2.598992e+01	1.462725e+03
2.100000e-06	3.534347e-06	2.215994e-08	2.544568e+01	1.450943e+03
2.110000e-06	3.457189e-06	2.199043e-08	2.489017e+01	1.438715e+03
2.120000e-06	3.378501e-06	2.178962e-08	2.432366e+01	1.426023e+03
2.130000e-06	3.298603e-06	2.157638e-08	2.374843e+01	1.412849e+03
2.140000e-06	3.217598e-06	2.138047e-08	2.316523e+01	1.399180e+03
2.150000e-06	3.135503e-06	2.115989e-08	2.257419e+01	1.385002e+03
2.160000e-06	3.052373e-06	2.095342e-08	2.197568e+01	1.370299e+03
2.170000e-06	2.968310e-06	2.071909e-08	2.137047e+01	1.355051e+03
2.180000e-06	2.883173e-06	2.047733e-08	2.075752e+01	1.339230e+03
2.190000e-06	2.796746e-06	2.022071e-08	2.013529e+01	1.322805e+03
2.200000e-06	2.709192e-06	1.995422e-08	1.950494e+01	1.305738e+03
2.210000e-06	2.620684e-06	1.969049e-08	1.886772e+01	1.287991e+03
2.220000e-06	2.531278e-06	1.940647e-08	1.822404e+01	1.269524e+03
2.230000e-06	2.440972e-06	1.911253e-08	1.757388e+01	1.250299e+03
2.240000e-06	2.349909e-06	1.880691e-08	1.691827e+01	1.230277e+03
2.250000e-06	2.258187e-06	1.849932e-08	1.625791e+01	1.209422e+03
2.260000e-06	2.165684e-06	1.817013e-08	1.559193e+01	1.187694e+03
2.270000e-06	2.072259e-06	1.782374e-08	1.491932e+01	1.165047e+03
2.280000e-06	1.977850e-06	1.746479e-08	1.423962e+01	1.141425e+03
2.290000e-06	1.882553e-06	1.708508e-08	1.355352e+01	1.116764e+03
2.300000e-06	1.786641e-06	1.668862e-08	1.286300e+01	1.090984e+03
2.310000e-06	1.690279e-06	1.627589e-08	1.216923e+01	1.063998e+03
2.320000e-06	1.593372e-06	1.584997e-08	1.147155e+01	1.035711e+03
2.330000e-06	1.495914e-06	1.539985e-08	1.076990e+01	1.006021e+03
2.340000e-06	1.397988e-06	1.492351e-08	1.006487e+01	9.748269e+02
2.350000e-06	1.299645e-06	1.442314e-08	9.356851e+00	9.420300e+02
2.360000e-06	1.200941e-06	1.389961e-08	8.646221e+00	9.075352e+02
2.370000e-06	1.101903e-06	1.334768e-08	7.933193e+00	8.712550e+02
2.380000e-06	1.002597e-06	1.276469e-08	7.218236e+00	8.331121e+02
2.390000e-06	9.030351e-07	1.215198e-08	6.501439e+00	7.930440e+02
2.400000e-06	8.032264e-07	1.150923e-08	5.782862e+00	7.510098e+02
2.410000e-06	7.031850e-07	1.083798e-08	5.062610e+00	7.069985e+02
2.420000e-06	6.028412e-07	1.013513e-08	4.340180e+00	6.610390e+02
2.430000e-06	5.022183e-07	9.406529e-09	3.615741e+00	6.132090e+02
2.440000e-06	4.014217e-07	8.653704e-09	2.890052e+00	5.636402e+02
2.450000e-06	3.004772e-07	7.874254e-09	2.163298e+00	5.125183e+02
2.460000e-06	1.993999e-07	7.071319e-09	1.435588e+00	4.600744e+02
2.470000e-06	9.824204e-08	6.252250e-09	7.072977e-01	4.065678e+02
2.480000e-06	-3.006960e-09	5.422630e-09	-2.164873e-02	3.522612e+02
2.490000e-06	-1.042786e-07	4.582451e-09	-7.507578e-01	2.973912e+02
2.500000e-06	-2.054976e-07	3.734697e-09	-1.479489e+00	2.421383e+02
2.510000e-06	-3.065790e-07	2.882679e-09	-2.207228e+00	1.866029e+02
2.520000e-06	-4.074984e-07	2.029225e-09	-2.933802e+00	1.307910e+02
2.530000e-06	-5.083209e-07	1.171815e-09	-3.659677e+00	7.461571e+01
2.540000e-06	-6.089821e-07	3.054260e-10	-4.384392e+00	1.791434e+01
2.550000e-06	-7.094030e-07	-5.725028e-10	-5.107376e+00	-3.951865e+01
2.560000e-06	-8.095198e-07	-1.465135e-09	-5.828171e+00	-9.788779e+01
2.570000e-06	-9.093674e-07	-2.375548e-09	-6.547028e+00	-1.573481e+02
2.580000e-06	-1.008966e-06	-3.302105e-09	-7.264096e+00	-2.179601e+02
2.590000e-06	-1.108258e-06	-4.243921e-09	-7.978948e+00	-2.796551e+02
2.600000e-06	-1.207184e-06	-5.198916e-09	-8.691172e+00	-3.422187e+02
2.610000e-06	-1.305693e-06	-6.160670e-09	-9.400388e+00	-4.052938e+02
2.620000e-06	-1.403709e-06	-7.122133e-09	-1.010606e+01	-4.684048e+02
2.630000e-06	-1.501164e-06	-8.077042e-09	-1.080770e+01	-5.309974e+02
2.640000e-06	-1.598107e-06	-9.017358e-09	-1.150564e+01	-5.924900e+02
2.650000e-06	-1.694573e-06	-9.933214e-09	-1.220015e+01	-6.523264e+02
2.660000e-06	-1.790523e-06	-1.081705e-08	-1.289095e+01	-7.100237e+02
2.670000e-06	-1.885940e-06	-1.166404e-08	-1.357790e+01	-7.652068e+02
2.680000e-06	-1.980690e-06	-1.246736e-08	-1.426006e+01	-8.176276e+02
2.690000e-06	-2.074518e-06	-1.322384e-08	-1.493558e+01	-8.671663e+02
2.700000e-06	-2.167343e-06	-1.393764e-08	-1.560388e+01	-9.138174e+02
2.710000e-06	-2.259297e-06	-1.461063e-08	-1.626591e+01	-9.576650e+02
2.720000e-06	-2.350460e-06	-1.524375e-08	-1.692223e+01	-9.988526e+02
2.730000e-06	-2.440789e-06	-1.583846e-08	-1.757256e+01	-1.037554e+03
2.740000e-06	-2.530257e-06	-1.639895e-08	-1.821669e+01	-1.073949e+03
2.750000e-06	-2.618886e-06	-1.692592e-08	-1.885478e+01	-1.108208e+03
2.760000e-06	-2.706774e-06	-1.741946e-08	-1.948753e+01	-1.140483e+03
2.770000e-06	-2.793854e-06	-1.788358e-08	-2.011447e+01	-1.170907e+03
2.780000e-06	-2.879835e-06	-1.832058e-08	-2.073349e+01	-1.199602e+03
2.790000e-06	-2.964568e-06	-1.873176e-08	-2.134353e+01	-1.226680e+03
2.800000e-06	-3.048206e-06	-1.912136e-08	-2.194569e+01	-1.252253e+03
2.810000e-06	-3.130832e-06	-1.949243e-08	-2.254056e+01	-1.276429e+03
2.820000e-06	-3.212385e-06	-1.984420e-08	-2.312770e+01	-1.299317e+03
2.830000e-06	-3.292916e-06	-2.017655e-08	-2.370748e+01	-1.321020e+03
2.840000e-06	-3.372426e-06	-2.049156e-08	-2.427992e+01	-1.341629e+03
2.850000e-06	-3.450718e-06	-2.079334e-08	-2.484359e+01	-1.361223e+03
2.860000e-06	-3.527514e-06	-2.108215e-08	-2.539648e+01	-1.379862e+03
2.870000e-06	-3.602775e-06	-2.135417e-08	-2.593833e+01	-1.397595e+03
2.880000e-06	-3.676650e-06	-2.160927e-08	-2.647020e+01	-1.414459e+03
2.890000e-06	-3.749211e-06	-2.185129e-08	-2.699260e+01	-1.430485e+03
2.900000e-06	-3.820490e-06	-2.208457e-08	-2.750578e+01	-1.445709e+03
2.910000e-06	-3.890292e-06	-2.230831e-08	-2.800832e+01	-1.460168e+03
2.920000e-06	-3.958584e-06	-2.252122e-08	-2.849999e+01	-1.473907e+03
2.930000e-06	-4.025491e-06	-2.272454e-08	-2.898169e+01	-1.486980e+03
2.940000e-06	-4.090957e-06	-2.291654e-08	-2.945301e+01	-1.499436e+03
