# Temperatura_=_76.54
# Concentracion g/m^3_=_28200.0
# C_Vs_to_Am_M_A/Vsm_=_65563218390.804596
# pendiente_HvsI_1/m_=_3716.3
# ordenada_HvsI_A/m_=_1297.0
# frecuencia_Hz_=_301741.68674301176

Tiempo_(s)	Campo_(V.s)	Magnetizacion_(V.s)	Campo_(kA/m)	Magnetizacion_(A/m)
0.000000e+00	-5.322415e-06	-2.460264e-08	-3.829846e+01	-1.609797e+03
1.000000e-08	-5.320056e-06	-2.460076e-08	-3.828149e+01	-1.609329e+03
2.000000e-08	-5.315840e-06	-2.458915e-08	-3.825115e+01	-1.608693e+03
3.000000e-08	-5.310007e-06	-2.457652e-08	-3.820918e+01	-1.607883e+03
4.000000e-08	-5.302614e-06	-2.456123e-08	-3.815598e+01	-1.606888e+03
5.000000e-08	-5.293582e-06	-2.453818e-08	-3.809099e+01	-1.605687e+03
6.000000e-08	-5.282510e-06	-2.450983e-08	-3.801132e+01	-1.604260e+03
7.000000e-08	-5.269477e-06	-2.446910e-08	-3.791754e+01	-1.602593e+03
8.000000e-08	-5.254464e-06	-2.444514e-08	-3.780951e+01	-1.600681e+03
9.000000e-08	-5.237177e-06	-2.449646e-08	-3.768511e+01	-1.598537e+03
1.000000e-07	-5.217792e-06	-2.446756e-08	-3.754562e+01	-1.596191e+03
1.100000e-07	-5.196521e-06	-2.437049e-08	-3.739257e+01	-1.593686e+03
1.200000e-07	-5.173497e-06	-2.432550e-08	-3.722689e+01	-1.591071e+03
1.300000e-07	-5.149027e-06	-2.419108e-08	-3.705082e+01	-1.588392e+03
1.400000e-07	-5.123038e-06	-2.415836e-08	-3.686381e+01	-1.585683e+03
1.500000e-07	-5.095313e-06	-2.429722e-08	-3.666431e+01	-1.582953e+03
1.600000e-07	-5.066068e-06	-2.409127e-08	-3.645387e+01	-1.580189e+03
1.700000e-07	-5.035406e-06	-2.404856e-08	-3.623323e+01	-1.577351e+03
1.800000e-07	-5.002865e-06	-2.415151e-08	-3.599908e+01	-1.574378e+03
1.900000e-07	-4.968199e-06	-2.388435e-08	-3.574963e+01	-1.571199e+03
2.000000e-07	-4.931961e-06	-2.389883e-08	-3.548887e+01	-1.567744e+03
2.100000e-07	-4.894150e-06	-2.395165e-08	-3.521680e+01	-1.563955e+03
2.200000e-07	-4.854584e-06	-2.374321e-08	-3.493209e+01	-1.559794e+03
2.300000e-07	-4.813197e-06	-2.371154e-08	-3.463429e+01	-1.555250e+03
2.400000e-07	-4.769771e-06	-2.361924e-08	-3.432180e+01	-1.550334e+03
2.500000e-07	-4.724545e-06	-2.347850e-08	-3.399637e+01	-1.545073e+03
2.600000e-07	-4.677588e-06	-2.350091e-08	-3.365849e+01	-1.539506e+03
2.700000e-07	-4.628709e-06	-2.337086e-08	-3.330677e+01	-1.533667e+03
2.800000e-07	-4.577728e-06	-2.324015e-08	-3.293992e+01	-1.527583e+03
2.900000e-07	-4.524703e-06	-2.315597e-08	-3.255837e+01	-1.521264e+03
3.000000e-07	-4.469951e-06	-2.305400e-08	-3.216439e+01	-1.514704e+03
3.100000e-07	-4.413670e-06	-2.295967e-08	-3.175941e+01	-1.507885e+03
3.200000e-07	-4.355585e-06	-2.286150e-08	-3.134145e+01	-1.500782e+03
3.300000e-07	-4.295810e-06	-2.276928e-08	-3.091133e+01	-1.493369e+03
3.400000e-07	-4.234701e-06	-2.261439e-08	-3.047161e+01	-1.485627e+03
3.500000e-07	-4.172174e-06	-2.248291e-08	-3.002168e+01	-1.477545e+03
3.600000e-07	-4.108280e-06	-2.235345e-08	-2.956192e+01	-1.469125e+03
3.700000e-07	-4.042853e-06	-2.222549e-08	-2.909113e+01	-1.460375e+03
3.800000e-07	-3.975778e-06	-2.212995e-08	-2.860848e+01	-1.451305e+03
3.900000e-07	-3.907228e-06	-2.196431e-08	-2.811521e+01	-1.441921e+03
4.000000e-07	-3.837346e-06	-2.179435e-08	-2.761236e+01	-1.432224e+03
4.100000e-07	-3.766237e-06	-2.165503e-08	-2.710068e+01	-1.422201e+03
4.200000e-07	-3.693993e-06	-2.149186e-08	-2.658084e+01	-1.411830e+03
4.300000e-07	-3.620341e-06	-2.133141e-08	-2.605086e+01	-1.401083e+03
4.400000e-07	-3.545045e-06	-2.116242e-08	-2.550905e+01	-1.389929e+03
4.500000e-07	-3.468337e-06	-2.098401e-08	-2.495709e+01	-1.378341e+03
4.600000e-07	-3.390348e-06	-2.079009e-08	-2.439590e+01	-1.366295e+03
4.700000e-07	-3.310963e-06	-2.060411e-08	-2.382467e+01	-1.353779e+03
4.800000e-07	-3.230224e-06	-2.042074e-08	-2.324370e+01	-1.340784e+03
4.900000e-07	-3.148305e-06	-2.020743e-08	-2.265424e+01	-1.327305e+03
5.000000e-07	-3.065299e-06	-1.999236e-08	-2.205695e+01	-1.313334e+03
5.100000e-07	-2.981405e-06	-1.976638e-08	-2.145327e+01	-1.298859e+03
5.200000e-07	-2.896622e-06	-1.953665e-08	-2.084320e+01	-1.283857e+03
5.300000e-07	-2.810854e-06	-1.929933e-08	-2.022604e+01	-1.268296e+03
5.400000e-07	-2.724127e-06	-1.905363e-08	-1.960198e+01	-1.252135e+03
5.500000e-07	-2.636538e-06	-1.880294e-08	-1.897171e+01	-1.235329e+03
5.600000e-07	-2.548074e-06	-1.853084e-08	-1.833516e+01	-1.217834e+03
5.700000e-07	-2.458423e-06	-1.825166e-08	-1.769006e+01	-1.199608e+03
5.800000e-07	-2.367564e-06	-1.796685e-08	-1.703626e+01	-1.180615e+03
5.900000e-07	-2.275848e-06	-1.767363e-08	-1.637630e+01	-1.160824e+03
6.000000e-07	-2.183414e-06	-1.735680e-08	-1.571117e+01	-1.140201e+03
6.100000e-07	-2.090277e-06	-1.702280e-08	-1.504099e+01	-1.118714e+03
6.200000e-07	-1.996402e-06	-1.667741e-08	-1.436549e+01	-1.096317e+03
6.300000e-07	-1.901791e-06	-1.631750e-08	-1.368470e+01	-1.072954e+03
6.400000e-07	-1.806577e-06	-1.594728e-08	-1.299957e+01	-1.048556e+03
6.500000e-07	-1.710829e-06	-1.555921e-08	-1.231060e+01	-1.023037e+03
6.600000e-07	-1.614455e-06	-1.515040e-08	-1.161712e+01	-9.963023e+02
6.700000e-07	-1.517384e-06	-1.471962e-08	-1.091863e+01	-9.682519e+02
6.800000e-07	-1.419628e-06	-1.427136e-08	-1.021521e+01	-9.387835e+02
6.900000e-07	-1.321193e-06	-1.380040e-08	-9.506899e+00	-9.077983e+02
7.000000e-07	-1.222200e-06	-1.330560e-08	-8.794572e+00	-8.752043e+02
7.100000e-07	-1.122827e-06	-1.278407e-08	-8.079520e+00	-8.409181e+02
7.200000e-07	-1.023154e-06	-1.223343e-08	-7.362305e+00	-8.048676e+02
7.300000e-07	-9.232153e-07	-1.165596e-08	-6.643174e+00	-7.669942e+02
7.400000e-07	-8.230359e-07	-1.105002e-08	-5.922313e+00	-7.272578e+02
7.500000e-07	-7.226016e-07	-1.041757e-08	-5.199619e+00	-6.856433e+02
7.600000e-07	-6.219471e-07	-9.753476e-09	-4.475340e+00	-6.421694e+02
7.700000e-07	-5.211414e-07	-9.062654e-09	-3.749974e+00	-5.968973e+02
7.800000e-07	-4.201742e-07	-8.350203e-09	-3.023445e+00	-5.499371e+02
7.900000e-07	-3.190246e-07	-7.615116e-09	-2.295603e+00	-5.014498e+02
8.000000e-07	-2.177121e-07	-6.856434e-09	-1.566589e+00	-4.516424e+02
8.100000e-07	-1.163283e-07	-6.080896e-09	-8.370630e-01	-4.007538e+02
8.200000e-07	-1.490403e-08	-5.293498e-09	-1.072448e-01	-3.490342e+02
8.300000e-07	8.659248e-08	-4.494544e-09	6.230929e-01	-2.967179e+02
8.400000e-07	1.880974e-07	-3.691499e-09	1.353491e+00	-2.439946e+02
8.500000e-07	2.895555e-07	-2.885024e-09	2.083552e+00	-1.909853e+02
8.600000e-07	3.909371e-07	-2.073850e-09	2.813064e+00	-1.377253e+02
8.700000e-07	4.921738e-07	-1.256522e-09	3.541531e+00	-8.416153e+01
8.800000e-07	5.932467e-07	-4.342709e-10	4.268821e+00	-3.016363e+01
8.900000e-07	6.941875e-07	3.968537e-10	4.995160e+00	2.444920e+01
9.000000e-07	7.949121e-07	1.239986e-09	5.719943e+00	7.987063e+01
9.100000e-07	8.953946e-07	2.098356e-09	6.442984e+00	1.362633e+02
9.200000e-07	9.955689e-07	2.972698e-09	7.163808e+00	1.937160e+02
9.300000e-07	1.095411e-06	3.862540e-09	7.882239e+00	2.522088e+02
9.400000e-07	1.194963e-06	4.768874e-09	8.598588e+00	3.115918e+02
9.500000e-07	1.294144e-06	5.683548e-09	9.312260e+00	3.715822e+02
9.600000e-07	1.392782e-06	6.598629e-09	1.002203e+01	4.317788e+02
9.700000e-07	1.490690e-06	7.508596e-09	1.072655e+01	4.916936e+02
9.800000e-07	1.587796e-06	8.408065e-09	1.142529e+01	5.507939e+02
9.900000e-07	1.684165e-06	9.286381e-09	1.211873e+01	6.085495e+02
1.000000e-06	1.779921e-06	1.013580e-08	1.280776e+01	6.644776e+02
1.010000e-06	1.875080e-06	1.095232e-08	1.349250e+01	7.181794e+02
1.020000e-06	1.969582e-06	1.173086e-08	1.417251e+01	7.693642e+02
1.030000e-06	2.063382e-06	1.246767e-08	1.484746e+01	8.178582e+02
1.040000e-06	2.156516e-06	1.316018e-08	1.551763e+01	8.636002e+02
1.050000e-06	2.248986e-06	1.381289e-08	1.618301e+01	9.066246e+02
1.060000e-06	2.340785e-06	1.442579e-08	1.684357e+01	9.470385e+02
1.070000e-06	2.431776e-06	1.500226e-08	1.749831e+01	9.849948e+02
1.080000e-06	2.521736e-06	1.554417e-08	1.814563e+01	1.020668e+03
1.090000e-06	2.610653e-06	1.605379e-08	1.878545e+01	1.054235e+03
1.100000e-06	2.698625e-06	1.653142e-08	1.941848e+01	1.085861e+03
1.110000e-06	2.785687e-06	1.698281e-08	2.004495e+01	1.115692e+03
1.120000e-06	2.871766e-06	1.741061e-08	2.066435e+01	1.143856e+03
1.130000e-06	2.956896e-06	1.781503e-08	2.127692e+01	1.170466e+03
1.140000e-06	3.041145e-06	1.819723e-08	2.188315e+01	1.195621e+03
1.150000e-06	3.124545e-06	1.855694e-08	2.248327e+01	1.219416e+03
1.160000e-06	3.206810e-06	1.890020e-08	2.307522e+01	1.241938e+03
1.170000e-06	3.287690e-06	1.922436e-08	2.365720e+01	1.263272e+03
1.180000e-06	3.367386e-06	1.953271e-08	2.423068e+01	1.283499e+03
1.190000e-06	3.445962e-06	1.982644e-08	2.479608e+01	1.302695e+03
1.200000e-06	3.523333e-06	2.010342e-08	2.535282e+01	1.320926e+03
1.210000e-06	3.599476e-06	2.036420e-08	2.590072e+01	1.338252e+03
1.220000e-06	3.674224e-06	2.061231e-08	2.643859e+01	1.354725e+03
1.230000e-06	3.747405e-06	2.085047e-08	2.696518e+01	1.370391e+03
1.240000e-06	3.819120e-06	2.107744e-08	2.748121e+01	1.385292e+03
1.250000e-06	3.889492e-06	2.129211e-08	2.798759e+01	1.399468e+03
1.260000e-06	3.958511e-06	2.149513e-08	2.848423e+01	1.412959e+03
1.270000e-06	4.026214e-06	2.168673e-08	2.897140e+01	1.425805e+03
1.280000e-06	4.092399e-06	2.186965e-08	2.944765e+01	1.438047e+03
1.290000e-06	4.156931e-06	2.204606e-08	2.991200e+01	1.449723e+03
1.300000e-06	4.220005e-06	2.221669e-08	3.036586e+01	1.460867e+03
1.310000e-06	4.281695e-06	2.238049e-08	3.080976e+01	1.471504e+03
1.320000e-06	4.342008e-06	2.253622e-08	3.124375e+01	1.481653e+03
1.330000e-06	4.400785e-06	2.268457e-08	3.166669e+01	1.491322e+03
1.340000e-06	4.457795e-06	2.282534e-08	3.207692e+01	1.500516e+03
1.350000e-06	4.513154e-06	2.295720e-08	3.247527e+01	1.509232e+03
1.360000e-06	4.566916e-06	2.308231e-08	3.286212e+01	1.517473e+03
1.370000e-06	4.618901e-06	2.320144e-08	3.323619e+01	1.525242e+03
1.380000e-06	4.668913e-06	2.331232e-08	3.359606e+01	1.532552e+03
1.390000e-06	4.716972e-06	2.341514e-08	3.394188e+01	1.539427e+03
1.400000e-06	4.763317e-06	2.351284e-08	3.427537e+01	1.545896e+03
1.410000e-06	4.808087e-06	2.360640e-08	3.459751e+01	1.551996e+03
1.420000e-06	4.851293e-06	2.369408e-08	3.490841e+01	1.557765e+03
1.430000e-06	4.892671e-06	2.377722e-08	3.520616e+01	1.563237e+03
1.440000e-06	4.932228e-06	2.385619e-08	3.549080e+01	1.568440e+03
1.450000e-06	4.970194e-06	2.393052e-08	3.576399e+01	1.573388e+03
1.460000e-06	5.006606e-06	2.400071e-08	3.602599e+01	1.578086e+03
1.470000e-06	5.041235e-06	2.406760e-08	3.627518e+01	1.582528e+03
1.480000e-06	5.073893e-06	2.413162e-08	3.651018e+01	1.586698e+03
1.490000e-06	5.104752e-06	2.419197e-08	3.673223e+01	1.590580e+03
1.500000e-06	5.133993e-06	2.424664e-08	3.694263e+01	1.594161e+03
1.510000e-06	5.161577e-06	2.429622e-08	3.714112e+01	1.597430e+03
1.520000e-06	5.187139e-06	2.434006e-08	3.732506e+01	1.600390e+03
1.530000e-06	5.210664e-06	2.437885e-08	3.749434e+01	1.603047e+03
1.540000e-06	5.232397e-06	2.441437e-08	3.765072e+01	1.605417e+03
1.550000e-06	5.252426e-06	2.444700e-08	3.779484e+01	1.607517e+03
1.560000e-06	5.270591e-06	2.447639e-08	3.792555e+01	1.609364e+03
1.570000e-06	5.286741e-06	2.450006e-08	3.804176e+01	1.610971e+03
1.580000e-06	5.300991e-06	2.451920e-08	3.814431e+01	1.612348e+03
1.590000e-06	5.313310e-06	2.453537e-08	3.823295e+01	1.613496e+03
1.600000e-06	5.323421e-06	2.454768e-08	3.830570e+01	1.614416e+03
1.610000e-06	5.331399e-06	2.455826e-08	3.836311e+01	1.615106e+03
1.620000e-06	5.337502e-06	2.456780e-08	3.840702e+01	1.615569e+03
1.630000e-06	5.341867e-06	2.457425e-08	3.843843e+01	1.615810e+03
1.640000e-06	5.344367e-06	2.457713e-08	3.845643e+01	1.615841e+03
1.650000e-06	5.344864e-06	2.457735e-08	3.846000e+01	1.615677e+03
1.660000e-06	5.343548e-06	2.456923e-08	3.845053e+01	1.615331e+03
1.670000e-06	5.340568e-06	2.455764e-08	3.842909e+01	1.614813e+03
1.680000e-06	5.335866e-06	2.454975e-08	3.839525e+01	1.614127e+03
1.690000e-06	5.329259e-06	2.453907e-08	3.834771e+01	1.613265e+03
1.700000e-06	5.320892e-06	2.452529e-08	3.828751e+01	1.612212e+03
1.710000e-06	5.310996e-06	2.450941e-08	3.821629e+01	1.610947e+03
1.720000e-06	5.299471e-06	2.450248e-08	3.813336e+01	1.609452e+03
1.730000e-06	5.285970e-06	2.449143e-08	3.803621e+01	1.607713e+03
1.740000e-06	5.270446e-06	2.435967e-08	3.792451e+01	1.605731e+03
1.750000e-06	5.252774e-06	2.430744e-08	3.779735e+01	1.603525e+03
1.760000e-06	5.232521e-06	2.433357e-08	3.765162e+01	1.601128e+03
1.770000e-06	5.209814e-06	2.431201e-08	3.748822e+01	1.598585e+03
1.780000e-06	5.185509e-06	2.441442e-08	3.731333e+01	1.595946e+03
1.790000e-06	5.160482e-06	2.425627e-08	3.713324e+01	1.593255e+03
1.800000e-06	5.134396e-06	2.406691e-08	3.694554e+01	1.590538e+03
1.810000e-06	5.106175e-06	2.426274e-08	3.674247e+01	1.587800e+03
1.820000e-06	5.075908e-06	2.409953e-08	3.652468e+01	1.585019e+03
1.830000e-06	5.044060e-06	2.402389e-08	3.629550e+01	1.582148e+03
1.840000e-06	5.010377e-06	2.425777e-08	3.605313e+01	1.579123e+03
1.850000e-06	4.975070e-06	2.399291e-08	3.579908e+01	1.575870e+03
1.860000e-06	4.938083e-06	2.393847e-08	3.553293e+01	1.572323e+03
1.870000e-06	4.899061e-06	2.403434e-08	3.525214e+01	1.568430e+03
1.880000e-06	4.858435e-06	2.381147e-08	3.495981e+01	1.564159e+03
1.890000e-06	4.816149e-06	2.389473e-08	3.465553e+01	1.559505e+03
1.900000e-06	4.772143e-06	2.376004e-08	3.433888e+01	1.554486e+03
1.910000e-06	4.726411e-06	2.356397e-08	3.400980e+01	1.549132e+03
1.920000e-06	4.678637e-06	2.369246e-08	3.366604e+01	1.543483e+03
1.930000e-06	4.629210e-06	2.348243e-08	3.331037e+01	1.537571e+03
1.940000e-06	4.578115e-06	2.341346e-08	3.294271e+01	1.531418e+03
1.950000e-06	4.524821e-06	2.335965e-08	3.255922e+01	1.525030e+03
1.960000e-06	4.469603e-06	2.319447e-08	3.216189e+01	1.518397e+03
1.970000e-06	4.412798e-06	2.314641e-08	3.175314e+01	1.511499e+03
1.980000e-06	4.354459e-06	2.292135e-08	3.133335e+01	1.504309e+03
1.990000e-06	4.294767e-06	2.288887e-08	3.090382e+01	1.496802e+03
2.000000e-06	4.233608e-06	2.281845e-08	3.046374e+01	1.488962e+03
2.010000e-06	4.170707e-06	2.263382e-08	3.001112e+01	1.480782e+03
2.020000e-06	4.106144e-06	2.253214e-08	2.954655e+01	1.472265e+03
2.030000e-06	4.040235e-06	2.232181e-08	2.907229e+01	1.463422e+03
2.040000e-06	3.973038e-06	2.225936e-08	2.858876e+01	1.454260e+03
2.050000e-06	3.904425e-06	2.210451e-08	2.809504e+01	1.444786e+03
2.060000e-06	3.834137e-06	2.193246e-08	2.758927e+01	1.434996e+03
2.070000e-06	3.762419e-06	2.183677e-08	2.707321e+01	1.424875e+03
2.080000e-06	3.689549e-06	2.162049e-08	2.654886e+01	1.414399e+03
2.090000e-06	3.615284e-06	2.147140e-08	2.601447e+01	1.403538e+03
2.100000e-06	3.539602e-06	2.128226e-08	2.546989e+01	1.392261e+03
2.110000e-06	3.462397e-06	2.112528e-08	2.491435e+01	1.380543e+03
2.120000e-06	3.383726e-06	2.094251e-08	2.434825e+01	1.368363e+03
2.130000e-06	3.303919e-06	2.072262e-08	2.377399e+01	1.355709e+03
2.140000e-06	3.223016e-06	2.054874e-08	2.319183e+01	1.342575e+03
2.150000e-06	3.140986e-06	2.032444e-08	2.260157e+01	1.328955e+03
2.160000e-06	3.057931e-06	2.012610e-08	2.200393e+01	1.314841e+03
2.170000e-06	2.973971e-06	1.990104e-08	2.139978e+01	1.300217e+03
2.180000e-06	2.888859e-06	1.967312e-08	2.078734e+01	1.285058e+03
2.190000e-06	2.802339e-06	1.942744e-08	2.016477e+01	1.269328e+03
2.200000e-06	2.714708e-06	1.916542e-08	1.953420e+01	1.252986e+03
2.210000e-06	2.626197e-06	1.892410e-08	1.889731e+01	1.235987e+03
2.220000e-06	2.536822e-06	1.865035e-08	1.825419e+01	1.218286e+03
2.230000e-06	2.446571e-06	1.836491e-08	1.760477e+01	1.199843e+03
2.240000e-06	2.355536e-06	1.806125e-08	1.694972e+01	1.180624e+03
2.250000e-06	2.263888e-06	1.776663e-08	1.629024e+01	1.160597e+03
2.260000e-06	2.171476e-06	1.745433e-08	1.562527e+01	1.139730e+03
2.270000e-06	2.078043e-06	1.712266e-08	1.495296e+01	1.117987e+03
2.280000e-06	1.983610e-06	1.678010e-08	1.427345e+01	1.095319e+03
2.290000e-06	1.888377e-06	1.641644e-08	1.358818e+01	1.071667e+03
2.300000e-06	1.792514e-06	1.603738e-08	1.289838e+01	1.046956e+03
2.310000e-06	1.696092e-06	1.563981e-08	1.220456e+01	1.021099e+03
2.320000e-06	1.599195e-06	1.523400e-08	1.150731e+01	9.939979e+02
2.330000e-06	1.501778e-06	1.480510e-08	1.080634e+01	9.655515e+02
2.340000e-06	1.403815e-06	1.434909e-08	1.010142e+01	9.356583e+02
2.350000e-06	1.305431e-06	1.386328e-08	9.393480e+00	9.042213e+02
2.360000e-06	1.206685e-06	1.335724e-08	8.682932e+00	8.711507e+02
2.370000e-06	1.107648e-06	1.283029e-08	7.970296e+00	8.363661e+02
2.380000e-06	1.008339e-06	1.227555e-08	7.255696e+00	7.997988e+02
2.390000e-06	9.087795e-07	1.169130e-08	6.539298e+00	7.613951e+02
2.400000e-06	8.089692e-07	1.107444e-08	5.821093e+00	7.211211e+02
2.410000e-06	7.088791e-07	1.042962e-08	5.100876e+00	6.789705e+02
2.420000e-06	6.085188e-07	9.753460e-09	4.378714e+00	6.349734e+02
2.430000e-06	5.079349e-07	9.050125e-09	3.654944e+00	5.892043e+02
2.440000e-06	4.071316e-07	8.328626e-09	2.929594e+00	5.417880e+02
2.450000e-06	3.060058e-07	7.586801e-09	2.201924e+00	4.928995e+02
2.460000e-06	2.046493e-07	6.820641e-09	1.472594e+00	4.427566e+02
2.470000e-06	1.032864e-07	6.037377e-09	7.432169e-01	3.916041e+02
2.480000e-06	1.944802e-09	5.244443e-09	1.399420e-02	3.396903e+02
2.490000e-06	-9.948681e-08	4.443335e-09	-7.158765e-01	2.872397e+02
2.500000e-06	-2.008973e-07	3.633941e-09	-1.445595e+00	2.344247e+02
2.510000e-06	-3.021678e-07	2.822225e-09	-2.174306e+00	1.813429e+02
2.520000e-06	-4.032937e-07	2.009817e-09	-2.901978e+00	1.280041e+02
2.530000e-06	-5.042672e-07	1.191900e-09	-3.628552e+00	7.433121e+01
2.540000e-06	-6.050894e-07	3.654727e-10	-4.354037e+00	2.017622e+01
2.550000e-06	-7.056896e-07	-4.741307e-10	-5.077925e+00	-3.464959e+01
2.560000e-06	-8.059823e-07	-1.327152e-09	-5.799601e+00	-9.033559e+01
2.570000e-06	-9.058599e-07	-2.195553e-09	-6.518290e+00	-1.470275e+02
2.580000e-06	-1.005370e-06	-3.076768e-09	-7.234332e+00	-2.047860e+02
2.590000e-06	-1.104636e-06	-3.971545e-09	-7.948621e+00	-2.635555e+02
2.600000e-06	-1.203638e-06	-4.882625e-09	-8.661009e+00	-3.231477e+02
2.610000e-06	-1.302277e-06	-5.801877e-09	-9.370788e+00	-3.832436e+02
2.620000e-06	-1.400400e-06	-6.723005e-09	-1.007685e+01	-4.434136e+02
2.630000e-06	-1.497946e-06	-7.638441e-09	-1.077876e+01	-5.031520e+02
2.640000e-06	-1.594963e-06	-8.538480e-09	-1.147686e+01	-5.619221e+02
2.650000e-06	-1.691454e-06	-9.415666e-09	-1.217118e+01	-6.192030e+02
2.660000e-06	-1.787433e-06	-1.026225e-08	-1.286182e+01	-6.745324e+02
2.670000e-06	-1.882859e-06	-1.107418e-08	-1.354847e+01	-7.275409e+02
2.680000e-06	-1.977626e-06	-1.184707e-08	-1.423039e+01	-7.779707e+02
2.690000e-06	-2.071624e-06	-1.257687e-08	-1.490677e+01	-8.256813e+02
2.700000e-06	-2.164692e-06	-1.326515e-08	-1.557646e+01	-8.706408e+02
2.710000e-06	-2.256769e-06	-1.391311e-08	-1.623901e+01	-9.129072e+02
2.720000e-06	-2.348016e-06	-1.452249e-08	-1.689560e+01	-9.526031e+02
2.730000e-06	-2.438481e-06	-1.509490e-08	-1.754656e+01	-9.898902e+02
2.740000e-06	-2.528045e-06	-1.563333e-08	-1.819104e+01	-1.024945e+03
2.750000e-06	-2.616749e-06	-1.614148e-08	-1.882932e+01	-1.057943e+03
2.760000e-06	-2.704652e-06	-1.662073e-08	-1.946184e+01	-1.089042e+03
2.770000e-06	-2.791678e-06	-1.707064e-08	-2.008806e+01	-1.118386e+03
2.780000e-06	-2.877656e-06	-1.749288e-08	-2.070673e+01	-1.146097e+03
2.790000e-06	-2.962428e-06	-1.789147e-08	-2.131672e+01	-1.172282e+03
2.800000e-06	-3.046105e-06	-1.827037e-08	-2.191884e+01	-1.197041e+03
2.810000e-06	-3.128805e-06	-1.862981e-08	-2.251392e+01	-1.220464e+03
2.820000e-06	-3.210492e-06	-1.896903e-08	-2.310172e+01	-1.242640e+03
2.830000e-06	-3.291153e-06	-1.929066e-08	-2.368212e+01	-1.263651e+03
2.840000e-06	-3.370790e-06	-1.959673e-08	-2.425517e+01	-1.283577e+03
2.850000e-06	-3.449165e-06	-1.988844e-08	-2.481913e+01	-1.302491e+03
2.860000e-06	-3.525978e-06	-2.016478e-08	-2.537185e+01	-1.320459e+03
2.870000e-06	-3.601315e-06	-2.042565e-08	-2.591395e+01	-1.337538e+03
2.880000e-06	-3.675286e-06	-2.067363e-08	-2.644623e+01	-1.353777e+03
2.890000e-06	-3.747924e-06	-2.090952e-08	-2.696891e+01	-1.369222e+03
2.900000e-06	-3.819333e-06	-2.113453e-08	-2.748274e+01	-1.383913e+03
2.910000e-06	-3.889305e-06	-2.134997e-08	-2.798624e+01	-1.397890e+03
2.920000e-06	-3.957689e-06	-2.155659e-08	-2.847831e+01	-1.411193e+03
2.930000e-06	-4.024661e-06	-2.175360e-08	-2.896022e+01	-1.423864e+03
2.940000e-06	-4.090224e-06	-2.193989e-08	-2.943199e+01	-1.435942e+03
