# Temperatura_=_81.34
# Concentracion g/m^3_=_28200.0
# C_Vs_to_Am_M_A/Vsm_=_65563218390.804596
# pendiente_HvsI_1/m_=_3716.3
# ordenada_HvsI_A/m_=_1297.0
# frecuencia_Hz_=_301740.4896623507

Tiempo_(s)	Campo_(V.s)	Magnetizacion_(V.s)	Campo_(kA/m)	Magnetizacion_(A/m)
0.000000e+00	-5.322864e-06	-2.593524e-08	-3.829970e+01	-1.696670e+03
1.000000e-08	-5.320244e-06	-2.592915e-08	-3.828086e+01	-1.696192e+03
2.000000e-08	-5.315761e-06	-2.591357e-08	-3.824860e+01	-1.695526e+03
3.000000e-08	-5.309725e-06	-2.589770e-08	-3.820516e+01	-1.694668e+03
4.000000e-08	-5.302130e-06	-2.588018e-08	-3.815052e+01	-1.693607e+03
5.000000e-08	-5.292799e-06	-2.585822e-08	-3.808338e+01	-1.692328e+03
6.000000e-08	-5.281452e-06	-2.583229e-08	-3.800174e+01	-1.690818e+03
7.000000e-08	-5.268235e-06	-2.579389e-08	-3.790664e+01	-1.689067e+03
8.000000e-08	-5.253070e-06	-2.577997e-08	-3.779751e+01	-1.687075e+03
9.000000e-08	-5.235616e-06	-2.581578e-08	-3.767193e+01	-1.684856e+03
1.000000e-07	-5.216062e-06	-2.577014e-08	-3.753123e+01	-1.682434e+03
1.100000e-07	-5.194611e-06	-2.568564e-08	-3.737689e+01	-1.679842e+03
1.200000e-07	-5.171383e-06	-2.563178e-08	-3.720975e+01	-1.677120e+03
1.300000e-07	-5.146659e-06	-2.548861e-08	-3.703185e+01	-1.674301e+03
1.400000e-07	-5.120408e-06	-2.549335e-08	-3.684297e+01	-1.671408e+03
1.500000e-07	-5.092451e-06	-2.558856e-08	-3.664182e+01	-1.668449e+03
1.600000e-07	-5.063004e-06	-2.538132e-08	-3.642993e+01	-1.665411e+03
1.700000e-07	-5.032156e-06	-2.538432e-08	-3.620797e+01	-1.662262e+03
1.800000e-07	-4.999418e-06	-2.541766e-08	-3.597241e+01	-1.658955e+03
1.900000e-07	-4.964613e-06	-2.516483e-08	-3.572197e+01	-1.655433e+03
2.000000e-07	-4.928216e-06	-2.519671e-08	-3.546009e+01	-1.651643e+03
2.100000e-07	-4.890186e-06	-2.518505e-08	-3.518645e+01	-1.647535e+03
2.200000e-07	-4.850364e-06	-2.499975e-08	-3.489992e+01	-1.643077e+03
2.300000e-07	-4.808760e-06	-2.497746e-08	-3.460056e+01	-1.638254e+03
2.400000e-07	-4.765194e-06	-2.487526e-08	-3.428709e+01	-1.633068e+03
2.500000e-07	-4.719795e-06	-2.477064e-08	-3.396043e+01	-1.627533e+03
2.600000e-07	-4.672624e-06	-2.475660e-08	-3.362102e+01	-1.621673e+03
2.700000e-07	-4.623541e-06	-2.460307e-08	-3.326786e+01	-1.615510e+03
2.800000e-07	-4.572412e-06	-2.447744e-08	-3.289997e+01	-1.609062e+03
2.900000e-07	-4.519240e-06	-2.439548e-08	-3.251737e+01	-1.602338e+03
3.000000e-07	-4.464414e-06	-2.429366e-08	-3.212289e+01	-1.595336e+03
3.100000e-07	-4.408032e-06	-2.418864e-08	-3.171720e+01	-1.588045e+03
3.200000e-07	-4.349833e-06	-2.408113e-08	-3.129844e+01	-1.580449e+03
3.300000e-07	-4.289981e-06	-2.395961e-08	-3.086779e+01	-1.572531e+03
3.400000e-07	-4.228664e-06	-2.379928e-08	-3.042659e+01	-1.564279e+03
3.500000e-07	-4.165940e-06	-2.367698e-08	-2.997527e+01	-1.555686e+03
3.600000e-07	-4.101910e-06	-2.354320e-08	-2.951456e+01	-1.546749e+03
3.700000e-07	-4.036360e-06	-2.341078e-08	-2.904290e+01	-1.537473e+03
3.800000e-07	-3.969151e-06	-2.328767e-08	-2.855931e+01	-1.527860e+03
3.900000e-07	-3.900453e-06	-2.310002e-08	-2.806500e+01	-1.517912e+03
4.000000e-07	-3.830434e-06	-2.292952e-08	-2.756119e+01	-1.507624e+03
4.100000e-07	-3.759225e-06	-2.278581e-08	-2.704883e+01	-1.496982e+03
4.200000e-07	-3.686759e-06	-2.262271e-08	-2.652741e+01	-1.485969e+03
4.300000e-07	-3.612866e-06	-2.245034e-08	-2.599573e+01	-1.474558e+03
4.400000e-07	-3.537445e-06	-2.226738e-08	-2.545305e+01	-1.462724e+03
4.500000e-07	-3.460594e-06	-2.207297e-08	-2.490008e+01	-1.450443e+03
4.600000e-07	-3.382409e-06	-2.187010e-08	-2.433751e+01	-1.437693e+03
4.700000e-07	-3.302910e-06	-2.167884e-08	-2.376549e+01	-1.424459e+03
4.800000e-07	-3.222141e-06	-2.148063e-08	-2.318434e+01	-1.410728e+03
4.900000e-07	-3.140128e-06	-2.125633e-08	-2.259422e+01	-1.396488e+03
5.000000e-07	-3.057060e-06	-2.102642e-08	-2.199652e+01	-1.381725e+03
5.100000e-07	-2.973054e-06	-2.078822e-08	-2.139207e+01	-1.366422e+03
5.200000e-07	-2.888155e-06	-2.054383e-08	-2.078120e+01	-1.350553e+03
5.300000e-07	-2.802312e-06	-2.029194e-08	-2.016353e+01	-1.334087e+03
5.400000e-07	-2.715490e-06	-2.003135e-08	-1.953882e+01	-1.316986e+03
5.500000e-07	-2.627847e-06	-1.976302e-08	-1.890820e+01	-1.299210e+03
5.600000e-07	-2.539238e-06	-1.947497e-08	-1.827063e+01	-1.280720e+03
5.700000e-07	-2.449477e-06	-1.917907e-08	-1.762477e+01	-1.261476e+03
5.800000e-07	-2.358657e-06	-1.887875e-08	-1.697129e+01	-1.241444e+03
5.900000e-07	-2.266890e-06	-1.856687e-08	-1.631100e+01	-1.220586e+03
6.000000e-07	-2.174344e-06	-1.823282e-08	-1.564510e+01	-1.198865e+03
6.100000e-07	-2.081072e-06	-1.788328e-08	-1.497398e+01	-1.176236e+03
6.200000e-07	-1.987035e-06	-1.752198e-08	-1.429735e+01	-1.152645e+03
6.300000e-07	-1.892312e-06	-1.714353e-08	-1.361579e+01	-1.128025e+03
6.400000e-07	-1.796989e-06	-1.674919e-08	-1.292991e+01	-1.102298e+03
6.500000e-07	-1.701087e-06	-1.633581e-08	-1.223987e+01	-1.075375e+03
6.600000e-07	-1.604588e-06	-1.590524e-08	-1.154552e+01	-1.047156e+03
6.700000e-07	-1.507424e-06	-1.545508e-08	-1.084640e+01	-1.017542e+03
6.800000e-07	-1.409623e-06	-1.498429e-08	-1.014269e+01	-9.864300e+02
6.900000e-07	-1.311177e-06	-1.448789e-08	-9.434335e+00	-9.537198e+02
7.000000e-07	-1.212142e-06	-1.396298e-08	-8.721747e+00	-9.193158e+02
7.100000e-07	-1.112705e-06	-1.340808e-08	-8.006270e+00	-8.831281e+02
7.200000e-07	-1.012994e-06	-1.282477e-08	-7.288816e+00	-8.450740e+02
7.300000e-07	-9.130400e-07	-1.221343e-08	-6.569614e+00	-8.050823e+02
7.400000e-07	-8.128001e-07	-1.157272e-08	-5.848357e+00	-7.630998e+02
7.500000e-07	-7.122833e-07	-1.090432e-08	-5.125106e+00	-7.191001e+02
7.600000e-07	-6.115535e-07	-1.020299e-08	-4.400323e+00	-6.730953e+02
7.700000e-07	-5.106077e-07	-9.472570e-09	-3.673985e+00	-6.251469e+02
7.800000e-07	-4.095059e-07	-8.716376e-09	-2.946526e+00	-5.753732e+02
7.900000e-07	-3.083671e-07	-7.934918e-09	-2.218800e+00	-5.239519e+02
8.000000e-07	-2.071426e-07	-7.130424e-09	-1.490457e+00	-4.711130e+02
8.100000e-07	-1.057959e-07	-6.307454e-09	-7.612353e-01	-4.171219e+02
8.200000e-07	-4.381608e-09	-5.473050e-09	-3.152707e-02	-3.622547e+02
8.300000e-07	9.707896e-08	-4.628933e-09	6.985142e-01	-3.067662e+02
8.400000e-07	1.985501e-07	-3.778737e-09	1.428632e+00	-2.508580e+02
8.500000e-07	2.999477e-07	-2.924680e-09	2.158220e+00	-1.946502e+02
8.600000e-07	4.012722e-07	-2.066817e-09	2.887282e+00	-1.381655e+02
8.700000e-07	5.025372e-07	-1.203371e-09	3.615916e+00	-8.132698e+01
8.800000e-07	6.036717e-07	-3.309987e-10	4.343610e+00	-2.397431e+01
8.900000e-07	7.045971e-07	5.547109e-10	5.069802e+00	3.410354e+01
9.000000e-07	8.052800e-07	1.455693e-09	5.794247e+00	9.312346e+01
9.100000e-07	9.056919e-07	2.372694e-09	6.516742e+00	1.532575e+02
9.200000e-07	1.005800e-06	3.305351e-09	7.237054e+00	2.145846e+02
9.300000e-07	1.105653e-06	4.255831e-09	7.955523e+00	2.770533e+02
9.400000e-07	1.205237e-06	5.223781e-09	8.672066e+00	3.404619e+02
9.500000e-07	1.304408e-06	6.198933e-09	9.385634e+00	4.044592e+02
9.600000e-07	1.403005e-06	7.173943e-09	1.009507e+01	4.685672e+02
9.700000e-07	1.500828e-06	8.141687e-09	1.079893e+01	5.322214e+02
9.800000e-07	1.597785e-06	9.094171e-09	1.149657e+01	5.948226e+02
9.900000e-07	1.694055e-06	1.002005e-08	1.218926e+01	6.557923e+02
1.000000e-06	1.789795e-06	1.091364e-08	1.287814e+01	7.146225e+02
1.010000e-06	1.884926e-06	1.177019e-08	1.356264e+01	7.709139e+02
1.020000e-06	1.979432e-06	1.258291e-08	1.424265e+01	8.243976e+02
1.030000e-06	2.073283e-06	1.334955e-08	1.491793e+01	8.749383e+02
1.040000e-06	2.166368e-06	1.406913e-08	1.558771e+01	9.225218e+02
1.050000e-06	2.258742e-06	1.474461e-08	1.625237e+01	9.672305e+02
1.060000e-06	2.350498e-06	1.537837e-08	1.691258e+01	1.009212e+03
1.070000e-06	2.441410e-06	1.597627e-08	1.756672e+01	1.048648e+03
1.080000e-06	2.531107e-06	1.654131e-08	1.821213e+01	1.085729e+03
1.090000e-06	2.619712e-06	1.707373e-08	1.884966e+01	1.120634e+03
1.100000e-06	2.707484e-06	1.757426e-08	1.948121e+01	1.153521e+03
1.110000e-06	2.794436e-06	1.804512e-08	2.010686e+01	1.184529e+03
1.120000e-06	2.880482e-06	1.848795e-08	2.072599e+01	1.213777e+03
1.130000e-06	2.965557e-06	1.890501e-08	2.133813e+01	1.241375e+03
1.140000e-06	3.049738e-06	1.929954e-08	2.194384e+01	1.267428e+03
1.150000e-06	3.133018e-06	1.967171e-08	2.254307e+01	1.292041e+03
1.160000e-06	3.215072e-06	2.002517e-08	2.313347e+01	1.315322e+03
1.170000e-06	3.295856e-06	2.036094e-08	2.371474e+01	1.337372e+03
1.180000e-06	3.375522e-06	2.068230e-08	2.428796e+01	1.358291e+03
1.190000e-06	3.454005e-06	2.098636e-08	2.485267e+01	1.378165e+03
1.200000e-06	3.531287e-06	2.127286e-08	2.540874e+01	1.397066e+03
1.210000e-06	3.607414e-06	2.154489e-08	2.595649e+01	1.415052e+03
1.220000e-06	3.682111e-06	2.180162e-08	2.649397e+01	1.432168e+03
1.230000e-06	3.755096e-06	2.204542e-08	2.701912e+01	1.448451e+03
1.240000e-06	3.826615e-06	2.227880e-08	2.753372e+01	1.463934e+03
1.250000e-06	3.896807e-06	2.250348e-08	2.803877e+01	1.478651e+03
1.260000e-06	3.965683e-06	2.271664e-08	2.853436e+01	1.492642e+03
1.270000e-06	4.033326e-06	2.291743e-08	2.902107e+01	1.505951e+03
1.280000e-06	4.099374e-06	2.310759e-08	2.949631e+01	1.518624e+03
1.290000e-06	4.163692e-06	2.329032e-08	2.995909e+01	1.530708e+03
1.300000e-06	4.226566e-06	2.346597e-08	3.041149e+01	1.542242e+03
1.310000e-06	4.288051e-06	2.363495e-08	3.085389e+01	1.553260e+03
1.320000e-06	4.348257e-06	2.379710e-08	3.128709e+01	1.563780e+03
1.330000e-06	4.406993e-06	2.395003e-08	3.170972e+01	1.573811e+03
1.340000e-06	4.463884e-06	2.409428e-08	3.211907e+01	1.583355e+03
1.350000e-06	4.519042e-06	2.423162e-08	3.251595e+01	1.592406e+03
1.360000e-06	4.572556e-06	2.436364e-08	3.290100e+01	1.600964e+03
1.370000e-06	4.624263e-06	2.448829e-08	3.327305e+01	1.609034e+03
1.380000e-06	4.673922e-06	2.460461e-08	3.363036e+01	1.616628e+03
1.390000e-06	4.721716e-06	2.471448e-08	3.397426e+01	1.623772e+03
1.400000e-06	4.767935e-06	2.481654e-08	3.430682e+01	1.630500e+03
1.410000e-06	4.812647e-06	2.491030e-08	3.462853e+01	1.636850e+03
1.420000e-06	4.855752e-06	2.499836e-08	3.493868e+01	1.642861e+03
1.430000e-06	4.896926e-06	2.508410e-08	3.523495e+01	1.648565e+03
1.440000e-06	4.936335e-06	2.516695e-08	3.551851e+01	1.653986e+03
1.450000e-06	4.974124e-06	2.524459e-08	3.579041e+01	1.659135e+03
1.460000e-06	5.010356e-06	2.531814e-08	3.605111e+01	1.664014e+03
1.470000e-06	5.044837e-06	2.538831e-08	3.629921e+01	1.668612e+03
1.480000e-06	5.077350e-06	2.545417e-08	3.653315e+01	1.672917e+03
1.490000e-06	5.108103e-06	2.551554e-08	3.675444e+01	1.676912e+03
1.500000e-06	5.137199e-06	2.557200e-08	3.696379e+01	1.680589e+03
1.510000e-06	5.164638e-06	2.562308e-08	3.716122e+01	1.683943e+03
1.520000e-06	5.190075e-06	2.566841e-08	3.734425e+01	1.686979e+03
1.530000e-06	5.213476e-06	2.570921e-08	3.751263e+01	1.689707e+03
1.540000e-06	5.235099e-06	2.574610e-08	3.766821e+01	1.692146e+03
1.550000e-06	5.255023e-06	2.577975e-08	3.781157e+01	1.694311e+03
1.560000e-06	5.273018e-06	2.580934e-08	3.794105e+01	1.696219e+03
1.570000e-06	5.288945e-06	2.583312e-08	3.805565e+01	1.697882e+03
1.580000e-06	5.303007e-06	2.585362e-08	3.815683e+01	1.699308e+03
1.590000e-06	5.315038e-06	2.587068e-08	3.824339e+01	1.700499e+03
1.600000e-06	5.324763e-06	2.588504e-08	3.831337e+01	1.701456e+03
1.610000e-06	5.332447e-06	2.589794e-08	3.836866e+01	1.702180e+03
1.620000e-06	5.338426e-06	2.590757e-08	3.841168e+01	1.702673e+03
1.630000e-06	5.342661e-06	2.591217e-08	3.844215e+01	1.702943e+03
1.640000e-06	5.344911e-06	2.591370e-08	3.845834e+01	1.702996e+03
1.650000e-06	5.345141e-06	2.591350e-08	3.846000e+01	1.702846e+03
1.660000e-06	5.343622e-06	2.590593e-08	3.844907e+01	1.702501e+03
1.670000e-06	5.340507e-06	2.589667e-08	3.842666e+01	1.701969e+03
1.680000e-06	5.335703e-06	2.588803e-08	3.839209e+01	1.701248e+03
1.690000e-06	5.328942e-06	2.587661e-08	3.834344e+01	1.700332e+03
1.700000e-06	5.320434e-06	2.586185e-08	3.828222e+01	1.699209e+03
1.710000e-06	5.310416e-06	2.584451e-08	3.821014e+01	1.697864e+03
1.720000e-06	5.298598e-06	2.583734e-08	3.812511e+01	1.696284e+03
1.730000e-06	5.284778e-06	2.581040e-08	3.802567e+01	1.694462e+03
1.740000e-06	5.269043e-06	2.569102e-08	3.791245e+01	1.692403e+03
1.750000e-06	5.251129e-06	2.565542e-08	3.778355e+01	1.690121e+03
1.760000e-06	5.230619e-06	2.566280e-08	3.763597e+01	1.687646e+03
1.770000e-06	5.207727e-06	2.565474e-08	3.747126e+01	1.685012e+03
1.780000e-06	5.183331e-06	2.573834e-08	3.729572e+01	1.682258e+03
1.790000e-06	5.158227e-06	2.555062e-08	3.711509e+01	1.679414e+03
1.800000e-06	5.131914e-06	2.542566e-08	3.692576e+01	1.676502e+03
1.810000e-06	5.103427e-06	2.556497e-08	3.672079e+01	1.673521e+03
1.820000e-06	5.073033e-06	2.536841e-08	3.650209e+01	1.670454e+03
1.830000e-06	5.041025e-06	2.535586e-08	3.627179e+01	1.667264e+03
1.840000e-06	5.007107e-06	2.550551e-08	3.602774e+01	1.663901e+03
1.850000e-06	4.971597e-06	2.525000e-08	3.577223e+01	1.660307e+03
1.860000e-06	4.934451e-06	2.524335e-08	3.550495e+01	1.656429e+03
1.870000e-06	4.895386e-06	2.526595e-08	3.522387e+01	1.652222e+03
1.880000e-06	4.854660e-06	2.507933e-08	3.493083e+01	1.647660e+03
1.890000e-06	4.812126e-06	2.513332e-08	3.462479e+01	1.642731e+03
1.900000e-06	4.767843e-06	2.496334e-08	3.430615e+01	1.637442e+03
1.910000e-06	4.721842e-06	2.484553e-08	3.397516e+01	1.631810e+03
1.920000e-06	4.673923e-06	2.492099e-08	3.363037e+01	1.625860e+03
1.930000e-06	4.624375e-06	2.472184e-08	3.327386e+01	1.619613e+03
1.940000e-06	4.572978e-06	2.464906e-08	3.290404e+01	1.613085e+03
1.950000e-06	4.519507e-06	2.455509e-08	3.251930e+01	1.606281e+03
1.960000e-06	4.464291e-06	2.441862e-08	3.212200e+01	1.599196e+03
1.970000e-06	4.407383e-06	2.432821e-08	3.171253e+01	1.591819e+03
1.980000e-06	4.348910e-06	2.413572e-08	3.129180e+01	1.584131e+03
1.990000e-06	4.289051e-06	2.410380e-08	3.086109e+01	1.576118e+03
2.000000e-06	4.227651e-06	2.398548e-08	3.041930e+01	1.567768e+03
2.010000e-06	4.164555e-06	2.381044e-08	2.996530e+01	1.559075e+03
2.020000e-06	4.099835e-06	2.368052e-08	2.949963e+01	1.550039e+03
2.030000e-06	4.033734e-06	2.350245e-08	2.902401e+01	1.540665e+03
2.040000e-06	3.966295e-06	2.342758e-08	2.853876e+01	1.530956e+03
2.050000e-06	3.897409e-06	2.325021e-08	2.804310e+01	1.520910e+03
2.060000e-06	3.826997e-06	2.308060e-08	2.753646e+01	1.510522e+03
2.070000e-06	3.755189e-06	2.294231e-08	2.701979e+01	1.499775e+03
2.080000e-06	3.682145e-06	2.273202e-08	2.649421e+01	1.488649e+03
2.090000e-06	3.607768e-06	2.256971e-08	2.595904e+01	1.477119e+03
2.100000e-06	3.531948e-06	2.238202e-08	2.541349e+01	1.465159e+03
2.110000e-06	3.454631e-06	2.221666e-08	2.485717e+01	1.452745e+03
2.120000e-06	3.375941e-06	2.201529e-08	2.429097e+01	1.439857e+03
2.130000e-06	3.296019e-06	2.179597e-08	2.371591e+01	1.426480e+03
2.140000e-06	3.214934e-06	2.159648e-08	2.313248e+01	1.412604e+03
2.150000e-06	3.132802e-06	2.136850e-08	2.254151e+01	1.398215e+03
2.160000e-06	3.049717e-06	2.115609e-08	2.194369e+01	1.383299e+03
2.170000e-06	2.965616e-06	2.091840e-08	2.133855e+01	1.367836e+03
2.180000e-06	2.880268e-06	2.067559e-08	2.072445e+01	1.351798e+03
2.190000e-06	2.793654e-06	2.041779e-08	2.010124e+01	1.335153e+03
2.200000e-06	2.705963e-06	2.015003e-08	1.947027e+01	1.317862e+03
2.210000e-06	2.617345e-06	1.988857e-08	1.883263e+01	1.299885e+03
2.220000e-06	2.527870e-06	1.960244e-08	1.818884e+01	1.281183e+03
2.230000e-06	2.437547e-06	1.930093e-08	1.753893e+01	1.261716e+03
2.240000e-06	2.346517e-06	1.898858e-08	1.688394e+01	1.241450e+03
2.250000e-06	2.254816e-06	1.867639e-08	1.622412e+01	1.220349e+03
2.260000e-06	2.162176e-06	1.834208e-08	1.555755e+01	1.198372e+03
2.270000e-06	2.068527e-06	1.799099e-08	1.488371e+01	1.175473e+03
2.280000e-06	1.973993e-06	1.762878e-08	1.420351e+01	1.151594e+03
2.290000e-06	1.878660e-06	1.724677e-08	1.351756e+01	1.126666e+03
2.300000e-06	1.782692e-06	1.684853e-08	1.282704e+01	1.100605e+03
2.310000e-06	1.686202e-06	1.643328e-08	1.213276e+01	1.073321e+03
2.320000e-06	1.589215e-06	1.600359e-08	1.143491e+01	1.044713e+03
2.330000e-06	1.491754e-06	1.554837e-08	1.073365e+01	1.014680e+03
2.340000e-06	1.393802e-06	1.506409e-08	1.002885e+01	9.831198e+02
2.350000e-06	1.295349e-06	1.455356e-08	9.320449e+00	9.499340e+02
2.360000e-06	1.196530e-06	1.402242e-08	8.609419e+00	9.150282e+02
2.370000e-06	1.097448e-06	1.346677e-08	7.896491e+00	8.783140e+02
2.380000e-06	9.981280e-07	1.288021e-08	7.181849e+00	8.397118e+02
2.390000e-06	8.985987e-07	1.226112e-08	6.465705e+00	7.991545e+02
2.400000e-06	7.988343e-07	1.160910e-08	5.747868e+00	7.565957e+02
2.410000e-06	6.987563e-07	1.092840e-08	5.027775e+00	7.120187e+02
2.420000e-06	5.983387e-07	1.021694e-08	4.305238e+00	6.654488e+02
2.430000e-06	4.976198e-07	9.476988e-09	3.580533e+00	6.169630e+02
2.440000e-06	3.966933e-07	8.712658e-09	2.854335e+00	5.666967e+02
2.450000e-06	2.956158e-07	7.921982e-09	2.127050e+00	5.148438e+02
2.460000e-06	1.943854e-07	7.105010e-09	1.398665e+00	4.616464e+02
2.470000e-06	9.306190e-08	6.271931e-09	6.696101e-01	4.073760e+02
2.480000e-06	-8.365837e-09	5.431171e-09	-6.019487e-02	3.523058e+02
2.490000e-06	-1.098557e-07	4.581171e-09	-7.904470e-01	2.966788e+02
2.500000e-06	-2.112987e-07	3.723050e-09	-1.520362e+00	2.406755e+02
2.510000e-06	-3.126124e-07	2.861000e-09	-2.249346e+00	1.843896e+02
2.520000e-06	-4.137536e-07	1.995706e-09	-2.977090e+00	1.278146e+02
2.530000e-06	-5.147342e-07	1.124558e-09	-3.703677e+00	7.084729e+01
2.540000e-06	-6.154608e-07	2.446278e-10	-4.428437e+00	1.330895e+01
2.550000e-06	-7.158833e-07	-6.466529e-10	-5.151009e+00	-4.501812e+01
2.560000e-06	-8.160377e-07	-1.551902e-09	-5.871652e+00	-1.043432e+02
2.570000e-06	-9.158923e-07	-2.474885e-09	-6.590138e+00	-1.648164e+02
2.580000e-06	-1.015412e-06	-3.413846e-09	-7.306211e+00	-2.264825e+02
2.590000e-06	-1.114581e-06	-4.369388e-09	-8.019770e+00	-2.892483e+02
2.600000e-06	-1.213475e-06	-5.342132e-09	-8.731343e+00	-3.528682e+02
2.610000e-06	-1.312046e-06	-6.322907e-09	-9.440593e+00	-4.169518e+02
2.620000e-06	-1.410139e-06	-7.303521e-09	-1.014640e+01	-4.809914e+02
2.630000e-06	-1.507661e-06	-8.274515e-09	-1.084810e+01	-5.444072e+02
2.640000e-06	-1.604617e-06	-9.225462e-09	-1.154573e+01	-6.066003e+02
2.650000e-06	-1.701025e-06	-1.014779e-08	-1.223942e+01	-6.670075e+02
2.660000e-06	-1.796880e-06	-1.103684e-08	-1.292913e+01	-7.251488e+02
2.670000e-06	-1.892215e-06	-1.188923e-08	-1.361509e+01	-7.806607e+02
2.680000e-06	-1.986954e-06	-1.269722e-08	-1.429677e+01	-8.333129e+02
2.690000e-06	-2.080894e-06	-1.345809e-08	-1.497270e+01	-8.830066e+02
2.700000e-06	-2.173806e-06	-1.417543e-08	-1.564123e+01	-9.297581e+02
2.710000e-06	-2.265730e-06	-1.485111e-08	-1.630265e+01	-9.736715e+02
2.720000e-06	-2.356899e-06	-1.548488e-08	-1.695864e+01	-1.014908e+03
2.730000e-06	-2.447315e-06	-1.607970e-08	-1.760921e+01	-1.053653e+03
2.740000e-06	-2.536849e-06	-1.664060e-08	-1.825344e+01	-1.090096e+03
2.750000e-06	-2.625467e-06	-1.716734e-08	-1.889107e+01	-1.124410e+03
2.760000e-06	-2.713286e-06	-1.766065e-08	-1.952296e+01	-1.156748e+03
2.770000e-06	-2.800327e-06	-1.812559e-08	-2.014925e+01	-1.187243e+03
2.780000e-06	-2.886266e-06	-1.856571e-08	-2.076760e+01	-1.216010e+03
2.790000e-06	-2.970935e-06	-1.898026e-08	-2.137682e+01	-1.243157e+03
2.800000e-06	-3.054529e-06	-1.937260e-08	-2.197831e+01	-1.268789e+03
2.810000e-06	-3.137137e-06	-1.974589e-08	-2.257270e+01	-1.293012e+03
2.820000e-06	-3.218760e-06	-2.009846e-08	-2.316001e+01	-1.315932e+03
2.830000e-06	-3.299346e-06	-2.043126e-08	-2.373985e+01	-1.337651e+03
2.840000e-06	-3.378864e-06	-2.074641e-08	-2.431201e+01	-1.358264e+03
2.850000e-06	-3.457171e-06	-2.104786e-08	-2.487545e+01	-1.377854e+03
2.860000e-06	-3.533948e-06	-2.133579e-08	-2.542789e+01	-1.396489e+03
2.870000e-06	-3.609167e-06	-2.160800e-08	-2.596911e+01	-1.414224e+03
2.880000e-06	-3.683012e-06	-2.186457e-08	-2.650045e+01	-1.431100e+03
2.890000e-06	-3.755576e-06	-2.210828e-08	-2.702257e+01	-1.447152e+03
2.900000e-06	-3.826918e-06	-2.234321e-08	-2.753590e+01	-1.462413e+03
2.910000e-06	-3.896744e-06	-2.256829e-08	-2.803831e+01	-1.476920e+03
2.920000e-06	-3.964922e-06	-2.278205e-08	-2.852888e+01	-1.490713e+03
2.930000e-06	-4.031731e-06	-2.298544e-08	-2.900960e+01	-1.503836e+03
2.940000e-06	-4.097129e-06	-2.317997e-08	-2.948015e+01	-1.516338e+03
