# Temperatura_=_70.51
# Concentracion g/m^3_=_28200.0
# C_Vs_to_Am_M_A/Vsm_=_65563218390.804596
# pendiente_HvsI_1/m_=_3716.3
# ordenada_HvsI_A/m_=_1297.0
# frecuencia_Hz_=_301747.7958975402

Tiempo_(s)	Campo_(V.s)	Magnetizacion_(V.s)	Campo_(kA/m)	Magnetizacion_(A/m)
0.000000e+00	-5.314872e-06	-2.342078e-08	-3.829871e+01	-1.531889e+03
1.000000e-08	-5.312402e-06	-2.341745e-08	-3.828090e+01	-1.531521e+03
2.000000e-08	-5.308116e-06	-2.340722e-08	-3.825002e+01	-1.530994e+03
3.000000e-08	-5.302232e-06	-2.339629e-08	-3.820762e+01	-1.530296e+03
4.000000e-08	-5.294798e-06	-2.338324e-08	-3.815405e+01	-1.529410e+03
5.000000e-08	-5.285661e-06	-2.336314e-08	-3.808821e+01	-1.528315e+03
6.000000e-08	-5.274516e-06	-2.333700e-08	-3.800790e+01	-1.526998e+03
7.000000e-08	-5.261499e-06	-2.329594e-08	-3.791410e+01	-1.525450e+03
8.000000e-08	-5.246563e-06	-2.328031e-08	-3.780647e+01	-1.523678e+03
9.000000e-08	-5.229356e-06	-2.333022e-08	-3.768248e+01	-1.521700e+03
1.000000e-07	-5.209968e-06	-2.329031e-08	-3.754277e+01	-1.519545e+03
1.100000e-07	-5.188682e-06	-2.320204e-08	-3.738938e+01	-1.517250e+03
1.200000e-07	-5.165650e-06	-2.315939e-08	-3.722342e+01	-1.514849e+03
1.300000e-07	-5.141124e-06	-2.301072e-08	-3.704668e+01	-1.512370e+03
1.400000e-07	-5.115078e-06	-2.302324e-08	-3.685900e+01	-1.509828e+03
1.500000e-07	-5.087289e-06	-2.314446e-08	-3.665875e+01	-1.507222e+03
1.600000e-07	-5.057941e-06	-2.291687e-08	-3.644727e+01	-1.504532e+03
1.700000e-07	-5.027168e-06	-2.292360e-08	-3.622552e+01	-1.501723e+03
1.800000e-07	-4.994527e-06	-2.298227e-08	-3.599032e+01	-1.498750e+03
1.900000e-07	-4.959835e-06	-2.270253e-08	-3.574032e+01	-1.495564e+03
2.000000e-07	-4.923635e-06	-2.274233e-08	-3.547947e+01	-1.492119e+03
2.100000e-07	-4.885872e-06	-2.276465e-08	-3.520735e+01	-1.488380e+03
2.200000e-07	-4.846302e-06	-2.258696e-08	-3.492221e+01	-1.484324e+03
2.300000e-07	-4.804925e-06	-2.258260e-08	-3.462405e+01	-1.479943e+03
2.400000e-07	-4.761565e-06	-2.248814e-08	-3.431160e+01	-1.475243e+03
2.500000e-07	-4.716386e-06	-2.236932e-08	-3.398604e+01	-1.470241e+03
2.600000e-07	-4.669471e-06	-2.234743e-08	-3.364797e+01	-1.464957e+03
2.700000e-07	-4.620659e-06	-2.222845e-08	-3.329624e+01	-1.459412e+03
2.800000e-07	-4.569733e-06	-2.214110e-08	-3.292927e+01	-1.453620e+03
2.900000e-07	-4.516737e-06	-2.204884e-08	-3.254738e+01	-1.447589e+03
3.000000e-07	-4.462093e-06	-2.194909e-08	-3.215362e+01	-1.441317e+03
3.100000e-07	-4.405948e-06	-2.185830e-08	-3.174904e+01	-1.434793e+03
3.200000e-07	-4.348030e-06	-2.175033e-08	-3.133169e+01	-1.428005e+03
3.300000e-07	-4.288415e-06	-2.165514e-08	-3.090211e+01	-1.420933e+03
3.400000e-07	-4.227361e-06	-2.151690e-08	-3.046215e+01	-1.413564e+03
3.500000e-07	-4.164840e-06	-2.140143e-08	-3.001163e+01	-1.405885e+03
3.600000e-07	-4.100944e-06	-2.127541e-08	-2.955120e+01	-1.397889e+03
3.700000e-07	-4.035612e-06	-2.115197e-08	-2.908042e+01	-1.389574e+03
3.800000e-07	-3.968646e-06	-2.104780e-08	-2.859787e+01	-1.380938e+03
3.900000e-07	-3.900167e-06	-2.088514e-08	-2.810441e+01	-1.371983e+03
4.000000e-07	-3.830363e-06	-2.073963e-08	-2.760140e+01	-1.362705e+03
4.100000e-07	-3.759347e-06	-2.060133e-08	-2.708967e+01	-1.353099e+03
4.200000e-07	-3.687215e-06	-2.044554e-08	-2.656989e+01	-1.343153e+03
4.300000e-07	-3.613688e-06	-2.028957e-08	-2.604006e+01	-1.332851e+03
4.400000e-07	-3.538482e-06	-2.012711e-08	-2.549812e+01	-1.322174e+03
4.500000e-07	-3.461830e-06	-1.995872e-08	-2.494577e+01	-1.311102e+03
4.600000e-07	-3.383922e-06	-1.977214e-08	-2.438438e+01	-1.299616e+03
4.700000e-07	-3.304663e-06	-1.959271e-08	-2.381324e+01	-1.287697e+03
4.800000e-07	-3.224000e-06	-1.941215e-08	-2.323198e+01	-1.275329e+03
4.900000e-07	-3.142099e-06	-1.921127e-08	-2.264181e+01	-1.262498e+03
5.000000e-07	-3.059142e-06	-1.900430e-08	-2.204403e+01	-1.249189e+03
5.100000e-07	-2.975290e-06	-1.878851e-08	-2.143979e+01	-1.235386e+03
5.200000e-07	-2.890635e-06	-1.856820e-08	-2.082977e+01	-1.221068e+03
5.300000e-07	-2.805038e-06	-1.834146e-08	-2.021297e+01	-1.206211e+03
5.400000e-07	-2.718430e-06	-1.810848e-08	-1.958887e+01	-1.190782e+03
5.500000e-07	-2.630931e-06	-1.787083e-08	-1.895836e+01	-1.174747e+03
5.600000e-07	-2.542594e-06	-1.761339e-08	-1.832180e+01	-1.158066e+03
5.700000e-07	-2.453196e-06	-1.734306e-08	-1.767761e+01	-1.140699e+03
5.800000e-07	-2.362560e-06	-1.706294e-08	-1.702449e+01	-1.122603e+03
5.900000e-07	-2.270918e-06	-1.677775e-08	-1.636412e+01	-1.103740e+03
6.000000e-07	-2.178576e-06	-1.647875e-08	-1.569871e+01	-1.084068e+03
6.100000e-07	-2.085563e-06	-1.616599e-08	-1.502847e+01	-1.063548e+03
6.200000e-07	-1.991778e-06	-1.583905e-08	-1.435265e+01	-1.042137e+03
6.300000e-07	-1.897234e-06	-1.549277e-08	-1.367137e+01	-1.019786e+03
6.400000e-07	-1.802043e-06	-1.513406e-08	-1.298543e+01	-9.964410e+02
6.500000e-07	-1.706345e-06	-1.476022e-08	-1.229584e+01	-9.720368e+02
6.600000e-07	-1.610093e-06	-1.437057e-08	-1.160225e+01	-9.464988e+02
6.700000e-07	-1.513155e-06	-1.396206e-08	-1.090372e+01	-9.197427e+02
6.800000e-07	-1.415572e-06	-1.353432e-08	-1.020054e+01	-8.916754e+02
6.900000e-07	-1.317345e-06	-1.308230e-08	-9.492723e+00	-8.621990e+02
7.000000e-07	-1.218485e-06	-1.260588e-08	-8.780345e+00	-8.312141e+02
7.100000e-07	-1.119174e-06	-1.210707e-08	-8.064709e+00	-7.986259e+02
7.200000e-07	-1.019594e-06	-1.158540e-08	-7.347141e+00	-7.643502e+02
7.300000e-07	-9.197285e-07	-1.103835e-08	-6.627518e+00	-7.283208e+02
7.400000e-07	-8.196035e-07	-1.046286e-08	-5.906022e+00	-6.904980e+02
7.500000e-07	-7.192827e-07	-9.863399e-09	-5.183116e+00	-6.508761e+02
7.600000e-07	-6.187703e-07	-9.232296e-09	-4.458828e+00	-6.094913e+02
7.700000e-07	-5.180741e-07	-8.573077e-09	-3.733216e+00	-5.664261e+02
7.800000e-07	-4.172029e-07	-7.894276e-09	-3.006344e+00	-5.218116e+02
7.900000e-07	-3.162205e-07	-7.196385e-09	-2.278669e+00	-4.758234e+02
8.000000e-07	-2.151136e-07	-6.479749e-09	-1.550098e+00	-4.286730e+02
8.100000e-07	-1.138450e-07	-5.748155e-09	-8.203615e-01	-3.805916e+02
8.200000e-07	-1.248164e-08	-5.009357e-09	-8.994205e-02	-3.318106e+02
8.300000e-07	8.887586e-08	-4.260109e-09	6.404350e-01	-2.825369e+02
8.400000e-07	1.901532e-07	-3.504130e-09	1.370235e+00	-2.329307e+02
8.500000e-07	2.913786e-07	-2.744939e-09	2.099660e+00	-1.830849e+02
8.600000e-07	3.925270e-07	-1.984157e-09	2.828530e+00	-1.330145e+02
8.700000e-07	4.935316e-07	-1.219507e-09	3.556364e+00	-8.265475e+01
8.800000e-07	5.944052e-07	-4.463628e-10	4.283254e+00	-3.187392e+01
8.900000e-07	6.951344e-07	3.378942e-10	5.009104e+00	1.950340e+01
9.000000e-07	7.956890e-07	1.134862e-09	5.733696e+00	7.166240e+01
9.100000e-07	8.960684e-07	1.944379e-09	6.457025e+00	1.247591e+02
9.200000e-07	9.962471e-07	2.766636e-09	7.178907e+00	1.788819e+02
9.300000e-07	1.096096e-06	3.601747e-09	7.898413e+00	2.340195e+02
9.400000e-07	1.195523e-06	4.453230e-09	8.614882e+00	2.900410e+02
9.500000e-07	1.294543e-06	5.315968e-09	9.328410e+00	3.466914e+02
9.600000e-07	1.392959e-06	6.182629e-09	1.003759e+01	4.036037e+02
9.700000e-07	1.490615e-06	7.045803e-09	1.074130e+01	4.603262e+02
9.800000e-07	1.587589e-06	7.898029e-09	1.144008e+01	5.163616e+02
9.900000e-07	1.683887e-06	8.732224e-09	1.213401e+01	5.712102e+02
1.000000e-06	1.779535e-06	9.543193e-09	1.282324e+01	6.244134e+02
1.010000e-06	1.874563e-06	1.032288e-08	1.350801e+01	6.755886e+02
1.020000e-06	1.968935e-06	1.106226e-08	1.418805e+01	7.244533e+02
1.030000e-06	2.062576e-06	1.176376e-08	1.486282e+01	7.708347e+02
1.040000e-06	2.155557e-06	1.242668e-08	1.553284e+01	8.146656e+02
1.050000e-06	2.247969e-06	1.305095e-08	1.619875e+01	8.559689e+02
1.060000e-06	2.339676e-06	1.363898e-08	1.685959e+01	8.948347e+02
1.070000e-06	2.430444e-06	1.419611e-08	1.751366e+01	9.313953e+02
1.080000e-06	2.520190e-06	1.472230e-08	1.816036e+01	9.658018e+02
1.090000e-06	2.608945e-06	1.521704e-08	1.879993e+01	9.982060e+02
1.100000e-06	2.696751e-06	1.568149e-08	1.943266e+01	1.028749e+03
1.110000e-06	2.783662e-06	1.611771e-08	2.005893e+01	1.057558e+03
1.120000e-06	2.869611e-06	1.652793e-08	2.067828e+01	1.084745e+03
1.130000e-06	2.954598e-06	1.691564e-08	2.129069e+01	1.110414e+03
1.140000e-06	3.038750e-06	1.728411e-08	2.189708e+01	1.134663e+03
1.150000e-06	3.121926e-06	1.763316e-08	2.249644e+01	1.157588e+03
1.160000e-06	3.203886e-06	1.796563e-08	2.308704e+01	1.179283e+03
1.170000e-06	3.284677e-06	1.827967e-08	2.366922e+01	1.199841e+03
1.180000e-06	3.364334e-06	1.857760e-08	2.424322e+01	1.219346e+03
1.190000e-06	3.442801e-06	1.886019e-08	2.480865e+01	1.237874e+03
1.200000e-06	3.520102e-06	1.912816e-08	2.536568e+01	1.255488e+03
1.210000e-06	3.596200e-06	1.938117e-08	2.591404e+01	1.272239e+03
1.220000e-06	3.670905e-06	1.962120e-08	2.645236e+01	1.288166e+03
1.230000e-06	3.744012e-06	1.984949e-08	2.697917e+01	1.303305e+03
1.240000e-06	3.815606e-06	2.006604e-08	2.749507e+01	1.317689e+03
1.250000e-06	3.885844e-06	2.027288e-08	2.800120e+01	1.331354e+03
1.260000e-06	3.954748e-06	2.047010e-08	2.849772e+01	1.344340e+03
1.270000e-06	4.022330e-06	2.065746e-08	2.898471e+01	1.356693e+03
1.280000e-06	4.088357e-06	2.083540e-08	2.946050e+01	1.368458e+03
1.290000e-06	4.152739e-06	2.100566e-08	2.992443e+01	1.379677e+03
1.300000e-06	4.215658e-06	2.116897e-08	3.037782e+01	1.390385e+03
1.310000e-06	4.277194e-06	2.132624e-08	3.082125e+01	1.400605e+03
1.320000e-06	4.337409e-06	2.147498e-08	3.125516e+01	1.410348e+03
1.330000e-06	4.396134e-06	2.161650e-08	3.167832e+01	1.419614e+03
1.340000e-06	4.453037e-06	2.175212e-08	3.208836e+01	1.428397e+03
1.350000e-06	4.508201e-06	2.187954e-08	3.248588e+01	1.436692e+03
1.360000e-06	4.561755e-06	2.199862e-08	3.287178e+01	1.444499e+03
1.370000e-06	4.613497e-06	2.210884e-08	3.324463e+01	1.451830e+03
1.380000e-06	4.663233e-06	2.221220e-08	3.360303e+01	1.458710e+03
1.390000e-06	4.711110e-06	2.231015e-08	3.394802e+01	1.465177e+03
1.400000e-06	4.757385e-06	2.240365e-08	3.428148e+01	1.471274e+03
1.410000e-06	4.802159e-06	2.249142e-08	3.460412e+01	1.477048e+03
1.420000e-06	4.845279e-06	2.257433e-08	3.491484e+01	1.482540e+03
1.430000e-06	4.886512e-06	2.265485e-08	3.521196e+01	1.487778e+03
1.440000e-06	4.926001e-06	2.273135e-08	3.549652e+01	1.492776e+03
1.450000e-06	4.963847e-06	2.280286e-08	3.576924e+01	1.497535e+03
1.460000e-06	5.000164e-06	2.287047e-08	3.603093e+01	1.502041e+03
1.470000e-06	5.034717e-06	2.293496e-08	3.627992e+01	1.506275e+03
1.480000e-06	5.067291e-06	2.299504e-08	3.651465e+01	1.510218e+03
1.490000e-06	5.098179e-06	2.304852e-08	3.673723e+01	1.513854e+03
1.500000e-06	5.127416e-06	2.309654e-08	3.694791e+01	1.517177e+03
1.510000e-06	5.154885e-06	2.314176e-08	3.714585e+01	1.520194e+03
1.520000e-06	5.180409e-06	2.318494e-08	3.732977e+01	1.522918e+03
1.530000e-06	5.203925e-06	2.322410e-08	3.749922e+01	1.525370e+03
1.540000e-06	5.225590e-06	2.325836e-08	3.765534e+01	1.527569e+03
1.550000e-06	5.245557e-06	2.328815e-08	3.779922e+01	1.529535e+03
1.560000e-06	5.263637e-06	2.331370e-08	3.792951e+01	1.531280e+03
1.570000e-06	5.279676e-06	2.333419e-08	3.804508e+01	1.532809e+03
1.580000e-06	5.293846e-06	2.335161e-08	3.814719e+01	1.534123e+03
1.590000e-06	5.306054e-06	2.336811e-08	3.823516e+01	1.535219e+03
1.600000e-06	5.316045e-06	2.338213e-08	3.830716e+01	1.536095e+03
1.610000e-06	5.323963e-06	2.339453e-08	3.836422e+01	1.536753e+03
1.620000e-06	5.330014e-06	2.340371e-08	3.840782e+01	1.537200e+03
1.630000e-06	5.334354e-06	2.340846e-08	3.843909e+01	1.537449e+03
1.640000e-06	5.336829e-06	2.341121e-08	3.845693e+01	1.537516e+03
1.650000e-06	5.337256e-06	2.341296e-08	3.846000e+01	1.537415e+03
1.660000e-06	5.335926e-06	2.340656e-08	3.845042e+01	1.537156e+03
1.670000e-06	5.333009e-06	2.339904e-08	3.842940e+01	1.536742e+03
1.680000e-06	5.328389e-06	2.339089e-08	3.839611e+01	1.536167e+03
1.690000e-06	5.321834e-06	2.337863e-08	3.834887e+01	1.535417e+03
1.700000e-06	5.313519e-06	2.336573e-08	3.828895e+01	1.534472e+03
1.710000e-06	5.303654e-06	2.335390e-08	3.821787e+01	1.533314e+03
1.720000e-06	5.292037e-06	2.335339e-08	3.813416e+01	1.531930e+03
1.730000e-06	5.278437e-06	2.333868e-08	3.803616e+01	1.530316e+03
1.740000e-06	5.262898e-06	2.321169e-08	3.792418e+01	1.528482e+03
1.750000e-06	5.245216e-06	2.318006e-08	3.779677e+01	1.526449e+03
1.760000e-06	5.224854e-06	2.320006e-08	3.765004e+01	1.524250e+03
1.770000e-06	5.202082e-06	2.318817e-08	3.748595e+01	1.521920e+03
1.780000e-06	5.177830e-06	2.329334e-08	3.731119e+01	1.519493e+03
1.790000e-06	5.152830e-06	2.309561e-08	3.713104e+01	1.516994e+03
1.800000e-06	5.126689e-06	2.297229e-08	3.694267e+01	1.514434e+03
1.810000e-06	5.098374e-06	2.313808e-08	3.673863e+01	1.511806e+03
1.820000e-06	5.068098e-06	2.290273e-08	3.652047e+01	1.509086e+03
1.830000e-06	5.036261e-06	2.288502e-08	3.629105e+01	1.506234e+03
1.840000e-06	5.002507e-06	2.306605e-08	3.604781e+01	1.503204e+03
1.850000e-06	4.967197e-06	2.277642e-08	3.579337e+01	1.499947e+03
1.860000e-06	4.930265e-06	2.277994e-08	3.552725e+01	1.496421e+03
1.870000e-06	4.891297e-06	2.281769e-08	3.524645e+01	1.492592e+03
1.880000e-06	4.850655e-06	2.260866e-08	3.495358e+01	1.488442e+03
1.890000e-06	4.808268e-06	2.269438e-08	3.464814e+01	1.483968e+03
1.900000e-06	4.764208e-06	2.253351e-08	3.433064e+01	1.479179e+03
1.910000e-06	4.718441e-06	2.243420e-08	3.400085e+01	1.474093e+03
1.920000e-06	4.670696e-06	2.251211e-08	3.365681e+01	1.468732e+03
1.930000e-06	4.621379e-06	2.227805e-08	3.330142e+01	1.463114e+03
1.940000e-06	4.570321e-06	2.225126e-08	3.293351e+01	1.457252e+03
1.950000e-06	4.517162e-06	2.216342e-08	3.255045e+01	1.451152e+03
1.960000e-06	4.462164e-06	2.203868e-08	3.215413e+01	1.444808e+03
1.970000e-06	4.405422e-06	2.199831e-08	3.174525e+01	1.438210e+03
1.980000e-06	4.347096e-06	2.178109e-08	3.132496e+01	1.431341e+03
1.990000e-06	4.287401e-06	2.176140e-08	3.089480e+01	1.424186e+03
2.000000e-06	4.226244e-06	2.165300e-08	3.045411e+01	1.416728e+03
2.010000e-06	4.163358e-06	2.149816e-08	3.000095e+01	1.408958e+03
2.020000e-06	4.098827e-06	2.140326e-08	2.953594e+01	1.400870e+03
2.030000e-06	4.032959e-06	2.122060e-08	2.906130e+01	1.392462e+03
2.040000e-06	3.965810e-06	2.116771e-08	2.857743e+01	1.383735e+03
2.050000e-06	3.897223e-06	2.098822e-08	2.808320e+01	1.374687e+03
2.060000e-06	3.826982e-06	2.083637e-08	2.757704e+01	1.365315e+03
2.070000e-06	3.755317e-06	2.072829e-08	2.706063e+01	1.355612e+03
2.080000e-06	3.682420e-06	2.053418e-08	2.653534e+01	1.345565e+03
2.090000e-06	3.608198e-06	2.039608e-08	2.600049e+01	1.335157e+03
2.100000e-06	3.532690e-06	2.020892e-08	2.545639e+01	1.324369e+03
2.110000e-06	3.455641e-06	2.007190e-08	2.490117e+01	1.313180e+03
2.120000e-06	3.376980e-06	1.989203e-08	2.433435e+01	1.301571e+03
2.130000e-06	3.297141e-06	1.969122e-08	2.375904e+01	1.289524e+03
2.140000e-06	3.216261e-06	1.951718e-08	2.317622e+01	1.277025e+03
2.150000e-06	3.134283e-06	1.930622e-08	2.258549e+01	1.264058e+03
2.160000e-06	3.051281e-06	1.911925e-08	2.198738e+01	1.250609e+03
2.170000e-06	2.967363e-06	1.890025e-08	2.138267e+01	1.236660e+03
2.180000e-06	2.882343e-06	1.868899e-08	2.077002e+01	1.222190e+03
2.190000e-06	2.795940e-06	1.845738e-08	2.014741e+01	1.207171e+03
2.200000e-06	2.708391e-06	1.821027e-08	1.951653e+01	1.191572e+03
2.210000e-06	2.619991e-06	1.796890e-08	1.887953e+01	1.175356e+03
2.220000e-06	2.530732e-06	1.771017e-08	1.823633e+01	1.158482e+03
2.230000e-06	2.440560e-06	1.744808e-08	1.758655e+01	1.140910e+03
2.240000e-06	2.349619e-06	1.716249e-08	1.693124e+01	1.122599e+03
2.250000e-06	2.258021e-06	1.687710e-08	1.627119e+01	1.103507e+03
2.260000e-06	2.165677e-06	1.657352e-08	1.560576e+01	1.083597e+03
2.270000e-06	2.072423e-06	1.625697e-08	1.493378e+01	1.062826e+03
2.280000e-06	1.978127e-06	1.593030e-08	1.425428e+01	1.041150e+03
2.290000e-06	1.882960e-06	1.558701e-08	1.356852e+01	1.018520e+03
2.300000e-06	1.787178e-06	1.522985e-08	1.287832e+01	9.948787e+02
2.310000e-06	1.690880e-06	1.485196e-08	1.218440e+01	9.701577e+02
2.320000e-06	1.594103e-06	1.445984e-08	1.148703e+01	9.442799e+02
2.330000e-06	1.496780e-06	1.404782e-08	1.078572e+01	9.171580e+02
2.340000e-06	1.398887e-06	1.361487e-08	1.008031e+01	8.886974e+02
2.350000e-06	1.300558e-06	1.315720e-08	9.371754e+00	8.587991e+02
2.360000e-06	1.201886e-06	1.267979e-08	8.660729e+00	8.273646e+02
2.370000e-06	1.102926e-06	1.217856e-08	7.947633e+00	7.943013e+02
2.380000e-06	1.003715e-06	1.164938e-08	7.232720e+00	7.595294e+02
2.390000e-06	9.042883e-07	1.109162e-08	6.516256e+00	7.229894e+02
2.400000e-06	8.046146e-07	1.050326e-08	5.798013e+00	6.846506e+02
2.410000e-06	7.046097e-07	9.891032e-09	5.077383e+00	6.445185e+02
2.420000e-06	6.043033e-07	9.251193e-09	4.354580e+00	6.026421e+02
2.430000e-06	5.037775e-07	8.583618e-09	3.630196e+00	5.591179e+02
2.440000e-06	4.031140e-07	7.893546e-09	2.904819e+00	5.140903e+02
2.450000e-06	3.023052e-07	7.184354e-09	2.178396e+00	4.677464e+02
2.460000e-06	2.013162e-07	6.456827e-09	1.450675e+00	4.203051e+02
2.470000e-06	1.002033e-07	5.716813e-09	7.220599e-01	3.719999e+02
2.480000e-06	-9.707981e-10	4.972930e-09	-6.995523e-03	3.230577e+02
2.490000e-06	-1.021470e-07	4.220787e-09	-7.360664e-01	2.736745e+02
2.500000e-06	-2.033097e-07	3.459459e-09	-1.465040e+00	2.239927e+02
2.510000e-06	-3.043994e-07	2.693441e-09	-2.193487e+00	1.740839e+02
2.520000e-06	-4.053301e-07	1.924647e-09	-2.920788e+00	1.239397e+02
2.530000e-06	-5.060721e-07	1.152212e-09	-3.646730e+00	7.347473e+01
2.540000e-06	-6.066635e-07	3.736416e-10	-4.371587e+00	2.254161e+01
2.550000e-06	-7.070190e-07	-4.140958e-10	-5.094744e+00	-2.904156e+01
2.560000e-06	-8.070506e-07	-1.214240e-09	-5.815567e+00	-8.145572e+01
2.570000e-06	-9.068010e-07	-2.030220e-09	-6.534363e+00	-1.348413e+02
2.580000e-06	-1.006252e-06	-2.860264e-09	-7.251005e+00	-1.892611e+02
2.590000e-06	-1.105378e-06	-3.704158e-09	-7.965302e+00	-2.446710e+02
2.600000e-06	-1.204177e-06	-4.563544e-09	-8.677237e+00	-3.009044e+02
2.610000e-06	-1.302596e-06	-5.431926e-09	-9.386442e+00	-3.576722e+02
2.620000e-06	-1.400553e-06	-6.302963e-09	-1.009232e+01	-4.145800e+02
2.630000e-06	-1.497962e-06	-7.169736e-09	-1.079424e+01	-4.711588e+02
2.640000e-06	-1.594780e-06	-8.025371e-09	-1.149191e+01	-5.269060e+02
2.650000e-06	-1.691066e-06	-8.859093e-09	-1.218574e+01	-5.813294e+02
2.660000e-06	-1.786913e-06	-9.663245e-09	-1.287641e+01	-6.339891e+02
2.670000e-06	-1.882247e-06	-1.043580e-08	-1.356338e+01	-6.845291e+02
2.680000e-06	-1.976832e-06	-1.117270e-08	-1.424495e+01	-7.326980e+02
2.690000e-06	-2.070554e-06	-1.187191e-08	-1.492031e+01	-7.783541e+02
2.700000e-06	-2.163334e-06	-1.253123e-08	-1.558888e+01	-8.214580e+02
2.710000e-06	-2.255228e-06	-1.315526e-08	-1.625106e+01	-8.620542e+02
2.720000e-06	-2.346352e-06	-1.374489e-08	-1.690769e+01	-9.002476e+02
2.730000e-06	-2.436662e-06	-1.429774e-08	-1.755846e+01	-9.361779e+02
2.740000e-06	-2.526047e-06	-1.481672e-08	-1.820257e+01	-9.699981e+02
2.750000e-06	-2.614547e-06	-1.530423e-08	-1.884030e+01	-1.001858e+03
2.760000e-06	-2.702325e-06	-1.576393e-08	-1.947282e+01	-1.031894e+03
2.770000e-06	-2.789289e-06	-1.619597e-08	-2.009948e+01	-1.060229e+03
2.780000e-06	-2.875140e-06	-1.660356e-08	-2.071812e+01	-1.086973e+03
2.790000e-06	-2.959791e-06	-1.699015e-08	-2.132811e+01	-1.112227e+03
2.800000e-06	-3.043388e-06	-1.735611e-08	-2.193050e+01	-1.136089e+03
2.810000e-06	-3.126022e-06	-1.770176e-08	-2.252596e+01	-1.158654e+03
2.820000e-06	-3.207580e-06	-1.802891e-08	-2.311366e+01	-1.180016e+03
2.830000e-06	-3.288082e-06	-1.833878e-08	-2.369375e+01	-1.200266e+03
2.840000e-06	-3.367568e-06	-1.863299e-08	-2.426652e+01	-1.219486e+03
2.850000e-06	-3.445703e-06	-1.891366e-08	-2.482956e+01	-1.237748e+03
2.860000e-06	-3.522284e-06	-1.917937e-08	-2.538141e+01	-1.255111e+03
2.870000e-06	-3.597428e-06	-1.943030e-08	-2.592289e+01	-1.271623e+03
2.880000e-06	-3.671221e-06	-1.967015e-08	-2.645464e+01	-1.287323e+03
2.890000e-06	-3.743732e-06	-1.990065e-08	-2.697715e+01	-1.302243e+03
2.900000e-06	-3.815008e-06	-2.012122e-08	-2.749076e+01	-1.316419e+03
2.910000e-06	-3.884850e-06	-2.033026e-08	-2.799404e+01	-1.329887e+03
2.920000e-06	-3.953130e-06	-2.052790e-08	-2.848606e+01	-1.342688e+03
2.930000e-06	-4.019993e-06	-2.071446e-08	-2.896787e+01	-1.354869e+03
2.940000e-06	-4.085467e-06	-2.088982e-08	-2.943967e+01	-1.366475e+03
