# Temperatura_=_85.12
# Concentracion g/m^3_=_28200.0
# C_Vs_to_Am_M_A/Vsm_=_65563218390.804596
# pendiente_HvsI_1/m_=_3716.3
# ordenada_HvsI_A/m_=_1297.0
# frecuencia_Hz_=_301740.8030774196

Tiempo_(s)	Campo_(V.s)	Magnetizacion_(V.s)	Campo_(kA/m)	Magnetizacion_(A/m)
0.000000e+00	-5.307890e-06	-2.702163e-08	-3.830260e+01	-1.768314e+03
1.000000e-08	-5.305373e-06	-2.701546e-08	-3.828444e+01	-1.767788e+03
2.000000e-08	-5.301095e-06	-2.700208e-08	-3.825356e+01	-1.767069e+03
3.000000e-08	-5.295273e-06	-2.698785e-08	-3.821156e+01	-1.766152e+03
4.000000e-08	-5.287913e-06	-2.697122e-08	-3.815844e+01	-1.765024e+03
5.000000e-08	-5.278814e-06	-2.694833e-08	-3.809278e+01	-1.763667e+03
6.000000e-08	-5.267598e-06	-2.692033e-08	-3.801185e+01	-1.762064e+03
7.000000e-08	-5.254433e-06	-2.688010e-08	-3.791685e+01	-1.760201e+03
8.000000e-08	-5.239336e-06	-2.685723e-08	-3.780790e+01	-1.758078e+03
9.000000e-08	-5.222025e-06	-2.688872e-08	-3.768299e+01	-1.755708e+03
1.000000e-07	-5.202608e-06	-2.685317e-08	-3.754287e+01	-1.753118e+03
1.100000e-07	-5.181346e-06	-2.676634e-08	-3.738944e+01	-1.750348e+03
1.200000e-07	-5.158367e-06	-2.670672e-08	-3.722362e+01	-1.747442e+03
1.300000e-07	-5.133883e-06	-2.657661e-08	-3.704694e+01	-1.744441e+03
1.400000e-07	-5.107853e-06	-2.655649e-08	-3.685910e+01	-1.741374e+03
1.500000e-07	-5.080089e-06	-2.664290e-08	-3.665875e+01	-1.738249e+03
1.600000e-07	-5.050832e-06	-2.645777e-08	-3.644762e+01	-1.735053e+03
1.700000e-07	-5.020154e-06	-2.642575e-08	-3.622625e+01	-1.731747e+03
1.800000e-07	-4.987573e-06	-2.646870e-08	-3.599114e+01	-1.728277e+03
1.900000e-07	-4.952880e-06	-2.623825e-08	-3.574079e+01	-1.724578e+03
2.000000e-07	-4.916634e-06	-2.625064e-08	-3.547923e+01	-1.720588e+03
2.100000e-07	-4.878847e-06	-2.625905e-08	-3.520655e+01	-1.716256e+03
2.200000e-07	-4.839272e-06	-2.606008e-08	-3.492098e+01	-1.711547e+03
2.300000e-07	-4.797899e-06	-2.600899e-08	-3.462242e+01	-1.706450e+03
2.400000e-07	-4.754535e-06	-2.590795e-08	-3.430950e+01	-1.700974e+03
2.500000e-07	-4.709422e-06	-2.579281e-08	-3.398396e+01	-1.695141e+03
2.600000e-07	-4.662627e-06	-2.579196e-08	-3.364628e+01	-1.688984e+03
2.700000e-07	-4.613930e-06	-2.563787e-08	-3.329487e+01	-1.682529e+03
2.800000e-07	-4.563085e-06	-2.549233e-08	-3.292797e+01	-1.675798e+03
2.900000e-07	-4.510149e-06	-2.540552e-08	-3.254597e+01	-1.668797e+03
3.000000e-07	-4.455582e-06	-2.529520e-08	-3.215220e+01	-1.661520e+03
3.100000e-07	-4.399497e-06	-2.519318e-08	-3.174749e+01	-1.653950e+03
3.200000e-07	-4.341629e-06	-2.509241e-08	-3.132990e+01	-1.646066e+03
3.300000e-07	-4.282082e-06	-2.496901e-08	-3.090020e+01	-1.637846e+03
3.400000e-07	-4.221107e-06	-2.479620e-08	-3.046020e+01	-1.629276e+03
3.500000e-07	-4.158696e-06	-2.465460e-08	-3.000983e+01	-1.620346e+03
3.600000e-07	-4.094970e-06	-2.452078e-08	-2.954997e+01	-1.611059e+03
3.700000e-07	-4.029799e-06	-2.439163e-08	-2.907968e+01	-1.601420e+03
3.800000e-07	-3.962933e-06	-2.427406e-08	-2.859717e+01	-1.591434e+03
3.900000e-07	-3.894487e-06	-2.408432e-08	-2.810326e+01	-1.581104e+03
4.000000e-07	-3.824752e-06	-2.389547e-08	-2.760003e+01	-1.570423e+03
4.100000e-07	-3.753838e-06	-2.374277e-08	-2.708830e+01	-1.559376e+03
4.200000e-07	-3.681761e-06	-2.356867e-08	-2.656819e+01	-1.547942e+03
4.300000e-07	-3.608254e-06	-2.338937e-08	-2.603775e+01	-1.536093e+03
4.400000e-07	-3.533101e-06	-2.319963e-08	-2.549543e+01	-1.523801e+03
4.500000e-07	-3.456532e-06	-2.299916e-08	-2.494290e+01	-1.511041e+03
4.600000e-07	-3.378742e-06	-2.278770e-08	-2.438155e+01	-1.497794e+03
4.700000e-07	-3.299622e-06	-2.258533e-08	-2.381061e+01	-1.484048e+03
4.800000e-07	-3.219068e-06	-2.238313e-08	-2.322932e+01	-1.469791e+03
4.900000e-07	-3.137283e-06	-2.215339e-08	-2.263914e+01	-1.455013e+03
5.000000e-07	-3.054403e-06	-2.191555e-08	-2.204107e+01	-1.439701e+03
5.100000e-07	-2.970613e-06	-2.166460e-08	-2.143643e+01	-1.423833e+03
5.200000e-07	-2.885999e-06	-2.140974e-08	-2.082584e+01	-1.407377e+03
5.300000e-07	-2.800473e-06	-2.114761e-08	-2.020867e+01	-1.390296e+03
5.400000e-07	-2.713990e-06	-2.087816e-08	-1.958460e+01	-1.372547e+03
5.500000e-07	-2.626598e-06	-2.060211e-08	-1.895396e+01	-1.354085e+03
5.600000e-07	-2.538361e-06	-2.030539e-08	-1.831723e+01	-1.334867e+03
5.700000e-07	-2.449016e-06	-1.999976e-08	-1.767250e+01	-1.314857e+03
5.800000e-07	-2.358418e-06	-1.968759e-08	-1.701872e+01	-1.294020e+03
5.900000e-07	-2.266913e-06	-1.936289e-08	-1.635841e+01	-1.272325e+03
6.000000e-07	-2.174741e-06	-1.901204e-08	-1.569329e+01	-1.249738e+03
6.100000e-07	-2.081846e-06	-1.864621e-08	-1.502294e+01	-1.226214e+03
6.200000e-07	-1.988176e-06	-1.826953e-08	-1.434700e+01	-1.201699e+03
6.300000e-07	-1.893715e-06	-1.787600e-08	-1.366536e+01	-1.176123e+03
6.400000e-07	-1.798591e-06	-1.747068e-08	-1.297893e+01	-1.149399e+03
6.500000e-07	-1.702967e-06	-1.704550e-08	-1.228889e+01	-1.121432e+03
6.600000e-07	-1.606883e-06	-1.659864e-08	-1.159553e+01	-1.092116e+03
6.700000e-07	-1.510234e-06	-1.612954e-08	-1.089810e+01	-1.061345e+03
6.800000e-07	-1.412857e-06	-1.563781e-08	-1.019541e+01	-1.029013e+03
6.900000e-07	-1.314739e-06	-1.512066e-08	-9.487370e+00	-9.950193e+02
7.000000e-07	-1.215967e-06	-1.457480e-08	-8.774615e+00	-9.592703e+02
7.100000e-07	-1.116739e-06	-1.399997e-08	-8.058572e+00	-9.216769e+02
7.200000e-07	-1.017257e-06	-1.339597e-08	-7.340690e+00	-8.821572e+02
7.300000e-07	-9.175376e-07	-1.276231e-08	-6.621101e+00	-8.406384e+02
7.400000e-07	-8.175852e-07	-1.209963e-08	-5.899828e+00	-7.970632e+02
7.500000e-07	-7.174317e-07	-1.140795e-08	-5.177104e+00	-7.513996e+02
7.600000e-07	-6.170798e-07	-1.068137e-08	-4.452948e+00	-7.036531e+02
7.700000e-07	-5.164986e-07	-9.921417e-09	-3.727138e+00	-6.538796e+02
7.800000e-07	-4.157269e-07	-9.133724e-09	-2.999953e+00	-6.021950e+02
7.900000e-07	-3.148287e-07	-8.318181e-09	-2.271855e+00	-5.487781e+02
8.000000e-07	-2.138273e-07	-7.478448e-09	-1.543012e+00	-4.938646e+02
8.100000e-07	-1.127382e-07	-6.623401e-09	-8.135374e-01	-4.377292e+02
8.200000e-07	-1.158997e-08	-5.756933e-09	-8.363514e-02	-3.806590e+02
8.300000e-07	8.954557e-08	-4.880421e-09	6.461754e-01	-3.229200e+02
8.400000e-07	1.906776e-07	-3.996091e-09	1.375961e+00	-2.647219e+02
8.500000e-07	2.917653e-07	-3.104679e-09	2.105426e+00	-2.061892e+02
8.600000e-07	3.927812e-07	-2.207873e-09	2.834373e+00	-1.473433e+02
8.700000e-07	4.937178e-07	-1.304732e-09	3.562748e+00	-8.810161e+01
8.800000e-07	5.945556e-07	-3.941585e-10	4.290410e+00	-2.829455e+01
8.900000e-07	6.952524e-07	5.284436e-10	5.017055e+00	3.229915e+01
9.000000e-07	7.957319e-07	1.466799e-09	5.742131e+00	9.390506e+01
9.100000e-07	8.959469e-07	2.423434e-09	6.465299e+00	1.566998e+02
9.200000e-07	9.958690e-07	3.399299e-09	7.186353e+00	2.207612e+02
9.300000e-07	1.095539e-06	4.391227e-09	7.905587e+00	2.860297e+02
9.400000e-07	1.194942e-06	5.397933e-09	8.622899e+00	3.522890e+02
9.500000e-07	1.293956e-06	6.414430e-09	9.337395e+00	4.191676e+02
9.600000e-07	1.392351e-06	7.433268e-09	1.004743e+01	4.861636e+02
9.700000e-07	1.489874e-06	8.444914e-09	1.075117e+01	5.526864e+02
9.800000e-07	1.586561e-06	9.440013e-09	1.144889e+01	6.181108e+02
9.900000e-07	1.682644e-06	1.040801e-08	1.214223e+01	6.818335e+02
1.000000e-06	1.778219e-06	1.134057e-08	1.283192e+01	7.433250e+02
1.010000e-06	1.873201e-06	1.223300e-08	1.351732e+01	8.021676e+02
1.020000e-06	1.967500e-06	1.308063e-08	1.419780e+01	8.580783e+02
1.030000e-06	2.061116e-06	1.388112e-08	1.487335e+01	9.109121e+02
1.040000e-06	2.154028e-06	1.463382e-08	1.554382e+01	9.606493e+02
1.050000e-06	2.246264e-06	1.534075e-08	1.620941e+01	1.007371e+03
1.060000e-06	2.337884e-06	1.600493e-08	1.687056e+01	1.051229e+03
1.070000e-06	2.428688e-06	1.663123e-08	1.752581e+01	1.092410e+03
1.080000e-06	2.518306e-06	1.722121e-08	1.817250e+01	1.131114e+03
1.090000e-06	2.606775e-06	1.777629e-08	1.881092e+01	1.167530e+03
1.100000e-06	2.694374e-06	1.829645e-08	1.944304e+01	1.201829e+03
1.110000e-06	2.781171e-06	1.878546e-08	2.006938e+01	1.234157e+03
1.120000e-06	2.867000e-06	1.924657e-08	2.068874e+01	1.264643e+03
1.130000e-06	2.951853e-06	1.968389e-08	2.130105e+01	1.293403e+03
1.140000e-06	3.035883e-06	2.009609e-08	2.190743e+01	1.320546e+03
1.150000e-06	3.119015e-06	2.048331e-08	2.250732e+01	1.346181e+03
1.160000e-06	3.200913e-06	2.085160e-08	2.309831e+01	1.370417e+03
1.170000e-06	3.281530e-06	2.120267e-08	2.368006e+01	1.393363e+03
1.180000e-06	3.361031e-06	2.153903e-08	2.425374e+01	1.415121e+03
1.190000e-06	3.439380e-06	2.185701e-08	2.481913e+01	1.435785e+03
1.200000e-06	3.516524e-06	2.215516e-08	2.537581e+01	1.455435e+03
1.210000e-06	3.592423e-06	2.243570e-08	2.592351e+01	1.474137e+03
1.220000e-06	3.666862e-06	2.270187e-08	2.646067e+01	1.491943e+03
1.230000e-06	3.739737e-06	2.295616e-08	2.698655e+01	1.508893e+03
1.240000e-06	3.811240e-06	2.319909e-08	2.750253e+01	1.525021e+03
1.250000e-06	3.881365e-06	2.343266e-08	2.800856e+01	1.540361e+03
1.260000e-06	3.950142e-06	2.365612e-08	2.850487e+01	1.554948e+03
1.270000e-06	4.017629e-06	2.386566e-08	2.899186e+01	1.568821e+03
1.280000e-06	4.083477e-06	2.406307e-08	2.946704e+01	1.582025e+03
1.290000e-06	4.147641e-06	2.425206e-08	2.993005e+01	1.594605e+03
1.300000e-06	4.210392e-06	2.443359e-08	3.038287e+01	1.606605e+03
1.310000e-06	4.271767e-06	2.460717e-08	3.082577e+01	1.618063e+03
1.320000e-06	4.331826e-06	2.477459e-08	3.125916e+01	1.629008e+03
1.330000e-06	4.390377e-06	2.493597e-08	3.168167e+01	1.639458e+03
1.340000e-06	4.447181e-06	2.508902e-08	3.209158e+01	1.649422e+03
1.350000e-06	4.502308e-06	2.523352e-08	3.248939e+01	1.658900e+03
1.360000e-06	4.555811e-06	2.537231e-08	3.287547e+01	1.667891e+03
1.370000e-06	4.607484e-06	2.550281e-08	3.324836e+01	1.676393e+03
1.380000e-06	4.657120e-06	2.562381e-08	3.360654e+01	1.684412e+03
1.390000e-06	4.704904e-06	2.573895e-08	3.395135e+01	1.691961e+03
1.400000e-06	4.751084e-06	2.584778e-08	3.428460e+01	1.699065e+03
1.410000e-06	4.795753e-06	2.594824e-08	3.460693e+01	1.705753e+03
1.420000e-06	4.838812e-06	2.604157e-08	3.491765e+01	1.712062e+03
1.430000e-06	4.880020e-06	2.613228e-08	3.521502e+01	1.718026e+03
1.440000e-06	4.919456e-06	2.621874e-08	3.549960e+01	1.723675e+03
1.450000e-06	4.957298e-06	2.629903e-08	3.577267e+01	1.729031e+03
1.460000e-06	4.993568e-06	2.637441e-08	3.603440e+01	1.734103e+03
1.470000e-06	5.028029e-06	2.644546e-08	3.628308e+01	1.738892e+03
1.480000e-06	5.060505e-06	2.651358e-08	3.651743e+01	1.743389e+03
1.490000e-06	5.091239e-06	2.657891e-08	3.673921e+01	1.747584e+03
1.500000e-06	5.120387e-06	2.663924e-08	3.694955e+01	1.751463e+03
1.510000e-06	5.147810e-06	2.669448e-08	3.714744e+01	1.755018e+03
1.520000e-06	5.173176e-06	2.674413e-08	3.733048e+01	1.758245e+03
1.530000e-06	5.196523e-06	2.678817e-08	3.749896e+01	1.761150e+03
1.540000e-06	5.218165e-06	2.682817e-08	3.765513e+01	1.763743e+03
1.550000e-06	5.238144e-06	2.686436e-08	3.779930e+01	1.766038e+03
1.560000e-06	5.256253e-06	2.689503e-08	3.792998e+01	1.768050e+03
1.570000e-06	5.272330e-06	2.691954e-08	3.804599e+01	1.769793e+03
1.580000e-06	5.286455e-06	2.694025e-08	3.814792e+01	1.771275e+03
1.590000e-06	5.298605e-06	2.695741e-08	3.823560e+01	1.772503e+03
1.600000e-06	5.308532e-06	2.697240e-08	3.830723e+01	1.773481e+03
1.610000e-06	5.316402e-06	2.698615e-08	3.836402e+01	1.774210e+03
1.620000e-06	5.322501e-06	2.699647e-08	3.840803e+01	1.774695e+03
1.630000e-06	5.326865e-06	2.700074e-08	3.843952e+01	1.774945e+03
1.640000e-06	5.329321e-06	2.700184e-08	3.845725e+01	1.774970e+03
1.650000e-06	5.329702e-06	2.700112e-08	3.846000e+01	1.774782e+03
1.660000e-06	5.328259e-06	2.699299e-08	3.844959e+01	1.774392e+03
1.670000e-06	5.325251e-06	2.698336e-08	3.842788e+01	1.773810e+03
1.680000e-06	5.320661e-06	2.697547e-08	3.839476e+01	1.773033e+03
1.690000e-06	5.314189e-06	2.696401e-08	3.834805e+01	1.772056e+03
1.700000e-06	5.305884e-06	2.694621e-08	3.828812e+01	1.770864e+03
1.710000e-06	5.296011e-06	2.692417e-08	3.821688e+01	1.769437e+03
1.720000e-06	5.284440e-06	2.691370e-08	3.813338e+01	1.767759e+03
1.730000e-06	5.270872e-06	2.689239e-08	3.803547e+01	1.765820e+03
1.740000e-06	5.255267e-06	2.677827e-08	3.792286e+01	1.763623e+03
1.750000e-06	5.237521e-06	2.672652e-08	3.779480e+01	1.761186e+03
1.760000e-06	5.217233e-06	2.673339e-08	3.764840e+01	1.758539e+03
1.770000e-06	5.194511e-06	2.672115e-08	3.748444e+01	1.755724e+03
1.780000e-06	5.170221e-06	2.678860e-08	3.730916e+01	1.752785e+03
1.790000e-06	5.145222e-06	2.662980e-08	3.712876e+01	1.749762e+03
1.800000e-06	5.119161e-06	2.647976e-08	3.694070e+01	1.746677e+03
1.810000e-06	5.091017e-06	2.661367e-08	3.673761e+01	1.743533e+03
1.820000e-06	5.060872e-06	2.645270e-08	3.652008e+01	1.740309e+03
1.830000e-06	5.029092e-06	2.639834e-08	3.629075e+01	1.736961e+03
1.840000e-06	4.995375e-06	2.656746e-08	3.604744e+01	1.733431e+03
1.850000e-06	4.960022e-06	2.633681e-08	3.579233e+01	1.729654e+03
1.860000e-06	4.923094e-06	2.628141e-08	3.552585e+01	1.725569e+03
1.870000e-06	4.884220e-06	2.633213e-08	3.524533e+01	1.721130e+03
1.880000e-06	4.843710e-06	2.614596e-08	3.495300e+01	1.716309e+03
1.890000e-06	4.801438e-06	2.618609e-08	3.464796e+01	1.711101e+03
1.900000e-06	4.757420e-06	2.603041e-08	3.433032e+01	1.705519e+03
1.910000e-06	4.711666e-06	2.585789e-08	3.400015e+01	1.699589e+03
1.920000e-06	4.663897e-06	2.595978e-08	3.365544e+01	1.693343e+03
1.930000e-06	4.614571e-06	2.577318e-08	3.329950e+01	1.686806e+03
1.940000e-06	4.563628e-06	2.567358e-08	3.293188e+01	1.679997e+03
1.950000e-06	4.510555e-06	2.560719e-08	3.254890e+01	1.672916e+03
1.960000e-06	4.455530e-06	2.543818e-08	3.215183e+01	1.665557e+03
1.970000e-06	4.398809e-06	2.534769e-08	3.174252e+01	1.657898e+03
1.980000e-06	4.340560e-06	2.515061e-08	3.132219e+01	1.649919e+03
1.990000e-06	4.280938e-06	2.509529e-08	3.089194e+01	1.641598e+03
2.000000e-06	4.219821e-06	2.500473e-08	3.045091e+01	1.632924e+03
2.010000e-06	4.157036e-06	2.481127e-08	2.999785e+01	1.623891e+03
2.020000e-06	4.092645e-06	2.467743e-08	2.953319e+01	1.614501e+03
2.030000e-06	4.026856e-06	2.448136e-08	2.905845e+01	1.604761e+03
2.040000e-06	3.959675e-06	2.439807e-08	2.857366e+01	1.594676e+03
2.050000e-06	3.891111e-06	2.423703e-08	2.807889e+01	1.584245e+03
2.060000e-06	3.820994e-06	2.404756e-08	2.757291e+01	1.573460e+03
2.070000e-06	3.749440e-06	2.391538e-08	2.705657e+01	1.562304e+03
2.080000e-06	3.676724e-06	2.369053e-08	2.653184e+01	1.550753e+03
2.090000e-06	3.602646e-06	2.352139e-08	2.599728e+01	1.538779e+03
2.100000e-06	3.527144e-06	2.333041e-08	2.545244e+01	1.526354e+03
2.110000e-06	3.450153e-06	2.315309e-08	2.489687e+01	1.513455e+03
2.120000e-06	3.371660e-06	2.295485e-08	2.433044e+01	1.500065e+03
2.130000e-06	3.291942e-06	2.272031e-08	2.375519e+01	1.486172e+03
2.140000e-06	3.211106e-06	2.251818e-08	2.317186e+01	1.471767e+03
2.150000e-06	3.129155e-06	2.227757e-08	2.258049e+01	1.456837e+03
2.160000e-06	3.046213e-06	2.205603e-08	2.198197e+01	1.441367e+03
2.170000e-06	2.962351e-06	2.181365e-08	2.137681e+01	1.425333e+03
2.180000e-06	2.877361e-06	2.155934e-08	2.076350e+01	1.408701e+03
2.190000e-06	2.791013e-06	2.129018e-08	2.014040e+01	1.391433e+03
2.200000e-06	2.703558e-06	2.100704e-08	1.950932e+01	1.373483e+03
2.210000e-06	2.615248e-06	2.073966e-08	1.887205e+01	1.354808e+03
2.220000e-06	2.526073e-06	2.044213e-08	1.822856e+01	1.335366e+03
2.230000e-06	2.436001e-06	2.012914e-08	1.757858e+01	1.315121e+03
2.240000e-06	2.345145e-06	1.980245e-08	1.692295e+01	1.294042e+03
2.250000e-06	2.253643e-06	1.947752e-08	1.626265e+01	1.272094e+03
2.260000e-06	2.161468e-06	1.913229e-08	1.559751e+01	1.249243e+03
2.270000e-06	2.068426e-06	1.876742e-08	1.492610e+01	1.225441e+03
2.280000e-06	1.974287e-06	1.839255e-08	1.424678e+01	1.200629e+03
2.290000e-06	1.879199e-06	1.799509e-08	1.356060e+01	1.174733e+03
2.300000e-06	1.783518e-06	1.758174e-08	1.287016e+01	1.147663e+03
2.310000e-06	1.687326e-06	1.714960e-08	1.217602e+01	1.119320e+03
2.320000e-06	1.590620e-06	1.670323e-08	1.147817e+01	1.089598e+03
2.330000e-06	1.493449e-06	1.623046e-08	1.077697e+01	1.058390e+03
2.340000e-06	1.395784e-06	1.572704e-08	1.007221e+01	1.025592e+03
2.350000e-06	1.297645e-06	1.519487e-08	9.364016e+00	9.911047e+02
2.360000e-06	1.199050e-06	1.464096e-08	8.652540e+00	9.548362e+02
2.370000e-06	1.100077e-06	1.406558e-08	7.938335e+00	9.166991e+02
2.380000e-06	1.000873e-06	1.345877e-08	7.222464e+00	8.766138e+02
2.390000e-06	9.014985e-07	1.281512e-08	6.505360e+00	8.345110e+02
2.400000e-06	8.019064e-07	1.213533e-08	5.786687e+00	7.903397e+02
2.410000e-06	7.020844e-07	1.142768e-08	5.066356e+00	7.440771e+02
2.420000e-06	6.020574e-07	1.068905e-08	4.344544e+00	6.957419e+02
2.430000e-06	5.018155e-07	9.920036e-09	3.621183e+00	6.454064e+02
2.440000e-06	4.014492e-07	9.128176e-09	2.896923e+00	5.932046e+02
2.450000e-06	3.010151e-07	8.311217e-09	2.172174e+00	5.393326e+02
2.460000e-06	2.004358e-07	7.464769e-09	1.446377e+00	4.840395e+02
2.470000e-06	9.967718e-08	6.598224e-09	7.192868e-01	4.276066e+02
2.480000e-06	-1.240026e-09	5.721104e-09	-8.948229e-03	3.703187e+02
2.490000e-06	-1.021400e-07	4.836833e-09	-7.370591e-01	3.124290e+02
2.500000e-06	-2.029522e-07	3.947048e-09	-1.464536e+00	2.541256e+02
2.510000e-06	-3.036892e-07	3.050954e-09	-2.191471e+00	1.955046e+02
2.520000e-06	-4.043113e-07	2.150820e-09	-2.917576e+00	1.365570e+02
2.530000e-06	-5.047967e-07	1.243008e-09	-3.642695e+00	7.717276e+01
2.540000e-06	-6.050999e-07	3.244648e-10	-4.366500e+00	1.716334e+01
2.550000e-06	-7.051981e-07	-6.073017e-10	-5.088824e+00	-4.369903e+01
2.560000e-06	-8.050531e-07	-1.554426e-09	-5.809394e+00	-1.056314e+02
2.570000e-06	-9.046599e-07	-2.518253e-09	-6.528173e+00	-1.687868e+02
2.580000e-06	-1.004049e-06	-3.500364e-09	-7.245385e+00	-2.332072e+02
2.590000e-06	-1.103162e-06	-4.500047e-09	-7.960598e+00	-2.987892e+02
2.600000e-06	-1.201899e-06	-5.516744e-09	-8.673099e+00	-3.652710e+02
2.610000e-06	-1.300251e-06	-6.543132e-09	-9.382825e+00	-4.322406e+02
2.620000e-06	-1.398155e-06	-7.569854e-09	-1.008931e+01	-4.991655e+02
2.630000e-06	-1.495478e-06	-8.588084e-09	-1.079161e+01	-5.654397e+02
2.640000e-06	-1.592222e-06	-9.586150e-09	-1.148974e+01	-6.304385e+02
2.650000e-06	-1.688442e-06	-1.055277e-08	-1.218407e+01	-6.935748e+02
2.660000e-06	-1.784213e-06	-1.148093e-08	-1.287517e+01	-7.543478e+02
2.670000e-06	-1.879569e-06	-1.237036e-08	-1.356328e+01	-8.123768e+02
2.680000e-06	-1.974227e-06	-1.321669e-08	-1.424634e+01	-8.674187e+02
2.690000e-06	-2.067862e-06	-1.401381e-08	-1.492203e+01	-9.193661e+02
2.700000e-06	-2.160428e-06	-1.476239e-08	-1.559000e+01	-9.682313e+02
2.710000e-06	-2.252164e-06	-1.546739e-08	-1.625198e+01	-1.014119e+03
2.720000e-06	-2.343232e-06	-1.612974e-08	-1.690914e+01	-1.057192e+03
2.730000e-06	-2.433485e-06	-1.675004e-08	-1.756042e+01	-1.097647e+03
2.740000e-06	-2.522791e-06	-1.733480e-08	-1.820487e+01	-1.135680e+03
2.750000e-06	-2.611226e-06	-1.788566e-08	-1.884304e+01	-1.171477e+03
2.760000e-06	-2.698930e-06	-1.840198e-08	-1.947592e+01	-1.205199e+03
2.770000e-06	-2.785799e-06	-1.888610e-08	-2.010278e+01	-1.236990e+03
2.780000e-06	-2.871502e-06	-1.934412e-08	-2.072123e+01	-1.266973e+03
2.790000e-06	-2.955994e-06	-1.977605e-08	-2.133093e+01	-1.295261e+03
2.800000e-06	-3.039502e-06	-2.018259e-08	-2.193354e+01	-1.321963e+03
2.810000e-06	-3.122064e-06	-2.056896e-08	-2.252932e+01	-1.347189e+03
2.820000e-06	-3.203587e-06	-2.093597e-08	-2.311760e+01	-1.371047e+03
2.830000e-06	-3.284057e-06	-2.128214e-08	-2.369829e+01	-1.393644e+03
2.840000e-06	-3.363380e-06	-2.160921e-08	-2.427070e+01	-1.415082e+03
2.850000e-06	-3.441378e-06	-2.192163e-08	-2.483354e+01	-1.435450e+03
2.860000e-06	-3.517944e-06	-2.221853e-08	-2.538606e+01	-1.454825e+03
2.870000e-06	-3.593073e-06	-2.250016e-08	-2.592820e+01	-1.473268e+03
2.880000e-06	-3.666831e-06	-2.276865e-08	-2.646045e+01	-1.490827e+03
2.890000e-06	-3.739341e-06	-2.302442e-08	-2.698370e+01	-1.507540e+03
2.900000e-06	-3.810590e-06	-2.326889e-08	-2.749784e+01	-1.523441e+03
2.910000e-06	-3.880276e-06	-2.350246e-08	-2.800070e+01	-1.538563e+03
2.920000e-06	-3.948402e-06	-2.372592e-08	-2.849231e+01	-1.552943e+03
2.930000e-06	-4.015206e-06	-2.393843e-08	-2.897438e+01	-1.566622e+03
2.940000e-06	-4.080648e-06	-2.413957e-08	-2.944662e+01	-1.579644e+03
