# Temperatura_=_50.13
# Concentracion g/m^3_=_28200.0
# C_Vs_to_Am_M_A/Vsm_=_65563218390.804596
# pendiente_HvsI_1/m_=_3716.3
# ordenada_HvsI_A/m_=_1297.0
# frecuencia_Hz_=_301746.2364106409

Tiempo_(s)	Campo_(V.s)	Magnetizacion_(V.s)	Campo_(kA/m)	Magnetizacion_(A/m)
0.000000e+00	-5.348845e-06	-2.066365e-08	-3.829692e+01	-1.352749e+03
1.000000e-08	-5.346360e-06	-2.066134e-08	-3.827913e+01	-1.352382e+03
2.000000e-08	-5.342064e-06	-2.065419e-08	-3.824837e+01	-1.351874e+03
3.000000e-08	-5.336147e-06	-2.064481e-08	-3.820600e+01	-1.351220e+03
4.000000e-08	-5.328641e-06	-2.063161e-08	-3.815226e+01	-1.350408e+03
5.000000e-08	-5.319463e-06	-2.061127e-08	-3.808655e+01	-1.349426e+03
6.000000e-08	-5.308265e-06	-2.058736e-08	-3.800637e+01	-1.348263e+03
7.000000e-08	-5.295102e-06	-2.055823e-08	-3.791213e+01	-1.346915e+03
8.000000e-08	-5.279945e-06	-2.054121e-08	-3.780361e+01	-1.345383e+03
9.000000e-08	-5.262517e-06	-2.056826e-08	-3.767882e+01	-1.343680e+03
1.000000e-07	-5.242957e-06	-2.054398e-08	-3.753878e+01	-1.341822e+03
1.100000e-07	-5.221515e-06	-2.047031e-08	-3.738525e+01	-1.339833e+03
1.200000e-07	-5.198346e-06	-2.042893e-08	-3.721937e+01	-1.337736e+03
1.300000e-07	-5.173670e-06	-2.034074e-08	-3.704269e+01	-1.335549e+03
1.400000e-07	-5.147429e-06	-2.030014e-08	-3.685481e+01	-1.333285e+03
1.500000e-07	-5.119515e-06	-2.038368e-08	-3.665495e+01	-1.330943e+03
1.600000e-07	-5.090083e-06	-2.026336e-08	-3.644423e+01	-1.328513e+03
1.700000e-07	-5.059188e-06	-2.020324e-08	-3.622302e+01	-1.325975e+03
1.800000e-07	-5.026376e-06	-2.026026e-08	-3.598809e+01	-1.323300e+03
1.900000e-07	-4.991478e-06	-2.009137e-08	-3.573822e+01	-1.320458e+03
2.000000e-07	-4.955050e-06	-2.006709e-08	-3.547740e+01	-1.317415e+03
2.100000e-07	-4.917021e-06	-2.011008e-08	-3.520513e+01	-1.314146e+03
2.200000e-07	-4.877187e-06	-1.998411e-08	-3.491992e+01	-1.310630e+03
2.300000e-07	-4.835518e-06	-1.993033e-08	-3.462158e+01	-1.306854e+03
2.400000e-07	-4.791816e-06	-1.985607e-08	-3.430868e+01	-1.302818e+03
2.500000e-07	-4.746282e-06	-1.974550e-08	-3.398266e+01	-1.298524e+03
2.600000e-07	-4.699046e-06	-1.973436e-08	-3.364446e+01	-1.293984e+03
2.700000e-07	-4.649795e-06	-1.965766e-08	-3.329183e+01	-1.289209e+03
2.800000e-07	-4.598377e-06	-1.957162e-08	-3.292368e+01	-1.284212e+03
2.900000e-07	-4.545059e-06	-1.948608e-08	-3.254193e+01	-1.279002e+03
3.000000e-07	-4.490102e-06	-1.938674e-08	-3.214845e+01	-1.273583e+03
3.100000e-07	-4.433526e-06	-1.930681e-08	-3.174338e+01	-1.267953e+03
3.200000e-07	-4.375133e-06	-1.922866e-08	-3.132529e+01	-1.262105e+03
3.300000e-07	-4.315132e-06	-1.915673e-08	-3.089569e+01	-1.256027e+03
3.400000e-07	-4.253759e-06	-1.904593e-08	-3.045627e+01	-1.249704e+03
3.500000e-07	-4.190925e-06	-1.893453e-08	-3.000639e+01	-1.243121e+03
3.600000e-07	-4.126634e-06	-1.882004e-08	-2.954608e+01	-1.236263e+03
3.700000e-07	-4.060711e-06	-1.870750e-08	-2.907407e+01	-1.229118e+03
3.800000e-07	-3.993138e-06	-1.862165e-08	-2.859026e+01	-1.221676e+03
3.900000e-07	-3.924142e-06	-1.850151e-08	-2.809627e+01	-1.213933e+03
4.000000e-07	-3.853875e-06	-1.836670e-08	-2.759316e+01	-1.205884e+03
4.100000e-07	-3.782419e-06	-1.824121e-08	-2.708155e+01	-1.197528e+03
4.200000e-07	-3.709730e-06	-1.810022e-08	-2.656110e+01	-1.188861e+03
4.300000e-07	-3.635513e-06	-1.796293e-08	-2.602972e+01	-1.179877e+03
4.400000e-07	-3.559694e-06	-1.782207e-08	-2.548687e+01	-1.170568e+03
4.500000e-07	-3.482518e-06	-1.767756e-08	-2.493430e+01	-1.160921e+03
4.600000e-07	-3.403960e-06	-1.752054e-08	-2.437184e+01	-1.150919e+03
4.700000e-07	-3.323931e-06	-1.736176e-08	-2.379884e+01	-1.140542e+03
4.800000e-07	-3.242652e-06	-1.720671e-08	-2.321690e+01	-1.129770e+03
4.900000e-07	-3.160295e-06	-1.703277e-08	-2.262724e+01	-1.118580e+03
5.000000e-07	-3.076925e-06	-1.685126e-08	-2.203032e+01	-1.106950e+03
5.100000e-07	-2.992670e-06	-1.666131e-08	-2.142706e+01	-1.094857e+03
5.200000e-07	-2.907469e-06	-1.646939e-08	-2.081704e+01	-1.082280e+03
5.300000e-07	-2.821319e-06	-1.627021e-08	-2.020022e+01	-1.069195e+03
5.400000e-07	-2.734297e-06	-1.606374e-08	-1.957715e+01	-1.055578e+03
5.500000e-07	-2.646418e-06	-1.585142e-08	-1.894795e+01	-1.041400e+03
5.600000e-07	-2.557506e-06	-1.562290e-08	-1.831136e+01	-1.026630e+03
5.700000e-07	-2.467330e-06	-1.538543e-08	-1.766571e+01	-1.011235e+03
5.800000e-07	-2.376046e-06	-1.514060e-08	-1.701213e+01	-9.951771e+02
5.900000e-07	-2.283999e-06	-1.488923e-08	-1.635309e+01	-9.784176e+02
6.000000e-07	-2.191241e-06	-1.462250e-08	-1.568895e+01	-9.609169e+02
6.100000e-07	-2.097674e-06	-1.434035e-08	-1.501903e+01	-9.426348e+02
6.200000e-07	-2.003297e-06	-1.404480e-08	-1.434330e+01	-9.235302e+02
6.300000e-07	-1.908179e-06	-1.373536e-08	-1.366227e+01	-9.035608e+02
6.400000e-07	-1.812474e-06	-1.341659e-08	-1.297704e+01	-8.826804e+02
6.500000e-07	-1.716205e-06	-1.308655e-08	-1.228776e+01	-8.608372e+02
6.600000e-07	-1.619258e-06	-1.274073e-08	-1.159364e+01	-8.379716e+02
6.700000e-07	-1.521534e-06	-1.237212e-08	-1.089396e+01	-8.140149e+02
6.800000e-07	-1.423047e-06	-1.198323e-08	-1.018880e+01	-7.888895e+02
6.900000e-07	-1.323973e-06	-1.157729e-08	-9.479450e+00	-7.625107e+02
7.000000e-07	-1.224516e-06	-1.115399e-08	-8.767349e+00	-7.347910e+02
7.100000e-07	-1.124777e-06	-1.071046e-08	-8.053231e+00	-7.056462e+02
7.200000e-07	-1.024756e-06	-1.024583e-08	-7.337100e+00	-6.750036e+02
7.300000e-07	-9.244254e-07	-9.756959e-09	-6.618746e+00	-6.428102e+02
7.400000e-07	-8.237694e-07	-9.240003e-09	-5.898064e+00	-6.090420e+02
7.500000e-07	-7.228184e-07	-8.699060e-09	-5.175270e+00	-5.737111e+02
7.600000e-07	-6.216527e-07	-8.136846e-09	-4.450939e+00	-5.368712e+02
7.700000e-07	-5.203253e-07	-7.557062e-09	-3.725450e+00	-4.986192e+02
7.800000e-07	-4.188459e-07	-6.960235e-09	-2.998873e+00	-4.590938e+02
7.900000e-07	-3.172160e-07	-6.343430e-09	-2.271219e+00	-4.184682e+02
8.000000e-07	-2.154146e-07	-5.708253e-09	-1.542336e+00	-3.769395e+02
8.100000e-07	-1.135148e-07	-5.062459e-09	-8.127486e-01	-3.347140e+02
8.200000e-07	-1.154761e-08	-4.411974e-09	-8.267913e-02	-2.919900e+02
8.300000e-07	9.051498e-08	-3.758954e-09	6.480736e-01	-2.489395e+02
8.400000e-07	1.926092e-07	-3.103189e-09	1.379053e+00	-2.056913e+02
8.500000e-07	2.946059e-07	-2.443214e-09	2.109333e+00	-1.623181e+02
8.600000e-07	3.964449e-07	-1.780565e-09	2.838485e+00	-1.188294e+02
8.700000e-07	4.981522e-07	-1.115692e-09	3.566694e+00	-7.517154e+01
8.800000e-07	5.996903e-07	-4.483412e-10	4.293692e+00	-3.123693e+01
8.900000e-07	7.010387e-07	2.246352e-10	5.019331e+00	1.311849e+01
9.000000e-07	8.022067e-07	9.068032e-10	5.743678e+00	5.805113e+01
9.100000e-07	9.031343e-07	1.601158e-09	6.466305e+00	1.037012e+02
9.200000e-07	1.003715e-06	2.308517e-09	7.186445e+00	1.501638e+02
9.300000e-07	1.103924e-06	3.028990e-09	7.903931e+00	1.974631e+02
9.400000e-07	1.203797e-06	3.762576e-09	8.619001e+00	2.455342e+02
9.500000e-07	1.303337e-06	4.504555e-09	9.331694e+00	2.942148e+02
9.600000e-07	1.402511e-06	5.249951e-09	1.004177e+01	3.432494e+02
9.700000e-07	1.501165e-06	5.995416e-09	1.074811e+01	3.923039e+02
9.800000e-07	1.598999e-06	6.736684e-09	1.144859e+01	4.409916e+02
9.900000e-07	1.695898e-06	7.466364e-09	1.214237e+01	4.889048e+02
1.000000e-06	1.792033e-06	8.177474e-09	1.283069e+01	5.356476e+02
1.010000e-06	1.887565e-06	8.864851e-09	1.351468e+01	5.808681e+02
1.020000e-06	1.982505e-06	9.523956e-09	1.419443e+01	6.242821e+02
1.030000e-06	2.076705e-06	1.015146e-08	1.486889e+01	6.656886e+02
1.040000e-06	2.170181e-06	1.074603e-08	1.553817e+01	7.049741e+02
1.050000e-06	2.262969e-06	1.130890e-08	1.620252e+01	7.421070e+02
1.060000e-06	2.355060e-06	1.184030e-08	1.686188e+01	7.771246e+02
1.070000e-06	2.446507e-06	1.234248e-08	1.751662e+01	8.101139e+02
1.080000e-06	2.537097e-06	1.281457e-08	1.816523e+01	8.411927e+02
1.090000e-06	2.626430e-06	1.325773e-08	1.880484e+01	8.704909e+02
1.100000e-06	2.714557e-06	1.367570e-08	1.943582e+01	8.981367e+02
1.110000e-06	2.801842e-06	1.407106e-08	2.006077e+01	9.242482e+02
1.120000e-06	2.888267e-06	1.444697e-08	2.067956e+01	9.489291e+02
1.130000e-06	2.973720e-06	1.480439e-08	2.129138e+01	9.722697e+02
1.140000e-06	3.058257e-06	1.514081e-08	2.189665e+01	9.943499e+02
1.150000e-06	3.141958e-06	1.545635e-08	2.249594e+01	1.015243e+03
1.160000e-06	3.224630e-06	1.575564e-08	2.308786e+01	1.035019e+03
1.170000e-06	3.306016e-06	1.603936e-08	2.367057e+01	1.053746e+03
1.180000e-06	3.386177e-06	1.630869e-08	2.424451e+01	1.071492e+03
1.190000e-06	3.465204e-06	1.656506e-08	2.481034e+01	1.088320e+03
1.200000e-06	3.542997e-06	1.681016e-08	2.536732e+01	1.104291e+03
1.210000e-06	3.619536e-06	1.704208e-08	2.591533e+01	1.119460e+03
1.220000e-06	3.694745e-06	1.725995e-08	2.645382e+01	1.133875e+03
1.230000e-06	3.768307e-06	1.746573e-08	2.698050e+01	1.147580e+03
1.240000e-06	3.840293e-06	1.766050e-08	2.749592e+01	1.160612e+03
1.250000e-06	3.910961e-06	1.784759e-08	2.800189e+01	1.173007e+03
1.260000e-06	3.980233e-06	1.802675e-08	2.849786e+01	1.184798e+03
1.270000e-06	4.048135e-06	1.819721e-08	2.898403e+01	1.196016e+03
1.280000e-06	4.114605e-06	1.835989e-08	2.945995e+01	1.206691e+03
1.290000e-06	4.179390e-06	1.851574e-08	2.992380e+01	1.216846e+03
1.300000e-06	4.242615e-06	1.866422e-08	3.037648e+01	1.226504e+03
1.310000e-06	4.304457e-06	1.880413e-08	3.081926e+01	1.235680e+03
1.320000e-06	4.364965e-06	1.893762e-08	3.125249e+01	1.244385e+03
1.330000e-06	4.424084e-06	1.906508e-08	3.167577e+01	1.252625e+03
1.340000e-06	4.481459e-06	1.918389e-08	3.208657e+01	1.260408e+03
1.350000e-06	4.537021e-06	1.929413e-08	3.248438e+01	1.267744e+03
1.360000e-06	4.590951e-06	1.939854e-08	3.287052e+01	1.274648e+03
1.370000e-06	4.643184e-06	1.949802e-08	3.324449e+01	1.281144e+03
1.380000e-06	4.693410e-06	1.959202e-08	3.360410e+01	1.287263e+03
1.390000e-06	4.741632e-06	1.968062e-08	3.394937e+01	1.293042e+03
1.400000e-06	4.788206e-06	1.976316e-08	3.428283e+01	1.298520e+03
1.410000e-06	4.833226e-06	1.984071e-08	3.460516e+01	1.303732e+03
1.420000e-06	4.876632e-06	1.991530e-08	3.491594e+01	1.308707e+03
1.430000e-06	4.918176e-06	1.998844e-08	3.521339e+01	1.313461e+03
1.440000e-06	4.957879e-06	2.005879e-08	3.549767e+01	1.318000e+03
1.450000e-06	4.995961e-06	2.012420e-08	3.577033e+01	1.322315e+03
1.460000e-06	5.032473e-06	2.018595e-08	3.603174e+01	1.326391e+03
1.470000e-06	5.067240e-06	2.024416e-08	3.628067e+01	1.330208e+03
1.480000e-06	5.100040e-06	2.029793e-08	3.651551e+01	1.333748e+03
1.490000e-06	5.131060e-06	2.034584e-08	3.673761e+01	1.337001e+03
1.500000e-06	5.160422e-06	2.038866e-08	3.694784e+01	1.339963e+03
1.510000e-06	5.188078e-06	2.042864e-08	3.714586e+01	1.342642e+03
1.520000e-06	5.213768e-06	2.046613e-08	3.732979e+01	1.345054e+03
1.530000e-06	5.237391e-06	2.049987e-08	3.749893e+01	1.347217e+03
1.540000e-06	5.259158e-06	2.053016e-08	3.765477e+01	1.349154e+03
1.550000e-06	5.279232e-06	2.055717e-08	3.779850e+01	1.350881e+03
1.560000e-06	5.297513e-06	2.058108e-08	3.792939e+01	1.352412e+03
1.570000e-06	5.313742e-06	2.060029e-08	3.804559e+01	1.353751e+03
1.580000e-06	5.328011e-06	2.061534e-08	3.814775e+01	1.354900e+03
1.590000e-06	5.340317e-06	2.062828e-08	3.823586e+01	1.355856e+03
1.600000e-06	5.350382e-06	2.063980e-08	3.830792e+01	1.356617e+03
1.610000e-06	5.358292e-06	2.065082e-08	3.836456e+01	1.357184e+03
1.620000e-06	5.364388e-06	2.065933e-08	3.840821e+01	1.357562e+03
1.630000e-06	5.368774e-06	2.066363e-08	3.843961e+01	1.357760e+03
1.640000e-06	5.371235e-06	2.066564e-08	3.845723e+01	1.357791e+03
1.650000e-06	5.371622e-06	2.066743e-08	3.846000e+01	1.357668e+03
1.660000e-06	5.370213e-06	2.066247e-08	3.844991e+01	1.357400e+03
1.670000e-06	5.367214e-06	2.065343e-08	3.842844e+01	1.356992e+03
1.680000e-06	5.362580e-06	2.064771e-08	3.839526e+01	1.356442e+03
1.690000e-06	5.356069e-06	2.063847e-08	3.834865e+01	1.355743e+03
1.700000e-06	5.347736e-06	2.062584e-08	3.828898e+01	1.354882e+03
1.710000e-06	5.337782e-06	2.061180e-08	3.821771e+01	1.353849e+03
1.720000e-06	5.326068e-06	2.060280e-08	3.813384e+01	1.352633e+03
1.730000e-06	5.312388e-06	2.058976e-08	3.803589e+01	1.351231e+03
1.740000e-06	5.296740e-06	2.050490e-08	3.792385e+01	1.349647e+03
1.750000e-06	5.278888e-06	2.046662e-08	3.779604e+01	1.347897e+03
1.760000e-06	5.258384e-06	2.048357e-08	3.764923e+01	1.345998e+03
1.770000e-06	5.235474e-06	2.046913e-08	3.748520e+01	1.343975e+03
1.780000e-06	5.211063e-06	2.052119e-08	3.731042e+01	1.341850e+03
1.790000e-06	5.185904e-06	2.042456e-08	3.713029e+01	1.339639e+03
1.800000e-06	5.159626e-06	2.027990e-08	3.694214e+01	1.337352e+03
1.810000e-06	5.131220e-06	2.037388e-08	3.673876e+01	1.334985e+03
1.820000e-06	5.100736e-06	2.027264e-08	3.652050e+01	1.332526e+03
1.830000e-06	5.068656e-06	2.019637e-08	3.629081e+01	1.329951e+03
1.840000e-06	5.034738e-06	2.032471e-08	3.604796e+01	1.327231e+03
1.850000e-06	4.999194e-06	2.016386e-08	3.579347e+01	1.324334e+03
1.860000e-06	4.961976e-06	2.009540e-08	3.552699e+01	1.321228e+03
1.870000e-06	4.922735e-06	2.013454e-08	3.524604e+01	1.317889e+03
1.880000e-06	4.881858e-06	1.999370e-08	3.495337e+01	1.314298e+03
1.890000e-06	4.839289e-06	2.002777e-08	3.464858e+01	1.310448e+03
1.900000e-06	4.795007e-06	1.995118e-08	3.433152e+01	1.306336e+03
1.910000e-06	4.748931e-06	1.981395e-08	3.400163e+01	1.301969e+03
1.920000e-06	4.700829e-06	1.985136e-08	3.365723e+01	1.297360e+03
1.930000e-06	4.651108e-06	1.970497e-08	3.330123e+01	1.292520e+03
1.940000e-06	4.599588e-06	1.965487e-08	3.293236e+01	1.287461e+03
1.950000e-06	4.545913e-06	1.961345e-08	3.254805e+01	1.282190e+03
1.960000e-06	4.490416e-06	1.948369e-08	3.215070e+01	1.276710e+03
1.970000e-06	4.433267e-06	1.943109e-08	3.174152e+01	1.271018e+03
1.980000e-06	4.374608e-06	1.927156e-08	3.132153e+01	1.265104e+03
1.990000e-06	4.314526e-06	1.920706e-08	3.089136e+01	1.258957e+03
2.000000e-06	4.252838e-06	1.914518e-08	3.044968e+01	1.252561e+03
2.010000e-06	4.189471e-06	1.902375e-08	2.999597e+01	1.245899e+03
2.020000e-06	4.124500e-06	1.894138e-08	2.953079e+01	1.238959e+03
2.030000e-06	4.058146e-06	1.878082e-08	2.905571e+01	1.231729e+03
2.040000e-06	3.990493e-06	1.869807e-08	2.857132e+01	1.224201e+03
2.050000e-06	3.921320e-06	1.857423e-08	2.807606e+01	1.216370e+03
2.060000e-06	3.850578e-06	1.843848e-08	2.756956e+01	1.208233e+03
2.070000e-06	3.778546e-06	1.834987e-08	2.705382e+01	1.199787e+03
2.080000e-06	3.705319e-06	1.819048e-08	2.652952e+01	1.191029e+03
2.090000e-06	3.630705e-06	1.805973e-08	2.599530e+01	1.181953e+03
2.100000e-06	3.554602e-06	1.790576e-08	2.545041e+01	1.172548e+03
2.110000e-06	3.476949e-06	1.776997e-08	2.489443e+01	1.162800e+03
2.120000e-06	3.397855e-06	1.762061e-08	2.432813e+01	1.152692e+03
2.130000e-06	3.317607e-06	1.744477e-08	2.375356e+01	1.142204e+03
2.140000e-06	3.236246e-06	1.729280e-08	2.317103e+01	1.131314e+03
2.150000e-06	3.153788e-06	1.711120e-08	2.258065e+01	1.119999e+03
2.160000e-06	3.070385e-06	1.693928e-08	2.198349e+01	1.108238e+03
2.170000e-06	2.986007e-06	1.675395e-08	2.137936e+01	1.096008e+03
2.180000e-06	2.900329e-06	1.656635e-08	2.076592e+01	1.083288e+03
2.190000e-06	2.813324e-06	1.636321e-08	2.014298e+01	1.070052e+03
2.200000e-06	2.725333e-06	1.614442e-08	1.951297e+01	1.056277e+03
2.210000e-06	2.636438e-06	1.593433e-08	1.887650e+01	1.041932e+03
2.220000e-06	2.546620e-06	1.570816e-08	1.823342e+01	1.026987e+03
2.230000e-06	2.455948e-06	1.547053e-08	1.758421e+01	1.011405e+03
2.240000e-06	2.364556e-06	1.521605e-08	1.692986e+01	9.951497e+02
2.250000e-06	2.272484e-06	1.496223e-08	1.627064e+01	9.781816e+02
2.260000e-06	2.179506e-06	1.469547e-08	1.560493e+01	9.604608e+02
2.270000e-06	2.085410e-06	1.441501e-08	1.493122e+01	9.419469e+02
2.280000e-06	1.990355e-06	1.412424e-08	1.425064e+01	9.225988e+02
2.290000e-06	1.894617e-06	1.381722e-08	1.356517e+01	9.023731e+02
2.300000e-06	1.798289e-06	1.349372e-08	1.287548e+01	8.812223e+02
2.310000e-06	1.701443e-06	1.315349e-08	1.218208e+01	8.590925e+02
2.320000e-06	1.604090e-06	1.280322e-08	1.148504e+01	8.359217e+02
2.330000e-06	1.506200e-06	1.243630e-08	1.078417e+01	8.116384e+02
2.340000e-06	1.407747e-06	1.205032e-08	1.007926e+01	7.861629e+02
2.350000e-06	1.308804e-06	1.164132e-08	9.370842e+00	7.594089e+02
2.360000e-06	1.209550e-06	1.121170e-08	8.660192e+00	7.312894e+02
2.370000e-06	1.110121e-06	1.076219e-08	7.948297e+00	7.017224e+02
2.380000e-06	1.010497e-06	1.029261e-08	7.235009e+00	6.706401e+02
2.390000e-06	9.106364e-07	9.798421e-09	6.520019e+00	6.379968e+02
2.400000e-06	8.105274e-07	9.274889e-09	5.803253e+00	6.037783e+02
2.410000e-06	7.100250e-07	8.726802e-09	5.083671e+00	5.680079e+02
2.420000e-06	6.090750e-07	8.153688e-09	4.360885e+00	5.307518e+02
2.430000e-06	5.077995e-07	7.558470e-09	3.635767e+00	4.921193e+02
2.440000e-06	4.062976e-07	6.949106e-09	2.909029e+00	4.522597e+02
2.450000e-06	3.045979e-07	6.328427e-09	2.180875e+00	4.113542e+02
2.460000e-06	2.027669e-07	5.693819e-09	1.451781e+00	3.696045e+02
2.470000e-06	1.007607e-07	5.045408e-09	7.214311e-01	3.272163e+02
2.480000e-06	-1.409217e-09	4.388831e-09	-1.008978e-02	2.843821e+02
2.490000e-06	-1.035683e-07	3.728963e-09	-7.415337e-01	2.412632e+02
2.500000e-06	-2.055895e-07	3.066224e-09	-1.471990e+00	1.979737e+02
2.510000e-06	-3.074789e-07	2.401051e-09	-2.201502e+00	1.545685e+02
2.520000e-06	-4.092738e-07	1.735070e-09	-2.930339e+00	1.110386e+02
2.530000e-06	-5.109848e-07	1.065975e-09	-3.658574e+00	6.731368e+01
2.540000e-06	-6.125438e-07	3.921126e-10	-4.385721e+00	2.327366e+01
2.550000e-06	-7.137203e-07	-2.885641e-10	-5.110129e+00	-2.123180e+01
2.560000e-06	-8.144541e-07	-9.805631e-10	-5.831368e+00	-6.635748e+01
2.570000e-06	-9.148152e-07	-1.685080e-09	-6.549939e+00	-1.122336e+02
2.580000e-06	-1.014765e-06	-2.399456e-09	-7.265564e+00	-1.589373e+02
2.590000e-06	-1.114360e-06	-3.124018e-09	-7.978649e+00	-2.064689e+02
2.600000e-06	-1.213685e-06	-3.859816e-09	-8.689800e+00	-2.547359e+02
2.610000e-06	-1.312690e-06	-4.603414e-09	-9.398665e+00	-3.035485e+02
2.620000e-06	-1.411250e-06	-5.352511e-09	-1.010434e+01	-3.526265e+02
2.630000e-06	-1.509218e-06	-6.103713e-09	-1.080578e+01	-4.016182e+02
2.640000e-06	-1.606647e-06	-6.848667e-09	-1.150335e+01	-4.501273e+02
2.650000e-06	-1.703566e-06	-7.577594e-09	-1.219727e+01	-4.977460e+02
2.660000e-06	-1.799921e-06	-8.284388e-09	-1.288716e+01	-5.440881e+02
2.670000e-06	-1.895725e-06	-8.967789e-09	-1.357310e+01	-5.888190e+02
2.680000e-06	-1.990952e-06	-9.624365e-09	-1.425491e+01	-6.316770e+02
2.690000e-06	-2.085454e-06	-1.025049e-08	-1.493154e+01	-6.724862e+02
2.700000e-06	-2.179029e-06	-1.084379e-08	-1.560152e+01	-7.111575e+02
2.710000e-06	-2.271549e-06	-1.140550e-08	-1.626395e+01	-7.476806e+02
2.720000e-06	-2.363156e-06	-1.193504e-08	-1.691984e+01	-7.821090e+02
2.730000e-06	-2.454052e-06	-1.242949e-08	-1.757064e+01	-8.145406e+02
2.740000e-06	-2.544114e-06	-1.289524e-08	-1.821547e+01	-8.450981e+02
2.750000e-06	-2.633174e-06	-1.333739e-08	-1.885312e+01	-8.739124e+02
2.760000e-06	-2.721334e-06	-1.375689e-08	-1.948434e+01	-9.011093e+02
2.770000e-06	-2.808743e-06	-1.415266e-08	-2.011018e+01	-9.268030e+02
2.780000e-06	-2.895255e-06	-1.452500e-08	-2.072959e+01	-9.510932e+02
2.790000e-06	-2.980579e-06	-1.487412e-08	-2.134050e+01	-9.740668e+02
2.800000e-06	-3.064634e-06	-1.520262e-08	-2.194231e+01	-9.958015e+02
2.810000e-06	-3.147655e-06	-1.551543e-08	-2.253674e+01	-1.016369e+03
2.820000e-06	-3.229732e-06	-1.581454e-08	-2.312439e+01	-1.035840e+03
2.830000e-06	-3.310735e-06	-1.609855e-08	-2.370436e+01	-1.054281e+03
2.840000e-06	-3.390652e-06	-1.636670e-08	-2.427656e+01	-1.071759e+03
2.850000e-06	-3.469327e-06	-1.662040e-08	-2.483985e+01	-1.088337e+03
2.860000e-06	-3.546482e-06	-1.686043e-08	-2.539227e+01	-1.104074e+03
2.870000e-06	-3.622126e-06	-1.708919e-08	-2.593388e+01	-1.119024e+03
2.880000e-06	-3.696399e-06	-1.730925e-08	-2.646566e+01	-1.133233e+03
2.890000e-06	-3.769323e-06	-1.751910e-08	-2.698778e+01	-1.146743e+03
2.900000e-06	-3.840981e-06	-1.771681e-08	-2.750084e+01	-1.159590e+03
2.910000e-06	-3.911257e-06	-1.790308e-08	-2.800401e+01	-1.171811e+03
2.920000e-06	-3.979922e-06	-1.808007e-08	-2.849564e+01	-1.183436e+03
2.930000e-06	-4.047085e-06	-1.824814e-08	-2.897652e+01	-1.194497e+03
2.940000e-06	-4.112874e-06	-1.840811e-08	-2.944756e+01	-1.205021e+03
