# Temperatura_=_91.06
# Concentracion g/m^3_=_28200.0
# C_Vs_to_Am_M_A/Vsm_=_65563218390.804596
# pendiente_HvsI_1/m_=_3716.3
# ordenada_HvsI_A/m_=_1297.0
# frecuencia_Hz_=_301743.8225286917

Tiempo_(s)	Campo_(V.s)	Magnetizacion_(V.s)	Campo_(kA/m)	Magnetizacion_(A/m)
0.000000e+00	-5.323220e-06	-2.787949e-08	-3.830264e+01	-1.823743e+03
1.000000e-08	-5.320859e-06	-2.787308e-08	-3.828565e+01	-1.823262e+03
2.000000e-08	-5.316720e-06	-2.786058e-08	-3.825587e+01	-1.822579e+03
3.000000e-08	-5.310908e-06	-2.784667e-08	-3.821405e+01	-1.821681e+03
4.000000e-08	-5.303413e-06	-2.782957e-08	-3.816012e+01	-1.820553e+03
5.000000e-08	-5.294155e-06	-2.780478e-08	-3.809350e+01	-1.819175e+03
6.000000e-08	-5.282926e-06	-2.777548e-08	-3.801271e+01	-1.817536e+03
7.000000e-08	-5.269848e-06	-2.773478e-08	-3.791861e+01	-1.815631e+03
8.000000e-08	-5.254816e-06	-2.771289e-08	-3.781045e+01	-1.813470e+03
9.000000e-08	-5.237525e-06	-2.774121e-08	-3.768603e+01	-1.811075e+03
1.000000e-07	-5.218121e-06	-2.770013e-08	-3.754641e+01	-1.808482e+03
1.100000e-07	-5.196809e-06	-2.761549e-08	-3.739306e+01	-1.805733e+03
1.200000e-07	-5.173736e-06	-2.755841e-08	-3.722704e+01	-1.802870e+03
1.300000e-07	-5.149144e-06	-2.742120e-08	-3.705009e+01	-1.799926e+03
1.400000e-07	-5.122973e-06	-2.741375e-08	-3.686178e+01	-1.796917e+03
1.500000e-07	-5.095146e-06	-2.748950e-08	-3.666156e+01	-1.793840e+03
1.600000e-07	-5.065867e-06	-2.729590e-08	-3.645089e+01	-1.790667e+03
1.700000e-07	-5.035178e-06	-2.728477e-08	-3.623007e+01	-1.787353e+03
1.800000e-07	-5.002589e-06	-2.731264e-08	-3.599557e+01	-1.783841e+03
1.900000e-07	-4.967905e-06	-2.707611e-08	-3.574601e+01	-1.780069e+03
2.000000e-07	-4.931707e-06	-2.707754e-08	-3.548555e+01	-1.775980e+03
2.100000e-07	-4.893920e-06	-2.705795e-08	-3.521366e+01	-1.771530e+03
2.200000e-07	-4.854308e-06	-2.687979e-08	-3.492863e+01	-1.766694e+03
2.300000e-07	-4.812839e-06	-2.684730e-08	-3.463025e+01	-1.761465e+03
2.400000e-07	-4.769374e-06	-2.674994e-08	-3.431750e+01	-1.755853e+03
2.500000e-07	-4.724122e-06	-2.663903e-08	-3.399190e+01	-1.749876e+03
2.600000e-07	-4.677089e-06	-2.659844e-08	-3.365348e+01	-1.743559e+03
2.700000e-07	-4.628145e-06	-2.644579e-08	-3.330130e+01	-1.736922e+03
2.800000e-07	-4.577124e-06	-2.632156e-08	-3.293419e+01	-1.729979e+03
2.900000e-07	-4.524112e-06	-2.622708e-08	-3.255274e+01	-1.722732e+03
3.000000e-07	-4.469465e-06	-2.611819e-08	-3.215954e+01	-1.715176e+03
3.100000e-07	-4.413244e-06	-2.600423e-08	-3.175500e+01	-1.707300e+03
3.200000e-07	-4.355196e-06	-2.587853e-08	-3.133733e+01	-1.699091e+03
3.300000e-07	-4.295486e-06	-2.575016e-08	-3.090769e+01	-1.690535e+03
3.400000e-07	-4.234399e-06	-2.558588e-08	-3.046815e+01	-1.681627e+03
3.500000e-07	-4.171882e-06	-2.544703e-08	-3.001831e+01	-1.672364e+03
3.600000e-07	-4.108020e-06	-2.530695e-08	-2.955881e+01	-1.662746e+03
3.700000e-07	-4.042602e-06	-2.516211e-08	-2.908809e+01	-1.652774e+03
3.800000e-07	-3.975455e-06	-2.501964e-08	-2.860495e+01	-1.642446e+03
3.900000e-07	-3.906823e-06	-2.482508e-08	-2.811111e+01	-1.631756e+03
4.000000e-07	-3.836928e-06	-2.465248e-08	-2.760819e+01	-1.620689e+03
4.100000e-07	-3.765841e-06	-2.449455e-08	-2.709669e+01	-1.609227e+03
4.200000e-07	-3.693531e-06	-2.431179e-08	-2.657639e+01	-1.597349e+03
4.300000e-07	-3.619797e-06	-2.412332e-08	-2.604585e+01	-1.585031e+03
4.400000e-07	-3.544456e-06	-2.392512e-08	-2.550374e+01	-1.572257e+03
4.500000e-07	-3.467705e-06	-2.371859e-08	-2.495148e+01	-1.559011e+03
4.600000e-07	-3.389716e-06	-2.350238e-08	-2.439033e+01	-1.545285e+03
4.700000e-07	-3.310405e-06	-2.329518e-08	-2.381965e+01	-1.531071e+03
4.800000e-07	-3.229717e-06	-2.308029e-08	-2.323907e+01	-1.516361e+03
4.900000e-07	-3.147786e-06	-2.284049e-08	-2.264954e+01	-1.501142e+03
5.000000e-07	-3.064828e-06	-2.259579e-08	-2.205263e+01	-1.485391e+03
5.100000e-07	-2.980987e-06	-2.234273e-08	-2.144936e+01	-1.469076e+03
5.200000e-07	-2.896262e-06	-2.208211e-08	-2.083973e+01	-1.452159e+03
5.300000e-07	-2.810572e-06	-2.181370e-08	-2.022316e+01	-1.434592e+03
5.400000e-07	-2.723906e-06	-2.153709e-08	-1.959956e+01	-1.416329e+03
5.500000e-07	-2.636354e-06	-2.125021e-08	-1.896959e+01	-1.397324e+03
5.600000e-07	-2.547894e-06	-2.094406e-08	-1.833309e+01	-1.377541e+03
5.700000e-07	-2.458194e-06	-2.062876e-08	-1.768766e+01	-1.356944e+03
5.800000e-07	-2.367309e-06	-2.030258e-08	-1.703371e+01	-1.335506e+03
5.900000e-07	-2.275638e-06	-1.996219e-08	-1.637410e+01	-1.313197e+03
6.000000e-07	-2.183233e-06	-1.960377e-08	-1.570921e+01	-1.289982e+03
6.100000e-07	-2.090104e-06	-1.923143e-08	-1.503911e+01	-1.265812e+03
6.200000e-07	-1.996242e-06	-1.884663e-08	-1.436374e+01	-1.240624e+03
6.300000e-07	-1.901615e-06	-1.844465e-08	-1.368286e+01	-1.214340e+03
6.400000e-07	-1.806400e-06	-1.802716e-08	-1.299775e+01	-1.186866e+03
6.500000e-07	-1.710683e-06	-1.758847e-08	-1.230903e+01	-1.158096e+03
6.600000e-07	-1.614359e-06	-1.712777e-08	-1.161594e+01	-1.127924e+03
6.700000e-07	-1.517264e-06	-1.664441e-08	-1.091731e+01	-1.096238e+03
6.800000e-07	-1.419407e-06	-1.613810e-08	-1.021319e+01	-1.062937e+03
6.900000e-07	-1.320908e-06	-1.560530e-08	-9.504450e+00	-1.027921e+03
7.000000e-07	-1.221888e-06	-1.504335e-08	-8.791959e+00	-9.910969e+02
7.100000e-07	-1.122521e-06	-1.445212e-08	-8.076975e+00	-9.523764e+02
7.200000e-07	-1.022879e-06	-1.383065e-08	-7.360013e+00	-9.116752e+02
7.300000e-07	-9.230010e-07	-1.317909e-08	-6.641351e+00	-8.689163e+02
7.400000e-07	-8.228607e-07	-1.249524e-08	-5.920803e+00	-8.240371e+02
7.500000e-07	-7.224507e-07	-1.177846e-08	-5.198314e+00	-7.770002e+02
7.600000e-07	-6.217849e-07	-1.102617e-08	-4.473984e+00	-7.278071e+02
7.700000e-07	-5.208503e-07	-1.024180e-08	-3.747721e+00	-6.765123e+02
7.800000e-07	-4.197736e-07	-9.429637e-09	-3.020435e+00	-6.232331e+02
7.900000e-07	-3.186289e-07	-8.590783e-09	-2.292659e+00	-5.681524e+02
8.000000e-07	-2.173481e-07	-7.727100e-09	-1.563904e+00	-5.115115e+02
8.100000e-07	-1.159604e-07	-6.845199e-09	-8.343804e-01	-4.535914e+02
8.200000e-07	-1.456410e-08	-5.951152e-09	-1.047943e-01	-3.946842e+02
8.300000e-07	8.686942e-08	-5.045416e-09	6.250592e-01	-3.350586e+02
8.400000e-07	1.883621e-07	-4.131604e-09	1.355339e+00	-2.749246e+02
8.500000e-07	2.898063e-07	-3.211239e-09	2.085269e+00	-2.144047e+02
8.600000e-07	3.911192e-07	-2.285909e-09	2.814255e+00	-1.535168e+02
8.700000e-07	4.923037e-07	-1.351774e-09	3.542316e+00	-9.217460e+01
8.800000e-07	5.933680e-07	-4.063062e-10	4.269514e+00	-3.020655e+01
8.900000e-07	6.942741e-07	5.528178e-10	4.995572e+00	3.260787e+01
9.000000e-07	7.949758e-07	1.528499e-09	5.720160e+00	9.648968e+01
9.100000e-07	8.953689e-07	2.519813e-09	6.442527e+00	1.616069e+02
9.200000e-07	9.954536e-07	3.527658e-09	7.162676e+00	2.280251e+02
9.300000e-07	1.095292e-06	4.554628e-09	7.881055e+00	2.956693e+02
9.400000e-07	1.194864e-06	5.599974e-09	8.597511e+00	3.643059e+02
9.500000e-07	1.294101e-06	6.654056e-09	9.311557e+00	4.335450e+02
9.600000e-07	1.392799e-06	7.709432e-09	1.002173e+01	5.028661e+02
9.700000e-07	1.490758e-06	8.757775e-09	1.072659e+01	5.716611e+02
9.800000e-07	1.587937e-06	9.788510e-09	1.142583e+01	6.392880e+02
9.900000e-07	1.684376e-06	1.079074e-08	1.211974e+01	7.051288e+02
1.000000e-06	1.780143e-06	1.175546e-08	1.280882e+01	7.686406e+02
1.010000e-06	1.875295e-06	1.267650e-08	1.349347e+01	8.293952e+02
1.020000e-06	1.969832e-06	1.355050e-08	1.417371e+01	8.871019e+02
1.030000e-06	2.063747e-06	1.437713e-08	1.484946e+01	9.416111e+02
1.040000e-06	2.156951e-06	1.515438e-08	1.552010e+01	9.929024e+02
1.050000e-06	2.249404e-06	1.588225e-08	1.618534e+01	1.041060e+03
1.060000e-06	2.341153e-06	1.656567e-08	1.684551e+01	1.086241e+03
1.070000e-06	2.432100e-06	1.721069e-08	1.749991e+01	1.128644e+03
1.080000e-06	2.522048e-06	1.781825e-08	1.814712e+01	1.168477e+03
1.090000e-06	2.610889e-06	1.839006e-08	1.878636e+01	1.205944e+03
1.100000e-06	2.698713e-06	1.892570e-08	1.941829e+01	1.241223e+03
1.110000e-06	2.785684e-06	1.942706e-08	2.004408e+01	1.274472e+03
1.120000e-06	2.871812e-06	1.989965e-08	2.066380e+01	1.305825e+03
1.130000e-06	2.956975e-06	2.034885e-08	2.127659e+01	1.335403e+03
1.140000e-06	3.041217e-06	2.077408e-08	2.188274e+01	1.363317e+03
1.150000e-06	3.124579e-06	2.117359e-08	2.248256e+01	1.389676e+03
1.160000e-06	3.206813e-06	2.155266e-08	2.307427e+01	1.414592e+03
1.170000e-06	3.287805e-06	2.191300e-08	2.365704e+01	1.438171e+03
1.180000e-06	3.367667e-06	2.225567e-08	2.423167e+01	1.460520e+03
1.190000e-06	3.446314e-06	2.258056e-08	2.479757e+01	1.481735e+03
1.200000e-06	3.523639e-06	2.288826e-08	2.535396e+01	1.501903e+03
1.210000e-06	3.599760e-06	2.317965e-08	2.590167e+01	1.521094e+03
1.220000e-06	3.674523e-06	2.345456e-08	2.643962e+01	1.539365e+03
1.230000e-06	3.747712e-06	2.371520e-08	2.696625e+01	1.556762e+03
1.240000e-06	3.819434e-06	2.396406e-08	2.748231e+01	1.573324e+03
1.250000e-06	3.889800e-06	2.420298e-08	2.798863e+01	1.589084e+03
1.260000e-06	3.958846e-06	2.443259e-08	2.848544e+01	1.604078e+03
1.270000e-06	4.026603e-06	2.465096e-08	2.897297e+01	1.618342e+03
1.280000e-06	4.092796e-06	2.485756e-08	2.944926e+01	1.631919e+03
1.290000e-06	4.157271e-06	2.505293e-08	2.991318e+01	1.644851e+03
1.300000e-06	4.220253e-06	2.523781e-08	3.036636e+01	1.657179e+03
1.310000e-06	4.281816e-06	2.541463e-08	3.080933e+01	1.668940e+03
1.320000e-06	4.342101e-06	2.558508e-08	3.124311e+01	1.680165e+03
1.330000e-06	4.400971e-06	2.574902e-08	3.166670e+01	1.690874e+03
1.340000e-06	4.458069e-06	2.590625e-08	3.207754e+01	1.701080e+03
1.350000e-06	4.513448e-06	2.605547e-08	3.247602e+01	1.710789e+03
1.360000e-06	4.567228e-06	2.619715e-08	3.286298e+01	1.720005e+03
1.370000e-06	4.619202e-06	2.633142e-08	3.323696e+01	1.728730e+03
1.380000e-06	4.669145e-06	2.645707e-08	3.359631e+01	1.736973e+03
1.390000e-06	4.717135e-06	2.657509e-08	3.394162e+01	1.744748e+03
1.400000e-06	4.763418e-06	2.668709e-08	3.427465e+01	1.752076e+03
1.410000e-06	4.808191e-06	2.679274e-08	3.459681e+01	1.758985e+03
1.420000e-06	4.851399e-06	2.689126e-08	3.490770e+01	1.765505e+03
1.430000e-06	4.892774e-06	2.698341e-08	3.520541e+01	1.771664e+03
1.440000e-06	4.932333e-06	2.706932e-08	3.549005e+01	1.777487e+03
1.450000e-06	4.970293e-06	2.715083e-08	3.576319e+01	1.782994e+03
1.460000e-06	5.006683e-06	2.722923e-08	3.602503e+01	1.788195e+03
1.470000e-06	5.041299e-06	2.730372e-08	3.627410e+01	1.793093e+03
1.480000e-06	5.073995e-06	2.737337e-08	3.650936e+01	1.797685e+03
1.490000e-06	5.104876e-06	2.743793e-08	3.673157e+01	1.801966e+03
1.500000e-06	5.134116e-06	2.749833e-08	3.694196e+01	1.805930e+03
1.510000e-06	5.161705e-06	2.755504e-08	3.714048e+01	1.809574e+03
1.520000e-06	5.187255e-06	2.760767e-08	3.732432e+01	1.812899e+03
1.530000e-06	5.210768e-06	2.765593e-08	3.749350e+01	1.815910e+03
1.540000e-06	5.232519e-06	2.769714e-08	3.765001e+01	1.818613e+03
1.550000e-06	5.252573e-06	2.773214e-08	3.779431e+01	1.821018e+03
1.560000e-06	5.270788e-06	2.776404e-08	3.792537e+01	1.823134e+03
1.570000e-06	5.287005e-06	2.779117e-08	3.804206e+01	1.824968e+03
1.580000e-06	5.301296e-06	2.781333e-08	3.814489e+01	1.826527e+03
1.590000e-06	5.313586e-06	2.783163e-08	3.823332e+01	1.827816e+03
1.600000e-06	5.323713e-06	2.784670e-08	3.830618e+01	1.828841e+03
1.610000e-06	5.331727e-06	2.786011e-08	3.836385e+01	1.829610e+03
1.620000e-06	5.337826e-06	2.787157e-08	3.840773e+01	1.830133e+03
1.630000e-06	5.342175e-06	2.787824e-08	3.843903e+01	1.830422e+03
1.640000e-06	5.344638e-06	2.788190e-08	3.845675e+01	1.830490e+03
1.650000e-06	5.345090e-06	2.788384e-08	3.846000e+01	1.830351e+03
1.660000e-06	5.343730e-06	2.787670e-08	3.845022e+01	1.830011e+03
1.670000e-06	5.340762e-06	2.786515e-08	3.842886e+01	1.829473e+03
1.680000e-06	5.336149e-06	2.785405e-08	3.839567e+01	1.828728e+03
1.690000e-06	5.329636e-06	2.784099e-08	3.834881e+01	1.827765e+03
1.700000e-06	5.321323e-06	2.782414e-08	3.828899e+01	1.826566e+03
1.710000e-06	5.311450e-06	2.780525e-08	3.821795e+01	1.825114e+03
1.720000e-06	5.299932e-06	2.779681e-08	3.813507e+01	1.823397e+03
1.730000e-06	5.286495e-06	2.777567e-08	3.803839e+01	1.821416e+03
1.740000e-06	5.271037e-06	2.766216e-08	3.792716e+01	1.819184e+03
1.750000e-06	5.253338e-06	2.761515e-08	3.779981e+01	1.816728e+03
1.760000e-06	5.233050e-06	2.761892e-08	3.765383e+01	1.814085e+03
1.770000e-06	5.210295e-06	2.760383e-08	3.749010e+01	1.811298e+03
1.780000e-06	5.186024e-06	2.767295e-08	3.731546e+01	1.808408e+03
1.790000e-06	5.161066e-06	2.750827e-08	3.713588e+01	1.805443e+03
1.800000e-06	5.134953e-06	2.738076e-08	3.694798e+01	1.802415e+03
1.810000e-06	5.106752e-06	2.749384e-08	3.674507e+01	1.799312e+03
1.820000e-06	5.076553e-06	2.730626e-08	3.652778e+01	1.796104e+03
1.830000e-06	5.044725e-06	2.726127e-08	3.629876e+01	1.792739e+03
1.840000e-06	5.010978e-06	2.739266e-08	3.605593e+01	1.789157e+03
1.850000e-06	4.975557e-06	2.715642e-08	3.580107e+01	1.785299e+03
1.860000e-06	4.938535e-06	2.712359e-08	3.553468e+01	1.781109e+03
1.870000e-06	4.899609e-06	2.714848e-08	3.525460e+01	1.776549e+03
1.880000e-06	4.859021e-06	2.696136e-08	3.496255e+01	1.771600e+03
1.890000e-06	4.816639e-06	2.698328e-08	3.465759e+01	1.766259e+03
1.900000e-06	4.772516e-06	2.682351e-08	3.434011e+01	1.760539e+03
1.910000e-06	4.726675e-06	2.670449e-08	3.401027e+01	1.754461e+03
1.920000e-06	4.678855e-06	2.676780e-08	3.366618e+01	1.748050e+03
1.930000e-06	4.629398e-06	2.656333e-08	3.331032e+01	1.741323e+03
1.940000e-06	4.578258e-06	2.647503e-08	3.294234e+01	1.734292e+03
1.950000e-06	4.525097e-06	2.637369e-08	3.255984e+01	1.726957e+03
1.960000e-06	4.470038e-06	2.622572e-08	3.216366e+01	1.719310e+03
1.970000e-06	4.413250e-06	2.613789e-08	3.175505e+01	1.711339e+03
1.980000e-06	4.354877e-06	2.593151e-08	3.133503e+01	1.703030e+03
1.990000e-06	4.295159e-06	2.588261e-08	3.090534e+01	1.694374e+03
2.000000e-06	4.234022e-06	2.576335e-08	3.046543e+01	1.685363e+03
2.010000e-06	4.171127e-06	2.556734e-08	3.001288e+01	1.675997e+03
2.020000e-06	4.106531e-06	2.543573e-08	2.954809e+01	1.666276e+03
2.030000e-06	4.040519e-06	2.525383e-08	2.907311e+01	1.656202e+03
2.040000e-06	3.973209e-06	2.516116e-08	2.858879e+01	1.645770e+03
2.050000e-06	3.904506e-06	2.496758e-08	2.809444e+01	1.634973e+03
2.060000e-06	3.834174e-06	2.478109e-08	2.758837e+01	1.623794e+03
2.070000e-06	3.762427e-06	2.463842e-08	2.707213e+01	1.612215e+03
2.080000e-06	3.689487e-06	2.441779e-08	2.654730e+01	1.600212e+03
2.090000e-06	3.615191e-06	2.424360e-08	2.601271e+01	1.587764e+03
2.100000e-06	3.539531e-06	2.403837e-08	2.546830e+01	1.574855e+03
2.110000e-06	3.462368e-06	2.385373e-08	2.491308e+01	1.561472e+03
2.120000e-06	3.383673e-06	2.363858e-08	2.434684e+01	1.547606e+03
2.130000e-06	3.303789e-06	2.340500e-08	2.377205e+01	1.533250e+03
2.140000e-06	3.222834e-06	2.319403e-08	2.318955e+01	1.518395e+03
2.150000e-06	3.140766e-06	2.294853e-08	2.259903e+01	1.503025e+03
2.160000e-06	3.057677e-06	2.272068e-08	2.200118e+01	1.487116e+03
2.170000e-06	2.973718e-06	2.246800e-08	2.139706e+01	1.470632e+03
2.180000e-06	2.888609e-06	2.220881e-08	2.078466e+01	1.453533e+03
2.190000e-06	2.802067e-06	2.193398e-08	2.016196e+01	1.435771e+03
2.200000e-06	2.714417e-06	2.164732e-08	1.953128e+01	1.417299e+03
2.210000e-06	2.625939e-06	2.136378e-08	1.889465e+01	1.398074e+03
2.220000e-06	2.536537e-06	2.105515e-08	1.825137e+01	1.378060e+03
2.230000e-06	2.446170e-06	2.073811e-08	1.760114e+01	1.357225e+03
2.240000e-06	2.355095e-06	2.040727e-08	1.694583e+01	1.335540e+03
2.250000e-06	2.263463e-06	2.007441e-08	1.628649e+01	1.312975e+03
2.260000e-06	2.171106e-06	1.971763e-08	1.562195e+01	1.289491e+03
2.270000e-06	2.077691e-06	1.934191e-08	1.494979e+01	1.265036e+03
2.280000e-06	1.983147e-06	1.895556e-08	1.426952e+01	1.239543e+03
2.290000e-06	1.887791e-06	1.854807e-08	1.358339e+01	1.212928e+03
2.300000e-06	1.791909e-06	1.812198e-08	1.289348e+01	1.185094e+03
2.310000e-06	1.695495e-06	1.767665e-08	1.219975e+01	1.155933e+03
2.320000e-06	1.598523e-06	1.721607e-08	1.150200e+01	1.125338e+03
2.330000e-06	1.501085e-06	1.672721e-08	1.080089e+01	1.093200e+03
2.340000e-06	1.403195e-06	1.620757e-08	1.009653e+01	1.059418e+03
2.350000e-06	1.304829e-06	1.566234e-08	9.388749e+00	1.023893e+03
2.360000e-06	1.206030e-06	1.509636e-08	8.677856e+00	9.865350e+02
2.370000e-06	1.106887e-06	1.450245e-08	7.964483e+00	9.472558e+02
2.380000e-06	1.007503e-06	1.387367e-08	7.249377e+00	9.059729e+02
2.390000e-06	9.079533e-07	1.320996e-08	6.533077e+00	8.626126e+02
2.400000e-06	8.081727e-07	1.251311e-08	5.815117e+00	8.171181e+02
2.410000e-06	7.081152e-07	1.178710e-08	5.095164e+00	7.694617e+02
2.420000e-06	6.077904e-07	1.102709e-08	4.373288e+00	7.196589e+02
2.430000e-06	5.072014e-07	1.023511e-08	3.649511e+00	6.677810e+02
2.440000e-06	4.064522e-07	9.416732e-09	2.924582e+00	6.139645e+02
2.450000e-06	3.055686e-07	8.571285e-09	2.198685e+00	5.584101e+02
2.460000e-06	2.044539e-07	7.698318e-09	1.471125e+00	5.013728e+02
2.470000e-06	1.031487e-07	6.807172e-09	7.421953e-01	4.431400e+02
2.480000e-06	1.779796e-09	5.905292e-09	1.280632e-02	3.840008e+02
2.490000e-06	-9.958208e-08	4.991346e-09	-7.165318e-01	3.242107e+02
2.500000e-06	-2.009388e-07	4.066832e-09	-1.445833e+00	2.639573e+02
2.510000e-06	-3.022145e-07	3.137222e-09	-2.174551e+00	2.033340e+02
2.520000e-06	-4.032915e-07	2.205900e-09	-2.901839e+00	1.423281e+02
2.530000e-06	-5.041992e-07	1.268084e-09	-3.627909e+00	8.082638e+01
2.540000e-06	-6.048910e-07	3.171134e-10	-4.352426e+00	1.863885e+01
2.550000e-06	-7.052844e-07	-6.476252e-10	-5.074796e+00	-4.446047e+01
2.560000e-06	-8.054386e-07	-1.626771e-09	-5.795444e+00	-1.086829e+02
2.570000e-06	-9.053328e-07	-2.626735e-09	-6.514222e+00	-1.741719e+02
2.580000e-06	-1.004928e-06	-3.646468e-09	-7.230849e+00	-2.409560e+02
2.590000e-06	-1.104278e-06	-4.682992e-09	-7.945711e+00	-3.089158e+02
2.600000e-06	-1.203353e-06	-5.734726e-09	-8.658589e+00	-3.777718e+02
2.610000e-06	-1.301998e-06	-6.793766e-09	-9.368381e+00	-4.470934e+02
2.620000e-06	-1.400095e-06	-7.852380e-09	-1.007423e+01	-5.163300e+02
2.630000e-06	-1.497675e-06	-8.902701e-09	-1.077636e+01	-5.848579e+02
2.640000e-06	-1.594739e-06	-9.932806e-09	-1.147477e+01	-6.520364e+02
2.650000e-06	-1.691245e-06	-1.093153e-08	-1.216917e+01	-7.172638e+02
2.660000e-06	-1.787251e-06	-1.188999e-08	-1.285997e+01	-7.800270e+02
2.670000e-06	-1.882813e-06	-1.280593e-08	-1.354757e+01	-8.399354e+02
2.680000e-06	-1.977737e-06	-1.367670e-08	-1.423058e+01	-8.967389e+02
2.690000e-06	-2.071691e-06	-1.449823e-08	-1.490662e+01	-9.503268e+02
2.700000e-06	-2.164571e-06	-1.527175e-08	-1.557493e+01	-1.000712e+03
2.710000e-06	-2.256584e-06	-1.599973e-08	-1.623700e+01	-1.048002e+03
2.720000e-06	-2.347909e-06	-1.668137e-08	-1.689412e+01	-1.092369e+03
2.730000e-06	-2.438441e-06	-1.731852e-08	-1.754553e+01	-1.134017e+03
2.740000e-06	-2.528034e-06	-1.791852e-08	-1.819019e+01	-1.173156e+03
2.750000e-06	-2.616768e-06	-1.848539e-08	-1.882866e+01	-1.209981e+03
2.760000e-06	-2.704778e-06	-1.902130e-08	-1.946193e+01	-1.244667e+03
2.770000e-06	-2.791935e-06	-1.952394e-08	-2.008906e+01	-1.277362e+03
2.780000e-06	-2.877923e-06	-1.999515e-08	-2.070778e+01	-1.308197e+03
2.790000e-06	-2.962671e-06	-2.043609e-08	-2.131757e+01	-1.337289e+03
2.800000e-06	-3.046369e-06	-2.085202e-08	-2.191981e+01	-1.364749e+03
2.810000e-06	-3.129117e-06	-2.124706e-08	-2.251522e+01	-1.390686e+03
2.820000e-06	-3.210858e-06	-2.162268e-08	-2.310337e+01	-1.415210e+03
2.830000e-06	-3.291580e-06	-2.198155e-08	-2.368420e+01	-1.438429e+03
2.840000e-06	-3.371221e-06	-2.232132e-08	-2.425724e+01	-1.460445e+03
2.850000e-06	-3.449542e-06	-2.264317e-08	-2.482080e+01	-1.481355e+03
2.860000e-06	-3.526386e-06	-2.294783e-08	-2.537372e+01	-1.501237e+03
2.870000e-06	-3.601767e-06	-2.323745e-08	-2.591612e+01	-1.520161e+03
2.880000e-06	-3.675752e-06	-2.351337e-08	-2.644847e+01	-1.538180e+03
2.890000e-06	-3.748469e-06	-2.377462e-08	-2.697169e+01	-1.555336e+03
2.900000e-06	-3.819934e-06	-2.402209e-08	-2.748591e+01	-1.571666e+03
2.910000e-06	-3.889911e-06	-2.425927e-08	-2.798942e+01	-1.587205e+03
2.920000e-06	-3.958290e-06	-2.448752e-08	-2.848144e+01	-1.601987e+03
2.930000e-06	-4.025231e-06	-2.470635e-08	-2.896310e+01	-1.616052e+03
2.940000e-06	-4.090823e-06	-2.491470e-08	-2.943506e+01	-1.629442e+03
