# Temperatura_=_77.22
# Concentracion g/m^3_=_28200.0
# C_Vs_to_Am_M_A/Vsm_=_65563218390.804596
# pendiente_HvsI_1/m_=_3716.3
# ordenada_HvsI_A/m_=_1297.0
# frecuencia_Hz_=_301743.8163961437

Tiempo_(s)	Campo_(V.s)	Magnetizacion_(V.s)	Campo_(kA/m)	Magnetizacion_(A/m)
0.000000e+00	-5.314179e-06	-2.540112e-08	-3.830088e+01	-1.662028e+03
1.000000e-08	-5.311737e-06	-2.539844e-08	-3.828328e+01	-1.661582e+03
2.000000e-08	-5.307449e-06	-2.538733e-08	-3.825238e+01	-1.660961e+03
3.000000e-08	-5.301490e-06	-2.537656e-08	-3.820943e+01	-1.660157e+03
4.000000e-08	-5.293963e-06	-2.536226e-08	-3.815518e+01	-1.659155e+03
5.000000e-08	-5.284808e-06	-2.533808e-08	-3.808919e+01	-1.657937e+03
6.000000e-08	-5.273673e-06	-2.530701e-08	-3.800894e+01	-1.656484e+03
7.000000e-08	-5.260642e-06	-2.526014e-08	-3.791502e+01	-1.654786e+03
8.000000e-08	-5.245581e-06	-2.524260e-08	-3.780647e+01	-1.652841e+03
9.000000e-08	-5.228186e-06	-2.530221e-08	-3.768110e+01	-1.650665e+03
1.000000e-07	-5.208710e-06	-2.525871e-08	-3.754073e+01	-1.648288e+03
1.100000e-07	-5.187356e-06	-2.516362e-08	-3.738683e+01	-1.645750e+03
1.200000e-07	-5.164227e-06	-2.512343e-08	-3.722013e+01	-1.643096e+03
1.300000e-07	-5.139676e-06	-2.495957e-08	-3.704318e+01	-1.640365e+03
1.400000e-07	-5.113596e-06	-2.497032e-08	-3.685521e+01	-1.637585e+03
1.500000e-07	-5.085792e-06	-2.510796e-08	-3.665482e+01	-1.634763e+03
1.600000e-07	-5.056515e-06	-2.483764e-08	-3.644382e+01	-1.631885e+03
1.700000e-07	-5.025817e-06	-2.484588e-08	-3.622256e+01	-1.628911e+03
1.800000e-07	-4.993166e-06	-2.492097e-08	-3.598724e+01	-1.625787e+03
1.900000e-07	-4.958440e-06	-2.461708e-08	-3.573696e+01	-1.622450e+03
2.000000e-07	-4.922232e-06	-2.470233e-08	-3.547600e+01	-1.618837e+03
2.100000e-07	-4.884374e-06	-2.472431e-08	-3.520315e+01	-1.614895e+03
2.200000e-07	-4.844774e-06	-2.449796e-08	-3.491774e+01	-1.610589e+03
2.300000e-07	-4.803345e-06	-2.448727e-08	-3.461915e+01	-1.605906e+03
2.400000e-07	-4.759879e-06	-2.436259e-08	-3.430588e+01	-1.600852e+03
2.500000e-07	-4.714689e-06	-2.424408e-08	-3.398017e+01	-1.595449e+03
2.600000e-07	-4.667778e-06	-2.427001e-08	-3.364207e+01	-1.589725e+03
2.700000e-07	-4.618907e-06	-2.411886e-08	-3.328984e+01	-1.583711e+03
2.800000e-07	-4.567881e-06	-2.399261e-08	-3.292209e+01	-1.577429e+03
2.900000e-07	-4.514893e-06	-2.390128e-08	-3.254018e+01	-1.570890e+03
3.000000e-07	-4.460288e-06	-2.379587e-08	-3.214663e+01	-1.564091e+03
3.100000e-07	-4.404173e-06	-2.370350e-08	-3.174219e+01	-1.557019e+03
3.200000e-07	-4.346168e-06	-2.360491e-08	-3.132413e+01	-1.549651e+03
3.300000e-07	-4.286450e-06	-2.349834e-08	-3.089373e+01	-1.541967e+03
3.400000e-07	-4.225346e-06	-2.332985e-08	-3.045334e+01	-1.533949e+03
3.500000e-07	-4.162757e-06	-2.320787e-08	-3.000223e+01	-1.525584e+03
3.600000e-07	-4.098904e-06	-2.307346e-08	-2.954203e+01	-1.516870e+03
3.700000e-07	-4.033555e-06	-2.294635e-08	-2.907104e+01	-1.507811e+03
3.800000e-07	-3.966488e-06	-2.284692e-08	-2.858766e+01	-1.498412e+03
3.900000e-07	-3.897954e-06	-2.265762e-08	-2.809372e+01	-1.488680e+03
4.000000e-07	-3.828197e-06	-2.248678e-08	-2.759097e+01	-1.478613e+03
4.100000e-07	-3.757171e-06	-2.234235e-08	-2.707905e+01	-1.468204e+03
4.200000e-07	-3.684938e-06	-2.217681e-08	-2.655845e+01	-1.457438e+03
4.300000e-07	-3.611326e-06	-2.200875e-08	-2.602791e+01	-1.446292e+03
4.400000e-07	-3.536038e-06	-2.183045e-08	-2.548529e+01	-1.434741e+03
4.500000e-07	-3.459353e-06	-2.164185e-08	-2.493259e+01	-1.422761e+03
4.600000e-07	-3.381445e-06	-2.144010e-08	-2.437109e+01	-1.410327e+03
4.700000e-07	-3.302213e-06	-2.125758e-08	-2.380004e+01	-1.397421e+03
4.800000e-07	-3.221616e-06	-2.107106e-08	-2.321915e+01	-1.384028e+03
4.900000e-07	-3.139812e-06	-2.085038e-08	-2.262957e+01	-1.370135e+03
5.000000e-07	-3.056951e-06	-2.062372e-08	-2.203236e+01	-1.355726e+03
5.100000e-07	-2.973185e-06	-2.038875e-08	-2.142864e+01	-1.340782e+03
5.200000e-07	-2.888539e-06	-2.014965e-08	-2.081856e+01	-1.325279e+03
5.300000e-07	-2.802896e-06	-1.990378e-08	-2.020131e+01	-1.309184e+03
5.400000e-07	-2.716308e-06	-1.965094e-08	-1.957725e+01	-1.292463e+03
5.500000e-07	-2.628878e-06	-1.939321e-08	-1.894711e+01	-1.275075e+03
5.600000e-07	-2.540561e-06	-1.911005e-08	-1.831058e+01	-1.256982e+03
5.700000e-07	-2.451069e-06	-1.881945e-08	-1.766559e+01	-1.238146e+03
5.800000e-07	-2.360340e-06	-1.852655e-08	-1.701167e+01	-1.218532e+03
5.900000e-07	-2.268707e-06	-1.822472e-08	-1.635125e+01	-1.198106e+03
6.000000e-07	-2.176363e-06	-1.789768e-08	-1.568570e+01	-1.176832e+03
6.100000e-07	-2.083285e-06	-1.755266e-08	-1.501486e+01	-1.154667e+03
6.200000e-07	-1.989443e-06	-1.719619e-08	-1.433851e+01	-1.131562e+03
6.300000e-07	-1.894898e-06	-1.682219e-08	-1.365709e+01	-1.107452e+03
6.400000e-07	-1.799732e-06	-1.643915e-08	-1.297121e+01	-1.082262e+03
6.500000e-07	-1.704030e-06	-1.603988e-08	-1.228146e+01	-1.055902e+03
6.600000e-07	-1.607774e-06	-1.562156e-08	-1.158771e+01	-1.028275e+03
6.700000e-07	-1.510835e-06	-1.517762e-08	-1.088904e+01	-9.992780e+02
6.800000e-07	-1.413195e-06	-1.471097e-08	-1.018532e+01	-9.688081e+02
6.900000e-07	-1.314914e-06	-1.422097e-08	-9.476982e+00	-9.367651e+02
7.000000e-07	-1.216056e-06	-1.370636e-08	-8.764483e+00	-9.030550e+02
7.100000e-07	-1.116726e-06	-1.316605e-08	-8.048578e+00	-8.675926e+02
7.200000e-07	-1.017055e-06	-1.259701e-08	-7.330221e+00	-8.303039e+02
7.300000e-07	-9.171468e-07	-1.200108e-08	-6.610152e+00	-7.911288e+02
7.400000e-07	-8.170605e-07	-1.137471e-08	-5.888799e+00	-7.500270e+02
7.500000e-07	-7.167878e-07	-1.072112e-08	-5.166105e+00	-7.069849e+02
7.600000e-07	-6.163088e-07	-1.003485e-08	-4.441922e+00	-6.620243e+02
7.700000e-07	-5.156309e-07	-9.319274e-09	-3.716306e+00	-6.152113e+02
7.800000e-07	-4.147988e-07	-8.580565e-09	-2.989579e+00	-5.666625e+02
7.900000e-07	-3.138457e-07	-7.818094e-09	-2.261980e+00	-5.165469e+02
8.000000e-07	-2.126966e-07	-7.034213e-09	-1.532968e+00	-4.650798e+02
8.100000e-07	-1.113985e-07	-6.233232e-09	-8.028826e-01	-4.125092e+02
8.200000e-07	-1.008729e-08	-5.420186e-09	-7.270213e-02	-3.590931e+02
8.300000e-07	9.124240e-08	-4.597013e-09	6.576113e-01	-3.050723e+02
8.400000e-07	1.925426e-07	-3.769765e-09	1.387712e+00	-2.506412e+02
8.500000e-07	2.937414e-07	-2.939807e-09	2.117082e+00	-1.959218e+02
8.600000e-07	3.948858e-07	-2.106948e-09	2.846061e+00	-1.409470e+02
8.700000e-07	4.959540e-07	-1.266746e-09	3.574489e+00	-8.565726e+01
8.800000e-07	5.968904e-07	-4.177090e-10	4.301968e+00	-2.991264e+01
8.900000e-07	6.976561e-07	4.435633e-10	5.028216e+00	2.647973e+01
9.000000e-07	7.981886e-07	1.318182e-09	5.752784e+00	8.372588e+01
9.100000e-07	8.984674e-07	2.204928e-09	6.475523e+00	1.419988e+02
9.200000e-07	9.984686e-07	3.105155e-09	7.196262e+00	2.013930e+02
9.300000e-07	1.098205e-06	4.021512e-09	7.915095e+00	2.618875e+02
9.400000e-07	1.197654e-06	4.958959e-09	8.631854e+00	3.233230e+02
9.500000e-07	1.296627e-06	5.907233e-09	9.345179e+00	3.853992e+02
9.600000e-07	1.394962e-06	6.857235e-09	1.005391e+01	4.476902e+02
9.700000e-07	1.492586e-06	7.801419e-09	1.075752e+01	5.096790e+02
9.800000e-07	1.589480e-06	8.731175e-09	1.145586e+01	5.708030e+02
9.900000e-07	1.685747e-06	9.638051e-09	1.214968e+01	6.305051e+02
1.000000e-06	1.781405e-06	1.051554e-08	1.283912e+01	6.882821e+02
1.010000e-06	1.876400e-06	1.135906e-08	1.352378e+01	7.437234e+02
1.020000e-06	1.970788e-06	1.216079e-08	1.420406e+01	7.965357e+02
1.030000e-06	2.064468e-06	1.291799e-08	1.487924e+01	8.465509e+02
1.040000e-06	2.157375e-06	1.363026e-08	1.554885e+01	8.937187e+02
1.050000e-06	2.249654e-06	1.430220e-08	1.621393e+01	9.380872e+02
1.060000e-06	2.341299e-06	1.493427e-08	1.687445e+01	9.797752e+02
1.070000e-06	2.432105e-06	1.553017e-08	1.752891e+01	1.018944e+03
1.080000e-06	2.521831e-06	1.609131e-08	1.817559e+01	1.055771e+03
1.090000e-06	2.610475e-06	1.661863e-08	1.881448e+01	1.090430e+03
1.100000e-06	2.698193e-06	1.711329e-08	1.944668e+01	1.123080e+03
1.110000e-06	2.785046e-06	1.757949e-08	2.007266e+01	1.153861e+03
1.120000e-06	2.870964e-06	1.802076e-08	2.069189e+01	1.182898e+03
1.130000e-06	2.955907e-06	1.843614e-08	2.130411e+01	1.210301e+03
1.140000e-06	3.040015e-06	1.882834e-08	2.191030e+01	1.236176e+03
1.150000e-06	3.123197e-06	1.919906e-08	2.250982e+01	1.260628e+03
1.160000e-06	3.205220e-06	1.955196e-08	2.310098e+01	1.283759e+03
1.170000e-06	3.286036e-06	1.988713e-08	2.368345e+01	1.305671e+03
1.180000e-06	3.365682e-06	2.020707e-08	2.425748e+01	1.326458e+03
1.190000e-06	3.444157e-06	2.050998e-08	2.482307e+01	1.346205e+03
1.200000e-06	3.521402e-06	2.079570e-08	2.537980e+01	1.364983e+03
1.210000e-06	3.597374e-06	2.106482e-08	2.592735e+01	1.382851e+03
1.220000e-06	3.671979e-06	2.131883e-08	2.646505e+01	1.399853e+03
1.230000e-06	3.745106e-06	2.156081e-08	2.699210e+01	1.416027e+03
1.240000e-06	3.816725e-06	2.179297e-08	2.750828e+01	1.431407e+03
1.250000e-06	3.886866e-06	2.201643e-08	2.801381e+01	1.446025e+03
1.260000e-06	3.955685e-06	2.222903e-08	2.850981e+01	1.459920e+03
1.270000e-06	4.023228e-06	2.242950e-08	2.899661e+01	1.473134e+03
1.280000e-06	4.089177e-06	2.261888e-08	2.947193e+01	1.485714e+03
1.290000e-06	4.153475e-06	2.280084e-08	2.993534e+01	1.497704e+03
1.300000e-06	4.216315e-06	2.297629e-08	3.038824e+01	1.509145e+03
1.310000e-06	4.277738e-06	2.314354e-08	3.083094e+01	1.520070e+03
1.320000e-06	4.337846e-06	2.330290e-08	3.126416e+01	1.530499e+03
1.330000e-06	4.396502e-06	2.345484e-08	3.168691e+01	1.540442e+03
1.340000e-06	4.453362e-06	2.359853e-08	3.209672e+01	1.549901e+03
1.350000e-06	4.508459e-06	2.373494e-08	3.249381e+01	1.558874e+03
1.360000e-06	4.561973e-06	2.386561e-08	3.287951e+01	1.567357e+03
1.370000e-06	4.613726e-06	2.398903e-08	3.325251e+01	1.575356e+03
1.380000e-06	4.663402e-06	2.410372e-08	3.361054e+01	1.582885e+03
1.390000e-06	4.711165e-06	2.421090e-08	3.395478e+01	1.589967e+03
1.400000e-06	4.757350e-06	2.431179e-08	3.428765e+01	1.596637e+03
1.410000e-06	4.802039e-06	2.440603e-08	3.460974e+01	1.602933e+03
1.420000e-06	4.845161e-06	2.449474e-08	3.492053e+01	1.608893e+03
1.430000e-06	4.886418e-06	2.457981e-08	3.521787e+01	1.614548e+03
1.440000e-06	4.925852e-06	2.466098e-08	3.550209e+01	1.619922e+03
1.450000e-06	4.963686e-06	2.473806e-08	3.577477e+01	1.625024e+03
1.460000e-06	4.999924e-06	2.481163e-08	3.603595e+01	1.629854e+03
1.470000e-06	5.034374e-06	2.488232e-08	3.628424e+01	1.634400e+03
1.480000e-06	5.066929e-06	2.494869e-08	3.651887e+01	1.638648e+03
1.490000e-06	5.097775e-06	2.500923e-08	3.674119e+01	1.642583e+03
1.500000e-06	5.126985e-06	2.506365e-08	3.695172e+01	1.646196e+03
1.510000e-06	5.154458e-06	2.511360e-08	3.714972e+01	1.649485e+03
1.520000e-06	5.179861e-06	2.515923e-08	3.733281e+01	1.652457e+03
1.530000e-06	5.203195e-06	2.519942e-08	3.750099e+01	1.655128e+03
1.540000e-06	5.224777e-06	2.523541e-08	3.765654e+01	1.657514e+03
1.550000e-06	5.244740e-06	2.526609e-08	3.780041e+01	1.659637e+03
1.560000e-06	5.262867e-06	2.529405e-08	3.793106e+01	1.661512e+03
1.570000e-06	5.278936e-06	2.531921e-08	3.804687e+01	1.663150e+03
1.580000e-06	5.293061e-06	2.533978e-08	3.814868e+01	1.664557e+03
1.590000e-06	5.305226e-06	2.535690e-08	3.823635e+01	1.665734e+03
1.600000e-06	5.315215e-06	2.537143e-08	3.830834e+01	1.666680e+03
1.610000e-06	5.323145e-06	2.538444e-08	3.836550e+01	1.667394e+03
1.620000e-06	5.329205e-06	2.539443e-08	3.840917e+01	1.667880e+03
1.630000e-06	5.333490e-06	2.540076e-08	3.844006e+01	1.668145e+03
1.640000e-06	5.335871e-06	2.540425e-08	3.845722e+01	1.668201e+03
1.650000e-06	5.336257e-06	2.540495e-08	3.846000e+01	1.668063e+03
1.660000e-06	5.334898e-06	2.539643e-08	3.845021e+01	1.667742e+03
1.670000e-06	5.331873e-06	2.538716e-08	3.842840e+01	1.667245e+03
1.680000e-06	5.327156e-06	2.537941e-08	3.839441e+01	1.666571e+03
1.690000e-06	5.320537e-06	2.536862e-08	3.834670e+01	1.665711e+03
1.700000e-06	5.312154e-06	2.535515e-08	3.828628e+01	1.664648e+03
1.710000e-06	5.302249e-06	2.533972e-08	3.821490e+01	1.663364e+03
1.720000e-06	5.290646e-06	2.533704e-08	3.813127e+01	1.661841e+03
1.730000e-06	5.277058e-06	2.532467e-08	3.803333e+01	1.660070e+03
1.740000e-06	5.261489e-06	2.517892e-08	3.792113e+01	1.658056e+03
1.750000e-06	5.243747e-06	2.514236e-08	3.779325e+01	1.655818e+03
1.760000e-06	5.223335e-06	2.516354e-08	3.764614e+01	1.653390e+03
1.770000e-06	5.200492e-06	2.513996e-08	3.748151e+01	1.650813e+03
1.780000e-06	5.176185e-06	2.526486e-08	3.730631e+01	1.648132e+03
1.790000e-06	5.151188e-06	2.504844e-08	3.712615e+01	1.645384e+03
1.800000e-06	5.125028e-06	2.490198e-08	3.693761e+01	1.642591e+03
1.810000e-06	5.096750e-06	2.511128e-08	3.673381e+01	1.639754e+03
1.820000e-06	5.066568e-06	2.485379e-08	3.651627e+01	1.636852e+03
1.830000e-06	5.034792e-06	2.483088e-08	3.628725e+01	1.633840e+03
1.840000e-06	5.001059e-06	2.504397e-08	3.604413e+01	1.630661e+03
1.850000e-06	4.965689e-06	2.469237e-08	3.578920e+01	1.627250e+03
1.860000e-06	4.928623e-06	2.470051e-08	3.552206e+01	1.623547e+03
1.870000e-06	4.889524e-06	2.476494e-08	3.524026e+01	1.619502e+03
1.880000e-06	4.848825e-06	2.453618e-08	3.494693e+01	1.615088e+03
1.890000e-06	4.806418e-06	2.467038e-08	3.464130e+01	1.610297e+03
1.900000e-06	4.762354e-06	2.446314e-08	3.432371e+01	1.605139e+03
1.910000e-06	4.716564e-06	2.431066e-08	3.399369e+01	1.599640e+03
1.920000e-06	4.668733e-06	2.445237e-08	3.364895e+01	1.593829e+03
1.930000e-06	4.619324e-06	2.420538e-08	3.329285e+01	1.587736e+03
1.940000e-06	4.568256e-06	2.416686e-08	3.292479e+01	1.581379e+03
1.950000e-06	4.515105e-06	2.407974e-08	3.254172e+01	1.574766e+03
1.960000e-06	4.460035e-06	2.392827e-08	3.214481e+01	1.567889e+03
1.970000e-06	4.403260e-06	2.386665e-08	3.173561e+01	1.560733e+03
1.980000e-06	4.344924e-06	2.362143e-08	3.131517e+01	1.553277e+03
1.990000e-06	4.285201e-06	2.362423e-08	3.088472e+01	1.545498e+03
2.000000e-06	4.223999e-06	2.351866e-08	3.044362e+01	1.537380e+03
2.010000e-06	4.161106e-06	2.334525e-08	2.999033e+01	1.528914e+03
2.020000e-06	4.096583e-06	2.323103e-08	2.952530e+01	1.520100e+03
2.030000e-06	4.030658e-06	2.301394e-08	2.905016e+01	1.510942e+03
2.040000e-06	3.963433e-06	2.297206e-08	2.856565e+01	1.501447e+03
2.050000e-06	3.894864e-06	2.277807e-08	2.807145e+01	1.491618e+03
2.060000e-06	3.824700e-06	2.261291e-08	2.756576e+01	1.481453e+03
2.070000e-06	3.753033e-06	2.250280e-08	2.704924e+01	1.470943e+03
2.080000e-06	3.680141e-06	2.228178e-08	2.652388e+01	1.460069e+03
2.090000e-06	3.605890e-06	2.213972e-08	2.598873e+01	1.448810e+03
2.100000e-06	3.530322e-06	2.194227e-08	2.544409e+01	1.437137e+03
2.110000e-06	3.453282e-06	2.179543e-08	2.488883e+01	1.425028e+03
2.120000e-06	3.374670e-06	2.159421e-08	2.432226e+01	1.412460e+03
2.130000e-06	3.294889e-06	2.136883e-08	2.374725e+01	1.399416e+03
2.140000e-06	3.214038e-06	2.118059e-08	2.316454e+01	1.385880e+03
2.150000e-06	3.132071e-06	2.094844e-08	2.257377e+01	1.371840e+03
2.160000e-06	3.049077e-06	2.074912e-08	2.197561e+01	1.357279e+03
2.170000e-06	2.965193e-06	2.051228e-08	2.137103e+01	1.342177e+03
2.180000e-06	2.880184e-06	2.028229e-08	2.075835e+01	1.326507e+03
2.190000e-06	2.793771e-06	2.002838e-08	2.013554e+01	1.310237e+03
2.200000e-06	2.706217e-06	1.976223e-08	1.950451e+01	1.293328e+03
2.210000e-06	2.617778e-06	1.951108e-08	1.886711e+01	1.275741e+03
2.220000e-06	2.528461e-06	1.922870e-08	1.822337e+01	1.257439e+03
2.230000e-06	2.438304e-06	1.893360e-08	1.757359e+01	1.238383e+03
2.240000e-06	2.347375e-06	1.861833e-08	1.691823e+01	1.218539e+03
2.250000e-06	2.255716e-06	1.831300e-08	1.625762e+01	1.197873e+03
2.260000e-06	2.163362e-06	1.798582e-08	1.559200e+01	1.176348e+03
2.270000e-06	2.070154e-06	1.764438e-08	1.492022e+01	1.153920e+03
2.280000e-06	1.975953e-06	1.729391e-08	1.424129e+01	1.130533e+03
2.290000e-06	1.880825e-06	1.692109e-08	1.355567e+01	1.106122e+03
2.300000e-06	1.784983e-06	1.653149e-08	1.286491e+01	1.080606e+03
2.310000e-06	1.688650e-06	1.612299e-08	1.217061e+01	1.053893e+03
2.320000e-06	1.591865e-06	1.570409e-08	1.147305e+01	1.025884e+03
2.330000e-06	1.494571e-06	1.525894e-08	1.077182e+01	9.964758e+02
2.340000e-06	1.396770e-06	1.478474e-08	1.006694e+01	9.655654e+02
2.350000e-06	1.298521e-06	1.428108e-08	9.358832e+00	9.330541e+02
2.360000e-06	1.199869e-06	1.375779e-08	8.647813e+00	8.988505e+02
2.370000e-06	1.100909e-06	1.321414e-08	7.934583e+00	8.628723e+02
2.380000e-06	1.001674e-06	1.264158e-08	7.219367e+00	8.250488e+02
2.390000e-06	9.021644e-07	1.203522e-08	6.502169e+00	7.853253e+02
2.400000e-06	8.023976e-07	1.139745e-08	5.783120e+00	7.436681e+02
2.410000e-06	7.023814e-07	1.073249e-08	5.062273e+00	7.000727e+02
2.420000e-06	6.021767e-07	1.003658e-08	4.340068e+00	6.545728e+02
2.430000e-06	5.017509e-07	9.312412e-09	3.616269e+00	6.072485e+02
2.440000e-06	4.011322e-07	8.565567e-09	2.891080e+00	5.582315e+02
2.450000e-06	3.003635e-07	7.796477e-09	2.164810e+00	5.077050e+02
2.460000e-06	1.994920e-07	7.002098e-09	1.437798e+00	4.558953e+02
2.470000e-06	9.854602e-08	6.193226e-09	7.102507e-01	4.030558e+02
2.480000e-06	-2.527824e-09	5.377740e-09	-1.821878e-02	3.494428e+02
2.490000e-06	-1.037027e-07	4.553458e-09	-7.474165e-01	2.952866e+02
2.500000e-06	-2.048476e-07	3.718000e-09	-1.476398e+00	2.407632e+02
2.510000e-06	-3.059017e-07	2.876078e-09	-2.204725e+00	1.859705e+02
2.520000e-06	-4.067880e-07	2.033726e-09	-2.931843e+00	1.309145e+02
2.530000e-06	-5.074793e-07	1.186695e-09	-3.657555e+00	7.551096e+01
2.540000e-06	-6.080171e-07	3.301093e-10	-4.382162e+00	1.960124e+01
2.550000e-06	-7.082829e-07	-5.381067e-10	-5.104807e+00	-3.701570e+01
2.560000e-06	-8.082631e-07	-1.418479e-09	-5.825394e+00	-9.454129e+01
2.570000e-06	-9.080115e-07	-2.313965e-09	-6.544311e+00	-1.531305e+02
2.580000e-06	-1.007456e-06	-3.224489e-09	-7.261038e+00	-2.128481e+02
2.590000e-06	-1.106570e-06	-4.148468e-09	-7.975378e+00	-2.736351e+02
2.600000e-06	-1.205386e-06	-5.088672e-09	-8.687578e+00	-3.352914e+02
2.610000e-06	-1.303836e-06	-6.039200e-09	-9.397136e+00	-3.974782e+02
2.620000e-06	-1.401762e-06	-6.992374e-09	-1.010292e+01	-4.597397e+02
2.630000e-06	-1.499093e-06	-7.939940e-09	-1.080441e+01	-5.215406e+02
2.640000e-06	-1.595923e-06	-8.870930e-09	-1.150229e+01	-5.823148e+02
2.650000e-06	-1.692315e-06	-9.775359e-09	-1.219702e+01	-6.415159e+02
2.660000e-06	-1.788217e-06	-1.064922e-08	-1.288821e+01	-6.986638e+02
2.670000e-06	-1.883582e-06	-1.149027e-08	-1.357554e+01	-7.533796e+02
2.680000e-06	-1.978274e-06	-1.228825e-08	-1.425801e+01	-8.054055e+02
2.690000e-06	-2.071999e-06	-1.303964e-08	-1.493352e+01	-8.546087e+02
2.700000e-06	-2.164727e-06	-1.374795e-08	-1.560184e+01	-9.009692e+02
2.710000e-06	-2.256605e-06	-1.441660e-08	-1.626403e+01	-9.445584e+02
2.720000e-06	-2.347714e-06	-1.504649e-08	-1.692068e+01	-9.855102e+02
2.730000e-06	-2.437981e-06	-1.563956e-08	-1.757126e+01	-1.023993e+03
2.740000e-06	-2.527372e-06	-1.619943e-08	-1.821553e+01	-1.060184e+03
2.750000e-06	-2.615943e-06	-1.672520e-08	-1.885388e+01	-1.094255e+03
2.760000e-06	-2.703718e-06	-1.721645e-08	-1.948650e+01	-1.126359e+03
2.770000e-06	-2.790651e-06	-1.767750e-08	-2.011306e+01	-1.156631e+03
2.780000e-06	-2.876487e-06	-1.811141e-08	-2.073171e+01	-1.185190e+03
2.790000e-06	-2.961109e-06	-1.851979e-08	-2.134160e+01	-1.212147e+03
2.800000e-06	-3.044667e-06	-1.890819e-08	-2.194383e+01	-1.237606e+03
2.810000e-06	-3.127213e-06	-1.927787e-08	-2.253876e+01	-1.261671e+03
2.820000e-06	-3.208707e-06	-1.962754e-08	-2.312611e+01	-1.284445e+03
2.830000e-06	-3.289188e-06	-1.995807e-08	-2.370617e+01	-1.306028e+03
2.840000e-06	-3.368648e-06	-2.027201e-08	-2.427886e+01	-1.326510e+03
2.850000e-06	-3.446794e-06	-2.057214e-08	-2.484208e+01	-1.345975e+03
2.860000e-06	-3.523377e-06	-2.085740e-08	-2.539403e+01	-1.364489e+03
2.870000e-06	-3.598541e-06	-2.112623e-08	-2.593576e+01	-1.382106e+03
2.880000e-06	-3.672365e-06	-2.138087e-08	-2.646784e+01	-1.398870e+03
2.890000e-06	-3.744927e-06	-2.162404e-08	-2.699081e+01	-1.414815e+03
2.900000e-06	-3.816229e-06	-2.185736e-08	-2.750471e+01	-1.429974e+03
2.910000e-06	-3.885968e-06	-2.208054e-08	-2.800734e+01	-1.444382e+03
2.920000e-06	-3.954136e-06	-2.229292e-08	-2.849864e+01	-1.458079e+03
2.930000e-06	-4.020961e-06	-2.249406e-08	-2.898027e+01	-1.471109e+03
2.940000e-06	-4.086396e-06	-2.268429e-08	-2.945188e+01	-1.483516e+03
