# Temperatura_=_52.4
# Concentracion g/m^3_=_28200.0
# C_Vs_to_Am_M_A/Vsm_=_65563218390.804596
# pendiente_HvsI_1/m_=_3716.3
# ordenada_HvsI_A/m_=_1297.0
# frecuencia_Hz_=_301748.4117171586

Tiempo_(s)	Campo_(V.s)	Magnetizacion_(V.s)	Campo_(kA/m)	Magnetizacion_(A/m)
0.000000e+00	-5.316002e-06	-2.115402e-08	-3.829594e+01	-1.383265e+03
1.000000e-08	-5.313156e-06	-2.114589e-08	-3.827543e+01	-1.382888e+03
2.000000e-08	-5.308524e-06	-2.113518e-08	-3.824207e+01	-1.382383e+03
3.000000e-08	-5.302273e-06	-2.112608e-08	-3.819703e+01	-1.381737e+03
4.000000e-08	-5.294464e-06	-2.111383e-08	-3.814078e+01	-1.380930e+03
5.000000e-08	-5.284860e-06	-2.109533e-08	-3.807160e+01	-1.379940e+03
6.000000e-08	-5.273240e-06	-2.107092e-08	-3.798789e+01	-1.378748e+03
7.000000e-08	-5.259781e-06	-2.103506e-08	-3.789093e+01	-1.377344e+03
8.000000e-08	-5.244220e-06	-2.104557e-08	-3.777883e+01	-1.375733e+03
9.000000e-08	-5.226405e-06	-2.107037e-08	-3.765049e+01	-1.373933e+03
1.000000e-07	-5.206630e-06	-2.100855e-08	-3.750803e+01	-1.371973e+03
1.100000e-07	-5.184947e-06	-2.095484e-08	-3.735183e+01	-1.369892e+03
1.200000e-07	-5.161528e-06	-2.089765e-08	-3.718312e+01	-1.367724e+03
1.300000e-07	-5.136739e-06	-2.077255e-08	-3.700454e+01	-1.365497e+03
1.400000e-07	-5.110403e-06	-2.086043e-08	-3.681483e+01	-1.363226e+03
1.500000e-07	-5.082326e-06	-2.085869e-08	-3.661256e+01	-1.360907e+03
1.600000e-07	-5.052764e-06	-2.067306e-08	-3.639960e+01	-1.358517e+03
1.700000e-07	-5.021700e-06	-2.077534e-08	-3.617582e+01	-1.356023e+03
1.800000e-07	-4.988633e-06	-2.070351e-08	-3.593760e+01	-1.353381e+03
1.900000e-07	-4.953575e-06	-2.052447e-08	-3.568505e+01	-1.350545e+03
2.000000e-07	-4.917041e-06	-2.062565e-08	-3.542186e+01	-1.347479e+03
2.100000e-07	-4.878878e-06	-2.053808e-08	-3.514694e+01	-1.344154e+03
2.200000e-07	-4.838899e-06	-2.041180e-08	-3.485893e+01	-1.340555e+03
2.300000e-07	-4.796977e-06	-2.040927e-08	-3.455693e+01	-1.336681e+03
2.400000e-07	-4.753164e-06	-2.027270e-08	-3.424131e+01	-1.332540e+03
2.500000e-07	-4.707664e-06	-2.023437e-08	-3.391353e+01	-1.328146e+03
2.600000e-07	-4.660313e-06	-2.021807e-08	-3.357242e+01	-1.323515e+03
2.700000e-07	-4.611031e-06	-2.009618e-08	-3.321740e+01	-1.318657e+03
2.800000e-07	-4.559704e-06	-2.000711e-08	-3.284764e+01	-1.313578e+03
2.900000e-07	-4.506405e-06	-1.993266e-08	-3.246368e+01	-1.308276e+03
3.000000e-07	-4.451493e-06	-1.984754e-08	-3.206810e+01	-1.302744e+03
3.100000e-07	-4.395026e-06	-1.975325e-08	-3.166132e+01	-1.296971e+03
3.200000e-07	-4.336700e-06	-1.968589e-08	-3.124115e+01	-1.290944e+03
3.300000e-07	-4.276669e-06	-1.959296e-08	-3.080869e+01	-1.284651e+03
3.400000e-07	-4.215222e-06	-1.946179e-08	-3.036603e+01	-1.278086e+03
3.500000e-07	-4.152368e-06	-1.936180e-08	-2.991324e+01	-1.271243e+03
3.600000e-07	-4.088160e-06	-1.924633e-08	-2.945069e+01	-1.264122e+03
3.700000e-07	-4.022414e-06	-1.915078e-08	-2.897706e+01	-1.256720e+03
3.800000e-07	-3.955044e-06	-1.905170e-08	-2.849173e+01	-1.249035e+03
3.900000e-07	-3.886229e-06	-1.889738e-08	-2.799600e+01	-1.241063e+03
4.000000e-07	-3.816124e-06	-1.877212e-08	-2.749097e+01	-1.232796e+03
4.100000e-07	-3.744865e-06	-1.864564e-08	-2.697762e+01	-1.224220e+03
4.200000e-07	-3.672429e-06	-1.851061e-08	-2.645580e+01	-1.215320e+03
4.300000e-07	-3.598477e-06	-1.836789e-08	-2.592306e+01	-1.206079e+03
4.400000e-07	-3.522884e-06	-1.822284e-08	-2.537850e+01	-1.196479e+03
4.500000e-07	-3.445890e-06	-1.806583e-08	-2.482384e+01	-1.186505e+03
4.600000e-07	-3.367552e-06	-1.789778e-08	-2.425950e+01	-1.176143e+03
4.700000e-07	-3.287844e-06	-1.774659e-08	-2.368530e+01	-1.165380e+03
4.800000e-07	-3.206822e-06	-1.757966e-08	-2.310162e+01	-1.154204e+03
4.900000e-07	-3.124641e-06	-1.739843e-08	-2.250960e+01	-1.142604e+03
5.000000e-07	-3.041463e-06	-1.720784e-08	-2.191039e+01	-1.130565e+03
5.100000e-07	-2.957437e-06	-1.701340e-08	-2.130508e+01	-1.118069e+03
5.200000e-07	-2.872544e-06	-1.681293e-08	-2.069352e+01	-1.105092e+03
5.300000e-07	-2.786662e-06	-1.660582e-08	-2.007483e+01	-1.091608e+03
5.400000e-07	-2.699855e-06	-1.639594e-08	-1.944948e+01	-1.077583e+03
5.500000e-07	-2.612144e-06	-1.617639e-08	-1.881762e+01	-1.062983e+03
5.600000e-07	-2.523497e-06	-1.594055e-08	-1.817902e+01	-1.047771e+03
5.700000e-07	-2.433752e-06	-1.569644e-08	-1.753250e+01	-1.031908e+03
5.800000e-07	-2.342856e-06	-1.544971e-08	-1.687769e+01	-1.015359e+03
5.900000e-07	-2.251091e-06	-1.518842e-08	-1.621663e+01	-9.980878e+02
6.000000e-07	-2.158631e-06	-1.490624e-08	-1.555056e+01	-9.800591e+02
6.100000e-07	-2.065455e-06	-1.461170e-08	-1.487933e+01	-9.612369e+02
6.200000e-07	-1.971497e-06	-1.430925e-08	-1.420246e+01	-9.415820e+02
6.300000e-07	-1.876768e-06	-1.399444e-08	-1.352005e+01	-9.210504e+02
6.400000e-07	-1.781431e-06	-1.367008e-08	-1.283325e+01	-8.995908e+02
6.500000e-07	-1.685560e-06	-1.332989e-08	-1.214261e+01	-8.771434e+02
6.600000e-07	-1.589126e-06	-1.297071e-08	-1.144791e+01	-8.536391e+02
6.700000e-07	-1.492025e-06	-1.259201e-08	-1.074840e+01	-8.290000e+02
6.800000e-07	-1.394221e-06	-1.219387e-08	-1.004382e+01	-8.031413e+02
6.900000e-07	-1.295771e-06	-1.177790e-08	-9.334603e+00	-7.759748e+02
7.000000e-07	-1.196773e-06	-1.134054e-08	-8.621433e+00	-7.474132e+02
7.100000e-07	-1.097427e-06	-1.088086e-08	-7.905754e+00	-7.173762e+02
7.200000e-07	-9.977780e-07	-1.039854e-08	-7.187892e+00	-6.857972e+02
7.300000e-07	-8.978286e-07	-9.892991e-09	-6.467866e+00	-6.526308e+02
7.400000e-07	-7.976789e-07	-9.362685e-09	-5.746397e+00	-6.178602e+02
7.500000e-07	-6.973035e-07	-8.808924e-09	-5.023303e+00	-5.815034e+02
7.600000e-07	-5.966811e-07	-8.230676e-09	-4.298430e+00	-5.436185e+02
7.700000e-07	-4.958974e-07	-7.631537e-09	-3.572394e+00	-5.043055e+02
7.800000e-07	-3.949734e-07	-7.014231e-09	-2.845348e+00	-4.637048e+02
7.900000e-07	-2.939291e-07	-6.377565e-09	-2.117435e+00	-4.219921e+02
8.000000e-07	-1.927597e-07	-5.725748e-09	-1.388621e+00	-3.793669e+02
8.100000e-07	-9.148062e-08	-5.064037e-09	-6.590171e-01	-3.360391e+02
8.200000e-07	9.874848e-09	-4.399199e-09	7.113740e-02	-2.922103e+02
8.300000e-07	1.112915e-07	-3.732066e-09	8.017330e-01	-2.480549e+02
8.400000e-07	2.127011e-07	-3.062305e-09	1.532277e+00	-2.037021e+02
8.500000e-07	3.140195e-07	-2.389524e-09	2.262165e+00	-1.592216e+02
8.600000e-07	4.151880e-07	-1.711986e-09	2.990972e+00	-1.146154e+02
8.700000e-07	5.162383e-07	-1.029802e-09	3.718928e+00	-6.981913e+01
8.800000e-07	6.171692e-07	-3.416387e-10	4.446024e+00	-2.471197e+01
8.900000e-07	7.179376e-07	3.540427e-10	5.171950e+00	2.086330e+01
9.000000e-07	8.184732e-07	1.057936e-09	5.896198e+00	6.707323e+01
9.100000e-07	9.188003e-07	1.769722e-09	6.618944e+00	1.140622e+02
9.200000e-07	1.018910e-06	2.494084e-09	7.340122e+00	1.619212e+02
9.300000e-07	1.118633e-06	3.233318e-09	8.058518e+00	2.106604e+02
9.400000e-07	1.217957e-06	3.986694e-09	8.774039e+00	2.601919e+02
9.500000e-07	1.316824e-06	4.751013e-09	9.486266e+00	3.103230e+02
9.600000e-07	1.415043e-06	5.522036e-09	1.019382e+01	3.607635e+02
9.700000e-07	1.512603e-06	6.292548e-09	1.089664e+01	4.111452e+02
9.800000e-07	1.609485e-06	7.051609e-09	1.159457e+01	4.610521e+02
9.900000e-07	1.705643e-06	7.794384e-09	1.228728e+01	5.100551e+02
1.000000e-06	1.801143e-06	8.518253e-09	1.297525e+01	5.577488e+02
1.010000e-06	1.896064e-06	9.216989e-09	1.365905e+01	6.037828e+02
1.020000e-06	1.990321e-06	9.883402e-09	1.433807e+01	6.478855e+02
1.030000e-06	2.083816e-06	1.051738e-08	1.501160e+01	6.898762e+02
1.040000e-06	2.176648e-06	1.111883e-08	1.568035e+01	7.296660e+02
1.050000e-06	2.268825e-06	1.168754e-08	1.634438e+01	7.672481e+02
1.060000e-06	2.360335e-06	1.222584e-08	1.700362e+01	8.026807e+02
1.070000e-06	2.451029e-06	1.273398e-08	1.765696e+01	8.360656e+02
1.080000e-06	2.540671e-06	1.321196e-08	1.830274e+01	8.675280e+02
1.090000e-06	2.629161e-06	1.366209e-08	1.894021e+01	8.971983e+02
1.100000e-06	2.716606e-06	1.408653e-08	1.957015e+01	9.252003e+02
1.110000e-06	2.803256e-06	1.448416e-08	2.019437e+01	9.516450e+02
1.120000e-06	2.889032e-06	1.486164e-08	2.081230e+01	9.766299e+02
1.130000e-06	2.973900e-06	1.522051e-08	2.142368e+01	1.000242e+03
1.140000e-06	3.057941e-06	1.556021e-08	2.202909e+01	1.022561e+03
1.150000e-06	3.141012e-06	1.588031e-08	2.262753e+01	1.043665e+03
1.160000e-06	3.222876e-06	1.618263e-08	2.321727e+01	1.063634e+03
1.170000e-06	3.303430e-06	1.646956e-08	2.379758e+01	1.082544e+03
1.180000e-06	3.382810e-06	1.674028e-08	2.436942e+01	1.100471e+03
1.190000e-06	3.461102e-06	1.699857e-08	2.493343e+01	1.117487e+03
1.200000e-06	3.538264e-06	1.724547e-08	2.548929e+01	1.133653e+03
1.210000e-06	3.614179e-06	1.747862e-08	2.603618e+01	1.149022e+03
1.220000e-06	3.688593e-06	1.769901e-08	2.657225e+01	1.163636e+03
1.230000e-06	3.761347e-06	1.790809e-08	2.709636e+01	1.177530e+03
1.240000e-06	3.832581e-06	1.810589e-08	2.760952e+01	1.190737e+03
1.250000e-06	3.902432e-06	1.829577e-08	2.811273e+01	1.203286e+03
1.260000e-06	3.971014e-06	1.847698e-08	2.860678e+01	1.215209e+03
1.270000e-06	4.038293e-06	1.864911e-08	2.909145e+01	1.226538e+03
1.280000e-06	4.103973e-06	1.881208e-08	2.956460e+01	1.237310e+03
1.290000e-06	4.168010e-06	1.896830e-08	3.002592e+01	1.247555e+03
1.300000e-06	4.230611e-06	1.911727e-08	3.047689e+01	1.257303e+03
1.310000e-06	4.291882e-06	1.925870e-08	3.091828e+01	1.266573e+03
1.320000e-06	4.351822e-06	1.939474e-08	3.135008e+01	1.275378e+03
1.330000e-06	4.410163e-06	1.952459e-08	3.177036e+01	1.283724e+03
1.340000e-06	4.466730e-06	1.964592e-08	3.217787e+01	1.291612e+03
1.350000e-06	4.521610e-06	1.975821e-08	3.257322e+01	1.299045e+03
1.360000e-06	4.574835e-06	1.986346e-08	3.295664e+01	1.306033e+03
1.370000e-06	4.626206e-06	1.996273e-08	3.332672e+01	1.312596e+03
1.380000e-06	4.675528e-06	2.005597e-08	3.368203e+01	1.318763e+03
1.390000e-06	4.723067e-06	2.014382e-08	3.402450e+01	1.324574e+03
1.400000e-06	4.769024e-06	2.022787e-08	3.435556e+01	1.330073e+03
1.410000e-06	4.813468e-06	2.030743e-08	3.467573e+01	1.335303e+03
1.420000e-06	4.856221e-06	2.038280e-08	3.498373e+01	1.340299e+03
1.430000e-06	4.897086e-06	2.045525e-08	3.527811e+01	1.345082e+03
1.440000e-06	4.936276e-06	2.052440e-08	3.556043e+01	1.349657e+03
1.450000e-06	4.973874e-06	2.059014e-08	3.583128e+01	1.354015e+03
1.460000e-06	5.009864e-06	2.065207e-08	3.609055e+01	1.358133e+03
1.470000e-06	5.043968e-06	2.070998e-08	3.633623e+01	1.361984e+03
1.480000e-06	5.076120e-06	2.076368e-08	3.656785e+01	1.365544e+03
1.490000e-06	5.106585e-06	2.081130e-08	3.678732e+01	1.368797e+03
1.500000e-06	5.135435e-06	2.085350e-08	3.699515e+01	1.371739e+03
1.510000e-06	5.162488e-06	2.089325e-08	3.719004e+01	1.374379e+03
1.520000e-06	5.187418e-06	2.093042e-08	3.736963e+01	1.376741e+03
1.530000e-06	5.210371e-06	2.096352e-08	3.753499e+01	1.378851e+03
1.540000e-06	5.231629e-06	2.099232e-08	3.768812e+01	1.380737e+03
1.550000e-06	5.251195e-06	2.101731e-08	3.782908e+01	1.382424e+03
1.560000e-06	5.268908e-06	2.103866e-08	3.795668e+01	1.383925e+03
1.570000e-06	5.284613e-06	2.105507e-08	3.806982e+01	1.385244e+03
1.580000e-06	5.298363e-06	2.106836e-08	3.816886e+01	1.386377e+03
1.590000e-06	5.310078e-06	2.108148e-08	3.825326e+01	1.387317e+03
1.600000e-06	5.319613e-06	2.109465e-08	3.832195e+01	1.388055e+03
1.610000e-06	5.327136e-06	2.110697e-08	3.837615e+01	1.388591e+03
1.620000e-06	5.332861e-06	2.111505e-08	3.841738e+01	1.388929e+03
1.630000e-06	5.336809e-06	2.111773e-08	3.844583e+01	1.389082e+03
1.640000e-06	5.338772e-06	2.111964e-08	3.845997e+01	1.389070e+03
1.650000e-06	5.338776e-06	2.111795e-08	3.846000e+01	1.388910e+03
1.660000e-06	5.337053e-06	2.110922e-08	3.844759e+01	1.388619e+03
1.670000e-06	5.333726e-06	2.110375e-08	3.842362e+01	1.388200e+03
1.680000e-06	5.328672e-06	2.109714e-08	3.838721e+01	1.387650e+03
1.690000e-06	5.321717e-06	2.108814e-08	3.833711e+01	1.386954e+03
1.700000e-06	5.313081e-06	2.107669e-08	3.827489e+01	1.386089e+03
1.710000e-06	5.302857e-06	2.106586e-08	3.820124e+01	1.385035e+03
1.720000e-06	5.290807e-06	2.107027e-08	3.811444e+01	1.383774e+03
1.730000e-06	5.276766e-06	2.102211e-08	3.801329e+01	1.382301e+03
1.740000e-06	5.260763e-06	2.092746e-08	3.789800e+01	1.380626e+03
1.750000e-06	5.242476e-06	2.092830e-08	3.776626e+01	1.378769e+03
1.760000e-06	5.221491e-06	2.091904e-08	3.761509e+01	1.376765e+03
1.770000e-06	5.198274e-06	2.094729e-08	3.744784e+01	1.374651e+03
1.780000e-06	5.173784e-06	2.097646e-08	3.727141e+01	1.372461e+03
1.790000e-06	5.148563e-06	2.076101e-08	3.708972e+01	1.370218e+03
1.800000e-06	5.121986e-06	2.079159e-08	3.689827e+01	1.367932e+03
1.810000e-06	5.093266e-06	2.084646e-08	3.669137e+01	1.365592e+03
1.820000e-06	5.062710e-06	2.064010e-08	3.647125e+01	1.363172e+03
1.830000e-06	5.030450e-06	2.077252e-08	3.623885e+01	1.360634e+03
1.840000e-06	4.996349e-06	2.078640e-08	3.599319e+01	1.357933e+03
1.850000e-06	4.960701e-06	2.056493e-08	3.573638e+01	1.355026e+03
1.860000e-06	4.923207e-06	2.066715e-08	3.546628e+01	1.351878e+03
1.870000e-06	4.883776e-06	2.059219e-08	3.518223e+01	1.348464e+03
1.880000e-06	4.842756e-06	2.050385e-08	3.488672e+01	1.344775e+03
1.890000e-06	4.799980e-06	2.055608e-08	3.457857e+01	1.340813e+03
1.900000e-06	4.755567e-06	2.033116e-08	3.425862e+01	1.336588e+03
1.910000e-06	4.709367e-06	2.033639e-08	3.392580e+01	1.332115e+03
1.920000e-06	4.661250e-06	2.033978e-08	3.357917e+01	1.327409e+03
1.930000e-06	4.611548e-06	2.017660e-08	3.322112e+01	1.322479e+03
1.940000e-06	4.559983e-06	2.016301e-08	3.284965e+01	1.317328e+03
1.950000e-06	4.506277e-06	2.005261e-08	3.246276e+01	1.311952e+03
1.960000e-06	4.450765e-06	1.998904e-08	3.206286e+01	1.306343e+03
1.970000e-06	4.393675e-06	1.986683e-08	3.165159e+01	1.300488e+03
1.980000e-06	4.335035e-06	1.972303e-08	3.122915e+01	1.294375e+03
1.990000e-06	4.274967e-06	1.972496e-08	3.079643e+01	1.287995e+03
2.000000e-06	4.213383e-06	1.959000e-08	3.035278e+01	1.281340e+03
2.010000e-06	4.150139e-06	1.949124e-08	2.989718e+01	1.274406e+03
2.020000e-06	4.085353e-06	1.935883e-08	2.943047e+01	1.267193e+03
2.030000e-06	4.019218e-06	1.923493e-08	2.895404e+01	1.259700e+03
2.040000e-06	3.951715e-06	1.917891e-08	2.846775e+01	1.251922e+03
2.050000e-06	3.882747e-06	1.900494e-08	2.797092e+01	1.243855e+03
2.060000e-06	3.812181e-06	1.890609e-08	2.746257e+01	1.235489e+03
2.070000e-06	3.740258e-06	1.877339e-08	2.694444e+01	1.226810e+03
2.080000e-06	3.667147e-06	1.861439e-08	2.641775e+01	1.217801e+03
2.090000e-06	3.592682e-06	1.847996e-08	2.588131e+01	1.208445e+03
2.100000e-06	3.516853e-06	1.832660e-08	2.533505e+01	1.198726e+03
2.110000e-06	3.439467e-06	1.820113e-08	2.477757e+01	1.188628e+03
2.120000e-06	3.360611e-06	1.801845e-08	2.420950e+01	1.178137e+03
2.130000e-06	3.280622e-06	1.785700e-08	2.363327e+01	1.167241e+03
2.140000e-06	3.199534e-06	1.768816e-08	2.304912e+01	1.155929e+03
2.150000e-06	3.117320e-06	1.750600e-08	2.245686e+01	1.144189e+03
2.160000e-06	3.034070e-06	1.733092e-08	2.185713e+01	1.132004e+03
2.170000e-06	2.949850e-06	1.713732e-08	2.125042e+01	1.119355e+03
2.180000e-06	2.864504e-06	1.694688e-08	2.063560e+01	1.106217e+03
2.190000e-06	2.777886e-06	1.672588e-08	2.001161e+01	1.092562e+03
2.200000e-06	2.690154e-06	1.650879e-08	1.937960e+01	1.078355e+03
2.210000e-06	2.601551e-06	1.628967e-08	1.874131e+01	1.063561e+03
2.220000e-06	2.512080e-06	1.605409e-08	1.809677e+01	1.048142e+03
2.230000e-06	2.421725e-06	1.580092e-08	1.744586e+01	1.032062e+03
2.240000e-06	2.330617e-06	1.554471e-08	1.678953e+01	1.015283e+03
2.250000e-06	2.238804e-06	1.529294e-08	1.612812e+01	9.977714e+02
2.260000e-06	2.146204e-06	1.501823e-08	1.546103e+01	9.794906e+02
2.270000e-06	2.052670e-06	1.472863e-08	1.478722e+01	9.604040e+02
2.280000e-06	1.958132e-06	1.442363e-08	1.410619e+01	9.404713e+02
2.290000e-06	1.862771e-06	1.410288e-08	1.341921e+01	9.196463e+02
2.300000e-06	1.766834e-06	1.376827e-08	1.272809e+01	8.978750e+02
2.310000e-06	1.670394e-06	1.342251e-08	1.203335e+01	8.750948e+02
2.320000e-06	1.573453e-06	1.306575e-08	1.133500e+01	8.512334e+02
2.330000e-06	1.476016e-06	1.268811e-08	1.063307e+01	8.262107e+02
2.340000e-06	1.378065e-06	1.228704e-08	9.927441e+00	7.999402e+02
2.350000e-06	1.279672e-06	1.186386e-08	9.218625e+00	7.723335e+02
2.360000e-06	1.180941e-06	1.142224e-08	8.507377e+00	7.433047e+02
2.370000e-06	1.081923e-06	1.096103e-08	7.794063e+00	7.127773e+02
2.380000e-06	9.826352e-07	1.047566e-08	7.078804e+00	6.806907e+02
2.390000e-06	8.830830e-07	9.962046e-09	6.361640e+00	6.470078e+02
2.400000e-06	7.832380e-07	9.420665e-09	5.642367e+00	6.117224e+02
2.410000e-06	6.831002e-07	8.856370e-09	4.920985e+00	5.748650e+02
2.420000e-06	5.827415e-07	8.268555e-09	4.198010e+00	5.365070e+02
2.430000e-06	4.822224e-07	7.660890e-09	3.473881e+00	4.967618e+02
2.440000e-06	3.815765e-07	7.038239e-09	2.748838e+00	4.557820e+02
2.450000e-06	2.807522e-07	6.399484e-09	2.022510e+00	4.137522e+02
2.460000e-06	1.797265e-07	5.743699e-09	1.294731e+00	3.708772e+02
2.470000e-06	7.856231e-08	5.076431e-09	5.659549e-01	3.273662e+02
2.480000e-06	-2.267971e-08	4.403185e-09	-1.633823e-01	2.834140e+02
2.490000e-06	-1.239436e-07	3.724126e-09	-8.928769e-01	2.391826e+02
2.500000e-06	-2.251915e-07	3.040829e-09	-1.622256e+00	1.947832e+02
2.510000e-06	-3.263496e-07	2.356546e-09	-2.350990e+00	1.502643e+02
2.520000e-06	-4.273170e-07	1.672407e-09	-3.078348e+00	1.056059e+02
2.530000e-06	-5.280969e-07	9.871245e-10	-3.804357e+00	6.072393e+01
2.540000e-06	-6.287361e-07	2.962471e-10	-4.529351e+00	1.548338e+01
2.550000e-06	-7.291004e-07	-4.042010e-10	-5.252365e+00	-3.027927e+01
2.560000e-06	-8.291052e-07	-1.116332e-09	-5.972789e+00	-7.672697e+01
2.570000e-06	-9.287930e-07	-1.841234e-09	-6.690931e+00	-1.239902e+02
2.580000e-06	-1.028163e-06	-2.576567e-09	-7.406783e+00	-1.721366e+02
2.590000e-06	-1.127252e-06	-3.323911e-09	-8.120606e+00	-2.211462e+02
2.600000e-06	-1.226034e-06	-4.084003e-09	-8.832225e+00	-2.708976e+02
2.610000e-06	-1.324390e-06	-4.851768e-09	-9.540768e+00	-3.211651e+02
2.620000e-06	-1.422216e-06	-5.623563e-09	-1.024550e+01	-3.716309e+02
2.630000e-06	-1.519491e-06	-6.393940e-09	-1.094626e+01	-4.219079e+02
2.640000e-06	-1.616259e-06	-7.154383e-09	-1.164336e+01	-4.715718e+02
2.650000e-06	-1.712575e-06	-7.898097e-09	-1.233722e+01	-5.201972e+02
2.660000e-06	-1.808413e-06	-8.621220e-09	-1.302762e+01	-5.673934e+02
2.670000e-06	-1.903658e-06	-9.320284e-09	-1.371376e+01	-6.128331e+02
2.680000e-06	-1.998152e-06	-9.988060e-09	-1.439449e+01	-6.562733e+02
2.690000e-06	-2.091737e-06	-1.062197e-08	-1.506866e+01	-6.975631e+02
2.700000e-06	-2.184408e-06	-1.122283e-08	-1.573625e+01	-7.366417e+02
2.710000e-06	-2.276209e-06	-1.179068e-08	-1.639758e+01	-7.735252e+02
2.720000e-06	-2.367169e-06	-1.232473e-08	-1.705285e+01	-8.082880e+02
2.730000e-06	-2.457317e-06	-1.282528e-08	-1.770226e+01	-8.410419e+02
2.740000e-06	-2.546590e-06	-1.329854e-08	-1.834537e+01	-8.719153e+02
2.750000e-06	-2.635035e-06	-1.374624e-08	-1.898253e+01	-9.010375e+02
2.760000e-06	-2.722664e-06	-1.416764e-08	-1.961379e+01	-9.285287e+02
2.770000e-06	-2.809350e-06	-1.456723e-08	-2.023827e+01	-9.544953e+02
2.780000e-06	-2.894985e-06	-1.494665e-08	-2.085518e+01	-9.790309e+02
2.790000e-06	-2.979447e-06	-1.530187e-08	-2.146363e+01	-1.002220e+03
2.800000e-06	-3.062845e-06	-1.563579e-08	-2.206443e+01	-1.024141e+03
2.810000e-06	-3.145306e-06	-1.595323e-08	-2.265846e+01	-1.044873e+03
2.820000e-06	-3.226753e-06	-1.625490e-08	-2.324520e+01	-1.064494e+03
2.830000e-06	-3.307160e-06	-1.654091e-08	-2.382445e+01	-1.083081e+03
2.840000e-06	-3.386431e-06	-1.681001e-08	-2.439550e+01	-1.100710e+03
2.850000e-06	-3.464304e-06	-1.706588e-08	-2.495649e+01	-1.117447e+03
2.860000e-06	-3.540639e-06	-1.731120e-08	-2.550641e+01	-1.133352e+03
2.870000e-06	-3.615555e-06	-1.754528e-08	-2.604609e+01	-1.148475e+03
2.880000e-06	-3.689141e-06	-1.776985e-08	-2.657620e+01	-1.162856e+03
2.890000e-06	-3.761441e-06	-1.798326e-08	-2.709704e+01	-1.176527e+03
2.900000e-06	-3.832429e-06	-1.818375e-08	-2.760843e+01	-1.189520e+03
2.910000e-06	-3.901886e-06	-1.837199e-08	-2.810879e+01	-1.201866e+03
2.920000e-06	-3.969778e-06	-1.854911e-08	-2.859787e+01	-1.213595e+03
2.930000e-06	-4.036294e-06	-1.871809e-08	-2.907705e+01	-1.224743e+03
2.940000e-06	-4.101484e-06	-1.887939e-08	-2.954667e+01	-1.235343e+03
