# Temperatura_=_80.1
# Concentracion g/m^3_=_28200.0
# C_Vs_to_Am_M_A/Vsm_=_65563218390.804596
# pendiente_HvsI_1/m_=_3716.3
# ordenada_HvsI_A/m_=_1297.0
# frecuencia_Hz_=_301745.223371448

Tiempo_(s)	Campo_(V.s)	Magnetizacion_(V.s)	Campo_(kA/m)	Magnetizacion_(A/m)
0.000000e+00	-5.302222e-06	-2.567001e-08	-3.829960e+01	-1.679912e+03
1.000000e-08	-5.299833e-06	-2.566479e-08	-3.828234e+01	-1.679459e+03
2.000000e-08	-5.295602e-06	-2.565164e-08	-3.825178e+01	-1.678813e+03
3.000000e-08	-5.289776e-06	-2.563690e-08	-3.820970e+01	-1.677972e+03
4.000000e-08	-5.282419e-06	-2.562042e-08	-3.815655e+01	-1.676926e+03
5.000000e-08	-5.273358e-06	-2.559823e-08	-3.809110e+01	-1.675662e+03
6.000000e-08	-5.262296e-06	-2.557098e-08	-3.801120e+01	-1.674169e+03
7.000000e-08	-5.249344e-06	-2.553069e-08	-3.791765e+01	-1.672441e+03
8.000000e-08	-5.234435e-06	-2.550896e-08	-3.780995e+01	-1.670480e+03
9.000000e-08	-5.217270e-06	-2.554756e-08	-3.768596e+01	-1.668300e+03
1.000000e-07	-5.197961e-06	-2.551752e-08	-3.754649e+01	-1.665925e+03
1.100000e-07	-5.176772e-06	-2.543134e-08	-3.739343e+01	-1.663389e+03
1.200000e-07	-5.153832e-06	-2.537468e-08	-3.722773e+01	-1.660726e+03
1.300000e-07	-5.129380e-06	-2.523601e-08	-3.705110e+01	-1.657967e+03
1.400000e-07	-5.103441e-06	-2.522357e-08	-3.686374e+01	-1.655134e+03
1.500000e-07	-5.075813e-06	-2.532710e-08	-3.666418e+01	-1.652229e+03
1.600000e-07	-5.046630e-06	-2.513538e-08	-3.645338e+01	-1.649238e+03
1.700000e-07	-5.016062e-06	-2.511489e-08	-3.623257e+01	-1.646129e+03
1.800000e-07	-4.983651e-06	-2.516896e-08	-3.599846e+01	-1.642854e+03
1.900000e-07	-4.949160e-06	-2.492018e-08	-3.574932e+01	-1.639360e+03
2.000000e-07	-4.913119e-06	-2.492632e-08	-3.548899e+01	-1.635596e+03
2.100000e-07	-4.875535e-06	-2.493406e-08	-3.521750e+01	-1.631518e+03
2.200000e-07	-4.836149e-06	-2.474286e-08	-3.493300e+01	-1.627095e+03
2.300000e-07	-4.794937e-06	-2.472408e-08	-3.463532e+01	-1.622317e+03
2.400000e-07	-4.751764e-06	-2.464828e-08	-3.432347e+01	-1.617184e+03
2.500000e-07	-4.706763e-06	-2.453140e-08	-3.399841e+01	-1.611715e+03
2.600000e-07	-4.660003e-06	-2.450922e-08	-3.366065e+01	-1.605928e+03
2.700000e-07	-4.611442e-06	-2.435035e-08	-3.330988e+01	-1.599848e+03
2.800000e-07	-4.560858e-06	-2.422170e-08	-3.294450e+01	-1.593489e+03
2.900000e-07	-4.508170e-06	-2.415977e-08	-3.256391e+01	-1.586860e+03
3.000000e-07	-4.453729e-06	-2.406710e-08	-3.217067e+01	-1.579957e+03
3.100000e-07	-4.397746e-06	-2.396221e-08	-3.176629e+01	-1.572771e+03
3.200000e-07	-4.339971e-06	-2.385121e-08	-3.134896e+01	-1.565286e+03
3.300000e-07	-4.280445e-06	-2.372737e-08	-3.091898e+01	-1.557488e+03
3.400000e-07	-4.219515e-06	-2.356272e-08	-3.047887e+01	-1.549364e+03
3.500000e-07	-4.157131e-06	-2.344255e-08	-3.002825e+01	-1.540906e+03
3.600000e-07	-4.093410e-06	-2.332923e-08	-2.956797e+01	-1.532111e+03
3.700000e-07	-4.028306e-06	-2.319888e-08	-2.909770e+01	-1.522981e+03
3.800000e-07	-3.961545e-06	-2.307020e-08	-2.861547e+01	-1.513517e+03
3.900000e-07	-3.893230e-06	-2.288136e-08	-2.812201e+01	-1.503715e+03
4.000000e-07	-3.823653e-06	-2.270961e-08	-2.761943e+01	-1.493569e+03
4.100000e-07	-3.752864e-06	-2.257506e-08	-2.710810e+01	-1.483065e+03
4.200000e-07	-3.680903e-06	-2.241728e-08	-2.658830e+01	-1.472183e+03
4.300000e-07	-3.607639e-06	-2.224598e-08	-2.605910e+01	-1.460901e+03
4.400000e-07	-3.532711e-06	-2.206133e-08	-2.551787e+01	-1.449194e+03
4.500000e-07	-3.456232e-06	-2.186747e-08	-2.496544e+01	-1.437042e+03
4.600000e-07	-3.378456e-06	-2.166674e-08	-2.440364e+01	-1.424428e+03
4.700000e-07	-3.299397e-06	-2.147745e-08	-2.383257e+01	-1.411339e+03
4.800000e-07	-3.219032e-06	-2.128709e-08	-2.325207e+01	-1.397767e+03
4.900000e-07	-3.137421e-06	-2.106868e-08	-2.266256e+01	-1.383701e+03
5.000000e-07	-3.054713e-06	-2.084161e-08	-2.206514e+01	-1.369129e+03
5.100000e-07	-2.971079e-06	-2.060306e-08	-2.146102e+01	-1.354030e+03
5.200000e-07	-2.886650e-06	-2.035924e-08	-2.085117e+01	-1.338379e+03
5.300000e-07	-2.801302e-06	-2.011016e-08	-2.023467e+01	-1.322140e+03
5.400000e-07	-2.714934e-06	-1.985364e-08	-1.961081e+01	-1.305272e+03
5.500000e-07	-2.627651e-06	-1.959130e-08	-1.898034e+01	-1.287731e+03
5.600000e-07	-2.539532e-06	-1.930928e-08	-1.834383e+01	-1.269476e+03
5.700000e-07	-2.450414e-06	-1.901704e-08	-1.770010e+01	-1.250466e+03
5.800000e-07	-2.360076e-06	-1.871630e-08	-1.704756e+01	-1.230665e+03
5.900000e-07	-2.268726e-06	-1.840276e-08	-1.638771e+01	-1.210042e+03
6.000000e-07	-2.176653e-06	-1.807093e-08	-1.572264e+01	-1.188564e+03
6.100000e-07	-2.083866e-06	-1.772883e-08	-1.505241e+01	-1.166192e+03
6.200000e-07	-1.990307e-06	-1.737667e-08	-1.437660e+01	-1.142881e+03
6.300000e-07	-1.895987e-06	-1.700361e-08	-1.369531e+01	-1.118572e+03
6.400000e-07	-1.800987e-06	-1.661327e-08	-1.300909e+01	-1.093192e+03
6.500000e-07	-1.705435e-06	-1.620565e-08	-1.231889e+01	-1.066655e+03
6.600000e-07	-1.609380e-06	-1.578050e-08	-1.162505e+01	-1.038864e+03
6.700000e-07	-1.512756e-06	-1.533716e-08	-1.092711e+01	-1.009713e+03
6.800000e-07	-1.415522e-06	-1.487493e-08	-1.022476e+01	-9.790964e+02
6.900000e-07	-1.317621e-06	-1.438752e-08	-9.517583e+00	-9.469066e+02
7.000000e-07	-1.219072e-06	-1.387039e-08	-8.805736e+00	-9.130429e+02
7.100000e-07	-1.120039e-06	-1.332292e-08	-8.090389e+00	-8.774126e+02
7.200000e-07	-1.020653e-06	-1.274775e-08	-7.372493e+00	-8.399341e+02
7.300000e-07	-9.209734e-07	-1.214772e-08	-6.652477e+00	-8.005412e+02
7.400000e-07	-8.210400e-07	-1.151910e-08	-5.930627e+00	-7.591886e+02
7.500000e-07	-7.209126e-07	-1.086054e-08	-5.207376e+00	-7.158593e+02
7.600000e-07	-6.205832e-07	-1.016694e-08	-4.482665e+00	-6.705736e+02
7.700000e-07	-5.200590e-07	-9.442068e-09	-3.756548e+00	-6.233968e+02
7.800000e-07	-4.194088e-07	-8.694815e-09	-3.029520e+00	-5.744458e+02
7.900000e-07	-3.186404e-07	-7.926923e-09	-2.301638e+00	-5.238899e+02
8.000000e-07	-2.177632e-07	-7.138806e-09	-1.572971e+00	-4.719449e+02
8.100000e-07	-1.167798e-07	-6.333865e-09	-8.435371e-01	-4.188587e+02
8.200000e-07	-1.567608e-08	-5.513920e-09	-1.132332e-01	-3.648892e+02
8.300000e-07	8.543305e-08	-4.681596e-09	6.171094e-01	-3.102772e+02
8.400000e-07	1.864991e-07	-3.842094e-09	1.347141e+00	-2.552174e+02
8.500000e-07	2.875099e-07	-2.999924e-09	2.076773e+00	-1.998326e+02
8.600000e-07	3.884178e-07	-2.156684e-09	2.805662e+00	-1.441577e+02
8.700000e-07	4.892533e-07	-1.307037e-09	3.534028e+00	-8.813539e+01
8.800000e-07	5.900072e-07	-4.492071e-10	4.261805e+00	-3.162898e+01
8.900000e-07	6.905864e-07	4.219550e-10	4.988320e+00	2.555104e+01
9.000000e-07	7.908872e-07	1.307306e-09	5.712824e+00	8.360722e+01
9.100000e-07	8.909356e-07	2.206613e-09	6.435504e+00	1.427092e+02
9.200000e-07	9.908164e-07	3.121634e-09	7.156975e+00	2.029482e+02
9.300000e-07	1.090492e-06	4.053932e-09	7.876963e+00	2.642994e+02
9.400000e-07	1.189831e-06	5.004081e-09	8.594522e+00	3.265993e+02
9.500000e-07	1.288650e-06	5.964623e-09	9.308318e+00	3.895417e+02
9.600000e-07	1.386776e-06	6.927506e-09	1.001712e+01	4.526932e+02
9.700000e-07	1.484114e-06	7.884217e-09	1.072022e+01	5.155276e+02
9.800000e-07	1.580789e-06	8.826808e-09	1.141853e+01	5.774712e+02
9.900000e-07	1.676916e-06	9.745634e-09	1.211289e+01	6.379554e+02
1.000000e-06	1.772405e-06	1.063550e-08	1.280263e+01	6.964655e+02
1.010000e-06	1.867241e-06	1.148926e-08	1.348766e+01	7.525815e+02
1.020000e-06	1.961467e-06	1.230075e-08	1.416829e+01	8.060036e+02
1.030000e-06	2.055008e-06	1.306767e-08	1.484396e+01	8.565612e+02
1.040000e-06	2.147812e-06	1.378861e-08	1.551432e+01	9.042066e+02
1.050000e-06	2.239977e-06	1.446742e-08	1.618005e+01	9.489942e+02
1.060000e-06	2.331550e-06	1.510359e-08	1.684151e+01	9.910532e+02
1.070000e-06	2.422207e-06	1.570071e-08	1.749636e+01	1.030557e+03
1.080000e-06	2.511652e-06	1.626434e-08	1.814244e+01	1.067695e+03
1.090000e-06	2.600063e-06	1.679772e-08	1.878106e+01	1.102653e+03
1.100000e-06	2.687631e-06	1.729963e-08	1.941359e+01	1.135598e+03
1.110000e-06	2.774323e-06	1.777264e-08	2.003980e+01	1.166674e+03
1.120000e-06	2.860078e-06	1.821914e-08	2.065924e+01	1.196006e+03
1.130000e-06	2.944942e-06	1.863979e-08	2.127223e+01	1.223701e+03
1.140000e-06	3.028995e-06	1.903617e-08	2.187937e+01	1.249861e+03
1.150000e-06	3.112133e-06	1.940993e-08	2.247990e+01	1.274584e+03
1.160000e-06	3.194066e-06	1.976553e-08	2.307173e+01	1.297967e+03
1.170000e-06	3.274742e-06	2.010346e-08	2.365448e+01	1.320106e+03
1.180000e-06	3.354214e-06	2.042479e-08	2.422853e+01	1.341095e+03
1.190000e-06	3.432460e-06	2.072920e-08	2.479373e+01	1.361018e+03
1.200000e-06	3.509543e-06	2.101608e-08	2.535052e+01	1.379951e+03
1.210000e-06	3.585474e-06	2.128791e-08	2.589899e+01	1.397955e+03
1.220000e-06	3.659925e-06	2.154750e-08	2.643678e+01	1.415080e+03
1.230000e-06	3.732756e-06	2.179444e-08	2.696285e+01	1.431369e+03
1.240000e-06	3.804218e-06	2.202899e-08	2.747905e+01	1.446858e+03
1.250000e-06	3.874350e-06	2.225210e-08	2.798563e+01	1.461585e+03
1.260000e-06	3.943097e-06	2.246419e-08	2.848221e+01	1.475587e+03
1.270000e-06	4.010512e-06	2.266499e-08	2.896917e+01	1.488909e+03
1.280000e-06	4.076397e-06	2.285571e-08	2.944508e+01	1.501594e+03
1.290000e-06	4.140697e-06	2.303929e-08	2.990954e+01	1.513689e+03
1.300000e-06	4.203516e-06	2.321655e-08	3.036330e+01	1.525233e+03
1.310000e-06	4.264917e-06	2.338537e-08	3.080682e+01	1.536256e+03
1.320000e-06	4.325041e-06	2.354646e-08	3.124111e+01	1.546780e+03
1.330000e-06	4.383633e-06	2.370105e-08	3.166434e+01	1.556815e+03
1.340000e-06	4.440442e-06	2.384791e-08	3.207469e+01	1.566360e+03
1.350000e-06	4.495560e-06	2.398674e-08	3.247283e+01	1.575413e+03
1.360000e-06	4.549103e-06	2.411859e-08	3.285958e+01	1.583971e+03
1.370000e-06	4.600853e-06	2.424246e-08	3.323339e+01	1.592037e+03
1.380000e-06	4.650525e-06	2.435620e-08	3.359218e+01	1.599626e+03
1.390000e-06	4.698338e-06	2.446215e-08	3.393755e+01	1.606761e+03
1.400000e-06	4.744549e-06	2.456381e-08	3.427135e+01	1.613475e+03
1.410000e-06	4.789251e-06	2.466098e-08	3.459425e+01	1.619809e+03
1.420000e-06	4.832407e-06	2.475275e-08	3.490598e+01	1.625803e+03
1.430000e-06	4.873674e-06	2.483921e-08	3.520406e+01	1.631491e+03
1.440000e-06	4.913105e-06	2.492131e-08	3.548889e+01	1.636899e+03
1.450000e-06	4.950921e-06	2.499864e-08	3.576204e+01	1.642038e+03
1.460000e-06	4.987188e-06	2.507142e-08	3.602401e+01	1.646911e+03
1.470000e-06	5.021713e-06	2.514111e-08	3.627340e+01	1.651506e+03
1.480000e-06	5.054269e-06	2.520786e-08	3.650855e+01	1.655809e+03
1.490000e-06	5.085054e-06	2.526934e-08	3.673092e+01	1.659803e+03
1.500000e-06	5.114233e-06	2.532432e-08	3.694170e+01	1.663477e+03
1.510000e-06	5.141754e-06	2.537494e-08	3.714049e+01	1.666827e+03
1.520000e-06	5.167269e-06	2.542192e-08	3.732479e+01	1.669856e+03
1.530000e-06	5.190695e-06	2.546388e-08	3.749400e+01	1.672579e+03
1.540000e-06	5.212293e-06	2.550133e-08	3.765001e+01	1.675012e+03
1.550000e-06	5.232227e-06	2.553537e-08	3.779400e+01	1.677176e+03
1.560000e-06	5.250325e-06	2.556514e-08	3.792473e+01	1.679088e+03
1.570000e-06	5.266388e-06	2.558980e-08	3.804075e+01	1.680764e+03
1.580000e-06	5.280576e-06	2.561015e-08	3.814324e+01	1.682209e+03
1.590000e-06	5.292851e-06	2.562767e-08	3.823191e+01	1.683428e+03
1.600000e-06	5.302904e-06	2.564240e-08	3.830452e+01	1.684420e+03
1.610000e-06	5.310866e-06	2.565563e-08	3.836204e+01	1.685182e+03
1.620000e-06	5.317045e-06	2.566708e-08	3.840667e+01	1.685716e+03
1.630000e-06	5.321505e-06	2.567434e-08	3.843888e+01	1.686026e+03
1.640000e-06	5.323993e-06	2.567819e-08	3.845686e+01	1.686118e+03
1.650000e-06	5.324428e-06	2.567969e-08	3.846000e+01	1.686001e+03
1.660000e-06	5.323077e-06	2.567319e-08	3.845024e+01	1.685685e+03
1.670000e-06	5.320097e-06	2.566458e-08	3.842871e+01	1.685176e+03
1.680000e-06	5.315483e-06	2.565613e-08	3.839538e+01	1.684474e+03
1.690000e-06	5.308965e-06	2.564286e-08	3.834830e+01	1.683574e+03
1.700000e-06	5.300666e-06	2.562595e-08	3.828836e+01	1.682466e+03
1.710000e-06	5.290881e-06	2.560728e-08	3.821767e+01	1.681137e+03
1.720000e-06	5.279418e-06	2.559996e-08	3.813488e+01	1.679576e+03
1.730000e-06	5.265971e-06	2.558634e-08	3.803774e+01	1.677780e+03
1.740000e-06	5.250552e-06	2.547276e-08	3.792637e+01	1.675753e+03
1.750000e-06	5.232965e-06	2.542281e-08	3.779933e+01	1.673513e+03
1.760000e-06	5.212792e-06	2.543586e-08	3.765361e+01	1.671088e+03
1.770000e-06	5.190155e-06	2.542407e-08	3.749010e+01	1.668510e+03
1.780000e-06	5.165947e-06	2.550621e-08	3.731524e+01	1.665816e+03
1.790000e-06	5.141059e-06	2.534326e-08	3.713547e+01	1.663034e+03
1.800000e-06	5.115102e-06	2.519046e-08	3.694797e+01	1.660179e+03
1.810000e-06	5.087089e-06	2.532477e-08	3.674562e+01	1.657251e+03
1.820000e-06	5.057042e-06	2.513511e-08	3.652859e+01	1.654229e+03
1.830000e-06	5.025307e-06	2.507163e-08	3.629935e+01	1.651076e+03
1.840000e-06	4.991675e-06	2.525578e-08	3.605642e+01	1.647744e+03
1.850000e-06	4.956398e-06	2.502589e-08	3.580160e+01	1.644177e+03
1.860000e-06	4.919555e-06	2.498213e-08	3.553547e+01	1.640326e+03
1.870000e-06	4.880759e-06	2.503950e-08	3.525524e+01	1.636150e+03
1.880000e-06	4.840307e-06	2.483496e-08	3.496304e+01	1.631626e+03
1.890000e-06	4.798136e-06	2.486890e-08	3.465843e+01	1.626744e+03
1.900000e-06	4.754236e-06	2.471978e-08	3.434132e+01	1.621512e+03
1.910000e-06	4.708645e-06	2.457562e-08	3.401201e+01	1.615948e+03
1.920000e-06	4.661070e-06	2.469309e-08	3.366835e+01	1.610075e+03
1.930000e-06	4.611837e-06	2.449072e-08	3.331273e+01	1.603913e+03
1.940000e-06	4.560932e-06	2.438004e-08	3.294503e+01	1.597475e+03
1.950000e-06	4.507975e-06	2.431344e-08	3.256250e+01	1.590767e+03
1.960000e-06	4.453096e-06	2.416085e-08	3.216609e+01	1.583784e+03
1.970000e-06	4.396528e-06	2.409084e-08	3.175749e+01	1.576513e+03
1.980000e-06	4.338432e-06	2.390963e-08	3.133784e+01	1.568939e+03
1.990000e-06	4.278961e-06	2.386631e-08	3.090826e+01	1.561048e+03
2.000000e-06	4.217984e-06	2.376047e-08	3.046781e+01	1.552828e+03
2.010000e-06	4.155291e-06	2.355711e-08	3.001496e+01	1.544272e+03
2.020000e-06	4.090956e-06	2.343698e-08	2.955024e+01	1.535381e+03
2.030000e-06	4.025221e-06	2.326398e-08	2.907542e+01	1.526154e+03
2.040000e-06	3.958149e-06	2.319970e-08	2.859094e+01	1.516592e+03
2.050000e-06	3.889738e-06	2.303941e-08	2.809678e+01	1.506692e+03
2.060000e-06	3.819803e-06	2.284783e-08	2.759162e+01	1.496445e+03
2.070000e-06	3.748374e-06	2.271982e-08	2.707567e+01	1.485834e+03
2.080000e-06	3.675745e-06	2.250701e-08	2.655105e+01	1.474839e+03
2.090000e-06	3.601807e-06	2.235071e-08	2.601697e+01	1.463437e+03
2.100000e-06	3.526494e-06	2.216955e-08	2.547296e+01	1.451603e+03
2.110000e-06	3.449706e-06	2.200119e-08	2.491830e+01	1.439320e+03
2.120000e-06	3.371353e-06	2.180829e-08	2.435233e+01	1.426570e+03
2.130000e-06	3.291781e-06	2.157837e-08	2.377755e+01	1.413343e+03
2.140000e-06	3.211132e-06	2.138193e-08	2.319501e+01	1.399630e+03
2.150000e-06	3.129326e-06	2.115373e-08	2.260409e+01	1.385419e+03
2.160000e-06	3.046451e-06	2.094881e-08	2.200546e+01	1.370698e+03
2.170000e-06	2.962685e-06	2.072071e-08	2.140040e+01	1.355444e+03
2.180000e-06	2.877959e-06	2.047870e-08	2.078839e+01	1.339627e+03
2.190000e-06	2.791935e-06	2.022419e-08	2.016701e+01	1.323212e+03
2.200000e-06	2.704660e-06	1.995544e-08	1.953660e+01	1.306155e+03
2.210000e-06	2.616464e-06	1.969803e-08	1.889954e+01	1.288413e+03
2.220000e-06	2.527367e-06	1.941227e-08	1.825596e+01	1.269945e+03
2.230000e-06	2.437381e-06	1.911607e-08	1.760596e+01	1.250711e+03
2.240000e-06	2.346655e-06	1.880962e-08	1.695062e+01	1.230678e+03
2.250000e-06	2.255255e-06	1.850238e-08	1.629041e+01	1.209813e+03
2.260000e-06	2.163183e-06	1.817135e-08	1.562535e+01	1.188082e+03
2.270000e-06	2.070248e-06	1.782254e-08	1.495404e+01	1.165446e+03
2.280000e-06	1.976221e-06	1.746776e-08	1.427486e+01	1.141855e+03
2.290000e-06	1.881228e-06	1.709185e-08	1.358869e+01	1.117247e+03
2.300000e-06	1.785639e-06	1.669950e-08	1.289823e+01	1.091545e+03
2.310000e-06	1.689568e-06	1.628819e-08	1.220428e+01	1.064659e+03
2.320000e-06	1.592963e-06	1.586170e-08	1.150647e+01	1.036490e+03
2.330000e-06	1.495839e-06	1.540865e-08	1.080491e+01	1.006930e+03
2.340000e-06	1.398245e-06	1.493061e-08	1.009996e+01	9.758734e+02
2.350000e-06	1.300249e-06	1.443297e-08	9.392104e+00	9.432142e+02
2.360000e-06	1.201845e-06	1.391585e-08	8.681300e+00	9.088538e+02
2.370000e-06	1.103082e-06	1.337147e-08	7.967905e+00	8.727020e+02
2.380000e-06	1.004009e-06	1.279093e-08	7.252271e+00	8.346814e+02
2.390000e-06	9.046662e-07	1.217745e-08	6.534685e+00	7.947310e+02
2.400000e-06	8.051188e-07	1.153441e-08	5.815623e+00	7.528129e+02
2.410000e-06	7.053257e-07	1.086516e-08	5.094787e+00	7.089196e+02
2.420000e-06	6.053344e-07	1.016755e-08	4.372518e+00	6.630836e+02
2.430000e-06	5.051451e-07	9.442239e-09	3.648820e+00	6.153846e+02
2.440000e-06	4.047646e-07	8.692112e-09	2.923741e+00	5.659545e+02
2.450000e-06	3.042704e-07	7.915598e-09	2.197839e+00	5.149769e+02
2.460000e-06	2.037027e-07	7.113071e-09	1.471408e+00	4.626785e+02
2.470000e-06	1.030463e-07	6.294492e-09	7.443356e-01	4.093127e+02
2.480000e-06	2.326358e-09	5.467825e-09	1.680401e-02	3.551355e+02
2.490000e-06	-9.839447e-08	4.632098e-09	-7.107338e-01	3.003773e+02
2.500000e-06	-1.990975e-07	3.785169e-09	-1.438143e+00	2.452147e+02
2.510000e-06	-2.997812e-07	2.932063e-09	-2.165412e+00	1.897464e+02
2.520000e-06	-4.003884e-07	2.078120e-09	-2.892130e+00	1.339808e+02
2.530000e-06	-5.007757e-07	1.220690e-09	-3.617259e+00	7.783603e+01
2.540000e-06	-6.010000e-07	3.545756e-10	-4.341210e+00	2.115679e+01
2.550000e-06	-7.010827e-07	-5.238176e-10	-5.064138e+00	-3.625452e+01
2.560000e-06	-8.009421e-07	-1.415477e-09	-5.785454e+00	-9.459591e+01
2.570000e-06	-9.005374e-07	-2.324543e-09	-6.504861e+00	-1.540190e+02
2.580000e-06	-9.998547e-07	-3.251132e-09	-7.222261e+00	-2.145852e+02
2.590000e-06	-1.098833e-06	-4.192305e-09	-7.937215e+00	-2.762315e+02
2.600000e-06	-1.197428e-06	-5.147095e-09	-8.649396e+00	-3.387534e+02
2.610000e-06	-1.295636e-06	-6.109333e-09	-9.358782e+00	-4.018056e+02
2.620000e-06	-1.393353e-06	-7.072229e-09	-1.006462e+01	-4.649244e+02
2.630000e-06	-1.490527e-06	-8.029103e-09	-1.076654e+01	-5.275646e+02
2.640000e-06	-1.587182e-06	-8.970285e-09	-1.146471e+01	-5.891489e+02
2.650000e-06	-1.683392e-06	-9.886163e-09	-1.215966e+01	-6.491192e+02
2.660000e-06	-1.779172e-06	-1.077091e-08	-1.285151e+01	-7.069843e+02
2.670000e-06	-1.874412e-06	-1.162134e-08	-1.353946e+01	-7.623566e+02
2.680000e-06	-1.968797e-06	-1.242846e-08	-1.422123e+01	-8.149732e+02
2.690000e-06	-2.062187e-06	-1.318745e-08	-1.489581e+01	-8.646998e+02
2.700000e-06	-2.154677e-06	-1.390465e-08	-1.556390e+01	-9.115203e+02
2.710000e-06	-2.246354e-06	-1.458261e-08	-1.622612e+01	-9.555137e+02
2.720000e-06	-2.337254e-06	-1.521854e-08	-1.688271e+01	-9.968249e+02
2.730000e-06	-2.427389e-06	-1.581401e-08	-1.753378e+01	-1.035634e+03
2.740000e-06	-2.516661e-06	-1.637508e-08	-1.817862e+01	-1.072133e+03
2.750000e-06	-2.605033e-06	-1.690277e-08	-1.881696e+01	-1.106500e+03
2.760000e-06	-2.692688e-06	-1.739752e-08	-1.945012e+01	-1.138899e+03
2.770000e-06	-2.779511e-06	-1.786415e-08	-2.007727e+01	-1.169465e+03
2.780000e-06	-2.865176e-06	-1.830556e-08	-2.069606e+01	-1.198320e+03
2.790000e-06	-2.949640e-06	-1.872157e-08	-2.130617e+01	-1.225568e+03
2.800000e-06	-3.033039e-06	-1.911506e-08	-2.190858e+01	-1.251309e+03
2.810000e-06	-3.115464e-06	-1.948876e-08	-2.250397e+01	-1.275640e+03
2.820000e-06	-3.196909e-06	-1.984107e-08	-2.309227e+01	-1.298658e+03
2.830000e-06	-3.277385e-06	-2.017429e-08	-2.367357e+01	-1.320461e+03
2.840000e-06	-3.356864e-06	-2.049169e-08	-2.424767e+01	-1.341138e+03
2.850000e-06	-3.434985e-06	-2.079432e-08	-2.481196e+01	-1.360772e+03
2.860000e-06	-3.511514e-06	-2.108151e-08	-2.536476e+01	-1.379435e+03
2.870000e-06	-3.586591e-06	-2.135228e-08	-2.590706e+01	-1.397184e+03
2.880000e-06	-3.660267e-06	-2.160904e-08	-2.643925e+01	-1.414068e+03
2.890000e-06	-3.732630e-06	-2.185420e-08	-2.696195e+01	-1.430126e+03
2.900000e-06	-3.803752e-06	-2.208902e-08	-2.747569e+01	-1.445394e+03
2.910000e-06	-3.873359e-06	-2.231385e-08	-2.797847e+01	-1.459911e+03
2.920000e-06	-3.941458e-06	-2.252852e-08	-2.847038e+01	-1.473715e+03
2.930000e-06	-4.008200e-06	-2.273151e-08	-2.895248e+01	-1.486851e+03
2.940000e-06	-4.073508e-06	-2.292362e-08	-2.942421e+01	-1.499365e+03
