# Temperatura_=_78.57
# Concentracion g/m^3_=_28200.0
# C_Vs_to_Am_M_A/Vsm_=_65563218390.804596
# pendiente_HvsI_1/m_=_3716.3
# ordenada_HvsI_A/m_=_1297.0
# frecuencia_Hz_=_302140.36828156863

Tiempo_(s)	Campo_(V.s)	Magnetizacion_(V.s)	Campo_(kA/m)	Magnetizacion_(A/m)
0.000000e+00	-6.373501e-06	-3.521535e-08	-4.585553e+01	-2.306371e+03
1.000000e-08	-6.370627e-06	-3.521007e-08	-4.583485e+01	-2.305812e+03
2.000000e-08	-6.365694e-06	-3.519618e-08	-4.579936e+01	-2.304986e+03
3.000000e-08	-6.358843e-06	-3.517913e-08	-4.575006e+01	-2.303882e+03
4.000000e-08	-6.349907e-06	-3.515693e-08	-4.568577e+01	-2.302500e+03
5.000000e-08	-6.338638e-06	-3.512816e-08	-4.560470e+01	-2.300849e+03
6.000000e-08	-6.325008e-06	-3.509464e-08	-4.550664e+01	-2.298945e+03
7.000000e-08	-6.309079e-06	-3.504837e-08	-4.539203e+01	-2.296810e+03
8.000000e-08	-6.291002e-06	-3.501891e-08	-4.526197e+01	-2.294471e+03
9.000000e-08	-6.270818e-06	-3.508095e-08	-4.511675e+01	-2.291953e+03
1.000000e-07	-6.248282e-06	-3.503259e-08	-4.495461e+01	-2.289283e+03
1.100000e-07	-6.223156e-06	-3.490674e-08	-4.477384e+01	-2.286478e+03
1.200000e-07	-6.195574e-06	-3.486077e-08	-4.457539e+01	-2.283552e+03
1.300000e-07	-6.166050e-06	-3.477573e-08	-4.436298e+01	-2.280500e+03
1.400000e-07	-6.135022e-06	-3.459340e-08	-4.413974e+01	-2.277307e+03
1.500000e-07	-6.102277e-06	-3.471357e-08	-4.390414e+01	-2.273938e+03
1.600000e-07	-6.067485e-06	-3.470779e-08	-4.365382e+01	-2.270343e+03
1.700000e-07	-6.030836e-06	-3.445601e-08	-4.339015e+01	-2.266462e+03
1.800000e-07	-5.992232e-06	-3.454631e-08	-4.311240e+01	-2.262232e+03
1.900000e-07	-5.951245e-06	-3.439311e-08	-4.281751e+01	-2.257597e+03
2.000000e-07	-5.907986e-06	-3.424309e-08	-4.250628e+01	-2.252517e+03
2.100000e-07	-5.862620e-06	-3.429896e-08	-4.217989e+01	-2.246973e+03
2.200000e-07	-5.815049e-06	-3.415903e-08	-4.183762e+01	-2.240975e+03
2.300000e-07	-5.765090e-06	-3.406787e-08	-4.147818e+01	-2.234553e+03
2.400000e-07	-5.712594e-06	-3.396482e-08	-4.110049e+01	-2.227758e+03
2.500000e-07	-5.657823e-06	-3.381940e-08	-4.070643e+01	-2.220642e+03
2.600000e-07	-5.600882e-06	-3.373403e-08	-4.029675e+01	-2.213251e+03
2.700000e-07	-5.541816e-06	-3.360472e-08	-3.987179e+01	-2.205614e+03
2.800000e-07	-5.480862e-06	-3.350516e-08	-3.943324e+01	-2.197734e+03
2.900000e-07	-5.417980e-06	-3.335924e-08	-3.898082e+01	-2.189587e+03
3.000000e-07	-5.353026e-06	-3.323926e-08	-3.851350e+01	-2.181131e+03
3.100000e-07	-5.285965e-06	-3.310855e-08	-3.803102e+01	-2.172310e+03
3.200000e-07	-5.216847e-06	-3.294678e-08	-3.753373e+01	-2.163072e+03
3.300000e-07	-5.145858e-06	-3.282486e-08	-3.702299e+01	-2.153376e+03
3.400000e-07	-5.073122e-06	-3.263802e-08	-3.649967e+01	-2.143201e+03
3.500000e-07	-4.998388e-06	-3.248700e-08	-3.596198e+01	-2.132544e+03
3.600000e-07	-4.921522e-06	-3.232105e-08	-3.540895e+01	-2.121419e+03
3.700000e-07	-4.842618e-06	-3.213784e-08	-3.484126e+01	-2.109847e+03
3.800000e-07	-4.761792e-06	-3.197171e-08	-3.425974e+01	-2.097844e+03
3.900000e-07	-4.679300e-06	-3.177404e-08	-3.366623e+01	-2.085413e+03
4.000000e-07	-4.595351e-06	-3.157282e-08	-3.306224e+01	-2.072540e+03
4.100000e-07	-4.510017e-06	-3.136350e-08	-3.244829e+01	-2.059189e+03
4.200000e-07	-4.423308e-06	-3.116074e-08	-3.182444e+01	-2.045317e+03
4.300000e-07	-4.335165e-06	-3.093997e-08	-3.119028e+01	-2.030872e+03
4.400000e-07	-4.245452e-06	-3.069825e-08	-3.054482e+01	-2.015811e+03
4.500000e-07	-4.154109e-06	-3.046027e-08	-2.988763e+01	-2.000103e+03
4.600000e-07	-4.061313e-06	-3.020261e-08	-2.921999e+01	-1.983730e+03
4.700000e-07	-3.967171e-06	-2.994297e-08	-2.854267e+01	-1.966689e+03
4.800000e-07	-3.871572e-06	-2.967717e-08	-2.785486e+01	-1.948978e+03
4.900000e-07	-3.774552e-06	-2.940381e-08	-2.715682e+01	-1.930594e+03
5.000000e-07	-3.676057e-06	-2.911208e-08	-2.644819e+01	-1.911517e+03
5.100000e-07	-3.576093e-06	-2.880329e-08	-2.572897e+01	-1.891711e+03
5.200000e-07	-3.474877e-06	-2.848614e-08	-2.500075e+01	-1.871119e+03
5.300000e-07	-3.372469e-06	-2.815387e-08	-2.426395e+01	-1.849673e+03
5.400000e-07	-3.268905e-06	-2.781273e-08	-2.351884e+01	-1.827300e+03
5.500000e-07	-3.164213e-06	-2.745380e-08	-2.276561e+01	-1.803930e+03
5.600000e-07	-3.058187e-06	-2.708362e-08	-2.200279e+01	-1.779507e+03
5.700000e-07	-2.950767e-06	-2.669450e-08	-2.122993e+01	-1.753983e+03
5.800000e-07	-2.842295e-06	-2.628674e-08	-2.044950e+01	-1.727318e+03
5.900000e-07	-2.732935e-06	-2.586603e-08	-1.966269e+01	-1.699470e+03
6.000000e-07	-2.622669e-06	-2.542754e-08	-1.886936e+01	-1.670384e+03
6.100000e-07	-2.511432e-06	-2.496640e-08	-1.806904e+01	-1.639979e+03
6.200000e-07	-2.399263e-06	-2.447499e-08	-1.726202e+01	-1.608146e+03
6.300000e-07	-2.286254e-06	-2.395735e-08	-1.644894e+01	-1.574749e+03
6.400000e-07	-2.172230e-06	-2.341492e-08	-1.562858e+01	-1.539632e+03
6.500000e-07	-2.057139e-06	-2.285011e-08	-1.480053e+01	-1.502631e+03
6.600000e-07	-1.941151e-06	-2.225753e-08	-1.396603e+01	-1.463588e+03
6.700000e-07	-1.824472e-06	-2.163192e-08	-1.312655e+01	-1.422357e+03
6.800000e-07	-1.707182e-06	-2.097235e-08	-1.228269e+01	-1.378804e+03
6.900000e-07	-1.589305e-06	-2.027182e-08	-1.143460e+01	-1.332803e+03
7.000000e-07	-1.470912e-06	-1.952888e-08	-1.058279e+01	-1.284224e+03
7.100000e-07	-1.352058e-06	-1.874219e-08	-9.727676e+00	-1.232920e+03
7.200000e-07	-1.232778e-06	-1.791294e-08	-8.869486e+00	-1.178725e+03
7.300000e-07	-1.113081e-06	-1.703799e-08	-8.008302e+00	-1.121458e+03
7.400000e-07	-9.929960e-07	-1.611239e-08	-7.144323e+00	-1.060943e+03
7.500000e-07	-8.725455e-07	-1.513577e-08	-6.277717e+00	-9.970480e+02
7.600000e-07	-7.518486e-07	-1.411058e-08	-5.409337e+00	-9.297222e+02
7.700000e-07	-6.309730e-07	-1.303334e-08	-4.539671e+00	-8.590388e+02
7.800000e-07	-5.099260e-07	-1.190975e-08	-3.668772e+00	-7.852212e+02
7.900000e-07	-3.887666e-07	-1.074667e-08	-2.797065e+00	-7.086467e+02
8.000000e-07	-2.674207e-07	-9.546535e-09	-1.924016e+00	-6.298209e+02
8.100000e-07	-1.459114e-07	-8.320045e-09	-1.049791e+00	-5.493228e+02
8.200000e-07	-2.433390e-08	-7.076309e-09	-1.750755e-01	-4.677270e+02
8.300000e-07	9.728359e-08	-5.823861e-09	6.999278e-01	-3.855177e+02
8.400000e-07	2.188612e-07	-4.564729e-09	1.574644e+00	-3.030109e+02
8.500000e-07	3.404070e-07	-3.304446e-09	2.449132e+00	-2.203022e+02
8.600000e-07	4.618458e-07	-2.040900e-09	3.322849e+00	-1.372548e+02
8.700000e-07	5.830871e-07	-7.647923e-10	4.195146e+00	-5.353321e+01
8.800000e-07	7.041460e-07	5.280257e-10	5.066130e+00	3.131942e+01
8.900000e-07	8.250085e-07	1.843769e-09	5.935702e+00	1.177733e+02
9.000000e-07	9.456637e-07	3.187880e-09	6.803781e+00	2.061914e+02
9.100000e-07	1.065986e-06	4.565041e-09	7.669468e+00	2.967200e+02
9.200000e-07	1.185900e-06	5.973293e-09	8.532216e+00	3.892107e+02
9.300000e-07	1.305411e-06	7.405320e-09	9.392064e+00	4.831898e+02
9.400000e-07	1.424462e-06	8.850673e-09	1.024860e+01	5.778819e+02
9.500000e-07	1.543046e-06	1.029273e-08	1.110178e+01	6.722829e+02
9.600000e-07	1.661050e-06	1.170981e-08	1.195078e+01	7.652693e+02
9.700000e-07	1.778399e-06	1.308252e-08	1.279508e+01	8.557247e+02
9.800000e-07	1.895101e-06	1.440003e-08	1.363471e+01	9.426601e+02
9.900000e-07	2.011005e-06	1.565315e-08	1.446861e+01	1.025308e+03
1.000000e-06	2.126060e-06	1.683308e-08	1.529640e+01	1.103176e+03
1.010000e-06	2.240113e-06	1.793804e-08	1.611698e+01	1.176062e+03
1.020000e-06	2.353062e-06	1.896885e-08	1.692961e+01	1.244015e+03
1.030000e-06	2.465123e-06	1.993008e-08	1.773586e+01	1.307281e+03
1.040000e-06	2.576369e-06	2.082786e-08	1.853624e+01	1.366223e+03
1.050000e-06	2.686644e-06	2.166449e-08	1.932964e+01	1.421247e+03
1.060000e-06	2.796001e-06	2.244589e-08	2.011643e+01	1.472743e+03
1.070000e-06	2.904513e-06	2.317635e-08	2.089714e+01	1.521046e+03
1.080000e-06	3.012142e-06	2.386280e-08	2.167150e+01	1.566424e+03
1.090000e-06	3.118694e-06	2.450710e-08	2.243812e+01	1.609082e+03
1.100000e-06	3.223876e-06	2.511294e-08	2.319487e+01	1.649185e+03
1.110000e-06	3.327792e-06	2.568296e-08	2.394252e+01	1.686883e+03
1.120000e-06	3.430543e-06	2.622184e-08	2.468178e+01	1.722323e+03
1.130000e-06	3.532120e-06	2.673062e-08	2.541260e+01	1.755667e+03
1.140000e-06	3.632577e-06	2.720919e-08	2.613536e+01	1.787086e+03
1.150000e-06	3.731792e-06	2.766022e-08	2.684918e+01	1.816753e+03
1.160000e-06	3.829479e-06	2.808679e-08	2.755201e+01	1.844831e+03
1.170000e-06	3.925652e-06	2.849116e-08	2.824395e+01	1.871457e+03
1.180000e-06	4.020486e-06	2.887608e-08	2.892625e+01	1.896742e+03
1.190000e-06	4.113966e-06	2.924178e-08	2.959882e+01	1.920765e+03
1.200000e-06	4.206192e-06	2.958655e-08	3.026236e+01	1.943582e+03
1.210000e-06	4.297041e-06	2.991473e-08	3.091599e+01	1.965239e+03
1.220000e-06	4.386167e-06	3.022721e-08	3.155722e+01	1.985781e+03
1.230000e-06	4.473593e-06	3.052577e-08	3.218623e+01	2.005259e+03
1.240000e-06	4.559481e-06	3.080693e-08	3.280417e+01	2.023738e+03
1.250000e-06	4.643886e-06	3.107167e-08	3.341143e+01	2.041287e+03
1.260000e-06	4.726750e-06	3.132420e-08	3.400762e+01	2.057982e+03
1.270000e-06	4.807810e-06	3.156663e-08	3.459083e+01	2.073890e+03
1.280000e-06	4.887021e-06	3.179829e-08	3.516073e+01	2.089066e+03
1.290000e-06	4.964467e-06	3.202021e-08	3.571793e+01	2.103550e+03
1.300000e-06	5.040010e-06	3.223006e-08	3.626144e+01	2.117365e+03
1.310000e-06	5.113469e-06	3.242768e-08	3.678996e+01	2.130526e+03
1.320000e-06	5.184935e-06	3.261384e-08	3.730413e+01	2.143044e+03
1.330000e-06	5.254575e-06	3.279087e-08	3.780517e+01	2.154931e+03
1.340000e-06	5.322441e-06	3.296274e-08	3.829345e+01	2.166210e+03
1.350000e-06	5.388314e-06	3.312873e-08	3.876739e+01	2.176911e+03
1.360000e-06	5.452134e-06	3.328607e-08	3.922656e+01	2.187068e+03
1.370000e-06	5.514131e-06	3.343474e-08	3.967261e+01	2.196714e+03
1.380000e-06	5.574353e-06	3.357590e-08	4.010589e+01	2.205878e+03
1.390000e-06	5.632579e-06	3.370986e-08	4.052480e+01	2.214577e+03
1.400000e-06	5.688679e-06	3.383807e-08	4.092843e+01	2.222815e+03
1.410000e-06	5.742790e-06	3.395985e-08	4.131774e+01	2.230590e+03
1.420000e-06	5.794675e-06	3.407471e-08	4.169104e+01	2.237895e+03
1.430000e-06	5.844047e-06	3.417983e-08	4.204625e+01	2.244730e+03
1.440000e-06	5.891141e-06	3.427624e-08	4.238509e+01	2.251102e+03
1.450000e-06	5.936267e-06	3.436572e-08	4.270975e+01	2.257032e+03
1.460000e-06	5.979380e-06	3.444890e-08	4.301994e+01	2.262552e+03
1.470000e-06	6.020299e-06	3.452829e-08	4.331434e+01	2.267701e+03
1.480000e-06	6.059041e-06	3.460329e-08	4.359308e+01	2.272518e+03
1.490000e-06	6.095830e-06	3.467361e-08	4.385776e+01	2.277032e+03
1.500000e-06	6.130471e-06	3.473854e-08	4.410699e+01	2.281259e+03
1.510000e-06	6.162809e-06	3.479973e-08	4.433966e+01	2.285198e+03
1.520000e-06	6.193029e-06	3.485758e-08	4.455708e+01	2.288834e+03
1.530000e-06	6.221215e-06	3.490985e-08	4.475987e+01	2.292141e+03
1.540000e-06	6.247112e-06	3.495491e-08	4.494619e+01	2.295095e+03
1.550000e-06	6.270513e-06	3.499302e-08	4.511455e+01	2.297676e+03
1.560000e-06	6.291734e-06	3.502657e-08	4.526724e+01	2.299879e+03
1.570000e-06	6.310945e-06	3.505468e-08	4.540546e+01	2.301715e+03
1.580000e-06	6.327876e-06	3.507736e-08	4.552727e+01	2.303210e+03
1.590000e-06	6.342392e-06	3.509676e-08	4.563170e+01	2.304396e+03
1.600000e-06	6.354432e-06	3.511275e-08	4.571833e+01	2.305312e+03
1.610000e-06	6.363854e-06	3.512445e-08	4.578612e+01	2.305989e+03
1.620000e-06	6.370819e-06	3.513288e-08	4.583623e+01	2.306449e+03
1.630000e-06	6.375686e-06	3.513992e-08	4.587125e+01	2.306701e+03
1.640000e-06	6.378364e-06	3.514383e-08	4.589052e+01	2.306740e+03
1.650000e-06	6.378654e-06	3.514439e-08	4.589260e+01	2.306554e+03
1.660000e-06	6.376763e-06	3.512869e-08	4.587900e+01	2.306124e+03
1.670000e-06	6.372903e-06	3.511728e-08	4.585123e+01	2.305433e+03
1.680000e-06	6.366909e-06	3.510801e-08	4.580810e+01	2.304468e+03
1.690000e-06	6.358706e-06	3.509076e-08	4.574908e+01	2.303225e+03
1.700000e-06	6.348542e-06	3.507134e-08	4.567596e+01	2.301707e+03
1.710000e-06	6.336249e-06	3.505091e-08	4.558751e+01	2.299927e+03
1.720000e-06	6.321656e-06	3.505091e-08	4.548251e+01	2.297905e+03
1.730000e-06	6.305056e-06	3.499988e-08	4.536309e+01	2.295665e+03
1.740000e-06	6.286428e-06	3.484356e-08	4.522906e+01	2.293233e+03
1.750000e-06	6.265002e-06	3.483515e-08	4.507491e+01	2.290636e+03
1.760000e-06	6.240390e-06	3.485782e-08	4.489783e+01	2.287896e+03
1.770000e-06	6.213363e-06	3.477930e-08	4.470338e+01	2.285030e+03
1.780000e-06	6.184494e-06	3.488694e-08	4.449567e+01	2.282042e+03
1.790000e-06	6.153983e-06	3.482288e-08	4.427615e+01	2.278923e+03
1.800000e-06	6.122083e-06	3.457783e-08	4.404664e+01	2.275647e+03
1.810000e-06	6.088257e-06	3.473228e-08	4.380328e+01	2.272172e+03
1.820000e-06	6.052435e-06	3.460691e-08	4.354555e+01	2.268442e+03
1.830000e-06	6.014656e-06	3.451685e-08	4.327374e+01	2.264394e+03
1.840000e-06	5.974421e-06	3.467640e-08	4.298426e+01	2.259968e+03
1.850000e-06	5.932033e-06	3.434942e-08	4.267929e+01	2.255115e+03
1.860000e-06	5.887604e-06	3.431082e-08	4.235964e+01	2.249803e+03
1.870000e-06	5.841013e-06	3.426295e-08	4.202443e+01	2.244029e+03
1.880000e-06	5.792383e-06	3.407559e-08	4.167454e+01	2.237814e+03
1.890000e-06	5.741365e-06	3.414569e-08	4.130749e+01	2.231199e+03
1.900000e-06	5.687761e-06	3.391211e-08	4.092182e+01	2.224237e+03
1.910000e-06	5.631790e-06	3.384712e-08	4.051913e+01	2.216978e+03
1.920000e-06	5.573767e-06	3.378128e-08	4.010167e+01	2.209463e+03
1.930000e-06	5.513947e-06	3.355146e-08	3.967128e+01	2.201705e+03
1.940000e-06	5.452049e-06	3.352837e-08	3.922594e+01	2.193696e+03
1.950000e-06	5.387997e-06	3.331684e-08	3.876511e+01	2.185401e+03
1.960000e-06	5.321962e-06	3.326629e-08	3.829000e+01	2.176769e+03
1.970000e-06	5.253947e-06	3.310536e-08	3.780065e+01	2.167746e+03
1.980000e-06	5.183924e-06	3.290791e-08	3.729686e+01	2.158283e+03
1.990000e-06	5.111832e-06	3.284515e-08	3.677818e+01	2.148349e+03
2.000000e-06	5.037953e-06	3.262168e-08	3.624664e+01	2.137932e+03
2.010000e-06	4.962199e-06	3.251022e-08	3.570161e+01	2.127038e+03
2.020000e-06	4.884311e-06	3.228042e-08	3.514123e+01	2.115688e+03
2.030000e-06	4.804471e-06	3.211467e-08	3.456680e+01	2.103899e+03
2.040000e-06	4.722958e-06	3.196304e-08	3.398034e+01	2.091683e+03
2.050000e-06	4.639967e-06	3.173670e-08	3.338324e+01	2.079034e+03
2.060000e-06	4.555408e-06	3.156545e-08	3.277486e+01	2.065927e+03
2.070000e-06	4.469110e-06	3.132797e-08	3.215397e+01	2.052321e+03
2.080000e-06	4.381130e-06	3.114182e-08	3.152098e+01	2.038169e+03
2.090000e-06	4.291656e-06	3.089136e-08	3.087724e+01	2.023421e+03
2.100000e-06	4.200780e-06	3.066609e-08	3.022342e+01	2.008039e+03
2.110000e-06	4.108571e-06	3.043706e-08	2.956000e+01	1.992000e+03
2.120000e-06	4.014969e-06	3.017620e-08	2.888656e+01	1.975293e+03
2.130000e-06	3.919832e-06	2.991627e-08	2.820208e+01	1.957917e+03
2.140000e-06	3.823251e-06	2.962660e-08	2.750721e+01	1.939871e+03
2.150000e-06	3.725378e-06	2.935851e-08	2.680304e+01	1.921144e+03
2.160000e-06	3.626266e-06	2.905604e-08	2.608995e+01	1.901708e+03
2.170000e-06	3.525860e-06	2.875949e-08	2.536756e+01	1.881517e+03
2.180000e-06	3.424023e-06	2.843324e-08	2.463487e+01	1.860507e+03
2.190000e-06	3.320713e-06	2.809977e-08	2.389158e+01	1.838607e+03
2.200000e-06	3.216137e-06	2.774529e-08	2.313919e+01	1.815744e+03
2.210000e-06	3.110508e-06	2.738036e-08	2.237922e+01	1.791854e+03
2.220000e-06	3.003815e-06	2.700643e-08	2.161159e+01	1.766885e+03
2.230000e-06	2.896065e-06	2.660984e-08	2.083636e+01	1.740795e+03
2.240000e-06	2.787399e-06	2.619530e-08	2.005454e+01	1.713545e+03
2.250000e-06	2.677777e-06	2.575639e-08	1.926584e+01	1.685087e+03
2.260000e-06	2.567013e-06	2.530746e-08	1.846893e+01	1.655353e+03
2.270000e-06	2.455165e-06	2.483254e-08	1.766421e+01	1.624249e+03
2.280000e-06	2.342385e-06	2.434169e-08	1.685279e+01	1.591653e+03
2.290000e-06	2.228667e-06	2.381798e-08	1.603462e+01	1.557415e+03
2.300000e-06	2.114077e-06	2.326490e-08	1.521018e+01	1.521377e+03
2.310000e-06	1.998692e-06	2.268039e-08	1.438002e+01	1.483374e+03
2.320000e-06	1.882510e-06	2.206820e-08	1.354412e+01	1.443255e+03
2.330000e-06	1.765657e-06	2.142600e-08	1.270340e+01	1.400878e+03
2.340000e-06	1.648175e-06	2.074885e-08	1.185815e+01	1.356117e+03
2.350000e-06	1.529927e-06	2.003348e-08	1.100739e+01	1.308844e+03
2.360000e-06	1.410977e-06	1.927267e-08	1.015158e+01	1.258923e+03
2.370000e-06	1.291416e-06	1.846771e-08	9.291369e+00	1.206195e+03
2.380000e-06	1.171398e-06	1.761478e-08	8.427872e+00	1.150487e+03
2.390000e-06	1.051144e-06	1.671662e-08	7.562685e+00	1.091616e+03
2.400000e-06	9.306528e-07	1.576598e-08	6.695782e+00	1.029424e+03
2.410000e-06	8.098467e-07	1.476443e-08	5.826616e+00	9.638126e+02
2.420000e-06	6.887748e-07	1.371372e-08	4.955538e+00	8.947899e+02
2.430000e-06	5.675404e-07	1.261382e-08	4.083292e+00	8.225017e+02
2.440000e-06	4.461438e-07	1.146662e-08	3.209878e+00	7.472494e+02
2.450000e-06	3.245754e-07	1.027754e-08	2.335228e+00	6.694799e+02
2.460000e-06	2.028569e-07	9.058933e-09	1.459498e+00	5.897439e+02
2.470000e-06	8.105528e-08	7.818831e-09	5.831697e-01	5.086287e+02
2.480000e-06	-4.080571e-08	6.567172e-09	-2.935855e-01	4.266746e+02
2.490000e-06	-1.626586e-07	5.309003e-09	-1.170282e+00	3.442900e+02
2.500000e-06	-2.844316e-07	4.046827e-09	-2.046405e+00	2.616851e+02
2.510000e-06	-4.061090e-07	2.780735e-09	-2.921838e+00	1.788378e+02
2.520000e-06	-5.276244e-07	1.504892e-09	-3.796108e+00	9.550512e+01
2.530000e-06	-6.489957e-07	2.156625e-10	-4.669340e+00	1.127876e+01
2.540000e-06	-7.701776e-07	-1.090770e-09	-5.541209e+00	-7.431960e+01
2.550000e-06	-8.911212e-07	-2.421533e-09	-6.411364e+00	-1.617214e+02
2.560000e-06	-1.011833e-06	-3.784046e-09	-7.279848e+00	-2.511936e+02
2.570000e-06	-1.132226e-06	-5.180944e-09	-8.146040e+00	-3.427420e+02
2.580000e-06	-1.252308e-06	-6.605735e-09	-9.009999e+00	-4.360562e+02
2.590000e-06	-1.372038e-06	-8.048996e-09	-9.871423e+00	-5.305053e+02
2.600000e-06	-1.491200e-06	-9.498351e-09	-1.072876e+01	-6.251877e+02
2.610000e-06	-1.609574e-06	-1.093679e-08	-1.158043e+01	-7.190243e+02
2.620000e-06	-1.727140e-06	-1.234514e-08	-1.242628e+01	-8.108795e+02
2.630000e-06	-1.843947e-06	-1.370466e-08	-1.326668e+01	-8.996865e+02
2.640000e-06	-1.959961e-06	-1.500267e-08	-1.410136e+01	-9.845573e+02
2.650000e-06	-2.075179e-06	-1.623069e-08	-1.493032e+01	-1.064859e+03
2.660000e-06	-2.189561e-06	-1.738329e-08	-1.575327e+01	-1.140244e+03
2.670000e-06	-2.302959e-06	-1.846210e-08	-1.656914e+01	-1.210643e+03
2.680000e-06	-2.415301e-06	-1.946868e-08	-1.737740e+01	-1.276213e+03
2.690000e-06	-2.526605e-06	-2.040498e-08	-1.817821e+01	-1.337267e+03
2.700000e-06	-2.636903e-06	-2.127991e-08	-1.897177e+01	-1.394199e+03
2.710000e-06	-2.746229e-06	-2.209809e-08	-1.975833e+01	-1.447414e+03
2.720000e-06	-2.854654e-06	-2.286360e-08	-2.053842e+01	-1.497276e+03
2.730000e-06	-2.962294e-06	-2.358301e-08	-2.131286e+01	-1.544087e+03
2.740000e-06	-3.069031e-06	-2.425856e-08	-2.208080e+01	-1.588082e+03
2.750000e-06	-3.174675e-06	-2.489140e-08	-2.284089e+01	-1.629443e+03
2.760000e-06	-3.279213e-06	-2.548524e-08	-2.359300e+01	-1.668326e+03
2.770000e-06	-3.382637e-06	-2.604710e-08	-2.433711e+01	-1.704875e+03
2.780000e-06	-3.484728e-06	-2.657570e-08	-2.507163e+01	-1.739247e+03
2.790000e-06	-3.585406e-06	-2.706966e-08	-2.579597e+01	-1.771606e+03
2.800000e-06	-3.684814e-06	-2.753531e-08	-2.651119e+01	-1.802128e+03
2.810000e-06	-3.782990e-06	-2.797715e-08	-2.721754e+01	-1.830982e+03
2.820000e-06	-3.879970e-06	-2.839576e-08	-2.791528e+01	-1.858318e+03
2.830000e-06	-3.975733e-06	-2.879467e-08	-2.860427e+01	-1.884262e+03
2.840000e-06	-4.070029e-06	-2.917488e-08	-2.928270e+01	-1.908907e+03
2.850000e-06	-4.162766e-06	-2.953378e-08	-2.994991e+01	-1.932321e+03
2.860000e-06	-4.254060e-06	-2.987183e-08	-3.060675e+01	-1.954553e+03
2.870000e-06	-4.343841e-06	-3.019074e-08	-3.125270e+01	-1.975646e+03
2.880000e-06	-4.432125e-06	-3.049478e-08	-3.188788e+01	-1.995649e+03
2.890000e-06	-4.518810e-06	-3.078612e-08	-3.251155e+01	-2.014619e+03
2.900000e-06	-4.603694e-06	-3.106416e-08	-3.312227e+01	-2.032624e+03
2.910000e-06	-4.686941e-06	-3.132659e-08	-3.372121e+01	-2.049737e+03
2.920000e-06	-4.768665e-06	-3.157499e-08	-3.430918e+01	-2.066030e+03
2.930000e-06	-4.848771e-06	-3.181170e-08	-3.488553e+01	-2.081567e+03
2.940000e-06	-4.926945e-06	-3.203988e-08	-3.544797e+01	-2.096393e+03
