# Temperatura_=_76.56
# Concentracion g/m^3_=_28200.0
# C_Vs_to_Am_M_A/Vsm_=_65563218390.804596
# pendiente_HvsI_1/m_=_3716.3
# ordenada_HvsI_A/m_=_1297.0
# frecuencia_Hz_=_302140.7491880614

Tiempo_(s)	Campo_(V.s)	Magnetizacion_(V.s)	Campo_(kA/m)	Magnetizacion_(A/m)
0.000000e+00	-6.441777e-06	-3.512053e-08	-4.585408e+01	-2.298777e+03
1.000000e-08	-6.438633e-06	-3.511639e-08	-4.583170e+01	-2.298132e+03
2.000000e-08	-6.433419e-06	-3.510214e-08	-4.579458e+01	-2.297253e+03
3.000000e-08	-6.426229e-06	-3.508676e-08	-4.574340e+01	-2.296149e+03
4.000000e-08	-6.416873e-06	-3.506648e-08	-4.567680e+01	-2.294816e+03
5.000000e-08	-6.405154e-06	-3.503829e-08	-4.559338e+01	-2.293248e+03
6.000000e-08	-6.391093e-06	-3.500407e-08	-4.549329e+01	-2.291429e+03
7.000000e-08	-6.374720e-06	-3.495689e-08	-4.537675e+01	-2.289345e+03
8.000000e-08	-6.356221e-06	-3.494044e-08	-4.524507e+01	-2.286986e+03
9.000000e-08	-6.335571e-06	-3.501102e-08	-4.509807e+01	-2.284363e+03
1.000000e-07	-6.312504e-06	-3.493839e-08	-4.493388e+01	-2.281502e+03
1.100000e-07	-6.286778e-06	-3.480558e-08	-4.475076e+01	-2.278455e+03
1.200000e-07	-6.258647e-06	-3.477542e-08	-4.455051e+01	-2.275284e+03
1.300000e-07	-6.228658e-06	-3.469338e-08	-4.433704e+01	-2.272053e+03
1.400000e-07	-6.197158e-06	-3.451498e-08	-4.411282e+01	-2.268810e+03
1.500000e-07	-6.163861e-06	-3.465258e-08	-4.387580e+01	-2.265572e+03
1.600000e-07	-6.128438e-06	-3.463125e-08	-4.362366e+01	-2.262314e+03
1.700000e-07	-6.091116e-06	-3.436667e-08	-4.335799e+01	-2.258969e+03
1.800000e-07	-6.051735e-06	-3.447522e-08	-4.307766e+01	-2.255432e+03
1.900000e-07	-6.009937e-06	-3.431583e-08	-4.278013e+01	-2.251579e+03
2.000000e-07	-5.965898e-06	-3.419276e-08	-4.246666e+01	-2.247292e+03
2.100000e-07	-5.919768e-06	-3.425133e-08	-4.213829e+01	-2.242475e+03
2.200000e-07	-5.871369e-06	-3.408151e-08	-4.179378e+01	-2.237076e+03
2.300000e-07	-5.820468e-06	-3.399492e-08	-4.143145e+01	-2.231096e+03
2.400000e-07	-5.767012e-06	-3.388618e-08	-4.105094e+01	-2.224579e+03
2.500000e-07	-5.711432e-06	-3.375810e-08	-4.065531e+01	-2.217604e+03
2.600000e-07	-5.653647e-06	-3.368621e-08	-4.024398e+01	-2.210262e+03
2.700000e-07	-5.593658e-06	-3.355378e-08	-3.981696e+01	-2.202630e+03
2.800000e-07	-5.531761e-06	-3.345898e-08	-3.937637e+01	-2.194756e+03
2.900000e-07	-5.467883e-06	-3.329823e-08	-3.892167e+01	-2.186648e+03
3.000000e-07	-5.401899e-06	-3.317016e-08	-3.845198e+01	-2.178274e+03
3.100000e-07	-5.333809e-06	-3.304053e-08	-3.796730e+01	-2.169573e+03
3.200000e-07	-5.263718e-06	-3.289573e-08	-3.746837e+01	-2.160473e+03
3.300000e-07	-5.191868e-06	-3.278171e-08	-3.695693e+01	-2.150911e+03
3.400000e-07	-5.118109e-06	-3.258650e-08	-3.643189e+01	-2.140846e+03
3.500000e-07	-5.042169e-06	-3.244041e-08	-3.589134e+01	-2.130266e+03
3.600000e-07	-4.964134e-06	-3.226987e-08	-3.533587e+01	-2.119188e+03
3.700000e-07	-4.884049e-06	-3.208929e-08	-3.476580e+01	-2.107648e+03
3.800000e-07	-4.802153e-06	-3.192846e-08	-3.418284e+01	-2.095680e+03
3.900000e-07	-4.718707e-06	-3.173021e-08	-3.358886e+01	-2.083307e+03
4.000000e-07	-4.633838e-06	-3.153012e-08	-3.298474e+01	-2.070525e+03
4.100000e-07	-4.547511e-06	-3.131931e-08	-3.237024e+01	-2.057302e+03
4.200000e-07	-4.459819e-06	-3.112069e-08	-3.174603e+01	-2.043583e+03
4.300000e-07	-4.370580e-06	-3.089957e-08	-3.111081e+01	-2.029302e+03
4.400000e-07	-4.279594e-06	-3.066118e-08	-3.046315e+01	-2.014394e+03
4.500000e-07	-4.187048e-06	-3.042636e-08	-2.980438e+01	-1.998811e+03
4.600000e-07	-4.093034e-06	-3.016829e-08	-2.913517e+01	-1.982527e+03
4.700000e-07	-3.997664e-06	-2.991049e-08	-2.845630e+01	-1.965537e+03
4.800000e-07	-3.900878e-06	-2.964651e-08	-2.776736e+01	-1.947852e+03
4.900000e-07	-3.802532e-06	-2.937587e-08	-2.706731e+01	-1.929481e+03
5.000000e-07	-3.702696e-06	-2.908385e-08	-2.635665e+01	-1.910423e+03
5.100000e-07	-3.601518e-06	-2.877737e-08	-2.563645e+01	-1.890653e+03
5.200000e-07	-3.499170e-06	-2.846291e-08	-2.490791e+01	-1.870118e+03
5.300000e-07	-3.395688e-06	-2.813284e-08	-2.417130e+01	-1.848748e+03
5.400000e-07	-3.290888e-06	-2.779059e-08	-2.342531e+01	-1.826456e+03
5.500000e-07	-3.184700e-06	-2.742902e-08	-2.266944e+01	-1.803158e+03
5.600000e-07	-3.077275e-06	-2.705674e-08	-2.190477e+01	-1.778782e+03
5.700000e-07	-2.968732e-06	-2.666640e-08	-2.113213e+01	-1.753272e+03
5.800000e-07	-2.859090e-06	-2.626186e-08	-2.035167e+01	-1.726585e+03
5.900000e-07	-2.748522e-06	-2.584252e-08	-1.956462e+01	-1.698684e+03
6.000000e-07	-2.637086e-06	-2.540344e-08	-1.877140e+01	-1.669521e+03
6.100000e-07	-2.524584e-06	-2.493870e-08	-1.797058e+01	-1.639029e+03
6.200000e-07	-2.410907e-06	-2.444451e-08	-1.716140e+01	-1.607108e+03
6.300000e-07	-2.296154e-06	-2.392684e-08	-1.634456e+01	-1.573626e+03
6.400000e-07	-2.180407e-06	-2.338281e-08	-1.552064e+01	-1.538424e+03
6.500000e-07	-2.063817e-06	-2.281496e-08	-1.469073e+01	-1.501331e+03
6.600000e-07	-1.946580e-06	-2.221734e-08	-1.385621e+01	-1.462176e+03
6.700000e-07	-1.828713e-06	-2.158813e-08	-1.301721e+01	-1.420799e+03
6.800000e-07	-1.710227e-06	-2.092432e-08	-1.217379e+01	-1.377057e+03
6.900000e-07	-1.591221e-06	-2.022200e-08	-1.132668e+01	-1.330815e+03
7.000000e-07	-1.471709e-06	-1.947871e-08	-1.047597e+01	-1.281939e+03
7.100000e-07	-1.351638e-06	-1.868833e-08	-9.621275e+00	-1.230284e+03
7.200000e-07	-1.231022e-06	-1.785219e-08	-8.762700e+00	-1.175684e+03
7.300000e-07	-1.109954e-06	-1.696646e-08	-7.900915e+00	-1.117960e+03
7.400000e-07	-9.884870e-07	-1.603063e-08	-7.036281e+00	-1.056938e+03
7.500000e-07	-8.666502e-07	-1.504413e-08	-6.169019e+00	-9.924876e+02
7.600000e-07	-7.445005e-07	-1.401004e-08	-5.299528e+00	-9.245627e+02
7.700000e-07	-6.221135e-07	-1.292496e-08	-4.428349e+00	-8.532453e+02
7.800000e-07	-4.995853e-07	-1.179195e-08	-3.556165e+00	-7.787741e+02
7.900000e-07	-3.769000e-07	-1.061756e-08	-2.682862e+00	-7.015480e+02
8.000000e-07	-2.540409e-07	-9.405483e-09	-1.808323e+00	-6.220985e+02
8.100000e-07	-1.310343e-07	-8.167857e-09	-9.327329e-01	-5.410302e+02
8.200000e-07	-7.946899e-09	-6.915945e-09	-5.656788e-02	-4.589376e+02
8.300000e-07	1.151112e-07	-5.658368e-09	8.193886e-01	-3.763135e+02
8.400000e-07	2.380581e-07	-4.395392e-09	1.694553e+00	-2.934674e+02
8.500000e-07	3.609392e-07	-3.132595e-09	2.569249e+00	-2.104728e+02
8.600000e-07	4.837830e-07	-1.864336e-09	3.443680e+00	-1.271590e+02
8.700000e-07	6.065387e-07	-5.826012e-10	4.317484e+00	-4.315120e+01
8.800000e-07	7.291346e-07	7.156306e-10	5.190151e+00	4.204248e+01
8.900000e-07	8.515283e-07	2.038301e-09	6.061377e+00	1.289133e+02
9.000000e-07	9.737076e-07	3.389917e-09	6.931078e+00	2.178240e+02
9.100000e-07	1.095574e-06	4.775830e-09	7.798551e+00	3.088959e+02
9.200000e-07	1.217000e-06	6.192926e-09	8.662891e+00	4.019328e+02
9.300000e-07	1.337844e-06	7.631685e-09	9.523088e+00	4.963977e+02
9.400000e-07	1.458035e-06	9.080283e-09	1.037864e+01	5.914473e+02
9.500000e-07	1.577575e-06	1.052186e-08	1.122954e+01	6.860178e+02
9.600000e-07	1.696541e-06	1.193623e-08	1.207637e+01	7.789457e+02
9.700000e-07	1.815030e-06	1.330476e-08	1.291981e+01	8.691017e+02
9.800000e-07	1.932926e-06	1.461430e-08	1.375902e+01	9.555132e+02
9.900000e-07	2.050078e-06	1.585447e-08	1.459294e+01	1.037455e+03
1.000000e-06	2.166364e-06	1.701881e-08	1.542069e+01	1.114497e+03
1.010000e-06	2.281715e-06	1.810810e-08	1.624178e+01	1.186500e+03
1.020000e-06	2.396160e-06	1.912415e-08	1.705642e+01	1.253577e+03
1.030000e-06	2.509632e-06	2.007134e-08	1.786414e+01	1.316017e+03
1.040000e-06	2.621984e-06	2.095561e-08	1.866390e+01	1.374209e+03
1.050000e-06	2.733252e-06	2.178033e-08	1.945593e+01	1.428565e+03
1.060000e-06	2.843575e-06	2.255328e-08	2.024123e+01	1.479463e+03
1.070000e-06	2.952977e-06	2.327827e-08	2.101998e+01	1.527214e+03
1.080000e-06	3.061392e-06	2.396006e-08	2.179170e+01	1.572063e+03
1.090000e-06	3.168781e-06	2.459752e-08	2.255612e+01	1.614197e+03
1.100000e-06	3.275084e-06	2.519460e-08	2.331281e+01	1.653771e+03
1.110000e-06	3.380034e-06	2.575605e-08	2.405987e+01	1.690931e+03
1.120000e-06	3.483594e-06	2.628534e-08	2.479704e+01	1.725835e+03
1.130000e-06	3.586002e-06	2.678406e-08	2.552600e+01	1.758657e+03
1.140000e-06	3.687294e-06	2.725362e-08	2.624702e+01	1.789577e+03
1.150000e-06	3.787323e-06	2.769808e-08	2.695905e+01	1.818779e+03
1.160000e-06	3.885988e-06	2.811894e-08	2.766137e+01	1.846426e+03
1.170000e-06	3.983117e-06	2.851808e-08	2.835276e+01	1.872654e+03
1.180000e-06	4.078675e-06	2.889719e-08	2.903296e+01	1.897566e+03
1.190000e-06	4.172876e-06	2.925553e-08	2.970350e+01	1.921234e+03
1.200000e-06	4.265749e-06	2.959462e-08	3.036460e+01	1.943710e+03
1.210000e-06	4.357191e-06	2.991692e-08	3.101550e+01	1.965036e+03
1.220000e-06	4.447030e-06	3.022289e-08	3.165500e+01	1.985256e+03
1.230000e-06	4.535130e-06	3.051592e-08	3.228211e+01	2.004424e+03
1.240000e-06	4.621569e-06	3.079162e-08	3.289741e+01	2.022605e+03
1.250000e-06	4.706462e-06	3.105189e-08	3.350169e+01	2.039870e+03
1.260000e-06	4.789894e-06	3.130049e-08	3.409559e+01	2.056290e+03
1.270000e-06	4.871651e-06	3.153897e-08	3.467755e+01	2.071929e+03
1.280000e-06	4.951509e-06	3.176671e-08	3.524600e+01	2.086837e+03
1.290000e-06	5.029487e-06	3.198257e-08	3.580106e+01	2.101049e+03
1.300000e-06	5.105553e-06	3.218548e-08	3.634252e+01	2.114591e+03
1.310000e-06	5.179543e-06	3.237717e-08	3.686920e+01	2.127479e+03
1.320000e-06	5.251469e-06	3.255950e-08	3.738118e+01	2.139732e+03
1.330000e-06	5.321530e-06	3.273337e-08	3.787989e+01	2.151372e+03
1.340000e-06	5.389756e-06	3.290126e-08	3.836554e+01	2.162429e+03
1.350000e-06	5.456059e-06	3.306461e-08	3.883750e+01	2.172934e+03
1.360000e-06	5.520303e-06	3.322029e-08	3.929481e+01	2.182922e+03
1.370000e-06	5.582576e-06	3.336669e-08	3.973808e+01	2.192417e+03
1.380000e-06	5.643041e-06	3.350530e-08	4.016849e+01	2.201438e+03
1.390000e-06	5.701587e-06	3.363553e-08	4.058523e+01	2.209987e+03
1.400000e-06	5.758024e-06	3.375835e-08	4.098696e+01	2.218063e+03
1.410000e-06	5.812357e-06	3.387392e-08	4.137371e+01	2.225660e+03
1.420000e-06	5.864440e-06	3.398315e-08	4.174445e+01	2.232774e+03
1.430000e-06	5.914043e-06	3.408486e-08	4.209754e+01	2.239416e+03
1.440000e-06	5.961320e-06	3.418031e-08	4.243407e+01	2.245608e+03
1.450000e-06	6.006561e-06	3.426918e-08	4.275610e+01	2.251382e+03
1.460000e-06	6.049887e-06	3.435038e-08	4.306451e+01	2.256782e+03
1.470000e-06	6.091045e-06	3.442705e-08	4.335748e+01	2.261848e+03
1.480000e-06	6.129864e-06	3.449944e-08	4.363381e+01	2.266612e+03
1.490000e-06	6.166635e-06	3.456698e-08	4.389555e+01	2.271091e+03
1.500000e-06	6.201249e-06	3.462926e-08	4.414194e+01	2.275285e+03
1.510000e-06	6.233550e-06	3.468950e-08	4.437187e+01	2.279180e+03
1.520000e-06	6.263721e-06	3.474547e-08	4.458663e+01	2.282752e+03
1.530000e-06	6.291851e-06	3.479575e-08	4.478686e+01	2.285979e+03
1.540000e-06	6.317662e-06	3.484084e-08	4.497060e+01	2.288842e+03
1.550000e-06	6.341009e-06	3.487901e-08	4.513678e+01	2.291339e+03
1.560000e-06	6.362159e-06	3.491086e-08	4.528733e+01	2.293480e+03
1.570000e-06	6.381159e-06	3.493710e-08	4.542258e+01	2.295286e+03
1.580000e-06	6.397833e-06	3.495885e-08	4.554127e+01	2.296784e+03
1.590000e-06	6.412098e-06	3.497660e-08	4.564281e+01	2.298000e+03
1.600000e-06	6.423969e-06	3.499024e-08	4.572731e+01	2.298955e+03
1.610000e-06	6.433264e-06	3.500124e-08	4.579348e+01	2.299661e+03
1.620000e-06	6.440072e-06	3.501042e-08	4.584194e+01	2.300120e+03
1.630000e-06	6.444778e-06	3.501665e-08	4.587543e+01	2.300331e+03
1.640000e-06	6.447189e-06	3.502088e-08	4.589260e+01	2.300292e+03
1.650000e-06	6.447183e-06	3.502256e-08	4.589256e+01	2.300002e+03
1.660000e-06	6.445041e-06	3.500408e-08	4.587731e+01	2.299468e+03
1.670000e-06	6.440866e-06	3.498811e-08	4.584759e+01	2.298697e+03
1.680000e-06	6.434395e-06	3.497450e-08	4.580153e+01	2.297696e+03
1.690000e-06	6.425713e-06	3.495581e-08	4.573972e+01	2.296470e+03
1.700000e-06	6.415112e-06	3.493723e-08	4.566426e+01	2.295013e+03
1.710000e-06	6.402323e-06	3.491963e-08	4.557323e+01	2.293312e+03
1.720000e-06	6.387266e-06	3.492173e-08	4.546605e+01	2.291352e+03
1.730000e-06	6.370221e-06	3.485148e-08	4.534472e+01	2.289121e+03
1.740000e-06	6.351026e-06	3.468362e-08	4.520809e+01	2.286618e+03
1.750000e-06	6.328912e-06	3.469748e-08	4.505067e+01	2.283863e+03
1.760000e-06	6.303675e-06	3.472221e-08	4.487103e+01	2.280895e+03
1.770000e-06	6.276140e-06	3.464171e-08	4.467503e+01	2.277773e+03
1.780000e-06	6.246689e-06	3.475452e-08	4.446539e+01	2.274562e+03
1.790000e-06	6.215576e-06	3.466841e-08	4.424392e+01	2.271320e+03
1.800000e-06	6.183083e-06	3.439611e-08	4.401263e+01	2.268080e+03
1.810000e-06	6.148595e-06	3.454065e-08	4.376713e+01	2.264837e+03
1.820000e-06	6.112023e-06	3.441617e-08	4.350680e+01	2.261543e+03
1.830000e-06	6.073301e-06	3.439777e-08	4.323118e+01	2.258110e+03
1.840000e-06	6.032131e-06	3.459492e-08	4.293812e+01	2.254419e+03
1.850000e-06	5.988957e-06	3.425597e-08	4.263079e+01	2.250347e+03
1.860000e-06	5.943759e-06	3.426672e-08	4.230907e+01	2.245785e+03
1.870000e-06	5.896313e-06	3.420572e-08	4.197133e+01	2.240659e+03
1.880000e-06	5.846774e-06	3.402682e-08	4.161871e+01	2.234946e+03
1.890000e-06	5.794748e-06	3.411924e-08	4.124837e+01	2.228670e+03
1.900000e-06	5.740129e-06	3.386655e-08	4.085958e+01	2.221896e+03
1.910000e-06	5.683272e-06	3.383388e-08	4.045485e+01	2.214713e+03
1.920000e-06	5.624439e-06	3.374355e-08	4.003607e+01	2.207208e+03
1.930000e-06	5.563749e-06	3.351969e-08	3.960407e+01	2.199442e+03
1.940000e-06	5.500897e-06	3.352214e-08	3.915667e+01	2.191445e+03
1.950000e-06	5.435953e-06	3.329845e-08	3.869438e+01	2.183200e+03
1.960000e-06	5.369048e-06	3.326225e-08	3.821813e+01	2.174659e+03
1.970000e-06	5.300048e-06	3.306926e-08	3.772698e+01	2.165754e+03
1.980000e-06	5.228888e-06	3.289268e-08	3.722045e+01	2.156413e+03
1.990000e-06	5.155765e-06	3.283140e-08	3.669994e+01	2.146584e+03
2.000000e-06	5.080862e-06	3.259475e-08	3.616676e+01	2.136242e+03
2.010000e-06	5.003830e-06	3.250038e-08	3.561843e+01	2.125392e+03
2.020000e-06	4.924724e-06	3.225734e-08	3.505534e+01	2.114062e+03
2.030000e-06	4.843881e-06	3.210808e-08	3.447987e+01	2.102288e+03
2.040000e-06	4.761397e-06	3.194279e-08	3.389274e+01	2.090102e+03
2.050000e-06	4.677456e-06	3.172191e-08	3.329522e+01	2.077512e+03
2.060000e-06	4.591787e-06	3.155458e-08	3.268541e+01	2.064499e+03
2.070000e-06	4.504310e-06	3.131215e-08	3.206273e+01	2.051018e+03
2.080000e-06	4.415273e-06	3.113454e-08	3.142894e+01	2.037007e+03
2.090000e-06	4.324741e-06	3.087852e-08	3.078452e+01	2.022397e+03
2.100000e-06	4.232871e-06	3.066639e-08	3.013056e+01	2.007131e+03
2.110000e-06	4.139542e-06	3.043080e-08	2.946623e+01	1.991174e+03
2.120000e-06	4.044581e-06	3.017083e-08	2.879027e+01	1.974511e+03
2.130000e-06	3.948161e-06	2.990697e-08	2.810393e+01	1.957147e+03
2.140000e-06	3.850458e-06	2.961677e-08	2.740846e+01	1.939094e+03
2.150000e-06	3.751458e-06	2.935022e-08	2.670376e+01	1.920357e+03
2.160000e-06	3.651107e-06	2.904569e-08	2.598943e+01	1.900921e+03
2.170000e-06	3.549249e-06	2.875302e-08	2.526438e+01	1.880749e+03
2.180000e-06	3.445966e-06	2.842269e-08	2.452919e+01	1.859777e+03
2.190000e-06	3.341399e-06	2.809097e-08	2.378486e+01	1.837923e+03
2.200000e-06	3.235627e-06	2.773525e-08	2.303195e+01	1.815102e+03
2.210000e-06	3.128841e-06	2.737483e-08	2.227182e+01	1.791235e+03
2.220000e-06	3.020986e-06	2.699986e-08	2.150409e+01	1.766257e+03
2.230000e-06	2.912009e-06	2.660219e-08	2.072836e+01	1.740121e+03
2.240000e-06	2.801921e-06	2.618672e-08	1.994473e+01	1.712788e+03
2.250000e-06	2.690776e-06	2.574762e-08	1.915357e+01	1.684218e+03
2.260000e-06	2.578598e-06	2.529758e-08	1.835507e+01	1.654353e+03
2.270000e-06	2.465377e-06	2.481999e-08	1.754913e+01	1.623110e+03
2.280000e-06	2.351171e-06	2.432845e-08	1.673619e+01	1.590371e+03
2.290000e-06	2.236080e-06	2.380136e-08	1.591694e+01	1.555988e+03
2.300000e-06	2.120157e-06	2.324758e-08	1.509178e+01	1.519794e+03
2.310000e-06	2.003348e-06	2.266297e-08	1.426030e+01	1.481617e+03
2.320000e-06	1.885632e-06	2.205086e-08	1.342237e+01	1.441291e+03
2.330000e-06	1.767185e-06	2.140300e-08	1.257923e+01	1.398664e+03
2.340000e-06	1.648105e-06	2.071707e-08	1.173160e+01	1.353598e+03
2.350000e-06	1.528368e-06	1.999394e-08	1.087928e+01	1.305963e+03
2.360000e-06	1.408060e-06	1.922822e-08	1.002290e+01	1.255617e+03
2.370000e-06	1.287319e-06	1.841802e-08	9.163441e+00	1.202406e+03
2.380000e-06	1.166301e-06	1.755920e-08	8.302002e+00	1.146155e+03
2.390000e-06	1.044952e-06	1.665462e-08	7.438213e+00	1.086683e+03
2.400000e-06	9.232335e-07	1.569414e-08	6.571792e+00	1.023837e+03
2.410000e-06	8.011497e-07	1.468205e-08	5.702771e+00	9.575232e+02
2.420000e-06	6.787735e-07	1.361941e-08	4.831669e+00	8.877610e+02
2.430000e-06	5.562695e-07	1.250669e-08	3.959656e+00	8.147137e+02
2.440000e-06	4.335710e-07	1.134676e-08	3.086260e+00	7.387074e+02
2.450000e-06	3.107282e-07	1.014526e-08	2.211836e+00	6.602175e+02
2.460000e-06	1.878416e-07	8.916110e-09	1.337100e+00	5.798240e+02
2.470000e-06	6.487622e-08	7.668711e-09	4.618041e-01	4.981372e+02
2.480000e-06	-5.810542e-08	6.412651e-09	-4.136079e-01	4.157084e+02
2.490000e-06	-1.810758e-07	5.151470e-09	-1.288940e+00	3.329410e+02
2.500000e-06	-3.040165e-07	3.886588e-09	-2.164060e+00	2.500219e+02
2.510000e-06	-4.268866e-07	2.617210e-09	-3.038679e+00	1.668919e+02
2.520000e-06	-5.496437e-07	1.335569e-09	-3.912492e+00	8.326269e+01
2.530000e-06	-6.722956e-07	3.759909e-11	-4.785557e+00	-1.316468e+00
2.540000e-06	-7.947980e-07	-1.279386e-09	-5.657558e+00	-8.735295e+01
2.550000e-06	-9.170376e-07	-2.619707e-09	-6.527688e+00	-1.752847e+02
2.560000e-06	-1.038940e-06	-3.989577e-09	-7.395417e+00	-2.653573e+02
2.570000e-06	-1.160428e-06	-5.393108e-09	-8.260199e+00	-3.575283e+02
2.580000e-06	-1.281554e-06	-6.824430e-09	-9.122398e+00	-4.514181e+02
2.590000e-06	-1.402251e-06	-8.273853e-09	-9.981548e+00	-5.463178e+02
2.600000e-06	-1.522367e-06	-9.728614e-09	-1.083657e+01	-6.412527e+02
2.610000e-06	-1.641902e-06	-1.116946e-08	-1.168744e+01	-7.350890e+02
2.620000e-06	-1.760810e-06	-1.257553e-08	-1.253386e+01	-8.266652e+02
2.630000e-06	-1.879071e-06	-1.392907e-08	-1.337567e+01	-9.149222e+02
2.640000e-06	-1.996572e-06	-1.521854e-08	-1.421207e+01	-9.990116e+02
2.650000e-06	-2.113103e-06	-1.643618e-08	-1.504156e+01	-1.078363e+03
2.660000e-06	-2.228619e-06	-1.757484e-08	-1.586383e+01	-1.152706e+03
2.670000e-06	-2.343202e-06	-1.863614e-08	-1.667946e+01	-1.222043e+03
2.680000e-06	-2.456823e-06	-1.962503e-08	-1.748824e+01	-1.286591e+03
2.690000e-06	-2.569423e-06	-2.054591e-08	-1.828976e+01	-1.346704e+03
2.700000e-06	-2.680935e-06	-2.140730e-08	-1.908352e+01	-1.402792e+03
2.710000e-06	-2.791279e-06	-2.221443e-08	-1.986897e+01	-1.455252e+03
2.720000e-06	-2.900665e-06	-2.297173e-08	-2.064761e+01	-1.504430e+03
2.730000e-06	-3.009147e-06	-2.368271e-08	-2.141981e+01	-1.550601e+03
2.740000e-06	-3.116627e-06	-2.434648e-08	-2.218488e+01	-1.593975e+03
2.750000e-06	-3.223165e-06	-2.496612e-08	-2.294324e+01	-1.634719e+03
2.760000e-06	-3.328629e-06	-2.554984e-08	-2.369396e+01	-1.672981e+03
2.770000e-06	-3.432870e-06	-2.610239e-08	-2.443597e+01	-1.708913e+03
2.780000e-06	-3.535884e-06	-2.662051e-08	-2.516925e+01	-1.742679e+03
2.790000e-06	-3.637553e-06	-2.710542e-08	-2.589295e+01	-1.774459e+03
2.800000e-06	-3.737806e-06	-2.756445e-08	-2.660658e+01	-1.804437e+03
2.810000e-06	-3.836787e-06	-2.800057e-08	-2.731115e+01	-1.832787e+03
2.820000e-06	-3.934565e-06	-2.841309e-08	-2.800715e+01	-1.859659e+03
2.830000e-06	-4.031035e-06	-2.880473e-08	-2.869385e+01	-1.885172e+03
2.840000e-06	-4.126127e-06	-2.917759e-08	-2.937074e+01	-1.909410e+03
2.850000e-06	-4.219736e-06	-2.952945e-08	-3.003707e+01	-1.932434e+03
2.860000e-06	-4.311787e-06	-2.986173e-08	-3.069231e+01	-1.954289e+03
2.870000e-06	-4.402344e-06	-3.017711e-08	-3.133691e+01	-1.975017e+03
2.880000e-06	-4.491314e-06	-3.047802e-08	-3.197022e+01	-1.994667e+03
2.890000e-06	-4.578644e-06	-3.076524e-08	-3.259186e+01	-2.013297e+03
2.900000e-06	-4.664283e-06	-3.103689e-08	-3.320146e+01	-2.030978e+03
2.910000e-06	-4.748208e-06	-3.129392e-08	-3.379885e+01	-2.047782e+03
2.920000e-06	-4.830491e-06	-3.153942e-08	-3.438456e+01	-2.063777e+03
2.930000e-06	-4.911123e-06	-3.177489e-08	-3.495852e+01	-2.079019e+03
2.940000e-06	-4.989924e-06	-3.199967e-08	-3.551944e+01	-2.093551e+03
