# Temperatura_=_31.1
# Concentracion g/m^3_=_28200.0
# C_Vs_to_Am_M_A/Vsm_=_65563218390.804596
# pendiente_HvsI_1/m_=_3716.3
# ordenada_HvsI_A/m_=_1297.0
# frecuencia_Hz_=_302145.3800292496

Tiempo_(s)	Campo_(V.s)	Magnetizacion_(V.s)	Campo_(kA/m)	Magnetizacion_(A/m)
0.000000e+00	-6.420865e-06	-3.472465e-08	-4.584896e+01	-2.274702e+03
1.000000e-08	-6.417819e-06	-3.471822e-08	-4.582720e+01	-2.274167e+03
2.000000e-08	-6.412647e-06	-3.470282e-08	-4.579027e+01	-2.273365e+03
3.000000e-08	-6.405588e-06	-3.468664e-08	-4.573987e+01	-2.272278e+03
4.000000e-08	-6.396431e-06	-3.466667e-08	-4.567448e+01	-2.270903e+03
5.000000e-08	-6.384843e-06	-3.463984e-08	-4.559174e+01	-2.269253e+03
6.000000e-08	-6.370910e-06	-3.460705e-08	-4.549224e+01	-2.267352e+03
7.000000e-08	-6.354665e-06	-3.456295e-08	-4.537624e+01	-2.265240e+03
8.000000e-08	-6.336281e-06	-3.454420e-08	-4.524497e+01	-2.262955e+03
9.000000e-08	-6.315756e-06	-3.459833e-08	-4.509841e+01	-2.260534e+03
1.000000e-07	-6.292794e-06	-3.454133e-08	-4.493444e+01	-2.258001e+03
1.100000e-07	-6.267217e-06	-3.442517e-08	-4.475181e+01	-2.255359e+03
1.200000e-07	-6.239204e-06	-3.438005e-08	-4.455178e+01	-2.252591e+03
1.300000e-07	-6.209288e-06	-3.428721e-08	-4.433816e+01	-2.249662e+03
1.400000e-07	-6.177844e-06	-3.412176e-08	-4.411363e+01	-2.246519e+03
1.500000e-07	-6.144671e-06	-3.423844e-08	-4.387675e+01	-2.243106e+03
1.600000e-07	-6.109423e-06	-3.420926e-08	-4.362507e+01	-2.239366e+03
1.700000e-07	-6.072314e-06	-3.399785e-08	-4.336008e+01	-2.235255e+03
1.800000e-07	-6.033196e-06	-3.407057e-08	-4.308076e+01	-2.230746e+03
1.900000e-07	-5.991572e-06	-3.390971e-08	-4.278353e+01	-2.225832e+03
2.000000e-07	-5.947712e-06	-3.379963e-08	-4.247035e+01	-2.220526e+03
2.100000e-07	-5.901822e-06	-3.381792e-08	-4.214266e+01	-2.214855e+03
2.200000e-07	-5.853692e-06	-3.367351e-08	-4.179899e+01	-2.208855e+03
2.300000e-07	-5.803063e-06	-3.360574e-08	-4.143746e+01	-2.202563e+03
2.400000e-07	-5.749891e-06	-3.349587e-08	-4.105778e+01	-2.196006e+03
2.500000e-07	-5.694572e-06	-3.336457e-08	-4.066277e+01	-2.189202e+03
2.600000e-07	-5.637040e-06	-3.329380e-08	-4.025196e+01	-2.182149e+03
2.700000e-07	-5.577295e-06	-3.315751e-08	-3.982534e+01	-2.174834e+03
2.800000e-07	-5.515629e-06	-3.304887e-08	-3.938501e+01	-2.167231e+03
2.900000e-07	-5.451996e-06	-3.291936e-08	-3.893063e+01	-2.159305e+03
3.000000e-07	-5.386252e-06	-3.280768e-08	-3.846117e+01	-2.151024e+03
3.100000e-07	-5.318398e-06	-3.266679e-08	-3.797666e+01	-2.142359e+03
3.200000e-07	-5.248604e-06	-3.251759e-08	-3.747828e+01	-2.133289e+03
3.300000e-07	-5.177075e-06	-3.239211e-08	-3.696753e+01	-2.123802e+03
3.400000e-07	-5.103679e-06	-3.220833e-08	-3.644343e+01	-2.113896e+03
3.500000e-07	-5.028109e-06	-3.207304e-08	-3.590381e+01	-2.103569e+03
3.600000e-07	-4.950423e-06	-3.190863e-08	-3.534909e+01	-2.092822e+03
3.700000e-07	-4.870694e-06	-3.173061e-08	-3.477977e+01	-2.081651e+03
3.800000e-07	-4.789088e-06	-3.156624e-08	-3.419705e+01	-2.070043e+03
3.900000e-07	-4.705931e-06	-3.136987e-08	-3.360326e+01	-2.057977e+03
4.000000e-07	-4.621370e-06	-3.117102e-08	-3.299945e+01	-2.045428e+03
4.100000e-07	-4.535350e-06	-3.096994e-08	-3.238521e+01	-2.032362e+03
4.200000e-07	-4.447868e-06	-3.077391e-08	-3.176054e+01	-2.018748e+03
4.300000e-07	-4.358910e-06	-3.055362e-08	-3.112531e+01	-2.004557e+03
4.400000e-07	-4.268322e-06	-3.031748e-08	-3.047846e+01	-1.989765e+03
4.500000e-07	-4.176109e-06	-3.008452e-08	-2.982001e+01	-1.974352e+03
4.600000e-07	-4.082454e-06	-2.983517e-08	-2.915125e+01	-1.958305e+03
4.700000e-07	-3.987468e-06	-2.958296e-08	-2.847299e+01	-1.941608e+03
4.800000e-07	-3.891103e-06	-2.931920e-08	-2.778488e+01	-1.924242e+03
4.900000e-07	-3.793209e-06	-2.904622e-08	-2.708586e+01	-1.906182e+03
5.000000e-07	-3.693810e-06	-2.875578e-08	-2.637609e+01	-1.887392e+03
5.100000e-07	-3.593088e-06	-2.845154e-08	-2.565687e+01	-1.867828e+03
5.200000e-07	-3.491123e-06	-2.814005e-08	-2.492878e+01	-1.847437e+03
5.300000e-07	-3.387955e-06	-2.781175e-08	-2.419209e+01	-1.826165e+03
5.400000e-07	-3.283591e-06	-2.747061e-08	-2.344688e+01	-1.803954e+03
5.500000e-07	-3.177963e-06	-2.711304e-08	-2.269262e+01	-1.780749e+03
5.600000e-07	-3.071026e-06	-2.674429e-08	-2.192903e+01	-1.756495e+03
5.700000e-07	-2.962855e-06	-2.635814e-08	-2.115662e+01	-1.731139e+03
5.800000e-07	-2.853614e-06	-2.595524e-08	-2.037657e+01	-1.704622e+03
5.900000e-07	-2.743403e-06	-2.553310e-08	-1.958960e+01	-1.676877e+03
6.000000e-07	-2.632220e-06	-2.508933e-08	-1.879568e+01	-1.647825e+03
6.100000e-07	-2.520123e-06	-2.462405e-08	-1.799524e+01	-1.617371e+03
6.200000e-07	-2.407041e-06	-2.413243e-08	-1.718777e+01	-1.585402e+03
6.300000e-07	-2.292878e-06	-2.361606e-08	-1.637257e+01	-1.551794e+03
6.400000e-07	-2.177735e-06	-2.307244e-08	-1.555038e+01	-1.516415e+03
6.500000e-07	-2.061630e-06	-2.250383e-08	-1.472131e+01	-1.479126e+03
6.600000e-07	-1.944733e-06	-2.190392e-08	-1.388660e+01	-1.439791e+03
6.700000e-07	-1.827282e-06	-2.126966e-08	-1.304792e+01	-1.398271e+03
6.800000e-07	-1.709236e-06	-2.060111e-08	-1.220501e+01	-1.354429e+03
6.900000e-07	-1.590533e-06	-1.989263e-08	-1.135739e+01	-1.308122e+03
7.000000e-07	-1.471240e-06	-1.914320e-08	-1.050557e+01	-1.259200e+03
7.100000e-07	-1.351491e-06	-1.834961e-08	-9.650486e+00	-1.207510e+03
7.200000e-07	-1.231345e-06	-1.751350e-08	-8.792566e+00	-1.152898e+03
7.300000e-07	-1.110784e-06	-1.663213e-08	-7.931683e+00	-1.095230e+03
7.400000e-07	-9.898202e-07	-1.570376e-08	-7.067930e+00	-1.034409e+03
7.500000e-07	-8.684916e-07	-1.472806e-08	-6.201568e+00	-9.704130e+02
7.600000e-07	-7.468250e-07	-1.370525e-08	-5.332793e+00	-9.033145e+02
7.700000e-07	-6.248628e-07	-1.263753e-08	-4.461907e+00	-8.333103e+02
7.800000e-07	-5.026775e-07	-1.153239e-08	-3.589429e+00	-7.607289e+02
7.900000e-07	-3.803413e-07	-1.039524e-08	-2.715873e+00	-6.860221e+02
8.000000e-07	-2.578485e-07	-9.229035e-09	-1.841198e+00	-6.097338e+02
8.100000e-07	-1.352350e-07	-8.046761e-09	-9.656615e-01	-5.324492e+02
8.200000e-07	-1.255644e-08	-6.861711e-09	-8.966077e-02	-4.547291e+02
8.300000e-07	1.101695e-07	-5.682005e-09	7.866783e-01	-3.770382e+02
8.400000e-07	2.328975e-07	-4.507153e-09	1.663032e+00	-2.996819e+02
8.500000e-07	3.555631e-07	-3.341405e-09	2.538941e+00	-2.227612e+02
8.600000e-07	4.780844e-07	-2.180410e-09	3.413819e+00	-1.461572e+02
8.700000e-07	6.004500e-07	-1.013149e-09	4.287585e+00	-6.955093e+01
8.800000e-07	7.226225e-07	1.649496e-10	5.159972e+00	7.522877e+00
8.900000e-07	8.445402e-07	1.357997e-09	6.030540e+00	8.559386e+01
9.000000e-07	9.661477e-07	2.570511e-09	6.898893e+00	1.651586e+02
9.100000e-07	1.087373e-06	3.811105e-09	7.764515e+00	2.465829e+02
9.200000e-07	1.208196e-06	5.083005e-09	8.627267e+00	3.300202e+02
9.300000e-07	1.328556e-06	6.383276e-09	9.486715e+00	4.153586e+02
9.400000e-07	1.448374e-06	7.706198e-09	1.034229e+01	5.022076e+02
9.500000e-07	1.567655e-06	9.043003e-09	1.119403e+01	5.899232e+02
9.600000e-07	1.686387e-06	1.037982e-08	1.204185e+01	6.776708e+02
9.700000e-07	1.804530e-06	1.170077e-08	1.288547e+01	7.645109e+02
9.800000e-07	1.922074e-06	1.299427e-08	1.372480e+01	8.494967e+02
9.900000e-07	2.038898e-06	1.424688e-08	1.455900e+01	9.317668e+02
1.000000e-06	2.154874e-06	1.544466e-08	1.538713e+01	1.010619e+03
1.010000e-06	2.269899e-06	1.657988e-08	1.620849e+01	1.085556e+03
1.020000e-06	2.383883e-06	1.765017e-08	1.702240e+01	1.156302e+03
1.030000e-06	2.496849e-06	1.865619e-08	1.782905e+01	1.222785e+03
1.040000e-06	2.608854e-06	1.959977e-08	1.862884e+01	1.285103e+03
1.050000e-06	2.719883e-06	2.048293e-08	1.942165e+01	1.343468e+03
1.060000e-06	2.829927e-06	2.131423e-08	2.020743e+01	1.398157e+03
1.070000e-06	2.939036e-06	2.209546e-08	2.098653e+01	1.449462e+03
1.080000e-06	3.047245e-06	2.282857e-08	2.175922e+01	1.497661e+03
1.090000e-06	3.154435e-06	2.351598e-08	2.252462e+01	1.542992e+03
1.100000e-06	3.260392e-06	2.416096e-08	2.328122e+01	1.585656e+03
1.110000e-06	3.365034e-06	2.476728e-08	2.402843e+01	1.625820e+03
1.120000e-06	3.468409e-06	2.533958e-08	2.476659e+01	1.663631e+03
1.130000e-06	3.570593e-06	2.587855e-08	2.549625e+01	1.699228e+03
1.140000e-06	3.671607e-06	2.638569e-08	2.621755e+01	1.732751e+03
1.150000e-06	3.771416e-06	2.686475e-08	2.693024e+01	1.764345e+03
1.160000e-06	3.869867e-06	2.731794e-08	2.763325e+01	1.794160e+03
1.170000e-06	3.966731e-06	2.774685e-08	2.832491e+01	1.822338e+03
1.180000e-06	4.062060e-06	2.815253e-08	2.900563e+01	1.849015e+03
1.190000e-06	4.156029e-06	2.853768e-08	2.967662e+01	1.874308e+03
1.200000e-06	4.248665e-06	2.890262e-08	3.033810e+01	1.898313e+03
1.210000e-06	4.339956e-06	2.924922e-08	3.098997e+01	1.921110e+03
1.220000e-06	4.429580e-06	2.957853e-08	3.162995e+01	1.942759e+03
1.230000e-06	4.517459e-06	2.989341e-08	3.225746e+01	1.963315e+03
1.240000e-06	4.603730e-06	3.019005e-08	3.287348e+01	1.982825e+03
1.250000e-06	4.688429e-06	3.047009e-08	3.347829e+01	2.001341e+03
1.260000e-06	4.771629e-06	3.073594e-08	3.407239e+01	2.018913e+03
1.270000e-06	4.853159e-06	3.098862e-08	3.465456e+01	2.035598e+03
1.280000e-06	4.932825e-06	3.122921e-08	3.522343e+01	2.051451e+03
1.290000e-06	5.010606e-06	3.145889e-08	3.577883e+01	2.066525e+03
1.300000e-06	5.086524e-06	3.167602e-08	3.632093e+01	2.080867e+03
1.310000e-06	5.160355e-06	3.188239e-08	3.684813e+01	2.094517e+03
1.320000e-06	5.232129e-06	3.207987e-08	3.736064e+01	2.107508e+03
1.330000e-06	5.302090e-06	3.226650e-08	3.786020e+01	2.119865e+03
1.340000e-06	5.370287e-06	3.244417e-08	3.834718e+01	2.131612e+03
1.350000e-06	5.436485e-06	3.261407e-08	3.881987e+01	2.142767e+03
1.360000e-06	5.500587e-06	3.277513e-08	3.927760e+01	2.153351e+03
1.370000e-06	5.562804e-06	3.292705e-08	3.972187e+01	2.163382e+03
1.380000e-06	5.623221e-06	3.307152e-08	4.015328e+01	2.172879e+03
1.390000e-06	5.681629e-06	3.321059e-08	4.057035e+01	2.181856e+03
1.400000e-06	5.737944e-06	3.334509e-08	4.097247e+01	2.190329e+03
1.410000e-06	5.792231e-06	3.347249e-08	4.136012e+01	2.198308e+03
1.420000e-06	5.844242e-06	3.358970e-08	4.173151e+01	2.205803e+03
1.430000e-06	5.893783e-06	3.369690e-08	4.208526e+01	2.212826e+03
1.440000e-06	5.940982e-06	3.379678e-08	4.242229e+01	2.219389e+03
1.450000e-06	5.986198e-06	3.389008e-08	4.274516e+01	2.225509e+03
1.460000e-06	6.029402e-06	3.397595e-08	4.305366e+01	2.231211e+03
1.470000e-06	6.070349e-06	3.405544e-08	4.334605e+01	2.236519e+03
1.480000e-06	6.109095e-06	3.412987e-08	4.362272e+01	2.241461e+03
1.490000e-06	6.145860e-06	3.419972e-08	4.388525e+01	2.246060e+03
1.500000e-06	6.180521e-06	3.426667e-08	4.413275e+01	2.250335e+03
1.510000e-06	6.212875e-06	3.433134e-08	4.436378e+01	2.254294e+03
1.520000e-06	6.243050e-06	3.439304e-08	4.457925e+01	2.257934e+03
1.530000e-06	6.271170e-06	3.444695e-08	4.478004e+01	2.261246e+03
1.540000e-06	6.297034e-06	3.449233e-08	4.496472e+01	2.264216e+03
1.550000e-06	6.320461e-06	3.453035e-08	4.513200e+01	2.266829e+03
1.560000e-06	6.341676e-06	3.456177e-08	4.528349e+01	2.269077e+03
1.570000e-06	6.360736e-06	3.458809e-08	4.541959e+01	2.270964e+03
1.580000e-06	6.377450e-06	3.461026e-08	4.553894e+01	2.272504e+03
1.590000e-06	6.391762e-06	3.463015e-08	4.564114e+01	2.273723e+03
1.600000e-06	6.403608e-06	3.464681e-08	4.572573e+01	2.274652e+03
1.610000e-06	6.412933e-06	3.466086e-08	4.579232e+01	2.275326e+03
1.620000e-06	6.419838e-06	3.467328e-08	4.584162e+01	2.275773e+03
1.630000e-06	6.424548e-06	3.468254e-08	4.587525e+01	2.276010e+03
1.640000e-06	6.426971e-06	3.468533e-08	4.589256e+01	2.276042e+03
1.650000e-06	6.426977e-06	3.468249e-08	4.589260e+01	2.275858e+03
1.660000e-06	6.424866e-06	3.466499e-08	4.587752e+01	2.275440e+03
1.670000e-06	6.420763e-06	3.465311e-08	4.584823e+01	2.274764e+03
1.680000e-06	6.414439e-06	3.464328e-08	4.580307e+01	2.273811e+03
1.690000e-06	6.405914e-06	3.462745e-08	4.574219e+01	2.272569e+03
1.700000e-06	6.395399e-06	3.460895e-08	4.566711e+01	2.271044e+03
1.710000e-06	6.382696e-06	3.458819e-08	4.557640e+01	2.269255e+03
1.720000e-06	6.367739e-06	3.458441e-08	4.546960e+01	2.267236e+03
1.730000e-06	6.350817e-06	3.452381e-08	4.534876e+01	2.265026e+03
1.740000e-06	6.331810e-06	3.438841e-08	4.521305e+01	2.262665e+03
1.750000e-06	6.309917e-06	3.438935e-08	4.505672e+01	2.260182e+03
1.760000e-06	6.284887e-06	3.439799e-08	4.487799e+01	2.257591e+03
1.770000e-06	6.257508e-06	3.432443e-08	4.468249e+01	2.254885e+03
1.780000e-06	6.228225e-06	3.442934e-08	4.447338e+01	2.252036e+03
1.790000e-06	6.197306e-06	3.435840e-08	4.425260e+01	2.248999e+03
1.800000e-06	6.164928e-06	3.415517e-08	4.402140e+01	2.245719e+03
1.810000e-06	6.130506e-06	3.429972e-08	4.377561e+01	2.242136e+03
1.820000e-06	6.094041e-06	3.415949e-08	4.351523e+01	2.238202e+03
1.830000e-06	6.055565e-06	3.407049e-08	4.324048e+01	2.233880e+03
1.840000e-06	6.014698e-06	3.414459e-08	4.294867e+01	2.229154e+03
1.850000e-06	5.971749e-06	3.384345e-08	4.264199e+01	2.224027e+03
1.860000e-06	5.926715e-06	3.384615e-08	4.232041e+01	2.218521e+03
1.870000e-06	5.879475e-06	3.376611e-08	4.198310e+01	2.212669e+03
1.880000e-06	5.830150e-06	3.360760e-08	4.163088e+01	2.206508e+03
1.890000e-06	5.778334e-06	3.365035e-08	4.126089e+01	2.200071e+03
1.900000e-06	5.723972e-06	3.340666e-08	4.087271e+01	2.193381e+03
1.910000e-06	5.667416e-06	3.336830e-08	4.046886e+01	2.186444e+03
1.920000e-06	5.608836e-06	3.328931e-08	4.005057e+01	2.179254e+03
1.930000e-06	5.548341e-06	3.308268e-08	3.961859e+01	2.171788e+03
1.940000e-06	5.485729e-06	3.305114e-08	3.917150e+01	2.164016e+03
1.950000e-06	5.420995e-06	3.285769e-08	3.870926e+01	2.155904e+03
1.960000e-06	5.354249e-06	3.280128e-08	3.823265e+01	2.147420e+03
1.970000e-06	5.285531e-06	3.262172e-08	3.774197e+01	2.138540e+03
1.980000e-06	5.214741e-06	3.245605e-08	3.723648e+01	2.129247e+03
1.990000e-06	5.141922e-06	3.237695e-08	3.671651e+01	2.119536e+03
2.000000e-06	5.067312e-06	3.216378e-08	3.618375e+01	2.109404e+03
2.010000e-06	4.990630e-06	3.205674e-08	3.563619e+01	2.098852e+03
2.020000e-06	4.911845e-06	3.183612e-08	3.507361e+01	2.087879e+03
2.030000e-06	4.831264e-06	3.169065e-08	3.449822e+01	2.076475e+03
2.040000e-06	4.749042e-06	3.152966e-08	3.391110e+01	2.064625e+03
2.050000e-06	4.665289e-06	3.131128e-08	3.331306e+01	2.052304e+03
2.060000e-06	4.579883e-06	3.113505e-08	3.270320e+01	2.039482e+03
2.070000e-06	4.492753e-06	3.090681e-08	3.208104e+01	2.026126e+03
2.080000e-06	4.404047e-06	3.072685e-08	3.144762e+01	2.012206e+03
2.090000e-06	4.313850e-06	3.048462e-08	3.080356e+01	1.997695e+03
2.100000e-06	4.222252e-06	3.026932e-08	3.014949e+01	1.982573e+03
2.110000e-06	4.129263e-06	3.003614e-08	2.948549e+01	1.966822e+03
2.120000e-06	4.034740e-06	2.978066e-08	2.881054e+01	1.950429e+03
2.130000e-06	3.938663e-06	2.952219e-08	2.812450e+01	1.933376e+03
2.140000e-06	3.841271e-06	2.924103e-08	2.742906e+01	1.915642e+03
2.150000e-06	3.742569e-06	2.897421e-08	2.672426e+01	1.897195e+03
2.160000e-06	3.642482e-06	2.867447e-08	2.600958e+01	1.877997e+03
2.170000e-06	3.540959e-06	2.838040e-08	2.528464e+01	1.857996e+03
2.180000e-06	3.438012e-06	2.805870e-08	2.454953e+01	1.837141e+03
2.190000e-06	3.333766e-06	2.773255e-08	2.380515e+01	1.815373e+03
2.200000e-06	3.228419e-06	2.738350e-08	2.305291e+01	1.792635e+03
2.210000e-06	3.122011e-06	2.702403e-08	2.229309e+01	1.768875e+03
2.220000e-06	3.014443e-06	2.664724e-08	2.152499e+01	1.744037e+03
2.230000e-06	2.905795e-06	2.625058e-08	2.074918e+01	1.718067e+03
2.240000e-06	2.796102e-06	2.583906e-08	1.996590e+01	1.690901e+03
2.250000e-06	2.685376e-06	2.540297e-08	1.917525e+01	1.662467e+03
2.260000e-06	2.573622e-06	2.495042e-08	1.837726e+01	1.632676e+03
2.270000e-06	2.460820e-06	2.447063e-08	1.757178e+01	1.601425e+03
2.280000e-06	2.347016e-06	2.397586e-08	1.675915e+01	1.568594e+03
2.290000e-06	2.232269e-06	2.344925e-08	1.593978e+01	1.534054e+03
2.300000e-06	2.116674e-06	2.289585e-08	1.511437e+01	1.497669e+03
2.310000e-06	2.000286e-06	2.231177e-08	1.428328e+01	1.459301e+03
2.320000e-06	1.883104e-06	2.169817e-08	1.344653e+01	1.418813e+03
2.330000e-06	1.765132e-06	2.104878e-08	1.260413e+01	1.376066e+03
2.340000e-06	1.646376e-06	2.036215e-08	1.175614e+01	1.330921e+03
2.350000e-06	1.526996e-06	1.963796e-08	1.090370e+01	1.283232e+03
2.360000e-06	1.407153e-06	1.887031e-08	1.004794e+01	1.232847e+03
2.370000e-06	1.286820e-06	1.805830e-08	9.188691e+00	1.179610e+03
2.380000e-06	1.166082e-06	1.719959e-08	8.326551e+00	1.123375e+03
2.390000e-06	1.045068e-06	1.629845e-08	7.462436e+00	1.064026e+03
2.400000e-06	9.237439e-07	1.534805e-08	6.596104e+00	1.001502e+03
2.410000e-06	8.020816e-07	1.434940e-08	5.727359e+00	9.358266e+02
2.420000e-06	6.801800e-07	1.330306e-08	4.856907e+00	8.671385e+02
2.430000e-06	5.581318e-07	1.221286e-08	3.985407e+00	7.957044e+02
2.440000e-06	4.358648e-07	1.108522e-08	3.112345e+00	7.219213e+02
2.450000e-06	3.134449e-07	9.926618e-09	2.238191e+00	6.462954e+02
2.460000e-06	1.909666e-07	8.749619e-09	1.363620e+00	5.694004e+02
2.470000e-06	6.841315e-08	7.563152e-09	4.885123e-01	4.918171e+02
2.480000e-06	-5.421711e-08	6.376021e-09	-3.871437e-01	4.140635e+02
2.490000e-06	-1.768841e-07	5.192906e-09	-1.263062e+00	3.365261e+02
2.500000e-06	-2.995032e-07	4.016275e-09	-2.138639e+00	2.594045e+02
2.510000e-06	-4.219983e-07	2.845910e-09	-3.013329e+00	1.826817e+02
2.520000e-06	-5.443885e-07	1.675108e-09	-3.887271e+00	1.061270e+02
2.530000e-06	-6.666372e-07	4.979339e-10	-4.760203e+00	2.933423e+01
2.540000e-06	-7.886645e-07	-6.908404e-10	-5.631553e+00	-4.820779e+01
2.550000e-06	-9.104713e-07	-1.896690e-09	-6.501329e+00	-1.270235e+02
2.560000e-06	-1.032007e-06	-3.126643e-09	-7.369166e+00	-2.075510e+02
2.570000e-06	-1.153142e-06	-4.383745e-09	-8.234149e+00	-2.900508e+02
2.580000e-06	-1.273823e-06	-5.667421e-09	-9.095888e+00	-3.745385e+02
2.590000e-06	-1.394063e-06	-6.976757e-09	-9.954476e+00	-4.607521e+02
2.600000e-06	-1.513817e-06	-8.308003e-09	-1.080959e+01	-5.481595e+02
2.610000e-06	-1.633039e-06	-9.651768e-09	-1.166091e+01	-6.360051e+02
2.620000e-06	-1.751647e-06	-1.099218e-08	-1.250784e+01	-7.233861e+02
2.630000e-06	-1.869522e-06	-1.231068e-08	-1.334955e+01	-8.093473e+02
2.640000e-06	-1.986545e-06	-1.359231e-08	-1.418516e+01	-8.929768e+02
2.650000e-06	-2.102638e-06	-1.482835e-08	-1.501414e+01	-9.734910e+02
2.660000e-06	-2.217806e-06	-1.600702e-08	-1.583651e+01	-1.050294e+03
2.670000e-06	-2.332007e-06	-1.712030e-08	-1.665198e+01	-1.123006e+03
2.680000e-06	-2.445227e-06	-1.816782e-08	-1.746044e+01	-1.191466e+03
2.690000e-06	-2.557384e-06	-1.915038e-08	-1.826131e+01	-1.255697e+03
2.700000e-06	-2.668400e-06	-2.007237e-08	-1.905403e+01	-1.315865e+03
2.710000e-06	-2.778375e-06	-2.093765e-08	-1.983932e+01	-1.372225e+03
2.720000e-06	-2.887448e-06	-2.175103e-08	-2.061817e+01	-1.425065e+03
2.730000e-06	-2.995624e-06	-2.251566e-08	-2.139061e+01	-1.474674e+03
2.740000e-06	-3.102870e-06	-2.323219e-08	-2.215641e+01	-1.521310e+03
2.750000e-06	-3.209138e-06	-2.390258e-08	-2.291523e+01	-1.565190e+03
2.760000e-06	-3.314248e-06	-2.453377e-08	-2.366578e+01	-1.606495e+03
2.770000e-06	-3.418178e-06	-2.513179e-08	-2.440791e+01	-1.645381e+03
2.780000e-06	-3.520952e-06	-2.569461e-08	-2.514178e+01	-1.681989e+03
2.790000e-06	-3.622361e-06	-2.622238e-08	-2.586590e+01	-1.716457e+03
2.800000e-06	-3.722348e-06	-2.671799e-08	-2.657987e+01	-1.748929e+03
2.810000e-06	-3.821075e-06	-2.718647e-08	-2.728484e+01	-1.779552e+03
2.820000e-06	-3.918616e-06	-2.763130e-08	-2.798134e+01	-1.808472e+03
2.830000e-06	-4.014926e-06	-2.805143e-08	-2.866906e+01	-1.835831e+03
2.840000e-06	-4.109899e-06	-2.844904e-08	-2.934722e+01	-1.861753e+03
2.850000e-06	-4.203269e-06	-2.882665e-08	-3.001395e+01	-1.886345e+03
2.860000e-06	-4.295054e-06	-2.918341e-08	-3.066934e+01	-1.909695e+03
2.870000e-06	-4.385375e-06	-2.951944e-08	-3.131429e+01	-1.931870e+03
2.880000e-06	-4.474107e-06	-2.983717e-08	-3.194789e+01	-1.952927e+03
2.890000e-06	-4.561273e-06	-3.014167e-08	-3.257031e+01	-1.972917e+03
2.900000e-06	-4.646713e-06	-3.043399e-08	-3.318041e+01	-1.991888e+03
2.910000e-06	-4.730438e-06	-3.071143e-08	-3.377826e+01	-2.009892e+03
2.920000e-06	-4.812589e-06	-3.097367e-08	-3.436487e+01	-2.026982e+03
2.930000e-06	-4.893043e-06	-3.122160e-08	-3.493936e+01	-2.043214e+03
2.940000e-06	-4.971558e-06	-3.145798e-08	-3.550000e+01	-2.058644e+03
