# Temperatura_=_93.86
# Concentracion g/m^3_=_28200.0
# C_Vs_to_Am_M_A/Vsm_=_65563218390.804596
# pendiente_HvsI_1/m_=_3716.3
# ordenada_HvsI_A/m_=_1297.0
# frecuencia_Hz_=_302140.5744169685

Tiempo_(s)	Campo_(V.s)	Magnetizacion_(V.s)	Campo_(kA/m)	Magnetizacion_(A/m)
0.000000e+00	-6.418528e-06	-3.588977e-08	-4.585184e+01	-2.346602e+03
1.000000e-08	-6.415860e-06	-3.588643e-08	-4.583279e+01	-2.346061e+03
2.000000e-08	-6.411014e-06	-3.587210e-08	-4.579816e+01	-2.345299e+03
3.000000e-08	-6.404237e-06	-3.585519e-08	-4.574975e+01	-2.344327e+03
4.000000e-08	-6.395451e-06	-3.583654e-08	-4.568699e+01	-2.343144e+03
5.000000e-08	-6.384335e-06	-3.581012e-08	-4.560758e+01	-2.341737e+03
6.000000e-08	-6.370849e-06	-3.577961e-08	-4.551124e+01	-2.340082e+03
7.000000e-08	-6.355015e-06	-3.572923e-08	-4.539813e+01	-2.338155e+03
8.000000e-08	-6.336946e-06	-3.567033e-08	-4.526905e+01	-2.335934e+03
9.000000e-08	-6.316847e-06	-3.572637e-08	-4.512547e+01	-2.333417e+03
1.000000e-07	-6.294484e-06	-3.569350e-08	-4.496571e+01	-2.330628e+03
1.100000e-07	-6.269402e-06	-3.557648e-08	-4.478654e+01	-2.327617e+03
1.200000e-07	-6.241816e-06	-3.554253e-08	-4.458947e+01	-2.324452e+03
1.300000e-07	-6.212279e-06	-3.551119e-08	-4.437847e+01	-2.321210e+03
1.400000e-07	-6.181103e-06	-3.532522e-08	-4.415576e+01	-2.317953e+03
1.500000e-07	-6.148312e-06	-3.535898e-08	-4.392151e+01	-2.314714e+03
1.600000e-07	-6.113511e-06	-3.541374e-08	-4.367290e+01	-2.311477e+03
1.700000e-07	-6.076733e-06	-3.515485e-08	-4.341017e+01	-2.308181e+03
1.800000e-07	-6.038004e-06	-3.521310e-08	-4.313351e+01	-2.304720e+03
1.900000e-07	-5.996824e-06	-3.508792e-08	-4.283933e+01	-2.300961e+03
2.000000e-07	-5.953377e-06	-3.490275e-08	-4.252896e+01	-2.296774e+03
2.100000e-07	-5.907890e-06	-3.497972e-08	-4.220402e+01	-2.292049e+03
2.200000e-07	-5.860155e-06	-3.482376e-08	-4.186301e+01	-2.286723e+03
2.300000e-07	-5.809968e-06	-3.472802e-08	-4.150449e+01	-2.280789e+03
2.400000e-07	-5.757164e-06	-3.465628e-08	-4.112728e+01	-2.274291e+03
2.500000e-07	-5.702158e-06	-3.450011e-08	-4.073433e+01	-2.267312e+03
2.600000e-07	-5.645050e-06	-3.440980e-08	-4.032637e+01	-2.259952e+03
2.700000e-07	-5.585748e-06	-3.427895e-08	-3.990274e+01	-2.252301e+03
2.800000e-07	-5.524471e-06	-3.420238e-08	-3.946500e+01	-2.244418e+03
2.900000e-07	-5.461260e-06	-3.406130e-08	-3.901344e+01	-2.236317e+03
3.000000e-07	-5.395934e-06	-3.391820e-08	-3.854677e+01	-2.227968e+03
3.100000e-07	-5.328475e-06	-3.380495e-08	-3.806487e+01	-2.219310e+03
3.200000e-07	-5.259042e-06	-3.363210e-08	-3.756886e+01	-2.210262e+03
3.300000e-07	-5.187783e-06	-3.350476e-08	-3.705981e+01	-2.200752e+03
3.400000e-07	-5.114751e-06	-3.332775e-08	-3.653809e+01	-2.190730e+03
3.500000e-07	-5.039605e-06	-3.318251e-08	-3.600127e+01	-2.180177e+03
3.600000e-07	-4.962292e-06	-3.301865e-08	-3.544898e+01	-2.169107e+03
3.700000e-07	-4.882919e-06	-3.282036e-08	-3.488196e+01	-2.157554e+03
3.800000e-07	-4.801610e-06	-3.266012e-08	-3.430112e+01	-2.145556e+03
3.900000e-07	-4.718678e-06	-3.246059e-08	-3.370868e+01	-2.133138e+03
4.000000e-07	-4.634388e-06	-3.226297e-08	-3.310654e+01	-2.120304e+03
4.100000e-07	-4.548743e-06	-3.205701e-08	-3.249472e+01	-2.107024e+03
4.200000e-07	-4.461605e-06	-3.185493e-08	-3.187223e+01	-2.093248e+03
4.300000e-07	-4.372981e-06	-3.163631e-08	-3.123913e+01	-2.078909e+03
4.400000e-07	-4.282729e-06	-3.139137e-08	-3.059440e+01	-2.063944e+03
4.500000e-07	-4.190857e-06	-3.115740e-08	-2.993810e+01	-2.048305e+03
4.600000e-07	-4.097548e-06	-3.089799e-08	-2.927153e+01	-2.031965e+03
4.700000e-07	-4.002874e-06	-3.064109e-08	-2.859521e+01	-2.014921e+03
4.800000e-07	-3.906792e-06	-3.037528e-08	-2.790883e+01	-1.997182e+03
4.900000e-07	-3.809220e-06	-3.010099e-08	-2.721181e+01	-1.978759e+03
5.000000e-07	-3.710125e-06	-2.980859e-08	-2.650391e+01	-1.959648e+03
5.100000e-07	-3.609640e-06	-2.950016e-08	-2.578608e+01	-1.939822e+03
5.200000e-07	-3.507901e-06	-2.918401e-08	-2.505929e+01	-1.919224e+03
5.300000e-07	-3.404972e-06	-2.884944e-08	-2.432399e+01	-1.897778e+03
5.400000e-07	-3.300824e-06	-2.851109e-08	-2.358000e+01	-1.875394e+03
5.500000e-07	-3.195423e-06	-2.815274e-08	-2.282704e+01	-1.851985e+03
5.600000e-07	-3.088706e-06	-2.777972e-08	-2.206470e+01	-1.827475e+03
5.700000e-07	-2.980724e-06	-2.738501e-08	-2.129331e+01	-1.801811e+03
5.800000e-07	-2.871689e-06	-2.697487e-08	-2.051440e+01	-1.774952e+03
5.900000e-07	-2.761691e-06	-2.654814e-08	-1.972861e+01	-1.746865e+03
6.000000e-07	-2.650768e-06	-2.610474e-08	-1.893621e+01	-1.717507e+03
6.100000e-07	-2.538866e-06	-2.564274e-08	-1.813682e+01	-1.686808e+03
6.200000e-07	-2.425938e-06	-2.515065e-08	-1.733010e+01	-1.654667e+03
6.300000e-07	-2.311997e-06	-2.462771e-08	-1.651614e+01	-1.620944e+03
6.400000e-07	-2.197030e-06	-2.407629e-08	-1.569486e+01	-1.585472e+03
6.500000e-07	-2.081092e-06	-2.350558e-08	-1.486663e+01	-1.548070e+03
6.600000e-07	-1.964318e-06	-2.290524e-08	-1.403244e+01	-1.508559e+03
6.700000e-07	-1.846871e-06	-2.227030e-08	-1.319344e+01	-1.466775e+03
6.800000e-07	-1.728888e-06	-2.160125e-08	-1.235060e+01	-1.422572e+03
6.900000e-07	-1.610412e-06	-2.089321e-08	-1.150425e+01	-1.375819e+03
7.000000e-07	-1.491423e-06	-2.013775e-08	-1.065423e+01	-1.326385e+03
7.100000e-07	-1.371916e-06	-1.933373e-08	-9.800511e+00	-1.274124e+03
7.200000e-07	-1.251898e-06	-1.848664e-08	-8.943144e+00	-1.218867e+03
7.300000e-07	-1.131387e-06	-1.759447e-08	-8.082257e+00	-1.160421e+03
7.400000e-07	-1.010438e-06	-1.665007e-08	-7.218236e+00	-1.098590e+03
7.500000e-07	-8.891267e-07	-1.565132e-08	-6.351627e+00	-1.033213e+03
7.600000e-07	-7.675304e-07	-1.460204e-08	-5.482983e+00	-9.642078e+02
7.700000e-07	-6.456945e-07	-1.349554e-08	-4.612628e+00	-8.916203e+02
7.800000e-07	-5.236659e-07	-1.233681e-08	-3.740896e+00	-8.156578e+02
7.900000e-07	-4.014898e-07	-1.113670e-08	-2.868110e+00	-7.366979e+02
8.000000e-07	-2.792149e-07	-9.900178e-09	-1.994619e+00	-6.552633e+02
8.100000e-07	-1.567998e-07	-8.631421e-09	-1.120126e+00	-5.719636e+02
8.200000e-07	-3.426167e-08	-7.341680e-09	-2.447540e-01	-4.874093e+02
8.300000e-07	8.829816e-08	-6.045280e-09	6.307729e-01	-4.021163e+02
8.400000e-07	2.108475e-07	-4.742535e-09	1.506225e+00	-3.164184e+02
8.500000e-07	3.333533e-07	-3.433615e-09	2.381366e+00	-2.304102e+02
8.600000e-07	4.557540e-07	-2.117841e-09	3.255756e+00	-1.439345e+02
8.700000e-07	5.780213e-07	-7.879408e-10	4.129193e+00	-5.662271e+01
8.800000e-07	7.000975e-07	5.634144e-10	5.001265e+00	3.201684e+01
8.900000e-07	8.219475e-07	1.942118e-09	5.871722e+00	1.224757e+02
9.000000e-07	9.435901e-07	3.351788e-09	6.740696e+00	2.151114e+02
9.100000e-07	1.064942e-06	4.793680e-09	7.607597e+00	3.100279e+02
9.200000e-07	1.185880e-06	6.266510e-09	8.471535e+00	4.069951e+02
9.300000e-07	1.306366e-06	7.762050e-09	9.332246e+00	5.054242e+02
9.400000e-07	1.426363e-06	9.267425e-09	1.018947e+01	6.044035e+02
9.500000e-07	1.545808e-06	1.076595e-08	1.104274e+01	7.027905e+02
9.600000e-07	1.664613e-06	1.223838e-08	1.189145e+01	7.993403e+02
9.700000e-07	1.782779e-06	1.366340e-08	1.273559e+01	8.928492e+02
9.800000e-07	1.900383e-06	1.502111e-08	1.357571e+01	9.822854e+02
9.900000e-07	2.017267e-06	1.630053e-08	1.441069e+01	1.066887e+03
1.000000e-06	2.133282e-06	1.749621e-08	1.523946e+01	1.146209e+03
1.010000e-06	2.248375e-06	1.861400e-08	1.606165e+01	1.220127e+03
1.020000e-06	2.362495e-06	1.965552e-08	1.687689e+01	1.288783e+03
1.030000e-06	2.475633e-06	2.062619e-08	1.768511e+01	1.352515e+03
1.040000e-06	2.587800e-06	2.152889e-08	1.848639e+01	1.411762e+03
1.050000e-06	2.698954e-06	2.236639e-08	1.928043e+01	1.466987e+03
1.060000e-06	2.809126e-06	2.314848e-08	2.006747e+01	1.518612e+03
1.070000e-06	2.918442e-06	2.388051e-08	2.084839e+01	1.566986e+03
1.080000e-06	3.026819e-06	2.456969e-08	2.162259e+01	1.612375e+03
1.090000e-06	3.134060e-06	2.521526e-08	2.238869e+01	1.654983e+03
1.100000e-06	3.240128e-06	2.581891e-08	2.314640e+01	1.694971e+03
1.110000e-06	3.344980e-06	2.638345e-08	2.389543e+01	1.732490e+03
1.120000e-06	3.448506e-06	2.691625e-08	2.463499e+01	1.767698e+03
1.130000e-06	3.550845e-06	2.741763e-08	2.536606e+01	1.800770e+03
1.140000e-06	3.652092e-06	2.789057e-08	2.608934e+01	1.831892e+03
1.150000e-06	3.752074e-06	2.833898e-08	2.680357e+01	1.861249e+03
1.160000e-06	3.850633e-06	2.876208e-08	2.750765e+01	1.889011e+03
1.170000e-06	3.947707e-06	2.915925e-08	2.820111e+01	1.915321e+03
1.180000e-06	4.043280e-06	2.953575e-08	2.888385e+01	1.940288e+03
1.190000e-06	4.137471e-06	2.989514e-08	2.955672e+01	1.963990e+03
1.200000e-06	4.230394e-06	3.023696e-08	3.022054e+01	1.986487e+03
1.210000e-06	4.321880e-06	3.055957e-08	3.087408e+01	2.007825e+03
1.220000e-06	4.411758e-06	3.086636e-08	3.151614e+01	2.028055e+03
1.230000e-06	4.499952e-06	3.115785e-08	3.214617e+01	2.047237e+03
1.240000e-06	4.586473e-06	3.143260e-08	3.276425e+01	2.065440e+03
1.250000e-06	4.671500e-06	3.169269e-08	3.337165e+01	2.082737e+03
1.260000e-06	4.754986e-06	3.194063e-08	3.396805e+01	2.099202e+03
1.270000e-06	4.836771e-06	3.218086e-08	3.455229e+01	2.114897e+03
1.280000e-06	4.916742e-06	3.241001e-08	3.512358e+01	2.129870e+03
1.290000e-06	4.994834e-06	3.262696e-08	3.568145e+01	2.144154e+03
1.300000e-06	5.071039e-06	3.283036e-08	3.622583e+01	2.157768e+03
1.310000e-06	5.145247e-06	3.302283e-08	3.675594e+01	2.170729e+03
1.320000e-06	5.217396e-06	3.320574e-08	3.727135e+01	2.183054e+03
1.330000e-06	5.287616e-06	3.338102e-08	3.777298e+01	2.194765e+03
1.340000e-06	5.356030e-06	3.354930e-08	3.826171e+01	2.205895e+03
1.350000e-06	5.422512e-06	3.371128e-08	3.873664e+01	2.216480e+03
1.360000e-06	5.486922e-06	3.386635e-08	3.919676e+01	2.226554e+03
1.370000e-06	5.549374e-06	3.401408e-08	3.964289e+01	2.236146e+03
1.380000e-06	5.610084e-06	3.415370e-08	4.007658e+01	2.245271e+03
1.390000e-06	5.668884e-06	3.428499e-08	4.049663e+01	2.253933e+03
1.400000e-06	5.725511e-06	3.440832e-08	4.090116e+01	2.262125e+03
1.410000e-06	5.780056e-06	3.452568e-08	4.129081e+01	2.269837e+03
1.420000e-06	5.832419e-06	3.463696e-08	4.166488e+01	2.277063e+03
1.430000e-06	5.882381e-06	3.474057e-08	4.202178e+01	2.283810e+03
1.440000e-06	5.930026e-06	3.483773e-08	4.236215e+01	2.290101e+03
1.450000e-06	5.975633e-06	3.492589e-08	4.268795e+01	2.295972e+03
1.460000e-06	6.019265e-06	3.500575e-08	4.299964e+01	2.301468e+03
1.470000e-06	6.060639e-06	3.508093e-08	4.329520e+01	2.306632e+03
1.480000e-06	6.099796e-06	3.515314e-08	4.357492e+01	2.311501e+03
1.490000e-06	6.137017e-06	3.522275e-08	4.384082e+01	2.316091e+03
1.500000e-06	6.172078e-06	3.528872e-08	4.409129e+01	2.320403e+03
1.510000e-06	6.204734e-06	3.535139e-08	4.432457e+01	2.324420e+03
1.520000e-06	6.235184e-06	3.540924e-08	4.454209e+01	2.328116e+03
1.530000e-06	6.263712e-06	3.546037e-08	4.474589e+01	2.331464e+03
1.540000e-06	6.290051e-06	3.550530e-08	4.493405e+01	2.334446e+03
1.550000e-06	6.313893e-06	3.554342e-08	4.510436e+01	2.337058e+03
1.560000e-06	6.335474e-06	3.557537e-08	4.525853e+01	2.339310e+03
1.570000e-06	6.354929e-06	3.560087e-08	4.539752e+01	2.341225e+03
1.580000e-06	6.372037e-06	3.562252e-08	4.551973e+01	2.342831e+03
1.590000e-06	6.386680e-06	3.564291e-08	4.562433e+01	2.344156e+03
1.600000e-06	6.398950e-06	3.566136e-08	4.571198e+01	2.345219e+03
1.610000e-06	6.408698e-06	3.567602e-08	4.578162e+01	2.346033e+03
1.620000e-06	6.415943e-06	3.568567e-08	4.583338e+01	2.346598e+03
1.630000e-06	6.421019e-06	3.569151e-08	4.586964e+01	2.346912e+03
1.640000e-06	6.423815e-06	3.569290e-08	4.588961e+01	2.346974e+03
1.650000e-06	6.424233e-06	3.569586e-08	4.589260e+01	2.346786e+03
1.660000e-06	6.422503e-06	3.568494e-08	4.588024e+01	2.346360e+03
1.670000e-06	6.418825e-06	3.567365e-08	4.585397e+01	2.345707e+03
1.680000e-06	6.412982e-06	3.566402e-08	4.581222e+01	2.344839e+03
1.690000e-06	6.404839e-06	3.564798e-08	4.575406e+01	2.343762e+03
1.700000e-06	6.394702e-06	3.562961e-08	4.568164e+01	2.342469e+03
1.710000e-06	6.382450e-06	3.561151e-08	4.559412e+01	2.340942e+03
1.720000e-06	6.367873e-06	3.561805e-08	4.548998e+01	2.339154e+03
1.730000e-06	6.351224e-06	3.561395e-08	4.537105e+01	2.337081e+03
1.740000e-06	6.332590e-06	3.546352e-08	4.523793e+01	2.334711e+03
1.750000e-06	6.311197e-06	3.543300e-08	4.508511e+01	2.332054e+03
1.760000e-06	6.286598e-06	3.545278e-08	4.490938e+01	2.329146e+03
1.770000e-06	6.259556e-06	3.535344e-08	4.471620e+01	2.326049e+03
1.780000e-06	6.230601e-06	3.540449e-08	4.450935e+01	2.322836e+03
1.790000e-06	6.199941e-06	3.539548e-08	4.429033e+01	2.319581e+03
1.800000e-06	6.167917e-06	3.511508e-08	4.406156e+01	2.316331e+03
1.810000e-06	6.133955e-06	3.527164e-08	4.381895e+01	2.313098e+03
1.820000e-06	6.097934e-06	3.520298e-08	4.356162e+01	2.309843e+03
1.830000e-06	6.059900e-06	3.502235e-08	4.328993e+01	2.306479e+03
1.840000e-06	6.019372e-06	3.530840e-08	4.300040e+01	2.302886e+03
1.850000e-06	5.976704e-06	3.508608e-08	4.269560e+01	2.298929e+03
1.860000e-06	5.932068e-06	3.502345e-08	4.237674e+01	2.294484e+03
1.870000e-06	5.885264e-06	3.500182e-08	4.204239e+01	2.289463e+03
1.880000e-06	5.836412e-06	3.475970e-08	4.169340e+01	2.283831e+03
1.890000e-06	5.785165e-06	3.487027e-08	4.132731e+01	2.277606e+03
1.900000e-06	5.731286e-06	3.467303e-08	4.094241e+01	2.270855e+03
1.910000e-06	5.675089e-06	3.455217e-08	4.054096e+01	2.263674e+03
1.920000e-06	5.616819e-06	3.454247e-08	4.012470e+01	2.256159e+03
1.930000e-06	5.556781e-06	3.429843e-08	3.969581e+01	2.248387e+03
1.940000e-06	5.494680e-06	3.428453e-08	3.925218e+01	2.240395e+03
1.950000e-06	5.430351e-06	3.404271e-08	3.879263e+01	2.232177e+03
1.960000e-06	5.364005e-06	3.398208e-08	3.831868e+01	2.223683e+03
1.970000e-06	5.295677e-06	3.388947e-08	3.783057e+01	2.214839e+03
1.980000e-06	5.225231e-06	3.365988e-08	3.732732e+01	2.205568e+03
1.990000e-06	5.152681e-06	3.359322e-08	3.680905e+01	2.195807e+03
2.000000e-06	5.078416e-06	3.336798e-08	3.627853e+01	2.185520e+03
2.010000e-06	5.002172e-06	3.327448e-08	3.573387e+01	2.174705e+03
2.020000e-06	4.923745e-06	3.305352e-08	3.517361e+01	2.163389e+03
2.030000e-06	4.843492e-06	3.287154e-08	3.460031e+01	2.151608e+03
2.040000e-06	4.761587e-06	3.274782e-08	3.401521e+01	2.139398e+03
2.050000e-06	4.678170e-06	3.250933e-08	3.341930e+01	2.126774e+03
2.060000e-06	4.593170e-06	3.233012e-08	3.281209e+01	2.113723e+03
2.070000e-06	4.506413e-06	3.208091e-08	3.219232e+01	2.100202e+03
2.080000e-06	4.418003e-06	3.190952e-08	3.156075e+01	2.086153e+03
2.090000e-06	4.328150e-06	3.167083e-08	3.091888e+01	2.071509e+03
2.100000e-06	4.236925e-06	3.143940e-08	3.026719e+01	2.056211e+03
2.110000e-06	4.144222e-06	3.121536e-08	2.960495e+01	2.040223e+03
2.120000e-06	4.049950e-06	3.094695e-08	2.893150e+01	2.023530e+03
2.130000e-06	3.954146e-06	3.068919e-08	2.824711e+01	2.006137e+03
2.140000e-06	3.856978e-06	3.039150e-08	2.755298e+01	1.988056e+03
2.150000e-06	3.758562e-06	3.013093e-08	2.684992e+01	1.969291e+03
2.160000e-06	3.658823e-06	2.983174e-08	2.613742e+01	1.949827e+03
2.170000e-06	3.557670e-06	2.953534e-08	2.541482e+01	1.929624e+03
2.180000e-06	3.455134e-06	2.920417e-08	2.468234e+01	1.908613e+03
2.190000e-06	3.351218e-06	2.886617e-08	2.393999e+01	1.886709e+03
2.200000e-06	3.246074e-06	2.851261e-08	2.318888e+01	1.863823e+03
2.210000e-06	3.139872e-06	2.814572e-08	2.243021e+01	1.839871e+03
2.220000e-06	3.032611e-06	2.777114e-08	2.166397e+01	1.814790e+03
2.230000e-06	2.924214e-06	2.737493e-08	2.088962e+01	1.788533e+03
2.240000e-06	2.814784e-06	2.696418e-08	2.010788e+01	1.761065e+03
2.250000e-06	2.704325e-06	2.651756e-08	1.931880e+01	1.732349e+03
2.260000e-06	2.592750e-06	2.606072e-08	1.852175e+01	1.702331e+03
2.270000e-06	2.480188e-06	2.557999e-08	1.771764e+01	1.670926e+03
2.280000e-06	2.366627e-06	2.508635e-08	1.690640e+01	1.638013e+03
2.290000e-06	2.252108e-06	2.455672e-08	1.608831e+01	1.603437e+03
2.300000e-06	2.136770e-06	2.399753e-08	1.526438e+01	1.567024e+03
2.310000e-06	2.020558e-06	2.340874e-08	1.443420e+01	1.528589e+03
2.320000e-06	1.903499e-06	2.278775e-08	1.359797e+01	1.487961e+03
2.330000e-06	1.785747e-06	2.213375e-08	1.275679e+01	1.444985e+03
2.340000e-06	1.667311e-06	2.144547e-08	1.191072e+01	1.399523e+03
2.350000e-06	1.548154e-06	2.072087e-08	1.105950e+01	1.351446e+03
2.360000e-06	1.428386e-06	1.994700e-08	1.020392e+01	1.300618e+03
2.370000e-06	1.308126e-06	1.912559e-08	9.344817e+00	1.246882e+03
2.380000e-06	1.187473e-06	1.825394e-08	8.482917e+00	1.190055e+03
2.390000e-06	1.066498e-06	1.733553e-08	7.618710e+00	1.129940e+03
2.400000e-06	9.451971e-07	1.636375e-08	6.752176e+00	1.066352e+03
2.410000e-06	8.236248e-07	1.534135e-08	5.883703e+00	9.991646e+02
2.420000e-06	7.017800e-07	1.426698e-08	5.013285e+00	9.283530e+02
2.430000e-06	5.797051e-07	1.313395e-08	4.141222e+00	8.540412e+02
2.440000e-06	4.574788e-07	1.194722e-08	3.268077e+00	7.765227e+02
2.450000e-06	3.351735e-07	1.071767e-08	2.394369e+00	6.962530e+02
2.460000e-06	2.127722e-07	9.457782e-09	1.519974e+00	6.138074e+02
2.470000e-06	9.020115e-08	8.174139e-09	6.443673e-01	5.298077e+02
2.480000e-06	-3.239209e-08	6.876665e-09	-2.313984e-01	4.448292e+02
2.490000e-06	-1.548776e-07	5.570811e-09	-1.106394e+00	3.593060e+02
2.500000e-06	-2.773808e-07	4.256193e-09	-1.981517e+00	2.734572e+02
2.510000e-06	-3.999173e-07	2.934967e-09	-2.856877e+00	1.872497e+02
2.520000e-06	-5.222807e-07	1.605086e-09	-3.731001e+00	1.004123e+02
2.530000e-06	-6.444782e-07	2.602402e-10	-4.603939e+00	1.250121e+01
2.540000e-06	-7.665736e-07	-1.106370e-09	-5.476149e+00	-7.699184e+01
2.550000e-06	-8.884181e-07	-2.501154e-09	-6.346565e+00	-1.685078e+02
2.560000e-06	-1.009969e-06	-3.930579e-09	-7.214885e+00	-2.622905e+02
2.570000e-06	-1.131158e-06	-5.396515e-09	-8.080619e+00	-3.582837e+02
2.580000e-06	-1.251930e-06	-6.891291e-09	-8.943375e+00	-4.560771e+02
2.590000e-06	-1.372284e-06	-8.403510e-09	-9.803146e+00	-5.549124e+02
2.600000e-06	-1.492075e-06	-9.919422e-09	-1.065889e+01	-6.537482e+02
2.610000e-06	-1.611263e-06	-1.141823e-08	-1.151033e+01	-7.513729e+02
2.620000e-06	-1.729811e-06	-1.287760e-08	-1.235720e+01	-8.465448e+02
2.630000e-06	-1.847666e-06	-1.427860e-08	-1.319912e+01	-9.381312e+02
2.640000e-06	-1.964794e-06	-1.561127e-08	-1.403584e+01	-1.025226e+03
2.650000e-06	-2.081094e-06	-1.686882e-08	-1.486665e+01	-1.107223e+03
2.660000e-06	-2.196445e-06	-1.804405e-08	-1.569068e+01	-1.183840e+03
2.670000e-06	-2.310767e-06	-1.913664e-08	-1.650736e+01	-1.255095e+03
2.680000e-06	-2.424071e-06	-2.015191e-08	-1.731676e+01	-1.321238e+03
2.690000e-06	-2.536346e-06	-2.109285e-08	-1.811882e+01	-1.382669e+03
2.700000e-06	-2.647552e-06	-2.197051e-08	-1.891324e+01	-1.439849e+03
2.710000e-06	-2.757680e-06	-2.279062e-08	-1.969995e+01	-1.493225e+03
2.720000e-06	-2.866873e-06	-2.355752e-08	-2.047999e+01	-1.543187e+03
2.730000e-06	-2.975216e-06	-2.427832e-08	-2.125396e+01	-1.590040e+03
2.740000e-06	-3.082581e-06	-2.495283e-08	-2.202094e+01	-1.634016e+03
2.750000e-06	-3.188935e-06	-2.558527e-08	-2.278070e+01	-1.675295e+03
2.760000e-06	-3.294301e-06	-2.617949e-08	-2.353339e+01	-1.714030e+03
2.770000e-06	-3.398559e-06	-2.674059e-08	-2.427818e+01	-1.750372e+03
2.780000e-06	-3.501485e-06	-2.726560e-08	-2.501345e+01	-1.784490e+03
2.790000e-06	-3.603073e-06	-2.775443e-08	-2.573916e+01	-1.816563e+03
2.800000e-06	-3.703347e-06	-2.821507e-08	-2.645548e+01	-1.846780e+03
2.810000e-06	-3.802293e-06	-2.865262e-08	-2.716233e+01	-1.875320e+03
2.820000e-06	-3.899995e-06	-2.906820e-08	-2.786027e+01	-1.902340e+03
2.830000e-06	-3.996466e-06	-2.946402e-08	-2.854943e+01	-1.927966e+03
2.840000e-06	-4.091505e-06	-2.984105e-08	-2.922836e+01	-1.952293e+03
2.850000e-06	-4.185019e-06	-3.019564e-08	-2.989640e+01	-1.975386e+03
2.860000e-06	-4.277063e-06	-3.052981e-08	-3.055392e+01	-1.997297e+03
2.870000e-06	-4.367582e-06	-3.084578e-08	-3.120056e+01	-2.018075e+03
2.880000e-06	-4.456618e-06	-3.114650e-08	-3.183661e+01	-2.037773e+03
2.890000e-06	-4.544028e-06	-3.143397e-08	-3.246104e+01	-2.056456e+03
2.900000e-06	-4.629651e-06	-3.170792e-08	-3.307270e+01	-2.074197e+03
2.910000e-06	-4.713578e-06	-3.196719e-08	-3.367224e+01	-2.091069e+03
2.920000e-06	-4.795910e-06	-3.221288e-08	-3.426039e+01	-2.107142e+03
2.930000e-06	-4.876623e-06	-3.244797e-08	-3.483698e+01	-2.122471e+03
2.940000e-06	-4.955513e-06	-3.267389e-08	-3.540055e+01	-2.137097e+03
