# Temperatura_=_32.33
# Concentracion g/m^3_=_28200.0
# C_Vs_to_Am_M_A/Vsm_=_65563218390.804596
# pendiente_HvsI_1/m_=_3716.3
# ordenada_HvsI_A/m_=_1297.0
# frecuencia_Hz_=_302143.6061072466

Tiempo_(s)	Campo_(V.s)	Magnetizacion_(V.s)	Campo_(kA/m)	Magnetizacion_(A/m)
0.000000e+00	-6.397296e-06	-3.466737e-08	-4.585257e+01	-2.268398e+03
1.000000e-08	-6.394083e-06	-3.465886e-08	-4.582954e+01	-2.267864e+03
2.000000e-08	-6.388832e-06	-3.464289e-08	-4.579191e+01	-2.267120e+03
3.000000e-08	-6.381636e-06	-3.462819e-08	-4.574033e+01	-2.266137e+03
4.000000e-08	-6.372262e-06	-3.461020e-08	-4.567314e+01	-2.264882e+03
5.000000e-08	-6.360528e-06	-3.458474e-08	-4.558904e+01	-2.263327e+03
6.000000e-08	-6.346524e-06	-3.455074e-08	-4.548866e+01	-2.261460e+03
7.000000e-08	-6.330221e-06	-3.449974e-08	-4.537181e+01	-2.259290e+03
8.000000e-08	-6.311752e-06	-3.447833e-08	-4.523944e+01	-2.256853e+03
9.000000e-08	-6.291170e-06	-3.454988e-08	-4.509191e+01	-2.254203e+03
1.000000e-07	-6.268251e-06	-3.447735e-08	-4.492764e+01	-2.251411e+03
1.100000e-07	-6.242684e-06	-3.434319e-08	-4.474440e+01	-2.248544e+03
1.200000e-07	-6.214654e-06	-3.431098e-08	-4.454349e+01	-2.245657e+03
1.300000e-07	-6.184765e-06	-3.421451e-08	-4.432925e+01	-2.242776e+03
1.400000e-07	-6.153377e-06	-3.403449e-08	-4.410428e+01	-2.239888e+03
1.500000e-07	-6.120233e-06	-3.420689e-08	-4.386673e+01	-2.236943e+03
1.600000e-07	-6.085009e-06	-3.416213e-08	-4.361426e+01	-2.233857e+03
1.700000e-07	-6.047921e-06	-3.390220e-08	-4.334843e+01	-2.230525e+03
1.800000e-07	-6.008795e-06	-3.402786e-08	-4.306799e+01	-2.226839e+03
1.900000e-07	-5.967223e-06	-3.382506e-08	-4.277003e+01	-2.222704e+03
2.000000e-07	-5.923483e-06	-3.370872e-08	-4.245652e+01	-2.218060e+03
2.100000e-07	-5.877665e-06	-3.378868e-08	-4.212812e+01	-2.212882e+03
2.200000e-07	-5.829551e-06	-3.363168e-08	-4.178327e+01	-2.207188e+03
2.300000e-07	-5.778995e-06	-3.355343e-08	-4.142090e+01	-2.201031e+03
2.400000e-07	-5.725905e-06	-3.344485e-08	-4.104038e+01	-2.194480e+03
2.500000e-07	-5.670602e-06	-3.330824e-08	-4.064400e+01	-2.187609e+03
2.600000e-07	-5.613128e-06	-3.323194e-08	-4.023205e+01	-2.180477e+03
2.700000e-07	-5.553498e-06	-3.310723e-08	-3.980466e+01	-2.173116e+03
2.800000e-07	-5.491940e-06	-3.302636e-08	-3.936344e+01	-2.165525e+03
2.900000e-07	-5.428527e-06	-3.287636e-08	-3.890893e+01	-2.157675e+03
3.000000e-07	-5.363023e-06	-3.275308e-08	-3.843943e+01	-2.149516e+03
3.100000e-07	-5.295367e-06	-3.261017e-08	-3.795450e+01	-2.140988e+03
3.200000e-07	-5.225743e-06	-3.245499e-08	-3.745547e+01	-2.132041e+03
3.300000e-07	-5.154325e-06	-3.235072e-08	-3.694359e+01	-2.122637e+03
3.400000e-07	-5.081049e-06	-3.216627e-08	-3.641838e+01	-2.112761e+03
3.500000e-07	-5.005660e-06	-3.202823e-08	-3.587803e+01	-2.102419e+03
3.600000e-07	-4.928167e-06	-3.186214e-08	-3.532260e+01	-2.091626e+03
3.700000e-07	-4.848599e-06	-3.168083e-08	-3.475229e+01	-2.080403e+03
3.800000e-07	-4.767186e-06	-3.151475e-08	-3.416877e+01	-2.068761e+03
3.900000e-07	-4.684194e-06	-3.132200e-08	-3.357393e+01	-2.056697e+03
4.000000e-07	-4.599794e-06	-3.113025e-08	-3.296899e+01	-2.044186e+03
4.100000e-07	-4.514010e-06	-3.092276e-08	-3.235413e+01	-2.031191e+03
4.200000e-07	-4.426766e-06	-3.072683e-08	-3.172881e+01	-2.017662e+03
4.300000e-07	-4.338105e-06	-3.050836e-08	-3.109334e+01	-2.003550e+03
4.400000e-07	-4.247796e-06	-3.027233e-08	-3.044605e+01	-1.988813e+03
4.500000e-07	-4.155827e-06	-3.004047e-08	-2.978686e+01	-1.973421e+03
4.600000e-07	-4.062442e-06	-2.978742e-08	-2.911753e+01	-1.957360e+03
4.700000e-07	-3.967674e-06	-2.953304e-08	-2.843827e+01	-1.940624e+03
4.800000e-07	-3.871562e-06	-2.927151e-08	-2.774939e+01	-1.923212e+03
4.900000e-07	-3.773948e-06	-2.900372e-08	-2.704974e+01	-1.905114e+03
5.000000e-07	-3.674752e-06	-2.871518e-08	-2.633876e+01	-1.886308e+03
5.100000e-07	-3.574263e-06	-2.840835e-08	-2.561851e+01	-1.866756e+03
5.200000e-07	-3.472614e-06	-2.809161e-08	-2.488994e+01	-1.846403e+03
5.300000e-07	-3.369718e-06	-2.776278e-08	-2.415243e+01	-1.825181e+03
5.400000e-07	-3.265625e-06	-2.742684e-08	-2.340634e+01	-1.803019e+03
5.500000e-07	-3.160365e-06	-2.707248e-08	-2.265189e+01	-1.779846e+03
5.600000e-07	-3.053725e-06	-2.670490e-08	-2.188755e+01	-1.755600e+03
5.700000e-07	-2.945814e-06	-2.631594e-08	-2.111410e+01	-1.730224e+03
5.800000e-07	-2.836898e-06	-2.590828e-08	-2.033344e+01	-1.703665e+03
5.900000e-07	-2.726985e-06	-2.548644e-08	-1.954565e+01	-1.675867e+03
6.000000e-07	-2.616104e-06	-2.504750e-08	-1.875091e+01	-1.646763e+03
6.100000e-07	-2.504302e-06	-2.458525e-08	-1.794957e+01	-1.616268e+03
6.200000e-07	-2.391659e-06	-2.409234e-08	-1.714220e+01	-1.584276e+03
6.300000e-07	-2.277999e-06	-2.357347e-08	-1.632754e+01	-1.550660e+03
6.400000e-07	-2.163170e-06	-2.302681e-08	-1.550450e+01	-1.515280e+03
6.500000e-07	-2.047351e-06	-2.245645e-08	-1.467438e+01	-1.477988e+03
6.600000e-07	-1.930759e-06	-2.185847e-08	-1.383870e+01	-1.438635e+03
6.700000e-07	-1.813576e-06	-2.122696e-08	-1.299879e+01	-1.397079e+03
6.800000e-07	-1.695868e-06	-2.055845e-08	-1.215512e+01	-1.353181e+03
6.900000e-07	-1.577577e-06	-1.984882e-08	-1.130727e+01	-1.306805e+03
7.000000e-07	-1.458699e-06	-1.910022e-08	-1.045521e+01	-1.257814e+03
7.100000e-07	-1.339312e-06	-1.830770e-08	-9.599511e+00	-1.206064e+03
7.200000e-07	-1.219509e-06	-1.747220e-08	-8.740820e+00	-1.151412e+03
7.300000e-07	-1.099372e-06	-1.659145e-08	-7.879743e+00	-1.093729e+03
7.400000e-07	-9.788882e-07	-1.566206e-08	-7.016174e+00	-1.032915e+03
7.500000e-07	-8.580481e-07	-1.468512e-08	-6.150054e+00	-9.689393e+02
7.600000e-07	-7.369420e-07	-1.366322e-08	-5.282026e+00	-9.018631e+02
7.700000e-07	-6.155698e-07	-1.259665e-08	-4.412092e+00	-8.318714e+02
7.800000e-07	-4.939436e-07	-1.149058e-08	-3.540337e+00	-7.592849e+02
7.900000e-07	-3.721301e-07	-1.035287e-08	-2.667240e+00	-6.845530e+02
8.000000e-07	-2.501387e-07	-9.188617e-09	-1.792867e+00	-6.082238e+02
8.100000e-07	-1.279828e-07	-8.008429e-09	-9.173155e-01	-5.308906e+02
8.200000e-07	-5.751809e-09	-6.823924e-09	-4.122605e-02	-4.531232e+02
8.300000e-07	1.164661e-07	-5.643481e-09	8.347698e-01	-3.753922e+02
8.400000e-07	2.386592e-07	-4.468405e-09	1.710588e+00	-2.980026e+02
8.500000e-07	3.607840e-07	-3.301038e-09	2.585917e+00	-2.210469e+02
8.600000e-07	4.827985e-07	-2.137061e-09	3.460455e+00	-1.443914e+02
8.700000e-07	6.046502e-07	-9.700454e-10	4.333826e+00	-6.769889e+01
8.800000e-07	7.262841e-07	2.069090e-10	5.205636e+00	9.512492e+00
8.900000e-07	8.476897e-07	1.401995e-09	6.075810e+00	8.778214e+01
9.000000e-07	9.688309e-07	2.619446e-09	6.944088e+00	1.676054e+02
9.100000e-07	1.089596e-06	3.865475e-09	7.809668e+00	2.493341e+02
9.200000e-07	1.209840e-06	5.141769e-09	8.671520e+00	3.330956e+02
9.300000e-07	1.329559e-06	6.444247e-09	9.529604e+00	4.187444e+02
9.400000e-07	1.448826e-06	7.768402e-09	1.038445e+01	5.058538e+02
9.500000e-07	1.567673e-06	9.106892e-09	1.123628e+01	5.937478e+02
9.600000e-07	1.686052e-06	1.044565e-08	1.208477e+01	6.815690e+02
9.700000e-07	1.803841e-06	1.176648e-08	1.292902e+01	7.683683e+02
9.800000e-07	1.920964e-06	1.305768e-08	1.376850e+01	8.532031e+02
9.900000e-07	2.037374e-06	1.430516e-08	1.460286e+01	9.352274e+02
1.000000e-06	2.152884e-06	1.549375e-08	1.543078e+01	1.013762e+03
1.010000e-06	2.267320e-06	1.661943e-08	1.625100e+01	1.088337e+03
1.020000e-06	2.380699e-06	1.768112e-08	1.706365e+01	1.158699e+03
1.030000e-06	2.493108e-06	1.868070e-08	1.786933e+01	1.224796e+03
1.040000e-06	2.604604e-06	1.961961e-08	1.866848e+01	1.286737e+03
1.050000e-06	2.715187e-06	2.049725e-08	1.946109e+01	1.344741e+03
1.060000e-06	2.824812e-06	2.132251e-08	2.024682e+01	1.399086e+03
1.070000e-06	2.933488e-06	2.209756e-08	2.102575e+01	1.450064e+03
1.080000e-06	3.041229e-06	2.282668e-08	2.179798e+01	1.497949e+03
1.090000e-06	3.147877e-06	2.350975e-08	2.256239e+01	1.542982e+03
1.100000e-06	3.253258e-06	2.415018e-08	2.331770e+01	1.585363e+03
1.110000e-06	3.357329e-06	2.475175e-08	2.406363e+01	1.625263e+03
1.120000e-06	3.460198e-06	2.531993e-08	2.480094e+01	1.662829e+03
1.130000e-06	3.561946e-06	2.585586e-08	2.553022e+01	1.698201e+03
1.140000e-06	3.662590e-06	2.635934e-08	2.625159e+01	1.731517e+03
1.150000e-06	3.762040e-06	2.683480e-08	2.696439e+01	1.762918e+03
1.160000e-06	3.860030e-06	2.728503e-08	2.766673e+01	1.792547e+03
1.170000e-06	3.956411e-06	2.771002e-08	2.835755e+01	1.820546e+03
1.180000e-06	4.051289e-06	2.811125e-08	2.903759e+01	1.847045e+03
1.190000e-06	4.144846e-06	2.849345e-08	2.970815e+01	1.872161e+03
1.200000e-06	4.237162e-06	2.885564e-08	3.036983e+01	1.895993e+03
1.210000e-06	4.328079e-06	2.919906e-08	3.102147e+01	1.918622e+03
1.220000e-06	4.417235e-06	2.952426e-08	3.166050e+01	1.940113e+03
1.230000e-06	4.504657e-06	2.983507e-08	3.228709e+01	1.960518e+03
1.240000e-06	4.590541e-06	3.012817e-08	3.290267e+01	1.979886e+03
1.250000e-06	4.674926e-06	3.040568e-08	3.350750e+01	1.998262e+03
1.260000e-06	4.757760e-06	3.066914e-08	3.410121e+01	2.015695e+03
1.270000e-06	4.838808e-06	3.091909e-08	3.468212e+01	2.032234e+03
1.280000e-06	4.918016e-06	3.115671e-08	3.524984e+01	2.047934e+03
1.290000e-06	4.995467e-06	3.138481e-08	3.580498e+01	2.062847e+03
1.300000e-06	5.070983e-06	3.160015e-08	3.634623e+01	2.077026e+03
1.310000e-06	5.144397e-06	3.180252e-08	3.687243e+01	2.090516e+03
1.320000e-06	5.215844e-06	3.199572e-08	3.738452e+01	2.103357e+03
1.330000e-06	5.285466e-06	3.218028e-08	3.788354e+01	2.115580e+03
1.340000e-06	5.353293e-06	3.235662e-08	3.836969e+01	2.127212e+03
1.350000e-06	5.419128e-06	3.252475e-08	3.884156e+01	2.138268e+03
1.360000e-06	5.482933e-06	3.268480e-08	3.929888e+01	2.148765e+03
1.370000e-06	5.544892e-06	3.283646e-08	3.974297e+01	2.158711e+03
1.380000e-06	5.605030e-06	3.297989e-08	4.017401e+01	2.168119e+03
1.390000e-06	5.663157e-06	3.311633e-08	4.059064e+01	2.176998e+03
1.400000e-06	5.719170e-06	3.324798e-08	4.099211e+01	2.185363e+03
1.410000e-06	5.773117e-06	3.337222e-08	4.137877e+01	2.193226e+03
1.420000e-06	5.824716e-06	3.348785e-08	4.174861e+01	2.200606e+03
1.430000e-06	5.873832e-06	3.359389e-08	4.210065e+01	2.207520e+03
1.440000e-06	5.920730e-06	3.369099e-08	4.243679e+01	2.213988e+03
1.450000e-06	5.965694e-06	3.378006e-08	4.275907e+01	2.220031e+03
1.460000e-06	6.008663e-06	3.386230e-08	4.306705e+01	2.225670e+03
1.470000e-06	6.049368e-06	3.394096e-08	4.335880e+01	2.230926e+03
1.480000e-06	6.087889e-06	3.401627e-08	4.363490e+01	2.235818e+03
1.490000e-06	6.124486e-06	3.408764e-08	4.389721e+01	2.240363e+03
1.500000e-06	6.158962e-06	3.415352e-08	4.414432e+01	2.244576e+03
1.510000e-06	6.191159e-06	3.421467e-08	4.437509e+01	2.248465e+03
1.520000e-06	6.221206e-06	3.427108e-08	4.459045e+01	2.252036e+03
1.530000e-06	6.249122e-06	3.432376e-08	4.479054e+01	2.255291e+03
1.540000e-06	6.274671e-06	3.437081e-08	4.497366e+01	2.258223e+03
1.550000e-06	6.297788e-06	3.440920e-08	4.513935e+01	2.260826e+03
1.560000e-06	6.318840e-06	3.443991e-08	4.529024e+01	2.263093e+03
1.570000e-06	6.337768e-06	3.446493e-08	4.542591e+01	2.265016e+03
1.580000e-06	6.354310e-06	3.448638e-08	4.554447e+01	2.266597e+03
1.590000e-06	6.368474e-06	3.450457e-08	4.564599e+01	2.267842e+03
1.600000e-06	6.380136e-06	3.452031e-08	4.572958e+01	2.268768e+03
1.610000e-06	6.389229e-06	3.453428e-08	4.579475e+01	2.269400e+03
1.620000e-06	6.395964e-06	3.454596e-08	4.584302e+01	2.269767e+03
1.630000e-06	6.400569e-06	3.455350e-08	4.587603e+01	2.269902e+03
1.640000e-06	6.402881e-06	3.455578e-08	4.589260e+01	2.269832e+03
1.650000e-06	6.402777e-06	3.455511e-08	4.589185e+01	2.269573e+03
1.660000e-06	6.400560e-06	3.453572e-08	4.587597e+01	2.269128e+03
1.670000e-06	6.396362e-06	3.452169e-08	4.584588e+01	2.268485e+03
1.680000e-06	6.389982e-06	3.450953e-08	4.580015e+01	2.267617e+03
1.690000e-06	6.381431e-06	3.449210e-08	4.573886e+01	2.266492e+03
1.700000e-06	6.370892e-06	3.447597e-08	4.566332e+01	2.265079e+03
1.710000e-06	6.358147e-06	3.446105e-08	4.557197e+01	2.263356e+03
1.720000e-06	6.343123e-06	3.447061e-08	4.546429e+01	2.261324e+03
1.730000e-06	6.326119e-06	3.440595e-08	4.534241e+01	2.259005e+03
1.740000e-06	6.307034e-06	3.424331e-08	4.520562e+01	2.256446e+03
1.750000e-06	6.285076e-06	3.425717e-08	4.504823e+01	2.253711e+03
1.760000e-06	6.259987e-06	3.427134e-08	4.486841e+01	2.250870e+03
1.770000e-06	6.232608e-06	3.418547e-08	4.467217e+01	2.247988e+03
1.780000e-06	6.203374e-06	3.432821e-08	4.446264e+01	2.245102e+03
1.790000e-06	6.172473e-06	3.421813e-08	4.424115e+01	2.242221e+03
1.800000e-06	6.140140e-06	3.395717e-08	4.400941e+01	2.239312e+03
1.810000e-06	6.105789e-06	3.415918e-08	4.376320e+01	2.236303e+03
1.820000e-06	6.069467e-06	3.403146e-08	4.350286e+01	2.233099e+03
1.830000e-06	6.031107e-06	3.403938e-08	4.322791e+01	2.229590e+03
1.840000e-06	5.990260e-06	3.420411e-08	4.293514e+01	2.225673e+03
1.850000e-06	5.947361e-06	3.381167e-08	4.262767e+01	2.221271e+03
1.860000e-06	5.902373e-06	3.382694e-08	4.230522e+01	2.216340e+03
1.870000e-06	5.855230e-06	3.374419e-08	4.196732e+01	2.210881e+03
1.880000e-06	5.806045e-06	3.356560e-08	4.161479e+01	2.204931e+03
1.890000e-06	5.754367e-06	3.366291e-08	4.124438e+01	2.198554e+03
1.900000e-06	5.700083e-06	3.340671e-08	4.085530e+01	2.191823e+03
1.910000e-06	5.643537e-06	3.339533e-08	4.045001e+01	2.184806e+03
1.920000e-06	5.585025e-06	3.329506e-08	4.003063e+01	2.177549e+03
1.930000e-06	5.524735e-06	3.306569e-08	3.959850e+01	2.170067e+03
1.940000e-06	5.462318e-06	3.306650e-08	3.915112e+01	2.162342e+03
1.950000e-06	5.397687e-06	3.284157e-08	3.868789e+01	2.154334e+03
1.960000e-06	5.331059e-06	3.282424e-08	3.821033e+01	2.145984e+03
1.970000e-06	5.262541e-06	3.263211e-08	3.771923e+01	2.137237e+03
1.980000e-06	5.191978e-06	3.245879e-08	3.721346e+01	2.128048e+03
1.990000e-06	5.119326e-06	3.240194e-08	3.669273e+01	2.118392e+03
2.000000e-06	5.044926e-06	3.216404e-08	3.615947e+01	2.108264e+03
2.010000e-06	4.968497e-06	3.208091e-08	3.561167e+01	2.097678e+03
2.020000e-06	4.889886e-06	3.184410e-08	3.504822e+01	2.086652e+03
2.030000e-06	4.809456e-06	3.170420e-08	3.447174e+01	2.075204e+03
2.040000e-06	4.727437e-06	3.154382e-08	3.388387e+01	2.063338e+03
2.050000e-06	4.643928e-06	3.131997e-08	3.328532e+01	2.051038e+03
2.060000e-06	4.558821e-06	3.115408e-08	3.267531e+01	2.038274e+03
2.070000e-06	4.471922e-06	3.091429e-08	3.205247e+01	2.024999e+03
2.080000e-06	4.383327e-06	3.074664e-08	3.141747e+01	2.011163e+03
2.090000e-06	4.293342e-06	3.049707e-08	3.077250e+01	1.996720e+03
2.100000e-06	4.202049e-06	3.028886e-08	3.011816e+01	1.981635e+03
2.110000e-06	4.109448e-06	3.005930e-08	2.945444e+01	1.965885e+03
2.120000e-06	4.015301e-06	2.980209e-08	2.877964e+01	1.949463e+03
2.130000e-06	3.919518e-06	2.954110e-08	2.809312e+01	1.932365e+03
2.140000e-06	3.822382e-06	2.925044e-08	2.739689e+01	1.914587e+03
2.150000e-06	3.723893e-06	2.898878e-08	2.669098e+01	1.896114e+03
2.160000e-06	3.624147e-06	2.868868e-08	2.597605e+01	1.876914e+03
2.170000e-06	3.523106e-06	2.839825e-08	2.525184e+01	1.856940e+03
2.180000e-06	3.420586e-06	2.807347e-08	2.451703e+01	1.836130e+03
2.190000e-06	3.316659e-06	2.775136e-08	2.377213e+01	1.814413e+03
2.200000e-06	3.211576e-06	2.740073e-08	2.301894e+01	1.791718e+03
2.210000e-06	3.105448e-06	2.703924e-08	2.225828e+01	1.767978e+03
2.220000e-06	2.998216e-06	2.666643e-08	2.148969e+01	1.743133e+03
2.230000e-06	2.889936e-06	2.627103e-08	2.071360e+01	1.717129e+03
2.240000e-06	2.780660e-06	2.585391e-08	1.993036e+01	1.689914e+03
2.250000e-06	2.670290e-06	2.540920e-08	1.913928e+01	1.661426e+03
2.260000e-06	2.558915e-06	2.495690e-08	1.834100e+01	1.631588e+03
2.270000e-06	2.446597e-06	2.447955e-08	1.753596e+01	1.600306e+03
2.280000e-06	2.333230e-06	2.399069e-08	1.672341e+01	1.567460e+03
2.290000e-06	2.218886e-06	2.346564e-08	1.590385e+01	1.532917e+03
2.300000e-06	2.103739e-06	2.291123e-08	1.507853e+01	1.496531e+03
2.310000e-06	1.987811e-06	2.232160e-08	1.424762e+01	1.458153e+03
2.320000e-06	1.871121e-06	2.170147e-08	1.341124e+01	1.417638e+03
2.330000e-06	1.753666e-06	2.105012e-08	1.256939e+01	1.374844e+03
2.340000e-06	1.635382e-06	2.036401e-08	1.172159e+01	1.329635e+03
2.350000e-06	1.516388e-06	1.964089e-08	1.086870e+01	1.281875e+03
2.360000e-06	1.396862e-06	1.887249e-08	1.001200e+01	1.231424e+03
2.370000e-06	1.276860e-06	1.805907e-08	9.151884e+00	1.178137e+03
2.380000e-06	1.156521e-06	1.719837e-08	8.289353e+00	1.121875e+03
2.390000e-06	1.035903e-06	1.629588e-08	7.424829e+00	1.062524e+03
2.400000e-06	9.148982e-07	1.534316e-08	6.557526e+00	1.000015e+03
2.410000e-06	7.935773e-07	1.434382e-08	5.687959e+00	9.343628e+02
2.420000e-06	6.720346e-07	1.329803e-08	4.816803e+00	8.656931e+02
2.430000e-06	5.503610e-07	1.220748e-08	3.944708e+00	7.942626e+02
2.440000e-06	4.285287e-07	1.107893e-08	3.071477e+00	7.204635e+02
2.450000e-06	3.064915e-07	9.918405e-09	2.196776e+00	6.448032e+02
2.460000e-06	1.843393e-07	8.740238e-09	1.321251e+00	5.678620e+02
2.470000e-06	6.217014e-08	7.553422e-09	4.456040e-01	4.902298e+02
2.480000e-06	-6.004713e-08	6.366963e-09	-4.303874e-01	4.124324e+02
2.490000e-06	-1.823194e-07	5.184340e-09	-1.306773e+00	3.348590e+02
2.500000e-06	-3.045627e-07	4.006648e-09	-2.182951e+00	2.577046e+02
2.510000e-06	-4.266704e-07	2.832619e-09	-3.058157e+00	1.809402e+02
2.520000e-06	-5.485789e-07	1.656773e-09	-3.931935e+00	1.043176e+02
2.530000e-06	-6.703578e-07	4.764680e-10	-4.804785e+00	2.741287e+01
2.540000e-06	-7.919751e-07	-7.139728e-10	-5.676476e+00	-5.029889e+01
2.550000e-06	-9.133457e-07	-1.920699e-09	-6.546398e+00	-1.293463e+02
2.560000e-06	-1.034420e-06	-3.152898e-09	-7.414198e+00	-2.101595e+02
2.570000e-06	-1.155144e-06	-4.415182e-09	-8.279488e+00	-2.929782e+02
2.580000e-06	-1.275527e-06	-5.705364e-09	-9.142333e+00	-3.777872e+02
2.590000e-06	-1.395492e-06	-7.021302e-09	-1.000218e+01	-4.642888e+02
2.600000e-06	-1.514879e-06	-8.357103e-09	-1.085788e+01	-5.519161e+02
2.610000e-06	-1.633653e-06	-9.702776e-09	-1.170920e+01	-6.398860e+02
2.620000e-06	-1.751748e-06	-1.104462e-08	-1.255564e+01	-7.272799e+02
2.630000e-06	-1.869020e-06	-1.236461e-08	-1.339619e+01	-8.131399e+02
2.640000e-06	-1.985313e-06	-1.364592e-08	-1.422971e+01	-8.965651e+02
2.650000e-06	-2.100725e-06	-1.487728e-08	-1.505693e+01	-9.767920e+02
2.660000e-06	-2.215381e-06	-1.604803e-08	-1.587873e+01	-1.053250e+03
2.670000e-06	-2.329112e-06	-1.715560e-08	-1.669389e+01	-1.125586e+03
2.680000e-06	-2.441825e-06	-1.820053e-08	-1.750177e+01	-1.193658e+03
2.690000e-06	-2.553440e-06	-1.918041e-08	-1.830176e+01	-1.257507e+03
2.700000e-06	-2.663876e-06	-2.009853e-08	-1.909331e+01	-1.317307e+03
2.710000e-06	-2.773315e-06	-2.095954e-08	-1.987771e+01	-1.373315e+03
2.720000e-06	-2.881962e-06	-2.176819e-08	-2.065644e+01	-1.425820e+03
2.730000e-06	-2.989771e-06	-2.252669e-08	-2.142917e+01	-1.475110e+03
2.740000e-06	-3.096679e-06	-2.323793e-08	-2.219543e+01	-1.521439e+03
2.750000e-06	-3.202611e-06	-2.390449e-08	-2.295469e+01	-1.565029e+03
2.760000e-06	-3.307463e-06	-2.453163e-08	-2.370622e+01	-1.606062e+03
2.770000e-06	-3.411113e-06	-2.512548e-08	-2.444913e+01	-1.644694e+03
2.780000e-06	-3.513459e-06	-2.568517e-08	-2.518269e+01	-1.681068e+03
2.790000e-06	-3.614368e-06	-2.621019e-08	-2.590595e+01	-1.715321e+03
2.800000e-06	-3.713901e-06	-2.670353e-08	-2.661936e+01	-1.747593e+03
2.810000e-06	-3.812232e-06	-2.717143e-08	-2.732414e+01	-1.778027e+03
2.820000e-06	-3.909333e-06	-2.761436e-08	-2.802012e+01	-1.806766e+03
2.830000e-06	-4.005168e-06	-2.803137e-08	-2.870702e+01	-1.833946e+03
2.840000e-06	-4.099598e-06	-2.842542e-08	-2.938384e+01	-1.859691e+03
2.850000e-06	-4.192489e-06	-2.880007e-08	-3.004964e+01	-1.884109e+03
2.860000e-06	-4.283880e-06	-2.915644e-08	-3.070468e+01	-1.907288e+03
2.870000e-06	-4.373784e-06	-2.949329e-08	-3.134906e+01	-1.929300e+03
2.880000e-06	-4.462132e-06	-2.981163e-08	-3.198230e+01	-1.950203e+03
2.890000e-06	-4.548859e-06	-3.011522e-08	-3.260391e+01	-1.970047e+03
2.900000e-06	-4.633838e-06	-3.040581e-08	-3.321300e+01	-1.988878e+03
2.910000e-06	-4.717174e-06	-3.068060e-08	-3.381031e+01	-2.006742e+03
2.920000e-06	-4.798928e-06	-3.093980e-08	-3.439628e+01	-2.023690e+03
2.930000e-06	-4.878957e-06	-3.118550e-08	-3.496989e+01	-2.039773e+03
2.940000e-06	-4.957102e-06	-3.141948e-08	-3.552999e+01	-2.055045e+03
