# Temperatura_=_42.32
# Concentracion g/m^3_=_28200.0
# C_Vs_to_Am_M_A/Vsm_=_65563218390.804596
# pendiente_HvsI_1/m_=_3716.3
# ordenada_HvsI_A/m_=_1297.0
# frecuencia_Hz_=_302141.5366377124

Tiempo_(s)	Campo_(V.s)	Magnetizacion_(V.s)	Campo_(kA/m)	Magnetizacion_(A/m)
0.000000e+00	-6.415412e-06	-3.469913e-08	-4.585372e+01	-2.270692e+03
1.000000e-08	-6.412155e-06	-3.469341e-08	-4.583044e+01	-2.270073e+03
2.000000e-08	-6.406757e-06	-3.468114e-08	-4.579186e+01	-2.269236e+03
3.000000e-08	-6.399443e-06	-3.466438e-08	-4.573958e+01	-2.268184e+03
4.000000e-08	-6.390039e-06	-3.464218e-08	-4.567237e+01	-2.266916e+03
5.000000e-08	-6.378290e-06	-3.461601e-08	-4.558840e+01	-2.265421e+03
6.000000e-08	-6.364176e-06	-3.458529e-08	-4.548752e+01	-2.263685e+03
7.000000e-08	-6.347693e-06	-3.453939e-08	-4.536971e+01	-2.261693e+03
8.000000e-08	-6.329049e-06	-3.452748e-08	-4.523645e+01	-2.259439e+03
9.000000e-08	-6.308320e-06	-3.455563e-08	-4.508829e+01	-2.256927e+03
1.000000e-07	-6.285181e-06	-3.449396e-08	-4.492291e+01	-2.254181e+03
1.100000e-07	-6.259375e-06	-3.440276e-08	-4.473846e+01	-2.251242e+03
1.200000e-07	-6.231259e-06	-3.437191e-08	-4.453750e+01	-2.248159e+03
1.300000e-07	-6.201323e-06	-3.428517e-08	-4.432354e+01	-2.244986e+03
1.400000e-07	-6.169759e-06	-3.415937e-08	-4.409793e+01	-2.241761e+03
1.500000e-07	-6.136441e-06	-3.424011e-08	-4.385980e+01	-2.238499e+03
1.600000e-07	-6.101138e-06	-3.417001e-08	-4.360747e+01	-2.235184e+03
1.700000e-07	-6.063926e-06	-3.401843e-08	-4.334150e+01	-2.231764e+03
1.800000e-07	-6.024587e-06	-3.406919e-08	-4.306033e+01	-2.228158e+03
1.900000e-07	-5.982811e-06	-3.391739e-08	-4.276174e+01	-2.224269e+03
2.000000e-07	-5.938847e-06	-3.382812e-08	-4.244751e+01	-2.220001e+03
2.100000e-07	-5.892789e-06	-3.382780e-08	-4.211831e+01	-2.215274e+03
2.200000e-07	-5.844478e-06	-3.369240e-08	-4.177301e+01	-2.210043e+03
2.300000e-07	-5.793642e-06	-3.360691e-08	-4.140966e+01	-2.204298e+03
2.400000e-07	-5.740305e-06	-3.349976e-08	-4.102844e+01	-2.198066e+03
2.500000e-07	-5.684853e-06	-3.336821e-08	-4.063210e+01	-2.191400e+03
2.600000e-07	-5.627212e-06	-3.328547e-08	-4.022012e+01	-2.184365e+03
2.700000e-07	-5.567400e-06	-3.318579e-08	-3.979261e+01	-2.177020e+03
2.800000e-07	-5.505644e-06	-3.307353e-08	-3.935122e+01	-2.169403e+03
2.900000e-07	-5.441946e-06	-3.293086e-08	-3.889594e+01	-2.161523e+03
3.000000e-07	-5.376155e-06	-3.280943e-08	-3.842571e+01	-2.153361e+03
3.100000e-07	-5.308239e-06	-3.266463e-08	-3.794028e+01	-2.144873e+03
3.200000e-07	-5.238351e-06	-3.252884e-08	-3.744076e+01	-2.136006e+03
3.300000e-07	-5.166606e-06	-3.241037e-08	-3.692797e+01	-2.126710e+03
3.400000e-07	-5.092950e-06	-3.222929e-08	-3.640151e+01	-2.116948e+03
3.500000e-07	-5.017219e-06	-3.207657e-08	-3.586024e+01	-2.106706e+03
3.600000e-07	-4.939398e-06	-3.191668e-08	-3.530401e+01	-2.095985e+03
3.700000e-07	-4.859503e-06	-3.174475e-08	-3.473297e+01	-2.084802e+03
3.800000e-07	-4.777769e-06	-3.157981e-08	-3.414878e+01	-2.073177e+03
3.900000e-07	-4.694537e-06	-3.139679e-08	-3.355388e+01	-2.061119e+03
4.000000e-07	-4.609930e-06	-3.119816e-08	-3.294916e+01	-2.048620e+03
4.100000e-07	-4.523937e-06	-3.098973e-08	-3.233453e+01	-2.035656e+03
4.200000e-07	-4.436485e-06	-3.078779e-08	-3.170947e+01	-2.022183e+03
4.300000e-07	-4.347581e-06	-3.057028e-08	-3.107404e+01	-2.008150e+03
4.400000e-07	-4.257083e-06	-3.034370e-08	-3.042721e+01	-1.993505e+03
4.500000e-07	-4.164905e-06	-3.011301e-08	-2.976838e+01	-1.978207e+03
4.600000e-07	-4.071229e-06	-2.986324e-08	-2.909883e+01	-1.962230e+03
4.700000e-07	-3.976159e-06	-2.960684e-08	-2.841932e+01	-1.945563e+03
4.800000e-07	-3.879718e-06	-2.934646e-08	-2.773002e+01	-1.928204e+03
4.900000e-07	-3.781801e-06	-2.907720e-08	-2.703017e+01	-1.910152e+03
5.000000e-07	-3.682343e-06	-2.879040e-08	-2.631929e+01	-1.891398e+03
5.100000e-07	-3.581540e-06	-2.848785e-08	-2.559882e+01	-1.871916e+03
5.200000e-07	-3.479518e-06	-2.817320e-08	-2.486962e+01	-1.851659e+03
5.300000e-07	-3.376323e-06	-2.784851e-08	-2.413204e+01	-1.830564e+03
5.400000e-07	-3.271963e-06	-2.751233e-08	-2.338614e+01	-1.808554e+03
5.500000e-07	-3.166312e-06	-2.716120e-08	-2.263100e+01	-1.785552e+03
5.600000e-07	-3.059304e-06	-2.679560e-08	-2.186617e+01	-1.761481e+03
5.700000e-07	-2.951072e-06	-2.640788e-08	-2.109259e+01	-1.736274e+03
5.800000e-07	-2.841812e-06	-2.600149e-08	-2.031166e+01	-1.709873e+03
5.900000e-07	-2.731577e-06	-2.558328e-08	-1.952377e+01	-1.682220e+03
6.000000e-07	-2.620386e-06	-2.514633e-08	-1.872903e+01	-1.653251e+03
6.100000e-07	-2.508236e-06	-2.468195e-08	-1.792745e+01	-1.622890e+03
6.200000e-07	-2.395102e-06	-2.419130e-08	-1.711883e+01	-1.591038e+03
6.300000e-07	-2.280961e-06	-2.367575e-08	-1.630302e+01	-1.557574e+03
6.400000e-07	-2.165774e-06	-2.313282e-08	-1.547972e+01	-1.522361e+03
6.500000e-07	-2.049699e-06	-2.256485e-08	-1.465008e+01	-1.485248e+03
6.600000e-07	-1.932893e-06	-2.196879e-08	-1.381522e+01	-1.446081e+03
6.700000e-07	-1.815448e-06	-2.133883e-08	-1.297579e+01	-1.404708e+03
6.800000e-07	-1.697398e-06	-2.067220e-08	-1.213204e+01	-1.360985e+03
6.900000e-07	-1.578771e-06	-1.996646e-08	-1.128416e+01	-1.314767e+03
7.000000e-07	-1.459641e-06	-1.922074e-08	-1.043269e+01	-1.265912e+03
7.100000e-07	-1.340008e-06	-1.843105e-08	-9.577613e+00	-1.214267e+03
7.200000e-07	-1.219907e-06	-1.759685e-08	-8.719206e+00	-1.159678e+03
7.300000e-07	-1.099395e-06	-1.671563e-08	-7.857852e+00	-1.101994e+03
7.400000e-07	-9.784597e-07	-1.578372e-08	-6.993475e+00	-1.041093e+03
7.500000e-07	-8.571464e-07	-1.480311e-08	-6.126396e+00	-9.769090e+02
7.600000e-07	-7.355207e-07	-1.377463e-08	-5.257084e+00	-9.094716e+02
7.700000e-07	-6.136398e-07	-1.269972e-08	-4.385949e+00	-8.389340e+02
7.800000e-07	-4.915885e-07	-1.158330e-08	-3.513596e+00	-7.655928e+02
7.900000e-07	-3.694028e-07	-1.042972e-08	-2.640281e+00	-6.898845e+02
8.000000e-07	-2.470901e-07	-9.245639e-09	-1.766060e+00	-6.123552e+02
8.100000e-07	-1.246856e-07	-8.044029e-09	-8.911821e-01	-5.336053e+02
8.200000e-07	-2.203263e-09	-6.835950e-09	-1.574767e-02	-4.542148e+02
8.300000e-07	1.203287e-07	-5.628232e-09	8.600415e-01	-3.746613e+02
8.400000e-07	2.428375e-07	-4.422385e-09	1.735664e+00	-2.952472e+02
8.500000e-07	3.652553e-07	-3.218496e-09	2.610637e+00	-2.160514e+02
8.600000e-07	4.875032e-07	-2.013740e-09	3.484396e+00	-1.369167e+02
8.700000e-07	6.095985e-07	-8.017015e-10	4.357064e+00	-5.748069e+01
8.800000e-07	7.315434e-07	4.214507e-10	5.228657e+00	2.275366e+01
8.900000e-07	8.532831e-07	1.664175e-09	6.098783e+00	1.043175e+02
9.000000e-07	9.747730e-07	2.934339e-09	6.967124e+00	1.876625e+02
9.100000e-07	1.095934e-06	4.235366e-09	7.833112e+00	2.730544e+02
9.200000e-07	1.216672e-06	5.567396e-09	8.696081e+00	3.604929e+02
9.300000e-07	1.336923e-06	6.925595e-09	9.555566e+00	4.496729e+02
9.400000e-07	1.456592e-06	8.300352e-09	1.041089e+01	5.399927e+02
9.500000e-07	1.575718e-06	9.679066e-09	1.126234e+01	6.306095e+02
9.600000e-07	1.694352e-06	1.104967e-08	1.211027e+01	7.205294e+02
9.700000e-07	1.812365e-06	1.239414e-08	1.295376e+01	8.087166e+02
9.800000e-07	1.929690e-06	1.369333e-08	1.379233e+01	8.942039e+02
9.900000e-07	2.046304e-06	1.493400e-08	1.462582e+01	9.761840e+02
1.000000e-06	2.162049e-06	1.611093e-08	1.545310e+01	1.054071e+03
1.010000e-06	2.276747e-06	1.722289e-08	1.627290e+01	1.127526e+03
1.020000e-06	2.390473e-06	1.826651e-08	1.708574e+01	1.196442e+03
1.030000e-06	2.503260e-06	1.924474e-08	1.789188e+01	1.260909e+03
1.040000e-06	2.615010e-06	2.015707e-08	1.869060e+01	1.321152e+03
1.050000e-06	2.725799e-06	2.100743e-08	1.948246e+01	1.377473e+03
1.060000e-06	2.835691e-06	2.180559e-08	2.026791e+01	1.430195e+03
1.070000e-06	2.944670e-06	2.255618e-08	2.104683e+01	1.479622e+03
1.080000e-06	3.052712e-06	2.326222e-08	2.181905e+01	1.526024e+03
1.090000e-06	3.159675e-06	2.392362e-08	2.258356e+01	1.569623e+03
1.100000e-06	3.265371e-06	2.454411e-08	2.333902e+01	1.610608e+03
1.110000e-06	3.369755e-06	2.512606e-08	2.408509e+01	1.649143e+03
1.120000e-06	3.472869e-06	2.567403e-08	2.482210e+01	1.685385e+03
1.130000e-06	3.574809e-06	2.618998e-08	2.555070e+01	1.719489e+03
1.140000e-06	3.675649e-06	2.667640e-08	2.627145e+01	1.751609e+03
1.150000e-06	3.775340e-06	2.713624e-08	2.698399e+01	1.781902e+03
1.160000e-06	3.873631e-06	2.757169e-08	2.768652e+01	1.810517e+03
1.170000e-06	3.970291e-06	2.798266e-08	2.837739e+01	1.837586e+03
1.180000e-06	4.065427e-06	2.837189e-08	2.905737e+01	1.863227e+03
1.190000e-06	4.159252e-06	2.874131e-08	2.972797e+01	1.887535e+03
1.200000e-06	4.251790e-06	2.909153e-08	3.038938e+01	1.910591e+03
1.210000e-06	4.342878e-06	2.942383e-08	3.104043e+01	1.932462e+03
1.220000e-06	4.432276e-06	2.973731e-08	3.167940e+01	1.953208e+03
1.230000e-06	4.519943e-06	3.003554e-08	3.230599e+01	1.972890e+03
1.240000e-06	4.606031e-06	3.031833e-08	3.292130e+01	1.991564e+03
1.250000e-06	4.690626e-06	3.058595e-08	3.352593e+01	2.009291e+03
1.260000e-06	4.773696e-06	3.084123e-08	3.411967e+01	2.026128e+03
1.270000e-06	4.854987e-06	3.108509e-08	3.470069e+01	2.042126e+03
1.280000e-06	4.934355e-06	3.131716e-08	3.526797e+01	2.057335e+03
1.290000e-06	5.011903e-06	3.153766e-08	3.582224e+01	2.071794e+03
1.300000e-06	5.087618e-06	3.174552e-08	3.636341e+01	2.085540e+03
1.310000e-06	5.161330e-06	3.194148e-08	3.689026e+01	2.098604e+03
1.320000e-06	5.233019e-06	3.212648e-08	3.740265e+01	2.111019e+03
1.330000e-06	5.302791e-06	3.230279e-08	3.790134e+01	2.122815e+03
1.340000e-06	5.370720e-06	3.247161e-08	3.838686e+01	2.134024e+03
1.350000e-06	5.436654e-06	3.263471e-08	3.885812e+01	2.144676e+03
1.360000e-06	5.500542e-06	3.279155e-08	3.931475e+01	2.154795e+03
1.370000e-06	5.562560e-06	3.293978e-08	3.975802e+01	2.164400e+03
1.380000e-06	5.622730e-06	3.307915e-08	4.018808e+01	2.173504e+03
1.390000e-06	5.680889e-06	3.321141e-08	4.060377e+01	2.182111e+03
1.400000e-06	5.736984e-06	3.333692e-08	4.100470e+01	2.190224e+03
1.410000e-06	5.791015e-06	3.345464e-08	4.139089e+01	2.197844e+03
1.420000e-06	5.842671e-06	3.356292e-08	4.176010e+01	2.204981e+03
1.430000e-06	5.891849e-06	3.366336e-08	4.211159e+01	2.211649e+03
1.440000e-06	5.938800e-06	3.375714e-08	4.244717e+01	2.217875e+03
1.450000e-06	5.983827e-06	3.384395e-08	4.276900e+01	2.223688e+03
1.460000e-06	6.026789e-06	3.392552e-08	4.307607e+01	2.229125e+03
1.470000e-06	6.067476e-06	3.400346e-08	4.336687e+01	2.234216e+03
1.480000e-06	6.106046e-06	3.407814e-08	4.364255e+01	2.238984e+03
1.490000e-06	6.142670e-06	3.414696e-08	4.390432e+01	2.243443e+03
1.500000e-06	6.177195e-06	3.420899e-08	4.415108e+01	2.247592e+03
1.510000e-06	6.209397e-06	3.426624e-08	4.438124e+01	2.251423e+03
1.520000e-06	6.239412e-06	3.432085e-08	4.459578e+01	2.254922e+03
1.530000e-06	6.267350e-06	3.437130e-08	4.479546e+01	2.258077e+03
1.540000e-06	6.292936e-06	3.441472e-08	4.497833e+01	2.260879e+03
1.550000e-06	6.316047e-06	3.445192e-08	4.514352e+01	2.263332e+03
1.560000e-06	6.337041e-06	3.448383e-08	4.529357e+01	2.265446e+03
1.570000e-06	6.355956e-06	3.451029e-08	4.542876e+01	2.267239e+03
1.580000e-06	6.372508e-06	3.453125e-08	4.554707e+01	2.268732e+03
1.590000e-06	6.386678e-06	3.454774e-08	4.564835e+01	2.269945e+03
1.600000e-06	6.398370e-06	3.456122e-08	4.573192e+01	2.270894e+03
1.610000e-06	6.407412e-06	3.457186e-08	4.579654e+01	2.271588e+03
1.620000e-06	6.414055e-06	3.458175e-08	4.584402e+01	2.272032e+03
1.630000e-06	6.418581e-06	3.458976e-08	4.587637e+01	2.272229e+03
1.640000e-06	6.420851e-06	3.459551e-08	4.589260e+01	2.272183e+03
1.650000e-06	6.420763e-06	3.459518e-08	4.589197e+01	2.271898e+03
1.660000e-06	6.418555e-06	3.458095e-08	4.587618e+01	2.271383e+03
1.670000e-06	6.414253e-06	3.456666e-08	4.584544e+01	2.270646e+03
1.680000e-06	6.407688e-06	3.455187e-08	4.579852e+01	2.269693e+03
1.690000e-06	6.399018e-06	3.453360e-08	4.573655e+01	2.268526e+03
1.700000e-06	6.388373e-06	3.451384e-08	4.566047e+01	2.267138e+03
1.710000e-06	6.375575e-06	3.449640e-08	4.556899e+01	2.265515e+03
1.720000e-06	6.360539e-06	3.449378e-08	4.546152e+01	2.263644e+03
1.730000e-06	6.343455e-06	3.442328e-08	4.533942e+01	2.261511e+03
1.740000e-06	6.324189e-06	3.431105e-08	4.520171e+01	2.259117e+03
1.750000e-06	6.302039e-06	3.431286e-08	4.504340e+01	2.256476e+03
1.760000e-06	6.276834e-06	3.431129e-08	4.486325e+01	2.253620e+03
1.770000e-06	6.249293e-06	3.426081e-08	4.466640e+01	2.250597e+03
1.780000e-06	6.219913e-06	3.431726e-08	4.445641e+01	2.247460e+03
1.790000e-06	6.188930e-06	3.419823e-08	4.423496e+01	2.244255e+03
1.800000e-06	6.156429e-06	3.402910e-08	4.400266e+01	2.241010e+03
1.810000e-06	6.121929e-06	3.409782e-08	4.375608e+01	2.237725e+03
1.820000e-06	6.085390e-06	3.398666e-08	4.349491e+01	2.234362e+03
1.830000e-06	6.046673e-06	3.400601e-08	4.321819e+01	2.230853e+03
1.840000e-06	6.005603e-06	3.408616e-08	4.292464e+01	2.227108e+03
1.850000e-06	5.962538e-06	3.386932e-08	4.261684e+01	2.223026e+03
1.860000e-06	5.917404e-06	3.384527e-08	4.229425e+01	2.218521e+03
1.870000e-06	5.870092e-06	3.374933e-08	4.195608e+01	2.213527e+03
1.880000e-06	5.820605e-06	3.363558e-08	4.160238e+01	2.208019e+03
1.890000e-06	5.768679e-06	3.365886e-08	4.123124e+01	2.202007e+03
1.900000e-06	5.714248e-06	3.348489e-08	4.084220e+01	2.195535e+03
1.910000e-06	5.657572e-06	3.342074e-08	4.043711e+01	2.188663e+03
1.920000e-06	5.598898e-06	3.331522e-08	4.001774e+01	2.181456e+03
1.930000e-06	5.538351e-06	3.316486e-08	3.958499e+01	2.173962e+03
1.940000e-06	5.475652e-06	3.309726e-08	3.913685e+01	2.166205e+03
1.950000e-06	5.410768e-06	3.293774e-08	3.867310e+01	2.158178e+03
1.960000e-06	5.343919e-06	3.286979e-08	3.819530e+01	2.149847e+03
1.970000e-06	5.275095e-06	3.269415e-08	3.770339e+01	2.141162e+03
1.980000e-06	5.204172e-06	3.253732e-08	3.719647e+01	2.132071e+03
1.990000e-06	5.131284e-06	3.243053e-08	3.667550e+01	2.122529e+03
2.000000e-06	5.056572e-06	3.224531e-08	3.614151e+01	2.112510e+03
2.010000e-06	4.979745e-06	3.212806e-08	3.559239e+01	2.102009e+03
2.020000e-06	4.900849e-06	3.193293e-08	3.502848e+01	2.091039e+03
2.030000e-06	4.820198e-06	3.176934e-08	3.445204e+01	2.079617e+03
2.040000e-06	4.737946e-06	3.159423e-08	3.386415e+01	2.067759e+03
2.050000e-06	4.654182e-06	3.139318e-08	3.326545e+01	2.055467e+03
2.060000e-06	4.568779e-06	3.121475e-08	3.265504e+01	2.042723e+03
2.070000e-06	4.481670e-06	3.099802e-08	3.203244e+01	2.029493e+03
2.080000e-06	4.392963e-06	3.080308e-08	3.139841e+01	2.015726e+03
2.090000e-06	4.302712e-06	3.057094e-08	3.075334e+01	2.001370e+03
2.100000e-06	4.211051e-06	3.035401e-08	3.009820e+01	1.986380e+03
2.110000e-06	4.118059e-06	3.012121e-08	2.943355e+01	1.970720e+03
2.120000e-06	4.023558e-06	2.986707e-08	2.875811e+01	1.954374e+03
2.130000e-06	3.927503e-06	2.960586e-08	2.807156e+01	1.937335e+03
2.140000e-06	3.830095e-06	2.932719e-08	2.737535e+01	1.919606e+03
2.150000e-06	3.731391e-06	2.905729e-08	2.666986e+01	1.901180e+03
2.160000e-06	3.631399e-06	2.876695e-08	2.595518e+01	1.882040e+03
2.170000e-06	3.529999e-06	2.847175e-08	2.523043e+01	1.862150e+03
2.180000e-06	3.427114e-06	2.815237e-08	2.449507e+01	1.841452e+03
2.190000e-06	3.322892e-06	2.782212e-08	2.375014e+01	1.819877e+03
2.200000e-06	3.217508e-06	2.747287e-08	2.299692e+01	1.797345e+03
2.210000e-06	3.111004e-06	2.711142e-08	2.223569e+01	1.773779e+03
2.220000e-06	3.003388e-06	2.673965e-08	2.146651e+01	1.749107e+03
2.230000e-06	2.894730e-06	2.634793e-08	2.068989e+01	1.723268e+03
2.240000e-06	2.785023e-06	2.593546e-08	1.990577e+01	1.696203e+03
2.250000e-06	2.674351e-06	2.550301e-08	1.911474e+01	1.667853e+03
2.260000e-06	2.562643e-06	2.505482e-08	1.831632e+01	1.638149e+03
2.270000e-06	2.449856e-06	2.458043e-08	1.751018e+01	1.607003e+03
2.280000e-06	2.336072e-06	2.408574e-08	1.669691e+01	1.574303e+03
2.290000e-06	2.221325e-06	2.356022e-08	1.587677e+01	1.539921e+03
2.300000e-06	2.105793e-06	2.300574e-08	1.505101e+01	1.503709e+03
2.310000e-06	1.989507e-06	2.242225e-08	1.421986e+01	1.465514e+03
2.320000e-06	1.872382e-06	2.180944e-08	1.338272e+01	1.425183e+03
2.330000e-06	1.754477e-06	2.116316e-08	1.254000e+01	1.382569e+03
2.340000e-06	1.635910e-06	2.047909e-08	1.169256e+01	1.337527e+03
2.350000e-06	1.516764e-06	1.975496e-08	1.084097e+01	1.289915e+03
2.360000e-06	1.397011e-06	1.898633e-08	9.985040e+00	1.239584e+03
2.370000e-06	1.276718e-06	1.817393e-08	9.125254e+00	1.186381e+03
2.380000e-06	1.156053e-06	1.731645e-08	8.262814e+00	1.130151e+03
2.390000e-06	1.035129e-06	1.641372e-08	7.398515e+00	1.070756e+03
2.400000e-06	9.139353e-07	1.545851e-08	6.532291e+00	1.008099e+03
2.410000e-06	7.924530e-07	1.445288e-08	5.664004e+00	9.421614e+02
2.420000e-06	6.706989e-07	1.339946e-08	4.793775e+00	8.730350e+02
2.430000e-06	5.487324e-07	1.229917e-08	3.922028e+00	8.009492e+02
2.440000e-06	4.265484e-07	1.115746e-08	3.048726e+00	7.262774e+02
2.450000e-06	3.041649e-07	9.982232e-09	2.173998e+00	6.495204e+02
2.460000e-06	1.817083e-07	8.784971e-09	1.298748e+00	5.712618e+02
2.470000e-06	5.921457e-08	7.574748e-09	4.232321e-01	4.921011e+02
2.480000e-06	-6.334638e-08	6.360811e-09	-4.527640e-01	4.125734e+02
2.490000e-06	-1.859104e-07	5.147423e-09	-1.328782e+00	3.330703e+02
2.500000e-06	-3.083780e-07	3.936925e-09	-2.204111e+00	2.537783e+02
2.510000e-06	-4.307786e-07	2.727783e-09	-3.078961e+00	1.746489e+02
2.520000e-06	-5.531018e-07	1.515418e-09	-3.953258e+00	9.540833e+01
2.530000e-06	-6.752243e-07	2.943054e-10	-4.826120e+00	1.561104e+01
2.540000e-06	-7.971057e-07	-9.429664e-10	-5.697259e+00	-6.527205e+01
2.550000e-06	-9.187530e-07	-2.202635e-09	-6.566725e+00	-1.477437e+02
2.560000e-06	-1.040109e-06	-3.491610e-09	-7.434111e+00	-2.321678e+02
2.570000e-06	-1.161094e-06	-4.811735e-09	-8.298840e+00	-3.186754e+02
2.580000e-06	-1.281722e-06	-6.158690e-09	-9.161021e+00	-4.071046e+02
2.590000e-06	-1.401950e-06	-7.526615e-09	-1.002034e+01	-4.969873e+02
2.600000e-06	-1.521631e-06	-8.907852e-09	-1.087575e+01	-5.875833e+02
2.610000e-06	-1.640727e-06	-1.029036e-08	-1.172698e+01	-6.779558e+02
2.620000e-06	-1.759089e-06	-1.165749e-08	-1.257297e+01	-7.670746e+02
2.630000e-06	-1.876710e-06	-1.299102e-08	-1.341366e+01	-8.539275e+02
2.640000e-06	-1.993613e-06	-1.427655e-08	-1.424922e+01	-9.376234e+02
2.650000e-06	-2.109627e-06	-1.550356e-08	-1.507842e+01	-1.017468e+03
2.660000e-06	-2.224687e-06	-1.666301e-08	-1.590080e+01	-1.093008e+03
2.670000e-06	-2.338738e-06	-1.775170e-08	-1.671597e+01	-1.164031e+03
2.680000e-06	-2.451726e-06	-1.877050e-08	-1.752354e+01	-1.230543e+03
2.690000e-06	-2.563689e-06	-1.972148e-08	-1.832379e+01	-1.292713e+03
2.700000e-06	-2.674637e-06	-2.061087e-08	-1.911679e+01	-1.350815e+03
2.710000e-06	-2.784527e-06	-2.144470e-08	-1.990222e+01	-1.405168e+03
2.720000e-06	-2.893453e-06	-2.222770e-08	-2.068076e+01	-1.456089e+03
2.730000e-06	-3.001538e-06	-2.296383e-08	-2.145329e+01	-1.503866e+03
2.740000e-06	-3.108642e-06	-2.365415e-08	-2.221881e+01	-1.548741e+03
2.750000e-06	-3.214667e-06	-2.430110e-08	-2.297662e+01	-1.590918e+03
2.760000e-06	-3.319666e-06	-2.490916e-08	-2.372709e+01	-1.630571e+03
2.770000e-06	-3.423531e-06	-2.548230e-08	-2.446946e+01	-1.667859e+03
2.780000e-06	-3.526105e-06	-2.602094e-08	-2.520260e+01	-1.702936e+03
2.790000e-06	-3.627313e-06	-2.652366e-08	-2.592597e+01	-1.735958e+03
2.800000e-06	-3.727134e-06	-2.699536e-08	-2.663944e+01	-1.767081e+03
2.810000e-06	-3.825650e-06	-2.744345e-08	-2.734357e+01	-1.796457e+03
2.820000e-06	-3.922968e-06	-2.787023e-08	-2.803915e+01	-1.824228e+03
2.830000e-06	-4.019046e-06	-2.827617e-08	-2.872586e+01	-1.850519e+03
2.840000e-06	-4.113682e-06	-2.866164e-08	-2.940226e+01	-1.875435e+03
2.850000e-06	-4.206754e-06	-2.902681e-08	-3.006749e+01	-1.899064e+03
2.860000e-06	-4.298340e-06	-2.937076e-08	-3.072210e+01	-1.921477e+03
2.870000e-06	-4.388438e-06	-2.969382e-08	-3.136607e+01	-1.942738e+03
2.880000e-06	-4.477025e-06	-2.999945e-08	-3.199923e+01	-1.962907e+03
2.890000e-06	-4.563965e-06	-3.029101e-08	-3.262063e+01	-1.982042e+03
2.900000e-06	-4.649138e-06	-3.056831e-08	-3.322940e+01	-2.000202e+03
2.910000e-06	-4.732658e-06	-3.083146e-08	-3.382635e+01	-2.017445e+03
2.920000e-06	-4.814549e-06	-3.108276e-08	-3.441166e+01	-2.033827e+03
2.930000e-06	-4.894837e-06	-3.132317e-08	-3.498551e+01	-2.049397e+03
2.940000e-06	-4.973235e-06	-3.155341e-08	-3.554586e+01	-2.064200e+03
