# Temperatura_=_81.71
# Concentracion g/m^3_=_28200.0
# C_Vs_to_Am_M_A/Vsm_=_65563218390.804596
# pendiente_HvsI_1/m_=_3716.3
# ordenada_HvsI_A/m_=_1297.0
# frecuencia_Hz_=_302143.2892015531

Tiempo_(s)	Campo_(V.s)	Magnetizacion_(V.s)	Campo_(kA/m)	Magnetizacion_(A/m)
0.000000e+00	-6.443333e-06	-3.531568e-08	-4.585486e+01	-2.315089e+03
1.000000e-08	-6.440435e-06	-3.530824e-08	-4.583424e+01	-2.314536e+03
2.000000e-08	-6.435420e-06	-3.529270e-08	-4.579855e+01	-2.313685e+03
3.000000e-08	-6.428493e-06	-3.527562e-08	-4.574925e+01	-2.312533e+03
4.000000e-08	-6.419485e-06	-3.525406e-08	-4.568515e+01	-2.311098e+03
5.000000e-08	-6.408060e-06	-3.522589e-08	-4.560384e+01	-2.309411e+03
6.000000e-08	-6.394279e-06	-3.519109e-08	-4.550577e+01	-2.307512e+03
7.000000e-08	-6.378225e-06	-3.514890e-08	-4.539152e+01	-2.305436e+03
8.000000e-08	-6.360078e-06	-3.513433e-08	-4.526237e+01	-2.303213e+03
9.000000e-08	-6.339803e-06	-3.519654e-08	-4.511808e+01	-2.300853e+03
1.000000e-07	-6.317122e-06	-3.513894e-08	-4.495666e+01	-2.298347e+03
1.100000e-07	-6.291832e-06	-3.501498e-08	-4.477669e+01	-2.295669e+03
1.200000e-07	-6.264045e-06	-3.496612e-08	-4.457894e+01	-2.292777e+03
1.300000e-07	-6.234262e-06	-3.486801e-08	-4.436698e+01	-2.289621e+03
1.400000e-07	-6.202917e-06	-3.468155e-08	-4.414391e+01	-2.286151e+03
1.500000e-07	-6.169877e-06	-3.480443e-08	-4.390877e+01	-2.282322e+03
1.600000e-07	-6.134735e-06	-3.478216e-08	-4.365869e+01	-2.278101e+03
1.700000e-07	-6.097640e-06	-3.455576e-08	-4.339470e+01	-2.273469e+03
1.800000e-07	-6.058573e-06	-3.464143e-08	-4.311667e+01	-2.268424e+03
1.900000e-07	-6.017134e-06	-3.447519e-08	-4.282176e+01	-2.262980e+03
2.000000e-07	-5.973423e-06	-3.435800e-08	-4.251069e+01	-2.257162e+03
2.100000e-07	-5.927625e-06	-3.437970e-08	-4.218476e+01	-2.251008e+03
2.200000e-07	-5.879523e-06	-3.422042e-08	-4.184244e+01	-2.244559e+03
2.300000e-07	-5.828871e-06	-3.413667e-08	-4.148196e+01	-2.237853e+03
2.400000e-07	-5.775700e-06	-3.402971e-08	-4.110356e+01	-2.230923e+03
2.500000e-07	-5.720386e-06	-3.390354e-08	-4.070991e+01	-2.223785e+03
2.600000e-07	-5.662916e-06	-3.381917e-08	-4.030092e+01	-2.216440e+03
2.700000e-07	-5.603160e-06	-3.368562e-08	-3.987566e+01	-2.208868e+03
2.800000e-07	-5.541400e-06	-3.357419e-08	-3.943614e+01	-2.201035e+03
2.900000e-07	-5.477713e-06	-3.341538e-08	-3.898290e+01	-2.192893e+03
3.000000e-07	-5.411953e-06	-3.330718e-08	-3.851491e+01	-2.184391e+03
3.100000e-07	-5.344106e-06	-3.318142e-08	-3.803207e+01	-2.175481e+03
3.200000e-07	-5.274279e-06	-3.303130e-08	-3.753513e+01	-2.166127e+03
3.300000e-07	-5.202627e-06	-3.290060e-08	-3.702521e+01	-2.156310e+03
3.400000e-07	-5.129047e-06	-3.270360e-08	-3.650157e+01	-2.146027e+03
3.500000e-07	-5.053327e-06	-3.255369e-08	-3.596270e+01	-2.135289e+03
3.600000e-07	-4.975497e-06	-3.238182e-08	-3.540881e+01	-2.124114e+03
3.700000e-07	-4.895665e-06	-3.220423e-08	-3.484068e+01	-2.112516e+03
3.800000e-07	-4.814003e-06	-3.203669e-08	-3.425952e+01	-2.100501e+03
3.900000e-07	-4.730769e-06	-3.184236e-08	-3.366717e+01	-2.088058e+03
4.000000e-07	-4.646085e-06	-3.163679e-08	-3.306450e+01	-2.075161e+03
4.100000e-07	-4.559941e-06	-3.142112e-08	-3.245144e+01	-2.061769e+03
4.200000e-07	-4.472440e-06	-3.121936e-08	-3.182874e+01	-2.047837e+03
4.300000e-07	-4.383395e-06	-3.099575e-08	-3.119503e+01	-2.033322e+03
4.400000e-07	-4.292659e-06	-3.075598e-08	-3.054930e+01	-2.018189e+03
4.500000e-07	-4.200373e-06	-3.051641e-08	-2.989253e+01	-2.002419e+03
4.600000e-07	-4.106635e-06	-3.026118e-08	-2.922543e+01	-1.986004e+03
4.700000e-07	-4.011539e-06	-3.000319e-08	-2.854867e+01	-1.968946e+03
4.800000e-07	-3.914953e-06	-2.973941e-08	-2.786130e+01	-1.951243e+03
4.900000e-07	-3.816809e-06	-2.946647e-08	-2.716285e+01	-1.932886e+03
5.000000e-07	-3.717203e-06	-2.917287e-08	-2.645399e+01	-1.913846e+03
5.100000e-07	-3.616203e-06	-2.886246e-08	-2.573521e+01	-1.894078e+03
5.200000e-07	-3.513988e-06	-2.854292e-08	-2.500778e+01	-1.873515e+03
5.300000e-07	-3.410670e-06	-2.821079e-08	-2.427250e+01	-1.852083e+03
5.400000e-07	-3.306079e-06	-2.786800e-08	-2.352816e+01	-1.829707e+03
5.500000e-07	-3.200110e-06	-2.750943e-08	-2.277402e+01	-1.806320e+03
5.600000e-07	-3.092844e-06	-2.713941e-08	-2.201065e+01	-1.781868e+03
5.700000e-07	-2.984396e-06	-2.675291e-08	-2.123887e+01	-1.756309e+03
5.800000e-07	-2.874883e-06	-2.634803e-08	-2.045950e+01	-1.729611e+03
5.900000e-07	-2.764424e-06	-2.592642e-08	-1.967340e+01	-1.701733e+03
6.000000e-07	-2.653037e-06	-2.548298e-08	-1.888070e+01	-1.672620e+03
6.100000e-07	-2.540581e-06	-2.501529e-08	-1.808039e+01	-1.642193e+03
6.200000e-07	-2.427038e-06	-2.452181e-08	-1.727235e+01	-1.610338e+03
6.300000e-07	-2.312426e-06	-2.400708e-08	-1.645669e+01	-1.576917e+03
6.400000e-07	-2.196758e-06	-2.346893e-08	-1.563353e+01	-1.541772e+03
6.500000e-07	-2.080239e-06	-2.290548e-08	-1.480431e+01	-1.504741e+03
6.600000e-07	-1.963042e-06	-2.231079e-08	-1.397026e+01	-1.465663e+03
6.700000e-07	-1.845167e-06	-2.168119e-08	-1.313138e+01	-1.424394e+03
6.800000e-07	-1.726723e-06	-2.101902e-08	-1.228846e+01	-1.380801e+03
6.900000e-07	-1.607803e-06	-2.031895e-08	-1.144215e+01	-1.334753e+03
7.000000e-07	-1.488345e-06	-1.957816e-08	-1.059201e+01	-1.286114e+03
7.100000e-07	-1.368364e-06	-1.879032e-08	-9.738149e+00	-1.234726e+03
7.200000e-07	-1.247918e-06	-1.795517e-08	-8.880978e+00	-1.180409e+03
7.300000e-07	-1.126971e-06	-1.707200e-08	-8.020243e+00	-1.122964e+03
7.400000e-07	-1.005554e-06	-1.614127e-08	-7.156164e+00	-1.062200e+03
7.500000e-07	-8.837933e-07	-1.516220e-08	-6.289637e+00	-9.979696e+02
7.600000e-07	-7.617263e-07	-1.413287e-08	-5.420930e+00	-9.302135e+02
7.700000e-07	-6.393849e-07	-1.305059e-08	-4.550271e+00	-8.590013e+02
7.800000e-07	-5.168482e-07	-1.191792e-08	-3.678221e+00	-7.845591e+02
7.900000e-07	-3.941217e-07	-1.074185e-08	-2.804821e+00	-7.072719e+02
8.000000e-07	-2.712423e-07	-9.526692e-09	-1.930333e+00	-6.276553e+02
8.100000e-07	-1.482522e-07	-8.283800e-09	-1.055057e+00	-5.462979e+02
8.200000e-07	-2.514550e-08	-7.024125e-09	-1.789514e-01	-4.637803e+02
8.300000e-07	9.804619e-08	-5.756847e-09	6.977592e-01	-3.805871e+02
8.400000e-07	2.212179e-07	-4.483476e-09	1.574327e+00	-2.970285e+02
8.500000e-07	3.442691e-07	-3.207248e-09	2.450038e+00	-2.131898e+02
8.600000e-07	4.672655e-07	-1.924195e-09	3.325359e+00	-1.289223e+02
8.700000e-07	5.901256e-07	-6.264271e-10	4.199710e+00	-4.388180e+01
8.800000e-07	7.127520e-07	6.902152e-10	5.072397e+00	4.238881e+01
8.900000e-07	8.351415e-07	2.029949e-09	5.943400e+00	1.303469e+02
9.000000e-07	9.572214e-07	3.395943e-09	6.812198e+00	2.203269e+02
9.100000e-07	1.079014e-06	4.795510e-09	7.678955e+00	3.124298e+02
9.200000e-07	1.200447e-06	6.227086e-09	8.543147e+00	4.064486e+02
9.300000e-07	1.321395e-06	7.680814e-09	9.403888e+00	5.018431e+02
9.400000e-07	1.441772e-06	9.144201e-09	1.026057e+01	5.977708e+02
9.500000e-07	1.561460e-06	1.060108e-08	1.111235e+01	6.931693e+02
9.600000e-07	1.680536e-06	1.203122e-08	1.195976e+01	7.868728e+02
9.700000e-07	1.799141e-06	1.341164e-08	1.280384e+01	8.777452e+02
9.800000e-07	1.917077e-06	1.473005e-08	1.364314e+01	9.648020e+02
9.900000e-07	2.034224e-06	1.598131e-08	1.447684e+01	1.047304e+03
1.000000e-06	2.150697e-06	1.715768e-08	1.530573e+01	1.124807e+03
1.010000e-06	2.266310e-06	1.825403e-08	1.612851e+01	1.197165e+03
1.020000e-06	2.380849e-06	1.927388e-08	1.694364e+01	1.264491e+03
1.030000e-06	2.494390e-06	2.022379e-08	1.775167e+01	1.327084e+03
1.040000e-06	2.606847e-06	2.111161e-08	1.855198e+01	1.385351e+03
1.050000e-06	2.718219e-06	2.194166e-08	1.934458e+01	1.439725e+03
1.060000e-06	2.828700e-06	2.271764e-08	2.013083e+01	1.490609e+03
1.070000e-06	2.938242e-06	2.344143e-08	2.091041e+01	1.538335e+03
1.080000e-06	3.046836e-06	2.411948e-08	2.168323e+01	1.583163e+03
1.090000e-06	3.154452e-06	2.475469e-08	2.244909e+01	1.625286e+03
1.100000e-06	3.260966e-06	2.535114e-08	2.320711e+01	1.664861e+03
1.110000e-06	3.366146e-06	2.591191e-08	2.395564e+01	1.702034e+03
1.120000e-06	3.469931e-06	2.644228e-08	2.469424e+01	1.736958e+03
1.130000e-06	3.572516e-06	2.694466e-08	2.542430e+01	1.769802e+03
1.140000e-06	3.673998e-06	2.741938e-08	2.614651e+01	1.800751e+03
1.150000e-06	3.774310e-06	2.786829e-08	2.686039e+01	1.829987e+03
1.160000e-06	3.873282e-06	2.829097e-08	2.756475e+01	1.857678e+03
1.170000e-06	3.970703e-06	2.869046e-08	2.825806e+01	1.883962e+03
1.180000e-06	4.066522e-06	2.906922e-08	2.893996e+01	1.908943e+03
1.190000e-06	4.160904e-06	2.942882e-08	2.961165e+01	1.932689e+03
1.200000e-06	4.253972e-06	2.976914e-08	3.027398e+01	1.955243e+03
1.210000e-06	4.345744e-06	3.009520e-08	3.092708e+01	1.976641e+03
1.220000e-06	4.435954e-06	3.040733e-08	3.156908e+01	1.996922e+03
1.230000e-06	4.524360e-06	3.070366e-08	3.219823e+01	2.016137e+03
1.240000e-06	4.611045e-06	3.098083e-08	3.281514e+01	2.034356e+03
1.250000e-06	4.696182e-06	3.124251e-08	3.342102e+01	2.051660e+03
1.260000e-06	4.779831e-06	3.149156e-08	3.401633e+01	2.068132e+03
1.270000e-06	4.861771e-06	3.173012e-08	3.459946e+01	2.083848e+03
1.280000e-06	4.941838e-06	3.195850e-08	3.516927e+01	2.098865e+03
1.290000e-06	5.020105e-06	3.217723e-08	3.572627e+01	2.113219e+03
1.300000e-06	5.096523e-06	3.238599e-08	3.627011e+01	2.126925e+03
1.310000e-06	5.170828e-06	3.258284e-08	3.679891e+01	2.139988e+03
1.320000e-06	5.243016e-06	3.276917e-08	3.731264e+01	2.152408e+03
1.330000e-06	5.313307e-06	3.294719e-08	3.781288e+01	2.164191e+03
1.340000e-06	5.381860e-06	3.311771e-08	3.830075e+01	2.175358e+03
1.350000e-06	5.448495e-06	3.328135e-08	3.877496e+01	2.185941e+03
1.360000e-06	5.512981e-06	3.343781e-08	3.923389e+01	2.195983e+03
1.370000e-06	5.575481e-06	3.358676e-08	3.967868e+01	2.205528e+03
1.380000e-06	5.636195e-06	3.372733e-08	4.011076e+01	2.214610e+03
1.390000e-06	5.695005e-06	3.386111e-08	4.052929e+01	2.223250e+03
1.400000e-06	5.751731e-06	3.399017e-08	4.093298e+01	2.231454e+03
1.410000e-06	5.806371e-06	3.411224e-08	4.132184e+01	2.239211e+03
1.420000e-06	5.858846e-06	3.422539e-08	4.169529e+01	2.246505e+03
1.430000e-06	5.908852e-06	3.432862e-08	4.205116e+01	2.253325e+03
1.440000e-06	5.956421e-06	3.442504e-08	4.238969e+01	2.259671e+03
1.450000e-06	6.001949e-06	3.451487e-08	4.271370e+01	2.265560e+03
1.460000e-06	6.045501e-06	3.459797e-08	4.302364e+01	2.271027e+03
1.470000e-06	6.086868e-06	3.467719e-08	4.331803e+01	2.276120e+03
1.480000e-06	6.126001e-06	3.475205e-08	4.359653e+01	2.280887e+03
1.490000e-06	6.163099e-06	3.482193e-08	4.386054e+01	2.285369e+03
1.500000e-06	6.198063e-06	3.488734e-08	4.410937e+01	2.289588e+03
1.510000e-06	6.230710e-06	3.495048e-08	4.434170e+01	2.293546e+03
1.520000e-06	6.261173e-06	3.500956e-08	4.455850e+01	2.297220e+03
1.530000e-06	6.289654e-06	3.506189e-08	4.476118e+01	2.300577e+03
1.540000e-06	6.315894e-06	3.510801e-08	4.494793e+01	2.303580e+03
1.550000e-06	6.339626e-06	3.514801e-08	4.511682e+01	2.306197e+03
1.560000e-06	6.361099e-06	3.518201e-08	4.526963e+01	2.308419e+03
1.570000e-06	6.380465e-06	3.520967e-08	4.540746e+01	2.310256e+03
1.580000e-06	6.397470e-06	3.523399e-08	4.552848e+01	2.311738e+03
1.590000e-06	6.412003e-06	3.525669e-08	4.563190e+01	2.312911e+03
1.600000e-06	6.424121e-06	3.527424e-08	4.571814e+01	2.313822e+03
1.610000e-06	6.433695e-06	3.528671e-08	4.578627e+01	2.314513e+03
1.620000e-06	6.440769e-06	3.529732e-08	4.583662e+01	2.315007e+03
1.630000e-06	6.445695e-06	3.530566e-08	4.587168e+01	2.315308e+03
1.640000e-06	6.448379e-06	3.531022e-08	4.589078e+01	2.315402e+03
1.650000e-06	6.448635e-06	3.531128e-08	4.589260e+01	2.315259e+03
1.660000e-06	6.446683e-06	3.529475e-08	4.587871e+01	2.314849e+03
1.670000e-06	6.442680e-06	3.528236e-08	4.585022e+01	2.314148e+03
1.680000e-06	6.436579e-06	3.527144e-08	4.580680e+01	2.313146e+03
1.690000e-06	6.428323e-06	3.525398e-08	4.574804e+01	2.311849e+03
1.700000e-06	6.418017e-06	3.523520e-08	4.567470e+01	2.310284e+03
1.710000e-06	6.405507e-06	3.521637e-08	4.558567e+01	2.308486e+03
1.720000e-06	6.390674e-06	3.521657e-08	4.548011e+01	2.306494e+03
1.730000e-06	6.373890e-06	3.515461e-08	4.536067e+01	2.304342e+03
1.740000e-06	6.355123e-06	3.501071e-08	4.522711e+01	2.302050e+03
1.750000e-06	6.333568e-06	3.501084e-08	4.507371e+01	2.299620e+03
1.760000e-06	6.308799e-06	3.502247e-08	4.489744e+01	2.297032e+03
1.770000e-06	6.281513e-06	3.493569e-08	4.470325e+01	2.294253e+03
1.780000e-06	6.252296e-06	3.504958e-08	4.449532e+01	2.291235e+03
1.790000e-06	6.221451e-06	3.498468e-08	4.427581e+01	2.287928e+03
1.800000e-06	6.189158e-06	3.476202e-08	4.404600e+01	2.284284e+03
1.810000e-06	6.154870e-06	3.492548e-08	4.380198e+01	2.280262e+03
1.820000e-06	6.118497e-06	3.477855e-08	4.354313e+01	2.275837e+03
1.830000e-06	6.080088e-06	3.465657e-08	4.326978e+01	2.270998e+03
1.840000e-06	6.039331e-06	3.471192e-08	4.297973e+01	2.265751e+03
1.850000e-06	5.996532e-06	3.437084e-08	4.267515e+01	2.260115e+03
1.860000e-06	5.951659e-06	3.436929e-08	4.235580e+01	2.254125e+03
1.870000e-06	5.904513e-06	3.429388e-08	4.202028e+01	2.247818e+03
1.880000e-06	5.855339e-06	3.413718e-08	4.167032e+01	2.241236e+03
1.890000e-06	5.803631e-06	3.417919e-08	4.130234e+01	2.234415e+03
1.900000e-06	5.749290e-06	3.391688e-08	4.091561e+01	2.227379e+03
1.910000e-06	5.692742e-06	3.387270e-08	4.051318e+01	2.220139e+03
1.920000e-06	5.634230e-06	3.378102e-08	4.009678e+01	2.212684e+03
1.930000e-06	5.573814e-06	3.359793e-08	3.966682e+01	2.204987e+03
1.940000e-06	5.511201e-06	3.357070e-08	3.922122e+01	2.197006e+03
1.950000e-06	5.446485e-06	3.335319e-08	3.876066e+01	2.188690e+03
1.960000e-06	5.379787e-06	3.329832e-08	3.828599e+01	2.179989e+03
1.970000e-06	5.311022e-06	3.309441e-08	3.779662e+01	2.170861e+03
1.980000e-06	5.240128e-06	3.292567e-08	3.729209e+01	2.161277e+03
1.990000e-06	5.167234e-06	3.285116e-08	3.677333e+01	2.151227e+03
2.000000e-06	5.092539e-06	3.264821e-08	3.624176e+01	2.140714e+03
2.010000e-06	5.015818e-06	3.254667e-08	3.569576e+01	2.129755e+03
2.020000e-06	4.937015e-06	3.229929e-08	3.513495e+01	2.118367e+03
2.030000e-06	4.856393e-06	3.213785e-08	3.456119e+01	2.106561e+03
2.040000e-06	4.774161e-06	3.196292e-08	3.397597e+01	2.094334e+03
2.050000e-06	4.690356e-06	3.175742e-08	3.337957e+01	2.081668e+03
2.060000e-06	4.604769e-06	3.158060e-08	3.277047e+01	2.068529e+03
2.070000e-06	4.517412e-06	3.134665e-08	3.214878e+01	2.054874e+03
2.080000e-06	4.428471e-06	3.116028e-08	3.151582e+01	2.040655e+03
2.090000e-06	4.338123e-06	3.090215e-08	3.087285e+01	2.025834e+03
2.100000e-06	4.246412e-06	3.068333e-08	3.022018e+01	2.010385e+03
2.110000e-06	4.153225e-06	3.044433e-08	2.955699e+01	1.994292e+03
2.120000e-06	4.058504e-06	3.019341e-08	2.888290e+01	1.977555e+03
2.130000e-06	3.962326e-06	2.992999e-08	2.819844e+01	1.960175e+03
2.140000e-06	3.864786e-06	2.964322e-08	2.750428e+01	1.942147e+03
2.150000e-06	3.765932e-06	2.936775e-08	2.680078e+01	1.923454e+03
2.160000e-06	3.665682e-06	2.906287e-08	2.608733e+01	1.904057e+03
2.170000e-06	3.563935e-06	2.876746e-08	2.536323e+01	1.883900e+03
2.180000e-06	3.460813e-06	2.844294e-08	2.462935e+01	1.862912e+03
2.190000e-06	3.356396e-06	2.811628e-08	2.388625e+01	1.841018e+03
2.200000e-06	3.250736e-06	2.776192e-08	2.313431e+01	1.818144e+03
2.210000e-06	3.144035e-06	2.740050e-08	2.237496e+01	1.794230e+03
2.220000e-06	3.036327e-06	2.702228e-08	2.160844e+01	1.769229e+03
2.230000e-06	2.927473e-06	2.662484e-08	2.083376e+01	1.743105e+03
2.240000e-06	2.817522e-06	2.620827e-08	2.005128e+01	1.715822e+03
2.250000e-06	2.706531e-06	2.577162e-08	1.926140e+01	1.687335e+03
2.260000e-06	2.594505e-06	2.532176e-08	1.846416e+01	1.657577e+03
2.270000e-06	2.481460e-06	2.484524e-08	1.765965e+01	1.626452e+03
2.280000e-06	2.367410e-06	2.435265e-08	1.684800e+01	1.593833e+03
2.290000e-06	2.252414e-06	2.382747e-08	1.602961e+01	1.559570e+03
2.300000e-06	2.136522e-06	2.327570e-08	1.520486e+01	1.523503e+03
2.310000e-06	2.019806e-06	2.269245e-08	1.437423e+01	1.485467e+03
2.320000e-06	1.902235e-06	2.208353e-08	1.353752e+01	1.445311e+03
2.330000e-06	1.783879e-06	2.144232e-08	1.269522e+01	1.402896e+03
2.340000e-06	1.664810e-06	2.076365e-08	1.184785e+01	1.358092e+03
2.350000e-06	1.545063e-06	2.004406e-08	1.099565e+01	1.310767e+03
2.360000e-06	1.424818e-06	1.928110e-08	1.013991e+01	1.260774e+03
2.370000e-06	1.304135e-06	1.847482e-08	9.281057e+00	1.207946e+03
2.380000e-06	1.183062e-06	1.762141e-08	8.419423e+00	1.152090e+03
2.390000e-06	1.061675e-06	1.672272e-08	7.555556e+00	1.093007e+03
2.400000e-06	9.399420e-07	1.576915e-08	6.689226e+00	1.030524e+03
2.410000e-06	8.178662e-07	1.476213e-08	5.820458e+00	9.645313e+02
2.420000e-06	6.955483e-07	1.370415e-08	4.949965e+00	8.950291e+02
2.430000e-06	5.730888e-07	1.259459e-08	4.078466e+00	8.221635e+02
2.440000e-06	4.504977e-07	1.143673e-08	3.206029e+00	7.462414e+02
2.450000e-06	3.277922e-07	1.023652e-08	2.332778e+00	6.677188e+02
2.460000e-06	2.049598e-07	9.006428e-09	1.458624e+00	5.871567e+02
2.470000e-06	8.196616e-08	7.754573e-09	5.833235e-01	5.051506e+02
2.480000e-06	-4.108699e-08	6.488781e-09	-2.924012e-01	4.222439e+02
2.490000e-06	-1.641059e-07	5.215192e-09	-1.167882e+00	3.388425e+02
2.500000e-06	-2.870992e-07	3.937195e-09	-2.043181e+00	2.551482e+02
2.510000e-06	-4.100237e-07	2.653926e-09	-2.917990e+00	1.711273e+02
2.520000e-06	-5.327898e-07	1.359377e-09	-3.791672e+00	8.652580e+01
2.530000e-06	-6.554335e-07	4.977142e-11	-4.664482e+00	9.302977e-01
2.540000e-06	-7.779543e-07	-1.278850e-09	-5.536419e+00	-8.613175e+01
2.550000e-06	-9.002595e-07	-2.633426e-09	-6.406821e+00	-1.750713e+02
2.560000e-06	-1.022216e-06	-4.019267e-09	-7.274739e+00	-2.661181e+02
2.570000e-06	-1.143732e-06	-5.437695e-09	-8.139528e+00	-3.592258e+02
2.580000e-06	-1.264873e-06	-6.884914e-09	-9.001644e+00	-4.540202e+02
2.590000e-06	-1.385648e-06	-8.351493e-09	-9.861158e+00	-5.498028e+02
2.600000e-06	-1.505926e-06	-9.822104e-09	-1.071713e+01	-6.456082e+02
2.610000e-06	-1.625618e-06	-1.127507e-08	-1.156894e+01	-7.403062e+02
2.620000e-06	-1.744672e-06	-1.269060e-08	-1.241620e+01	-8.327293e+02
2.630000e-06	-1.863050e-06	-1.405094e-08	-1.325865e+01	-9.218033e+02
2.640000e-06	-1.980686e-06	-1.534512e-08	-1.409582e+01	-1.006657e+03
2.650000e-06	-2.097391e-06	-1.656763e-08	-1.492637e+01	-1.086696e+03
2.660000e-06	-2.213098e-06	-1.771424e-08	-1.574982e+01	-1.161628e+03
2.670000e-06	-2.327884e-06	-1.878473e-08	-1.656670e+01	-1.231442e+03
2.680000e-06	-2.441729e-06	-1.978085e-08	-1.737690e+01	-1.296355e+03
2.690000e-06	-2.554555e-06	-2.070761e-08	-1.817984e+01	-1.356731e+03
2.700000e-06	-2.666273e-06	-2.157353e-08	-1.897490e+01	-1.412998e+03
2.710000e-06	-2.776770e-06	-2.238177e-08	-1.976127e+01	-1.465581e+03
2.720000e-06	-2.886254e-06	-2.313645e-08	-2.054043e+01	-1.514849e+03
2.730000e-06	-2.994858e-06	-2.384467e-08	-2.131332e+01	-1.561098e+03
2.740000e-06	-3.102512e-06	-2.450897e-08	-2.207946e+01	-1.604552e+03
2.750000e-06	-3.209216e-06	-2.513124e-08	-2.283883e+01	-1.645383e+03
2.760000e-06	-3.314865e-06	-2.571737e-08	-2.359069e+01	-1.683739e+03
2.770000e-06	-3.419377e-06	-2.627311e-08	-2.433446e+01	-1.719767e+03
2.780000e-06	-3.522673e-06	-2.679453e-08	-2.506959e+01	-1.753629e+03
2.790000e-06	-3.624599e-06	-2.728043e-08	-2.579496e+01	-1.785502e+03
2.800000e-06	-3.725077e-06	-2.773861e-08	-2.651002e+01	-1.815572e+03
2.810000e-06	-3.824301e-06	-2.817384e-08	-2.721617e+01	-1.844016e+03
2.820000e-06	-3.922330e-06	-2.858653e-08	-2.791380e+01	-1.870989e+03
2.830000e-06	-4.019066e-06	-2.897848e-08	-2.860224e+01	-1.896611e+03
2.840000e-06	-4.114480e-06	-2.935067e-08	-2.928126e+01	-1.920967e+03
2.850000e-06	-4.208301e-06	-2.970354e-08	-2.994896e+01	-1.944113e+03
2.860000e-06	-4.300537e-06	-3.003793e-08	-3.060536e+01	-1.966084e+03
2.870000e-06	-4.391359e-06	-3.035396e-08	-3.125171e+01	-1.986918e+03
2.880000e-06	-4.480623e-06	-3.065321e-08	-3.188697e+01	-2.006659e+03
2.890000e-06	-4.568277e-06	-3.093954e-08	-3.251077e+01	-2.025366e+03
2.900000e-06	-4.654148e-06	-3.121302e-08	-3.312189e+01	-2.043117e+03
2.910000e-06	-4.738249e-06	-3.147129e-08	-3.372040e+01	-2.059995e+03
2.920000e-06	-4.820787e-06	-3.171668e-08	-3.430779e+01	-2.076081e+03
2.930000e-06	-4.901723e-06	-3.195232e-08	-3.488379e+01	-2.091441e+03
2.940000e-06	-4.980804e-06	-3.217944e-08	-3.544658e+01	-2.106123e+03
