# Temperatura_=_64.92
# Concentracion g/m^3_=_28200.0
# C_Vs_to_Am_M_A/Vsm_=_65563218390.804596
# pendiente_HvsI_1/m_=_3716.3
# ordenada_HvsI_A/m_=_1297.0
# frecuencia_Hz_=_302145.4485614617

Tiempo_(s)	Campo_(V.s)	Magnetizacion_(V.s)	Campo_(kA/m)	Magnetizacion_(A/m)
0.000000e+00	-6.396689e-06	-3.494684e-08	-4.585345e+01	-2.289966e+03
1.000000e-08	-6.393719e-06	-3.493915e-08	-4.583216e+01	-2.289485e+03
2.000000e-08	-6.388657e-06	-3.492205e-08	-4.579588e+01	-2.288699e+03
3.000000e-08	-6.381688e-06	-3.490376e-08	-4.574592e+01	-2.287592e+03
4.000000e-08	-6.372697e-06	-3.488286e-08	-4.568147e+01	-2.286171e+03
5.000000e-08	-6.361319e-06	-3.485486e-08	-4.559991e+01	-2.284470e+03
6.000000e-08	-6.347561e-06	-3.481967e-08	-4.550128e+01	-2.282539e+03
7.000000e-08	-6.331491e-06	-3.477338e-08	-4.538609e+01	-2.280438e+03
8.000000e-08	-6.313271e-06	-3.475600e-08	-4.525548e+01	-2.278218e+03
9.000000e-08	-6.293058e-06	-3.483380e-08	-4.511059e+01	-2.275914e+03
1.000000e-07	-6.270511e-06	-3.477620e-08	-4.494897e+01	-2.273533e+03
1.100000e-07	-6.245276e-06	-3.464252e-08	-4.476807e+01	-2.271049e+03
1.200000e-07	-6.217560e-06	-3.459783e-08	-4.456940e+01	-2.268409e+03
1.300000e-07	-6.187906e-06	-3.449251e-08	-4.435683e+01	-2.265539e+03
1.400000e-07	-6.156686e-06	-3.430612e-08	-4.413304e+01	-2.262358e+03
1.500000e-07	-6.123706e-06	-3.447112e-08	-4.389662e+01	-2.258791e+03
1.600000e-07	-6.088640e-06	-3.444908e-08	-4.364526e+01	-2.254784e+03
1.700000e-07	-6.051761e-06	-3.421607e-08	-4.338090e+01	-2.250310e+03
1.800000e-07	-6.012976e-06	-3.433542e-08	-4.310288e+01	-2.245372e+03
1.900000e-07	-5.971791e-06	-3.412614e-08	-4.280765e+01	-2.240004e+03
2.000000e-07	-5.928338e-06	-3.398041e-08	-4.249617e+01	-2.234261e+03
2.100000e-07	-5.882723e-06	-3.402454e-08	-4.216918e+01	-2.228207e+03
2.200000e-07	-5.834857e-06	-3.386520e-08	-4.182607e+01	-2.221904e+03
2.300000e-07	-5.784620e-06	-3.381020e-08	-4.146595e+01	-2.215400e+03
2.400000e-07	-5.731783e-06	-3.372172e-08	-4.108720e+01	-2.208721e+03
2.500000e-07	-5.676737e-06	-3.357919e-08	-4.069261e+01	-2.201866e+03
2.600000e-07	-5.619551e-06	-3.349481e-08	-4.028268e+01	-2.194810e+03
2.700000e-07	-5.560160e-06	-3.335203e-08	-3.985695e+01	-2.187510e+03
2.800000e-07	-5.498819e-06	-3.324613e-08	-3.941724e+01	-2.179912e+03
2.900000e-07	-5.435551e-06	-3.310732e-08	-3.896371e+01	-2.171962e+03
3.000000e-07	-5.370265e-06	-3.301424e-08	-3.849572e+01	-2.163613e+03
3.100000e-07	-5.302899e-06	-3.287776e-08	-3.801283e+01	-2.154835e+03
3.200000e-07	-5.233458e-06	-3.270294e-08	-3.751505e+01	-2.145617e+03
3.300000e-07	-5.162131e-06	-3.257793e-08	-3.700376e+01	-2.135960e+03
3.400000e-07	-5.089093e-06	-3.238535e-08	-3.648019e+01	-2.125881e+03
3.500000e-07	-5.014033e-06	-3.225260e-08	-3.594214e+01	-2.115395e+03
3.600000e-07	-4.936824e-06	-3.209626e-08	-3.538869e+01	-2.104518e+03
3.700000e-07	-4.857606e-06	-3.191734e-08	-3.482083e+01	-2.093249e+03
3.800000e-07	-4.776442e-06	-3.174483e-08	-3.423902e+01	-2.081577e+03
3.900000e-07	-4.693566e-06	-3.153967e-08	-3.364494e+01	-2.069471e+03
4.000000e-07	-4.609288e-06	-3.134212e-08	-3.304081e+01	-2.056894e+03
4.100000e-07	-4.523621e-06	-3.114093e-08	-3.242672e+01	-2.043799e+03
4.200000e-07	-4.436569e-06	-3.095081e-08	-3.180270e+01	-2.030144e+03
4.300000e-07	-4.348131e-06	-3.073320e-08	-3.116875e+01	-2.015896e+03
4.400000e-07	-4.258028e-06	-3.049547e-08	-3.052286e+01	-2.001032e+03
4.500000e-07	-4.166257e-06	-3.026002e-08	-2.986502e+01	-1.985541e+03
4.600000e-07	-4.073018e-06	-3.000666e-08	-2.919665e+01	-1.969421e+03
4.700000e-07	-3.978461e-06	-2.975294e-08	-2.851884e+01	-1.952669e+03
4.800000e-07	-3.882554e-06	-2.948949e-08	-2.783135e+01	-1.935279e+03
4.900000e-07	-3.785169e-06	-2.921775e-08	-2.713326e+01	-1.917228e+03
5.000000e-07	-3.686212e-06	-2.892901e-08	-2.642391e+01	-1.898482e+03
5.100000e-07	-3.585837e-06	-2.862496e-08	-2.570439e+01	-1.878988e+03
5.200000e-07	-3.484227e-06	-2.831108e-08	-2.497602e+01	-1.858682e+03
5.300000e-07	-3.381489e-06	-2.798338e-08	-2.423956e+01	-1.837500e+03
5.400000e-07	-3.277580e-06	-2.764676e-08	-2.349471e+01	-1.815375e+03
5.500000e-07	-3.172393e-06	-2.729368e-08	-2.274069e+01	-1.792254e+03
5.600000e-07	-3.065926e-06	-2.692786e-08	-2.197751e+01	-1.768088e+03
5.700000e-07	-2.958133e-06	-2.654127e-08	-2.120481e+01	-1.742837e+03
5.800000e-07	-2.849229e-06	-2.613551e-08	-2.042416e+01	-1.716461e+03
5.900000e-07	-2.739422e-06	-2.571479e-08	-1.963703e+01	-1.688908e+03
6.000000e-07	-2.628758e-06	-2.527602e-08	-1.884375e+01	-1.660109e+03
6.100000e-07	-2.517089e-06	-2.481934e-08	-1.804327e+01	-1.629969e+03
6.200000e-07	-2.404344e-06	-2.433768e-08	-1.723508e+01	-1.598371e+03
6.300000e-07	-2.290695e-06	-2.382767e-08	-1.642042e+01	-1.565177e+03
6.400000e-07	-2.176144e-06	-2.328639e-08	-1.559928e+01	-1.530238e+03
6.500000e-07	-2.060602e-06	-2.272013e-08	-1.477104e+01	-1.493402e+03
6.600000e-07	-1.944185e-06	-2.212758e-08	-1.393652e+01	-1.454526e+03
6.700000e-07	-1.827036e-06	-2.150524e-08	-1.309676e+01	-1.413474e+03
6.800000e-07	-1.709266e-06	-2.084920e-08	-1.225255e+01	-1.370119e+03
6.900000e-07	-1.590996e-06	-2.015121e-08	-1.140475e+01	-1.324331e+03
7.000000e-07	-1.472286e-06	-1.941080e-08	-1.055380e+01	-1.275969e+03
7.100000e-07	-1.353133e-06	-1.862370e-08	-9.699674e+00	-1.224871e+03
7.200000e-07	-1.233473e-06	-1.779393e-08	-8.841913e+00	-1.170859e+03
7.300000e-07	-1.113347e-06	-1.691999e-08	-7.980813e+00	-1.113745e+03
7.400000e-07	-9.928070e-07	-1.599731e-08	-7.116749e+00	-1.053360e+03
7.500000e-07	-8.718738e-07	-1.502356e-08	-6.249862e+00	-9.895901e+02
7.600000e-07	-7.506435e-07	-1.399876e-08	-5.380846e+00	-9.224135e+02
7.700000e-07	-6.291594e-07	-1.292356e-08	-4.510009e+00	-8.519385e+02
7.800000e-07	-5.074841e-07	-1.180334e-08	-3.637803e+00	-7.784240e+02
7.900000e-07	-3.857232e-07	-1.064450e-08	-2.764984e+00	-7.022777e+02
8.000000e-07	-2.638814e-07	-9.450869e-09	-1.891583e+00	-6.240263e+02
8.100000e-07	-1.419052e-07	-8.234042e-09	-1.017221e+00	-5.442597e+02
8.200000e-07	-1.983044e-08	-7.005592e-09	-1.421507e-01	-4.635552e+02
8.300000e-07	1.022636e-07	-5.771759e-09	7.330575e-01	-3.823944e+02
8.400000e-07	2.243519e-07	-4.532978e-09	1.608224e+00	-3.010903e+02
8.500000e-07	3.463816e-07	-3.294442e-09	2.482971e+00	-2.197375e+02
8.600000e-07	4.683195e-07	-2.054045e-09	3.357059e+00	-1.382005e+02
8.700000e-07	5.901926e-07	-8.039417e-10	4.230684e+00	-5.614442e+01
8.800000e-07	7.119451e-07	4.618313e-10	5.103443e+00	2.689296e+01
8.900000e-07	8.334788e-07	1.749885e-09	5.974634e+00	1.113998e+02
9.000000e-07	9.547402e-07	3.065509e-09	6.843874e+00	1.977752e+02
9.100000e-07	1.075639e-06	4.413053e-09	7.710512e+00	2.862225e+02
9.200000e-07	1.196039e-06	5.790864e-09	8.573576e+00	3.766691e+02
9.300000e-07	1.315880e-06	7.193599e-09	9.432636e+00	4.687296e+02
9.400000e-07	1.435214e-06	8.612429e-09	1.028806e+01	5.617181e+02
9.500000e-07	1.554070e-06	1.003234e-08	1.114005e+01	6.547091e+02
9.600000e-07	1.672404e-06	1.143283e-08	1.198831e+01	7.466352e+02
9.700000e-07	1.790191e-06	1.279567e-08	1.283265e+01	8.364042e+02
9.800000e-07	1.907313e-06	1.410962e-08	1.367221e+01	9.230161e+02
9.900000e-07	2.023629e-06	1.536351e-08	1.450600e+01	1.005661e+03
1.000000e-06	2.139020e-06	1.654773e-08	1.533316e+01	1.083780e+03
1.010000e-06	2.253467e-06	1.765947e-08	1.615355e+01	1.157091e+03
1.020000e-06	2.367031e-06	1.869743e-08	1.696761e+01	1.225565e+03
1.030000e-06	2.479622e-06	1.966558e-08	1.777470e+01	1.289381e+03
1.040000e-06	2.591199e-06	2.057083e-08	1.857452e+01	1.348855e+03
1.050000e-06	2.701777e-06	2.141514e-08	1.936718e+01	1.404368e+03
1.060000e-06	2.811468e-06	2.220390e-08	2.015348e+01	1.456300e+03
1.070000e-06	2.920382e-06	2.293974e-08	2.093420e+01	1.504995e+03
1.080000e-06	3.028248e-06	2.363236e-08	2.170742e+01	1.550730e+03
1.090000e-06	3.134915e-06	2.428394e-08	2.247204e+01	1.593724e+03
1.100000e-06	3.240489e-06	2.489579e-08	2.322883e+01	1.634147e+03
1.110000e-06	3.344842e-06	2.546920e-08	2.397686e+01	1.672145e+03
1.120000e-06	3.447891e-06	2.600982e-08	2.471555e+01	1.707859e+03
1.130000e-06	3.549760e-06	2.651863e-08	2.544578e+01	1.741441e+03
1.140000e-06	3.650541e-06	2.699734e-08	2.616821e+01	1.773054e+03
1.150000e-06	3.750036e-06	2.745155e-08	2.688142e+01	1.802869e+03
1.160000e-06	3.848113e-06	2.788277e-08	2.758447e+01	1.831053e+03
1.170000e-06	3.944728e-06	2.829103e-08	2.827703e+01	1.857753e+03
1.180000e-06	4.039817e-06	2.867608e-08	2.895866e+01	1.883093e+03
1.190000e-06	4.133586e-06	2.904115e-08	2.963083e+01	1.907161e+03
1.200000e-06	4.226052e-06	2.938652e-08	3.029365e+01	1.930024e+03
1.210000e-06	4.317025e-06	2.971556e-08	3.094577e+01	1.951727e+03
1.220000e-06	4.406343e-06	3.002867e-08	3.158604e+01	1.972309e+03
1.230000e-06	4.494001e-06	3.032764e-08	3.221439e+01	1.991814e+03
1.240000e-06	4.580112e-06	3.060834e-08	3.283166e+01	2.010296e+03
1.250000e-06	4.664665e-06	3.087221e-08	3.343777e+01	2.027819e+03
1.260000e-06	4.747629e-06	3.112378e-08	3.403248e+01	2.044457e+03
1.270000e-06	4.828890e-06	3.136530e-08	3.461498e+01	2.060283e+03
1.280000e-06	4.908312e-06	3.159619e-08	3.518431e+01	2.075361e+03
1.290000e-06	4.985972e-06	3.181661e-08	3.574099e+01	2.089745e+03
1.300000e-06	5.061778e-06	3.202548e-08	3.628440e+01	2.103469e+03
1.310000e-06	5.135490e-06	3.222273e-08	3.681278e+01	2.116555e+03
1.320000e-06	5.207185e-06	3.240820e-08	3.732672e+01	2.129017e+03
1.330000e-06	5.277108e-06	3.258377e-08	3.782795e+01	2.140865e+03
1.340000e-06	5.345194e-06	3.275343e-08	3.831601e+01	2.152112e+03
1.350000e-06	5.411246e-06	3.291831e-08	3.878949e+01	2.162779e+03
1.360000e-06	5.475302e-06	3.307714e-08	3.924866e+01	2.172891e+03
1.370000e-06	5.537499e-06	3.322779e-08	3.969451e+01	2.182478e+03
1.380000e-06	5.597841e-06	3.336926e-08	4.012706e+01	2.191567e+03
1.390000e-06	5.656115e-06	3.350217e-08	4.054479e+01	2.200178e+03
1.400000e-06	5.712350e-06	3.362799e-08	4.094790e+01	2.208323e+03
1.410000e-06	5.766599e-06	3.374705e-08	4.133677e+01	2.216004e+03
1.420000e-06	5.818520e-06	3.385814e-08	4.170896e+01	2.223221e+03
1.430000e-06	5.867893e-06	3.396059e-08	4.206287e+01	2.229972e+03
1.440000e-06	5.914959e-06	3.405578e-08	4.240026e+01	2.236265e+03
1.450000e-06	5.960151e-06	3.414328e-08	4.272421e+01	2.242118e+03
1.460000e-06	6.003424e-06	3.422482e-08	4.303440e+01	2.247562e+03
1.470000e-06	6.044438e-06	3.430362e-08	4.332841e+01	2.252638e+03
1.480000e-06	6.083244e-06	3.437996e-08	4.360658e+01	2.257387e+03
1.490000e-06	6.120083e-06	3.445214e-08	4.387065e+01	2.261843e+03
1.500000e-06	6.154790e-06	3.451694e-08	4.411944e+01	2.266028e+03
1.510000e-06	6.187173e-06	3.457704e-08	4.435158e+01	2.269944e+03
1.520000e-06	6.217428e-06	3.463299e-08	4.456845e+01	2.273572e+03
1.530000e-06	6.245632e-06	3.468343e-08	4.477063e+01	2.276881e+03
1.540000e-06	6.271498e-06	3.472923e-08	4.495604e+01	2.279836e+03
1.550000e-06	6.294891e-06	3.476866e-08	4.512373e+01	2.282407e+03
1.560000e-06	6.316134e-06	3.480153e-08	4.527601e+01	2.284578e+03
1.570000e-06	6.335253e-06	3.482958e-08	4.541306e+01	2.286358e+03
1.580000e-06	6.351987e-06	3.485339e-08	4.553301e+01	2.287775e+03
1.590000e-06	6.366351e-06	3.487314e-08	4.563597e+01	2.288877e+03
1.600000e-06	6.378266e-06	3.488826e-08	4.572139e+01	2.289717e+03
1.610000e-06	6.387622e-06	3.489999e-08	4.578846e+01	2.290345e+03
1.620000e-06	6.394581e-06	3.490999e-08	4.583834e+01	2.290796e+03
1.630000e-06	6.399372e-06	3.491718e-08	4.587269e+01	2.291081e+03
1.640000e-06	6.401926e-06	3.492035e-08	4.589099e+01	2.291190e+03
1.650000e-06	6.402150e-06	3.492283e-08	4.589260e+01	2.291091e+03
1.660000e-06	6.400250e-06	3.490933e-08	4.587898e+01	2.290740e+03
1.670000e-06	6.396313e-06	3.489906e-08	4.585075e+01	2.290099e+03
1.680000e-06	6.390175e-06	3.488938e-08	4.580676e+01	2.289142e+03
1.690000e-06	6.381907e-06	3.487244e-08	4.574749e+01	2.287864e+03
1.700000e-06	6.371677e-06	3.485480e-08	4.567415e+01	2.286288e+03
1.710000e-06	6.359243e-06	3.483575e-08	4.558503e+01	2.284456e+03
1.720000e-06	6.344493e-06	3.483887e-08	4.547929e+01	2.282427e+03
1.730000e-06	6.327727e-06	3.477959e-08	4.535911e+01	2.280256e+03
1.740000e-06	6.308958e-06	3.462089e-08	4.522457e+01	2.277989e+03
1.750000e-06	6.287404e-06	3.462846e-08	4.507006e+01	2.275645e+03
1.760000e-06	6.262621e-06	3.465324e-08	4.489241e+01	2.273213e+03
1.770000e-06	6.235435e-06	3.457026e-08	4.469753e+01	2.270654e+03
1.780000e-06	6.206332e-06	3.470383e-08	4.448891e+01	2.267900e+03
1.790000e-06	6.175588e-06	3.462432e-08	4.426853e+01	2.264873e+03
1.800000e-06	6.143480e-06	3.438896e-08	4.403837e+01	2.261494e+03
1.810000e-06	6.109404e-06	3.457906e-08	4.379410e+01	2.257697e+03
1.820000e-06	6.073316e-06	3.440012e-08	4.353542e+01	2.253440e+03
1.830000e-06	6.035188e-06	3.427398e-08	4.326210e+01	2.248715e+03
1.840000e-06	5.994584e-06	3.439190e-08	4.297104e+01	2.243541e+03
1.850000e-06	5.951908e-06	3.403318e-08	4.266512e+01	2.237965e+03
1.860000e-06	5.907227e-06	3.404087e-08	4.234484e+01	2.232047e+03
1.870000e-06	5.860369e-06	3.396690e-08	4.200894e+01	2.225852e+03
1.880000e-06	5.811462e-06	3.376318e-08	4.165836e+01	2.219437e+03
1.890000e-06	5.760053e-06	3.383558e-08	4.128985e+01	2.212837e+03
1.900000e-06	5.706056e-06	3.357173e-08	4.090278e+01	2.206065e+03
1.910000e-06	5.649796e-06	3.355497e-08	4.049949e+01	2.199107e+03
1.920000e-06	5.591527e-06	3.349897e-08	4.008180e+01	2.191927e+03
1.930000e-06	5.531446e-06	3.327150e-08	3.965112e+01	2.184474e+03
1.940000e-06	5.469237e-06	3.324269e-08	3.920519e+01	2.176694e+03
1.950000e-06	5.404879e-06	3.301202e-08	3.874385e+01	2.168534e+03
1.960000e-06	5.338573e-06	3.298879e-08	3.826855e+01	2.159958e+03
1.970000e-06	5.270292e-06	3.280556e-08	3.777909e+01	2.150945e+03
1.980000e-06	5.199950e-06	3.262496e-08	3.727485e+01	2.141490e+03
1.990000e-06	5.127535e-06	3.257631e-08	3.675576e+01	2.131605e+03
2.000000e-06	5.053292e-06	3.233933e-08	3.622357e+01	2.121306e+03
2.010000e-06	4.977033e-06	3.224049e-08	3.567691e+01	2.110609e+03
2.020000e-06	4.898632e-06	3.200315e-08	3.511491e+01	2.099523e+03
2.030000e-06	4.818406e-06	3.186518e-08	3.453982e+01	2.088041e+03
2.040000e-06	4.736589e-06	3.171610e-08	3.395334e+01	2.076140e+03
2.050000e-06	4.653335e-06	3.148770e-08	3.335655e+01	2.063787e+03
2.060000e-06	4.568485e-06	3.131547e-08	3.274832e+01	2.050938e+03
2.070000e-06	4.481839e-06	3.107031e-08	3.212722e+01	2.037548e+03
2.080000e-06	4.393511e-06	3.089594e-08	3.149405e+01	2.023579e+03
2.090000e-06	4.303706e-06	3.064431e-08	3.085030e+01	2.009003e+03
2.100000e-06	4.212525e-06	3.043277e-08	3.019668e+01	1.993803e+03
2.110000e-06	4.119976e-06	3.020540e-08	2.953327e+01	1.977975e+03
2.120000e-06	4.025906e-06	2.994964e-08	2.885894e+01	1.961517e+03
2.130000e-06	3.930306e-06	2.969351e-08	2.817366e+01	1.944425e+03
2.140000e-06	3.833343e-06	2.940540e-08	2.747859e+01	1.926685e+03
2.150000e-06	3.735098e-06	2.914353e-08	2.677434e+01	1.908267e+03
2.160000e-06	3.635554e-06	2.884301e-08	2.606078e+01	1.889127e+03
2.170000e-06	3.534643e-06	2.855017e-08	2.533742e+01	1.869206e+03
2.180000e-06	3.432313e-06	2.822293e-08	2.460388e+01	1.848439e+03
2.190000e-06	3.328577e-06	2.789841e-08	2.386028e+01	1.826760e+03
2.200000e-06	3.223596e-06	2.754973e-08	2.310774e+01	1.804107e+03
2.210000e-06	3.117565e-06	2.719109e-08	2.234767e+01	1.780431e+03
2.220000e-06	3.010509e-06	2.682038e-08	2.158026e+01	1.755689e+03
2.230000e-06	2.902351e-06	2.642992e-08	2.080495e+01	1.729841e+03
2.240000e-06	2.793177e-06	2.602364e-08	2.002236e+01	1.702842e+03
2.250000e-06	2.682950e-06	2.558772e-08	1.923222e+01	1.674631e+03
2.260000e-06	2.571619e-06	2.513767e-08	1.843417e+01	1.645127e+03
2.270000e-06	2.459318e-06	2.465975e-08	1.762915e+01	1.614222e+03
2.280000e-06	2.346044e-06	2.417144e-08	1.681717e+01	1.581787e+03
2.290000e-06	2.231812e-06	2.365143e-08	1.599832e+01	1.547677e+03
2.300000e-06	2.116819e-06	2.310523e-08	1.517402e+01	1.511740e+03
2.310000e-06	2.001010e-06	2.252655e-08	1.434386e+01	1.473828e+03
2.320000e-06	1.884256e-06	2.191806e-08	1.350693e+01	1.433803e+03
2.330000e-06	1.766791e-06	2.127608e-08	1.266490e+01	1.391533e+03
2.340000e-06	1.648747e-06	2.059890e-08	1.181873e+01	1.346891e+03
2.350000e-06	1.529969e-06	1.988609e-08	1.096729e+01	1.299743e+03
2.360000e-06	1.410508e-06	1.912931e-08	1.011096e+01	1.249936e+03
2.370000e-06	1.290517e-06	1.832610e-08	9.250829e+00	1.197300e+03
2.380000e-06	1.170158e-06	1.747247e-08	8.388057e+00	1.141649e+03
2.390000e-06	1.049549e-06	1.657535e-08	7.523493e+00	1.082801e+03
2.400000e-06	9.286225e-07	1.562813e-08	6.656654e+00	1.020612e+03
2.410000e-06	8.073850e-07	1.463182e-08	5.787586e+00	9.550120e+02
2.420000e-06	6.858785e-07	1.358509e-08	4.916590e+00	8.860455e+02
2.430000e-06	5.641951e-07	1.248849e-08	4.044325e+00	8.139001e+02
2.440000e-06	4.423796e-07	1.134455e-08	3.171114e+00	7.389163e+02
2.450000e-06	3.204225e-07	1.015905e-08	2.296888e+00	6.615710e+02
2.460000e-06	1.983625e-07	8.946114e-09	1.421924e+00	5.824334e+02
2.470000e-06	7.621288e-08	7.716253e-09	5.463176e-01	5.020966e+02
2.480000e-06	-4.598020e-08	6.480239e-09	-3.296004e-01	4.210969e+02
2.490000e-06	-1.681663e-07	5.239472e-09	-1.205468e+00	3.398335e+02
2.500000e-06	-2.902989e-07	3.995835e-09	-2.080953e+00	2.585064e+02
2.510000e-06	-4.123195e-07	2.752371e-09	-2.955634e+00	1.770855e+02
2.520000e-06	-5.342457e-07	1.501969e-09	-3.829639e+00	9.532219e+01
2.530000e-06	-6.560490e-07	2.391046e-10	-4.702762e+00	1.280209e+01
2.540000e-06	-7.776472e-07	-1.041024e-09	-5.574416e+00	-7.096485e+01
2.550000e-06	-8.990117e-07	-2.344247e-09	-6.444395e+00	-1.564334e+02
2.560000e-06	-1.020095e-06	-3.675989e-09	-7.312356e+00	-2.439097e+02
2.570000e-06	-1.140868e-06	-5.039879e-09	-8.178093e+00	-3.334568e+02
2.580000e-06	-1.261345e-06	-6.431680e-09	-9.041709e+00	-4.248360e+02
2.590000e-06	-1.381391e-06	-7.845610e-09	-9.902242e+00	-5.174962e+02
2.600000e-06	-1.500834e-06	-9.269910e-09	-1.075845e+01	-6.106129e+02
2.610000e-06	-1.619571e-06	-1.068763e-08	-1.160959e+01	-7.031707e+02
2.620000e-06	-1.737603e-06	-1.208133e-08	-1.245568e+01	-7.940738e+02
2.630000e-06	-1.854956e-06	-1.343275e-08	-1.329690e+01	-8.822658e+02
2.640000e-06	-1.971488e-06	-1.472855e-08	-1.413224e+01	-9.668381e+02
2.650000e-06	-2.087117e-06	-1.595870e-08	-1.496110e+01	-1.047110e+03
2.660000e-06	-2.201898e-06	-1.711552e-08	-1.578388e+01	-1.122672e+03
2.670000e-06	-2.315748e-06	-1.819688e-08	-1.660000e+01	-1.193381e+03
2.680000e-06	-2.428566e-06	-1.920495e-08	-1.740871e+01	-1.259327e+03
2.690000e-06	-2.540361e-06	-2.014391e-08	-1.821010e+01	-1.320772e+03
2.700000e-06	-2.651102e-06	-2.102351e-08	-1.900392e+01	-1.378075e+03
2.710000e-06	-2.760838e-06	-2.184849e-08	-1.979054e+01	-1.431624e+03
2.720000e-06	-2.869686e-06	-2.262177e-08	-2.057080e+01	-1.481783e+03
2.730000e-06	-2.977587e-06	-2.334822e-08	-2.134427e+01	-1.528862e+03
2.740000e-06	-3.084506e-06	-2.402738e-08	-2.211069e+01	-1.573106e+03
2.750000e-06	-3.190431e-06	-2.466124e-08	-2.287000e+01	-1.614703e+03
2.760000e-06	-3.295299e-06	-2.525673e-08	-2.362172e+01	-1.653810e+03
2.770000e-06	-3.398986e-06	-2.582076e-08	-2.436499e+01	-1.690566e+03
2.780000e-06	-3.501383e-06	-2.635220e-08	-2.509900e+01	-1.725118e+03
2.790000e-06	-3.602512e-06	-2.684820e-08	-2.582392e+01	-1.757625e+03
2.800000e-06	-3.702291e-06	-2.731564e-08	-2.653917e+01	-1.788253e+03
2.810000e-06	-3.800738e-06	-2.776018e-08	-2.724487e+01	-1.817175e+03
2.820000e-06	-3.897993e-06	-2.818129e-08	-2.794202e+01	-1.844547e+03
2.830000e-06	-3.993968e-06	-2.858158e-08	-2.863000e+01	-1.870505e+03
2.840000e-06	-4.088540e-06	-2.896230e-08	-2.930792e+01	-1.895155e+03
2.850000e-06	-4.181636e-06	-2.932018e-08	-2.997527e+01	-1.918571e+03
2.860000e-06	-4.273187e-06	-2.965530e-08	-3.063153e+01	-1.940807e+03
2.870000e-06	-4.363248e-06	-2.997163e-08	-3.127711e+01	-1.961905e+03
2.880000e-06	-4.451770e-06	-3.027407e-08	-3.191167e+01	-1.981904e+03
2.890000e-06	-4.538667e-06	-3.056483e-08	-3.253457e+01	-2.000854e+03
2.900000e-06	-4.623894e-06	-3.084288e-08	-3.314550e+01	-2.018813e+03
2.910000e-06	-4.707444e-06	-3.110687e-08	-3.374442e+01	-2.035853e+03
2.920000e-06	-4.789368e-06	-3.135670e-08	-3.433167e+01	-2.052047e+03
2.930000e-06	-4.869588e-06	-3.159379e-08	-3.490672e+01	-2.067465e+03
2.940000e-06	-4.947956e-06	-3.181993e-08	-3.546849e+01	-2.082166e+03
