# Temperatura_=_46.68
# Concentracion g/m^3_=_28200.0
# C_Vs_to_Am_M_A/Vsm_=_65563218390.804596
# pendiente_HvsI_1/m_=_3716.3
# ordenada_HvsI_A/m_=_1297.0
# frecuencia_Hz_=_302139.85614388646

Tiempo_(s)	Campo_(V.s)	Magnetizacion_(V.s)	Campo_(kA/m)	Magnetizacion_(A/m)
0.000000e+00	-6.398615e-06	-3.468754e-08	-4.585408e+01	-2.271007e+03
1.000000e-08	-6.395707e-06	-3.468332e-08	-4.583324e+01	-2.270484e+03
2.000000e-08	-6.390722e-06	-3.466982e-08	-4.579751e+01	-2.269735e+03
3.000000e-08	-6.383777e-06	-3.465604e-08	-4.574774e+01	-2.268742e+03
4.000000e-08	-6.374716e-06	-3.463813e-08	-4.568281e+01	-2.267486e+03
5.000000e-08	-6.363315e-06	-3.461010e-08	-4.560111e+01	-2.265954e+03
6.000000e-08	-6.349501e-06	-3.457790e-08	-4.550212e+01	-2.264142e+03
7.000000e-08	-6.333321e-06	-3.453237e-08	-4.538617e+01	-2.262059e+03
8.000000e-08	-6.315067e-06	-3.449781e-08	-4.525535e+01	-2.259725e+03
9.000000e-08	-6.294757e-06	-3.457186e-08	-4.510981e+01	-2.257179e+03
1.000000e-07	-6.272098e-06	-3.452247e-08	-4.494742e+01	-2.254465e+03
1.100000e-07	-6.246802e-06	-3.438646e-08	-4.476615e+01	-2.251630e+03
1.200000e-07	-6.219058e-06	-3.434358e-08	-4.456733e+01	-2.248715e+03
1.300000e-07	-6.189370e-06	-3.427122e-08	-4.435458e+01	-2.245745e+03
1.400000e-07	-6.158098e-06	-3.407006e-08	-4.413048e+01	-2.242719e+03
1.500000e-07	-6.125135e-06	-3.419188e-08	-4.389425e+01	-2.239606e+03
1.600000e-07	-6.090166e-06	-3.422190e-08	-4.364365e+01	-2.236350e+03
1.700000e-07	-6.053331e-06	-3.393192e-08	-4.337969e+01	-2.232872e+03
1.800000e-07	-6.014516e-06	-3.404111e-08	-4.310153e+01	-2.229082e+03
1.900000e-07	-5.973281e-06	-3.390082e-08	-4.280603e+01	-2.224898e+03
2.000000e-07	-5.929792e-06	-3.371954e-08	-4.249437e+01	-2.220255e+03
2.100000e-07	-5.884209e-06	-3.380006e-08	-4.216772e+01	-2.215117e+03
2.200000e-07	-5.836393e-06	-3.366266e-08	-4.182505e+01	-2.209486e+03
2.300000e-07	-5.786170e-06	-3.357826e-08	-4.146514e+01	-2.203394e+03
2.400000e-07	-5.733418e-06	-3.349034e-08	-4.108711e+01	-2.196897e+03
2.500000e-07	-5.678436e-06	-3.334639e-08	-4.069309e+01	-2.190061e+03
2.600000e-07	-5.621247e-06	-3.327201e-08	-4.028326e+01	-2.182947e+03
2.700000e-07	-5.561885e-06	-3.314501e-08	-3.985786e+01	-2.175596e+03
2.800000e-07	-5.500614e-06	-3.305519e-08	-3.941878e+01	-2.168019e+03
2.900000e-07	-5.437402e-06	-3.291430e-08	-3.896578e+01	-2.160201e+03
3.000000e-07	-5.372073e-06	-3.279068e-08	-3.849762e+01	-2.152100e+03
3.100000e-07	-5.304608e-06	-3.265683e-08	-3.801415e+01	-2.143661e+03
3.200000e-07	-5.235155e-06	-3.249756e-08	-3.751644e+01	-2.134829e+03
3.300000e-07	-5.163920e-06	-3.240379e-08	-3.700595e+01	-2.125558e+03
3.400000e-07	-5.090885e-06	-3.222273e-08	-3.648256e+01	-2.115824e+03
3.500000e-07	-5.015733e-06	-3.207140e-08	-3.594400e+01	-2.105620e+03
3.600000e-07	-4.938469e-06	-3.191521e-08	-3.539031e+01	-2.094957e+03
3.700000e-07	-4.859149e-06	-3.172965e-08	-3.482188e+01	-2.083853e+03
3.800000e-07	-4.777910e-06	-3.157107e-08	-3.423970e+01	-2.072323e+03
3.900000e-07	-4.695091e-06	-3.139018e-08	-3.364620e+01	-2.060368e+03
4.000000e-07	-4.610853e-06	-3.120069e-08	-3.304253e+01	-2.047973e+03
4.100000e-07	-4.525179e-06	-3.098830e-08	-3.242856e+01	-2.035105e+03
4.200000e-07	-4.438083e-06	-3.079037e-08	-3.180442e+01	-2.021720e+03
4.300000e-07	-4.349550e-06	-3.058196e-08	-3.116996e+01	-2.007768e+03
4.400000e-07	-4.259367e-06	-3.034734e-08	-3.052369e+01	-1.993208e+03
4.500000e-07	-4.167571e-06	-3.012190e-08	-2.986586e+01	-1.978007e+03
4.600000e-07	-4.074295e-06	-2.987182e-08	-2.919742e+01	-1.962150e+03
4.700000e-07	-3.979653e-06	-2.961592e-08	-2.851919e+01	-1.945630e+03
4.800000e-07	-3.883707e-06	-2.935274e-08	-2.783162e+01	-1.928444e+03
4.900000e-07	-3.786302e-06	-2.908928e-08	-2.713359e+01	-1.910586e+03
5.000000e-07	-3.687340e-06	-2.881047e-08	-2.642440e+01	-1.892035e+03
5.100000e-07	-3.586961e-06	-2.850947e-08	-2.570506e+01	-1.872752e+03
5.200000e-07	-3.485376e-06	-2.819837e-08	-2.497708e+01	-1.852680e+03
5.300000e-07	-3.382636e-06	-2.787307e-08	-2.424081e+01	-1.831751e+03
5.400000e-07	-3.278695e-06	-2.754062e-08	-2.349595e+01	-1.809889e+03
5.500000e-07	-3.173509e-06	-2.718898e-08	-2.274216e+01	-1.787024e+03
5.600000e-07	-3.067031e-06	-2.682960e-08	-2.197911e+01	-1.763093e+03
5.700000e-07	-2.959282e-06	-2.644945e-08	-2.120695e+01	-1.738046e+03
5.800000e-07	-2.850421e-06	-2.604696e-08	-2.042683e+01	-1.711837e+03
5.900000e-07	-2.740567e-06	-2.562954e-08	-1.963959e+01	-1.684420e+03
6.000000e-07	-2.629814e-06	-2.519541e-08	-1.884590e+01	-1.655736e+03
6.100000e-07	-2.518157e-06	-2.473900e-08	-1.804574e+01	-1.625703e+03
6.200000e-07	-2.405515e-06	-2.425427e-08	-1.723852e+01	-1.594215e+03
6.300000e-07	-2.291903e-06	-2.374544e-08	-1.642435e+01	-1.561141e+03
6.400000e-07	-2.177324e-06	-2.320930e-08	-1.560325e+01	-1.526331e+03
6.500000e-07	-2.061748e-06	-2.264910e-08	-1.477500e+01	-1.489624e+03
6.600000e-07	-1.945293e-06	-2.205969e-08	-1.394045e+01	-1.450866e+03
6.700000e-07	-1.828178e-06	-2.143712e-08	-1.310118e+01	-1.409905e+03
6.800000e-07	-1.710485e-06	-2.077912e-08	-1.225776e+01	-1.366606e+03
6.900000e-07	-1.592216e-06	-2.008137e-08	-1.141022e+01	-1.320833e+03
7.000000e-07	-1.473428e-06	-1.934339e-08	-1.055896e+01	-1.272452e+03
7.100000e-07	-1.354187e-06	-1.856059e-08	-9.704444e+00	-1.221316e+03
7.200000e-07	-1.234476e-06	-1.773306e-08	-8.846564e+00	-1.167269e+03
7.300000e-07	-1.114312e-06	-1.685922e-08	-7.985437e+00	-1.110150e+03
7.400000e-07	-9.937190e-07	-1.593642e-08	-7.121239e+00	-1.049818e+03
7.500000e-07	-8.727845e-07	-1.496456e-08	-6.254593e+00	-9.861840e+02
7.600000e-07	-7.516267e-07	-1.394700e-08	-5.386346e+00	-9.192480e+02
7.700000e-07	-6.302537e-07	-1.288022e-08	-4.516556e+00	-8.491353e+02
7.800000e-07	-5.086489e-07	-1.176933e-08	-3.645106e+00	-7.761178e+02
7.900000e-07	-3.868587e-07	-1.062106e-08	-2.772326e+00	-7.006144e+02
8.000000e-07	-2.649402e-07	-9.438444e-09	-1.898628e+00	-6.231629e+02
8.100000e-07	-1.429081e-07	-8.234829e-09	-1.024115e+00	-5.443653e+02
8.200000e-07	-2.080839e-08	-7.022584e-09	-1.491182e-01	-4.648126e+02
8.300000e-07	1.013496e-07	-5.811207e-09	7.262963e-01	-3.850012e+02
8.400000e-07	2.235091e-07	-4.599605e-09	1.601722e+00	-3.052569e+02
8.500000e-07	3.455866e-07	-3.389901e-09	2.476560e+00	-2.256829e+02
8.600000e-07	4.675742e-07	-2.179851e-09	3.350754e+00	-1.461444e+02
8.700000e-07	5.893929e-07	-9.628347e-10	4.223737e+00	-6.629603e+01
8.800000e-07	7.110184e-07	2.663556e-10	5.095336e+00	1.434915e+01
8.900000e-07	8.324496e-07	1.516863e-09	5.965543e+00	9.631939e+01
9.000000e-07	9.536247e-07	2.792725e-09	6.833914e+00	1.800698e+02
9.100000e-07	1.074470e-06	4.099385e-09	7.699920e+00	2.658736e+02
9.200000e-07	1.194922e-06	5.437140e-09	8.563108e+00	3.537393e+02
9.300000e-07	1.314924e-06	6.800187e-09	9.423077e+00	4.433680e+02
9.400000e-07	1.434390e-06	8.181799e-09	1.027919e+01	5.341601e+02
9.500000e-07	1.553303e-06	9.570189e-09	1.113136e+01	6.252681e+02
9.600000e-07	1.671724e-06	1.094788e-08	1.197999e+01	7.156870e+02
9.700000e-07	1.789591e-06	1.229726e-08	1.282466e+01	8.043651e+02
9.800000e-07	1.906739e-06	1.360501e-08	1.366417e+01	8.903158e+02
9.900000e-07	2.023166e-06	1.485712e-08	1.449852e+01	9.727135e+02
1.000000e-06	2.138769e-06	1.604136e-08	1.532695e+01	1.050958e+03
1.010000e-06	2.253316e-06	1.715590e-08	1.614783e+01	1.124702e+03
1.020000e-06	2.366798e-06	1.820185e-08	1.696107e+01	1.193838e+03
1.030000e-06	2.479367e-06	1.918430e-08	1.776777e+01	1.258463e+03
1.040000e-06	2.591027e-06	2.010351e-08	1.856795e+01	1.318815e+03
1.050000e-06	2.701736e-06	2.095921e-08	1.936132e+01	1.375210e+03
1.060000e-06	2.811471e-06	2.176108e-08	2.014770e+01	1.427986e+03
1.070000e-06	2.920261e-06	2.251146e-08	2.092732e+01	1.477462e+03
1.080000e-06	3.028224e-06	2.321595e-08	2.170101e+01	1.523911e+03
1.090000e-06	3.135134e-06	2.387651e-08	2.246715e+01	1.567560e+03
1.100000e-06	3.240720e-06	2.449816e-08	2.322382e+01	1.608593e+03
1.110000e-06	3.345003e-06	2.508316e-08	2.397113e+01	1.647172e+03
1.120000e-06	3.448090e-06	2.563487e-08	2.470987e+01	1.683446e+03
1.130000e-06	3.550041e-06	2.615311e-08	2.544048e+01	1.717566e+03
1.140000e-06	3.650858e-06	2.664033e-08	2.616296e+01	1.749688e+03
1.150000e-06	3.750488e-06	2.710098e-08	2.687694e+01	1.779970e+03
1.160000e-06	3.848676e-06	2.753532e-08	2.758058e+01	1.808566e+03
1.170000e-06	3.945302e-06	2.794546e-08	2.827302e+01	1.835615e+03
1.180000e-06	4.040478e-06	2.833555e-08	2.895507e+01	1.861238e+03
1.190000e-06	4.134256e-06	2.870583e-08	2.962711e+01	1.885535e+03
1.200000e-06	4.226709e-06	2.905578e-08	3.028966e+01	1.908584e+03
1.210000e-06	4.317823e-06	2.938871e-08	3.094260e+01	1.930449e+03
1.220000e-06	4.407288e-06	2.970416e-08	3.158373e+01	1.951187e+03
1.230000e-06	4.494980e-06	3.000439e-08	3.221215e+01	1.970852e+03
1.240000e-06	4.581030e-06	3.028622e-08	3.282881e+01	1.989501e+03
1.250000e-06	4.665566e-06	3.055193e-08	3.343462e+01	2.007193e+03
1.260000e-06	4.748671e-06	3.080564e-08	3.403017e+01	2.023989e+03
1.270000e-06	4.830061e-06	3.104845e-08	3.461343e+01	2.039951e+03
1.280000e-06	4.909538e-06	3.127907e-08	3.518298e+01	2.055131e+03
1.290000e-06	4.987189e-06	3.150036e-08	3.573945e+01	2.069578e+03
1.300000e-06	5.062988e-06	3.171024e-08	3.628264e+01	2.083331e+03
1.310000e-06	5.136707e-06	3.190777e-08	3.681093e+01	2.096422e+03
1.320000e-06	5.208379e-06	3.209354e-08	3.732455e+01	2.108878e+03
1.330000e-06	5.278196e-06	3.227037e-08	3.782488e+01	2.120725e+03
1.340000e-06	5.346251e-06	3.244068e-08	3.831257e+01	2.131986e+03
1.350000e-06	5.412353e-06	3.260372e-08	3.878628e+01	2.142685e+03
1.360000e-06	5.476359e-06	3.275967e-08	3.924496e+01	2.152844e+03
1.370000e-06	5.538444e-06	3.290846e-08	3.968988e+01	2.162481e+03
1.380000e-06	5.598782e-06	3.305072e-08	4.012227e+01	2.171612e+03
1.390000e-06	5.657122e-06	3.318644e-08	4.054035e+01	2.180244e+03
1.400000e-06	5.713304e-06	3.331432e-08	4.094297e+01	2.188384e+03
1.410000e-06	5.767513e-06	3.343369e-08	4.133144e+01	2.196035e+03
1.420000e-06	5.819522e-06	3.354341e-08	4.170415e+01	2.203204e+03
1.430000e-06	5.869037e-06	3.364321e-08	4.205899e+01	2.209904e+03
1.440000e-06	5.916257e-06	3.373579e-08	4.239738e+01	2.216156e+03
1.450000e-06	5.961525e-06	3.382273e-08	4.272178e+01	2.221988e+03
1.460000e-06	6.004771e-06	3.390626e-08	4.303169e+01	2.227435e+03
1.470000e-06	6.045751e-06	3.398709e-08	4.332537e+01	2.232531e+03
1.480000e-06	6.084514e-06	3.406391e-08	4.360315e+01	2.237308e+03
1.490000e-06	6.121354e-06	3.413497e-08	4.386716e+01	2.241790e+03
1.500000e-06	6.156076e-06	3.419837e-08	4.411598e+01	2.245986e+03
1.510000e-06	6.188435e-06	3.425623e-08	4.434788e+01	2.249896e+03
1.520000e-06	6.218564e-06	3.431065e-08	4.456379e+01	2.253507e+03
1.530000e-06	6.246718e-06	3.436115e-08	4.476555e+01	2.256800e+03
1.540000e-06	6.272637e-06	3.440750e-08	4.495129e+01	2.259755e+03
1.550000e-06	6.296071e-06	3.444742e-08	4.511922e+01	2.262355e+03
1.560000e-06	6.317354e-06	3.448050e-08	4.527174e+01	2.264593e+03
1.570000e-06	6.336557e-06	3.450792e-08	4.540935e+01	2.266473e+03
1.580000e-06	6.353407e-06	3.453177e-08	4.553010e+01	2.268008e+03
1.590000e-06	6.367830e-06	3.455184e-08	4.563347e+01	2.269221e+03
1.600000e-06	6.379834e-06	3.456643e-08	4.571949e+01	2.270139e+03
1.610000e-06	6.389288e-06	3.457736e-08	4.578724e+01	2.270793e+03
1.620000e-06	6.396331e-06	3.458558e-08	4.583771e+01	2.271208e+03
1.630000e-06	6.401219e-06	3.459089e-08	4.587274e+01	2.271405e+03
1.640000e-06	6.403806e-06	3.459253e-08	4.589128e+01	2.271397e+03
1.650000e-06	6.403990e-06	3.459409e-08	4.589260e+01	2.271188e+03
1.660000e-06	6.402046e-06	3.457944e-08	4.587867e+01	2.270773e+03
1.670000e-06	6.398168e-06	3.456873e-08	4.585087e+01	2.270139e+03
1.680000e-06	6.392081e-06	3.455832e-08	4.580725e+01	2.269270e+03
1.690000e-06	6.383727e-06	3.453989e-08	4.574739e+01	2.268148e+03
1.700000e-06	6.373403e-06	3.452109e-08	4.567340e+01	2.266755e+03
1.710000e-06	6.360959e-06	3.450251e-08	4.558422e+01	2.265083e+03
1.720000e-06	6.346256e-06	3.450558e-08	4.547886e+01	2.263133e+03
1.730000e-06	6.329541e-06	3.446205e-08	4.535908e+01	2.260921e+03
1.740000e-06	6.310790e-06	3.428989e-08	4.522471e+01	2.258476e+03
1.750000e-06	6.289232e-06	3.428301e-08	4.507021e+01	2.255840e+03
1.760000e-06	6.264529e-06	3.431681e-08	4.489319e+01	2.253059e+03
1.770000e-06	6.237388e-06	3.423061e-08	4.469869e+01	2.250181e+03
1.780000e-06	6.208313e-06	3.435459e-08	4.449033e+01	2.247237e+03
1.790000e-06	6.177592e-06	3.430359e-08	4.427017e+01	2.244240e+03
1.800000e-06	6.145436e-06	3.399177e-08	4.403974e+01	2.241176e+03
1.810000e-06	6.111243e-06	3.417408e-08	4.379470e+01	2.238001e+03
1.820000e-06	6.075044e-06	3.410919e-08	4.353529e+01	2.234644e+03
1.830000e-06	6.036924e-06	3.400177e-08	4.326211e+01	2.231021e+03
1.840000e-06	5.996375e-06	3.420383e-08	4.297153e+01	2.227044e+03
1.850000e-06	5.953689e-06	3.387348e-08	4.266562e+01	2.222637e+03
1.860000e-06	5.908983e-06	3.384049e-08	4.234525e+01	2.217748e+03
1.870000e-06	5.862083e-06	3.381226e-08	4.200915e+01	2.212362e+03
1.880000e-06	5.813125e-06	3.358526e-08	4.165831e+01	2.206494e+03
1.890000e-06	5.761775e-06	3.367075e-08	4.129032e+01	2.200192e+03
1.900000e-06	5.707822e-06	3.344423e-08	4.090368e+01	2.193517e+03
1.910000e-06	5.651583e-06	3.338621e-08	4.050066e+01	2.186536e+03
1.920000e-06	5.593297e-06	3.334134e-08	4.008296e+01	2.179300e+03
1.930000e-06	5.533228e-06	3.309280e-08	3.965250e+01	2.171836e+03
1.940000e-06	5.471082e-06	3.309346e-08	3.920715e+01	2.164143e+03
1.950000e-06	5.406747e-06	3.287100e-08	3.874610e+01	2.156189e+03
1.960000e-06	5.340426e-06	3.282737e-08	3.827083e+01	2.147927e+03
1.970000e-06	5.272142e-06	3.267600e-08	3.778149e+01	2.139297e+03
1.980000e-06	5.201802e-06	3.247570e-08	3.727742e+01	2.130250e+03
1.990000e-06	5.129390e-06	3.243714e-08	3.675849e+01	2.120750e+03
2.000000e-06	5.055204e-06	3.220473e-08	3.622686e+01	2.110780e+03
2.010000e-06	4.979066e-06	3.211417e-08	3.568123e+01	2.100344e+03
2.020000e-06	4.900799e-06	3.189542e-08	3.512035e+01	2.089459e+03
2.030000e-06	4.820618e-06	3.172799e-08	3.454576e+01	2.078141e+03
2.040000e-06	4.738781e-06	3.158265e-08	3.395929e+01	2.066399e+03
2.050000e-06	4.655433e-06	3.135867e-08	3.336200e+01	2.054227e+03
2.060000e-06	4.570459e-06	3.120238e-08	3.275305e+01	2.041601e+03
2.070000e-06	4.483796e-06	3.096531e-08	3.213201e+01	2.028480e+03
2.080000e-06	4.395495e-06	3.079204e-08	3.149922e+01	2.014817e+03
2.090000e-06	4.305644e-06	3.054670e-08	3.085532e+01	2.000566e+03
2.100000e-06	4.214412e-06	3.032704e-08	3.020153e+01	1.985689e+03
2.110000e-06	4.121821e-06	3.011145e-08	2.953800e+01	1.970161e+03
2.120000e-06	4.027737e-06	2.986149e-08	2.886377e+01	1.953973e+03
2.130000e-06	3.932106e-06	2.961346e-08	2.817846e+01	1.937120e+03
2.140000e-06	3.835116e-06	2.932325e-08	2.748341e+01	1.919600e+03
2.150000e-06	3.736837e-06	2.906135e-08	2.677911e+01	1.901399e+03
2.160000e-06	3.637235e-06	2.876481e-08	2.606533e+01	1.882488e+03
2.170000e-06	3.536273e-06	2.847723e-08	2.534182e+01	1.862819e+03
2.180000e-06	3.433895e-06	2.816087e-08	2.460816e+01	1.842327e+03
2.190000e-06	3.330126e-06	2.783964e-08	2.386452e+01	1.820941e+03
2.200000e-06	3.225106e-06	2.749270e-08	2.311192e+01	1.798586e+03
2.210000e-06	3.118983e-06	2.713104e-08	2.235141e+01	1.775195e+03
2.220000e-06	3.011815e-06	2.676328e-08	2.158342e+01	1.750712e+03
2.230000e-06	2.903657e-06	2.637598e-08	2.080834e+01	1.725090e+03
2.240000e-06	2.794502e-06	2.597120e-08	2.002610e+01	1.698283e+03
2.250000e-06	2.684292e-06	2.553681e-08	1.923631e+01	1.670241e+03
2.260000e-06	2.572989e-06	2.509228e-08	1.843868e+01	1.640894e+03
2.270000e-06	2.460669e-06	2.461910e-08	1.763377e+01	1.610149e+03
2.280000e-06	2.347413e-06	2.413324e-08	1.682215e+01	1.577886e+03
2.290000e-06	2.233260e-06	2.361571e-08	1.600410e+01	1.543963e+03
2.300000e-06	2.118238e-06	2.307036e-08	1.517982e+01	1.508224e+03
2.310000e-06	2.002434e-06	2.249407e-08	1.434994e+01	1.470511e+03
2.320000e-06	1.885831e-06	2.188617e-08	1.351434e+01	1.430670e+03
2.330000e-06	1.768427e-06	2.124568e-08	1.267299e+01	1.388556e+03
2.340000e-06	1.650305e-06	2.056833e-08	1.182650e+01	1.344037e+03
2.350000e-06	1.531539e-06	1.985410e-08	1.097539e+01	1.296977e+03
2.360000e-06	1.412156e-06	1.909559e-08	1.011986e+01	1.247238e+03
2.370000e-06	1.292141e-06	1.829254e-08	9.259806e+00	1.194667e+03
2.380000e-06	1.171740e-06	1.744313e-08	8.396983e+00	1.139103e+03
2.390000e-06	1.051062e-06	1.655195e-08	7.532177e+00	1.080393e+03
2.400000e-06	9.301078e-07	1.560750e-08	6.665386e+00	1.018416e+03
2.410000e-06	8.088503e-07	1.461053e-08	5.796424e+00	9.531242e+02
2.420000e-06	6.873055e-07	1.356503e-08	4.925404e+00	8.845753e+02
2.430000e-06	5.656121e-07	1.247242e-08	4.053318e+00	8.129667e+02
2.440000e-06	4.437433e-07	1.133691e-08	3.179976e+00	7.386455e+02
2.450000e-06	3.217261e-07	1.016529e-08	2.305570e+00	6.620953e+02
2.460000e-06	1.995967e-07	8.971360e-09	1.430360e+00	5.838942e+02
2.470000e-06	7.737886e-08	7.761190e-09	5.545163e-01	5.046492e+02
2.480000e-06	-4.495384e-08	6.543439e-09	-3.221505e-01	4.249141e+02
2.490000e-06	-1.672957e-07	5.324177e-09	-1.198883e+00	3.451086e+02
2.500000e-06	-2.895373e-07	4.106653e-09	-2.074897e+00	2.654516e+02
2.510000e-06	-4.116899e-07	2.891335e-09	-2.950273e+00	1.859265e+02
2.520000e-06	-5.336994e-07	1.672041e-09	-3.824624e+00	1.062871e+02
2.530000e-06	-6.555627e-07	4.436616e-10	-4.697927e+00	2.610641e+01
2.540000e-06	-7.772202e-07	-8.000284e-10	-5.569755e+00	-5.513713e+01
2.550000e-06	-8.986256e-07	-2.064401e-09	-6.439777e+00	-1.379496e+02
2.560000e-06	-1.019751e-06	-3.354942e-09	-7.307792e+00	-2.227076e+02
2.570000e-06	-1.140573e-06	-4.677684e-09	-8.173633e+00	-3.095600e+02
2.580000e-06	-1.261066e-06	-6.029290e-09	-9.037117e+00	-3.983641e+02
2.590000e-06	-1.381172e-06	-7.405735e-09	-9.897827e+00	-4.886667e+02
2.600000e-06	-1.500751e-06	-8.800642e-09	-1.075476e+01	-5.797350e+02
2.610000e-06	-1.619633e-06	-1.019636e-08	-1.160669e+01	-6.706297e+02
2.620000e-06	-1.737761e-06	-1.157255e-08	-1.245323e+01	-7.603081e+02
2.630000e-06	-1.855138e-06	-1.291109e-08	-1.329439e+01	-8.477376e+02
2.640000e-06	-1.971681e-06	-1.420092e-08	-1.412956e+01	-9.320021e+02
2.650000e-06	-2.087340e-06	-1.543189e-08	-1.495840e+01	-1.012383e+03
2.660000e-06	-2.202202e-06	-1.659532e-08	-1.578153e+01	-1.088405e+03
2.670000e-06	-2.316102e-06	-1.768838e-08	-1.659776e+01	-1.159844e+03
2.680000e-06	-2.428905e-06	-1.871275e-08	-1.740614e+01	-1.226703e+03
2.690000e-06	-2.540701e-06	-1.966973e-08	-1.820730e+01	-1.289155e+03
2.700000e-06	-2.651432e-06	-2.056554e-08	-1.900082e+01	-1.347486e+03
2.710000e-06	-2.761049e-06	-2.140508e-08	-1.978637e+01	-1.402030e+03
2.720000e-06	-2.869792e-06	-2.218991e-08	-2.056565e+01	-1.453118e+03
2.730000e-06	-2.977737e-06	-2.292615e-08	-2.133921e+01	-1.501050e+03
2.740000e-06	-3.084773e-06	-2.361601e-08	-2.210626e+01	-1.546073e+03
2.750000e-06	-3.190763e-06	-2.426238e-08	-2.286581e+01	-1.588393e+03
2.760000e-06	-3.295669e-06	-2.487006e-08	-2.361759e+01	-1.628180e+03
2.770000e-06	-3.399435e-06	-2.544513e-08	-2.436121e+01	-1.665588e+03
2.780000e-06	-3.501864e-06	-2.598649e-08	-2.509524e+01	-1.700765e+03
2.790000e-06	-3.602907e-06	-2.649084e-08	-2.581933e+01	-1.733867e+03
2.800000e-06	-3.702647e-06	-2.696482e-08	-2.653409e+01	-1.765049e+03
2.810000e-06	-3.801183e-06	-2.741560e-08	-2.724023e+01	-1.794470e+03
2.820000e-06	-3.898518e-06	-2.784365e-08	-2.793776e+01	-1.822275e+03
2.830000e-06	-3.994602e-06	-2.824836e-08	-2.862632e+01	-1.848598e+03
2.840000e-06	-4.089217e-06	-2.863228e-08	-2.930435e+01	-1.873547e+03
2.850000e-06	-4.182245e-06	-2.899586e-08	-2.997102e+01	-1.897211e+03
2.860000e-06	-4.273834e-06	-2.933922e-08	-3.062737e+01	-1.919661e+03
2.870000e-06	-4.363934e-06	-2.966205e-08	-3.127305e+01	-1.940956e+03
2.880000e-06	-4.452552e-06	-2.996815e-08	-3.190810e+01	-1.961151e+03
2.890000e-06	-4.539581e-06	-3.026132e-08	-3.253178e+01	-1.980300e+03
2.900000e-06	-4.624740e-06	-3.054032e-08	-3.314204e+01	-1.998463e+03
2.910000e-06	-4.708205e-06	-3.080442e-08	-3.374018e+01	-2.015699e+03
2.920000e-06	-4.790092e-06	-3.105504e-08	-3.432700e+01	-2.032071e+03
2.930000e-06	-4.870366e-06	-3.129350e-08	-3.490226e+01	-2.047635e+03
2.940000e-06	-4.948758e-06	-3.152346e-08	-3.546404e+01	-2.062444e+03
