# Temperatura_=_93.14
# Concentracion g/m^3_=_28200.0
# C_Vs_to_Am_M_A/Vsm_=_65563218390.804596
# pendiente_HvsI_1/m_=_3716.3
# ordenada_HvsI_A/m_=_1297.0
# frecuencia_Hz_=_302143.61532794405

Tiempo_(s)	Campo_(V.s)	Magnetizacion_(V.s)	Campo_(kA/m)	Magnetizacion_(A/m)
0.000000e+00	-6.438896e-06	-3.630166e-08	-4.585468e+01	-2.373803e+03
1.000000e-08	-6.436163e-06	-3.629749e-08	-4.583522e+01	-2.373178e+03
2.000000e-08	-6.431275e-06	-3.628424e-08	-4.580040e+01	-2.372351e+03
3.000000e-08	-6.424391e-06	-3.627004e-08	-4.575138e+01	-2.371319e+03
4.000000e-08	-6.415446e-06	-3.625148e-08	-4.568768e+01	-2.370060e+03
5.000000e-08	-6.404227e-06	-3.622208e-08	-4.560778e+01	-2.368540e+03
6.000000e-08	-6.390671e-06	-3.618594e-08	-4.551124e+01	-2.366715e+03
7.000000e-08	-6.374781e-06	-3.613330e-08	-4.539808e+01	-2.364547e+03
8.000000e-08	-6.356644e-06	-3.607943e-08	-4.526892e+01	-2.362022e+03
9.000000e-08	-6.336448e-06	-3.612711e-08	-4.512509e+01	-2.359157e+03
1.000000e-07	-6.313949e-06	-3.609248e-08	-4.496487e+01	-2.356011e+03
1.100000e-07	-6.288758e-06	-3.597701e-08	-4.478547e+01	-2.352677e+03
1.200000e-07	-6.261054e-06	-3.593368e-08	-4.458818e+01	-2.349271e+03
1.300000e-07	-6.231326e-06	-3.589311e-08	-4.437647e+01	-2.345902e+03
1.400000e-07	-6.199983e-06	-3.571250e-08	-4.415325e+01	-2.342652e+03
1.500000e-07	-6.167009e-06	-3.572757e-08	-4.391843e+01	-2.339548e+03
1.600000e-07	-6.132005e-06	-3.577161e-08	-4.366915e+01	-2.336548e+03
1.700000e-07	-6.095040e-06	-3.552313e-08	-4.340590e+01	-2.333541e+03
1.800000e-07	-6.056168e-06	-3.556741e-08	-4.312907e+01	-2.330363e+03
1.900000e-07	-6.014862e-06	-3.546907e-08	-4.283492e+01	-2.326826e+03
2.000000e-07	-5.971175e-06	-3.530642e-08	-4.252379e+01	-2.322747e+03
2.100000e-07	-5.925401e-06	-3.536699e-08	-4.219782e+01	-2.317991e+03
2.200000e-07	-5.877357e-06	-3.519807e-08	-4.185567e+01	-2.312488e+03
2.300000e-07	-5.826865e-06	-3.508128e-08	-4.149609e+01	-2.306247e+03
2.400000e-07	-5.773865e-06	-3.500208e-08	-4.111865e+01	-2.299348e+03
2.500000e-07	-5.718657e-06	-3.484860e-08	-4.072549e+01	-2.291915e+03
2.600000e-07	-5.661289e-06	-3.476075e-08	-4.031694e+01	-2.284092e+03
2.700000e-07	-5.601675e-06	-3.464884e-08	-3.989240e+01	-2.275999e+03
2.800000e-07	-5.540120e-06	-3.455173e-08	-3.945403e+01	-2.267712e+03
2.900000e-07	-5.476635e-06	-3.438639e-08	-3.900192e+01	-2.259247e+03
3.000000e-07	-5.411049e-06	-3.423560e-08	-3.853485e+01	-2.250559e+03
3.100000e-07	-5.343382e-06	-3.411828e-08	-3.805296e+01	-2.241562e+03
3.200000e-07	-5.273696e-06	-3.396046e-08	-3.755669e+01	-2.232154e+03
3.300000e-07	-5.202176e-06	-3.383601e-08	-3.704736e+01	-2.222243e+03
3.400000e-07	-5.128802e-06	-3.364774e-08	-3.652483e+01	-2.211770e+03
3.500000e-07	-5.053287e-06	-3.348095e-08	-3.598705e+01	-2.200722e+03
3.600000e-07	-4.975586e-06	-3.330466e-08	-3.543370e+01	-2.189125e+03
3.700000e-07	-4.895903e-06	-3.310347e-08	-3.486623e+01	-2.177032e+03
3.800000e-07	-4.814405e-06	-3.294543e-08	-3.428585e+01	-2.164501e+03
3.900000e-07	-4.731261e-06	-3.275254e-08	-3.369374e+01	-2.151571e+03
4.000000e-07	-4.646616e-06	-3.254221e-08	-3.309094e+01	-2.138252e+03
4.100000e-07	-4.560590e-06	-3.232010e-08	-3.247830e+01	-2.124513e+03
4.200000e-07	-4.473192e-06	-3.210549e-08	-3.185589e+01	-2.110289e+03
4.300000e-07	-4.384244e-06	-3.187750e-08	-3.122245e+01	-2.095503e+03
4.400000e-07	-4.293659e-06	-3.163017e-08	-3.057735e+01	-2.080074e+03
4.500000e-07	-4.201478e-06	-3.139251e-08	-2.992088e+01	-2.063945e+03
4.600000e-07	-4.107833e-06	-3.112800e-08	-2.925398e+01	-2.047087e+03
4.700000e-07	-4.012852e-06	-3.086374e-08	-2.857757e+01	-2.029500e+03
4.800000e-07	-3.916389e-06	-3.059199e-08	-2.789062e+01	-2.011202e+03
4.900000e-07	-3.818409e-06	-3.031017e-08	-2.719284e+01	-1.992215e+03
5.000000e-07	-3.719004e-06	-3.000807e-08	-2.648493e+01	-1.972547e+03
5.100000e-07	-3.618209e-06	-2.968822e-08	-2.576712e+01	-1.952177e+03
5.200000e-07	-3.516156e-06	-2.936329e-08	-2.504035e+01	-1.931051e+03
5.300000e-07	-3.412941e-06	-2.902281e-08	-2.430531e+01	-1.909088e+03
5.400000e-07	-3.308417e-06	-2.867433e-08	-2.356093e+01	-1.886191e+03
5.500000e-07	-3.202576e-06	-2.830630e-08	-2.280718e+01	-1.862264e+03
5.600000e-07	-3.095496e-06	-2.792606e-08	-2.204461e+01	-1.837226e+03
5.700000e-07	-2.987184e-06	-2.752621e-08	-2.127327e+01	-1.811015e+03
5.800000e-07	-2.877741e-06	-2.711227e-08	-2.049387e+01	-1.783594e+03
5.900000e-07	-2.767385e-06	-2.668158e-08	-1.970797e+01	-1.754931e+03
6.000000e-07	-2.656173e-06	-2.622978e-08	-1.891597e+01	-1.724988e+03
6.100000e-07	-2.543886e-06	-2.575294e-08	-1.811631e+01	-1.693701e+03
6.200000e-07	-2.430487e-06	-2.524499e-08	-1.730874e+01	-1.660974e+03
6.300000e-07	-2.316065e-06	-2.471175e-08	-1.649389e+01	-1.626669e+03
6.400000e-07	-2.200656e-06	-2.415509e-08	-1.567200e+01	-1.590619e+03
6.500000e-07	-2.084304e-06	-2.357997e-08	-1.484340e+01	-1.552642e+03
6.600000e-07	-1.967174e-06	-2.297300e-08	-1.400926e+01	-1.512556e+03
6.700000e-07	-1.849405e-06	-2.232883e-08	-1.317056e+01	-1.470195e+03
6.800000e-07	-1.731113e-06	-2.164823e-08	-1.232814e+01	-1.425412e+03
6.900000e-07	-1.612312e-06	-2.092868e-08	-1.148210e+01	-1.378076e+03
7.000000e-07	-1.492995e-06	-2.016587e-08	-1.063238e+01	-1.328057e+03
7.100000e-07	-1.373124e-06	-1.935675e-08	-9.778719e+00	-1.275209e+03
7.200000e-07	-1.252665e-06	-1.850344e-08	-8.920870e+00	-1.219360e+03
7.300000e-07	-1.131694e-06	-1.760032e-08	-8.059376e+00	-1.160314e+03
7.400000e-07	-1.010278e-06	-1.664316e-08	-7.194707e+00	-1.097872e+03
7.500000e-07	-8.885310e-07	-1.563318e-08	-6.327684e+00	-1.031866e+03
7.600000e-07	-7.665613e-07	-1.457499e-08	-5.459076e+00	-9.622102e+02
7.700000e-07	-6.443913e-07	-1.346213e-08	-4.589041e+00	-8.889510e+02
7.800000e-07	-5.220420e-07	-1.229630e-08	-3.717728e+00	-8.122982e+02
7.900000e-07	-3.995610e-07	-1.108526e-08	-2.845479e+00	-7.326358e+02
8.000000e-07	-2.769118e-07	-9.833551e-09	-1.972031e+00	-6.504952e+02
8.100000e-07	-1.540790e-07	-8.550763e-09	-1.097275e+00	-5.664943e+02
8.200000e-07	-3.121227e-08	-7.250679e-09	-2.222786e-01	-4.812494e+02
8.300000e-07	9.167357e-08	-5.944824e-09	6.528544e-01	-3.952779e+02
8.400000e-07	2.146109e-07	-4.632184e-09	1.528354e+00	-3.089099e+02
8.500000e-07	3.374966e-07	-3.313673e-09	2.403486e+00	-2.222317e+02
8.600000e-07	4.602622e-07	-1.987346e-09	3.277763e+00	-1.350761e+02
8.700000e-07	5.828841e-07	-6.465249e-10	4.151017e+00	-4.706539e+01
8.800000e-07	7.053258e-07	7.155346e-10	5.022986e+00	4.229602e+01
8.900000e-07	8.275786e-07	2.104578e-09	5.893611e+00	1.334964e+02
9.000000e-07	9.496120e-07	3.524069e-09	6.762674e+00	2.268814e+02
9.100000e-07	1.071388e-06	4.977597e-09	7.629906e+00	3.225356e+02
9.200000e-07	1.192780e-06	6.462620e-09	8.494396e+00	4.202049e+02
9.300000e-07	1.313651e-06	7.970142e-09	9.355181e+00	5.192764e+02
9.400000e-07	1.433933e-06	9.485623e-09	1.021177e+01	6.188188e+02
9.500000e-07	1.553598e-06	1.099211e-08	1.106396e+01	7.176785e+02
9.600000e-07	1.672685e-06	1.246922e-08	1.191205e+01	8.146102e+02
9.700000e-07	1.791240e-06	1.389493e-08	1.275634e+01	9.084207e+02
9.800000e-07	1.909173e-06	1.525367e-08	1.359620e+01	9.980971e+02
9.900000e-07	2.026342e-06	1.653649e-08	1.443062e+01	1.082900e+03
1.000000e-06	2.142716e-06	1.773979e-08	1.525938e+01	1.162410e+03
1.010000e-06	2.258186e-06	1.886320e-08	1.608170e+01	1.236518e+03
1.020000e-06	2.372717e-06	1.990633e-08	1.689733e+01	1.305380e+03
1.030000e-06	2.486279e-06	2.087636e-08	1.770607e+01	1.369334e+03
1.040000e-06	2.598759e-06	2.178122e-08	1.850709e+01	1.428819e+03
1.050000e-06	2.710157e-06	2.262490e-08	1.930042e+01	1.484289e+03
1.060000e-06	2.820605e-06	2.341308e-08	2.008697e+01	1.536158e+03
1.070000e-06	2.930169e-06	2.414991e-08	2.086723e+01	1.584769e+03
1.080000e-06	3.038780e-06	2.484016e-08	2.164071e+01	1.630389e+03
1.090000e-06	3.146352e-06	2.548630e-08	2.240678e+01	1.673224e+03
1.100000e-06	3.252796e-06	2.609233e-08	2.316483e+01	1.713445e+03
1.110000e-06	3.357974e-06	2.666304e-08	2.391385e+01	1.751212e+03
1.120000e-06	3.461785e-06	2.720357e-08	2.465314e+01	1.786690e+03
1.130000e-06	3.564368e-06	2.771234e-08	2.538369e+01	1.820059e+03
1.140000e-06	3.665876e-06	2.819017e-08	2.610658e+01	1.851502e+03
1.150000e-06	3.766190e-06	2.864041e-08	2.682097e+01	1.881200e+03
1.160000e-06	3.865157e-06	2.906621e-08	2.752576e+01	1.909313e+03
1.170000e-06	3.962569e-06	2.946870e-08	2.821948e+01	1.935973e+03
1.180000e-06	4.058367e-06	2.985221e-08	2.890171e+01	1.961280e+03
1.190000e-06	4.152774e-06	3.021801e-08	2.957403e+01	1.985308e+03
1.200000e-06	4.245856e-06	3.056514e-08	3.023692e+01	2.008113e+03
1.210000e-06	4.337575e-06	3.089344e-08	3.089009e+01	2.029746e+03
1.220000e-06	4.427743e-06	3.120390e-08	3.153223e+01	2.050263e+03
1.230000e-06	4.516193e-06	3.149896e-08	3.216213e+01	2.069726e+03
1.240000e-06	4.603022e-06	3.177765e-08	3.278048e+01	2.088207e+03
1.250000e-06	4.688245e-06	3.204173e-08	3.338739e+01	2.105782e+03
1.260000e-06	4.771889e-06	3.229415e-08	3.398307e+01	2.122520e+03
1.270000e-06	4.853864e-06	3.253626e-08	3.456685e+01	2.138478e+03
1.280000e-06	4.933974e-06	3.276674e-08	3.513736e+01	2.153698e+03
1.290000e-06	5.012223e-06	3.298741e-08	3.569461e+01	2.168210e+03
1.300000e-06	5.088624e-06	3.319642e-08	3.623870e+01	2.182033e+03
1.310000e-06	5.162977e-06	3.339432e-08	3.676820e+01	2.195184e+03
1.320000e-06	5.235268e-06	3.358158e-08	3.728302e+01	2.207688e+03
1.330000e-06	5.305706e-06	3.376010e-08	3.778465e+01	2.219574e+03
1.340000e-06	5.374388e-06	3.393039e-08	3.827377e+01	2.230882e+03
1.350000e-06	5.441132e-06	3.409325e-08	3.874909e+01	2.241655e+03
1.360000e-06	5.505758e-06	3.424876e-08	3.920933e+01	2.251929e+03
1.370000e-06	5.568420e-06	3.439680e-08	3.965557e+01	2.261731e+03
1.380000e-06	5.629263e-06	3.454008e-08	4.008887e+01	2.271074e+03
1.390000e-06	5.688163e-06	3.467860e-08	4.050833e+01	2.279955e+03
1.400000e-06	5.744960e-06	3.481003e-08	4.091280e+01	2.288360e+03
1.410000e-06	5.799659e-06	3.493308e-08	4.130234e+01	2.296272e+03
1.420000e-06	5.852127e-06	3.504591e-08	4.167600e+01	2.303685e+03
1.430000e-06	5.902106e-06	3.514891e-08	4.203193e+01	2.310601e+03
1.440000e-06	5.949723e-06	3.524532e-08	4.237103e+01	2.317044e+03
1.450000e-06	5.995314e-06	3.533513e-08	4.269570e+01	2.323049e+03
1.460000e-06	6.038985e-06	3.541889e-08	4.300671e+01	2.328663e+03
1.470000e-06	6.080447e-06	3.549732e-08	4.330198e+01	2.333930e+03
1.480000e-06	6.119570e-06	3.557242e-08	4.358059e+01	2.338885e+03
1.490000e-06	6.156723e-06	3.564387e-08	4.384518e+01	2.343548e+03
1.500000e-06	6.191834e-06	3.570970e-08	4.409522e+01	2.347920e+03
1.510000e-06	6.224659e-06	3.577214e-08	4.432899e+01	2.351987e+03
1.520000e-06	6.255259e-06	3.583016e-08	4.454690e+01	2.355726e+03
1.530000e-06	6.283800e-06	3.588239e-08	4.475016e+01	2.359116e+03
1.540000e-06	6.310055e-06	3.592872e-08	4.493713e+01	2.362139e+03
1.550000e-06	6.333823e-06	3.596858e-08	4.510640e+01	2.364793e+03
1.560000e-06	6.355357e-06	3.600223e-08	4.525976e+01	2.367085e+03
1.570000e-06	6.374809e-06	3.602907e-08	4.539828e+01	2.369032e+03
1.580000e-06	6.391977e-06	3.605092e-08	4.552054e+01	2.370654e+03
1.590000e-06	6.406701e-06	3.607037e-08	4.562540e+01	2.371970e+03
1.600000e-06	6.419041e-06	3.608703e-08	4.571328e+01	2.372994e+03
1.610000e-06	6.428826e-06	3.609933e-08	4.578296e+01	2.373735e+03
1.620000e-06	6.436053e-06	3.610767e-08	4.583443e+01	2.374200e+03
1.630000e-06	6.441067e-06	3.611349e-08	4.587014e+01	2.374396e+03
1.640000e-06	6.443822e-06	3.611528e-08	4.588976e+01	2.374336e+03
1.650000e-06	6.444221e-06	3.611741e-08	4.589260e+01	2.374036e+03
1.660000e-06	6.442473e-06	3.610395e-08	4.588015e+01	2.373516e+03
1.670000e-06	6.438756e-06	3.608680e-08	4.585368e+01	2.372789e+03
1.680000e-06	6.432820e-06	3.607364e-08	4.581141e+01	2.371861e+03
1.690000e-06	6.424606e-06	3.605763e-08	4.575291e+01	2.370720e+03
1.700000e-06	6.414414e-06	3.603993e-08	4.568033e+01	2.369336e+03
1.710000e-06	6.402081e-06	3.601952e-08	4.559250e+01	2.367668e+03
1.720000e-06	6.387448e-06	3.601790e-08	4.548829e+01	2.365675e+03
1.730000e-06	6.370735e-06	3.599821e-08	4.536927e+01	2.363329e+03
1.740000e-06	6.352012e-06	3.584760e-08	4.523594e+01	2.360629e+03
1.750000e-06	6.330504e-06	3.580902e-08	4.508277e+01	2.357614e+03
1.760000e-06	6.305825e-06	3.582400e-08	4.490701e+01	2.354360e+03
1.770000e-06	6.278709e-06	3.573722e-08	4.471391e+01	2.350976e+03
1.780000e-06	6.249586e-06	3.577894e-08	4.450651e+01	2.347575e+03
1.790000e-06	6.218774e-06	3.576599e-08	4.428708e+01	2.344259e+03
1.800000e-06	6.186624e-06	3.549608e-08	4.405812e+01	2.341083e+03
1.810000e-06	6.152516e-06	3.562285e-08	4.381522e+01	2.338040e+03
1.820000e-06	6.116276e-06	3.560501e-08	4.355713e+01	2.335054e+03
1.830000e-06	6.078028e-06	3.547953e-08	4.328476e+01	2.331985e+03
1.840000e-06	6.037417e-06	3.571357e-08	4.299554e+01	2.328651e+03
1.850000e-06	5.994670e-06	3.548649e-08	4.269112e+01	2.324864e+03
1.860000e-06	5.949848e-06	3.542118e-08	4.237192e+01	2.320460e+03
1.870000e-06	5.902798e-06	3.541334e-08	4.203685e+01	2.315334e+03
1.880000e-06	5.853702e-06	3.519892e-08	4.168721e+01	2.309457e+03
1.890000e-06	5.802153e-06	3.528101e-08	4.132011e+01	2.302873e+03
1.900000e-06	5.747984e-06	3.508367e-08	4.093434e+01	2.295689e+03
1.910000e-06	5.691594e-06	3.492481e-08	4.053275e+01	2.288044e+03
1.920000e-06	5.633191e-06	3.488625e-08	4.011684e+01	2.280073e+03
1.930000e-06	5.572884e-06	3.468331e-08	3.968736e+01	2.271878e+03
1.940000e-06	5.510436e-06	3.466216e-08	3.924264e+01	2.263504e+03
1.950000e-06	5.445857e-06	3.443531e-08	3.878274e+01	2.254935e+03
1.960000e-06	5.379297e-06	3.434785e-08	3.830873e+01	2.246105e+03
1.970000e-06	5.310695e-06	3.422034e-08	3.782018e+01	2.236915e+03
1.980000e-06	5.240004e-06	3.399285e-08	3.731675e+01	2.227266e+03
1.990000e-06	5.167251e-06	3.391109e-08	3.679864e+01	2.217079e+03
2.000000e-06	5.092683e-06	3.370545e-08	3.626761e+01	2.206317e+03
2.010000e-06	5.016100e-06	3.360218e-08	3.572222e+01	2.194989e+03
2.020000e-06	4.937391e-06	3.337137e-08	3.516170e+01	2.183137e+03
2.030000e-06	4.856869e-06	3.316558e-08	3.458825e+01	2.170818e+03
2.040000e-06	4.774687e-06	3.301730e-08	3.400299e+01	2.158084e+03
2.050000e-06	4.690965e-06	3.279125e-08	3.340677e+01	2.144962e+03
2.060000e-06	4.605596e-06	3.260719e-08	3.279881e+01	2.131438e+03
2.070000e-06	4.518466e-06	3.236095e-08	3.217832e+01	2.117466e+03
2.080000e-06	4.429680e-06	3.217094e-08	3.154602e+01	2.102972e+03
2.090000e-06	4.339463e-06	3.192331e-08	3.090354e+01	2.087873e+03
2.100000e-06	4.247879e-06	3.168316e-08	3.025132e+01	2.072100e+03
2.110000e-06	4.154805e-06	3.144637e-08	2.958850e+01	2.055608e+03
2.120000e-06	4.060212e-06	3.117593e-08	2.891485e+01	2.038384e+03
2.130000e-06	3.964113e-06	3.090877e-08	2.823048e+01	2.020438e+03
2.140000e-06	3.866650e-06	3.060647e-08	2.753640e+01	2.001793e+03
2.150000e-06	3.767921e-06	3.032896e-08	2.683330e+01	1.982467e+03
2.160000e-06	3.667821e-06	3.002121e-08	2.612043e+01	1.962452e+03
2.170000e-06	3.566289e-06	2.971551e-08	2.539737e+01	1.941713e+03
2.180000e-06	3.463337e-06	2.938064e-08	2.466420e+01	1.920180e+03
2.190000e-06	3.359032e-06	2.903751e-08	2.392139e+01	1.897763e+03
2.200000e-06	3.253506e-06	2.867647e-08	2.316988e+01	1.874362e+03
2.210000e-06	3.146963e-06	2.830211e-08	2.241113e+01	1.849888e+03
2.220000e-06	3.039362e-06	2.791517e-08	2.164486e+01	1.824270e+03
2.230000e-06	2.930542e-06	2.750441e-08	2.086989e+01	1.797458e+03
2.240000e-06	2.820697e-06	2.707866e-08	2.008763e+01	1.769420e+03
2.250000e-06	2.709849e-06	2.662876e-08	1.929822e+01	1.740122e+03
2.260000e-06	2.597850e-06	2.616980e-08	1.850062e+01	1.709517e+03
2.270000e-06	2.484828e-06	2.568410e-08	1.769574e+01	1.677525e+03
2.280000e-06	2.370877e-06	2.517816e-08	1.688423e+01	1.644028e+03
2.290000e-06	2.255997e-06	2.463557e-08	1.606611e+01	1.608874e+03
2.300000e-06	2.140232e-06	2.406503e-08	1.524169e+01	1.571883e+03
2.310000e-06	2.023507e-06	2.346728e-08	1.441043e+01	1.532874e+03
2.320000e-06	1.905927e-06	2.284135e-08	1.357309e+01	1.491670e+03
2.330000e-06	1.787737e-06	2.218209e-08	1.273139e+01	1.448115e+03
2.340000e-06	1.668909e-06	2.148394e-08	1.188516e+01	1.402071e+03
2.350000e-06	1.549378e-06	2.074434e-08	1.103391e+01	1.353410e+03
2.360000e-06	1.429227e-06	1.995829e-08	1.017826e+01	1.301996e+03
2.370000e-06	1.308619e-06	1.912996e-08	9.319346e+00	1.247671e+03
2.380000e-06	1.187632e-06	1.825439e-08	8.457733e+00	1.190249e+03
2.390000e-06	1.066317e-06	1.732942e-08	7.593788e+00	1.129529e+03
2.400000e-06	9.446903e-07	1.634627e-08	6.727624e+00	1.065322e+03
2.410000e-06	8.227604e-07	1.530946e-08	5.859299e+00	9.974948e+02
2.420000e-06	7.006183e-07	1.422020e-08	4.989462e+00	9.260221e+02
2.430000e-06	5.783104e-07	1.307558e-08	4.118444e+00	8.510287e+02
2.440000e-06	4.558413e-07	1.188153e-08	3.246279e+00	7.728129e+02
2.450000e-06	3.332449e-07	1.064638e-08	2.373207e+00	6.918378e+02
2.460000e-06	2.105321e-07	9.378771e-09	1.499307e+00	6.086876e+02
2.470000e-06	8.770830e-08	8.083879e-09	6.246158e-01	5.239916e+02
2.480000e-06	-3.518664e-08	6.772996e-09	-2.505821e-01	4.383286e+02
2.490000e-06	-1.580300e-07	5.455231e-09	-1.125412e+00	3.521320e+02
2.500000e-06	-2.808463e-07	4.130623e-09	-2.000050e+00	2.656143e+02
2.510000e-06	-4.036474e-07	2.799466e-09	-2.874580e+00	1.787331e+02
2.520000e-06	-5.262899e-07	1.460266e-09	-3.747980e+00	9.120719e+01
2.530000e-06	-6.488201e-07	1.056956e-10	-4.620581e+00	2.585820e+00
2.540000e-06	-7.712334e-07	-1.272215e-09	-5.492348e+00	-8.763987e+01
2.550000e-06	-8.934049e-07	-2.679818e-09	-6.362394e+00	-1.799033e+02
2.560000e-06	-1.015291e-06	-4.122652e-09	-7.230409e+00	-2.744322e+02
2.570000e-06	-1.136870e-06	-5.599263e-09	-8.096230e+00	-3.711484e+02
2.580000e-06	-1.258092e-06	-7.102393e-09	-8.959517e+00	-4.696170e+02
2.590000e-06	-1.378864e-06	-8.621871e-09	-9.819595e+00	-5.690571e+02
2.600000e-06	-1.499139e-06	-1.014419e-08	-1.067614e+01	-6.684114e+02
2.610000e-06	-1.618798e-06	-1.165118e-08	-1.152829e+01	-7.664628e+02
2.620000e-06	-1.737697e-06	-1.311786e-08	-1.237503e+01	-8.619745e+02
2.630000e-06	-1.855926e-06	-1.452417e-08	-1.321700e+01	-9.538290e+02
2.640000e-06	-1.973518e-06	-1.586003e-08	-1.405444e+01	-1.041142e+03
2.650000e-06	-2.090243e-06	-1.711983e-08	-1.488569e+01	-1.123330e+03
2.660000e-06	-2.205968e-06	-1.829676e-08	-1.570983e+01	-1.200135e+03
2.670000e-06	-2.320715e-06	-1.939195e-08	-1.652700e+01	-1.271587e+03
2.680000e-06	-2.434403e-06	-2.041114e-08	-1.733663e+01	-1.337944e+03
2.690000e-06	-2.547068e-06	-2.135704e-08	-1.813897e+01	-1.399606e+03
2.700000e-06	-2.658702e-06	-2.223801e-08	-1.893398e+01	-1.457028e+03
2.710000e-06	-2.769180e-06	-2.306050e-08	-1.972075e+01	-1.510650e+03
2.720000e-06	-2.878634e-06	-2.383149e-08	-2.050023e+01	-1.560852e+03
2.730000e-06	-2.987210e-06	-2.455705e-08	-2.127345e+01	-1.607939e+03
2.740000e-06	-3.094871e-06	-2.523556e-08	-2.204016e+01	-1.652144e+03
2.750000e-06	-3.201574e-06	-2.587049e-08	-2.280005e+01	-1.693652e+03
2.760000e-06	-3.307229e-06	-2.646766e-08	-2.355247e+01	-1.732625e+03
2.770000e-06	-3.411719e-06	-2.703064e-08	-2.429660e+01	-1.769226e+03
2.780000e-06	-3.514949e-06	-2.755933e-08	-2.503175e+01	-1.803627e+03
2.790000e-06	-3.616823e-06	-2.805423e-08	-2.575725e+01	-1.836010e+03
2.800000e-06	-3.717303e-06	-2.852218e-08	-2.647282e+01	-1.866559e+03
2.810000e-06	-3.816518e-06	-2.896565e-08	-2.717938e+01	-1.895446e+03
2.820000e-06	-3.914544e-06	-2.938510e-08	-2.787747e+01	-1.922817e+03
2.830000e-06	-4.011273e-06	-2.978384e-08	-2.856633e+01	-1.948790e+03
2.840000e-06	-4.106643e-06	-3.016309e-08	-2.924551e+01	-1.973450e+03
2.850000e-06	-4.200493e-06	-3.052200e-08	-2.991386e+01	-1.996860e+03
2.860000e-06	-4.292735e-06	-3.086213e-08	-3.057077e+01	-2.019073e+03
2.870000e-06	-4.383460e-06	-3.118607e-08	-3.121686e+01	-2.040140e+03
2.880000e-06	-4.472647e-06	-3.149329e-08	-3.185201e+01	-2.060121e+03
2.890000e-06	-4.560293e-06	-3.178383e-08	-3.247618e+01	-2.079084e+03
2.900000e-06	-4.646258e-06	-3.205982e-08	-3.308839e+01	-2.097104e+03
2.910000e-06	-4.730450e-06	-3.232242e-08	-3.368796e+01	-2.114252e+03
2.920000e-06	-4.812975e-06	-3.257316e-08	-3.427566e+01	-2.130593e+03
2.930000e-06	-4.893880e-06	-3.281317e-08	-3.485183e+01	-2.146178e+03
2.940000e-06	-4.972968e-06	-3.304312e-08	-3.541505e+01	-2.161041e+03
