# Temperatura_=_51.4
# Concentracion g/m^3_=_28200.0
# C_Vs_to_Am_M_A/Vsm_=_65563218390.804596
# pendiente_HvsI_1/m_=_3716.3
# ordenada_HvsI_A/m_=_1297.0
# frecuencia_Hz_=_302140.9151821024

Tiempo_(s)	Campo_(V.s)	Magnetizacion_(V.s)	Campo_(kA/m)	Magnetizacion_(A/m)
0.000000e+00	-6.398872e-06	-3.472089e-08	-4.585491e+01	-2.274562e+03
1.000000e-08	-6.396336e-06	-3.471765e-08	-4.583673e+01	-2.274038e+03
2.000000e-08	-6.391632e-06	-3.470407e-08	-4.580302e+01	-2.273247e+03
3.000000e-08	-6.384959e-06	-3.468665e-08	-4.575520e+01	-2.272192e+03
4.000000e-08	-6.376275e-06	-3.466612e-08	-4.569297e+01	-2.270886e+03
5.000000e-08	-6.365310e-06	-3.463934e-08	-4.561440e+01	-2.269349e+03
6.000000e-08	-6.351965e-06	-3.460844e-08	-4.551876e+01	-2.267607e+03
7.000000e-08	-6.336234e-06	-3.456560e-08	-4.540604e+01	-2.265680e+03
8.000000e-08	-6.318327e-06	-3.452910e-08	-4.527771e+01	-2.263584e+03
9.000000e-08	-6.298401e-06	-3.457516e-08	-4.513492e+01	-2.261325e+03
1.000000e-07	-6.276080e-06	-3.456181e-08	-4.497497e+01	-2.258899e+03
1.100000e-07	-6.251138e-06	-3.445309e-08	-4.479623e+01	-2.256297e+03
1.200000e-07	-6.223805e-06	-3.439089e-08	-4.460036e+01	-2.253501e+03
1.300000e-07	-6.194501e-06	-3.433700e-08	-4.439036e+01	-2.250492e+03
1.400000e-07	-6.163559e-06	-3.417177e-08	-4.416863e+01	-2.247248e+03
1.500000e-07	-6.130905e-06	-3.417607e-08	-4.393463e+01	-2.243750e+03
1.600000e-07	-6.096201e-06	-3.425369e-08	-4.368594e+01	-2.239979e+03
1.700000e-07	-6.059571e-06	-3.405266e-08	-4.342344e+01	-2.235915e+03
1.800000e-07	-6.021011e-06	-3.406002e-08	-4.314711e+01	-2.231542e+03
1.900000e-07	-5.980095e-06	-3.401518e-08	-4.285391e+01	-2.226847e+03
2.000000e-07	-5.936926e-06	-3.381157e-08	-4.254456e+01	-2.221819e+03
2.100000e-07	-5.891685e-06	-3.381139e-08	-4.222035e+01	-2.216456e+03
2.200000e-07	-5.844302e-06	-3.372044e-08	-4.188081e+01	-2.210763e+03
2.300000e-07	-5.794483e-06	-3.362086e-08	-4.152380e+01	-2.204749e+03
2.400000e-07	-5.742072e-06	-3.352846e-08	-4.114821e+01	-2.198431e+03
2.500000e-07	-5.687379e-06	-3.338391e-08	-4.075628e+01	-2.191824e+03
2.600000e-07	-5.630506e-06	-3.331043e-08	-4.034872e+01	-2.184939e+03
2.700000e-07	-5.571500e-06	-3.319561e-08	-3.992588e+01	-2.177780e+03
2.800000e-07	-5.510566e-06	-3.308445e-08	-3.948922e+01	-2.170336e+03
2.900000e-07	-5.447653e-06	-3.297390e-08	-3.903838e+01	-2.162584e+03
3.000000e-07	-5.382640e-06	-3.283990e-08	-3.857249e+01	-2.154495e+03
3.100000e-07	-5.315603e-06	-3.269921e-08	-3.809210e+01	-2.146030e+03
3.200000e-07	-5.246586e-06	-3.254891e-08	-3.759752e+01	-2.137155e+03
3.300000e-07	-5.175672e-06	-3.245069e-08	-3.708934e+01	-2.127845e+03
3.400000e-07	-5.102909e-06	-3.228174e-08	-3.656791e+01	-2.118085e+03
3.500000e-07	-5.028142e-06	-3.210908e-08	-3.603213e+01	-2.107875e+03
3.600000e-07	-4.951245e-06	-3.196556e-08	-3.548107e+01	-2.097222e+03
3.700000e-07	-4.872212e-06	-3.178124e-08	-3.491472e+01	-2.086139e+03
3.800000e-07	-4.791259e-06	-3.161441e-08	-3.433460e+01	-2.074634e+03
3.900000e-07	-4.708671e-06	-3.143869e-08	-3.374277e+01	-2.062706e+03
4.000000e-07	-4.624676e-06	-3.125324e-08	-3.314085e+01	-2.050339e+03
4.100000e-07	-4.539343e-06	-3.104056e-08	-3.252935e+01	-2.037502e+03
4.200000e-07	-4.452557e-06	-3.082795e-08	-3.190743e+01	-2.024154e+03
4.300000e-07	-4.364303e-06	-3.062395e-08	-3.127500e+01	-2.010248e+03
4.400000e-07	-4.274449e-06	-3.039695e-08	-3.063109e+01	-1.995741e+03
4.500000e-07	-4.182907e-06	-3.016954e-08	-2.997510e+01	-1.980599e+03
4.600000e-07	-4.089854e-06	-2.992537e-08	-2.930827e+01	-1.964798e+03
4.700000e-07	-3.995482e-06	-2.967012e-08	-2.863199e+01	-1.948328e+03
4.800000e-07	-3.899754e-06	-2.940273e-08	-2.794600e+01	-1.931183e+03
4.900000e-07	-3.802575e-06	-2.913797e-08	-2.724960e+01	-1.913355e+03
5.000000e-07	-3.703917e-06	-2.886503e-08	-2.654261e+01	-1.894829e+03
5.100000e-07	-3.603822e-06	-2.856680e-08	-2.582532e+01	-1.875577e+03
5.200000e-07	-3.502454e-06	-2.825435e-08	-2.509890e+01	-1.855554e+03
5.300000e-07	-3.399943e-06	-2.793000e-08	-2.436431e+01	-1.834699e+03
5.400000e-07	-3.296222e-06	-2.759668e-08	-2.362103e+01	-1.812946e+03
5.500000e-07	-3.191213e-06	-2.724656e-08	-2.286852e+01	-1.790225e+03
5.600000e-07	-3.084911e-06	-2.688896e-08	-2.210676e+01	-1.766468e+03
5.700000e-07	-2.977346e-06	-2.651231e-08	-2.133593e+01	-1.741616e+03
5.800000e-07	-2.868672e-06	-2.611222e-08	-2.055717e+01	-1.715613e+03
5.900000e-07	-2.759029e-06	-2.569445e-08	-1.977145e+01	-1.688403e+03
6.000000e-07	-2.648490e-06	-2.526292e-08	-1.897933e+01	-1.659921e+03
6.100000e-07	-2.536970e-06	-2.481009e-08	-1.818016e+01	-1.630090e+03
6.200000e-07	-2.424402e-06	-2.432822e-08	-1.737348e+01	-1.598810e+03
6.300000e-07	-2.310871e-06	-2.382238e-08	-1.655991e+01	-1.565963e+03
6.400000e-07	-2.196377e-06	-2.329032e-08	-1.573944e+01	-1.531412e+03
6.500000e-07	-2.080881e-06	-2.273285e-08	-1.491178e+01	-1.495011e+03
6.600000e-07	-1.964518e-06	-2.214911e-08	-1.407791e+01	-1.456611e+03
6.700000e-07	-1.847478e-06	-2.153557e-08	-1.323920e+01	-1.416065e+03
6.800000e-07	-1.729857e-06	-2.088512e-08	-1.239631e+01	-1.373231e+03
6.900000e-07	-1.611670e-06	-2.019404e-08	-1.154938e+01	-1.327967e+03
7.000000e-07	-1.492975e-06	-1.946265e-08	-1.069880e+01	-1.280127e+03
7.100000e-07	-1.373810e-06	-1.868902e-08	-9.844852e+00	-1.229554e+03
7.200000e-07	-1.254176e-06	-1.786988e-08	-8.987541e+00	-1.176080e+03
7.300000e-07	-1.134102e-06	-1.700499e-08	-8.127077e+00	-1.119535e+03
7.400000e-07	-1.013591e-06	-1.609226e-08	-7.263488e+00	-1.059770e+03
7.500000e-07	-8.926699e-07	-1.512921e-08	-6.396954e+00	-9.966820e+02
7.600000e-07	-7.714562e-07	-1.411871e-08	-5.528326e+00	-9.302542e+02
7.700000e-07	-6.500390e-07	-1.305961e-08	-4.658239e+00	-8.605897e+02
7.800000e-07	-5.284168e-07	-1.195573e-08	-3.786683e+00	-7.879343e+02
7.900000e-07	-4.066348e-07	-1.081035e-08	-2.913982e+00	-7.126790e+02
8.000000e-07	-2.847399e-07	-9.628708e-09	-2.040473e+00	-6.353375e+02
8.100000e-07	-1.627371e-07	-8.423038e-09	-1.166189e+00	-5.564962e+02
8.200000e-07	-4.060168e-08	-7.205815e-09	-2.909553e-01	-4.767428e+02
8.300000e-07	8.158347e-08	-5.988435e-09	5.846346e-01	-3.965859e+02
8.400000e-07	2.037130e-07	-4.772099e-09	1.459826e+00	-3.163775e+02
8.500000e-07	3.258281e-07	-3.555591e-09	2.334914e+00	-2.362578e+02
8.600000e-07	4.478726e-07	-2.337571e-09	3.209496e+00	-1.561338e+02
8.700000e-07	5.697559e-07	-1.112762e-09	4.082923e+00	-7.569876e+01
8.800000e-07	6.914656e-07	1.253588e-10	4.955106e+00	5.504835e+00
8.900000e-07	8.129750e-07	1.383974e-09	5.825853e+00	8.799043e+01
9.000000e-07	9.342000e-07	2.668053e-09	6.694563e+00	1.722143e+02
9.100000e-07	1.055097e-06	3.980700e-09	7.560924e+00	2.584652e+02
9.200000e-07	1.175611e-06	5.324335e-09	8.424535e+00	3.467762e+02
9.300000e-07	1.295663e-06	6.696358e-09	9.284840e+00	4.368756e+02
9.400000e-07	1.415189e-06	8.087168e-09	1.014138e+01	5.281861e+02
9.500000e-07	1.534214e-06	9.484306e-09	1.099432e+01	6.198725e+02
9.600000e-07	1.652721e-06	1.087229e-08	1.184355e+01	7.109284e+02
9.700000e-07	1.770630e-06	1.223153e-08	1.268850e+01	8.002876e+02
9.800000e-07	1.887888e-06	1.354705e-08	1.352878e+01	8.869392e+02
9.900000e-07	2.004429e-06	1.480995e-08	1.436392e+01	9.700283e+02
1.000000e-06	2.120152e-06	1.600975e-08	1.519320e+01	1.048926e+03
1.010000e-06	2.234876e-06	1.713960e-08	1.601532e+01	1.123262e+03
1.020000e-06	2.348550e-06	1.819564e-08	1.682992e+01	1.192918e+03
1.030000e-06	2.461258e-06	1.918100e-08	1.763760e+01	1.257985e+03
1.040000e-06	2.573047e-06	2.010108e-08	1.843869e+01	1.318706e+03
1.050000e-06	2.683869e-06	2.096136e-08	1.923285e+01	1.375409e+03
1.060000e-06	2.793747e-06	2.176990e-08	2.002025e+01	1.428445e+03
1.070000e-06	2.902744e-06	2.252716e-08	2.080133e+01	1.478141e+03
1.080000e-06	3.010847e-06	2.323567e-08	2.157601e+01	1.524781e+03
1.090000e-06	3.117937e-06	2.389857e-08	2.234342e+01	1.568595e+03
1.100000e-06	3.223809e-06	2.451909e-08	2.310211e+01	1.609769e+03
1.110000e-06	3.328366e-06	2.510242e-08	2.385138e+01	1.648465e+03
1.120000e-06	3.431663e-06	2.565436e-08	2.459162e+01	1.684836e+03
1.130000e-06	3.533783e-06	2.617716e-08	2.532341e+01	1.719034e+03
1.140000e-06	3.634748e-06	2.666847e-08	2.604694e+01	1.751223e+03
1.150000e-06	3.734557e-06	2.712957e-08	2.676218e+01	1.781568e+03
1.160000e-06	3.832975e-06	2.756404e-08	2.746745e+01	1.810228e+03
1.170000e-06	3.929853e-06	2.797478e-08	2.816169e+01	1.837348e+03
1.180000e-06	4.025256e-06	2.836553e-08	2.884536e+01	1.863051e+03
1.190000e-06	4.119251e-06	2.873725e-08	2.951893e+01	1.887433e+03
1.200000e-06	4.211928e-06	2.908988e-08	3.018306e+01	1.910571e+03
1.210000e-06	4.303264e-06	2.942299e-08	3.083759e+01	1.932523e+03
1.220000e-06	4.393014e-06	2.973923e-08	3.148074e+01	1.953342e+03
1.230000e-06	4.481025e-06	3.004077e-08	3.211143e+01	1.973082e+03
1.240000e-06	4.567400e-06	3.032539e-08	3.273041e+01	1.991798e+03
1.250000e-06	4.652203e-06	3.059317e-08	3.333811e+01	2.009554e+03
1.260000e-06	4.735509e-06	3.084766e-08	3.393509e+01	2.026416e+03
1.270000e-06	4.817124e-06	3.109119e-08	3.451996e+01	2.042446e+03
1.280000e-06	4.896917e-06	3.132267e-08	3.509175e+01	2.057699e+03
1.290000e-06	4.974926e-06	3.154358e-08	3.565077e+01	2.072219e+03
1.300000e-06	5.051032e-06	3.175356e-08	3.619616e+01	2.086040e+03
1.310000e-06	5.125077e-06	3.195242e-08	3.672677e+01	2.099189e+03
1.320000e-06	5.197124e-06	3.213999e-08	3.724307e+01	2.111687e+03
1.330000e-06	5.267302e-06	3.231824e-08	3.774597e+01	2.123558e+03
1.340000e-06	5.335673e-06	3.248972e-08	3.823592e+01	2.134827e+03
1.350000e-06	5.402090e-06	3.265420e-08	3.871187e+01	2.145523e+03
1.360000e-06	5.466414e-06	3.281028e-08	3.917283e+01	2.155679e+03
1.370000e-06	5.528838e-06	3.295804e-08	3.962016e+01	2.165323e+03
1.380000e-06	5.589491e-06	3.309878e-08	4.005481e+01	2.174476e+03
1.390000e-06	5.648236e-06	3.323263e-08	4.047578e+01	2.183151e+03
1.400000e-06	5.704906e-06	3.336042e-08	4.088188e+01	2.191353e+03
1.410000e-06	5.759466e-06	3.348249e-08	4.127286e+01	2.199079e+03
1.420000e-06	5.811798e-06	3.359612e-08	4.164788e+01	2.206325e+03
1.430000e-06	5.861649e-06	3.370005e-08	4.200511e+01	2.213094e+03
1.440000e-06	5.909126e-06	3.379537e-08	4.234534e+01	2.219398e+03
1.450000e-06	5.954615e-06	3.388276e-08	4.267131e+01	2.225260e+03
1.460000e-06	5.998141e-06	3.396475e-08	4.298323e+01	2.230717e+03
1.470000e-06	6.039439e-06	3.404311e-08	4.327918e+01	2.235808e+03
1.480000e-06	6.078504e-06	3.411766e-08	4.355912e+01	2.240572e+03
1.490000e-06	6.115570e-06	3.418714e-08	4.382474e+01	2.245039e+03
1.500000e-06	6.150576e-06	3.425177e-08	4.407559e+01	2.249225e+03
1.510000e-06	6.183350e-06	3.431366e-08	4.431046e+01	2.253128e+03
1.520000e-06	6.213919e-06	3.437230e-08	4.452951e+01	2.256731e+03
1.530000e-06	6.242414e-06	3.442492e-08	4.473371e+01	2.260011e+03
1.540000e-06	6.268689e-06	3.447038e-08	4.492200e+01	2.262943e+03
1.550000e-06	6.292540e-06	3.450896e-08	4.509292e+01	2.265508e+03
1.560000e-06	6.314153e-06	3.454160e-08	4.524780e+01	2.267704e+03
1.570000e-06	6.333704e-06	3.456919e-08	4.538790e+01	2.269543e+03
1.580000e-06	6.350976e-06	3.459281e-08	4.551167e+01	2.271052e+03
1.590000e-06	6.365794e-06	3.461268e-08	4.561786e+01	2.272267e+03
1.600000e-06	6.378188e-06	3.462853e-08	4.570668e+01	2.273224e+03
1.610000e-06	6.388031e-06	3.464171e-08	4.577722e+01	2.273951e+03
1.620000e-06	6.395373e-06	3.465229e-08	4.582983e+01	2.274468e+03
1.630000e-06	6.400514e-06	3.466051e-08	4.586667e+01	2.274776e+03
1.640000e-06	6.403476e-06	3.466653e-08	4.588790e+01	2.274868e+03
1.650000e-06	6.404132e-06	3.466970e-08	4.589260e+01	2.274726e+03
1.660000e-06	6.402569e-06	3.465826e-08	4.588140e+01	2.274333e+03
1.670000e-06	6.398998e-06	3.464222e-08	4.585580e+01	2.273676e+03
1.680000e-06	6.393257e-06	3.463080e-08	4.581466e+01	2.272752e+03
1.690000e-06	6.385262e-06	3.461548e-08	4.575737e+01	2.271569e+03
1.700000e-06	6.375268e-06	3.459699e-08	4.568575e+01	2.270145e+03
1.710000e-06	6.363199e-06	3.457919e-08	4.559927e+01	2.268502e+03
1.720000e-06	6.348810e-06	3.457420e-08	4.549616e+01	2.266665e+03
1.730000e-06	6.332307e-06	3.454731e-08	4.537789e+01	2.264652e+03
1.740000e-06	6.313879e-06	3.441022e-08	4.524584e+01	2.262474e+03
1.750000e-06	6.292797e-06	3.436969e-08	4.509476e+01	2.260133e+03
1.760000e-06	6.268510e-06	3.440393e-08	4.492072e+01	2.257621e+03
1.770000e-06	6.241623e-06	3.434584e-08	4.472805e+01	2.254925e+03
1.780000e-06	6.212862e-06	3.437553e-08	4.452194e+01	2.252024e+03
1.790000e-06	6.182458e-06	3.439028e-08	4.430406e+01	2.248901e+03
1.800000e-06	6.150569e-06	3.417464e-08	4.407554e+01	2.245532e+03
1.810000e-06	6.116791e-06	3.422165e-08	4.383348e+01	2.241900e+03
1.820000e-06	6.080987e-06	3.417654e-08	4.357691e+01	2.237984e+03
1.830000e-06	6.043263e-06	3.395961e-08	4.330658e+01	2.233768e+03
1.840000e-06	6.003119e-06	3.409115e-08	4.301890e+01	2.229235e+03
1.850000e-06	5.960695e-06	3.394504e-08	4.271488e+01	2.224375e+03
1.860000e-06	5.916320e-06	3.382217e-08	4.239689e+01	2.219179e+03
1.870000e-06	5.869787e-06	3.380888e-08	4.206343e+01	2.213650e+03
1.880000e-06	5.821205e-06	3.360383e-08	4.171529e+01	2.207795e+03
1.890000e-06	5.770315e-06	3.363837e-08	4.135061e+01	2.201627e+03
1.900000e-06	5.716744e-06	3.350146e-08	4.096671e+01	2.195162e+03
1.910000e-06	5.660822e-06	3.336044e-08	4.056597e+01	2.188416e+03
1.920000e-06	5.602843e-06	3.335611e-08	4.015049e+01	2.181394e+03
1.930000e-06	5.543089e-06	3.312808e-08	3.972229e+01	2.174094e+03
1.940000e-06	5.481260e-06	3.307723e-08	3.927921e+01	2.166500e+03
1.950000e-06	5.417184e-06	3.295019e-08	3.882004e+01	2.158584e+03
1.960000e-06	5.351148e-06	3.283999e-08	3.834682e+01	2.150311e+03
1.970000e-06	5.283215e-06	3.271771e-08	3.786000e+01	2.141646e+03
1.980000e-06	5.213240e-06	3.250252e-08	3.735855e+01	2.132556e+03
1.990000e-06	5.141134e-06	3.242851e-08	3.684184e+01	2.123022e+03
2.000000e-06	5.067204e-06	3.223181e-08	3.631205e+01	2.113036e+03
2.010000e-06	4.991393e-06	3.210761e-08	3.576878e+01	2.102603e+03
2.020000e-06	4.913428e-06	3.194949e-08	3.521008e+01	2.091733e+03
2.030000e-06	4.833533e-06	3.174841e-08	3.463754e+01	2.080439e+03
2.040000e-06	4.751986e-06	3.159637e-08	3.405317e+01	2.068724e+03
2.050000e-06	4.668853e-06	3.137952e-08	3.345743e+01	2.056579e+03
2.060000e-06	4.584134e-06	3.122313e-08	3.285033e+01	2.043982e+03
2.070000e-06	4.497710e-06	3.100755e-08	3.223101e+01	2.030895e+03
2.080000e-06	4.409603e-06	3.081187e-08	3.159962e+01	2.017273e+03
2.090000e-06	4.320008e-06	3.059101e-08	3.095757e+01	2.003072e+03
2.100000e-06	4.229058e-06	3.035157e-08	3.030581e+01	1.988251e+03
2.110000e-06	4.136741e-06	3.013715e-08	2.964427e+01	1.972782e+03
2.120000e-06	4.042979e-06	2.988917e-08	2.897236e+01	1.956648e+03
2.130000e-06	3.947670e-06	2.964527e-08	2.828936e+01	1.939840e+03
2.140000e-06	3.850868e-06	2.935890e-08	2.759568e+01	1.922355e+03
2.150000e-06	3.752743e-06	2.908754e-08	2.689250e+01	1.904181e+03
2.160000e-06	3.653379e-06	2.879937e-08	2.618045e+01	1.885297e+03
2.170000e-06	3.552685e-06	2.850491e-08	2.545887e+01	1.865665e+03
2.180000e-06	3.450512e-06	2.819918e-08	2.472669e+01	1.845234e+03
2.190000e-06	3.346942e-06	2.787684e-08	2.398449e+01	1.823939e+03
2.200000e-06	3.242130e-06	2.753315e-08	2.323340e+01	1.801711e+03
2.210000e-06	3.136223e-06	2.716784e-08	2.247446e+01	1.778480e+03
2.220000e-06	3.029276e-06	2.680405e-08	2.170807e+01	1.754183e+03
2.230000e-06	2.921242e-06	2.642490e-08	2.093389e+01	1.728762e+03
2.240000e-06	2.812162e-06	2.602529e-08	2.015221e+01	1.702163e+03
2.250000e-06	2.702076e-06	2.559571e-08	1.936333e+01	1.674326e+03
2.260000e-06	2.590951e-06	2.515398e-08	1.856699e+01	1.645180e+03
2.270000e-06	2.478804e-06	2.468769e-08	1.776334e+01	1.614638e+03
2.280000e-06	2.365688e-06	2.420113e-08	1.695273e+01	1.582591e+03
2.290000e-06	2.251639e-06	2.368829e-08	1.613545e+01	1.548909e+03
2.300000e-06	2.136728e-06	2.314567e-08	1.531199e+01	1.513452e+03
2.310000e-06	2.020976e-06	2.257473e-08	1.448250e+01	1.476070e+03
2.320000e-06	1.904435e-06	2.197301e-08	1.364736e+01	1.436615e+03
2.330000e-06	1.787145e-06	2.134076e-08	1.280684e+01	1.394943e+03
2.340000e-06	1.669152e-06	2.067162e-08	1.196130e+01	1.350912e+03
2.350000e-06	1.550485e-06	1.996456e-08	1.111091e+01	1.304379e+03
2.360000e-06	1.431168e-06	1.921404e-08	1.025588e+01	1.255192e+03
2.370000e-06	1.311301e-06	1.841960e-08	9.396904e+00	1.203190e+03
2.380000e-06	1.191001e-06	1.757886e-08	8.534824e+00	1.148201e+03
2.390000e-06	1.070378e-06	1.669481e-08	7.670423e+00	1.090063e+03
2.400000e-06	9.495027e-07	1.575986e-08	6.804223e+00	1.028645e+03
2.410000e-06	8.283518e-07	1.477053e-08	5.936045e+00	9.638822e+02
2.420000e-06	7.068739e-07	1.373167e-08	5.065523e+00	8.958147e+02
2.430000e-06	5.851961e-07	1.264566e-08	4.193569e+00	8.246147e+02
2.440000e-06	4.633349e-07	1.151647e-08	3.320301e+00	7.506019e+02
2.450000e-06	3.413329e-07	1.034853e-08	2.446023e+00	6.742334e+02
2.460000e-06	2.192762e-07	9.154040e-09	1.571354e+00	5.960667e+02
2.470000e-06	9.706812e-08	7.941728e-09	6.955990e-01	5.166989e+02
2.480000e-06	-2.523976e-08	6.717421e-09	-1.808704e-01	4.366883e+02
2.490000e-06	-1.475564e-07	5.491062e-09	-1.057403e+00	3.564739e+02
2.500000e-06	-2.698330e-07	4.267726e-09	-1.933648e+00	2.763069e+02
2.510000e-06	-3.920210e-07	3.045858e-09	-2.809258e+00	1.962111e+02
2.520000e-06	-5.140856e-07	1.818346e-09	-3.683985e+00	1.159812e+02
2.530000e-06	-6.359304e-07	5.788650e-10	-4.557135e+00	3.522510e+01
2.540000e-06	-7.576199e-07	-6.741394e-10	-5.429174e+00	-4.655616e+01
2.550000e-06	-8.791253e-07	-1.946611e-09	-6.299892e+00	-1.298619e+02
2.560000e-06	-1.000302e-06	-3.245828e-09	-7.168256e+00	-2.150776e+02
2.570000e-06	-1.121143e-06	-4.575435e-09	-8.034214e+00	-3.023728e+02
2.580000e-06	-1.241596e-06	-5.934694e-09	-8.897393e+00	-3.916316e+02
2.590000e-06	-1.361705e-06	-7.319188e-09	-9.758100e+00	-4.824265e+02
2.600000e-06	-1.481410e-06	-8.719521e-09	-1.061592e+01	-5.740424e+02
2.610000e-06	-1.600408e-06	-1.012099e-08	-1.146867e+01	-6.655459e+02
2.620000e-06	-1.718633e-06	-1.150519e-08	-1.231588e+01	-7.558859e+02
2.630000e-06	-1.836092e-06	-1.285418e-08	-1.315760e+01	-8.440099e+02
2.640000e-06	-1.952686e-06	-1.415566e-08	-1.399313e+01	-9.289742e+02
2.650000e-06	-2.068486e-06	-1.539908e-08	-1.482296e+01	-1.010030e+03
2.660000e-06	-2.183425e-06	-1.657340e-08	-1.564662e+01	-1.086678e+03
2.670000e-06	-2.297368e-06	-1.767326e-08	-1.646315e+01	-1.158674e+03
2.680000e-06	-2.410328e-06	-1.870101e-08	-1.727263e+01	-1.226013e+03
2.690000e-06	-2.522248e-06	-1.966119e-08	-1.807466e+01	-1.288869e+03
2.700000e-06	-2.633078e-06	-2.056055e-08	-1.886888e+01	-1.347538e+03
2.710000e-06	-2.742913e-06	-2.140338e-08	-1.965596e+01	-1.402364e+03
2.720000e-06	-2.851887e-06	-2.219364e-08	-2.043689e+01	-1.453691e+03
2.730000e-06	-2.960025e-06	-2.293592e-08	-2.121181e+01	-1.501828e+03
2.740000e-06	-3.067237e-06	-2.363032e-08	-2.198010e+01	-1.547029e+03
2.750000e-06	-3.173393e-06	-2.427842e-08	-2.274082e+01	-1.589501e+03
2.760000e-06	-3.278460e-06	-2.488630e-08	-2.349375e+01	-1.629418e+03
2.770000e-06	-3.382409e-06	-2.546158e-08	-2.423865e+01	-1.666932e+03
2.780000e-06	-3.485077e-06	-2.600440e-08	-2.497438e+01	-1.702196e+03
2.790000e-06	-3.586343e-06	-2.651206e-08	-2.570006e+01	-1.735370e+03
2.800000e-06	-3.686344e-06	-2.698767e-08	-2.641668e+01	-1.766616e+03
2.810000e-06	-3.785116e-06	-2.743919e-08	-2.712449e+01	-1.796099e+03
2.820000e-06	-3.882600e-06	-2.786728e-08	-2.782307e+01	-1.823972e+03
2.830000e-06	-3.978869e-06	-2.827176e-08	-2.851294e+01	-1.850370e+03
2.840000e-06	-4.073788e-06	-2.865741e-08	-2.919314e+01	-1.875402e+03
2.850000e-06	-4.167135e-06	-2.902233e-08	-2.986207e+01	-1.899154e+03
2.860000e-06	-4.258993e-06	-2.936658e-08	-3.052033e+01	-1.921692e+03
2.870000e-06	-4.349349e-06	-2.969057e-08	-3.116783e+01	-1.943071e+03
2.880000e-06	-4.438158e-06	-2.999729e-08	-3.180425e+01	-1.963344e+03
2.890000e-06	-4.525429e-06	-3.029065e-08	-3.242964e+01	-1.982564e+03
2.900000e-06	-4.610944e-06	-3.057165e-08	-3.304244e+01	-2.000792e+03
2.910000e-06	-4.694762e-06	-3.083831e-08	-3.364310e+01	-2.018093e+03
2.920000e-06	-4.777032e-06	-3.109043e-08	-3.423265e+01	-2.034531e+03
2.930000e-06	-4.857633e-06	-3.133070e-08	-3.481024e+01	-2.050166e+03
2.940000e-06	-4.936318e-06	-3.156000e-08	-3.537410e+01	-2.065048e+03
