# Temperatura_=_43.12
# Concentracion g/m^3_=_28200.0
# C_Vs_to_Am_M_A/Vsm_=_65563218390.804596
# pendiente_HvsI_1/m_=_3716.3
# ordenada_HvsI_A/m_=_1297.0
# frecuencia_Hz_=_302142.4899038865

Tiempo_(s)	Campo_(V.s)	Magnetizacion_(V.s)	Campo_(kA/m)	Magnetizacion_(A/m)
0.000000e+00	-6.416306e-06	-3.473353e-08	-4.585120e+01	-2.273162e+03
1.000000e-08	-6.413028e-06	-3.472478e-08	-4.582777e+01	-2.272560e+03
2.000000e-08	-6.407647e-06	-3.470970e-08	-4.578932e+01	-2.271735e+03
3.000000e-08	-6.400279e-06	-3.469347e-08	-4.573667e+01	-2.270685e+03
4.000000e-08	-6.390830e-06	-3.467338e-08	-4.566915e+01	-2.269406e+03
5.000000e-08	-6.379053e-06	-3.464750e-08	-4.558499e+01	-2.267892e+03
6.000000e-08	-6.364930e-06	-3.461710e-08	-4.548406e+01	-2.266137e+03
7.000000e-08	-6.348568e-06	-3.457567e-08	-4.536714e+01	-2.264139e+03
8.000000e-08	-6.330072e-06	-3.455842e-08	-4.523496e+01	-2.261902e+03
9.000000e-08	-6.309369e-06	-3.459110e-08	-4.508702e+01	-2.259440e+03
1.000000e-07	-6.286229e-06	-3.452970e-08	-4.492166e+01	-2.256776e+03
1.100000e-07	-6.260536e-06	-3.442855e-08	-4.473805e+01	-2.253941e+03
1.200000e-07	-6.232486e-06	-3.438539e-08	-4.453761e+01	-2.250965e+03
1.300000e-07	-6.202485e-06	-3.429968e-08	-4.432322e+01	-2.247875e+03
1.400000e-07	-6.170904e-06	-3.417418e-08	-4.409754e+01	-2.244682e+03
1.500000e-07	-6.137560e-06	-3.425282e-08	-4.385926e+01	-2.241376e+03
1.600000e-07	-6.102155e-06	-3.420965e-08	-4.360626e+01	-2.237927e+03
1.700000e-07	-6.064851e-06	-3.404397e-08	-4.333968e+01	-2.234280e+03
1.800000e-07	-6.025455e-06	-3.408539e-08	-4.305815e+01	-2.230370e+03
1.900000e-07	-5.983686e-06	-3.394024e-08	-4.275967e+01	-2.226127e+03
2.000000e-07	-5.939767e-06	-3.382993e-08	-4.244582e+01	-2.221489e+03
2.100000e-07	-5.893788e-06	-3.382107e-08	-4.211726e+01	-2.216416e+03
2.200000e-07	-5.845471e-06	-3.369397e-08	-4.177198e+01	-2.210894e+03
2.300000e-07	-5.794620e-06	-3.362104e-08	-4.140860e+01	-2.204937e+03
2.400000e-07	-5.741335e-06	-3.351799e-08	-4.102782e+01	-2.198580e+03
2.500000e-07	-5.685926e-06	-3.339619e-08	-4.063187e+01	-2.191871e+03
2.600000e-07	-5.628302e-06	-3.331278e-08	-4.022009e+01	-2.184858e+03
2.700000e-07	-5.568506e-06	-3.319574e-08	-3.979278e+01	-2.177574e+03
2.800000e-07	-5.506777e-06	-3.309393e-08	-3.935166e+01	-2.170031e+03
2.900000e-07	-5.443068e-06	-3.296056e-08	-3.889639e+01	-2.162216e+03
3.000000e-07	-5.377282e-06	-3.283312e-08	-3.842628e+01	-2.154095e+03
3.100000e-07	-5.309381e-06	-3.268743e-08	-3.794106e+01	-2.145622e+03
3.200000e-07	-5.239495e-06	-3.254741e-08	-3.744165e+01	-2.136746e+03
3.300000e-07	-5.167807e-06	-3.242854e-08	-3.692937e+01	-2.127429e+03
3.400000e-07	-5.094233e-06	-3.225742e-08	-3.640360e+01	-2.117646e+03
3.500000e-07	-5.018571e-06	-3.211352e-08	-3.586292e+01	-2.107393e+03
3.600000e-07	-4.940817e-06	-3.194787e-08	-3.530729e+01	-2.096679e+03
3.700000e-07	-4.861035e-06	-3.176741e-08	-3.473716e+01	-2.085521e+03
3.800000e-07	-4.779398e-06	-3.159627e-08	-3.415378e+01	-2.073933e+03
3.900000e-07	-4.696153e-06	-3.140957e-08	-3.355891e+01	-2.061916e+03
4.000000e-07	-4.611465e-06	-3.121882e-08	-3.295372e+01	-2.049455e+03
4.100000e-07	-4.525364e-06	-3.101601e-08	-3.233844e+01	-2.036515e+03
4.200000e-07	-4.437859e-06	-3.081578e-08	-3.171313e+01	-2.023049e+03
4.300000e-07	-4.348813e-06	-3.059767e-08	-3.107680e+01	-2.009005e+03
4.400000e-07	-4.258090e-06	-3.036831e-08	-3.042849e+01	-1.994336e+03
4.500000e-07	-4.165774e-06	-3.013804e-08	-2.976880e+01	-1.979005e+03
4.600000e-07	-4.072019e-06	-2.989025e-08	-2.909882e+01	-1.962994e+03
4.700000e-07	-3.976972e-06	-2.963486e-08	-2.841961e+01	-1.946296e+03
4.800000e-07	-3.880539e-06	-2.936885e-08	-2.773050e+01	-1.928912e+03
4.900000e-07	-3.782585e-06	-2.909601e-08	-2.703051e+01	-1.910840e+03
5.000000e-07	-3.683115e-06	-2.880711e-08	-2.631970e+01	-1.892070e+03
5.100000e-07	-3.582284e-06	-2.850445e-08	-2.559915e+01	-1.872572e+03
5.200000e-07	-3.480265e-06	-2.819280e-08	-2.487012e+01	-1.852298e+03
5.300000e-07	-3.377114e-06	-2.786887e-08	-2.413300e+01	-1.831183e+03
5.400000e-07	-3.272703e-06	-2.753172e-08	-2.338687e+01	-1.809151e+03
5.500000e-07	-3.166997e-06	-2.717717e-08	-2.263149e+01	-1.786125e+03
5.600000e-07	-3.060066e-06	-2.680962e-08	-2.186736e+01	-1.762032e+03
5.700000e-07	-2.951869e-06	-2.642334e-08	-2.109418e+01	-1.736807e+03
5.800000e-07	-2.842547e-06	-2.601898e-08	-2.031296e+01	-1.710390e+03
5.900000e-07	-2.732321e-06	-2.559795e-08	-1.952528e+01	-1.682724e+03
6.000000e-07	-2.621267e-06	-2.515812e-08	-1.873169e+01	-1.653745e+03
6.100000e-07	-2.509196e-06	-2.469546e-08	-1.793082e+01	-1.623372e+03
6.200000e-07	-2.395951e-06	-2.420534e-08	-1.712157e+01	-1.591507e+03
6.300000e-07	-2.281674e-06	-2.368827e-08	-1.630494e+01	-1.558029e+03
6.400000e-07	-2.166502e-06	-2.314454e-08	-1.548192e+01	-1.522801e+03
6.500000e-07	-2.050435e-06	-2.257713e-08	-1.465250e+01	-1.485675e+03
6.600000e-07	-1.933561e-06	-2.198254e-08	-1.381731e+01	-1.446500e+03
6.700000e-07	-1.816040e-06	-2.135403e-08	-1.297750e+01	-1.405126e+03
6.800000e-07	-1.697898e-06	-2.068699e-08	-1.213325e+01	-1.361408e+03
6.900000e-07	-1.579226e-06	-1.997922e-08	-1.128522e+01	-1.315199e+03
7.000000e-07	-1.460140e-06	-1.923101e-08	-1.043422e+01	-1.266350e+03
7.100000e-07	-1.340646e-06	-1.843962e-08	-9.580315e+00	-1.214703e+03
7.200000e-07	-1.220672e-06	-1.760457e-08	-8.722972e+00	-1.160097e+03
7.300000e-07	-1.100150e-06	-1.672233e-08	-7.861715e+00	-1.102377e+03
7.400000e-07	-9.791024e-07	-1.578939e-08	-6.996707e+00	-1.041417e+03
7.500000e-07	-8.576309e-07	-1.480625e-08	-6.128667e+00	-9.771540e+02
7.600000e-07	-7.358660e-07	-1.377588e-08	-5.258529e+00	-9.096194e+02
7.700000e-07	-6.138947e-07	-1.270043e-08	-4.386917e+00	-8.389725e+02
7.800000e-07	-4.918013e-07	-1.158330e-08	-3.514433e+00	-7.655159e+02
7.900000e-07	-3.695619e-07	-1.042795e-08	-2.640905e+00	-6.896904e+02
8.000000e-07	-2.472052e-07	-9.240520e-09	-1.766539e+00	-6.120437e+02
8.100000e-07	-1.247573e-07	-8.035817e-09	-8.915211e-01	-5.331748e+02
8.200000e-07	-2.235745e-09	-6.826611e-09	-1.597673e-02	-4.536592e+02
8.300000e-07	1.202874e-07	-5.618660e-09	8.595787e-01	-3.739686e+02
8.400000e-07	2.428072e-07	-4.411512e-09	1.735110e+00	-2.943997e+02
8.500000e-07	3.652930e-07	-3.205721e-09	2.610400e+00	-2.150271e+02
8.600000e-07	4.876887e-07	-1.997983e-09	3.485044e+00	-1.356924e+02
8.700000e-07	6.099470e-07	-7.830534e-10	4.358707e+00	-5.603520e+01
8.800000e-07	7.320372e-07	4.449127e-10	5.231169e+00	2.443673e+01
8.900000e-07	8.539545e-07	1.692866e-09	6.102395e+00	1.062478e+02
9.000000e-07	9.755583e-07	2.965412e-09	6.971381e+00	1.898424e+02
9.100000e-07	1.096779e-06	4.268795e-09	7.837626e+00	2.754798e+02
9.200000e-07	1.217573e-06	5.603923e-09	8.700827e+00	3.631549e+02
9.300000e-07	1.337794e-06	6.965476e-09	9.559932e+00	4.525591e+02
9.400000e-07	1.457445e-06	8.343619e-09	1.041496e+01	5.430886e+02
9.500000e-07	1.576566e-06	9.727024e-09	1.126621e+01	6.338987e+02
9.600000e-07	1.695144e-06	1.109928e-08	1.211357e+01	7.239926e+02
9.700000e-07	1.813160e-06	1.244238e-08	1.295692e+01	8.123311e+02
9.800000e-07	1.930515e-06	1.374250e-08	1.379554e+01	8.979419e+02
9.900000e-07	2.047100e-06	1.498796e-08	1.462866e+01	9.800125e+02
1.000000e-06	2.162837e-06	1.617218e-08	1.545573e+01	1.057953e+03
1.010000e-06	2.277616e-06	1.728775e-08	1.627594e+01	1.131422e+03
1.020000e-06	2.391386e-06	1.832978e-08	1.708894e+01	1.200315e+03
1.030000e-06	2.504146e-06	1.930213e-08	1.789473e+01	1.264727e+03
1.040000e-06	2.615945e-06	2.021088e-08	1.869365e+01	1.324891e+03
1.050000e-06	2.726821e-06	2.106118e-08	1.948598e+01	1.381118e+03
1.060000e-06	2.836746e-06	2.186174e-08	2.027151e+01	1.433743e+03
1.070000e-06	2.945752e-06	2.261328e-08	2.105047e+01	1.483078e+03
1.080000e-06	3.053795e-06	2.331815e-08	2.182255e+01	1.529395e+03
1.090000e-06	3.160731e-06	2.397767e-08	2.258671e+01	1.572920e+03
1.100000e-06	3.266477e-06	2.459518e-08	2.334238e+01	1.613837e+03
1.110000e-06	3.370990e-06	2.517552e-08	2.408924e+01	1.652306e+03
1.120000e-06	3.474204e-06	2.572282e-08	2.482681e+01	1.688480e+03
1.130000e-06	3.576220e-06	2.623930e-08	2.555582e+01	1.722509e+03
1.140000e-06	3.677105e-06	2.672574e-08	2.627675e+01	1.754550e+03
1.150000e-06	3.776776e-06	2.718346e-08	2.698900e+01	1.784760e+03
1.160000e-06	3.874995e-06	2.761552e-08	2.769088e+01	1.813295e+03
1.170000e-06	3.971603e-06	2.802523e-08	2.838125e+01	1.840294e+03
1.180000e-06	4.066741e-06	2.841335e-08	2.906110e+01	1.865879e+03
1.190000e-06	4.160514e-06	2.878148e-08	2.973121e+01	1.890150e+03
1.200000e-06	4.252993e-06	2.913099e-08	3.039207e+01	1.913186e+03
1.210000e-06	4.344073e-06	2.946312e-08	3.104293e+01	1.935051e+03
1.220000e-06	4.433490e-06	2.977763e-08	3.168190e+01	1.955798e+03
1.230000e-06	4.521182e-06	3.007703e-08	3.230856e+01	1.975480e+03
1.240000e-06	4.607258e-06	3.035868e-08	3.292366e+01	1.994148e+03
1.250000e-06	4.691818e-06	3.062495e-08	3.352793e+01	2.011859e+03
1.260000e-06	4.774816e-06	3.087847e-08	3.412104e+01	2.028671e+03
1.270000e-06	4.856053e-06	3.112044e-08	3.470156e+01	2.044640e+03
1.280000e-06	4.935445e-06	3.135203e-08	3.526890e+01	2.059821e+03
1.290000e-06	5.012980e-06	3.157258e-08	3.582297e+01	2.074262e+03
1.300000e-06	5.088606e-06	3.178104e-08	3.636339e+01	2.088001e+03
1.310000e-06	5.162196e-06	3.197774e-08	3.688927e+01	2.101075e+03
1.320000e-06	5.233777e-06	3.216312e-08	3.740079e+01	2.113510e+03
1.330000e-06	5.303535e-06	3.233985e-08	3.789929e+01	2.125335e+03
1.340000e-06	5.371503e-06	3.250974e-08	3.838499e+01	2.136570e+03
1.350000e-06	5.437440e-06	3.267207e-08	3.885618e+01	2.147240e+03
1.360000e-06	5.501269e-06	3.282600e-08	3.931230e+01	2.157363e+03
1.370000e-06	5.563219e-06	3.297316e-08	3.975500e+01	2.166957e+03
1.380000e-06	5.623429e-06	3.311396e-08	4.018526e+01	2.176034e+03
1.390000e-06	5.681676e-06	3.324645e-08	4.060150e+01	2.184605e+03
1.400000e-06	5.737804e-06	3.337119e-08	4.100259e+01	2.192678e+03
1.410000e-06	5.791841e-06	3.348907e-08	4.138874e+01	2.200264e+03
1.420000e-06	5.843548e-06	3.359862e-08	4.175824e+01	2.207373e+03
1.430000e-06	5.892808e-06	3.369865e-08	4.211026e+01	2.214025e+03
1.440000e-06	5.939797e-06	3.379135e-08	4.244604e+01	2.220242e+03
1.450000e-06	5.984750e-06	3.387823e-08	4.276728e+01	2.226055e+03
1.460000e-06	6.027721e-06	3.396004e-08	4.307435e+01	2.231492e+03
1.470000e-06	6.068508e-06	3.403752e-08	4.336582e+01	2.236583e+03
1.480000e-06	6.107146e-06	3.411037e-08	4.364192e+01	2.241351e+03
1.490000e-06	6.143818e-06	3.417971e-08	4.390398e+01	2.245809e+03
1.500000e-06	6.178328e-06	3.424486e-08	4.415059e+01	2.249960e+03
1.510000e-06	6.210519e-06	3.430625e-08	4.438063e+01	2.253800e+03
1.520000e-06	6.240538e-06	3.436310e-08	4.459515e+01	2.257317e+03
1.530000e-06	6.268527e-06	3.441270e-08	4.479516e+01	2.260499e+03
1.540000e-06	6.294195e-06	3.445536e-08	4.497858e+01	2.263337e+03
1.550000e-06	6.317363e-06	3.449013e-08	4.514414e+01	2.265826e+03
1.560000e-06	6.338375e-06	3.451892e-08	4.529429e+01	2.267971e+03
1.570000e-06	6.357251e-06	3.454433e-08	4.542919e+01	2.269784e+03
1.580000e-06	6.373759e-06	3.456715e-08	4.554715e+01	2.271282e+03
1.590000e-06	6.387881e-06	3.458812e-08	4.564807e+01	2.272486e+03
1.600000e-06	6.399553e-06	3.460534e-08	4.573147e+01	2.273413e+03
1.610000e-06	6.408626e-06	3.461872e-08	4.579631e+01	2.274081e+03
1.620000e-06	6.415258e-06	3.462970e-08	4.584370e+01	2.274502e+03
1.630000e-06	6.419790e-06	3.463630e-08	4.587609e+01	2.274685e+03
1.640000e-06	6.422100e-06	3.463734e-08	4.589260e+01	2.274637e+03
1.650000e-06	6.422004e-06	3.463285e-08	4.589191e+01	2.274361e+03
1.660000e-06	6.419787e-06	3.461659e-08	4.587607e+01	2.273862e+03
1.670000e-06	6.415553e-06	3.460321e-08	4.584582e+01	2.273140e+03
1.680000e-06	6.409110e-06	3.459161e-08	4.579977e+01	2.272195e+03
1.690000e-06	6.400519e-06	3.457704e-08	4.573838e+01	2.271023e+03
1.700000e-06	6.389887e-06	3.456145e-08	4.566240e+01	2.269619e+03
1.710000e-06	6.377003e-06	3.454552e-08	4.557033e+01	2.267976e+03
1.720000e-06	6.361893e-06	3.453775e-08	4.546236e+01	2.266090e+03
1.730000e-06	6.344823e-06	3.447162e-08	4.534038e+01	2.263963e+03
1.740000e-06	6.325556e-06	3.435678e-08	4.520269e+01	2.261603e+03
1.750000e-06	6.303332e-06	3.435743e-08	4.504387e+01	2.259030e+03
1.760000e-06	6.278059e-06	3.435769e-08	4.486327e+01	2.256270e+03
1.770000e-06	6.250507e-06	3.430336e-08	4.466638e+01	2.253356e+03
1.780000e-06	6.221104e-06	3.436313e-08	4.445628e+01	2.250316e+03
1.790000e-06	6.190120e-06	3.427319e-08	4.423486e+01	2.247170e+03
1.800000e-06	6.157637e-06	3.410630e-08	4.400274e+01	2.243919e+03
1.810000e-06	6.123131e-06	3.417991e-08	4.375615e+01	2.240542e+03
1.820000e-06	6.086532e-06	3.406655e-08	4.349462e+01	2.236994e+03
1.830000e-06	6.047841e-06	3.405099e-08	4.321813e+01	2.233215e+03
1.840000e-06	6.006835e-06	3.412278e-08	4.292510e+01	2.229135e+03
1.850000e-06	5.963799e-06	3.389147e-08	4.261756e+01	2.224686e+03
1.860000e-06	5.918701e-06	3.387445e-08	4.229529e+01	2.219819e+03
1.870000e-06	5.871387e-06	3.377836e-08	4.195718e+01	2.214505e+03
1.880000e-06	5.821945e-06	3.364467e-08	4.160386e+01	2.208747e+03
1.890000e-06	5.770003e-06	3.366010e-08	4.123269e+01	2.202570e+03
1.900000e-06	5.715543e-06	3.347425e-08	4.084351e+01	2.196018e+03
1.910000e-06	5.658901e-06	3.343370e-08	4.043875e+01	2.189140e+03
1.920000e-06	5.600254e-06	3.332730e-08	4.001965e+01	2.181979e+03
1.930000e-06	5.539728e-06	3.314698e-08	3.958713e+01	2.174556e+03
1.940000e-06	5.477040e-06	3.309725e-08	3.913916e+01	2.166870e+03
1.950000e-06	5.412169e-06	3.293005e-08	3.867559e+01	2.158897e+03
1.960000e-06	5.345323e-06	3.286335e-08	3.819791e+01	2.150593e+03
1.970000e-06	5.276458e-06	3.269007e-08	3.770579e+01	2.141910e+03
1.980000e-06	5.205488e-06	3.253739e-08	3.719864e+01	2.132802e+03
1.990000e-06	5.132534e-06	3.243437e-08	3.667731e+01	2.123236e+03
2.000000e-06	5.057802e-06	3.223756e-08	3.614327e+01	2.113201e+03
2.010000e-06	4.981034e-06	3.212624e-08	3.559468e+01	2.102699e+03
2.020000e-06	4.902184e-06	3.192923e-08	3.503122e+01	2.091744e+03
2.030000e-06	4.821574e-06	3.177883e-08	3.445517e+01	2.080355e+03
2.040000e-06	4.739345e-06	3.160044e-08	3.386756e+01	2.068538e+03
2.050000e-06	4.655532e-06	3.139166e-08	3.326863e+01	2.056286e+03
2.060000e-06	4.570034e-06	3.121265e-08	3.265766e+01	2.043574e+03
2.070000e-06	4.482818e-06	3.099443e-08	3.203441e+01	2.030358e+03
2.080000e-06	4.393979e-06	3.080805e-08	3.139956e+01	2.016589e+03
2.090000e-06	4.303704e-06	3.057168e-08	3.075445e+01	2.002215e+03
2.100000e-06	4.212066e-06	3.035547e-08	3.009960e+01	1.987195e+03
2.110000e-06	4.118944e-06	3.011929e-08	2.943415e+01	1.971501e+03
2.120000e-06	4.024318e-06	2.986753e-08	2.875795e+01	1.955122e+03
2.130000e-06	3.928231e-06	2.960776e-08	2.807131e+01	1.938055e+03
2.140000e-06	3.830786e-06	2.933167e-08	2.737496e+01	1.920303e+03
2.150000e-06	3.732096e-06	2.906413e-08	2.666972e+01	1.901860e+03
2.160000e-06	3.632112e-06	2.876779e-08	2.595523e+01	1.882705e+03
2.170000e-06	3.530676e-06	2.847083e-08	2.523036e+01	1.862798e+03
2.180000e-06	3.427794e-06	2.815046e-08	2.449516e+01	1.842082e+03
2.190000e-06	3.323586e-06	2.782542e-08	2.375049e+01	1.820486e+03
2.200000e-06	3.218156e-06	2.747714e-08	2.299708e+01	1.797931e+03
2.210000e-06	3.111659e-06	2.711788e-08	2.223605e+01	1.774341e+03
2.220000e-06	3.004087e-06	2.674488e-08	2.146733e+01	1.749649e+03
2.230000e-06	2.895395e-06	2.635484e-08	2.069062e+01	1.723792e+03
2.240000e-06	2.785688e-06	2.594433e-08	1.990665e+01	1.696714e+03
2.250000e-06	2.674987e-06	2.550970e-08	1.911557e+01	1.668353e+03
2.260000e-06	2.563251e-06	2.506004e-08	1.831710e+01	1.638638e+03
2.270000e-06	2.450476e-06	2.458554e-08	1.751121e+01	1.607479e+03
2.280000e-06	2.336738e-06	2.409158e-08	1.669843e+01	1.574766e+03
2.290000e-06	2.222121e-06	2.356489e-08	1.587937e+01	1.540368e+03
2.300000e-06	2.106694e-06	2.301050e-08	1.505452e+01	1.504142e+03
2.310000e-06	1.990356e-06	2.242641e-08	1.422317e+01	1.465937e+03
2.320000e-06	1.873062e-06	2.181346e-08	1.338498e+01	1.425602e+03
2.330000e-06	1.755042e-06	2.116764e-08	1.254161e+01	1.382990e+03
2.340000e-06	1.636458e-06	2.048601e-08	1.169420e+01	1.337956e+03
2.350000e-06	1.517308e-06	1.976455e-08	1.084274e+01	1.290351e+03
2.360000e-06	1.397501e-06	1.899767e-08	9.986605e+00	1.240023e+03
2.370000e-06	1.277158e-06	1.818457e-08	9.126622e+00	1.186812e+03
2.380000e-06	1.156471e-06	1.732511e-08	8.264188e+00	1.130555e+03
2.390000e-06	1.035501e-06	1.642153e-08	7.399733e+00	1.071112e+03
2.400000e-06	9.141808e-07	1.546735e-08	6.532775e+00	1.008385e+03
2.410000e-06	7.925339e-07	1.446316e-08	5.663481e+00	9.423572e+02
2.420000e-06	6.706543e-07	1.340921e-08	4.792524e+00	8.731264e+02
2.430000e-06	5.485822e-07	1.230762e-08	3.920192e+00	8.009273e+02
2.440000e-06	4.263550e-07	1.116406e-08	3.046751e+00	7.261388e+02
2.450000e-06	3.039771e-07	9.987613e-09	2.172233e+00	6.492645e+02
2.460000e-06	1.814342e-07	8.789789e-09	1.296537e+00	5.708880e+02
2.470000e-06	5.882782e-08	7.577843e-09	4.203861e-01	4.916057e+02
2.480000e-06	-6.376911e-08	6.360014e-09	-4.556967e-01	4.119472e+02
2.490000e-06	-1.863632e-07	5.140671e-09	-1.331760e+00	3.322982e+02
2.500000e-06	-3.088819e-07	3.924682e-09	-2.207283e+00	2.528401e+02
2.510000e-06	-4.313399e-07	2.711657e-09	-3.082373e+00	1.735214e+02
2.520000e-06	-5.537407e-07	1.495989e-09	-3.957054e+00	9.406903e+01
2.530000e-06	-6.759417e-07	2.729103e-10	-4.830308e+00	1.404101e+01
2.540000e-06	-7.978623e-07	-9.648511e-10	-5.701558e+00	-6.708572e+01
2.550000e-06	-9.195492e-07	-2.225919e-09	-6.571137e+00	-1.498067e+02
2.560000e-06	-1.040968e-06	-3.518668e-09	-7.438802e+00	-2.344790e+02
2.570000e-06	-1.162047e-06	-4.843430e-09	-8.304037e+00	-3.212278e+02
2.580000e-06	-1.282741e-06	-6.194890e-09	-9.166524e+00	-4.098873e+02
2.590000e-06	-1.403003e-06	-7.569471e-09	-1.002592e+01	-4.999867e+02
2.600000e-06	-1.522739e-06	-8.958767e-09	-1.088156e+01	-5.907838e+02
2.610000e-06	-1.641848e-06	-1.034591e-08	-1.173272e+01	-6.813397e+02
2.620000e-06	-1.760299e-06	-1.171298e-08	-1.257917e+01	-7.706208e+02
2.630000e-06	-1.878008e-06	-1.304445e-08	-1.342032e+01	-8.576108e+02
2.640000e-06	-1.994829e-06	-1.432733e-08	-1.425513e+01	-9.414131e+02
2.650000e-06	-2.110753e-06	-1.555160e-08	-1.508353e+01	-1.021329e+03
2.660000e-06	-2.225774e-06	-1.670912e-08	-1.590547e+01	-1.096901e+03
2.670000e-06	-2.339833e-06	-1.779803e-08	-1.672055e+01	-1.167918e+03
2.680000e-06	-2.452905e-06	-1.881948e-08	-1.752856e+01	-1.234389e+03
2.690000e-06	-2.564882e-06	-1.977352e-08	-1.832876e+01	-1.296489e+03
2.700000e-06	-2.675769e-06	-2.066383e-08	-1.912116e+01	-1.354503e+03
2.710000e-06	-2.785648e-06	-2.149656e-08	-1.990636e+01	-1.408760e+03
2.720000e-06	-2.894589e-06	-2.227769e-08	-2.068486e+01	-1.459585e+03
2.730000e-06	-3.002648e-06	-2.300916e-08	-2.145705e+01	-1.507273e+03
2.740000e-06	-3.109728e-06	-2.369457e-08	-2.222225e+01	-1.552070e+03
2.750000e-06	-3.215775e-06	-2.433817e-08	-2.298006e+01	-1.594176e+03
2.760000e-06	-3.320750e-06	-2.494545e-08	-2.373022e+01	-1.633763e+03
2.770000e-06	-3.424575e-06	-2.551980e-08	-2.447216e+01	-1.670985e+03
2.780000e-06	-3.527158e-06	-2.605783e-08	-2.520522e+01	-1.705991e+03
2.790000e-06	-3.628361e-06	-2.656128e-08	-2.592842e+01	-1.738935e+03
2.800000e-06	-3.728209e-06	-2.703454e-08	-2.664194e+01	-1.769976e+03
2.810000e-06	-3.826847e-06	-2.748390e-08	-2.734681e+01	-1.799270e+03
2.820000e-06	-3.924216e-06	-2.790930e-08	-2.804262e+01	-1.826965e+03
2.830000e-06	-4.020320e-06	-2.831240e-08	-2.872937e+01	-1.853193e+03
2.840000e-06	-4.115061e-06	-2.869636e-08	-2.940640e+01	-1.878064e+03
2.850000e-06	-4.208193e-06	-2.905939e-08	-3.007192e+01	-1.901665e+03
2.860000e-06	-4.299799e-06	-2.940207e-08	-3.072655e+01	-1.924066e+03
2.870000e-06	-4.389903e-06	-2.972589e-08	-3.137043e+01	-1.945326e+03
2.880000e-06	-4.478459e-06	-3.003459e-08	-3.200326e+01	-1.965496e+03
2.890000e-06	-4.565413e-06	-3.032980e-08	-3.262463e+01	-1.984629e+03
2.900000e-06	-4.650598e-06	-3.060921e-08	-3.323337e+01	-2.002777e+03
2.910000e-06	-4.734095e-06	-3.087211e-08	-3.383004e+01	-2.019999e+03
2.920000e-06	-4.815977e-06	-3.112272e-08	-3.441518e+01	-2.036353e+03
2.930000e-06	-4.896191e-06	-3.136169e-08	-3.498839e+01	-2.051894e+03
2.940000e-06	-4.974502e-06	-3.158856e-08	-3.554800e+01	-2.066673e+03
