# Temperatura_=_36.13
# Concentracion g/m^3_=_28200.0
# C_Vs_to_Am_M_A/Vsm_=_65563218390.804596
# pendiente_HvsI_1/m_=_3716.3
# ordenada_HvsI_A/m_=_1297.0
# frecuencia_Hz_=_302143.70329512155

Tiempo_(s)	Campo_(V.s)	Magnetizacion_(V.s)	Campo_(kA/m)	Magnetizacion_(A/m)
0.000000e+00	-6.423202e-06	-3.474669e-08	-4.584908e+01	-2.274186e+03
1.000000e-08	-6.419786e-06	-3.474090e-08	-4.582469e+01	-2.273634e+03
2.000000e-08	-6.414317e-06	-3.472564e-08	-4.578566e+01	-2.272838e+03
3.000000e-08	-6.406953e-06	-3.471073e-08	-4.573310e+01	-2.271787e+03
4.000000e-08	-6.397452e-06	-3.469055e-08	-4.566528e+01	-2.270473e+03
5.000000e-08	-6.385541e-06	-3.466224e-08	-4.558026e+01	-2.268893e+03
6.000000e-08	-6.371332e-06	-3.462284e-08	-4.547883e+01	-2.267058e+03
7.000000e-08	-6.354799e-06	-3.456870e-08	-4.536082e+01	-2.264984e+03
8.000000e-08	-6.336156e-06	-3.456793e-08	-4.522774e+01	-2.262699e+03
9.000000e-08	-6.315372e-06	-3.464363e-08	-4.507938e+01	-2.260235e+03
1.000000e-07	-6.292111e-06	-3.455990e-08	-4.491335e+01	-2.257624e+03
1.100000e-07	-6.266222e-06	-3.443530e-08	-4.472855e+01	-2.254897e+03
1.200000e-07	-6.237936e-06	-3.441878e-08	-4.452665e+01	-2.252073e+03
1.300000e-07	-6.207781e-06	-3.430541e-08	-4.431139e+01	-2.249159e+03
1.400000e-07	-6.176140e-06	-3.412349e-08	-4.408554e+01	-2.246139e+03
1.500000e-07	-6.142816e-06	-3.432584e-08	-4.384767e+01	-2.242983e+03
1.600000e-07	-6.107450e-06	-3.423928e-08	-4.359523e+01	-2.239639e+03
1.700000e-07	-6.070123e-06	-3.400334e-08	-4.332879e+01	-2.236046e+03
1.800000e-07	-6.030630e-06	-3.415101e-08	-4.304688e+01	-2.232139e+03
1.900000e-07	-5.988730e-06	-3.392082e-08	-4.274780e+01	-2.227858e+03
2.000000e-07	-5.944667e-06	-3.383377e-08	-4.243328e+01	-2.223158e+03
2.100000e-07	-5.898519e-06	-3.389114e-08	-4.210387e+01	-2.218014e+03
2.200000e-07	-5.850054e-06	-3.372615e-08	-4.175793e+01	-2.212426e+03
2.300000e-07	-5.799108e-06	-3.365610e-08	-4.139427e+01	-2.206414e+03
2.400000e-07	-5.745632e-06	-3.353286e-08	-4.101255e+01	-2.200012e+03
2.500000e-07	-5.690002e-06	-3.340526e-08	-4.061547e+01	-2.193263e+03
2.600000e-07	-5.632220e-06	-3.331942e-08	-4.020302e+01	-2.186205e+03
2.700000e-07	-5.572273e-06	-3.320247e-08	-3.977511e+01	-2.178864e+03
2.800000e-07	-5.510402e-06	-3.312672e-08	-3.933348e+01	-2.171246e+03
2.900000e-07	-5.446548e-06	-3.296456e-08	-3.887768e+01	-2.163340e+03
3.000000e-07	-5.380606e-06	-3.284956e-08	-3.840699e+01	-2.155117e+03
3.100000e-07	-5.312587e-06	-3.270663e-08	-3.792146e+01	-2.146540e+03
3.200000e-07	-5.242629e-06	-3.256088e-08	-3.742210e+01	-2.137569e+03
3.300000e-07	-5.170833e-06	-3.244638e-08	-3.690962e+01	-2.128173e+03
3.400000e-07	-5.097089e-06	-3.225986e-08	-3.638323e+01	-2.118328e+03
3.500000e-07	-5.021217e-06	-3.213128e-08	-3.584165e+01	-2.108026e+03
3.600000e-07	-4.943247e-06	-3.195648e-08	-3.528510e+01	-2.097268e+03
3.700000e-07	-4.863226e-06	-3.178116e-08	-3.471390e+01	-2.086061e+03
3.800000e-07	-4.781370e-06	-3.161451e-08	-3.412961e+01	-2.074406e+03
3.900000e-07	-4.697993e-06	-3.142472e-08	-3.353447e+01	-2.062301e+03
4.000000e-07	-4.613187e-06	-3.123170e-08	-3.292912e+01	-2.049728e+03
4.100000e-07	-4.526951e-06	-3.102011e-08	-3.231357e+01	-2.036659e+03
4.200000e-07	-4.439374e-06	-3.082378e-08	-3.168844e+01	-2.023059e+03
4.300000e-07	-4.350303e-06	-3.060253e-08	-3.105264e+01	-2.008887e+03
4.400000e-07	-4.259487e-06	-3.037076e-08	-3.040439e+01	-1.994108e+03
4.500000e-07	-4.167057e-06	-3.013741e-08	-2.974463e+01	-1.978692e+03
4.600000e-07	-4.073204e-06	-2.988446e-08	-2.907470e+01	-1.962619e+03
4.700000e-07	-3.978006e-06	-2.962804e-08	-2.839517e+01	-1.945878e+03
4.800000e-07	-3.881389e-06	-2.936437e-08	-2.770551e+01	-1.928457e+03
4.900000e-07	-3.783277e-06	-2.909447e-08	-2.700519e+01	-1.910344e+03
5.000000e-07	-3.683698e-06	-2.880739e-08	-2.629439e+01	-1.891516e+03
5.100000e-07	-3.582738e-06	-2.850486e-08	-2.557373e+01	-1.871935e+03
5.200000e-07	-3.480569e-06	-2.818743e-08	-2.484444e+01	-1.851553e+03
5.300000e-07	-3.377263e-06	-2.785833e-08	-2.410705e+01	-1.830306e+03
5.400000e-07	-3.272645e-06	-2.752073e-08	-2.336028e+01	-1.808126e+03
5.500000e-07	-3.166648e-06	-2.716624e-08	-2.260366e+01	-1.784944e+03
5.600000e-07	-3.059415e-06	-2.679653e-08	-2.183823e+01	-1.760692e+03
5.700000e-07	-2.951064e-06	-2.640606e-08	-2.106481e+01	-1.735306e+03
5.800000e-07	-2.841645e-06	-2.599720e-08	-2.028378e+01	-1.708726e+03
5.900000e-07	-2.731251e-06	-2.557498e-08	-1.949578e+01	-1.680890e+03
6.000000e-07	-2.619951e-06	-2.513544e-08	-1.870132e+01	-1.651726e+03
6.100000e-07	-2.507599e-06	-2.467162e-08	-1.789934e+01	-1.621148e+03
6.200000e-07	-2.394203e-06	-2.417647e-08	-1.708992e+01	-1.589054e+03
6.300000e-07	-2.279810e-06	-2.365348e-08	-1.627338e+01	-1.555324e+03
6.400000e-07	-2.164381e-06	-2.310514e-08	-1.544944e+01	-1.519825e+03
6.500000e-07	-2.048086e-06	-2.253472e-08	-1.461932e+01	-1.482412e+03
6.600000e-07	-1.931104e-06	-2.193588e-08	-1.378430e+01	-1.442941e+03
6.700000e-07	-1.813444e-06	-2.130189e-08	-1.294444e+01	-1.401264e+03
6.800000e-07	-1.695180e-06	-2.063139e-08	-1.210027e+01	-1.357236e+03
6.900000e-07	-1.576437e-06	-1.991832e-08	-1.125267e+01	-1.310710e+03
7.000000e-07	-1.457171e-06	-1.916520e-08	-1.040135e+01	-1.261534e+03
7.100000e-07	-1.337339e-06	-1.836864e-08	-9.545984e+00	-1.209552e+03
7.200000e-07	-1.217063e-06	-1.752960e-08	-8.687446e+00	-1.154611e+03
7.300000e-07	-1.096375e-06	-1.664297e-08	-7.825969e+00	-1.096570e+03
7.400000e-07	-9.752550e-07	-1.570478e-08	-6.961410e+00	-1.035326e+03
7.500000e-07	-8.538128e-07	-1.471953e-08	-6.094551e+00	-9.708450e+02
7.600000e-07	-7.320862e-07	-1.368986e-08	-5.225662e+00	-9.031900e+02
7.700000e-07	-6.101247e-07	-1.261501e-08	-4.355095e+00	-8.325491e+02
7.800000e-07	-4.879593e-07	-1.149919e-08	-3.483073e+00	-7.592476e+02
7.900000e-07	-3.656214e-07	-1.035064e-08	-2.609820e+00	-6.837398e+02
8.000000e-07	-2.432121e-07	-9.172488e-09	-1.736058e+00	-6.065776e+02
8.100000e-07	-1.206678e-07	-7.977080e-09	-8.613320e-01	-5.283562e+02
8.200000e-07	1.972017e-09	-6.777434e-09	1.407634e-02	-4.496434e+02
8.300000e-07	1.246413e-07	-5.581563e-09	8.896945e-01	-3.709034e+02
8.400000e-07	2.473108e-07	-4.388246e-09	1.765315e+00	-2.924297e+02
8.500000e-07	3.699081e-07	-3.200375e-09	2.640419e+00	-2.142995e+02
8.600000e-07	4.924325e-07	-2.014527e-09	3.515004e+00	-1.363616e+02
8.700000e-07	6.148373e-07	-8.229247e-10	4.388734e+00	-5.826298e+01
8.800000e-07	7.370646e-07	3.776628e-10	5.261198e+00	2.048736e+01
8.900000e-07	8.590407e-07	1.595999e-09	6.131868e+00	1.004261e+02
9.000000e-07	9.806775e-07	2.838964e-09	7.000116e+00	1.820291e+02
9.100000e-07	1.101950e-06	4.112787e-09	7.865764e+00	2.656095e+02
9.200000e-07	1.222808e-06	5.418128e-09	8.728455e+00	3.512367e+02
9.300000e-07	1.343183e-06	6.750415e-09	9.587696e+00	4.386913e+02
9.400000e-07	1.463009e-06	8.102444e-09	1.044302e+01	5.274640e+02
9.500000e-07	1.582280e-06	9.464451e-09	1.129438e+01	6.167971e+02
9.600000e-07	1.700982e-06	1.082144e-08	1.214168e+01	7.057624e+02
9.700000e-07	1.819035e-06	1.215424e-08	1.298434e+01	7.933612e+02
9.800000e-07	1.936453e-06	1.344875e-08	1.382248e+01	8.786284e+02
9.900000e-07	2.053191e-06	1.469507e-08	1.465576e+01	9.607263e+02
1.000000e-06	2.169109e-06	1.588479e-08	1.548319e+01	1.039013e+03
1.010000e-06	2.284001e-06	1.700719e-08	1.630329e+01	1.113075e+03
1.020000e-06	2.397812e-06	1.806043e-08	1.711568e+01	1.182732e+03
1.030000e-06	2.510720e-06	1.904694e-08	1.792162e+01	1.248004e+03
1.040000e-06	2.622695e-06	1.997087e-08	1.872090e+01	1.309066e+03
1.050000e-06	2.733663e-06	2.083532e-08	1.951300e+01	1.366184e+03
1.060000e-06	2.843626e-06	2.164925e-08	2.029792e+01	1.419669e+03
1.070000e-06	2.952650e-06	2.241268e-08	2.107614e+01	1.469826e+03
1.080000e-06	3.060816e-06	2.312860e-08	2.184823e+01	1.516928e+03
1.090000e-06	3.167906e-06	2.379936e-08	2.261264e+01	1.561209e+03
1.100000e-06	3.273752e-06	2.442819e-08	2.336818e+01	1.602861e+03
1.110000e-06	3.378264e-06	2.502009e-08	2.411419e+01	1.642048e+03
1.120000e-06	3.481437e-06	2.557871e-08	2.485064e+01	1.678919e+03
1.130000e-06	3.583435e-06	2.610517e-08	2.557871e+01	1.713622e+03
1.140000e-06	3.684330e-06	2.659976e-08	2.629890e+01	1.746305e+03
1.150000e-06	3.784036e-06	2.706668e-08	2.701061e+01	1.777119e+03
1.160000e-06	3.882343e-06	2.750703e-08	2.771232e+01	1.806215e+03
1.170000e-06	3.979065e-06	2.792434e-08	2.840273e+01	1.833734e+03
1.180000e-06	4.074282e-06	2.832077e-08	2.908239e+01	1.859800e+03
1.190000e-06	4.168129e-06	2.869780e-08	2.975228e+01	1.884519e+03
1.200000e-06	4.260692e-06	2.905442e-08	3.041300e+01	1.907977e+03
1.210000e-06	4.351875e-06	2.939252e-08	3.106387e+01	1.930242e+03
1.220000e-06	4.441402e-06	2.971225e-08	3.170291e+01	1.951371e+03
1.230000e-06	4.529187e-06	3.001663e-08	3.232952e+01	1.971418e+03
1.240000e-06	4.615315e-06	3.030309e-08	3.294431e+01	1.990432e+03
1.250000e-06	4.699953e-06	3.057657e-08	3.354845e+01	2.008468e+03
1.260000e-06	4.783072e-06	3.083669e-08	3.414176e+01	2.025581e+03
1.270000e-06	4.864446e-06	3.108322e-08	3.472261e+01	2.041828e+03
1.280000e-06	4.943966e-06	3.131747e-08	3.529023e+01	2.057263e+03
1.290000e-06	5.021658e-06	3.154138e-08	3.584480e+01	2.071935e+03
1.300000e-06	5.097430e-06	3.175438e-08	3.638566e+01	2.085887e+03
1.310000e-06	5.171116e-06	3.195454e-08	3.691164e+01	2.099156e+03
1.320000e-06	5.242782e-06	3.214403e-08	3.742319e+01	2.111774e+03
1.330000e-06	5.312582e-06	3.232385e-08	3.792143e+01	2.123769e+03
1.340000e-06	5.380584e-06	3.249614e-08	3.840683e+01	2.135166e+03
1.350000e-06	5.446607e-06	3.266092e-08	3.887811e+01	2.145991e+03
1.360000e-06	5.510508e-06	3.281776e-08	3.933423e+01	2.156267e+03
1.370000e-06	5.572490e-06	3.296659e-08	3.977666e+01	2.166015e+03
1.380000e-06	5.632678e-06	3.310917e-08	4.020629e+01	2.175250e+03
1.390000e-06	5.690850e-06	3.324537e-08	4.062152e+01	2.183987e+03
1.400000e-06	5.746930e-06	3.337481e-08	4.102182e+01	2.192234e+03
1.410000e-06	5.800981e-06	3.349693e-08	4.140764e+01	2.199998e+03
1.420000e-06	5.852673e-06	3.360882e-08	4.177662e+01	2.207287e+03
1.430000e-06	5.901888e-06	3.371123e-08	4.212792e+01	2.214111e+03
1.440000e-06	5.948883e-06	3.380688e-08	4.246337e+01	2.220485e+03
1.450000e-06	5.993963e-06	3.389503e-08	4.278515e+01	2.226432e+03
1.460000e-06	6.036997e-06	3.397793e-08	4.309233e+01	2.231978e+03
1.470000e-06	6.077687e-06	3.405688e-08	4.338278e+01	2.237150e+03
1.480000e-06	6.116177e-06	3.413164e-08	4.365753e+01	2.241975e+03
1.490000e-06	6.152736e-06	3.420141e-08	4.391848e+01	2.246474e+03
1.500000e-06	6.187117e-06	3.426522e-08	4.416390e+01	2.250658e+03
1.510000e-06	6.219145e-06	3.432563e-08	4.439251e+01	2.254531e+03
1.520000e-06	6.249071e-06	3.438201e-08	4.460612e+01	2.258086e+03
1.530000e-06	6.276944e-06	3.443334e-08	4.480509e+01	2.261312e+03
1.540000e-06	6.302478e-06	3.447701e-08	4.498734e+01	2.264194e+03
1.550000e-06	6.325547e-06	3.451163e-08	4.515202e+01	2.266725e+03
1.560000e-06	6.346494e-06	3.454172e-08	4.530153e+01	2.268900e+03
1.570000e-06	6.365343e-06	3.456899e-08	4.543608e+01	2.270727e+03
1.580000e-06	6.381792e-06	3.459217e-08	4.555349e+01	2.272222e+03
1.590000e-06	6.395817e-06	3.461107e-08	4.565361e+01	2.273409e+03
1.600000e-06	6.407312e-06	3.462581e-08	4.573565e+01	2.274315e+03
1.610000e-06	6.416230e-06	3.463716e-08	4.579931e+01	2.274966e+03
1.620000e-06	6.422776e-06	3.464560e-08	4.584604e+01	2.275386e+03
1.630000e-06	6.427164e-06	3.465166e-08	4.587736e+01	2.275588e+03
1.640000e-06	6.429299e-06	3.465506e-08	4.589260e+01	2.275580e+03
1.650000e-06	6.429074e-06	3.465382e-08	4.589100e+01	2.275358e+03
1.660000e-06	6.426756e-06	3.463506e-08	4.587445e+01	2.274913e+03
1.670000e-06	6.422384e-06	3.462509e-08	4.584324e+01	2.274232e+03
1.680000e-06	6.415812e-06	3.461506e-08	4.579633e+01	2.273301e+03
1.690000e-06	6.407105e-06	3.459670e-08	4.573418e+01	2.272109e+03
1.700000e-06	6.396409e-06	3.457837e-08	4.565783e+01	2.270652e+03
1.710000e-06	6.383409e-06	3.456246e-08	4.556503e+01	2.268934e+03
1.720000e-06	6.368095e-06	3.457256e-08	4.545573e+01	2.266968e+03
1.730000e-06	6.350902e-06	3.448130e-08	4.533300e+01	2.264777e+03
1.740000e-06	6.331576e-06	3.433064e-08	4.519505e+01	2.262391e+03
1.750000e-06	6.309286e-06	3.436967e-08	4.503595e+01	2.259844e+03
1.760000e-06	6.283908e-06	3.437683e-08	4.485480e+01	2.257168e+03
1.770000e-06	6.256273e-06	3.428714e-08	4.465753e+01	2.254387e+03
1.780000e-06	6.226729e-06	3.444010e-08	4.444665e+01	2.251515e+03
1.790000e-06	6.195588e-06	3.429967e-08	4.422436e+01	2.248547e+03
1.800000e-06	6.163001e-06	3.408279e-08	4.399175e+01	2.245460e+03
1.810000e-06	6.128313e-06	3.428864e-08	4.374415e+01	2.242209e+03
1.820000e-06	6.091538e-06	3.405873e-08	4.348165e+01	2.238740e+03
1.830000e-06	6.052676e-06	3.408454e-08	4.320425e+01	2.234987e+03
1.840000e-06	6.011454e-06	3.423097e-08	4.291000e+01	2.230886e+03
1.850000e-06	5.968318e-06	3.385186e-08	4.260210e+01	2.226385e+03
1.860000e-06	5.923170e-06	3.390860e-08	4.227983e+01	2.221449e+03
1.870000e-06	5.875798e-06	3.377977e-08	4.194169e+01	2.216066e+03
1.880000e-06	5.826304e-06	3.365772e-08	4.158840e+01	2.210246e+03
1.890000e-06	5.774182e-06	3.374485e-08	4.121635e+01	2.204020e+03
1.900000e-06	5.719512e-06	3.346444e-08	4.082611e+01	2.197427e+03
1.910000e-06	5.662685e-06	3.348800e-08	4.042048e+01	2.190509e+03
1.920000e-06	5.603912e-06	3.333353e-08	4.000096e+01	2.183297e+03
1.930000e-06	5.543199e-06	3.314621e-08	3.956759e+01	2.175807e+03
1.940000e-06	5.480284e-06	3.314478e-08	3.911850e+01	2.168037e+03
1.950000e-06	5.415304e-06	3.292098e-08	3.865466e+01	2.159966e+03
1.960000e-06	5.348320e-06	3.291968e-08	3.817653e+01	2.151558e+03
1.970000e-06	5.279297e-06	3.269274e-08	3.768384e+01	2.142775e+03
1.980000e-06	5.208204e-06	3.253900e-08	3.717638e+01	2.133579e+03
1.990000e-06	5.135148e-06	3.244800e-08	3.665490e+01	2.123944e+03
2.000000e-06	5.060301e-06	3.223138e-08	3.612064e+01	2.113854e+03
2.010000e-06	4.983378e-06	3.216217e-08	3.557156e+01	2.103308e+03
2.020000e-06	4.904378e-06	3.191414e-08	3.500765e+01	2.092308e+03
2.030000e-06	4.823597e-06	3.178429e-08	3.443104e+01	2.080861e+03
2.040000e-06	4.741224e-06	3.159465e-08	3.384305e+01	2.068966e+03
2.050000e-06	4.657292e-06	3.138804e-08	3.324394e+01	2.056613e+03
2.060000e-06	4.571624e-06	3.121568e-08	3.263244e+01	2.043778e+03
2.070000e-06	4.484277e-06	3.098300e-08	3.200895e+01	2.030430e+03
2.080000e-06	4.395363e-06	3.081463e-08	3.137428e+01	2.016528e+03
2.090000e-06	4.305030e-06	3.055641e-08	3.072948e+01	2.002034e+03
2.100000e-06	4.213274e-06	3.035235e-08	3.007452e+01	1.986917e+03
2.110000e-06	4.119982e-06	3.011123e-08	2.940860e+01	1.971151e+03
2.120000e-06	4.025184e-06	2.986303e-08	2.873193e+01	1.954721e+03
2.130000e-06	3.928917e-06	2.959860e-08	2.804477e+01	1.937617e+03
2.140000e-06	3.831301e-06	2.931465e-08	2.734798e+01	1.919828e+03
2.150000e-06	3.732432e-06	2.904907e-08	2.664225e+01	1.901335e+03
2.160000e-06	3.632227e-06	2.874909e-08	2.592699e+01	1.882109e+03
2.170000e-06	3.530539e-06	2.845942e-08	2.520114e+01	1.862106e+03
2.180000e-06	3.427413e-06	2.813215e-08	2.446501e+01	1.841268e+03
2.190000e-06	3.322971e-06	2.780713e-08	2.371950e+01	1.819530e+03
2.200000e-06	3.217386e-06	2.745199e-08	2.296583e+01	1.796822e+03
2.210000e-06	3.110776e-06	2.709389e-08	2.220485e+01	1.773074e+03
2.220000e-06	3.003092e-06	2.672085e-08	2.143619e+01	1.748222e+03
2.230000e-06	2.894252e-06	2.632911e-08	2.065929e+01	1.722205e+03
2.240000e-06	2.784402e-06	2.591068e-08	1.987517e+01	1.694960e+03
2.250000e-06	2.673516e-06	2.546802e-08	1.908367e+01	1.666422e+03
2.260000e-06	2.561547e-06	2.501603e-08	1.828443e+01	1.636512e+03
2.270000e-06	2.448592e-06	2.453974e-08	1.747815e+01	1.605135e+03
2.280000e-06	2.334710e-06	2.404829e-08	1.666526e+01	1.572181e+03
2.290000e-06	2.219943e-06	2.351883e-08	1.584605e+01	1.537520e+03
2.300000e-06	2.104259e-06	2.296024e-08	1.502029e+01	1.501014e+03
2.310000e-06	1.987678e-06	2.236719e-08	1.418812e+01	1.462517e+03
2.320000e-06	1.870285e-06	2.174857e-08	1.335017e+01	1.421882e+03
2.330000e-06	1.752189e-06	2.109853e-08	1.250719e+01	1.378963e+03
2.340000e-06	1.633340e-06	2.041289e-08	1.165885e+01	1.333615e+03
2.350000e-06	1.513778e-06	1.968520e-08	1.080541e+01	1.285688e+03
2.360000e-06	1.393719e-06	1.891128e-08	9.948421e+00	1.235029e+03
2.370000e-06	1.273274e-06	1.809328e-08	9.088682e+00	1.181480e+03
2.380000e-06	1.152510e-06	1.723090e-08	8.226665e+00	1.124894e+03
2.390000e-06	1.031455e-06	1.632495e-08	7.362568e+00	1.065146e+03
2.400000e-06	9.100104e-07	1.536584e-08	6.495692e+00	1.002167e+03
2.410000e-06	7.882161e-07	1.435776e-08	5.626319e+00	9.359699e+02
2.420000e-06	6.662128e-07	1.330034e-08	4.755455e+00	8.666832e+02
2.430000e-06	5.440299e-07	1.219768e-08	3.883308e+00	7.945677e+02
2.440000e-06	4.216711e-07	1.105723e-08	3.009906e+00	7.200203e+02
2.450000e-06	2.992361e-07	9.885732e-09	2.135960e+00	6.435532e+02
2.460000e-06	1.767232e-07	8.696060e-09	1.261458e+00	5.657494e+02
2.470000e-06	5.407892e-08	7.495453e-09	3.860175e-01	4.871988e+02
2.480000e-06	-6.859526e-08	6.292709e-09	-4.896358e-01	4.084230e+02
2.490000e-06	-1.912015e-07	5.092513e-09	-1.364804e+00	3.298021e+02
2.500000e-06	-3.137829e-07	3.899198e-09	-2.239795e+00	2.515174e+02
2.510000e-06	-4.362995e-07	2.710906e-09	-3.114324e+00	1.735229e+02
2.520000e-06	-5.587159e-07	1.517988e-09	-3.988137e+00	9.555329e+01
2.530000e-06	-6.810083e-07	3.166610e-10	-4.861065e+00	1.717175e+01
2.540000e-06	-8.031146e-07	-8.983286e-10	-5.732665e+00	-6.214996e+01
2.550000e-06	-9.249521e-07	-2.132344e-09	-6.602346e+00	-1.429294e+02
2.560000e-06	-1.046432e-06	-3.394439e-09	-7.469472e+00	-2.255669e+02
2.570000e-06	-1.167555e-06	-4.687580e-09	-8.334058e+00	-3.102532e+02
2.580000e-06	-1.288305e-06	-6.006538e-09	-9.195976e+00	-3.969057e+02
2.590000e-06	-1.408646e-06	-7.348341e-09	-1.005497e+01	-4.851472e+02
2.600000e-06	-1.528490e-06	-8.707066e-09	-1.091043e+01	-5.743274e+02
2.610000e-06	-1.647753e-06	-1.007076e-08	-1.176173e+01	-6.635861e+02
2.620000e-06	-1.766265e-06	-1.142490e-08	-1.260767e+01	-7.519439e+02
2.630000e-06	-1.883983e-06	-1.275163e-08	-1.344795e+01	-8.384076e+02
2.640000e-06	-2.000926e-06	-1.403571e-08	-1.428269e+01	-9.220701e+02
2.650000e-06	-2.116968e-06	-1.526525e-08	-1.511100e+01	-1.002192e+03
2.660000e-06	-2.232115e-06	-1.643105e-08	-1.593293e+01	-1.078252e+03
2.670000e-06	-2.346334e-06	-1.752992e-08	-1.674823e+01	-1.149963e+03
2.680000e-06	-2.459483e-06	-1.856172e-08	-1.755589e+01	-1.217258e+03
2.690000e-06	-2.571548e-06	-1.952792e-08	-1.835581e+01	-1.280245e+03
2.700000e-06	-2.682559e-06	-2.043076e-08	-1.914821e+01	-1.339157e+03
2.710000e-06	-2.792454e-06	-2.127553e-08	-1.993266e+01	-1.394290e+03
2.720000e-06	-2.901374e-06	-2.206840e-08	-2.071013e+01	-1.445956e+03
2.730000e-06	-3.009457e-06	-2.281352e-08	-2.148163e+01	-1.494445e+03
2.740000e-06	-3.116627e-06	-2.351449e-08	-2.224661e+01	-1.540010e+03
2.750000e-06	-3.222809e-06	-2.417194e-08	-2.300454e+01	-1.582861e+03
2.760000e-06	-3.327912e-06	-2.478948e-08	-2.375477e+01	-1.623173e+03
2.770000e-06	-3.431855e-06	-2.537208e-08	-2.449672e+01	-1.661101e+03
2.780000e-06	-3.534435e-06	-2.592015e-08	-2.522894e+01	-1.696793e+03
2.790000e-06	-3.635612e-06	-2.643377e-08	-2.595115e+01	-1.730395e+03
2.800000e-06	-3.735535e-06	-2.691549e-08	-2.666440e+01	-1.762058e+03
2.810000e-06	-3.834211e-06	-2.737195e-08	-2.736876e+01	-1.791934e+03
2.820000e-06	-3.931626e-06	-2.780613e-08	-2.806411e+01	-1.820168e+03
2.830000e-06	-4.027790e-06	-2.821771e-08	-2.875053e+01	-1.846895e+03
2.840000e-06	-4.122537e-06	-2.860686e-08	-2.942684e+01	-1.872228e+03
2.850000e-06	-4.215715e-06	-2.897591e-08	-3.009195e+01	-1.896262e+03
2.860000e-06	-4.307431e-06	-2.932568e-08	-3.074662e+01	-1.919073e+03
2.870000e-06	-4.397664e-06	-2.965628e-08	-3.139071e+01	-1.940723e+03
2.880000e-06	-4.486350e-06	-2.996894e-08	-3.202375e+01	-1.961266e+03
2.890000e-06	-4.573364e-06	-3.026787e-08	-3.264486e+01	-1.980753e+03
2.900000e-06	-4.658590e-06	-3.055179e-08	-3.325321e+01	-1.999236e+03
2.910000e-06	-4.742137e-06	-3.081866e-08	-3.384957e+01	-2.016771e+03
2.920000e-06	-4.824088e-06	-3.107192e-08	-3.443454e+01	-2.033413e+03
2.930000e-06	-4.904421e-06	-3.131366e-08	-3.500796e+01	-2.049219e+03
2.940000e-06	-4.982839e-06	-3.154661e-08	-3.556771e+01	-2.064239e+03
