# Temperatura_=_81.61
# Concentracion g/m^3_=_28200.0
# C_Vs_to_Am_M_A/Vsm_=_65563218390.804596
# pendiente_HvsI_1/m_=_3716.3
# ordenada_HvsI_A/m_=_1297.0
# frecuencia_Hz_=_302142.2460858697

Tiempo_(s)	Campo_(V.s)	Magnetizacion_(V.s)	Campo_(kA/m)	Magnetizacion_(A/m)
0.000000e+00	-6.421311e-06	-3.534134e-08	-4.585490e+01	-2.315797e+03
1.000000e-08	-6.418633e-06	-3.533390e-08	-4.583578e+01	-2.315229e+03
2.000000e-08	-6.413808e-06	-3.531980e-08	-4.580133e+01	-2.314382e+03
3.000000e-08	-6.407076e-06	-3.530319e-08	-4.575325e+01	-2.313248e+03
4.000000e-08	-6.398274e-06	-3.528287e-08	-4.569040e+01	-2.311832e+03
5.000000e-08	-6.387135e-06	-3.525649e-08	-4.561085e+01	-2.310152e+03
6.000000e-08	-6.373631e-06	-3.522374e-08	-4.551442e+01	-2.308238e+03
7.000000e-08	-6.357815e-06	-3.518045e-08	-4.540147e+01	-2.306125e+03
8.000000e-08	-6.339858e-06	-3.515488e-08	-4.527324e+01	-2.303844e+03
9.000000e-08	-6.319780e-06	-3.518994e-08	-4.512986e+01	-2.301421e+03
1.000000e-07	-6.297355e-06	-3.515724e-08	-4.496973e+01	-2.298867e+03
1.100000e-07	-6.272372e-06	-3.505095e-08	-4.479132e+01	-2.296179e+03
1.200000e-07	-6.244913e-06	-3.498977e-08	-4.459524e+01	-2.293339e+03
1.300000e-07	-6.215417e-06	-3.491703e-08	-4.438460e+01	-2.290312e+03
1.400000e-07	-6.184286e-06	-3.476320e-08	-4.416229e+01	-2.287056e+03
1.500000e-07	-6.151445e-06	-3.479428e-08	-4.392778e+01	-2.283519e+03
1.600000e-07	-6.116547e-06	-3.480523e-08	-4.367857e+01	-2.279650e+03
1.700000e-07	-6.079755e-06	-3.462068e-08	-4.341584e+01	-2.275405e+03
1.800000e-07	-6.041022e-06	-3.462312e-08	-4.313924e+01	-2.270748e+03
1.900000e-07	-5.999881e-06	-3.453529e-08	-4.284545e+01	-2.265660e+03
2.000000e-07	-5.956423e-06	-3.440172e-08	-4.253512e+01	-2.260142e+03
2.100000e-07	-5.910926e-06	-3.439507e-08	-4.221022e+01	-2.254211e+03
2.200000e-07	-5.863204e-06	-3.428850e-08	-4.186943e+01	-2.247900e+03
2.300000e-07	-5.813013e-06	-3.418745e-08	-4.151101e+01	-2.241254e+03
2.400000e-07	-5.760265e-06	-3.407569e-08	-4.113434e+01	-2.234317e+03
2.500000e-07	-5.705220e-06	-3.394299e-08	-4.074126e+01	-2.227127e+03
2.600000e-07	-5.648069e-06	-3.385152e-08	-4.033314e+01	-2.219708e+03
2.700000e-07	-5.588740e-06	-3.371934e-08	-3.990947e+01	-2.212062e+03
2.800000e-07	-5.527424e-06	-3.359642e-08	-3.947161e+01	-2.204171e+03
2.900000e-07	-5.464172e-06	-3.345741e-08	-3.901992e+01	-2.195996e+03
3.000000e-07	-5.398838e-06	-3.332460e-08	-3.855338e+01	-2.187489e+03
3.100000e-07	-5.331428e-06	-3.320426e-08	-3.807199e+01	-2.178600e+03
3.200000e-07	-5.262022e-06	-3.306904e-08	-3.757636e+01	-2.169282e+03
3.300000e-07	-5.190742e-06	-3.293080e-08	-3.706735e+01	-2.159508e+03
3.400000e-07	-5.117619e-06	-3.274705e-08	-3.654518e+01	-2.149265e+03
3.500000e-07	-5.042438e-06	-3.258741e-08	-3.600830e+01	-2.138556e+03
3.600000e-07	-4.965117e-06	-3.242325e-08	-3.545615e+01	-2.127396e+03
3.700000e-07	-4.885782e-06	-3.224277e-08	-3.488961e+01	-2.115798e+03
3.800000e-07	-4.804551e-06	-3.207757e-08	-3.430954e+01	-2.103771e+03
3.900000e-07	-4.721659e-06	-3.188429e-08	-3.371760e+01	-2.091309e+03
4.000000e-07	-4.637340e-06	-3.167242e-08	-3.311548e+01	-2.078391e+03
4.100000e-07	-4.551574e-06	-3.145720e-08	-3.250302e+01	-2.064979e+03
4.200000e-07	-4.464444e-06	-3.124951e-08	-3.188082e+01	-2.051031e+03
4.300000e-07	-4.375847e-06	-3.102989e-08	-3.124814e+01	-2.036504e+03
4.400000e-07	-4.285559e-06	-3.079344e-08	-3.060339e+01	-2.021363e+03
4.500000e-07	-4.193691e-06	-3.055450e-08	-2.994736e+01	-2.005585e+03
4.600000e-07	-4.100317e-06	-3.029828e-08	-2.928057e+01	-1.989161e+03
4.700000e-07	-4.005608e-06	-3.003607e-08	-2.860425e+01	-1.972089e+03
4.800000e-07	-3.909579e-06	-2.977167e-08	-2.791850e+01	-1.954368e+03
4.900000e-07	-3.812001e-06	-2.950194e-08	-2.722169e+01	-1.935989e+03
5.000000e-07	-3.712903e-06	-2.921162e-08	-2.651403e+01	-1.916925e+03
5.100000e-07	-3.612419e-06	-2.890279e-08	-2.579647e+01	-1.897131e+03
5.200000e-07	-3.510640e-06	-2.858429e-08	-2.506965e+01	-1.876546e+03
5.300000e-07	-3.407724e-06	-2.824952e-08	-2.433473e+01	-1.855097e+03
5.400000e-07	-3.303649e-06	-2.790277e-08	-2.359152e+01	-1.832711e+03
5.500000e-07	-3.198227e-06	-2.754342e-08	-2.283870e+01	-1.809320e+03
5.600000e-07	-3.091464e-06	-2.717289e-08	-2.207630e+01	-1.784871e+03
5.700000e-07	-2.983483e-06	-2.678480e-08	-2.130520e+01	-1.759322e+03
5.800000e-07	-2.874392e-06	-2.638120e-08	-2.052618e+01	-1.732637e+03
5.900000e-07	-2.764307e-06	-2.596174e-08	-1.974005e+01	-1.704777e+03
6.000000e-07	-2.653376e-06	-2.552226e-08	-1.894789e+01	-1.675687e+03
6.100000e-07	-2.541545e-06	-2.506007e-08	-1.814930e+01	-1.645287e+03
6.200000e-07	-2.428610e-06	-2.457050e-08	-1.734283e+01	-1.613468e+03
6.300000e-07	-2.314583e-06	-2.405379e-08	-1.652856e+01	-1.580094e+03
6.400000e-07	-2.199519e-06	-2.351058e-08	-1.570687e+01	-1.545010e+03
6.500000e-07	-2.083547e-06	-2.294463e-08	-1.487871e+01	-1.508054e+03
6.600000e-07	-1.966824e-06	-2.235142e-08	-1.404519e+01	-1.469071e+03
6.700000e-07	-1.849397e-06	-2.172564e-08	-1.320664e+01	-1.427916e+03
6.800000e-07	-1.731327e-06	-2.106511e-08	-1.236349e+01	-1.384456e+03
6.900000e-07	-1.612712e-06	-2.036736e-08	-1.151645e+01	-1.338565e+03
7.000000e-07	-1.493668e-06	-1.963021e-08	-1.066636e+01	-1.290105e+03
7.100000e-07	-1.374191e-06	-1.884715e-08	-9.813167e+00	-1.238921e+03
7.200000e-07	-1.254287e-06	-1.801764e-08	-8.956925e+00	-1.184834e+03
7.300000e-07	-1.133936e-06	-1.714045e-08	-8.097496e+00	-1.127645e+03
7.400000e-07	-1.013073e-06	-1.621359e-08	-7.234404e+00	-1.067164e+03
7.500000e-07	-8.917515e-07	-1.523722e-08	-6.368042e+00	-1.003240e+03
7.600000e-07	-7.700614e-07	-1.421082e-08	-5.499047e+00	-9.358070e+02
7.700000e-07	-6.480323e-07	-1.313271e-08	-4.627631e+00	-8.649248e+02
7.800000e-07	-5.257435e-07	-1.200510e-08	-3.754361e+00	-7.908079e+02
7.900000e-07	-4.033333e-07	-1.083303e-08	-2.880223e+00	-7.138290e+02
8.000000e-07	-2.808260e-07	-9.623197e-09	-2.005393e+00	-6.344926e+02
8.100000e-07	-1.581779e-07	-8.385846e-09	-1.129556e+00	-5.533804e+02
8.200000e-07	-3.541974e-08	-7.130926e-09	-2.529341e-01	-4.710716e+02
8.300000e-07	8.738192e-08	-5.866511e-09	6.239987e-01	-3.880567e+02
8.400000e-07	2.102016e-07	-4.595031e-09	1.501060e+00	-3.046582e+02
8.500000e-07	3.329692e-07	-3.320067e-09	2.377750e+00	-2.209782e+02
8.600000e-07	4.556492e-07	-2.040405e-09	3.253814e+00	-1.368864e+02
8.700000e-07	5.782023e-07	-7.485545e-10	4.128972e+00	-5.205431e+01
8.800000e-07	7.005251e-07	5.612568e-10	5.002485e+00	3.396616e+01
8.900000e-07	8.226402e-07	1.893875e-09	5.874515e+00	1.216332e+02
9.000000e-07	9.444476e-07	3.255729e-09	6.744348e+00	2.112930e+02
9.100000e-07	1.065835e-06	4.651786e-09	7.611179e+00	3.030697e+02
9.200000e-07	1.186741e-06	6.080780e-09	8.474576e+00	3.967866e+02
9.300000e-07	1.307053e-06	7.532908e-09	9.333731e+00	4.919376e+02
9.400000e-07	1.426817e-06	8.994272e-09	1.018897e+01	5.877121e+02
9.500000e-07	1.546119e-06	1.044997e-08	1.104091e+01	6.830719e+02
9.600000e-07	1.664965e-06	1.188008e-08	1.188960e+01	7.768644e+02
9.700000e-07	1.783261e-06	1.326250e-08	1.273436e+01	8.679527e+02
9.800000e-07	1.900886e-06	1.458449e-08	1.357432e+01	9.553386e+02
9.900000e-07	2.017764e-06	1.584112e-08	1.440895e+01	1.038259e+03
1.000000e-06	2.133853e-06	1.702497e-08	1.523795e+01	1.116240e+03
1.010000e-06	2.249038e-06	1.813057e-08	1.606049e+01	1.189104e+03
1.020000e-06	2.363191e-06	1.915844e-08	1.687567e+01	1.256938e+03
1.030000e-06	2.476247e-06	2.011542e-08	1.768300e+01	1.320021e+03
1.040000e-06	2.588241e-06	2.101044e-08	1.848276e+01	1.378750e+03
1.050000e-06	2.699352e-06	2.184701e-08	1.927621e+01	1.433557e+03
1.060000e-06	2.809557e-06	2.262856e-08	2.006319e+01	1.484846e+03
1.070000e-06	2.918815e-06	2.335896e-08	2.084340e+01	1.532959e+03
1.080000e-06	3.027180e-06	2.404346e-08	2.161725e+01	1.578158e+03
1.090000e-06	3.134558e-06	2.468478e-08	2.238404e+01	1.620643e+03
1.100000e-06	3.240770e-06	2.528619e-08	2.314250e+01	1.660566e+03
1.110000e-06	3.345630e-06	2.585308e-08	2.389131e+01	1.698069e+03
1.120000e-06	3.449122e-06	2.638921e-08	2.463035e+01	1.733297e+03
1.130000e-06	3.551424e-06	2.689449e-08	2.536090e+01	1.766414e+03
1.140000e-06	3.652671e-06	2.737072e-08	2.608391e+01	1.797597e+03
1.150000e-06	3.752822e-06	2.782111e-08	2.679909e+01	1.827033e+03
1.160000e-06	3.851645e-06	2.824637e-08	2.750479e+01	1.854893e+03
1.170000e-06	3.948825e-06	2.864915e-08	2.819876e+01	1.881327e+03
1.180000e-06	4.044393e-06	2.903216e-08	2.888121e+01	1.906448e+03
1.190000e-06	4.138580e-06	2.939564e-08	2.955381e+01	1.930337e+03
1.200000e-06	4.231492e-06	2.973880e-08	3.021729e+01	1.953044e+03
1.210000e-06	4.323073e-06	3.006463e-08	3.087128e+01	1.974608e+03
1.220000e-06	4.413073e-06	3.037571e-08	3.151398e+01	1.995066e+03
1.230000e-06	4.501319e-06	3.067174e-08	3.214414e+01	2.014462e+03
1.240000e-06	4.587873e-06	3.095160e-08	3.276223e+01	2.032858e+03
1.250000e-06	4.672925e-06	3.121709e-08	3.336959e+01	2.050325e+03
1.260000e-06	4.756536e-06	3.147045e-08	3.396666e+01	2.066941e+03
1.270000e-06	4.838405e-06	3.171096e-08	3.455129e+01	2.082780e+03
1.280000e-06	4.918325e-06	3.193893e-08	3.512200e+01	2.097900e+03
1.290000e-06	4.996409e-06	3.215848e-08	3.567961e+01	2.112343e+03
1.300000e-06	5.072680e-06	3.236794e-08	3.622426e+01	2.126134e+03
1.310000e-06	5.146929e-06	3.256618e-08	3.675448e+01	2.139282e+03
1.320000e-06	5.219119e-06	3.275408e-08	3.726999e+01	2.151792e+03
1.330000e-06	5.289385e-06	3.293291e-08	3.777177e+01	2.163674e+03
1.340000e-06	5.357848e-06	3.310439e-08	3.826066e+01	2.174944e+03
1.350000e-06	5.424376e-06	3.326933e-08	3.873574e+01	2.185632e+03
1.360000e-06	5.488805e-06	3.342728e-08	3.919583e+01	2.195774e+03
1.370000e-06	5.551275e-06	3.357754e-08	3.964193e+01	2.205408e+03
1.380000e-06	5.612015e-06	3.372122e-08	4.007568e+01	2.214570e+03
1.390000e-06	5.670915e-06	3.385662e-08	4.049629e+01	2.223279e+03
1.400000e-06	5.727649e-06	3.398486e-08	4.090143e+01	2.231544e+03
1.410000e-06	5.782272e-06	3.410640e-08	4.129149e+01	2.239361e+03
1.420000e-06	5.834674e-06	3.421965e-08	4.166570e+01	2.246720e+03
1.430000e-06	5.884616e-06	3.432508e-08	4.202234e+01	2.253610e+03
1.440000e-06	5.932220e-06	3.442331e-08	4.236228e+01	2.260032e+03
1.450000e-06	5.977788e-06	3.451414e-08	4.268768e+01	2.266003e+03
1.460000e-06	6.021412e-06	3.459770e-08	4.299920e+01	2.271550e+03
1.470000e-06	6.062805e-06	3.467658e-08	4.329479e+01	2.276717e+03
1.480000e-06	6.101893e-06	3.475215e-08	4.357392e+01	2.281546e+03
1.490000e-06	6.139001e-06	3.482409e-08	4.383891e+01	2.286076e+03
1.500000e-06	6.174086e-06	3.489211e-08	4.408945e+01	2.290331e+03
1.510000e-06	6.206840e-06	3.495578e-08	4.432335e+01	2.294314e+03
1.520000e-06	6.237328e-06	3.501338e-08	4.454107e+01	2.298010e+03
1.530000e-06	6.265790e-06	3.506413e-08	4.474432e+01	2.301391e+03
1.540000e-06	6.292057e-06	3.510875e-08	4.493190e+01	2.304424e+03
1.550000e-06	6.315915e-06	3.514778e-08	4.510226e+01	2.307080e+03
1.560000e-06	6.337512e-06	3.518271e-08	4.525649e+01	2.309343e+03
1.570000e-06	6.356965e-06	3.521369e-08	4.539540e+01	2.311218e+03
1.580000e-06	6.374147e-06	3.523945e-08	4.551810e+01	2.312728e+03
1.590000e-06	6.388869e-06	3.526181e-08	4.562323e+01	2.313910e+03
1.600000e-06	6.401090e-06	3.527798e-08	4.571050e+01	2.314808e+03
1.610000e-06	6.410769e-06	3.528716e-08	4.577962e+01	2.315462e+03
1.620000e-06	6.418031e-06	3.529392e-08	4.583148e+01	2.315901e+03
1.630000e-06	6.423122e-06	3.529885e-08	4.586784e+01	2.316139e+03
1.640000e-06	6.426013e-06	3.530218e-08	4.588848e+01	2.316172e+03
1.650000e-06	6.426590e-06	3.530218e-08	4.589260e+01	2.315982e+03
1.660000e-06	6.424910e-06	3.528967e-08	4.588061e+01	2.315546e+03
1.670000e-06	6.421167e-06	3.527536e-08	4.585388e+01	2.314841e+03
1.680000e-06	6.415287e-06	3.526491e-08	4.581189e+01	2.313851e+03
1.690000e-06	6.407196e-06	3.525083e-08	4.575410e+01	2.312574e+03
1.700000e-06	6.397047e-06	3.523298e-08	4.568163e+01	2.311023e+03
1.710000e-06	6.384747e-06	3.521306e-08	4.559380e+01	2.309222e+03
1.720000e-06	6.370191e-06	3.520164e-08	4.548985e+01	2.307204e+03
1.730000e-06	6.353626e-06	3.515167e-08	4.537156e+01	2.305003e+03
1.740000e-06	6.335082e-06	3.502656e-08	4.523914e+01	2.302649e+03
1.750000e-06	6.313814e-06	3.499594e-08	4.508726e+01	2.300160e+03
1.760000e-06	6.289332e-06	3.501227e-08	4.491244e+01	2.297540e+03
1.770000e-06	6.262283e-06	3.495272e-08	4.471928e+01	2.294780e+03
1.780000e-06	6.233259e-06	3.499466e-08	4.451202e+01	2.291851e+03
1.790000e-06	6.202561e-06	3.497245e-08	4.429280e+01	2.288716e+03
1.800000e-06	6.170453e-06	3.479656e-08	4.406351e+01	2.285325e+03
1.810000e-06	6.136470e-06	3.487263e-08	4.382084e+01	2.281629e+03
1.820000e-06	6.100462e-06	3.483273e-08	4.356370e+01	2.277577e+03
1.830000e-06	6.062442e-06	3.469822e-08	4.329220e+01	2.273129e+03
1.840000e-06	6.022032e-06	3.471622e-08	4.300363e+01	2.268258e+03
1.850000e-06	5.979454e-06	3.448657e-08	4.269958e+01	2.262954e+03
1.860000e-06	5.934870e-06	3.438917e-08	4.238120e+01	2.257226e+03
1.870000e-06	5.888107e-06	3.433595e-08	4.204727e+01	2.251100e+03
1.880000e-06	5.839259e-06	3.418913e-08	4.169844e+01	2.244616e+03
1.890000e-06	5.788007e-06	3.420788e-08	4.133245e+01	2.237819e+03
1.900000e-06	5.734155e-06	3.403425e-08	4.094789e+01	2.230752e+03
1.910000e-06	5.678020e-06	3.391472e-08	4.054703e+01	2.223446e+03
1.920000e-06	5.619838e-06	3.385701e-08	4.013155e+01	2.215914e+03
1.930000e-06	5.559716e-06	3.367273e-08	3.970221e+01	2.208149e+03
1.940000e-06	5.497521e-06	3.359977e-08	3.925807e+01	2.200122e+03
1.950000e-06	5.433235e-06	3.343918e-08	3.879901e+01	2.191788e+03
1.960000e-06	5.366995e-06	3.333435e-08	3.832598e+01	2.183095e+03
1.970000e-06	5.298741e-06	3.318673e-08	3.783858e+01	2.173997e+03
1.980000e-06	5.228315e-06	3.300264e-08	3.733566e+01	2.164454e+03
1.990000e-06	5.155831e-06	3.290395e-08	3.681805e+01	2.154446e+03
2.000000e-06	5.081537e-06	3.272242e-08	3.628751e+01	2.143968e+03
2.010000e-06	5.005231e-06	3.258519e-08	3.574260e+01	2.133032e+03
2.020000e-06	4.926810e-06	3.237750e-08	3.518260e+01	2.121651e+03
2.030000e-06	4.846546e-06	3.218436e-08	3.460943e+01	2.109838e+03
2.040000e-06	4.764628e-06	3.202427e-08	3.402445e+01	2.097596e+03
2.050000e-06	4.681202e-06	3.181833e-08	3.342870e+01	2.084909e+03
2.060000e-06	4.596122e-06	3.163509e-08	3.282114e+01	2.071749e+03
2.070000e-06	4.509311e-06	3.141516e-08	3.220121e+01	2.058075e+03
2.080000e-06	4.420923e-06	3.121294e-08	3.157003e+01	2.043842e+03
2.090000e-06	4.331033e-06	3.097783e-08	3.092813e+01	2.029012e+03
2.100000e-06	4.239756e-06	3.074520e-08	3.027631e+01	2.013554e+03
2.110000e-06	4.147017e-06	3.051273e-08	2.961405e+01	1.997454e+03
2.120000e-06	4.052758e-06	3.025291e-08	2.894095e+01	1.980706e+03
2.130000e-06	3.957007e-06	2.998370e-08	2.825719e+01	1.963310e+03
2.140000e-06	3.859801e-06	2.969474e-08	2.756303e+01	1.945262e+03
2.150000e-06	3.761311e-06	2.941675e-08	2.685971e+01	1.926545e+03
2.160000e-06	3.661571e-06	2.912048e-08	2.614746e+01	1.907123e+03
2.170000e-06	3.560398e-06	2.882207e-08	2.542498e+01	1.886942e+03
2.180000e-06	3.457751e-06	2.850506e-08	2.469197e+01	1.865934e+03
2.190000e-06	3.353795e-06	2.817286e-08	2.394961e+01	1.844026e+03
2.200000e-06	3.248603e-06	2.782176e-08	2.319844e+01	1.821145e+03
2.210000e-06	3.142281e-06	2.745824e-08	2.243919e+01	1.797231e+03
2.220000e-06	3.034970e-06	2.708099e-08	2.167287e+01	1.772236e+03
2.230000e-06	2.926633e-06	2.667898e-08	2.089923e+01	1.746123e+03
2.240000e-06	2.817210e-06	2.626004e-08	2.011784e+01	1.718857e+03
2.250000e-06	2.706758e-06	2.582275e-08	1.932910e+01	1.690390e+03
2.260000e-06	2.595246e-06	2.537185e-08	1.853278e+01	1.660657e+03
2.270000e-06	2.482652e-06	2.489860e-08	1.772875e+01	1.629563e+03
2.280000e-06	2.369069e-06	2.440836e-08	1.691764e+01	1.596985e+03
2.290000e-06	2.254583e-06	2.388835e-08	1.610009e+01	1.562776e+03
2.300000e-06	2.139267e-06	2.333548e-08	1.527661e+01	1.526776e+03
2.310000e-06	2.023131e-06	2.275378e-08	1.444728e+01	1.488825e+03
2.320000e-06	1.906093e-06	2.214416e-08	1.361150e+01	1.448773e+03
2.330000e-06	1.788175e-06	2.150275e-08	1.276945e+01	1.406482e+03
2.340000e-06	1.669559e-06	2.082440e-08	1.192241e+01	1.361823e+03
2.350000e-06	1.550318e-06	2.010917e-08	1.107090e+01	1.314665e+03
2.360000e-06	1.430494e-06	1.935246e-08	1.021523e+01	1.264864e+03
2.370000e-06	1.310234e-06	1.855053e-08	9.356449e+00	1.212252e+03
2.380000e-06	1.189617e-06	1.770147e-08	8.495117e+00	1.156640e+03
2.390000e-06	1.068685e-06	1.680432e-08	7.631532e+00	1.097827e+03
2.400000e-06	9.474538e-07	1.585336e-08	6.765815e+00	1.035639e+03
2.410000e-06	8.258919e-07	1.484982e-08	5.897735e+00	9.699619e+02
2.420000e-06	7.040093e-07	1.379593e-08	5.027366e+00	9.007874e+02
2.430000e-06	5.818972e-07	1.269178e-08	4.155357e+00	8.282509e+02
2.440000e-06	4.595774e-07	1.153971e-08	3.281866e+00	7.526472e+02
2.450000e-06	3.371144e-07	1.034555e-08	2.407351e+00	6.744201e+02
2.460000e-06	2.145422e-07	9.119408e-09	1.532057e+00	5.941212e+02
2.470000e-06	9.185283e-08	7.871694e-09	6.559257e-01	5.123418e+02
2.480000e-06	-3.091091e-08	6.610662e-09	-2.207364e-01	4.296275e+02
2.490000e-06	-1.536864e-07	5.340479e-09	-1.097482e+00	3.463935e+02
2.500000e-06	-2.763564e-07	4.063178e-09	-1.973475e+00	2.628563e+02
2.510000e-06	-3.989408e-07	2.778505e-09	-2.848857e+00	1.790004e+02
2.520000e-06	-5.214360e-07	1.481974e-09	-3.723601e+00	9.458925e+01
2.530000e-06	-6.437536e-07	1.709915e-10	-4.597076e+00	9.222445e+00
2.540000e-06	-7.658871e-07	-1.154361e-09	-5.469238e+00	-7.756817e+01
2.550000e-06	-8.878223e-07	-2.500165e-09	-6.339984e+00	-1.661999e+02
2.560000e-06	-1.009429e-06	-3.876585e-09	-7.208381e+00	-2.569201e+02
2.570000e-06	-1.130607e-06	-5.289563e-09	-8.073724e+00	-3.497095e+02
2.580000e-06	-1.251364e-06	-6.733126e-09	-8.936056e+00	-4.442271e+02
2.590000e-06	-1.371729e-06	-8.195865e-09	-9.795585e+00	-5.398077e+02
2.600000e-06	-1.491622e-06	-9.663780e-09	-1.065175e+01	-6.355147e+02
2.610000e-06	-1.610977e-06	-1.111815e-08	-1.150407e+01	-7.302371e+02
2.620000e-06	-1.729759e-06	-1.253834e-08	-1.235230e+01	-8.228135e+02
2.630000e-06	-1.847817e-06	-1.390625e-08	-1.319536e+01	-9.121625e+02
2.640000e-06	-1.964922e-06	-1.520881e-08	-1.403161e+01	-9.973937e+02
2.650000e-06	-2.081051e-06	-1.643845e-08	-1.486089e+01	-1.077885e+03
2.660000e-06	-2.196331e-06	-1.759022e-08	-1.568411e+01	-1.153312e+03
2.670000e-06	-2.310767e-06	-1.866490e-08	-1.650130e+01	-1.223636e+03
2.680000e-06	-2.424298e-06	-1.966753e-08	-1.731204e+01	-1.289050e+03
2.690000e-06	-2.536713e-06	-2.060182e-08	-1.811479e+01	-1.349903e+03
2.700000e-06	-2.647913e-06	-2.147468e-08	-1.890888e+01	-1.406617e+03
2.710000e-06	-2.758014e-06	-2.228943e-08	-1.969511e+01	-1.459618e+03
2.720000e-06	-2.867170e-06	-2.305199e-08	-2.047461e+01	-1.509282e+03
2.730000e-06	-2.975451e-06	-2.376902e-08	-2.124784e+01	-1.555909e+03
2.740000e-06	-3.082870e-06	-2.444012e-08	-2.201493e+01	-1.599730e+03
2.750000e-06	-3.189356e-06	-2.506659e-08	-2.277535e+01	-1.640916e+03
2.760000e-06	-3.294764e-06	-2.565478e-08	-2.352808e+01	-1.679612e+03
2.770000e-06	-3.399031e-06	-2.621184e-08	-2.427265e+01	-1.715958e+03
2.780000e-06	-3.502039e-06	-2.673639e-08	-2.500823e+01	-1.750109e+03
2.790000e-06	-3.603611e-06	-2.722711e-08	-2.573357e+01	-1.782235e+03
2.800000e-06	-3.703840e-06	-2.769032e-08	-2.644931e+01	-1.812522e+03
2.810000e-06	-3.802875e-06	-2.813031e-08	-2.715652e+01	-1.841150e+03
2.820000e-06	-3.900670e-06	-2.854674e-08	-2.785488e+01	-1.868280e+03
2.830000e-06	-3.997188e-06	-2.894172e-08	-2.854412e+01	-1.894046e+03
2.840000e-06	-4.092312e-06	-2.931781e-08	-2.922341e+01	-1.918543e+03
2.850000e-06	-4.185912e-06	-2.967222e-08	-2.989181e+01	-1.941836e+03
2.860000e-06	-4.278027e-06	-3.000583e-08	-3.054961e+01	-1.963967e+03
2.870000e-06	-4.368659e-06	-3.032237e-08	-3.119682e+01	-1.984973e+03
2.880000e-06	-4.457724e-06	-3.062483e-08	-3.183283e+01	-2.004893e+03
2.890000e-06	-4.545172e-06	-3.091601e-08	-3.245730e+01	-2.023781e+03
2.900000e-06	-4.630845e-06	-3.119506e-08	-3.306910e+01	-2.041703e+03
2.910000e-06	-4.714820e-06	-3.145851e-08	-3.366876e+01	-2.058735e+03
2.920000e-06	-4.797166e-06	-3.170757e-08	-3.425680e+01	-2.074954e+03
2.930000e-06	-4.877920e-06	-3.194454e-08	-3.483347e+01	-2.090426e+03
2.940000e-06	-4.956878e-06	-3.217159e-08	-3.539731e+01	-2.105204e+03
