# Temperatura_=_80.46
# Concentracion g/m^3_=_28200.0
# C_Vs_to_Am_M_A/Vsm_=_65563218390.804596
# pendiente_HvsI_1/m_=_3716.3
# ordenada_HvsI_A/m_=_1297.0
# frecuencia_Hz_=_302140.8362450493

Tiempo_(s)	Campo_(V.s)	Magnetizacion_(V.s)	Campo_(kA/m)	Magnetizacion_(A/m)
0.000000e+00	-6.427227e-06	-3.529989e-08	-4.585771e+01	-2.315537e+03
1.000000e-08	-6.424513e-06	-3.529430e-08	-4.583835e+01	-2.315018e+03
2.000000e-08	-6.419685e-06	-3.527835e-08	-4.580390e+01	-2.314156e+03
3.000000e-08	-6.412960e-06	-3.525992e-08	-4.575591e+01	-2.312948e+03
4.000000e-08	-6.404123e-06	-3.523895e-08	-4.569287e+01	-2.311430e+03
5.000000e-08	-6.392930e-06	-3.520922e-08	-4.561301e+01	-2.309659e+03
6.000000e-08	-6.379409e-06	-3.517569e-08	-4.551653e+01	-2.307710e+03
7.000000e-08	-6.363557e-06	-3.513162e-08	-4.540343e+01	-2.305648e+03
8.000000e-08	-6.345563e-06	-3.509870e-08	-4.527505e+01	-2.303517e+03
9.000000e-08	-6.325510e-06	-3.517206e-08	-4.513197e+01	-2.301324e+03
1.000000e-07	-6.303133e-06	-3.513801e-08	-4.497231e+01	-2.299031e+03
1.100000e-07	-6.278119e-06	-3.500048e-08	-4.479384e+01	-2.296567e+03
1.200000e-07	-6.250582e-06	-3.494028e-08	-4.459737e+01	-2.293832e+03
1.300000e-07	-6.221032e-06	-3.486337e-08	-4.438653e+01	-2.290722e+03
1.400000e-07	-6.189840e-06	-3.465869e-08	-4.416397e+01	-2.287148e+03
1.500000e-07	-6.156971e-06	-3.474243e-08	-4.392946e+01	-2.283050e+03
1.600000e-07	-6.122074e-06	-3.480026e-08	-4.368047e+01	-2.278407e+03
1.700000e-07	-6.085248e-06	-3.453799e-08	-4.341772e+01	-2.273245e+03
1.800000e-07	-6.046458e-06	-3.460758e-08	-4.314095e+01	-2.267622e+03
1.900000e-07	-6.005204e-06	-3.449653e-08	-4.284661e+01	-2.261624e+03
2.000000e-07	-5.961716e-06	-3.431536e-08	-4.253633e+01	-2.255340e+03
2.100000e-07	-5.916188e-06	-3.438027e-08	-4.221149e+01	-2.248854e+03
2.200000e-07	-5.868364e-06	-3.424268e-08	-4.187027e+01	-2.242224e+03
2.300000e-07	-5.818086e-06	-3.412758e-08	-4.151154e+01	-2.235481e+03
2.400000e-07	-5.765272e-06	-3.402857e-08	-4.113472e+01	-2.228624e+03
2.500000e-07	-5.710268e-06	-3.388256e-08	-4.074227e+01	-2.221623e+03
2.600000e-07	-5.653068e-06	-3.380706e-08	-4.033415e+01	-2.214428e+03
2.700000e-07	-5.593670e-06	-3.367858e-08	-3.991035e+01	-2.206981e+03
2.800000e-07	-5.532315e-06	-3.357451e-08	-3.947259e+01	-2.199221e+03
2.900000e-07	-5.469050e-06	-3.342349e-08	-3.902120e+01	-2.191099e+03
3.000000e-07	-5.403744e-06	-3.328602e-08	-3.855525e+01	-2.182574e+03
3.100000e-07	-5.336358e-06	-3.316107e-08	-3.807446e+01	-2.173626e+03
3.200000e-07	-5.266957e-06	-3.300500e-08	-3.757928e+01	-2.164245e+03
3.300000e-07	-5.195687e-06	-3.289717e-08	-3.707078e+01	-2.154433e+03
3.400000e-07	-5.122566e-06	-3.271369e-08	-3.654907e+01	-2.144198e+03
3.500000e-07	-5.047338e-06	-3.255075e-08	-3.601232e+01	-2.133549e+03
3.600000e-07	-4.970002e-06	-3.238508e-08	-3.546054e+01	-2.122488e+03
3.700000e-07	-4.890544e-06	-3.219704e-08	-3.489361e+01	-2.111012e+03
3.800000e-07	-4.809180e-06	-3.203584e-08	-3.431308e+01	-2.099107e+03
3.900000e-07	-4.726261e-06	-3.184178e-08	-3.372146e+01	-2.086748e+03
4.000000e-07	-4.641845e-06	-3.163994e-08	-3.311916e+01	-2.073906e+03
4.100000e-07	-4.555946e-06	-3.142461e-08	-3.250628e+01	-2.060548e+03
4.200000e-07	-4.468704e-06	-3.121747e-08	-3.188382e+01	-2.046642e+03
4.300000e-07	-4.379994e-06	-3.099836e-08	-3.125088e+01	-2.032159e+03
4.400000e-07	-4.289605e-06	-3.075734e-08	-3.060596e+01	-2.017081e+03
4.500000e-07	-4.197660e-06	-3.052695e-08	-2.994994e+01	-2.001391e+03
4.600000e-07	-4.104310e-06	-3.027680e-08	-2.928390e+01	-1.985082e+03
4.700000e-07	-4.009581e-06	-3.001777e-08	-2.860801e+01	-1.968144e+03
4.800000e-07	-3.913447e-06	-2.974714e-08	-2.792211e+01	-1.950561e+03
4.900000e-07	-3.815746e-06	-2.947116e-08	-2.722502e+01	-1.932310e+03
5.000000e-07	-3.716504e-06	-2.917684e-08	-2.651694e+01	-1.913355e+03
5.100000e-07	-3.615923e-06	-2.886622e-08	-2.579930e+01	-1.893648e+03
5.200000e-07	-3.514077e-06	-2.855045e-08	-2.507264e+01	-1.873131e+03
5.300000e-07	-3.411075e-06	-2.822041e-08	-2.433773e+01	-1.851743e+03
5.400000e-07	-3.306855e-06	-2.788317e-08	-2.359413e+01	-1.829425e+03
5.500000e-07	-3.201280e-06	-2.752716e-08	-2.284086e+01	-1.806121e+03
5.600000e-07	-3.094370e-06	-2.715919e-08	-2.207806e+01	-1.781784e+03
5.700000e-07	-2.986277e-06	-2.677134e-08	-2.130683e+01	-1.756373e+03
5.800000e-07	-2.877153e-06	-2.636565e-08	-2.052824e+01	-1.729842e+03
5.900000e-07	-2.767035e-06	-2.594364e-08	-1.974256e+01	-1.702141e+03
6.000000e-07	-2.656026e-06	-2.550164e-08	-1.895051e+01	-1.673199e+03
6.100000e-07	-2.544073e-06	-2.503705e-08	-1.815174e+01	-1.642924e+03
6.200000e-07	-2.431079e-06	-2.454628e-08	-1.734554e+01	-1.611202e+03
6.300000e-07	-2.316977e-06	-2.403465e-08	-1.653143e+01	-1.577897e+03
6.400000e-07	-2.201789e-06	-2.349837e-08	-1.570957e+01	-1.542865e+03
6.500000e-07	-2.085689e-06	-2.293904e-08	-1.488121e+01	-1.505954e+03
6.600000e-07	-1.968858e-06	-2.234788e-08	-1.404763e+01	-1.467022e+03
6.700000e-07	-1.851376e-06	-2.172013e-08	-1.320941e+01	-1.425932e+03
6.800000e-07	-1.733232e-06	-2.105645e-08	-1.236646e+01	-1.382555e+03
6.900000e-07	-1.614557e-06	-2.035577e-08	-1.151972e+01	-1.336759e+03
7.000000e-07	-1.495371e-06	-1.961685e-08	-1.066934e+01	-1.288399e+03
7.100000e-07	-1.375665e-06	-1.883378e-08	-9.815253e+00	-1.237308e+03
7.200000e-07	-1.255565e-06	-1.800686e-08	-8.958346e+00	-1.183295e+03
7.300000e-07	-1.135029e-06	-1.713308e-08	-8.098333e+00	-1.126157e+03
7.400000e-07	-1.013987e-06	-1.620787e-08	-7.234707e+00	-1.065701e+03
7.500000e-07	-8.925263e-07	-1.523060e-08	-6.368098e+00	-1.001782e+03
7.600000e-07	-7.707251e-07	-1.420409e-08	-5.499057e+00	-9.343437e+02
7.700000e-07	-6.486925e-07	-1.312428e-08	-4.628365e+00	-8.634563e+02
7.800000e-07	-5.264349e-07	-1.199523e-08	-3.756068e+00	-7.893445e+02
7.900000e-07	-4.039900e-07	-1.082334e-08	-2.882434e+00	-7.123879e+02
8.000000e-07	-2.814127e-07	-9.612364e-09	-2.007855e+00	-6.330944e+02
8.100000e-07	-1.586919e-07	-8.374279e-09	-1.132253e+00	-5.520457e+02
8.200000e-07	-3.588073e-08	-7.119614e-09	-2.560059e-01	-4.698198e+02
8.300000e-07	8.702135e-08	-5.858688e-09	6.208898e-01	-3.869063e+02
8.400000e-07	2.098886e-07	-4.591116e-09	1.497537e+00	-3.036287e+02
8.500000e-07	3.326737e-07	-3.317984e-09	2.373598e+00	-2.200923e+02
8.600000e-07	4.553678e-07	-2.037272e-09	3.249010e+00	-1.361711e+02
8.700000e-07	5.779179e-07	-7.432029e-10	4.123394e+00	-5.154006e+01
8.800000e-07	7.002800e-07	5.661825e-10	4.996438e+00	3.424922e+01
8.900000e-07	8.224031e-07	1.896941e-09	5.867776e+00	1.216608e+02
9.000000e-07	9.442685e-07	3.254493e-09	6.737274e+00	2.110537e+02
9.100000e-07	1.065738e-06	4.645444e-09	7.603947e+00	3.025701e+02
9.200000e-07	1.186742e-06	6.070333e-09	8.467300e+00	3.960553e+02
9.300000e-07	1.307290e-06	7.518891e-09	9.327403e+00	4.910240e+02
9.400000e-07	1.427294e-06	8.978226e-09	1.018362e+01	5.866820e+02
9.500000e-07	1.546756e-06	1.043378e-08	1.103597e+01	6.819989e+02
9.600000e-07	1.665699e-06	1.186470e-08	1.188462e+01	7.758206e+02
9.700000e-07	1.784017e-06	1.324998e-08	1.272880e+01	8.669988e+02
9.800000e-07	1.901649e-06	1.457695e-08	1.356810e+01	9.545169e+02
9.900000e-07	2.018611e-06	1.583617e-08	1.440262e+01	1.037590e+03
1.000000e-06	2.134821e-06	1.701904e-08	1.523176e+01	1.115724e+03
1.010000e-06	2.250125e-06	1.812498e-08	1.605445e+01	1.188727e+03
1.020000e-06	2.364405e-06	1.915489e-08	1.686982e+01	1.256675e+03
1.030000e-06	2.477630e-06	2.011515e-08	1.767768e+01	1.319848e+03
1.040000e-06	2.589867e-06	2.101275e-08	1.847848e+01	1.378648e+03
1.050000e-06	2.701127e-06	2.185142e-08	1.927231e+01	1.433512e+03
1.060000e-06	2.811395e-06	2.263427e-08	2.005906e+01	1.484856e+03
1.070000e-06	2.920744e-06	2.336402e-08	2.083926e+01	1.533025e+03
1.080000e-06	3.029192e-06	2.404946e-08	2.161302e+01	1.578285e+03
1.090000e-06	3.136597e-06	2.469164e-08	2.237935e+01	1.620833e+03
1.100000e-06	3.242859e-06	2.529492e-08	2.313752e+01	1.660819e+03
1.110000e-06	3.347842e-06	2.586244e-08	2.388656e+01	1.698379e+03
1.120000e-06	3.451488e-06	2.639996e-08	2.462607e+01	1.733657e+03
1.130000e-06	3.553934e-06	2.690788e-08	2.535701e+01	1.766816e+03
1.140000e-06	3.655286e-06	2.738483e-08	2.608015e+01	1.798035e+03
1.150000e-06	3.755509e-06	2.783502e-08	2.679523e+01	1.827503e+03
1.160000e-06	3.854381e-06	2.826127e-08	2.750067e+01	1.855395e+03
1.170000e-06	3.951674e-06	2.866447e-08	2.819485e+01	1.881861e+03
1.180000e-06	4.047374e-06	2.904676e-08	2.887767e+01	1.907011e+03
1.190000e-06	4.141646e-06	2.941057e-08	2.955029e+01	1.930921e+03
1.200000e-06	4.234641e-06	2.975651e-08	3.021380e+01	1.953635e+03
1.210000e-06	4.326286e-06	3.008386e-08	3.086767e+01	1.975185e+03
1.220000e-06	4.416336e-06	3.039411e-08	3.151018e+01	1.995603e+03
1.230000e-06	4.504623e-06	3.069001e-08	3.214010e+01	2.014938e+03
1.240000e-06	4.591233e-06	3.096813e-08	3.275805e+01	2.033253e+03
1.250000e-06	4.676291e-06	3.123095e-08	3.336493e+01	2.050630e+03
1.260000e-06	4.759841e-06	3.148327e-08	3.396105e+01	2.067155e+03
1.270000e-06	4.841737e-06	3.172705e-08	3.454537e+01	2.082909e+03
1.280000e-06	4.921829e-06	3.195764e-08	3.511682e+01	2.097957e+03
1.290000e-06	5.000097e-06	3.217517e-08	3.567526e+01	2.112339e+03
1.300000e-06	5.076489e-06	3.238117e-08	3.622031e+01	2.126075e+03
1.310000e-06	5.150830e-06	3.257765e-08	3.675073e+01	2.139168e+03
1.320000e-06	5.223109e-06	3.276341e-08	3.726643e+01	2.151616e+03
1.330000e-06	5.293470e-06	3.293991e-08	3.776845e+01	2.163425e+03
1.340000e-06	5.361977e-06	3.311052e-08	3.825725e+01	2.174614e+03
1.350000e-06	5.428540e-06	3.327598e-08	3.873216e+01	2.185219e+03
1.360000e-06	5.493000e-06	3.343495e-08	3.919208e+01	2.195285e+03
1.370000e-06	5.555477e-06	3.358518e-08	3.963785e+01	2.204864e+03
1.380000e-06	5.616251e-06	3.372758e-08	4.007147e+01	2.213996e+03
1.390000e-06	5.675188e-06	3.386311e-08	4.049197e+01	2.222704e+03
1.400000e-06	5.731962e-06	3.399171e-08	4.089706e+01	2.230990e+03
1.410000e-06	5.786687e-06	3.411342e-08	4.128751e+01	2.238839e+03
1.420000e-06	5.839261e-06	3.422810e-08	4.166262e+01	2.246223e+03
1.430000e-06	5.889361e-06	3.433394e-08	4.202008e+01	2.253118e+03
1.440000e-06	5.937054e-06	3.443198e-08	4.236037e+01	2.259514e+03
1.450000e-06	5.982651e-06	3.452186e-08	4.268570e+01	2.265425e+03
1.460000e-06	6.026223e-06	3.460409e-08	4.299658e+01	2.270888e+03
1.470000e-06	6.067606e-06	3.468331e-08	4.329185e+01	2.275962e+03
1.480000e-06	6.106823e-06	3.476092e-08	4.357165e+01	2.280709e+03
1.490000e-06	6.144037e-06	3.483394e-08	4.383717e+01	2.285186e+03
1.500000e-06	6.179123e-06	3.490060e-08	4.408751e+01	2.289428e+03
1.510000e-06	6.211858e-06	3.496306e-08	4.432107e+01	2.293439e+03
1.520000e-06	6.242381e-06	3.502218e-08	4.453885e+01	2.297195e+03
1.530000e-06	6.270911e-06	3.507624e-08	4.474241e+01	2.300648e+03
1.540000e-06	6.297250e-06	3.512371e-08	4.493033e+01	2.303744e+03
1.550000e-06	6.321178e-06	3.516442e-08	4.510106e+01	2.306436e+03
1.560000e-06	6.342850e-06	3.520091e-08	4.525569e+01	2.308699e+03
1.570000e-06	6.362361e-06	3.523143e-08	4.539490e+01	2.310541e+03
1.580000e-06	6.379523e-06	3.525626e-08	4.551735e+01	2.312000e+03
1.590000e-06	6.394257e-06	3.527802e-08	4.562247e+01	2.313136e+03
1.600000e-06	6.406538e-06	3.529559e-08	4.571009e+01	2.314015e+03
1.610000e-06	6.416286e-06	3.530920e-08	4.577964e+01	2.314697e+03
1.620000e-06	6.423587e-06	3.531800e-08	4.583174e+01	2.315215e+03
1.630000e-06	6.428733e-06	3.532477e-08	4.586846e+01	2.315573e+03
1.640000e-06	6.431652e-06	3.532968e-08	4.588929e+01	2.315742e+03
1.650000e-06	6.432117e-06	3.533326e-08	4.589260e+01	2.315676e+03
1.660000e-06	6.430357e-06	3.531992e-08	4.588004e+01	2.315319e+03
1.670000e-06	6.426683e-06	3.530686e-08	4.585383e+01	2.314631e+03
1.680000e-06	6.420922e-06	3.529736e-08	4.581273e+01	2.313594e+03
1.690000e-06	6.412918e-06	3.528128e-08	4.575562e+01	2.312225e+03
1.700000e-06	6.402870e-06	3.526353e-08	4.568392e+01	2.310571e+03
1.710000e-06	6.390668e-06	3.524559e-08	4.559686e+01	2.308702e+03
1.720000e-06	6.376128e-06	3.524504e-08	4.549313e+01	2.306689e+03
1.730000e-06	6.359537e-06	3.520690e-08	4.537475e+01	2.304590e+03
1.740000e-06	6.341029e-06	3.504027e-08	4.524269e+01	2.302430e+03
1.750000e-06	6.319816e-06	3.502043e-08	4.509134e+01	2.300194e+03
1.760000e-06	6.295336e-06	3.506033e-08	4.491668e+01	2.297826e+03
1.770000e-06	6.268294e-06	3.497852e-08	4.472374e+01	2.295240e+03
1.780000e-06	6.239318e-06	3.507513e-08	4.451699e+01	2.292330e+03
1.790000e-06	6.208636e-06	3.506214e-08	4.429808e+01	2.288998e+03
1.800000e-06	6.176551e-06	3.479188e-08	4.406916e+01	2.285167e+03
1.810000e-06	6.142568e-06	3.497655e-08	4.382669e+01	2.280796e+03
1.820000e-06	6.106562e-06	3.490170e-08	4.356979e+01	2.275888e+03
1.830000e-06	6.068576e-06	3.459957e-08	4.329877e+01	2.270486e+03
1.840000e-06	6.028140e-06	3.466161e-08	4.301026e+01	2.264665e+03
1.850000e-06	5.985539e-06	3.433676e-08	4.270630e+01	2.258512e+03
1.860000e-06	5.940964e-06	3.425643e-08	4.238826e+01	2.252118e+03
1.870000e-06	5.894203e-06	3.426264e-08	4.205463e+01	2.245554e+03
1.880000e-06	5.845351e-06	3.405391e-08	4.170608e+01	2.238866e+03
1.890000e-06	5.794006e-06	3.412726e-08	4.133973e+01	2.232068e+03
1.900000e-06	5.739999e-06	3.390370e-08	4.095440e+01	2.225144e+03
1.910000e-06	5.683771e-06	3.378832e-08	4.055322e+01	2.218053e+03
1.920000e-06	5.625530e-06	3.375023e-08	4.013767e+01	2.210740e+03
1.930000e-06	5.565437e-06	3.350931e-08	3.970891e+01	2.203144e+03
1.940000e-06	5.503209e-06	3.351347e-08	3.926492e+01	2.195208e+03
1.950000e-06	5.438766e-06	3.331808e-08	3.880513e+01	2.186888e+03
1.960000e-06	5.372365e-06	3.324348e-08	3.833136e+01	2.178154e+03
1.970000e-06	5.304013e-06	3.308670e-08	3.784367e+01	2.168989e+03
1.980000e-06	5.233548e-06	3.285394e-08	3.734091e+01	2.159392e+03
1.990000e-06	5.160977e-06	3.280703e-08	3.682313e+01	2.149368e+03
2.000000e-06	5.086671e-06	3.259328e-08	3.629296e+01	2.138925e+03
2.010000e-06	5.010378e-06	3.249154e-08	3.574861e+01	2.128070e+03
2.020000e-06	4.931853e-06	3.227383e-08	3.518835e+01	2.116803e+03
2.030000e-06	4.851494e-06	3.208313e-08	3.461499e+01	2.105114e+03
2.040000e-06	4.769511e-06	3.193237e-08	3.403005e+01	2.092986e+03
2.050000e-06	4.686033e-06	3.169875e-08	3.343444e+01	2.080390e+03
2.060000e-06	4.600925e-06	3.153890e-08	3.282720e+01	2.067294e+03
2.070000e-06	4.514017e-06	3.130584e-08	3.220712e+01	2.053666e+03
2.080000e-06	4.425485e-06	3.112244e-08	3.157545e+01	2.039474e+03
2.090000e-06	4.335501e-06	3.087552e-08	3.093343e+01	2.024696e+03
2.100000e-06	4.244171e-06	3.064115e-08	3.028179e+01	2.009313e+03
2.110000e-06	4.151404e-06	3.041296e-08	2.961991e+01	1.993315e+03
2.120000e-06	4.057069e-06	3.014991e-08	2.894684e+01	1.976692e+03
2.130000e-06	3.961250e-06	2.989865e-08	2.826318e+01	1.959434e+03
2.140000e-06	3.864062e-06	2.961181e-08	2.756975e+01	1.941521e+03
2.150000e-06	3.765528e-06	2.934673e-08	2.686672e+01	1.922924e+03
2.160000e-06	3.665753e-06	2.904319e-08	2.615483e+01	1.903599e+03
2.170000e-06	3.564556e-06	2.874571e-08	2.543280e+01	1.883495e+03
2.180000e-06	3.461826e-06	2.842206e-08	2.469983e+01	1.862550e+03
2.190000e-06	3.357799e-06	2.809182e-08	2.395760e+01	1.840704e+03
2.200000e-06	3.252553e-06	2.774418e-08	2.320669e+01	1.817899e+03
2.210000e-06	3.146152e-06	2.738154e-08	2.244752e+01	1.794084e+03
2.220000e-06	3.038731e-06	2.700831e-08	2.168109e+01	1.769215e+03
2.230000e-06	2.930250e-06	2.661154e-08	2.090708e+01	1.743250e+03
2.240000e-06	2.820693e-06	2.619983e-08	2.012540e+01	1.716142e+03
2.250000e-06	2.710077e-06	2.576299e-08	1.933617e+01	1.687830e+03
2.260000e-06	2.598360e-06	2.531727e-08	1.853907e+01	1.658234e+03
2.270000e-06	2.485614e-06	2.484453e-08	1.773464e+01	1.627252e+03
2.280000e-06	2.371874e-06	2.435461e-08	1.692312e+01	1.594756e+03
2.290000e-06	2.257202e-06	2.383133e-08	1.610494e+01	1.560606e+03
2.300000e-06	2.141733e-06	2.328017e-08	1.528108e+01	1.524653e+03
2.310000e-06	2.025463e-06	2.270057e-08	1.445150e+01	1.486749e+03
2.320000e-06	1.908291e-06	2.209386e-08	1.361549e+01	1.446755e+03
2.330000e-06	1.790327e-06	2.145650e-08	1.277383e+01	1.404537e+03
2.340000e-06	1.671624e-06	2.078184e-08	1.192690e+01	1.359968e+03
2.350000e-06	1.552258e-06	2.006811e-08	1.107522e+01	1.312909e+03
2.360000e-06	1.432390e-06	1.930883e-08	1.021998e+01	1.263206e+03
2.370000e-06	1.312005e-06	1.850622e-08	9.361042e+00	1.210679e+03
2.380000e-06	1.191208e-06	1.765778e-08	8.499167e+00	1.155129e+03
2.390000e-06	1.070149e-06	1.676463e-08	7.635423e+00	1.096355e+03
2.400000e-06	9.487857e-07	1.581695e-08	6.769504e+00	1.034181e+03
2.410000e-06	8.271079e-07	1.481511e-08	5.901344e+00	9.685020e+02
2.420000e-06	7.051506e-07	1.376168e-08	5.031189e+00	8.993208e+02
2.430000e-06	5.829811e-07	1.265829e-08	4.159520e+00	8.267832e+02
2.440000e-06	4.606068e-07	1.150713e-08	3.286390e+00	7.511926e+02
2.450000e-06	3.380436e-07	1.031328e-08	2.411912e+00	6.729978e+02
2.460000e-06	2.153725e-07	9.088605e-09	1.536664e+00	5.927522e+02
2.470000e-06	9.263394e-08	7.841154e-09	6.609352e-01	5.110462e+02
2.480000e-06	-3.012367e-08	6.579204e-09	-2.149298e-01	4.284242e+02
2.490000e-06	-1.529028e-07	5.307683e-09	-1.090949e+00	3.453010e+02
2.500000e-06	-2.756849e-07	4.032541e-09	-1.966988e+00	2.618955e+02
2.510000e-06	-3.984292e-07	2.757215e-09	-2.842758e+00	1.781962e+02
2.520000e-06	-5.210694e-07	1.472170e-09	-3.717785e+00	9.397060e+01
2.530000e-06	-6.435358e-07	1.705995e-10	-4.591573e+00	8.820236e+00
2.540000e-06	-7.657948e-07	-1.150193e-09	-5.463880e+00	-7.772592e+01
2.550000e-06	-8.878046e-07	-2.495404e-09	-6.334409e+00	-1.660945e+02
2.560000e-06	-1.009485e-06	-3.872497e-09	-7.202590e+00	-2.565485e+02
2.570000e-06	-1.130792e-06	-5.284777e-09	-8.068102e+00	-3.490892e+02
2.580000e-06	-1.251774e-06	-6.723641e-09	-8.931298e+00	-4.433973e+02
2.590000e-06	-1.372343e-06	-8.181128e-09	-9.791547e+00	-5.388269e+02
2.600000e-06	-1.492384e-06	-9.646710e-09	-1.064803e+01	-6.344538e+02
2.610000e-06	-1.611879e-06	-1.110058e-08	-1.150062e+01	-7.291702e+02
2.620000e-06	-1.730670e-06	-1.252047e-08	-1.234818e+01	-8.218081e+02
2.630000e-06	-1.848694e-06	-1.388762e-08	-1.319027e+01	-9.112707e+02
2.640000e-06	-1.965946e-06	-1.519131e-08	-1.402686e+01	-9.966472e+02
2.650000e-06	-2.082262e-06	-1.642412e-08	-1.485676e+01	-1.077294e+03
2.660000e-06	-2.197666e-06	-1.758000e-08	-1.568016e+01	-1.152868e+03
2.670000e-06	-2.312184e-06	-1.865918e-08	-1.649723e+01	-1.223319e+03
2.680000e-06	-2.425730e-06	-1.966497e-08	-1.730737e+01	-1.288835e+03
2.690000e-06	-2.538264e-06	-2.059959e-08	-1.811030e+01	-1.349767e+03
2.700000e-06	-2.649693e-06	-2.147094e-08	-1.890533e+01	-1.406545e+03
2.710000e-06	-2.759984e-06	-2.228511e-08	-1.969225e+01	-1.459601e+03
2.720000e-06	-2.869306e-06	-2.304653e-08	-2.047225e+01	-1.509319e+03
2.730000e-06	-2.977760e-06	-2.376292e-08	-2.124606e+01	-1.556005e+03
2.740000e-06	-3.085281e-06	-2.443533e-08	-2.201322e+01	-1.599888e+03
2.750000e-06	-3.191808e-06	-2.506408e-08	-2.277327e+01	-1.641137e+03
2.760000e-06	-3.297306e-06	-2.565410e-08	-2.352600e+01	-1.679894e+03
2.770000e-06	-3.401660e-06	-2.621193e-08	-2.427055e+01	-1.716294e+03
2.780000e-06	-3.504768e-06	-2.673695e-08	-2.500622e+01	-1.750490e+03
2.790000e-06	-3.606496e-06	-2.722826e-08	-2.573204e+01	-1.782656e+03
2.800000e-06	-3.706808e-06	-2.769129e-08	-2.644775e+01	-1.812976e+03
2.810000e-06	-3.805886e-06	-2.813038e-08	-2.715467e+01	-1.841636e+03
2.820000e-06	-3.903738e-06	-2.854617e-08	-2.785283e+01	-1.868799e+03
2.830000e-06	-4.000318e-06	-2.894152e-08	-2.854192e+01	-1.894595e+03
2.840000e-06	-4.095588e-06	-2.931777e-08	-2.922167e+01	-1.919118e+03
2.850000e-06	-4.189382e-06	-2.967262e-08	-2.989088e+01	-1.942425e+03
2.860000e-06	-4.281622e-06	-3.000769e-08	-3.054900e+01	-1.964553e+03
2.870000e-06	-4.372336e-06	-3.032386e-08	-3.119624e+01	-1.985533e+03
2.880000e-06	-4.461505e-06	-3.062350e-08	-3.183245e+01	-2.005403e+03
2.890000e-06	-4.549126e-06	-3.091106e-08	-3.245762e+01	-2.024218e+03
2.900000e-06	-4.635032e-06	-3.118672e-08	-3.307056e+01	-2.042054e+03
2.910000e-06	-4.719133e-06	-3.144854e-08	-3.367061e+01	-2.058994e+03
2.920000e-06	-4.801585e-06	-3.169730e-08	-3.425889e+01	-2.075124e+03
2.930000e-06	-4.882444e-06	-3.193402e-08	-3.483582e+01	-2.090518e+03
2.940000e-06	-4.961416e-06	-3.215991e-08	-3.539927e+01	-2.105230e+03
