# Temperatura_=_37.34
# Concentracion g/m^3_=_28200.0
# C_Vs_to_Am_M_A/Vsm_=_65563218390.804596
# pendiente_HvsI_1/m_=_3716.3
# ordenada_HvsI_A/m_=_1297.0
# frecuencia_Hz_=_302143.5856282413

Tiempo_(s)	Campo_(V.s)	Magnetizacion_(V.s)	Campo_(kA/m)	Magnetizacion_(A/m)
0.000000e+00	-6.414766e-06	-3.472659e-08	-4.585085e+01	-2.273367e+03
1.000000e-08	-6.411669e-06	-3.471953e-08	-4.582871e+01	-2.272855e+03
2.000000e-08	-6.406505e-06	-3.470456e-08	-4.579181e+01	-2.272100e+03
3.000000e-08	-6.399442e-06	-3.469006e-08	-4.574132e+01	-2.271081e+03
4.000000e-08	-6.390337e-06	-3.467134e-08	-4.567624e+01	-2.269779e+03
5.000000e-08	-6.378798e-06	-3.464505e-08	-4.559376e+01	-2.268187e+03
6.000000e-08	-6.364862e-06	-3.461023e-08	-4.549416e+01	-2.266313e+03
7.000000e-08	-6.348668e-06	-3.456359e-08	-4.537841e+01	-2.264182e+03
8.000000e-08	-6.330323e-06	-3.454134e-08	-4.524728e+01	-2.261829e+03
9.000000e-08	-6.309825e-06	-3.459416e-08	-4.510077e+01	-2.259300e+03
1.000000e-07	-6.286988e-06	-3.452963e-08	-4.493753e+01	-2.256639e+03
1.100000e-07	-6.261566e-06	-3.441354e-08	-4.475582e+01	-2.253880e+03
1.200000e-07	-6.233713e-06	-3.437514e-08	-4.455674e+01	-2.251042e+03
1.300000e-07	-6.203911e-06	-3.428403e-08	-4.434372e+01	-2.248121e+03
1.400000e-07	-6.172545e-06	-3.412028e-08	-4.411953e+01	-2.245086e+03
1.500000e-07	-6.139400e-06	-3.424372e-08	-4.388262e+01	-2.241886e+03
1.600000e-07	-6.104178e-06	-3.420088e-08	-4.363086e+01	-2.238454e+03
1.700000e-07	-6.067125e-06	-3.399031e-08	-4.336601e+01	-2.234716e+03
1.800000e-07	-6.028039e-06	-3.408297e-08	-4.308665e+01	-2.230609e+03
1.900000e-07	-5.986547e-06	-3.390127e-08	-4.279007e+01	-2.226081e+03
2.000000e-07	-5.942831e-06	-3.379507e-08	-4.247760e+01	-2.221109e+03
2.100000e-07	-5.896971e-06	-3.382824e-08	-4.214980e+01	-2.215694e+03
2.200000e-07	-5.848785e-06	-3.367414e-08	-4.180539e+01	-2.209864e+03
2.300000e-07	-5.798158e-06	-3.360471e-08	-4.144352e+01	-2.203664e+03
2.400000e-07	-5.745018e-06	-3.350744e-08	-4.106369e+01	-2.197144e+03
2.500000e-07	-5.689642e-06	-3.338015e-08	-4.066788e+01	-2.190351e+03
2.600000e-07	-5.632124e-06	-3.330057e-08	-4.025676e+01	-2.183315e+03
2.700000e-07	-5.572488e-06	-3.317813e-08	-3.983050e+01	-2.176044e+03
2.800000e-07	-5.510905e-06	-3.307381e-08	-3.939032e+01	-2.168522e+03
2.900000e-07	-5.447361e-06	-3.292680e-08	-3.893613e+01	-2.160715e+03
3.000000e-07	-5.381787e-06	-3.282441e-08	-3.846743e+01	-2.152577e+03
3.100000e-07	-5.314136e-06	-3.268631e-08	-3.798388e+01	-2.144060e+03
3.200000e-07	-5.244448e-06	-3.253410e-08	-3.748577e+01	-2.135125e+03
3.300000e-07	-5.172900e-06	-3.242162e-08	-3.697436e+01	-2.125748e+03
3.400000e-07	-5.099477e-06	-3.223556e-08	-3.644956e+01	-2.115922e+03
3.500000e-07	-5.023966e-06	-3.209448e-08	-3.590982e+01	-2.105652e+03
3.600000e-07	-4.946312e-06	-3.193176e-08	-3.535477e+01	-2.094954e+03
3.700000e-07	-4.866582e-06	-3.175669e-08	-3.478489e+01	-2.083841e+03
3.800000e-07	-4.785022e-06	-3.159045e-08	-3.420192e+01	-2.072315e+03
3.900000e-07	-4.701910e-06	-3.140062e-08	-3.360787e+01	-2.060366e+03
4.000000e-07	-4.617404e-06	-3.120533e-08	-3.300384e+01	-2.047963e+03
4.100000e-07	-4.531503e-06	-3.099920e-08	-3.238984e+01	-2.035064e+03
4.200000e-07	-4.444219e-06	-3.080762e-08	-3.176596e+01	-2.021620e+03
4.300000e-07	-4.355459e-06	-3.059313e-08	-3.113154e+01	-2.007581e+03
4.400000e-07	-4.265025e-06	-3.036109e-08	-3.048514e+01	-1.992908e+03
4.500000e-07	-4.172964e-06	-3.012613e-08	-2.982711e+01	-1.977576e+03
4.600000e-07	-4.079432e-06	-2.987274e-08	-2.915857e+01	-1.961572e+03
4.700000e-07	-3.984516e-06	-2.961886e-08	-2.848014e+01	-1.944894e+03
4.800000e-07	-3.888176e-06	-2.935648e-08	-2.779153e+01	-1.927544e+03
4.900000e-07	-3.790392e-06	-2.908682e-08	-2.709261e+01	-1.909515e+03
5.000000e-07	-3.691175e-06	-2.880029e-08	-2.638343e+01	-1.890792e+03
5.100000e-07	-3.590517e-06	-2.849868e-08	-2.566395e+01	-1.871336e+03
5.200000e-07	-3.488598e-06	-2.818549e-08	-2.493547e+01	-1.851097e+03
5.300000e-07	-3.385576e-06	-2.785963e-08	-2.419909e+01	-1.830005e+03
5.400000e-07	-3.281287e-06	-2.752317e-08	-2.345367e+01	-1.807987e+03
5.500000e-07	-3.175677e-06	-2.716875e-08	-2.269880e+01	-1.784968e+03
5.600000e-07	-3.068829e-06	-2.680308e-08	-2.193508e+01	-1.760879e+03
5.700000e-07	-2.960768e-06	-2.641860e-08	-2.116270e+01	-1.735656e+03
5.800000e-07	-2.851595e-06	-2.601436e-08	-2.038236e+01	-1.709242e+03
5.900000e-07	-2.741462e-06	-2.559292e-08	-1.959516e+01	-1.681579e+03
6.000000e-07	-2.630410e-06	-2.515225e-08	-1.880140e+01	-1.652600e+03
6.100000e-07	-2.518279e-06	-2.468856e-08	-1.799992e+01	-1.622227e+03
6.200000e-07	-2.405095e-06	-2.419795e-08	-1.719091e+01	-1.590360e+03
6.300000e-07	-2.291018e-06	-2.368290e-08	-1.637552e+01	-1.556882e+03
6.400000e-07	-2.175999e-06	-2.314156e-08	-1.555340e+01	-1.521662e+03
6.500000e-07	-2.060043e-06	-2.257513e-08	-1.472458e+01	-1.484557e+03
6.600000e-07	-1.943249e-06	-2.197721e-08	-1.388977e+01	-1.445420e+03
6.700000e-07	-1.825792e-06	-2.134716e-08	-1.305022e+01	-1.404105e+03
6.800000e-07	-1.707830e-06	-2.068422e-08	-1.220707e+01	-1.360467e+03
6.900000e-07	-1.589392e-06	-1.998105e-08	-1.136050e+01	-1.314357e+03
7.000000e-07	-1.470417e-06	-1.923636e-08	-1.051011e+01	-1.265625e+03
7.100000e-07	-1.350807e-06	-1.844651e-08	-9.655171e+00	-1.214114e+03
7.200000e-07	-1.230631e-06	-1.761393e-08	-8.796189e+00	-1.159664e+03
7.300000e-07	-1.109982e-06	-1.673395e-08	-7.933825e+00	-1.102129e+03
7.400000e-07	-9.889434e-07	-1.580453e-08	-7.068675e+00	-1.041397e+03
7.500000e-07	-8.676260e-07	-1.482652e-08	-6.201534e+00	-9.774173e+02
7.600000e-07	-7.460763e-07	-1.380274e-08	-5.332733e+00	-9.102383e+02
7.700000e-07	-6.243479e-07	-1.273328e-08	-4.462654e+00	-8.400297e+02
7.800000e-07	-5.024446e-07	-1.162205e-08	-3.591325e+00	-7.670997e+02
7.900000e-07	-3.803901e-07	-1.047709e-08	-2.718916e+00	-6.918885e+02
8.000000e-07	-2.582655e-07	-9.301898e-09	-1.846005e+00	-6.149396e+02
8.100000e-07	-1.359835e-07	-8.109362e-09	-9.719696e-01	-5.368469e+02
8.200000e-07	-1.361173e-08	-6.911139e-09	-9.729262e-02	-4.581856e+02
8.300000e-07	1.087072e-07	-5.714849e-09	7.770066e-01	-3.794358e+02
8.400000e-07	2.310318e-07	-4.520684e-09	1.651347e+00	-3.009136e+02
8.500000e-07	3.533350e-07	-3.330227e-09	2.525534e+00	-2.227225e+02
8.600000e-07	4.755099e-07	-2.141925e-09	3.398804e+00	-1.447378e+02
8.700000e-07	5.975403e-07	-9.499224e-10	4.271041e+00	-6.662859e+01
8.800000e-07	7.194159e-07	2.505408e-10	5.142172e+00	1.208213e+01
8.900000e-07	8.411219e-07	1.467229e-09	6.012091e+00	9.192803e+01
9.000000e-07	9.626300e-07	2.707767e-09	6.880595e+00	1.733942e+02
9.100000e-07	1.083908e-06	3.978826e-09	7.747454e+00	2.568136e+02
9.200000e-07	1.204856e-06	5.282280e-09	8.611954e+00	3.422836e+02
9.300000e-07	1.325299e-06	6.613198e-09	9.472845e+00	4.296163e+02
9.400000e-07	1.445175e-06	7.964327e-09	1.032969e+01	5.183317e+02
9.500000e-07	1.564427e-06	9.326954e-09	1.118207e+01	6.076949e+02
9.600000e-07	1.683052e-06	1.068450e-08	1.202996e+01	6.967898e+02
9.700000e-07	1.801077e-06	1.202003e-08	1.287356e+01	7.846172e+02
9.800000e-07	1.918482e-06	1.332080e-08	1.371274e+01	8.702002e+02
9.900000e-07	2.035205e-06	1.457451e-08	1.454704e+01	9.526799e+02
1.000000e-06	2.151024e-06	1.576779e-08	1.537488e+01	1.031388e+03
1.010000e-06	2.265755e-06	1.689325e-08	1.619494e+01	1.105885e+03
1.020000e-06	2.379545e-06	1.795150e-08	1.700829e+01	1.175969e+03
1.030000e-06	2.492582e-06	1.894539e-08	1.781624e+01	1.241644e+03
1.040000e-06	2.604635e-06	1.987816e-08	1.861716e+01	1.303079e+03
1.050000e-06	2.715547e-06	2.074863e-08	1.940992e+01	1.360542e+03
1.060000e-06	2.825494e-06	2.156601e-08	2.019580e+01	1.414349e+03
1.070000e-06	2.934614e-06	2.233224e-08	2.097576e+01	1.464813e+03
1.080000e-06	3.042817e-06	2.305108e-08	2.174916e+01	1.512215e+03
1.090000e-06	3.149826e-06	2.372560e-08	2.251403e+01	1.556791e+03
1.100000e-06	3.255647e-06	2.436071e-08	2.327041e+01	1.598730e+03
1.110000e-06	3.360270e-06	2.495854e-08	2.401822e+01	1.638190e+03
1.120000e-06	3.463557e-06	2.552035e-08	2.475648e+01	1.675311e+03
1.130000e-06	3.565636e-06	2.604963e-08	2.548611e+01	1.710232e+03
1.140000e-06	3.666593e-06	2.654757e-08	2.620773e+01	1.743093e+03
1.150000e-06	3.766333e-06	2.701619e-08	2.692063e+01	1.774046e+03
1.160000e-06	3.864701e-06	2.745851e-08	2.762374e+01	1.803243e+03
1.170000e-06	3.961556e-06	2.787872e-08	2.831603e+01	1.830833e+03
1.180000e-06	4.056877e-06	2.827631e-08	2.899736e+01	1.856951e+03
1.190000e-06	4.150809e-06	2.865343e-08	2.966875e+01	1.881716e+03
1.200000e-06	4.243445e-06	2.901056e-08	3.033089e+01	1.905221e+03
1.210000e-06	4.334586e-06	2.935087e-08	3.098234e+01	1.927540e+03
1.220000e-06	4.424083e-06	2.967342e-08	3.162204e+01	1.948734e+03
1.230000e-06	4.511904e-06	2.997908e-08	3.224976e+01	1.968853e+03
1.240000e-06	4.598072e-06	3.026703e-08	3.286566e+01	1.987943e+03
1.250000e-06	4.682759e-06	3.053992e-08	3.347098e+01	2.006055e+03
1.260000e-06	4.765949e-06	3.079907e-08	3.406560e+01	2.023241e+03
1.270000e-06	4.847429e-06	3.104539e-08	3.464799e+01	2.039557e+03
1.280000e-06	4.927069e-06	3.128199e-08	3.521723e+01	2.055059e+03
1.290000e-06	5.004874e-06	3.150895e-08	3.577336e+01	2.069799e+03
1.300000e-06	5.080764e-06	3.172245e-08	3.631580e+01	2.083825e+03
1.310000e-06	5.154579e-06	3.192298e-08	3.684341e+01	2.097176e+03
1.320000e-06	5.226329e-06	3.211280e-08	3.735625e+01	2.109885e+03
1.330000e-06	5.296232e-06	3.229387e-08	3.785590e+01	2.121977e+03
1.340000e-06	5.364307e-06	3.246673e-08	3.834248e+01	2.133474e+03
1.350000e-06	5.430402e-06	3.263201e-08	3.881491e+01	2.144396e+03
1.360000e-06	5.494459e-06	3.279048e-08	3.927277e+01	2.154761e+03
1.370000e-06	5.556598e-06	3.294066e-08	3.971692e+01	2.164584e+03
1.380000e-06	5.616941e-06	3.308340e-08	4.014824e+01	2.173883e+03
1.390000e-06	5.675258e-06	3.322036e-08	4.056507e+01	2.182670e+03
1.400000e-06	5.731493e-06	3.335201e-08	4.096702e+01	2.190957e+03
1.410000e-06	5.785697e-06	3.347546e-08	4.135445e+01	2.198755e+03
1.420000e-06	5.837588e-06	3.358816e-08	4.172535e+01	2.206074e+03
1.430000e-06	5.887039e-06	3.369115e-08	4.207882e+01	2.212926e+03
1.440000e-06	5.934252e-06	3.378681e-08	4.241628e+01	2.219325e+03
1.450000e-06	5.979512e-06	3.387612e-08	4.273979e+01	2.225292e+03
1.460000e-06	6.022778e-06	3.395894e-08	4.304904e+01	2.230850e+03
1.470000e-06	6.063782e-06	3.403695e-08	4.334212e+01	2.236025e+03
1.480000e-06	6.102570e-06	3.411201e-08	4.361937e+01	2.240846e+03
1.490000e-06	6.139336e-06	3.418295e-08	4.388216e+01	2.245334e+03
1.500000e-06	6.173929e-06	3.424909e-08	4.412942e+01	2.249509e+03
1.510000e-06	6.206202e-06	3.431111e-08	4.436010e+01	2.253377e+03
1.520000e-06	6.236337e-06	3.436773e-08	4.457549e+01	2.256940e+03
1.530000e-06	6.264483e-06	3.441775e-08	4.477667e+01	2.260188e+03
1.540000e-06	6.290318e-06	3.446010e-08	4.496134e+01	2.263108e+03
1.550000e-06	6.313678e-06	3.449473e-08	4.512831e+01	2.265687e+03
1.560000e-06	6.334917e-06	3.452601e-08	4.528011e+01	2.267916e+03
1.570000e-06	6.354112e-06	3.455523e-08	4.541732e+01	2.269793e+03
1.580000e-06	6.370894e-06	3.457982e-08	4.553727e+01	2.271328e+03
1.590000e-06	6.385186e-06	3.459926e-08	4.563942e+01	2.272539e+03
1.600000e-06	6.397025e-06	3.461552e-08	4.572405e+01	2.273454e+03
1.610000e-06	6.406278e-06	3.462836e-08	4.579018e+01	2.274104e+03
1.620000e-06	6.413140e-06	3.463671e-08	4.583923e+01	2.274517e+03
1.630000e-06	6.417931e-06	3.464094e-08	4.587348e+01	2.274719e+03
1.640000e-06	6.420492e-06	3.464134e-08	4.589178e+01	2.274720e+03
1.650000e-06	6.420607e-06	3.464121e-08	4.589260e+01	2.274522e+03
1.660000e-06	6.418494e-06	3.462660e-08	4.587750e+01	2.274113e+03
1.670000e-06	6.414357e-06	3.461634e-08	4.584793e+01	2.273474e+03
1.680000e-06	6.408059e-06	3.460604e-08	4.580291e+01	2.272580e+03
1.690000e-06	6.399592e-06	3.458983e-08	4.574239e+01	2.271411e+03
1.700000e-06	6.389128e-06	3.457263e-08	4.566760e+01	2.269953e+03
1.710000e-06	6.376466e-06	3.455308e-08	4.557710e+01	2.268208e+03
1.720000e-06	6.361578e-06	3.455260e-08	4.547068e+01	2.266193e+03
1.730000e-06	6.344706e-06	3.449103e-08	4.535008e+01	2.263937e+03
1.740000e-06	6.325736e-06	3.435111e-08	4.521449e+01	2.261484e+03
1.750000e-06	6.303929e-06	3.435654e-08	4.505862e+01	2.258879e+03
1.760000e-06	6.278968e-06	3.436218e-08	4.488021e+01	2.256162e+03
1.770000e-06	6.251649e-06	3.428488e-08	4.468494e+01	2.253360e+03
1.780000e-06	6.222386e-06	3.439829e-08	4.447578e+01	2.250479e+03
1.790000e-06	6.191462e-06	3.430985e-08	4.425474e+01	2.247502e+03
1.800000e-06	6.159156e-06	3.409680e-08	4.402382e+01	2.244386e+03
1.810000e-06	6.124900e-06	3.426394e-08	4.377898e+01	2.241071e+03
1.820000e-06	6.088635e-06	3.412595e-08	4.351977e+01	2.237484e+03
1.830000e-06	6.050236e-06	3.406310e-08	4.324530e+01	2.233555e+03
1.840000e-06	6.009334e-06	3.415971e-08	4.295294e+01	2.229227e+03
1.850000e-06	5.966402e-06	3.384294e-08	4.264608e+01	2.224462e+03
1.860000e-06	5.921461e-06	3.386549e-08	4.232485e+01	2.219251e+03
1.870000e-06	5.874350e-06	3.378553e-08	4.198812e+01	2.213609e+03
1.880000e-06	5.825140e-06	3.361904e-08	4.163638e+01	2.207575e+03
1.890000e-06	5.773430e-06	3.366488e-08	4.126677e+01	2.201197e+03
1.900000e-06	5.719243e-06	3.341954e-08	4.087946e+01	2.194526e+03
1.910000e-06	5.662786e-06	3.339219e-08	4.047592e+01	2.187600e+03
1.920000e-06	5.604250e-06	3.330162e-08	4.005752e+01	2.180438e+03
1.930000e-06	5.543861e-06	3.311462e-08	3.962588e+01	2.173036e+03
1.940000e-06	5.481355e-06	3.308542e-08	3.917911e+01	2.165366e+03
1.950000e-06	5.416691e-06	3.287344e-08	3.871691e+01	2.157388e+03
1.960000e-06	5.349981e-06	3.283812e-08	3.824009e+01	2.149052e+03
1.970000e-06	5.281228e-06	3.264109e-08	3.774866e+01	2.140316e+03
1.980000e-06	5.210384e-06	3.248073e-08	3.724229e+01	2.131146e+03
1.990000e-06	5.137570e-06	3.241403e-08	3.672183e+01	2.121528e+03
2.000000e-06	5.063039e-06	3.220262e-08	3.618911e+01	2.111462e+03
2.010000e-06	4.986499e-06	3.210615e-08	3.564202e+01	2.100961e+03
2.020000e-06	4.907825e-06	3.187013e-08	3.507969e+01	2.090039e+03
2.030000e-06	4.827328e-06	3.172546e-08	3.450432e+01	2.078705e+03
2.040000e-06	4.745256e-06	3.156096e-08	3.391769e+01	2.066955e+03
2.050000e-06	4.661644e-06	3.135774e-08	3.332005e+01	2.054767e+03
2.060000e-06	4.576393e-06	3.118924e-08	3.271071e+01	2.042104e+03
2.070000e-06	4.489486e-06	3.095757e-08	3.208952e+01	2.028919e+03
2.080000e-06	4.400888e-06	3.077939e-08	3.145624e+01	2.015162e+03
2.090000e-06	4.310817e-06	3.052836e-08	3.081244e+01	2.000788e+03
2.100000e-06	4.219332e-06	3.032039e-08	3.015854e+01	1.985764e+03
2.110000e-06	4.126346e-06	3.008940e-08	2.949391e+01	1.970072e+03
2.120000e-06	4.031894e-06	2.984311e-08	2.881879e+01	1.953707e+03
2.130000e-06	3.935987e-06	2.958568e-08	2.813327e+01	1.936669e+03
2.140000e-06	3.838718e-06	2.929957e-08	2.743802e+01	1.918957e+03
2.150000e-06	3.740169e-06	2.903165e-08	2.673362e+01	1.900559e+03
2.160000e-06	3.640242e-06	2.873397e-08	2.601937e+01	1.881449e+03
2.170000e-06	3.538835e-06	2.844643e-08	2.529455e+01	1.861581e+03
2.180000e-06	3.436057e-06	2.812413e-08	2.455992e+01	1.840893e+03
2.190000e-06	3.331996e-06	2.780167e-08	2.381613e+01	1.819315e+03
2.200000e-06	3.226734e-06	2.745259e-08	2.306374e+01	1.796770e+03
2.210000e-06	3.120378e-06	2.709517e-08	2.230354e+01	1.773186e+03
2.220000e-06	3.012913e-06	2.672271e-08	2.153541e+01	1.748496e+03
2.230000e-06	2.904322e-06	2.633004e-08	2.075924e+01	1.722642e+03
2.240000e-06	2.794764e-06	2.591859e-08	1.997615e+01	1.695566e+03
2.250000e-06	2.684230e-06	2.548369e-08	1.918608e+01	1.667207e+03
2.260000e-06	2.572609e-06	2.503442e-08	1.838825e+01	1.637492e+03
2.270000e-06	2.459909e-06	2.455673e-08	1.758270e+01	1.606332e+03
2.280000e-06	2.346236e-06	2.406485e-08	1.677020e+01	1.573618e+03
2.290000e-06	2.231675e-06	2.353994e-08	1.595135e+01	1.539224e+03
2.300000e-06	2.116226e-06	2.298830e-08	1.512616e+01	1.503012e+03
2.310000e-06	1.999861e-06	2.240479e-08	1.429442e+01	1.464836e+03
2.320000e-06	1.882692e-06	2.179332e-08	1.345693e+01	1.424551e+03
2.330000e-06	1.764921e-06	2.114656e-08	1.261513e+01	1.382009e+03
2.340000e-06	1.646545e-06	2.046256e-08	1.176902e+01	1.337065e+03
2.350000e-06	1.527466e-06	1.974090e-08	1.091788e+01	1.289570e+03
2.360000e-06	1.407694e-06	1.897685e-08	1.006178e+01	1.239369e+03
2.370000e-06	1.287396e-06	1.816921e-08	9.201928e+00	1.186302e+03
2.380000e-06	1.166742e-06	1.731287e-08	8.339530e+00	1.130216e+03
2.390000e-06	1.045784e-06	1.641240e-08	7.474953e+00	1.070979e+03
2.400000e-06	9.244865e-07	1.546096e-08	6.607957e+00	1.008508e+03
2.410000e-06	8.029129e-07	1.446070e-08	5.738984e+00	9.428011e+02
2.420000e-06	6.811132e-07	1.341221e-08	4.868396e+00	8.739691e+02
2.430000e-06	5.591193e-07	1.231773e-08	3.996419e+00	8.022554e+02
2.440000e-06	4.369729e-07	1.118385e-08	3.123353e+00	7.280409e+02
2.450000e-06	3.147066e-07	1.001689e-08	2.249430e+00	6.518264e+02
2.460000e-06	1.923619e-07	8.829307e-09	1.374946e+00	5.741902e+02
2.470000e-06	6.993113e-08	7.629055e-09	4.998470e-01	4.957255e+02
2.480000e-06	-5.254136e-08	6.426505e-09	-3.755501e-01	4.169660e+02
2.490000e-06	-1.750066e-07	5.226893e-09	-1.250896e+00	3.383114e+02
2.500000e-06	-2.974420e-07	4.031938e-09	-2.126028e+00	2.599681e+02
2.510000e-06	-4.197701e-07	2.841738e-09	-3.000393e+00	1.819171e+02
2.520000e-06	-5.419972e-07	1.648860e-09	-3.874036e+00	1.039179e+02
2.530000e-06	-6.641303e-07	4.497814e-10	-4.747007e+00	2.555158e+01
2.540000e-06	-7.860720e-07	-7.616502e-10	-5.618610e+00	-5.370161e+01
2.550000e-06	-9.077800e-07	-1.993656e-09	-6.488544e+00	-1.343627e+02
2.560000e-06	-1.029200e-06	-3.252766e-09	-7.356416e+00	-2.168473e+02
2.570000e-06	-1.150273e-06	-4.542297e-09	-8.221812e+00	-3.013708e+02
2.580000e-06	-1.270994e-06	-5.859089e-09	-9.084686e+00	-3.878811e+02
2.590000e-06	-1.391291e-06	-7.200795e-09	-9.944535e+00	-4.760320e+02
2.600000e-06	-1.511080e-06	-8.560797e-09	-1.080075e+01	-5.651996e+02
2.610000e-06	-1.630214e-06	-9.926876e-09	-1.165229e+01	-6.545408e+02
2.620000e-06	-1.748579e-06	-1.128319e-08	-1.249832e+01	-7.430821e+02
2.630000e-06	-1.866217e-06	-1.261381e-08	-1.333917e+01	-8.298233e+02
2.640000e-06	-1.983083e-06	-1.390413e-08	-1.417449e+01	-9.138400e+02
2.650000e-06	-2.099120e-06	-1.514049e-08	-1.500389e+01	-9.943681e+02
2.660000e-06	-2.214249e-06	-1.631301e-08	-1.582680e+01	-1.070860e+03
2.670000e-06	-2.328334e-06	-1.741753e-08	-1.664225e+01	-1.143004e+03
2.680000e-06	-2.441356e-06	-1.845478e-08	-1.745009e+01	-1.210714e+03
2.690000e-06	-2.553399e-06	-1.942688e-08	-1.825094e+01	-1.274089e+03
2.700000e-06	-2.664460e-06	-2.033695e-08	-1.904477e+01	-1.333358e+03
2.710000e-06	-2.774403e-06	-2.118842e-08	-1.983061e+01	-1.388823e+03
2.720000e-06	-2.883386e-06	-2.198829e-08	-2.060959e+01	-1.440801e+03
2.730000e-06	-2.991532e-06	-2.273996e-08	-2.138258e+01	-1.489593e+03
2.740000e-06	-3.098718e-06	-2.344395e-08	-2.214872e+01	-1.535455e+03
2.750000e-06	-3.204886e-06	-2.410326e-08	-2.290758e+01	-1.578597e+03
2.760000e-06	-3.309980e-06	-2.472422e-08	-2.365876e+01	-1.619190e+03
2.770000e-06	-3.413954e-06	-2.531162e-08	-2.440194e+01	-1.657381e+03
2.780000e-06	-3.516615e-06	-2.586314e-08	-2.513573e+01	-1.693306e+03
2.790000e-06	-3.617912e-06	-2.637917e-08	-2.585977e+01	-1.727105e+03
2.800000e-06	-3.717932e-06	-2.686458e-08	-2.657468e+01	-1.758925e+03
2.810000e-06	-3.816632e-06	-2.732483e-08	-2.728016e+01	-1.788919e+03
2.820000e-06	-3.914045e-06	-2.775930e-08	-2.797644e+01	-1.817237e+03
2.830000e-06	-4.010185e-06	-2.816938e-08	-2.866362e+01	-1.844023e+03
2.840000e-06	-4.104906e-06	-2.855990e-08	-2.934065e+01	-1.869403e+03
2.850000e-06	-4.198153e-06	-2.893090e-08	-3.000716e+01	-1.893482e+03
2.860000e-06	-4.289910e-06	-2.928135e-08	-3.066301e+01	-1.916344e+03
2.870000e-06	-4.380156e-06	-2.961151e-08	-3.130806e+01	-1.938054e+03
2.880000e-06	-4.468893e-06	-2.992372e-08	-3.194233e+01	-1.958666e+03
2.890000e-06	-4.555960e-06	-3.022102e-08	-3.256466e+01	-1.978228e+03
2.900000e-06	-4.641324e-06	-3.050616e-08	-3.317482e+01	-1.996789e+03
2.910000e-06	-4.725027e-06	-3.077796e-08	-3.377309e+01	-2.014398e+03
2.920000e-06	-4.807086e-06	-3.103443e-08	-3.435963e+01	-2.031111e+03
2.930000e-06	-4.887459e-06	-3.127778e-08	-3.493411e+01	-2.046984e+03
2.940000e-06	-4.965941e-06	-3.151143e-08	-3.549508e+01	-2.062072e+03
