# Temperatura_=_81.74
# Concentracion g/m^3_=_28200.0
# C_Vs_to_Am_M_A/Vsm_=_65563218390.804596
# pendiente_HvsI_1/m_=_3716.3
# ordenada_HvsI_A/m_=_1297.0
# frecuencia_Hz_=_302142.48748959124

Tiempo_(s)	Campo_(V.s)	Magnetizacion_(V.s)	Campo_(kA/m)	Magnetizacion_(A/m)
0.000000e+00	-6.422196e-06	-3.531529e-08	-4.585346e+01	-2.312532e+03
1.000000e-08	-6.419113e-06	-3.530793e-08	-4.583145e+01	-2.311918e+03
2.000000e-08	-6.413893e-06	-3.529101e-08	-4.579418e+01	-2.311022e+03
3.000000e-08	-6.406788e-06	-3.527411e-08	-4.574345e+01	-2.309854e+03
4.000000e-08	-6.397634e-06	-3.525278e-08	-4.567809e+01	-2.308428e+03
5.000000e-08	-6.386103e-06	-3.522446e-08	-4.559576e+01	-2.306762e+03
6.000000e-08	-6.372170e-06	-3.519066e-08	-4.549628e+01	-2.304872e+03
7.000000e-08	-6.355932e-06	-3.514563e-08	-4.538035e+01	-2.302767e+03
8.000000e-08	-6.337614e-06	-3.512866e-08	-4.524956e+01	-2.300453e+03
9.000000e-08	-6.317147e-06	-3.517020e-08	-4.510342e+01	-2.297934e+03
1.000000e-07	-6.294195e-06	-3.511138e-08	-4.493955e+01	-2.295214e+03
1.100000e-07	-6.268612e-06	-3.500182e-08	-4.475689e+01	-2.292301e+03
1.200000e-07	-6.240663e-06	-3.495823e-08	-4.455734e+01	-2.289208e+03
1.300000e-07	-6.210857e-06	-3.487125e-08	-4.434453e+01	-2.285948e+03
1.400000e-07	-6.179463e-06	-3.471910e-08	-4.412039e+01	-2.282532e+03
1.500000e-07	-6.146292e-06	-3.480404e-08	-4.388355e+01	-2.278959e+03
1.600000e-07	-6.111088e-06	-3.477578e-08	-4.363219e+01	-2.275213e+03
1.700000e-07	-6.073974e-06	-3.458879e-08	-4.336721e+01	-2.271260e+03
1.800000e-07	-6.034779e-06	-3.465146e-08	-4.308736e+01	-2.267050e+03
1.900000e-07	-5.993164e-06	-3.451036e-08	-4.279024e+01	-2.262521e+03
2.000000e-07	-5.949343e-06	-3.438630e-08	-4.247736e+01	-2.257613e+03
2.100000e-07	-5.903426e-06	-3.438359e-08	-4.214952e+01	-2.252279e+03
2.200000e-07	-5.855265e-06	-3.423240e-08	-4.180566e+01	-2.246493e+03
2.300000e-07	-5.804670e-06	-3.414764e-08	-4.144442e+01	-2.240253e+03
2.400000e-07	-5.751557e-06	-3.404630e-08	-4.106521e+01	-2.233586e+03
2.500000e-07	-5.696160e-06	-3.391470e-08	-4.066967e+01	-2.226533e+03
2.600000e-07	-5.638546e-06	-3.382989e-08	-4.025832e+01	-2.219140e+03
2.700000e-07	-5.578843e-06	-3.370677e-08	-3.983205e+01	-2.211448e+03
2.800000e-07	-5.517289e-06	-3.358908e-08	-3.939256e+01	-2.203474e+03
2.900000e-07	-5.453773e-06	-3.343756e-08	-3.893907e+01	-2.195216e+03
3.000000e-07	-5.388094e-06	-3.331479e-08	-3.847013e+01	-2.186645e+03
3.100000e-07	-5.320305e-06	-3.318238e-08	-3.798613e+01	-2.177715e+03
3.200000e-07	-5.250596e-06	-3.303522e-08	-3.748842e+01	-2.168375e+03
3.300000e-07	-5.179019e-06	-3.290254e-08	-3.697737e+01	-2.158582e+03
3.400000e-07	-5.105496e-06	-3.271147e-08	-3.645243e+01	-2.148309e+03
3.500000e-07	-5.029893e-06	-3.255689e-08	-3.591263e+01	-2.137547e+03
3.600000e-07	-4.952192e-06	-3.238985e-08	-3.535786e+01	-2.126307e+03
3.700000e-07	-4.872475e-06	-3.220929e-08	-3.478870e+01	-2.114612e+03
3.800000e-07	-4.790909e-06	-3.204147e-08	-3.420633e+01	-2.102479e+03
3.900000e-07	-4.707770e-06	-3.184299e-08	-3.361273e+01	-2.089919e+03
4.000000e-07	-4.623146e-06	-3.163024e-08	-3.300853e+01	-2.076920e+03
4.100000e-07	-4.537150e-06	-3.141509e-08	-3.239453e+01	-2.063453e+03
4.200000e-07	-4.449769e-06	-3.121040e-08	-3.177064e+01	-2.049471e+03
4.300000e-07	-4.360818e-06	-3.098697e-08	-3.113555e+01	-2.034921e+03
4.400000e-07	-4.270208e-06	-3.075041e-08	-3.048860e+01	-2.019753e+03
4.500000e-07	-4.178019e-06	-3.051411e-08	-2.983039e+01	-2.003931e+03
4.600000e-07	-4.084414e-06	-3.025677e-08	-2.916206e+01	-1.987433e+03
4.700000e-07	-3.989419e-06	-2.999478e-08	-2.848382e+01	-1.970255e+03
4.800000e-07	-3.893007e-06	-2.972665e-08	-2.779545e+01	-1.952399e+03
4.900000e-07	-3.795170e-06	-2.944914e-08	-2.709691e+01	-1.933864e+03
5.000000e-07	-3.695808e-06	-2.915470e-08	-2.638748e+01	-1.914638e+03
5.100000e-07	-3.595007e-06	-2.884645e-08	-2.566778e+01	-1.894689e+03
5.200000e-07	-3.493030e-06	-2.852759e-08	-2.493968e+01	-1.873963e+03
5.300000e-07	-3.389861e-06	-2.819302e-08	-2.420307e+01	-1.852393e+03
5.400000e-07	-3.285382e-06	-2.784619e-08	-2.345710e+01	-1.829900e+03
5.500000e-07	-3.179676e-06	-2.748623e-08	-2.270238e+01	-1.806410e+03
5.600000e-07	-3.072687e-06	-2.711442e-08	-2.193850e+01	-1.781859e+03
5.700000e-07	-2.964441e-06	-2.672330e-08	-2.116564e+01	-1.756195e+03
5.800000e-07	-2.855167e-06	-2.631544e-08	-2.038544e+01	-1.729377e+03
5.900000e-07	-2.744962e-06	-2.589144e-08	-1.959859e+01	-1.701363e+03
6.000000e-07	-2.633851e-06	-2.544755e-08	-1.880528e+01	-1.672099e+03
6.100000e-07	-2.521760e-06	-2.497903e-08	-1.800496e+01	-1.641510e+03
6.200000e-07	-2.408627e-06	-2.448465e-08	-1.719721e+01	-1.609488e+03
6.300000e-07	-2.294399e-06	-2.396605e-08	-1.638164e+01	-1.575901e+03
6.400000e-07	-2.179091e-06	-2.342131e-08	-1.555837e+01	-1.540591e+03
6.500000e-07	-2.062904e-06	-2.285166e-08	-1.472881e+01	-1.503393e+03
6.600000e-07	-1.946011e-06	-2.225333e-08	-1.389421e+01	-1.464142e+03
6.700000e-07	-1.828422e-06	-2.162459e-08	-1.305464e+01	-1.422689e+03
6.800000e-07	-1.710217e-06	-2.096051e-08	-1.221068e+01	-1.378894e+03
6.900000e-07	-1.591520e-06	-2.025674e-08	-1.136320e+01	-1.332627e+03
7.000000e-07	-1.472372e-06	-1.951143e-08	-1.051250e+01	-1.283752e+03
7.100000e-07	-1.352717e-06	-1.872079e-08	-9.658184e+00	-1.232118e+03
7.200000e-07	-1.232559e-06	-1.788416e-08	-8.800274e+00	-1.177553e+03
7.300000e-07	-1.111972e-06	-1.699845e-08	-7.939302e+00	-1.119868e+03
7.400000e-07	-9.909683e-07	-1.606261e-08	-7.075356e+00	-1.058881e+03
7.500000e-07	-8.696192e-07	-1.507704e-08	-6.208943e+00	-9.944524e+02
7.600000e-07	-7.479527e-07	-1.404309e-08	-5.340263e+00	-9.265270e+02
7.700000e-07	-6.260046e-07	-1.295844e-08	-4.469573e+00	-8.551769e+02
7.800000e-07	-5.038543e-07	-1.182603e-08	-3.597440e+00	-7.806295e+02
7.900000e-07	-3.815574e-07	-1.064904e-08	-2.724259e+00	-7.032699e+02
8.000000e-07	-2.590764e-07	-9.432272e-09	-1.849764e+00	-6.236137e+02
8.100000e-07	-1.364285e-07	-8.189341e-09	-9.740775e-01	-5.422485e+02
8.200000e-07	-1.370476e-08	-6.931508e-09	-9.784984e-02	-4.597530e+02
8.300000e-07	1.090502e-07	-5.667629e-09	7.786013e-01	-3.766074e+02
8.400000e-07	2.317986e-07	-4.397643e-09	1.655005e+00	-2.931145e+02
8.500000e-07	3.544973e-07	-3.119991e-09	2.531054e+00	-2.093493e+02
8.600000e-07	4.771010e-07	-1.834519e-09	3.406425e+00	-1.251514e+02
8.700000e-07	5.995646e-07	-5.378558e-10	4.280796e+00	-4.016571e+01
8.800000e-07	7.218411e-07	7.738879e-10	5.153830e+00	4.607263e+01
8.900000e-07	8.438437e-07	2.110028e-09	6.024910e+00	1.340223e+02
9.000000e-07	9.654764e-07	3.476787e-09	6.893348e+00	2.240108e+02
9.100000e-07	1.086722e-06	4.878084e-09	7.759024e+00	3.161249e+02
9.200000e-07	1.207552e-06	6.312730e-09	8.621731e+00	4.101364e+02
9.300000e-07	1.327889e-06	7.768289e-09	9.480913e+00	5.054820e+02
9.400000e-07	1.447724e-06	9.229192e-09	1.033652e+01	6.012981e+02
9.500000e-07	1.567086e-06	1.067985e-08	1.118874e+01	6.965076e+02
9.600000e-07	1.685842e-06	1.210212e-08	1.203664e+01	7.899411e+02
9.700000e-07	1.803918e-06	1.347579e-08	1.287969e+01	8.804702e+02
9.800000e-07	1.921418e-06	1.478768e-08	1.371862e+01	9.671291e+02
9.900000e-07	2.038233e-06	1.602871e-08	1.455266e+01	1.049205e+03
1.000000e-06	2.154177e-06	1.719365e-08	1.538048e+01	1.126283e+03
1.010000e-06	2.269200e-06	1.828297e-08	1.620173e+01	1.198245e+03
1.020000e-06	2.383192e-06	1.929883e-08	1.701561e+01	1.265221e+03
1.030000e-06	2.496153e-06	2.024676e-08	1.782214e+01	1.327521e+03
1.040000e-06	2.608135e-06	2.113029e-08	1.862167e+01	1.385553e+03
1.050000e-06	2.719150e-06	2.195302e-08	1.941430e+01	1.439742e+03
1.060000e-06	2.829227e-06	2.272082e-08	2.020023e+01	1.490477e+03
1.070000e-06	2.938361e-06	2.343962e-08	2.097943e+01	1.538077e+03
1.080000e-06	3.046592e-06	2.411458e-08	2.175218e+01	1.582791e+03
1.090000e-06	3.153809e-06	2.474822e-08	2.251769e+01	1.624807e+03
1.100000e-06	3.259771e-06	2.534441e-08	2.327425e+01	1.664282e+03
1.110000e-06	3.364380e-06	2.590565e-08	2.402114e+01	1.701364e+03
1.120000e-06	3.467685e-06	2.643575e-08	2.475872e+01	1.736210e+03
1.130000e-06	3.569853e-06	2.693506e-08	2.548819e+01	1.768993e+03
1.140000e-06	3.670907e-06	2.740566e-08	2.620970e+01	1.799897e+03
1.150000e-06	3.770728e-06	2.785078e-08	2.692240e+01	1.829100e+03
1.160000e-06	3.869096e-06	2.827159e-08	2.762473e+01	1.856763e+03
1.170000e-06	3.965904e-06	2.866846e-08	2.831593e+01	1.883017e+03
1.180000e-06	4.061287e-06	2.904517e-08	2.899694e+01	1.907958e+03
1.190000e-06	4.155316e-06	2.940430e-08	2.966829e+01	1.931651e+03
1.200000e-06	4.248040e-06	2.974485e-08	3.033033e+01	1.954142e+03
1.210000e-06	4.339362e-06	3.006837e-08	3.098236e+01	1.975472e+03
1.220000e-06	4.429047e-06	3.037664e-08	3.162269e+01	1.995687e+03
1.230000e-06	4.516974e-06	3.066963e-08	3.225047e+01	2.014848e+03
1.240000e-06	4.603246e-06	3.094570e-08	3.286645e+01	2.033027e+03
1.250000e-06	4.688077e-06	3.120781e-08	3.347212e+01	2.050306e+03
1.260000e-06	4.771406e-06	3.145755e-08	3.406708e+01	2.066766e+03
1.270000e-06	4.852939e-06	3.169523e-08	3.464922e+01	2.082472e+03
1.280000e-06	4.932609e-06	3.192248e-08	3.521805e+01	2.097475e+03
1.290000e-06	5.010496e-06	3.214047e-08	3.577414e+01	2.111804e+03
1.300000e-06	5.086419e-06	3.234728e-08	3.631623e+01	2.125473e+03
1.310000e-06	5.160204e-06	3.254346e-08	3.684304e+01	2.138487e+03
1.320000e-06	5.232046e-06	3.272952e-08	3.735598e+01	2.150855e+03
1.330000e-06	5.302056e-06	3.290672e-08	3.785584e+01	2.162593e+03
1.340000e-06	5.370266e-06	3.307709e-08	3.834285e+01	2.173731e+03
1.350000e-06	5.436518e-06	3.324058e-08	3.881587e+01	2.184306e+03
1.360000e-06	5.500679e-06	3.339593e-08	3.927397e+01	2.194362e+03
1.370000e-06	5.562928e-06	3.354386e-08	3.971842e+01	2.203937e+03
1.380000e-06	5.623344e-06	3.368456e-08	4.014978e+01	2.213056e+03
1.390000e-06	5.681759e-06	3.381880e-08	4.056685e+01	2.221730e+03
1.400000e-06	5.738018e-06	3.394671e-08	4.096854e+01	2.229955e+03
1.410000e-06	5.792267e-06	3.406691e-08	4.135586e+01	2.237715e+03
1.420000e-06	5.844302e-06	3.417825e-08	4.172739e+01	2.244997e+03
1.430000e-06	5.893829e-06	3.428073e-08	4.208100e+01	2.251796e+03
1.440000e-06	5.941028e-06	3.437731e-08	4.241799e+01	2.258123e+03
1.450000e-06	5.986239e-06	3.446796e-08	4.274080e+01	2.264006e+03
1.460000e-06	6.029475e-06	3.455092e-08	4.304949e+01	2.269487e+03
1.470000e-06	6.070509e-06	3.462844e-08	4.334247e+01	2.274616e+03
1.480000e-06	6.109334e-06	3.470345e-08	4.361967e+01	2.279435e+03
1.490000e-06	6.146148e-06	3.477415e-08	4.388252e+01	2.283973e+03
1.500000e-06	6.180867e-06	3.484025e-08	4.413040e+01	2.288239e+03
1.510000e-06	6.213271e-06	3.490160e-08	4.436177e+01	2.292221e+03
1.520000e-06	6.243513e-06	3.495810e-08	4.457769e+01	2.295892e+03
1.530000e-06	6.271755e-06	3.501000e-08	4.477933e+01	2.299218e+03
1.540000e-06	6.297654e-06	3.505539e-08	4.496425e+01	2.302170e+03
1.550000e-06	6.320999e-06	3.509465e-08	4.513093e+01	2.304732e+03
1.560000e-06	6.342150e-06	3.512844e-08	4.528194e+01	2.306909e+03
1.570000e-06	6.361192e-06	3.515664e-08	4.541790e+01	2.308723e+03
1.580000e-06	6.377931e-06	3.517960e-08	4.553741e+01	2.310211e+03
1.590000e-06	6.392311e-06	3.519799e-08	4.564009e+01	2.311413e+03
1.600000e-06	6.404232e-06	3.521302e-08	4.572520e+01	2.312365e+03
1.610000e-06	6.413533e-06	3.522566e-08	4.579161e+01	2.313093e+03
1.620000e-06	6.420388e-06	3.523656e-08	4.584055e+01	2.313605e+03
1.630000e-06	6.425082e-06	3.524425e-08	4.587406e+01	2.313894e+03
1.640000e-06	6.427542e-06	3.524743e-08	4.589162e+01	2.313943e+03
1.650000e-06	6.427678e-06	3.524604e-08	4.589260e+01	2.313733e+03
1.660000e-06	6.425663e-06	3.523105e-08	4.587821e+01	2.313249e+03
1.670000e-06	6.421617e-06	3.521666e-08	4.584933e+01	2.312483e+03
1.680000e-06	6.415357e-06	3.520458e-08	4.580463e+01	2.311440e+03
1.690000e-06	6.406921e-06	3.518939e-08	4.574439e+01	2.310131e+03
1.700000e-06	6.396484e-06	3.517185e-08	4.566988e+01	2.308575e+03
1.710000e-06	6.383838e-06	3.515269e-08	4.557958e+01	2.306787e+03
1.720000e-06	6.368882e-06	3.514627e-08	4.547280e+01	2.304780e+03
1.730000e-06	6.351925e-06	3.508185e-08	4.535173e+01	2.302562e+03
1.740000e-06	6.332931e-06	3.494943e-08	4.521612e+01	2.300138e+03
1.750000e-06	6.311065e-06	3.494378e-08	4.506000e+01	2.297511e+03
1.760000e-06	6.286082e-06	3.495302e-08	4.488163e+01	2.294686e+03
1.770000e-06	6.258721e-06	3.488976e-08	4.468627e+01	2.291675e+03
1.780000e-06	6.229435e-06	3.495840e-08	4.447718e+01	2.288490e+03
1.790000e-06	6.198477e-06	3.488113e-08	4.425614e+01	2.285146e+03
1.800000e-06	6.166056e-06	3.469865e-08	4.402466e+01	2.281646e+03
1.810000e-06	6.131725e-06	3.480129e-08	4.377954e+01	2.277984e+03
1.820000e-06	6.095310e-06	3.465540e-08	4.351954e+01	2.274132e+03
1.830000e-06	6.056787e-06	3.456394e-08	4.324449e+01	2.270049e+03
1.840000e-06	6.015927e-06	3.467167e-08	4.295276e+01	2.265675e+03
1.850000e-06	5.973036e-06	3.444504e-08	4.264653e+01	2.260950e+03
1.860000e-06	5.928091e-06	3.442031e-08	4.232562e+01	2.255818e+03
1.870000e-06	5.880921e-06	3.434247e-08	4.198884e+01	2.250244e+03
1.880000e-06	5.831652e-06	3.418088e-08	4.163706e+01	2.244213e+03
1.890000e-06	5.779959e-06	3.421035e-08	4.126799e+01	2.237740e+03
1.900000e-06	5.725709e-06	3.401478e-08	4.088065e+01	2.230860e+03
1.910000e-06	5.669210e-06	3.394485e-08	4.047726e+01	2.223619e+03
1.920000e-06	5.610691e-06	3.386570e-08	4.005944e+01	2.216061e+03
1.930000e-06	5.550320e-06	3.368818e-08	3.962840e+01	2.208217e+03
1.940000e-06	5.487804e-06	3.362825e-08	3.918204e+01	2.200094e+03
1.950000e-06	5.423061e-06	3.343328e-08	3.871979e+01	2.191672e+03
1.960000e-06	5.356283e-06	3.335709e-08	3.824301e+01	2.182915e+03
1.970000e-06	5.287534e-06	3.318360e-08	3.775215e+01	2.173771e+03
1.980000e-06	5.216718e-06	3.300926e-08	3.724653e+01	2.164193e+03
1.990000e-06	5.143867e-06	3.291757e-08	3.672639e+01	2.154145e+03
2.000000e-06	5.069204e-06	3.271747e-08	3.619331e+01	2.143609e+03
2.010000e-06	4.992557e-06	3.259476e-08	3.564606e+01	2.132589e+03
2.020000e-06	4.913853e-06	3.237726e-08	3.508413e+01	2.121102e+03
2.030000e-06	4.833309e-06	3.220499e-08	3.450906e+01	2.109170e+03
2.040000e-06	4.751187e-06	3.203614e-08	3.392272e+01	2.096809e+03
2.050000e-06	4.667480e-06	3.182388e-08	3.332506e+01	2.084016e+03
2.060000e-06	4.582071e-06	3.164153e-08	3.271526e+01	2.070771e+03
2.070000e-06	4.494958e-06	3.141211e-08	3.209328e+01	2.057034e+03
2.080000e-06	4.406227e-06	3.121179e-08	3.145976e+01	2.042754e+03
2.090000e-06	4.316036e-06	3.096542e-08	3.081581e+01	2.027879e+03
2.100000e-06	4.224398e-06	3.074106e-08	3.016153e+01	2.012364e+03
2.110000e-06	4.131350e-06	3.050454e-08	2.949718e+01	1.996181e+03
2.120000e-06	4.036852e-06	3.024248e-08	2.882248e+01	1.979319e+03
2.130000e-06	3.940833e-06	2.997533e-08	2.813692e+01	1.961777e+03
2.140000e-06	3.843432e-06	2.968713e-08	2.744150e+01	1.943558e+03
2.150000e-06	3.744725e-06	2.940920e-08	2.673674e+01	1.924655e+03
2.160000e-06	3.644678e-06	2.910584e-08	2.602242e+01	1.905047e+03
2.170000e-06	3.543289e-06	2.880531e-08	2.529852e+01	1.884689e+03
2.180000e-06	3.440474e-06	2.847957e-08	2.456444e+01	1.863520e+03
2.190000e-06	3.336250e-06	2.814191e-08	2.382029e+01	1.841465e+03
2.200000e-06	3.230801e-06	2.778432e-08	2.306740e+01	1.818447e+03
2.210000e-06	3.124259e-06	2.741873e-08	2.230671e+01	1.794395e+03
2.220000e-06	3.016669e-06	2.704054e-08	2.153853e+01	1.769254e+03
2.230000e-06	2.908047e-06	2.664002e-08	2.076299e+01	1.742977e+03
2.240000e-06	2.798453e-06	2.622290e-08	1.998051e+01	1.715523e+03
2.250000e-06	2.687737e-06	2.578687e-08	1.919002e+01	1.686848e+03
2.260000e-06	2.575900e-06	2.533567e-08	1.839151e+01	1.656885e+03
2.270000e-06	2.463058e-06	2.485568e-08	1.758584e+01	1.625543e+03
2.280000e-06	2.349207e-06	2.435670e-08	1.677297e+01	1.592701e+03
2.290000e-06	2.234494e-06	2.382787e-08	1.595393e+01	1.558211e+03
2.300000e-06	2.118949e-06	2.327171e-08	1.512896e+01	1.521910e+03
2.310000e-06	2.002503e-06	2.268745e-08	1.429755e+01	1.483632e+03
2.320000e-06	1.885230e-06	2.207462e-08	1.346025e+01	1.443219e+03
2.330000e-06	1.767270e-06	2.142747e-08	1.261803e+01	1.400528e+03
2.340000e-06	1.648613e-06	2.074175e-08	1.177084e+01	1.355424e+03
2.350000e-06	1.529237e-06	2.001657e-08	1.091851e+01	1.307778e+03
2.360000e-06	1.409231e-06	1.925032e-08	1.006169e+01	1.257445e+03
2.370000e-06	1.288772e-06	1.844082e-08	9.201627e+00	1.204263e+03
2.380000e-06	1.168043e-06	1.758326e-08	8.339642e+00	1.148050e+03
2.390000e-06	1.047062e-06	1.667771e-08	7.475855e+00	1.088617e+03
2.400000e-06	9.257528e-07	1.571783e-08	6.609728e+00	1.025799e+03
2.410000e-06	8.041077e-07	1.470694e-08	5.741201e+00	9.594968e+02
2.420000e-06	6.821909e-07	1.364530e-08	4.870735e+00	8.897182e+02
2.430000e-06	5.600800e-07	1.253213e-08	3.998882e+00	8.166165e+02
2.440000e-06	4.377851e-07	1.137108e-08	3.125716e+00	7.405052e+02
2.450000e-06	3.153609e-07	1.016891e-08	2.251627e+00	6.618447e+02
2.460000e-06	1.927987e-07	8.937014e-09	1.376552e+00	5.811983e+02
2.470000e-06	7.012816e-08	7.683659e-09	5.007039e-01	4.991597e+02
2.480000e-06	-5.255954e-08	6.417257e-09	-3.752667e-01	4.162657e+02
2.490000e-06	-1.752428e-07	5.143463e-09	-1.251206e+00	3.329100e+02
2.500000e-06	-2.978700e-07	3.865583e-09	-2.126744e+00	2.492771e+02
2.510000e-06	-4.204053e-07	2.583626e-09	-3.001627e+00	1.653139e+02
2.520000e-06	-5.428285e-07	1.290982e-09	-3.875709e+00	8.074739e+01
2.530000e-06	-6.651668e-07	-1.951442e-11	-4.749185e+00	-4.849189e+00
2.540000e-06	-7.873195e-07	-1.349997e-09	-5.621336e+00	-9.195288e+01
2.550000e-06	-9.092103e-07	-2.705213e-09	-6.491617e+00	-1.809673e+02
2.560000e-06	-1.030789e-06	-4.092491e-09	-7.359670e+00	-2.721028e+02
2.570000e-06	-1.151989e-06	-5.513040e-09	-8.225019e+00	-3.652834e+02
2.580000e-06	-1.272807e-06	-6.960644e-09	-9.087640e+00	-4.601005e+02
2.590000e-06	-1.393169e-06	-8.425385e-09	-9.947008e+00	-5.558217e+02
2.600000e-06	-1.513027e-06	-9.892442e-09	-1.080278e+01	-6.514559e+02
2.610000e-06	-1.632329e-06	-1.134103e-08	-1.165457e+01	-7.458601e+02
2.620000e-06	-1.750964e-06	-1.275148e-08	-1.250161e+01	-8.378703e+02
2.630000e-06	-1.868837e-06	-1.410725e-08	-1.334320e+01	-9.264318e+02
2.640000e-06	-1.985879e-06	-1.539688e-08	-1.417886e+01	-1.010706e+03
2.650000e-06	-2.102072e-06	-1.661236e-08	-1.500846e+01	-1.090137e+03
2.660000e-06	-2.217307e-06	-1.775044e-08	-1.583122e+01	-1.164472e+03
2.670000e-06	-2.331561e-06	-1.881350e-08	-1.664698e+01	-1.233733e+03
2.680000e-06	-2.444860e-06	-1.980433e-08	-1.745591e+01	-1.298157e+03
2.690000e-06	-2.557037e-06	-2.072584e-08	-1.825684e+01	-1.358118e+03
2.700000e-06	-2.668088e-06	-2.158661e-08	-1.904973e+01	-1.414040e+03
2.710000e-06	-2.778161e-06	-2.239059e-08	-1.983563e+01	-1.466334e+03
2.720000e-06	-2.887312e-06	-2.314291e-08	-2.061495e+01	-1.515355e+03
2.730000e-06	-2.995562e-06	-2.384921e-08	-2.138784e+01	-1.561382e+03
2.740000e-06	-3.102857e-06	-2.451107e-08	-2.215390e+01	-1.604630e+03
2.750000e-06	-3.209124e-06	-2.513219e-08	-2.291264e+01	-1.645267e+03
2.760000e-06	-3.314317e-06	-2.571755e-08	-2.366369e+01	-1.683441e+03
2.770000e-06	-3.418381e-06	-2.627148e-08	-2.440670e+01	-1.719305e+03
2.780000e-06	-3.521174e-06	-2.679079e-08	-2.514062e+01	-1.753023e+03
2.790000e-06	-3.622486e-06	-2.727626e-08	-2.586397e+01	-1.784777e+03
2.800000e-06	-3.722458e-06	-2.773422e-08	-2.657776e+01	-1.814748e+03
2.810000e-06	-3.821257e-06	-2.816816e-08	-2.728317e+01	-1.843108e+03
2.820000e-06	-3.918819e-06	-2.857910e-08	-2.797974e+01	-1.870003e+03
2.830000e-06	-4.015145e-06	-2.897017e-08	-2.866749e+01	-1.895544e+03
2.840000e-06	-4.110070e-06	-2.934373e-08	-2.934525e+01	-1.919809e+03
2.850000e-06	-4.203427e-06	-2.969861e-08	-3.001180e+01	-1.942854e+03
2.860000e-06	-4.295282e-06	-3.003292e-08	-3.066763e+01	-1.964718e+03
2.870000e-06	-4.385582e-06	-3.034874e-08	-3.131236e+01	-1.985444e+03
2.880000e-06	-4.474343e-06	-3.064742e-08	-3.194610e+01	-2.005086e+03
2.890000e-06	-4.561467e-06	-3.093162e-08	-3.256815e+01	-2.023711e+03
2.900000e-06	-4.646789e-06	-3.120306e-08	-3.317733e+01	-2.041398e+03
2.910000e-06	-4.730423e-06	-3.146104e-08	-3.377447e+01	-2.058229e+03
2.920000e-06	-4.812474e-06	-3.170778e-08	-3.436030e+01	-2.074278e+03
2.930000e-06	-4.892925e-06	-3.194458e-08	-3.493471e+01	-2.089603e+03
2.940000e-06	-4.971463e-06	-3.217144e-08	-3.549546e+01	-2.104242e+03
