# Temperatura_=_62.3
# Concentracion g/m^3_=_41000.0
# C_Vs_to_Am_M_A/Vsm_=_65563218390.804596
# pendiente_HvsI_1/m_=_3716.3
# ordenada_HvsI_A/m_=_1297.0
# frecuencia_Hz_=_301585.94191889104

Tiempo_(s)	Campo_(V.s)	Magnetizacion_(V.s)	Campo_(kA/m)	Magnetizacion_(A/m)
0.000000e+00	-5.314036e-06	-2.254810e-08	-3.834620e+01	-1.473622e+03
1.000000e-08	-5.311548e-06	-2.254387e-08	-3.832825e+01	-1.473353e+03
2.000000e-08	-5.307241e-06	-2.253462e-08	-3.829718e+01	-1.473185e+03
3.000000e-08	-5.301345e-06	-2.252602e-08	-3.825463e+01	-1.473060e+03
4.000000e-08	-5.293910e-06	-2.251675e-08	-3.820098e+01	-1.472877e+03
5.000000e-08	-5.284686e-06	-2.250483e-08	-3.813442e+01	-1.472520e+03
6.000000e-08	-5.273394e-06	-2.248903e-08	-3.805293e+01	-1.471898e+03
7.000000e-08	-5.260179e-06	-2.246399e-08	-3.795757e+01	-1.470971e+03
8.000000e-08	-5.244881e-06	-2.247271e-08	-3.784719e+01	-1.469762e+03
9.000000e-08	-5.227304e-06	-2.250534e-08	-3.772035e+01	-1.468352e+03
1.000000e-07	-5.207707e-06	-2.247273e-08	-3.757894e+01	-1.466853e+03
1.100000e-07	-5.186264e-06	-2.242685e-08	-3.742420e+01	-1.465378e+03
1.200000e-07	-5.163201e-06	-2.237491e-08	-3.725778e+01	-1.464007e+03
1.300000e-07	-5.138847e-06	-2.227897e-08	-3.708204e+01	-1.462765e+03
1.400000e-07	-5.112937e-06	-2.234716e-08	-3.689508e+01	-1.461615e+03
1.500000e-07	-5.085191e-06	-2.236968e-08	-3.669485e+01	-1.460475e+03
1.600000e-07	-5.055925e-06	-2.224102e-08	-3.648367e+01	-1.459241e+03
1.700000e-07	-5.025183e-06	-2.230061e-08	-3.626184e+01	-1.457819e+03
1.800000e-07	-4.992408e-06	-2.226352e-08	-3.602533e+01	-1.456151e+03
1.900000e-07	-4.957630e-06	-2.212640e-08	-3.577437e+01	-1.454232e+03
2.000000e-07	-4.921372e-06	-2.219253e-08	-3.551273e+01	-1.452099e+03
2.100000e-07	-4.883488e-06	-2.216319e-08	-3.523936e+01	-1.449823e+03
2.200000e-07	-4.843902e-06	-2.206682e-08	-3.495371e+01	-1.447472e+03
2.300000e-07	-4.802425e-06	-2.205461e-08	-3.465441e+01	-1.445093e+03
2.400000e-07	-4.758901e-06	-2.199724e-08	-3.434034e+01	-1.442688e+03
2.500000e-07	-4.713641e-06	-2.198090e-08	-3.401374e+01	-1.440215e+03
2.600000e-07	-4.666661e-06	-2.193126e-08	-3.367473e+01	-1.437599e+03
2.700000e-07	-4.617741e-06	-2.184522e-08	-3.332173e+01	-1.434760e+03
2.800000e-07	-4.566655e-06	-2.181584e-08	-3.295309e+01	-1.431635e+03
2.900000e-07	-4.513623e-06	-2.175511e-08	-3.257041e+01	-1.428203e+03
3.000000e-07	-4.459011e-06	-2.170273e-08	-3.217633e+01	-1.424495e+03
3.100000e-07	-4.402816e-06	-2.166567e-08	-3.177082e+01	-1.420582e+03
3.200000e-07	-4.344777e-06	-2.160154e-08	-3.135201e+01	-1.416558e+03
3.300000e-07	-4.285028e-06	-2.154018e-08	-3.092086e+01	-1.412507e+03
3.400000e-07	-4.223924e-06	-2.147623e-08	-3.047994e+01	-1.408476e+03
3.500000e-07	-4.161487e-06	-2.140857e-08	-3.002938e+01	-1.404460e+03
3.600000e-07	-4.097722e-06	-2.133736e-08	-2.956926e+01	-1.400400e+03
3.700000e-07	-4.032379e-06	-2.127861e-08	-2.909774e+01	-1.396202e+03
3.800000e-07	-3.965300e-06	-2.120133e-08	-2.861370e+01	-1.391761e+03
3.900000e-07	-3.896758e-06	-2.110564e-08	-2.811910e+01	-1.387000e+03
4.000000e-07	-3.826973e-06	-2.104672e-08	-2.761552e+01	-1.381890e+03
4.100000e-07	-3.756007e-06	-2.097320e-08	-2.710343e+01	-1.376460e+03
4.200000e-07	-3.683877e-06	-2.088739e-08	-2.658295e+01	-1.370790e+03
4.300000e-07	-3.610300e-06	-2.080427e-08	-2.605201e+01	-1.364983e+03
4.400000e-07	-3.535013e-06	-2.071518e-08	-2.550873e+01	-1.359133e+03
4.500000e-07	-3.458269e-06	-2.062317e-08	-2.495495e+01	-1.353293e+03
4.600000e-07	-3.380240e-06	-2.052640e-08	-2.439189e+01	-1.347454e+03
4.700000e-07	-3.300834e-06	-2.043498e-08	-2.381890e+01	-1.341543e+03
4.800000e-07	-3.220113e-06	-2.033735e-08	-2.323641e+01	-1.335445e+03
4.900000e-07	-3.138250e-06	-2.023466e-08	-2.264568e+01	-1.329035e+03
5.000000e-07	-3.055338e-06	-2.012732e-08	-2.204739e+01	-1.322213e+03
5.100000e-07	-2.971530e-06	-2.001380e-08	-2.144263e+01	-1.314938e+03
5.200000e-07	-2.886879e-06	-1.989711e-08	-2.083178e+01	-1.307237e+03
5.300000e-07	-2.801270e-06	-1.977872e-08	-2.021403e+01	-1.299198e+03
5.400000e-07	-2.714711e-06	-1.965994e-08	-1.958942e+01	-1.290939e+03
5.500000e-07	-2.627314e-06	-1.953583e-08	-1.895876e+01	-1.282568e+03
5.600000e-07	-2.539112e-06	-1.940565e-08	-1.832229e+01	-1.274146e+03
5.700000e-07	-2.449792e-06	-1.927025e-08	-1.767776e+01	-1.265658e+03
5.800000e-07	-2.359187e-06	-1.912862e-08	-1.702395e+01	-1.257013e+03
5.900000e-07	-2.267689e-06	-1.898271e-08	-1.636369e+01	-1.248066e+03
6.000000e-07	-2.175509e-06	-1.883417e-08	-1.569852e+01	-1.238655e+03
6.100000e-07	-2.082532e-06	-1.868055e-08	-1.502760e+01	-1.228650e+03
6.200000e-07	-1.988783e-06	-1.851725e-08	-1.435111e+01	-1.217988e+03
6.300000e-07	-1.894386e-06	-1.834519e-08	-1.366993e+01	-1.206693e+03
6.400000e-07	-1.799390e-06	-1.816900e-08	-1.298444e+01	-1.194864e+03
6.500000e-07	-1.703849e-06	-1.798677e-08	-1.229501e+01	-1.182642e+03
6.600000e-07	-1.607716e-06	-1.779929e-08	-1.160131e+01	-1.170159e+03
6.700000e-07	-1.510946e-06	-1.760698e-08	-1.090302e+01	-1.157485e+03
6.800000e-07	-1.413490e-06	-1.740620e-08	-1.019977e+01	-1.144598e+03
6.900000e-07	-1.315320e-06	-1.719536e-08	-9.491379e+00	-1.131373e+03
7.000000e-07	-1.216565e-06	-1.697364e-08	-8.778759e+00	-1.117612e+03
7.100000e-07	-1.117357e-06	-1.674460e-08	-8.062877e+00	-1.103089e+03
7.200000e-07	-1.017849e-06	-1.650839e-08	-7.344819e+00	-1.087613e+03
7.300000e-07	-9.181248e-07	-1.626379e-08	-6.625210e+00	-1.071079e+03
7.400000e-07	-8.181857e-07	-1.600685e-08	-5.904047e+00	-1.053493e+03
7.500000e-07	-7.180283e-07	-1.573616e-08	-5.181309e+00	-1.034961e+03
7.600000e-07	-6.176722e-07	-1.544886e-08	-4.457137e+00	-1.015638e+03
7.700000e-07	-5.171350e-07	-1.514424e-08	-3.731658e+00	-9.956619e+02
7.800000e-07	-4.164321e-07	-1.482493e-08	-3.004984e+00	-9.750765e+02
7.900000e-07	-3.155522e-07	-1.448963e-08	-2.277032e+00	-9.537797e+02
8.000000e-07	-2.145272e-07	-1.413781e-08	-1.548033e+00	-9.315108e+02
8.100000e-07	-1.133896e-07	-1.376614e-08	-8.182218e-01	-9.078842e+02
8.200000e-07	-1.219205e-08	-1.337119e-08	-8.797815e-02	-8.824639e+02
8.300000e-07	8.900952e-08	-1.295163e-08	6.422948e-01	-8.548561e+02
8.400000e-07	1.901907e-07	-1.250448e-08	1.372420e+00	-8.247911e+02
8.500000e-07	2.912905e-07	-1.202251e-08	2.101959e+00	-7.921634e+02
8.600000e-07	3.923450e-07	-1.150111e-08	2.831170e+00	-7.570076e+02
8.700000e-07	4.932881e-07	-1.093850e-08	3.559578e+00	-7.194073e+02
8.800000e-07	5.940150e-07	-1.033071e-08	4.286426e+00	-6.793517e+02
8.900000e-07	6.945669e-07	-9.669541e-09	5.012011e+00	-6.365745e+02
9.000000e-07	7.949213e-07	-8.946059e-09	5.736171e+00	-5.904236e+02
9.100000e-07	8.950619e-07	-8.151176e-09	6.458787e+00	-5.398055e+02
9.200000e-07	9.949646e-07	-7.269718e-09	7.179688e+00	-4.832406e+02
9.300000e-07	1.094617e-06	-6.282682e-09	7.898785e+00	-4.190390e+02
9.400000e-07	1.193955e-06	-5.169409e-09	8.615608e+00	-3.455796e+02
9.500000e-07	1.292798e-06	-3.908837e-09	9.328859e+00	-2.616451e+02
9.600000e-07	1.391092e-06	-2.484042e-09	1.003816e+01	-1.667498e+02
9.700000e-07	1.488701e-06	-8.905888e-10	1.074250e+01	-6.138902e+01
9.800000e-07	1.585526e-06	8.554842e-10	1.144119e+01	5.285129e+01
9.900000e-07	1.681654e-06	2.715920e-09	1.213485e+01	1.733568e+02
1.000000e-06	1.777079e-06	4.627750e-09	1.282344e+01	2.967223e+02
1.010000e-06	1.871889e-06	6.518075e-09	1.350759e+01	4.191278e+02
1.020000e-06	1.966150e-06	8.315774e-09	1.418779e+01	5.367896e+02
1.030000e-06	2.059719e-06	9.964622e-09	1.486298e+01	6.464056e+02
1.040000e-06	2.152568e-06	1.143608e-08	1.553298e+01	7.455167e+02
1.050000e-06	2.244856e-06	1.272286e-08	1.619894e+01	8.327227e+02
1.060000e-06	2.336514e-06	1.383242e-08	1.686034e+01	9.077224e+02
1.070000e-06	2.427221e-06	1.478440e-08	1.751488e+01	9.711845e+02
1.080000e-06	2.516854e-06	1.559965e-08	1.816167e+01	1.024486e+03
1.090000e-06	2.605474e-06	1.629624e-08	1.880116e+01	1.069384e+03
1.100000e-06	2.693115e-06	1.689390e-08	1.943358e+01	1.107683e+03
1.110000e-06	2.779835e-06	1.740860e-08	2.005935e+01	1.140969e+03
1.120000e-06	2.865614e-06	1.785405e-08	2.067834e+01	1.170446e+03
1.130000e-06	2.950520e-06	1.824512e-08	2.129102e+01	1.196890e+03
1.140000e-06	3.034581e-06	1.859153e-08	2.189760e+01	1.220708e+03
1.150000e-06	3.117691e-06	1.890108e-08	2.249733e+01	1.242066e+03
1.160000e-06	3.199603e-06	1.917778e-08	2.308841e+01	1.261036e+03
1.170000e-06	3.280178e-06	1.942687e-08	2.366984e+01	1.277724e+03
1.180000e-06	3.359666e-06	1.965103e-08	2.424343e+01	1.292350e+03
1.190000e-06	3.438073e-06	1.985398e-08	2.480921e+01	1.305253e+03
1.200000e-06	3.515265e-06	2.003995e-08	2.536623e+01	1.316850e+03
1.210000e-06	3.591167e-06	2.021230e-08	2.591395e+01	1.327557e+03
1.220000e-06	3.665602e-06	2.037478e-08	2.645107e+01	1.337707e+03
1.230000e-06	3.738474e-06	2.052569e-08	2.697691e+01	1.347491e+03
1.240000e-06	3.809886e-06	2.066556e-08	2.749222e+01	1.356943e+03
1.250000e-06	3.879957e-06	2.079302e-08	2.799786e+01	1.365966e+03
1.260000e-06	3.948735e-06	2.091110e-08	2.849417e+01	1.374397e+03
1.270000e-06	4.016195e-06	2.101974e-08	2.898096e+01	1.382078e+03
1.280000e-06	4.082136e-06	2.111914e-08	2.945679e+01	1.388929e+03
1.290000e-06	4.146427e-06	2.121253e-08	2.992071e+01	1.394976e+03
1.300000e-06	4.209213e-06	2.130162e-08	3.037378e+01	1.400360e+03
1.310000e-06	4.270596e-06	2.138617e-08	3.081672e+01	1.405296e+03
1.320000e-06	4.330631e-06	2.146539e-08	3.124993e+01	1.410014e+03
1.330000e-06	4.389170e-06	2.154079e-08	3.167235e+01	1.414703e+03
1.340000e-06	4.446006e-06	2.161240e-08	3.208248e+01	1.419459e+03
1.350000e-06	4.501172e-06	2.167939e-08	3.248056e+01	1.424267e+03
1.360000e-06	4.554718e-06	2.174204e-08	3.286695e+01	1.429024e+03
1.370000e-06	4.606496e-06	2.180171e-08	3.324058e+01	1.433569e+03
1.380000e-06	4.656254e-06	2.185827e-08	3.359964e+01	1.437747e+03
1.390000e-06	4.704093e-06	2.191189e-08	3.394485e+01	1.441457e+03
1.400000e-06	4.750287e-06	2.196311e-08	3.427818e+01	1.444678e+03
1.410000e-06	4.794985e-06	2.201153e-08	3.460073e+01	1.447481e+03
1.420000e-06	4.838037e-06	2.205619e-08	3.491139e+01	1.450000e+03
1.430000e-06	4.879227e-06	2.209699e-08	3.520862e+01	1.452390e+03
1.440000e-06	4.918681e-06	2.213501e-08	3.549331e+01	1.454781e+03
1.450000e-06	4.956522e-06	2.216948e-08	3.576638e+01	1.457242e+03
1.460000e-06	4.992783e-06	2.220108e-08	3.602804e+01	1.459758e+03
1.470000e-06	5.027315e-06	2.223074e-08	3.627722e+01	1.462249e+03
1.480000e-06	5.059892e-06	2.225893e-08	3.651230e+01	1.464589e+03
1.490000e-06	5.090635e-06	2.228449e-08	3.673414e+01	1.466659e+03
1.500000e-06	5.119729e-06	2.230773e-08	3.694408e+01	1.468378e+03
1.510000e-06	5.147209e-06	2.233029e-08	3.714238e+01	1.469735e+03
1.520000e-06	5.172705e-06	2.235277e-08	3.732636e+01	1.470791e+03
1.530000e-06	5.196109e-06	2.237432e-08	3.749524e+01	1.471659e+03
1.540000e-06	5.217713e-06	2.239260e-08	3.765114e+01	1.472470e+03
1.550000e-06	5.237677e-06	2.240798e-08	3.779520e+01	1.473333e+03
1.560000e-06	5.255876e-06	2.242103e-08	3.792652e+01	1.474302e+03
1.570000e-06	5.272032e-06	2.243314e-08	3.804310e+01	1.475361e+03
1.580000e-06	5.286202e-06	2.244420e-08	3.814536e+01	1.476430e+03
1.590000e-06	5.298411e-06	2.245407e-08	3.823346e+01	1.477393e+03
1.600000e-06	5.308462e-06	2.246302e-08	3.830599e+01	1.478133e+03
1.610000e-06	5.316395e-06	2.247174e-08	3.836323e+01	1.478569e+03
1.620000e-06	5.322478e-06	2.247977e-08	3.840713e+01	1.478683e+03
1.630000e-06	5.326871e-06	2.248457e-08	3.843883e+01	1.478521e+03
1.640000e-06	5.329370e-06	2.248657e-08	3.845686e+01	1.478183e+03
1.650000e-06	5.329805e-06	2.248645e-08	3.846000e+01	1.477789e+03
1.660000e-06	5.328425e-06	2.248040e-08	3.845004e+01	1.477441e+03
1.670000e-06	5.325451e-06	2.247553e-08	3.842858e+01	1.477194e+03
1.680000e-06	5.320832e-06	2.247202e-08	3.839525e+01	1.477042e+03
1.690000e-06	5.314312e-06	2.246818e-08	3.834820e+01	1.476913e+03
1.700000e-06	5.305988e-06	2.246390e-08	3.828813e+01	1.476701e+03
1.710000e-06	5.296107e-06	2.245856e-08	3.821683e+01	1.476292e+03
1.720000e-06	5.284636e-06	2.246442e-08	3.813406e+01	1.475605e+03
1.730000e-06	5.271306e-06	2.244378e-08	3.803787e+01	1.474613e+03
1.740000e-06	5.255848e-06	2.236395e-08	3.792632e+01	1.473352e+03
1.750000e-06	5.238105e-06	2.234741e-08	3.779829e+01	1.471911e+03
1.760000e-06	5.217881e-06	2.235426e-08	3.765235e+01	1.470408e+03
1.770000e-06	5.195328e-06	2.238671e-08	3.748961e+01	1.468950e+03
1.780000e-06	5.171312e-06	2.243893e-08	3.731630e+01	1.467606e+03
1.790000e-06	5.146534e-06	2.228495e-08	3.713751e+01	1.466387e+03
1.800000e-06	5.120423e-06	2.226501e-08	3.694909e+01	1.465246e+03
1.810000e-06	5.092306e-06	2.234418e-08	3.674620e+01	1.464094e+03
1.820000e-06	5.062422e-06	2.219970e-08	3.653055e+01	1.462826e+03
1.830000e-06	5.030774e-06	2.226202e-08	3.630218e+01	1.461353e+03
1.840000e-06	4.997219e-06	2.233156e-08	3.606005e+01	1.459630e+03
1.850000e-06	4.962080e-06	2.215344e-08	3.580648e+01	1.457659e+03
1.860000e-06	4.925106e-06	2.219056e-08	3.553968e+01	1.455489e+03
1.870000e-06	4.886129e-06	2.219693e-08	3.525842e+01	1.453190e+03
1.880000e-06	4.845568e-06	2.212205e-08	3.496573e+01	1.450829e+03
1.890000e-06	4.803276e-06	2.214691e-08	3.466055e+01	1.448445e+03
1.900000e-06	4.759272e-06	2.201566e-08	3.434302e+01	1.446029e+03
1.910000e-06	4.713567e-06	2.202529e-08	3.401321e+01	1.443532e+03
1.920000e-06	4.666028e-06	2.204759e-08	3.367016e+01	1.440874e+03
1.930000e-06	4.616862e-06	2.189977e-08	3.331538e+01	1.437977e+03
1.940000e-06	4.565885e-06	2.190900e-08	3.294754e+01	1.434785e+03
1.950000e-06	4.512885e-06	2.184022e-08	3.256508e+01	1.431289e+03
1.960000e-06	4.457973e-06	2.176768e-08	3.216884e+01	1.427529e+03
1.970000e-06	4.401361e-06	2.174784e-08	3.176032e+01	1.423583e+03
1.980000e-06	4.343221e-06	2.164434e-08	3.134079e+01	1.419546e+03
1.990000e-06	4.283719e-06	2.164141e-08	3.091141e+01	1.415496e+03
2.000000e-06	4.222813e-06	2.157013e-08	3.047192e+01	1.411470e+03
2.010000e-06	4.160099e-06	2.148659e-08	3.001937e+01	1.407450e+03
2.020000e-06	4.095682e-06	2.142981e-08	2.955454e+01	1.403369e+03
2.030000e-06	4.029944e-06	2.134883e-08	2.908017e+01	1.399126e+03
2.040000e-06	3.962852e-06	2.131476e-08	2.859603e+01	1.394621e+03
2.050000e-06	3.894408e-06	2.119950e-08	2.810214e+01	1.389785e+03
2.060000e-06	3.824444e-06	2.113268e-08	2.759728e+01	1.384600e+03
2.070000e-06	3.752931e-06	2.107674e-08	2.708124e+01	1.379110e+03
2.080000e-06	3.680177e-06	2.097877e-08	2.655624e+01	1.373401e+03
2.090000e-06	3.606178e-06	2.090788e-08	2.602226e+01	1.367577e+03
2.100000e-06	3.530872e-06	2.080448e-08	2.547886e+01	1.361726e+03
2.110000e-06	3.454111e-06	2.073114e-08	2.492494e+01	1.355888e+03
2.120000e-06	3.375800e-06	2.063273e-08	2.435985e+01	1.350040e+03
2.130000e-06	3.296177e-06	2.052868e-08	2.378529e+01	1.344099e+03
2.140000e-06	3.215396e-06	2.043643e-08	2.320237e+01	1.337944e+03
2.150000e-06	3.133506e-06	2.032793e-08	2.261145e+01	1.331451e+03
2.160000e-06	3.050586e-06	2.023206e-08	2.201310e+01	1.324532e+03
2.170000e-06	2.966782e-06	2.012155e-08	2.140837e+01	1.317160e+03
2.180000e-06	2.881911e-06	2.001626e-08	2.079594e+01	1.309377e+03
2.190000e-06	2.795700e-06	1.989880e-08	2.017384e+01	1.301279e+03
2.200000e-06	2.708263e-06	1.977574e-08	1.954289e+01	1.292987e+03
2.210000e-06	2.619890e-06	1.965116e-08	1.890518e+01	1.284602e+03
2.220000e-06	2.530695e-06	1.951890e-08	1.826155e+01	1.276169e+03
2.230000e-06	2.440641e-06	1.938978e-08	1.761172e+01	1.267656e+03
2.240000e-06	2.349845e-06	1.925050e-08	1.695654e+01	1.258959e+03
2.250000e-06	2.258332e-06	1.910737e-08	1.629618e+01	1.249925e+03
2.260000e-06	2.166152e-06	1.895813e-08	1.563100e+01	1.240395e+03
2.270000e-06	2.073151e-06	1.880797e-08	1.495990e+01	1.230251e+03
2.280000e-06	1.979086e-06	1.865158e-08	1.428113e+01	1.219447e+03
2.290000e-06	1.884095e-06	1.848501e-08	1.359567e+01	1.208026e+03
2.300000e-06	1.788410e-06	1.831249e-08	1.290521e+01	1.196100e+03
2.310000e-06	1.692229e-06	1.813310e-08	1.221116e+01	1.183812e+03
2.320000e-06	1.595621e-06	1.794753e-08	1.151404e+01	1.171283e+03
2.330000e-06	1.498538e-06	1.775126e-08	1.081348e+01	1.158568e+03
2.340000e-06	1.400936e-06	1.754666e-08	1.010919e+01	1.145621e+03
2.350000e-06	1.302837e-06	1.733270e-08	9.401304e+00	1.132299e+03
2.360000e-06	1.204298e-06	1.711121e-08	8.690242e+00	1.118393e+03
2.370000e-06	1.105389e-06	1.688336e-08	7.976516e+00	1.103678e+03
2.380000e-06	1.006176e-06	1.664543e-08	7.260589e+00	1.087980e+03
2.390000e-06	9.067366e-07	1.639467e-08	6.543032e+00	1.071215e+03
2.400000e-06	8.070677e-07	1.613106e-08	5.823819e+00	1.053414e+03
2.410000e-06	7.071339e-07	1.585407e-08	5.102695e+00	1.034698e+03
2.420000e-06	6.070249e-07	1.556232e-08	4.380306e+00	1.015225e+03
2.430000e-06	5.067830e-07	1.525912e-08	3.656958e+00	9.951179e+02
2.440000e-06	4.063821e-07	1.494314e-08	2.932463e+00	9.743932e+02
2.450000e-06	3.058372e-07	1.461057e-08	2.206928e+00	9.529143e+02
2.460000e-06	2.051986e-07	1.425542e-08	1.480718e+00	9.303890e+02
2.470000e-06	1.044155e-07	1.387664e-08	7.534648e-01	9.064139e+02
2.480000e-06	3.528298e-09	1.347493e-08	2.546028e-02	8.805538e+02
2.490000e-06	-9.741003e-08	1.304429e-08	-7.029130e-01	8.524359e+02
2.500000e-06	-1.983348e-07	1.258630e-08	-1.431189e+00	8.218242e+02
2.510000e-06	-2.991428e-07	1.209675e-08	-2.158621e+00	7.886474e+02
2.520000e-06	-3.998948e-07	1.156902e-08	-2.885650e+00	7.529606e+02
2.530000e-06	-5.005151e-07	1.099802e-08	-3.611729e+00	7.148405e+02
2.540000e-06	-6.009347e-07	1.037867e-08	-4.336359e+00	6.742346e+02
2.550000e-06	-7.011857e-07	9.706543e-09	-5.059772e+00	6.308034e+02
2.560000e-06	-8.011575e-07	8.970954e-09	-5.781171e+00	5.838012e+02
2.570000e-06	-9.008436e-07	8.160748e-09	-6.500508e+00	5.320430e+02
2.580000e-06	-1.000315e-06	7.260736e-09	-7.218299e+00	4.739855e+02
2.590000e-06	-1.099533e-06	6.253189e-09	-7.934254e+00	4.079271e+02
2.600000e-06	-1.198353e-06	5.119086e-09	-8.647340e+00	3.323043e+02
2.610000e-06	-1.296725e-06	3.838591e-09	-9.357200e+00	2.460306e+02
2.620000e-06	-1.394664e-06	2.392799e-09	-1.006393e+01	1.488136e+02
2.630000e-06	-1.492051e-06	7.772775e-10	-1.076667e+01	4.137836e+01
2.640000e-06	-1.588902e-06	-9.897152e-10	-1.146556e+01	-7.445715e+01
2.650000e-06	-1.685328e-06	-2.866645e-09	-1.216137e+01	-1.958837e+02
2.660000e-06	-1.781291e-06	-4.791072e-09	-1.285384e+01	-3.193718e+02
2.670000e-06	-1.876619e-06	-6.685951e-09	-1.354173e+01	-4.410703e+02
2.680000e-06	-1.971148e-06	-8.476237e-09	-1.422385e+01	-5.572628e+02
2.690000e-06	-2.064774e-06	-1.011388e-08	-1.489945e+01	-6.648018e+02
2.700000e-06	-2.157512e-06	-1.157311e-08	-1.556866e+01	-7.614426e+02
2.710000e-06	-2.249373e-06	-1.284626e-08	-1.623153e+01	-8.460231e+02
2.720000e-06	-2.340412e-06	-1.394296e-08	-1.688847e+01	-9.184663e+02
2.730000e-06	-2.430708e-06	-1.488336e-08	-1.754004e+01	-9.796180e+02
2.740000e-06	-2.520202e-06	-1.569145e-08	-1.818584e+01	-1.030966e+03
2.750000e-06	-2.608869e-06	-1.638553e-08	-1.882566e+01	-1.074303e+03
2.760000e-06	-2.696763e-06	-1.698310e-08	-1.945991e+01	-1.111406e+03
2.770000e-06	-2.783752e-06	-1.749702e-08	-2.008762e+01	-1.143790e+03
2.780000e-06	-2.869622e-06	-1.794081e-08	-2.070726e+01	-1.172566e+03
2.790000e-06	-2.954325e-06	-1.832796e-08	-2.131848e+01	-1.198425e+03
2.800000e-06	-3.037923e-06	-1.866872e-08	-2.192173e+01	-1.221708e+03
2.810000e-06	-3.120528e-06	-1.897254e-08	-2.251780e+01	-1.242550e+03
2.820000e-06	-3.202120e-06	-1.924346e-08	-2.310658e+01	-1.261020e+03
2.830000e-06	-3.282700e-06	-1.948775e-08	-2.368804e+01	-1.277244e+03
2.840000e-06	-3.362164e-06	-1.971230e-08	-2.426145e+01	-1.291470e+03
2.850000e-06	-3.440251e-06	-1.992076e-08	-2.482493e+01	-1.304057e+03
2.860000e-06	-3.516805e-06	-2.011132e-08	-2.537735e+01	-1.315431e+03
2.870000e-06	-3.591941e-06	-2.028366e-08	-2.591953e+01	-1.325996e+03
2.880000e-06	-3.665818e-06	-2.044023e-08	-2.645263e+01	-1.336057e+03
2.890000e-06	-3.738442e-06	-2.058415e-08	-2.697668e+01	-1.345774e+03
2.900000e-06	-3.809770e-06	-2.071834e-08	-2.749139e+01	-1.355146e+03
2.910000e-06	-3.879573e-06	-2.084565e-08	-2.799509e+01	-1.364058e+03
2.920000e-06	-3.947847e-06	-2.096532e-08	-2.848776e+01	-1.372341e+03
2.930000e-06	-4.014769e-06	-2.107501e-08	-2.897067e+01	-1.379848e+03
2.940000e-06	-4.080307e-06	-2.117754e-08	-2.944359e+01	-1.386521e+03
