# Temperatura_=_33.8
# Concentracion g/m^3_=_41000.0
# C_Vs_to_Am_M_A/Vsm_=_65563218390.804596
# pendiente_HvsI_1/m_=_3716.3
# ordenada_HvsI_A/m_=_1297.0
# frecuencia_Hz_=_301594.4143314117

Tiempo_(s)	Campo_(V.s)	Magnetizacion_(V.s)	Campo_(kA/m)	Magnetizacion_(A/m)
0.000000e+00	-5.331623e-06	-2.340577e-08	-3.834687e+01	-1.530400e+03
1.000000e-08	-5.329018e-06	-2.340183e-08	-3.832814e+01	-1.529933e+03
2.000000e-08	-5.324674e-06	-2.339424e-08	-3.829689e+01	-1.529520e+03
3.000000e-08	-5.318730e-06	-2.338804e-08	-3.825414e+01	-1.529179e+03
4.000000e-08	-5.311177e-06	-2.337910e-08	-3.819982e+01	-1.528867e+03
5.000000e-08	-5.301834e-06	-2.336537e-08	-3.813262e+01	-1.528495e+03
6.000000e-08	-5.290448e-06	-2.334566e-08	-3.805073e+01	-1.527958e+03
7.000000e-08	-5.277086e-06	-2.331351e-08	-3.795462e+01	-1.527167e+03
8.000000e-08	-5.261604e-06	-2.332822e-08	-3.784327e+01	-1.526077e+03
9.000000e-08	-5.243879e-06	-2.336921e-08	-3.771578e+01	-1.524708e+03
1.000000e-07	-5.224143e-06	-2.332011e-08	-3.757384e+01	-1.523135e+03
1.100000e-07	-5.202585e-06	-2.326979e-08	-3.741879e+01	-1.521473e+03
1.200000e-07	-5.179462e-06	-2.321718e-08	-3.725248e+01	-1.519838e+03
1.300000e-07	-5.154927e-06	-2.309940e-08	-3.707601e+01	-1.518317e+03
1.400000e-07	-5.128738e-06	-2.320493e-08	-3.688765e+01	-1.516941e+03
1.500000e-07	-5.100773e-06	-2.322466e-08	-3.668652e+01	-1.515673e+03
1.600000e-07	-5.071349e-06	-2.306735e-08	-3.647489e+01	-1.514423e+03
1.700000e-07	-5.040472e-06	-2.317917e-08	-3.625281e+01	-1.513069e+03
1.800000e-07	-5.007506e-06	-2.310899e-08	-3.601571e+01	-1.511494e+03
1.900000e-07	-4.972565e-06	-2.292593e-08	-3.576440e+01	-1.509618e+03
2.000000e-07	-4.936144e-06	-2.301673e-08	-3.550245e+01	-1.507415e+03
2.100000e-07	-4.898040e-06	-2.294973e-08	-3.522840e+01	-1.504923e+03
2.200000e-07	-4.858222e-06	-2.286002e-08	-3.494201e+01	-1.502222e+03
2.300000e-07	-4.816479e-06	-2.289754e-08	-3.464178e+01	-1.499409e+03
2.400000e-07	-4.772766e-06	-2.282456e-08	-3.432738e+01	-1.496566e+03
2.500000e-07	-4.727331e-06	-2.280387e-08	-3.400060e+01	-1.493732e+03
2.600000e-07	-4.680105e-06	-2.274105e-08	-3.366093e+01	-1.490896e+03
2.700000e-07	-4.630907e-06	-2.265332e-08	-3.330708e+01	-1.487993e+03
2.800000e-07	-4.579545e-06	-2.264207e-08	-3.293767e+01	-1.484933e+03
2.900000e-07	-4.526260e-06	-2.258103e-08	-3.255442e+01	-1.481629e+03
3.000000e-07	-4.471417e-06	-2.252423e-08	-3.215998e+01	-1.478022e+03
3.100000e-07	-4.414922e-06	-2.247265e-08	-3.175364e+01	-1.474105e+03
3.200000e-07	-4.356564e-06	-2.240552e-08	-3.133391e+01	-1.469922e+03
3.300000e-07	-4.296634e-06	-2.234030e-08	-3.090287e+01	-1.465554e+03
3.400000e-07	-4.235321e-06	-2.226988e-08	-3.046189e+01	-1.461097e+03
3.500000e-07	-4.172600e-06	-2.221394e-08	-3.001078e+01	-1.456625e+03
3.600000e-07	-4.108553e-06	-2.213594e-08	-2.955013e+01	-1.452169e+03
3.700000e-07	-4.042868e-06	-2.207049e-08	-2.907770e+01	-1.447706e+03
3.800000e-07	-3.975485e-06	-2.199537e-08	-2.859306e+01	-1.443164e+03
3.900000e-07	-3.906726e-06	-2.189377e-08	-2.809852e+01	-1.438443e+03
4.000000e-07	-3.836716e-06	-2.183279e-08	-2.759499e+01	-1.433448e+03
4.100000e-07	-3.765583e-06	-2.175183e-08	-2.708337e+01	-1.428117e+03
4.200000e-07	-3.693198e-06	-2.166483e-08	-2.656275e+01	-1.422439e+03
4.300000e-07	-3.619128e-06	-2.158056e-08	-2.603002e+01	-1.416462e+03
4.400000e-07	-3.543374e-06	-2.149637e-08	-2.548517e+01	-1.410268e+03
4.500000e-07	-3.466321e-06	-2.140524e-08	-2.493098e+01	-1.403955e+03
4.600000e-07	-3.387969e-06	-2.129851e-08	-2.436744e+01	-1.397596e+03
4.700000e-07	-3.308202e-06	-2.120172e-08	-2.379373e+01	-1.391217e+03
4.800000e-07	-3.227174e-06	-2.109972e-08	-2.321095e+01	-1.384784e+03
4.900000e-07	-3.145018e-06	-2.099683e-08	-2.262006e+01	-1.378208e+03
5.000000e-07	-3.061855e-06	-2.088687e-08	-2.202191e+01	-1.371375e+03
5.100000e-07	-2.977848e-06	-2.076909e-08	-2.141771e+01	-1.364172e+03
5.200000e-07	-2.892972e-06	-2.064761e-08	-2.080725e+01	-1.356529e+03
5.300000e-07	-2.807155e-06	-2.052505e-08	-2.019002e+01	-1.348433e+03
5.400000e-07	-2.720421e-06	-2.040417e-08	-1.956621e+01	-1.339936e+03
5.500000e-07	-2.632831e-06	-2.028065e-08	-1.893623e+01	-1.331135e+03
5.600000e-07	-2.544220e-06	-2.014977e-08	-1.829891e+01	-1.322137e+03
5.700000e-07	-2.454319e-06	-2.000804e-08	-1.765231e+01	-1.313024e+03
5.800000e-07	-2.363306e-06	-1.985747e-08	-1.699771e+01	-1.303821e+03
5.900000e-07	-2.271543e-06	-1.970319e-08	-1.633772e+01	-1.294480e+03
6.000000e-07	-2.179062e-06	-1.954880e-08	-1.567256e+01	-1.284888e+03
6.100000e-07	-2.085786e-06	-1.939110e-08	-1.500169e+01	-1.274897e+03
6.200000e-07	-1.991760e-06	-1.922778e-08	-1.432542e+01	-1.264367e+03
6.300000e-07	-1.897027e-06	-1.905756e-08	-1.364407e+01	-1.253203e+03
6.400000e-07	-1.801679e-06	-1.888196e-08	-1.295830e+01	-1.241382e+03
6.500000e-07	-1.705769e-06	-1.869859e-08	-1.226848e+01	-1.228963e+03
6.600000e-07	-1.609262e-06	-1.850751e-08	-1.157437e+01	-1.216060e+03
6.700000e-07	-1.512028e-06	-1.831032e-08	-1.087503e+01	-1.202801e+03
6.800000e-07	-1.414015e-06	-1.810466e-08	-1.017008e+01	-1.189286e+03
6.900000e-07	-1.315382e-06	-1.789003e-08	-9.460680e+00	-1.175536e+03
7.000000e-07	-1.216289e-06	-1.766640e-08	-8.747973e+00	-1.161484e+03
7.100000e-07	-1.116814e-06	-1.743608e-08	-8.032515e+00	-1.146973e+03
7.200000e-07	-1.017046e-06	-1.719868e-08	-7.314943e+00	-1.131797e+03
7.300000e-07	-9.170778e-07	-1.695433e-08	-6.595940e+00	-1.115754e+03
7.400000e-07	-8.168862e-07	-1.669970e-08	-5.875327e+00	-1.098697e+03
7.500000e-07	-7.164637e-07	-1.643348e-08	-5.153054e+00	-1.080574e+03
7.600000e-07	-6.157896e-07	-1.615078e-08	-4.428971e+00	-1.061430e+03
7.700000e-07	-5.148815e-07	-1.584963e-08	-3.703205e+00	-1.041386e+03
7.800000e-07	-4.137765e-07	-1.553510e-08	-2.976023e+00	-1.020577e+03
7.900000e-07	-3.125183e-07	-1.520554e-08	-2.247740e+00	-9.990871e+02
8.000000e-07	-2.111505e-07	-1.486106e-08	-1.518668e+00	-9.768869e+02
8.100000e-07	-1.096810e-07	-1.449986e-08	-7.888633e-01	-9.538041e+02
8.200000e-07	-8.147393e-09	-1.411921e-08	-5.859886e-02	-9.295326e+02
8.300000e-07	9.339824e-08	-1.371819e-08	6.717524e-01	-9.036840e+02
8.400000e-07	1.949605e-07	-1.329464e-08	1.402223e+00	-8.758671e+02
8.500000e-07	2.964455e-07	-1.284113e-08	2.132139e+00	-8.457699e+02
8.600000e-07	3.978059e-07	-1.235271e-08	2.861157e+00	-8.132170e+02
8.700000e-07	4.990412e-07	-1.183016e-08	3.589276e+00	-7.781759e+02
8.800000e-07	6.000926e-07	-1.126980e-08	4.316073e+00	-7.407011e+02
8.900000e-07	7.009587e-07	-1.066735e-08	5.041537e+00	-7.008215e+02
9.000000e-07	8.015991e-07	-1.001886e-08	5.765377e+00	-6.583953e+02
9.100000e-07	9.019779e-07	-9.316080e-09	6.487336e+00	-6.129716e+02
9.200000e-07	1.002083e-06	-8.545605e-09	7.207326e+00	-5.637029e+02
9.300000e-07	1.101936e-06	-7.696343e-09	7.925506e+00	-5.093471e+02
9.400000e-07	1.201504e-06	-6.755357e-09	8.641630e+00	-4.483785e+02
9.500000e-07	1.300652e-06	-5.700564e-09	9.354739e+00	-3.792064e+02
9.600000e-07	1.399211e-06	-4.509578e-09	1.006361e+01	-3.004675e+02
9.700000e-07	1.497074e-06	-3.166720e-09	1.076747e+01	-2.113412e+02
9.800000e-07	1.594239e-06	-1.665441e-09	1.146632e+01	-1.118233e+02
9.900000e-07	1.690740e-06	-9.522879e-12	1.216039e+01	-2.895363e+00
1.000000e-06	1.786609e-06	1.776472e-09	1.284991e+01	1.134538e+02
1.010000e-06	1.881771e-06	3.645798e-09	1.353434e+01	2.343712e+02
1.020000e-06	1.976219e-06	5.532783e-09	1.421365e+01	3.564296e+02
1.030000e-06	2.070015e-06	7.368195e-09	1.488826e+01	4.760185e+02
1.040000e-06	2.163128e-06	9.092974e-09	1.555796e+01	5.897653e+02
1.050000e-06	2.255580e-06	1.066584e-08	1.622291e+01	6.949142e+02
1.060000e-06	2.347416e-06	1.207122e-08	1.688343e+01	7.895953e+02
1.070000e-06	2.438445e-06	1.330872e-08	1.753814e+01	8.729445e+02
1.080000e-06	2.528397e-06	1.438710e-08	1.818510e+01	9.450604e+02
1.090000e-06	2.617248e-06	1.532398e-08	1.882415e+01	1.006823e+03
1.100000e-06	2.705101e-06	1.613627e-08	1.945602e+01	1.059620e+03
1.110000e-06	2.792026e-06	1.684020e-08	2.008121e+01	1.105041e+03
1.120000e-06	2.878060e-06	1.745079e-08	2.070000e+01	1.144606e+03
1.130000e-06	2.963172e-06	1.798424e-08	2.131215e+01	1.179573e+03
1.140000e-06	3.047355e-06	1.845240e-08	2.191763e+01	1.210838e+03
1.150000e-06	3.130647e-06	1.886561e-08	2.251669e+01	1.238952e+03
1.160000e-06	3.212910e-06	1.923410e-08	2.310836e+01	1.264206e+03
1.170000e-06	3.293986e-06	1.956613e-08	2.369149e+01	1.286751e+03
1.180000e-06	3.373803e-06	1.986444e-08	2.426556e+01	1.306729e+03
1.190000e-06	3.452285e-06	2.013024e-08	2.483002e+01	1.324352e+03
1.200000e-06	3.529513e-06	2.036858e-08	2.538547e+01	1.339939e+03
1.210000e-06	3.605588e-06	2.058785e-08	2.593263e+01	1.353892e+03
1.220000e-06	3.680378e-06	2.079266e-08	2.647055e+01	1.366633e+03
1.230000e-06	3.753589e-06	2.098186e-08	2.699710e+01	1.378530e+03
1.240000e-06	3.825223e-06	2.115704e-08	2.751232e+01	1.389833e+03
1.250000e-06	3.895453e-06	2.131769e-08	2.801744e+01	1.400647e+03
1.260000e-06	3.964355e-06	2.146644e-08	2.851301e+01	1.410938e+03
1.270000e-06	4.031968e-06	2.160282e-08	2.899930e+01	1.420586e+03
1.280000e-06	4.098063e-06	2.172946e-08	2.947468e+01	1.429450e+03
1.290000e-06	4.162453e-06	2.184808e-08	2.993780e+01	1.437432e+03
1.300000e-06	4.225296e-06	2.195852e-08	3.038979e+01	1.444529e+03
1.310000e-06	4.286776e-06	2.205976e-08	3.083197e+01	1.450842e+03
1.320000e-06	4.346936e-06	2.215319e-08	3.126467e+01	1.456558e+03
1.330000e-06	4.405637e-06	2.224123e-08	3.168686e+01	1.461901e+03
1.340000e-06	4.462623e-06	2.232256e-08	3.209672e+01	1.467074e+03
1.350000e-06	4.517874e-06	2.239830e-08	3.249410e+01	1.472213e+03
1.360000e-06	4.571475e-06	2.247124e-08	3.287963e+01	1.477354e+03
1.370000e-06	4.623340e-06	2.254222e-08	3.325266e+01	1.482438e+03
1.380000e-06	4.673187e-06	2.261014e-08	3.361117e+01	1.487341e+03
1.390000e-06	4.721076e-06	2.267510e-08	3.395561e+01	1.491920e+03
1.400000e-06	4.767333e-06	2.273645e-08	3.428830e+01	1.496061e+03
1.410000e-06	4.812088e-06	2.279380e-08	3.461020e+01	1.499719e+03
1.420000e-06	4.855280e-06	2.284642e-08	3.492085e+01	1.502929e+03
1.430000e-06	4.896624e-06	2.289504e-08	3.521821e+01	1.505796e+03
1.440000e-06	4.936149e-06	2.294071e-08	3.550248e+01	1.508459e+03
1.450000e-06	4.974064e-06	2.298214e-08	3.577518e+01	1.511049e+03
1.460000e-06	5.010380e-06	2.301939e-08	3.603638e+01	1.513650e+03
1.470000e-06	5.044965e-06	2.305376e-08	3.628513e+01	1.516278e+03
1.480000e-06	5.077582e-06	2.308751e-08	3.651972e+01	1.518877e+03
1.490000e-06	5.108362e-06	2.311948e-08	3.674110e+01	1.521344e+03
1.500000e-06	5.137512e-06	2.314935e-08	3.695076e+01	1.523561e+03
1.510000e-06	5.164973e-06	2.317858e-08	3.714827e+01	1.525440e+03
1.520000e-06	5.190468e-06	2.320550e-08	3.733163e+01	1.526947e+03
1.530000e-06	5.213940e-06	2.322782e-08	3.750045e+01	1.528116e+03
1.540000e-06	5.235592e-06	2.324447e-08	3.765619e+01	1.529038e+03
1.550000e-06	5.255533e-06	2.325884e-08	3.779960e+01	1.529835e+03
1.560000e-06	5.273705e-06	2.327254e-08	3.793031e+01	1.530619e+03
1.570000e-06	5.289876e-06	2.328505e-08	3.804661e+01	1.531462e+03
1.580000e-06	5.304053e-06	2.329693e-08	3.814858e+01	1.532377e+03
1.590000e-06	5.316245e-06	2.330754e-08	3.823627e+01	1.533311e+03
1.600000e-06	5.326227e-06	2.331743e-08	3.830806e+01	1.534169e+03
1.610000e-06	5.334128e-06	2.332794e-08	3.836489e+01	1.534845e+03
1.620000e-06	5.340216e-06	2.333779e-08	3.840868e+01	1.535254e+03
1.630000e-06	5.344538e-06	2.334366e-08	3.843976e+01	1.535361e+03
1.640000e-06	5.346961e-06	2.334555e-08	3.845719e+01	1.535191e+03
1.650000e-06	5.347352e-06	2.334384e-08	3.846000e+01	1.534822e+03
1.660000e-06	5.345912e-06	2.333462e-08	3.844964e+01	1.534357e+03
1.670000e-06	5.342840e-06	2.332854e-08	3.842755e+01	1.533896e+03
1.680000e-06	5.338153e-06	2.332596e-08	3.839384e+01	1.533498e+03
1.690000e-06	5.331629e-06	2.332302e-08	3.834691e+01	1.533168e+03
1.700000e-06	5.323313e-06	2.331930e-08	3.828710e+01	1.532850e+03
1.710000e-06	5.313416e-06	2.331482e-08	3.821592e+01	1.532451e+03
1.720000e-06	5.301817e-06	2.332395e-08	3.813249e+01	1.531864e+03
1.730000e-06	5.288400e-06	2.329636e-08	3.803600e+01	1.531009e+03
1.740000e-06	5.272963e-06	2.319330e-08	3.792497e+01	1.529854e+03
1.750000e-06	5.255144e-06	2.318916e-08	3.779681e+01	1.528432e+03
1.760000e-06	5.234699e-06	2.320268e-08	3.764976e+01	1.526829e+03
1.770000e-06	5.211877e-06	2.324290e-08	3.748562e+01	1.525162e+03
1.780000e-06	5.187693e-06	2.331023e-08	3.731168e+01	1.523545e+03
1.790000e-06	5.162876e-06	2.310228e-08	3.713319e+01	1.522053e+03
1.800000e-06	5.136696e-06	2.310866e-08	3.694489e+01	1.520704e+03
1.810000e-06	5.108518e-06	2.320983e-08	3.674222e+01	1.519448e+03
1.820000e-06	5.078587e-06	2.301026e-08	3.652695e+01	1.518185e+03
1.830000e-06	5.046756e-06	2.313909e-08	3.629801e+01	1.516792e+03
1.840000e-06	5.012931e-06	2.323134e-08	3.605473e+01	1.515156e+03
1.850000e-06	4.977594e-06	2.300274e-08	3.580057e+01	1.513208e+03
1.860000e-06	4.940482e-06	2.309846e-08	3.553365e+01	1.510938e+03
1.870000e-06	4.901285e-06	2.306301e-08	3.525173e+01	1.508392e+03
1.880000e-06	4.860434e-06	2.293556e-08	3.495791e+01	1.505657e+03
1.890000e-06	4.817838e-06	2.300029e-08	3.465155e+01	1.502830e+03
1.900000e-06	4.773609e-06	2.283827e-08	3.433344e+01	1.499987e+03
1.910000e-06	4.727685e-06	2.288417e-08	3.400314e+01	1.497154e+03
1.920000e-06	4.679872e-06	2.290823e-08	3.365925e+01	1.494309e+03
1.930000e-06	4.630510e-06	2.271889e-08	3.330422e+01	1.491379e+03
1.940000e-06	4.579337e-06	2.274513e-08	3.293617e+01	1.488272e+03
1.950000e-06	4.526119e-06	2.265270e-08	3.255341e+01	1.484906e+03
1.960000e-06	4.471010e-06	2.260917e-08	3.215705e+01	1.481230e+03
1.970000e-06	4.414117e-06	2.258340e-08	3.174785e+01	1.477249e+03
1.980000e-06	4.355640e-06	2.245819e-08	3.132726e+01	1.473017e+03
1.990000e-06	4.295817e-06	2.248100e-08	3.089700e+01	1.468622e+03
2.000000e-06	4.234580e-06	2.236755e-08	3.045656e+01	1.464155e+03
2.010000e-06	4.171624e-06	2.230155e-08	3.000376e+01	1.459684e+03
2.020000e-06	4.106987e-06	2.224731e-08	2.953887e+01	1.455230e+03
2.030000e-06	4.040907e-06	2.215115e-08	2.906359e+01	1.450756e+03
2.040000e-06	3.973511e-06	2.213654e-08	2.857886e+01	1.446183e+03
2.050000e-06	3.904780e-06	2.199989e-08	2.808452e+01	1.441409e+03
2.060000e-06	3.834415e-06	2.194524e-08	2.757844e+01	1.436344e+03
2.070000e-06	3.762600e-06	2.187735e-08	2.706192e+01	1.430937e+03
2.080000e-06	3.689617e-06	2.177048e-08	2.653700e+01	1.425188e+03
2.090000e-06	3.615288e-06	2.169657e-08	2.600240e+01	1.419155e+03
2.100000e-06	3.539639e-06	2.158108e-08	2.545831e+01	1.412927e+03
2.110000e-06	3.462482e-06	2.152225e-08	2.490336e+01	1.406598e+03
2.120000e-06	3.383765e-06	2.141272e-08	2.433721e+01	1.400233e+03
2.130000e-06	3.303812e-06	2.130996e-08	2.376215e+01	1.393846e+03
2.140000e-06	3.222756e-06	2.121237e-08	2.317917e+01	1.387390e+03
2.150000e-06	3.140614e-06	2.110368e-08	2.258838e+01	1.380768e+03
2.160000e-06	3.057406e-06	2.100836e-08	2.198992e+01	1.373862e+03
2.170000e-06	2.973277e-06	2.088294e-08	2.138484e+01	1.366568e+03
2.180000e-06	2.888083e-06	2.077533e-08	2.077209e+01	1.358826e+03
2.190000e-06	2.801524e-06	2.064928e-08	2.014953e+01	1.350637e+03
2.200000e-06	2.713775e-06	2.052067e-08	1.951841e+01	1.342064e+03
2.210000e-06	2.625121e-06	2.039029e-08	1.888077e+01	1.333210e+03
2.220000e-06	2.535644e-06	2.026206e-08	1.823722e+01	1.324181e+03
2.230000e-06	2.445306e-06	2.013513e-08	1.758749e+01	1.315049e+03
2.240000e-06	2.354143e-06	1.999026e-08	1.693181e+01	1.305821e+03
2.250000e-06	2.262295e-06	1.984393e-08	1.627121e+01	1.296436e+03
2.260000e-06	2.169759e-06	1.968784e-08	1.560565e+01	1.286770e+03
2.270000e-06	2.076280e-06	1.953123e-08	1.493332e+01	1.276674e+03
2.280000e-06	1.981810e-06	1.936828e-08	1.425386e+01	1.266012e+03
2.290000e-06	1.886501e-06	1.919911e-08	1.356837e+01	1.254705e+03
2.300000e-06	1.790503e-06	1.902385e-08	1.287791e+01	1.242748e+03
2.310000e-06	1.693995e-06	1.884015e-08	1.218379e+01	1.230213e+03
2.320000e-06	1.597048e-06	1.864839e-08	1.148652e+01	1.217221e+03
2.330000e-06	1.499592e-06	1.844722e-08	1.078558e+01	1.203900e+03
2.340000e-06	1.401587e-06	1.824099e-08	1.008070e+01	1.190335e+03
2.350000e-06	1.303122e-06	1.802771e-08	9.372500e+00	1.176528e+03
2.360000e-06	1.204237e-06	1.780728e-08	8.661285e+00	1.162392e+03
2.370000e-06	1.105013e-06	1.757676e-08	7.947635e+00	1.147755e+03
2.380000e-06	1.005556e-06	1.733647e-08	7.232305e+00	1.132408e+03
2.390000e-06	9.058866e-07	1.708448e-08	6.515449e+00	1.116156e+03
2.400000e-06	8.059674e-07	1.681967e-08	5.796795e+00	1.098871e+03
2.410000e-06	7.057732e-07	1.654434e-08	5.076164e+00	1.080520e+03
2.420000e-06	6.052971e-07	1.625810e-08	4.353505e+00	1.061171e+03
2.430000e-06	5.046386e-07	1.595970e-08	3.629535e+00	1.040951e+03
2.440000e-06	4.038402e-07	1.564868e-08	2.904558e+00	1.019991e+03
2.450000e-06	3.028425e-07	1.532082e-08	2.178147e+00	9.983543e+02
2.460000e-06	2.017223e-07	1.497203e-08	1.450857e+00	9.759833e+02
2.470000e-06	1.005227e-07	1.460387e-08	7.229937e-01	9.526742e+02
2.480000e-06	-7.505946e-10	1.421502e-08	-5.398535e-03	9.280976e+02
2.490000e-06	-1.020955e-07	1.380444e-08	-7.343061e-01	9.018574e+02
2.500000e-06	-2.033835e-07	1.337161e-08	-1.462804e+00	8.735728e+02
2.510000e-06	-3.045385e-07	1.291245e-08	-2.190346e+00	8.429577e+02
2.520000e-06	-4.056456e-07	1.241962e-08	-2.917543e+00	8.098689e+02
2.530000e-06	-5.066648e-07	1.188832e-08	-3.644108e+00	7.742993e+02
2.540000e-06	-6.074710e-07	1.131804e-08	-4.369141e+00	7.363091e+02
2.550000e-06	-7.080492e-07	1.070699e-08	-5.092534e+00	6.959031e+02
2.560000e-06	-8.083958e-07	1.004800e-08	-5.814261e+00	6.528839e+02
2.570000e-06	-9.083922e-07	9.331564e-09	-6.533470e+00	6.067206e+02
2.580000e-06	-1.008045e-06	8.547239e-09	-7.250210e+00	5.564773e+02
2.590000e-06	-1.107430e-06	7.681728e-09	-7.965018e+00	5.008378e+02
2.600000e-06	-1.206484e-06	6.720236e-09	-8.677451e+00	4.382411e+02
2.610000e-06	-1.305098e-06	5.645859e-09	-9.386718e+00	3.671187e+02
2.620000e-06	-1.403250e-06	4.437766e-09	-1.009266e+01	2.861975e+02
2.630000e-06	-1.500926e-06	3.077205e-09	-1.079518e+01	1.948116e+02
2.640000e-06	-1.598060e-06	1.554476e-09	-1.149380e+01	9.315836e+01
2.650000e-06	-1.694746e-06	-1.237176e-10	-1.218920e+01	-1.756122e+01
2.660000e-06	-1.791037e-06	-1.930655e-09	-1.288175e+01	-1.351556e+02
2.670000e-06	-1.886666e-06	-3.816923e-09	-1.356955e+01	-2.566198e+02
2.680000e-06	-1.981362e-06	-5.710966e-09	-1.425064e+01	-3.784525e+02
2.690000e-06	-2.075128e-06	-7.543760e-09	-1.492504e+01	-4.970589e+02
2.700000e-06	-2.168115e-06	-9.259262e-09	-1.559383e+01	-6.091695e+02
2.710000e-06	-2.260321e-06	-1.082190e-08	-1.625701e+01	-7.122004e+02
2.720000e-06	-2.351693e-06	-1.221579e-08	-1.691419e+01	-8.044927e+02
2.730000e-06	-2.442247e-06	-1.344105e-08	-1.756548e+01	-8.853975e+02
2.740000e-06	-2.531990e-06	-1.451009e-08	-1.821094e+01	-9.552002e+02
2.750000e-06	-2.620920e-06	-1.543855e-08	-1.885056e+01	-1.014914e+03
2.760000e-06	-2.709022e-06	-1.624436e-08	-1.948422e+01	-1.065996e+03
2.770000e-06	-2.796163e-06	-1.694348e-08	-2.011097e+01	-1.110043e+03
2.780000e-06	-2.882260e-06	-1.755404e-08	-2.073021e+01	-1.148530e+03
2.790000e-06	-2.967227e-06	-1.808717e-08	-2.134132e+01	-1.182641e+03
2.800000e-06	-3.051119e-06	-1.855145e-08	-2.194470e+01	-1.213197e+03
2.810000e-06	-3.134023e-06	-1.896031e-08	-2.254098e+01	-1.240682e+03
2.820000e-06	-3.215861e-06	-1.932338e-08	-2.312958e+01	-1.265345e+03
2.830000e-06	-3.296654e-06	-1.964799e-08	-2.371067e+01	-1.287329e+03
2.840000e-06	-3.376280e-06	-1.994137e-08	-2.428337e+01	-1.306781e+03
2.850000e-06	-3.454533e-06	-2.020912e-08	-2.484619e+01	-1.323939e+03
2.860000e-06	-3.531374e-06	-2.045282e-08	-2.539886e+01	-1.339142e+03
2.870000e-06	-3.606792e-06	-2.067563e-08	-2.594129e+01	-1.352802e+03
2.880000e-06	-3.680773e-06	-2.087860e-08	-2.647339e+01	-1.365335e+03
2.890000e-06	-3.753481e-06	-2.106334e-08	-2.699633e+01	-1.377090e+03
2.900000e-06	-3.824889e-06	-2.123449e-08	-2.750992e+01	-1.388286e+03
2.910000e-06	-3.894787e-06	-2.139379e-08	-2.801265e+01	-1.398995e+03
2.920000e-06	-3.963201e-06	-2.154154e-08	-2.850471e+01	-1.409162e+03
2.930000e-06	-4.030207e-06	-2.167809e-08	-2.898664e+01	-1.418654e+03
2.940000e-06	-4.095832e-06	-2.180598e-08	-2.945864e+01	-1.427336e+03
