# Temperatura_=_63.58
# Concentracion g/m^3_=_41000.0
# C_Vs_to_Am_M_A/Vsm_=_65563218390.804596
# pendiente_HvsI_1/m_=_3716.3
# ordenada_HvsI_A/m_=_1297.0
# frecuencia_Hz_=_301590.23392153793

Tiempo_(s)	Campo_(V.s)	Magnetizacion_(V.s)	Campo_(kA/m)	Magnetizacion_(A/m)
0.000000e+00	-5.340395e-06	-2.120072e-08	-3.834453e+01	-1.386761e+03
1.000000e-08	-5.337876e-06	-2.119772e-08	-3.832645e+01	-1.386549e+03
2.000000e-08	-5.333594e-06	-2.119037e-08	-3.829570e+01	-1.386411e+03
3.000000e-08	-5.327698e-06	-2.118534e-08	-3.825337e+01	-1.386280e+03
4.000000e-08	-5.320211e-06	-2.117721e-08	-3.819961e+01	-1.386051e+03
5.000000e-08	-5.310953e-06	-2.116413e-08	-3.813314e+01	-1.385623e+03
6.000000e-08	-5.299641e-06	-2.114609e-08	-3.805192e+01	-1.384922e+03
7.000000e-08	-5.286469e-06	-2.111329e-08	-3.795734e+01	-1.383932e+03
8.000000e-08	-5.271242e-06	-2.112343e-08	-3.784801e+01	-1.382695e+03
9.000000e-08	-5.253642e-06	-2.117590e-08	-3.772164e+01	-1.381299e+03
1.000000e-07	-5.234000e-06	-2.113659e-08	-3.758061e+01	-1.379856e+03
1.100000e-07	-5.212519e-06	-2.108451e-08	-3.742637e+01	-1.378464e+03
1.200000e-07	-5.189329e-06	-2.104379e-08	-3.725987e+01	-1.377187e+03
1.300000e-07	-5.164775e-06	-2.090282e-08	-3.708357e+01	-1.376030e+03
1.400000e-07	-5.138681e-06	-2.099272e-08	-3.689621e+01	-1.374946e+03
1.500000e-07	-5.110823e-06	-2.106624e-08	-3.669618e+01	-1.373852e+03
1.600000e-07	-5.081445e-06	-2.087740e-08	-3.648525e+01	-1.372650e+03
1.700000e-07	-5.050608e-06	-2.098006e-08	-3.626384e+01	-1.371260e+03
1.800000e-07	-5.017753e-06	-2.096380e-08	-3.602794e+01	-1.369639e+03
1.900000e-07	-4.982891e-06	-2.075555e-08	-3.577763e+01	-1.367788e+03
2.000000e-07	-4.946496e-06	-2.087727e-08	-3.551630e+01	-1.365746e+03
2.100000e-07	-4.908458e-06	-2.084385e-08	-3.524319e+01	-1.363570e+03
2.200000e-07	-4.868730e-06	-2.070841e-08	-3.495794e+01	-1.361313e+03
2.300000e-07	-4.827071e-06	-2.074215e-08	-3.465882e+01	-1.359000e+03
2.400000e-07	-4.783405e-06	-2.067572e-08	-3.434530e+01	-1.356620e+03
2.500000e-07	-4.738003e-06	-2.066637e-08	-3.401930e+01	-1.354128e+03
2.600000e-07	-4.690812e-06	-2.064231e-08	-3.368047e+01	-1.351461e+03
2.700000e-07	-4.641584e-06	-2.051806e-08	-3.332701e+01	-1.348561e+03
2.800000e-07	-4.590238e-06	-2.048010e-08	-3.295834e+01	-1.345398e+03
2.900000e-07	-4.536968e-06	-2.045490e-08	-3.257585e+01	-1.341983e+03
3.000000e-07	-4.482086e-06	-2.041923e-08	-3.218180e+01	-1.338368e+03
3.100000e-07	-4.425625e-06	-2.036679e-08	-3.177640e+01	-1.334631e+03
3.200000e-07	-4.367332e-06	-2.030410e-08	-3.135785e+01	-1.330854e+03
3.300000e-07	-4.307418e-06	-2.024325e-08	-3.092767e+01	-1.327096e+03
3.400000e-07	-4.246116e-06	-2.016225e-08	-3.048751e+01	-1.323369e+03
3.500000e-07	-4.183400e-06	-2.011769e-08	-3.003720e+01	-1.319637e+03
3.600000e-07	-4.119316e-06	-2.006077e-08	-2.957707e+01	-1.315818e+03
3.700000e-07	-4.053615e-06	-2.000472e-08	-2.910534e+01	-1.311811e+03
3.800000e-07	-3.986238e-06	-1.993447e-08	-2.862156e+01	-1.307527e+03
3.900000e-07	-3.917438e-06	-1.982356e-08	-2.812757e+01	-1.302912e+03
4.000000e-07	-3.847355e-06	-1.976610e-08	-2.762437e+01	-1.297968e+03
4.100000e-07	-3.776111e-06	-1.970633e-08	-2.711283e+01	-1.292752e+03
4.200000e-07	-3.703555e-06	-1.963037e-08	-2.659187e+01	-1.287359e+03
4.300000e-07	-3.629374e-06	-1.954757e-08	-2.605924e+01	-1.281891e+03
4.400000e-07	-3.553643e-06	-1.946350e-08	-2.551549e+01	-1.276423e+03
4.500000e-07	-3.476614e-06	-1.937827e-08	-2.496242e+01	-1.270980e+03
4.600000e-07	-3.398202e-06	-1.928399e-08	-2.439941e+01	-1.265520e+03
4.700000e-07	-3.318367e-06	-1.920054e-08	-2.382618e+01	-1.259950e+03
4.800000e-07	-3.237290e-06	-1.910643e-08	-2.324405e+01	-1.254144e+03
4.900000e-07	-3.155058e-06	-1.900908e-08	-2.265361e+01	-1.247988e+03
5.000000e-07	-3.071824e-06	-1.890985e-08	-2.205598e+01	-1.241405e+03
5.100000e-07	-2.987762e-06	-1.880053e-08	-2.145241e+01	-1.234386e+03
5.200000e-07	-2.902871e-06	-1.868519e-08	-2.084289e+01	-1.226988e+03
5.300000e-07	-2.816983e-06	-1.857107e-08	-2.022620e+01	-1.219318e+03
5.400000e-07	-2.730064e-06	-1.846048e-08	-1.960212e+01	-1.211496e+03
5.500000e-07	-2.642339e-06	-1.834723e-08	-1.897224e+01	-1.203614e+03
5.600000e-07	-2.553610e-06	-1.822488e-08	-1.833516e+01	-1.195705e+03
5.700000e-07	-2.463555e-06	-1.809459e-08	-1.768855e+01	-1.187724e+03
5.800000e-07	-2.372450e-06	-1.795677e-08	-1.703441e+01	-1.179556e+03
5.900000e-07	-2.280619e-06	-1.781411e-08	-1.637506e+01	-1.171044e+03
6.000000e-07	-2.188018e-06	-1.767104e-08	-1.571018e+01	-1.162037e+03
6.100000e-07	-2.094613e-06	-1.752738e-08	-1.503952e+01	-1.152428e+03
6.200000e-07	-2.000463e-06	-1.737596e-08	-1.436351e+01	-1.142186e+03
6.300000e-07	-1.905645e-06	-1.721304e-08	-1.368271e+01	-1.131365e+03
6.400000e-07	-1.810248e-06	-1.704506e-08	-1.299775e+01	-1.120085e+03
6.500000e-07	-1.714322e-06	-1.687172e-08	-1.230899e+01	-1.108486e+03
6.600000e-07	-1.617731e-06	-1.669389e-08	-1.161546e+01	-1.096679e+03
6.700000e-07	-1.520337e-06	-1.651020e-08	-1.091616e+01	-1.084703e+03
6.800000e-07	-1.422197e-06	-1.631766e-08	-1.021151e+01	-1.072500e+03
6.900000e-07	-1.323422e-06	-1.611494e-08	-9.502294e+00	-1.059920e+03
7.000000e-07	-1.224210e-06	-1.590156e-08	-8.789946e+00	-1.046754e+03
7.100000e-07	-1.124696e-06	-1.568137e-08	-8.075426e+00	-1.032793e+03
7.200000e-07	-1.024906e-06	-1.545475e-08	-7.358920e+00	-1.017879e+03
7.300000e-07	-9.248995e-07	-1.522251e-08	-6.640865e+00	-1.001950e+03
7.400000e-07	-8.246384e-07	-1.498105e-08	-5.920981e+00	-9.850531e+02
7.500000e-07	-7.240187e-07	-1.472548e-08	-5.198522e+00	-9.673145e+02
7.600000e-07	-6.231339e-07	-1.444985e-08	-4.474160e+00	-9.488871e+02
7.700000e-07	-5.220590e-07	-1.415506e-08	-3.748432e+00	-9.298776e+02
7.800000e-07	-4.208102e-07	-1.384657e-08	-3.021457e+00	-9.102813e+02
7.900000e-07	-3.194406e-07	-1.352339e-08	-2.293614e+00	-8.899445e+02
8.000000e-07	-2.179321e-07	-1.318510e-08	-1.564773e+00	-8.685692e+02
8.100000e-07	-1.162940e-07	-1.282863e-08	-8.350017e-01	-8.457619e+02
8.200000e-07	-1.456926e-08	-1.244969e-08	-1.046086e-01	-8.211145e+02
8.300000e-07	8.718560e-08	-1.204528e-08	6.260008e-01	-7.942924e+02
8.400000e-07	1.888799e-07	-1.161335e-08	1.356175e+00	-7.650996e+02
8.500000e-07	2.904882e-07	-1.114817e-08	2.085733e+00	-7.334949e+02
8.600000e-07	3.920304e-07	-1.064319e-08	2.814815e+00	-6.995436e+02
8.700000e-07	4.935006e-07	-1.009784e-08	3.543380e+00	-6.633074e+02
8.800000e-07	5.948253e-07	-9.507938e-09	4.270902e+00	-6.246962e+02
8.900000e-07	6.958953e-07	-8.863249e-09	4.996593e+00	-5.833211e+02
9.000000e-07	7.967008e-07	-8.154833e-09	5.720387e+00	-5.383926e+02
9.100000e-07	8.972558e-07	-7.373402e-09	6.442380e+00	-4.887072e+02
9.200000e-07	9.974972e-07	-6.504691e-09	7.162123e+00	-4.327463e+02
9.300000e-07	1.097457e-06	-5.530473e-09	7.879844e+00	-3.688872e+02
9.400000e-07	1.197143e-06	-4.429443e-09	8.595600e+00	-2.956973e+02
9.500000e-07	1.296471e-06	-3.179793e-09	9.308786e+00	-2.122598e+02
9.600000e-07	1.395357e-06	-1.767690e-09	1.001879e+01	-1.184651e+02
9.700000e-07	1.493625e-06	-1.964777e-10	1.072437e+01	-1.520147e+01
9.800000e-07	1.591109e-06	1.506195e-09	1.142432e+01	9.560359e+01
9.900000e-07	1.687789e-06	3.294627e-09	1.211849e+01	2.111121e+02
1.000000e-06	1.783779e-06	5.104176e-09	1.280770e+01	3.278620e+02
1.010000e-06	1.879171e-06	6.862368e-09	1.349262e+01	4.421649e+02
1.020000e-06	1.973909e-06	8.506777e-09	1.417285e+01	5.505454e+02
1.030000e-06	2.067891e-06	9.995221e-09	1.484765e+01	6.501445e+02
1.040000e-06	2.161124e-06	1.131042e-08	1.551707e+01	7.390149e+02
1.050000e-06	2.253653e-06	1.245091e-08	1.618144e+01	8.162628e+02
1.060000e-06	2.345548e-06	1.342918e-08	1.684125e+01	8.820172e+02
1.070000e-06	2.436822e-06	1.426454e-08	1.749661e+01	9.372492e+02
1.080000e-06	2.527197e-06	1.497531e-08	1.814551e+01	9.834856e+02
1.090000e-06	2.616315e-06	1.558344e-08	1.878539e+01	1.022483e+03
1.100000e-06	2.704280e-06	1.610584e-08	1.941698e+01	1.055928e+03
1.110000e-06	2.791369e-06	1.655711e-08	2.004229e+01	1.085214e+03
1.120000e-06	2.877622e-06	1.695088e-08	2.066160e+01	1.111332e+03
1.130000e-06	2.962960e-06	1.729797e-08	2.127433e+01	1.134866e+03
1.140000e-06	3.047311e-06	1.760450e-08	2.187998e+01	1.156085e+03
1.150000e-06	3.130810e-06	1.787745e-08	2.247951e+01	1.175076e+03
1.160000e-06	3.213301e-06	1.812233e-08	2.307180e+01	1.191890e+03
1.170000e-06	3.294508e-06	1.834510e-08	2.365488e+01	1.206648e+03
1.180000e-06	3.374486e-06	1.854778e-08	2.422913e+01	1.219588e+03
1.190000e-06	3.453214e-06	1.873129e-08	2.479440e+01	1.231062e+03
1.200000e-06	3.530689e-06	1.889921e-08	2.535068e+01	1.241468e+03
1.210000e-06	3.606991e-06	1.905468e-08	2.589853e+01	1.251180e+03
1.220000e-06	3.681982e-06	1.920107e-08	2.643697e+01	1.260467e+03
1.230000e-06	3.755286e-06	1.933765e-08	2.696330e+01	1.269454e+03
1.240000e-06	3.827010e-06	1.946450e-08	2.747829e+01	1.278124e+03
1.250000e-06	3.897448e-06	1.957958e-08	2.798404e+01	1.286354e+03
1.260000e-06	3.966557e-06	1.968351e-08	2.848025e+01	1.293983e+03
1.270000e-06	4.034373e-06	1.977874e-08	2.896718e+01	1.300885e+03
1.280000e-06	4.100729e-06	1.986888e-08	2.944362e+01	1.307020e+03
1.290000e-06	4.165369e-06	1.995572e-08	2.990774e+01	1.312458e+03
1.300000e-06	4.228472e-06	2.003961e-08	3.036083e+01	1.317363e+03
1.310000e-06	4.290186e-06	2.012045e-08	3.080394e+01	1.321952e+03
1.320000e-06	4.350513e-06	2.019710e-08	3.123709e+01	1.326433e+03
1.330000e-06	4.409397e-06	2.026836e-08	3.165988e+01	1.330950e+03
1.340000e-06	4.466554e-06	2.033512e-08	3.207027e+01	1.335550e+03
1.350000e-06	4.521988e-06	2.039707e-08	3.246829e+01	1.340178e+03
1.360000e-06	4.575817e-06	2.045550e-08	3.285479e+01	1.344704e+03
1.370000e-06	4.627941e-06	2.051190e-08	3.322905e+01	1.348967e+03
1.380000e-06	4.678115e-06	2.056535e-08	3.358930e+01	1.352829e+03
1.390000e-06	4.726324e-06	2.061557e-08	3.393545e+01	1.356221e+03
1.400000e-06	4.772792e-06	2.066357e-08	3.426909e+01	1.359157e+03
1.410000e-06	4.817688e-06	2.070900e-08	3.459145e+01	1.361735e+03
1.420000e-06	4.861083e-06	2.075101e-08	3.490303e+01	1.364099e+03
1.430000e-06	4.902608e-06	2.079114e-08	3.520118e+01	1.366396e+03
1.440000e-06	4.942258e-06	2.082916e-08	3.548587e+01	1.368736e+03
1.450000e-06	4.980324e-06	2.086239e-08	3.575920e+01	1.371155e+03
1.460000e-06	5.016817e-06	2.089129e-08	3.602122e+01	1.373614e+03
1.470000e-06	5.051575e-06	2.091854e-08	3.627078e+01	1.376014e+03
1.480000e-06	5.084340e-06	2.094518e-08	3.650604e+01	1.378228e+03
1.490000e-06	5.115259e-06	2.097025e-08	3.672804e+01	1.380149e+03
1.500000e-06	5.144573e-06	2.099487e-08	3.693851e+01	1.381718e+03
1.510000e-06	5.172214e-06	2.101860e-08	3.713698e+01	1.382948e+03
1.520000e-06	5.197856e-06	2.104015e-08	3.732109e+01	1.383918e+03
1.530000e-06	5.221417e-06	2.105934e-08	3.749026e+01	1.384747e+03
1.540000e-06	5.243158e-06	2.107508e-08	3.764637e+01	1.385559e+03
1.550000e-06	5.263267e-06	2.108933e-08	3.779075e+01	1.386444e+03
1.560000e-06	5.281590e-06	2.110290e-08	3.792231e+01	1.387434e+03
1.570000e-06	5.297915e-06	2.111493e-08	3.803953e+01	1.388493e+03
1.580000e-06	5.312281e-06	2.112560e-08	3.814267e+01	1.389529e+03
1.590000e-06	5.324646e-06	2.113410e-08	3.823146e+01	1.390427e+03
1.600000e-06	5.334822e-06	2.114131e-08	3.830452e+01	1.391084e+03
1.610000e-06	5.342863e-06	2.114874e-08	3.836226e+01	1.391438e+03
1.620000e-06	5.349006e-06	2.115662e-08	3.840637e+01	1.391492e+03
1.630000e-06	5.353424e-06	2.116253e-08	3.843808e+01	1.391308e+03
1.640000e-06	5.355965e-06	2.116643e-08	3.845633e+01	1.390988e+03
1.650000e-06	5.356476e-06	2.116832e-08	3.846000e+01	1.390642e+03
1.660000e-06	5.355176e-06	2.116100e-08	3.845066e+01	1.390355e+03
1.670000e-06	5.352221e-06	2.115357e-08	3.842945e+01	1.390161e+03
1.680000e-06	5.347679e-06	2.114778e-08	3.839684e+01	1.390032e+03
1.690000e-06	5.341270e-06	2.114177e-08	3.835082e+01	1.389888e+03
1.700000e-06	5.332966e-06	2.113712e-08	3.829120e+01	1.389624e+03
1.710000e-06	5.323071e-06	2.113361e-08	3.822015e+01	1.389140e+03
1.720000e-06	5.311529e-06	2.114494e-08	3.813728e+01	1.388377e+03
1.730000e-06	5.298132e-06	2.113044e-08	3.804108e+01	1.387328e+03
1.740000e-06	5.282719e-06	2.102206e-08	3.793042e+01	1.386047e+03
1.750000e-06	5.265070e-06	2.101011e-08	3.780370e+01	1.384631e+03
1.760000e-06	5.244787e-06	2.102910e-08	3.765806e+01	1.383190e+03
1.770000e-06	5.222067e-06	2.105635e-08	3.749493e+01	1.381819e+03
1.780000e-06	5.197872e-06	2.116175e-08	3.732121e+01	1.380568e+03
1.790000e-06	5.172974e-06	2.095963e-08	3.714243e+01	1.379431e+03
1.800000e-06	5.146818e-06	2.091050e-08	3.695464e+01	1.378353e+03
1.810000e-06	5.118611e-06	2.104558e-08	3.675211e+01	1.377243e+03
1.820000e-06	5.088644e-06	2.082634e-08	3.653694e+01	1.376005e+03
1.830000e-06	5.056857e-06	2.091704e-08	3.630871e+01	1.374567e+03
1.840000e-06	5.023067e-06	2.107014e-08	3.606609e+01	1.372894e+03
1.850000e-06	4.987731e-06	2.081468e-08	3.581238e+01	1.370997e+03
1.860000e-06	4.950644e-06	2.089250e-08	3.554608e+01	1.368921e+03
1.870000e-06	4.911602e-06	2.092066e-08	3.526576e+01	1.366724e+03
1.880000e-06	4.870928e-06	2.078546e-08	3.497372e+01	1.364453e+03
1.890000e-06	4.828435e-06	2.085891e-08	3.466862e+01	1.362127e+03
1.900000e-06	4.784260e-06	2.066475e-08	3.435143e+01	1.359727e+03
1.910000e-06	4.738390e-06	2.067635e-08	3.402208e+01	1.357202e+03
1.920000e-06	4.690579e-06	2.078463e-08	3.367880e+01	1.354488e+03
1.930000e-06	4.641165e-06	2.058275e-08	3.332400e+01	1.351533e+03
1.940000e-06	4.589962e-06	2.057373e-08	3.295636e+01	1.348313e+03
1.950000e-06	4.536700e-06	2.049933e-08	3.257393e+01	1.344849e+03
1.960000e-06	4.481546e-06	2.045023e-08	3.217792e+01	1.341199e+03
1.970000e-06	4.424664e-06	2.043911e-08	3.176950e+01	1.337446e+03
1.980000e-06	4.366288e-06	2.031459e-08	3.135035e+01	1.333669e+03
1.990000e-06	4.306531e-06	2.035820e-08	3.092129e+01	1.329917e+03
2.000000e-06	4.245266e-06	2.025953e-08	3.048141e+01	1.326194e+03
2.010000e-06	4.182240e-06	2.016443e-08	3.002887e+01	1.322450e+03
2.020000e-06	4.117520e-06	2.011479e-08	2.956418e+01	1.318599e+03
2.030000e-06	4.051460e-06	2.003411e-08	2.908986e+01	1.314539e+03
2.040000e-06	3.984123e-06	2.004608e-08	2.860638e+01	1.310185e+03
2.050000e-06	3.915366e-06	1.991160e-08	2.811269e+01	1.305497e+03
2.060000e-06	3.844960e-06	1.984281e-08	2.760717e+01	1.300487e+03
2.070000e-06	3.773096e-06	1.979132e-08	2.709118e+01	1.295224e+03
2.080000e-06	3.700073e-06	1.968816e-08	2.656687e+01	1.289806e+03
2.090000e-06	3.625713e-06	1.962604e-08	2.603296e+01	1.284332e+03
2.100000e-06	3.550025e-06	1.951744e-08	2.548951e+01	1.278869e+03
2.110000e-06	3.472817e-06	1.946250e-08	2.493515e+01	1.273427e+03
2.120000e-06	3.394005e-06	1.936875e-08	2.436927e+01	1.267953e+03
2.130000e-06	3.313940e-06	1.927245e-08	2.379440e+01	1.262342e+03
2.140000e-06	3.232803e-06	1.917917e-08	2.321183e+01	1.256469e+03
2.150000e-06	3.150598e-06	1.907019e-08	2.262159e+01	1.250225e+03
2.160000e-06	3.067336e-06	1.899068e-08	2.202376e+01	1.243546e+03
2.170000e-06	2.983141e-06	1.888341e-08	2.141923e+01	1.236438e+03
2.180000e-06	2.897699e-06	1.878142e-08	2.080575e+01	1.228971e+03
2.190000e-06	2.810873e-06	1.866249e-08	2.018233e+01	1.221258e+03
2.200000e-06	2.723027e-06	1.854419e-08	1.955159e+01	1.213416e+03
2.210000e-06	2.634322e-06	1.842582e-08	1.891468e+01	1.205528e+03
2.220000e-06	2.544745e-06	1.830388e-08	1.827151e+01	1.197609e+03
2.230000e-06	2.454281e-06	1.818912e-08	1.762197e+01	1.189599e+03
2.240000e-06	2.363066e-06	1.806112e-08	1.696704e+01	1.181370e+03
2.250000e-06	2.271184e-06	1.792593e-08	1.630731e+01	1.172764e+03
2.260000e-06	2.178542e-06	1.777605e-08	1.564213e+01	1.163633e+03
2.270000e-06	2.084840e-06	1.763097e-08	1.496935e+01	1.153887e+03
2.280000e-06	1.990049e-06	1.748379e-08	1.428874e+01	1.143513e+03
2.290000e-06	1.894519e-06	1.732664e-08	1.360282e+01	1.132582e+03
2.300000e-06	1.798495e-06	1.716174e-08	1.291336e+01	1.121221e+03
2.310000e-06	1.701983e-06	1.699060e-08	1.222040e+01	1.109569e+03
2.320000e-06	1.604942e-06	1.681628e-08	1.152364e+01	1.097725e+03
2.330000e-06	1.507396e-06	1.663161e-08	1.082324e+01	1.085708e+03
2.340000e-06	1.409276e-06	1.643788e-08	1.011874e+01	1.073439e+03
2.350000e-06	1.310645e-06	1.623431e-08	9.410556e+00	1.060751e+03
2.360000e-06	1.211628e-06	1.602509e-08	8.699604e+00	1.047431e+03
2.370000e-06	1.112297e-06	1.580666e-08	7.986394e+00	1.033275e+03
2.380000e-06	1.012707e-06	1.557708e-08	7.271334e+00	1.018144e+03
2.390000e-06	9.129170e-07	1.533602e-08	6.554830e+00	1.002000e+03
2.400000e-06	8.129331e-07	1.508251e-08	5.836936e+00	9.849091e+02
2.410000e-06	7.126872e-07	1.481810e-08	5.117161e+00	9.670097e+02
2.420000e-06	6.122213e-07	1.454207e-08	4.395806e+00	9.484508e+02
2.430000e-06	5.115476e-07	1.425463e-08	3.672960e+00	9.293200e+02
2.440000e-06	4.106739e-07	1.395166e-08	2.948677e+00	9.095825e+02
2.450000e-06	3.096236e-07	1.362768e-08	2.223127e+00	8.890518e+02
2.460000e-06	2.082855e-07	1.328177e-08	1.495510e+00	8.674038e+02
2.470000e-06	1.067515e-07	1.291777e-08	7.664860e-01	8.442346e+02
2.480000e-06	5.226103e-09	1.253316e-08	3.752391e-02	8.191447e+02
2.490000e-06	-9.631885e-08	1.211907e-08	-6.915783e-01	7.918248e+02
2.500000e-06	-1.978601e-07	1.167470e-08	-1.420654e+00	7.621131e+02
2.510000e-06	-2.992927e-07	1.120088e-08	-2.148950e+00	7.299974e+02
2.520000e-06	-4.005830e-07	1.069178e-08	-2.876224e+00	6.955533e+02
2.530000e-06	-5.016501e-07	1.014120e-08	-3.601894e+00	6.588231e+02
2.540000e-06	-6.025529e-07	9.542239e-09	-4.326386e+00	6.196643e+02
2.550000e-06	-7.032812e-07	8.886814e-09	-5.049625e+00	5.776080e+02
2.560000e-06	-8.036734e-07	8.166891e-09	-5.770451e+00	5.317738e+02
2.570000e-06	-9.037623e-07	7.369941e-09	-6.489098e+00	4.808781e+02
2.580000e-06	-1.003613e-06	6.480961e-09	-7.206038e+00	4.233591e+02
2.590000e-06	-1.103227e-06	5.483791e-09	-7.921274e+00	3.576077e+02
2.600000e-06	-1.202513e-06	4.360664e-09	-8.634157e+00	2.822747e+02
2.610000e-06	-1.301373e-06	3.092721e-09	-9.343981e+00	1.965943e+02
2.620000e-06	-1.399743e-06	1.663473e-09	-1.005029e+01	1.006591e+02
2.630000e-06	-1.497538e-06	7.624121e-11	-1.075246e+01	-4.417683e+00
2.640000e-06	-1.594787e-06	-1.642614e-09	-1.145072e+01	-1.164968e+02
2.650000e-06	-1.691535e-06	-3.445763e-09	-1.214538e+01	-2.325779e+02
2.660000e-06	-1.787794e-06	-5.264855e-09	-1.283653e+01	-3.491141e+02
2.670000e-06	-1.883581e-06	-7.025324e-09	-1.352429e+01	-4.624258e+02
2.680000e-06	-1.978741e-06	-8.662772e-09	-1.420754e+01	-5.691385e+02
2.690000e-06	-2.072984e-06	-1.013999e-08	-1.488422e+01	-6.665684e+02
2.700000e-06	-2.166181e-06	-1.144184e-08	-1.555338e+01	-7.529879e+02
2.710000e-06	-2.258449e-06	-1.256830e-08	-1.621587e+01	-8.277304e+02
2.720000e-06	-2.349978e-06	-1.353223e-08	-1.687306e+01	-8.911252e+02
2.730000e-06	-2.440725e-06	-1.435410e-08	-1.752463e+01	-9.442890e+02
2.740000e-06	-2.530573e-06	-1.505875e-08	-1.816975e+01	-9.888254e+02
2.750000e-06	-2.619530e-06	-1.566479e-08	-1.880847e+01	-1.026499e+03
2.760000e-06	-2.707699e-06	-1.618736e-08	-1.944153e+01	-1.058949e+03
2.770000e-06	-2.795171e-06	-1.663697e-08	-2.006959e+01	-1.087488e+03
2.780000e-06	-2.881573e-06	-1.702677e-08	-2.068996e+01	-1.113016e+03
2.790000e-06	-2.966652e-06	-1.736722e-08	-2.130084e+01	-1.136041e+03
2.800000e-06	-3.050628e-06	-1.766727e-08	-2.190379e+01	-1.156779e+03
2.810000e-06	-3.133632e-06	-1.793532e-08	-2.249977e+01	-1.175299e+03
2.820000e-06	-3.215686e-06	-1.817514e-08	-2.308893e+01	-1.191660e+03
2.830000e-06	-3.296699e-06	-1.839449e-08	-2.367061e+01	-1.206004e+03
2.840000e-06	-3.376605e-06	-1.859703e-08	-2.424434e+01	-1.218599e+03
2.850000e-06	-3.455170e-06	-1.878327e-08	-2.480844e+01	-1.229810e+03
2.860000e-06	-3.532139e-06	-1.895337e-08	-2.536109e+01	-1.240040e+03
2.870000e-06	-3.607683e-06	-1.910922e-08	-2.590350e+01	-1.249643e+03
2.880000e-06	-3.681959e-06	-1.925174e-08	-2.643681e+01	-1.258861e+03
2.890000e-06	-3.754942e-06	-1.938221e-08	-2.696083e+01	-1.267787e+03
2.900000e-06	-3.826657e-06	-1.950390e-08	-2.747576e+01	-1.276376e+03
2.910000e-06	-3.896907e-06	-1.961943e-08	-2.798016e+01	-1.284491e+03
2.920000e-06	-3.965575e-06	-1.972738e-08	-2.847320e+01	-1.291974e+03
2.930000e-06	-4.032856e-06	-1.982658e-08	-2.895629e+01	-1.298712e+03
2.940000e-06	-4.098765e-06	-1.991927e-08	-2.942951e+01	-1.304689e+03
