# Temperatura_=_53.94
# Concentracion g/m^3_=_41000.0
# C_Vs_to_Am_M_A/Vsm_=_65563218390.804596
# pendiente_HvsI_1/m_=_3716.3
# ordenada_HvsI_A/m_=_1297.0
# frecuencia_Hz_=_301591.6819906362

Tiempo_(s)	Campo_(V.s)	Magnetizacion_(V.s)	Campo_(kA/m)	Magnetizacion_(A/m)
0.000000e+00	-5.350142e-06	-2.414621e-08	-3.834972e+01	-1.579045e+03
1.000000e-08	-5.347633e-06	-2.414509e-08	-3.833173e+01	-1.578603e+03
2.000000e-08	-5.343270e-06	-2.413714e-08	-3.830046e+01	-1.578251e+03
3.000000e-08	-5.337312e-06	-2.412821e-08	-3.825775e+01	-1.577974e+03
4.000000e-08	-5.329830e-06	-2.411766e-08	-3.820413e+01	-1.577694e+03
5.000000e-08	-5.320625e-06	-2.410144e-08	-3.813815e+01	-1.577302e+03
6.000000e-08	-5.309369e-06	-2.408179e-08	-3.805747e+01	-1.576687e+03
7.000000e-08	-5.296161e-06	-2.405011e-08	-3.796279e+01	-1.575776e+03
8.000000e-08	-5.280813e-06	-2.404540e-08	-3.785278e+01	-1.574555e+03
9.000000e-08	-5.263131e-06	-2.411026e-08	-3.772603e+01	-1.573076e+03
1.000000e-07	-5.243400e-06	-2.407484e-08	-3.758460e+01	-1.571441e+03
1.100000e-07	-5.221829e-06	-2.399698e-08	-3.742997e+01	-1.569770e+03
1.200000e-07	-5.198625e-06	-2.396804e-08	-3.726365e+01	-1.568166e+03
1.300000e-07	-5.174059e-06	-2.382330e-08	-3.708756e+01	-1.566685e+03
1.400000e-07	-5.147888e-06	-2.387225e-08	-3.689997e+01	-1.565316e+03
1.500000e-07	-5.119940e-06	-2.401568e-08	-3.669964e+01	-1.563989e+03
1.600000e-07	-5.090522e-06	-2.379344e-08	-3.648877e+01	-1.562591e+03
1.700000e-07	-5.059595e-06	-2.385424e-08	-3.626709e+01	-1.561005e+03
1.800000e-07	-5.026625e-06	-2.390882e-08	-3.603076e+01	-1.559142e+03
1.900000e-07	-4.991660e-06	-2.361945e-08	-3.578013e+01	-1.556968e+03
2.000000e-07	-4.955228e-06	-2.372256e-08	-3.551899e+01	-1.554508e+03
2.100000e-07	-4.917108e-06	-2.373656e-08	-3.524575e+01	-1.551840e+03
2.200000e-07	-4.877223e-06	-2.354537e-08	-3.495985e+01	-1.549063e+03
2.300000e-07	-4.835447e-06	-2.359848e-08	-3.466040e+01	-1.546267e+03
2.400000e-07	-4.791640e-06	-2.356481e-08	-3.434639e+01	-1.543505e+03
2.500000e-07	-4.746157e-06	-2.349154e-08	-3.402037e+01	-1.540768e+03
2.600000e-07	-4.698928e-06	-2.349381e-08	-3.368183e+01	-1.537996e+03
2.700000e-07	-4.649674e-06	-2.339724e-08	-3.332878e+01	-1.535092e+03
2.800000e-07	-4.598265e-06	-2.334247e-08	-3.296028e+01	-1.531954e+03
2.900000e-07	-4.544903e-06	-2.329334e-08	-3.257778e+01	-1.528508e+03
3.000000e-07	-4.489949e-06	-2.325507e-08	-3.218388e+01	-1.524731e+03
3.100000e-07	-4.433479e-06	-2.319239e-08	-3.177910e+01	-1.520658e+03
3.200000e-07	-4.375158e-06	-2.311119e-08	-3.136105e+01	-1.516370e+03
3.300000e-07	-4.315118e-06	-2.306765e-08	-3.093069e+01	-1.511971e+03
3.400000e-07	-4.253615e-06	-2.296971e-08	-3.048984e+01	-1.507549e+03
3.500000e-07	-4.190672e-06	-2.291974e-08	-3.003866e+01	-1.503152e+03
3.600000e-07	-4.126424e-06	-2.285948e-08	-2.957813e+01	-1.498769e+03
3.700000e-07	-4.060552e-06	-2.277342e-08	-2.910597e+01	-1.494332e+03
3.800000e-07	-3.992994e-06	-2.270429e-08	-2.862171e+01	-1.489738e+03
3.900000e-07	-3.924003e-06	-2.260153e-08	-2.812718e+01	-1.484880e+03
4.000000e-07	-3.853747e-06	-2.252949e-08	-2.762359e+01	-1.479681e+03
4.100000e-07	-3.782416e-06	-2.245289e-08	-2.711229e+01	-1.474119e+03
4.200000e-07	-3.709863e-06	-2.236604e-08	-2.659223e+01	-1.468231e+03
4.300000e-07	-3.635680e-06	-2.228048e-08	-2.606049e+01	-1.462104e+03
4.400000e-07	-3.559794e-06	-2.219226e-08	-2.551654e+01	-1.455844e+03
4.500000e-07	-3.482599e-06	-2.210276e-08	-2.496321e+01	-1.449541e+03
4.600000e-07	-3.404082e-06	-2.199568e-08	-2.440040e+01	-1.443233e+03
4.700000e-07	-3.324078e-06	-2.189540e-08	-2.382693e+01	-1.436898e+03
4.800000e-07	-3.242814e-06	-2.179160e-08	-2.324444e+01	-1.430447e+03
4.900000e-07	-3.160444e-06	-2.167680e-08	-2.265401e+01	-1.423757e+03
5.000000e-07	-3.077079e-06	-2.156599e-08	-2.205645e+01	-1.416699e+03
5.100000e-07	-2.992831e-06	-2.144530e-08	-2.145256e+01	-1.409183e+03
5.200000e-07	-2.907713e-06	-2.132090e-08	-2.084243e+01	-1.401183e+03
5.300000e-07	-2.821674e-06	-2.119937e-08	-2.022571e+01	-1.392742e+03
5.400000e-07	-2.734730e-06	-2.107687e-08	-1.960250e+01	-1.383964e+03
5.500000e-07	-2.646928e-06	-2.095391e-08	-1.897314e+01	-1.374969e+03
5.600000e-07	-2.558052e-06	-2.081625e-08	-1.833607e+01	-1.365862e+03
5.700000e-07	-2.467938e-06	-2.066885e-08	-1.769014e+01	-1.356684e+03
5.800000e-07	-2.376787e-06	-2.051154e-08	-1.703677e+01	-1.347400e+03
5.900000e-07	-2.284773e-06	-2.035498e-08	-1.637721e+01	-1.337897e+03
6.000000e-07	-2.191979e-06	-2.019459e-08	-1.571207e+01	-1.328015e+03
6.100000e-07	-2.098436e-06	-2.003076e-08	-1.504155e+01	-1.317590e+03
6.200000e-07	-2.004126e-06	-1.986300e-08	-1.436554e+01	-1.306503e+03
6.300000e-07	-1.909119e-06	-1.968450e-08	-1.368453e+01	-1.294715e+03
6.400000e-07	-1.813545e-06	-1.950219e-08	-1.299946e+01	-1.282276e+03
6.500000e-07	-1.717413e-06	-1.931317e-08	-1.231039e+01	-1.269309e+03
6.600000e-07	-1.620553e-06	-1.911780e-08	-1.161610e+01	-1.255966e+03
6.700000e-07	-1.522877e-06	-1.891184e-08	-1.091596e+01	-1.242374e+03
6.800000e-07	-1.424530e-06	-1.869893e-08	-1.021100e+01	-1.228586e+03
6.900000e-07	-1.325676e-06	-1.847619e-08	-9.502425e+00	-1.214548e+03
7.000000e-07	-1.226364e-06	-1.824361e-08	-8.790553e+00	-1.200106e+03
7.100000e-07	-1.126707e-06	-1.800211e-08	-8.076213e+00	-1.185034e+03
7.200000e-07	-1.026712e-06	-1.775198e-08	-7.359450e+00	-1.169097e+03
7.300000e-07	-9.264214e-07	-1.749702e-08	-6.640572e+00	-1.152113e+03
7.400000e-07	-8.258832e-07	-1.723164e-08	-5.919916e+00	-1.133997e+03
7.500000e-07	-7.250999e-07	-1.695485e-08	-5.197503e+00	-1.114782e+03
7.600000e-07	-6.241243e-07	-1.665825e-08	-4.473712e+00	-1.094598e+03
7.700000e-07	-5.229149e-07	-1.633970e-08	-3.748245e+00	-1.073606e+03
7.800000e-07	-4.215278e-07	-1.600552e-08	-3.021504e+00	-1.051931e+03
7.900000e-07	-3.200102e-07	-1.565679e-08	-2.293827e+00	-1.029581e+03
8.000000e-07	-2.183423e-07	-1.529184e-08	-1.565074e+00	-1.006404e+03
8.100000e-07	-1.165803e-07	-1.490744e-08	-8.356452e-01	-9.820882e+02
8.200000e-07	-1.476724e-08	-1.450260e-08	-1.058513e-01	-9.562105e+02
8.300000e-07	8.712288e-08	-1.407419e-08	6.244953e-01	-9.283214e+02
8.400000e-07	1.890236e-07	-1.361672e-08	1.354918e+00	-8.980431e+02
8.500000e-07	2.908174e-07	-1.312506e-08	2.084574e+00	-8.651452e+02
8.600000e-07	3.925132e-07	-1.259584e-08	2.813528e+00	-8.295699e+02
8.700000e-07	4.941380e-07	-1.202650e-08	3.541973e+00	-7.913862e+02
8.800000e-07	5.956287e-07	-1.141461e-08	4.269456e+00	-7.506756e+02
8.900000e-07	6.969104e-07	-1.075430e-08	4.995442e+00	-7.073715e+02
9.000000e-07	7.979522e-07	-1.003827e-08	5.719707e+00	-6.610934e+02
9.100000e-07	8.987508e-07	-9.255149e-09	6.442230e+00	-6.110263e+02
9.200000e-07	9.992823e-07	-8.389503e-09	7.162838e+00	-5.558917e+02
9.300000e-07	1.099481e-06	-7.427725e-09	7.881059e+00	-4.940410e+02
9.400000e-07	1.199303e-06	-6.349727e-09	8.596581e+00	-4.236727e+02
9.500000e-07	1.298694e-06	-5.132549e-09	9.309019e+00	-3.431485e+02
9.600000e-07	1.397594e-06	-3.752271e-09	1.001793e+01	-2.513511e+02
9.700000e-07	1.495989e-06	-2.196791e-09	1.072322e+01	-1.480131e+02
9.800000e-07	1.593741e-06	-4.673029e-10	1.142391e+01	-3.394461e+01
9.900000e-07	1.690671e-06	1.417642e-09	1.211870e+01	8.889781e+01
1.000000e-06	1.786799e-06	3.408737e-09	1.280774e+01	2.175282e+02
1.010000e-06	1.882263e-06	5.435706e-09	1.349203e+01	3.482243e+02
1.020000e-06	1.977173e-06	7.417355e-09	1.417234e+01	4.769503e+02
1.030000e-06	2.071407e-06	9.283797e-09	1.484781e+01	5.998356e+02
1.040000e-06	2.164854e-06	1.098835e-08	1.551763e+01	7.136240e+02
1.050000e-06	2.257580e-06	1.250484e-08	1.618230e+01	8.160139e+02
1.060000e-06	2.349653e-06	1.383142e-08	1.684227e+01	9.058355e+02
1.070000e-06	2.440970e-06	1.497876e-08	1.749683e+01	9.830412e+02
1.080000e-06	2.531381e-06	1.596699e-08	1.814490e+01	1.048528e+03
1.090000e-06	2.620732e-06	1.681864e-08	1.878536e+01	1.103839e+03
1.100000e-06	2.708944e-06	1.755188e-08	1.941766e+01	1.150814e+03
1.110000e-06	2.796210e-06	1.818260e-08	2.004318e+01	1.191260e+03
1.120000e-06	2.882595e-06	1.872799e-08	2.066239e+01	1.226702e+03
1.130000e-06	2.968018e-06	1.920069e-08	2.127470e+01	1.258249e+03
1.140000e-06	3.052537e-06	1.961406e-08	2.188053e+01	1.286585e+03
1.150000e-06	3.136156e-06	1.998224e-08	2.247991e+01	1.312050e+03
1.160000e-06	3.218736e-06	2.031184e-08	2.307185e+01	1.334789e+03
1.170000e-06	3.300063e-06	2.060798e-08	2.365480e+01	1.354899e+03
1.180000e-06	3.380129e-06	2.087527e-08	2.422871e+01	1.372548e+03
1.190000e-06	3.458994e-06	2.111950e-08	2.479401e+01	1.388032e+03
1.200000e-06	3.536624e-06	2.133765e-08	2.535046e+01	1.401762e+03
1.210000e-06	3.613017e-06	2.153502e-08	2.589804e+01	1.414204e+03
1.220000e-06	3.688055e-06	2.171808e-08	2.643592e+01	1.425788e+03
1.230000e-06	3.761549e-06	2.189043e-08	2.696271e+01	1.436829e+03
1.240000e-06	3.833489e-06	2.205172e-08	2.747838e+01	1.447478e+03
1.250000e-06	3.904058e-06	2.220012e-08	2.798422e+01	1.457719e+03
1.260000e-06	3.973298e-06	2.233780e-08	2.848053e+01	1.467419e+03
1.270000e-06	4.041207e-06	2.246564e-08	2.896730e+01	1.476395e+03
1.280000e-06	4.107694e-06	2.258228e-08	2.944388e+01	1.484499e+03
1.290000e-06	4.172519e-06	2.268881e-08	2.990854e+01	1.491680e+03
1.300000e-06	4.235784e-06	2.278909e-08	3.036203e+01	1.498012e+03
1.310000e-06	4.297667e-06	2.288279e-08	3.080560e+01	1.503677e+03
1.320000e-06	4.358126e-06	2.297133e-08	3.123897e+01	1.508924e+03
1.330000e-06	4.417111e-06	2.305464e-08	3.166177e+01	1.513997e+03
1.340000e-06	4.474348e-06	2.313423e-08	3.207205e+01	1.519072e+03
1.350000e-06	4.529845e-06	2.321021e-08	3.246985e+01	1.524220e+03
1.360000e-06	4.583774e-06	2.328174e-08	3.285641e+01	1.529394e+03
1.370000e-06	4.635978e-06	2.334993e-08	3.323061e+01	1.534460e+03
1.380000e-06	4.686206e-06	2.341527e-08	3.359064e+01	1.539242e+03
1.390000e-06	4.734472e-06	2.347737e-08	3.393661e+01	1.543585e+03
1.400000e-06	4.780996e-06	2.353606e-08	3.427010e+01	1.547406e+03
1.410000e-06	4.825894e-06	2.359100e-08	3.459192e+01	1.550712e+03
1.420000e-06	4.869302e-06	2.364173e-08	3.490307e+01	1.553605e+03
1.430000e-06	4.910916e-06	2.368829e-08	3.520136e+01	1.556239e+03
1.440000e-06	4.950614e-06	2.373273e-08	3.548592e+01	1.558778e+03
1.450000e-06	4.988715e-06	2.377320e-08	3.575902e+01	1.561344e+03
1.460000e-06	5.025241e-06	2.380839e-08	3.602084e+01	1.563985e+03
1.470000e-06	5.060038e-06	2.384061e-08	3.627027e+01	1.566658e+03
1.480000e-06	5.092888e-06	2.387147e-08	3.650573e+01	1.569257e+03
1.490000e-06	5.123916e-06	2.390130e-08	3.672814e+01	1.571641e+03
1.500000e-06	5.153269e-06	2.392930e-08	3.693854e+01	1.573688e+03
1.510000e-06	5.180921e-06	2.395578e-08	3.713675e+01	1.575329e+03
1.520000e-06	5.206591e-06	2.398116e-08	3.732075e+01	1.576575e+03
1.530000e-06	5.230214e-06	2.400381e-08	3.749008e+01	1.577511e+03
1.540000e-06	5.252039e-06	2.402115e-08	3.764652e+01	1.578270e+03
1.550000e-06	5.272151e-06	2.403532e-08	3.779068e+01	1.578993e+03
1.560000e-06	5.290463e-06	2.404821e-08	3.792194e+01	1.579789e+03
1.570000e-06	5.306771e-06	2.405971e-08	3.803884e+01	1.580701e+03
1.580000e-06	5.321092e-06	2.406954e-08	3.814149e+01	1.581696e+03
1.590000e-06	5.333473e-06	2.407855e-08	3.823024e+01	1.582681e+03
1.600000e-06	5.343666e-06	2.408908e-08	3.830330e+01	1.583530e+03
1.610000e-06	5.351690e-06	2.410075e-08	3.836082e+01	1.584130e+03
1.620000e-06	5.357881e-06	2.411009e-08	3.840519e+01	1.584411e+03
1.630000e-06	5.362361e-06	2.411641e-08	3.843731e+01	1.584369e+03
1.640000e-06	5.364963e-06	2.411875e-08	3.845596e+01	1.584068e+03
1.650000e-06	5.365527e-06	2.411880e-08	3.846000e+01	1.583617e+03
1.660000e-06	5.364241e-06	2.411156e-08	3.845079e+01	1.583133e+03
1.670000e-06	5.361312e-06	2.410146e-08	3.842979e+01	1.582707e+03
1.680000e-06	5.356773e-06	2.409718e-08	3.839725e+01	1.582373e+03
1.690000e-06	5.350325e-06	2.409274e-08	3.835103e+01	1.582102e+03
1.700000e-06	5.342024e-06	2.408766e-08	3.829153e+01	1.581807e+03
1.710000e-06	5.332189e-06	2.408255e-08	3.822103e+01	1.581375e+03
1.720000e-06	5.320699e-06	2.408600e-08	3.813868e+01	1.580699e+03
1.730000e-06	5.307332e-06	2.408863e-08	3.804286e+01	1.579719e+03
1.740000e-06	5.291905e-06	2.396421e-08	3.793228e+01	1.578436e+03
1.750000e-06	5.274197e-06	2.393449e-08	3.780535e+01	1.576912e+03
1.760000e-06	5.253890e-06	2.397173e-08	3.765979e+01	1.575258e+03
1.770000e-06	5.231134e-06	2.396888e-08	3.749668e+01	1.573592e+03
1.780000e-06	5.206912e-06	2.411100e-08	3.732305e+01	1.572011e+03
1.790000e-06	5.181999e-06	2.393935e-08	3.714448e+01	1.570556e+03
1.800000e-06	5.155816e-06	2.379446e-08	3.695680e+01	1.569203e+03
1.810000e-06	5.127509e-06	2.398831e-08	3.675390e+01	1.567869e+03
1.820000e-06	5.097357e-06	2.377559e-08	3.653777e+01	1.566438e+03
1.830000e-06	5.065526e-06	2.376219e-08	3.630960e+01	1.564798e+03
1.840000e-06	5.031746e-06	2.398647e-08	3.606747e+01	1.562868e+03
1.850000e-06	4.996343e-06	2.369743e-08	3.581370e+01	1.560627e+03
1.860000e-06	4.959168e-06	2.373011e-08	3.554723e+01	1.558114e+03
1.870000e-06	4.919991e-06	2.383847e-08	3.526641e+01	1.555412e+03
1.880000e-06	4.879237e-06	2.360386e-08	3.497428e+01	1.552623e+03
1.890000e-06	4.836710e-06	2.369151e-08	3.466945e+01	1.549831e+03
1.900000e-06	4.792482e-06	2.357267e-08	3.435243e+01	1.547075e+03
1.910000e-06	4.746592e-06	2.348781e-08	3.402349e+01	1.544336e+03
1.920000e-06	4.698788e-06	2.362503e-08	3.368083e+01	1.541543e+03
1.930000e-06	4.649330e-06	2.342186e-08	3.332632e+01	1.538596e+03
1.940000e-06	4.598026e-06	2.341429e-08	3.295857e+01	1.535396e+03
1.950000e-06	4.544672e-06	2.335244e-08	3.257613e+01	1.531878e+03
1.960000e-06	4.489481e-06	2.327694e-08	3.218052e+01	1.528031e+03
1.970000e-06	4.432571e-06	2.329064e-08	3.177259e+01	1.523902e+03
1.980000e-06	4.374114e-06	2.310990e-08	3.135357e+01	1.519581e+03
1.990000e-06	4.314275e-06	2.316173e-08	3.092465e+01	1.515169e+03
2.000000e-06	4.252909e-06	2.307764e-08	3.048478e+01	1.510749e+03
2.010000e-06	4.189788e-06	2.295606e-08	3.003232e+01	1.506357e+03
2.020000e-06	4.125021e-06	2.295238e-08	2.956808e+01	1.501968e+03
2.030000e-06	4.058890e-06	2.282114e-08	2.909405e+01	1.497505e+03
2.040000e-06	3.991423e-06	2.282029e-08	2.861045e+01	1.492862e+03
2.050000e-06	3.922551e-06	2.269075e-08	2.811678e+01	1.487935e+03
2.060000e-06	3.852094e-06	2.260151e-08	2.761174e+01	1.482656e+03
2.070000e-06	3.780165e-06	2.256952e-08	2.709615e+01	1.477018e+03
2.080000e-06	3.707092e-06	2.244014e-08	2.657237e+01	1.471069e+03
2.090000e-06	3.632649e-06	2.237932e-08	2.603876e+01	1.464904e+03
2.100000e-06	3.556736e-06	2.225167e-08	2.549462e+01	1.458627e+03
2.110000e-06	3.479282e-06	2.218804e-08	2.493943e+01	1.452320e+03
2.120000e-06	3.400319e-06	2.209319e-08	2.437343e+01	1.446010e+03
2.130000e-06	3.320145e-06	2.197976e-08	2.379874e+01	1.439657e+03
2.140000e-06	3.238879e-06	2.189204e-08	2.321623e+01	1.433165e+03
2.150000e-06	3.156555e-06	2.176545e-08	2.262613e+01	1.426405e+03
2.160000e-06	3.073236e-06	2.167901e-08	2.202890e+01	1.419253e+03
2.170000e-06	2.988962e-06	2.155116e-08	2.142483e+01	1.411632e+03
2.180000e-06	2.903427e-06	2.143456e-08	2.081171e+01	1.403530e+03
2.190000e-06	2.816566e-06	2.130859e-08	2.018909e+01	1.395006e+03
2.200000e-06	2.728672e-06	2.117138e-08	1.955907e+01	1.386170e+03
2.210000e-06	2.639869e-06	2.104160e-08	1.892254e+01	1.377143e+03
2.220000e-06	2.550192e-06	2.090577e-08	1.827973e+01	1.368018e+03
2.230000e-06	2.459630e-06	2.078259e-08	1.763058e+01	1.358822e+03
2.240000e-06	2.368343e-06	2.063329e-08	1.697624e+01	1.349501e+03
2.250000e-06	2.276372e-06	2.048324e-08	1.631699e+01	1.339930e+03
2.260000e-06	2.183508e-06	2.032012e-08	1.565135e+01	1.329943e+03
2.270000e-06	2.089594e-06	2.015705e-08	1.497817e+01	1.319383e+03
2.280000e-06	1.994768e-06	1.998946e-08	1.429846e+01	1.308145e+03
2.290000e-06	1.899266e-06	1.980970e-08	1.361391e+01	1.296209e+03
2.300000e-06	1.803104e-06	1.962826e-08	1.292462e+01	1.283643e+03
2.310000e-06	1.706403e-06	1.943928e-08	1.223146e+01	1.270581e+03
2.320000e-06	1.609255e-06	1.924632e-08	1.153511e+01	1.257175e+03
2.330000e-06	1.511567e-06	1.903838e-08	1.083488e+01	1.243539e+03
2.340000e-06	1.413321e-06	1.882290e-08	1.013066e+01	1.229704e+03
2.350000e-06	1.314606e-06	1.859784e-08	9.423073e+00	1.215594e+03
2.360000e-06	1.215511e-06	1.836627e-08	8.712758e+00	1.201036e+03
2.370000e-06	1.116178e-06	1.812611e-08	8.000742e+00	1.185796e+03
2.380000e-06	1.016622e-06	1.787625e-08	7.287131e+00	1.169647e+03
2.390000e-06	9.168308e-07	1.761470e-08	6.571827e+00	1.152421e+03
2.400000e-06	8.167411e-07	1.733817e-08	5.854385e+00	1.134062e+03
2.410000e-06	7.163067e-07	1.705137e-08	5.134474e+00	1.114625e+03
2.420000e-06	6.155332e-07	1.675327e-08	4.412131e+00	1.094253e+03
2.430000e-06	5.144182e-07	1.644198e-08	3.687341e+00	1.073106e+03
2.440000e-06	4.130626e-07	1.611281e-08	2.960826e+00	1.051290e+03
2.450000e-06	3.115420e-07	1.576241e-08	2.233128e+00	1.028779e+03
2.460000e-06	2.097963e-07	1.539065e-08	1.503816e+00	1.005388e+03
2.470000e-06	1.078445e-07	1.500066e-08	7.730277e-01	9.807745e+02
2.480000e-06	5.904464e-09	1.459107e-08	4.232309e-02	9.545013e+02
2.490000e-06	-9.602005e-08	1.415426e-08	-6.882700e-01	9.261266e+02
2.500000e-06	-1.978996e-07	1.368822e-08	-1.418541e+00	8.952991e+02
2.510000e-06	-2.996310e-07	1.319177e-08	-2.147750e+00	8.618256e+02
2.520000e-06	-4.012239e-07	1.265797e-08	-2.875966e+00	8.256817e+02
2.530000e-06	-5.027067e-07	1.208209e-08	-3.603393e+00	7.869508e+02
2.540000e-06	-6.040578e-07	1.146033e-08	-4.329875e+00	7.456970e+02
2.550000e-06	-7.052028e-07	1.078682e-08	-5.054881e+00	7.017998e+02
2.560000e-06	-8.059677e-07	1.005417e-08	-5.777162e+00	6.547932e+02
2.570000e-06	-9.062314e-07	9.251908e-09	-6.495851e+00	6.037615e+02
2.580000e-06	-1.006174e-06	8.369895e-09	-7.212234e+00	5.473346e+02
2.590000e-06	-1.105847e-06	7.392396e-09	-7.926689e+00	4.838087e+02
2.600000e-06	-1.205166e-06	6.297437e-09	-8.638607e+00	4.113885e+02
2.610000e-06	-1.304137e-06	5.062755e-09	-9.348028e+00	3.285171e+02
2.620000e-06	-1.402704e-06	3.664039e-09	-1.005456e+01	2.342337e+02
2.630000e-06	-1.500729e-06	2.088304e-09	-1.075720e+01	1.284876e+02
2.640000e-06	-1.598219e-06	3.360157e-10	-1.145601e+01	1.233481e+01
2.650000e-06	-1.695236e-06	-1.570431e-09	-1.215142e+01	-1.120312e+02
2.660000e-06	-1.791664e-06	-3.579128e-09	-1.284261e+01	-2.414366e+02
2.670000e-06	-1.887411e-06	-5.616383e-09	-1.352893e+01	-3.720533e+02
2.680000e-06	-1.982530e-06	-7.597593e-09	-1.421074e+01	-4.998402e+02
2.690000e-06	-2.076988e-06	-9.455102e-09	-1.488782e+01	-6.210233e+02
2.700000e-06	-2.170568e-06	-1.114615e-08	-1.555859e+01	-7.325271e+02
2.710000e-06	-2.263139e-06	-1.264895e-08	-1.622214e+01	-8.322840e+02
2.720000e-06	-2.354811e-06	-1.396051e-08	-1.687924e+01	-9.193715e+02
2.730000e-06	-2.445710e-06	-1.509400e-08	-1.753081e+01	-9.939646e+02
2.740000e-06	-2.535771e-06	-1.607285e-08	-1.817636e+01	-1.057127e+03
2.750000e-06	-2.624961e-06	-1.691743e-08	-1.881567e+01	-1.110494e+03
2.760000e-06	-2.713329e-06	-1.764725e-08	-1.944909e+01	-1.155926e+03
2.770000e-06	-2.800813e-06	-1.827719e-08	-2.007617e+01	-1.195186e+03
2.780000e-06	-2.887300e-06	-1.881999e-08	-2.069611e+01	-1.229716e+03
2.790000e-06	-2.972688e-06	-1.928806e-08	-2.130818e+01	-1.260532e+03
2.800000e-06	-3.056897e-06	-1.969667e-08	-2.191178e+01	-1.288235e+03
2.810000e-06	-3.140041e-06	-2.005950e-08	-2.250776e+01	-1.313108e+03
2.820000e-06	-3.222197e-06	-2.038346e-08	-2.309665e+01	-1.335276e+03
2.830000e-06	-3.303266e-06	-2.067612e-08	-2.367775e+01	-1.354842e+03
2.840000e-06	-3.383282e-06	-2.094135e-08	-2.425130e+01	-1.371999e+03
2.850000e-06	-3.462073e-06	-2.118374e-08	-2.481608e+01	-1.387071e+03
2.860000e-06	-3.539287e-06	-2.140690e-08	-2.536955e+01	-1.400487e+03
2.870000e-06	-3.614979e-06	-2.161029e-08	-2.591210e+01	-1.412713e+03
2.880000e-06	-3.689286e-06	-2.179201e-08	-2.644474e+01	-1.424161e+03
2.890000e-06	-3.762212e-06	-2.195582e-08	-2.696747e+01	-1.435112e+03
2.900000e-06	-3.833847e-06	-2.210892e-08	-2.748094e+01	-1.445681e+03
2.910000e-06	-3.904127e-06	-2.225580e-08	-2.798471e+01	-1.455822e+03
2.920000e-06	-3.972885e-06	-2.239478e-08	-2.847757e+01	-1.465383e+03
2.930000e-06	-4.040219e-06	-2.252315e-08	-2.896022e+01	-1.474183e+03
2.940000e-06	-4.106196e-06	-2.264248e-08	-2.943314e+01	-1.482091e+03
