# Temperatura_=_91.19
# Concentracion g/m^3_=_41000.0
# C_Vs_to_Am_M_A/Vsm_=_65563218390.804596
# pendiente_HvsI_1/m_=_3716.3
# ordenada_HvsI_A/m_=_1297.0
# frecuencia_Hz_=_301585.6042744307

Tiempo_(s)	Campo_(V.s)	Magnetizacion_(V.s)	Campo_(kA/m)	Magnetizacion_(A/m)
0.000000e+00	-5.320295e-06	-2.255748e-08	-3.834451e+01	-1.474177e+03
1.000000e-08	-5.317492e-06	-2.255219e-08	-3.832431e+01	-1.474043e+03
2.000000e-08	-5.312939e-06	-2.254351e-08	-3.829150e+01	-1.473975e+03
3.000000e-08	-5.306815e-06	-2.253570e-08	-3.824737e+01	-1.473847e+03
4.000000e-08	-5.299121e-06	-2.252495e-08	-3.819191e+01	-1.473519e+03
5.000000e-08	-5.289563e-06	-2.250967e-08	-3.812302e+01	-1.472875e+03
6.000000e-08	-5.277940e-06	-2.248763e-08	-3.803926e+01	-1.471864e+03
7.000000e-08	-5.264402e-06	-2.245701e-08	-3.794169e+01	-1.470512e+03
8.000000e-08	-5.248725e-06	-2.246146e-08	-3.782869e+01	-1.468917e+03
9.000000e-08	-5.230793e-06	-2.248825e-08	-3.769945e+01	-1.467219e+03
1.000000e-07	-5.210887e-06	-2.244731e-08	-3.755599e+01	-1.465561e+03
1.100000e-07	-5.189170e-06	-2.239889e-08	-3.739947e+01	-1.464044e+03
1.200000e-07	-5.165858e-06	-2.234042e-08	-3.723146e+01	-1.462703e+03
1.300000e-07	-5.141113e-06	-2.224991e-08	-3.705311e+01	-1.461495e+03
1.400000e-07	-5.114728e-06	-2.232131e-08	-3.686295e+01	-1.460318e+03
1.500000e-07	-5.086659e-06	-2.233177e-08	-3.666065e+01	-1.459040e+03
1.600000e-07	-5.057146e-06	-2.220174e-08	-3.644794e+01	-1.457539e+03
1.700000e-07	-5.026123e-06	-2.227640e-08	-3.622436e+01	-1.455740e+03
1.800000e-07	-4.993064e-06	-2.222045e-08	-3.598610e+01	-1.453631e+03
1.900000e-07	-4.958040e-06	-2.206720e-08	-3.573367e+01	-1.451261e+03
2.000000e-07	-4.921480e-06	-2.213609e-08	-3.547017e+01	-1.448721e+03
2.100000e-07	-4.883208e-06	-2.208318e-08	-3.519434e+01	-1.446108e+03
2.200000e-07	-4.843200e-06	-2.199729e-08	-3.490599e+01	-1.443491e+03
2.300000e-07	-4.801282e-06	-2.200660e-08	-3.460388e+01	-1.440883e+03
2.400000e-07	-4.757409e-06	-2.192616e-08	-3.428768e+01	-1.438242e+03
2.500000e-07	-4.711917e-06	-2.188703e-08	-3.395981e+01	-1.435477e+03
2.600000e-07	-4.664604e-06	-2.185580e-08	-3.361881e+01	-1.432480e+03
2.700000e-07	-4.615228e-06	-2.176181e-08	-3.326294e+01	-1.429164e+03
2.800000e-07	-4.563749e-06	-2.171616e-08	-3.289193e+01	-1.425487e+03
2.900000e-07	-4.510382e-06	-2.167335e-08	-3.250730e+01	-1.421475e+03
3.000000e-07	-4.455436e-06	-2.161669e-08	-3.211129e+01	-1.417206e+03
3.100000e-07	-4.398899e-06	-2.154151e-08	-3.170382e+01	-1.412794e+03
3.200000e-07	-4.340563e-06	-2.146984e-08	-3.128338e+01	-1.408349e+03
3.300000e-07	-4.280571e-06	-2.141067e-08	-3.085101e+01	-1.403945e+03
3.400000e-07	-4.219169e-06	-2.133029e-08	-3.040846e+01	-1.399593e+03
3.500000e-07	-4.156407e-06	-2.126401e-08	-2.995613e+01	-1.395235e+03
3.600000e-07	-4.092267e-06	-2.118727e-08	-2.949385e+01	-1.390768e+03
3.700000e-07	-4.026441e-06	-2.110983e-08	-2.901943e+01	-1.386067e+03
3.800000e-07	-3.959010e-06	-2.102776e-08	-2.853344e+01	-1.381032e+03
3.900000e-07	-3.890229e-06	-2.093138e-08	-2.803773e+01	-1.375614e+03
4.000000e-07	-3.820199e-06	-2.086255e-08	-2.753300e+01	-1.369836e+03
4.100000e-07	-3.749008e-06	-2.078334e-08	-2.701991e+01	-1.363783e+03
4.200000e-07	-3.676537e-06	-2.069222e-08	-2.649760e+01	-1.357574e+03
4.300000e-07	-3.602498e-06	-2.060134e-08	-2.596398e+01	-1.351327e+03
4.400000e-07	-3.526875e-06	-2.050644e-08	-2.541895e+01	-1.345116e+03
4.500000e-07	-3.449862e-06	-2.040529e-08	-2.486390e+01	-1.338943e+03
4.600000e-07	-3.371434e-06	-2.029975e-08	-2.429865e+01	-1.332739e+03
4.700000e-07	-3.291680e-06	-2.019918e-08	-2.372385e+01	-1.326377e+03
4.800000e-07	-3.210717e-06	-2.009093e-08	-2.314033e+01	-1.319709e+03
4.900000e-07	-3.128637e-06	-1.997706e-08	-2.254877e+01	-1.312615e+03
5.000000e-07	-3.045541e-06	-1.986193e-08	-2.194988e+01	-1.305039e+03
5.100000e-07	-2.961542e-06	-1.974065e-08	-2.134448e+01	-1.297002e+03
5.200000e-07	-2.876707e-06	-1.961793e-08	-2.073305e+01	-1.288604e+03
5.300000e-07	-2.790965e-06	-1.949542e-08	-2.011509e+01	-1.279982e+03
5.400000e-07	-2.704309e-06	-1.937154e-08	-1.949054e+01	-1.271274e+03
5.500000e-07	-2.616772e-06	-1.924203e-08	-1.885965e+01	-1.262565e+03
5.600000e-07	-2.528150e-06	-1.910114e-08	-1.822092e+01	-1.253854e+03
5.700000e-07	-2.438333e-06	-1.895338e-08	-1.757360e+01	-1.245052e+03
5.800000e-07	-2.347483e-06	-1.880053e-08	-1.691882e+01	-1.236000e+03
5.900000e-07	-2.255785e-06	-1.864648e-08	-1.625793e+01	-1.226513e+03
6.000000e-07	-2.163402e-06	-1.848907e-08	-1.559211e+01	-1.216434e+03
6.100000e-07	-2.070285e-06	-1.832870e-08	-1.492099e+01	-1.205684e+03
6.200000e-07	-1.976335e-06	-1.816296e-08	-1.424387e+01	-1.194284e+03
6.300000e-07	-1.881679e-06	-1.798803e-08	-1.356167e+01	-1.182344e+03
6.400000e-07	-1.786481e-06	-1.780769e-08	-1.287556e+01	-1.170032e+03
6.500000e-07	-1.690704e-06	-1.762117e-08	-1.218527e+01	-1.157513e+03
6.600000e-07	-1.594238e-06	-1.742956e-08	-1.149002e+01	-1.144885e+03
6.700000e-07	-1.497073e-06	-1.723082e-08	-1.078973e+01	-1.132142e+03
6.800000e-07	-1.399232e-06	-1.702231e-08	-1.008457e+01	-1.119158e+03
6.900000e-07	-1.300821e-06	-1.680277e-08	-9.375297e+00	-1.105712e+03
7.000000e-07	-1.201974e-06	-1.657515e-08	-8.662886e+00	-1.091548e+03
7.100000e-07	-1.102761e-06	-1.634134e-08	-7.947836e+00	-1.076442e+03
7.200000e-07	-1.003211e-06	-1.609982e-08	-7.230357e+00	-1.060266e+03
7.300000e-07	-9.033764e-07	-1.585126e-08	-6.510829e+00	-1.043022e+03
7.400000e-07	-8.033138e-07	-1.559178e-08	-5.789656e+00	-1.024834e+03
7.500000e-07	-7.030336e-07	-1.531746e-08	-5.066915e+00	-1.005895e+03
7.600000e-07	-6.025386e-07	-1.502328e-08	-4.342626e+00	-9.863855e+02
7.700000e-07	-5.018305e-07	-1.471068e-08	-3.616801e+00	-9.663867e+02
7.800000e-07	-4.009734e-07	-1.438416e-08	-2.889902e+00	-9.458124e+02
7.900000e-07	-2.999571e-07	-1.404069e-08	-2.161856e+00	-9.243896e+02
8.000000e-07	-1.987565e-07	-1.367884e-08	-1.432481e+00	-9.016918e+02
8.100000e-07	-9.750399e-08	-1.329658e-08	-7.027324e-01	-8.772235e+02
8.200000e-07	3.761072e-09	-1.289054e-08	2.710686e-02	-8.505287e+02
8.300000e-07	1.050772e-07	-1.245528e-08	7.573139e-01	-8.212921e+02
8.400000e-07	2.063812e-07	-1.198561e-08	1.487434e+00	-7.893934e+02
8.500000e-07	3.076193e-07	-1.147866e-08	2.217079e+00	-7.548903e+02
8.600000e-07	4.087369e-07	-1.092912e-08	2.945855e+00	-7.179195e+02
8.700000e-07	5.097237e-07	-1.033268e-08	3.673689e+00	-6.785342e+02
8.800000e-07	6.105776e-07	-9.682073e-09	4.400565e+00	-6.365155e+02
8.900000e-07	7.112003e-07	-8.966979e-09	5.125774e+00	-5.912109e+02
9.000000e-07	8.116295e-07	-8.178120e-09	5.849590e+00	-5.414572e+02
9.100000e-07	9.118550e-07	-7.301751e-09	6.571936e+00	-4.856275e+02
9.200000e-07	1.011809e-06	-6.318625e-09	7.292326e+00	-4.218195e+02
9.300000e-07	1.111476e-06	-5.204249e-09	8.010647e+00	-3.481668e+02
9.400000e-07	1.210752e-06	-3.933693e-09	8.726148e+00	-2.632221e+02
9.500000e-07	1.309573e-06	-2.487042e-09	9.438379e+00	-1.663391e+02
9.600000e-07	1.407886e-06	-8.544279e-10	1.014694e+01	-5.796923e+01
9.700000e-07	1.505553e-06	9.514772e-10	1.085084e+01	6.019751e+01
9.800000e-07	1.602480e-06	2.888644e-09	1.154942e+01	1.852912e+02
9.900000e-07	1.698737e-06	4.884933e-09	1.224316e+01	3.135241e+02
1.000000e-06	1.794301e-06	6.853649e-09	1.293192e+01	4.406185e+02
1.010000e-06	1.889178e-06	8.714414e-09	1.361571e+01	5.623256e+02
1.020000e-06	1.983380e-06	1.040634e-08	1.429465e+01	6.749436e+02
1.030000e-06	2.076870e-06	1.189681e-08	1.496845e+01	7.757403e+02
1.040000e-06	2.169696e-06	1.317869e-08	1.563747e+01	8.632082e+02
1.050000e-06	2.261874e-06	1.426548e-08	1.630182e+01	9.371143e+02
1.060000e-06	2.353431e-06	1.518035e-08	1.696169e+01	9.983490e+02
1.070000e-06	2.444278e-06	1.594923e-08	1.761644e+01	1.048618e+03
1.080000e-06	2.534100e-06	1.659745e-08	1.826380e+01	1.090050e+03
1.090000e-06	2.622695e-06	1.714834e-08	1.890233e+01	1.124805e+03
1.100000e-06	2.710226e-06	1.761927e-08	1.953318e+01	1.154753e+03
1.110000e-06	2.796891e-06	1.802411e-08	2.015780e+01	1.181280e+03
1.120000e-06	2.882703e-06	1.837605e-08	2.077626e+01	1.205234e+03
1.130000e-06	2.967569e-06	1.868700e-08	2.138791e+01	1.227003e+03
1.140000e-06	3.051495e-06	1.896495e-08	2.199279e+01	1.246667e+03
1.150000e-06	3.134505e-06	1.921459e-08	2.259106e+01	1.264190e+03
1.160000e-06	3.216410e-06	1.944051e-08	2.318137e+01	1.279583e+03
1.170000e-06	3.297122e-06	1.964765e-08	2.376307e+01	1.293000e+03
1.180000e-06	3.376629e-06	1.983977e-08	2.433610e+01	1.304763e+03
1.190000e-06	3.454828e-06	2.001591e-08	2.489969e+01	1.315309e+03
1.200000e-06	3.531808e-06	2.017649e-08	2.545450e+01	1.325094e+03
1.210000e-06	3.607594e-06	2.032640e-08	2.600071e+01	1.334492e+03
1.220000e-06	3.681920e-06	2.046865e-08	2.653639e+01	1.343720e+03
1.230000e-06	3.754618e-06	2.060283e-08	2.706035e+01	1.352807e+03
1.240000e-06	3.825831e-06	2.072609e-08	2.757359e+01	1.361625e+03
1.250000e-06	3.895735e-06	2.083795e-08	2.807740e+01	1.369959e+03
1.260000e-06	3.964326e-06	2.094173e-08	2.857176e+01	1.377595e+03
1.270000e-06	4.031612e-06	2.103933e-08	2.905670e+01	1.384404e+03
1.280000e-06	4.097376e-06	2.113309e-08	2.953068e+01	1.390388e+03
1.290000e-06	4.161471e-06	2.122360e-08	2.999262e+01	1.395687e+03
1.300000e-06	4.224082e-06	2.131016e-08	3.044388e+01	1.400536e+03
1.310000e-06	4.285302e-06	2.139059e-08	3.088510e+01	1.405202e+03
1.320000e-06	4.345216e-06	2.146607e-08	3.131691e+01	1.409905e+03
1.330000e-06	4.403707e-06	2.153782e-08	3.173847e+01	1.414762e+03
1.340000e-06	4.460417e-06	2.160611e-08	3.214719e+01	1.419762e+03
1.350000e-06	4.515362e-06	2.167263e-08	3.254319e+01	1.424782e+03
1.360000e-06	4.568715e-06	2.173700e-08	3.292772e+01	1.429631e+03
1.370000e-06	4.620314e-06	2.179894e-08	3.329960e+01	1.434118e+03
1.380000e-06	4.669871e-06	2.185587e-08	3.365677e+01	1.438109e+03
1.390000e-06	4.717491e-06	2.190940e-08	3.399998e+01	1.441571e+03
1.400000e-06	4.763454e-06	2.196151e-08	3.433124e+01	1.444575e+03
1.410000e-06	4.807885e-06	2.201030e-08	3.465147e+01	1.447274e+03
1.420000e-06	4.850781e-06	2.205657e-08	3.496063e+01	1.449848e+03
1.430000e-06	4.891777e-06	2.210082e-08	3.525610e+01	1.452452e+03
1.440000e-06	4.930922e-06	2.214175e-08	3.553822e+01	1.455169e+03
1.450000e-06	4.968493e-06	2.217710e-08	3.580900e+01	1.457984e+03
1.460000e-06	5.004505e-06	2.220721e-08	3.606855e+01	1.460800e+03
1.470000e-06	5.038786e-06	2.223591e-08	3.631562e+01	1.463465e+03
1.480000e-06	5.071094e-06	2.226509e-08	3.654847e+01	1.465829e+03
1.490000e-06	5.101609e-06	2.229280e-08	3.676840e+01	1.467791e+03
1.500000e-06	5.130498e-06	2.232029e-08	3.697661e+01	1.469328e+03
1.510000e-06	5.157688e-06	2.234577e-08	3.717257e+01	1.470507e+03
1.520000e-06	5.182891e-06	2.236920e-08	3.735422e+01	1.471461e+03
1.530000e-06	5.206088e-06	2.239106e-08	3.752140e+01	1.472348e+03
1.540000e-06	5.227456e-06	2.240802e-08	3.767541e+01	1.473301e+03
1.550000e-06	5.247116e-06	2.242183e-08	3.781710e+01	1.474392e+03
1.560000e-06	5.264988e-06	2.243259e-08	3.794591e+01	1.475606e+03
1.570000e-06	5.280848e-06	2.244233e-08	3.806021e+01	1.476851e+03
1.580000e-06	5.294750e-06	2.245228e-08	3.816041e+01	1.477989e+03
1.590000e-06	5.306666e-06	2.246201e-08	3.824629e+01	1.478877e+03
1.600000e-06	5.316415e-06	2.247180e-08	3.831655e+01	1.479414e+03
1.610000e-06	5.324091e-06	2.248059e-08	3.837188e+01	1.479575e+03
1.620000e-06	5.329918e-06	2.248805e-08	3.841387e+01	1.479411e+03
1.630000e-06	5.333952e-06	2.249215e-08	3.844295e+01	1.479040e+03
1.640000e-06	5.336126e-06	2.249193e-08	3.845861e+01	1.478607e+03
1.650000e-06	5.336318e-06	2.248781e-08	3.846000e+01	1.478236e+03
1.660000e-06	5.334690e-06	2.247883e-08	3.844827e+01	1.477999e+03
1.670000e-06	5.331470e-06	2.247180e-08	3.842506e+01	1.477887e+03
1.680000e-06	5.326627e-06	2.246682e-08	3.839016e+01	1.477817e+03
1.690000e-06	5.319935e-06	2.246156e-08	3.834193e+01	1.477658e+03
1.700000e-06	5.311417e-06	2.245653e-08	3.828053e+01	1.477269e+03
1.710000e-06	5.301322e-06	2.245125e-08	3.820778e+01	1.476548e+03
1.720000e-06	5.289582e-06	2.245694e-08	3.812316e+01	1.475459e+03
1.730000e-06	5.275929e-06	2.243346e-08	3.802476e+01	1.474044e+03
1.740000e-06	5.260126e-06	2.235052e-08	3.791087e+01	1.472413e+03
1.750000e-06	5.241955e-06	2.233102e-08	3.777990e+01	1.470712e+03
1.760000e-06	5.221294e-06	2.232817e-08	3.763099e+01	1.469077e+03
1.770000e-06	5.198394e-06	2.235662e-08	3.746595e+01	1.467596e+03
1.780000e-06	5.174129e-06	2.240799e-08	3.729107e+01	1.466289e+03
1.790000e-06	5.149118e-06	2.225953e-08	3.711081e+01	1.465098e+03
1.800000e-06	5.122701e-06	2.224493e-08	3.692041e+01	1.463910e+03
1.810000e-06	5.094276e-06	2.232119e-08	3.671555e+01	1.462593e+03
1.820000e-06	5.064160e-06	2.216905e-08	3.649850e+01	1.461032e+03
1.830000e-06	5.032178e-06	2.224090e-08	3.626799e+01	1.459164e+03
1.840000e-06	4.998198e-06	2.232444e-08	3.602309e+01	1.456992e+03
1.850000e-06	4.962676e-06	2.215157e-08	3.576708e+01	1.454577e+03
1.860000e-06	4.925356e-06	2.217475e-08	3.549811e+01	1.452014e+03
1.870000e-06	4.886020e-06	2.214231e-08	3.521461e+01	1.449395e+03
1.880000e-06	4.845033e-06	2.204891e-08	3.491920e+01	1.446780e+03
1.890000e-06	4.802345e-06	2.209568e-08	3.461154e+01	1.444170e+03
1.900000e-06	4.758011e-06	2.196692e-08	3.429202e+01	1.441510e+03
1.910000e-06	4.711963e-06	2.195111e-08	3.396014e+01	1.438704e+03
1.920000e-06	4.664071e-06	2.199025e-08	3.361497e+01	1.435644e+03
1.930000e-06	4.614557e-06	2.184085e-08	3.325811e+01	1.432251e+03
1.940000e-06	4.563236e-06	2.179830e-08	3.288823e+01	1.428498e+03
1.950000e-06	4.509982e-06	2.173150e-08	3.250441e+01	1.424422e+03
1.960000e-06	4.454843e-06	2.169035e-08	3.210702e+01	1.420111e+03
1.970000e-06	4.397923e-06	2.165105e-08	3.169678e+01	1.415683e+03
1.980000e-06	4.339491e-06	2.153261e-08	3.127565e+01	1.411243e+03
1.990000e-06	4.279691e-06	2.152487e-08	3.084466e+01	1.406850e+03
2.000000e-06	4.218438e-06	2.144328e-08	3.040320e+01	1.402503e+03
2.010000e-06	4.155456e-06	2.135543e-08	2.994927e+01	1.398132e+03
2.020000e-06	4.090771e-06	2.129744e-08	2.948308e+01	1.393624e+03
2.030000e-06	4.024685e-06	2.121087e-08	2.900678e+01	1.388858e+03
2.040000e-06	3.957251e-06	2.116774e-08	2.852077e+01	1.383742e+03
2.050000e-06	3.888489e-06	2.104352e-08	2.802518e+01	1.378242e+03
2.060000e-06	3.818183e-06	2.096097e-08	2.751847e+01	1.372396e+03
2.070000e-06	3.746330e-06	2.089873e-08	2.700061e+01	1.366298e+03
2.080000e-06	3.673255e-06	2.079459e-08	2.647394e+01	1.360071e+03
2.090000e-06	3.598915e-06	2.071171e-08	2.593816e+01	1.353827e+03
2.100000e-06	3.523214e-06	2.060157e-08	2.539256e+01	1.347626e+03
2.110000e-06	3.446059e-06	2.052093e-08	2.483650e+01	1.341454e+03
2.120000e-06	3.367426e-06	2.041756e-08	2.426977e+01	1.335228e+03
2.130000e-06	3.287489e-06	2.030640e-08	2.369364e+01	1.328811e+03
2.140000e-06	3.206442e-06	2.020559e-08	2.310952e+01	1.322060e+03
2.150000e-06	3.124333e-06	2.009336e-08	2.251775e+01	1.314864e+03
2.160000e-06	3.041186e-06	1.999177e-08	2.191848e+01	1.307184e+03
2.170000e-06	2.957085e-06	1.986451e-08	2.131235e+01	1.299059e+03
2.180000e-06	2.871916e-06	1.974249e-08	2.069852e+01	1.290599e+03
2.190000e-06	2.785495e-06	1.961554e-08	2.007567e+01	1.281949e+03
2.200000e-06	2.697895e-06	1.948395e-08	1.944431e+01	1.273235e+03
2.210000e-06	2.609322e-06	1.935359e-08	1.880595e+01	1.264528e+03
2.220000e-06	2.519885e-06	1.921985e-08	1.816136e+01	1.255807e+03
2.230000e-06	2.429574e-06	1.908752e-08	1.751046e+01	1.246967e+03
2.240000e-06	2.338467e-06	1.893713e-08	1.685384e+01	1.237836e+03
2.250000e-06	2.246674e-06	1.878351e-08	1.619227e+01	1.228232e+03
2.260000e-06	2.154226e-06	1.862540e-08	1.552597e+01	1.218013e+03
2.270000e-06	2.060994e-06	1.846724e-08	1.485403e+01	1.207118e+03
2.280000e-06	1.966781e-06	1.830206e-08	1.417501e+01	1.195589e+03
2.290000e-06	1.871636e-06	1.812579e-08	1.348928e+01	1.183554e+03
2.300000e-06	1.775762e-06	1.794666e-08	1.279830e+01	1.171185e+03
2.310000e-06	1.679326e-06	1.775959e-08	1.210327e+01	1.158636e+03
2.320000e-06	1.582457e-06	1.756601e-08	1.140511e+01	1.145988e+03
2.330000e-06	1.485128e-06	1.736426e-08	1.070364e+01	1.133207e+03
2.340000e-06	1.387300e-06	1.715707e-08	9.998573e+00	1.120144e+03
2.350000e-06	1.288994e-06	1.693874e-08	9.290060e+00	1.106565e+03
2.360000e-06	1.190254e-06	1.671050e-08	8.578418e+00	1.092215e+03
2.370000e-06	1.091193e-06	1.647557e-08	7.864464e+00	1.076886e+03
2.380000e-06	9.918435e-07	1.623197e-08	7.148431e+00	1.060475e+03
2.390000e-06	8.922501e-07	1.597687e-08	6.430640e+00	1.043015e+03
2.400000e-06	7.924420e-07	1.570643e-08	5.711301e+00	1.024648e+03
2.410000e-06	6.924061e-07	1.542415e-08	4.990320e+00	1.005573e+03
2.420000e-06	5.921459e-07	1.512907e-08	4.267723e+00	9.859564e+02
2.430000e-06	4.916952e-07	1.482001e-08	3.543753e+00	9.658473e+02
2.440000e-06	3.910736e-07	1.449424e-08	2.818552e+00	9.451197e+02
2.450000e-06	2.902783e-07	1.414995e-08	2.092099e+00	9.234629e+02
2.460000e-06	1.893615e-07	1.378447e-08	1.364769e+00	9.004272e+02
2.470000e-06	8.835213e-08	1.339554e-08	6.367730e-01	8.755161e+02
2.480000e-06	-1.274550e-08	1.298154e-08	-9.185957e-02	8.482963e+02
2.490000e-06	-1.138758e-07	1.253647e-08	-8.207275e-01	8.184919e+02
2.500000e-06	-2.149521e-07	1.205744e-08	-1.549206e+00	7.860249e+02
2.510000e-06	-3.158955e-07	1.154245e-08	-2.276727e+00	7.509809e+02
2.520000e-06	-4.167139e-07	1.098611e-08	-3.003347e+00	7.134941e+02
2.530000e-06	-5.174103e-07	1.038201e-08	-3.729088e+00	6.735751e+02
2.540000e-06	-6.179320e-07	9.722385e-09	-4.453569e+00	6.309235e+02
2.550000e-06	-7.182357e-07	8.997160e-09	-5.176480e+00	5.847803e+02
2.560000e-06	-8.183136e-07	8.193946e-09	-5.897763e+00	5.338741e+02
2.570000e-06	-9.181498e-07	7.298193e-09	-6.617304e+00	4.764985e+02
2.580000e-06	-1.017745e-06	6.291751e-09	-7.335108e+00	4.107293e+02
2.590000e-06	-1.117011e-06	5.152573e-09	-8.050541e+00	3.347562e+02
2.600000e-06	-1.215886e-06	3.857113e-09	-8.763153e+00	2.472734e+02
2.610000e-06	-1.314351e-06	2.386024e-09	-9.472815e+00	1.478490e+02
2.620000e-06	-1.412289e-06	7.321111e-10	-1.017867e+01	3.719441e+01
2.630000e-06	-1.509717e-06	-1.091707e-09	-1.088086e+01	-8.273543e+01
2.640000e-06	-1.606661e-06	-3.043728e-09	-1.157956e+01	-2.088453e+02
2.650000e-06	-1.703116e-06	-5.049964e-09	-1.227473e+01	-3.372022e+02
2.660000e-06	-1.799102e-06	-7.023036e-09	-1.296652e+01	-4.634894e+02
2.670000e-06	-1.894512e-06	-8.881679e-09	-1.365415e+01	-5.835335e+02
2.680000e-06	-1.989118e-06	-1.056527e-08	-1.433600e+01	-6.938098e+02
2.690000e-06	-2.082727e-06	-1.204210e-08	-1.501067e+01	-7.918337e+02
2.700000e-06	-2.175372e-06	-1.330732e-08	-1.567838e+01	-8.763739e+02
2.710000e-06	-2.267200e-06	-1.437799e-08	-1.634020e+01	-9.474571e+02
2.720000e-06	-2.358302e-06	-1.527954e-08	-1.699679e+01	-1.006178e+03
2.730000e-06	-2.448619e-06	-1.604016e-08	-1.764772e+01	-1.054368e+03
2.740000e-06	-2.538037e-06	-1.668455e-08	-1.829218e+01	-1.094194e+03
2.750000e-06	-2.626617e-06	-1.723270e-08	-1.893060e+01	-1.127777e+03
2.760000e-06	-2.714465e-06	-1.770096e-08	-1.956373e+01	-1.156894e+03
2.770000e-06	-2.801403e-06	-1.810315e-08	-2.019032e+01	-1.182816e+03
2.780000e-06	-2.887132e-06	-1.845348e-08	-2.080818e+01	-1.206284e+03
2.790000e-06	-2.971659e-06	-1.876159e-08	-2.141739e+01	-1.227602e+03
2.800000e-06	-3.055184e-06	-1.903669e-08	-2.201937e+01	-1.246811e+03
2.810000e-06	-3.137746e-06	-1.928411e-08	-2.261441e+01	-1.263874e+03
2.820000e-06	-3.219261e-06	-1.950716e-08	-2.320191e+01	-1.278825e+03
2.830000e-06	-3.299772e-06	-1.971230e-08	-2.378217e+01	-1.291856e+03
2.840000e-06	-3.379100e-06	-1.990179e-08	-2.435391e+01	-1.303320e+03
2.850000e-06	-3.456957e-06	-2.007726e-08	-2.491504e+01	-1.313666e+03
2.860000e-06	-3.533384e-06	-2.024014e-08	-2.546586e+01	-1.323342e+03
2.870000e-06	-3.608466e-06	-2.039173e-08	-2.600700e+01	-1.332692e+03
2.880000e-06	-3.682208e-06	-2.053132e-08	-2.653847e+01	-1.341894e+03
2.890000e-06	-3.754723e-06	-2.065973e-08	-2.706110e+01	-1.350939e+03
2.900000e-06	-3.825934e-06	-2.078050e-08	-2.757434e+01	-1.359674e+03
2.910000e-06	-3.895607e-06	-2.089502e-08	-2.807648e+01	-1.367875e+03
2.920000e-06	-3.963764e-06	-2.100154e-08	-2.856770e+01	-1.375341e+03
2.930000e-06	-4.030507e-06	-2.110103e-08	-2.904874e+01	-1.381969e+03
2.940000e-06	-4.095843e-06	-2.119656e-08	-2.951963e+01	-1.387791e+03
