# Temperatura_=_97.26
# Concentracion g/m^3_=_41000.0
# C_Vs_to_Am_M_A/Vsm_=_65563218390.804596
# pendiente_HvsI_1/m_=_3716.3
# ordenada_HvsI_A/m_=_1297.0
# frecuencia_Hz_=_301585.02985578345

Tiempo_(s)	Campo_(V.s)	Magnetizacion_(V.s)	Campo_(kA/m)	Magnetizacion_(A/m)
0.000000e+00	-5.334274e-06	-2.259353e-08	-3.834931e+01	-1.475140e+03
1.000000e-08	-5.331651e-06	-2.258697e-08	-3.833045e+01	-1.475009e+03
2.000000e-08	-5.327268e-06	-2.257643e-08	-3.829894e+01	-1.474955e+03
3.000000e-08	-5.321258e-06	-2.256745e-08	-3.825573e+01	-1.474843e+03
4.000000e-08	-5.313685e-06	-2.255620e-08	-3.820129e+01	-1.474519e+03
5.000000e-08	-5.304283e-06	-2.254110e-08	-3.813370e+01	-1.473857e+03
6.000000e-08	-5.292814e-06	-2.251816e-08	-3.805124e+01	-1.472798e+03
7.000000e-08	-5.279529e-06	-2.247202e-08	-3.795573e+01	-1.471373e+03
8.000000e-08	-5.264114e-06	-2.246161e-08	-3.784491e+01	-1.469695e+03
9.000000e-08	-5.246406e-06	-2.250720e-08	-3.771760e+01	-1.467927e+03
1.000000e-07	-5.226735e-06	-2.246997e-08	-3.757619e+01	-1.466239e+03
1.100000e-07	-5.205235e-06	-2.242821e-08	-3.742161e+01	-1.464757e+03
1.200000e-07	-5.182058e-06	-2.240475e-08	-3.725499e+01	-1.463534e+03
1.300000e-07	-5.157492e-06	-2.225763e-08	-3.707838e+01	-1.462530e+03
1.400000e-07	-5.131303e-06	-2.233321e-08	-3.689010e+01	-1.461631e+03
1.500000e-07	-5.103309e-06	-2.238344e-08	-3.668884e+01	-1.460679e+03
1.600000e-07	-5.073923e-06	-2.217346e-08	-3.647758e+01	-1.459520e+03
1.700000e-07	-5.043083e-06	-2.231852e-08	-3.625587e+01	-1.458041e+03
1.800000e-07	-5.010141e-06	-2.231121e-08	-3.601904e+01	-1.456200e+03
1.900000e-07	-4.975222e-06	-2.208065e-08	-3.576800e+01	-1.454029e+03
2.000000e-07	-4.938824e-06	-2.220457e-08	-3.550633e+01	-1.451614e+03
2.100000e-07	-4.900711e-06	-2.214594e-08	-3.523232e+01	-1.449062e+03
2.200000e-07	-4.860884e-06	-2.202696e-08	-3.494600e+01	-1.446461e+03
2.300000e-07	-4.819125e-06	-2.205139e-08	-3.464578e+01	-1.443851e+03
2.400000e-07	-4.775306e-06	-2.192458e-08	-3.433076e+01	-1.441210e+03
2.500000e-07	-4.729794e-06	-2.194345e-08	-3.400356e+01	-1.438462e+03
2.600000e-07	-4.682539e-06	-2.195890e-08	-3.366383e+01	-1.435506e+03
2.700000e-07	-4.633272e-06	-2.178482e-08	-3.330964e+01	-1.432246e+03
2.800000e-07	-4.581825e-06	-2.170006e-08	-3.293978e+01	-1.428630e+03
2.900000e-07	-4.528476e-06	-2.169264e-08	-3.255624e+01	-1.424665e+03
3.000000e-07	-4.473632e-06	-2.168646e-08	-3.216196e+01	-1.420418e+03
3.100000e-07	-4.417252e-06	-2.160335e-08	-3.175662e+01	-1.415997e+03
3.200000e-07	-4.359056e-06	-2.150353e-08	-3.133824e+01	-1.411513e+03
3.300000e-07	-4.299215e-06	-2.145006e-08	-3.090804e+01	-1.407049e+03
3.400000e-07	-4.237947e-06	-2.135886e-08	-3.046756e+01	-1.402627e+03
3.500000e-07	-4.175273e-06	-2.128854e-08	-3.001699e+01	-1.398207e+03
3.600000e-07	-4.111141e-06	-2.121506e-08	-2.955593e+01	-1.393691e+03
3.700000e-07	-4.045324e-06	-2.115809e-08	-2.908276e+01	-1.388961e+03
3.800000e-07	-3.977921e-06	-2.108141e-08	-2.859818e+01	-1.383910e+03
3.900000e-07	-3.909104e-06	-2.094874e-08	-2.810343e+01	-1.378483e+03
4.000000e-07	-3.839023e-06	-2.088136e-08	-2.759961e+01	-1.372688e+03
4.100000e-07	-3.767853e-06	-2.081155e-08	-2.708795e+01	-1.366600e+03
4.200000e-07	-3.695451e-06	-2.072352e-08	-2.656743e+01	-1.360333e+03
4.300000e-07	-3.621447e-06	-2.062584e-08	-2.603540e+01	-1.354005e+03
4.400000e-07	-3.545779e-06	-2.052385e-08	-2.549141e+01	-1.347694e+03
4.500000e-07	-3.468774e-06	-2.042200e-08	-2.493781e+01	-1.341416e+03
4.600000e-07	-3.390479e-06	-2.031776e-08	-2.437492e+01	-1.335107e+03
4.700000e-07	-3.310792e-06	-2.022439e-08	-2.380204e+01	-1.328651e+03
4.800000e-07	-3.229766e-06	-2.011110e-08	-2.321952e+01	-1.321903e+03
4.900000e-07	-3.147576e-06	-1.999498e-08	-2.262864e+01	-1.314740e+03
5.000000e-07	-3.064380e-06	-1.988159e-08	-2.203053e+01	-1.307098e+03
5.100000e-07	-2.980369e-06	-1.975864e-08	-2.142655e+01	-1.298994e+03
5.200000e-07	-2.895524e-06	-1.963145e-08	-2.081658e+01	-1.290517e+03
5.300000e-07	-2.809686e-06	-1.950500e-08	-2.019947e+01	-1.281805e+03
5.400000e-07	-2.722920e-06	-1.937564e-08	-1.957569e+01	-1.272997e+03
5.500000e-07	-2.635335e-06	-1.924345e-08	-1.894602e+01	-1.264183e+03
5.600000e-07	-2.546695e-06	-1.910465e-08	-1.830877e+01	-1.255374e+03
5.700000e-07	-2.456732e-06	-1.896049e-08	-1.766201e+01	-1.246488e+03
5.800000e-07	-2.365686e-06	-1.880787e-08	-1.700745e+01	-1.237372e+03
5.900000e-07	-2.273899e-06	-1.865223e-08	-1.634758e+01	-1.227839e+03
6.000000e-07	-2.181412e-06	-1.849504e-08	-1.568267e+01	-1.217729e+03
6.100000e-07	-2.088127e-06	-1.833260e-08	-1.501202e+01	-1.206950e+03
6.200000e-07	-1.994053e-06	-1.816326e-08	-1.433570e+01	-1.195512e+03
6.300000e-07	-1.899241e-06	-1.798721e-08	-1.365408e+01	-1.183520e+03
6.400000e-07	-1.803864e-06	-1.780634e-08	-1.296839e+01	-1.171138e+03
6.500000e-07	-1.707993e-06	-1.761407e-08	-1.227915e+01	-1.158531e+03
6.600000e-07	-1.611398e-06	-1.741773e-08	-1.158471e+01	-1.145811e+03
6.700000e-07	-1.513970e-06	-1.721942e-08	-1.088428e+01	-1.132980e+03
6.800000e-07	-1.415878e-06	-1.701434e-08	-1.017907e+01	-1.119925e+03
6.900000e-07	-1.317230e-06	-1.679814e-08	-9.469868e+00	-1.106432e+03
7.000000e-07	-1.218116e-06	-1.657208e-08	-8.757314e+00	-1.092246e+03
7.100000e-07	-1.118723e-06	-1.633744e-08	-8.042756e+00	-1.077135e+03
7.200000e-07	-1.019029e-06	-1.609127e-08	-7.326028e+00	-1.060962e+03
7.300000e-07	-9.190244e-07	-1.583715e-08	-6.607075e+00	-1.043718e+03
7.400000e-07	-8.188217e-07	-1.557401e-08	-5.886695e+00	-1.025519e+03
7.500000e-07	-7.183256e-07	-1.530147e-08	-5.164206e+00	-1.006555e+03
7.600000e-07	-6.175230e-07	-1.501212e-08	-4.439513e+00	-9.870147e+02
7.700000e-07	-5.165325e-07	-1.470251e-08	-3.713469e+00	-9.669908e+02
7.800000e-07	-4.153956e-07	-1.437638e-08	-2.986373e+00	-9.464145e+02
7.900000e-07	-3.141144e-07	-1.403248e-08	-2.258240e+00	-9.250277e+02
8.000000e-07	-2.127260e-07	-1.366995e-08	-1.529336e+00	-9.024131e+02
8.100000e-07	-1.112117e-07	-1.328734e-08	-7.995259e-01	-8.780751e+02
8.200000e-07	-9.631597e-09	-1.288240e-08	-6.924374e-02	-8.515484e+02
8.300000e-07	9.190434e-08	-1.244876e-08	6.607212e-01	-8.225021e+02
8.400000e-07	1.934604e-07	-1.198226e-08	1.390831e+00	-7.908001e+02
8.500000e-07	2.949979e-07	-1.148008e-08	2.120807e+00	-7.564901e+02
8.600000e-07	3.964232e-07	-1.093593e-08	2.849976e+00	-7.197114e+02
8.700000e-07	4.977579e-07	-1.034452e-08	3.578495e+00	-6.805346e+02
8.800000e-07	5.989369e-07	-9.699053e-09	4.305894e+00	-6.387716e+02
8.900000e-07	6.998650e-07	-8.989949e-09	5.031488e+00	-5.938092e+02
9.000000e-07	8.005892e-07	-8.207771e-09	5.755618e+00	-5.445214e+02
9.100000e-07	9.010608e-07	-7.339525e-09	6.477931e+00	-4.893062e+02
9.200000e-07	1.001223e-06	-6.365622e-09	7.198016e+00	-4.262638e+02
9.300000e-07	1.101026e-06	-5.262997e-09	7.915526e+00	-3.535020e+02
9.400000e-07	1.200518e-06	-4.006066e-09	8.630797e+00	-2.695190e+02
9.500000e-07	1.299698e-06	-2.574462e-09	9.343825e+00	-1.735914e+02
9.600000e-07	1.398448e-06	-9.580628e-10	1.005376e+01	-6.608204e+01
9.700000e-07	1.496617e-06	8.339889e-10	1.075952e+01	5.140429e+01
9.800000e-07	1.594018e-06	2.761254e-09	1.145976e+01	1.760649e+02
9.900000e-07	1.690554e-06	4.756087e-09	1.215377e+01	3.041498e+02
1.000000e-06	1.786354e-06	6.730733e-09	1.284250e+01	4.313829e+02
1.010000e-06	1.881560e-06	8.601554e-09	1.352696e+01	5.534823e+02
1.020000e-06	1.976108e-06	1.030371e-08	1.420669e+01	6.666849e+02
1.030000e-06	2.069976e-06	1.180272e-08	1.488153e+01	7.681813e+02
1.040000e-06	2.163157e-06	1.309439e-08	1.555143e+01	8.563854e+02
1.050000e-06	2.255594e-06	1.418990e-08	1.621598e+01	9.309969e+02
1.060000e-06	2.347325e-06	1.511281e-08	1.687546e+01	9.928590e+02
1.070000e-06	2.438417e-06	1.588792e-08	1.753033e+01	1.043655e+03
1.080000e-06	2.528584e-06	1.654078e-08	1.817857e+01	1.085515e+03
1.090000e-06	2.617563e-06	1.709580e-08	1.881825e+01	1.120616e+03
1.100000e-06	2.705404e-06	1.757129e-08	1.944976e+01	1.150853e+03
1.110000e-06	2.792346e-06	1.798382e-08	2.007481e+01	1.177638e+03
1.120000e-06	2.878483e-06	1.834251e-08	2.069407e+01	1.201837e+03
1.130000e-06	2.963653e-06	1.865727e-08	2.130637e+01	1.223844e+03
1.140000e-06	3.047850e-06	1.893653e-08	2.191169e+01	1.243738e+03
1.150000e-06	3.131189e-06	1.918638e-08	2.251083e+01	1.261475e+03
1.160000e-06	3.213528e-06	1.941220e-08	2.310278e+01	1.277055e+03
1.170000e-06	3.294593e-06	1.961933e-08	2.368558e+01	1.290629e+03
1.180000e-06	3.374405e-06	1.981212e-08	2.425937e+01	1.302518e+03
1.190000e-06	3.453004e-06	1.999019e-08	2.482443e+01	1.313168e+03
1.200000e-06	3.530359e-06	2.015185e-08	2.538055e+01	1.323047e+03
1.210000e-06	3.606531e-06	2.030378e-08	2.592817e+01	1.332546e+03
1.220000e-06	3.681310e-06	2.044751e-08	2.646578e+01	1.341891e+03
1.230000e-06	3.754393e-06	2.058331e-08	2.699118e+01	1.351117e+03
1.240000e-06	3.825942e-06	2.070998e-08	2.750557e+01	1.360094e+03
1.250000e-06	3.896198e-06	2.082570e-08	2.801065e+01	1.368597e+03
1.260000e-06	3.965141e-06	2.093344e-08	2.850630e+01	1.376400e+03
1.270000e-06	4.032836e-06	2.103170e-08	2.899297e+01	1.383362e+03
1.280000e-06	4.099090e-06	2.112409e-08	2.946929e+01	1.389477e+03
1.290000e-06	4.163613e-06	2.121267e-08	2.993316e+01	1.394882e+03
1.300000e-06	4.226569e-06	2.129981e-08	3.038576e+01	1.399820e+03
1.310000e-06	4.288099e-06	2.138341e-08	3.082812e+01	1.404566e+03
1.320000e-06	4.348245e-06	2.146264e-08	3.126052e+01	1.409350e+03
1.330000e-06	4.406967e-06	2.153801e-08	3.168269e+01	1.414301e+03
1.340000e-06	4.463958e-06	2.160913e-08	3.209241e+01	1.419411e+03
1.350000e-06	4.519225e-06	2.167603e-08	3.248973e+01	1.424556e+03
1.360000e-06	4.572909e-06	2.173944e-08	3.287568e+01	1.429538e+03
1.370000e-06	4.624907e-06	2.179948e-08	3.324951e+01	1.434156e+03
1.380000e-06	4.674946e-06	2.185606e-08	3.360925e+01	1.438266e+03
1.390000e-06	4.722995e-06	2.191031e-08	3.395469e+01	1.441827e+03
1.400000e-06	4.769313e-06	2.196411e-08	3.428767e+01	1.444909e+03
1.410000e-06	4.814057e-06	2.201657e-08	3.460935e+01	1.447667e+03
1.420000e-06	4.857269e-06	2.206499e-08	3.492001e+01	1.450289e+03
1.430000e-06	4.898579e-06	2.210855e-08	3.521700e+01	1.452939e+03
1.440000e-06	4.938037e-06	2.214812e-08	3.550067e+01	1.455705e+03
1.450000e-06	4.975933e-06	2.218378e-08	3.577312e+01	1.458577e+03
1.460000e-06	5.012245e-06	2.221532e-08	3.603417e+01	1.461453e+03
1.470000e-06	5.046848e-06	2.224472e-08	3.628293e+01	1.464177e+03
1.480000e-06	5.079487e-06	2.227347e-08	3.651759e+01	1.466591e+03
1.490000e-06	5.110269e-06	2.230096e-08	3.673888e+01	1.468585e+03
1.500000e-06	5.139418e-06	2.232752e-08	3.694844e+01	1.470134e+03
1.510000e-06	5.166968e-06	2.235297e-08	3.714650e+01	1.471308e+03
1.520000e-06	5.192552e-06	2.237540e-08	3.733044e+01	1.472247e+03
1.530000e-06	5.215983e-06	2.239510e-08	3.749889e+01	1.473118e+03
1.540000e-06	5.237588e-06	2.241129e-08	3.765421e+01	1.474067e+03
1.550000e-06	5.257590e-06	2.242539e-08	3.779801e+01	1.475172e+03
1.560000e-06	5.275767e-06	2.243685e-08	3.792869e+01	1.476421e+03
1.570000e-06	5.291931e-06	2.244676e-08	3.804490e+01	1.477719e+03
1.580000e-06	5.306139e-06	2.245733e-08	3.814704e+01	1.478916e+03
1.590000e-06	5.318373e-06	2.246749e-08	3.823499e+01	1.479860e+03
1.600000e-06	5.328408e-06	2.247715e-08	3.830713e+01	1.480440e+03
1.610000e-06	5.336286e-06	2.248644e-08	3.836377e+01	1.480619e+03
1.620000e-06	5.342346e-06	2.249377e-08	3.840734e+01	1.480453e+03
1.630000e-06	5.346717e-06	2.249662e-08	3.843876e+01	1.480063e+03
1.640000e-06	5.349228e-06	2.249597e-08	3.845681e+01	1.479603e+03
1.650000e-06	5.349671e-06	2.249459e-08	3.846000e+01	1.479212e+03
1.660000e-06	5.348305e-06	2.248609e-08	3.845018e+01	1.478966e+03
1.670000e-06	5.345296e-06	2.247784e-08	3.842855e+01	1.478860e+03
1.680000e-06	5.340678e-06	2.247284e-08	3.839535e+01	1.478805e+03
1.690000e-06	5.334207e-06	2.246668e-08	3.834882e+01	1.478660e+03
1.700000e-06	5.325849e-06	2.246028e-08	3.828874e+01	1.478272e+03
1.710000e-06	5.315905e-06	2.245472e-08	3.821725e+01	1.477526e+03
1.720000e-06	5.304341e-06	2.246790e-08	3.813411e+01	1.476383e+03
1.730000e-06	5.290941e-06	2.247658e-08	3.803778e+01	1.474891e+03
1.740000e-06	5.275472e-06	2.237040e-08	3.792657e+01	1.473179e+03
1.750000e-06	5.257673e-06	2.234532e-08	3.779861e+01	1.471413e+03
1.760000e-06	5.237316e-06	2.233591e-08	3.765225e+01	1.469760e+03
1.770000e-06	5.214558e-06	2.232280e-08	3.748864e+01	1.468332e+03
1.780000e-06	5.190337e-06	2.244617e-08	3.731451e+01	1.467162e+03
1.790000e-06	5.165416e-06	2.226880e-08	3.713535e+01	1.466191e+03
1.800000e-06	5.139156e-06	2.225737e-08	3.694656e+01	1.465294e+03
1.810000e-06	5.110883e-06	2.243330e-08	3.674330e+01	1.464309e+03
1.820000e-06	5.080849e-06	2.213781e-08	3.652738e+01	1.463088e+03
1.830000e-06	5.048984e-06	2.220533e-08	3.629829e+01	1.461532e+03
1.840000e-06	5.015136e-06	2.242761e-08	3.605495e+01	1.459615e+03
1.850000e-06	4.979781e-06	2.215523e-08	3.580078e+01	1.457382e+03
1.860000e-06	4.942634e-06	2.217946e-08	3.553372e+01	1.454928e+03
1.870000e-06	4.903425e-06	2.215730e-08	3.525184e+01	1.452359e+03
1.880000e-06	4.862680e-06	2.206415e-08	3.495891e+01	1.449754e+03
1.890000e-06	4.820177e-06	2.221554e-08	3.465335e+01	1.447141e+03
1.900000e-06	4.775949e-06	2.192785e-08	3.433538e+01	1.444484e+03
1.910000e-06	4.730022e-06	2.188747e-08	3.400520e+01	1.441700e+03
1.920000e-06	4.682218e-06	2.211325e-08	3.366153e+01	1.438685e+03
1.930000e-06	4.632873e-06	2.193793e-08	3.330678e+01	1.435350e+03
1.940000e-06	4.581727e-06	2.184925e-08	3.293907e+01	1.431656e+03
1.950000e-06	4.528510e-06	2.172345e-08	3.255649e+01	1.427622e+03
1.960000e-06	4.473309e-06	2.171959e-08	3.215964e+01	1.423328e+03
1.970000e-06	4.416372e-06	2.172376e-08	3.175030e+01	1.418884e+03
1.980000e-06	4.357955e-06	2.152537e-08	3.133033e+01	1.414398e+03
1.990000e-06	4.298188e-06	2.158048e-08	3.090065e+01	1.409943e+03
2.000000e-06	4.236949e-06	2.151424e-08	3.046039e+01	1.405527e+03
2.010000e-06	4.173920e-06	2.139618e-08	3.000726e+01	1.401095e+03
2.020000e-06	4.109233e-06	2.130775e-08	2.954221e+01	1.396543e+03
2.030000e-06	4.043179e-06	2.121161e-08	2.906733e+01	1.391751e+03
2.040000e-06	3.975812e-06	2.124869e-08	2.858302e+01	1.386621e+03
2.050000e-06	3.907114e-06	2.108730e-08	2.808913e+01	1.381111e+03
2.060000e-06	3.836766e-06	2.098388e-08	2.758338e+01	1.375245e+03
2.070000e-06	3.764888e-06	2.093416e-08	2.706664e+01	1.369107e+03
2.080000e-06	3.691836e-06	2.083401e-08	2.654144e+01	1.362818e+03
2.090000e-06	3.617463e-06	2.076591e-08	2.600676e+01	1.356488e+03
2.100000e-06	3.541801e-06	2.062622e-08	2.546281e+01	1.350185e+03
2.110000e-06	3.464669e-06	2.055659e-08	2.490829e+01	1.343907e+03
2.120000e-06	3.385938e-06	2.045389e-08	2.434228e+01	1.337578e+03
2.130000e-06	3.305956e-06	2.034306e-08	2.376727e+01	1.331070e+03
2.140000e-06	3.224910e-06	2.023022e-08	2.318461e+01	1.324241e+03
2.150000e-06	3.142734e-06	2.010779e-08	2.259383e+01	1.316978e+03
2.160000e-06	3.059459e-06	2.002430e-08	2.199515e+01	1.309233e+03
2.170000e-06	2.975289e-06	1.989389e-08	2.139003e+01	1.301038e+03
2.180000e-06	2.889997e-06	1.977367e-08	2.077685e+01	1.292498e+03
2.190000e-06	2.803353e-06	1.964382e-08	2.015394e+01	1.283754e+03
2.200000e-06	2.715578e-06	1.951496e-08	1.952291e+01	1.274938e+03
2.210000e-06	2.626919e-06	1.938020e-08	1.888551e+01	1.266127e+03
2.220000e-06	2.537391e-06	1.923732e-08	1.824188e+01	1.257311e+03
2.230000e-06	2.446964e-06	1.910793e-08	1.759178e+01	1.248390e+03
2.240000e-06	2.355784e-06	1.895955e-08	1.693627e+01	1.239200e+03
2.250000e-06	2.263944e-06	1.880555e-08	1.627601e+01	1.229554e+03
2.260000e-06	2.171448e-06	1.864228e-08	1.561103e+01	1.219304e+03
2.270000e-06	2.078054e-06	1.848388e-08	1.493960e+01	1.208379e+03
2.280000e-06	1.983573e-06	1.831812e-08	1.426036e+01	1.196811e+03
2.290000e-06	1.888226e-06	1.814132e-08	1.357488e+01	1.184720e+03
2.300000e-06	1.792250e-06	1.796310e-08	1.288489e+01	1.172275e+03
2.310000e-06	1.695773e-06	1.777673e-08	1.219130e+01	1.159638e+03
2.320000e-06	1.598835e-06	1.758365e-08	1.149439e+01	1.146897e+03
2.330000e-06	1.501360e-06	1.737991e-08	1.079362e+01	1.134031e+03
2.340000e-06	1.403330e-06	1.716773e-08	1.008885e+01	1.120902e+03
2.350000e-06	1.304841e-06	1.694423e-08	9.380801e+00	1.107282e+03
2.360000e-06	1.205935e-06	1.671836e-08	8.669743e+00	1.092913e+03
2.370000e-06	1.106639e-06	1.648888e-08	7.955882e+00	1.077582e+03
2.380000e-06	1.007096e-06	1.624665e-08	7.240239e+00	1.061175e+03
2.390000e-06	9.074131e-07	1.598706e-08	6.523599e+00	1.043713e+03
2.400000e-06	8.075367e-07	1.571156e-08	5.805565e+00	1.025332e+03
2.410000e-06	7.074111e-07	1.542757e-08	5.085739e+00	1.006230e+03
2.420000e-06	6.070386e-07	1.513374e-08	4.364138e+00	9.865818e+02
2.430000e-06	5.064724e-07	1.482833e-08	3.641145e+00	9.664511e+02
2.440000e-06	4.057689e-07	1.450875e-08	2.917165e+00	9.457284e+02
2.450000e-06	3.048608e-07	1.416591e-08	2.191713e+00	9.241172e+02
2.460000e-06	2.037230e-07	1.379499e-08	1.464611e+00	9.011752e+02
2.470000e-06	1.024441e-07	1.340262e-08	7.364940e-01	8.764035e+02
2.480000e-06	1.047035e-09	1.299189e-08	7.527375e-03	8.493580e+02
2.490000e-06	-1.004431e-07	1.255392e-08	-7.221081e-01	8.197465e+02
2.500000e-06	-2.018080e-07	1.207844e-08	-1.450843e+00	7.874759e+02
2.510000e-06	-3.029644e-07	1.156378e-08	-2.178080e+00	7.526241e+02
2.520000e-06	-4.039723e-07	1.100957e-08	-2.904248e+00	7.153308e+02
2.530000e-06	-5.048377e-07	1.041070e-08	-3.629393e+00	6.756274e+02
2.540000e-06	-6.056187e-07	9.757022e-09	-4.353931e+00	6.332467e+02
2.550000e-06	-7.062032e-07	9.036965e-09	-5.077055e+00	5.874692e+02
2.560000e-06	-8.064603e-07	8.239739e-09	-5.797826e+00	5.370593e+02
2.570000e-06	-9.064612e-07	7.352929e-09	-6.516755e+00	4.803313e+02
2.580000e-06	-1.006258e-06	6.357963e-09	-7.234217e+00	4.153576e+02
2.590000e-06	-1.105795e-06	5.230735e-09	-7.949809e+00	3.402961e+02
2.600000e-06	-1.204998e-06	3.948637e-09	-8.663007e+00	2.537807e+02
2.610000e-06	-1.303768e-06	2.493152e-09	-9.373085e+00	1.552990e+02
2.620000e-06	-1.402033e-06	8.538609e-10	-1.007953e+01	4.547302e+01
2.630000e-06	-1.499838e-06	-9.587869e-10	-1.078267e+01	-7.382464e+01
2.640000e-06	-1.597168e-06	-2.903792e-09	-1.148240e+01	-1.995606e+02
2.650000e-06	-1.693930e-06	-4.909784e-09	-1.217805e+01	-3.278320e+02
2.660000e-06	-1.790135e-06	-6.889011e-09	-1.286969e+01	-4.543162e+02
2.670000e-06	-1.885834e-06	-8.757589e-09	-1.355769e+01	-5.747997e+02
2.680000e-06	-1.980861e-06	-1.045042e-08	-1.424086e+01	-6.856920e+02
2.690000e-06	-2.074916e-06	-1.193576e-08	-1.491705e+01	-7.844300e+02
2.700000e-06	-2.167990e-06	-1.321056e-08	-1.558618e+01	-8.697049e+02
2.710000e-06	-2.260215e-06	-1.429091e-08	-1.624920e+01	-9.414799e+02
2.720000e-06	-2.351689e-06	-1.520175e-08	-1.690682e+01	-1.000808e+03
2.730000e-06	-2.442349e-06	-1.597063e-08	-1.755860e+01	-1.049503e+03
2.740000e-06	-2.532066e-06	-1.662236e-08	-1.820360e+01	-1.089738e+03
2.750000e-06	-2.620909e-06	-1.717682e-08	-1.884231e+01	-1.123652e+03
2.760000e-06	-2.709010e-06	-1.765049e-08	-1.947569e+01	-1.153050e+03
2.770000e-06	-2.796320e-06	-1.805728e-08	-2.010338e+01	-1.179226e+03
2.780000e-06	-2.882472e-06	-1.841188e-08	-2.072275e+01	-1.202936e+03
2.790000e-06	-2.967343e-06	-1.872324e-08	-2.133290e+01	-1.224492e+03
2.800000e-06	-3.051153e-06	-1.900169e-08	-2.193543e+01	-1.243928e+03
2.810000e-06	-3.134027e-06	-1.925285e-08	-2.253123e+01	-1.261200e+03
2.820000e-06	-3.215912e-06	-1.947830e-08	-2.311992e+01	-1.276332e+03
2.830000e-06	-3.296748e-06	-1.968489e-08	-2.370107e+01	-1.289513e+03
2.840000e-06	-3.376487e-06	-1.987546e-08	-2.427433e+01	-1.301097e+03
2.850000e-06	-3.454817e-06	-2.005405e-08	-2.483746e+01	-1.311544e+03
2.860000e-06	-3.531628e-06	-2.022170e-08	-2.538968e+01	-1.321314e+03
2.870000e-06	-3.607058e-06	-2.037668e-08	-2.593196e+01	-1.330768e+03
2.880000e-06	-3.681103e-06	-2.051867e-08	-2.646428e+01	-1.340092e+03
2.890000e-06	-3.753884e-06	-2.064710e-08	-2.698752e+01	-1.349280e+03
2.900000e-06	-3.825476e-06	-2.076565e-08	-2.750222e+01	-1.358177e+03
2.910000e-06	-3.895557e-06	-2.088077e-08	-2.800604e+01	-1.366548e+03
2.920000e-06	-3.964050e-06	-2.099271e-08	-2.849846e+01	-1.374179e+03
2.930000e-06	-4.031177e-06	-2.109740e-08	-2.898105e+01	-1.380955e+03
2.940000e-06	-4.096907e-06	-2.119499e-08	-2.945359e+01	-1.386903e+03
