# Temperatura_=_88.12
# Concentracion g/m^3_=_41000.0
# C_Vs_to_Am_M_A/Vsm_=_65563218390.804596
# pendiente_HvsI_1/m_=_3716.3
# ordenada_HvsI_A/m_=_1297.0
# frecuencia_Hz_=_301587.44636626996

Tiempo_(s)	Campo_(V.s)	Magnetizacion_(V.s)	Campo_(kA/m)	Magnetizacion_(A/m)
0.000000e+00	-5.350930e-06	-2.219701e-08	-3.834766e+01	-1.451723e+03
1.000000e-08	-5.348219e-06	-2.218870e-08	-3.832823e+01	-1.451590e+03
2.000000e-08	-5.343740e-06	-2.218045e-08	-3.829612e+01	-1.451505e+03
3.000000e-08	-5.337663e-06	-2.217354e-08	-3.825257e+01	-1.451365e+03
4.000000e-08	-5.330014e-06	-2.216306e-08	-3.819776e+01	-1.451048e+03
5.000000e-08	-5.320493e-06	-2.215020e-08	-3.812953e+01	-1.450453e+03
6.000000e-08	-5.308908e-06	-2.213433e-08	-3.804650e+01	-1.449530e+03
7.000000e-08	-5.295472e-06	-2.211045e-08	-3.795021e+01	-1.448295e+03
8.000000e-08	-5.279989e-06	-2.212751e-08	-3.783925e+01	-1.446829e+03
9.000000e-08	-5.262245e-06	-2.213232e-08	-3.771209e+01	-1.445252e+03
1.000000e-07	-5.242450e-06	-2.208462e-08	-3.757023e+01	-1.443686e+03
1.100000e-07	-5.220752e-06	-2.205936e-08	-3.741473e+01	-1.442222e+03
1.200000e-07	-5.197403e-06	-2.199432e-08	-3.724740e+01	-1.440895e+03
1.300000e-07	-5.172541e-06	-2.191181e-08	-3.706922e+01	-1.439672e+03
1.400000e-07	-5.146057e-06	-2.199515e-08	-3.687942e+01	-1.438469e+03
1.500000e-07	-5.117927e-06	-2.194918e-08	-3.667783e+01	-1.437173e+03
1.600000e-07	-5.088334e-06	-2.187537e-08	-3.646575e+01	-1.435684e+03
1.700000e-07	-5.057192e-06	-2.194980e-08	-3.624257e+01	-1.433935e+03
1.800000e-07	-5.023976e-06	-2.183226e-08	-3.600452e+01	-1.431916e+03
1.900000e-07	-4.988929e-06	-2.176813e-08	-3.575336e+01	-1.429668e+03
2.000000e-07	-4.952330e-06	-2.181152e-08	-3.549107e+01	-1.427266e+03
2.100000e-07	-4.913992e-06	-2.170706e-08	-3.521632e+01	-1.424789e+03
2.200000e-07	-4.873970e-06	-2.165650e-08	-3.492950e+01	-1.422289e+03
2.300000e-07	-4.832040e-06	-2.163763e-08	-3.462900e+01	-1.419771e+03
2.400000e-07	-4.788107e-06	-2.157576e-08	-3.431416e+01	-1.417189e+03
2.500000e-07	-4.742370e-06	-2.158348e-08	-3.398639e+01	-1.414460e+03
2.600000e-07	-4.694805e-06	-2.151352e-08	-3.364551e+01	-1.411488e+03
2.700000e-07	-4.645167e-06	-2.144262e-08	-3.328977e+01	-1.408200e+03
2.800000e-07	-4.593442e-06	-2.138671e-08	-3.291909e+01	-1.404569e+03
2.900000e-07	-4.539913e-06	-2.133166e-08	-3.253547e+01	-1.400624e+03
3.000000e-07	-4.484841e-06	-2.129584e-08	-3.214080e+01	-1.396447e+03
3.100000e-07	-4.428054e-06	-2.122900e-08	-3.173383e+01	-1.392149e+03
3.200000e-07	-4.369474e-06	-2.117159e-08	-3.131401e+01	-1.387833e+03
3.300000e-07	-4.309371e-06	-2.109613e-08	-3.088328e+01	-1.383561e+03
3.400000e-07	-4.247771e-06	-2.101725e-08	-3.044182e+01	-1.379339e+03
3.500000e-07	-4.184776e-06	-2.094977e-08	-2.999037e+01	-1.375105e+03
3.600000e-07	-4.120308e-06	-2.088061e-08	-2.952835e+01	-1.370754e+03
3.700000e-07	-4.054237e-06	-2.082194e-08	-2.905485e+01	-1.366164e+03
3.800000e-07	-3.986622e-06	-2.073024e-08	-2.857029e+01	-1.361238e+03
3.900000e-07	-3.917550e-06	-2.063297e-08	-2.807528e+01	-1.355933e+03
4.000000e-07	-3.847229e-06	-2.056297e-08	-2.757132e+01	-1.350271e+03
4.100000e-07	-3.775743e-06	-2.047894e-08	-2.705902e+01	-1.344338e+03
4.200000e-07	-3.702868e-06	-2.039645e-08	-2.653675e+01	-1.338255e+03
4.300000e-07	-3.628399e-06	-2.030462e-08	-2.600306e+01	-1.332137e+03
4.400000e-07	-3.552365e-06	-2.021421e-08	-2.545817e+01	-1.326060e+03
4.500000e-07	-3.474933e-06	-2.011668e-08	-2.490324e+01	-1.320028e+03
4.600000e-07	-3.396175e-06	-2.001626e-08	-2.433883e+01	-1.313975e+03
4.700000e-07	-3.316103e-06	-1.992113e-08	-2.376499e+01	-1.307778e+03
4.800000e-07	-3.234815e-06	-1.981065e-08	-2.318243e+01	-1.301295e+03
4.900000e-07	-3.152406e-06	-1.970587e-08	-2.259184e+01	-1.294407e+03
5.000000e-07	-3.068981e-06	-1.959404e-08	-2.199397e+01	-1.287055e+03
5.100000e-07	-2.984620e-06	-1.947738e-08	-2.138940e+01	-1.279258e+03
5.200000e-07	-2.899351e-06	-1.935344e-08	-2.077831e+01	-1.271108e+03
5.300000e-07	-2.813143e-06	-1.922954e-08	-2.016050e+01	-1.262738e+03
5.400000e-07	-2.726091e-06	-1.910979e-08	-1.953664e+01	-1.254280e+03
5.500000e-07	-2.638127e-06	-1.898350e-08	-1.890625e+01	-1.245818e+03
5.600000e-07	-2.548975e-06	-1.885269e-08	-1.826733e+01	-1.237355e+03
5.700000e-07	-2.458683e-06	-1.871350e-08	-1.762025e+01	-1.228807e+03
5.800000e-07	-2.367468e-06	-1.857034e-08	-1.696656e+01	-1.220020e+03
5.900000e-07	-2.275393e-06	-1.841713e-08	-1.630670e+01	-1.210814e+03
6.000000e-07	-2.182527e-06	-1.825932e-08	-1.564117e+01	-1.201032e+03
6.100000e-07	-2.088927e-06	-1.809982e-08	-1.497038e+01	-1.190591e+03
6.200000e-07	-1.994618e-06	-1.793634e-08	-1.429451e+01	-1.179503e+03
6.300000e-07	-1.899631e-06	-1.776670e-08	-1.361378e+01	-1.167870e+03
6.400000e-07	-1.803990e-06	-1.759078e-08	-1.292837e+01	-1.155849e+03
6.500000e-07	-1.707685e-06	-1.741005e-08	-1.223819e+01	-1.143599e+03
6.600000e-07	-1.610585e-06	-1.722217e-08	-1.154233e+01	-1.131222e+03
6.700000e-07	-1.512737e-06	-1.702701e-08	-1.084109e+01	-1.118717e+03
6.800000e-07	-1.414382e-06	-1.682201e-08	-1.013623e+01	-1.105971e+03
6.900000e-07	-1.315577e-06	-1.660949e-08	-9.428137e+00	-1.092778e+03
7.000000e-07	-1.216285e-06	-1.638790e-08	-8.716553e+00	-1.078892e+03
7.100000e-07	-1.116594e-06	-1.615739e-08	-8.002116e+00	-1.064094e+03
7.200000e-07	-1.016601e-06	-1.591866e-08	-7.285511e+00	-1.048256e+03
7.300000e-07	-9.163323e-07	-1.567229e-08	-6.566932e+00	-1.031369e+03
7.400000e-07	-8.158353e-07	-1.541620e-08	-5.846716e+00	-1.013544e+03
7.500000e-07	-7.151023e-07	-1.514763e-08	-5.124809e+00	-9.949615e+02
7.600000e-07	-6.140607e-07	-1.486219e-08	-4.400690e+00	-9.757961e+02
7.700000e-07	-5.127934e-07	-1.455785e-08	-3.674954e+00	-9.561308e+02
7.800000e-07	-4.114154e-07	-1.423718e-08	-2.948425e+00	-9.358929e+02
7.900000e-07	-3.098702e-07	-1.389848e-08	-2.220697e+00	-9.148302e+02
8.000000e-07	-2.081702e-07	-1.354245e-08	-1.491860e+00	-8.925397e+02
8.100000e-07	-1.063162e-07	-1.316585e-08	-7.619196e-01	-8.685450e+02
8.200000e-07	-4.365652e-09	-1.276619e-08	-3.128662e-02	-8.423995e+02
8.300000e-07	9.758214e-08	-1.234040e-08	6.993263e-01	-8.137832e+02
8.400000e-07	1.995022e-07	-1.188139e-08	1.429740e+00	-7.825590e+02
8.500000e-07	3.013517e-07	-1.138410e-08	2.159649e+00	-7.487603e+02
8.600000e-07	4.030746e-07	-1.084462e-08	2.888651e+00	-7.125020e+02
8.700000e-07	5.046334e-07	-1.026083e-08	3.616475e+00	-6.738287e+02
8.800000e-07	6.060355e-07	-9.624958e-09	4.343177e+00	-6.325351e+02
8.900000e-07	7.072552e-07	-8.925819e-09	5.068573e+00	-5.880093e+02
9.000000e-07	8.082470e-07	-8.152607e-09	5.792334e+00	-5.391537e+02
9.100000e-07	9.089337e-07	-7.292552e-09	6.513910e+00	-4.844215e+02
9.200000e-07	1.009354e-06	-6.327176e-09	7.233576e+00	-4.219898e+02
9.300000e-07	1.109486e-06	-5.234718e-09	7.951174e+00	-3.500510e+02
9.400000e-07	1.209229e-06	-3.993029e-09	8.665989e+00	-2.671783e+02
9.500000e-07	1.308585e-06	-2.581174e-09	9.378027e+00	-1.726943e+02
9.600000e-07	1.407540e-06	-9.885036e-10	1.008719e+01	-6.696387e+01
9.700000e-07	1.505930e-06	7.748347e-10	1.079231e+01	4.845751e+01
9.800000e-07	1.603643e-06	2.667519e-09	1.149257e+01	1.708659e+02
9.900000e-07	1.700549e-06	4.623429e-09	1.218705e+01	2.966467e+02
1.000000e-06	1.796601e-06	6.561431e-09	1.287541e+01	4.216752e+02
1.010000e-06	1.891977e-06	8.402359e-09	1.355893e+01	5.418118e+02
1.020000e-06	1.986766e-06	1.008318e-08	1.423824e+01	6.534035e+02
1.030000e-06	2.080869e-06	1.156757e-08	1.491263e+01	7.537014e+02
1.040000e-06	2.174182e-06	1.284936e-08	1.558136e+01	8.411225e+02
1.050000e-06	2.266804e-06	1.394149e-08	1.624515e+01	9.153155e+02
1.060000e-06	2.358771e-06	1.486258e-08	1.690423e+01	9.770332e+02
1.070000e-06	2.450086e-06	1.563899e-08	1.755864e+01	1.027849e+03
1.080000e-06	2.540574e-06	1.629446e-08	1.820713e+01	1.069784e+03
1.090000e-06	2.629867e-06	1.685035e-08	1.884704e+01	1.104930e+03
1.100000e-06	2.717905e-06	1.732371e-08	1.947798e+01	1.135132e+03
1.110000e-06	2.805012e-06	1.773085e-08	2.010223e+01	1.161785e+03
1.120000e-06	2.891340e-06	1.808460e-08	2.072090e+01	1.185775e+03
1.130000e-06	2.976729e-06	1.839657e-08	2.133285e+01	1.207532e+03
1.140000e-06	3.061114e-06	1.867512e-08	2.193760e+01	1.227177e+03
1.150000e-06	3.144619e-06	1.892666e-08	2.253604e+01	1.244697e+03
1.160000e-06	3.227135e-06	1.915522e-08	2.312739e+01	1.260108e+03
1.170000e-06	3.308375e-06	1.936208e-08	2.370960e+01	1.273554e+03
1.180000e-06	3.388370e-06	1.955202e-08	2.428289e+01	1.285337e+03
1.190000e-06	3.467155e-06	1.972676e-08	2.484750e+01	1.295870e+03
1.200000e-06	3.544665e-06	1.988730e-08	2.540298e+01	1.305598e+03
1.210000e-06	3.620922e-06	2.003556e-08	2.594948e+01	1.314892e+03
1.220000e-06	3.695860e-06	2.017626e-08	2.648653e+01	1.323980e+03
1.230000e-06	3.769169e-06	2.030733e-08	2.701190e+01	1.332912e+03
1.240000e-06	3.840932e-06	2.042821e-08	2.752619e+01	1.341582e+03
1.250000e-06	3.911381e-06	2.053933e-08	2.803107e+01	1.349793e+03
1.260000e-06	3.980454e-06	2.064455e-08	2.852608e+01	1.357340e+03
1.270000e-06	4.048218e-06	2.074272e-08	2.901171e+01	1.364092e+03
1.280000e-06	4.114580e-06	2.083539e-08	2.948730e+01	1.370038e+03
1.290000e-06	4.179228e-06	2.092444e-08	2.995061e+01	1.375300e+03
1.300000e-06	4.242273e-06	2.101059e-08	3.040242e+01	1.380097e+03
1.310000e-06	4.303948e-06	2.109186e-08	3.084442e+01	1.384682e+03
1.320000e-06	4.364256e-06	2.116659e-08	3.127662e+01	1.389274e+03
1.330000e-06	4.423153e-06	2.123845e-08	3.169870e+01	1.393997e+03
1.340000e-06	4.480320e-06	2.130651e-08	3.210839e+01	1.398853e+03
1.350000e-06	4.535716e-06	2.137077e-08	3.250539e+01	1.403733e+03
1.360000e-06	4.589514e-06	2.143197e-08	3.289094e+01	1.408458e+03
1.370000e-06	4.641585e-06	2.149097e-08	3.326411e+01	1.412840e+03
1.380000e-06	4.691671e-06	2.154769e-08	3.362305e+01	1.416741e+03
1.390000e-06	4.739793e-06	2.160118e-08	3.396792e+01	1.420116e+03
1.400000e-06	4.786198e-06	2.165189e-08	3.430048e+01	1.423021e+03
1.410000e-06	4.830977e-06	2.169916e-08	3.462139e+01	1.425596e+03
1.420000e-06	4.874173e-06	2.174301e-08	3.493096e+01	1.428016e+03
1.430000e-06	4.915580e-06	2.178464e-08	3.522770e+01	1.430442e+03
1.440000e-06	4.955150e-06	2.182296e-08	3.551128e+01	1.432968e+03
1.450000e-06	4.993083e-06	2.185674e-08	3.578313e+01	1.435603e+03
1.460000e-06	5.029432e-06	2.188709e-08	3.604362e+01	1.438267e+03
1.470000e-06	5.064056e-06	2.191541e-08	3.629176e+01	1.440827e+03
1.480000e-06	5.096732e-06	2.194282e-08	3.652593e+01	1.443137e+03
1.490000e-06	5.127630e-06	2.196958e-08	3.674736e+01	1.445090e+03
1.500000e-06	5.156880e-06	2.199608e-08	3.695699e+01	1.446647e+03
1.510000e-06	5.184401e-06	2.202220e-08	3.715422e+01	1.447851e+03
1.520000e-06	5.209970e-06	2.204571e-08	3.733746e+01	1.448814e+03
1.530000e-06	5.233462e-06	2.206630e-08	3.750582e+01	1.449677e+03
1.540000e-06	5.255119e-06	2.208365e-08	3.766102e+01	1.450569e+03
1.550000e-06	5.275091e-06	2.209882e-08	3.780415e+01	1.451569e+03
1.560000e-06	5.293228e-06	2.211165e-08	3.793413e+01	1.452679e+03
1.570000e-06	5.309368e-06	2.212280e-08	3.804980e+01	1.453834e+03
1.580000e-06	5.323578e-06	2.213389e-08	3.815164e+01	1.454916e+03
1.590000e-06	5.335796e-06	2.214457e-08	3.823919e+01	1.455797e+03
1.600000e-06	5.345788e-06	2.215458e-08	3.831081e+01	1.456383e+03
1.610000e-06	5.353667e-06	2.216374e-08	3.836727e+01	1.456636e+03
1.620000e-06	5.359672e-06	2.217192e-08	3.841031e+01	1.456590e+03
1.630000e-06	5.363905e-06	2.217717e-08	3.844064e+01	1.456339e+03
1.640000e-06	5.366251e-06	2.218002e-08	3.845745e+01	1.456004e+03
1.650000e-06	5.366606e-06	2.217924e-08	3.846000e+01	1.455697e+03
1.660000e-06	5.365138e-06	2.217133e-08	3.844948e+01	1.455485e+03
1.670000e-06	5.362028e-06	2.216640e-08	3.842719e+01	1.455368e+03
1.680000e-06	5.357255e-06	2.216121e-08	3.839298e+01	1.455281e+03
1.690000e-06	5.350648e-06	2.215625e-08	3.834564e+01	1.455112e+03
1.700000e-06	5.342260e-06	2.215086e-08	3.828552e+01	1.454743e+03
1.710000e-06	5.332267e-06	2.214398e-08	3.821390e+01	1.454079e+03
1.720000e-06	5.320594e-06	2.214841e-08	3.813025e+01	1.453084e+03
1.730000e-06	5.306974e-06	2.210260e-08	3.803264e+01	1.451791e+03
1.740000e-06	5.291296e-06	2.204036e-08	3.792029e+01	1.450290e+03
1.750000e-06	5.273308e-06	2.204006e-08	3.779137e+01	1.448705e+03
1.760000e-06	5.252674e-06	2.201923e-08	3.764350e+01	1.447154e+03
1.770000e-06	5.229750e-06	2.206790e-08	3.747921e+01	1.445719e+03
1.780000e-06	5.205503e-06	2.208593e-08	3.730544e+01	1.444418e+03
1.790000e-06	5.180493e-06	2.193988e-08	3.712621e+01	1.443207e+03
1.800000e-06	5.154053e-06	2.199323e-08	3.693673e+01	1.441993e+03
1.810000e-06	5.125552e-06	2.197654e-08	3.673247e+01	1.440663e+03
1.820000e-06	5.095281e-06	2.185850e-08	3.651554e+01	1.439121e+03
1.830000e-06	5.063222e-06	2.198111e-08	3.628578e+01	1.437313e+03
1.840000e-06	5.029281e-06	2.191524e-08	3.604255e+01	1.435240e+03
1.850000e-06	4.993776e-06	2.180652e-08	3.578810e+01	1.432951e+03
1.860000e-06	4.956424e-06	2.189548e-08	3.552041e+01	1.430527e+03
1.870000e-06	4.917157e-06	2.179772e-08	3.523900e+01	1.428041e+03
1.880000e-06	4.876213e-06	2.178208e-08	3.494558e+01	1.425538e+03
1.890000e-06	4.833505e-06	2.175823e-08	3.463951e+01	1.423011e+03
1.900000e-06	4.789144e-06	2.160206e-08	3.432159e+01	1.420405e+03
1.910000e-06	4.742989e-06	2.167594e-08	3.399082e+01	1.417631e+03
1.920000e-06	4.694917e-06	2.160592e-08	3.364631e+01	1.414596e+03
1.930000e-06	4.645206e-06	2.152336e-08	3.329006e+01	1.411234e+03
1.940000e-06	4.593722e-06	2.150507e-08	3.292109e+01	1.407530e+03
1.950000e-06	4.540172e-06	2.138247e-08	3.253732e+01	1.403527e+03
1.960000e-06	4.484751e-06	2.137921e-08	3.214015e+01	1.399314e+03
1.970000e-06	4.427626e-06	2.127820e-08	3.173076e+01	1.395004e+03
1.980000e-06	4.368948e-06	2.121369e-08	3.131024e+01	1.390693e+03
1.990000e-06	4.308851e-06	2.120991e-08	3.087955e+01	1.386434e+03
2.000000e-06	4.247232e-06	2.109557e-08	3.043796e+01	1.382215e+03
2.010000e-06	4.183930e-06	2.105118e-08	2.998430e+01	1.377966e+03
2.020000e-06	4.119000e-06	2.094234e-08	2.951897e+01	1.373573e+03
2.030000e-06	4.052655e-06	2.089379e-08	2.904352e+01	1.368917e+03
2.040000e-06	3.985043e-06	2.083606e-08	2.855897e+01	1.363911e+03
2.050000e-06	3.916012e-06	2.071476e-08	2.806426e+01	1.358524e+03
2.060000e-06	3.845405e-06	2.067478e-08	2.755825e+01	1.352795e+03
2.070000e-06	3.773378e-06	2.056588e-08	2.704206e+01	1.346819e+03
2.080000e-06	3.700047e-06	2.048613e-08	2.651653e+01	1.340719e+03
2.090000e-06	3.625431e-06	2.038501e-08	2.598180e+01	1.334605e+03
2.100000e-06	3.549425e-06	2.028559e-08	2.543710e+01	1.328539e+03
2.110000e-06	3.471846e-06	2.020931e-08	2.488112e+01	1.322510e+03
2.120000e-06	3.392855e-06	2.009699e-08	2.431503e+01	1.316437e+03
2.130000e-06	3.312671e-06	2.001507e-08	2.374039e+01	1.310190e+03
2.140000e-06	3.231349e-06	1.989441e-08	2.315759e+01	1.303628e+03
2.150000e-06	3.148908e-06	1.978949e-08	2.256677e+01	1.296643e+03
2.160000e-06	3.065456e-06	1.968088e-08	2.196871e+01	1.289190e+03
2.170000e-06	2.980962e-06	1.956953e-08	2.136319e+01	1.281307e+03
2.180000e-06	2.895190e-06	1.945787e-08	2.074850e+01	1.273098e+03
2.190000e-06	2.808245e-06	1.932513e-08	2.012540e+01	1.264698e+03
2.200000e-06	2.720246e-06	1.920279e-08	1.949475e+01	1.256234e+03
2.210000e-06	2.631298e-06	1.906515e-08	1.885731e+01	1.247774e+03
2.220000e-06	2.541449e-06	1.893624e-08	1.821340e+01	1.239303e+03
2.230000e-06	2.450723e-06	1.880065e-08	1.756321e+01	1.230717e+03
2.240000e-06	2.359338e-06	1.866664e-08	1.690829e+01	1.221855e+03
2.250000e-06	2.267270e-06	1.852349e-08	1.624848e+01	1.212536e+03
2.260000e-06	2.174288e-06	1.836834e-08	1.558213e+01	1.202617e+03
2.270000e-06	2.080277e-06	1.821014e-08	1.490838e+01	1.192033e+03
2.280000e-06	1.985382e-06	1.804433e-08	1.422832e+01	1.180816e+03
2.290000e-06	1.889767e-06	1.787505e-08	1.354309e+01	1.169085e+03
2.300000e-06	1.793476e-06	1.769619e-08	1.285302e+01	1.157002e+03
2.310000e-06	1.696638e-06	1.751685e-08	1.215903e+01	1.144718e+03
2.320000e-06	1.599327e-06	1.733089e-08	1.146164e+01	1.132317e+03
2.330000e-06	1.501499e-06	1.713631e-08	1.076055e+01	1.119773e+03
2.340000e-06	1.403146e-06	1.692796e-08	1.005570e+01	1.106950e+03
2.350000e-06	1.304289e-06	1.671161e-08	9.347240e+00	1.093629e+03
2.360000e-06	1.205103e-06	1.649036e-08	8.636417e+00	1.079563e+03
2.370000e-06	1.105667e-06	1.626099e-08	7.923804e+00	1.064550e+03
2.380000e-06	1.005960e-06	1.602174e-08	7.209250e+00	1.048482e+03
2.390000e-06	9.060280e-07	1.576728e-08	6.493086e+00	1.031381e+03
2.400000e-06	8.058128e-07	1.550053e-08	5.774890e+00	1.013377e+03
2.410000e-06	7.052604e-07	1.522357e-08	5.054277e+00	9.946561e+02
2.420000e-06	6.044088e-07	1.493610e-08	4.331520e+00	9.753805e+02
2.430000e-06	5.033182e-07	1.463678e-08	3.607050e+00	9.556042e+02
2.440000e-06	4.020373e-07	1.432208e-08	2.881217e+00	9.352162e+02
2.450000e-06	3.006073e-07	1.398484e-08	2.154315e+00	9.139277e+02
2.460000e-06	1.990232e-07	1.362284e-08	1.426308e+00	8.913122e+02
2.470000e-06	9.730051e-08	1.323720e-08	6.973080e-01	8.668907e+02
2.480000e-06	-4.475364e-09	1.282935e-08	-3.207287e-02	8.402364e+02
2.490000e-06	-1.062854e-07	1.239466e-08	-7.616989e-01	8.110657e+02
2.500000e-06	-2.080728e-07	1.192885e-08	-1.491162e+00	7.792818e+02
2.510000e-06	-3.096922e-07	1.142805e-08	-2.219421e+00	7.449456e+02
2.520000e-06	-4.111610e-07	1.088344e-08	-2.946602e+00	7.081713e+02
2.530000e-06	-5.125100e-07	1.028885e-08	-3.672923e+00	6.689651e+02
2.540000e-06	-6.136669e-07	9.637306e-09	-4.397868e+00	6.270458e+02
2.550000e-06	-7.145529e-07	8.923216e-09	-5.120872e+00	5.817009e+02
2.560000e-06	-8.151040e-07	8.135513e-09	-5.841475e+00	5.317285e+02
2.570000e-06	-9.153490e-07	7.258634e-09	-6.559885e+00	4.755040e+02
2.580000e-06	-1.015344e-06	6.275605e-09	-7.276503e+00	4.111795e+02
2.590000e-06	-1.115037e-06	5.162293e-09	-7.990956e+00	3.369971e+02
2.600000e-06	-1.214351e-06	3.897117e-09	-8.702698e+00	2.516609e+02
2.610000e-06	-1.313309e-06	2.462788e-09	-9.411878e+00	1.546962e+02
2.620000e-06	-1.411875e-06	8.494197e-10	-1.011826e+01	4.671652e+01
2.630000e-06	-1.509931e-06	-9.298420e-10	-1.082098e+01	-7.046617e+01
2.640000e-06	-1.607439e-06	-2.835939e-09	-1.151977e+01	-1.939264e+02
2.650000e-06	-1.704391e-06	-4.803522e-09	-1.221459e+01	-3.199022e+02
2.660000e-06	-1.800806e-06	-6.746635e-09	-1.290555e+01	-4.442221e+02
2.670000e-06	-1.896698e-06	-8.583790e-09	-1.359276e+01	-5.628105e+02
2.680000e-06	-1.991981e-06	-1.025379e-08	-1.427561e+01	-6.721771e+02
2.690000e-06	-2.086469e-06	-1.172508e-08	-1.495277e+01	-7.698072e+02
2.700000e-06	-2.179932e-06	-1.299157e-08	-1.562257e+01	-8.543830e+02
2.710000e-06	-2.272385e-06	-1.406625e-08	-1.628514e+01	-9.258068e+02
2.720000e-06	-2.364034e-06	-1.497415e-08	-1.694194e+01	-9.850351e+02
2.730000e-06	-2.454929e-06	-1.574165e-08	-1.759335e+01	-1.033770e+03
2.740000e-06	-2.544931e-06	-1.639193e-08	-1.823835e+01	-1.074079e+03
2.750000e-06	-2.634000e-06	-1.694257e-08	-1.887666e+01	-1.108024e+03
2.760000e-06	-2.722278e-06	-1.741247e-08	-1.950932e+01	-1.137366e+03
2.770000e-06	-2.809800e-06	-1.781769e-08	-2.013654e+01	-1.163392e+03
2.780000e-06	-2.896299e-06	-1.817037e-08	-2.075644e+01	-1.186881e+03
2.790000e-06	-2.981461e-06	-1.848011e-08	-2.136676e+01	-1.208183e+03
2.800000e-06	-3.065488e-06	-1.875518e-08	-2.196895e+01	-1.227375e+03
2.810000e-06	-3.148578e-06	-1.900193e-08	-2.256441e+01	-1.244439e+03
2.820000e-06	-3.230598e-06	-1.922521e-08	-2.315221e+01	-1.259412e+03
2.830000e-06	-3.311531e-06	-1.943003e-08	-2.373222e+01	-1.272472e+03
2.840000e-06	-3.391372e-06	-1.961825e-08	-2.430440e+01	-1.283950e+03
2.850000e-06	-3.469946e-06	-1.979253e-08	-2.486751e+01	-1.294275e+03
2.860000e-06	-3.547016e-06	-1.995312e-08	-2.541983e+01	-1.303883e+03
2.870000e-06	-3.622596e-06	-2.010134e-08	-2.596148e+01	-1.313120e+03
2.880000e-06	-3.696836e-06	-2.023896e-08	-2.649353e+01	-1.322177e+03
2.890000e-06	-3.769822e-06	-2.036635e-08	-2.701658e+01	-1.331067e+03
2.900000e-06	-3.841537e-06	-2.048531e-08	-2.753053e+01	-1.339657e+03
2.910000e-06	-3.911750e-06	-2.059789e-08	-2.803372e+01	-1.347742e+03
2.920000e-06	-3.980375e-06	-2.070442e-08	-2.852551e+01	-1.355127e+03
2.930000e-06	-4.047643e-06	-2.080396e-08	-2.900759e+01	-1.361703e+03
2.940000e-06	-4.113519e-06	-2.089648e-08	-2.947970e+01	-1.367489e+03
