# Temperatura_=_51.28
# Concentracion g/m^3_=_28200.0
# C_Vs_to_Am_M_A/Vsm_=_65563218390.804596
# pendiente_HvsI_1/m_=_3716.3
# ordenada_HvsI_A/m_=_1297.0
# frecuencia_Hz_=_302133.30327664793

Tiempo_(s)	Campo_(V.s)	Magnetizacion_(V.s)	Campo_(kA/m)	Magnetizacion_(A/m)
0.000000e+00	-6.386107e-06	-2.257585e-08	-4.585076e+01	-1.478084e+03
1.000000e-08	-6.383033e-06	-2.257383e-08	-4.582869e+01	-1.477744e+03
2.000000e-08	-6.377854e-06	-2.256516e-08	-4.579151e+01	-1.477284e+03
3.000000e-08	-6.370802e-06	-2.255725e-08	-4.574088e+01	-1.476686e+03
4.000000e-08	-6.361643e-06	-2.254460e-08	-4.567511e+01	-1.475929e+03
5.000000e-08	-6.350074e-06	-2.252388e-08	-4.559205e+01	-1.474991e+03
6.000000e-08	-6.336190e-06	-2.250183e-08	-4.549237e+01	-1.473860e+03
7.000000e-08	-6.320003e-06	-2.247737e-08	-4.537615e+01	-1.472538e+03
8.000000e-08	-6.301764e-06	-2.246108e-08	-4.524520e+01	-1.471041e+03
9.000000e-08	-6.281481e-06	-2.253508e-08	-4.509957e+01	-1.469399e+03
1.000000e-07	-6.258801e-06	-2.249035e-08	-4.493673e+01	-1.467650e+03
1.100000e-07	-6.233457e-06	-2.237824e-08	-4.475477e+01	-1.465831e+03
1.200000e-07	-6.205712e-06	-2.234655e-08	-4.455556e+01	-1.463967e+03
1.300000e-07	-6.176050e-06	-2.229002e-08	-4.434260e+01	-1.462067e+03
1.400000e-07	-6.144849e-06	-2.213651e-08	-4.411858e+01	-1.460111e+03
1.500000e-07	-6.111964e-06	-2.226783e-08	-4.388248e+01	-1.458063e+03
1.600000e-07	-6.076985e-06	-2.232723e-08	-4.363134e+01	-1.455863e+03
1.700000e-07	-6.040114e-06	-2.207297e-08	-4.336661e+01	-1.453451e+03
1.800000e-07	-6.001346e-06	-2.219430e-08	-4.308827e+01	-1.450768e+03
1.900000e-07	-5.960147e-06	-2.210334e-08	-4.279247e+01	-1.447776e+03
2.000000e-07	-5.916685e-06	-2.193209e-08	-4.248042e+01	-1.444460e+03
2.100000e-07	-5.871200e-06	-2.198891e-08	-4.215385e+01	-1.440836e+03
2.200000e-07	-5.823445e-06	-2.186519e-08	-4.181098e+01	-1.436942e+03
2.300000e-07	-5.773224e-06	-2.182962e-08	-4.145041e+01	-1.432830e+03
2.400000e-07	-5.720408e-06	-2.179517e-08	-4.107120e+01	-1.428555e+03
2.500000e-07	-5.665424e-06	-2.171547e-08	-4.067643e+01	-1.424159e+03
2.600000e-07	-5.608309e-06	-2.168833e-08	-4.026636e+01	-1.419664e+03
2.700000e-07	-5.549015e-06	-2.157546e-08	-3.984064e+01	-1.415064e+03
2.800000e-07	-5.487745e-06	-2.151533e-08	-3.940073e+01	-1.410328e+03
2.900000e-07	-5.424553e-06	-2.142958e-08	-3.894702e+01	-1.405405e+03
3.000000e-07	-5.359285e-06	-2.136182e-08	-3.847842e+01	-1.400241e+03
3.100000e-07	-5.291889e-06	-2.129207e-08	-3.799453e+01	-1.394785e+03
3.200000e-07	-5.222542e-06	-2.116534e-08	-3.749664e+01	-1.389004e+03
3.300000e-07	-5.151488e-06	-2.109276e-08	-3.698648e+01	-1.382886e+03
3.400000e-07	-5.078617e-06	-2.097172e-08	-3.646329e+01	-1.376442e+03
3.500000e-07	-5.003525e-06	-2.088143e-08	-3.592415e+01	-1.369695e+03
3.600000e-07	-4.926329e-06	-2.078209e-08	-3.536989e+01	-1.362677e+03
3.700000e-07	-4.847061e-06	-2.066060e-08	-3.480077e+01	-1.355414e+03
3.800000e-07	-4.765841e-06	-2.055865e-08	-3.421763e+01	-1.347915e+03
3.900000e-07	-4.683103e-06	-2.041497e-08	-3.362359e+01	-1.340171e+03
4.000000e-07	-4.599027e-06	-2.029314e-08	-3.301994e+01	-1.332154e+03
4.100000e-07	-4.513418e-06	-2.017229e-08	-3.240529e+01	-1.323821e+03
4.200000e-07	-4.426413e-06	-2.004810e-08	-3.178061e+01	-1.315125e+03
4.300000e-07	-4.338050e-06	-1.991015e-08	-3.114619e+01	-1.306023e+03
4.400000e-07	-4.248043e-06	-1.975204e-08	-3.049996e+01	-1.296487e+03
4.500000e-07	-4.156432e-06	-1.960696e-08	-2.984222e+01	-1.286504e+03
4.600000e-07	-4.063270e-06	-1.944038e-08	-2.917333e+01	-1.276076e+03
4.700000e-07	-3.968733e-06	-1.927805e-08	-2.849458e+01	-1.265215e+03
4.800000e-07	-3.872945e-06	-1.910528e-08	-2.780684e+01	-1.253934e+03
4.900000e-07	-3.775658e-06	-1.892549e-08	-2.710835e+01	-1.242235e+03
5.000000e-07	-3.676836e-06	-1.873409e-08	-2.639883e+01	-1.230106e+03
5.100000e-07	-3.576643e-06	-1.853637e-08	-2.567946e+01	-1.217516e+03
5.200000e-07	-3.475162e-06	-1.833750e-08	-2.495085e+01	-1.204416e+03
5.300000e-07	-3.372505e-06	-1.812238e-08	-2.421380e+01	-1.190749e+03
5.400000e-07	-3.268753e-06	-1.790792e-08	-2.346888e+01	-1.176452e+03
5.500000e-07	-3.163707e-06	-1.767978e-08	-2.271468e+01	-1.161471e+03
5.600000e-07	-3.057275e-06	-1.744275e-08	-2.195052e+01	-1.145761e+03
5.700000e-07	-2.949664e-06	-1.718885e-08	-2.117790e+01	-1.129287e+03
5.800000e-07	-2.841007e-06	-1.692251e-08	-2.039777e+01	-1.112026e+03
5.900000e-07	-2.731424e-06	-1.663939e-08	-1.961099e+01	-1.093955e+03
6.000000e-07	-2.620891e-06	-1.634343e-08	-1.881738e+01	-1.075043e+03
6.100000e-07	-2.509426e-06	-1.604032e-08	-1.801710e+01	-1.055248e+03
6.200000e-07	-2.396998e-06	-1.572301e-08	-1.720989e+01	-1.034507e+03
6.300000e-07	-2.283473e-06	-1.539267e-08	-1.639481e+01	-1.012742e+03
6.400000e-07	-2.168906e-06	-1.504135e-08	-1.557224e+01	-9.898593e+02
6.500000e-07	-2.053397e-06	-1.467288e-08	-1.474291e+01	-9.657556e+02
6.600000e-07	-1.937069e-06	-1.428250e-08	-1.390770e+01	-9.403267e+02
6.700000e-07	-1.820092e-06	-1.387307e-08	-1.306784e+01	-9.134705e+02
6.800000e-07	-1.702539e-06	-1.344490e-08	-1.222383e+01	-8.850890e+02
6.900000e-07	-1.584449e-06	-1.298987e-08	-1.137597e+01	-8.550865e+02
7.000000e-07	-1.465842e-06	-1.250386e-08	-1.052441e+01	-8.233670e+02
7.100000e-07	-1.346804e-06	-1.198651e-08	-9.669738e+00	-7.898318e+02
7.200000e-07	-1.227383e-06	-1.144398e-08	-8.812323e+00	-7.543807e+02
7.300000e-07	-1.107545e-06	-1.087162e-08	-7.951916e+00	-7.169204e+02
7.400000e-07	-9.873623e-07	-1.027015e-08	-7.089032e+00	-6.773775e+02
7.500000e-07	-8.668404e-07	-9.638371e-09	-6.223712e+00	-6.357186e+02
7.600000e-07	-7.459677e-07	-8.974821e-09	-5.355874e+00	-5.919706e+02
7.700000e-07	-6.247926e-07	-8.277259e-09	-4.485865e+00	-5.462383e+02
7.800000e-07	-5.034448e-07	-7.553647e-09	-3.614616e+00	-4.987126e+02
7.900000e-07	-3.819411e-07	-6.809699e-09	-2.742248e+00	-4.496659e+02
8.000000e-07	-2.602424e-07	-6.043828e-09	-1.868480e+00	-3.994313e+02
8.100000e-07	-1.383683e-07	-5.263844e-09	-9.934519e-01	-3.483689e+02
8.200000e-07	-1.641489e-08	-4.478078e-09	-1.178551e-01	-2.968209e+02
8.300000e-07	1.055292e-07	-3.692895e-09	7.576750e-01	-2.450657e+02
8.400000e-07	2.274646e-07	-2.904413e-09	1.633143e+00	-1.932774e+02
8.500000e-07	3.493176e-07	-2.115828e-09	2.508019e+00	-1.415013e+02
8.600000e-07	4.710318e-07	-1.323665e-09	3.381898e+00	-8.965004e+01
8.700000e-07	5.926392e-07	-5.259808e-10	4.255012e+00	-3.752324e+01
8.800000e-07	7.140634e-07	2.789344e-10	5.126809e+00	1.515043e+01
8.900000e-07	8.351718e-07	1.094157e-09	5.996339e+00	6.865608e+01
9.000000e-07	9.559845e-07	1.921085e-09	6.863746e+00	1.232293e+02
9.100000e-07	1.076501e-06	2.768398e-09	7.729027e+00	1.789974e+02
9.200000e-07	1.196663e-06	3.634647e-09	8.591762e+00	2.359364e+02
9.300000e-07	1.316412e-06	4.514320e-09	9.451529e+00	2.938494e+02
9.400000e-07	1.435700e-06	5.401883e-09	1.030799e+01	3.523726e+02
9.500000e-07	1.554472e-06	6.294173e-09	1.116074e+01	4.110046e+02
9.600000e-07	1.672684e-06	7.181627e-09	1.200948e+01	4.691563e+02
9.700000e-07	1.790268e-06	8.052448e-09	1.285371e+01	5.262109e+02
9.800000e-07	1.907174e-06	8.895520e-09	1.369306e+01	5.815848e+02
9.900000e-07	2.023371e-06	9.701442e-09	1.452733e+01	6.347798e+02
1.000000e-06	2.138722e-06	1.047062e-08	1.535553e+01	6.854203e+02
1.010000e-06	2.253005e-06	1.119439e-08	1.617605e+01	7.332702e+02
1.020000e-06	2.366173e-06	1.187458e-08	1.698857e+01	7.782308e+02
1.030000e-06	2.478455e-06	1.250953e-08	1.779473e+01	8.203231e+02
1.040000e-06	2.589839e-06	1.310349e-08	1.859444e+01	8.596587e+02
1.050000e-06	2.700257e-06	1.366080e-08	1.938722e+01	8.964069e+02
1.060000e-06	2.809722e-06	1.418381e-08	2.017315e+01	9.307638e+02
1.070000e-06	2.918343e-06	1.467467e-08	2.095302e+01	9.629275e+02
1.080000e-06	3.026174e-06	1.513347e-08	2.172723e+01	9.930818e+02
1.090000e-06	3.132807e-06	1.556330e-08	2.249282e+01	1.021389e+03
1.100000e-06	3.238053e-06	1.596489e-08	2.324847e+01	1.047990e+03
1.110000e-06	3.342166e-06	1.634274e-08	2.399597e+01	1.073008e+03
1.120000e-06	3.445158e-06	1.669767e-08	2.473543e+01	1.096553e+03
1.130000e-06	3.546898e-06	1.703524e-08	2.546590e+01	1.118728e+03
1.140000e-06	3.647467e-06	1.735451e-08	2.618797e+01	1.139634e+03
1.150000e-06	3.746801e-06	1.765849e-08	2.690116e+01	1.159366e+03
1.160000e-06	3.844615e-06	1.794482e-08	2.760344e+01	1.178014e+03
1.170000e-06	3.940905e-06	1.821250e-08	2.829478e+01	1.195660e+03
1.180000e-06	4.035836e-06	1.846478e-08	2.897637e+01	1.212375e+03
1.190000e-06	4.129452e-06	1.870418e-08	2.964850e+01	1.228222e+03
1.200000e-06	4.221811e-06	1.892925e-08	3.031162e+01	1.243254e+03
1.210000e-06	4.312688e-06	1.914419e-08	3.096410e+01	1.257514e+03
1.220000e-06	4.401839e-06	1.934805e-08	3.160418e+01	1.271044e+03
1.230000e-06	4.489328e-06	1.954092e-08	3.223233e+01	1.283884e+03
1.240000e-06	4.575184e-06	1.972494e-08	3.284876e+01	1.296072e+03
1.250000e-06	4.659567e-06	1.989999e-08	3.345461e+01	1.307649e+03
1.260000e-06	4.742430e-06	2.006881e-08	3.404954e+01	1.318653e+03
1.270000e-06	4.823562e-06	2.022795e-08	3.463205e+01	1.329119e+03
1.280000e-06	4.902836e-06	2.038025e-08	3.520122e+01	1.339077e+03
1.290000e-06	4.980218e-06	2.052672e-08	3.575681e+01	1.348551e+03
1.300000e-06	5.055729e-06	2.066703e-08	3.629896e+01	1.357554e+03
1.310000e-06	5.129157e-06	2.079976e-08	3.682615e+01	1.366097e+03
1.320000e-06	5.200621e-06	2.092393e-08	3.733925e+01	1.374183e+03
1.330000e-06	5.270280e-06	2.103976e-08	3.783939e+01	1.381818e+03
1.340000e-06	5.338169e-06	2.114678e-08	3.832681e+01	1.389010e+03
1.350000e-06	5.404090e-06	2.124608e-08	3.880011e+01	1.395773e+03
1.360000e-06	5.467932e-06	2.134128e-08	3.925848e+01	1.402130e+03
1.370000e-06	5.529931e-06	2.143457e-08	3.970361e+01	1.408113e+03
1.380000e-06	5.590163e-06	2.152356e-08	4.013607e+01	1.413755e+03
1.390000e-06	5.648341e-06	2.160716e-08	4.055377e+01	1.419097e+03
1.400000e-06	5.704386e-06	2.168592e-08	4.095616e+01	1.424173e+03
1.410000e-06	5.758481e-06	2.175985e-08	4.134455e+01	1.429013e+03
1.420000e-06	5.810267e-06	2.182921e-08	4.171637e+01	1.433637e+03
1.430000e-06	5.859569e-06	2.189317e-08	4.207034e+01	1.438054e+03
1.440000e-06	5.906633e-06	2.195482e-08	4.240825e+01	1.442261e+03
1.450000e-06	5.951718e-06	2.201479e-08	4.273195e+01	1.446248e+03
1.460000e-06	5.994765e-06	2.207435e-08	4.304101e+01	1.450002e+03
1.470000e-06	6.035628e-06	2.213224e-08	4.333440e+01	1.453506e+03
1.480000e-06	6.074367e-06	2.218299e-08	4.361254e+01	1.456750e+03
1.490000e-06	6.111138e-06	2.222727e-08	4.387654e+01	1.459731e+03
1.500000e-06	6.145703e-06	2.226661e-08	4.412472e+01	1.462450e+03
1.510000e-06	6.177924e-06	2.230232e-08	4.435606e+01	1.464919e+03
1.520000e-06	6.208039e-06	2.233454e-08	4.457227e+01	1.467152e+03
1.530000e-06	6.236136e-06	2.236508e-08	4.477400e+01	1.469165e+03
1.540000e-06	6.261942e-06	2.239320e-08	4.495928e+01	1.470972e+03
1.550000e-06	6.285270e-06	2.241825e-08	4.512677e+01	1.472581e+03
1.560000e-06	6.306423e-06	2.244009e-08	4.527865e+01	1.473996e+03
1.570000e-06	6.325442e-06	2.245838e-08	4.541520e+01	1.475216e+03
1.580000e-06	6.342121e-06	2.247396e-08	4.553495e+01	1.476236e+03
1.590000e-06	6.356410e-06	2.248654e-08	4.563754e+01	1.477053e+03
1.600000e-06	6.368275e-06	2.249633e-08	4.572273e+01	1.477670e+03
1.610000e-06	6.377645e-06	2.250357e-08	4.579001e+01	1.478095e+03
1.620000e-06	6.384619e-06	2.250910e-08	4.584008e+01	1.478342e+03
1.630000e-06	6.389433e-06	2.251315e-08	4.587464e+01	1.478431e+03
1.640000e-06	6.391902e-06	2.251440e-08	4.589237e+01	1.478382e+03
1.650000e-06	6.391934e-06	2.251716e-08	4.589260e+01	1.478212e+03
1.660000e-06	6.389825e-06	2.250784e-08	4.587746e+01	1.477929e+03
1.670000e-06	6.385750e-06	2.250310e-08	4.584820e+01	1.477530e+03
1.680000e-06	6.379525e-06	2.249766e-08	4.580350e+01	1.477004e+03
1.690000e-06	6.371102e-06	2.248588e-08	4.574303e+01	1.476329e+03
1.700000e-06	6.360695e-06	2.247298e-08	4.566831e+01	1.475483e+03
1.710000e-06	6.348100e-06	2.245974e-08	4.557788e+01	1.474450e+03
1.720000e-06	6.333260e-06	2.246184e-08	4.547133e+01	1.473222e+03
1.730000e-06	6.316448e-06	2.243246e-08	4.535063e+01	1.471810e+03
1.740000e-06	6.297707e-06	2.229507e-08	4.521607e+01	1.470236e+03
1.750000e-06	6.276207e-06	2.230585e-08	4.506170e+01	1.468535e+03
1.760000e-06	6.251410e-06	2.234812e-08	4.488367e+01	1.466747e+03
1.770000e-06	6.224182e-06	2.228821e-08	4.468818e+01	1.464904e+03
1.780000e-06	6.195057e-06	2.240118e-08	4.447907e+01	1.463022e+03
1.790000e-06	6.164221e-06	2.238578e-08	4.425767e+01	1.461098e+03
1.800000e-06	6.132042e-06	2.209279e-08	4.402664e+01	1.459102e+03
1.810000e-06	6.097956e-06	2.222592e-08	4.378191e+01	1.456986e+03
1.820000e-06	6.061854e-06	2.219547e-08	4.352270e+01	1.454687e+03
1.830000e-06	6.023751e-06	2.207881e-08	4.324913e+01	1.452146e+03
1.840000e-06	5.983190e-06	2.227247e-08	4.295791e+01	1.449312e+03
1.850000e-06	5.940525e-06	2.201836e-08	4.265158e+01	1.446158e+03
1.860000e-06	5.895912e-06	2.201328e-08	4.233128e+01	1.442685e+03
1.870000e-06	5.849170e-06	2.203205e-08	4.199568e+01	1.438920e+03
1.880000e-06	5.800338e-06	2.182028e-08	4.164508e+01	1.434909e+03
1.890000e-06	5.749071e-06	2.188621e-08	4.127699e+01	1.430709e+03
1.900000e-06	5.695183e-06	2.169329e-08	4.089009e+01	1.426370e+03
1.910000e-06	5.639039e-06	2.167353e-08	4.048698e+01	1.421924e+03
1.920000e-06	5.580826e-06	2.170404e-08	4.006903e+01	1.417379e+03
1.930000e-06	5.520801e-06	2.148621e-08	3.963806e+01	1.412716e+03
1.940000e-06	5.458676e-06	2.152344e-08	3.919202e+01	1.407893e+03
1.950000e-06	5.394303e-06	2.135553e-08	3.872984e+01	1.402856e+03
1.960000e-06	5.327968e-06	2.132888e-08	3.825357e+01	1.397552e+03
1.970000e-06	5.259749e-06	2.123960e-08	3.776378e+01	1.391936e+03
1.980000e-06	5.189471e-06	2.108735e-08	3.725919e+01	1.385987e+03
1.990000e-06	5.117057e-06	2.110896e-08	3.673928e+01	1.379704e+03
2.000000e-06	5.042887e-06	2.092822e-08	3.620676e+01	1.373104e+03
2.010000e-06	4.966770e-06	2.086268e-08	3.566025e+01	1.366218e+03
2.020000e-06	4.888542e-06	2.071440e-08	3.509859e+01	1.359075e+03
2.030000e-06	4.808441e-06	2.062270e-08	3.452348e+01	1.351694e+03
2.040000e-06	4.726696e-06	2.055686e-08	3.393658e+01	1.344075e+03
2.050000e-06	4.643546e-06	2.038434e-08	3.333958e+01	1.336199e+03
2.060000e-06	4.558868e-06	2.029250e-08	3.273161e+01	1.328030e+03
2.070000e-06	4.472386e-06	2.012769e-08	3.211069e+01	1.319521e+03
2.080000e-06	4.384192e-06	2.001504e-08	3.147748e+01	1.310627e+03
2.090000e-06	4.294446e-06	1.984899e-08	3.083312e+01	1.301311e+03
2.100000e-06	4.203314e-06	1.970196e-08	3.017882e+01	1.291552e+03
2.110000e-06	4.110843e-06	1.956684e-08	2.951490e+01	1.281345e+03
2.120000e-06	4.016831e-06	1.939654e-08	2.883991e+01	1.270699e+03
2.130000e-06	3.921311e-06	1.924371e-08	2.815410e+01	1.259627e+03
2.140000e-06	3.824419e-06	1.905926e-08	2.745844e+01	1.248137e+03
2.150000e-06	3.726143e-06	1.889897e-08	2.675284e+01	1.236226e+03
2.160000e-06	3.626696e-06	1.869953e-08	2.603883e+01	1.223871e+03
2.170000e-06	3.525940e-06	1.850836e-08	2.531543e+01	1.211033e+03
2.180000e-06	3.423624e-06	1.829415e-08	2.458083e+01	1.197657e+03
2.190000e-06	3.319939e-06	1.808114e-08	2.383639e+01	1.183683e+03
2.200000e-06	3.215067e-06	1.785785e-08	2.308343e+01	1.169050e+03
2.210000e-06	3.109078e-06	1.762539e-08	2.232246e+01	1.153709e+03
2.220000e-06	3.001993e-06	1.738760e-08	2.155361e+01	1.137621e+03
2.230000e-06	2.893964e-06	1.713562e-08	2.077798e+01	1.120757e+03
2.240000e-06	2.784967e-06	1.688063e-08	1.999542e+01	1.103094e+03
2.250000e-06	2.674924e-06	1.660043e-08	1.920533e+01	1.084606e+03
2.260000e-06	2.563879e-06	1.630693e-08	1.840805e+01	1.065259e+03
2.270000e-06	2.451782e-06	1.598846e-08	1.760323e+01	1.045000e+03
2.280000e-06	2.338669e-06	1.566522e-08	1.679110e+01	1.023758e+03
2.290000e-06	2.224635e-06	1.532407e-08	1.597236e+01	1.001447e+03
2.300000e-06	2.109749e-06	1.496966e-08	1.514750e+01	9.779665e+02
2.310000e-06	1.994110e-06	1.459381e-08	1.431724e+01	9.532132e+02
2.320000e-06	1.877716e-06	1.419747e-08	1.348156e+01	9.270832e+02
2.330000e-06	1.760535e-06	1.377930e-08	1.264023e+01	8.994764e+02
2.340000e-06	1.642598e-06	1.333495e-08	1.179347e+01	8.702963e+02
2.350000e-06	1.523951e-06	1.286606e-08	1.094161e+01	8.394475e+02
2.360000e-06	1.404724e-06	1.236921e-08	1.008559e+01	8.068327e+02
2.370000e-06	1.285050e-06	1.184417e-08	9.226360e+00	7.723519e+02
2.380000e-06	1.164964e-06	1.128102e-08	8.364168e+00	7.359070e+02
2.390000e-06	1.044521e-06	1.069016e-08	7.499414e+00	6.974125e+02
2.400000e-06	9.237557e-07	1.007044e-08	6.632351e+00	6.568125e+02
2.410000e-06	8.026661e-07	9.421985e-09	5.762956e+00	6.141012e+02
2.420000e-06	6.813154e-07	8.741383e-09	4.891686e+00	5.693426e+02
2.430000e-06	5.597885e-07	8.030130e-09	4.019151e+00	5.226844e+02
2.440000e-06	4.381036e-07	7.292631e-09	3.145482e+00	4.743596e+02
2.450000e-06	3.163083e-07	6.530814e-09	2.271020e+00	4.246747e+02
2.460000e-06	1.943926e-07	5.754001e-09	1.395694e+00	3.739812e+02
2.470000e-06	7.242753e-08	4.966636e-09	5.200128e-01	3.226362e+02
2.480000e-06	-4.951293e-08	4.175513e-09	-3.554913e-01	2.709555e+02
2.490000e-06	-1.715282e-07	3.383669e-09	-1.231533e+00	2.191696e+02
2.500000e-06	-2.935437e-07	2.593768e-09	-2.107575e+00	1.673903e+02
2.510000e-06	-4.154461e-07	1.807144e-09	-2.982807e+00	1.155954e+02
2.520000e-06	-5.372766e-07	1.018442e-09	-3.857521e+00	6.363699e+01
2.530000e-06	-6.589600e-07	2.222024e-10	-4.731180e+00	1.127300e+01
2.540000e-06	-7.804354e-07	-5.887098e-10	-5.603344e+00	-4.178264e+01
2.550000e-06	-9.016555e-07	-1.418070e-09	-6.473676e+00	-9.579813e+01
2.560000e-06	-1.022581e-06	-2.264372e-09	-7.341892e+00	-1.509616e+02
2.570000e-06	-1.143162e-06	-3.127473e-09	-8.207633e+00	-2.073287e+02
2.580000e-06	-1.263349e-06	-4.005438e-09	-9.070550e+00	-2.647902e+02
2.590000e-06	-1.383184e-06	-4.895778e-09	-9.930938e+00	-3.230633e+02
2.600000e-06	-1.502483e-06	-5.792805e-09	-1.078748e+01	-3.817104e+02
2.610000e-06	-1.621066e-06	-6.686514e-09	-1.163887e+01	-4.401791e+02
2.620000e-06	-1.738855e-06	-7.567312e-09	-1.248458e+01	-4.978587e+02
2.630000e-06	-1.855858e-06	-8.428459e-09	-1.332463e+01	-5.541416e+02
2.640000e-06	-1.972095e-06	-9.261684e-09	-1.415918e+01	-6.084813e+02
2.650000e-06	-2.087589e-06	-1.005852e-08	-1.498840e+01	-6.604375e+02
2.660000e-06	-2.202201e-06	-1.081387e-08	-1.581129e+01	-7.097033e+02
2.670000e-06	-2.315759e-06	-1.152571e-08	-1.662661e+01	-7.561128e+02
2.680000e-06	-2.428261e-06	-1.219267e-08	-1.743435e+01	-7.996303e+02
2.690000e-06	-2.539745e-06	-1.281740e-08	-1.823478e+01	-8.403259e+02
2.700000e-06	-2.650263e-06	-1.340314e-08	-1.902827e+01	-8.783443e+02
2.710000e-06	-2.759738e-06	-1.395199e-08	-1.981428e+01	-9.138717e+02
2.720000e-06	-2.868307e-06	-1.446355e-08	-2.059378e+01	-9.471078e+02
2.730000e-06	-2.976033e-06	-1.493850e-08	-2.136723e+01	-9.782451e+02
2.740000e-06	-3.082837e-06	-1.538379e-08	-2.213405e+01	-1.007457e+03
2.750000e-06	-3.188646e-06	-1.580152e-08	-2.289374e+01	-1.034895e+03
2.760000e-06	-3.293347e-06	-1.619677e-08	-2.364546e+01	-1.060690e+03
2.770000e-06	-3.396814e-06	-1.657230e-08	-2.438833e+01	-1.084958e+03
2.780000e-06	-3.498902e-06	-1.692465e-08	-2.512130e+01	-1.107805e+03
2.790000e-06	-3.599727e-06	-1.725239e-08	-2.584520e+01	-1.129334e+03
2.800000e-06	-3.699332e-06	-1.756004e-08	-2.656034e+01	-1.149641e+03
2.810000e-06	-3.797629e-06	-1.785179e-08	-2.726609e+01	-1.168821e+03
2.820000e-06	-3.894731e-06	-1.812954e-08	-2.796326e+01	-1.186958e+03
2.830000e-06	-3.990605e-06	-1.839278e-08	-2.865161e+01	-1.204130e+03
2.840000e-06	-4.084941e-06	-1.864217e-08	-2.932893e+01	-1.220404e+03
2.850000e-06	-4.177798e-06	-1.887976e-08	-2.999561e+01	-1.235837e+03
2.860000e-06	-4.269232e-06	-1.910639e-08	-3.065209e+01	-1.250477e+03
2.870000e-06	-4.359041e-06	-1.932262e-08	-3.129690e+01	-1.264368e+03
2.880000e-06	-4.447331e-06	-1.952855e-08	-3.193080e+01	-1.277548e+03
2.890000e-06	-4.533925e-06	-1.972129e-08	-3.255253e+01	-1.290057e+03
2.900000e-06	-4.618770e-06	-1.990118e-08	-3.316169e+01	-1.301934e+03
2.910000e-06	-4.702083e-06	-2.007252e-08	-3.375986e+01	-1.313220e+03
2.920000e-06	-4.783820e-06	-2.023576e-08	-3.434672e+01	-1.323951e+03
2.930000e-06	-4.863932e-06	-2.039057e-08	-3.492190e+01	-1.334160e+03
2.940000e-06	-4.942092e-06	-2.053826e-08	-3.548307e+01	-1.343873e+03
