# Temperatura_=_32.43
# Concentracion g/m^3_=_28200.0
# C_Vs_to_Am_M_A/Vsm_=_65563218390.804596
# pendiente_HvsI_1/m_=_3716.3
# ordenada_HvsI_A/m_=_1297.0
# frecuencia_Hz_=_302130.3315667283

Tiempo_(s)	Campo_(V.s)	Magnetizacion_(V.s)	Campo_(kA/m)	Magnetizacion_(A/m)
0.000000e+00	-6.397071e-06	-1.905606e-08	-4.585661e+01	-1.247028e+03
1.000000e-08	-6.394126e-06	-1.905926e-08	-4.583550e+01	-1.246685e+03
2.000000e-08	-6.389101e-06	-1.905002e-08	-4.579948e+01	-1.246227e+03
3.000000e-08	-6.382214e-06	-1.904092e-08	-4.575011e+01	-1.245647e+03
4.000000e-08	-6.373221e-06	-1.903019e-08	-4.568565e+01	-1.244937e+03
5.000000e-08	-6.361767e-06	-1.901082e-08	-4.560354e+01	-1.244084e+03
6.000000e-08	-6.347923e-06	-1.899231e-08	-4.550430e+01	-1.243082e+03
7.000000e-08	-6.331757e-06	-1.896733e-08	-4.538841e+01	-1.241933e+03
8.000000e-08	-6.313464e-06	-1.893925e-08	-4.525728e+01	-1.240650e+03
9.000000e-08	-6.293196e-06	-1.901227e-08	-4.511200e+01	-1.239254e+03
1.000000e-07	-6.270640e-06	-1.899290e-08	-4.495031e+01	-1.237774e+03
1.100000e-07	-6.245356e-06	-1.889185e-08	-4.476906e+01	-1.236242e+03
1.200000e-07	-6.217566e-06	-1.886240e-08	-4.456985e+01	-1.234681e+03
1.300000e-07	-6.187922e-06	-1.884418e-08	-4.435736e+01	-1.233104e+03
1.400000e-07	-6.156657e-06	-1.869777e-08	-4.413323e+01	-1.231505e+03
1.500000e-07	-6.123700e-06	-1.874012e-08	-4.389698e+01	-1.229859e+03
1.600000e-07	-6.088757e-06	-1.888153e-08	-4.364650e+01	-1.228125e+03
1.700000e-07	-6.051891e-06	-1.862141e-08	-4.338223e+01	-1.226250e+03
1.800000e-07	-6.013073e-06	-1.870067e-08	-4.310397e+01	-1.224179e+03
1.900000e-07	-5.971775e-06	-1.870839e-08	-4.280793e+01	-1.221864e+03
2.000000e-07	-5.928182e-06	-1.849831e-08	-4.249544e+01	-1.219272e+03
2.100000e-07	-5.882563e-06	-1.857980e-08	-4.216843e+01	-1.216392e+03
2.200000e-07	-5.834744e-06	-1.847934e-08	-4.182564e+01	-1.213232e+03
2.300000e-07	-5.784515e-06	-1.841455e-08	-4.146558e+01	-1.209819e+03
2.400000e-07	-5.731705e-06	-1.840525e-08	-4.108702e+01	-1.206190e+03
2.500000e-07	-5.676649e-06	-1.830692e-08	-4.069236e+01	-1.202384e+03
2.600000e-07	-5.619456e-06	-1.828126e-08	-4.028237e+01	-1.198432e+03
2.700000e-07	-5.560104e-06	-1.820840e-08	-3.985692e+01	-1.194351e+03
2.800000e-07	-5.498838e-06	-1.814365e-08	-3.941774e+01	-1.190140e+03
2.900000e-07	-5.435663e-06	-1.806454e-08	-3.896488e+01	-1.185784e+03
3.000000e-07	-5.370379e-06	-1.798656e-08	-3.849690e+01	-1.181251e+03
3.100000e-07	-5.302957e-06	-1.794134e-08	-3.801359e+01	-1.176510e+03
3.200000e-07	-5.233513e-06	-1.783826e-08	-3.751579e+01	-1.171527e+03
3.300000e-07	-5.162202e-06	-1.778868e-08	-3.700461e+01	-1.166279e+03
3.400000e-07	-5.089124e-06	-1.767785e-08	-3.648076e+01	-1.160756e+03
3.500000e-07	-5.014021e-06	-1.758031e-08	-3.594239e+01	-1.154954e+03
3.600000e-07	-4.936762e-06	-1.751283e-08	-3.538857e+01	-1.148883e+03
3.700000e-07	-4.857453e-06	-1.739710e-08	-3.482005e+01	-1.142552e+03
3.800000e-07	-4.776243e-06	-1.731466e-08	-3.423791e+01	-1.135968e+03
3.900000e-07	-4.693405e-06	-1.719749e-08	-3.364409e+01	-1.129132e+03
4.000000e-07	-4.609156e-06	-1.708554e-08	-3.304016e+01	-1.122035e+03
4.100000e-07	-4.523499e-06	-1.697077e-08	-3.242614e+01	-1.114660e+03
4.200000e-07	-4.436416e-06	-1.685901e-08	-3.180190e+01	-1.106984e+03
4.300000e-07	-4.347940e-06	-1.674318e-08	-3.116767e+01	-1.098982e+03
4.400000e-07	-4.257872e-06	-1.660381e-08	-3.052203e+01	-1.090632e+03
4.500000e-07	-4.166130e-06	-1.647983e-08	-2.986439e+01	-1.081919e+03
4.600000e-07	-4.072836e-06	-1.633148e-08	-2.919562e+01	-1.072833e+03
4.700000e-07	-3.978179e-06	-1.618701e-08	-2.851708e+01	-1.063369e+03
4.800000e-07	-3.882186e-06	-1.603575e-08	-2.782897e+01	-1.053524e+03
4.900000e-07	-3.784786e-06	-1.588280e-08	-2.713077e+01	-1.043290e+03
5.000000e-07	-3.685894e-06	-1.571854e-08	-2.642188e+01	-1.032655e+03
5.100000e-07	-3.585610e-06	-1.554568e-08	-2.570300e+01	-1.021597e+03
5.200000e-07	-3.484089e-06	-1.537286e-08	-2.497526e+01	-1.010085e+03
5.300000e-07	-3.381371e-06	-1.518397e-08	-2.423894e+01	-9.980807e+02
5.400000e-07	-3.277444e-06	-1.499260e-08	-2.349395e+01	-9.855444e+02
5.500000e-07	-3.172279e-06	-1.478755e-08	-2.274009e+01	-9.724352e+02
5.600000e-07	-3.065840e-06	-1.457961e-08	-2.197709e+01	-9.587157e+02
5.700000e-07	-2.958108e-06	-1.435733e-08	-2.120483e+01	-9.443528e+02
5.800000e-07	-2.849323e-06	-1.412750e-08	-2.042502e+01	-9.293165e+02
5.900000e-07	-2.739608e-06	-1.388551e-08	-1.963855e+01	-9.135776e+02
6.000000e-07	-2.628980e-06	-1.363143e-08	-1.884552e+01	-8.971038e+02
6.100000e-07	-2.517332e-06	-1.336623e-08	-1.804519e+01	-8.798566e+02
6.200000e-07	-2.404638e-06	-1.309012e-08	-1.723735e+01	-8.617887e+02
6.300000e-07	-2.290988e-06	-1.280320e-08	-1.642267e+01	-8.428442e+02
6.400000e-07	-2.176367e-06	-1.249684e-08	-1.560102e+01	-8.229590e+02
6.500000e-07	-2.060771e-06	-1.217683e-08	-1.477238e+01	-8.020635e+02
6.600000e-07	-1.944324e-06	-1.183768e-08	-1.393765e+01	-7.800848e+02
6.700000e-07	-1.827210e-06	-1.148320e-08	-1.309813e+01	-7.569485e+02
6.800000e-07	-1.709529e-06	-1.111238e-08	-1.225455e+01	-7.325796e+02
6.900000e-07	-1.591331e-06	-1.072189e-08	-1.140726e+01	-7.069023e+02
7.000000e-07	-1.472632e-06	-1.030923e-08	-1.055638e+01	-6.798393e+02
7.100000e-07	-1.353398e-06	-9.873076e-09	-9.701666e+00	-6.513140e+02
7.200000e-07	-1.233670e-06	-9.414424e-09	-8.843410e+00	-6.212533e+02
7.300000e-07	-1.113469e-06	-8.930563e-09	-7.981763e+00	-5.895962e+02
7.400000e-07	-9.928881e-07	-8.422686e-09	-7.117396e+00	-5.563042e+02
7.500000e-07	-8.720013e-07	-7.890115e-09	-6.250833e+00	-5.213749e+02
7.600000e-07	-7.508513e-07	-7.335066e-09	-5.382385e+00	-4.848549e+02
7.700000e-07	-6.294725e-07	-6.755807e-09	-4.512296e+00	-4.468496e+02
7.800000e-07	-5.078709e-07	-6.157589e-09	-3.640610e+00	-4.075251e+02
7.900000e-07	-3.861284e-07	-5.544240e-09	-2.767914e+00	-3.671021e+02
8.000000e-07	-2.642770e-07	-4.916281e-09	-1.894437e+00	-3.258381e+02
8.100000e-07	-1.423162e-07	-4.280176e-09	-1.020176e+00	-2.840017e+02
8.200000e-07	-2.025667e-08	-3.640516e-09	-1.452074e-01	-2.418406e+02
8.300000e-07	1.018874e-07	-3.000025e-09	7.303669e-01	-1.995497e+02
8.400000e-07	2.240097e-07	-2.357324e-09	1.605786e+00	-1.572440e+02
8.500000e-07	3.460454e-07	-1.715178e-09	2.480584e+00	-1.149430e+02
8.600000e-07	4.679880e-07	-1.069345e-09	3.354714e+00	-7.257044e+01
8.700000e-07	5.897853e-07	-4.195319e-10	4.227803e+00	-2.996955e+01
8.800000e-07	7.114079e-07	2.372117e-10	5.099640e+00	1.306548e+01
8.900000e-07	8.328054e-07	9.029296e-10	5.969863e+00	5.674825e+01
9.000000e-07	9.539319e-07	1.577395e-09	6.838143e+00	1.012547e+02
9.100000e-07	1.074748e-06	2.264814e-09	7.704197e+00	1.466810e+02
9.200000e-07	1.195185e-06	2.967151e-09	8.567535e+00	1.930124e+02
9.300000e-07	1.315122e-06	3.684250e-09	9.427290e+00	2.401080e+02
9.400000e-07	1.434499e-06	4.407936e-09	1.028303e+01	2.877030e+02
9.500000e-07	1.553360e-06	5.134706e-09	1.113507e+01	3.354301e+02
9.600000e-07	1.671718e-06	5.856367e-09	1.198350e+01	3.828534e+02
9.700000e-07	1.789475e-06	6.564820e-09	1.282763e+01	4.295116e+02
9.800000e-07	1.906590e-06	7.253496e-09	1.366716e+01	4.749615e+02
9.900000e-07	2.023011e-06	7.919610e-09	1.450170e+01	5.188167e+02
1.000000e-06	2.138569e-06	8.561440e-09	1.533007e+01	5.607757e+02
1.010000e-06	2.253148e-06	9.167950e-09	1.615141e+01	6.006366e+02
1.020000e-06	2.366658e-06	9.738543e-09	1.696510e+01	6.382980e+02
1.030000e-06	2.479083e-06	1.027272e-08	1.777100e+01	6.737482e+02
1.040000e-06	2.590510e-06	1.077717e-08	1.856975e+01	7.070467e+02
1.050000e-06	2.701099e-06	1.125055e-08	1.936250e+01	7.383010e+02
1.060000e-06	2.810849e-06	1.169715e-08	2.014922e+01	7.676447e+02
1.070000e-06	2.919708e-06	1.211839e-08	2.092957e+01	7.952191e+02
1.080000e-06	3.027628e-06	1.251327e-08	2.170318e+01	8.211600e+02
1.090000e-06	3.134485e-06	1.288470e-08	2.246917e+01	8.455906e+02
1.100000e-06	3.240123e-06	1.323438e-08	2.322642e+01	8.686199e+02
1.110000e-06	3.344367e-06	1.356508e-08	2.397368e+01	8.903441e+02
1.120000e-06	3.447334e-06	1.387451e-08	2.471178e+01	9.108501e+02
1.130000e-06	3.549162e-06	1.416638e-08	2.544173e+01	9.302182e+02
1.140000e-06	3.649858e-06	1.444315e-08	2.616356e+01	9.485248e+02
1.150000e-06	3.749403e-06	1.470618e-08	2.687713e+01	9.658427e+02
1.160000e-06	3.847573e-06	1.495327e-08	2.758085e+01	9.822408e+02
1.170000e-06	3.944148e-06	1.518983e-08	2.827314e+01	9.977827e+02
1.180000e-06	4.039267e-06	1.541509e-08	2.895499e+01	1.012525e+03
1.190000e-06	4.133067e-06	1.562739e-08	2.962738e+01	1.026519e+03
1.200000e-06	4.225512e-06	1.582570e-08	3.029006e+01	1.039807e+03
1.210000e-06	4.316567e-06	1.601367e-08	3.094278e+01	1.052428e+03
1.220000e-06	4.406026e-06	1.619359e-08	3.158405e+01	1.064416e+03
1.230000e-06	4.493773e-06	1.636628e-08	3.221306e+01	1.075802e+03
1.240000e-06	4.579934e-06	1.653176e-08	3.283069e+01	1.086615e+03
1.250000e-06	4.664556e-06	1.668925e-08	3.343729e+01	1.096885e+03
1.260000e-06	4.747583e-06	1.683889e-08	3.403246e+01	1.106637e+03
1.270000e-06	4.828842e-06	1.698077e-08	3.461496e+01	1.115898e+03
1.280000e-06	4.908225e-06	1.711568e-08	3.518401e+01	1.124688e+03
1.290000e-06	4.985810e-06	1.724433e-08	3.574017e+01	1.133026e+03
1.300000e-06	5.061567e-06	1.736594e-08	3.628322e+01	1.140926e+03
1.310000e-06	5.135229e-06	1.747910e-08	3.681126e+01	1.148402e+03
1.320000e-06	5.206903e-06	1.758583e-08	3.732504e+01	1.155468e+03
1.330000e-06	5.276750e-06	1.768664e-08	3.782573e+01	1.162137e+03
1.340000e-06	5.344803e-06	1.778167e-08	3.831356e+01	1.168428e+03
1.350000e-06	5.410888e-06	1.787155e-08	3.878729e+01	1.174362e+03
1.360000e-06	5.474897e-06	1.795700e-08	3.924613e+01	1.179967e+03
1.370000e-06	5.537026e-06	1.803961e-08	3.969149e+01	1.185270e+03
1.380000e-06	5.597357e-06	1.811865e-08	4.012396e+01	1.190303e+03
1.390000e-06	5.655767e-06	1.819229e-08	4.054266e+01	1.195091e+03
1.400000e-06	5.712058e-06	1.826064e-08	4.094618e+01	1.199660e+03
1.410000e-06	5.766261e-06	1.832516e-08	4.133473e+01	1.204024e+03
1.420000e-06	5.818250e-06	1.838729e-08	4.170740e+01	1.208190e+03
1.430000e-06	5.867748e-06	1.844543e-08	4.206223e+01	1.212159e+03
1.440000e-06	5.914911e-06	1.850173e-08	4.240031e+01	1.215921e+03
1.450000e-06	5.960101e-06	1.855589e-08	4.272425e+01	1.219466e+03
1.460000e-06	6.003331e-06	1.860797e-08	4.303414e+01	1.222778e+03
1.470000e-06	6.044316e-06	1.865722e-08	4.332793e+01	1.225846e+03
1.480000e-06	6.083061e-06	1.870116e-08	4.360567e+01	1.228665e+03
1.490000e-06	6.119884e-06	1.873821e-08	4.386963e+01	1.231234e+03
1.500000e-06	6.154601e-06	1.877003e-08	4.411850e+01	1.233561e+03
1.510000e-06	6.187027e-06	1.880087e-08	4.435094e+01	1.235662e+03
1.520000e-06	6.217219e-06	1.882942e-08	4.456736e+01	1.237553e+03
1.530000e-06	6.245376e-06	1.885438e-08	4.476921e+01	1.239253e+03
1.540000e-06	6.271236e-06	1.887662e-08	4.495458e+01	1.240780e+03
1.550000e-06	6.294555e-06	1.889793e-08	4.512174e+01	1.242146e+03
1.560000e-06	6.315725e-06	1.891703e-08	4.527350e+01	1.243357e+03
1.570000e-06	6.334838e-06	1.893422e-08	4.541050e+01	1.244414e+03
1.580000e-06	6.351668e-06	1.894964e-08	4.553115e+01	1.245314e+03
1.590000e-06	6.366104e-06	1.896217e-08	4.563463e+01	1.246051e+03
1.600000e-06	6.378131e-06	1.897048e-08	4.572085e+01	1.246622e+03
1.610000e-06	6.387541e-06	1.897461e-08	4.578830e+01	1.247028e+03
1.620000e-06	6.394491e-06	1.897698e-08	4.583812e+01	1.247274e+03
1.630000e-06	6.399323e-06	1.898005e-08	4.587275e+01	1.247369e+03
1.640000e-06	6.401882e-06	1.898192e-08	4.589110e+01	1.247326e+03
1.650000e-06	6.402091e-06	1.898616e-08	4.589260e+01	1.247157e+03
1.660000e-06	6.400128e-06	1.897940e-08	4.587853e+01	1.246871e+03
1.670000e-06	6.396214e-06	1.897291e-08	4.585047e+01	1.246470e+03
1.680000e-06	6.390067e-06	1.896592e-08	4.580641e+01	1.245953e+03
1.690000e-06	6.381658e-06	1.895472e-08	4.574613e+01	1.245309e+03
1.700000e-06	6.371308e-06	1.894368e-08	4.567193e+01	1.244528e+03
1.710000e-06	6.358836e-06	1.893359e-08	4.558253e+01	1.243602e+03
1.720000e-06	6.344099e-06	1.893552e-08	4.547689e+01	1.242526e+03
1.730000e-06	6.327320e-06	1.892359e-08	4.535661e+01	1.241307e+03
1.740000e-06	6.308591e-06	1.877928e-08	4.522236e+01	1.239964e+03
1.750000e-06	6.287094e-06	1.877521e-08	4.506826e+01	1.238522e+03
1.760000e-06	6.262354e-06	1.883611e-08	4.489091e+01	1.237013e+03
1.770000e-06	6.235162e-06	1.878819e-08	4.469599e+01	1.235464e+03
1.780000e-06	6.206060e-06	1.885400e-08	4.448738e+01	1.233894e+03
1.790000e-06	6.175246e-06	1.891549e-08	4.426649e+01	1.232308e+03
1.800000e-06	6.143137e-06	1.861684e-08	4.403632e+01	1.230690e+03
1.810000e-06	6.109117e-06	1.870019e-08	4.379245e+01	1.229006e+03
1.820000e-06	6.072955e-06	1.875608e-08	4.353323e+01	1.227209e+03
1.830000e-06	6.034834e-06	1.855526e-08	4.325997e+01	1.225242e+03
1.840000e-06	5.994301e-06	1.880100e-08	4.296940e+01	1.223054e+03
1.850000e-06	5.951653e-06	1.861835e-08	4.266369e+01	1.220604e+03
1.860000e-06	5.907065e-06	1.852841e-08	4.234406e+01	1.217868e+03
1.870000e-06	5.860183e-06	1.863134e-08	4.200800e+01	1.214846e+03
1.880000e-06	5.811200e-06	1.839879e-08	4.165687e+01	1.211555e+03
1.890000e-06	5.759903e-06	1.848820e-08	4.128915e+01	1.208029e+03
1.900000e-06	5.706041e-06	1.838091e-08	4.090305e+01	1.204307e+03
1.910000e-06	5.649909e-06	1.826279e-08	4.050068e+01	1.200425e+03
1.920000e-06	5.591683e-06	1.833845e-08	4.008329e+01	1.196407e+03
1.930000e-06	5.531667e-06	1.813487e-08	3.965308e+01	1.192263e+03
1.940000e-06	5.469545e-06	1.818459e-08	3.920776e+01	1.187982e+03
1.950000e-06	5.405207e-06	1.805396e-08	3.874656e+01	1.183541e+03
1.960000e-06	5.338966e-06	1.799339e-08	3.827172e+01	1.178909e+03
1.970000e-06	5.270804e-06	1.795875e-08	3.778311e+01	1.174050e+03
1.980000e-06	5.200563e-06	1.778253e-08	3.727959e+01	1.168937e+03
1.990000e-06	5.128147e-06	1.781489e-08	3.676049e+01	1.163552e+03
2.000000e-06	5.053932e-06	1.766093e-08	3.622849e+01	1.157889e+03
2.010000e-06	4.977784e-06	1.759839e-08	3.568263e+01	1.151952e+03
2.020000e-06	4.899466e-06	1.749889e-08	3.512122e+01	1.145749e+03
2.030000e-06	4.819283e-06	1.737177e-08	3.454643e+01	1.139291e+03
2.040000e-06	4.737458e-06	1.732899e-08	3.395989e+01	1.132582e+03
2.050000e-06	4.654095e-06	1.717564e-08	3.336231e+01	1.125617e+03
2.060000e-06	4.569191e-06	1.710333e-08	3.275368e+01	1.118384e+03
2.070000e-06	4.482642e-06	1.696241e-08	3.213327e+01	1.110861e+03
2.080000e-06	4.394424e-06	1.685356e-08	3.150089e+01	1.103025e+03
2.090000e-06	4.304666e-06	1.672299e-08	3.085747e+01	1.094851e+03
2.100000e-06	4.213460e-06	1.658056e-08	3.020367e+01	1.086322e+03
2.110000e-06	4.120829e-06	1.647074e-08	2.953965e+01	1.077423e+03
2.120000e-06	4.026759e-06	1.631274e-08	2.886533e+01	1.068149e+03
2.130000e-06	3.931161e-06	1.618140e-08	2.818004e+01	1.058494e+03
2.140000e-06	3.834162e-06	1.601671e-08	2.748472e+01	1.048456e+03
2.150000e-06	3.735918e-06	1.587264e-08	2.678047e+01	1.038024e+03
2.160000e-06	3.636346e-06	1.570354e-08	2.606670e+01	1.027181e+03
2.170000e-06	3.535438e-06	1.553637e-08	2.534335e+01	1.015900e+03
2.180000e-06	3.433160e-06	1.535448e-08	2.461019e+01	1.004147e+03
2.190000e-06	3.329380e-06	1.516397e-08	2.386625e+01	9.918817e+02
2.200000e-06	3.224338e-06	1.496889e-08	2.311327e+01	9.790638e+02
2.210000e-06	3.118272e-06	1.476345e-08	2.235295e+01	9.656539e+02
2.220000e-06	3.011121e-06	1.455867e-08	2.158485e+01	9.516166e+02
2.230000e-06	2.902859e-06	1.433517e-08	2.080878e+01	9.369206e+02
2.240000e-06	2.793630e-06	1.411011e-08	2.002579e+01	9.215368e+02
2.250000e-06	2.683436e-06	1.386627e-08	1.923588e+01	9.054348e+02
2.260000e-06	2.572192e-06	1.361203e-08	1.843844e+01	8.885796e+02
2.270000e-06	2.459970e-06	1.333516e-08	1.763399e+01	8.709285e+02
2.280000e-06	2.346735e-06	1.305273e-08	1.682228e+01	8.524299e+02
2.290000e-06	2.232502e-06	1.275690e-08	1.600341e+01	8.330235e+02
2.300000e-06	2.117458e-06	1.244801e-08	1.517874e+01	8.126421e+02
2.310000e-06	2.001636e-06	1.212486e-08	1.434848e+01	7.912142e+02
2.320000e-06	1.884922e-06	1.178398e-08	1.351183e+01	7.686660e+02
2.330000e-06	1.767470e-06	1.142500e-08	1.266989e+01	7.449229e+02
2.340000e-06	1.649458e-06	1.104372e-08	1.182394e+01	7.199093e+02
2.350000e-06	1.530826e-06	1.064177e-08	1.097354e+01	6.935488e+02
2.360000e-06	1.411528e-06	1.021725e-08	1.011837e+01	6.657642e+02
2.370000e-06	1.291653e-06	9.771200e-09	9.259056e+00	6.364798e+02
2.380000e-06	1.171344e-06	9.298031e-09	8.396633e+00	6.056274e+02
2.390000e-06	1.050693e-06	8.802005e-09	7.531762e+00	5.731557e+02
2.400000e-06	9.297846e-07	8.279344e-09	6.665046e+00	5.390426e+02
2.410000e-06	8.086001e-07	7.735476e-09	5.796350e+00	5.033086e+02
2.420000e-06	6.871159e-07	7.169945e-09	4.925505e+00	4.660289e+02
2.430000e-06	5.654335e-07	6.580284e-09	4.053240e+00	4.273396e+02
2.440000e-06	4.436001e-07	5.970259e-09	3.179893e+00	3.874355e+02
2.450000e-06	3.216464e-07	5.342805e-09	2.305683e+00	3.465583e+02
2.460000e-06	1.995464e-07	4.703950e-09	1.430424e+00	3.049751e+02
2.470000e-06	7.733622e-08	4.057037e-09	5.543752e-01	2.629479e+02
2.480000e-06	-4.489785e-08	3.407946e-09	-3.218447e-01	2.207020e+02
2.490000e-06	-1.671115e-07	2.760683e-09	-1.197918e+00	1.783951e+02
2.500000e-06	-2.893219e-07	2.115598e-09	-2.073969e+00	1.360955e+02
2.510000e-06	-4.114796e-07	1.471888e-09	-2.949641e+00	9.377390e+01
2.520000e-06	-5.334848e-07	8.244227e-10	-3.824220e+00	5.131069e+01
2.530000e-06	-6.553076e-07	1.695655e-10	-4.697492e+00	8.520004e+00
2.540000e-06	-7.769948e-07	-4.952355e-10	-5.569791e+00	-3.481349e+01
2.550000e-06	-8.984897e-07	-1.172030e-09	-6.440713e+00	-7.889018e+01
2.560000e-06	-1.019648e-06	-1.860772e-09	-7.309224e+00	-1.238509e+02
2.570000e-06	-1.140472e-06	-2.563803e-09	-8.175332e+00	-1.697393e+02
2.580000e-06	-1.260926e-06	-3.278613e-09	-9.038792e+00	-2.164785e+02
2.590000e-06	-1.380952e-06	-4.002770e-09	-9.899186e+00	-2.638640e+02
2.600000e-06	-1.500446e-06	-4.733517e-09	-1.075576e+01	-3.115762e+02
2.610000e-06	-1.619244e-06	-5.462265e-09	-1.160735e+01	-3.592085e+02
2.620000e-06	-1.737340e-06	-6.181920e-09	-1.245390e+01	-4.063068e+02
2.630000e-06	-1.854718e-06	-6.886029e-09	-1.329532e+01	-4.524135e+02
2.640000e-06	-1.971206e-06	-7.570888e-09	-1.413035e+01	-4.971095e+02
2.650000e-06	-2.086796e-06	-8.230505e-09	-1.495894e+01	-5.400483e+02
2.660000e-06	-2.201599e-06	-8.858167e-09	-1.578189e+01	-5.809771e+02
2.670000e-06	-2.315473e-06	-9.452617e-09	-1.659818e+01	-6.197449e+02
2.680000e-06	-2.428257e-06	-1.001443e-08	-1.740666e+01	-6.562972e+02
2.690000e-06	-2.540036e-06	-1.054155e-08	-1.820793e+01	-6.906606e+02
2.700000e-06	-2.650780e-06	-1.103239e-08	-1.900179e+01	-7.229214e+02
2.710000e-06	-2.760492e-06	-1.149372e-08	-1.978825e+01	-7.532028e+02
2.720000e-06	-2.869354e-06	-1.192990e-08	-2.056861e+01	-7.816444e+02
2.730000e-06	-2.977341e-06	-1.233946e-08	-2.134270e+01	-8.083857e+02
2.740000e-06	-3.084351e-06	-1.272612e-08	-2.210979e+01	-8.335569e+02
2.750000e-06	-3.190300e-06	-1.309272e-08	-2.286927e+01	-8.572741e+02
2.760000e-06	-3.295157e-06	-1.343709e-08	-2.362093e+01	-8.796395e+02
2.770000e-06	-3.398890e-06	-1.375967e-08	-2.436453e+01	-9.007442e+02
2.780000e-06	-3.501285e-06	-1.406342e-08	-2.509853e+01	-9.206715e+02
2.790000e-06	-3.602275e-06	-1.435139e-08	-2.582246e+01	-9.394995e+02
2.800000e-06	-3.702013e-06	-1.462398e-08	-2.653742e+01	-9.573029e+02
2.810000e-06	-3.800550e-06	-1.488140e-08	-2.724377e+01	-9.741527e+02
2.820000e-06	-3.897850e-06	-1.512536e-08	-2.794125e+01	-9.901151e+02
2.830000e-06	-3.993916e-06	-1.535834e-08	-2.862989e+01	-1.005251e+03
2.840000e-06	-4.088525e-06	-1.558235e-08	-2.930809e+01	-1.019613e+03
2.850000e-06	-4.181519e-06	-1.579614e-08	-2.997470e+01	-1.033249e+03
2.860000e-06	-4.273098e-06	-1.599899e-08	-3.063118e+01	-1.046199e+03
2.870000e-06	-4.363216e-06	-1.618916e-08	-3.127717e+01	-1.058499e+03
2.880000e-06	-4.451781e-06	-1.636661e-08	-3.191204e+01	-1.070182e+03
2.890000e-06	-4.538678e-06	-1.653220e-08	-3.253496e+01	-1.081278e+03
2.900000e-06	-4.623778e-06	-1.668874e-08	-3.314498e+01	-1.091816e+03
2.910000e-06	-4.707294e-06	-1.684083e-08	-3.374365e+01	-1.101824e+03
2.920000e-06	-4.789275e-06	-1.698747e-08	-3.433133e+01	-1.111328e+03
2.930000e-06	-4.869609e-06	-1.712663e-08	-3.490719e+01	-1.120351e+03
2.940000e-06	-4.947947e-06	-1.725911e-08	-3.546875e+01	-1.128912e+03
