# Temperatura_=_55.42
# Concentracion g/m^3_=_28200.0
# C_Vs_to_Am_M_A/Vsm_=_65563218390.804596
# pendiente_HvsI_1/m_=_3716.3
# ordenada_HvsI_A/m_=_1297.0
# frecuencia_Hz_=_302133.4990173653

Tiempo_(s)	Campo_(V.s)	Magnetizacion_(V.s)	Campo_(kA/m)	Magnetizacion_(A/m)
0.000000e+00	-6.399063e-06	-2.400767e-08	-4.585766e+01	-1.571773e+03
1.000000e-08	-6.395712e-06	-2.400429e-08	-4.583365e+01	-1.571377e+03
2.000000e-08	-6.390313e-06	-2.399246e-08	-4.579496e+01	-1.570828e+03
3.000000e-08	-6.382957e-06	-2.398228e-08	-4.574224e+01	-1.570113e+03
4.000000e-08	-6.373406e-06	-2.396758e-08	-4.567380e+01	-1.569221e+03
5.000000e-08	-6.361463e-06	-2.394723e-08	-4.558821e+01	-1.568148e+03
6.000000e-08	-6.347211e-06	-2.392461e-08	-4.548608e+01	-1.566898e+03
7.000000e-08	-6.330669e-06	-2.389736e-08	-4.536753e+01	-1.565487e+03
8.000000e-08	-6.312065e-06	-2.389835e-08	-4.523421e+01	-1.563936e+03
9.000000e-08	-6.291408e-06	-2.396676e-08	-4.508617e+01	-1.562273e+03
1.000000e-07	-6.268381e-06	-2.389710e-08	-4.492116e+01	-1.560525e+03
1.100000e-07	-6.242722e-06	-2.379123e-08	-4.473728e+01	-1.558711e+03
1.200000e-07	-6.214658e-06	-2.376951e-08	-4.453616e+01	-1.556836e+03
1.300000e-07	-6.184649e-06	-2.369320e-08	-4.432111e+01	-1.554889e+03
1.400000e-07	-6.153093e-06	-2.355324e-08	-4.409497e+01	-1.552841e+03
1.500000e-07	-6.119808e-06	-2.372547e-08	-4.385644e+01	-1.550648e+03
1.600000e-07	-6.084478e-06	-2.370971e-08	-4.360325e+01	-1.548259e+03
1.700000e-07	-6.047310e-06	-2.347687e-08	-4.333689e+01	-1.545621e+03
1.800000e-07	-6.008151e-06	-2.363133e-08	-4.305627e+01	-1.542692e+03
1.900000e-07	-5.966519e-06	-2.347000e-08	-4.275792e+01	-1.539447e+03
2.000000e-07	-5.922636e-06	-2.335897e-08	-4.244344e+01	-1.535881e+03
2.100000e-07	-5.876740e-06	-2.343307e-08	-4.211453e+01	-1.532010e+03
2.200000e-07	-5.828515e-06	-2.326939e-08	-4.176894e+01	-1.527869e+03
2.300000e-07	-5.777819e-06	-2.323743e-08	-4.140563e+01	-1.523499e+03
2.400000e-07	-5.724639e-06	-2.318358e-08	-4.102453e+01	-1.518943e+03
2.500000e-07	-5.669309e-06	-2.307905e-08	-4.062802e+01	-1.514231e+03
2.600000e-07	-5.611817e-06	-2.305027e-08	-4.021601e+01	-1.509380e+03
2.700000e-07	-5.552139e-06	-2.295503e-08	-3.978834e+01	-1.504383e+03
2.800000e-07	-5.490537e-06	-2.287565e-08	-3.934688e+01	-1.499215e+03
2.900000e-07	-5.427026e-06	-2.276230e-08	-3.889175e+01	-1.493839e+03
3.000000e-07	-5.361432e-06	-2.269898e-08	-3.842168e+01	-1.488213e+03
3.100000e-07	-5.293713e-06	-2.261045e-08	-3.793638e+01	-1.482298e+03
3.200000e-07	-5.223994e-06	-2.249780e-08	-3.743675e+01	-1.476067e+03
3.300000e-07	-5.152452e-06	-2.243148e-08	-3.692406e+01	-1.469508e+03
3.400000e-07	-5.079068e-06	-2.228220e-08	-3.639817e+01	-1.462624e+03
3.500000e-07	-5.003580e-06	-2.218701e-08	-3.585720e+01	-1.455427e+03
3.600000e-07	-4.925989e-06	-2.207874e-08	-3.530116e+01	-1.447933e+03
3.700000e-07	-4.846365e-06	-2.195200e-08	-3.473055e+01	-1.440154e+03
3.800000e-07	-4.764901e-06	-2.184710e-08	-3.414675e+01	-1.432091e+03
3.900000e-07	-4.681850e-06	-2.170583e-08	-3.355158e+01	-1.423734e+03
4.000000e-07	-4.597355e-06	-2.156424e-08	-3.294607e+01	-1.415058e+03
4.100000e-07	-4.511406e-06	-2.141908e-08	-3.233013e+01	-1.406031e+03
4.200000e-07	-4.424021e-06	-2.128689e-08	-3.170390e+01	-1.396620e+03
4.300000e-07	-4.335223e-06	-2.113623e-08	-3.106755e+01	-1.386797e+03
4.400000e-07	-4.244788e-06	-2.097315e-08	-3.041946e+01	-1.376541e+03
4.500000e-07	-4.152711e-06	-2.081952e-08	-2.975961e+01	-1.365843e+03
4.600000e-07	-4.059162e-06	-2.064166e-08	-2.908921e+01	-1.354703e+03
4.700000e-07	-3.964270e-06	-2.046917e-08	-2.840918e+01	-1.343124e+03
4.800000e-07	-3.868070e-06	-2.028782e-08	-2.771978e+01	-1.331103e+03
4.900000e-07	-3.770407e-06	-2.009563e-08	-2.701990e+01	-1.318628e+03
5.000000e-07	-3.671187e-06	-1.988866e-08	-2.630886e+01	-1.305676e+03
5.100000e-07	-3.570636e-06	-1.967549e-08	-2.558828e+01	-1.292207e+03
5.200000e-07	-3.468899e-06	-1.946188e-08	-2.485921e+01	-1.278171e+03
5.300000e-07	-3.365942e-06	-1.923747e-08	-2.412138e+01	-1.263515e+03
5.400000e-07	-3.261741e-06	-1.900695e-08	-2.337464e+01	-1.248186e+03
5.500000e-07	-3.156277e-06	-1.876020e-08	-2.261886e+01	-1.232142e+03
5.600000e-07	-3.049546e-06	-1.850467e-08	-2.185399e+01	-1.215349e+03
5.700000e-07	-2.941610e-06	-1.822928e-08	-2.108049e+01	-1.197780e+03
5.800000e-07	-2.832583e-06	-1.794383e-08	-2.029916e+01	-1.179412e+03
5.900000e-07	-2.722596e-06	-1.764893e-08	-1.951096e+01	-1.160218e+03
6.000000e-07	-2.611797e-06	-1.734087e-08	-1.871695e+01	-1.140156e+03
6.100000e-07	-2.500009e-06	-1.702005e-08	-1.791583e+01	-1.119166e+03
6.200000e-07	-2.387148e-06	-1.668292e-08	-1.710704e+01	-1.097170e+03
6.300000e-07	-2.273349e-06	-1.633109e-08	-1.629152e+01	-1.074070e+03
6.400000e-07	-2.158502e-06	-1.595720e-08	-1.546849e+01	-1.049758e+03
6.500000e-07	-2.042597e-06	-1.556394e-08	-1.463788e+01	-1.024124e+03
6.600000e-07	-1.925898e-06	-1.514659e-08	-1.380158e+01	-9.970586e+02
6.700000e-07	-1.808622e-06	-1.470782e-08	-1.296115e+01	-9.684593e+02
6.800000e-07	-1.690775e-06	-1.424770e-08	-1.211661e+01	-9.382293e+02
6.900000e-07	-1.572392e-06	-1.375969e-08	-1.126825e+01	-9.062729e+02
7.000000e-07	-1.453546e-06	-1.324328e-08	-1.041656e+01	-8.724892e+02
7.100000e-07	-1.334244e-06	-1.269723e-08	-9.561606e+00	-8.367685e+02
7.200000e-07	-1.214459e-06	-1.212423e-08	-8.703187e+00	-7.989933e+02
7.300000e-07	-1.094221e-06	-1.151339e-08	-7.841527e+00	-7.590480e+02
7.400000e-07	-9.736172e-07	-1.086616e-08	-6.977241e+00	-7.168364e+02
7.500000e-07	-8.527018e-07	-1.018767e-08	-6.110724e+00	-6.723054e+02
7.600000e-07	-7.315187e-07	-9.475248e-09	-5.242289e+00	-6.254711e+02
7.700000e-07	-6.100695e-07	-8.724926e-09	-4.371947e+00	-5.764401e+02
7.800000e-07	-4.884365e-07	-7.943677e-09	-3.500287e+00	-5.254196e+02
7.900000e-07	-3.666590e-07	-7.142169e-09	-2.627592e+00	-4.727116e+02
8.000000e-07	-2.446913e-07	-6.320604e-09	-1.753534e+00	-4.186886e+02
8.100000e-07	-1.226095e-07	-5.486483e-09	-8.786572e-01	-3.637525e+02
8.200000e-07	-4.625732e-10	-4.645041e-09	-3.314942e-03	-3.082824e+02
8.300000e-07	1.217914e-07	-3.801394e-09	8.727950e-01	-2.525806e+02
8.400000e-07	2.439896e-07	-2.953564e-09	1.748505e+00	-1.968277e+02
8.500000e-07	3.660281e-07	-2.102758e-09	2.623070e+00	-1.410556e+02
8.600000e-07	4.879477e-07	-1.247904e-09	3.496784e+00	-8.514650e+01
8.700000e-07	6.097322e-07	-3.884028e-10	4.369530e+00	-2.886053e+01
8.800000e-07	7.313125e-07	4.787427e-10	5.240811e+00	2.811241e+01
8.900000e-07	8.526873e-07	1.359268e-09	6.110621e+00	8.608343e+01
9.000000e-07	9.738640e-07	2.256052e-09	6.979010e+00	1.452907e+02
9.100000e-07	1.094725e-06	3.175744e-09	7.845136e+00	2.058337e+02
9.200000e-07	1.215177e-06	4.117766e-09	8.708335e+00	2.676282e+02
9.300000e-07	1.335123e-06	5.076740e-09	9.567906e+00	3.303896e+02
9.400000e-07	1.454518e-06	6.042691e-09	1.042353e+01	3.936479e+02
9.500000e-07	1.573385e-06	7.008373e-09	1.127537e+01	4.567917e+02
9.600000e-07	1.691693e-06	7.960000e-09	1.212319e+01	5.191328e+02
9.700000e-07	1.809379e-06	8.882594e-09	1.296657e+01	5.799797e+02
9.800000e-07	1.926456e-06	9.770368e-09	1.380558e+01	6.387083e+02
9.900000e-07	2.042818e-06	1.061963e-08	1.463946e+01	6.948173e+02
1.000000e-06	2.158229e-06	1.142794e-08	1.546653e+01	7.479623e+02
1.010000e-06	2.272585e-06	1.218501e-08	1.628605e+01	7.979645e+02
1.020000e-06	2.385936e-06	1.289460e-08	1.709835e+01	8.447963e+02
1.030000e-06	2.498376e-06	1.355736e-08	1.790414e+01	8.885500e+02
1.040000e-06	2.609856e-06	1.417529e-08	1.870304e+01	9.293978e+02
1.050000e-06	2.720374e-06	1.475385e-08	1.949504e+01	9.675514e+02
1.060000e-06	2.829960e-06	1.529533e-08	2.028037e+01	1.003228e+03
1.070000e-06	2.938621e-06	1.580350e-08	2.105907e+01	1.036631e+03
1.080000e-06	3.046437e-06	1.627763e-08	2.183171e+01	1.067934e+03
1.090000e-06	3.153148e-06	1.672124e-08	2.259644e+01	1.097291e+03
1.100000e-06	3.258573e-06	1.713656e-08	2.335194e+01	1.124833e+03
1.110000e-06	3.362764e-06	1.752856e-08	2.409861e+01	1.150687e+03
1.120000e-06	3.465702e-06	1.789648e-08	2.483629e+01	1.174979e+03
1.130000e-06	3.567441e-06	1.824330e-08	2.556539e+01	1.197836e+03
1.140000e-06	3.668025e-06	1.857129e-08	2.628620e+01	1.219387e+03
1.150000e-06	3.767359e-06	1.888261e-08	2.699806e+01	1.239754e+03
1.160000e-06	3.865200e-06	1.917522e-08	2.769922e+01	1.259046e+03
1.170000e-06	3.961494e-06	1.945120e-08	2.838929e+01	1.277353e+03
1.180000e-06	4.056383e-06	1.971507e-08	2.906930e+01	1.294744e+03
1.190000e-06	4.149953e-06	1.996607e-08	2.973984e+01	1.311266e+03
1.200000e-06	4.242309e-06	2.020461e-08	3.040170e+01	1.326953e+03
1.210000e-06	4.333233e-06	2.043086e-08	3.105329e+01	1.341831e+03
1.220000e-06	4.422431e-06	2.064203e-08	3.169250e+01	1.355930e+03
1.230000e-06	4.509883e-06	2.084216e-08	3.231921e+01	1.369285e+03
1.240000e-06	4.595659e-06	2.103359e-08	3.293391e+01	1.381943e+03
1.250000e-06	4.679990e-06	2.121432e-08	3.353825e+01	1.393959e+03
1.260000e-06	4.762800e-06	2.138631e-08	3.413170e+01	1.405389e+03
1.270000e-06	4.843834e-06	2.155117e-08	3.471241e+01	1.416286e+03
1.280000e-06	4.923026e-06	2.171130e-08	3.527993e+01	1.426692e+03
1.290000e-06	5.000383e-06	2.186507e-08	3.583429e+01	1.436632e+03
1.300000e-06	5.075788e-06	2.201193e-08	3.637466e+01	1.446118e+03
1.310000e-06	5.149119e-06	2.215145e-08	3.690018e+01	1.455144e+03
1.320000e-06	5.220506e-06	2.228226e-08	3.741176e+01	1.463701e+03
1.330000e-06	5.290054e-06	2.240213e-08	3.791016e+01	1.471780e+03
1.340000e-06	5.357736e-06	2.251473e-08	3.839519e+01	1.479377e+03
1.350000e-06	5.423426e-06	2.262360e-08	3.886595e+01	1.486505e+03
1.360000e-06	5.487074e-06	2.272789e-08	3.932207e+01	1.493188e+03
1.370000e-06	5.548812e-06	2.282603e-08	3.976450e+01	1.499465e+03
1.380000e-06	5.608776e-06	2.291760e-08	4.019422e+01	1.505381e+03
1.390000e-06	5.666794e-06	2.300442e-08	4.061000e+01	1.510983e+03
1.400000e-06	5.722721e-06	2.308634e-08	4.101079e+01	1.516314e+03
1.410000e-06	5.776625e-06	2.316246e-08	4.139708e+01	1.521403e+03
1.420000e-06	5.828192e-06	2.323417e-08	4.176662e+01	1.526266e+03
1.430000e-06	5.877217e-06	2.330211e-08	4.211796e+01	1.530909e+03
1.440000e-06	5.924039e-06	2.336844e-08	4.245350e+01	1.535323e+03
1.450000e-06	5.968964e-06	2.343277e-08	4.277544e+01	1.539495e+03
1.460000e-06	6.011866e-06	2.349529e-08	4.308289e+01	1.543411e+03
1.470000e-06	6.052488e-06	2.355510e-08	4.337400e+01	1.547061e+03
1.480000e-06	6.090891e-06	2.360978e-08	4.364921e+01	1.550438e+03
1.490000e-06	6.127322e-06	2.365823e-08	4.391028e+01	1.553545e+03
1.500000e-06	6.161637e-06	2.369897e-08	4.415619e+01	1.556388e+03
1.510000e-06	6.193651e-06	2.373630e-08	4.438562e+01	1.558978e+03
1.520000e-06	6.223504e-06	2.377031e-08	4.459955e+01	1.561326e+03
1.530000e-06	6.251307e-06	2.380105e-08	4.479879e+01	1.563442e+03
1.540000e-06	6.276785e-06	2.382939e-08	4.498138e+01	1.565332e+03
1.550000e-06	6.299849e-06	2.385481e-08	4.514666e+01	1.566999e+03
1.560000e-06	6.320829e-06	2.387746e-08	4.529701e+01	1.568444e+03
1.570000e-06	6.339646e-06	2.389807e-08	4.543186e+01	1.569670e+03
1.580000e-06	6.356082e-06	2.391568e-08	4.554965e+01	1.570678e+03
1.590000e-06	6.370138e-06	2.392862e-08	4.565038e+01	1.571476e+03
1.600000e-06	6.381685e-06	2.393770e-08	4.573312e+01	1.572076e+03
1.610000e-06	6.390650e-06	2.394427e-08	4.579737e+01	1.572491e+03
1.620000e-06	6.397237e-06	2.394791e-08	4.584458e+01	1.572738e+03
1.630000e-06	6.401718e-06	2.394898e-08	4.587669e+01	1.572831e+03
1.640000e-06	6.403938e-06	2.394919e-08	4.589260e+01	1.572782e+03
1.650000e-06	6.403761e-06	2.395087e-08	4.589133e+01	1.572595e+03
1.660000e-06	6.401490e-06	2.394055e-08	4.587505e+01	1.572267e+03
1.670000e-06	6.397242e-06	2.393442e-08	4.584461e+01	1.571791e+03
1.680000e-06	6.390789e-06	2.392534e-08	4.579837e+01	1.571154e+03
1.690000e-06	6.382121e-06	2.391191e-08	4.573625e+01	1.570345e+03
1.700000e-06	6.371484e-06	2.389958e-08	4.566002e+01	1.569356e+03
1.710000e-06	6.358617e-06	2.388551e-08	4.556782e+01	1.568187e+03
1.720000e-06	6.343438e-06	2.388784e-08	4.545904e+01	1.566848e+03
1.730000e-06	6.326349e-06	2.383766e-08	4.533657e+01	1.565358e+03
1.740000e-06	6.307282e-06	2.370907e-08	4.519993e+01	1.563744e+03
1.750000e-06	6.285326e-06	2.373752e-08	4.504259e+01	1.562032e+03
1.760000e-06	6.260128e-06	2.376192e-08	4.486202e+01	1.560247e+03
1.770000e-06	6.232575e-06	2.369895e-08	4.466456e+01	1.558401e+03
1.780000e-06	6.203119e-06	2.382642e-08	4.445347e+01	1.556490e+03
1.790000e-06	6.172032e-06	2.376731e-08	4.423069e+01	1.554493e+03
1.800000e-06	6.139641e-06	2.352292e-08	4.399857e+01	1.552374e+03
1.810000e-06	6.105281e-06	2.370531e-08	4.375233e+01	1.550082e+03
1.820000e-06	6.068893e-06	2.358651e-08	4.349156e+01	1.547565e+03
1.830000e-06	6.030451e-06	2.349071e-08	4.321607e+01	1.544776e+03
1.840000e-06	5.989537e-06	2.366533e-08	4.292287e+01	1.541680e+03
1.850000e-06	5.946579e-06	2.336436e-08	4.261502e+01	1.538262e+03
1.860000e-06	5.901561e-06	2.340306e-08	4.229241e+01	1.534529e+03
1.870000e-06	5.854334e-06	2.338782e-08	4.195396e+01	1.530508e+03
1.880000e-06	5.805066e-06	2.319545e-08	4.160090e+01	1.526239e+03
1.890000e-06	5.753336e-06	2.328689e-08	4.123018e+01	1.521764e+03
1.900000e-06	5.699052e-06	2.308080e-08	4.084117e+01	1.517122e+03
1.910000e-06	5.642528e-06	2.305880e-08	4.043610e+01	1.512335e+03
1.920000e-06	5.583929e-06	2.304290e-08	4.001616e+01	1.507407e+03
1.930000e-06	5.523485e-06	2.286978e-08	3.958300e+01	1.502322e+03
1.940000e-06	5.460962e-06	2.288960e-08	3.913494e+01	1.497048e+03
1.950000e-06	5.396310e-06	2.270449e-08	3.867162e+01	1.491543e+03
1.960000e-06	5.329667e-06	2.269808e-08	3.819404e+01	1.485766e+03
1.970000e-06	5.261034e-06	2.255941e-08	3.770219e+01	1.479684e+03
1.980000e-06	5.190272e-06	2.242745e-08	3.719509e+01	1.473278e+03
1.990000e-06	5.117474e-06	2.243594e-08	3.667340e+01	1.466544e+03
2.000000e-06	5.043046e-06	2.225143e-08	3.614003e+01	1.459490e+03
2.010000e-06	4.966610e-06	2.219449e-08	3.559226e+01	1.452132e+03
2.020000e-06	4.887990e-06	2.201956e-08	3.502885e+01	1.444484e+03
2.030000e-06	4.807574e-06	2.191777e-08	3.445256e+01	1.436554e+03
2.040000e-06	4.725510e-06	2.182325e-08	3.386446e+01	1.428335e+03
2.050000e-06	4.641975e-06	2.166103e-08	3.326583e+01	1.419811e+03
2.060000e-06	4.556894e-06	2.155977e-08	3.265611e+01	1.410951e+03
2.070000e-06	4.470041e-06	2.138654e-08	3.203370e+01	1.401722e+03
2.080000e-06	4.381510e-06	2.126637e-08	3.139925e+01	1.392093e+03
2.090000e-06	4.291454e-06	2.108366e-08	3.075389e+01	1.382040e+03
2.100000e-06	4.199981e-06	2.093404e-08	3.009836e+01	1.371548e+03
2.110000e-06	4.107136e-06	2.078044e-08	2.943301e+01	1.360613e+03
2.120000e-06	4.012829e-06	2.060185e-08	2.875718e+01	1.349237e+03
2.130000e-06	3.916959e-06	2.043057e-08	2.807014e+01	1.337422e+03
2.140000e-06	3.819722e-06	2.023046e-08	2.737331e+01	1.325160e+03
2.150000e-06	3.721223e-06	2.005469e-08	2.666743e+01	1.312434e+03
2.160000e-06	3.621356e-06	1.984670e-08	2.595176e+01	1.299210e+03
2.170000e-06	3.520105e-06	1.964566e-08	2.522616e+01	1.285443e+03
2.180000e-06	3.417495e-06	1.941895e-08	2.449082e+01	1.271082e+03
2.190000e-06	3.313523e-06	1.919549e-08	2.374573e+01	1.256071e+03
2.200000e-06	3.208355e-06	1.895419e-08	2.299206e+01	1.240364e+03
2.210000e-06	3.102112e-06	1.870546e-08	2.223069e+01	1.223922e+03
2.220000e-06	2.994785e-06	1.844965e-08	2.146156e+01	1.206716e+03
2.230000e-06	2.886490e-06	1.817714e-08	2.068548e+01	1.188722e+03
2.240000e-06	2.777206e-06	1.789765e-08	1.990232e+01	1.169916e+03
2.250000e-06	2.666779e-06	1.759910e-08	1.911096e+01	1.150263e+03
2.260000e-06	2.555240e-06	1.728984e-08	1.831164e+01	1.129712e+03
2.270000e-06	2.442736e-06	1.695581e-08	1.750540e+01	1.108194e+03
2.280000e-06	2.329285e-06	1.661451e-08	1.669238e+01	1.085619e+03
2.290000e-06	2.214884e-06	1.625199e-08	1.587255e+01	1.061884e+03
2.300000e-06	2.099640e-06	1.587216e-08	1.504667e+01	1.036878e+03
2.310000e-06	1.983668e-06	1.546988e-08	1.421558e+01	1.010490e+03
2.320000e-06	1.866871e-06	1.505011e-08	1.337858e+01	9.826148e+02
2.330000e-06	1.749267e-06	1.460629e-08	1.253579e+01	9.531537e+02
2.340000e-06	1.631039e-06	1.413377e-08	1.168853e+01	9.220109e+02
2.350000e-06	1.512148e-06	1.363385e-08	1.083652e+01	8.890885e+02
2.360000e-06	1.392605e-06	1.310107e-08	9.979837e+00	8.542812e+02
2.370000e-06	1.272548e-06	1.253858e-08	9.119474e+00	8.174746e+02
2.380000e-06	1.152065e-06	1.194063e-08	8.256051e+00	7.785504e+02
2.390000e-06	1.031327e-06	1.131195e-08	7.390807e+00	7.374007e+02
2.400000e-06	9.103413e-07	1.064793e-08	6.523787e+00	6.939493e+02
2.410000e-06	7.890425e-07	9.950698e-09	5.654522e+00	6.481769e+02
2.420000e-06	6.674673e-07	9.219403e-09	4.783277e+00	6.001461e+02
2.430000e-06	5.457053e-07	8.456223e-09	3.910693e+00	5.500170e+02
2.440000e-06	4.237890e-07	7.666426e-09	3.037003e+00	4.980495e+02
2.450000e-06	3.016949e-07	6.849561e-09	2.162039e+00	4.445877e+02
2.460000e-06	1.794787e-07	6.011903e-09	1.286200e+00	3.900256e+02
2.470000e-06	5.718705e-08	5.162204e-09	4.098201e-01	3.347598e+02
2.480000e-06	-6.513850e-08	4.309715e-09	-4.668027e-01	2.791347e+02
2.490000e-06	-1.873846e-07	3.455877e-09	-1.342856e+00	2.233921e+02
2.500000e-06	-3.095448e-07	2.603016e-09	-2.218294e+00	1.676347e+02
2.510000e-06	-4.316968e-07	1.751975e-09	-3.093672e+00	1.118125e+02
2.520000e-06	-5.537318e-07	8.960478e-10	-3.968213e+00	5.573715e+01
2.530000e-06	-6.755641e-07	3.049051e-11	-4.841301e+00	-8.765953e-01
2.540000e-06	-7.972063e-07	-8.490481e-10	-5.713026e+00	-5.834860e+01
2.550000e-06	-9.185864e-07	-1.743132e-09	-6.582874e+00	-1.169598e+02
2.560000e-06	-1.039677e-06	-2.655855e-09	-7.450644e+00	-1.768814e+02
2.570000e-06	-1.160427e-06	-3.591142e-09	-8.315979e+00	-2.381182e+02
2.580000e-06	-1.280851e-06	-4.543780e-09	-9.178974e+00	-3.004787e+02
2.590000e-06	-1.400901e-06	-5.508267e-09	-1.003929e+01	-3.635752e+02
2.600000e-06	-1.520314e-06	-6.477691e-09	-1.089504e+01	-4.268548e+02
2.610000e-06	-1.639015e-06	-7.440332e-09	-1.174569e+01	-4.896563e+02
2.620000e-06	-1.757044e-06	-8.383946e-09	-1.259152e+01	-5.512802e+02
2.630000e-06	-1.874361e-06	-9.297909e-09	-1.343225e+01	-6.110633e+02
2.640000e-06	-1.990910e-06	-1.017504e-08	-1.426748e+01	-6.684415e+02
2.650000e-06	-2.106581e-06	-1.101101e-08	-1.509641e+01	-7.229949e+02
2.660000e-06	-2.221321e-06	-1.180013e-08	-1.591868e+01	-7.744685e+02
2.670000e-06	-2.335016e-06	-1.254100e-08	-1.673345e+01	-8.227672e+02
2.680000e-06	-2.447634e-06	-1.323448e-08	-1.754050e+01	-8.679326e+02
2.690000e-06	-2.559197e-06	-1.388314e-08	-1.834000e+01	-9.101049e+02
2.700000e-06	-2.669720e-06	-1.448928e-08	-1.913204e+01	-9.494821e+02
2.710000e-06	-2.779302e-06	-1.505574e-08	-1.991734e+01	-9.862827e+02
2.720000e-06	-2.888022e-06	-1.558486e-08	-2.069646e+01	-1.020718e+03
2.730000e-06	-2.995853e-06	-1.607688e-08	-2.146921e+01	-1.052976e+03
2.740000e-06	-3.102692e-06	-1.653810e-08	-2.223485e+01	-1.083219e+03
2.750000e-06	-3.208451e-06	-1.697084e-08	-2.299275e+01	-1.111587e+03
2.760000e-06	-3.313150e-06	-1.737658e-08	-2.374305e+01	-1.138210e+03
2.770000e-06	-3.416705e-06	-1.776167e-08	-2.448516e+01	-1.163211e+03
2.780000e-06	-3.518909e-06	-1.812469e-08	-2.521759e+01	-1.186719e+03
2.790000e-06	-3.619758e-06	-1.846318e-08	-2.594030e+01	-1.208860e+03
2.800000e-06	-3.719332e-06	-1.878121e-08	-2.665388e+01	-1.229762e+03
2.810000e-06	-3.817722e-06	-1.908390e-08	-2.735898e+01	-1.249541e+03
2.820000e-06	-3.914890e-06	-1.937152e-08	-2.805531e+01	-1.268296e+03
2.830000e-06	-4.010795e-06	-1.964316e-08	-2.874260e+01	-1.286106e+03
2.840000e-06	-4.105215e-06	-1.990152e-08	-2.941924e+01	-1.303026e+03
2.850000e-06	-4.198070e-06	-2.014753e-08	-3.008467e+01	-1.319097e+03
2.860000e-06	-4.289461e-06	-2.038212e-08	-3.073960e+01	-1.334348e+03
2.870000e-06	-4.379288e-06	-2.060535e-08	-3.138333e+01	-1.348805e+03
2.880000e-06	-4.467592e-06	-2.081707e-08	-3.201615e+01	-1.362500e+03
2.890000e-06	-4.554279e-06	-2.101691e-08	-3.263737e+01	-1.375475e+03
2.900000e-06	-4.639193e-06	-2.120637e-08	-3.324589e+01	-1.387782e+03
2.910000e-06	-4.722482e-06	-2.138835e-08	-3.384277e+01	-1.399477e+03
2.920000e-06	-4.804209e-06	-2.156033e-08	-3.442844e+01	-1.410616e+03
2.930000e-06	-4.884266e-06	-2.172115e-08	-3.500216e+01	-1.421246e+03
2.940000e-06	-4.962376e-06	-2.187399e-08	-3.556192e+01	-1.431401e+03
