# Temperatura_=_47.1
# Concentracion g/m^3_=_28200.0
# C_Vs_to_Am_M_A/Vsm_=_65563218390.804596
# pendiente_HvsI_1/m_=_3716.3
# ordenada_HvsI_A/m_=_1297.0
# frecuencia_Hz_=_302131.15811481484

Tiempo_(s)	Campo_(V.s)	Magnetizacion_(V.s)	Campo_(kA/m)	Magnetizacion_(A/m)
0.000000e+00	-6.385607e-06	-2.215152e-08	-4.585393e+01	-1.450505e+03
1.000000e-08	-6.382767e-06	-2.215655e-08	-4.583354e+01	-1.450134e+03
2.000000e-08	-6.377848e-06	-2.214965e-08	-4.579821e+01	-1.449627e+03
3.000000e-08	-6.370996e-06	-2.214058e-08	-4.574901e+01	-1.448982e+03
4.000000e-08	-6.361981e-06	-2.212666e-08	-4.568427e+01	-1.448190e+03
5.000000e-08	-6.350600e-06	-2.210434e-08	-4.560255e+01	-1.447244e+03
6.000000e-08	-6.336897e-06	-2.208368e-08	-4.550415e+01	-1.446137e+03
7.000000e-08	-6.320882e-06	-2.205613e-08	-4.538915e+01	-1.444868e+03
8.000000e-08	-6.302722e-06	-2.201958e-08	-4.525874e+01	-1.443443e+03
9.000000e-08	-6.282567e-06	-2.210581e-08	-4.511402e+01	-1.441874e+03
1.000000e-07	-6.260166e-06	-2.208369e-08	-4.495316e+01	-1.440184e+03
1.100000e-07	-6.235048e-06	-2.196396e-08	-4.477279e+01	-1.438399e+03
1.200000e-07	-6.207397e-06	-2.193286e-08	-4.457423e+01	-1.436543e+03
1.300000e-07	-6.177812e-06	-2.192246e-08	-4.436179e+01	-1.434637e+03
1.400000e-07	-6.146688e-06	-2.176026e-08	-4.413829e+01	-1.432686e+03
1.500000e-07	-6.113919e-06	-2.180415e-08	-4.390299e+01	-1.430683e+03
1.600000e-07	-6.079071e-06	-2.197257e-08	-4.365275e+01	-1.428601e+03
1.700000e-07	-6.042352e-06	-2.167459e-08	-4.338907e+01	-1.426399e+03
1.800000e-07	-6.003807e-06	-2.177104e-08	-4.311229e+01	-1.424029e+03
1.900000e-07	-5.962798e-06	-2.178160e-08	-4.281781e+01	-1.421439e+03
2.000000e-07	-5.919499e-06	-2.153874e-08	-4.250689e+01	-1.418589e+03
2.100000e-07	-5.874210e-06	-2.163341e-08	-4.218167e+01	-1.415450e+03
2.200000e-07	-5.826647e-06	-2.150087e-08	-4.184013e+01	-1.412014e+03
2.300000e-07	-5.776585e-06	-2.142456e-08	-4.148065e+01	-1.408293e+03
2.400000e-07	-5.723911e-06	-2.142517e-08	-4.110241e+01	-1.404310e+03
2.500000e-07	-5.669082e-06	-2.132402e-08	-4.070869e+01	-1.400101e+03
2.600000e-07	-5.612112e-06	-2.131064e-08	-4.029959e+01	-1.395695e+03
2.700000e-07	-5.552899e-06	-2.121717e-08	-3.987440e+01	-1.391115e+03
2.800000e-07	-5.491782e-06	-2.113284e-08	-3.943553e+01	-1.386368e+03
2.900000e-07	-5.428830e-06	-2.104322e-08	-3.898348e+01	-1.381442e+03
3.000000e-07	-5.363785e-06	-2.095945e-08	-3.851641e+01	-1.376315e+03
3.100000e-07	-5.296535e-06	-2.092099e-08	-3.803350e+01	-1.370952e+03
3.200000e-07	-5.227261e-06	-2.080682e-08	-3.753605e+01	-1.365320e+03
3.300000e-07	-5.156253e-06	-2.074713e-08	-3.702615e+01	-1.359394e+03
3.400000e-07	-5.083482e-06	-2.060578e-08	-3.650360e+01	-1.353157e+03
3.500000e-07	-5.008594e-06	-2.048895e-08	-3.596584e+01	-1.346610e+03
3.600000e-07	-4.931580e-06	-2.041583e-08	-3.541281e+01	-1.339760e+03
3.700000e-07	-4.852499e-06	-2.029010e-08	-3.484495e+01	-1.332622e+03
3.800000e-07	-4.771496e-06	-2.021083e-08	-3.426328e+01	-1.325209e+03
3.900000e-07	-4.688871e-06	-2.007602e-08	-3.366996e+01	-1.317525e+03
4.000000e-07	-4.604868e-06	-1.994316e-08	-3.306676e+01	-1.309562e+03
4.100000e-07	-4.519451e-06	-1.981209e-08	-3.245339e+01	-1.301301e+03
4.200000e-07	-4.432589e-06	-1.968790e-08	-3.182964e+01	-1.292712e+03
4.300000e-07	-4.344334e-06	-1.955942e-08	-3.119590e+01	-1.283760e+03
4.400000e-07	-4.254459e-06	-1.940335e-08	-3.055053e+01	-1.274414e+03
4.500000e-07	-4.162928e-06	-1.927058e-08	-2.989326e+01	-1.264650e+03
4.600000e-07	-4.069885e-06	-1.910602e-08	-2.922514e+01	-1.254453e+03
4.700000e-07	-3.975513e-06	-1.894762e-08	-2.854747e+01	-1.243818e+03
4.800000e-07	-3.879882e-06	-1.878025e-08	-2.786076e+01	-1.232747e+03
4.900000e-07	-3.782798e-06	-1.860453e-08	-2.716361e+01	-1.221239e+03
5.000000e-07	-3.684164e-06	-1.841213e-08	-2.645534e+01	-1.209286e+03
5.100000e-07	-3.584088e-06	-1.821291e-08	-2.573671e+01	-1.196872e+03
5.200000e-07	-3.482778e-06	-1.802071e-08	-2.500922e+01	-1.183963e+03
5.300000e-07	-3.380295e-06	-1.781187e-08	-2.427331e+01	-1.170516e+03
5.400000e-07	-3.276622e-06	-1.759910e-08	-2.352885e+01	-1.156479e+03
5.500000e-07	-3.171730e-06	-1.737145e-08	-2.277564e+01	-1.141797e+03
5.600000e-07	-3.065536e-06	-1.714100e-08	-2.201308e+01	-1.126421e+03
5.700000e-07	-2.958072e-06	-1.689177e-08	-2.124140e+01	-1.110305e+03
5.800000e-07	-2.849471e-06	-1.663345e-08	-2.046155e+01	-1.093413e+03
5.900000e-07	-2.739894e-06	-1.636004e-08	-1.967470e+01	-1.075713e+03
6.000000e-07	-2.629427e-06	-1.607207e-08	-1.888146e+01	-1.057169e+03
6.100000e-07	-2.517976e-06	-1.576990e-08	-1.808115e+01	-1.037742e+03
6.200000e-07	-2.405555e-06	-1.545738e-08	-1.727387e+01	-1.017379e+03
6.300000e-07	-2.292201e-06	-1.513654e-08	-1.645990e+01	-9.960117e+02
6.400000e-07	-2.177832e-06	-1.479516e-08	-1.563863e+01	-9.735590e+02
6.500000e-07	-2.062418e-06	-1.443547e-08	-1.480987e+01	-9.499271e+02
6.600000e-07	-1.946152e-06	-1.404971e-08	-1.397498e+01	-9.250154e+02
6.700000e-07	-1.829210e-06	-1.364570e-08	-1.313524e+01	-8.987204e+02
6.800000e-07	-1.711658e-06	-1.322560e-08	-1.229112e+01	-8.709388e+02
6.900000e-07	-1.593631e-06	-1.278477e-08	-1.144359e+01	-8.415691e+02
7.000000e-07	-1.475114e-06	-1.231298e-08	-1.059254e+01	-8.105111e+02
7.100000e-07	-1.356072e-06	-1.180728e-08	-9.737715e+00	-7.776665e+02
7.200000e-07	-1.236606e-06	-1.127332e-08	-8.879850e+00	-7.429413e+02
7.300000e-07	-1.116738e-06	-1.070995e-08	-8.019100e+00	-7.062517e+02
7.400000e-07	-9.964468e-07	-1.012072e-08	-7.155310e+00	-6.675363e+02
7.500000e-07	-8.757697e-07	-9.503820e-09	-6.288749e+00	-6.267709e+02
7.600000e-07	-7.547938e-07	-8.858107e-09	-5.420042e+00	-5.839869e+02
7.700000e-07	-6.336644e-07	-8.177561e-09	-4.550234e+00	-5.392857e+02
7.800000e-07	-5.123680e-07	-7.468444e-09	-3.679225e+00	-4.928478e+02
7.900000e-07	-3.908482e-07	-6.739440e-09	-2.806613e+00	-4.449292e+02
8.000000e-07	-2.692087e-07	-5.992766e-09	-1.933140e+00	-3.958451e+02
8.100000e-07	-1.474816e-07	-5.232404e-09	-1.059040e+00	-3.459395e+02
8.200000e-07	-2.564570e-08	-4.464383e-09	-1.841573e-01	-2.955448e+02
8.300000e-07	9.622754e-08	-3.696948e-09	6.909932e-01	-2.449380e+02
8.400000e-07	2.180919e-07	-2.925377e-09	1.566080e+00	-1.943007e+02
8.500000e-07	3.398916e-07	-2.155598e-09	2.440702e+00	-1.436920e+02
8.600000e-07	4.615548e-07	-1.384055e-09	3.314344e+00	-9.304088e+01
8.700000e-07	5.830765e-07	-6.069164e-10	4.186971e+00	-4.216164e+01
8.800000e-07	7.044261e-07	1.781209e-10	5.058361e+00	9.208810e+00
8.900000e-07	8.256147e-07	9.739269e-10	5.928595e+00	6.135654e+01
9.000000e-07	9.465975e-07	1.781049e-09	6.797351e+00	1.145282e+02
9.100000e-07	1.067265e-06	2.606024e-09	7.663841e+00	1.688713e+02
9.200000e-07	1.187538e-06	3.451156e-09	8.527501e+00	2.243878e+02
9.300000e-07	1.307357e-06	4.312982e-09	9.387906e+00	2.809094e+02
9.400000e-07	1.426673e-06	5.183199e-09	1.024469e+01	3.380992e+02
9.500000e-07	1.545395e-06	6.058439e-09	1.109721e+01	3.954782e+02
9.600000e-07	1.663541e-06	6.926205e-09	1.194560e+01	4.524739e+02
9.700000e-07	1.781164e-06	7.774761e-09	1.279023e+01	5.084797e+02
9.800000e-07	1.898141e-06	8.599601e-09	1.363022e+01	5.629170e+02
9.900000e-07	2.014344e-06	9.397806e-09	1.446465e+01	6.152885e+02
1.000000e-06	2.129705e-06	1.016247e-08	1.529304e+01	6.652165e+02
1.010000e-06	2.244068e-06	1.088013e-08	1.611426e+01	7.124608e+02
1.020000e-06	2.357408e-06	1.155368e-08	1.692813e+01	7.569166e+02
1.030000e-06	2.469851e-06	1.218161e-08	1.773557e+01	7.985958e+02
1.040000e-06	2.581304e-06	1.277126e-08	1.853589e+01	8.375977e+02
1.050000e-06	2.691719e-06	1.332427e-08	1.932876e+01	8.740763e+02
1.060000e-06	2.801262e-06	1.384423e-08	2.011537e+01	9.082097e+02
1.070000e-06	2.909976e-06	1.432928e-08	2.089603e+01	9.401774e+02
1.080000e-06	3.017781e-06	1.478163e-08	2.167016e+01	9.701461e+02
1.090000e-06	3.124424e-06	1.520683e-08	2.243594e+01	9.982648e+02
1.100000e-06	3.229817e-06	1.560701e-08	2.319275e+01	1.024667e+03
1.110000e-06	3.334061e-06	1.598532e-08	2.394131e+01	1.049473e+03
1.120000e-06	3.437057e-06	1.633955e-08	2.468091e+01	1.072801e+03
1.130000e-06	3.538843e-06	1.667519e-08	2.541181e+01	1.094762e+03
1.140000e-06	3.639568e-06	1.699040e-08	2.613510e+01	1.115466e+03
1.150000e-06	3.739033e-06	1.728899e-08	2.684934e+01	1.135018e+03
1.160000e-06	3.837006e-06	1.756852e-08	2.755287e+01	1.153511e+03
1.170000e-06	3.933457e-06	1.783194e-08	2.824547e+01	1.171027e+03
1.180000e-06	4.028458e-06	1.808296e-08	2.892765e+01	1.187633e+03
1.190000e-06	4.122094e-06	1.832395e-08	2.960004e+01	1.203382e+03
1.200000e-06	4.214532e-06	1.855149e-08	3.026382e+01	1.218318e+03
1.210000e-06	4.305569e-06	1.876763e-08	3.091754e+01	1.232477e+03
1.220000e-06	4.394901e-06	1.897093e-08	3.155902e+01	1.245899e+03
1.230000e-06	4.482509e-06	1.916138e-08	3.218811e+01	1.258623e+03
1.240000e-06	4.568482e-06	1.934047e-08	3.280547e+01	1.270692e+03
1.250000e-06	4.653046e-06	1.951118e-08	3.341271e+01	1.282154e+03
1.260000e-06	4.736066e-06	1.967696e-08	3.400886e+01	1.293052e+03
1.270000e-06	4.817310e-06	1.983610e-08	3.459226e+01	1.303424e+03
1.280000e-06	4.896678e-06	1.998868e-08	3.516219e+01	1.313302e+03
1.290000e-06	4.974187e-06	2.013397e-08	3.571877e+01	1.322701e+03
1.300000e-06	5.049816e-06	2.027128e-08	3.626185e+01	1.331633e+03
1.310000e-06	5.123442e-06	2.040137e-08	3.679054e+01	1.340098e+03
1.320000e-06	5.195067e-06	2.052539e-08	3.730487e+01	1.348096e+03
1.330000e-06	5.264802e-06	2.064211e-08	3.780562e+01	1.355632e+03
1.340000e-06	5.332767e-06	2.075049e-08	3.829367e+01	1.362717e+03
1.350000e-06	5.398818e-06	2.084888e-08	3.876797e+01	1.369371e+03
1.360000e-06	5.462826e-06	2.094036e-08	3.922760e+01	1.375627e+03
1.370000e-06	5.524868e-06	2.102968e-08	3.967311e+01	1.381521e+03
1.380000e-06	5.585185e-06	2.111743e-08	4.010624e+01	1.387095e+03
1.390000e-06	5.643610e-06	2.120125e-08	4.052578e+01	1.392386e+03
1.400000e-06	5.699813e-06	2.128034e-08	4.092936e+01	1.397427e+03
1.410000e-06	5.753955e-06	2.135366e-08	4.131814e+01	1.402240e+03
1.420000e-06	5.805917e-06	2.142196e-08	4.169127e+01	1.406836e+03
1.430000e-06	5.855409e-06	2.148545e-08	4.204667e+01	1.411218e+03
1.440000e-06	5.902590e-06	2.154562e-08	4.238547e+01	1.415380e+03
1.450000e-06	5.947787e-06	2.160369e-08	4.271002e+01	1.419314e+03
1.460000e-06	5.991025e-06	2.166059e-08	4.302050e+01	1.423008e+03
1.470000e-06	6.032013e-06	2.171563e-08	4.331483e+01	1.426455e+03
1.480000e-06	6.070807e-06	2.176654e-08	4.359340e+01	1.429649e+03
1.490000e-06	6.107682e-06	2.181188e-08	4.385820e+01	1.432590e+03
1.500000e-06	6.142409e-06	2.185140e-08	4.410757e+01	1.435279e+03
1.510000e-06	6.174805e-06	2.188737e-08	4.434020e+01	1.437722e+03
1.520000e-06	6.205056e-06	2.192071e-08	4.455742e+01	1.439927e+03
1.530000e-06	6.233335e-06	2.195021e-08	4.476049e+01	1.441903e+03
1.540000e-06	6.259274e-06	2.197545e-08	4.494676e+01	1.443658e+03
1.550000e-06	6.282730e-06	2.199780e-08	4.511519e+01	1.445202e+03
1.560000e-06	6.304028e-06	2.201861e-08	4.526813e+01	1.446543e+03
1.570000e-06	6.323276e-06	2.203900e-08	4.540634e+01	1.447688e+03
1.580000e-06	6.340228e-06	2.205595e-08	4.552807e+01	1.448645e+03
1.590000e-06	6.354710e-06	2.206974e-08	4.563206e+01	1.449419e+03
1.600000e-06	6.366779e-06	2.207965e-08	4.571873e+01	1.450019e+03
1.610000e-06	6.376226e-06	2.208524e-08	4.578656e+01	1.450451e+03
1.620000e-06	6.383176e-06	2.208791e-08	4.583647e+01	1.450721e+03
1.630000e-06	6.388036e-06	2.208839e-08	4.587137e+01	1.450838e+03
1.640000e-06	6.390681e-06	2.208811e-08	4.589037e+01	1.450809e+03
1.650000e-06	6.390992e-06	2.209374e-08	4.589260e+01	1.450640e+03
1.660000e-06	6.389160e-06	2.208694e-08	4.587944e+01	1.450336e+03
1.670000e-06	6.385403e-06	2.207905e-08	4.585247e+01	1.449898e+03
1.680000e-06	6.379406e-06	2.207099e-08	4.580940e+01	1.449322e+03
1.690000e-06	6.371152e-06	2.205969e-08	4.575013e+01	1.448605e+03
1.700000e-06	6.360983e-06	2.204940e-08	4.567711e+01	1.447737e+03
1.710000e-06	6.348664e-06	2.203936e-08	4.558865e+01	1.446711e+03
1.720000e-06	6.334004e-06	2.204241e-08	4.548337e+01	1.445523e+03
1.730000e-06	6.317285e-06	2.203544e-08	4.536332e+01	1.444175e+03
1.740000e-06	6.298662e-06	2.186316e-08	4.522960e+01	1.442675e+03
1.750000e-06	6.277284e-06	2.185184e-08	4.507608e+01	1.441043e+03
1.760000e-06	6.252636e-06	2.192363e-08	4.489909e+01	1.439302e+03
1.770000e-06	6.225542e-06	2.187052e-08	4.470453e+01	1.437478e+03
1.780000e-06	6.196600e-06	2.194218e-08	4.449670e+01	1.435596e+03
1.790000e-06	6.165892e-06	2.201568e-08	4.427619e+01	1.433667e+03
1.800000e-06	6.133858e-06	2.168133e-08	4.404616e+01	1.431692e+03
1.810000e-06	6.099954e-06	2.176116e-08	4.380271e+01	1.429654e+03
1.820000e-06	6.063950e-06	2.177806e-08	4.354417e+01	1.427518e+03
1.830000e-06	6.025991e-06	2.152461e-08	4.327159e+01	1.425238e+03
1.840000e-06	5.985598e-06	2.184755e-08	4.298153e+01	1.422764e+03
1.850000e-06	5.943116e-06	2.166039e-08	4.267648e+01	1.420049e+03
1.860000e-06	5.898739e-06	2.156951e-08	4.235781e+01	1.417057e+03
1.870000e-06	5.852112e-06	2.170204e-08	4.202299e+01	1.413769e+03
1.880000e-06	5.803433e-06	2.141092e-08	4.167344e+01	1.410188e+03
1.890000e-06	5.752466e-06	2.151683e-08	4.130745e+01	1.406332e+03
1.900000e-06	5.698826e-06	2.138474e-08	4.092227e+01	1.402232e+03
1.910000e-06	5.642871e-06	2.123849e-08	4.052047e+01	1.397921e+03
1.920000e-06	5.584785e-06	2.136354e-08	4.010337e+01	1.393426e+03
1.930000e-06	5.524896e-06	2.113554e-08	3.967331e+01	1.388763e+03
1.940000e-06	5.462942e-06	2.119024e-08	3.922843e+01	1.383929e+03
1.950000e-06	5.398761e-06	2.102287e-08	3.876756e+01	1.378906e+03
1.960000e-06	5.332647e-06	2.094708e-08	3.829280e+01	1.373665e+03
1.970000e-06	5.264576e-06	2.091602e-08	3.780400e+01	1.368171e+03
1.980000e-06	5.194437e-06	2.071513e-08	3.730034e+01	1.362395e+03
1.990000e-06	5.122215e-06	2.077379e-08	3.678173e+01	1.356315e+03
2.000000e-06	5.048228e-06	2.059298e-08	3.625044e+01	1.349922e+03
2.010000e-06	4.972315e-06	2.052015e-08	3.570532e+01	1.343222e+03
2.020000e-06	4.894228e-06	2.039705e-08	3.514460e+01	1.336226e+03
2.030000e-06	4.814240e-06	2.025112e-08	3.457022e+01	1.328949e+03
2.040000e-06	4.732568e-06	2.022290e-08	3.398375e+01	1.321401e+03
2.050000e-06	4.649411e-06	2.004957e-08	3.338661e+01	1.313579e+03
2.060000e-06	4.564673e-06	1.997229e-08	3.277812e+01	1.305471e+03
2.070000e-06	4.478229e-06	1.980254e-08	3.215738e+01	1.297050e+03
2.080000e-06	4.390184e-06	1.967770e-08	3.152514e+01	1.288284e+03
2.090000e-06	4.300582e-06	1.952678e-08	3.088173e+01	1.279138e+03
2.100000e-06	4.209624e-06	1.936716e-08	3.022858e+01	1.269586e+03
2.110000e-06	4.117299e-06	1.924861e-08	2.956561e+01	1.259606e+03
2.120000e-06	4.023518e-06	1.906759e-08	2.889218e+01	1.249190e+03
2.130000e-06	3.928193e-06	1.892234e-08	2.820767e+01	1.238337e+03
2.140000e-06	3.831401e-06	1.873511e-08	2.751262e+01	1.227048e+03
2.150000e-06	3.733274e-06	1.857922e-08	2.680799e+01	1.215319e+03
2.160000e-06	3.633901e-06	1.838849e-08	2.609441e+01	1.203139e+03
2.170000e-06	3.533267e-06	1.820084e-08	2.537178e+01	1.190482e+03
2.180000e-06	3.431223e-06	1.799570e-08	2.463902e+01	1.177310e+03
2.190000e-06	3.327759e-06	1.778142e-08	2.389606e+01	1.163575e+03
2.200000e-06	3.223050e-06	1.756411e-08	2.314416e+01	1.149222e+03
2.210000e-06	3.117271e-06	1.733287e-08	2.238458e+01	1.134199e+03
2.220000e-06	3.010368e-06	1.710226e-08	2.161693e+01	1.118458e+03
2.230000e-06	2.902364e-06	1.684832e-08	2.084137e+01	1.101958e+03
2.240000e-06	2.793414e-06	1.659669e-08	2.005902e+01	1.084666e+03
2.250000e-06	2.683514e-06	1.632574e-08	1.926984e+01	1.066548e+03
2.260000e-06	2.572529e-06	1.604361e-08	1.847288e+01	1.047569e+03
2.270000e-06	2.460486e-06	1.573135e-08	1.766832e+01	1.027681e+03
2.280000e-06	2.347515e-06	1.540921e-08	1.685709e+01	1.006826e+03
2.290000e-06	2.233570e-06	1.507113e-08	1.603888e+01	9.849266e+02
2.300000e-06	2.118753e-06	1.472092e-08	1.521440e+01	9.618966e+02
2.310000e-06	2.003175e-06	1.435552e-08	1.438445e+01	9.376377e+02
2.320000e-06	1.886802e-06	1.397020e-08	1.354880e+01	9.120473e+02
2.330000e-06	1.769664e-06	1.356115e-08	1.270765e+01	8.850218e+02
2.340000e-06	1.651856e-06	1.312194e-08	1.186169e+01	8.564588e+02
2.350000e-06	1.533418e-06	1.265922e-08	1.101120e+01	8.262573e+02
2.360000e-06	1.414306e-06	1.217044e-08	1.015588e+01	7.943181e+02
2.370000e-06	1.294631e-06	1.165941e-08	9.296522e+00	7.605446e+02
2.380000e-06	1.174504e-06	1.111331e-08	8.433907e+00	7.248466e+02
2.390000e-06	1.054024e-06	1.053616e-08	7.568760e+00	6.871498e+02
2.400000e-06	9.332410e-07	9.926718e-09	6.701441e+00	6.474094e+02
2.410000e-06	8.121926e-07	9.288512e-09	5.832214e+00	6.056267e+02
2.420000e-06	6.909418e-07	8.621516e-09	4.961533e+00	5.618666e+02
2.430000e-06	5.694861e-07	7.925542e-09	4.089380e+00	5.162695e+02
2.440000e-06	4.478383e-07	7.206149e-09	3.215848e+00	4.690550e+02
2.450000e-06	3.260658e-07	6.464594e-09	2.341422e+00	4.205116e+02
2.460000e-06	2.041347e-07	5.704989e-09	1.465855e+00	3.709734e+02
2.470000e-06	8.210573e-08	4.932937e-09	5.895869e-01	3.207841e+02
2.480000e-06	-3.989546e-08	4.158277e-09	-2.864824e-01	2.702539e+02
2.490000e-06	-1.619446e-07	3.384556e-09	-1.162896e+00	2.196164e+02
2.500000e-06	-2.839762e-07	2.612751e-09	-2.039183e+00	1.689942e+02
2.510000e-06	-4.058769e-07	1.843163e-09	-2.914531e+00	1.183810e+02
2.520000e-06	-5.277081e-07	1.072349e-09	-3.789380e+00	6.764498e+01
2.530000e-06	-6.493590e-07	2.932155e-10	-4.662934e+00	1.655587e+01
2.540000e-06	-7.707875e-07	-4.991917e-10	-5.534891e+00	-3.516843e+01
2.550000e-06	-8.920721e-07	-1.306017e-09	-6.405814e+00	-8.780220e+01
2.560000e-06	-1.013085e-06	-2.128313e-09	-7.274785e+00	-1.415494e+02
2.570000e-06	-1.133713e-06	-2.968258e-09	-8.140993e+00	-1.964893e+02
2.580000e-06	-1.253990e-06	-3.823791e-09	-9.004687e+00	-2.525403e+02
2.590000e-06	-1.373837e-06	-4.690932e-09	-9.865282e+00	-3.094479e+02
2.600000e-06	-1.493083e-06	-5.566792e-09	-1.072157e+01	-3.667993e+02
2.610000e-06	-1.611595e-06	-6.443172e-09	-1.157258e+01	-4.240618e+02
2.620000e-06	-1.729387e-06	-7.310045e-09	-1.241843e+01	-4.806381e+02
2.630000e-06	-1.846560e-06	-8.155316e-09	-1.325983e+01	-5.359279e+02
2.640000e-06	-1.962960e-06	-8.972510e-09	-1.409567e+01	-5.893877e+02
2.650000e-06	-2.078459e-06	-9.756680e-09	-1.492505e+01	-6.405762e+02
2.660000e-06	-2.193075e-06	-1.050154e-08	-1.574809e+01	-6.891837e+02
2.670000e-06	-2.306713e-06	-1.120544e-08	-1.656410e+01	-7.350390e+02
2.680000e-06	-2.419270e-06	-1.186439e-08	-1.737236e+01	-7.780988e+02
2.690000e-06	-2.530839e-06	-1.248072e-08	-1.817351e+01	-8.184227e+02
2.700000e-06	-2.641433e-06	-1.305894e-08	-1.896767e+01	-8.561415e+02
2.710000e-06	-2.750973e-06	-1.360363e-08	-1.975426e+01	-8.914247e+02
2.720000e-06	-2.859686e-06	-1.411317e-08	-2.053491e+01	-9.244534e+02
2.730000e-06	-2.967583e-06	-1.458771e-08	-2.130969e+01	-9.554019e+02
2.740000e-06	-3.074461e-06	-1.503365e-08	-2.207717e+01	-9.844280e+02
2.750000e-06	-3.180305e-06	-1.544989e-08	-2.283721e+01	-1.011673e+03
2.760000e-06	-3.285124e-06	-1.584080e-08	-2.358990e+01	-1.037262e+03
2.770000e-06	-3.388709e-06	-1.621020e-08	-2.433373e+01	-1.061315e+03
2.780000e-06	-3.490886e-06	-1.655786e-08	-2.506744e+01	-1.083945e+03
2.790000e-06	-3.591868e-06	-1.688297e-08	-2.579258e+01	-1.105264e+03
2.800000e-06	-3.691627e-06	-1.718884e-08	-2.650893e+01	-1.125380e+03
2.810000e-06	-3.790071e-06	-1.748021e-08	-2.721584e+01	-1.144391e+03
2.820000e-06	-3.887291e-06	-1.775611e-08	-2.791396e+01	-1.162387e+03
2.830000e-06	-3.983194e-06	-1.801549e-08	-2.860262e+01	-1.179440e+03
2.840000e-06	-4.077637e-06	-1.826193e-08	-2.928080e+01	-1.195612e+03
2.850000e-06	-4.170619e-06	-1.849866e-08	-2.994849e+01	-1.210949e+03
2.860000e-06	-4.262137e-06	-1.872498e-08	-3.060566e+01	-1.225492e+03
2.870000e-06	-4.352154e-06	-1.893924e-08	-3.125206e+01	-1.239278e+03
2.880000e-06	-4.440643e-06	-1.914172e-08	-3.188748e+01	-1.252345e+03
2.890000e-06	-4.527376e-06	-1.933124e-08	-3.251030e+01	-1.264736e+03
2.900000e-06	-4.612426e-06	-1.950954e-08	-3.312103e+01	-1.276496e+03
2.910000e-06	-4.695970e-06	-1.968024e-08	-3.372094e+01	-1.287671e+03
2.920000e-06	-4.777883e-06	-1.984279e-08	-3.430915e+01	-1.298302e+03
2.930000e-06	-4.858125e-06	-1.999751e-08	-3.488535e+01	-1.308424e+03
2.940000e-06	-4.936398e-06	-2.014492e-08	-3.544741e+01	-1.318060e+03
