# Temperatura_=_73.92
# Concentracion g/m^3_=_28200.0
# C_Vs_to_Am_M_A/Vsm_=_65563218390.804596
# pendiente_HvsI_1/m_=_3716.3
# ordenada_HvsI_A/m_=_1297.0
# frecuencia_Hz_=_302136.7175557618

Tiempo_(s)	Campo_(V.s)	Magnetizacion_(V.s)	Campo_(kA/m)	Magnetizacion_(A/m)
0.000000e+00	-6.412304e-06	-2.499006e-08	-4.585839e+01	-1.636967e+03
1.000000e-08	-6.409118e-06	-2.498837e-08	-4.583560e+01	-1.636540e+03
2.000000e-08	-6.403822e-06	-2.497950e-08	-4.579773e+01	-1.635942e+03
3.000000e-08	-6.396692e-06	-2.496799e-08	-4.574673e+01	-1.635164e+03
4.000000e-08	-6.387469e-06	-2.495043e-08	-4.568078e+01	-1.634196e+03
5.000000e-08	-6.375856e-06	-2.492622e-08	-4.559773e+01	-1.633035e+03
6.000000e-08	-6.361848e-06	-2.489991e-08	-4.549755e+01	-1.631684e+03
7.000000e-08	-6.345556e-06	-2.487226e-08	-4.538103e+01	-1.630155e+03
8.000000e-08	-6.327203e-06	-2.486728e-08	-4.524978e+01	-1.628473e+03
9.000000e-08	-6.306762e-06	-2.492290e-08	-4.510359e+01	-1.626666e+03
1.000000e-07	-6.283928e-06	-2.486451e-08	-4.494029e+01	-1.624762e+03
1.100000e-07	-6.258422e-06	-2.476324e-08	-4.475788e+01	-1.622785e+03
1.200000e-07	-6.230521e-06	-2.473037e-08	-4.455834e+01	-1.620745e+03
1.300000e-07	-6.200665e-06	-2.465841e-08	-4.434482e+01	-1.618631e+03
1.400000e-07	-6.169171e-06	-2.452090e-08	-4.411959e+01	-1.616416e+03
1.500000e-07	-6.136027e-06	-2.464547e-08	-4.388256e+01	-1.614049e+03
1.600000e-07	-6.100844e-06	-2.463923e-08	-4.363094e+01	-1.611474e+03
1.700000e-07	-6.063756e-06	-2.440823e-08	-4.336570e+01	-1.608627e+03
1.800000e-07	-6.024694e-06	-2.451648e-08	-4.308635e+01	-1.605458e+03
1.900000e-07	-5.983232e-06	-2.439881e-08	-4.278983e+01	-1.601931e+03
2.000000e-07	-5.939542e-06	-2.428476e-08	-4.247737e+01	-1.598037e+03
2.100000e-07	-5.893793e-06	-2.434721e-08	-4.215019e+01	-1.593795e+03
2.200000e-07	-5.845743e-06	-2.421402e-08	-4.180656e+01	-1.589243e+03
2.300000e-07	-5.795144e-06	-2.415874e-08	-4.144469e+01	-1.584434e+03
2.400000e-07	-5.742036e-06	-2.408544e-08	-4.106488e+01	-1.579422e+03
2.500000e-07	-5.686792e-06	-2.397967e-08	-4.066980e+01	-1.574248e+03
2.600000e-07	-5.629409e-06	-2.393028e-08	-4.025942e+01	-1.568937e+03
2.700000e-07	-5.569820e-06	-2.382485e-08	-3.983326e+01	-1.563488e+03
2.800000e-07	-5.508258e-06	-2.374213e-08	-3.939299e+01	-1.557875e+03
2.900000e-07	-5.444710e-06	-2.362946e-08	-3.893852e+01	-1.552056e+03
3.000000e-07	-5.379118e-06	-2.355675e-08	-3.846943e+01	-1.545983e+03
3.100000e-07	-5.311493e-06	-2.347184e-08	-3.798580e+01	-1.539611e+03
3.200000e-07	-5.241827e-06	-2.335488e-08	-3.748757e+01	-1.532906e+03
3.300000e-07	-5.170310e-06	-2.327063e-08	-3.697611e+01	-1.525854e+03
3.400000e-07	-5.096963e-06	-2.312621e-08	-3.645156e+01	-1.518459e+03
3.500000e-07	-5.021528e-06	-2.301603e-08	-3.591208e+01	-1.510734e+03
3.600000e-07	-4.943925e-06	-2.289526e-08	-3.535709e+01	-1.502702e+03
3.700000e-07	-4.864299e-06	-2.276534e-08	-3.478764e+01	-1.494378e+03
3.800000e-07	-4.782858e-06	-2.265596e-08	-3.420520e+01	-1.485765e+03
3.900000e-07	-4.699804e-06	-2.250872e-08	-3.361123e+01	-1.476854e+03
4.000000e-07	-4.615316e-06	-2.235670e-08	-3.300701e+01	-1.467619e+03
4.100000e-07	-4.529432e-06	-2.220572e-08	-3.239280e+01	-1.458027e+03
4.200000e-07	-4.442130e-06	-2.206333e-08	-3.176844e+01	-1.448040e+03
4.300000e-07	-4.353308e-06	-2.190446e-08	-3.113322e+01	-1.437628e+03
4.400000e-07	-4.262883e-06	-2.173022e-08	-3.048653e+01	-1.426772e+03
4.500000e-07	-4.170884e-06	-2.156197e-08	-2.982860e+01	-1.415463e+03
4.600000e-07	-4.077342e-06	-2.137353e-08	-2.915961e+01	-1.403704e+03
4.700000e-07	-3.982472e-06	-2.119063e-08	-2.848114e+01	-1.391497e+03
4.800000e-07	-3.886281e-06	-2.100465e-08	-2.779322e+01	-1.378842e+03
4.900000e-07	-3.788595e-06	-2.081025e-08	-2.709461e+01	-1.365726e+03
5.000000e-07	-3.689369e-06	-2.059898e-08	-2.638498e+01	-1.352120e+03
5.100000e-07	-3.588756e-06	-2.037462e-08	-2.566544e+01	-1.337981e+03
5.200000e-07	-3.486945e-06	-2.014418e-08	-2.493732e+01	-1.323256e+03
5.300000e-07	-3.383924e-06	-1.990191e-08	-2.420055e+01	-1.307887e+03
5.400000e-07	-3.279739e-06	-1.965827e-08	-2.345546e+01	-1.291825e+03
5.500000e-07	-3.174276e-06	-1.940164e-08	-2.270122e+01	-1.275028e+03
5.600000e-07	-3.067474e-06	-1.913666e-08	-2.193742e+01	-1.257468e+03
5.700000e-07	-2.959435e-06	-1.885456e-08	-2.116477e+01	-1.239128e+03
5.800000e-07	-2.850314e-06	-1.856309e-08	-2.038437e+01	-1.219989e+03
5.900000e-07	-2.740243e-06	-1.826244e-08	-1.959718e+01	-1.200026e+03
6.000000e-07	-2.629282e-06	-1.794562e-08	-1.880364e+01	-1.179196e+03
6.100000e-07	-2.517376e-06	-1.761015e-08	-1.800333e+01	-1.157434e+03
6.200000e-07	-2.404394e-06	-1.725511e-08	-1.719532e+01	-1.134650e+03
6.300000e-07	-2.290359e-06	-1.688533e-08	-1.637979e+01	-1.110737e+03
6.400000e-07	-2.175311e-06	-1.649566e-08	-1.555701e+01	-1.085579e+03
6.500000e-07	-2.059322e-06	-1.609143e-08	-1.472749e+01	-1.059060e+03
6.600000e-07	-1.942572e-06	-1.566594e-08	-1.389255e+01	-1.031070e+03
6.700000e-07	-1.825143e-06	-1.521799e-08	-1.305274e+01	-1.001513e+03
6.800000e-07	-1.707088e-06	-1.474617e-08	-1.220845e+01	-9.702997e+02
6.900000e-07	-1.588553e-06	-1.424538e-08	-1.136073e+01	-9.373406e+02
7.000000e-07	-1.469634e-06	-1.371445e-08	-1.051027e+01	-9.025378e+02
7.100000e-07	-1.350284e-06	-1.315161e-08	-9.656722e+00	-8.657768e+02
7.200000e-07	-1.230445e-06	-1.255942e-08	-8.799681e+00	-8.269266e+02
7.300000e-07	-1.110191e-06	-1.193010e-08	-7.939669e+00	-7.858495e+02
7.400000e-07	-9.895109e-07	-1.126605e-08	-7.076610e+00	-7.424218e+02
7.500000e-07	-8.683587e-07	-1.057001e-08	-6.210175e+00	-6.965615e+02
7.600000e-07	-7.467953e-07	-9.838253e-09	-5.340799e+00	-6.482597e+02
7.700000e-07	-6.248892e-07	-9.066041e-09	-4.468972e+00	-5.976061e+02
7.800000e-07	-5.027587e-07	-8.260301e-09	-3.595541e+00	-5.448016e+02
7.900000e-07	-3.804673e-07	-7.429006e-09	-2.720959e+00	-4.901527e+02
8.000000e-07	-2.580891e-07	-6.573381e-09	-1.845756e+00	-4.340446e+02
8.100000e-07	-1.356190e-07	-5.702805e-09	-9.698963e-01	-3.768956e+02
8.200000e-07	-1.302476e-08	-4.824324e-09	-9.314822e-02	-3.190996e+02
8.300000e-07	1.095548e-07	-3.942003e-09	7.834947e-01	-2.609672e+02
8.400000e-07	2.320699e-07	-3.053797e-09	1.659677e+00	-2.026776e+02
8.500000e-07	3.545567e-07	-2.163200e-09	2.535656e+00	-1.442523e+02
8.600000e-07	4.770018e-07	-1.270268e-09	3.411337e+00	-8.555719e+01
8.700000e-07	5.993087e-07	-3.696901e-10	4.286030e+00	-2.633563e+01
8.800000e-07	7.214578e-07	5.435188e-10	5.159595e+00	3.373183e+01
8.900000e-07	8.434141e-07	1.474567e-09	6.031781e+00	9.495146e+01
9.000000e-07	9.650238e-07	2.426279e-09	6.901487e+00	1.575371e+02
9.100000e-07	1.086144e-06	3.400524e-09	7.767695e+00	2.215429e+02
9.200000e-07	1.206737e-06	4.395462e-09	8.630129e+00	2.868197e+02
9.300000e-07	1.326789e-06	5.404084e-09	9.488697e+00	3.530048e+02
9.400000e-07	1.446316e-06	6.417601e-09	1.034351e+01	4.195450e+02
9.500000e-07	1.565383e-06	7.428168e-09	1.119503e+01	4.857510e+02
9.600000e-07	1.683989e-06	8.420008e-09	1.204325e+01	5.508707e+02
9.700000e-07	1.802042e-06	9.380345e-09	1.288753e+01	6.141702e+02
9.800000e-07	1.919404e-06	1.030181e-08	1.372686e+01	6.750080e+02
9.900000e-07	2.036013e-06	1.117830e-08	1.456080e+01	7.328909e+02
1.000000e-06	2.151778e-06	1.200847e-08	1.538871e+01	7.875039e+02
1.010000e-06	2.266606e-06	1.278362e-08	1.620991e+01	8.387133e+02
1.020000e-06	2.380482e-06	1.350742e-08	1.702431e+01	8.865452e+02
1.030000e-06	2.493202e-06	1.418531e-08	1.783044e+01	9.311463e+02
1.040000e-06	2.604831e-06	1.481923e-08	1.862877e+01	9.727384e+02
1.050000e-06	2.715577e-06	1.541091e-08	1.942079e+01	1.011573e+03
1.060000e-06	2.825429e-06	1.596387e-08	2.020640e+01	1.047898e+03
1.070000e-06	2.934399e-06	1.648060e-08	2.098572e+01	1.081933e+03
1.080000e-06	3.042421e-06	1.696130e-08	2.175825e+01	1.113862e+03
1.090000e-06	3.149493e-06	1.741128e-08	2.252399e+01	1.143838e+03
1.100000e-06	3.255375e-06	1.783669e-08	2.328122e+01	1.171993e+03
1.110000e-06	3.359794e-06	1.823953e-08	2.402798e+01	1.198448e+03
1.120000e-06	3.462946e-06	1.861903e-08	2.476569e+01	1.223324e+03
1.130000e-06	3.565004e-06	1.897695e-08	2.549557e+01	1.246744e+03
1.140000e-06	3.665897e-06	1.931450e-08	2.621712e+01	1.268836e+03
1.150000e-06	3.765655e-06	1.963595e-08	2.693055e+01	1.289721e+03
1.160000e-06	3.864072e-06	1.993828e-08	2.763439e+01	1.309510e+03
1.170000e-06	3.960792e-06	2.022295e-08	2.832610e+01	1.328298e+03
1.180000e-06	4.055975e-06	2.049213e-08	2.900681e+01	1.346157e+03
1.190000e-06	4.149862e-06	2.074639e-08	2.967825e+01	1.363138e+03
1.200000e-06	4.242427e-06	2.098964e-08	3.034024e+01	1.379280e+03
1.210000e-06	4.333624e-06	2.122403e-08	3.099245e+01	1.394611e+03
1.220000e-06	4.423127e-06	2.144715e-08	3.163254e+01	1.409162e+03
1.230000e-06	4.510841e-06	2.165847e-08	3.225984e+01	1.422968e+03
1.240000e-06	4.596998e-06	2.185643e-08	3.287600e+01	1.436071e+03
1.250000e-06	4.681645e-06	2.204171e-08	3.348136e+01	1.448523e+03
1.260000e-06	4.764777e-06	2.221895e-08	3.407589e+01	1.460378e+03
1.270000e-06	4.846140e-06	2.239138e-08	3.465777e+01	1.471687e+03
1.280000e-06	4.925557e-06	2.255871e-08	3.522573e+01	1.482492e+03
1.290000e-06	5.003126e-06	2.271818e-08	3.578048e+01	1.492825e+03
1.300000e-06	5.078876e-06	2.286819e-08	3.632221e+01	1.502701e+03
1.310000e-06	5.152587e-06	2.301111e-08	3.684937e+01	1.512124e+03
1.320000e-06	5.224262e-06	2.314895e-08	3.736196e+01	1.521091e+03
1.330000e-06	5.294065e-06	2.328038e-08	3.786116e+01	1.529595e+03
1.340000e-06	5.362095e-06	2.340545e-08	3.834768e+01	1.537633e+03
1.350000e-06	5.428099e-06	2.352173e-08	3.881972e+01	1.545209e+03
1.360000e-06	5.491970e-06	2.363071e-08	3.927651e+01	1.552338e+03
1.370000e-06	5.553964e-06	2.373263e-08	3.971986e+01	1.559044e+03
1.380000e-06	5.614243e-06	2.382868e-08	4.015096e+01	1.565359e+03
1.390000e-06	5.672646e-06	2.392175e-08	4.056863e+01	1.571318e+03
1.400000e-06	5.728884e-06	2.401041e-08	4.097082e+01	1.576956e+03
1.410000e-06	5.783041e-06	2.409399e-08	4.135813e+01	1.582304e+03
1.420000e-06	5.834934e-06	2.417067e-08	4.172925e+01	1.587387e+03
1.430000e-06	5.884343e-06	2.424200e-08	4.208260e+01	1.592219e+03
1.440000e-06	5.931494e-06	2.431146e-08	4.241981e+01	1.596809e+03
1.450000e-06	5.976677e-06	2.437879e-08	4.274295e+01	1.601160e+03
1.460000e-06	6.019850e-06	2.444347e-08	4.305170e+01	1.605268e+03
1.470000e-06	6.060771e-06	2.450459e-08	4.334435e+01	1.609128e+03
1.480000e-06	6.099492e-06	2.456081e-08	4.362127e+01	1.612735e+03
1.490000e-06	6.136281e-06	2.461199e-08	4.388437e+01	1.616085e+03
1.500000e-06	6.170921e-06	2.465869e-08	4.413211e+01	1.619176e+03
1.510000e-06	6.203219e-06	2.470158e-08	4.436309e+01	1.622006e+03
1.520000e-06	6.233313e-06	2.474139e-08	4.457831e+01	1.624579e+03
1.530000e-06	6.261369e-06	2.477733e-08	4.477895e+01	1.626896e+03
1.540000e-06	6.287159e-06	2.480856e-08	4.496339e+01	1.628961e+03
1.550000e-06	6.310471e-06	2.483606e-08	4.513011e+01	1.630780e+03
1.560000e-06	6.331656e-06	2.486086e-08	4.528162e+01	1.632358e+03
1.570000e-06	6.350726e-06	2.488294e-08	4.541800e+01	1.633700e+03
1.580000e-06	6.367412e-06	2.490113e-08	4.553733e+01	1.634814e+03
1.590000e-06	6.381688e-06	2.491576e-08	4.563943e+01	1.635710e+03
1.600000e-06	6.393522e-06	2.492781e-08	4.572406e+01	1.636397e+03
1.610000e-06	6.402848e-06	2.493731e-08	4.579076e+01	1.636889e+03
1.620000e-06	6.409723e-06	2.494355e-08	4.583993e+01	1.637197e+03
1.630000e-06	6.414437e-06	2.494697e-08	4.587364e+01	1.637333e+03
1.640000e-06	6.416979e-06	2.494759e-08	4.589182e+01	1.637306e+03
1.650000e-06	6.417088e-06	2.494830e-08	4.589260e+01	1.637120e+03
1.660000e-06	6.414953e-06	2.493801e-08	4.587733e+01	1.636774e+03
1.670000e-06	6.410764e-06	2.493094e-08	4.584737e+01	1.636263e+03
1.680000e-06	6.404437e-06	2.492316e-08	4.580213e+01	1.635576e+03
1.690000e-06	6.395996e-06	2.490983e-08	4.574176e+01	1.634704e+03
1.700000e-06	6.385568e-06	2.489564e-08	4.566718e+01	1.633640e+03
1.710000e-06	6.372957e-06	2.488092e-08	4.557699e+01	1.632383e+03
1.720000e-06	6.358022e-06	2.487623e-08	4.547018e+01	1.630940e+03
1.730000e-06	6.341081e-06	2.483001e-08	4.534903e+01	1.629332e+03
1.740000e-06	6.322143e-06	2.471051e-08	4.521359e+01	1.627583e+03
1.750000e-06	6.300418e-06	2.472230e-08	4.505822e+01	1.625724e+03
1.760000e-06	6.275505e-06	2.474685e-08	4.488005e+01	1.623782e+03
1.770000e-06	6.248139e-06	2.469053e-08	4.468434e+01	1.621773e+03
1.780000e-06	6.218814e-06	2.478785e-08	4.447462e+01	1.619699e+03
1.790000e-06	6.187814e-06	2.475145e-08	4.425292e+01	1.617539e+03
1.800000e-06	6.155499e-06	2.451795e-08	4.402181e+01	1.615255e+03
1.810000e-06	6.121285e-06	2.465793e-08	4.377713e+01	1.612792e+03
1.820000e-06	6.084961e-06	2.461019e-08	4.351735e+01	1.610088e+03
1.830000e-06	6.046612e-06	2.451376e-08	4.324309e+01	1.607086e+03
1.840000e-06	6.005870e-06	2.462402e-08	4.295173e+01	1.603740e+03
1.850000e-06	5.962987e-06	2.435005e-08	4.264504e+01	1.600029e+03
1.860000e-06	5.918142e-06	2.433691e-08	4.232433e+01	1.595958e+03
1.870000e-06	5.871097e-06	2.431579e-08	4.198788e+01	1.591555e+03
1.880000e-06	5.821957e-06	2.414847e-08	4.163645e+01	1.586868e+03
1.890000e-06	5.770290e-06	2.421270e-08	4.126694e+01	1.581950e+03
1.900000e-06	5.716018e-06	2.402953e-08	4.087881e+01	1.576853e+03
1.910000e-06	5.659620e-06	2.398252e-08	4.047547e+01	1.571610e+03
1.920000e-06	5.601176e-06	2.395682e-08	4.005750e+01	1.566231e+03
1.930000e-06	5.540819e-06	2.378005e-08	3.962585e+01	1.560704e+03
1.940000e-06	5.478383e-06	2.378013e-08	3.917933e+01	1.554994e+03
1.950000e-06	5.413818e-06	2.361586e-08	3.871759e+01	1.549054e+03
1.960000e-06	5.347238e-06	2.357791e-08	3.824143e+01	1.542837e+03
1.970000e-06	5.278602e-06	2.345030e-08	3.775058e+01	1.536301e+03
1.980000e-06	5.207934e-06	2.330476e-08	3.724518e+01	1.529424e+03
1.990000e-06	5.135302e-06	2.328108e-08	3.672575e+01	1.522199e+03
2.000000e-06	5.060862e-06	2.311083e-08	3.619338e+01	1.514636e+03
2.010000e-06	4.984385e-06	2.303030e-08	3.564645e+01	1.506756e+03
2.020000e-06	4.905784e-06	2.285612e-08	3.508432e+01	1.498576e+03
2.030000e-06	4.825385e-06	2.273369e-08	3.450934e+01	1.490108e+03
2.040000e-06	4.743314e-06	2.263090e-08	3.392240e+01	1.481348e+03
2.050000e-06	4.659771e-06	2.246971e-08	3.332493e+01	1.472279e+03
2.060000e-06	4.574590e-06	2.235575e-08	3.271575e+01	1.462870e+03
2.070000e-06	4.487640e-06	2.218282e-08	3.209391e+01	1.453085e+03
2.080000e-06	4.399100e-06	2.204356e-08	3.146071e+01	1.442889e+03
2.090000e-06	4.309068e-06	2.185920e-08	3.081684e+01	1.432256e+03
2.100000e-06	4.217628e-06	2.169702e-08	3.016289e+01	1.421174e+03
2.110000e-06	4.124744e-06	2.153619e-08	2.949862e+01	1.409640e+03
2.120000e-06	4.030379e-06	2.134878e-08	2.882376e+01	1.397656e+03
2.130000e-06	3.934515e-06	2.116219e-08	2.813817e+01	1.385226e+03
2.140000e-06	3.837273e-06	2.095319e-08	2.744273e+01	1.372343e+03
2.150000e-06	3.738791e-06	2.076120e-08	2.673843e+01	1.358986e+03
2.160000e-06	3.638957e-06	2.054643e-08	2.602445e+01	1.345120e+03
2.170000e-06	3.537651e-06	2.033796e-08	2.529995e+01	1.330695e+03
2.180000e-06	3.434960e-06	2.010743e-08	2.456555e+01	1.315655e+03
2.190000e-06	3.330923e-06	1.987082e-08	2.382151e+01	1.299945e+03
2.200000e-06	3.225668e-06	1.961497e-08	2.306876e+01	1.283520e+03
2.210000e-06	3.119381e-06	1.935188e-08	2.230864e+01	1.266345e+03
2.220000e-06	3.012042e-06	1.908320e-08	2.154099e+01	1.248397e+03
2.230000e-06	2.903614e-06	1.879886e-08	2.076555e+01	1.229660e+03
2.240000e-06	2.794096e-06	1.850531e-08	1.998233e+01	1.210113e+03
2.250000e-06	2.683490e-06	1.819621e-08	1.919131e+01	1.189723e+03
2.260000e-06	2.571880e-06	1.787504e-08	1.839311e+01	1.168437e+03
2.270000e-06	2.459310e-06	1.753100e-08	1.758806e+01	1.146176e+03
2.280000e-06	2.345709e-06	1.717720e-08	1.677563e+01	1.122842e+03
2.290000e-06	2.231166e-06	1.680250e-08	1.595646e+01	1.098321e+03
2.300000e-06	2.115849e-06	1.641103e-08	1.513175e+01	1.072497e+03
2.310000e-06	1.999675e-06	1.599795e-08	1.430092e+01	1.045255e+03
2.320000e-06	1.882559e-06	1.556350e-08	1.346335e+01	1.016493e+03
2.330000e-06	1.764671e-06	1.510180e-08	1.262027e+01	9.861190e+02
2.340000e-06	1.646151e-06	1.461097e-08	1.177265e+01	9.540442e+02
2.350000e-06	1.527024e-06	1.409373e-08	1.092070e+01	9.201764e+02
2.360000e-06	1.407343e-06	1.354648e-08	1.006479e+01	8.844099e+02
2.370000e-06	1.287183e-06	1.296870e-08	9.205452e+00	8.466215e+02
2.380000e-06	1.166625e-06	1.235607e-08	8.343262e+00	8.066748e+02
2.390000e-06	1.045794e-06	1.171068e-08	7.479127e+00	7.644359e+02
2.400000e-06	9.246393e-07	1.102793e-08	6.612673e+00	7.197983e+02
2.410000e-06	8.031655e-07	1.031014e-08	5.743937e+00	6.727127e+02
2.420000e-06	6.814193e-07	9.555843e-09	4.873255e+00	6.232170e+02
2.430000e-06	5.594211e-07	8.767640e-09	4.000769e+00	5.714558e+02
2.440000e-06	4.372777e-07	7.948171e-09	3.127245e+00	5.176850e+02
2.450000e-06	3.149863e-07	7.100150e-09	2.252664e+00	4.622550e+02
2.460000e-06	1.925608e-07	6.233680e-09	1.377122e+00	4.055743e+02
2.470000e-06	7.003143e-08	5.353444e-09	5.008385e-01	3.480565e+02
2.480000e-06	-5.255321e-08	4.467074e-09	-3.758408e-01	2.900607e+02
2.490000e-06	-1.751214e-07	3.575413e-09	-1.252402e+00	2.318369e+02
2.500000e-06	-2.976131e-07	2.680518e-09	-2.128417e+00	1.734869e+02
2.510000e-06	-4.200412e-07	1.786235e-09	-3.003976e+00	1.149522e+02
2.520000e-06	-5.424071e-07	8.843689e-10	-3.879091e+00	5.603155e+01
2.530000e-06	-6.645960e-07	-2.845811e-11	-4.752940e+00	-3.571962e+00
2.540000e-06	-7.865611e-07	-9.544711e-10	-5.625189e+00	-6.418121e+01
2.550000e-06	-9.082426e-07	-1.896574e-09	-6.495409e+00	-1.260658e+02
2.560000e-06	-1.029611e-06	-2.859658e-09	-7.363391e+00	-1.893668e+02
2.570000e-06	-1.150633e-06	-3.847631e-09	-8.228891e+00	-2.540402e+02
2.580000e-06	-1.271209e-06	-4.853266e-09	-9.091209e+00	-3.198293e+02
2.590000e-06	-1.391358e-06	-5.869008e-09	-9.950467e+00	-3.862712e+02
2.600000e-06	-1.511053e-06	-6.887802e-09	-1.080649e+01	-4.527363e+02
2.610000e-06	-1.630269e-06	-7.897658e-09	-1.165907e+01	-5.184939e+02
2.620000e-06	-1.748830e-06	-8.882873e-09	-1.250697e+01	-5.827910e+02
2.630000e-06	-1.866539e-06	-9.832776e-09	-1.334878e+01	-6.449316e+02
2.640000e-06	-1.983344e-06	-1.074002e-08	-1.418413e+01	-7.043429e+02
2.650000e-06	-2.099192e-06	-1.160092e-08	-1.501263e+01	-7.606186e+02
2.660000e-06	-2.214150e-06	-1.241209e-08	-1.583477e+01	-8.135358e+02
2.670000e-06	-2.328215e-06	-1.317071e-08	-1.665052e+01	-8.630446e+02
2.680000e-06	-2.441300e-06	-1.387804e-08	-1.745926e+01	-9.092369e+02
2.690000e-06	-2.553337e-06	-1.453806e-08	-1.826050e+01	-9.523030e+02
2.700000e-06	-2.664195e-06	-1.515583e-08	-1.905332e+01	-9.924846e+02
2.710000e-06	-2.774015e-06	-1.573459e-08	-1.983871e+01	-1.030035e+03
2.720000e-06	-2.882958e-06	-1.627803e-08	-2.061783e+01	-1.065189e+03
2.730000e-06	-2.991013e-06	-1.678470e-08	-2.139060e+01	-1.098150e+03
2.740000e-06	-3.098214e-06	-1.725712e-08	-2.215726e+01	-1.129085e+03
2.750000e-06	-3.204405e-06	-1.769827e-08	-2.291670e+01	-1.158136e+03
2.760000e-06	-3.309444e-06	-1.811107e-08	-2.366790e+01	-1.185426e+03
2.770000e-06	-3.413311e-06	-1.850271e-08	-2.441072e+01	-1.211076e+03
2.780000e-06	-3.515909e-06	-1.887478e-08	-2.514446e+01	-1.235208e+03
2.790000e-06	-3.617046e-06	-1.922542e-08	-2.586775e+01	-1.257948e+03
2.800000e-06	-3.716892e-06	-1.955470e-08	-2.658181e+01	-1.279422e+03
2.810000e-06	-3.815532e-06	-1.986570e-08	-2.728725e+01	-1.299746e+03
2.820000e-06	-3.912898e-06	-2.016137e-08	-2.798357e+01	-1.319025e+03
2.830000e-06	-4.009061e-06	-2.044112e-08	-2.867129e+01	-1.337340e+03
2.840000e-06	-4.103853e-06	-2.070620e-08	-2.934921e+01	-1.354754e+03
2.850000e-06	-4.197044e-06	-2.095802e-08	-3.001568e+01	-1.371312e+03
2.860000e-06	-4.288730e-06	-2.119749e-08	-3.067138e+01	-1.387045e+03
2.870000e-06	-4.378995e-06	-2.142606e-08	-3.131692e+01	-1.401982e+03
2.880000e-06	-4.467703e-06	-2.164403e-08	-3.195133e+01	-1.416156e+03
2.890000e-06	-4.554741e-06	-2.185231e-08	-3.257379e+01	-1.429604e+03
2.900000e-06	-4.639942e-06	-2.205067e-08	-3.318312e+01	-1.442375e+03
2.910000e-06	-4.723471e-06	-2.223980e-08	-3.378048e+01	-1.454522e+03
2.920000e-06	-4.805503e-06	-2.241853e-08	-3.436715e+01	-1.466098e+03
2.930000e-06	-4.886012e-06	-2.258682e-08	-3.494292e+01	-1.477150e+03
2.940000e-06	-4.964516e-06	-2.274650e-08	-3.550435e+01	-1.487716e+03
