# Temperatura_=_26.55
# Concentracion g/m^3_=_28200.0
# C_Vs_to_Am_M_A/Vsm_=_65563218390.804596
# pendiente_HvsI_1/m_=_3716.3
# ordenada_HvsI_A/m_=_1297.0
# frecuencia_Hz_=_302128.09855688503

Tiempo_(s)	Campo_(V.s)	Magnetizacion_(V.s)	Campo_(kA/m)	Magnetizacion_(A/m)
0.000000e+00	-6.381152e-06	-1.874245e-08	-4.585212e+01	-1.225470e+03
1.000000e-08	-6.378237e-06	-1.874427e-08	-4.583118e+01	-1.225094e+03
2.000000e-08	-6.373225e-06	-1.873772e-08	-4.579516e+01	-1.224583e+03
3.000000e-08	-6.366299e-06	-1.872875e-08	-4.574539e+01	-1.223949e+03
4.000000e-08	-6.357279e-06	-1.871651e-08	-4.568058e+01	-1.223206e+03
5.000000e-08	-6.345904e-06	-1.869801e-08	-4.559885e+01	-1.222361e+03
6.000000e-08	-6.332197e-06	-1.867765e-08	-4.550036e+01	-1.221412e+03
7.000000e-08	-6.316138e-06	-1.864771e-08	-4.538497e+01	-1.220350e+03
8.000000e-08	-6.297924e-06	-1.860504e-08	-4.525409e+01	-1.219159e+03
9.000000e-08	-6.277720e-06	-1.865041e-08	-4.510891e+01	-1.217822e+03
1.000000e-07	-6.255223e-06	-1.863517e-08	-4.494725e+01	-1.216321e+03
1.100000e-07	-6.230055e-06	-1.856009e-08	-4.476641e+01	-1.214650e+03
1.200000e-07	-6.202456e-06	-1.853842e-08	-4.456809e+01	-1.212815e+03
1.300000e-07	-6.172924e-06	-1.853820e-08	-4.435589e+01	-1.210831e+03
1.400000e-07	-6.141779e-06	-1.842409e-08	-4.413209e+01	-1.208727e+03
1.500000e-07	-6.109022e-06	-1.841831e-08	-4.389672e+01	-1.206535e+03
1.600000e-07	-6.074258e-06	-1.851432e-08	-4.364692e+01	-1.204281e+03
1.700000e-07	-6.037516e-06	-1.830313e-08	-4.338291e+01	-1.201982e+03
1.800000e-07	-5.998863e-06	-1.834405e-08	-4.310517e+01	-1.199635e+03
1.900000e-07	-5.957776e-06	-1.833491e-08	-4.280993e+01	-1.197220e+03
2.000000e-07	-5.914453e-06	-1.816989e-08	-4.249863e+01	-1.194697e+03
2.100000e-07	-5.869139e-06	-1.824335e-08	-4.217303e+01	-1.192017e+03
2.200000e-07	-5.821581e-06	-1.815445e-08	-4.183130e+01	-1.189126e+03
2.300000e-07	-5.771610e-06	-1.807999e-08	-4.147223e+01	-1.185979e+03
2.400000e-07	-5.719077e-06	-1.804820e-08	-4.109475e+01	-1.182547e+03
2.500000e-07	-5.664329e-06	-1.795503e-08	-4.070136e+01	-1.178821e+03
2.600000e-07	-5.607362e-06	-1.790210e-08	-4.029201e+01	-1.174811e+03
2.700000e-07	-5.548186e-06	-1.782033e-08	-3.986680e+01	-1.170545e+03
2.800000e-07	-5.487112e-06	-1.778285e-08	-3.942795e+01	-1.166056e+03
2.900000e-07	-5.424155e-06	-1.769434e-08	-3.897557e+01	-1.161378e+03
3.000000e-07	-5.359110e-06	-1.758944e-08	-3.850819e+01	-1.156534e+03
3.100000e-07	-5.291977e-06	-1.755433e-08	-3.802580e+01	-1.151530e+03
3.200000e-07	-5.222796e-06	-1.746097e-08	-3.752869e+01	-1.146358e+03
3.300000e-07	-5.151721e-06	-1.739342e-08	-3.701798e+01	-1.140993e+03
3.400000e-07	-5.078886e-06	-1.729409e-08	-3.649462e+01	-1.135402e+03
3.500000e-07	-5.004047e-06	-1.719606e-08	-3.595686e+01	-1.129552e+03
3.600000e-07	-4.927121e-06	-1.710161e-08	-3.540410e+01	-1.123413e+03
3.700000e-07	-4.848055e-06	-1.698489e-08	-3.483597e+01	-1.116967e+03
3.800000e-07	-4.767047e-06	-1.691304e-08	-3.425389e+01	-1.110209e+03
3.900000e-07	-4.684435e-06	-1.680032e-08	-3.366027e+01	-1.103143e+03
4.000000e-07	-4.600470e-06	-1.668916e-08	-3.305693e+01	-1.095780e+03
4.100000e-07	-4.515074e-06	-1.656562e-08	-3.244332e+01	-1.088130e+03
4.200000e-07	-4.428235e-06	-1.644213e-08	-3.181933e+01	-1.080199e+03
4.300000e-07	-4.340038e-06	-1.631958e-08	-3.118559e+01	-1.071984e+03
4.400000e-07	-4.250226e-06	-1.617743e-08	-3.054024e+01	-1.063472e+03
4.500000e-07	-4.158756e-06	-1.604944e-08	-2.988298e+01	-1.054641e+03
4.600000e-07	-4.065722e-06	-1.589955e-08	-2.921448e+01	-1.045465e+03
4.700000e-07	-3.971357e-06	-1.575494e-08	-2.853641e+01	-1.035915e+03
4.800000e-07	-3.875821e-06	-1.560472e-08	-2.784993e+01	-1.025968e+03
4.900000e-07	-3.778775e-06	-1.545007e-08	-2.715260e+01	-1.015602e+03
5.000000e-07	-3.680144e-06	-1.528325e-08	-2.644388e+01	-1.004802e+03
5.100000e-07	-3.580158e-06	-1.510961e-08	-2.572543e+01	-9.935549e+02
5.200000e-07	-3.478836e-06	-1.493129e-08	-2.499737e+01	-9.818461e+02
5.300000e-07	-3.376339e-06	-1.473708e-08	-2.426087e+01	-9.696581e+02
5.400000e-07	-3.272736e-06	-1.454543e-08	-2.351643e+01	-9.569661e+02
5.500000e-07	-3.167906e-06	-1.434202e-08	-2.276317e+01	-9.437378e+02
5.600000e-07	-3.061763e-06	-1.413046e-08	-2.200047e+01	-9.299335e+02
5.700000e-07	-2.954302e-06	-1.390472e-08	-2.122830e+01	-9.155087e+02
5.800000e-07	-2.845740e-06	-1.367422e-08	-2.044823e+01	-9.004164e+02
5.900000e-07	-2.736171e-06	-1.343093e-08	-1.966091e+01	-8.846102e+02
6.000000e-07	-2.625704e-06	-1.317747e-08	-1.886714e+01	-8.680460e+02
6.100000e-07	-2.514431e-06	-1.291381e-08	-1.806758e+01	-8.506829e+02
6.200000e-07	-2.402214e-06	-1.263490e-08	-1.726124e+01	-8.324814e+02
6.300000e-07	-2.288996e-06	-1.234157e-08	-1.644771e+01	-8.134025e+02
6.400000e-07	-2.174716e-06	-1.203103e-08	-1.562654e+01	-7.934040e+02
6.500000e-07	-2.059367e-06	-1.170993e-08	-1.479770e+01	-7.724387e+02
6.600000e-07	-1.943177e-06	-1.137240e-08	-1.396281e+01	-7.504523e+02
6.700000e-07	-1.826339e-06	-1.101949e-08	-1.312326e+01	-7.273830e+02
6.800000e-07	-1.708879e-06	-1.064944e-08	-1.227925e+01	-7.031624e+02
6.900000e-07	-1.590851e-06	-1.025846e-08	-1.143115e+01	-6.777178e+02
7.000000e-07	-1.472357e-06	-9.846490e-09	-1.057970e+01	-6.509762e+02
7.100000e-07	-1.353472e-06	-9.418364e-09	-9.725450e+00	-6.228699e+02
7.200000e-07	-1.234198e-06	-8.971213e-09	-8.868402e+00	-5.933429e+02
7.300000e-07	-1.114546e-06	-8.499315e-09	-8.008631e+00	-5.623595e+02
7.400000e-07	-9.944955e-07	-8.004356e-09	-7.146003e+00	-5.299128e+02
7.500000e-07	-8.740232e-07	-7.488111e-09	-6.280342e+00	-4.960333e+02
7.600000e-07	-7.531757e-07	-6.953636e-09	-5.411986e+00	-4.607961e+02
7.700000e-07	-6.320324e-07	-6.397975e-09	-4.541504e+00	-4.243253e+02
7.800000e-07	-5.106824e-07	-5.827440e-09	-3.669537e+00	-3.867923e+02
7.900000e-07	-3.891809e-07	-5.248016e-09	-2.796481e+00	-3.484091e+02
8.000000e-07	-2.675594e-07	-4.658458e-09	-1.922563e+00	-3.094139e+02
8.100000e-07	-1.457883e-07	-4.060842e-09	-1.047570e+00	-2.700501e+02
8.200000e-07	-2.387728e-08	-3.460234e-09	-1.715716e-01	-2.305419e+02
8.300000e-07	9.804510e-08	-2.862808e-09	7.045086e-01	-1.910676e+02
8.400000e-07	2.199759e-07	-2.265907e-09	1.580649e+00	-1.517371e+02
8.500000e-07	3.419022e-07	-1.672273e-09	2.456758e+00	-1.125767e+02
8.600000e-07	4.637315e-07	-1.080444e-09	3.332169e+00	-7.352464e+01
8.700000e-07	5.853794e-07	-4.876795e-10	4.206277e+00	-3.444078e+01
8.800000e-07	7.067976e-07	1.107722e-10	5.078733e+00	4.871576e+00
8.900000e-07	8.280384e-07	7.170443e-10	5.949917e+00	4.463269e+01
9.000000e-07	9.490166e-07	1.332536e-09	6.819212e+00	8.504780e+01
9.100000e-07	1.069542e-06	1.961395e-09	7.685253e+00	1.262686e+02
9.200000e-07	1.189573e-06	2.602470e-09	8.547743e+00	1.683609e+02
9.300000e-07	1.309102e-06	3.254541e-09	9.406629e+00	2.112841e+02
9.400000e-07	1.428191e-06	3.915220e-09	1.026235e+01	2.548854e+02
9.500000e-07	1.546867e-06	4.583660e-09	1.111510e+01	2.989097e+02
9.600000e-07	1.664983e-06	5.251951e-09	1.196383e+01	3.430230e+02
9.700000e-07	1.782484e-06	5.912972e-09	1.280814e+01	3.868452e+02
9.800000e-07	1.899328e-06	6.565189e-09	1.364773e+01	4.299870e+02
9.900000e-07	2.015414e-06	7.206354e-09	1.448187e+01	4.720847e+02
1.000000e-06	2.130682e-06	7.833047e-09	1.531013e+01	5.128277e+02
1.010000e-06	2.245050e-06	8.432348e-09	1.613194e+01	5.519767e+02
1.020000e-06	2.358311e-06	9.001606e-09	1.694578e+01	5.893700e+02
1.030000e-06	2.470427e-06	9.538429e-09	1.775139e+01	6.249204e+02
1.040000e-06	2.581623e-06	1.004471e-08	1.855040e+01	6.586048e+02
1.050000e-06	2.692015e-06	1.052484e-08	1.934362e+01	6.904491e+02
1.060000e-06	2.801564e-06	1.098369e-08	2.013080e+01	7.205137e+02
1.070000e-06	2.910153e-06	1.141802e-08	2.091107e+01	7.488798e+02
1.080000e-06	3.017816e-06	1.182454e-08	2.168469e+01	7.756399e+02
1.090000e-06	3.124498e-06	1.220699e-08	2.245125e+01	8.008913e+02
1.100000e-06	3.229887e-06	1.256883e-08	2.320854e+01	8.247328e+02
1.110000e-06	3.333904e-06	1.291152e-08	2.395595e+01	8.472625e+02
1.120000e-06	3.436708e-06	1.323387e-08	2.469466e+01	8.685757e+02
1.130000e-06	3.538358e-06	1.354012e-08	2.542507e+01	8.887632e+02
1.140000e-06	3.638868e-06	1.383060e-08	2.614729e+01	9.079079e+02
1.150000e-06	3.738251e-06	1.410644e-08	2.686141e+01	9.260828e+02
1.160000e-06	3.836250e-06	1.436610e-08	2.756559e+01	9.433486e+02
1.170000e-06	3.932592e-06	1.461355e-08	2.825786e+01	9.597541e+02
1.180000e-06	4.027463e-06	1.484946e-08	2.893956e+01	9.753381e+02
1.190000e-06	4.121072e-06	1.507611e-08	2.961220e+01	9.901328e+02
1.200000e-06	4.213363e-06	1.529017e-08	3.027535e+01	1.004169e+03
1.210000e-06	4.304269e-06	1.549107e-08	3.092857e+01	1.017480e+03
1.220000e-06	4.393449e-06	1.567888e-08	3.156938e+01	1.030105e+03
1.230000e-06	4.480881e-06	1.585584e-08	3.219762e+01	1.042088e+03
1.240000e-06	4.566810e-06	1.602648e-08	3.281507e+01	1.053477e+03
1.250000e-06	4.651250e-06	1.619072e-08	3.342182e+01	1.064320e+03
1.260000e-06	4.734176e-06	1.634917e-08	3.401768e+01	1.074657e+03
1.270000e-06	4.815315e-06	1.650109e-08	3.460072e+01	1.084520e+03
1.280000e-06	4.894533e-06	1.664651e-08	3.516994e+01	1.093928e+03
1.290000e-06	4.971947e-06	1.678386e-08	3.572620e+01	1.102886e+03
1.300000e-06	5.047501e-06	1.691302e-08	3.626910e+01	1.111392e+03
1.310000e-06	5.120971e-06	1.703426e-08	3.679703e+01	1.119441e+03
1.320000e-06	5.192465e-06	1.714847e-08	3.731075e+01	1.127029e+03
1.330000e-06	5.262158e-06	1.725680e-08	3.781153e+01	1.134163e+03
1.340000e-06	5.330089e-06	1.735785e-08	3.829965e+01	1.140861e+03
1.350000e-06	5.396005e-06	1.745324e-08	3.877330e+01	1.147154e+03
1.360000e-06	5.459815e-06	1.754386e-08	3.923180e+01	1.153083e+03
1.370000e-06	5.521794e-06	1.762915e-08	3.967716e+01	1.158692e+03
1.380000e-06	5.582042e-06	1.771103e-08	4.011008e+01	1.164026e+03
1.390000e-06	5.640317e-06	1.778799e-08	4.052881e+01	1.169120e+03
1.400000e-06	5.696460e-06	1.786090e-08	4.093223e+01	1.174000e+03
1.410000e-06	5.750588e-06	1.793065e-08	4.132117e+01	1.178676e+03
1.420000e-06	5.802535e-06	1.799723e-08	4.169444e+01	1.183148e+03
1.430000e-06	5.851982e-06	1.806094e-08	4.204975e+01	1.187408e+03
1.440000e-06	5.899062e-06	1.812137e-08	4.238804e+01	1.191442e+03
1.450000e-06	5.944192e-06	1.817844e-08	4.271232e+01	1.195239e+03
1.460000e-06	5.987393e-06	1.823252e-08	4.302275e+01	1.198789e+03
1.470000e-06	6.028349e-06	1.828443e-08	4.331704e+01	1.202088e+03
1.480000e-06	6.067072e-06	1.833165e-08	4.359529e+01	1.205138e+03
1.490000e-06	6.103860e-06	1.837139e-08	4.385963e+01	1.207944e+03
1.500000e-06	6.138531e-06	1.840561e-08	4.410876e+01	1.210511e+03
1.510000e-06	6.170916e-06	1.843719e-08	4.434146e+01	1.212849e+03
1.520000e-06	6.201149e-06	1.846713e-08	4.455870e+01	1.214962e+03
1.530000e-06	6.229369e-06	1.849571e-08	4.476148e+01	1.216859e+03
1.540000e-06	6.255274e-06	1.852224e-08	4.494762e+01	1.218545e+03
1.550000e-06	6.278686e-06	1.854587e-08	4.511585e+01	1.220030e+03
1.560000e-06	6.299886e-06	1.856657e-08	4.526819e+01	1.221323e+03
1.570000e-06	6.318981e-06	1.858364e-08	4.540539e+01	1.222435e+03
1.580000e-06	6.335837e-06	1.859775e-08	4.552651e+01	1.223377e+03
1.590000e-06	6.350307e-06	1.860917e-08	4.563049e+01	1.224158e+03
1.600000e-06	6.362419e-06	1.861732e-08	4.571752e+01	1.224784e+03
1.610000e-06	6.371992e-06	1.862290e-08	4.578631e+01	1.225259e+03
1.620000e-06	6.379027e-06	1.862716e-08	4.583686e+01	1.225580e+03
1.630000e-06	6.383914e-06	1.863150e-08	4.587197e+01	1.225746e+03
1.640000e-06	6.386523e-06	1.863328e-08	4.589072e+01	1.225753e+03
1.650000e-06	6.386785e-06	1.863779e-08	4.589260e+01	1.225603e+03
1.660000e-06	6.384941e-06	1.863353e-08	4.587935e+01	1.225300e+03
1.670000e-06	6.381142e-06	1.862739e-08	4.585205e+01	1.224855e+03
1.680000e-06	6.375077e-06	1.861918e-08	4.580847e+01	1.224280e+03
1.690000e-06	6.366728e-06	1.860955e-08	4.574848e+01	1.223591e+03
1.700000e-06	6.356435e-06	1.859935e-08	4.567452e+01	1.222796e+03
1.710000e-06	6.344062e-06	1.858751e-08	4.558561e+01	1.221899e+03
1.720000e-06	6.329446e-06	1.858912e-08	4.548059e+01	1.220896e+03
1.730000e-06	6.312755e-06	1.859452e-08	4.536065e+01	1.219772e+03
1.740000e-06	6.294108e-06	1.848543e-08	4.522666e+01	1.218510e+03
1.750000e-06	6.272679e-06	1.846948e-08	4.507269e+01	1.217092e+03
1.760000e-06	6.248007e-06	1.850251e-08	4.489540e+01	1.215507e+03
1.770000e-06	6.220929e-06	1.845385e-08	4.470083e+01	1.213752e+03
1.780000e-06	6.191954e-06	1.847693e-08	4.449263e+01	1.211840e+03
1.790000e-06	6.161213e-06	1.851204e-08	4.427174e+01	1.209792e+03
1.800000e-06	6.129155e-06	1.828899e-08	4.404139e+01	1.207640e+03
1.810000e-06	6.095250e-06	1.837421e-08	4.379776e+01	1.205414e+03
1.820000e-06	6.059239e-06	1.833257e-08	4.353900e+01	1.203137e+03
1.830000e-06	6.021214e-06	1.809382e-08	4.326577e+01	1.200815e+03
1.840000e-06	5.980791e-06	1.834036e-08	4.297531e+01	1.198438e+03
1.850000e-06	5.938260e-06	1.824004e-08	4.266970e+01	1.195975e+03
1.860000e-06	5.893790e-06	1.817030e-08	4.235016e+01	1.193380e+03
1.870000e-06	5.847152e-06	1.821036e-08	4.201504e+01	1.190601e+03
1.880000e-06	5.798430e-06	1.801807e-08	4.166495e+01	1.187586e+03
1.890000e-06	5.747366e-06	1.811126e-08	4.129802e+01	1.184300e+03
1.900000e-06	5.693641e-06	1.802703e-08	4.091198e+01	1.180721e+03
1.910000e-06	5.637644e-06	1.791992e-08	4.050961e+01	1.176850e+03
1.920000e-06	5.579569e-06	1.794757e-08	4.009230e+01	1.172708e+03
1.930000e-06	5.519681e-06	1.777473e-08	3.966198e+01	1.168326e+03
1.940000e-06	5.457745e-06	1.782133e-08	3.921693e+01	1.163739e+03
1.950000e-06	5.393584e-06	1.768456e-08	3.875590e+01	1.158976e+03
1.960000e-06	5.327470e-06	1.762296e-08	3.828083e+01	1.154052e+03
1.970000e-06	5.259438e-06	1.759257e-08	3.779199e+01	1.148966e+03
1.980000e-06	5.189305e-06	1.742255e-08	3.728804e+01	1.143702e+03
1.990000e-06	5.117011e-06	1.741095e-08	3.676857e+01	1.138228e+03
2.000000e-06	5.043015e-06	1.727554e-08	3.623686e+01	1.132512e+03
2.010000e-06	4.967157e-06	1.722934e-08	3.569179e+01	1.126520e+03
2.020000e-06	4.889166e-06	1.712063e-08	3.513138e+01	1.120229e+03
2.030000e-06	4.809282e-06	1.699186e-08	3.455736e+01	1.113627e+03
2.040000e-06	4.727689e-06	1.692889e-08	3.397107e+01	1.106714e+03
2.050000e-06	4.644612e-06	1.678056e-08	3.337412e+01	1.099498e+03
2.060000e-06	4.559934e-06	1.670105e-08	3.276566e+01	1.091990e+03
2.070000e-06	4.473495e-06	1.656217e-08	3.214455e+01	1.084200e+03
2.080000e-06	4.385466e-06	1.645918e-08	3.151202e+01	1.076128e+03
2.090000e-06	4.295897e-06	1.632153e-08	3.086841e+01	1.067767e+03
2.100000e-06	4.204961e-06	1.617973e-08	3.021498e+01	1.059098e+03
2.110000e-06	4.112656e-06	1.606605e-08	2.955172e+01	1.050098e+03
2.120000e-06	4.018835e-06	1.591270e-08	2.887756e+01	1.040738e+03
2.130000e-06	3.923495e-06	1.577523e-08	2.819249e+01	1.030993e+03
2.140000e-06	3.826750e-06	1.560391e-08	2.749732e+01	1.020838e+03
2.150000e-06	3.728679e-06	1.545469e-08	2.679263e+01	1.010257e+03
2.160000e-06	3.629408e-06	1.528115e-08	2.607932e+01	9.992353e+02
2.170000e-06	3.528873e-06	1.511526e-08	2.535692e+01	9.877592e+02
2.180000e-06	3.426835e-06	1.493396e-08	2.462371e+01	9.758134e+02
2.190000e-06	3.323367e-06	1.474468e-08	2.388024e+01	9.633769e+02
2.200000e-06	3.218681e-06	1.454883e-08	2.312801e+01	9.504213e+02
2.210000e-06	3.112887e-06	1.434109e-08	2.236783e+01	9.369103e+02
2.220000e-06	3.006025e-06	1.413104e-08	2.159996e+01	9.228016e+02
2.230000e-06	2.898215e-06	1.390670e-08	2.082528e+01	9.080489e+02
2.240000e-06	2.789484e-06	1.367748e-08	2.004399e+01	8.926053e+02
2.250000e-06	2.679686e-06	1.342621e-08	1.925504e+01	8.764255e+02
2.260000e-06	2.568734e-06	1.317050e-08	1.845778e+01	8.594668e+02
2.270000e-06	2.456772e-06	1.289927e-08	1.765328e+01	8.416894e+02
2.280000e-06	2.343883e-06	1.262091e-08	1.684210e+01	8.230542e+02
2.290000e-06	2.229978e-06	1.232358e-08	1.602363e+01	8.035210e+02
2.300000e-06	2.115238e-06	1.201270e-08	1.519916e+01	7.830454e+02
2.310000e-06	1.999835e-06	1.168818e-08	1.436992e+01	7.615768e+02
2.320000e-06	1.883582e-06	1.134666e-08	1.353458e+01	7.390571e+02
2.330000e-06	1.766424e-06	1.098903e-08	1.269274e+01	7.154211e+02
2.340000e-06	1.648552e-06	1.061338e-08	1.184576e+01	6.905977e+02
2.350000e-06	1.530068e-06	1.021714e-08	1.099439e+01	6.645136e+02
2.360000e-06	1.410966e-06	9.795799e-09	1.013858e+01	6.370975e+02
2.370000e-06	1.291346e-06	9.355204e-09	9.279040e+00	6.082868e+02
2.380000e-06	1.171343e-06	8.893199e-09	8.416753e+00	5.780345e+02
2.390000e-06	1.050982e-06	8.412427e-09	7.551889e+00	5.463182e+02
2.400000e-06	9.303198e-07	7.906882e-09	6.684865e+00	5.131486e+02
2.410000e-06	8.094003e-07	7.377881e-09	5.815991e+00	4.785778e+02
2.420000e-06	6.882277e-07	6.827261e-09	4.945299e+00	4.427053e+02
2.430000e-06	5.668065e-07	6.259776e-09	4.072820e+00	4.056791e+02
2.440000e-06	4.452082e-07	5.678601e-09	3.199069e+00	3.676925e+02
2.450000e-06	3.235401e-07	5.083662e-09	2.324816e+00	3.289726e+02
2.460000e-06	2.017615e-07	4.479694e-09	1.449769e+00	2.897633e+02
2.470000e-06	7.984063e-08	3.871795e-09	5.736993e-01	2.503015e+02
2.480000e-06	-4.218777e-08	3.265401e-09	-3.031426e-01	2.107918e+02
2.490000e-06	-1.642024e-07	2.661453e-09	-1.179885e+00	1.713807e+02
2.500000e-06	-2.862001e-07	2.059838e-09	-2.056507e+00	1.321375e+02
2.510000e-06	-4.081612e-07	1.463402e-09	-2.932865e+00	9.304423e+01
2.520000e-06	-5.299219e-07	8.689193e-10	-3.807783e+00	5.399800e+01
2.530000e-06	-6.515212e-07	2.684090e-10	-4.681542e+00	1.482681e+01
2.540000e-06	-7.729250e-07	-3.397747e-10	-5.553896e+00	-2.468239e+01
2.550000e-06	-8.940566e-07	-9.540808e-10	-6.424294e+00	-6.474734e+01
2.560000e-06	-1.014900e-06	-1.575924e-09	-7.292619e+00	-1.055510e+02
2.570000e-06	-1.135381e-06	-2.211812e-09	-8.158341e+00	-1.472057e+02
2.580000e-06	-1.255462e-06	-2.862552e-09	-9.021193e+00	-1.897256e+02
2.590000e-06	-1.375085e-06	-3.525744e-09	-9.880754e+00	-2.330138e+02
2.600000e-06	-1.494212e-06	-4.199387e-09	-1.073675e+01	-2.768641e+02
2.610000e-06	-1.612864e-06	-4.876050e-09	-1.158932e+01	-3.209783e+02
2.620000e-06	-1.730854e-06	-5.549119e-09	-1.243715e+01	-3.649950e+02
2.630000e-06	-1.847919e-06	-6.213685e-09	-1.327833e+01	-4.085248e+02
2.640000e-06	-1.964020e-06	-6.866182e-09	-1.411257e+01	-4.511873e+02
2.650000e-06	-2.079306e-06	-7.501727e-09	-1.494097e+01	-4.926423e+02
2.660000e-06	-2.193733e-06	-8.115757e-09	-1.576319e+01	-5.326134e+02
2.670000e-06	-2.307213e-06	-8.704342e-09	-1.657861e+01	-5.708999e+02
2.680000e-06	-2.419733e-06	-9.263881e-09	-1.738713e+01	-6.073783e+02
2.690000e-06	-2.531122e-06	-9.793193e-09	-1.818752e+01	-6.419952e+02
2.700000e-06	-2.641405e-06	-1.029120e-08	-1.897997e+01	-6.747538e+02
2.710000e-06	-2.750802e-06	-1.076221e-08	-1.976604e+01	-7.056992e+02
2.720000e-06	-2.859359e-06	-1.120974e-08	-2.054608e+01	-7.349035e+02
2.730000e-06	-2.967036e-06	-1.163193e-08	-2.131981e+01	-7.624546e+02
2.740000e-06	-3.073807e-06	-1.203073e-08	-2.208701e+01	-7.884480e+02
2.750000e-06	-3.179551e-06	-1.241032e-08	-2.284684e+01	-8.129821e+02
2.760000e-06	-3.284228e-06	-1.276922e-08	-2.359900e+01	-8.361556e+02
2.770000e-06	-3.387761e-06	-1.310505e-08	-2.434295e+01	-8.580653e+02
2.780000e-06	-3.489942e-06	-1.342073e-08	-2.507717e+01	-8.788048e+02
2.790000e-06	-3.590713e-06	-1.372095e-08	-2.580127e+01	-8.984611e+02
2.800000e-06	-3.690211e-06	-1.400756e-08	-2.651622e+01	-9.171125e+02
2.810000e-06	-3.788542e-06	-1.427968e-08	-2.722278e+01	-9.348260e+02
2.820000e-06	-3.885630e-06	-1.453566e-08	-2.792041e+01	-9.516563e+02
2.830000e-06	-3.981465e-06	-1.477788e-08	-2.860904e+01	-9.676467e+02
2.840000e-06	-4.075880e-06	-1.501101e-08	-2.928747e+01	-9.828322e+02
2.850000e-06	-4.168681e-06	-1.523570e-08	-2.995429e+01	-9.972438e+02
2.860000e-06	-4.260041e-06	-1.545163e-08	-3.061077e+01	-1.010913e+03
2.870000e-06	-4.349974e-06	-1.565539e-08	-3.125698e+01	-1.023876e+03
2.880000e-06	-4.438324e-06	-1.584554e-08	-3.189183e+01	-1.036174e+03
2.890000e-06	-4.525016e-06	-1.602294e-08	-3.251476e+01	-1.047854e+03
2.900000e-06	-4.609961e-06	-1.618972e-08	-3.312513e+01	-1.058964e+03
2.910000e-06	-4.693261e-06	-1.634983e-08	-3.372369e+01	-1.069549e+03
2.920000e-06	-4.775050e-06	-1.650427e-08	-3.431139e+01	-1.079646e+03
2.930000e-06	-4.855229e-06	-1.665275e-08	-3.488752e+01	-1.089280e+03
2.940000e-06	-4.933440e-06	-1.679479e-08	-3.544951e+01	-1.098463e+03
