# Temperatura_=_69.69
# Concentracion g/m^3_=_28200.0
# C_Vs_to_Am_M_A/Vsm_=_65563218390.804596
# pendiente_HvsI_1/m_=_3716.3
# ordenada_HvsI_A/m_=_1297.0
# frecuencia_Hz_=_302136.76797393133

Tiempo_(s)	Campo_(V.s)	Magnetizacion_(V.s)	Campo_(kA/m)	Magnetizacion_(A/m)
0.000000e+00	-6.408933e-06	-2.475121e-08	-4.585219e+01	-1.621553e+03
1.000000e-08	-6.406337e-06	-2.475100e-08	-4.583362e+01	-1.621204e+03
2.000000e-08	-6.401562e-06	-2.474137e-08	-4.579945e+01	-1.620684e+03
3.000000e-08	-6.394854e-06	-2.472966e-08	-4.575146e+01	-1.619968e+03
4.000000e-08	-6.386133e-06	-2.471502e-08	-4.568907e+01	-1.619034e+03
5.000000e-08	-6.375078e-06	-2.469255e-08	-4.560997e+01	-1.617880e+03
6.000000e-08	-6.361596e-06	-2.466854e-08	-4.551352e+01	-1.616519e+03
7.000000e-08	-6.345783e-06	-2.464215e-08	-4.540039e+01	-1.614985e+03
8.000000e-08	-6.327840e-06	-2.461996e-08	-4.527201e+01	-1.613324e+03
9.000000e-08	-6.307938e-06	-2.467589e-08	-4.512963e+01	-1.611590e+03
1.000000e-07	-6.285756e-06	-2.466179e-08	-4.497093e+01	-1.609825e+03
1.100000e-07	-6.260862e-06	-2.455367e-08	-4.479282e+01	-1.608054e+03
1.200000e-07	-6.233461e-06	-2.449360e-08	-4.459679e+01	-1.606272e+03
1.300000e-07	-6.204079e-06	-2.445122e-08	-4.438658e+01	-1.604442e+03
1.400000e-07	-6.173021e-06	-2.431454e-08	-4.416437e+01	-1.602497e+03
1.500000e-07	-6.140278e-06	-2.433904e-08	-4.393012e+01	-1.600349e+03
1.600000e-07	-6.105528e-06	-2.445746e-08	-4.368150e+01	-1.597906e+03
1.700000e-07	-6.068847e-06	-2.424134e-08	-4.341907e+01	-1.595088e+03
1.800000e-07	-6.030313e-06	-2.425987e-08	-4.314338e+01	-1.591841e+03
1.900000e-07	-5.989370e-06	-2.425319e-08	-4.285045e+01	-1.588150e+03
2.000000e-07	-5.946116e-06	-2.404889e-08	-4.254100e+01	-1.584039e+03
2.100000e-07	-5.900878e-06	-2.408337e-08	-4.221735e+01	-1.579571e+03
2.200000e-07	-5.853387e-06	-2.399833e-08	-4.187758e+01	-1.574829e+03
2.300000e-07	-5.803407e-06	-2.391212e-08	-4.152000e+01	-1.569902e+03
2.400000e-07	-5.750860e-06	-2.387337e-08	-4.114405e+01	-1.564869e+03
2.500000e-07	-5.696088e-06	-2.376371e-08	-4.075219e+01	-1.559777e+03
2.600000e-07	-5.639160e-06	-2.371547e-08	-4.034491e+01	-1.554640e+03
2.700000e-07	-5.580027e-06	-2.363138e-08	-3.992184e+01	-1.549431e+03
2.800000e-07	-5.518959e-06	-2.354273e-08	-3.948494e+01	-1.544093e+03
2.900000e-07	-5.455998e-06	-2.345104e-08	-3.903449e+01	-1.538554e+03
3.000000e-07	-5.390943e-06	-2.336207e-08	-3.856906e+01	-1.532737e+03
3.100000e-07	-5.323799e-06	-2.329176e-08	-3.808868e+01	-1.526583e+03
3.200000e-07	-5.254618e-06	-2.316098e-08	-3.759373e+01	-1.520056e+03
3.300000e-07	-5.183539e-06	-2.307219e-08	-3.708520e+01	-1.513149e+03
3.400000e-07	-5.110666e-06	-2.294450e-08	-3.656384e+01	-1.505881e+03
3.500000e-07	-5.035718e-06	-2.282121e-08	-3.602763e+01	-1.498288e+03
3.600000e-07	-4.958738e-06	-2.272536e-08	-3.547689e+01	-1.490407e+03
3.700000e-07	-4.879648e-06	-2.259021e-08	-3.491104e+01	-1.482264e+03
3.800000e-07	-4.798550e-06	-2.248001e-08	-3.433083e+01	-1.473868e+03
3.900000e-07	-4.715910e-06	-2.233615e-08	-3.373959e+01	-1.465202e+03
4.000000e-07	-4.631831e-06	-2.218665e-08	-3.313806e+01	-1.456229e+03
4.100000e-07	-4.546311e-06	-2.203877e-08	-3.252621e+01	-1.446902e+03
4.200000e-07	-4.459373e-06	-2.189560e-08	-3.190422e+01	-1.437171e+03
4.300000e-07	-4.371030e-06	-2.174857e-08	-3.127218e+01	-1.426995e+03
4.400000e-07	-4.281030e-06	-2.157876e-08	-3.062828e+01	-1.416353e+03
4.500000e-07	-4.189329e-06	-2.141780e-08	-2.997221e+01	-1.405241e+03
4.600000e-07	-4.096161e-06	-2.123518e-08	-2.930565e+01	-1.393668e+03
4.700000e-07	-4.001589e-06	-2.105290e-08	-2.862904e+01	-1.381654e+03
4.800000e-07	-3.905697e-06	-2.086465e-08	-2.794299e+01	-1.369210e+03
4.900000e-07	-3.808391e-06	-2.066789e-08	-2.724682e+01	-1.356337e+03
5.000000e-07	-3.709548e-06	-2.045883e-08	-2.653966e+01	-1.343011e+03
5.100000e-07	-3.609297e-06	-2.023988e-08	-2.582242e+01	-1.329192e+03
5.200000e-07	-3.507770e-06	-2.001913e-08	-2.509606e+01	-1.314822e+03
5.300000e-07	-3.405030e-06	-1.978729e-08	-2.436101e+01	-1.299835e+03
5.400000e-07	-3.301107e-06	-1.955272e-08	-2.361750e+01	-1.284170e+03
5.500000e-07	-3.195911e-06	-1.930422e-08	-2.286489e+01	-1.267776e+03
5.600000e-07	-3.089331e-06	-1.904666e-08	-2.210236e+01	-1.250616e+03
5.700000e-07	-2.981540e-06	-1.877027e-08	-2.133118e+01	-1.232669e+03
5.800000e-07	-2.872691e-06	-1.848089e-08	-2.055243e+01	-1.213916e+03
5.900000e-07	-2.762853e-06	-1.817839e-08	-1.976661e+01	-1.194339e+03
6.000000e-07	-2.652120e-06	-1.786261e-08	-1.897438e+01	-1.173903e+03
6.100000e-07	-2.540497e-06	-1.753427e-08	-1.817578e+01	-1.152551e+03
6.200000e-07	-2.427859e-06	-1.719126e-08	-1.736992e+01	-1.130204e+03
6.300000e-07	-2.314120e-06	-1.683300e-08	-1.655618e+01	-1.106760e+03
6.400000e-07	-2.199320e-06	-1.645341e-08	-1.573486e+01	-1.082103e+03
6.500000e-07	-2.083582e-06	-1.605531e-08	-1.490682e+01	-1.056118e+03
6.600000e-07	-1.967079e-06	-1.563509e-08	-1.407330e+01	-1.028693e+03
6.700000e-07	-1.849855e-06	-1.519312e-08	-1.323464e+01	-9.997257e+02
6.800000e-07	-1.731990e-06	-1.472970e-08	-1.239138e+01	-9.691265e+02
6.900000e-07	-1.613580e-06	-1.423969e-08	-1.154423e+01	-9.368079e+02
7.000000e-07	-1.494676e-06	-1.371827e-08	-1.069354e+01	-9.026775e+02
7.100000e-07	-1.375354e-06	-1.316638e-08	-9.839860e+00	-8.666291e+02
7.200000e-07	-1.255578e-06	-1.258516e-08	-8.982927e+00	-8.285409e+02
7.300000e-07	-1.135340e-06	-1.196926e-08	-8.122695e+00	-7.882818e+02
7.400000e-07	-1.014699e-06	-1.131879e-08	-7.259580e+00	-7.457283e+02
7.500000e-07	-8.937145e-07	-1.063555e-08	-6.394007e+00	-7.007912e+02
7.600000e-07	-7.724275e-07	-9.916951e-09	-5.526269e+00	-6.534444e+02
7.700000e-07	-6.508264e-07	-9.157718e-09	-4.656284e+00	-6.037529e+02
7.800000e-07	-5.289974e-07	-8.364469e-09	-3.784668e+00	-5.518888e+02
7.900000e-07	-4.070432e-07	-7.547630e-09	-2.912157e+00	-4.981311e+02
8.000000e-07	-2.849239e-07	-6.708114e-09	-2.038465e+00	-4.428451e+02
8.100000e-07	-1.626097e-07	-5.850353e-09	-1.163377e+00	-3.864416e+02
8.200000e-07	-4.019185e-08	-4.981641e-09	-2.875493e-01	-3.293234e+02
8.300000e-07	8.226557e-08	-4.107523e-09	5.885623e-01	-2.718266e+02
8.400000e-07	2.046747e-07	-3.228597e-09	1.464328e+00	-2.141685e+02
8.500000e-07	3.269821e-07	-2.348403e-09	2.339367e+00	-1.564150e+02
8.600000e-07	4.491625e-07	-1.463766e-09	3.213497e+00	-9.847381e+01
8.700000e-07	5.712148e-07	-5.725398e-10	4.086709e+00	-4.011800e+01
8.800000e-07	6.930903e-07	3.274567e-10	4.958658e+00	1.896201e+01
8.900000e-07	8.147879e-07	1.240814e-09	5.829333e+00	7.908696e+01
9.000000e-07	9.363140e-07	2.172501e-09	6.698782e+00	1.405098e+02
9.100000e-07	1.057483e-06	3.126397e-09	7.565677e+00	2.033438e+02
9.200000e-07	1.178241e-06	4.102244e-09	8.429627e+00	2.675106e+02
9.300000e-07	1.298556e-06	5.095858e-09	9.290415e+00	3.327189e+02
9.400000e-07	1.418359e-06	6.097350e-09	1.014753e+01	3.984773e+02
9.500000e-07	1.537611e-06	7.098910e-09	1.100071e+01	4.641381e+02
9.600000e-07	1.656303e-06	8.086858e-09	1.184988e+01	5.289662e+02
9.700000e-07	1.774440e-06	9.048363e-09	1.269509e+01	5.922187e+02
9.800000e-07	1.891998e-06	9.972862e-09	1.353615e+01	6.532223e+02
9.900000e-07	2.008821e-06	1.085390e-08	1.437194e+01	7.114366e+02
1.000000e-06	2.124708e-06	1.168930e-08	1.520105e+01	7.664926e+02
1.010000e-06	2.239610e-06	1.247278e-08	1.602310e+01	8.182047e+02
1.020000e-06	2.353539e-06	1.320551e-08	1.683820e+01	8.665558e+02
1.030000e-06	2.466525e-06	1.389062e-08	1.764655e+01	9.116627e+02
1.040000e-06	2.578479e-06	1.453240e-08	1.844752e+01	9.537306e+02
1.050000e-06	2.689430e-06	1.513002e-08	1.924130e+01	9.930060e+02
1.060000e-06	2.799449e-06	1.568770e-08	2.002843e+01	1.029738e+03
1.070000e-06	2.908559e-06	1.620859e-08	2.080905e+01	1.064150e+03
1.080000e-06	3.016775e-06	1.669716e-08	2.158327e+01	1.096430e+03
1.090000e-06	3.123957e-06	1.715535e-08	2.235010e+01	1.126732e+03
1.100000e-06	3.229979e-06	1.758659e-08	2.310862e+01	1.155181e+03
1.110000e-06	3.334768e-06	1.799305e-08	2.385832e+01	1.181895e+03
1.120000e-06	3.438256e-06	1.837328e-08	2.459872e+01	1.206990e+03
1.130000e-06	3.540501e-06	1.873279e-08	2.533022e+01	1.230588e+03
1.140000e-06	3.641623e-06	1.907324e-08	2.605369e+01	1.252821e+03
1.150000e-06	3.741496e-06	1.939530e-08	2.676823e+01	1.273818e+03
1.160000e-06	3.839997e-06	1.969786e-08	2.747295e+01	1.293701e+03
1.170000e-06	3.936965e-06	1.998380e-08	2.816670e+01	1.312575e+03
1.180000e-06	4.032377e-06	2.025512e-08	2.884931e+01	1.330520e+03
1.190000e-06	4.126441e-06	2.051241e-08	2.952229e+01	1.347591e+03
1.200000e-06	4.219292e-06	2.075613e-08	3.018658e+01	1.363825e+03
1.210000e-06	4.310824e-06	2.099022e-08	3.084144e+01	1.379244e+03
1.220000e-06	4.400806e-06	2.121282e-08	3.148521e+01	1.393868e+03
1.230000e-06	4.489049e-06	2.142412e-08	3.211653e+01	1.407725e+03
1.240000e-06	4.575551e-06	2.162275e-08	3.273540e+01	1.420852e+03
1.250000e-06	4.660531e-06	2.180944e-08	3.334338e+01	1.433301e+03
1.260000e-06	4.743981e-06	2.198743e-08	3.394043e+01	1.445132e+03
1.270000e-06	4.825763e-06	2.215878e-08	3.452552e+01	1.456406e+03
1.280000e-06	4.905655e-06	2.232460e-08	3.509711e+01	1.467176e+03
1.290000e-06	4.983643e-06	2.248376e-08	3.565507e+01	1.477482e+03
1.300000e-06	5.059820e-06	2.263531e-08	3.620006e+01	1.487346e+03
1.310000e-06	5.133960e-06	2.277989e-08	3.673050e+01	1.496771e+03
1.320000e-06	5.206032e-06	2.291816e-08	3.724613e+01	1.505749e+03
1.330000e-06	5.276199e-06	2.304846e-08	3.774813e+01	1.514266e+03
1.340000e-06	5.344580e-06	2.317141e-08	3.823736e+01	1.522309e+03
1.350000e-06	5.411059e-06	2.328748e-08	3.871298e+01	1.529878e+03
1.360000e-06	5.475487e-06	2.339667e-08	3.917392e+01	1.536986e+03
1.370000e-06	5.538007e-06	2.350035e-08	3.962122e+01	1.543662e+03
1.380000e-06	5.598746e-06	2.359849e-08	4.005577e+01	1.549946e+03
1.390000e-06	5.657579e-06	2.369076e-08	4.047668e+01	1.555882e+03
1.400000e-06	5.714332e-06	2.377882e-08	4.088272e+01	1.561515e+03
1.410000e-06	5.769007e-06	2.386157e-08	4.127389e+01	1.566879e+03
1.420000e-06	5.821425e-06	2.393868e-08	4.164891e+01	1.571997e+03
1.430000e-06	5.871417e-06	2.401004e-08	4.200657e+01	1.576877e+03
1.440000e-06	5.919075e-06	2.407926e-08	4.234754e+01	1.581516e+03
1.450000e-06	5.964645e-06	2.414648e-08	4.267357e+01	1.585903e+03
1.460000e-06	6.008227e-06	2.421033e-08	4.298537e+01	1.590025e+03
1.470000e-06	6.049650e-06	2.427133e-08	4.328172e+01	1.593873e+03
1.480000e-06	6.088909e-06	2.432923e-08	4.356260e+01	1.597444e+03
1.490000e-06	6.126147e-06	2.438246e-08	4.382902e+01	1.600743e+03
1.500000e-06	6.161298e-06	2.442924e-08	4.408050e+01	1.603780e+03
1.510000e-06	6.194135e-06	2.447237e-08	4.431543e+01	1.606569e+03
1.520000e-06	6.224688e-06	2.451260e-08	4.453402e+01	1.609121e+03
1.530000e-06	6.253253e-06	2.454814e-08	4.473839e+01	1.611442e+03
1.540000e-06	6.279589e-06	2.457817e-08	4.492681e+01	1.613533e+03
1.550000e-06	6.303444e-06	2.460549e-08	4.509748e+01	1.615389e+03
1.560000e-06	6.325060e-06	2.463042e-08	4.525213e+01	1.617001e+03
1.570000e-06	6.344530e-06	2.465194e-08	4.539142e+01	1.618364e+03
1.580000e-06	6.361693e-06	2.467004e-08	4.551421e+01	1.619475e+03
1.590000e-06	6.376437e-06	2.468523e-08	4.561970e+01	1.620343e+03
1.600000e-06	6.388770e-06	2.469735e-08	4.570794e+01	1.620986e+03
1.610000e-06	6.398597e-06	2.470617e-08	4.577824e+01	1.621427e+03
1.620000e-06	6.405950e-06	2.471054e-08	4.583085e+01	1.621696e+03
1.630000e-06	6.411104e-06	2.471236e-08	4.586772e+01	1.621817e+03
1.640000e-06	6.414020e-06	2.471190e-08	4.588858e+01	1.621808e+03
1.650000e-06	6.414582e-06	2.471337e-08	4.589260e+01	1.621672e+03
1.660000e-06	6.412948e-06	2.470678e-08	4.588091e+01	1.621398e+03
1.670000e-06	6.409322e-06	2.469767e-08	4.585497e+01	1.620967e+03
1.680000e-06	6.403471e-06	2.469120e-08	4.581311e+01	1.620352e+03
1.690000e-06	6.395386e-06	2.468027e-08	4.575527e+01	1.619529e+03
1.700000e-06	6.385405e-06	2.466655e-08	4.568386e+01	1.618484e+03
1.710000e-06	6.373284e-06	2.465178e-08	4.559714e+01	1.617224e+03
1.720000e-06	6.358800e-06	2.464284e-08	4.549351e+01	1.615771e+03
1.730000e-06	6.342252e-06	2.462613e-08	4.537512e+01	1.614167e+03
1.740000e-06	6.323861e-06	2.449901e-08	4.524355e+01	1.612463e+03
1.750000e-06	6.302820e-06	2.446716e-08	4.509301e+01	1.610709e+03
1.760000e-06	6.278477e-06	2.452015e-08	4.491885e+01	1.608939e+03
1.770000e-06	6.251550e-06	2.448634e-08	4.472620e+01	1.607166e+03
1.780000e-06	6.222735e-06	2.451910e-08	4.452005e+01	1.605367e+03
1.790000e-06	6.192177e-06	2.457434e-08	4.430143e+01	1.603489e+03
1.800000e-06	6.160256e-06	2.433501e-08	4.407305e+01	1.601454e+03
1.810000e-06	6.126558e-06	2.439760e-08	4.383196e+01	1.599170e+03
1.820000e-06	6.090702e-06	2.450962e-08	4.357543e+01	1.596548e+03
1.830000e-06	6.052789e-06	2.427644e-08	4.330418e+01	1.593520e+03
1.840000e-06	6.012434e-06	2.436735e-08	4.301547e+01	1.590050e+03
1.850000e-06	5.969932e-06	2.421832e-08	4.271139e+01	1.586144e+03
1.860000e-06	5.925548e-06	2.406882e-08	4.239385e+01	1.581845e+03
1.870000e-06	5.878996e-06	2.414270e-08	4.206080e+01	1.577229e+03
1.880000e-06	5.830368e-06	2.393421e-08	4.171289e+01	1.572383e+03
1.890000e-06	5.779403e-06	2.395361e-08	4.134827e+01	1.567395e+03
1.900000e-06	5.725731e-06	2.386796e-08	4.096427e+01	1.562328e+03
1.910000e-06	5.669760e-06	2.370763e-08	4.056383e+01	1.557215e+03
1.920000e-06	5.611721e-06	2.375155e-08	4.014860e+01	1.552047e+03
1.930000e-06	5.551834e-06	2.356774e-08	3.972014e+01	1.546782e+03
1.940000e-06	5.489911e-06	2.353961e-08	3.927712e+01	1.541354e+03
1.950000e-06	5.425745e-06	2.341987e-08	3.881805e+01	1.535684e+03
1.960000e-06	5.359556e-06	2.332745e-08	3.834451e+01	1.529705e+03
1.970000e-06	5.291379e-06	2.328050e-08	3.785674e+01	1.523367e+03
1.980000e-06	5.221163e-06	2.308694e-08	3.735438e+01	1.516649e+03
1.990000e-06	5.148852e-06	2.307195e-08	3.683704e+01	1.509558e+03
2.000000e-06	5.074791e-06	2.292462e-08	3.630718e+01	1.502123e+03
2.010000e-06	4.998869e-06	2.281199e-08	3.576400e+01	1.494382e+03
2.020000e-06	4.920733e-06	2.269462e-08	3.520498e+01	1.486367e+03
2.030000e-06	4.840656e-06	2.253392e-08	3.463208e+01	1.478098e+03
2.040000e-06	4.758929e-06	2.246097e-08	3.404737e+01	1.469571e+03
2.050000e-06	4.675740e-06	2.229076e-08	3.345220e+01	1.460757e+03
2.060000e-06	4.591060e-06	2.217442e-08	3.284636e+01	1.451613e+03
2.070000e-06	4.504565e-06	2.201088e-08	3.222754e+01	1.442090e+03
2.080000e-06	4.416312e-06	2.185986e-08	3.159614e+01	1.432140e+03
2.090000e-06	4.326571e-06	2.170088e-08	3.095410e+01	1.421733e+03
2.100000e-06	4.235472e-06	2.152143e-08	3.030234e+01	1.410855e+03
2.110000e-06	4.143005e-06	2.137403e-08	2.964079e+01	1.399511e+03
2.120000e-06	4.048983e-06	2.118433e-08	2.896812e+01	1.387715e+03
2.130000e-06	3.953388e-06	2.101303e-08	2.828419e+01	1.375485e+03
2.140000e-06	3.856431e-06	2.081001e-08	2.759052e+01	1.362828e+03
2.150000e-06	3.758149e-06	2.061843e-08	2.688737e+01	1.349732e+03
2.160000e-06	3.658625e-06	2.041016e-08	2.617533e+01	1.336167e+03
2.170000e-06	3.557779e-06	2.019675e-08	2.545384e+01	1.322080e+03
2.180000e-06	3.455424e-06	1.997294e-08	2.472155e+01	1.307410e+03
2.190000e-06	3.351667e-06	1.973504e-08	2.397922e+01	1.292091e+03
2.200000e-06	3.246710e-06	1.949176e-08	2.322832e+01	1.276067e+03
2.210000e-06	3.140708e-06	1.923196e-08	2.246994e+01	1.259293e+03
2.220000e-06	3.033617e-06	1.897250e-08	2.170377e+01	1.241742e+03
2.230000e-06	2.925446e-06	1.869494e-08	2.092986e+01	1.223394e+03
2.240000e-06	2.816272e-06	1.841070e-08	2.014879e+01	1.204233e+03
2.250000e-06	2.705975e-06	1.810947e-08	1.935968e+01	1.184231e+03
2.260000e-06	2.594598e-06	1.779478e-08	1.856284e+01	1.163346e+03
2.270000e-06	2.482276e-06	1.745633e-08	1.775924e+01	1.141508e+03
2.280000e-06	2.368953e-06	1.710501e-08	1.694848e+01	1.118626e+03
2.290000e-06	2.254687e-06	1.673975e-08	1.613098e+01	1.094590e+03
2.300000e-06	2.139561e-06	1.635601e-08	1.530732e+01	1.069284e+03
2.310000e-06	2.023578e-06	1.595135e-08	1.447752e+01	1.042592e+03
2.320000e-06	1.906780e-06	1.552469e-08	1.364190e+01	1.014408e+03
2.330000e-06	1.789201e-06	1.507488e-08	1.280069e+01	9.846355e+02
2.340000e-06	1.670889e-06	1.459497e-08	1.195424e+01	9.531877e+02
2.350000e-06	1.551894e-06	1.408882e-08	1.110290e+01	9.199755e+02
2.360000e-06	1.432282e-06	1.355343e-08	1.024714e+01	8.849003e+02
2.370000e-06	1.312241e-06	1.298867e-08	9.388323e+00	8.478481e+02
2.380000e-06	1.191879e-06	1.238717e-08	8.527201e+00	8.086909e+02
2.390000e-06	1.071158e-06	1.175182e-08	7.663509e+00	7.672986e+02
2.400000e-06	9.500865e-07	1.108344e-08	6.797316e+00	7.235612e+02
2.410000e-06	8.286507e-07	1.038121e-08	5.928514e+00	6.774173e+02
2.420000e-06	7.069227e-07	9.643361e-09	5.057621e+00	6.288835e+02
2.430000e-06	5.850089e-07	8.869968e-09	4.185399e+00	5.780773e+02
2.440000e-06	4.629721e-07	8.064962e-09	3.312296e+00	5.252255e+02
2.450000e-06	3.408693e-07	7.230637e-09	2.438722e+00	4.706540e+02
2.460000e-06	2.186482e-07	6.375337e-09	1.564301e+00	4.147569e+02
2.470000e-06	9.627208e-08	5.505752e-09	6.887707e-01	3.579486e+02
2.480000e-06	-2.615039e-08	4.627418e-09	-1.870908e-01	3.006055e+02
2.490000e-06	-1.485991e-07	3.745306e-09	-1.063140e+00	2.430098e+02
2.500000e-06	-2.709952e-07	2.861672e-09	-1.938813e+00	1.853059e+02
2.510000e-06	-3.932724e-07	1.979605e-09	-2.813635e+00	1.274794e+02
2.520000e-06	-5.154873e-07	1.094064e-09	-3.688012e+00	6.936591e+01
2.530000e-06	-6.375819e-07	1.977223e-10	-4.561527e+00	1.068923e+01
2.540000e-06	-7.595188e-07	-7.138737e-10	-5.433915e+00	-4.887556e+01
2.550000e-06	-8.812411e-07	-1.642760e-09	-6.304767e+00	-1.096251e+02
2.560000e-06	-1.002652e-06	-2.587212e-09	-7.173388e+00	-1.717504e+02
2.570000e-06	-1.123714e-06	-3.554131e-09	-8.039518e+00	-2.352738e+02
2.580000e-06	-1.244400e-06	-4.544594e-09	-8.902956e+00	-3.000110e+02
2.590000e-06	-1.364691e-06	-5.549104e-09	-9.763572e+00	-3.655669e+02
2.600000e-06	-1.484499e-06	-6.561283e-09	-1.062073e+01	-4.313647e+02
2.610000e-06	-1.603719e-06	-7.566715e-09	-1.147368e+01	-4.967034e+02
2.620000e-06	-1.722200e-06	-8.549377e-09	-1.232134e+01	-5.608339e+02
2.630000e-06	-1.839864e-06	-9.499281e-09	-1.316316e+01	-6.230391e+02
2.640000e-06	-1.956809e-06	-1.040836e-08	-1.399983e+01	-6.827055e+02
2.650000e-06	-2.072900e-06	-1.127403e-08	-1.483039e+01	-7.393753e+02
2.660000e-06	-2.188057e-06	-1.209005e-08	-1.565427e+01	-7.927714e+02
2.670000e-06	-2.302203e-06	-1.285525e-08	-1.647092e+01	-8.427957e+02
2.680000e-06	-2.415299e-06	-1.357270e-08	-1.728006e+01	-8.895035e+02
2.690000e-06	-2.527408e-06	-1.424341e-08	-1.808214e+01	-9.330616e+02
2.700000e-06	-2.638486e-06	-1.487046e-08	-1.887684e+01	-9.737015e+02
2.710000e-06	-2.748525e-06	-1.545555e-08	-1.966410e+01	-1.011675e+03
2.720000e-06	-2.857656e-06	-1.600366e-08	-2.044487e+01	-1.047221e+03
2.730000e-06	-2.965970e-06	-1.651416e-08	-2.121979e+01	-1.080546e+03
2.740000e-06	-3.073316e-06	-1.698811e-08	-2.198779e+01	-1.111820e+03
2.750000e-06	-3.179626e-06	-1.743311e-08	-2.274838e+01	-1.141180e+03
2.760000e-06	-3.284863e-06	-1.785205e-08	-2.350128e+01	-1.168748e+03
2.770000e-06	-3.388937e-06	-1.824935e-08	-2.424588e+01	-1.194637e+03
2.780000e-06	-3.491676e-06	-1.862587e-08	-2.498091e+01	-1.218968e+03
2.790000e-06	-3.593078e-06	-1.897848e-08	-2.570638e+01	-1.241867e+03
2.800000e-06	-3.693213e-06	-1.930911e-08	-2.642279e+01	-1.263466e+03
2.810000e-06	-3.792099e-06	-1.962044e-08	-2.713026e+01	-1.283891e+03
2.820000e-06	-3.889808e-06	-1.991622e-08	-2.782931e+01	-1.303258e+03
2.830000e-06	-3.986269e-06	-2.019845e-08	-2.851944e+01	-1.321659e+03
2.840000e-06	-4.081301e-06	-2.046832e-08	-2.919933e+01	-1.339162e+03
2.850000e-06	-4.174845e-06	-2.072378e-08	-2.986858e+01	-1.355812e+03
2.860000e-06	-4.266881e-06	-2.096390e-08	-3.052705e+01	-1.371635e+03
2.870000e-06	-4.357346e-06	-2.119304e-08	-3.117428e+01	-1.386654e+03
2.880000e-06	-4.446267e-06	-2.141305e-08	-3.181045e+01	-1.400890e+03
2.890000e-06	-4.533535e-06	-2.162082e-08	-3.243481e+01	-1.414377e+03
2.900000e-06	-4.619095e-06	-2.181703e-08	-3.304694e+01	-1.427158e+03
2.910000e-06	-4.703041e-06	-2.200538e-08	-3.364752e+01	-1.439290e+03
2.920000e-06	-4.785364e-06	-2.218524e-08	-3.423650e+01	-1.450835e+03
2.930000e-06	-4.866043e-06	-2.235369e-08	-3.481371e+01	-1.461851e+03
2.940000e-06	-4.944875e-06	-2.251199e-08	-3.537770e+01	-1.472385e+03
