# Temperatura_=_57.85
# Concentracion g/m^3_=_28200.0
# C_Vs_to_Am_M_A/Vsm_=_65563218390.804596
# pendiente_HvsI_1/m_=_3716.3
# ordenada_HvsI_A/m_=_1297.0
# frecuencia_Hz_=_302131.97108187206

Tiempo_(s)	Campo_(V.s)	Magnetizacion_(V.s)	Campo_(kA/m)	Magnetizacion_(A/m)
0.000000e+00	-6.384247e-06	-2.401258e-08	-4.585050e+01	-1.570616e+03
1.000000e-08	-6.380869e-06	-2.400835e-08	-4.582625e+01	-1.570193e+03
2.000000e-08	-6.375450e-06	-2.399475e-08	-4.578732e+01	-1.569685e+03
3.000000e-08	-6.368129e-06	-2.398349e-08	-4.573474e+01	-1.569070e+03
4.000000e-08	-6.358652e-06	-2.396974e-08	-4.566669e+01	-1.568307e+03
5.000000e-08	-6.346801e-06	-2.394797e-08	-4.558158e+01	-1.567349e+03
6.000000e-08	-6.332623e-06	-2.392160e-08	-4.547975e+01	-1.566150e+03
7.000000e-08	-6.316122e-06	-2.389161e-08	-4.536125e+01	-1.564685e+03
8.000000e-08	-6.297556e-06	-2.388546e-08	-4.522790e+01	-1.562960e+03
9.000000e-08	-6.276851e-06	-2.398099e-08	-4.507921e+01	-1.561015e+03
1.000000e-07	-6.253764e-06	-2.390210e-08	-4.491340e+01	-1.558921e+03
1.100000e-07	-6.228099e-06	-2.377206e-08	-4.472908e+01	-1.556765e+03
1.200000e-07	-6.200016e-06	-2.375442e-08	-4.452739e+01	-1.554632e+03
1.300000e-07	-6.170047e-06	-2.367884e-08	-4.431216e+01	-1.552585e+03
1.400000e-07	-6.138596e-06	-2.350436e-08	-4.408628e+01	-1.550646e+03
1.500000e-07	-6.105425e-06	-2.372107e-08	-4.384805e+01	-1.548788e+03
1.600000e-07	-6.070162e-06	-2.373432e-08	-4.359481e+01	-1.546934e+03
1.700000e-07	-6.032993e-06	-2.342558e-08	-4.332786e+01	-1.544976e+03
1.800000e-07	-5.993781e-06	-2.363610e-08	-4.304625e+01	-1.542786e+03
1.900000e-07	-5.952169e-06	-2.346559e-08	-4.274740e+01	-1.540248e+03
2.000000e-07	-5.908363e-06	-2.331103e-08	-4.243279e+01	-1.537278e+03
2.100000e-07	-5.862514e-06	-2.341751e-08	-4.210351e+01	-1.533839e+03
2.200000e-07	-5.814411e-06	-2.323326e-08	-4.175805e+01	-1.529944e+03
2.300000e-07	-5.763832e-06	-2.320857e-08	-4.139480e+01	-1.525652e+03
2.400000e-07	-5.710666e-06	-2.316908e-08	-4.101297e+01	-1.521049e+03
2.500000e-07	-5.655377e-06	-2.308158e-08	-4.061589e+01	-1.516225e+03
2.600000e-07	-5.597953e-06	-2.305736e-08	-4.020348e+01	-1.511253e+03
2.700000e-07	-5.538331e-06	-2.293092e-08	-3.977529e+01	-1.506171e+03
2.800000e-07	-5.476761e-06	-2.286920e-08	-3.933310e+01	-1.500979e+03
2.900000e-07	-5.413257e-06	-2.275763e-08	-3.887703e+01	-1.495637e+03
3.000000e-07	-5.347734e-06	-2.269991e-08	-3.840645e+01	-1.490080e+03
3.100000e-07	-5.280088e-06	-2.262649e-08	-3.792064e+01	-1.484238e+03
3.200000e-07	-5.210418e-06	-2.249688e-08	-3.742028e+01	-1.478051e+03
3.300000e-07	-5.139030e-06	-2.242301e-08	-3.690758e+01	-1.471486e+03
3.400000e-07	-5.065769e-06	-2.226927e-08	-3.638144e+01	-1.464538e+03
3.500000e-07	-4.990342e-06	-2.218149e-08	-3.583973e+01	-1.457232e+03
3.600000e-07	-4.912889e-06	-2.207306e-08	-3.528348e+01	-1.449609e+03
3.700000e-07	-4.833408e-06	-2.194895e-08	-3.471266e+01	-1.441708e+03
3.800000e-07	-4.752059e-06	-2.185078e-08	-3.412843e+01	-1.433558e+03
3.900000e-07	-4.669130e-06	-2.169413e-08	-3.353284e+01	-1.425163e+03
4.000000e-07	-4.584767e-06	-2.155007e-08	-3.292696e+01	-1.416498e+03
4.100000e-07	-4.498940e-06	-2.141114e-08	-3.231057e+01	-1.407520e+03
4.200000e-07	-4.411818e-06	-2.128837e-08	-3.168488e+01	-1.398171e+03
4.300000e-07	-4.323311e-06	-2.114190e-08	-3.104923e+01	-1.388399e+03
4.400000e-07	-4.233117e-06	-2.097089e-08	-3.040148e+01	-1.378164e+03
4.500000e-07	-4.141236e-06	-2.081686e-08	-2.974161e+01	-1.367447e+03
4.600000e-07	-4.047806e-06	-2.063696e-08	-2.907061e+01	-1.356253e+03
4.700000e-07	-3.953121e-06	-2.046624e-08	-2.839060e+01	-1.344596e+03
4.800000e-07	-3.857121e-06	-2.028590e-08	-2.770114e+01	-1.332495e+03
4.900000e-07	-3.759602e-06	-2.009731e-08	-2.700078e+01	-1.319960e+03
5.000000e-07	-3.660614e-06	-1.989075e-08	-2.628987e+01	-1.306977e+03
5.100000e-07	-3.560254e-06	-1.967734e-08	-2.556910e+01	-1.293512e+03
5.200000e-07	-3.458639e-06	-1.946384e-08	-2.483932e+01	-1.279509e+03
5.300000e-07	-3.355885e-06	-1.923457e-08	-2.410136e+01	-1.264899e+03
5.400000e-07	-3.251918e-06	-1.900592e-08	-2.335469e+01	-1.249612e+03
5.500000e-07	-3.146675e-06	-1.876066e-08	-2.259885e+01	-1.233589e+03
5.600000e-07	-3.040155e-06	-1.850971e-08	-2.183384e+01	-1.216789e+03
5.700000e-07	-2.932393e-06	-1.823795e-08	-2.105991e+01	-1.199186e+03
5.800000e-07	-2.823593e-06	-1.795459e-08	-2.027853e+01	-1.180767e+03
5.900000e-07	-2.713842e-06	-1.765685e-08	-1.949032e+01	-1.161518e+03
6.000000e-07	-2.603139e-06	-1.734388e-08	-1.869527e+01	-1.141413e+03
6.100000e-07	-2.491556e-06	-1.702143e-08	-1.789390e+01	-1.120403e+03
6.200000e-07	-2.379060e-06	-1.668485e-08	-1.708598e+01	-1.098410e+03
6.300000e-07	-2.265448e-06	-1.633567e-08	-1.627003e+01	-1.075332e+03
6.400000e-07	-2.150807e-06	-1.596053e-08	-1.544670e+01	-1.051048e+03
6.500000e-07	-2.035292e-06	-1.556687e-08	-1.461710e+01	-1.025430e+03
6.600000e-07	-1.918921e-06	-1.515054e-08	-1.378135e+01	-9.983562e+02
6.700000e-07	-1.801855e-06	-1.471612e-08	-1.294060e+01	-9.697166e+02
6.800000e-07	-1.684188e-06	-1.426153e-08	-1.209554e+01	-9.394158e+02
6.900000e-07	-1.565943e-06	-1.377560e-08	-1.124632e+01	-9.073674e+02
7.000000e-07	-1.447239e-06	-1.325547e-08	-1.039381e+01	-8.734862e+02
7.100000e-07	-1.328140e-06	-1.270256e-08	-9.538463e+00	-8.376792e+02
7.200000e-07	-1.208620e-06	-1.212515e-08	-8.680093e+00	-7.998428e+02
7.300000e-07	-1.088743e-06	-1.151442e-08	-7.819151e+00	-7.598682e+02
7.400000e-07	-9.685549e-07	-1.087296e-08	-6.955986e+00	-7.176577e+02
7.500000e-07	-8.480026e-07	-1.019837e-08	-6.090201e+00	-6.731500e+02
7.600000e-07	-7.270772e-07	-9.487627e-09	-5.221736e+00	-6.263483e+02
7.700000e-07	-6.058752e-07	-8.738007e-09	-4.351286e+00	-5.773467e+02
7.800000e-07	-4.845008e-07	-7.956425e-09	-3.479597e+00	-5.263436e+02
7.900000e-07	-3.630009e-07	-7.153569e-09	-2.607007e+00	-4.736390e+02
8.000000e-07	-2.413618e-07	-6.329639e-09	-1.733416e+00	-4.196101e+02
8.100000e-07	-1.195700e-07	-5.494358e-09	-8.587299e-01	-3.646685e+02
8.200000e-07	2.366494e-09	-4.654656e-09	1.699573e-02	-3.092045e+02
8.300000e-07	1.243162e-07	-3.814108e-09	8.928166e-01	-2.535294e+02
8.400000e-07	2.461653e-07	-2.968260e-09	1.767915e+00	-1.978265e+02
8.500000e-07	3.679717e-07	-2.122600e-09	2.642706e+00	-1.421236e+02
8.600000e-07	4.897049e-07	-1.272218e-09	3.516972e+00	-8.629259e+01
8.700000e-07	6.112788e-07	-4.131003e-10	4.390094e+00	-3.007930e+01
8.800000e-07	7.326998e-07	4.571074e-10	5.262117e+00	2.684006e+01
8.900000e-07	8.538852e-07	1.340368e-09	6.132449e+00	8.478594e+01
9.000000e-07	9.747389e-07	2.235765e-09	7.000398e+00	1.439987e+02
9.100000e-07	1.095245e-06	3.154757e-09	7.865851e+00	2.045722e+02
9.200000e-07	1.215327e-06	4.096302e-09	8.728260e+00	2.664099e+02
9.300000e-07	1.334920e-06	5.055109e-09	9.587154e+00	3.292117e+02
9.400000e-07	1.454035e-06	6.019559e-09	1.044261e+01	3.924928e+02
9.500000e-07	1.572643e-06	6.982762e-09	1.129444e+01	4.556316e+02
9.600000e-07	1.690726e-06	7.932869e-09	1.214249e+01	5.179364e+02
9.700000e-07	1.808234e-06	8.856412e-09	1.298641e+01	5.787195e+02
9.800000e-07	1.925056e-06	9.745885e-09	1.382540e+01	6.373658e+02
9.900000e-07	2.041047e-06	1.059319e-08	1.465843e+01	6.933859e+02
1.000000e-06	2.156097e-06	1.139902e-08	1.548470e+01	7.464461e+02
1.010000e-06	2.270147e-06	1.215445e-08	1.630378e+01	7.963748e+02
1.020000e-06	2.383199e-06	1.286266e-08	1.711570e+01	8.431468e+02
1.030000e-06	2.495250e-06	1.352260e-08	1.792043e+01	8.868523e+02
1.040000e-06	2.606334e-06	1.413873e-08	1.871822e+01	9.276591e+02
1.050000e-06	2.716584e-06	1.471746e-08	1.951001e+01	9.657742e+02
1.060000e-06	2.825962e-06	1.525860e-08	2.029554e+01	1.001413e+03
1.070000e-06	2.934462e-06	1.576488e-08	2.107477e+01	1.034781e+03
1.080000e-06	3.042017e-06	1.623610e-08	2.184722e+01	1.066057e+03
1.090000e-06	3.148419e-06	1.668041e-08	2.261137e+01	1.095401e+03
1.100000e-06	3.253536e-06	1.709773e-08	2.336630e+01	1.122952e+03
1.110000e-06	3.357389e-06	1.749094e-08	2.411216e+01	1.148840e+03
1.120000e-06	3.460104e-06	1.785894e-08	2.484984e+01	1.173186e+03
1.130000e-06	3.561630e-06	1.820545e-08	2.557898e+01	1.196110e+03
1.140000e-06	3.662001e-06	1.853219e-08	2.629982e+01	1.217729e+03
1.150000e-06	3.761099e-06	1.884417e-08	2.701153e+01	1.238151e+03
1.160000e-06	3.858652e-06	1.913876e-08	2.771214e+01	1.257478e+03
1.170000e-06	3.954674e-06	1.941580e-08	2.840175e+01	1.275793e+03
1.180000e-06	4.049288e-06	1.967934e-08	2.908125e+01	1.293169e+03
1.190000e-06	4.142605e-06	1.992838e-08	2.975144e+01	1.309662e+03
1.200000e-06	4.234754e-06	2.016426e-08	3.041323e+01	1.325318e+03
1.210000e-06	4.325455e-06	2.038804e-08	3.106463e+01	1.340176e+03
1.220000e-06	4.414353e-06	2.060018e-08	3.170308e+01	1.354273e+03
1.230000e-06	4.501531e-06	2.080068e-08	3.232918e+01	1.367646e+03
1.240000e-06	4.587138e-06	2.099160e-08	3.294399e+01	1.380337e+03
1.250000e-06	4.671307e-06	2.117273e-08	3.354848e+01	1.392388e+03
1.260000e-06	4.753909e-06	2.134617e-08	3.414171e+01	1.403843e+03
1.270000e-06	4.834679e-06	2.151140e-08	3.472179e+01	1.414743e+03
1.280000e-06	4.913615e-06	2.166966e-08	3.528869e+01	1.425126e+03
1.290000e-06	4.990740e-06	2.182045e-08	3.584259e+01	1.435020e+03
1.300000e-06	5.065921e-06	2.196445e-08	3.638253e+01	1.444447e+03
1.310000e-06	5.139012e-06	2.210292e-08	3.690745e+01	1.453420e+03
1.320000e-06	5.210121e-06	2.223468e-08	3.741814e+01	1.461946e+03
1.330000e-06	5.279427e-06	2.235822e-08	3.791589e+01	1.470027e+03
1.340000e-06	5.346908e-06	2.247242e-08	3.840053e+01	1.477666e+03
1.350000e-06	5.412325e-06	2.257953e-08	3.887034e+01	1.484869e+03
1.360000e-06	5.475745e-06	2.268225e-08	3.932581e+01	1.491647e+03
1.370000e-06	5.537439e-06	2.278056e-08	3.976888e+01	1.498021e+03
1.380000e-06	5.597380e-06	2.287403e-08	4.019937e+01	1.504016e+03
1.390000e-06	5.655244e-06	2.296139e-08	4.061494e+01	1.509666e+03
1.400000e-06	5.710947e-06	2.304412e-08	4.101499e+01	1.515010e+03
1.410000e-06	5.764650e-06	2.312115e-08	4.140067e+01	1.520082e+03
1.420000e-06	5.815994e-06	2.319291e-08	4.176942e+01	1.524915e+03
1.430000e-06	5.864837e-06	2.326125e-08	4.212020e+01	1.529529e+03
1.440000e-06	5.911499e-06	2.332818e-08	4.245531e+01	1.533934e+03
1.450000e-06	5.956280e-06	2.339307e-08	4.277693e+01	1.538126e+03
1.460000e-06	5.999042e-06	2.345430e-08	4.308403e+01	1.542090e+03
1.470000e-06	6.039543e-06	2.351192e-08	4.337490e+01	1.545806e+03
1.480000e-06	6.077944e-06	2.356537e-08	4.365069e+01	1.549252e+03
1.490000e-06	6.114428e-06	2.361398e-08	4.391271e+01	1.552414e+03
1.500000e-06	6.148681e-06	2.365605e-08	4.415871e+01	1.555286e+03
1.510000e-06	6.180544e-06	2.369493e-08	4.438754e+01	1.557876e+03
1.520000e-06	6.210288e-06	2.373107e-08	4.460117e+01	1.560201e+03
1.530000e-06	6.238036e-06	2.376301e-08	4.480045e+01	1.562286e+03
1.540000e-06	6.263446e-06	2.379024e-08	4.498294e+01	1.564157e+03
1.550000e-06	6.286351e-06	2.381387e-08	4.514743e+01	1.565834e+03
1.560000e-06	6.307165e-06	2.383575e-08	4.529691e+01	1.567326e+03
1.570000e-06	6.325903e-06	2.385585e-08	4.543149e+01	1.568632e+03
1.580000e-06	6.342253e-06	2.387484e-08	4.554891e+01	1.569739e+03
1.590000e-06	6.356160e-06	2.389025e-08	4.564879e+01	1.570630e+03
1.600000e-06	6.367638e-06	2.390214e-08	4.573122e+01	1.571290e+03
1.610000e-06	6.376644e-06	2.391032e-08	4.579590e+01	1.571716e+03
1.620000e-06	6.383299e-06	2.391404e-08	4.584370e+01	1.571918e+03
1.630000e-06	6.387860e-06	2.391538e-08	4.587645e+01	1.571921e+03
1.640000e-06	6.390108e-06	2.391431e-08	4.589260e+01	1.571760e+03
1.650000e-06	6.389903e-06	2.391631e-08	4.589113e+01	1.571473e+03
1.660000e-06	6.387573e-06	2.390346e-08	4.587439e+01	1.571090e+03
1.670000e-06	6.383227e-06	2.389877e-08	4.584318e+01	1.570622e+03
1.680000e-06	6.376661e-06	2.389219e-08	4.579602e+01	1.570061e+03
1.690000e-06	6.367936e-06	2.387842e-08	4.573336e+01	1.569372e+03
1.700000e-06	6.357280e-06	2.386557e-08	4.565683e+01	1.568511e+03
1.710000e-06	6.344377e-06	2.385431e-08	4.556417e+01	1.567428e+03
1.720000e-06	6.329214e-06	2.386549e-08	4.545527e+01	1.566087e+03
1.730000e-06	6.312175e-06	2.381878e-08	4.533290e+01	1.564480e+03
1.740000e-06	6.293105e-06	2.365508e-08	4.519594e+01	1.562630e+03
1.750000e-06	6.271093e-06	2.369214e-08	4.503785e+01	1.560595e+03
1.760000e-06	6.245827e-06	2.372644e-08	4.485640e+01	1.558457e+03
1.770000e-06	6.218332e-06	2.364425e-08	4.465893e+01	1.556303e+03
1.780000e-06	6.188991e-06	2.381770e-08	4.444821e+01	1.554211e+03
1.790000e-06	6.157958e-06	2.375653e-08	4.422534e+01	1.552222e+03
1.800000e-06	6.125645e-06	2.340512e-08	4.399327e+01	1.550332e+03
1.810000e-06	6.091299e-06	2.362640e-08	4.374661e+01	1.548488e+03
1.820000e-06	6.054842e-06	2.353470e-08	4.348478e+01	1.546594e+03
1.830000e-06	6.016353e-06	2.349549e-08	4.320836e+01	1.544527e+03
1.840000e-06	5.975395e-06	2.378400e-08	4.291420e+01	1.542163e+03
1.850000e-06	5.932489e-06	2.341337e-08	4.260606e+01	1.539402e+03
1.860000e-06	5.887598e-06	2.348604e-08	4.228366e+01	1.536181e+03
1.870000e-06	5.840466e-06	2.347978e-08	4.194517e+01	1.532493e+03
1.880000e-06	5.791310e-06	2.324423e-08	4.159214e+01	1.528376e+03
1.890000e-06	5.739596e-06	2.336989e-08	4.122073e+01	1.523906e+03
1.900000e-06	5.685271e-06	2.310734e-08	4.083058e+01	1.519173e+03
1.910000e-06	5.628778e-06	2.313155e-08	4.042486e+01	1.514263e+03
1.920000e-06	5.570284e-06	2.313828e-08	4.000477e+01	1.509229e+03
1.930000e-06	5.509927e-06	2.291057e-08	3.957130e+01	1.504091e+03
1.940000e-06	5.447459e-06	2.297704e-08	3.912266e+01	1.498825e+03
1.950000e-06	5.382896e-06	2.273837e-08	3.865899e+01	1.493377e+03
1.960000e-06	5.316348e-06	2.274985e-08	3.818105e+01	1.487676e+03
1.970000e-06	5.247772e-06	2.261895e-08	3.768854e+01	1.481655e+03
1.980000e-06	5.177126e-06	2.247748e-08	3.718118e+01	1.475267e+03
1.990000e-06	5.104463e-06	2.251610e-08	3.665933e+01	1.468496e+03
2.000000e-06	5.030101e-06	2.229932e-08	3.612527e+01	1.461352e+03
2.010000e-06	4.953681e-06	2.225175e-08	3.557644e+01	1.453870e+03
2.020000e-06	4.875110e-06	2.204607e-08	3.501215e+01	1.446093e+03
2.030000e-06	4.794804e-06	2.196426e-08	3.443541e+01	1.438057e+03
2.040000e-06	4.712811e-06	2.189305e-08	3.384655e+01	1.429777e+03
2.050000e-06	4.629362e-06	2.171713e-08	3.324724e+01	1.421241e+03
2.060000e-06	4.544256e-06	2.161971e-08	3.263602e+01	1.412415e+03
2.070000e-06	4.457447e-06	2.142658e-08	3.201258e+01	1.403245e+03
2.080000e-06	4.369097e-06	2.131765e-08	3.137806e+01	1.393675e+03
2.090000e-06	4.279207e-06	2.112350e-08	3.073249e+01	1.383659e+03
2.100000e-06	4.188016e-06	2.097928e-08	3.007757e+01	1.373166e+03
2.110000e-06	4.095437e-06	2.083329e-08	2.941269e+01	1.362192e+03
2.120000e-06	4.001257e-06	2.065145e-08	2.873630e+01	1.350747e+03
2.130000e-06	3.905545e-06	2.047898e-08	2.804891e+01	1.338851e+03
2.140000e-06	3.808477e-06	2.027246e-08	2.735179e+01	1.326517e+03
2.150000e-06	3.710100e-06	2.010269e-08	2.664526e+01	1.313745e+03
2.160000e-06	3.610474e-06	1.988861e-08	2.592977e+01	1.300510e+03
2.170000e-06	3.509442e-06	1.969218e-08	2.520418e+01	1.286764e+03
2.180000e-06	3.406950e-06	1.946236e-08	2.446809e+01	1.272445e+03
2.190000e-06	3.303130e-06	1.923897e-08	2.372248e+01	1.257480e+03
2.200000e-06	3.198123e-06	1.899482e-08	2.296834e+01	1.241805e+03
2.210000e-06	3.092053e-06	1.874452e-08	2.220657e+01	1.225370e+03
2.220000e-06	2.984952e-06	1.848610e-08	2.143738e+01	1.208142e+03
2.230000e-06	2.876881e-06	1.821290e-08	2.066124e+01	1.190103e+03
2.240000e-06	2.767802e-06	1.793861e-08	1.987785e+01	1.171241e+03
2.250000e-06	2.657593e-06	1.764256e-08	1.908635e+01	1.151538e+03
2.260000e-06	2.546353e-06	1.733456e-08	1.828745e+01	1.130956e+03
2.270000e-06	2.434152e-06	1.699620e-08	1.748164e+01	1.109430e+03
2.280000e-06	2.320959e-06	1.665338e-08	1.666870e+01	1.086870e+03
2.290000e-06	2.206862e-06	1.628807e-08	1.584928e+01	1.063162e+03
2.300000e-06	2.091887e-06	1.590969e-08	1.502355e+01	1.038179e+03
2.310000e-06	1.976181e-06	1.550862e-08	1.419257e+01	1.011795e+03
2.320000e-06	1.859723e-06	1.508873e-08	1.335619e+01	9.838951e+02
2.330000e-06	1.742429e-06	1.463861e-08	1.251381e+01	9.543765e+02
2.340000e-06	1.624426e-06	1.415827e-08	1.166633e+01	9.231498e+02
2.350000e-06	1.505801e-06	1.365793e-08	1.081439e+01	8.901303e+02
2.360000e-06	1.386636e-06	1.312808e-08	9.958568e+00	8.552295e+02
2.370000e-06	1.266957e-06	1.256662e-08	9.099057e+00	8.183487e+02
2.380000e-06	1.146846e-06	1.196592e-08	8.236443e+00	7.793800e+02
2.390000e-06	1.026419e-06	1.133358e-08	7.371553e+00	7.382180e+02
2.400000e-06	9.056712e-07	1.066747e-08	6.504366e+00	6.947809e+02
2.410000e-06	7.846378e-07	9.972320e-09	5.635126e+00	6.490384e+02
2.420000e-06	6.633272e-07	9.243721e-09	4.763896e+00	6.010398e+02
2.430000e-06	5.417455e-07	8.480020e-09	3.890718e+00	5.509344e+02
2.440000e-06	4.199770e-07	7.687977e-09	3.016199e+00	4.989766e+02
2.450000e-06	2.981564e-07	6.871153e-09	2.141305e+00	4.455121e+02
2.460000e-06	1.762188e-07	6.033658e-09	1.265572e+00	3.909429e+02
2.470000e-06	5.416517e-08	5.182382e-09	3.890044e-01	3.356765e+02
2.480000e-06	-6.788021e-08	4.329984e-09	-4.875033e-01	2.800678e+02
2.490000e-06	-1.899690e-07	3.477051e-09	-1.364323e+00	2.243643e+02
2.500000e-06	-3.120409e-07	2.624213e-09	-2.241021e+00	1.686681e+02
2.510000e-06	-4.339947e-07	1.773418e-09	-3.116871e+00	1.129215e+02
2.520000e-06	-5.558343e-07	9.176290e-10	-3.991901e+00	5.692313e+01
2.530000e-06	-6.775028e-07	5.329005e-11	-4.865702e+00	3.733110e-01
2.540000e-06	-7.989210e-07	-8.266296e-10	-5.737706e+00	-5.705963e+01
2.550000e-06	-9.200381e-07	-1.723127e-09	-6.607547e+00	-1.156625e+02
2.560000e-06	-1.040849e-06	-2.636658e-09	-7.475187e+00	-1.756041e+02
2.570000e-06	-1.161315e-06	-3.570968e-09	-8.340355e+00	-2.368800e+02
2.580000e-06	-1.281418e-06	-4.521682e-09	-9.202915e+00	-2.992842e+02
2.590000e-06	-1.401144e-06	-5.486157e-09	-1.006276e+01	-3.624133e+02
2.600000e-06	-1.520337e-06	-6.457367e-09	-1.091879e+01	-4.257019e+02
2.610000e-06	-1.638799e-06	-7.420709e-09	-1.176955e+01	-4.884815e+02
2.620000e-06	-1.756482e-06	-8.364322e-09	-1.261474e+01	-5.500536e+02
2.630000e-06	-1.873419e-06	-9.279016e-09	-1.345455e+01	-6.097616e+02
2.640000e-06	-1.989521e-06	-1.015777e-08	-1.428838e+01	-6.670525e+02
2.650000e-06	-2.104767e-06	-1.099404e-08	-1.511606e+01	-7.215181e+02
2.660000e-06	-2.219173e-06	-1.178263e-08	-1.593770e+01	-7.729124e+02
2.670000e-06	-2.332556e-06	-1.252281e-08	-1.675199e+01	-8.211451e+02
2.680000e-06	-2.444877e-06	-1.321404e-08	-1.755866e+01	-8.662574e+02
2.690000e-06	-2.556197e-06	-1.385980e-08	-1.835815e+01	-9.083860e+02
2.700000e-06	-2.666425e-06	-1.446519e-08	-1.914978e+01	-9.477240e+02
2.710000e-06	-2.775637e-06	-1.503310e-08	-1.993412e+01	-9.844865e+02
2.720000e-06	-2.884032e-06	-1.556530e-08	-2.071260e+01	-1.018885e+03
2.730000e-06	-2.991642e-06	-1.605935e-08	-2.148543e+01	-1.051111e+03
2.740000e-06	-3.098316e-06	-1.652055e-08	-2.225154e+01	-1.081334e+03
2.750000e-06	-3.203971e-06	-1.695373e-08	-2.301034e+01	-1.109701e+03
2.760000e-06	-3.308556e-06	-1.736038e-08	-2.376145e+01	-1.136346e+03
2.770000e-06	-3.411868e-06	-1.774524e-08	-2.450342e+01	-1.161393e+03
2.780000e-06	-3.513758e-06	-1.810807e-08	-2.523517e+01	-1.184962e+03
2.790000e-06	-3.614311e-06	-1.844763e-08	-2.595733e+01	-1.207173e+03
2.800000e-06	-3.713627e-06	-1.876684e-08	-2.667059e+01	-1.228138e+03
2.810000e-06	-3.811710e-06	-1.907039e-08	-2.737501e+01	-1.247962e+03
2.820000e-06	-3.908570e-06	-1.936000e-08	-2.807064e+01	-1.266738e+03
2.830000e-06	-4.004197e-06	-1.963429e-08	-2.875741e+01	-1.284542e+03
2.840000e-06	-4.098373e-06	-1.989419e-08	-2.943377e+01	-1.301439e+03
2.850000e-06	-4.190983e-06	-2.014057e-08	-3.009888e+01	-1.317478e+03
2.860000e-06	-4.282127e-06	-2.037355e-08	-3.075346e+01	-1.332702e+03
2.870000e-06	-4.371714e-06	-2.059519e-08	-3.139686e+01	-1.347148e+03
2.880000e-06	-4.459764e-06	-2.080768e-08	-3.202922e+01	-1.360852e+03
2.890000e-06	-4.546117e-06	-2.100990e-08	-3.264939e+01	-1.373855e+03
2.900000e-06	-4.630647e-06	-2.120054e-08	-3.325647e+01	-1.386197e+03
2.910000e-06	-4.713635e-06	-2.138193e-08	-3.385247e+01	-1.397924e+03
2.920000e-06	-4.795133e-06	-2.155346e-08	-3.443777e+01	-1.409077e+03
2.930000e-06	-4.874951e-06	-2.171627e-08	-3.501101e+01	-1.419696e+03
2.940000e-06	-4.952716e-06	-2.187183e-08	-3.556951e+01	-1.429814e+03
