# Temperatura_=_58.31
# Concentracion g/m^3_=_28200.0
# C_Vs_to_Am_M_A/Vsm_=_65563218390.804596
# pendiente_HvsI_1/m_=_3716.3
# ordenada_HvsI_A/m_=_1297.0
# frecuencia_Hz_=_302132.1118174742

Tiempo_(s)	Campo_(V.s)	Magnetizacion_(V.s)	Campo_(kA/m)	Magnetizacion_(A/m)
0.000000e+00	-6.407402e-06	-2.411423e-08	-4.585198e+01	-1.580152e+03
1.000000e-08	-6.404102e-06	-2.411180e-08	-4.582836e+01	-1.579740e+03
2.000000e-08	-6.398720e-06	-2.410178e-08	-4.578985e+01	-1.579181e+03
3.000000e-08	-6.391432e-06	-2.408906e-08	-4.573769e+01	-1.578463e+03
4.000000e-08	-6.382090e-06	-2.407099e-08	-4.567085e+01	-1.577575e+03
5.000000e-08	-6.370363e-06	-2.404856e-08	-4.558693e+01	-1.576512e+03
6.000000e-08	-6.356190e-06	-2.402421e-08	-4.548550e+01	-1.575279e+03
7.000000e-08	-6.339709e-06	-2.399854e-08	-4.536756e+01	-1.573888e+03
8.000000e-08	-6.321210e-06	-2.400466e-08	-4.523518e+01	-1.572358e+03
9.000000e-08	-6.300544e-06	-2.405779e-08	-4.508729e+01	-1.570712e+03
1.000000e-07	-6.277441e-06	-2.399734e-08	-4.492197e+01	-1.568966e+03
1.100000e-07	-6.251744e-06	-2.390369e-08	-4.473808e+01	-1.567129e+03
1.200000e-07	-6.223644e-06	-2.387437e-08	-4.453699e+01	-1.565197e+03
1.300000e-07	-6.193667e-06	-2.379092e-08	-4.432247e+01	-1.563146e+03
1.400000e-07	-6.162165e-06	-2.366385e-08	-4.409704e+01	-1.560941e+03
1.500000e-07	-6.128922e-06	-2.380919e-08	-4.385915e+01	-1.558534e+03
1.600000e-07	-6.093593e-06	-2.377765e-08	-4.360633e+01	-1.555878e+03
1.700000e-07	-6.056412e-06	-2.358738e-08	-4.334026e+01	-1.552929e+03
1.800000e-07	-6.017162e-06	-2.369893e-08	-4.305938e+01	-1.549662e+03
1.900000e-07	-5.975440e-06	-2.356312e-08	-4.276082e+01	-1.546072e+03
2.000000e-07	-5.931577e-06	-2.346213e-08	-4.244693e+01	-1.542174e+03
2.100000e-07	-5.885697e-06	-2.349220e-08	-4.211860e+01	-1.538007e+03
2.200000e-07	-5.837564e-06	-2.336775e-08	-4.177416e+01	-1.533620e+03
2.300000e-07	-5.786919e-06	-2.331071e-08	-4.141175e+01	-1.529062e+03
2.400000e-07	-5.733685e-06	-2.323307e-08	-4.103080e+01	-1.524375e+03
2.500000e-07	-5.678277e-06	-2.316922e-08	-4.063429e+01	-1.519584e+03
2.600000e-07	-5.620750e-06	-2.312763e-08	-4.022263e+01	-1.514689e+03
2.700000e-07	-5.561086e-06	-2.302269e-08	-3.979566e+01	-1.509667e+03
2.800000e-07	-5.499436e-06	-2.296187e-08	-3.935449e+01	-1.504476e+03
2.900000e-07	-5.435836e-06	-2.285089e-08	-3.889936e+01	-1.499064e+03
3.000000e-07	-5.370161e-06	-2.277604e-08	-3.842939e+01	-1.493382e+03
3.100000e-07	-5.302391e-06	-2.269130e-08	-3.794442e+01	-1.487388e+03
3.200000e-07	-5.232647e-06	-2.257493e-08	-3.744532e+01	-1.481060e+03
3.300000e-07	-5.161102e-06	-2.248424e-08	-3.693334e+01	-1.474395e+03
3.400000e-07	-5.087666e-06	-2.235857e-08	-3.640782e+01	-1.467403e+03
3.500000e-07	-5.012096e-06	-2.226596e-08	-3.586704e+01	-1.460106e+03
3.600000e-07	-4.934455e-06	-2.214691e-08	-3.531143e+01	-1.452526e+03
3.700000e-07	-4.854731e-06	-2.203150e-08	-3.474091e+01	-1.444674e+03
3.800000e-07	-4.773166e-06	-2.191765e-08	-3.415723e+01	-1.436548e+03
3.900000e-07	-4.690013e-06	-2.176975e-08	-3.356218e+01	-1.428128e+03
4.000000e-07	-4.605437e-06	-2.163158e-08	-3.295695e+01	-1.419384e+03
4.100000e-07	-4.519490e-06	-2.149092e-08	-3.234190e+01	-1.410275e+03
4.200000e-07	-4.432110e-06	-2.135482e-08	-3.171660e+01	-1.400765e+03
4.300000e-07	-4.343307e-06	-2.120236e-08	-3.108112e+01	-1.390825e+03
4.400000e-07	-4.252836e-06	-2.103917e-08	-3.043370e+01	-1.380441e+03
4.500000e-07	-4.160721e-06	-2.087856e-08	-2.977452e+01	-1.369610e+03
4.600000e-07	-4.067148e-06	-2.070212e-08	-2.910490e+01	-1.358341e+03
4.700000e-07	-3.972201e-06	-2.052654e-08	-2.842545e+01	-1.346645e+03
4.800000e-07	-3.875965e-06	-2.034223e-08	-2.773678e+01	-1.334525e+03
4.900000e-07	-3.778249e-06	-2.014892e-08	-2.703751e+01	-1.321970e+03
5.000000e-07	-3.678962e-06	-1.994302e-08	-2.632700e+01	-1.308953e+03
5.100000e-07	-3.578326e-06	-1.973207e-08	-2.560684e+01	-1.295427e+03
5.200000e-07	-3.476480e-06	-1.951662e-08	-2.487802e+01	-1.281336e+03
5.300000e-07	-3.373397e-06	-1.928781e-08	-2.414035e+01	-1.266618e+03
5.400000e-07	-3.269126e-06	-1.905580e-08	-2.339417e+01	-1.251217e+03
5.500000e-07	-3.163620e-06	-1.880975e-08	-2.263917e+01	-1.235088e+03
5.600000e-07	-3.056723e-06	-1.855178e-08	-2.187420e+01	-1.218197e+03
5.700000e-07	-2.948622e-06	-1.828023e-08	-2.110062e+01	-1.200523e+03
5.800000e-07	-2.839490e-06	-1.799668e-08	-2.031966e+01	-1.182048e+03
5.900000e-07	-2.729419e-06	-1.770050e-08	-1.953198e+01	-1.162748e+03
6.000000e-07	-2.618495e-06	-1.738900e-08	-1.873820e+01	-1.142587e+03
6.100000e-07	-2.506616e-06	-1.706431e-08	-1.793758e+01	-1.121503e+03
6.200000e-07	-2.393727e-06	-1.672388e-08	-1.712974e+01	-1.099417e+03
6.300000e-07	-2.279753e-06	-1.636889e-08	-1.631413e+01	-1.076226e+03
6.400000e-07	-2.164641e-06	-1.599394e-08	-1.549038e+01	-1.051818e+03
6.500000e-07	-2.048563e-06	-1.560003e-08	-1.465971e+01	-1.026077e+03
6.600000e-07	-1.931776e-06	-1.518501e-08	-1.382397e+01	-9.988924e+02
6.700000e-07	-1.814366e-06	-1.474929e-08	-1.298378e+01	-9.701621e+02
6.800000e-07	-1.696349e-06	-1.428967e-08	-1.213924e+01	-9.397916e+02
6.900000e-07	-1.577823e-06	-1.379911e-08	-1.129105e+01	-9.076891e+02
7.000000e-07	-1.458860e-06	-1.327875e-08	-1.043974e+01	-8.737578e+02
7.100000e-07	-1.339424e-06	-1.272857e-08	-9.585043e+00	-8.378911e+02
7.200000e-07	-1.219487e-06	-1.215155e-08	-8.726763e+00	-7.999725e+02
7.300000e-07	-1.098999e-06	-1.153990e-08	-7.864540e+00	-7.598845e+02
7.400000e-07	-9.781442e-07	-1.089408e-08	-6.999693e+00	-7.175266e+02
7.500000e-07	-8.570663e-07	-1.021482e-08	-6.133248e+00	-6.728404e+02
7.600000e-07	-7.356851e-07	-9.500150e-09	-5.264633e+00	-6.258360e+02
7.700000e-07	-6.140751e-07	-8.749249e-09	-4.394380e+00	-5.766154e+02
7.800000e-07	-4.922837e-07	-7.967243e-09	-3.522829e+00	-5.253835e+02
7.900000e-07	-3.703381e-07	-7.163196e-09	-2.650174e+00	-4.724425e+02
8.000000e-07	-2.482301e-07	-6.337715e-09	-1.776358e+00	-4.181673e+02
8.100000e-07	-1.259698e-07	-5.497262e-09	-9.014521e-01	-3.629636e+02
8.200000e-07	-3.664606e-09	-4.649686e-09	-2.622427e-02	-3.072147e+02
8.300000e-07	1.186410e-07	-3.800507e-09	8.490061e-01	-2.512257e+02
8.400000e-07	2.409289e-07	-2.947931e-09	1.724110e+00	-1.951779e+02
8.500000e-07	3.631887e-07	-2.093681e-09	2.599013e+00	-1.391014e+02
8.600000e-07	4.853256e-07	-1.235836e-09	3.473036e+00	-8.287463e+01
8.700000e-07	6.073179e-07	-3.708188e-10	4.346025e+00	-2.625269e+01
8.800000e-07	7.291837e-07	5.040271e-10	5.218108e+00	3.107898e+01
8.900000e-07	8.508439e-07	1.392562e-09	6.088720e+00	8.943393e+01
9.000000e-07	9.722521e-07	2.298267e-09	6.957529e+00	1.490494e+02
9.100000e-07	1.093321e-06	3.225534e-09	7.823908e+00	2.100199e+02
9.200000e-07	1.213980e-06	4.172433e-09	8.687357e+00	2.722520e+02
9.300000e-07	1.334130e-06	5.134898e-09	9.547163e+00	3.354483e+02
9.400000e-07	1.453719e-06	6.105223e-09	1.040296e+01	3.991243e+02
9.500000e-07	1.572755e-06	7.074235e-09	1.125478e+01	4.626535e+02
9.600000e-07	1.691236e-06	8.029771e-09	1.210264e+01	5.253345e+02
9.700000e-07	1.809198e-06	8.959397e-09	1.294680e+01	5.864655e+02
9.800000e-07	1.926481e-06	9.854490e-09	1.378608e+01	6.454166e+02
9.900000e-07	2.042933e-06	1.070868e-08	1.461942e+01	7.016857e+02
1.000000e-06	2.158491e-06	1.151863e-08	1.544637e+01	7.549322e+02
1.010000e-06	2.273117e-06	1.227640e-08	1.626664e+01	8.049852e+02
1.020000e-06	2.386833e-06	1.298539e-08	1.708040e+01	8.518283e+02
1.030000e-06	2.499515e-06	1.364928e-08	1.788677e+01	8.955664e+02
1.040000e-06	2.611146e-06	1.426975e-08	1.868561e+01	9.363845e+02
1.050000e-06	2.721851e-06	1.485001e-08	1.947783e+01	9.745059e+02
1.060000e-06	2.831633e-06	1.539289e-08	2.026344e+01	1.010158e+03
1.070000e-06	2.940481e-06	1.590110e-08	2.104236e+01	1.043548e+03
1.080000e-06	3.048327e-06	1.637465e-08	2.181412e+01	1.074856e+03
1.090000e-06	3.155111e-06	1.681772e-08	2.257828e+01	1.104232e+03
1.100000e-06	3.260758e-06	1.723324e-08	2.333429e+01	1.131807e+03
1.110000e-06	3.365060e-06	1.762552e-08	2.408069e+01	1.157701e+03
1.120000e-06	3.468087e-06	1.799599e-08	2.481796e+01	1.182033e+03
1.130000e-06	3.569970e-06	1.834623e-08	2.554705e+01	1.204926e+03
1.140000e-06	3.670684e-06	1.867679e-08	2.626776e+01	1.226504e+03
1.150000e-06	3.770146e-06	1.898852e-08	2.697952e+01	1.246885e+03
1.160000e-06	3.868225e-06	1.928192e-08	2.768139e+01	1.266180e+03
1.170000e-06	3.964759e-06	1.955981e-08	2.837219e+01	1.284480e+03
1.180000e-06	4.059768e-06	1.982322e-08	2.905209e+01	1.301856e+03
1.190000e-06	4.153502e-06	2.007216e-08	2.972286e+01	1.318363e+03
1.200000e-06	4.245940e-06	2.030987e-08	3.038435e+01	1.334037e+03
1.210000e-06	4.336961e-06	2.053701e-08	3.103571e+01	1.348908e+03
1.220000e-06	4.426369e-06	2.075021e-08	3.167552e+01	1.363008e+03
1.230000e-06	4.514026e-06	2.095082e-08	3.230280e+01	1.376373e+03
1.240000e-06	4.600069e-06	2.114137e-08	3.291853e+01	1.389046e+03
1.250000e-06	4.684524e-06	2.132371e-08	3.352290e+01	1.401079e+03
1.260000e-06	4.767420e-06	2.149903e-08	3.411611e+01	1.412526e+03
1.270000e-06	4.848581e-06	2.166633e-08	3.469691e+01	1.423436e+03
1.280000e-06	4.927817e-06	2.182708e-08	3.526393e+01	1.433851e+03
1.290000e-06	5.005256e-06	2.197903e-08	3.581809e+01	1.443796e+03
1.300000e-06	5.080861e-06	2.212278e-08	3.635912e+01	1.453285e+03
1.310000e-06	5.154412e-06	2.226146e-08	3.688546e+01	1.462318e+03
1.320000e-06	5.225922e-06	2.239474e-08	3.739720e+01	1.470889e+03
1.330000e-06	5.295576e-06	2.252130e-08	3.789565e+01	1.478991e+03
1.340000e-06	5.363397e-06	2.263852e-08	3.838098e+01	1.486624e+03
1.350000e-06	5.429200e-06	2.274715e-08	3.885187e+01	1.493799e+03
1.360000e-06	5.492945e-06	2.285045e-08	3.930803e+01	1.500537e+03
1.370000e-06	5.554876e-06	2.294800e-08	3.975122e+01	1.506873e+03
1.380000e-06	5.615068e-06	2.303970e-08	4.018196e+01	1.512844e+03
1.390000e-06	5.673256e-06	2.312604e-08	4.059836e+01	1.518493e+03
1.400000e-06	5.729316e-06	2.320808e-08	4.099953e+01	1.523856e+03
1.410000e-06	5.783350e-06	2.328675e-08	4.138621e+01	1.528959e+03
1.420000e-06	5.835106e-06	2.336108e-08	4.175658e+01	1.533818e+03
1.430000e-06	5.884367e-06	2.343072e-08	4.210909e+01	1.538441e+03
1.440000e-06	5.931354e-06	2.349707e-08	4.244533e+01	1.542825e+03
1.450000e-06	5.976405e-06	2.356045e-08	4.276772e+01	1.546962e+03
1.460000e-06	6.019457e-06	2.362140e-08	4.307581e+01	1.550846e+03
1.470000e-06	6.060199e-06	2.368068e-08	4.336736e+01	1.554473e+03
1.480000e-06	6.098737e-06	2.373537e-08	4.364314e+01	1.557843e+03
1.490000e-06	6.135310e-06	2.378395e-08	4.390486e+01	1.560960e+03
1.500000e-06	6.169726e-06	2.382647e-08	4.415115e+01	1.563832e+03
1.510000e-06	6.201784e-06	2.386510e-08	4.438055e+01	1.566468e+03
1.520000e-06	6.231726e-06	2.390208e-08	4.459482e+01	1.568874e+03
1.530000e-06	6.259654e-06	2.393651e-08	4.479468e+01	1.571054e+03
1.540000e-06	6.285251e-06	2.396658e-08	4.497786e+01	1.573009e+03
1.550000e-06	6.308396e-06	2.399253e-08	4.514348e+01	1.574734e+03
1.560000e-06	6.329408e-06	2.401536e-08	4.529384e+01	1.576227e+03
1.570000e-06	6.348344e-06	2.403576e-08	4.542935e+01	1.577486e+03
1.580000e-06	6.364894e-06	2.405360e-08	4.554779e+01	1.578512e+03
1.590000e-06	6.378955e-06	2.406685e-08	4.564841e+01	1.579314e+03
1.600000e-06	6.390502e-06	2.407741e-08	4.573104e+01	1.579903e+03
1.610000e-06	6.399565e-06	2.408580e-08	4.579589e+01	1.580299e+03
1.620000e-06	6.406267e-06	2.409007e-08	4.584386e+01	1.580521e+03
1.630000e-06	6.410811e-06	2.409125e-08	4.587637e+01	1.580588e+03
1.640000e-06	6.413078e-06	2.409180e-08	4.589260e+01	1.580514e+03
1.650000e-06	6.412983e-06	2.409297e-08	4.589192e+01	1.580306e+03
1.660000e-06	6.410779e-06	2.408398e-08	4.587614e+01	1.579964e+03
1.670000e-06	6.406466e-06	2.407668e-08	4.584528e+01	1.579480e+03
1.680000e-06	6.399934e-06	2.406963e-08	4.579854e+01	1.578843e+03
1.690000e-06	6.391331e-06	2.405885e-08	4.573697e+01	1.578040e+03
1.700000e-06	6.380794e-06	2.404698e-08	4.566157e+01	1.577065e+03
1.710000e-06	6.367986e-06	2.403519e-08	4.556992e+01	1.575916e+03
1.720000e-06	6.352852e-06	2.403270e-08	4.546161e+01	1.574602e+03
1.730000e-06	6.335779e-06	2.397516e-08	4.533943e+01	1.573139e+03
1.740000e-06	6.316687e-06	2.387009e-08	4.520281e+01	1.571548e+03
1.750000e-06	6.294733e-06	2.389156e-08	4.504571e+01	1.569850e+03
1.760000e-06	6.269607e-06	2.390878e-08	4.486591e+01	1.568059e+03
1.770000e-06	6.242138e-06	2.385618e-08	4.466933e+01	1.566176e+03
1.780000e-06	6.212773e-06	2.396193e-08	4.445919e+01	1.564188e+03
1.790000e-06	6.181739e-06	2.390398e-08	4.423711e+01	1.562066e+03
1.800000e-06	6.149306e-06	2.369482e-08	4.400502e+01	1.559766e+03
1.810000e-06	6.114915e-06	2.379979e-08	4.375892e+01	1.557240e+03
1.820000e-06	6.078436e-06	2.371249e-08	4.349787e+01	1.554442e+03
1.830000e-06	6.039867e-06	2.367278e-08	4.322186e+01	1.551336e+03
1.840000e-06	5.998892e-06	2.374499e-08	4.292864e+01	1.547907e+03
1.850000e-06	5.955889e-06	2.347849e-08	4.262091e+01	1.544159e+03
1.860000e-06	5.910893e-06	2.348957e-08	4.229891e+01	1.540122e+03
1.870000e-06	5.863683e-06	2.344661e-08	4.196107e+01	1.535838e+03
1.880000e-06	5.814388e-06	2.332674e-08	4.160832e+01	1.531359e+03
1.890000e-06	5.762623e-06	2.335820e-08	4.123788e+01	1.526732e+03
1.900000e-06	5.708244e-06	2.315983e-08	4.084874e+01	1.521992e+03
1.910000e-06	5.651697e-06	2.315817e-08	4.044408e+01	1.517151e+03
1.920000e-06	5.593170e-06	2.309477e-08	4.002525e+01	1.512196e+03
1.930000e-06	5.532739e-06	2.293807e-08	3.959281e+01	1.507096e+03
1.940000e-06	5.470138e-06	2.294793e-08	3.914483e+01	1.501801e+03
1.950000e-06	5.405365e-06	2.279060e-08	3.868131e+01	1.496260e+03
1.960000e-06	5.338605e-06	2.276829e-08	3.820356e+01	1.490426e+03
1.970000e-06	5.269925e-06	2.263595e-08	3.771209e+01	1.484267e+03
1.980000e-06	5.199172e-06	2.250960e-08	3.720577e+01	1.477769e+03
1.990000e-06	5.126274e-06	2.247672e-08	3.668410e+01	1.470938e+03
2.000000e-06	5.051668e-06	2.231896e-08	3.615022e+01	1.463791e+03
2.010000e-06	4.975125e-06	2.224351e-08	3.560247e+01	1.456351e+03
2.020000e-06	4.896385e-06	2.207460e-08	3.503900e+01	1.448634e+03
2.030000e-06	4.815856e-06	2.198055e-08	3.446272e+01	1.440646e+03
2.040000e-06	4.733773e-06	2.187365e-08	3.387533e+01	1.432376e+03
2.050000e-06	4.650180e-06	2.172078e-08	3.327713e+01	1.423799e+03
2.060000e-06	4.564956e-06	2.160790e-08	3.266726e+01	1.414877e+03
2.070000e-06	4.477891e-06	2.144182e-08	3.204421e+01	1.405572e+03
2.080000e-06	4.389178e-06	2.131393e-08	3.140938e+01	1.395850e+03
2.090000e-06	4.299056e-06	2.113252e-08	3.076446e+01	1.385689e+03
2.100000e-06	4.207548e-06	2.097828e-08	3.010961e+01	1.375081e+03
2.110000e-06	4.114680e-06	2.081755e-08	2.944504e+01	1.364030e+03
2.120000e-06	4.020239e-06	2.064285e-08	2.876921e+01	1.352546e+03
2.130000e-06	3.924259e-06	2.046933e-08	2.808237e+01	1.340638e+03
2.140000e-06	3.827015e-06	2.027661e-08	2.738648e+01	1.328303e+03
2.150000e-06	3.728394e-06	2.009519e-08	2.668074e+01	1.315522e+03
2.160000e-06	3.628455e-06	1.988580e-08	2.596557e+01	1.302257e+03
2.170000e-06	3.527226e-06	1.968258e-08	2.524116e+01	1.288456e+03
2.180000e-06	3.424505e-06	1.945465e-08	2.450608e+01	1.274059e+03
2.190000e-06	3.320391e-06	1.922678e-08	2.376103e+01	1.259006e+03
2.200000e-06	3.215112e-06	1.898454e-08	2.300765e+01	1.243246e+03
2.210000e-06	3.108705e-06	1.873485e-08	2.224619e+01	1.226739e+03
2.220000e-06	3.001230e-06	1.847519e-08	2.147709e+01	1.209459e+03
2.230000e-06	2.892760e-06	1.820449e-08	2.070086e+01	1.191386e+03
2.240000e-06	2.783250e-06	1.792564e-08	1.991720e+01	1.172503e+03
2.250000e-06	2.672680e-06	1.762734e-08	1.912595e+01	1.152779e+03
2.260000e-06	2.561118e-06	1.731557e-08	1.832760e+01	1.132165e+03
2.270000e-06	2.448605e-06	1.698202e-08	1.752245e+01	1.110591e+03
2.280000e-06	2.335025e-06	1.663732e-08	1.670966e+01	1.087966e+03
2.290000e-06	2.220451e-06	1.627216e-08	1.588976e+01	1.064181e+03
2.300000e-06	2.105042e-06	1.589161e-08	1.506388e+01	1.039121e+03
2.310000e-06	1.988764e-06	1.548901e-08	1.423178e+01	1.012672e+03
2.320000e-06	1.871672e-06	1.506641e-08	1.339386e+01	9.847265e+02
2.330000e-06	1.753932e-06	1.461974e-08	1.255131e+01	9.551876e+02
2.340000e-06	1.635561e-06	1.414716e-08	1.170423e+01	9.239627e+02
2.350000e-06	1.516485e-06	1.364606e-08	1.085211e+01	8.909585e+02
2.360000e-06	1.396813e-06	1.311163e-08	9.995726e+00	8.560735e+02
2.370000e-06	1.276667e-06	1.254570e-08	9.135953e+00	8.191958e+02
2.380000e-06	1.156120e-06	1.194554e-08	8.273305e+00	7.802066e+02
2.390000e-06	1.035222e-06	1.131453e-08	7.408145e+00	7.389942e+02
2.400000e-06	9.140313e-07	1.065016e-08	6.540895e+00	6.954758e+02
2.410000e-06	7.925827e-07	9.953654e-09	5.671797e+00	6.496239e+02
2.420000e-06	6.709105e-07	9.221897e-09	4.801100e+00	6.014924e+02
2.430000e-06	5.490220e-07	8.455783e-09	3.928853e+00	5.512341e+02
2.440000e-06	4.269585e-07	7.660650e-09	3.055355e+00	4.991045e+02
2.450000e-06	3.048130e-07	6.839647e-09	2.181271e+00	4.454464e+02
2.460000e-06	1.825353e-07	6.000835e-09	1.306240e+00	3.906564e+02
2.470000e-06	6.012872e-08	5.149973e-09	4.302868e-01	3.351358e+02
2.480000e-06	-6.234479e-08	4.292200e-09	-4.461453e-01	2.792356e+02
2.490000e-06	-1.848041e-07	3.431967e-09	-1.322476e+00	2.232036e+02
2.500000e-06	-3.071935e-07	2.574508e-09	-2.198306e+00	1.671475e+02
2.510000e-06	-4.294935e-07	1.720060e-09	-3.073496e+00	1.110197e+02
2.520000e-06	-5.516340e-07	8.616835e-10	-3.947546e+00	5.463185e+01
2.530000e-06	-6.736558e-07	-6.498484e-12	-4.820745e+00	-2.303918e+00
2.540000e-06	-7.955206e-07	-8.895391e-10	-5.692821e+00	-6.011107e+01
2.550000e-06	-9.171242e-07	-1.789432e-09	-6.563028e+00	-1.190742e+02
2.560000e-06	-1.038461e-06	-2.709559e-09	-7.431326e+00	-1.793664e+02
2.570000e-06	-1.159441e-06	-3.650638e-09	-8.297071e+00	-2.409921e+02
2.580000e-06	-1.279999e-06	-4.608574e-09	-9.159791e+00	-3.037559e+02
2.590000e-06	-1.400113e-06	-5.579993e-09	-1.001934e+01	-3.672629e+02
2.600000e-06	-1.519690e-06	-6.557221e-09	-1.087504e+01	-4.309502e+02
2.610000e-06	-1.638637e-06	-7.526771e-09	-1.172624e+01	-4.941448e+02
2.620000e-06	-1.756895e-06	-8.474098e-09	-1.257251e+01	-5.561356e+02
2.630000e-06	-1.874433e-06	-9.390713e-09	-1.341362e+01	-6.162485e+02
2.640000e-06	-1.991165e-06	-1.027002e-08	-1.424897e+01	-6.739117e+02
2.650000e-06	-2.106952e-06	-1.110694e-08	-1.507755e+01	-7.287013e+02
2.660000e-06	-2.221789e-06	-1.189803e-08	-1.589933e+01	-7.803622e+02
2.670000e-06	-2.335710e-06	-1.264175e-08	-1.671456e+01	-8.288038e+02
2.680000e-06	-2.448600e-06	-1.333750e-08	-1.752242e+01	-8.740753e+02
2.690000e-06	-2.560433e-06	-1.398630e-08	-1.832270e+01	-9.163269e+02
2.700000e-06	-2.671220e-06	-1.459161e-08	-1.911551e+01	-9.557678e+02
2.710000e-06	-2.780976e-06	-1.515803e-08	-1.990093e+01	-9.926269e+02
2.720000e-06	-2.889836e-06	-1.568885e-08	-2.067994e+01	-1.027124e+03
2.730000e-06	-2.997772e-06	-1.618283e-08	-2.145234e+01	-1.059452e+03
2.740000e-06	-3.104704e-06	-1.664485e-08	-2.221756e+01	-1.089777e+03
2.750000e-06	-3.210631e-06	-1.707938e-08	-2.297558e+01	-1.118237e+03
2.760000e-06	-3.315485e-06	-1.748851e-08	-2.372593e+01	-1.144956e+03
2.770000e-06	-3.419128e-06	-1.787436e-08	-2.446760e+01	-1.170054e+03
2.780000e-06	-3.521479e-06	-1.823728e-08	-2.520004e+01	-1.193652e+03
2.790000e-06	-3.622493e-06	-1.857765e-08	-2.592290e+01	-1.215872e+03
2.800000e-06	-3.722193e-06	-1.889735e-08	-2.663637e+01	-1.236837e+03
2.810000e-06	-3.820670e-06	-1.919984e-08	-2.734108e+01	-1.256662e+03
2.820000e-06	-3.917958e-06	-1.948740e-08	-2.803728e+01	-1.275449e+03
2.830000e-06	-4.013959e-06	-1.975992e-08	-2.872427e+01	-1.293280e+03
2.840000e-06	-4.108522e-06	-2.001842e-08	-2.940098e+01	-1.310216e+03
2.850000e-06	-4.201571e-06	-2.026364e-08	-3.006684e+01	-1.326302e+03
2.860000e-06	-4.293123e-06	-2.049766e-08	-3.072200e+01	-1.341571e+03
2.870000e-06	-4.383170e-06	-2.072157e-08	-3.136638e+01	-1.356053e+03
2.880000e-06	-4.471608e-06	-2.093427e-08	-3.199925e+01	-1.369780e+03
2.890000e-06	-4.558343e-06	-2.113414e-08	-3.261994e+01	-1.382793e+03
2.900000e-06	-4.643321e-06	-2.132292e-08	-3.322805e+01	-1.395139e+03
2.910000e-06	-4.726673e-06	-2.150352e-08	-3.382452e+01	-1.406873e+03
2.920000e-06	-4.808517e-06	-2.167401e-08	-3.441021e+01	-1.418045e+03
2.930000e-06	-4.888716e-06	-2.183606e-08	-3.498412e+01	-1.428704e+03
2.940000e-06	-4.966993e-06	-2.199118e-08	-3.554428e+01	-1.438881e+03
