# Temperatura_=_52.02
# Concentracion g/m^3_=_28200.0
# C_Vs_to_Am_M_A/Vsm_=_65563218390.804596
# pendiente_HvsI_1/m_=_3716.3
# ordenada_HvsI_A/m_=_1297.0
# frecuencia_Hz_=_302133.95964016713

Tiempo_(s)	Campo_(V.s)	Magnetizacion_(V.s)	Campo_(kA/m)	Magnetizacion_(A/m)
0.000000e+00	-6.404475e-06	-2.287621e-08	-4.585589e+01	-1.499495e+03
1.000000e-08	-6.401647e-06	-2.287548e-08	-4.583565e+01	-1.499148e+03
2.000000e-08	-6.396669e-06	-2.286821e-08	-4.580001e+01	-1.498626e+03
3.000000e-08	-6.389748e-06	-2.285729e-08	-4.575046e+01	-1.497920e+03
4.000000e-08	-6.380840e-06	-2.284388e-08	-4.568667e+01	-1.497036e+03
5.000000e-08	-6.369670e-06	-2.282635e-08	-4.560670e+01	-1.495994e+03
6.000000e-08	-6.356039e-06	-2.280535e-08	-4.550910e+01	-1.494827e+03
7.000000e-08	-6.340154e-06	-2.278309e-08	-4.539536e+01	-1.493571e+03
8.000000e-08	-6.322246e-06	-2.277752e-08	-4.526714e+01	-1.492259e+03
9.000000e-08	-6.302200e-06	-2.279311e-08	-4.512361e+01	-1.490910e+03
1.000000e-07	-6.279780e-06	-2.277875e-08	-4.496308e+01	-1.489522e+03
1.100000e-07	-6.254852e-06	-2.271704e-08	-4.478460e+01	-1.488068e+03
1.200000e-07	-6.227449e-06	-2.266625e-08	-4.458840e+01	-1.486502e+03
1.300000e-07	-6.197949e-06	-2.260748e-08	-4.437717e+01	-1.484758e+03
1.400000e-07	-6.166779e-06	-2.251614e-08	-4.415400e+01	-1.482770e+03
1.500000e-07	-6.133986e-06	-2.253481e-08	-4.391920e+01	-1.480479e+03
1.600000e-07	-6.099177e-06	-2.256431e-08	-4.366997e+01	-1.477844e+03
1.700000e-07	-6.062345e-06	-2.245042e-08	-4.340625e+01	-1.474850e+03
1.800000e-07	-6.023561e-06	-2.244098e-08	-4.312856e+01	-1.471513e+03
1.900000e-07	-5.982497e-06	-2.241511e-08	-4.283455e+01	-1.467871e+03
2.000000e-07	-5.939205e-06	-2.230012e-08	-4.252458e+01	-1.463983e+03
2.100000e-07	-5.893878e-06	-2.228511e-08	-4.220003e+01	-1.459912e+03
2.200000e-07	-5.846317e-06	-2.222794e-08	-4.185950e+01	-1.455714e+03
2.300000e-07	-5.796262e-06	-2.213854e-08	-4.150110e+01	-1.451433e+03
2.400000e-07	-5.743722e-06	-2.208008e-08	-4.112492e+01	-1.447088e+03
2.500000e-07	-5.688903e-06	-2.201306e-08	-4.073242e+01	-1.442673e+03
2.600000e-07	-5.631984e-06	-2.194962e-08	-4.032488e+01	-1.438165e+03
2.700000e-07	-5.572873e-06	-2.188544e-08	-3.990164e+01	-1.433523e+03
2.800000e-07	-5.511733e-06	-2.179810e-08	-3.946388e+01	-1.428701e+03
2.900000e-07	-5.448640e-06	-2.170157e-08	-3.901214e+01	-1.423655e+03
3.000000e-07	-5.383465e-06	-2.163446e-08	-3.854549e+01	-1.418350e+03
3.100000e-07	-5.316191e-06	-2.156524e-08	-3.806381e+01	-1.412767e+03
3.200000e-07	-5.246881e-06	-2.146468e-08	-3.756755e+01	-1.406895e+03
3.300000e-07	-5.175750e-06	-2.137213e-08	-3.705825e+01	-1.400739e+03
3.400000e-07	-5.102795e-06	-2.126818e-08	-3.653590e+01	-1.394307e+03
3.500000e-07	-5.027837e-06	-2.115333e-08	-3.599920e+01	-1.387605e+03
3.600000e-07	-4.950724e-06	-2.105619e-08	-3.544708e+01	-1.380639e+03
3.700000e-07	-4.871559e-06	-2.095410e-08	-3.488026e+01	-1.373402e+03
3.800000e-07	-4.790508e-06	-2.084351e-08	-3.429993e+01	-1.365881e+03
3.900000e-07	-4.707780e-06	-2.072093e-08	-3.370760e+01	-1.358057e+03
4.000000e-07	-4.623620e-06	-2.058438e-08	-3.310501e+01	-1.349904e+03
4.100000e-07	-4.538044e-06	-2.044677e-08	-3.249229e+01	-1.341400e+03
4.200000e-07	-4.451003e-06	-2.031383e-08	-3.186908e+01	-1.332524e+03
4.300000e-07	-4.362511e-06	-2.017761e-08	-3.123548e+01	-1.323262e+03
4.400000e-07	-4.272488e-06	-2.002783e-08	-3.059092e+01	-1.313607e+03
4.500000e-07	-4.180781e-06	-1.987424e-08	-2.993430e+01	-1.303556e+03
4.600000e-07	-4.087538e-06	-1.971490e-08	-2.926668e+01	-1.293106e+03
4.700000e-07	-3.992989e-06	-1.954838e-08	-2.858971e+01	-1.282251e+03
4.800000e-07	-3.897072e-06	-1.937925e-08	-2.790295e+01	-1.270980e+03
4.900000e-07	-3.799723e-06	-1.919987e-08	-2.720593e+01	-1.259271e+03
5.000000e-07	-3.700896e-06	-1.900886e-08	-2.649833e+01	-1.247094e+03
5.100000e-07	-3.600686e-06	-1.880952e-08	-2.578083e+01	-1.234412e+03
5.200000e-07	-3.499232e-06	-1.860351e-08	-2.505442e+01	-1.221181e+03
5.300000e-07	-3.396569e-06	-1.838910e-08	-2.431936e+01	-1.207359e+03
5.400000e-07	-3.292662e-06	-1.816830e-08	-2.357539e+01	-1.192903e+03
5.500000e-07	-3.187497e-06	-1.793610e-08	-2.282241e+01	-1.177778e+03
5.600000e-07	-3.081107e-06	-1.769380e-08	-2.206066e+01	-1.161951e+03
5.700000e-07	-2.973413e-06	-1.744270e-08	-2.128957e+01	-1.145392e+03
5.800000e-07	-2.864585e-06	-1.717864e-08	-2.051036e+01	-1.128071e+03
5.900000e-07	-2.754841e-06	-1.690194e-08	-1.972460e+01	-1.109952e+03
6.000000e-07	-2.644144e-06	-1.660891e-08	-1.893201e+01	-1.090991e+03
6.100000e-07	-2.532463e-06	-1.630015e-08	-1.813238e+01	-1.071132e+03
6.200000e-07	-2.419819e-06	-1.597751e-08	-1.732585e+01	-1.050304e+03
6.300000e-07	-2.306187e-06	-1.564243e-08	-1.651225e+01	-1.028430e+03
6.400000e-07	-2.191557e-06	-1.529166e-08	-1.569150e+01	-1.005421e+03
6.500000e-07	-2.075883e-06	-1.492074e-08	-1.486328e+01	-9.811831e+02
6.600000e-07	-1.959329e-06	-1.452861e-08	-1.402875e+01	-9.556223e+02
6.700000e-07	-1.842121e-06	-1.411702e-08	-1.318954e+01	-9.286410e+02
6.800000e-07	-1.724360e-06	-1.368563e-08	-1.234638e+01	-9.001401e+02
6.900000e-07	-1.606070e-06	-1.322749e-08	-1.149943e+01	-8.700160e+02
7.000000e-07	-1.487214e-06	-1.274045e-08	-1.064842e+01	-8.381597e+02
7.100000e-07	-1.367841e-06	-1.222408e-08	-9.793711e+00	-8.044573e+02
7.200000e-07	-1.248037e-06	-1.167742e-08	-8.935914e+00	-7.687944e+02
7.300000e-07	-1.127848e-06	-1.109974e-08	-8.075369e+00	-7.310667e+02
7.400000e-07	-1.007271e-06	-1.049048e-08	-7.212039e+00	-6.911945e+02
7.500000e-07	-8.863402e-07	-9.851236e-09	-6.346176e+00	-6.491422e+02
7.600000e-07	-7.651154e-07	-9.181453e-09	-5.478209e+00	-6.049364e+02
7.700000e-07	-6.436372e-07	-8.477481e-09	-4.608428e+00	-5.586819e+02
7.800000e-07	-5.219455e-07	-7.745758e-09	-3.737118e+00	-5.105681e+02
7.900000e-07	-4.000422e-07	-6.990850e-09	-2.864293e+00	-4.608631e+02
8.000000e-07	-2.779905e-07	-6.213278e-09	-1.990406e+00	-4.098954e+02
8.100000e-07	-1.558234e-07	-5.419478e-09	-1.115692e+00	-3.580208e+02
8.200000e-07	-3.348799e-08	-4.617900e-09	-2.397733e-01	-3.055815e+02
8.300000e-07	8.890247e-08	-3.814253e-09	6.365397e-01	-2.528618e+02
8.400000e-07	2.112726e-07	-3.010305e-09	1.512707e+00	-2.000489e+02
8.500000e-07	3.335846e-07	-2.207811e-09	2.388458e+00	-1.472066e+02
8.600000e-07	4.557412e-07	-1.402645e-09	3.263096e+00	-9.426894e+01
8.700000e-07	5.777219e-07	-5.908652e-10	4.136476e+00	-4.105582e+01
8.800000e-07	6.995204e-07	2.292192e-10	5.008550e+00	1.268949e+01
8.900000e-07	8.210815e-07	1.061326e-09	5.878925e+00	6.724587e+01
9.000000e-07	9.423217e-07	1.908211e-09	6.747003e+00	1.228518e+02
9.100000e-07	1.063222e-06	2.771613e-09	7.612646e+00	1.796452e+02
9.200000e-07	1.183801e-06	3.652130e-09	8.475988e+00	2.376157e+02
9.300000e-07	1.303979e-06	4.548593e-09	9.336461e+00	2.965789e+02
9.400000e-07	1.423662e-06	5.455092e-09	1.019339e+01	3.561764e+02
9.500000e-07	1.542807e-06	6.364414e-09	1.104646e+01	4.159031e+02
9.600000e-07	1.661388e-06	7.267857e-09	1.189550e+01	4.751556e+02
9.700000e-07	1.779400e-06	8.153553e-09	1.274046e+01	5.332945e+02
9.800000e-07	1.896799e-06	9.012590e-09	1.358104e+01	5.897102e+02
9.900000e-07	2.013495e-06	9.834801e-09	1.441658e+01	6.438806e+02
1.000000e-06	2.129384e-06	1.061452e-08	1.524634e+01	6.954132e+02
1.010000e-06	2.244318e-06	1.134950e-08	1.606926e+01	7.440654e+02
1.020000e-06	2.358116e-06	1.203908e-08	1.688406e+01	7.897436e+02
1.030000e-06	2.470819e-06	1.268867e-08	1.769101e+01	8.324819e+02
1.040000e-06	2.582577e-06	1.329751e-08	1.849120e+01	8.724099e+02
1.050000e-06	2.693417e-06	1.386585e-08	1.928481e+01	9.097137e+02
1.060000e-06	2.803337e-06	1.439550e-08	2.007183e+01	9.446010e+02
1.070000e-06	2.912340e-06	1.488905e-08	2.085229e+01	9.772734e+02
1.080000e-06	3.020468e-06	1.535180e-08	2.162648e+01	1.007910e+03
1.090000e-06	3.127649e-06	1.578675e-08	2.239390e+01	1.036664e+03
1.100000e-06	3.233537e-06	1.619621e-08	2.315205e+01	1.063665e+03
1.110000e-06	3.338030e-06	1.658145e-08	2.390022e+01	1.089028e+03
1.120000e-06	3.441322e-06	1.694459e-08	2.463979e+01	1.112865e+03
1.130000e-06	3.543460e-06	1.728622e-08	2.537109e+01	1.135287e+03
1.140000e-06	3.644435e-06	1.760885e-08	2.609407e+01	1.156409e+03
1.150000e-06	3.744264e-06	1.791347e-08	2.680885e+01	1.176345e+03
1.160000e-06	3.842699e-06	1.820153e-08	2.751364e+01	1.195201e+03
1.170000e-06	3.939526e-06	1.847276e-08	2.820692e+01	1.213071e+03
1.180000e-06	4.034889e-06	1.872846e-08	2.888972e+01	1.230027e+03
1.190000e-06	4.128942e-06	1.897171e-08	2.956313e+01	1.246126e+03
1.200000e-06	4.221705e-06	1.920425e-08	3.022731e+01	1.261406e+03
1.210000e-06	4.313116e-06	1.942574e-08	3.088181e+01	1.275896e+03
1.220000e-06	4.402879e-06	1.963454e-08	3.152452e+01	1.289626e+03
1.230000e-06	4.490899e-06	1.982945e-08	3.215473e+01	1.302628e+03
1.240000e-06	4.577278e-06	2.001346e-08	3.277321e+01	1.314945e+03
1.250000e-06	4.662064e-06	2.018985e-08	3.338027e+01	1.326630e+03
1.260000e-06	4.745374e-06	2.035838e-08	3.397677e+01	1.337737e+03
1.270000e-06	4.826939e-06	2.052135e-08	3.456078e+01	1.348319e+03
1.280000e-06	4.906612e-06	2.067890e-08	3.513123e+01	1.358416e+03
1.290000e-06	4.984522e-06	2.082941e-08	3.568907e+01	1.368056e+03
1.300000e-06	5.060622e-06	2.097058e-08	3.623394e+01	1.377246e+03
1.310000e-06	5.134582e-06	2.110496e-08	3.676349e+01	1.385982e+03
1.320000e-06	5.206483e-06	2.123270e-08	3.727830e+01	1.394250e+03
1.330000e-06	5.276592e-06	2.135097e-08	3.778028e+01	1.402039e+03
1.340000e-06	5.344911e-06	2.146043e-08	3.826945e+01	1.409348e+03
1.350000e-06	5.411241e-06	2.156381e-08	3.874436e+01	1.416190e+03
1.360000e-06	5.475528e-06	2.166330e-08	3.920466e+01	1.422599e+03
1.370000e-06	5.537923e-06	2.175801e-08	3.965141e+01	1.428619e+03
1.380000e-06	5.598493e-06	2.184751e-08	4.008508e+01	1.434306e+03
1.390000e-06	5.657072e-06	2.193228e-08	4.050451e+01	1.439712e+03
1.400000e-06	5.713561e-06	2.201109e-08	4.090897e+01	1.444879e+03
1.410000e-06	5.768027e-06	2.208561e-08	4.129894e+01	1.449832e+03
1.420000e-06	5.820301e-06	2.215715e-08	4.167323e+01	1.454580e+03
1.430000e-06	5.870118e-06	2.222472e-08	4.202991e+01	1.459113e+03
1.440000e-06	5.917474e-06	2.228938e-08	4.236898e+01	1.463411e+03
1.450000e-06	5.962781e-06	2.235158e-08	4.269338e+01	1.467453e+03
1.460000e-06	6.006228e-06	2.241151e-08	4.300446e+01	1.471221e+03
1.470000e-06	6.047551e-06	2.246875e-08	4.330033e+01	1.474708e+03
1.480000e-06	6.086598e-06	2.252143e-08	4.357991e+01	1.477918e+03
1.490000e-06	6.123601e-06	2.256735e-08	4.384485e+01	1.480867e+03
1.500000e-06	6.158529e-06	2.260668e-08	4.409493e+01	1.483574e+03
1.510000e-06	6.191207e-06	2.264267e-08	4.432891e+01	1.486059e+03
1.520000e-06	6.221682e-06	2.267708e-08	4.454710e+01	1.488337e+03
1.530000e-06	6.250080e-06	2.270917e-08	4.475043e+01	1.490412e+03
1.540000e-06	6.276150e-06	2.273690e-08	4.493709e+01	1.492281e+03
1.550000e-06	6.299780e-06	2.276080e-08	4.510628e+01	1.493935e+03
1.560000e-06	6.321261e-06	2.278323e-08	4.526009e+01	1.495365e+03
1.570000e-06	6.340682e-06	2.280453e-08	4.539914e+01	1.496567e+03
1.580000e-06	6.357778e-06	2.282307e-08	4.552155e+01	1.497543e+03
1.590000e-06	6.372413e-06	2.283695e-08	4.562633e+01	1.498308e+03
1.600000e-06	6.384639e-06	2.284672e-08	4.571387e+01	1.498883e+03
1.610000e-06	6.394301e-06	2.285273e-08	4.578305e+01	1.499295e+03
1.620000e-06	6.401460e-06	2.285548e-08	4.583431e+01	1.499564e+03
1.630000e-06	6.406408e-06	2.285797e-08	4.586974e+01	1.499706e+03
1.640000e-06	6.409177e-06	2.286004e-08	4.588956e+01	1.499723e+03
1.650000e-06	6.409601e-06	2.286129e-08	4.589260e+01	1.499608e+03
1.660000e-06	6.407807e-06	2.285741e-08	4.587975e+01	1.499342e+03
1.670000e-06	6.404018e-06	2.285041e-08	4.585263e+01	1.498910e+03
1.680000e-06	6.398130e-06	2.284436e-08	4.581047e+01	1.498296e+03
1.690000e-06	6.390108e-06	2.283427e-08	4.575303e+01	1.497499e+03
1.700000e-06	6.380075e-06	2.282106e-08	4.568119e+01	1.496533e+03
1.710000e-06	6.367838e-06	2.280622e-08	4.559358e+01	1.495424e+03
1.720000e-06	6.353268e-06	2.279084e-08	4.548926e+01	1.494208e+03
1.730000e-06	6.336674e-06	2.275852e-08	4.537044e+01	1.492920e+03
1.740000e-06	6.318073e-06	2.269806e-08	4.523726e+01	1.491588e+03
1.750000e-06	6.296833e-06	2.267336e-08	4.508519e+01	1.490222e+03
1.760000e-06	6.272486e-06	2.268956e-08	4.491086e+01	1.488806e+03
1.770000e-06	6.245507e-06	2.266970e-08	4.471769e+01	1.487303e+03
1.780000e-06	6.216555e-06	2.268259e-08	4.451039e+01	1.485656e+03
1.790000e-06	6.185932e-06	2.270953e-08	4.429114e+01	1.483799e+03
1.800000e-06	6.153891e-06	2.261795e-08	4.406172e+01	1.481666e+03
1.810000e-06	6.119998e-06	2.259133e-08	4.381905e+01	1.479206e+03
1.820000e-06	6.083957e-06	2.257555e-08	4.356099e+01	1.476391e+03
1.830000e-06	6.045894e-06	2.246112e-08	4.328846e+01	1.473222e+03
1.840000e-06	6.005585e-06	2.244849e-08	4.299986e+01	1.469727e+03
1.850000e-06	5.963126e-06	2.235538e-08	4.269585e+01	1.465954e+03
1.860000e-06	5.918677e-06	2.223407e-08	4.237759e+01	1.461967e+03
1.870000e-06	5.872041e-06	2.223717e-08	4.204368e+01	1.457826e+03
1.880000e-06	5.823273e-06	2.216329e-08	4.169450e+01	1.453582e+03
1.890000e-06	5.772130e-06	2.210974e-08	4.132832e+01	1.449268e+03
1.900000e-06	5.718384e-06	2.204041e-08	4.094350e+01	1.444890e+03
1.910000e-06	5.662352e-06	2.193386e-08	4.054232e+01	1.440433e+03
1.920000e-06	5.604295e-06	2.190058e-08	4.012662e+01	1.435864e+03
1.930000e-06	5.544327e-06	2.181698e-08	3.969726e+01	1.431137e+03
1.940000e-06	5.482268e-06	2.174992e-08	3.925291e+01	1.426208e+03
1.950000e-06	5.418102e-06	2.168007e-08	3.879349e+01	1.421036e+03
1.960000e-06	5.351946e-06	2.158484e-08	3.831981e+01	1.415594e+03
1.970000e-06	5.283770e-06	2.150254e-08	3.783167e+01	1.409867e+03
1.980000e-06	5.213496e-06	2.137962e-08	3.732852e+01	1.403853e+03
1.990000e-06	5.141166e-06	2.131518e-08	3.681063e+01	1.397557e+03
2.000000e-06	5.067014e-06	2.123418e-08	3.627971e+01	1.390989e+03
2.010000e-06	4.990934e-06	2.111272e-08	3.573498e+01	1.384155e+03
2.020000e-06	4.912740e-06	2.100594e-08	3.517511e+01	1.377055e+03
2.030000e-06	4.832626e-06	2.087251e-08	3.460149e+01	1.369678e+03
2.040000e-06	4.750870e-06	2.076999e-08	3.401612e+01	1.362009e+03
2.050000e-06	4.667617e-06	2.065621e-08	3.342004e+01	1.354023e+03
2.060000e-06	4.582762e-06	2.053458e-08	3.281247e+01	1.345697e+03
2.070000e-06	4.496206e-06	2.040952e-08	3.219273e+01	1.337009e+03
2.080000e-06	4.407982e-06	2.025994e-08	3.156105e+01	1.327942e+03
2.090000e-06	4.318278e-06	2.011525e-08	3.091877e+01	1.318484e+03
2.100000e-06	4.227179e-06	1.995465e-08	3.026651e+01	1.308631e+03
2.110000e-06	4.134670e-06	1.980818e-08	2.960415e+01	1.298381e+03
2.120000e-06	4.040750e-06	1.965160e-08	2.893168e+01	1.287730e+03
2.130000e-06	3.945301e-06	1.948467e-08	2.824826e+01	1.276669e+03
2.140000e-06	3.848394e-06	1.931410e-08	2.755441e+01	1.265182e+03
2.150000e-06	3.750109e-06	1.912914e-08	2.685070e+01	1.253243e+03
2.160000e-06	3.650529e-06	1.894325e-08	2.613770e+01	1.240819e+03
2.170000e-06	3.549665e-06	1.874467e-08	2.541552e+01	1.227868e+03
2.180000e-06	3.447372e-06	1.854231e-08	2.468311e+01	1.214347e+03
2.190000e-06	3.343642e-06	1.832702e-08	2.394040e+01	1.200213e+03
2.200000e-06	3.238677e-06	1.810478e-08	2.318885e+01	1.185427e+03
2.210000e-06	3.132659e-06	1.787072e-08	2.242977e+01	1.169954e+03
2.220000e-06	3.025538e-06	1.762575e-08	2.166279e+01	1.153765e+03
2.230000e-06	2.917312e-06	1.736949e-08	2.088789e+01	1.136829e+03
2.240000e-06	2.808152e-06	1.710040e-08	2.010631e+01	1.119114e+03
2.250000e-06	2.697925e-06	1.682371e-08	1.931709e+01	1.100580e+03
2.260000e-06	2.586602e-06	1.653055e-08	1.852001e+01	1.081178e+03
2.270000e-06	2.474282e-06	1.621999e-08	1.771580e+01	1.060844e+03
2.280000e-06	2.360956e-06	1.589270e-08	1.690439e+01	1.039503e+03
2.290000e-06	2.246693e-06	1.555189e-08	1.608627e+01	1.017073e+03
2.300000e-06	2.131561e-06	1.519277e-08	1.526193e+01	9.934613e+02
2.310000e-06	2.015634e-06	1.481568e-08	1.443189e+01	9.685742e+02
2.320000e-06	1.898904e-06	1.441834e-08	1.359611e+01	9.423153e+02
2.330000e-06	1.781451e-06	1.399888e-08	1.275515e+01	9.145869e+02
2.340000e-06	1.663312e-06	1.355324e-08	1.190928e+01	8.852876e+02
2.350000e-06	1.544459e-06	1.307963e-08	1.105829e+01	8.543114e+02
2.360000e-06	1.424961e-06	1.257910e-08	1.020269e+01	8.215465e+02
2.370000e-06	1.304978e-06	1.205027e-08	9.343615e+00	7.868778e+02
2.380000e-06	1.184640e-06	1.148995e-08	8.481993e+00	7.501944e+02
2.390000e-06	1.063960e-06	1.089627e-08	7.617931e+00	7.114021e+02
2.400000e-06	9.429252e-07	1.027181e-08	6.751323e+00	6.704409e+02
2.410000e-06	8.215548e-07	9.613163e-09	5.882314e+00	6.273039e+02
2.420000e-06	6.999373e-07	8.922846e-09	5.011535e+00	5.820554e+02
2.430000e-06	5.781413e-07	8.203705e-09	4.139478e+00	5.348424e+02
2.440000e-06	4.561525e-07	7.457759e-09	3.266042e+00	4.858950e+02
2.450000e-06	3.339975e-07	6.687225e-09	2.391415e+00	4.355150e+02
2.460000e-06	2.117303e-07	5.899390e-09	1.515984e+00	3.840492e+02
2.470000e-06	8.939136e-08	5.101779e-09	6.400402e-01	3.318521e+02
2.480000e-06	-3.295719e-08	4.297605e-09	-2.359727e-01	2.792424e+02
2.490000e-06	-1.552866e-07	3.491836e-09	-1.111848e+00	2.264600e+02
2.500000e-06	-2.776073e-07	2.686109e-09	-1.987662e+00	1.736326e+02
2.510000e-06	-3.998875e-07	1.881339e-09	-2.863186e+00	1.207586e+02
2.520000e-06	-5.220737e-07	1.072120e-09	-3.738036e+00	6.771164e+01
2.530000e-06	-6.440797e-07	2.542101e-10	-4.611596e+00	1.426732e+01
2.540000e-06	-7.658709e-07	-5.743351e-10	-5.483619e+00	-3.984969e+01
2.550000e-06	-8.874464e-07	-1.416649e-09	-6.354096e+00	-9.490604e+01
2.560000e-06	-1.008688e-06	-2.274167e-09	-7.222183e+00	-1.510969e+02
2.570000e-06	-1.129593e-06	-3.149137e-09	-8.087859e+00	-2.084906e+02
2.580000e-06	-1.250183e-06	-4.040442e-09	-8.951286e+00	-2.669917e+02
2.590000e-06	-1.370380e-06	-4.946992e-09	-9.811888e+00	-3.263269e+02
2.600000e-06	-1.490097e-06	-5.862888e-09	-1.066906e+01	-3.860597e+02
2.610000e-06	-1.609161e-06	-6.777936e-09	-1.152156e+01	-4.456285e+02
2.620000e-06	-1.727460e-06	-7.679172e-09	-1.236858e+01	-5.044038e+02
2.630000e-06	-1.844969e-06	-8.556554e-09	-1.320994e+01	-5.617530e+02
2.640000e-06	-1.961676e-06	-9.403357e-09	-1.404555e+01	-6.171040e+02
2.650000e-06	-2.077522e-06	-1.021038e-08	-1.487501e+01	-6.699954e+02
2.660000e-06	-2.192528e-06	-1.097575e-08	-1.569845e+01	-7.201085e+02
2.670000e-06	-2.306643e-06	-1.169809e-08	-1.651551e+01	-7.672768e+02
2.680000e-06	-2.419726e-06	-1.237594e-08	-1.732518e+01	-8.114739e+02
2.690000e-06	-2.531696e-06	-1.301184e-08	-1.812689e+01	-8.527864e+02
2.700000e-06	-2.642594e-06	-1.360614e-08	-1.892091e+01	-8.913769e+02
2.710000e-06	-2.752535e-06	-1.416357e-08	-1.970809e+01	-9.274464e+02
2.720000e-06	-2.861546e-06	-1.468531e-08	-2.048861e+01	-9.612022e+02
2.730000e-06	-2.969657e-06	-1.516975e-08	-2.126268e+01	-9.928361e+02
2.740000e-06	-3.076886e-06	-1.562169e-08	-2.203043e+01	-1.022514e+03
2.750000e-06	-3.183116e-06	-1.604372e-08	-2.279104e+01	-1.050376e+03
2.760000e-06	-3.288255e-06	-1.644097e-08	-2.354384e+01	-1.076544e+03
2.770000e-06	-3.392282e-06	-1.681772e-08	-2.428867e+01	-1.101131e+03
2.780000e-06	-3.494954e-06	-1.717401e-08	-2.502379e+01	-1.124246e+03
2.790000e-06	-3.596150e-06	-1.750919e-08	-2.574835e+01	-1.146004e+03
2.800000e-06	-3.696031e-06	-1.782450e-08	-2.646350e+01	-1.166519e+03
2.810000e-06	-3.794777e-06	-1.812234e-08	-2.717052e+01	-1.185902e+03
2.820000e-06	-3.892329e-06	-1.840307e-08	-2.786899e+01	-1.204254e+03
2.830000e-06	-3.988621e-06	-1.866645e-08	-2.855844e+01	-1.221659e+03
2.840000e-06	-4.083527e-06	-1.891578e-08	-2.923796e+01	-1.238181e+03
2.850000e-06	-4.176803e-06	-1.915429e-08	-2.990582e+01	-1.253866e+03
2.860000e-06	-4.268633e-06	-1.938341e-08	-3.056331e+01	-1.268748e+03
2.870000e-06	-4.359021e-06	-1.960349e-08	-3.121049e+01	-1.282854e+03
2.880000e-06	-4.447813e-06	-1.981104e-08	-3.184624e+01	-1.296215e+03
2.890000e-06	-4.535011e-06	-2.000495e-08	-3.247058e+01	-1.308869e+03
2.900000e-06	-4.620444e-06	-2.018882e-08	-3.308227e+01	-1.320863e+03
2.910000e-06	-4.704214e-06	-2.036394e-08	-3.368207e+01	-1.332253e+03
2.920000e-06	-4.786468e-06	-2.052872e-08	-3.427100e+01	-1.343091e+03
2.930000e-06	-4.867087e-06	-2.068414e-08	-3.484824e+01	-1.353426e+03
2.940000e-06	-4.945730e-06	-2.083309e-08	-3.541131e+01	-1.363292e+03
