# Temperatura_=_27.64
# Concentracion g/m^3_=_28200.0
# C_Vs_to_Am_M_A/Vsm_=_65563218390.804596
# pendiente_HvsI_1/m_=_3716.3
# ordenada_HvsI_A/m_=_1297.0
# frecuencia_Hz_=_302129.86737947667

Tiempo_(s)	Campo_(V.s)	Magnetizacion_(V.s)	Campo_(kA/m)	Magnetizacion_(A/m)
0.000000e+00	-6.378396e-06	-1.824754e-08	-4.584839e+01	-1.192904e+03
1.000000e-08	-6.375187e-06	-1.824634e-08	-4.582533e+01	-1.192613e+03
2.000000e-08	-6.369948e-06	-1.823913e-08	-4.578766e+01	-1.192254e+03
3.000000e-08	-6.362796e-06	-1.823193e-08	-4.573626e+01	-1.191792e+03
4.000000e-08	-6.353499e-06	-1.821998e-08	-4.566943e+01	-1.191179e+03
5.000000e-08	-6.341768e-06	-1.820123e-08	-4.558511e+01	-1.190368e+03
6.000000e-08	-6.327738e-06	-1.818241e-08	-4.548425e+01	-1.189329e+03
7.000000e-08	-6.311437e-06	-1.816100e-08	-4.536708e+01	-1.188056e+03
8.000000e-08	-6.292963e-06	-1.814774e-08	-4.523430e+01	-1.186577e+03
9.000000e-08	-6.272407e-06	-1.820925e-08	-4.508653e+01	-1.184953e+03
1.000000e-07	-6.249551e-06	-1.816175e-08	-4.492224e+01	-1.183264e+03
1.100000e-07	-6.224025e-06	-1.806816e-08	-4.473876e+01	-1.181599e+03
1.200000e-07	-6.196022e-06	-1.804827e-08	-4.453747e+01	-1.180030e+03
1.300000e-07	-6.166164e-06	-1.800425e-08	-4.432285e+01	-1.178597e+03
1.400000e-07	-6.134737e-06	-1.787997e-08	-4.409695e+01	-1.177298e+03
1.500000e-07	-6.101646e-06	-1.798391e-08	-4.385909e+01	-1.176082e+03
1.600000e-07	-6.066533e-06	-1.802685e-08	-4.360670e+01	-1.174859e+03
1.700000e-07	-6.029535e-06	-1.780992e-08	-4.334075e+01	-1.173514e+03
1.800000e-07	-5.990630e-06	-1.792365e-08	-4.306110e+01	-1.171930e+03
1.900000e-07	-5.949292e-06	-1.784708e-08	-4.276396e+01	-1.170009e+03
2.000000e-07	-5.905693e-06	-1.769840e-08	-4.245057e+01	-1.167690e+03
2.100000e-07	-5.860022e-06	-1.775407e-08	-4.212228e+01	-1.164957e+03
2.200000e-07	-5.812121e-06	-1.765305e-08	-4.177797e+01	-1.161840e+03
2.300000e-07	-5.761789e-06	-1.762324e-08	-4.141618e+01	-1.158401e+03
2.400000e-07	-5.708888e-06	-1.758674e-08	-4.103592e+01	-1.154722e+03
2.500000e-07	-5.653798e-06	-1.750629e-08	-4.063992e+01	-1.150881e+03
2.600000e-07	-5.596543e-06	-1.748417e-08	-4.022837e+01	-1.146933e+03
2.700000e-07	-5.537086e-06	-1.740454e-08	-3.980100e+01	-1.142906e+03
2.800000e-07	-5.475664e-06	-1.735642e-08	-3.935949e+01	-1.138791e+03
2.900000e-07	-5.412327e-06	-1.728428e-08	-3.890421e+01	-1.134550e+03
3.000000e-07	-5.347000e-06	-1.721888e-08	-3.843464e+01	-1.130129e+03
3.100000e-07	-5.279644e-06	-1.713786e-08	-3.795048e+01	-1.125474e+03
3.200000e-07	-5.210233e-06	-1.703194e-08	-3.745155e+01	-1.120542e+03
3.300000e-07	-5.138953e-06	-1.699205e-08	-3.693918e+01	-1.115313e+03
3.400000e-07	-5.065875e-06	-1.688494e-08	-3.641389e+01	-1.109790e+03
3.500000e-07	-4.990797e-06	-1.679976e-08	-3.587422e+01	-1.103996e+03
3.600000e-07	-4.913597e-06	-1.671843e-08	-3.531931e+01	-1.097963e+03
3.700000e-07	-4.834333e-06	-1.660806e-08	-3.474955e+01	-1.091721e+03
3.800000e-07	-4.753235e-06	-1.652218e-08	-3.416661e+01	-1.085287e+03
3.900000e-07	-4.670460e-06	-1.641549e-08	-3.357162e+01	-1.078658e+03
4.000000e-07	-4.586213e-06	-1.631375e-08	-3.296605e+01	-1.071810e+03
4.100000e-07	-4.500562e-06	-1.619569e-08	-3.235038e+01	-1.064704e+03
4.200000e-07	-4.413533e-06	-1.608396e-08	-3.172480e+01	-1.057293e+03
4.300000e-07	-4.325097e-06	-1.596767e-08	-3.108912e+01	-1.049536e+03
4.400000e-07	-4.235026e-06	-1.583351e-08	-3.044169e+01	-1.041400e+03
4.500000e-07	-4.143350e-06	-1.571333e-08	-2.978271e+01	-1.032871e+03
4.600000e-07	-4.050145e-06	-1.557488e-08	-2.911275e+01	-1.023947e+03
4.700000e-07	-3.955571e-06	-1.543434e-08	-2.843294e+01	-1.014641e+03
4.800000e-07	-3.859710e-06	-1.528133e-08	-2.774389e+01	-1.004965e+03
4.900000e-07	-3.762443e-06	-1.512778e-08	-2.704472e+01	-9.949269e+02
5.000000e-07	-3.663672e-06	-1.496780e-08	-2.633475e+01	-9.845196e+02
5.100000e-07	-3.563449e-06	-1.479839e-08	-2.561434e+01	-9.737219e+02
5.200000e-07	-3.461978e-06	-1.462465e-08	-2.488496e+01	-9.624973e+02
5.300000e-07	-3.359325e-06	-1.444246e-08	-2.414708e+01	-9.507997e+02
5.400000e-07	-3.255512e-06	-1.426087e-08	-2.340086e+01	-9.385796e+02
5.500000e-07	-3.150537e-06	-1.406560e-08	-2.264630e+01	-9.257911e+02
5.600000e-07	-3.044227e-06	-1.386506e-08	-2.188213e+01	-9.123959e+02
5.700000e-07	-2.936580e-06	-1.364914e-08	-2.110836e+01	-8.983644e+02
5.800000e-07	-2.827880e-06	-1.342123e-08	-2.032702e+01	-8.836731e+02
5.900000e-07	-2.718251e-06	-1.318188e-08	-1.953899e+01	-8.683001e+02
6.000000e-07	-2.607667e-06	-1.293294e-08	-1.874411e+01	-8.522192e+02
6.100000e-07	-2.496171e-06	-1.267497e-08	-1.794266e+01	-8.353951e+02
6.200000e-07	-2.383793e-06	-1.240465e-08	-1.713488e+01	-8.177816e+02
6.300000e-07	-2.270494e-06	-1.212513e-08	-1.632048e+01	-7.993218e+02
6.400000e-07	-2.156172e-06	-1.182930e-08	-1.549873e+01	-7.799516e+02
6.500000e-07	-2.040822e-06	-1.151912e-08	-1.466958e+01	-7.596038e+02
6.600000e-07	-1.924588e-06	-1.119237e-08	-1.383408e+01	-7.382121e+02
6.700000e-07	-1.807659e-06	-1.084961e-08	-1.299359e+01	-7.157129e+02
6.800000e-07	-1.690138e-06	-1.048867e-08	-1.214884e+01	-6.920456e+02
6.900000e-07	-1.572095e-06	-1.010543e-08	-1.130033e+01	-6.671503e+02
7.000000e-07	-1.453544e-06	-9.703055e-09	-1.044818e+01	-6.409657e+02
7.100000e-07	-1.334526e-06	-9.282853e-09	-9.592677e+00	-6.134284e+02
7.200000e-07	-1.215102e-06	-8.844527e-09	-8.734245e+00	-5.844762e+02
7.300000e-07	-1.095256e-06	-8.381939e-09	-7.872780e+00	-5.540557e+02
7.400000e-07	-9.750556e-07	-7.896450e-09	-7.008773e+00	-5.221348e+02
7.500000e-07	-8.545527e-07	-7.389104e-09	-6.142589e+00	-4.887171e+02
7.600000e-07	-7.337763e-07	-6.860788e-09	-5.274439e+00	-4.538563e+02
7.700000e-07	-6.127935e-07	-6.309918e-09	-4.404806e+00	-4.176656e+02
7.800000e-07	-4.916454e-07	-5.742299e-09	-3.533984e+00	-3.803189e+02
7.900000e-07	-3.703513e-07	-5.163942e-09	-2.662113e+00	-3.420420e+02
8.000000e-07	-2.488898e-07	-4.573392e-09	-1.789039e+00	-3.030928e+02
8.100000e-07	-1.273041e-07	-3.975823e-09	-9.150717e-01	-2.637330e+02
8.200000e-07	-5.645062e-09	-3.376587e-09	-4.057713e-02	-2.241957e+02
8.300000e-07	1.160583e-07	-2.780119e-09	8.342360e-01	-1.846542e+02
8.400000e-07	2.377807e-07	-2.183268e-09	1.709186e+00	-1.451979e+02
8.500000e-07	3.594446e-07	-1.586272e-09	2.583715e+00	-1.058216e+02
8.600000e-07	4.809609e-07	-9.864779e-10	3.457183e+00	-6.642839e+01
8.700000e-07	6.023345e-07	-3.835750e-10	4.329626e+00	-2.684957e+01
8.800000e-07	7.235087e-07	2.269169e-10	5.200635e+00	1.312360e+01
8.900000e-07	8.444675e-07	8.480460e-10	6.070096e+00	5.370006e+01
9.000000e-07	9.651566e-07	1.477058e-09	6.937619e+00	9.504776e+01
9.100000e-07	1.085509e-06	2.117387e-09	7.802720e+00	1.372579e+02
9.200000e-07	1.205552e-06	2.769325e-09	8.665598e+00	1.803200e+02
9.300000e-07	1.325200e-06	3.431961e-09	9.525639e+00	2.241114e+02
9.400000e-07	1.444332e-06	4.101901e-09	1.038197e+01	2.684026e+02
9.500000e-07	1.562908e-06	4.779114e-09	1.123430e+01	3.128759e+02
9.600000e-07	1.680951e-06	5.453405e-09	1.208280e+01	3.571552e+02
9.700000e-07	1.798415e-06	6.115468e-09	1.292714e+01	4.008406e+02
9.800000e-07	1.915168e-06	6.761762e-09	1.376637e+01	4.435437e+02
9.900000e-07	2.031174e-06	7.390962e-09	1.460023e+01	4.849181e+02
1.000000e-06	2.146258e-06	8.002281e-09	1.542746e+01	5.246823e+02
1.010000e-06	2.260159e-06	8.581335e-09	1.624620e+01	5.626332e+02
1.020000e-06	2.373081e-06	9.130090e-09	1.705788e+01	5.986489e+02
1.030000e-06	2.485199e-06	9.644042e-09	1.786379e+01	6.326844e+02
1.040000e-06	2.596357e-06	1.012524e-08	1.866281e+01	6.647597e+02
1.050000e-06	2.706631e-06	1.057873e-08	1.945547e+01	6.949444e+02
1.060000e-06	2.816010e-06	1.100949e-08	2.024170e+01	7.233412e+02
1.070000e-06	2.924492e-06	1.142064e-08	2.102147e+01	7.500700e+02
1.080000e-06	3.032061e-06	1.180705e-08	2.179468e+01	7.752548e+02
1.090000e-06	3.138396e-06	1.217108e-08	2.255903e+01	7.990140e+02
1.100000e-06	3.243435e-06	1.251335e-08	2.331406e+01	8.214539e+02
1.110000e-06	3.347310e-06	1.283554e-08	2.406072e+01	8.426668e+02
1.120000e-06	3.449990e-06	1.313714e-08	2.479879e+01	8.627313e+02
1.130000e-06	3.551465e-06	1.342330e-08	2.552820e+01	8.817149e+02
1.140000e-06	3.651821e-06	1.369448e-08	2.624956e+01	8.996777e+02
1.150000e-06	3.750935e-06	1.395175e-08	2.696200e+01	9.166762e+02
1.160000e-06	3.848538e-06	1.419371e-08	2.766358e+01	9.327664e+02
1.170000e-06	3.944638e-06	1.442390e-08	2.835436e+01	9.480047e+02
1.180000e-06	4.039374e-06	1.464373e-08	2.903533e+01	9.624486e+02
1.190000e-06	4.132797e-06	1.485400e-08	2.970686e+01	9.761547e+02
1.200000e-06	4.224939e-06	1.505241e-08	3.036918e+01	9.891764e+02
1.210000e-06	4.315577e-06	1.523870e-08	3.102069e+01	1.001561e+03
1.220000e-06	4.404494e-06	1.541502e-08	3.165983e+01	1.013350e+03
1.230000e-06	4.491761e-06	1.558249e-08	3.228711e+01	1.024573e+03
1.240000e-06	4.577464e-06	1.574343e-08	3.290315e+01	1.035253e+03
1.250000e-06	4.661671e-06	1.589694e-08	3.350844e+01	1.045406e+03
1.260000e-06	4.744271e-06	1.604331e-08	3.410218e+01	1.055047e+03
1.270000e-06	4.825111e-06	1.618349e-08	3.468326e+01	1.064185e+03
1.280000e-06	4.904137e-06	1.631814e-08	3.525130e+01	1.072836e+03
1.290000e-06	4.981332e-06	1.644505e-08	3.580619e+01	1.081015e+03
1.300000e-06	5.056535e-06	1.656488e-08	3.634676e+01	1.088744e+03
1.310000e-06	5.129665e-06	1.667824e-08	3.687242e+01	1.096045e+03
1.320000e-06	5.200912e-06	1.678448e-08	3.738455e+01	1.102945e+03
1.330000e-06	5.270387e-06	1.688256e-08	3.788394e+01	1.109469e+03
1.340000e-06	5.337972e-06	1.697378e-08	3.836975e+01	1.115641e+03
1.350000e-06	5.403535e-06	1.705896e-08	3.884102e+01	1.121485e+03
1.360000e-06	5.467159e-06	1.714086e-08	3.929835e+01	1.127023e+03
1.370000e-06	5.528973e-06	1.722147e-08	3.974268e+01	1.132277e+03
1.380000e-06	5.589040e-06	1.729953e-08	4.017444e+01	1.137270e+03
1.390000e-06	5.647059e-06	1.737464e-08	4.059149e+01	1.142021e+03
1.400000e-06	5.702894e-06	1.744641e-08	4.099283e+01	1.146549e+03
1.410000e-06	5.756692e-06	1.751192e-08	4.137953e+01	1.150871e+03
1.420000e-06	5.808183e-06	1.757123e-08	4.174966e+01	1.154995e+03
1.430000e-06	5.857196e-06	1.762627e-08	4.210197e+01	1.158922e+03
1.440000e-06	5.904004e-06	1.767965e-08	4.243843e+01	1.162645e+03
1.450000e-06	5.948897e-06	1.773250e-08	4.276112e+01	1.166152e+03
1.460000e-06	5.991702e-06	1.778390e-08	4.306880e+01	1.169426e+03
1.470000e-06	6.032226e-06	1.783266e-08	4.336010e+01	1.172452e+03
1.480000e-06	6.070623e-06	1.787624e-08	4.363610e+01	1.175222e+03
1.490000e-06	6.107107e-06	1.791352e-08	4.389835e+01	1.177736e+03
1.500000e-06	6.141482e-06	1.794558e-08	4.414543e+01	1.180007e+03
1.510000e-06	6.173537e-06	1.797526e-08	4.437585e+01	1.182055e+03
1.520000e-06	6.203464e-06	1.800290e-08	4.459097e+01	1.183907e+03
1.530000e-06	6.231343e-06	1.802718e-08	4.479137e+01	1.185591e+03
1.540000e-06	6.256866e-06	1.804817e-08	4.497483e+01	1.187126e+03
1.550000e-06	6.279943e-06	1.806912e-08	4.514070e+01	1.188520e+03
1.560000e-06	6.300900e-06	1.808954e-08	4.529135e+01	1.189770e+03
1.570000e-06	6.319753e-06	1.810725e-08	4.542686e+01	1.190859e+03
1.580000e-06	6.336252e-06	1.812125e-08	4.554546e+01	1.191769e+03
1.590000e-06	6.350317e-06	1.813074e-08	4.564656e+01	1.192479e+03
1.600000e-06	6.361922e-06	1.813700e-08	4.572997e+01	1.192981e+03
1.610000e-06	6.370974e-06	1.814186e-08	4.579504e+01	1.193280e+03
1.620000e-06	6.377650e-06	1.814555e-08	4.584303e+01	1.193400e+03
1.630000e-06	6.382241e-06	1.814829e-08	4.587603e+01	1.193372e+03
1.640000e-06	6.384546e-06	1.814871e-08	4.589260e+01	1.193238e+03
1.650000e-06	6.384449e-06	1.814968e-08	4.589190e+01	1.193030e+03
1.660000e-06	6.382225e-06	1.814108e-08	4.587592e+01	1.192766e+03
1.670000e-06	6.378014e-06	1.813717e-08	4.584564e+01	1.192444e+03
1.680000e-06	6.371601e-06	1.813060e-08	4.579955e+01	1.192039e+03
1.690000e-06	6.363020e-06	1.811812e-08	4.573787e+01	1.191507e+03
1.700000e-06	6.352472e-06	1.810652e-08	4.566205e+01	1.190801e+03
1.710000e-06	6.339647e-06	1.809609e-08	4.556986e+01	1.189878e+03
1.720000e-06	6.324609e-06	1.809855e-08	4.546177e+01	1.188721e+03
1.730000e-06	6.307730e-06	1.806617e-08	4.534044e+01	1.187339e+03
1.740000e-06	6.288841e-06	1.794522e-08	4.520466e+01	1.185778e+03
1.750000e-06	6.267092e-06	1.796207e-08	4.504833e+01	1.184111e+03
1.760000e-06	6.242118e-06	1.799238e-08	4.486882e+01	1.182424e+03
1.770000e-06	6.214799e-06	1.794045e-08	4.467244e+01	1.180799e+03
1.780000e-06	6.185549e-06	1.804252e-08	4.446219e+01	1.179296e+03
1.790000e-06	6.154590e-06	1.801257e-08	4.423966e+01	1.177933e+03
1.800000e-06	6.122341e-06	1.775085e-08	4.400785e+01	1.176685e+03
1.810000e-06	6.088163e-06	1.789556e-08	4.376217e+01	1.175478e+03
1.820000e-06	6.051857e-06	1.791240e-08	4.350120e+01	1.174209e+03
1.830000e-06	6.013508e-06	1.785821e-08	4.322555e+01	1.172758e+03
1.840000e-06	5.972840e-06	1.804328e-08	4.293323e+01	1.171016e+03
1.850000e-06	5.930133e-06	1.781652e-08	4.262624e+01	1.168901e+03
1.860000e-06	5.885387e-06	1.782219e-08	4.230461e+01	1.166374e+03
1.870000e-06	5.838458e-06	1.783055e-08	4.196727e+01	1.163443e+03
1.880000e-06	5.789490e-06	1.764714e-08	4.161529e+01	1.160156e+03
1.890000e-06	5.738083e-06	1.772699e-08	4.124577e+01	1.156587e+03
1.900000e-06	5.684014e-06	1.758242e-08	4.085712e+01	1.152818e+03
1.910000e-06	5.627656e-06	1.755650e-08	4.045201e+01	1.148918e+03
1.920000e-06	5.569322e-06	1.754832e-08	4.003271e+01	1.144929e+03
1.930000e-06	5.509181e-06	1.736236e-08	3.960040e+01	1.140861e+03
1.940000e-06	5.446965e-06	1.739819e-08	3.915319e+01	1.136689e+03
1.950000e-06	5.382569e-06	1.726484e-08	3.869031e+01	1.132365e+03
1.960000e-06	5.316152e-06	1.725915e-08	3.821290e+01	1.127834e+03
1.970000e-06	5.247788e-06	1.716503e-08	3.772150e+01	1.123044e+03
1.980000e-06	5.177350e-06	1.704039e-08	3.721518e+01	1.117965e+03
1.990000e-06	5.104853e-06	1.705368e-08	3.669407e+01	1.112587e+03
2.000000e-06	5.030645e-06	1.688624e-08	3.616066e+01	1.106925e+03
2.010000e-06	4.954469e-06	1.684110e-08	3.561310e+01	1.101007e+03
2.020000e-06	4.876088e-06	1.672024e-08	3.504969e+01	1.094867e+03
2.030000e-06	4.795830e-06	1.663624e-08	3.447279e+01	1.088528e+03
2.040000e-06	4.714025e-06	1.656259e-08	3.388477e+01	1.081998e+03
2.050000e-06	4.630780e-06	1.642572e-08	3.328640e+01	1.075263e+03
2.060000e-06	4.545866e-06	1.635704e-08	3.267603e+01	1.068292e+03
2.070000e-06	4.459217e-06	1.621584e-08	3.205319e+01	1.061039e+03
2.080000e-06	4.370953e-06	1.612033e-08	3.141874e+01	1.053461e+03
2.090000e-06	4.281239e-06	1.597210e-08	3.077387e+01	1.045517e+03
2.100000e-06	4.190187e-06	1.584599e-08	3.011938e+01	1.037185e+03
2.110000e-06	4.097684e-06	1.573046e-08	2.945446e+01	1.028458e+03
2.120000e-06	4.003652e-06	1.559074e-08	2.877856e+01	1.019341e+03
2.130000e-06	3.908120e-06	1.546115e-08	2.809186e+01	1.009849e+03
2.140000e-06	3.811201e-06	1.529741e-08	2.739520e+01	9.999915e+02
2.150000e-06	3.712962e-06	1.515573e-08	2.668905e+01	9.897703e+02
2.160000e-06	3.613474e-06	1.498487e-08	2.597392e+01	9.791715e+02
2.170000e-06	3.512684e-06	1.482253e-08	2.524944e+01	9.681657e+02
2.180000e-06	3.410474e-06	1.464368e-08	2.451474e+01	9.567107e+02
2.190000e-06	3.306826e-06	1.446574e-08	2.376972e+01	9.447580e+02
2.200000e-06	3.201939e-06	1.426972e-08	2.301578e+01	9.322590e+02
2.210000e-06	3.096031e-06	1.406565e-08	2.225451e+01	9.191714e+02
2.220000e-06	2.989094e-06	1.386190e-08	2.148584e+01	9.054613e+02
2.230000e-06	2.881141e-06	1.364980e-08	2.070986e+01	8.911026e+02
2.240000e-06	2.772294e-06	1.343013e-08	1.992746e+01	8.760733e+02
2.250000e-06	2.662402e-06	1.318990e-08	1.913755e+01	8.603501e+02
2.260000e-06	2.551386e-06	1.294146e-08	1.833955e+01	8.439027e+02
2.270000e-06	2.439333e-06	1.267168e-08	1.753411e+01	8.266904e+02
2.280000e-06	2.326262e-06	1.239917e-08	1.672135e+01	8.086614e+02
2.290000e-06	2.212297e-06	1.211026e-08	1.590216e+01	7.897547e+02
2.300000e-06	2.097486e-06	1.180926e-08	1.507689e+01	7.699041e+02
2.310000e-06	1.981900e-06	1.148992e-08	1.424604e+01	7.490425e+02
2.320000e-06	1.865550e-06	1.115710e-08	1.340971e+01	7.271048e+02
2.330000e-06	1.748421e-06	1.080929e-08	1.256778e+01	7.040290e+02
2.340000e-06	1.630505e-06	1.043948e-08	1.172019e+01	6.797552e+02
2.350000e-06	1.511839e-06	1.005054e-08	1.086721e+01	6.542231e+02
2.360000e-06	1.392641e-06	9.640594e-09	1.001041e+01	6.273702e+02
2.370000e-06	1.273007e-06	9.209625e-09	9.150471e+00	5.991329e+02
2.380000e-06	1.152936e-06	8.753407e-09	8.287388e+00	5.694522e+02
2.390000e-06	1.032563e-06	8.278914e-09	7.422138e+00	5.382836e+02
2.400000e-06	9.119250e-07	7.779996e-09	6.554985e+00	5.056110e+02
2.410000e-06	7.909694e-07	7.256576e-09	5.685547e+00	4.714614e+02
2.420000e-06	6.697785e-07	6.710592e-09	4.814418e+00	4.359177e+02
2.430000e-06	5.484493e-07	6.145527e-09	3.942295e+00	3.991236e+02
2.440000e-06	4.269462e-07	5.565802e-09	3.068922e+00	3.612810e+02
2.450000e-06	3.052912e-07	4.972374e-09	2.194456e+00	3.226348e+02
2.460000e-06	1.835971e-07	4.371280e-09	1.319710e+00	2.834486e+02
2.470000e-06	6.178259e-08	3.765347e-09	4.440979e-01	2.439740e+02
2.480000e-06	-6.019247e-08	3.157094e-09	-4.326680e-01	2.044177e+02
2.490000e-06	-1.821017e-07	2.548445e-09	-1.308961e+00	1.649135e+02
2.500000e-06	-3.038864e-07	1.942991e-09	-2.184358e+00	1.255038e+02
2.510000e-06	-4.256183e-07	1.343749e-09	-3.059377e+00	8.613628e+01
2.520000e-06	-5.472567e-07	7.434336e-10	-3.933723e+00	4.667474e+01
2.530000e-06	-6.687040e-07	1.349680e-10	-4.806695e+00	6.925825e+00
2.540000e-06	-7.899748e-07	-4.837234e-10	-5.678399e+00	-3.332450e+01
2.550000e-06	-9.110533e-07	-1.110995e-09	-6.548720e+00	-7.426965e+01
2.560000e-06	-1.031807e-06	-1.747923e-09	-7.416709e+00	-1.160431e+02
2.570000e-06	-1.152234e-06	-2.399643e-09	-8.282348e+00	-1.586874e+02
2.580000e-06	-1.272266e-06	-3.064486e-09	-9.145143e+00	-2.021365e+02
2.590000e-06	-1.391917e-06	-3.740399e-09	-1.000520e+01	-2.462126e+02
2.600000e-06	-1.511070e-06	-4.423093e-09	-1.086169e+01	-2.906390e+02
2.610000e-06	-1.629538e-06	-5.106327e-09	-1.171324e+01	-3.350646e+02
2.620000e-06	-1.747174e-06	-5.781741e-09	-1.255882e+01	-3.790971e+02
2.630000e-06	-1.863947e-06	-6.440835e-09	-1.339819e+01	-4.223379e+02
2.640000e-06	-1.980032e-06	-7.080537e-09	-1.423262e+01	-4.644163e+02
2.650000e-06	-2.095337e-06	-7.701434e-09	-1.506144e+01	-5.050161e+02
2.660000e-06	-2.209724e-06	-8.300124e-09	-1.588366e+01	-5.438939e+02
2.670000e-06	-2.323163e-06	-8.869785e-09	-1.669907e+01	-5.808874e+02
2.680000e-06	-2.435477e-06	-9.407997e-09	-1.750639e+01	-6.159143e+02
2.690000e-06	-2.546658e-06	-9.912374e-09	-1.830557e+01	-6.489637e+02
2.700000e-06	-2.656942e-06	-1.038537e-08	-1.909830e+01	-6.800826e+02
2.710000e-06	-2.766252e-06	-1.083136e-08	-1.988403e+01	-7.093590e+02
2.720000e-06	-2.874625e-06	-1.125117e-08	-2.066302e+01	-7.369063e+02
2.730000e-06	-2.982212e-06	-1.164836e-08	-2.143637e+01	-7.628478e+02
2.740000e-06	-3.088805e-06	-1.202735e-08	-2.220256e+01	-7.873056e+02
2.750000e-06	-3.194305e-06	-1.238455e-08	-2.296091e+01	-8.103928e+02
2.760000e-06	-3.298783e-06	-1.271885e-08	-2.371190e+01	-8.322085e+02
2.770000e-06	-3.402158e-06	-1.303378e-08	-2.445497e+01	-8.528382e+02
2.780000e-06	-3.504152e-06	-1.333132e-08	-2.518811e+01	-8.723543e+02
2.790000e-06	-3.604763e-06	-1.361218e-08	-2.591131e+01	-8.908203e+02
2.800000e-06	-3.704129e-06	-1.387855e-08	-2.662555e+01	-9.082940e+02
2.810000e-06	-3.802250e-06	-1.413181e-08	-2.733086e+01	-9.248313e+02
2.820000e-06	-3.899168e-06	-1.437228e-08	-2.802752e+01	-9.404884e+02
2.830000e-06	-3.994800e-06	-1.460072e-08	-2.871492e+01	-9.553224e+02
2.840000e-06	-4.088915e-06	-1.481964e-08	-2.939143e+01	-9.693904e+02
2.850000e-06	-4.181501e-06	-1.502947e-08	-3.005695e+01	-9.827479e+02
2.860000e-06	-4.272680e-06	-1.522815e-08	-3.071235e+01	-9.954458e+02
2.870000e-06	-4.362294e-06	-1.541481e-08	-3.135649e+01	-1.007528e+03
2.880000e-06	-4.450338e-06	-1.559064e-08	-3.198937e+01	-1.019030e+03
2.890000e-06	-4.536712e-06	-1.575558e-08	-3.261023e+01	-1.029979e+03
2.900000e-06	-4.621386e-06	-1.591088e-08	-3.321887e+01	-1.040395e+03
2.910000e-06	-4.704490e-06	-1.606069e-08	-3.381623e+01	-1.050290e+03
2.920000e-06	-4.785990e-06	-1.620382e-08	-3.440205e+01	-1.059678e+03
2.930000e-06	-4.865779e-06	-1.634002e-08	-3.497559e+01	-1.068570e+03
2.940000e-06	-4.943577e-06	-1.647072e-08	-3.553480e+01	-1.076983e+03
