# Temperatura_=_89.92
# Concentracion g/m^3_=_28200.0
# C_Vs_to_Am_M_A/Vsm_=_65563218390.804596
# pendiente_HvsI_1/m_=_3716.3
# ordenada_HvsI_A/m_=_1297.0
# frecuencia_Hz_=_302138.45399407035

Tiempo_(s)	Campo_(V.s)	Magnetizacion_(V.s)	Campo_(kA/m)	Magnetizacion_(A/m)
0.000000e+00	-6.446376e-06	-3.063204e-08	-4.584855e+01	-2.006616e+03
1.000000e-08	-6.443058e-06	-3.062530e-08	-4.582495e+01	-2.006002e+03
2.000000e-08	-6.437759e-06	-3.060923e-08	-4.578727e+01	-2.005206e+03
3.000000e-08	-6.430600e-06	-3.059563e-08	-4.573635e+01	-2.004226e+03
4.000000e-08	-6.421287e-06	-3.057846e-08	-4.567011e+01	-2.003050e+03
5.000000e-08	-6.409512e-06	-3.055373e-08	-4.558637e+01	-2.001659e+03
6.000000e-08	-6.395270e-06	-3.052152e-08	-4.548507e+01	-2.000031e+03
7.000000e-08	-6.378711e-06	-3.048654e-08	-4.536730e+01	-1.998152e+03
8.000000e-08	-6.360188e-06	-3.048439e-08	-4.523556e+01	-1.996018e+03
9.000000e-08	-6.339546e-06	-3.057138e-08	-4.508875e+01	-1.993646e+03
1.000000e-07	-6.316445e-06	-3.047863e-08	-4.492445e+01	-1.991071e+03
1.100000e-07	-6.290685e-06	-3.033538e-08	-4.474123e+01	-1.988341e+03
1.200000e-07	-6.262479e-06	-3.030407e-08	-4.454062e+01	-1.985507e+03
1.300000e-07	-6.232274e-06	-3.021282e-08	-4.432579e+01	-1.982610e+03
1.400000e-07	-6.200592e-06	-3.003178e-08	-4.410046e+01	-1.979667e+03
1.500000e-07	-6.167197e-06	-3.022284e-08	-4.386295e+01	-1.976661e+03
1.600000e-07	-6.131637e-06	-3.019609e-08	-4.361004e+01	-1.973541e+03
1.700000e-07	-6.094193e-06	-2.988766e-08	-4.334372e+01	-1.970225e+03
1.800000e-07	-6.054803e-06	-3.005956e-08	-4.306357e+01	-1.966617e+03
1.900000e-07	-6.013041e-06	-2.986243e-08	-4.276655e+01	-1.962623e+03
2.000000e-07	-5.968987e-06	-2.974460e-08	-4.245322e+01	-1.958171e+03
2.100000e-07	-5.922845e-06	-2.985547e-08	-4.212504e+01	-1.953225e+03
2.200000e-07	-5.874304e-06	-2.965941e-08	-4.177980e+01	-1.947792e+03
2.300000e-07	-5.823197e-06	-2.959792e-08	-4.141632e+01	-1.941920e+03
2.400000e-07	-5.769656e-06	-2.949664e-08	-4.103552e+01	-1.935684e+03
2.500000e-07	-5.714019e-06	-2.936242e-08	-4.063981e+01	-1.929166e+03
2.600000e-07	-5.656190e-06	-2.930306e-08	-4.022852e+01	-1.922437e+03
2.700000e-07	-5.596162e-06	-2.918396e-08	-3.980157e+01	-1.915541e+03
2.800000e-07	-5.534258e-06	-2.911289e-08	-3.936129e+01	-1.908482e+03
2.900000e-07	-5.470384e-06	-2.895565e-08	-3.890701e+01	-1.901229e+03
3.000000e-07	-5.404357e-06	-2.885954e-08	-3.843740e+01	-1.893723e+03
3.100000e-07	-5.336276e-06	-2.874331e-08	-3.795319e+01	-1.885893e+03
3.200000e-07	-5.266233e-06	-2.858980e-08	-3.745502e+01	-1.877675e+03
3.300000e-07	-5.194284e-06	-2.850055e-08	-3.694330e+01	-1.869027e+03
3.400000e-07	-5.120374e-06	-2.832165e-08	-3.641763e+01	-1.859932e+03
3.500000e-07	-5.044365e-06	-2.819408e-08	-3.587703e+01	-1.850403e+03
3.600000e-07	-4.966257e-06	-2.803556e-08	-3.532150e+01	-1.840471e+03
3.700000e-07	-4.886089e-06	-2.787459e-08	-3.475133e+01	-1.830168e+03
3.800000e-07	-4.804154e-06	-2.774386e-08	-3.416858e+01	-1.819518e+03
3.900000e-07	-4.720671e-06	-2.756649e-08	-3.357482e+01	-1.808524e+03
4.000000e-07	-4.635685e-06	-2.738814e-08	-3.297037e+01	-1.797163e+03
4.100000e-07	-4.549274e-06	-2.719439e-08	-3.235579e+01	-1.785389e+03
4.200000e-07	-4.461473e-06	-2.701762e-08	-3.173133e+01	-1.773149e+03
4.300000e-07	-4.372125e-06	-2.681739e-08	-3.109586e+01	-1.760388e+03
4.400000e-07	-4.281073e-06	-2.660296e-08	-3.044827e+01	-1.747067e+03
4.500000e-07	-4.188476e-06	-2.640126e-08	-2.978969e+01	-1.733165e+03
4.600000e-07	-4.094485e-06	-2.617271e-08	-2.912120e+01	-1.718686e+03
4.700000e-07	-3.999049e-06	-2.594858e-08	-2.844243e+01	-1.703642e+03
4.800000e-07	-3.902128e-06	-2.571351e-08	-2.775310e+01	-1.688049e+03
4.900000e-07	-3.803671e-06	-2.547315e-08	-2.705284e+01	-1.671911e+03
5.000000e-07	-3.703740e-06	-2.521371e-08	-2.634211e+01	-1.655209e+03
5.100000e-07	-3.602470e-06	-2.494226e-08	-2.562184e+01	-1.637897e+03
5.200000e-07	-3.500050e-06	-2.466322e-08	-2.489340e+01	-1.619911e+03
5.300000e-07	-3.396480e-06	-2.437044e-08	-2.415678e+01	-1.601172e+03
5.400000e-07	-3.291579e-06	-2.407700e-08	-2.341070e+01	-1.581602e+03
5.500000e-07	-3.185441e-06	-2.376391e-08	-2.265581e+01	-1.561139e+03
5.600000e-07	-3.078012e-06	-2.344008e-08	-2.189174e+01	-1.539738e+03
5.700000e-07	-2.969365e-06	-2.309533e-08	-2.111901e+01	-1.517372e+03
5.800000e-07	-2.859675e-06	-2.273880e-08	-2.033886e+01	-1.494024e+03
5.900000e-07	-2.749051e-06	-2.236892e-08	-1.955207e+01	-1.469673e+03
6.000000e-07	-2.637490e-06	-2.198196e-08	-1.875861e+01	-1.444277e+03
6.100000e-07	-2.524788e-06	-2.157664e-08	-1.795705e+01	-1.417762e+03
6.200000e-07	-2.411026e-06	-2.114738e-08	-1.714794e+01	-1.390021e+03
6.300000e-07	-2.296206e-06	-2.069798e-08	-1.633130e+01	-1.360914e+03
6.400000e-07	-2.180321e-06	-2.022399e-08	-1.550710e+01	-1.330284e+03
6.500000e-07	-2.063600e-06	-1.973216e-08	-1.467694e+01	-1.297973e+03
6.600000e-07	-1.946167e-06	-1.921243e-08	-1.384172e+01	-1.263832e+03
6.700000e-07	-1.828087e-06	-1.866283e-08	-1.300190e+01	-1.227734e+03
6.800000e-07	-1.709499e-06	-1.808372e-08	-1.215847e+01	-1.189570e+03
6.900000e-07	-1.590469e-06	-1.747021e-08	-1.131189e+01	-1.149239e+03
7.000000e-07	-1.470915e-06	-1.682177e-08	-1.046159e+01	-1.106631e+03
7.100000e-07	-1.350742e-06	-1.613452e-08	-9.606884e+00	-1.061615e+03
7.200000e-07	-1.229998e-06	-1.540995e-08	-8.748112e+00	-1.014031e+03
7.300000e-07	-1.108746e-06	-1.463821e-08	-7.885730e+00	-9.636994e+02
7.400000e-07	-9.870517e-07	-1.382111e-08	-7.020207e+00	-9.104424e+02
7.500000e-07	-8.650538e-07	-1.296046e-08	-6.152521e+00	-8.541237e+02
7.600000e-07	-7.428300e-07	-1.205544e-08	-5.283229e+00	-7.946912e+02
7.700000e-07	-6.204007e-07	-1.110356e-08	-4.412475e+00	-7.322158e+02
7.800000e-07	-4.977975e-07	-1.011047e-08	-3.540484e+00	-6.669145e+02
7.900000e-07	-3.750517e-07	-9.083688e-09	-2.667480e+00	-5.991469e+02
8.000000e-07	-2.521978e-07	-8.022383e-09	-1.793706e+00	-5.293825e+02
8.100000e-07	-1.292132e-07	-6.938071e-09	-9.190028e-01	-4.581409e+02
8.200000e-07	-6.085820e-09	-5.836947e-09	-4.328417e-02	-3.859138e+02
8.300000e-07	1.171302e-07	-4.725630e-09	8.330653e-01	-3.130854e+02
8.400000e-07	2.403480e-07	-3.605598e-09	1.709427e+00	-2.398677e+02
8.500000e-07	3.634410e-07	-2.481177e-09	2.584901e+00	-1.662667e+02
8.600000e-07	4.863951e-07	-1.349986e-09	3.459387e+00	-9.209021e+01
8.700000e-07	6.092167e-07	-2.088727e-10	4.332932e+00	-1.699830e+01
8.800000e-07	7.318570e-07	9.516164e-10	5.205186e+00	5.940959e+01
8.900000e-07	8.542659e-07	2.138900e-09	6.075795e+00	1.374875e+02
9.000000e-07	9.764199e-07	3.352722e-09	6.944590e+00	2.174354e+02
9.100000e-07	1.098292e-06	4.596906e-09	7.811378e+00	2.992131e+02
9.200000e-07	1.219744e-06	5.865523e-09	8.675182e+00	3.824927e+02
9.300000e-07	1.340645e-06	7.150731e-09	9.535068e+00	4.666594e+02
9.400000e-07	1.460954e-06	8.436782e-09	1.039074e+01	5.508617e+02
9.500000e-07	1.580635e-06	9.709530e-09	1.124195e+01	6.341008e+02
9.600000e-07	1.699708e-06	1.094878e-08	1.208883e+01	7.153433e+02
9.700000e-07	1.818255e-06	1.213609e-08	1.293198e+01	7.936359e+02
9.800000e-07	1.936186e-06	1.325887e-08	1.377073e+01	8.682026e+02
9.900000e-07	2.053374e-06	1.431514e-08	1.460421e+01	9.385091e+02
1.000000e-06	2.169821e-06	1.531409e-08	1.543242e+01	1.004286e+03
1.010000e-06	2.285413e-06	1.624614e-08	1.625454e+01	1.065513e+03
1.020000e-06	2.399992e-06	1.711297e-08	1.706946e+01	1.122369e+03
1.030000e-06	2.513490e-06	1.791302e-08	1.787669e+01	1.175165e+03
1.040000e-06	2.625836e-06	1.865477e-08	1.867573e+01	1.224275e+03
1.050000e-06	2.737126e-06	1.934733e-08	1.946726e+01	1.270073e+03
1.060000e-06	2.847514e-06	1.999765e-08	2.025237e+01	1.312892e+03
1.070000e-06	2.956939e-06	2.060945e-08	2.103063e+01	1.353003e+03
1.080000e-06	3.065428e-06	2.118051e-08	2.180224e+01	1.390619e+03
1.090000e-06	3.172936e-06	2.171402e-08	2.256687e+01	1.425908e+03
1.100000e-06	3.279248e-06	2.221109e-08	2.332299e+01	1.459014e+03
1.110000e-06	3.384303e-06	2.268017e-08	2.407017e+01	1.490078e+03
1.120000e-06	3.488021e-06	2.312194e-08	2.480784e+01	1.519248e+03
1.130000e-06	3.590462e-06	2.353921e-08	2.553644e+01	1.546685e+03
1.140000e-06	3.691774e-06	2.393307e-08	2.625700e+01	1.572552e+03
1.150000e-06	3.791849e-06	2.430846e-08	2.696876e+01	1.597008e+03
1.160000e-06	3.890573e-06	2.466245e-08	2.767092e+01	1.620194e+03
1.170000e-06	3.987796e-06	2.499683e-08	2.836239e+01	1.642223e+03
1.180000e-06	4.083432e-06	2.531435e-08	2.904259e+01	1.663180e+03
1.190000e-06	4.177616e-06	2.561945e-08	2.971245e+01	1.683124e+03
1.200000e-06	4.270474e-06	2.590831e-08	3.037289e+01	1.702095e+03
1.210000e-06	4.361969e-06	2.617997e-08	3.102363e+01	1.720129e+03
1.220000e-06	4.451873e-06	2.643834e-08	3.166305e+01	1.737258e+03
1.230000e-06	4.540060e-06	2.668385e-08	3.229026e+01	1.753525e+03
1.240000e-06	4.626620e-06	2.691903e-08	3.290590e+01	1.768978e+03
1.250000e-06	4.711651e-06	2.714305e-08	3.351067e+01	1.783673e+03
1.260000e-06	4.795111e-06	2.735717e-08	3.410427e+01	1.797663e+03
1.270000e-06	4.876840e-06	2.756013e-08	3.468554e+01	1.810998e+03
1.280000e-06	4.956708e-06	2.775189e-08	3.525359e+01	1.823721e+03
1.290000e-06	5.034747e-06	2.793337e-08	3.580863e+01	1.835864e+03
1.300000e-06	5.110872e-06	2.810751e-08	3.635005e+01	1.847450e+03
1.310000e-06	5.184842e-06	2.827512e-08	3.687614e+01	1.858500e+03
1.320000e-06	5.256801e-06	2.843545e-08	3.738794e+01	1.869030e+03
1.330000e-06	5.326924e-06	2.859006e-08	3.788668e+01	1.879057e+03
1.340000e-06	5.395214e-06	2.873882e-08	3.837237e+01	1.888600e+03
1.350000e-06	5.461502e-06	2.887907e-08	3.884383e+01	1.897677e+03
1.360000e-06	5.525688e-06	2.901124e-08	3.930034e+01	1.906303e+03
1.370000e-06	5.587940e-06	2.913743e-08	3.974310e+01	1.914490e+03
1.380000e-06	5.648433e-06	2.925778e-08	4.017334e+01	1.922246e+03
1.390000e-06	5.707067e-06	2.937203e-08	4.059036e+01	1.929574e+03
1.400000e-06	5.763532e-06	2.948084e-08	4.099196e+01	1.936480e+03
1.410000e-06	5.817908e-06	2.958140e-08	4.137870e+01	1.942971e+03
1.420000e-06	5.870073e-06	2.967301e-08	4.174971e+01	1.949064e+03
1.430000e-06	5.919721e-06	2.975702e-08	4.210283e+01	1.954780e+03
1.440000e-06	5.967044e-06	2.983672e-08	4.243940e+01	1.960150e+03
1.450000e-06	6.012343e-06	2.991352e-08	4.276158e+01	1.965207e+03
1.460000e-06	6.055625e-06	2.998882e-08	4.306942e+01	1.969982e+03
1.470000e-06	6.096645e-06	3.006108e-08	4.336116e+01	1.974497e+03
1.480000e-06	6.135389e-06	3.012768e-08	4.363672e+01	1.978763e+03
1.490000e-06	6.172198e-06	3.019033e-08	4.389851e+01	1.982779e+03
1.500000e-06	6.206887e-06	3.024864e-08	4.414523e+01	1.986530e+03
1.510000e-06	6.239246e-06	3.030207e-08	4.437538e+01	1.989998e+03
1.520000e-06	6.269434e-06	3.035149e-08	4.459009e+01	1.993159e+03
1.530000e-06	6.297570e-06	3.039641e-08	4.479020e+01	1.995999e+03
1.540000e-06	6.323408e-06	3.043472e-08	4.497397e+01	1.998509e+03
1.550000e-06	6.346761e-06	3.046683e-08	4.514006e+01	2.000694e+03
1.560000e-06	6.367948e-06	3.049423e-08	4.529075e+01	2.002563e+03
1.570000e-06	6.386988e-06	3.051903e-08	4.542616e+01	2.004136e+03
1.580000e-06	6.403660e-06	3.054135e-08	4.554474e+01	2.005431e+03
1.590000e-06	6.417918e-06	3.056005e-08	4.564615e+01	2.006464e+03
1.600000e-06	6.429625e-06	3.057551e-08	4.572941e+01	2.007249e+03
1.610000e-06	6.438761e-06	3.058647e-08	4.579439e+01	2.007793e+03
1.620000e-06	6.445572e-06	3.059266e-08	4.584284e+01	2.008104e+03
1.630000e-06	6.450256e-06	3.059520e-08	4.587614e+01	2.008189e+03
1.640000e-06	6.452569e-06	3.059407e-08	4.589260e+01	2.008057e+03
1.650000e-06	6.452446e-06	3.059420e-08	4.589173e+01	2.007720e+03
1.660000e-06	6.450209e-06	3.057727e-08	4.587582e+01	2.007191e+03
1.670000e-06	6.445956e-06	3.056778e-08	4.584556e+01	2.006479e+03
1.680000e-06	6.439512e-06	3.055655e-08	4.579973e+01	2.005585e+03
1.690000e-06	6.430887e-06	3.053791e-08	4.573839e+01	2.004502e+03
1.700000e-06	6.420288e-06	3.052048e-08	4.566300e+01	2.003214e+03
1.710000e-06	6.407370e-06	3.050284e-08	4.557113e+01	2.001698e+03
1.720000e-06	6.392148e-06	3.050461e-08	4.546287e+01	1.999937e+03
1.730000e-06	6.375107e-06	3.043856e-08	4.534166e+01	1.997920e+03
1.740000e-06	6.356034e-06	3.027493e-08	4.520601e+01	1.995655e+03
1.750000e-06	6.334031e-06	3.030755e-08	4.504952e+01	1.993169e+03
1.760000e-06	6.308756e-06	3.032991e-08	4.486975e+01	1.990504e+03
1.770000e-06	6.281155e-06	3.023512e-08	4.467345e+01	1.987712e+03
1.780000e-06	6.251580e-06	3.038672e-08	4.446310e+01	1.984840e+03
1.790000e-06	6.220298e-06	3.030839e-08	4.424062e+01	1.981919e+03
1.800000e-06	6.187735e-06	2.998935e-08	4.400902e+01	1.978946e+03
1.810000e-06	6.153195e-06	3.022051e-08	4.376336e+01	1.975887e+03
1.820000e-06	6.116501e-06	3.010474e-08	4.350238e+01	1.972674e+03
1.830000e-06	6.077728e-06	3.003811e-08	4.322661e+01	1.969214e+03
1.840000e-06	6.036547e-06	3.022393e-08	4.293373e+01	1.965409e+03
1.850000e-06	5.993346e-06	2.980160e-08	4.262646e+01	1.961176e+03
1.860000e-06	5.948084e-06	2.986245e-08	4.230455e+01	1.956461e+03
1.870000e-06	5.900488e-06	2.982128e-08	4.196603e+01	1.951250e+03
1.880000e-06	5.850883e-06	2.962312e-08	4.161323e+01	1.945574e+03
1.890000e-06	5.798702e-06	2.973868e-08	4.124210e+01	1.939497e+03
1.900000e-06	5.743966e-06	2.944659e-08	4.085280e+01	1.933099e+03
1.910000e-06	5.687109e-06	2.943276e-08	4.044842e+01	1.926461e+03
1.920000e-06	5.628215e-06	2.935113e-08	4.002955e+01	1.919639e+03
1.930000e-06	5.567494e-06	2.913163e-08	3.959768e+01	1.912657e+03
1.940000e-06	5.504573e-06	2.917030e-08	3.915017e+01	1.905500e+03
1.950000e-06	5.439456e-06	2.892110e-08	3.868703e+01	1.898120e+03
1.960000e-06	5.372366e-06	2.893031e-08	3.820987e+01	1.890449e+03
1.970000e-06	5.303176e-06	2.873200e-08	3.771777e+01	1.882418e+03
1.980000e-06	5.231828e-06	2.855988e-08	3.721032e+01	1.873973e+03
1.990000e-06	5.158565e-06	2.853994e-08	3.668925e+01	1.865085e+03
2.000000e-06	5.083558e-06	2.831217e-08	3.615578e+01	1.855755e+03
2.010000e-06	5.006459e-06	2.825023e-08	3.560743e+01	1.846005e+03
2.020000e-06	4.927241e-06	2.799139e-08	3.504401e+01	1.835870e+03
2.030000e-06	4.846224e-06	2.786713e-08	3.446779e+01	1.825380e+03
2.040000e-06	4.763651e-06	2.772603e-08	3.388051e+01	1.814547e+03
2.050000e-06	4.679511e-06	2.752872e-08	3.328208e+01	1.803360e+03
2.060000e-06	4.593600e-06	2.739460e-08	3.267106e+01	1.791784e+03
2.070000e-06	4.506070e-06	2.717093e-08	3.204852e+01	1.779768e+03
2.080000e-06	4.416970e-06	2.702317e-08	3.141481e+01	1.767254e+03
2.090000e-06	4.326421e-06	2.676818e-08	3.077080e+01	1.754197e+03
2.100000e-06	4.234544e-06	2.657741e-08	3.011734e+01	1.740565e+03
2.110000e-06	4.141137e-06	2.637049e-08	2.945301e+01	1.726353e+03
2.120000e-06	4.046104e-06	2.614933e-08	2.877710e+01	1.711569e+03
2.130000e-06	3.949617e-06	2.592517e-08	2.809085e+01	1.696229e+03
2.140000e-06	3.851827e-06	2.566569e-08	2.739534e+01	1.680345e+03
2.150000e-06	3.752684e-06	2.543544e-08	2.669021e+01	1.663908e+03
2.160000e-06	3.652147e-06	2.516258e-08	2.597516e+01	1.646887e+03
2.170000e-06	3.550137e-06	2.490914e-08	2.524964e+01	1.629223e+03
2.180000e-06	3.446711e-06	2.461475e-08	2.451404e+01	1.610843e+03
2.190000e-06	3.342048e-06	2.432768e-08	2.376965e+01	1.591668e+03
2.200000e-06	3.236184e-06	2.401280e-08	2.301671e+01	1.571626e+03
2.210000e-06	3.129245e-06	2.369514e-08	2.225613e+01	1.550664e+03
2.220000e-06	3.021253e-06	2.336622e-08	2.148805e+01	1.528748e+03
2.230000e-06	2.912168e-06	2.302190e-08	2.071221e+01	1.505858e+03
2.240000e-06	2.802071e-06	2.266372e-08	1.992917e+01	1.481977e+03
2.250000e-06	2.690793e-06	2.228260e-08	1.913772e+01	1.457072e+03
2.260000e-06	2.578434e-06	2.189323e-08	1.833859e+01	1.431088e+03
2.270000e-06	2.465097e-06	2.147467e-08	1.753251e+01	1.403932e+03
2.280000e-06	2.350771e-06	2.104567e-08	1.671939e+01	1.375477e+03
2.290000e-06	2.235567e-06	2.058419e-08	1.590002e+01	1.345575e+03
2.300000e-06	2.119424e-06	2.010329e-08	1.507397e+01	1.314063e+03
2.310000e-06	2.002359e-06	1.959147e-08	1.424138e+01	1.280789e+03
2.320000e-06	1.884468e-06	1.905816e-08	1.340290e+01	1.245614e+03
2.330000e-06	1.765873e-06	1.849686e-08	1.255942e+01	1.208422e+03
2.340000e-06	1.646683e-06	1.790068e-08	1.171170e+01	1.169109e+03
2.350000e-06	1.526848e-06	1.726723e-08	1.085940e+01	1.127573e+03
2.360000e-06	1.406489e-06	1.659498e-08	1.000337e+01	1.083693e+03
2.370000e-06	1.285738e-06	1.588755e-08	9.144556e+00	1.037323e+03
2.380000e-06	1.164665e-06	1.513696e-08	8.283443e+00	9.882894e+02
2.390000e-06	1.043201e-06	1.434665e-08	7.419557e+00	9.364108e+02
2.400000e-06	9.212623e-07	1.350827e-08	6.552293e+00	8.815260e+02
2.410000e-06	7.990367e-07	1.262228e-08	5.682988e+00	8.235384e+02
2.420000e-06	6.765867e-07	1.168775e-08	4.812087e+00	7.624578e+02
2.430000e-06	5.539611e-07	1.070848e-08	3.939937e+00	6.984318e+02
2.440000e-06	4.312282e-07	9.691992e-09	3.067023e+00	6.317562e+02
2.450000e-06	3.083867e-07	8.641959e-09	2.193339e+00	5.628555e+02
2.460000e-06	1.854400e-07	7.565161e-09	1.318905e+00	4.922348e+02
2.470000e-06	6.242467e-08	6.467228e-09	4.439829e-01	4.204090e+02
2.480000e-06	-6.063821e-08	5.357841e-09	-4.312771e-01	3.478216e+02
2.490000e-06	-1.836998e-07	4.240215e-09	-1.306528e+00	2.747709e+02
2.500000e-06	-3.067146e-07	3.116428e-09	-2.181446e+00	2.013602e+02
2.510000e-06	-4.296719e-07	1.988038e-09	-3.055955e+00	1.274857e+02
2.520000e-06	-5.525549e-07	8.477099e-10	-3.929936e+00	5.286707e+01
2.530000e-06	-6.753148e-07	-3.093160e-10	-4.803040e+00	-2.288055e+01
2.540000e-06	-7.978649e-07	-1.489589e-09	-5.674653e+00	-1.001467e+02
2.550000e-06	-9.201688e-07	-2.695400e-09	-6.544516e+00	-1.792154e+02
2.560000e-06	-1.042153e-06	-3.927888e-09	-7.412103e+00	-2.601665e+02
2.570000e-06	-1.163715e-06	-5.187487e-09	-8.276689e+00	-3.428086e+02
2.580000e-06	-1.284890e-06	-6.467421e-09	-9.138522e+00	-4.266569e+02
2.590000e-06	-1.405621e-06	-7.758015e-09	-9.997198e+00	-5.109606e+02
2.600000e-06	-1.525810e-06	-9.044526e-09	-1.085202e+01	-5.947762e+02
2.610000e-06	-1.645449e-06	-1.030850e-08	-1.170293e+01	-6.770719e+02
2.620000e-06	-1.764510e-06	-1.153274e-08	-1.254972e+01	-7.568434e+02
2.630000e-06	-1.882914e-06	-1.270164e-08	-1.339185e+01	-8.332224e+02
2.640000e-06	-2.000510e-06	-1.380635e-08	-1.422822e+01	-9.055567e+02
2.650000e-06	-2.117138e-06	-1.484468e-08	-1.505772e+01	-9.734537e+02
2.660000e-06	-2.232771e-06	-1.581505e-08	-1.588013e+01	-1.036782e+03
2.670000e-06	-2.347446e-06	-1.671969e-08	-1.669574e+01	-1.095635e+03
2.680000e-06	-2.461120e-06	-1.756019e-08	-1.750422e+01	-1.150272e+03
2.690000e-06	-2.573756e-06	-1.833924e-08	-1.830532e+01	-1.201046e+03
2.700000e-06	-2.685339e-06	-1.906476e-08	-1.909893e+01	-1.248337e+03
2.710000e-06	-2.795806e-06	-1.974352e-08	-1.988461e+01	-1.292501e+03
2.720000e-06	-2.905258e-06	-2.037844e-08	-2.066306e+01	-1.333840e+03
2.730000e-06	-3.013790e-06	-2.097284e-08	-2.143498e+01	-1.372592e+03
2.740000e-06	-3.121373e-06	-2.153208e-08	-2.220014e+01	-1.408943e+03
2.750000e-06	-3.227980e-06	-2.205495e-08	-2.295836e+01	-1.443045e+03
2.760000e-06	-3.333519e-06	-2.254214e-08	-2.370898e+01	-1.475039e+03
2.770000e-06	-3.437870e-06	-2.299936e-08	-2.445116e+01	-1.505070e+03
2.780000e-06	-3.540977e-06	-2.342966e-08	-2.518449e+01	-1.533291e+03
2.790000e-06	-3.642742e-06	-2.383483e-08	-2.590827e+01	-1.559866e+03
2.800000e-06	-3.743085e-06	-2.421982e-08	-2.662194e+01	-1.584959e+03
2.810000e-06	-3.842181e-06	-2.458757e-08	-2.732674e+01	-1.608719e+03
2.820000e-06	-3.940023e-06	-2.493446e-08	-2.802262e+01	-1.631273e+03
2.830000e-06	-4.036522e-06	-2.526096e-08	-2.870895e+01	-1.652719e+03
2.840000e-06	-4.131715e-06	-2.557170e-08	-2.938599e+01	-1.673128e+03
2.850000e-06	-4.225390e-06	-2.586862e-08	-3.005224e+01	-1.692546e+03
2.860000e-06	-4.317481e-06	-2.615037e-08	-3.070721e+01	-1.711011e+03
2.870000e-06	-4.408069e-06	-2.641771e-08	-3.135150e+01	-1.728556e+03
2.880000e-06	-4.497042e-06	-2.667204e-08	-3.198431e+01	-1.745218e+03
2.890000e-06	-4.584389e-06	-2.691275e-08	-3.260554e+01	-1.761043e+03
2.900000e-06	-4.669996e-06	-2.714208e-08	-3.321441e+01	-1.776083e+03
2.910000e-06	-4.753879e-06	-2.736399e-08	-3.381101e+01	-1.790394e+03
2.920000e-06	-4.836178e-06	-2.757759e-08	-3.439634e+01	-1.804027e+03
2.930000e-06	-4.916783e-06	-2.778056e-08	-3.496963e+01	-1.817030e+03
2.940000e-06	-4.995525e-06	-2.797169e-08	-3.552967e+01	-1.829439e+03
