# Temperatura_=_42.72
# Concentracion g/m^3_=_28200.0
# C_Vs_to_Am_M_A/Vsm_=_65563218390.804596
# pendiente_HvsI_1/m_=_3716.3
# ordenada_HvsI_A/m_=_1297.0
# frecuencia_Hz_=_302132.4367453822

Tiempo_(s)	Campo_(V.s)	Magnetizacion_(V.s)	Campo_(kA/m)	Magnetizacion_(A/m)
0.000000e+00	-6.421801e-06	-2.175867e-08	-4.585404e+01	-1.424861e+03
1.000000e-08	-6.418837e-06	-2.175905e-08	-4.583288e+01	-1.424526e+03
2.000000e-08	-6.413765e-06	-2.175262e-08	-4.579667e+01	-1.424059e+03
3.000000e-08	-6.406771e-06	-2.174311e-08	-4.574673e+01	-1.423444e+03
4.000000e-08	-6.397698e-06	-2.172806e-08	-4.568194e+01	-1.422666e+03
5.000000e-08	-6.386222e-06	-2.170682e-08	-4.560000e+01	-1.421714e+03
6.000000e-08	-6.372410e-06	-2.168672e-08	-4.550138e+01	-1.420586e+03
7.000000e-08	-6.356301e-06	-2.166674e-08	-4.538635e+01	-1.419290e+03
8.000000e-08	-6.338046e-06	-2.164913e-08	-4.525600e+01	-1.417848e+03
9.000000e-08	-6.317728e-06	-2.171387e-08	-4.511093e+01	-1.416290e+03
1.000000e-07	-6.295082e-06	-2.166849e-08	-4.494922e+01	-1.414651e+03
1.100000e-07	-6.269709e-06	-2.156538e-08	-4.476806e+01	-1.412960e+03
1.200000e-07	-6.241800e-06	-2.153847e-08	-4.456877e+01	-1.411236e+03
1.300000e-07	-6.211985e-06	-2.150522e-08	-4.435589e+01	-1.409484e+03
1.400000e-07	-6.180693e-06	-2.138548e-08	-4.413244e+01	-1.407687e+03
1.500000e-07	-6.147624e-06	-2.146436e-08	-4.389632e+01	-1.405810e+03
1.600000e-07	-6.112398e-06	-2.152825e-08	-4.364479e+01	-1.403804e+03
1.700000e-07	-6.075340e-06	-2.129246e-08	-4.338019e+01	-1.401617e+03
1.800000e-07	-6.036478e-06	-2.137174e-08	-4.310270e+01	-1.399196e+03
1.900000e-07	-5.995158e-06	-2.131623e-08	-4.280765e+01	-1.396504e+03
2.000000e-07	-5.951447e-06	-2.116107e-08	-4.249554e+01	-1.393520e+03
2.100000e-07	-5.905700e-06	-2.121424e-08	-4.216889e+01	-1.390242e+03
2.200000e-07	-5.857600e-06	-2.111321e-08	-4.182544e+01	-1.386691e+03
2.300000e-07	-5.807044e-06	-2.107722e-08	-4.146445e+01	-1.382895e+03
2.400000e-07	-5.754046e-06	-2.103167e-08	-4.108603e+01	-1.378892e+03
2.500000e-07	-5.698945e-06	-2.093919e-08	-4.069259e+01	-1.374711e+03
2.600000e-07	-5.641646e-06	-2.089852e-08	-4.028345e+01	-1.370371e+03
2.700000e-07	-5.582059e-06	-2.079799e-08	-3.985798e+01	-1.365876e+03
2.800000e-07	-5.520591e-06	-2.074984e-08	-3.941907e+01	-1.361213e+03
2.900000e-07	-5.457258e-06	-2.067126e-08	-3.896685e+01	-1.356356e+03
3.000000e-07	-5.391766e-06	-2.059389e-08	-3.849921e+01	-1.351273e+03
3.100000e-07	-5.324071e-06	-2.051997e-08	-3.801584e+01	-1.345935e+03
3.200000e-07	-5.254387e-06	-2.039975e-08	-3.751828e+01	-1.340319e+03
3.300000e-07	-5.182980e-06	-2.033829e-08	-3.700841e+01	-1.334412e+03
3.400000e-07	-5.109713e-06	-2.022346e-08	-3.648525e+01	-1.328217e+03
3.500000e-07	-5.034244e-06	-2.013097e-08	-3.594638e+01	-1.321741e+03
3.600000e-07	-4.956696e-06	-2.003789e-08	-3.539265e+01	-1.314999e+03
3.700000e-07	-4.877082e-06	-1.991816e-08	-3.482418e+01	-1.307999e+03
3.800000e-07	-4.795597e-06	-1.982151e-08	-3.424234e+01	-1.300744e+03
3.900000e-07	-4.712542e-06	-1.968992e-08	-3.364930e+01	-1.293224e+03
4.000000e-07	-4.628055e-06	-1.957761e-08	-3.304604e+01	-1.285417e+03
4.100000e-07	-4.542154e-06	-1.945448e-08	-3.243267e+01	-1.277294e+03
4.200000e-07	-4.454823e-06	-1.933028e-08	-3.180909e+01	-1.268823e+03
4.300000e-07	-4.365990e-06	-1.919479e-08	-3.117479e+01	-1.259975e+03
4.400000e-07	-4.275490e-06	-1.904084e-08	-3.052859e+01	-1.250729e+03
4.500000e-07	-4.183410e-06	-1.889936e-08	-2.987110e+01	-1.241072e+03
4.600000e-07	-4.089843e-06	-1.873737e-08	-2.920300e+01	-1.231001e+03
4.700000e-07	-3.994884e-06	-1.858243e-08	-2.852496e+01	-1.220517e+03
4.800000e-07	-3.898626e-06	-1.841683e-08	-2.783764e+01	-1.209621e+03
4.900000e-07	-3.800914e-06	-1.824757e-08	-2.713994e+01	-1.198306e+03
5.000000e-07	-3.701667e-06	-1.806602e-08	-2.643128e+01	-1.186554e+03
5.100000e-07	-3.601042e-06	-1.787708e-08	-2.571278e+01	-1.174336e+03
5.200000e-07	-3.499186e-06	-1.768274e-08	-2.498549e+01	-1.161611e+03
5.300000e-07	-3.396103e-06	-1.747202e-08	-2.424943e+01	-1.148330e+03
5.400000e-07	-3.291826e-06	-1.725918e-08	-2.350486e+01	-1.134446e+03
5.500000e-07	-3.186287e-06	-1.703303e-08	-2.275128e+01	-1.119912e+03
5.600000e-07	-3.079337e-06	-1.680225e-08	-2.198761e+01	-1.104689e+03
5.700000e-07	-2.971185e-06	-1.655649e-08	-2.121537e+01	-1.088745e+03
5.800000e-07	-2.862004e-06	-1.630174e-08	-2.043577e+01	-1.072051e+03
5.900000e-07	-2.751859e-06	-1.603216e-08	-1.964930e+01	-1.054580e+03
6.000000e-07	-2.640843e-06	-1.575185e-08	-1.885660e+01	-1.036294e+03
6.100000e-07	-2.528836e-06	-1.546057e-08	-1.805683e+01	-1.017146e+03
6.200000e-07	-2.415794e-06	-1.515434e-08	-1.724966e+01	-9.970748e+02
6.300000e-07	-2.301622e-06	-1.483232e-08	-1.643444e+01	-9.760048e+02
6.400000e-07	-2.186291e-06	-1.448822e-08	-1.561093e+01	-9.538493e+02
6.500000e-07	-2.070066e-06	-1.413013e-08	-1.478104e+01	-9.305151e+02
6.600000e-07	-1.953160e-06	-1.375327e-08	-1.394629e+01	-9.059071e+02
6.700000e-07	-1.835582e-06	-1.335996e-08	-1.310674e+01	-8.799309e+02
6.800000e-07	-1.717416e-06	-1.294652e-08	-1.226299e+01	-8.524940e+02
6.900000e-07	-1.598784e-06	-1.250834e-08	-1.141591e+01	-8.235043e+02
7.000000e-07	-1.479647e-06	-1.204086e-08	-1.056523e+01	-7.928681e+02
7.100000e-07	-1.360002e-06	-1.154430e-08	-9.710919e+00	-7.604893e+02
7.200000e-07	-1.239900e-06	-1.102137e-08	-8.853347e+00	-7.262726e+02
7.300000e-07	-1.119342e-06	-1.046871e-08	-7.992517e+00	-6.901311e+02
7.400000e-07	-9.983981e-07	-9.888852e-09	-7.128933e+00	-6.520006e+02
7.500000e-07	-8.771146e-07	-9.277107e-09	-6.262924e+00	-6.118572e+02
7.600000e-07	-7.555035e-07	-8.634828e-09	-5.394576e+00	-5.697358e+02
7.700000e-07	-6.336216e-07	-7.963303e-09	-4.524294e+00	-5.257456e+02
7.800000e-07	-5.114923e-07	-7.268651e-09	-3.652245e+00	-4.800761e+02
7.900000e-07	-3.891954e-07	-6.555481e-09	-2.779000e+00	-4.329916e+02
8.000000e-07	-2.667864e-07	-5.824215e-09	-1.904954e+00	-3.848116e+02
8.100000e-07	-1.442463e-07	-5.081551e-09	-1.029972e+00	-3.358777e+02
8.200000e-07	-2.162624e-08	-4.332700e-09	-1.544194e-01	-2.865125e+02
8.300000e-07	1.010474e-07	-3.581970e-09	7.215161e-01	-2.369761e+02
8.400000e-07	2.237490e-07	-2.827296e-09	1.597651e+00	-1.874287e+02
8.500000e-07	3.463762e-07	-2.073804e-09	2.473255e+00	-1.379073e+02
8.600000e-07	4.688731e-07	-1.319200e-09	3.347928e+00	-8.832244e+01
8.700000e-07	5.912020e-07	-5.606793e-10	4.221402e+00	-3.847669e+01
8.800000e-07	7.133907e-07	2.071659e-10	5.093875e+00	1.189554e+01
8.900000e-07	8.353953e-07	9.888971e-10	5.965033e+00	6.307363e+01
9.000000e-07	9.571483e-07	1.783116e-09	6.834395e+00	1.152902e+02
9.100000e-07	1.078599e-06	2.593131e-09	7.701598e+00	1.686745e+02
9.200000e-07	1.199638e-06	3.420933e-09	8.565859e+00	2.232104e+02
9.300000e-07	1.320076e-06	4.264676e-09	9.425833e+00	2.787152e+02
9.400000e-07	1.439875e-06	5.118085e-09	1.028124e+01	3.348441e+02
9.500000e-07	1.559088e-06	5.978647e-09	1.113247e+01	3.911184e+02
9.600000e-07	1.677802e-06	6.832275e-09	1.198013e+01	4.469730e+02
9.700000e-07	1.796054e-06	7.666633e-09	1.282449e+01	5.018145e+02
9.800000e-07	1.913647e-06	8.473265e-09	1.366415e+01	5.550807e+02
9.900000e-07	2.030460e-06	9.247152e-09	1.449824e+01	6.062912e+02
1.000000e-06	2.146422e-06	9.989716e-09	1.532625e+01	6.550840e+02
1.010000e-06	2.261467e-06	1.069082e-08	1.614771e+01	7.012312e+02
1.020000e-06	2.375609e-06	1.135180e-08	1.696273e+01	7.446377e+02
1.030000e-06	2.488766e-06	1.196852e-08	1.777071e+01	7.853218e+02
1.040000e-06	2.600781e-06	1.254346e-08	1.857054e+01	8.233876e+02
1.050000e-06	2.711746e-06	1.308203e-08	1.936287e+01	8.589922e+02
1.060000e-06	2.821823e-06	1.358776e-08	2.014886e+01	8.923160e+02
1.070000e-06	2.931047e-06	1.406393e-08	2.092877e+01	9.235393e+02
1.080000e-06	3.039348e-06	1.450970e-08	2.170207e+01	9.528281e+02
1.090000e-06	3.146554e-06	1.492719e-08	2.246757e+01	9.803292e+02
1.100000e-06	3.252659e-06	1.531699e-08	2.322520e+01	1.006171e+03
1.110000e-06	3.357499e-06	1.568491e-08	2.397379e+01	1.030468e+03
1.120000e-06	3.460932e-06	1.603153e-08	2.471234e+01	1.053329e+03
1.130000e-06	3.563194e-06	1.636095e-08	2.544253e+01	1.074859e+03
1.140000e-06	3.664349e-06	1.667114e-08	2.616481e+01	1.095161e+03
1.150000e-06	3.764219e-06	1.696466e-08	2.687792e+01	1.114334e+03
1.160000e-06	3.862759e-06	1.724080e-08	2.758154e+01	1.132473e+03
1.170000e-06	3.959811e-06	1.750118e-08	2.827453e+01	1.149656e+03
1.180000e-06	4.055296e-06	1.774795e-08	2.895632e+01	1.165954e+03
1.190000e-06	4.149424e-06	1.798290e-08	2.962843e+01	1.181420e+03
1.200000e-06	4.242235e-06	1.820627e-08	3.029114e+01	1.196097e+03
1.210000e-06	4.333666e-06	1.841813e-08	3.094399e+01	1.210021e+03
1.220000e-06	4.423537e-06	1.861772e-08	3.158570e+01	1.223227e+03
1.230000e-06	4.511599e-06	1.880476e-08	3.221449e+01	1.235749e+03
1.240000e-06	4.597957e-06	1.898359e-08	3.283113e+01	1.247628e+03
1.250000e-06	4.682817e-06	1.915409e-08	3.343705e+01	1.258904e+03
1.260000e-06	4.766164e-06	1.931683e-08	3.403218e+01	1.269621e+03
1.270000e-06	4.847796e-06	1.947233e-08	3.461507e+01	1.279819e+03
1.280000e-06	4.927560e-06	1.962259e-08	3.518461e+01	1.289530e+03
1.290000e-06	5.005472e-06	1.976639e-08	3.574093e+01	1.298775e+03
1.300000e-06	5.081481e-06	1.990296e-08	3.628366e+01	1.307567e+03
1.310000e-06	5.155465e-06	2.003200e-08	3.681194e+01	1.315909e+03
1.320000e-06	5.227433e-06	2.015367e-08	3.732581e+01	1.323800e+03
1.330000e-06	5.297500e-06	2.026654e-08	3.782612e+01	1.331238e+03
1.340000e-06	5.365720e-06	2.037060e-08	3.831324e+01	1.338231e+03
1.350000e-06	5.432069e-06	2.046867e-08	3.878699e+01	1.344793e+03
1.360000e-06	5.496371e-06	2.056224e-08	3.924614e+01	1.350953e+03
1.370000e-06	5.558662e-06	2.065165e-08	3.969091e+01	1.356748e+03
1.380000e-06	5.619113e-06	2.073700e-08	4.012255e+01	1.362218e+03
1.390000e-06	5.677698e-06	2.081730e-08	4.054087e+01	1.367409e+03
1.400000e-06	5.734181e-06	2.089323e-08	4.094419e+01	1.372356e+03
1.410000e-06	5.788513e-06	2.096511e-08	4.133213e+01	1.377088e+03
1.420000e-06	5.840657e-06	2.103302e-08	4.170446e+01	1.381619e+03
1.430000e-06	5.890329e-06	2.109670e-08	4.205914e+01	1.385950e+03
1.440000e-06	5.937688e-06	2.115838e-08	4.239730e+01	1.390071e+03
1.450000e-06	5.983089e-06	2.121762e-08	4.272148e+01	1.393968e+03
1.460000e-06	6.026502e-06	2.127482e-08	4.303147e+01	1.397621e+03
1.470000e-06	6.067692e-06	2.132924e-08	4.332558e+01	1.401019e+03
1.480000e-06	6.106622e-06	2.137859e-08	4.360355e+01	1.404154e+03
1.490000e-06	6.143518e-06	2.142361e-08	4.386700e+01	1.407028e+03
1.500000e-06	6.178391e-06	2.146308e-08	4.411601e+01	1.409650e+03
1.510000e-06	6.210996e-06	2.149810e-08	4.434882e+01	1.412033e+03
1.520000e-06	6.241332e-06	2.152947e-08	4.456543e+01	1.414195e+03
1.530000e-06	6.269631e-06	2.155840e-08	4.476750e+01	1.416149e+03
1.540000e-06	6.295614e-06	2.158384e-08	4.495302e+01	1.417907e+03
1.550000e-06	6.319110e-06	2.160715e-08	4.512080e+01	1.419473e+03
1.560000e-06	6.340417e-06	2.162916e-08	4.527294e+01	1.420847e+03
1.570000e-06	6.359628e-06	2.164821e-08	4.541011e+01	1.422027e+03
1.580000e-06	6.376521e-06	2.166569e-08	4.553073e+01	1.423010e+03
1.590000e-06	6.390979e-06	2.167913e-08	4.563396e+01	1.423797e+03
1.600000e-06	6.403036e-06	2.168902e-08	4.572006e+01	1.424393e+03
1.610000e-06	6.412544e-06	2.169686e-08	4.578795e+01	1.424809e+03
1.620000e-06	6.419590e-06	2.170118e-08	4.583826e+01	1.425060e+03
1.630000e-06	6.424474e-06	2.170437e-08	4.587313e+01	1.425164e+03
1.640000e-06	6.427046e-06	2.170489e-08	4.589150e+01	1.425135e+03
1.650000e-06	6.427200e-06	2.170794e-08	4.589260e+01	1.424982e+03
1.660000e-06	6.425196e-06	2.170086e-08	4.587828e+01	1.424710e+03
1.670000e-06	6.421291e-06	2.169596e-08	4.585041e+01	1.424310e+03
1.680000e-06	6.415222e-06	2.168844e-08	4.580707e+01	1.423771e+03
1.690000e-06	6.406862e-06	2.167566e-08	4.574737e+01	1.423076e+03
1.700000e-06	6.396492e-06	2.166395e-08	4.567333e+01	1.422212e+03
1.710000e-06	6.383940e-06	2.165254e-08	4.558370e+01	1.421172e+03
1.720000e-06	6.369139e-06	2.165196e-08	4.547802e+01	1.419958e+03
1.730000e-06	6.352338e-06	2.162492e-08	4.535805e+01	1.418586e+03
1.740000e-06	6.333547e-06	2.149322e-08	4.522388e+01	1.417082e+03
1.750000e-06	6.311961e-06	2.150140e-08	4.506975e+01	1.415479e+03
1.760000e-06	6.287116e-06	2.154218e-08	4.489235e+01	1.413810e+03
1.770000e-06	6.259875e-06	2.149226e-08	4.469783e+01	1.412101e+03
1.780000e-06	6.230668e-06	2.156824e-08	4.448928e+01	1.410364e+03
1.790000e-06	6.199683e-06	2.156513e-08	4.426804e+01	1.408593e+03
1.800000e-06	6.167456e-06	2.131103e-08	4.403793e+01	1.406761e+03
1.810000e-06	6.133359e-06	2.142954e-08	4.379446e+01	1.404826e+03
1.820000e-06	6.097066e-06	2.142471e-08	4.353532e+01	1.402736e+03
1.830000e-06	6.058738e-06	2.127178e-08	4.326164e+01	1.400438e+03
1.840000e-06	6.018004e-06	2.145575e-08	4.297079e+01	1.397886e+03
1.850000e-06	5.975182e-06	2.126899e-08	4.266502e+01	1.395049e+03
1.860000e-06	5.930404e-06	2.124923e-08	4.234529e+01	1.391917e+03
1.870000e-06	5.883398e-06	2.125710e-08	4.200965e+01	1.388499e+03
1.880000e-06	5.834317e-06	2.104372e-08	4.165920e+01	1.384821e+03
1.890000e-06	5.782735e-06	2.111597e-08	4.129088e+01	1.380918e+03
1.900000e-06	5.728487e-06	2.098170e-08	4.090353e+01	1.376822e+03
1.910000e-06	5.672030e-06	2.095743e-08	4.050040e+01	1.372560e+03
1.920000e-06	5.613518e-06	2.096192e-08	4.008260e+01	1.368143e+03
1.930000e-06	5.553244e-06	2.074612e-08	3.965223e+01	1.363567e+03
1.940000e-06	5.490942e-06	2.078241e-08	3.920737e+01	1.358810e+03
1.950000e-06	5.426404e-06	2.062877e-08	3.874654e+01	1.353845e+03
1.960000e-06	5.359847e-06	2.060504e-08	3.827130e+01	1.348638e+03
1.970000e-06	5.291323e-06	2.052661e-08	3.778201e+01	1.343163e+03
1.980000e-06	5.220696e-06	2.038588e-08	3.727771e+01	1.337402e+03
1.990000e-06	5.147949e-06	2.038982e-08	3.675827e+01	1.331350e+03
2.000000e-06	5.073501e-06	2.019799e-08	3.622668e+01	1.325013e+03
2.010000e-06	4.997044e-06	2.013734e-08	3.568075e+01	1.318402e+03
2.020000e-06	4.918415e-06	2.001261e-08	3.511931e+01	1.311531e+03
2.030000e-06	4.838031e-06	1.992600e-08	3.454534e+01	1.304404e+03
2.040000e-06	4.755945e-06	1.984387e-08	3.395922e+01	1.297018e+03
2.050000e-06	4.672386e-06	1.967565e-08	3.336257e+01	1.289358e+03
2.060000e-06	4.587206e-06	1.958949e-08	3.275436e+01	1.281397e+03
2.070000e-06	4.500236e-06	1.942959e-08	3.213336e+01	1.273104e+03
2.080000e-06	4.411663e-06	1.932183e-08	3.150092e+01	1.264448e+03
2.090000e-06	4.321564e-06	1.916389e-08	3.085757e+01	1.255403e+03
2.100000e-06	4.230090e-06	1.902811e-08	3.020441e+01	1.245952e+03
2.110000e-06	4.137130e-06	1.889294e-08	2.954065e+01	1.236088e+03
2.120000e-06	4.042595e-06	1.872600e-08	2.886563e+01	1.225811e+03
2.130000e-06	3.946642e-06	1.857389e-08	2.818049e+01	1.215121e+03
2.140000e-06	3.849338e-06	1.839138e-08	2.748570e+01	1.204017e+03
2.150000e-06	3.750724e-06	1.823243e-08	2.678156e+01	1.192486e+03
2.160000e-06	3.650840e-06	1.803710e-08	2.606836e+01	1.180506e+03
2.170000e-06	3.549508e-06	1.785639e-08	2.534481e+01	1.168040e+03
2.180000e-06	3.446689e-06	1.765390e-08	2.461064e+01	1.155043e+03
2.190000e-06	3.342555e-06	1.745310e-08	2.386709e+01	1.141467e+03
2.200000e-06	3.237229e-06	1.723397e-08	2.311502e+01	1.127263e+03
2.210000e-06	3.130777e-06	1.700534e-08	2.235491e+01	1.112388e+03
2.220000e-06	3.023262e-06	1.677324e-08	2.158722e+01	1.096809e+03
2.230000e-06	2.914777e-06	1.653038e-08	2.081259e+01	1.080493e+03
2.240000e-06	2.805280e-06	1.628118e-08	2.003074e+01	1.063415e+03
2.250000e-06	2.694643e-06	1.600610e-08	1.924075e+01	1.045541e+03
2.260000e-06	2.582912e-06	1.572113e-08	1.844295e+01	1.026831e+03
2.270000e-06	2.470197e-06	1.541436e-08	1.763813e+01	1.007230e+03
2.280000e-06	2.356460e-06	1.510342e-08	1.682600e+01	9.866698e+02
2.290000e-06	2.241775e-06	1.477389e-08	1.600711e+01	9.650684e+02
2.300000e-06	2.126272e-06	1.443177e-08	1.518237e+01	9.423355e+02
2.310000e-06	2.009918e-06	1.406630e-08	1.435156e+01	9.183763e+02
2.320000e-06	1.892736e-06	1.367942e-08	1.351484e+01	8.930958e+02
2.330000e-06	1.774706e-06	1.327158e-08	1.267206e+01	8.664007e+02
2.340000e-06	1.655946e-06	1.284258e-08	1.182407e+01	8.381990e+02
2.350000e-06	1.536607e-06	1.239179e-08	1.097194e+01	8.083980e+02
2.360000e-06	1.416733e-06	1.191205e-08	1.011600e+01	7.769026e+02
2.370000e-06	1.296439e-06	1.140218e-08	9.257059e+00	7.436165e+02
2.380000e-06	1.175783e-06	1.085751e-08	8.395527e+00	7.084471e+02
2.390000e-06	1.054835e-06	1.028737e-08	7.531913e+00	6.713171e+02
2.400000e-06	9.335642e-07	9.691564e-09	6.665996e+00	6.321799e+02
2.410000e-06	8.119195e-07	9.069712e-09	5.797407e+00	5.910388e+02
2.420000e-06	6.899873e-07	8.415949e-09	4.926766e+00	5.479644e+02
2.430000e-06	5.678752e-07	7.730788e-09	4.054840e+00	5.031059e+02
2.440000e-06	4.455962e-07	7.020149e-09	3.181723e+00	4.566917e+02
2.450000e-06	3.231717e-07	6.288976e-09	2.307566e+00	4.090173e+02
2.460000e-06	2.006068e-07	5.541914e-09	1.432407e+00	3.604178e+02
2.470000e-06	7.794877e-08	4.784624e-09	5.565832e-01	3.112308e+02
2.480000e-06	-4.470032e-08	4.025414e-09	-3.191769e-01	2.617530e+02
2.490000e-06	-1.673478e-07	3.267005e-09	-1.194926e+00	2.121985e+02
2.500000e-06	-2.900278e-07	2.510157e-09	-2.070906e+00	1.626675e+02
2.510000e-06	-4.126290e-07	1.755227e-09	-2.946324e+00	1.131330e+02
2.520000e-06	-5.351189e-07	9.966031e-10	-3.820948e+00	6.344776e+01
2.530000e-06	-6.574750e-07	2.300060e-10	-4.694616e+00	1.337423e+01
2.540000e-06	-7.796083e-07	-5.460758e-10	-5.566693e+00	-3.736751e+01
2.550000e-06	-9.015055e-07	-1.334636e-09	-6.437084e+00	-8.904100e+01
2.560000e-06	-1.023053e-06	-2.139962e-09	-7.304981e+00	-1.418336e+02
2.570000e-06	-1.144206e-06	-2.967051e-09	-8.170055e+00	-1.958059e+02
2.580000e-06	-1.265023e-06	-3.810258e-09	-9.032735e+00	-2.508596e+02
2.590000e-06	-1.385403e-06	-4.662769e-09	-9.892294e+00	-3.067289e+02
2.600000e-06	-1.505227e-06	-5.521470e-09	-1.074788e+01	-3.629970e+02
2.610000e-06	-1.624512e-06	-6.380113e-09	-1.159962e+01	-4.191353e+02
2.620000e-06	-1.743171e-06	-7.229932e-09	-1.244689e+01	-4.745569e+02
2.630000e-06	-1.861134e-06	-8.058135e-09	-1.328919e+01	-5.286769e+02
2.640000e-06	-1.978291e-06	-8.857410e-09	-1.412573e+01	-5.809686e+02
2.650000e-06	-2.094489e-06	-9.623845e-09	-1.495543e+01	-6.310073e+02
2.660000e-06	-2.209710e-06	-1.035156e-08	-1.577815e+01	-6.784972e+02
2.670000e-06	-2.324000e-06	-1.103665e-08	-1.659422e+01	-7.232783e+02
2.680000e-06	-2.437322e-06	-1.168050e-08	-1.740339e+01	-7.653151e+02
2.690000e-06	-2.549631e-06	-1.228474e-08	-1.820532e+01	-8.046730e+02
2.700000e-06	-2.660837e-06	-1.285159e-08	-1.899937e+01	-8.414865e+02
2.710000e-06	-2.770897e-06	-1.338160e-08	-1.978524e+01	-8.759278e+02
2.720000e-06	-2.880038e-06	-1.387535e-08	-2.056454e+01	-9.081794e+02
2.730000e-06	-2.988313e-06	-1.433837e-08	-2.133767e+01	-9.384159e+02
2.740000e-06	-3.095661e-06	-1.477240e-08	-2.210417e+01	-9.667937e+02
2.750000e-06	-3.202049e-06	-1.517896e-08	-2.286382e+01	-9.934499e+02
2.760000e-06	-3.307356e-06	-1.556403e-08	-2.361575e+01	-1.018505e+03
2.770000e-06	-3.411412e-06	-1.592741e-08	-2.435875e+01	-1.042071e+03
2.780000e-06	-3.514203e-06	-1.626722e-08	-2.509272e+01	-1.064253e+03
2.790000e-06	-3.615733e-06	-1.658472e-08	-2.581768e+01	-1.085157e+03
2.800000e-06	-3.715876e-06	-1.688400e-08	-2.653273e+01	-1.104883e+03
2.810000e-06	-3.814787e-06	-1.716911e-08	-2.723900e+01	-1.123528e+03
2.820000e-06	-3.912549e-06	-1.743893e-08	-2.793705e+01	-1.141179e+03
2.830000e-06	-4.008923e-06	-1.769342e-08	-2.862520e+01	-1.157912e+03
2.840000e-06	-4.103889e-06	-1.793632e-08	-2.930329e+01	-1.173788e+03
2.850000e-06	-4.197358e-06	-1.816935e-08	-2.997070e+01	-1.188854e+03
2.860000e-06	-4.289278e-06	-1.839076e-08	-3.062704e+01	-1.203151e+03
2.870000e-06	-4.379708e-06	-1.860079e-08	-3.127274e+01	-1.216712e+03
2.880000e-06	-4.468542e-06	-1.879890e-08	-3.190705e+01	-1.229571e+03
2.890000e-06	-4.555779e-06	-1.898394e-08	-3.252996e+01	-1.241767e+03
2.900000e-06	-4.641279e-06	-1.916072e-08	-3.314045e+01	-1.253338e+03
2.910000e-06	-4.725095e-06	-1.933038e-08	-3.373894e+01	-1.264330e+03
2.920000e-06	-4.807337e-06	-1.948941e-08	-3.432618e+01	-1.274783e+03
2.930000e-06	-4.887780e-06	-1.963885e-08	-3.490057e+01	-1.284734e+03
2.940000e-06	-4.966397e-06	-1.978193e-08	-3.546192e+01	-1.294210e+03
