# Temperatura_=_78.7
# Concentracion g/m^3_=_28200.0
# C_Vs_to_Am_M_A/Vsm_=_65563218390.804596
# pendiente_HvsI_1/m_=_3716.3
# ordenada_HvsI_A/m_=_1297.0
# frecuencia_Hz_=_302139.8789478667

Tiempo_(s)	Campo_(V.s)	Magnetizacion_(V.s)	Campo_(kA/m)	Magnetizacion_(A/m)
0.000000e+00	-6.431563e-06	-2.791128e-08	-4.585513e+01	-1.828457e+03
1.000000e-08	-6.428474e-06	-2.790592e-08	-4.583311e+01	-1.828015e+03
2.000000e-08	-6.423281e-06	-2.789534e-08	-4.579608e+01	-1.827395e+03
3.000000e-08	-6.416131e-06	-2.788432e-08	-4.574511e+01	-1.826573e+03
4.000000e-08	-6.406861e-06	-2.786690e-08	-4.567901e+01	-1.825523e+03
5.000000e-08	-6.395178e-06	-2.784333e-08	-4.559571e+01	-1.824228e+03
6.000000e-08	-6.381097e-06	-2.781692e-08	-4.549532e+01	-1.822684e+03
7.000000e-08	-6.364738e-06	-2.779021e-08	-4.537869e+01	-1.820904e+03
8.000000e-08	-6.346316e-06	-2.778998e-08	-4.524735e+01	-1.818920e+03
9.000000e-08	-6.325793e-06	-2.782879e-08	-4.510102e+01	-1.816778e+03
1.000000e-07	-6.302834e-06	-2.775972e-08	-4.493733e+01	-1.814532e+03
1.100000e-07	-6.277229e-06	-2.765623e-08	-4.475477e+01	-1.812227e+03
1.200000e-07	-6.249194e-06	-2.761204e-08	-4.455489e+01	-1.809892e+03
1.300000e-07	-6.219194e-06	-2.752891e-08	-4.434100e+01	-1.807527e+03
1.400000e-07	-6.187606e-06	-2.741367e-08	-4.411579e+01	-1.805099e+03
1.500000e-07	-6.154320e-06	-2.752418e-08	-4.387847e+01	-1.802545e+03
1.600000e-07	-6.119008e-06	-2.749190e-08	-4.362670e+01	-1.799778e+03
1.700000e-07	-6.081813e-06	-2.729403e-08	-4.336152e+01	-1.796706e+03
1.800000e-07	-6.042634e-06	-2.736769e-08	-4.308218e+01	-1.793247e+03
1.900000e-07	-6.000996e-06	-2.724432e-08	-4.278532e+01	-1.789343e+03
2.000000e-07	-5.957068e-06	-2.713419e-08	-4.247212e+01	-1.784976e+03
2.100000e-07	-5.911082e-06	-2.714988e-08	-4.214425e+01	-1.780169e+03
2.200000e-07	-5.862827e-06	-2.703336e-08	-4.180021e+01	-1.774979e+03
2.300000e-07	-5.812106e-06	-2.697981e-08	-4.143858e+01	-1.769487e+03
2.400000e-07	-5.758926e-06	-2.688938e-08	-4.105943e+01	-1.763776e+03
2.500000e-07	-5.703532e-06	-2.679554e-08	-4.066449e+01	-1.757916e+03
2.600000e-07	-5.645916e-06	-2.672852e-08	-4.025370e+01	-1.751944e+03
2.700000e-07	-5.586123e-06	-2.660985e-08	-3.982739e+01	-1.745863e+03
2.800000e-07	-5.524399e-06	-2.652573e-08	-3.938732e+01	-1.739635e+03
2.900000e-07	-5.460667e-06	-2.640431e-08	-3.893293e+01	-1.733196e+03
3.000000e-07	-5.394820e-06	-2.631508e-08	-3.846346e+01	-1.726471e+03
3.100000e-07	-5.326905e-06	-2.621440e-08	-3.797924e+01	-1.719391e+03
3.200000e-07	-5.256988e-06	-2.608290e-08	-3.748076e+01	-1.711907e+03
3.300000e-07	-5.185233e-06	-2.597402e-08	-3.696917e+01	-1.704002e+03
3.400000e-07	-5.111549e-06	-2.583203e-08	-3.644382e+01	-1.695687e+03
3.500000e-07	-5.035827e-06	-2.571435e-08	-3.590394e+01	-1.686997e+03
3.600000e-07	-4.958057e-06	-2.557089e-08	-3.534947e+01	-1.677973e+03
3.700000e-07	-4.878171e-06	-2.543066e-08	-3.477990e+01	-1.668651e+03
3.800000e-07	-4.796466e-06	-2.530040e-08	-3.419737e+01	-1.659048e+03
3.900000e-07	-4.713237e-06	-2.513635e-08	-3.360398e+01	-1.649154e+03
4.000000e-07	-4.628518e-06	-2.497344e-08	-3.299995e+01	-1.638934e+03
4.100000e-07	-4.542345e-06	-2.480644e-08	-3.238557e+01	-1.628332e+03
4.200000e-07	-4.454790e-06	-2.464350e-08	-3.176132e+01	-1.617291e+03
4.300000e-07	-4.365721e-06	-2.446445e-08	-3.112629e+01	-1.605759e+03
4.400000e-07	-4.274953e-06	-2.427444e-08	-3.047914e+01	-1.593702e+03
4.500000e-07	-4.182589e-06	-2.408669e-08	-2.982061e+01	-1.581110e+03
4.600000e-07	-4.088760e-06	-2.388291e-08	-2.915164e+01	-1.567991e+03
4.700000e-07	-3.993544e-06	-2.367885e-08	-2.847278e+01	-1.554363e+03
4.800000e-07	-3.896897e-06	-2.346657e-08	-2.778372e+01	-1.540242e+03
4.900000e-07	-3.798733e-06	-2.324509e-08	-2.708384e+01	-1.525631e+03
5.000000e-07	-3.699154e-06	-2.300871e-08	-2.637387e+01	-1.510507e+03
5.100000e-07	-3.598299e-06	-2.276500e-08	-2.565480e+01	-1.494824e+03
5.200000e-07	-3.496253e-06	-2.251214e-08	-2.492724e+01	-1.478517e+03
5.300000e-07	-3.392940e-06	-2.224457e-08	-2.419065e+01	-1.461510e+03
5.400000e-07	-3.288324e-06	-2.197460e-08	-2.344477e+01	-1.443732e+03
5.500000e-07	-3.182418e-06	-2.169304e-08	-2.268969e+01	-1.425125e+03
5.600000e-07	-3.075204e-06	-2.139957e-08	-2.192529e+01	-1.405651e+03
5.700000e-07	-2.966824e-06	-2.108667e-08	-2.115257e+01	-1.385286e+03
5.800000e-07	-2.857380e-06	-2.075886e-08	-2.037227e+01	-1.364017e+03
5.900000e-07	-2.746944e-06	-2.041844e-08	-1.958489e+01	-1.341826e+03
6.000000e-07	-2.635651e-06	-2.006292e-08	-1.879140e+01	-1.318678e+03
6.100000e-07	-2.523408e-06	-1.969280e-08	-1.799114e+01	-1.294507e+03
6.200000e-07	-2.410028e-06	-1.930430e-08	-1.718278e+01	-1.269219e+03
6.300000e-07	-2.295529e-06	-1.889766e-08	-1.636644e+01	-1.242691e+03
6.400000e-07	-2.180026e-06	-1.846825e-08	-1.554294e+01	-1.214785e+03
6.500000e-07	-2.063675e-06	-1.801560e-08	-1.471339e+01	-1.185358e+03
6.600000e-07	-1.946577e-06	-1.753945e-08	-1.387851e+01	-1.154276e+03
6.700000e-07	-1.828825e-06	-1.704044e-08	-1.303898e+01	-1.121420e+03
6.800000e-07	-1.710524e-06	-1.651497e-08	-1.219553e+01	-1.086684e+03
6.900000e-07	-1.591721e-06	-1.595620e-08	-1.134850e+01	-1.049967e+03
7.000000e-07	-1.472384e-06	-1.536364e-08	-1.049766e+01	-1.011161e+03
7.100000e-07	-1.352512e-06	-1.473587e-08	-9.643006e+00	-9.701438e+02
7.200000e-07	-1.232234e-06	-1.407284e-08	-8.785464e+00	-9.267688e+02
7.300000e-07	-1.111583e-06	-1.337030e-08	-7.925258e+00	-8.808797e+02
7.400000e-07	-9.905054e-07	-1.262739e-08	-7.062009e+00	-8.323292e+02
7.500000e-07	-8.690222e-07	-1.184403e-08	-6.195870e+00	-7.810119e+02
7.600000e-07	-7.471385e-07	-1.101843e-08	-5.326875e+00	-7.269006e+02
7.700000e-07	-6.249126e-07	-1.015091e-08	-4.455441e+00	-6.700782e+02
7.800000e-07	-5.024253e-07	-9.247817e-09	-3.582143e+00	-6.107557e+02
7.900000e-07	-3.797368e-07	-8.314360e-09	-2.707410e+00	-5.492678e+02
8.000000e-07	-2.569186e-07	-7.353540e-09	-1.831753e+00	-4.860439e+02
8.100000e-07	-1.339650e-07	-6.374558e-09	-9.551303e-01	-4.215556e+02
8.200000e-07	-1.087709e-08	-5.382470e-09	-7.755044e-02	-3.562503e+02
8.300000e-07	1.122489e-07	-4.381502e-09	8.003009e-01	-2.904818e+02
8.400000e-07	2.353315e-07	-3.373632e-09	1.677843e+00	-2.244538e+02
8.500000e-07	3.583376e-07	-2.363230e-09	2.554840e+00	-1.581883e+02
8.600000e-07	4.812027e-07	-1.345339e-09	3.430832e+00	-9.152970e+01
8.700000e-07	6.038863e-07	-3.163451e-10	4.305529e+00	-2.418453e+01
8.800000e-07	7.263580e-07	7.251132e-10	5.178716e+00	4.420704e+01
8.900000e-07	8.485453e-07	1.781484e-09	6.049875e+00	1.139805e+02
9.000000e-07	9.704084e-07	2.859846e-09	6.918723e+00	1.853542e+02
9.100000e-07	1.091870e-06	3.968042e-09	7.784709e+00	2.583510e+02
9.200000e-07	1.212809e-06	5.100858e-09	8.646969e+00	3.327516e+02
9.300000e-07	1.333247e-06	6.252327e-09	9.505652e+00	4.080862e+02
9.400000e-07	1.453155e-06	7.408457e-09	1.036056e+01	4.836689e+02
9.500000e-07	1.572526e-06	8.555784e-09	1.121164e+01	5.586661e+02
9.600000e-07	1.691411e-06	9.677885e-09	1.205926e+01	6.321881e+02
9.700000e-07	1.809773e-06	1.075824e-08	1.290315e+01	7.033864e+02
9.800000e-07	1.927477e-06	1.178774e-08	1.374234e+01	7.715400e+02
9.900000e-07	2.044414e-06	1.276153e-08	1.457607e+01	8.361182e+02
1.000000e-06	2.160537e-06	1.367890e-08	1.540399e+01	8.968095e+02
1.010000e-06	2.275727e-06	1.453606e-08	1.622525e+01	9.535182e+02
1.020000e-06	2.389861e-06	1.533871e-08	1.703900e+01	1.006332e+03
1.030000e-06	2.502897e-06	1.608702e-08	1.784491e+01	1.055468e+03
1.040000e-06	2.614913e-06	1.678276e-08	1.864355e+01	1.101220e+03
1.050000e-06	2.726035e-06	1.743186e-08	1.943582e+01	1.143900e+03
1.060000e-06	2.836245e-06	1.803789e-08	2.022158e+01	1.183799e+03
1.070000e-06	2.945528e-06	1.860637e-08	2.100074e+01	1.221167e+03
1.080000e-06	3.053903e-06	1.913715e-08	2.177342e+01	1.256205e+03
1.090000e-06	3.161257e-06	1.963110e-08	2.253882e+01	1.289075e+03
1.100000e-06	3.267404e-06	2.009279e-08	2.329562e+01	1.319916e+03
1.110000e-06	3.372194e-06	2.052767e-08	2.404274e+01	1.348859e+03
1.120000e-06	3.475661e-06	2.093684e-08	2.478043e+01	1.376039e+03
1.130000e-06	3.577934e-06	2.132565e-08	2.550961e+01	1.401603e+03
1.140000e-06	3.679067e-06	2.169626e-08	2.623065e+01	1.425697e+03
1.150000e-06	3.779035e-06	2.204795e-08	2.694340e+01	1.448469e+03
1.160000e-06	3.877598e-06	2.238040e-08	2.764612e+01	1.470051e+03
1.170000e-06	3.974545e-06	2.269336e-08	2.833732e+01	1.490550e+03
1.180000e-06	4.070016e-06	2.298810e-08	2.901800e+01	1.510048e+03
1.190000e-06	4.164121e-06	2.326678e-08	2.968894e+01	1.528602e+03
1.200000e-06	4.256854e-06	2.353157e-08	3.035010e+01	1.546246e+03
1.210000e-06	4.348184e-06	2.378316e-08	3.100126e+01	1.563009e+03
1.220000e-06	4.437946e-06	2.402290e-08	3.164123e+01	1.578915e+03
1.230000e-06	4.526007e-06	2.425297e-08	3.226908e+01	1.594001e+03
1.240000e-06	4.612408e-06	2.447208e-08	3.288509e+01	1.608310e+03
1.250000e-06	4.697253e-06	2.467977e-08	3.349001e+01	1.621899e+03
1.260000e-06	4.780587e-06	2.487670e-08	3.408416e+01	1.634829e+03
1.270000e-06	4.862138e-06	2.506266e-08	3.466560e+01	1.647159e+03
1.280000e-06	4.941738e-06	2.524020e-08	3.523312e+01	1.658942e+03
1.290000e-06	5.019556e-06	2.540970e-08	3.578794e+01	1.670214e+03
1.300000e-06	5.095557e-06	2.557289e-08	3.632980e+01	1.681001e+03
1.310000e-06	5.169506e-06	2.573096e-08	3.685704e+01	1.691311e+03
1.320000e-06	5.241421e-06	2.588202e-08	3.736977e+01	1.701145e+03
1.330000e-06	5.311450e-06	2.602540e-08	3.786906e+01	1.710499e+03
1.340000e-06	5.379617e-06	2.616149e-08	3.835507e+01	1.719369e+03
1.350000e-06	5.445793e-06	2.629188e-08	3.882689e+01	1.727759e+03
1.360000e-06	5.509929e-06	2.641539e-08	3.928416e+01	1.735678e+03
1.370000e-06	5.572162e-06	2.653179e-08	3.972786e+01	1.743145e+03
1.380000e-06	5.632625e-06	2.664008e-08	4.015894e+01	1.750186e+03
1.390000e-06	5.691195e-06	2.674098e-08	4.057653e+01	1.756828e+03
1.400000e-06	5.747631e-06	2.683634e-08	4.097890e+01	1.763100e+03
1.410000e-06	5.801985e-06	2.692520e-08	4.136643e+01	1.769029e+03
1.420000e-06	5.854077e-06	2.700924e-08	4.173783e+01	1.774638e+03
1.430000e-06	5.903692e-06	2.708935e-08	4.209157e+01	1.779946e+03
1.440000e-06	5.950992e-06	2.716649e-08	4.242880e+01	1.784967e+03
1.450000e-06	5.996264e-06	2.724075e-08	4.275157e+01	1.789710e+03
1.460000e-06	6.039510e-06	2.731204e-08	4.305991e+01	1.794183e+03
1.470000e-06	6.080508e-06	2.737924e-08	4.335221e+01	1.798391e+03
1.480000e-06	6.119328e-06	2.744147e-08	4.362898e+01	1.802337e+03
1.490000e-06	6.156180e-06	2.749870e-08	4.389173e+01	1.806023e+03
1.500000e-06	6.190830e-06	2.755101e-08	4.413877e+01	1.809447e+03
1.510000e-06	6.223096e-06	2.759976e-08	4.436882e+01	1.812609e+03
1.520000e-06	6.253216e-06	2.764459e-08	4.458357e+01	1.815504e+03
1.530000e-06	6.281342e-06	2.768513e-08	4.478410e+01	1.818130e+03
1.540000e-06	6.307206e-06	2.772106e-08	4.496850e+01	1.820480e+03
1.550000e-06	6.330628e-06	2.775388e-08	4.513549e+01	1.822552e+03
1.560000e-06	6.351847e-06	2.778293e-08	4.528678e+01	1.824341e+03
1.570000e-06	6.370926e-06	2.780736e-08	4.542280e+01	1.825850e+03
1.580000e-06	6.387680e-06	2.782857e-08	4.554225e+01	1.827084e+03
1.590000e-06	6.401952e-06	2.784491e-08	4.564401e+01	1.828053e+03
1.600000e-06	6.413688e-06	2.785689e-08	4.572769e+01	1.828774e+03
1.610000e-06	6.422872e-06	2.786618e-08	4.579316e+01	1.829269e+03
1.620000e-06	6.429674e-06	2.787302e-08	4.584166e+01	1.829560e+03
1.630000e-06	6.434375e-06	2.787844e-08	4.587518e+01	1.829669e+03
1.640000e-06	6.436804e-06	2.788005e-08	4.589249e+01	1.829615e+03
1.650000e-06	6.436819e-06	2.787939e-08	4.589260e+01	1.829406e+03
1.660000e-06	6.434697e-06	2.786979e-08	4.587747e+01	1.829041e+03
1.670000e-06	6.430575e-06	2.786197e-08	4.584808e+01	1.828506e+03
1.680000e-06	6.424249e-06	2.785064e-08	4.580298e+01	1.827781e+03
1.690000e-06	6.415732e-06	2.783351e-08	4.574226e+01	1.826839e+03
1.700000e-06	6.405201e-06	2.781715e-08	4.566717e+01	1.825660e+03
1.710000e-06	6.392451e-06	2.780084e-08	4.557627e+01	1.824231e+03
1.720000e-06	6.377422e-06	2.778981e-08	4.546912e+01	1.822557e+03
1.730000e-06	6.360401e-06	2.773230e-08	4.534777e+01	1.820662e+03
1.740000e-06	6.341375e-06	2.762713e-08	4.521211e+01	1.818587e+03
1.750000e-06	6.319497e-06	2.763568e-08	4.505613e+01	1.816383e+03
1.760000e-06	6.294413e-06	2.764617e-08	4.487729e+01	1.814100e+03
1.770000e-06	6.266984e-06	2.759684e-08	4.468173e+01	1.811777e+03
1.780000e-06	6.237561e-06	2.767228e-08	4.447195e+01	1.809428e+03
1.790000e-06	6.206445e-06	2.760161e-08	4.425011e+01	1.807035e+03
1.800000e-06	6.174013e-06	2.739522e-08	4.401887e+01	1.804549e+03
1.810000e-06	6.139642e-06	2.752623e-08	4.377382e+01	1.801892e+03
1.820000e-06	6.103119e-06	2.751197e-08	4.351342e+01	1.798974e+03
1.830000e-06	6.064502e-06	2.745061e-08	4.323810e+01	1.795703e+03
1.840000e-06	6.023522e-06	2.747589e-08	4.294592e+01	1.792010e+03
1.850000e-06	5.980465e-06	2.722416e-08	4.263894e+01	1.787858e+03
1.860000e-06	5.935480e-06	2.721641e-08	4.231821e+01	1.783250e+03
1.870000e-06	5.888280e-06	2.715152e-08	4.198168e+01	1.778229e+03
1.880000e-06	5.838911e-06	2.701437e-08	4.162970e+01	1.772866e+03
1.890000e-06	5.787069e-06	2.702710e-08	4.126008e+01	1.767246e+03
1.900000e-06	5.732596e-06	2.683432e-08	4.087170e+01	1.761448e+03
1.910000e-06	5.675843e-06	2.680782e-08	4.046707e+01	1.755526e+03
1.920000e-06	5.617122e-06	2.673560e-08	4.004841e+01	1.749498e+03
1.930000e-06	5.556630e-06	2.656908e-08	3.961711e+01	1.743344e+03
1.940000e-06	5.494032e-06	2.654747e-08	3.917081e+01	1.737012e+03
1.950000e-06	5.429250e-06	2.638283e-08	3.870893e+01	1.730429e+03
1.960000e-06	5.362434e-06	2.632987e-08	3.823256e+01	1.723521e+03
1.970000e-06	5.293546e-06	2.618034e-08	3.774141e+01	1.716229e+03
1.980000e-06	5.222629e-06	2.604431e-08	3.723579e+01	1.708520e+03
1.990000e-06	5.149749e-06	2.598587e-08	3.671617e+01	1.700392e+03
2.000000e-06	5.074997e-06	2.581519e-08	3.618322e+01	1.691871e+03
2.010000e-06	4.998160e-06	2.571290e-08	3.563539e+01	1.682996e+03
2.020000e-06	4.919229e-06	2.552663e-08	3.507264e+01	1.673809e+03
2.030000e-06	4.838498e-06	2.540564e-08	3.449705e+01	1.664336e+03
2.040000e-06	4.756181e-06	2.526864e-08	3.391016e+01	1.654581e+03
2.050000e-06	4.672356e-06	2.509833e-08	3.331251e+01	1.644517e+03
2.060000e-06	4.586764e-06	2.496310e-08	3.270226e+01	1.634100e+03
2.070000e-06	4.499433e-06	2.478002e-08	3.207962e+01	1.623270e+03
2.080000e-06	4.410514e-06	2.462186e-08	3.144565e+01	1.611971e+03
2.090000e-06	4.320139e-06	2.441317e-08	3.080131e+01	1.600161e+03
2.100000e-06	4.228407e-06	2.423211e-08	3.014729e+01	1.587817e+03
2.110000e-06	4.135203e-06	2.404496e-08	2.948277e+01	1.574940e+03
2.120000e-06	4.040491e-06	2.384768e-08	2.880749e+01	1.561546e+03
2.130000e-06	3.944326e-06	2.364496e-08	2.812187e+01	1.547653e+03
2.140000e-06	3.846729e-06	2.342275e-08	2.742603e+01	1.533270e+03
2.150000e-06	3.747830e-06	2.320223e-08	2.672091e+01	1.518388e+03
2.160000e-06	3.647677e-06	2.295576e-08	2.600685e+01	1.502972e+03
2.170000e-06	3.546015e-06	2.271579e-08	2.528203e+01	1.486963e+03
2.180000e-06	3.442882e-06	2.245691e-08	2.454672e+01	1.470291e+03
2.190000e-06	3.338502e-06	2.219698e-08	2.380253e+01	1.452879e+03
2.200000e-06	3.232956e-06	2.191703e-08	2.305001e+01	1.434663e+03
2.210000e-06	3.126321e-06	2.163027e-08	2.228974e+01	1.415595e+03
2.220000e-06	3.018647e-06	2.133108e-08	2.152205e+01	1.395645e+03
2.230000e-06	2.909863e-06	2.101869e-08	2.074646e+01	1.374797e+03
2.240000e-06	2.799995e-06	2.069410e-08	1.996313e+01	1.353038e+03
2.250000e-06	2.689109e-06	2.034958e-08	1.917255e+01	1.330340e+03
2.260000e-06	2.577188e-06	1.998865e-08	1.837459e+01	1.306653e+03
2.270000e-06	2.464207e-06	1.960539e-08	1.756906e+01	1.281898e+03
2.280000e-06	2.350242e-06	1.921085e-08	1.675653e+01	1.255962e+03
2.290000e-06	2.235394e-06	1.879557e-08	1.593769e+01	1.228714e+03
2.300000e-06	2.119631e-06	1.835992e-08	1.511233e+01	1.200010e+03
2.310000e-06	2.003022e-06	1.789748e-08	1.428095e+01	1.169712e+03
2.320000e-06	1.885643e-06	1.741335e-08	1.344407e+01	1.137694e+03
2.330000e-06	1.767418e-06	1.690188e-08	1.260117e+01	1.103843e+03
2.340000e-06	1.648383e-06	1.635878e-08	1.175248e+01	1.068058e+03
2.350000e-06	1.528775e-06	1.578391e-08	1.089971e+01	1.030236e+03
2.360000e-06	1.408747e-06	1.517494e-08	1.004395e+01	9.902624e+02
2.370000e-06	1.288305e-06	1.452971e-08	9.185230e+00	9.480009e+02
2.380000e-06	1.167459e-06	1.384479e-08	8.323633e+00	9.032985e+02
2.390000e-06	1.046238e-06	1.312262e-08	7.459365e+00	8.560000e+02
2.400000e-06	9.246538e-07	1.235771e-08	6.592507e+00	8.059762e+02
2.410000e-06	8.027254e-07	1.154985e-08	5.723193e+00	7.531590e+02
2.420000e-06	6.805874e-07	1.070151e-08	4.852386e+00	6.975769e+02
2.430000e-06	5.582856e-07	9.815595e-09	3.980410e+00	6.393805e+02
2.440000e-06	4.357771e-07	8.895677e-09	3.106961e+00	5.788493e+02
2.450000e-06	3.131353e-07	7.944852e-09	2.232562e+00	5.163737e+02
2.460000e-06	1.904102e-07	6.967245e-09	1.357568e+00	4.524135e+02
2.470000e-06	6.759303e-08	5.969429e-09	4.819182e-01	3.874362e+02
2.480000e-06	-5.525345e-08	4.961670e-09	-3.939407e-01	3.218472e+02
2.490000e-06	-1.781218e-07	3.950472e-09	-1.269955e+00	2.559254e+02
2.500000e-06	-3.009257e-07	2.938372e-09	-2.145511e+00	1.897791e+02
2.510000e-06	-4.235870e-07	1.925802e-09	-3.020049e+00	1.233324e+02
2.520000e-06	-5.461901e-07	9.047538e-10	-3.894173e+00	5.634856e+01
2.530000e-06	-6.687006e-07	-1.332223e-10	-4.767636e+00	-1.151188e+01
2.540000e-06	-7.910001e-07	-1.191841e-09	-5.639595e+00	-8.060756e+01
2.550000e-06	-9.129904e-07	-2.269860e-09	-6.509349e+00	-1.512222e+02
2.560000e-06	-1.034666e-06	-3.369433e-09	-7.376860e+00	-2.234774e+02
2.570000e-06	-1.155996e-06	-4.493502e-09	-8.241907e+00	-2.972699e+02
2.580000e-06	-1.276845e-06	-5.638649e-09	-9.103524e+00	-3.722444e+02
2.590000e-06	-1.397257e-06	-6.797860e-09	-9.962030e+00	-4.478087e+02
2.600000e-06	-1.517307e-06	-7.956834e-09	-1.081795e+01	-5.231874e+02
2.610000e-06	-1.636846e-06	-9.099286e-09	-1.167022e+01	-5.975047e+02
2.620000e-06	-1.755706e-06	-1.020720e-08	-1.251766e+01	-6.698811e+02
2.630000e-06	-1.873720e-06	-1.127146e-08	-1.335907e+01	-7.395271e+02
2.640000e-06	-1.990869e-06	-1.228445e-08	-1.419431e+01	-8.058178e+02
2.650000e-06	-2.107133e-06	-1.323985e-08	-1.502323e+01	-8.683384e+02
2.660000e-06	-2.222463e-06	-1.413618e-08	-1.584550e+01	-9.268955e+02
2.670000e-06	-2.336929e-06	-1.497409e-08	-1.666161e+01	-9.814969e+02
2.680000e-06	-2.450409e-06	-1.575419e-08	-1.747069e+01	-1.032308e+03
2.690000e-06	-2.562835e-06	-1.648111e-08	-1.827225e+01	-1.079593e+03
2.700000e-06	-2.674204e-06	-1.716036e-08	-1.906628e+01	-1.123661e+03
2.710000e-06	-2.784414e-06	-1.779295e-08	-1.985204e+01	-1.164817e+03
2.720000e-06	-2.893647e-06	-1.838398e-08	-2.063084e+01	-1.203332e+03
2.730000e-06	-3.002014e-06	-1.893791e-08	-2.140347e+01	-1.239430e+03
2.740000e-06	-3.109437e-06	-1.945799e-08	-2.216936e+01	-1.273288e+03
2.750000e-06	-3.215804e-06	-1.994296e-08	-2.292773e+01	-1.305055e+03
2.760000e-06	-3.321095e-06	-2.039767e-08	-2.367842e+01	-1.334862e+03
2.770000e-06	-3.425290e-06	-2.082550e-08	-2.442130e+01	-1.362844e+03
2.780000e-06	-3.528200e-06	-2.122734e-08	-2.515502e+01	-1.389140e+03
2.790000e-06	-3.629741e-06	-2.160691e-08	-2.587897e+01	-1.413898e+03
2.800000e-06	-3.729903e-06	-2.196682e-08	-2.659310e+01	-1.437267e+03
2.810000e-06	-3.828803e-06	-2.230719e-08	-2.729822e+01	-1.459386e+03
2.820000e-06	-3.926478e-06	-2.262823e-08	-2.799462e+01	-1.480376e+03
2.830000e-06	-4.022836e-06	-2.293214e-08	-2.868163e+01	-1.500331e+03
2.840000e-06	-4.117877e-06	-2.322131e-08	-2.935923e+01	-1.519318e+03
2.850000e-06	-4.211371e-06	-2.349738e-08	-3.002582e+01	-1.537381e+03
2.860000e-06	-4.303277e-06	-2.375890e-08	-3.068108e+01	-1.554550e+03
2.870000e-06	-4.393680e-06	-2.400674e-08	-3.132563e+01	-1.570850e+03
2.880000e-06	-4.482512e-06	-2.424209e-08	-3.195898e+01	-1.586312e+03
2.890000e-06	-4.569759e-06	-2.446689e-08	-3.258102e+01	-1.600975e+03
2.900000e-06	-4.655277e-06	-2.468350e-08	-3.319074e+01	-1.614892e+03
2.910000e-06	-4.739104e-06	-2.489101e-08	-3.378840e+01	-1.628120e+03
2.920000e-06	-4.821300e-06	-2.508711e-08	-3.437444e+01	-1.640722e+03
2.930000e-06	-4.901866e-06	-2.527259e-08	-3.494884e+01	-1.652753e+03
2.940000e-06	-4.980572e-06	-2.544787e-08	-3.551000e+01	-1.664258e+03
