# Temperatura_=_52.82
# Concentracion g/m^3_=_28200.0
# C_Vs_to_Am_M_A/Vsm_=_65563218390.804596
# pendiente_HvsI_1/m_=_3716.3
# ordenada_HvsI_A/m_=_1297.0
# frecuencia_Hz_=_302134.88497896574

Tiempo_(s)	Campo_(V.s)	Magnetizacion_(V.s)	Campo_(kA/m)	Magnetizacion_(A/m)
0.000000e+00	-6.402473e-06	-2.361318e-08	-4.585656e+01	-1.547389e+03
1.000000e-08	-6.399784e-06	-2.361656e-08	-4.583730e+01	-1.546981e+03
2.000000e-08	-6.394879e-06	-2.361092e-08	-4.580217e+01	-1.546415e+03
3.000000e-08	-6.388017e-06	-2.359887e-08	-4.575302e+01	-1.545690e+03
4.000000e-08	-6.379147e-06	-2.358347e-08	-4.568949e+01	-1.544812e+03
5.000000e-08	-6.367994e-06	-2.356290e-08	-4.560961e+01	-1.543786e+03
6.000000e-08	-6.354464e-06	-2.354384e-08	-4.551271e+01	-1.542625e+03
7.000000e-08	-6.338579e-06	-2.352033e-08	-4.539893e+01	-1.541341e+03
8.000000e-08	-6.320513e-06	-2.349913e-08	-4.526954e+01	-1.539946e+03
9.000000e-08	-6.300425e-06	-2.353505e-08	-4.512566e+01	-1.538447e+03
1.000000e-07	-6.277982e-06	-2.352187e-08	-4.496492e+01	-1.536848e+03
1.100000e-07	-6.252894e-06	-2.343500e-08	-4.478523e+01	-1.535141e+03
1.200000e-07	-6.225430e-06	-2.338658e-08	-4.458852e+01	-1.533314e+03
1.300000e-07	-6.195996e-06	-2.335813e-08	-4.437771e+01	-1.531347e+03
1.400000e-07	-6.164905e-06	-2.324793e-08	-4.415502e+01	-1.529215e+03
1.500000e-07	-6.132185e-06	-2.324610e-08	-4.392067e+01	-1.526892e+03
1.600000e-07	-6.097450e-06	-2.335211e-08	-4.367189e+01	-1.524353e+03
1.700000e-07	-6.060718e-06	-2.316467e-08	-4.340881e+01	-1.521575e+03
1.800000e-07	-6.022032e-06	-2.315705e-08	-4.313172e+01	-1.518547e+03
1.900000e-07	-5.980971e-06	-2.318383e-08	-4.283763e+01	-1.515261e+03
2.000000e-07	-5.937680e-06	-2.299446e-08	-4.252757e+01	-1.511724e+03
2.100000e-07	-5.892366e-06	-2.300369e-08	-4.220301e+01	-1.507948e+03
2.200000e-07	-5.844825e-06	-2.295164e-08	-4.186251e+01	-1.503952e+03
2.300000e-07	-5.794816e-06	-2.286146e-08	-4.150433e+01	-1.499756e+03
2.400000e-07	-5.742255e-06	-2.281392e-08	-4.112787e+01	-1.495380e+03
2.500000e-07	-5.687443e-06	-2.273716e-08	-4.073529e+01	-1.490838e+03
2.600000e-07	-5.630481e-06	-2.268252e-08	-4.032731e+01	-1.486134e+03
2.700000e-07	-5.571342e-06	-2.258422e-08	-3.990374e+01	-1.481264e+03
2.800000e-07	-5.510188e-06	-2.250538e-08	-3.946573e+01	-1.476211e+03
2.900000e-07	-5.447122e-06	-2.242327e-08	-3.901403e+01	-1.470953e+03
3.000000e-07	-5.382000e-06	-2.232315e-08	-3.854760e+01	-1.465461e+03
3.100000e-07	-5.314749e-06	-2.227044e-08	-3.806593e+01	-1.459709e+03
3.200000e-07	-5.245501e-06	-2.216822e-08	-3.756996e+01	-1.453675e+03
3.300000e-07	-5.174375e-06	-2.207098e-08	-3.706053e+01	-1.447343e+03
3.400000e-07	-5.101434e-06	-2.195570e-08	-3.653810e+01	-1.440706e+03
3.500000e-07	-5.026531e-06	-2.183983e-08	-3.600162e+01	-1.433765e+03
3.600000e-07	-4.949498e-06	-2.174823e-08	-3.544989e+01	-1.426523e+03
3.700000e-07	-4.870356e-06	-2.162814e-08	-3.488305e+01	-1.418984e+03
3.800000e-07	-4.789312e-06	-2.152321e-08	-3.430258e+01	-1.411149e+03
3.900000e-07	-4.706663e-06	-2.138552e-08	-3.371063e+01	-1.403010e+03
4.000000e-07	-4.622567e-06	-2.124622e-08	-3.310830e+01	-1.394553e+03
4.100000e-07	-4.537050e-06	-2.110843e-08	-3.249581e+01	-1.385757e+03
4.200000e-07	-4.450121e-06	-2.097155e-08	-3.187319e+01	-1.376598e+03
4.300000e-07	-4.361661e-06	-2.083654e-08	-3.123962e+01	-1.367050e+03
4.400000e-07	-4.271607e-06	-2.067892e-08	-3.059462e+01	-1.357092e+03
4.500000e-07	-4.179943e-06	-2.052478e-08	-2.993809e+01	-1.346707e+03
4.600000e-07	-4.086723e-06	-2.035544e-08	-2.927042e+01	-1.335886e+03
4.700000e-07	-3.992178e-06	-2.018280e-08	-2.859325e+01	-1.324621e+03
4.800000e-07	-3.896261e-06	-2.000672e-08	-2.790627e+01	-1.312906e+03
4.900000e-07	-3.798873e-06	-1.982423e-08	-2.720875e+01	-1.300731e+03
5.000000e-07	-3.700040e-06	-1.962554e-08	-2.650087e+01	-1.288078e+03
5.100000e-07	-3.599855e-06	-1.941819e-08	-2.578332e+01	-1.274923e+03
5.200000e-07	-3.498428e-06	-1.920802e-08	-2.505686e+01	-1.261228e+03
5.300000e-07	-3.395785e-06	-1.898439e-08	-2.432170e+01	-1.246954e+03
5.400000e-07	-3.291919e-06	-1.875604e-08	-2.357778e+01	-1.232056e+03
5.500000e-07	-3.186783e-06	-1.851819e-08	-2.282476e+01	-1.216490e+03
5.600000e-07	-3.080449e-06	-1.827192e-08	-2.206316e+01	-1.200215e+03
5.700000e-07	-2.972904e-06	-1.801042e-08	-2.129289e+01	-1.183192e+03
5.800000e-07	-2.864146e-06	-1.773893e-08	-2.051393e+01	-1.165383e+03
5.900000e-07	-2.754364e-06	-1.745245e-08	-1.972764e+01	-1.146751e+03
6.000000e-07	-2.643710e-06	-1.715254e-08	-1.893510e+01	-1.127246e+03
6.100000e-07	-2.532144e-06	-1.683818e-08	-1.813602e+01	-1.106812e+03
6.200000e-07	-2.419465e-06	-1.650944e-08	-1.732899e+01	-1.085379e+03
6.300000e-07	-2.305720e-06	-1.616626e-08	-1.651431e+01	-1.062862e+03
6.400000e-07	-2.191084e-06	-1.580219e-08	-1.569325e+01	-1.039171e+03
6.500000e-07	-2.075539e-06	-1.541748e-08	-1.486567e+01	-1.014205e+03
6.600000e-07	-1.959121e-06	-1.501156e-08	-1.403185e+01	-9.878662e+02
6.700000e-07	-1.841955e-06	-1.458864e-08	-1.319267e+01	-9.600542e+02
6.800000e-07	-1.724193e-06	-1.414507e-08	-1.234922e+01	-9.306701e+02
6.900000e-07	-1.605954e-06	-1.367555e-08	-1.150236e+01	-8.996131e+02
7.000000e-07	-1.487228e-06	-1.317298e-08	-1.065200e+01	-8.667778e+02
7.100000e-07	-1.368030e-06	-1.263746e-08	-9.798271e+00	-8.320523e+02
7.200000e-07	-1.248393e-06	-1.207338e-08	-8.941392e+00	-7.953207e+02
7.300000e-07	-1.128288e-06	-1.148016e-08	-8.081160e+00	-7.564717e+02
7.400000e-07	-1.007709e-06	-1.085524e-08	-7.217531e+00	-7.154133e+02
7.500000e-07	-8.866776e-07	-1.019805e-08	-6.350669e+00	-6.720934e+02
7.600000e-07	-7.653135e-07	-9.507430e-09	-5.481420e+00	-6.265224e+02
7.700000e-07	-6.436923e-07	-8.778222e-09	-4.610330e+00	-5.787917e+02
7.800000e-07	-5.218775e-07	-8.017565e-09	-3.737854e+00	-5.290855e+02
7.900000e-07	-3.999544e-07	-7.232738e-09	-2.864601e+00	-4.776769e+02
8.000000e-07	-2.779226e-07	-6.429021e-09	-1.990571e+00	-4.249100e+02
8.100000e-07	-1.558045e-07	-5.611607e-09	-1.115922e+00	-3.711645e+02
8.200000e-07	-3.357532e-08	-4.785648e-09	-2.404772e-01	-3.168102e+02
8.300000e-07	8.872326e-08	-3.956715e-09	6.354644e-01	-2.621567e+02
8.400000e-07	2.109956e-07	-3.124928e-09	1.511218e+00	-2.074085e+02
8.500000e-07	3.332111e-07	-2.294118e-09	2.386565e+00	-1.526346e+02
8.600000e-07	4.553599e-07	-1.460896e-09	3.261433e+00	-9.776041e+01
8.700000e-07	5.773922e-07	-6.209677e-10	4.135468e+00	-4.258587e+01
8.800000e-07	6.992921e-07	2.297451e-10	5.008554e+00	1.317194e+01
8.900000e-07	8.210256e-07	1.094594e-09	5.880448e+00	6.981717e+01
9.000000e-07	9.424815e-07	1.974493e-09	6.750354e+00	1.276050e+02
9.100000e-07	1.063561e-06	2.870919e-09	7.617561e+00	1.866751e+02
9.200000e-07	1.184152e-06	3.787862e-09	8.481276e+00	2.470007e+02
9.300000e-07	1.304207e-06	4.722406e-09	9.341145e+00	3.083634e+02
9.400000e-07	1.423771e-06	5.667147e-09	1.019751e+01	3.703571e+02
9.500000e-07	1.542854e-06	6.615815e-09	1.105041e+01	4.324224e+02
9.600000e-07	1.661379e-06	7.554655e-09	1.189933e+01	4.939034e+02
9.700000e-07	1.779291e-06	8.470774e-09	1.274385e+01	5.541180e+02
9.800000e-07	1.896584e-06	9.354750e-09	1.358394e+01	6.124288e+02
9.900000e-07	2.013156e-06	1.020349e-08	1.441887e+01	6.683044e+02
1.000000e-06	2.128845e-06	1.101151e-08	1.524747e+01	7.213594e+02
1.010000e-06	2.243644e-06	1.176999e-08	1.606970e+01	7.713716e+02
1.020000e-06	2.357522e-06	1.247906e-08	1.688532e+01	8.182748e+02
1.030000e-06	2.470302e-06	1.314330e-08	1.769309e+01	8.621316e+02
1.040000e-06	2.582030e-06	1.376644e-08	1.849333e+01	9.030957e+02
1.050000e-06	2.692845e-06	1.434775e-08	1.928702e+01	9.413699e+02
1.060000e-06	2.802718e-06	1.489283e-08	2.007397e+01	9.771702e+02
1.070000e-06	2.911694e-06	1.540150e-08	2.085449e+01	1.010700e+03
1.080000e-06	3.019728e-06	1.587728e-08	2.162826e+01	1.042135e+03
1.090000e-06	3.126701e-06	1.632306e-08	2.239443e+01	1.071626e+03
1.100000e-06	3.232525e-06	1.674287e-08	2.315238e+01	1.099301e+03
1.110000e-06	3.337051e-06	1.713785e-08	2.390103e+01	1.125280e+03
1.120000e-06	3.440277e-06	1.750674e-08	2.464036e+01	1.149679e+03
1.130000e-06	3.542301e-06	1.785453e-08	2.537109e+01	1.172621e+03
1.140000e-06	3.643187e-06	1.818368e-08	2.609367e+01	1.194231e+03
1.150000e-06	3.742869e-06	1.849626e-08	2.680762e+01	1.214633e+03
1.160000e-06	3.841145e-06	1.879122e-08	2.751151e+01	1.233941e+03
1.170000e-06	3.937934e-06	1.906932e-08	2.820474e+01	1.252252e+03
1.180000e-06	4.033261e-06	1.933293e-08	2.888751e+01	1.269640e+03
1.190000e-06	4.127231e-06	1.958379e-08	2.956055e+01	1.286158e+03
1.200000e-06	4.219966e-06	1.982012e-08	3.022475e+01	1.301842e+03
1.210000e-06	4.311311e-06	2.004512e-08	3.087899e+01	1.316718e+03
1.220000e-06	4.401030e-06	2.025865e-08	3.152159e+01	1.330813e+03
1.230000e-06	4.489034e-06	2.046041e-08	3.215190e+01	1.344159e+03
1.240000e-06	4.575360e-06	2.065150e-08	3.277019e+01	1.356801e+03
1.250000e-06	4.660172e-06	2.083278e-08	3.337764e+01	1.368793e+03
1.260000e-06	4.743460e-06	2.100526e-08	3.397418e+01	1.380192e+03
1.270000e-06	4.825046e-06	2.117207e-08	3.455853e+01	1.391055e+03
1.280000e-06	4.904736e-06	2.133140e-08	3.512929e+01	1.401427e+03
1.290000e-06	4.982530e-06	2.148399e-08	3.568648e+01	1.411339e+03
1.300000e-06	5.058523e-06	2.162882e-08	3.623076e+01	1.420802e+03
1.310000e-06	5.132478e-06	2.176694e-08	3.676045e+01	1.429815e+03
1.320000e-06	5.204354e-06	2.189948e-08	3.727525e+01	1.438365e+03
1.330000e-06	5.274347e-06	2.202300e-08	3.777656e+01	1.446442e+03
1.340000e-06	5.342613e-06	2.213991e-08	3.826551e+01	1.454040e+03
1.350000e-06	5.408985e-06	2.224913e-08	3.874088e+01	1.461167e+03
1.360000e-06	5.473256e-06	2.235194e-08	3.920121e+01	1.467846e+03
1.370000e-06	5.535602e-06	2.244875e-08	3.964776e+01	1.474115e+03
1.380000e-06	5.596151e-06	2.253860e-08	4.008142e+01	1.480018e+03
1.390000e-06	5.654734e-06	2.262348e-08	4.050102e+01	1.485604e+03
1.400000e-06	5.711218e-06	2.270380e-08	4.090557e+01	1.490916e+03
1.410000e-06	5.765678e-06	2.278118e-08	4.129563e+01	1.495984e+03
1.420000e-06	5.817918e-06	2.285571e-08	4.166979e+01	1.500827e+03
1.430000e-06	5.867683e-06	2.292592e-08	4.202622e+01	1.505451e+03
1.440000e-06	5.915098e-06	2.299336e-08	4.236583e+01	1.509849e+03
1.450000e-06	5.960501e-06	2.305762e-08	4.269102e+01	1.514011e+03
1.460000e-06	6.004024e-06	2.311719e-08	4.300274e+01	1.517926e+03
1.470000e-06	6.045309e-06	2.317274e-08	4.329844e+01	1.521583e+03
1.480000e-06	6.084324e-06	2.322591e-08	4.357787e+01	1.524979e+03
1.490000e-06	6.121368e-06	2.327560e-08	4.384320e+01	1.528115e+03
1.500000e-06	6.156265e-06	2.331891e-08	4.409314e+01	1.530995e+03
1.510000e-06	6.188893e-06	2.335839e-08	4.432683e+01	1.533628e+03
1.520000e-06	6.219325e-06	2.339568e-08	4.454479e+01	1.536018e+03
1.530000e-06	6.247724e-06	2.342843e-08	4.474820e+01	1.538170e+03
1.540000e-06	6.273875e-06	2.345699e-08	4.493551e+01	1.540087e+03
1.550000e-06	6.297514e-06	2.348336e-08	4.510481e+01	1.541771e+03
1.560000e-06	6.318902e-06	2.350704e-08	4.525800e+01	1.543225e+03
1.570000e-06	6.338278e-06	2.352616e-08	4.539678e+01	1.544454e+03
1.580000e-06	6.355456e-06	2.354132e-08	4.551981e+01	1.545466e+03
1.590000e-06	6.370172e-06	2.355420e-08	4.562521e+01	1.546275e+03
1.600000e-06	6.382424e-06	2.356593e-08	4.571296e+01	1.546893e+03
1.610000e-06	6.392068e-06	2.357682e-08	4.578203e+01	1.547335e+03
1.620000e-06	6.399222e-06	2.358252e-08	4.583328e+01	1.547614e+03
1.630000e-06	6.404212e-06	2.358397e-08	4.586902e+01	1.547738e+03
1.640000e-06	6.407016e-06	2.358458e-08	4.588910e+01	1.547712e+03
1.650000e-06	6.407505e-06	2.358595e-08	4.589260e+01	1.547535e+03
1.660000e-06	6.405767e-06	2.358035e-08	4.588015e+01	1.547204e+03
1.670000e-06	6.402058e-06	2.356937e-08	4.585359e+01	1.546718e+03
1.680000e-06	6.396162e-06	2.356021e-08	4.581136e+01	1.546072e+03
1.690000e-06	6.388036e-06	2.354861e-08	4.575316e+01	1.545270e+03
1.700000e-06	6.377930e-06	2.353536e-08	4.568078e+01	1.544316e+03
1.710000e-06	6.365703e-06	2.352471e-08	4.559320e+01	1.543221e+03
1.720000e-06	6.351138e-06	2.351600e-08	4.548889e+01	1.541997e+03
1.730000e-06	6.334507e-06	2.350167e-08	4.536977e+01	1.540657e+03
1.740000e-06	6.315963e-06	2.339853e-08	4.523695e+01	1.539209e+03
1.750000e-06	6.294804e-06	2.336469e-08	4.508540e+01	1.537660e+03
1.760000e-06	6.270445e-06	2.340715e-08	4.491093e+01	1.536008e+03
1.770000e-06	6.243424e-06	2.338383e-08	4.471740e+01	1.534243e+03
1.780000e-06	6.214476e-06	2.338569e-08	4.451006e+01	1.532349e+03
1.790000e-06	6.183781e-06	2.344153e-08	4.429022e+01	1.530303e+03
1.800000e-06	6.151683e-06	2.325349e-08	4.406032e+01	1.528079e+03
1.810000e-06	6.117766e-06	2.323230e-08	4.381740e+01	1.525651e+03
1.820000e-06	6.081683e-06	2.328864e-08	4.355896e+01	1.522995e+03
1.830000e-06	6.043692e-06	2.309140e-08	4.328686e+01	1.520093e+03
1.840000e-06	6.003389e-06	2.319615e-08	4.299820e+01	1.516936e+03
1.850000e-06	5.960838e-06	2.312790e-08	4.269343e+01	1.513524e+03
1.860000e-06	5.916388e-06	2.296710e-08	4.237506e+01	1.509865e+03
1.870000e-06	5.869781e-06	2.301559e-08	4.204125e+01	1.505976e+03
1.880000e-06	5.821037e-06	2.285152e-08	4.169213e+01	1.501877e+03
1.890000e-06	5.769938e-06	2.284966e-08	4.132614e+01	1.497589e+03
1.900000e-06	5.716268e-06	2.279245e-08	4.094174e+01	1.493129e+03
1.910000e-06	5.660312e-06	2.265601e-08	4.054097e+01	1.488506e+03
1.920000e-06	5.602259e-06	2.269715e-08	4.012518e+01	1.483721e+03
1.930000e-06	5.542418e-06	2.253179e-08	3.969657e+01	1.478762e+03
1.940000e-06	5.480493e-06	2.250369e-08	3.925305e+01	1.473609e+03
1.950000e-06	5.416275e-06	2.241436e-08	3.879310e+01	1.468238e+03
1.960000e-06	5.350085e-06	2.229056e-08	3.831902e+01	1.462619e+03
1.970000e-06	5.281891e-06	2.225593e-08	3.783059e+01	1.456728e+03
1.980000e-06	5.211687e-06	2.209250e-08	3.732777e+01	1.450546e+03
1.990000e-06	5.139489e-06	2.205811e-08	3.681067e+01	1.444062e+03
2.000000e-06	5.065434e-06	2.193634e-08	3.628026e+01	1.437273e+03
2.010000e-06	4.989433e-06	2.182013e-08	3.573592e+01	1.430181e+03
2.020000e-06	4.911313e-06	2.172790e-08	3.517639e+01	1.422790e+03
2.030000e-06	4.831306e-06	2.157699e-08	3.460336e+01	1.415104e+03
2.040000e-06	4.749571e-06	2.150036e-08	3.401795e+01	1.407118e+03
2.050000e-06	4.666326e-06	2.134788e-08	3.342172e+01	1.398822e+03
2.060000e-06	4.581507e-06	2.123359e-08	3.281422e+01	1.390199e+03
2.070000e-06	4.494988e-06	2.108653e-08	3.219454e+01	1.381225e+03
2.080000e-06	4.406845e-06	2.093592e-08	3.156323e+01	1.371874e+03
2.090000e-06	4.317157e-06	2.079462e-08	3.092086e+01	1.362123e+03
2.100000e-06	4.226121e-06	2.062500e-08	3.026883e+01	1.351954e+03
2.110000e-06	4.133543e-06	2.048772e-08	2.960576e+01	1.341352e+03
2.120000e-06	4.039472e-06	2.030974e-08	2.893199e+01	1.330309e+03
2.130000e-06	3.944049e-06	2.013886e-08	2.824854e+01	1.318820e+03
2.140000e-06	3.847181e-06	1.995089e-08	2.755474e+01	1.306877e+03
2.150000e-06	3.748951e-06	1.976822e-08	2.685119e+01	1.294466e+03
2.160000e-06	3.649453e-06	1.957296e-08	2.613855e+01	1.281565e+03
2.170000e-06	3.548560e-06	1.936841e-08	2.541592e+01	1.268145e+03
2.180000e-06	3.446213e-06	1.916011e-08	2.468288e+01	1.254167e+03
2.190000e-06	3.342563e-06	1.893549e-08	2.394050e+01	1.239586e+03
2.200000e-06	3.237641e-06	1.870730e-08	2.318902e+01	1.224360e+03
2.210000e-06	3.131642e-06	1.846260e-08	2.242982e+01	1.208444e+03
2.220000e-06	3.024651e-06	1.821435e-08	2.166352e+01	1.191799e+03
2.230000e-06	2.916565e-06	1.795023e-08	2.088937e+01	1.174388e+03
2.240000e-06	2.807382e-06	1.767766e-08	2.010737e+01	1.156173e+03
2.250000e-06	2.697225e-06	1.738962e-08	1.931839e+01	1.137111e+03
2.260000e-06	2.586069e-06	1.708614e-08	1.852226e+01	1.117150e+03
2.270000e-06	2.473799e-06	1.676251e-08	1.771814e+01	1.096226e+03
2.280000e-06	2.360580e-06	1.642476e-08	1.690723e+01	1.074262e+03
2.290000e-06	2.246510e-06	1.607563e-08	1.609022e+01	1.051169e+03
2.300000e-06	2.131485e-06	1.570917e-08	1.526638e+01	1.026853e+03
2.310000e-06	2.015587e-06	1.532250e-08	1.443628e+01	1.001214e+03
2.320000e-06	1.898869e-06	1.491178e-08	1.360031e+01	9.741505e+02
2.330000e-06	1.781331e-06	1.447679e-08	1.275846e+01	9.455649e+02
2.340000e-06	1.663132e-06	1.401480e-08	1.191189e+01	9.153572e+02
2.350000e-06	1.544396e-06	1.352900e-08	1.106146e+01	8.834246e+02
2.360000e-06	1.425179e-06	1.301496e-08	1.020759e+01	8.496586e+02
2.370000e-06	1.305449e-06	1.247084e-08	9.350045e+00	8.139445e+02
2.380000e-06	1.185196e-06	1.189170e-08	8.488756e+00	7.761673e+02
2.390000e-06	1.064477e-06	1.127949e-08	7.624127e+00	7.362231e+02
2.400000e-06	9.433729e-07	1.063564e-08	6.756739e+00	6.940371e+02
2.410000e-06	8.219815e-07	9.958642e-09	5.887295e+00	6.495857e+02
2.420000e-06	7.003914e-07	9.249509e-09	5.016427e+00	6.029177e+02
2.430000e-06	5.785779e-07	8.508028e-09	4.143960e+00	5.541704e+02
2.440000e-06	4.565265e-07	7.737617e-09	3.269789e+00	5.035738e+02
2.450000e-06	3.344217e-07	6.941890e-09	2.395236e+00	4.514399e+02
2.460000e-06	2.122607e-07	6.123951e-09	1.520279e+00	3.981356e+02
2.470000e-06	8.997783e-08	5.291723e-09	6.444501e-01	3.440421e+02
2.480000e-06	-3.237427e-08	4.455663e-09	-2.318749e-01	2.895052e+02
2.490000e-06	-1.547198e-07	3.619794e-09	-1.108153e+00	2.347868e+02
2.500000e-06	-2.770471e-07	2.782381e-09	-1.984300e+00	1.800262e+02
2.510000e-06	-3.993395e-07	1.945400e-09	-2.860197e+00	1.252200e+02
2.520000e-06	-5.215024e-07	1.105287e-09	-3.735167e+00	7.022708e+01
2.530000e-06	-6.434927e-07	2.553680e-10	-4.608901e+00	1.479920e+01
2.540000e-06	-7.653095e-07	-6.058718e-10	-5.481392e+00	-4.136570e+01
2.550000e-06	-8.869090e-07	-1.480465e-09	-6.352326e+00	-9.855613e+01
2.560000e-06	-1.008208e-06	-2.369866e-09	-7.221107e+00	-1.569771e+02
2.570000e-06	-1.129201e-06	-3.279462e-09	-8.087699e+00	-2.166900e+02
2.580000e-06	-1.249801e-06	-4.208290e-09	-8.951476e+00	-2.775737e+02
2.590000e-06	-1.369851e-06	-5.151128e-09	-9.811311e+00	-3.393133e+02
2.600000e-06	-1.489320e-06	-6.101453e-09	-1.066699e+01	-4.014203e+02
2.610000e-06	-1.608230e-06	-7.049561e-09	-1.151866e+01	-4.632789e+02
2.620000e-06	-1.726536e-06	-7.982398e-09	-1.236600e+01	-5.242107e+02
2.630000e-06	-1.844148e-06	-8.887509e-09	-1.320838e+01	-5.835477e+02
2.640000e-06	-1.960872e-06	-9.759103e-09	-1.404439e+01	-6.406989e+02
2.650000e-06	-2.076687e-06	-1.059344e-08	-1.487390e+01	-6.952022e+02
2.660000e-06	-2.191641e-06	-1.138409e-08	-1.569723e+01	-7.467534e+02
2.670000e-06	-2.305624e-06	-1.212601e-08	-1.651362e+01	-7.952105e+02
2.680000e-06	-2.418600e-06	-1.282119e-08	-1.732279e+01	-8.405760e+02
2.690000e-06	-2.530533e-06	-1.347156e-08	-1.812449e+01	-8.829633e+02
2.700000e-06	-2.641411e-06	-1.407943e-08	-1.891863e+01	-9.225555e+02
2.710000e-06	-2.751308e-06	-1.464902e-08	-1.970575e+01	-9.595661e+02
2.720000e-06	-2.860310e-06	-1.518330e-08	-2.048646e+01	-9.942071e+02
2.730000e-06	-2.968416e-06	-1.568100e-08	-2.126075e+01	-1.026669e+03
2.740000e-06	-3.075549e-06	-1.614476e-08	-2.202807e+01	-1.057115e+03
2.750000e-06	-3.181670e-06	-1.658048e-08	-2.278814e+01	-1.085683e+03
2.760000e-06	-3.286751e-06	-1.699051e-08	-2.354076e+01	-1.112495e+03
2.770000e-06	-3.390670e-06	-1.737714e-08	-2.428506e+01	-1.137669e+03
2.780000e-06	-3.493283e-06	-1.774127e-08	-2.502001e+01	-1.161324e+03
2.790000e-06	-3.594573e-06	-1.808365e-08	-2.574548e+01	-1.183584e+03
2.800000e-06	-3.694576e-06	-1.840461e-08	-2.646173e+01	-1.204575e+03
2.810000e-06	-3.793297e-06	-1.870676e-08	-2.716881e+01	-1.224417e+03
2.820000e-06	-3.890752e-06	-1.899395e-08	-2.786681e+01	-1.243216e+03
2.830000e-06	-3.986984e-06	-1.926688e-08	-2.855605e+01	-1.261058e+03
2.840000e-06	-4.081852e-06	-1.952594e-08	-2.923553e+01	-1.278005e+03
2.850000e-06	-4.175138e-06	-1.977220e-08	-2.990367e+01	-1.294103e+03
2.860000e-06	-4.266892e-06	-2.000715e-08	-3.056085e+01	-1.309379e+03
2.870000e-06	-4.357200e-06	-2.023103e-08	-3.120766e+01	-1.323861e+03
2.880000e-06	-4.446012e-06	-2.044346e-08	-3.184376e+01	-1.337577e+03
2.890000e-06	-4.533175e-06	-2.064254e-08	-3.246805e+01	-1.350565e+03
2.900000e-06	-4.618558e-06	-2.083059e-08	-3.307959e+01	-1.362875e+03
2.910000e-06	-4.702302e-06	-2.100948e-08	-3.367939e+01	-1.374563e+03
2.920000e-06	-4.784505e-06	-2.117871e-08	-3.426816e+01	-1.385688e+03
2.930000e-06	-4.865078e-06	-2.133945e-08	-3.484525e+01	-1.396300e+03
2.940000e-06	-4.943757e-06	-2.149494e-08	-3.540877e+01	-1.406439e+03
