# Temperatura_=_93.16
# Concentracion g/m^3_=_41000.0
# C_Vs_to_Am_M_A/Vsm_=_65563218390.804596
# pendiente_HvsI_1/m_=_3716.3
# ordenada_HvsI_A/m_=_1297.0
# frecuencia_Hz_=_301632.8798959606

Tiempo_(s)	Campo_(V.s)	Magnetizacion_(V.s)	Campo_(kA/m)	Magnetizacion_(A/m)
0.000000e+00	-5.311689e-06	-2.481147e-08	-3.833868e+01	-1.621334e+03
1.000000e-08	-5.309452e-06	-2.480611e-08	-3.832254e+01	-1.621234e+03
2.000000e-08	-5.305364e-06	-2.479726e-08	-3.829303e+01	-1.621220e+03
3.000000e-08	-5.299720e-06	-2.478839e-08	-3.825229e+01	-1.621160e+03
4.000000e-08	-5.292485e-06	-2.477748e-08	-3.820007e+01	-1.620896e+03
5.000000e-08	-5.283514e-06	-2.476384e-08	-3.813533e+01	-1.620288e+03
6.000000e-08	-5.272524e-06	-2.474782e-08	-3.805600e+01	-1.619258e+03
7.000000e-08	-5.259567e-06	-2.472052e-08	-3.796248e+01	-1.617818e+03
8.000000e-08	-5.244665e-06	-2.469723e-08	-3.785492e+01	-1.616067e+03
9.000000e-08	-5.227503e-06	-2.470601e-08	-3.773105e+01	-1.614165e+03
1.000000e-07	-5.208152e-06	-2.468350e-08	-3.759137e+01	-1.612288e+03
1.100000e-07	-5.186937e-06	-2.464345e-08	-3.743825e+01	-1.610576e+03
1.200000e-07	-5.164081e-06	-2.461949e-08	-3.727328e+01	-1.609100e+03
1.300000e-07	-5.139884e-06	-2.454205e-08	-3.709863e+01	-1.607835e+03
1.400000e-07	-5.114104e-06	-2.453493e-08	-3.691256e+01	-1.606677e+03
1.500000e-07	-5.086468e-06	-2.455578e-08	-3.671308e+01	-1.605467e+03
1.600000e-07	-5.057337e-06	-2.445586e-08	-3.650282e+01	-1.604041e+03
1.700000e-07	-5.026758e-06	-2.449222e-08	-3.628211e+01	-1.602272e+03
1.800000e-07	-4.994305e-06	-2.450409e-08	-3.604787e+01	-1.600106e+03
1.900000e-07	-4.959819e-06	-2.436223e-08	-3.579896e+01	-1.597569e+03
2.000000e-07	-4.923750e-06	-2.433883e-08	-3.553862e+01	-1.594754e+03
2.100000e-07	-4.886108e-06	-2.428541e-08	-3.526693e+01	-1.591783e+03
2.200000e-07	-4.846719e-06	-2.423249e-08	-3.498263e+01	-1.588774e+03
2.300000e-07	-4.805475e-06	-2.424794e-08	-3.468494e+01	-1.585792e+03
2.400000e-07	-4.762184e-06	-2.415179e-08	-3.437247e+01	-1.582838e+03
2.500000e-07	-4.717120e-06	-2.408203e-08	-3.404721e+01	-1.579845e+03
2.600000e-07	-4.670387e-06	-2.405848e-08	-3.370990e+01	-1.576702e+03
2.700000e-07	-4.621750e-06	-2.396870e-08	-3.335884e+01	-1.573287e+03
2.800000e-07	-4.570968e-06	-2.392174e-08	-3.299231e+01	-1.569513e+03
2.900000e-07	-4.518175e-06	-2.387642e-08	-3.261126e+01	-1.565346e+03
3.000000e-07	-4.463700e-06	-2.379637e-08	-3.221807e+01	-1.560823e+03
3.100000e-07	-4.407695e-06	-2.371990e-08	-3.181384e+01	-1.556034e+03
3.200000e-07	-4.349943e-06	-2.364398e-08	-3.139700e+01	-1.551096e+03
3.300000e-07	-4.290436e-06	-2.356940e-08	-3.096749e+01	-1.546112e+03
3.400000e-07	-4.229476e-06	-2.349083e-08	-3.052749e+01	-1.541142e+03
3.500000e-07	-4.167136e-06	-2.342672e-08	-3.007754e+01	-1.536182e+03
3.600000e-07	-4.103487e-06	-2.333277e-08	-2.961813e+01	-1.531165e+03
3.700000e-07	-4.038408e-06	-2.324220e-08	-2.914840e+01	-1.525986e+03
3.800000e-07	-3.971606e-06	-2.317238e-08	-2.866624e+01	-1.520534e+03
3.900000e-07	-3.903224e-06	-2.307009e-08	-2.817267e+01	-1.514731e+03
4.000000e-07	-3.833605e-06	-2.297436e-08	-2.767018e+01	-1.508552e+03
4.100000e-07	-3.762800e-06	-2.288265e-08	-2.715912e+01	-1.502038e+03
4.200000e-07	-3.690856e-06	-2.278642e-08	-2.663984e+01	-1.495280e+03
4.300000e-07	-3.617499e-06	-2.268572e-08	-2.611037e+01	-1.488388e+03
4.400000e-07	-3.542422e-06	-2.258241e-08	-2.556848e+01	-1.481451e+03
4.500000e-07	-3.465859e-06	-2.247742e-08	-2.501586e+01	-1.474510e+03
4.600000e-07	-3.388010e-06	-2.235804e-08	-2.445396e+01	-1.467539e+03
4.700000e-07	-3.308801e-06	-2.223716e-08	-2.388225e+01	-1.460449e+03
4.800000e-07	-3.228240e-06	-2.212176e-08	-2.330078e+01	-1.453117e+03
4.900000e-07	-3.146498e-06	-2.200481e-08	-2.271078e+01	-1.445421e+03
5.000000e-07	-3.063738e-06	-2.187777e-08	-2.211343e+01	-1.437279e+03
5.100000e-07	-2.980050e-06	-2.174383e-08	-2.150939e+01	-1.428677e+03
5.200000e-07	-2.895506e-06	-2.161468e-08	-2.089917e+01	-1.419668e+03
5.300000e-07	-2.810093e-06	-2.147987e-08	-2.028268e+01	-1.410361e+03
5.400000e-07	-2.723774e-06	-2.133753e-08	-1.965964e+01	-1.400876e+03
5.500000e-07	-2.636557e-06	-2.119896e-08	-1.903013e+01	-1.391306e+03
5.600000e-07	-2.548458e-06	-2.105048e-08	-1.839425e+01	-1.381680e+03
5.700000e-07	-2.459315e-06	-2.088760e-08	-1.775083e+01	-1.371945e+03
5.800000e-07	-2.368891e-06	-2.071648e-08	-1.709817e+01	-1.361974e+03
5.900000e-07	-2.277433e-06	-2.054806e-08	-1.643804e+01	-1.351603e+03
6.000000e-07	-2.185313e-06	-2.037991e-08	-1.577314e+01	-1.340674e+03
6.100000e-07	-2.092538e-06	-2.020736e-08	-1.510351e+01	-1.329087e+03
6.200000e-07	-1.998986e-06	-2.002781e-08	-1.442827e+01	-1.316825e+03
6.300000e-07	-1.904684e-06	-1.983694e-08	-1.374762e+01	-1.303960e+03
6.400000e-07	-1.809785e-06	-1.963895e-08	-1.306266e+01	-1.290633e+03
6.500000e-07	-1.714321e-06	-1.943263e-08	-1.237362e+01	-1.276997e+03
6.600000e-07	-1.618292e-06	-1.922204e-08	-1.168050e+01	-1.263168e+03
6.700000e-07	-1.521657e-06	-1.900712e-08	-1.098301e+01	-1.249172e+03
6.800000e-07	-1.424339e-06	-1.878361e-08	-1.028059e+01	-1.234926e+03
6.900000e-07	-1.326332e-06	-1.854916e-08	-9.573193e+00	-1.220249e+03
7.000000e-07	-1.227728e-06	-1.830403e-08	-8.861488e+00	-1.204904e+03
7.100000e-07	-1.128634e-06	-1.805213e-08	-8.146251e+00	-1.188662e+03
7.200000e-07	-1.029167e-06	-1.779189e-08	-7.428318e+00	-1.171362e+03
7.300000e-07	-9.294300e-07	-1.751966e-08	-6.708435e+00	-1.152958e+03
7.400000e-07	-8.294523e-07	-1.723362e-08	-5.986817e+00	-1.133518e+03
7.500000e-07	-7.292942e-07	-1.693523e-08	-5.263896e+00	-1.113195e+03
7.600000e-07	-6.289573e-07	-1.662060e-08	-4.539685e+00	-1.092150e+03
7.700000e-07	-5.284568e-07	-1.628810e-08	-3.814293e+00	-1.070478e+03
7.800000e-07	-4.278125e-07	-1.594044e-08	-3.087863e+00	-1.048131e+03
7.900000e-07	-3.269859e-07	-1.557324e-08	-2.360117e+00	-1.024886e+03
8.000000e-07	-2.260501e-07	-1.518234e-08	-1.631584e+00	-1.000364e+03
8.100000e-07	-1.250298e-07	-1.476886e-08	-9.024394e-01	-9.740902e+02
8.200000e-07	-2.392439e-08	-1.433101e-08	-1.726814e-01	-9.455984e+02
8.300000e-07	7.722576e-08	-1.386178e-08	5.573997e-01	-9.145259e+02
8.400000e-07	1.783818e-07	-1.335776e-08	1.287523e+00	-8.806802e+02
8.500000e-07	2.794324e-07	-1.281649e-08	2.016886e+00	-8.440417e+02
8.600000e-07	3.803386e-07	-1.223367e-08	2.745206e+00	-8.046892e+02
8.700000e-07	4.811679e-07	-1.160276e-08	3.472972e+00	-7.626572e+02
8.800000e-07	5.818929e-07	-1.091423e-08	4.199984e+00	-7.177581e+02
8.900000e-07	6.824800e-07	-1.015697e-08	4.926001e+00	-6.694151e+02
9.000000e-07	7.828849e-07	-9.321162e-09	5.650703e+00	-6.165632e+02
9.100000e-07	8.830489e-07	-8.395132e-09	6.373666e+00	-5.576629e+02
9.200000e-07	9.829827e-07	-7.360354e-09	7.094968e+00	-4.908492e+02
9.300000e-07	1.082631e-06	-6.193685e-09	7.814212e+00	-4.142100e+02
9.400000e-07	1.181905e-06	-4.868386e-09	8.530752e+00	-3.261518e+02
9.500000e-07	1.280758e-06	-3.362946e-09	9.244250e+00	-2.257857e+02
9.600000e-07	1.379023e-06	-1.667080e-09	9.953504e+00	-1.132536e+02
9.700000e-07	1.476567e-06	2.106699e-10	1.065756e+01	1.008219e+01
9.800000e-07	1.573464e-06	2.237178e-09	1.135694e+01	1.416363e+02
9.900000e-07	1.669729e-06	4.351109e-09	1.205177e+01	2.778028e+02
1.000000e-06	1.765346e-06	6.467523e-09	1.274191e+01	4.143370e+02
1.010000e-06	1.860329e-06	8.503050e-09	1.342748e+01	5.468532e+02
1.020000e-06	1.954676e-06	1.038694e-08	1.410845e+01	6.713505e+02
1.030000e-06	2.048357e-06	1.207433e-08	1.478462e+01	7.846732e+02
1.040000e-06	2.141335e-06	1.355062e-08	1.545572e+01	8.848246e+02
1.050000e-06	2.233649e-06	1.482060e-08	1.612202e+01	9.710856e+02
1.060000e-06	2.325317e-06	1.590453e-08	1.678367e+01	1.043928e+03
1.070000e-06	2.416169e-06	1.682652e-08	1.743942e+01	1.104758e+03
1.080000e-06	2.505927e-06	1.761165e-08	1.808727e+01	1.155546e+03
1.090000e-06	2.594554e-06	1.828214e-08	1.872696e+01	1.198433e+03
1.100000e-06	2.682260e-06	1.885943e-08	1.936001e+01	1.235386e+03
1.110000e-06	2.769081e-06	1.935957e-08	1.998666e+01	1.267960e+03
1.120000e-06	2.854957e-06	1.979491e-08	2.060649e+01	1.297198e+03
1.130000e-06	2.939931e-06	2.017920e-08	2.121982e+01	1.323666e+03
1.140000e-06	3.024052e-06	2.052182e-08	2.182699e+01	1.347580e+03
1.150000e-06	3.107269e-06	2.082874e-08	2.242763e+01	1.368986e+03
1.160000e-06	3.189354e-06	2.110528e-08	2.302011e+01	1.387928e+03
1.170000e-06	3.270186e-06	2.135735e-08	2.360353e+01	1.404565e+03
1.180000e-06	3.349838e-06	2.158748e-08	2.417845e+01	1.419213e+03
1.190000e-06	3.428317e-06	2.179963e-08	2.474489e+01	1.432314e+03
1.200000e-06	3.505595e-06	2.199555e-08	2.530267e+01	1.444353e+03
1.210000e-06	3.581603e-06	2.217692e-08	2.585128e+01	1.455756e+03
1.220000e-06	3.656191e-06	2.234557e-08	2.638964e+01	1.466807e+03
1.230000e-06	3.729191e-06	2.250423e-08	2.691654e+01	1.477602e+03
1.240000e-06	3.800713e-06	2.265256e-08	2.743277e+01	1.488066e+03
1.250000e-06	3.870896e-06	2.279133e-08	2.793934e+01	1.498009e+03
1.260000e-06	3.939749e-06	2.292123e-08	2.843630e+01	1.507214e+03
1.270000e-06	4.007328e-06	2.304278e-08	2.892407e+01	1.515525e+03
1.280000e-06	4.073407e-06	2.315864e-08	2.940102e+01	1.522903e+03
1.290000e-06	4.137851e-06	2.326760e-08	2.986616e+01	1.529451e+03
1.300000e-06	4.200823e-06	2.336824e-08	3.032068e+01	1.535378e+03
1.310000e-06	4.262405e-06	2.346036e-08	3.076516e+01	1.540951e+03
1.320000e-06	4.322654e-06	2.354680e-08	3.120004e+01	1.546411e+03
1.330000e-06	4.381436e-06	2.362814e-08	3.162431e+01	1.551917e+03
1.340000e-06	4.438449e-06	2.370563e-08	3.203582e+01	1.557507e+03
1.350000e-06	4.493726e-06	2.378086e-08	3.243479e+01	1.563104e+03
1.360000e-06	4.547443e-06	2.385393e-08	3.282251e+01	1.568549e+03
1.370000e-06	4.599460e-06	2.392427e-08	3.319796e+01	1.573663e+03
1.380000e-06	4.649413e-06	2.399187e-08	3.355851e+01	1.578307e+03
1.390000e-06	4.697397e-06	2.405710e-08	3.390485e+01	1.582430e+03
1.400000e-06	4.743765e-06	2.411875e-08	3.423953e+01	1.586080e+03
1.410000e-06	4.788632e-06	2.417689e-08	3.456337e+01	1.589387e+03
1.420000e-06	4.831981e-06	2.423215e-08	3.487625e+01	1.592524e+03
1.430000e-06	4.873484e-06	2.428367e-08	3.517581e+01	1.595645e+03
1.440000e-06	4.913111e-06	2.432996e-08	3.546183e+01	1.598843e+03
1.450000e-06	4.951130e-06	2.437209e-08	3.573624e+01	1.602116e+03
1.460000e-06	4.987599e-06	2.441260e-08	3.599947e+01	1.605379e+03
1.470000e-06	5.022320e-06	2.445154e-08	3.625008e+01	1.608484e+03
1.480000e-06	5.055069e-06	2.448847e-08	3.648645e+01	1.611276e+03
1.490000e-06	5.085969e-06	2.452269e-08	3.670949e+01	1.613640e+03
1.500000e-06	5.115239e-06	2.455339e-08	3.692075e+01	1.615538e+03
1.510000e-06	5.142876e-06	2.458030e-08	3.712023e+01	1.617024e+03
1.520000e-06	5.168538e-06	2.460356e-08	3.730545e+01	1.618225e+03
1.530000e-06	5.192168e-06	2.462329e-08	3.747601e+01	1.619304e+03
1.540000e-06	5.213983e-06	2.464069e-08	3.763346e+01	1.620406e+03
1.550000e-06	5.234098e-06	2.465889e-08	3.777865e+01	1.621623e+03
1.560000e-06	5.252398e-06	2.467702e-08	3.791074e+01	1.622956e+03
1.570000e-06	5.268706e-06	2.469234e-08	3.802844e+01	1.624329e+03
1.580000e-06	5.283089e-06	2.470507e-08	3.813225e+01	1.625606e+03
1.590000e-06	5.295585e-06	2.471552e-08	3.822245e+01	1.626638e+03
1.600000e-06	5.305949e-06	2.472488e-08	3.829726e+01	1.627313e+03
1.610000e-06	5.314154e-06	2.473186e-08	3.835647e+01	1.627591e+03
1.620000e-06	5.320486e-06	2.473572e-08	3.840218e+01	1.627514e+03
1.630000e-06	5.325074e-06	2.473791e-08	3.843530e+01	1.627199e+03
1.640000e-06	5.327799e-06	2.473929e-08	3.845497e+01	1.626798e+03
1.650000e-06	5.328497e-06	2.474006e-08	3.846000e+01	1.626450e+03
1.660000e-06	5.327350e-06	2.473770e-08	3.845172e+01	1.626239e+03
1.670000e-06	5.324558e-06	2.473499e-08	3.843157e+01	1.626169e+03
1.680000e-06	5.320134e-06	2.473176e-08	3.839964e+01	1.626157e+03
1.690000e-06	5.313872e-06	2.472351e-08	3.835444e+01	1.626061e+03
1.700000e-06	5.305753e-06	2.471314e-08	3.829584e+01	1.625722e+03
1.710000e-06	5.296073e-06	2.470287e-08	3.822597e+01	1.625011e+03
1.720000e-06	5.284837e-06	2.469689e-08	3.814487e+01	1.623873e+03
1.730000e-06	5.271781e-06	2.469668e-08	3.805063e+01	1.622343e+03
1.740000e-06	5.256638e-06	2.464056e-08	3.794134e+01	1.620537e+03
1.750000e-06	5.239221e-06	2.460735e-08	3.781563e+01	1.618625e+03
1.760000e-06	5.219303e-06	2.459695e-08	3.767186e+01	1.616777e+03
1.770000e-06	5.196944e-06	2.457275e-08	3.751048e+01	1.615121e+03
1.780000e-06	5.172986e-06	2.460908e-08	3.733756e+01	1.613702e+03
1.790000e-06	5.148280e-06	2.452958e-08	3.715923e+01	1.612477e+03
1.800000e-06	5.122394e-06	2.448057e-08	3.697239e+01	1.611321e+03
1.810000e-06	5.094586e-06	2.455378e-08	3.677168e+01	1.610070e+03
1.820000e-06	5.065043e-06	2.442530e-08	3.655844e+01	1.608567e+03
1.830000e-06	5.033663e-06	2.439429e-08	3.633195e+01	1.606701e+03
1.840000e-06	5.000237e-06	2.452585e-08	3.609069e+01	1.604436e+03
1.850000e-06	4.965238e-06	2.445467e-08	3.583807e+01	1.601818e+03
1.860000e-06	4.928572e-06	2.442574e-08	3.557342e+01	1.598951e+03
1.870000e-06	4.889865e-06	2.436585e-08	3.529405e+01	1.595961e+03
1.880000e-06	4.849484e-06	2.423759e-08	3.500259e+01	1.592954e+03
1.890000e-06	4.807364e-06	2.428231e-08	3.469857e+01	1.589981e+03
1.900000e-06	4.763477e-06	2.419111e-08	3.438180e+01	1.587026e+03
1.910000e-06	4.717926e-06	2.412342e-08	3.405303e+01	1.584006e+03
1.920000e-06	4.670539e-06	2.417426e-08	3.371099e+01	1.580805e+03
1.930000e-06	4.621553e-06	2.405808e-08	3.335742e+01	1.577306e+03
1.940000e-06	4.570796e-06	2.400449e-08	3.299107e+01	1.573433e+03
1.950000e-06	4.517996e-06	2.393942e-08	3.260997e+01	1.569171e+03
1.960000e-06	4.463264e-06	2.386677e-08	3.221493e+01	1.564571e+03
1.970000e-06	4.406803e-06	2.385181e-08	3.180740e+01	1.559733e+03
1.980000e-06	4.348810e-06	2.373284e-08	3.138882e+01	1.554774e+03
1.990000e-06	4.289421e-06	2.366648e-08	3.096017e+01	1.549790e+03
2.000000e-06	4.228683e-06	2.358936e-08	3.052177e+01	1.544825e+03
2.010000e-06	4.166261e-06	2.350725e-08	3.007122e+01	1.539858e+03
2.020000e-06	4.102047e-06	2.343965e-08	2.960774e+01	1.534810e+03
2.030000e-06	4.036404e-06	2.332950e-08	2.913394e+01	1.529572e+03
2.040000e-06	3.969409e-06	2.328997e-08	2.865038e+01	1.524038e+03
2.050000e-06	3.901082e-06	2.319000e-08	2.815721e+01	1.518139e+03
2.060000e-06	3.831283e-06	2.307837e-08	2.765342e+01	1.511870e+03
2.070000e-06	3.759948e-06	2.299558e-08	2.713854e+01	1.505285e+03
2.080000e-06	3.687331e-06	2.288774e-08	2.661440e+01	1.498483e+03
2.090000e-06	3.613441e-06	2.279611e-08	2.608108e+01	1.491571e+03
2.100000e-06	3.538229e-06	2.267233e-08	2.553821e+01	1.484631e+03
2.110000e-06	3.461577e-06	2.258212e-08	2.498496e+01	1.477687e+03
2.120000e-06	3.383394e-06	2.247954e-08	2.442065e+01	1.470696e+03
2.130000e-06	3.303896e-06	2.235299e-08	2.384685e+01	1.463557e+03
2.140000e-06	3.223275e-06	2.224010e-08	2.326494e+01	1.456144e+03
2.150000e-06	3.141574e-06	2.212255e-08	2.267524e+01	1.448342e+03
2.160000e-06	3.058794e-06	2.200840e-08	2.207775e+01	1.440083e+03
2.170000e-06	2.975023e-06	2.186337e-08	2.147311e+01	1.431370e+03
2.180000e-06	2.890230e-06	2.173340e-08	2.086109e+01	1.422275e+03
2.190000e-06	2.804193e-06	2.160428e-08	2.024009e+01	1.412911e+03
2.200000e-06	2.716932e-06	2.145856e-08	1.961026e+01	1.403398e+03
2.210000e-06	2.628709e-06	2.131293e-08	1.897348e+01	1.393814e+03
2.220000e-06	2.539643e-06	2.116620e-08	1.833062e+01	1.384168e+03
2.230000e-06	2.449693e-06	2.102419e-08	1.768138e+01	1.374387e+03
2.240000e-06	2.358970e-06	2.086385e-08	1.702656e+01	1.364332e+03
2.250000e-06	2.267528e-06	2.069763e-08	1.636656e+01	1.353834e+03
2.260000e-06	2.175372e-06	2.052788e-08	1.570139e+01	1.342747e+03
2.270000e-06	2.082494e-06	2.035176e-08	1.503102e+01	1.330988e+03
2.280000e-06	1.988717e-06	2.016642e-08	1.435415e+01	1.318564e+03
2.290000e-06	1.893964e-06	1.997349e-08	1.367024e+01	1.305569e+03
2.300000e-06	1.798401e-06	1.978082e-08	1.298049e+01	1.292150e+03
2.310000e-06	1.702271e-06	1.958075e-08	1.228664e+01	1.278457e+03
2.320000e-06	1.605680e-06	1.936955e-08	1.158947e+01	1.264587e+03
2.330000e-06	1.508617e-06	1.914967e-08	1.088889e+01	1.250540e+03
2.340000e-06	1.411087e-06	1.892608e-08	1.018494e+01	1.236206e+03
2.350000e-06	1.313063e-06	1.869142e-08	9.477424e+00	1.221385e+03
2.360000e-06	1.214592e-06	1.844347e-08	8.766680e+00	1.205835e+03
2.370000e-06	1.115800e-06	1.818532e-08	8.053616e+00	1.189338e+03
2.380000e-06	1.016700e-06	1.792061e-08	7.338332e+00	1.171761e+03
2.390000e-06	9.173029e-07	1.764702e-08	6.620905e+00	1.153087e+03
2.400000e-06	8.176610e-07	1.735854e-08	5.901710e+00	1.133410e+03
2.410000e-06	7.177813e-07	1.705768e-08	5.180798e+00	1.112892e+03
2.420000e-06	6.176573e-07	1.674259e-08	4.458124e+00	1.091686e+03
2.430000e-06	5.173572e-07	1.640936e-08	3.734178e+00	1.069855e+03
2.440000e-06	4.169454e-07	1.605656e-08	3.009427e+00	1.047311e+03
2.450000e-06	3.163905e-07	1.568514e-08	2.283642e+00	1.023786e+03
2.460000e-06	2.156877e-07	1.529188e-08	1.556790e+00	9.988713e+02
2.470000e-06	1.148752e-07	1.487407e-08	8.291459e-01	9.720839e+02
2.480000e-06	1.398076e-08	1.442806e-08	1.009103e-01	9.429744e+02
2.490000e-06	-8.694864e-08	1.395161e-08	-6.275775e-01	9.112187e+02
2.500000e-06	-1.878347e-07	1.344039e-08	-1.355752e+00	8.766703e+02
2.510000e-06	-2.886437e-07	1.288959e-08	-2.083371e+00	8.393441e+02
2.520000e-06	-3.893717e-07	1.229636e-08	-2.810405e+00	7.993234e+02
2.530000e-06	-4.900108e-07	1.165214e-08	-3.536798e+00	7.566043e+02
2.540000e-06	-5.904967e-07	1.094982e-08	-4.262084e+00	7.109157e+02
2.550000e-06	-6.907675e-07	1.017888e-08	-4.985818e+00	6.615645e+02
2.560000e-06	-7.907976e-07	9.326370e-09	-5.707815e+00	6.073606e+02
2.570000e-06	-8.905561e-07	8.378869e-09	-6.427852e+00	5.466636e+02
2.580000e-06	-9.899721e-07	7.320281e-09	-7.145416e+00	4.775663e+02
2.590000e-06	-1.089005e-06	6.127026e-09	-7.860212e+00	3.982000e+02
2.600000e-06	-1.187712e-06	4.773229e-09	-8.572659e+00	3.071121e+02
2.610000e-06	-1.286063e-06	3.239666e-09	-9.282537e+00	2.036448e+02
2.620000e-06	-1.383998e-06	1.514892e-09	-9.989413e+00	8.823411e+01
2.630000e-06	-1.481485e-06	-3.917312e-10	-1.069305e+01	-3.744412e+01
2.640000e-06	-1.578436e-06	-2.442426e-09	-1.139283e+01	-1.705226e+02
2.650000e-06	-1.674822e-06	-4.569832e-09	-1.208852e+01	-3.071942e+02
2.660000e-06	-1.770716e-06	-6.689501e-09	-1.278067e+01	-4.431295e+02
2.670000e-06	-1.866096e-06	-8.717099e-09	-1.346910e+01	-5.739907e+02
2.680000e-06	-1.960732e-06	-1.058367e-08	-1.415216e+01	-6.959495e+02
2.690000e-06	-2.054413e-06	-1.224983e-08	-1.482833e+01	-8.061177e+02
2.700000e-06	-2.147135e-06	-1.370351e-08	-1.549758e+01	-9.028150e+02
2.710000e-06	-2.238998e-06	-1.495320e-08	-1.616063e+01	-9.856359e+02
2.720000e-06	-2.330138e-06	-1.601958e-08	-1.681846e+01	-1.055315e+03
2.730000e-06	-2.420554e-06	-1.692899e-08	-1.747106e+01	-1.113437e+03
2.740000e-06	-2.510082e-06	-1.770461e-08	-1.811726e+01	-1.162051e+03
2.750000e-06	-2.598699e-06	-1.836800e-08	-1.875688e+01	-1.203284e+03
2.760000e-06	-2.686551e-06	-1.893853e-08	-1.939098e+01	-1.239017e+03
2.770000e-06	-2.773610e-06	-1.943208e-08	-2.001935e+01	-1.270680e+03
2.780000e-06	-2.859615e-06	-1.986430e-08	-2.064011e+01	-1.299190e+03
2.790000e-06	-2.944387e-06	-2.024619e-08	-2.125198e+01	-1.325009e+03
2.800000e-06	-3.028001e-06	-2.058562e-08	-2.185549e+01	-1.348295e+03
2.810000e-06	-3.110613e-06	-2.088977e-08	-2.245177e+01	-1.369079e+03
2.820000e-06	-3.192256e-06	-2.116383e-08	-2.304105e+01	-1.387424e+03
2.830000e-06	-3.272895e-06	-2.141262e-08	-2.362309e+01	-1.403529e+03
2.840000e-06	-3.352399e-06	-2.164278e-08	-2.419693e+01	-1.417745e+03
2.850000e-06	-3.430512e-06	-2.185821e-08	-2.476073e+01	-1.430536e+03
2.860000e-06	-3.507194e-06	-2.205775e-08	-2.531421e+01	-1.442382e+03
2.870000e-06	-3.582507e-06	-2.223983e-08	-2.585781e+01	-1.453678e+03
2.880000e-06	-3.656426e-06	-2.240794e-08	-2.639133e+01	-1.464664e+03
2.890000e-06	-3.729069e-06	-2.256551e-08	-2.691566e+01	-1.475390e+03
2.900000e-06	-3.800469e-06	-2.271182e-08	-2.743101e+01	-1.485744e+03
2.910000e-06	-3.870367e-06	-2.284676e-08	-2.793552e+01	-1.495523e+03
2.920000e-06	-3.938703e-06	-2.297405e-08	-2.842875e+01	-1.504516e+03
2.930000e-06	-4.005698e-06	-2.309510e-08	-2.891231e+01	-1.512592e+03
2.940000e-06	-4.071319e-06	-2.320851e-08	-2.938595e+01	-1.519749e+03
