# Temperatura_=_40.34
# Concentracion g/m^3_=_41000.0
# C_Vs_to_Am_M_A/Vsm_=_65563218390.804596
# pendiente_HvsI_1/m_=_3716.3
# ordenada_HvsI_A/m_=_1297.0
# frecuencia_Hz_=_301638.524278619

Tiempo_(s)	Campo_(V.s)	Magnetizacion_(V.s)	Campo_(kA/m)	Magnetizacion_(A/m)
0.000000e+00	-5.319653e-06	-2.395076e-08	-3.833840e+01	-1.566427e+03
1.000000e-08	-5.317696e-06	-2.394815e-08	-3.832429e+01	-1.566048e+03
2.000000e-08	-5.313829e-06	-2.394207e-08	-3.829642e+01	-1.565740e+03
3.000000e-08	-5.308305e-06	-2.393581e-08	-3.825661e+01	-1.565500e+03
4.000000e-08	-5.301196e-06	-2.392764e-08	-3.820538e+01	-1.565268e+03
5.000000e-08	-5.292421e-06	-2.391446e-08	-3.814214e+01	-1.564943e+03
6.000000e-08	-5.281684e-06	-2.389811e-08	-3.806476e+01	-1.564417e+03
7.000000e-08	-5.268966e-06	-2.387947e-08	-3.797310e+01	-1.563606e+03
8.000000e-08	-5.254314e-06	-2.387131e-08	-3.786751e+01	-1.562485e+03
9.000000e-08	-5.237413e-06	-2.388803e-08	-3.774570e+01	-1.561093e+03
1.000000e-07	-5.218261e-06	-2.387443e-08	-3.760767e+01	-1.559526e+03
1.100000e-07	-5.197208e-06	-2.383516e-08	-3.745594e+01	-1.557911e+03
1.200000e-07	-5.174462e-06	-2.380104e-08	-3.729201e+01	-1.556364e+03
1.300000e-07	-5.150312e-06	-2.371636e-08	-3.711797e+01	-1.554957e+03
1.400000e-07	-5.124722e-06	-2.369159e-08	-3.693354e+01	-1.553694e+03
1.500000e-07	-5.097363e-06	-2.372811e-08	-3.673637e+01	-1.552505e+03
1.600000e-07	-5.068408e-06	-2.366752e-08	-3.652769e+01	-1.551266e+03
1.700000e-07	-5.038074e-06	-2.369537e-08	-3.630908e+01	-1.549832e+03
1.800000e-07	-5.005869e-06	-2.371359e-08	-3.607698e+01	-1.548077e+03
1.900000e-07	-4.971510e-06	-2.355891e-08	-3.582935e+01	-1.545930e+03
2.000000e-07	-4.935531e-06	-2.349390e-08	-3.557005e+01	-1.543394e+03
2.100000e-07	-4.897987e-06	-2.345545e-08	-3.529948e+01	-1.540548e+03
2.200000e-07	-4.858730e-06	-2.339410e-08	-3.501655e+01	-1.537514e+03
2.300000e-07	-4.817693e-06	-2.342870e-08	-3.472080e+01	-1.534431e+03
2.400000e-07	-4.774616e-06	-2.340097e-08	-3.441035e+01	-1.531408e+03
2.500000e-07	-4.729683e-06	-2.331686e-08	-3.408652e+01	-1.528494e+03
2.600000e-07	-4.682978e-06	-2.326502e-08	-3.374992e+01	-1.525664e+03
2.700000e-07	-4.634380e-06	-2.320310e-08	-3.339968e+01	-1.522830e+03
2.800000e-07	-4.583771e-06	-2.319097e-08	-3.303494e+01	-1.519867e+03
2.900000e-07	-4.531151e-06	-2.315407e-08	-3.265571e+01	-1.516650e+03
3.000000e-07	-4.476827e-06	-2.304765e-08	-3.226420e+01	-1.513091e+03
3.100000e-07	-4.420947e-06	-2.298413e-08	-3.186148e+01	-1.509165e+03
3.200000e-07	-4.363313e-06	-2.296288e-08	-3.144612e+01	-1.504917e+03
3.300000e-07	-4.303938e-06	-2.289010e-08	-3.101820e+01	-1.500440e+03
3.400000e-07	-4.243122e-06	-2.279767e-08	-3.057991e+01	-1.495850e+03
3.500000e-07	-4.180899e-06	-2.275569e-08	-3.013147e+01	-1.491248e+03
3.600000e-07	-4.117245e-06	-2.267904e-08	-2.967272e+01	-1.486686e+03
3.700000e-07	-4.052164e-06	-2.258157e-08	-2.920368e+01	-1.482153e+03
3.800000e-07	-3.985473e-06	-2.253716e-08	-2.872305e+01	-1.477577e+03
3.900000e-07	-3.917164e-06	-2.247164e-08	-2.823075e+01	-1.472848e+03
4.000000e-07	-3.847564e-06	-2.236789e-08	-2.772915e+01	-1.467852e+03
4.100000e-07	-3.776840e-06	-2.226909e-08	-2.721945e+01	-1.462508e+03
4.200000e-07	-3.704943e-06	-2.218385e-08	-2.670129e+01	-1.456789e+03
4.300000e-07	-3.631628e-06	-2.210551e-08	-2.617291e+01	-1.450730e+03
4.400000e-07	-3.556603e-06	-2.202653e-08	-2.563221e+01	-1.444415e+03
4.500000e-07	-3.480085e-06	-2.194277e-08	-2.508075e+01	-1.437951e+03
4.600000e-07	-3.402318e-06	-2.183419e-08	-2.452029e+01	-1.431427e+03
4.700000e-07	-3.323204e-06	-2.170945e-08	-2.395012e+01	-1.424886e+03
4.800000e-07	-3.242742e-06	-2.159618e-08	-2.337023e+01	-1.418311e+03
4.900000e-07	-3.161041e-06	-2.149902e-08	-2.278142e+01	-1.411623e+03
5.000000e-07	-3.078267e-06	-2.139994e-08	-2.218487e+01	-1.404709e+03
5.100000e-07	-2.994586e-06	-2.128556e-08	-2.158179e+01	-1.397450e+03
5.200000e-07	-2.910078e-06	-2.116817e-08	-2.097274e+01	-1.389764e+03
5.300000e-07	-2.824685e-06	-2.104250e-08	-2.035732e+01	-1.381624e+03
5.400000e-07	-2.738341e-06	-2.090701e-08	-1.973505e+01	-1.373066e+03
5.500000e-07	-2.651042e-06	-2.078196e-08	-1.910589e+01	-1.364179e+03
5.600000e-07	-2.562769e-06	-2.065775e-08	-1.846971e+01	-1.355067e+03
5.700000e-07	-2.473492e-06	-2.051673e-08	-1.782630e+01	-1.345814e+03
5.800000e-07	-2.383101e-06	-2.035978e-08	-1.717485e+01	-1.336453e+03
5.900000e-07	-2.291693e-06	-2.019954e-08	-1.651608e+01	-1.326946e+03
6.000000e-07	-2.199513e-06	-2.004038e-08	-1.585175e+01	-1.317190e+03
6.100000e-07	-2.106630e-06	-1.988306e-08	-1.518235e+01	-1.307046e+03
6.200000e-07	-2.013017e-06	-1.972398e-08	-1.450769e+01	-1.296375e+03
6.300000e-07	-1.918682e-06	-1.955303e-08	-1.382782e+01	-1.285081e+03
6.400000e-07	-1.823686e-06	-1.937111e-08	-1.314319e+01	-1.273140e+03
6.500000e-07	-1.728084e-06	-1.918016e-08	-1.245419e+01	-1.260601e+03
6.600000e-07	-1.631906e-06	-1.898334e-08	-1.176104e+01	-1.247572e+03
6.700000e-07	-1.535130e-06	-1.878377e-08	-1.106358e+01	-1.234180e+03
6.800000e-07	-1.437725e-06	-1.857881e-08	-1.036159e+01	-1.220522e+03
6.900000e-07	-1.339711e-06	-1.836440e-08	-9.655208e+00	-1.206623e+03
7.000000e-07	-1.241103e-06	-1.814030e-08	-8.944548e+00	-1.192419e+03
7.100000e-07	-1.141984e-06	-1.790824e-08	-8.230203e+00	-1.177759e+03
7.200000e-07	-1.042429e-06	-1.766852e-08	-7.512717e+00	-1.162444e+03
7.300000e-07	-9.425396e-07	-1.741961e-08	-6.792822e+00	-1.146273e+03
7.400000e-07	-8.424176e-07	-1.715870e-08	-6.071249e+00	-1.129100e+03
7.500000e-07	-7.420758e-07	-1.688801e-08	-5.348093e+00	-1.110867e+03
7.600000e-07	-6.415660e-07	-1.660551e-08	-4.623725e+00	-1.091612e+03
7.700000e-07	-5.409317e-07	-1.630587e-08	-3.898460e+00	-1.071446e+03
7.800000e-07	-4.401507e-07	-1.598957e-08	-3.172137e+00	-1.050495e+03
7.900000e-07	-3.392004e-07	-1.565629e-08	-2.444595e+00	-1.028835e+03
8.000000e-07	-2.381146e-07	-1.530558e-08	-1.716077e+00	-1.006432e+03
8.100000e-07	-1.368993e-07	-1.493973e-08	-9.866245e-01	-9.831131e+02
8.200000e-07	-3.558122e-08	-1.455697e-08	-2.564316e-01	-9.585762e+02
8.300000e-07	6.574129e-08	-1.415319e-08	4.737932e-01	-9.324395e+02
8.400000e-07	1.670167e-07	-1.372257e-08	1.203678e+00	-9.043194e+02
8.500000e-07	2.682630e-07	-1.325830e-08	1.933354e+00	-8.739102e+02
8.600000e-07	3.694701e-07	-1.276123e-08	2.662747e+00	-8.410385e+02
8.700000e-07	4.705228e-07	-1.223136e-08	3.391027e+00	-8.056683e+02
8.800000e-07	5.713954e-07	-1.166576e-08	4.118010e+00	-7.678436e+02
8.900000e-07	6.721494e-07	-1.106005e-08	4.844137e+00	-7.275768e+02
9.000000e-07	7.727051e-07	-1.040595e-08	5.568836e+00	-6.847053e+02
9.100000e-07	8.730199e-07	-9.693306e-09	6.291798e+00	-6.387557e+02
9.200000e-07	9.731268e-07	-8.911029e-09	7.013262e+00	-5.888605e+02
9.300000e-07	1.072997e-06	-8.050678e-09	7.733021e+00	-5.337620e+02
9.400000e-07	1.172536e-06	-7.095787e-09	8.450391e+00	-4.719268e+02
9.500000e-07	1.271632e-06	-6.025006e-09	9.164569e+00	-4.017633e+02
9.600000e-07	1.370120e-06	-4.818717e-09	9.874367e+00	-3.219136e+02
9.700000e-07	1.467918e-06	-3.459369e-09	1.057919e+01	-2.315652e+02
9.800000e-07	1.565055e-06	-1.936463e-09	1.127925e+01	-1.307204e+02
9.900000e-07	1.661490e-06	-2.538938e-10	1.197425e+01	-2.036184e+01
1.000000e-06	1.757277e-06	1.561235e-09	1.266459e+01	9.752946e+01
1.010000e-06	1.852441e-06	3.459348e-09	1.335042e+01	2.201173e+02
1.020000e-06	1.946954e-06	5.374205e-09	1.403157e+01	3.439985e+02
1.030000e-06	2.040837e-06	7.237923e-09	1.470818e+01	4.655889e+02
1.040000e-06	2.133987e-06	8.993127e-09	1.537951e+01	5.815376e+02
1.050000e-06	2.226392e-06	1.060251e-08	1.604546e+01	6.890986e+02
1.060000e-06	2.318173e-06	1.204762e-08	1.670693e+01	7.863935e+02
1.070000e-06	2.409247e-06	1.332693e-08	1.736329e+01	8.725268e+02
1.080000e-06	2.499241e-06	1.444929e-08	1.801187e+01	9.475438e+02
1.090000e-06	2.588010e-06	1.542898e-08	1.865162e+01	1.012252e+03
1.100000e-06	2.675838e-06	1.628514e-08	1.928459e+01	1.067957e+03
1.110000e-06	2.762911e-06	1.703204e-08	1.991212e+01	1.116165e+03
1.120000e-06	2.849146e-06	1.768309e-08	2.053361e+01	1.158323e+03
1.130000e-06	2.934404e-06	1.825177e-08	2.114806e+01	1.195631e+03
1.140000e-06	3.018709e-06	1.875104e-08	2.175564e+01	1.228959e+03
1.150000e-06	3.102138e-06	1.919105e-08	2.235691e+01	1.258853e+03
1.160000e-06	3.184520e-06	1.958291e-08	2.295063e+01	1.285624e+03
1.170000e-06	3.265607e-06	1.993447e-08	2.353502e+01	1.309462e+03
1.180000e-06	3.345466e-06	2.024827e-08	2.411056e+01	1.330552e+03
1.190000e-06	3.424136e-06	2.052888e-08	2.467753e+01	1.349155e+03
1.200000e-06	3.501562e-06	2.078283e-08	2.523553e+01	1.365626e+03
1.210000e-06	3.577857e-06	2.101529e-08	2.578539e+01	1.380395e+03
1.220000e-06	3.652783e-06	2.122898e-08	2.632537e+01	1.393899e+03
1.230000e-06	3.726024e-06	2.142679e-08	2.685321e+01	1.406510e+03
1.240000e-06	3.797761e-06	2.161050e-08	2.737022e+01	1.418480e+03
1.250000e-06	3.868179e-06	2.178029e-08	2.787772e+01	1.429909e+03
1.260000e-06	3.937284e-06	2.193739e-08	2.837576e+01	1.440765e+03
1.270000e-06	4.005168e-06	2.208361e-08	2.886499e+01	1.450932e+03
1.280000e-06	4.071595e-06	2.221935e-08	2.934372e+01	1.460276e+03
1.290000e-06	4.136310e-06	2.234616e-08	2.981012e+01	1.468710e+03
1.300000e-06	4.199530e-06	2.246319e-08	3.026574e+01	1.476237e+03
1.310000e-06	4.261365e-06	2.257030e-08	3.071138e+01	1.482961e+03
1.320000e-06	4.321859e-06	2.267002e-08	3.114736e+01	1.489066e+03
1.330000e-06	4.380961e-06	2.276149e-08	3.157330e+01	1.494768e+03
1.340000e-06	4.438333e-06	2.284550e-08	3.198678e+01	1.500261e+03
1.350000e-06	4.493918e-06	2.292537e-08	3.238737e+01	1.505670e+03
1.360000e-06	4.547893e-06	2.300344e-08	3.277637e+01	1.511028e+03
1.370000e-06	4.600205e-06	2.307894e-08	3.315338e+01	1.516279e+03
1.380000e-06	4.650515e-06	2.314973e-08	3.351596e+01	1.521310e+03
1.390000e-06	4.698829e-06	2.321652e-08	3.386416e+01	1.525995e+03
1.400000e-06	4.745489e-06	2.327907e-08	3.420043e+01	1.530243e+03
1.410000e-06	4.790602e-06	2.333885e-08	3.452556e+01	1.534025e+03
1.420000e-06	4.834166e-06	2.339554e-08	3.483953e+01	1.537389e+03
1.430000e-06	4.875884e-06	2.344711e-08	3.514018e+01	1.540441e+03
1.440000e-06	4.915720e-06	2.349371e-08	3.542728e+01	1.543311e+03
1.450000e-06	4.953958e-06	2.353727e-08	3.570286e+01	1.546117e+03
1.460000e-06	4.990642e-06	2.357889e-08	3.596724e+01	1.548922e+03
1.470000e-06	5.025613e-06	2.361825e-08	3.621927e+01	1.551725e+03
1.480000e-06	5.058615e-06	2.365488e-08	3.645711e+01	1.554459e+03
1.490000e-06	5.089804e-06	2.368843e-08	3.668189e+01	1.557021e+03
1.500000e-06	5.119376e-06	2.371865e-08	3.689502e+01	1.559301e+03
1.510000e-06	5.147344e-06	2.374569e-08	3.709657e+01	1.561228e+03
1.520000e-06	5.173394e-06	2.377041e-08	3.728432e+01	1.562786e+03
1.530000e-06	5.197337e-06	2.379236e-08	3.745688e+01	1.564026e+03
1.540000e-06	5.219430e-06	2.381130e-08	3.761610e+01	1.565047e+03
1.550000e-06	5.239859e-06	2.382965e-08	3.776332e+01	1.565971e+03
1.560000e-06	5.258573e-06	2.384798e-08	3.789820e+01	1.566898e+03
1.570000e-06	5.275254e-06	2.386436e-08	3.801841e+01	1.567886e+03
1.580000e-06	5.289869e-06	2.387799e-08	3.812375e+01	1.568926e+03
1.590000e-06	5.302531e-06	2.389033e-08	3.821500e+01	1.569952e+03
1.600000e-06	5.313037e-06	2.390102e-08	3.829071e+01	1.570862e+03
1.610000e-06	5.321414e-06	2.390854e-08	3.835109e+01	1.571554e+03
1.620000e-06	5.327951e-06	2.391362e-08	3.839820e+01	1.571956e+03
1.630000e-06	5.332749e-06	2.391730e-08	3.843278e+01	1.572053e+03
1.640000e-06	5.335667e-06	2.392009e-08	3.845381e+01	1.571887e+03
1.650000e-06	5.336526e-06	2.392179e-08	3.846000e+01	1.571552e+03
1.660000e-06	5.335507e-06	2.392046e-08	3.845265e+01	1.571156e+03
1.670000e-06	5.332885e-06	2.391820e-08	3.843376e+01	1.570790e+03
1.680000e-06	5.328692e-06	2.391728e-08	3.840354e+01	1.570500e+03
1.690000e-06	5.322646e-06	2.391249e-08	3.835996e+01	1.570268e+03
1.700000e-06	5.314721e-06	2.390371e-08	3.830286e+01	1.570023e+03
1.710000e-06	5.305208e-06	2.389613e-08	3.823429e+01	1.569656e+03
1.720000e-06	5.294088e-06	2.389131e-08	3.815415e+01	1.569063e+03
1.730000e-06	5.281167e-06	2.387857e-08	3.806103e+01	1.568174e+03
1.740000e-06	5.266231e-06	2.382358e-08	3.795339e+01	1.566977e+03
1.750000e-06	5.249049e-06	2.379060e-08	3.782956e+01	1.565529e+03
1.760000e-06	5.229378e-06	2.379344e-08	3.768779e+01	1.563937e+03
1.770000e-06	5.207260e-06	2.379000e-08	3.752839e+01	1.562328e+03
1.780000e-06	5.183465e-06	2.383187e-08	3.735690e+01	1.560810e+03
1.790000e-06	5.158849e-06	2.378282e-08	3.717949e+01	1.559441e+03
1.800000e-06	5.133110e-06	2.371130e-08	3.699399e+01	1.558204e+03
1.810000e-06	5.105446e-06	2.374521e-08	3.679462e+01	1.557015e+03
1.820000e-06	5.075877e-06	2.365652e-08	3.658152e+01	1.555740e+03
1.830000e-06	5.044538e-06	2.360718e-08	3.635566e+01	1.554234e+03
1.840000e-06	5.011294e-06	2.369529e-08	3.611607e+01	1.552383e+03
1.850000e-06	4.976413e-06	2.365698e-08	3.586469e+01	1.550135e+03
1.860000e-06	4.939846e-06	2.365517e-08	3.560116e+01	1.547511e+03
1.870000e-06	4.901258e-06	2.365216e-08	3.532305e+01	1.544603e+03
1.880000e-06	4.860998e-06	2.348477e-08	3.503290e+01	1.541544e+03
1.890000e-06	4.819054e-06	2.342974e-08	3.473061e+01	1.538466e+03
1.900000e-06	4.775359e-06	2.341164e-08	3.441570e+01	1.535467e+03
1.910000e-06	4.729986e-06	2.339409e-08	3.408870e+01	1.532578e+03
1.920000e-06	4.682686e-06	2.338567e-08	3.374782e+01	1.529756e+03
1.930000e-06	4.633739e-06	2.324719e-08	3.339506e+01	1.526901e+03
1.940000e-06	4.583084e-06	2.323264e-08	3.302999e+01	1.523884e+03
1.950000e-06	4.530398e-06	2.323538e-08	3.265028e+01	1.520586e+03
1.960000e-06	4.475785e-06	2.312011e-08	3.225669e+01	1.516934e+03
1.970000e-06	4.419433e-06	2.306616e-08	3.185057e+01	1.512920e+03
1.980000e-06	4.361550e-06	2.301951e-08	3.143341e+01	1.508603e+03
1.990000e-06	4.302240e-06	2.296200e-08	3.100597e+01	1.504085e+03
2.000000e-06	4.241496e-06	2.287125e-08	3.056819e+01	1.499483e+03
2.010000e-06	4.179093e-06	2.281189e-08	3.011846e+01	1.494888e+03
2.020000e-06	4.114985e-06	2.277501e-08	2.965643e+01	1.490336e+03
2.030000e-06	4.049494e-06	2.264701e-08	2.918444e+01	1.485799e+03
2.040000e-06	3.982679e-06	2.257896e-08	2.870291e+01	1.481194e+03
2.050000e-06	3.914505e-06	2.253650e-08	2.821159e+01	1.476407e+03
2.060000e-06	3.844852e-06	2.246678e-08	2.770960e+01	1.471330e+03
2.070000e-06	3.773587e-06	2.238739e-08	2.719600e+01	1.465891e+03
2.080000e-06	3.700974e-06	2.227552e-08	2.667268e+01	1.460079e+03
2.090000e-06	3.627097e-06	2.218619e-08	2.614025e+01	1.453946e+03
2.100000e-06	3.551898e-06	2.207636e-08	2.559830e+01	1.447583e+03
2.110000e-06	3.475319e-06	2.198978e-08	2.504640e+01	1.441095e+03
2.120000e-06	3.397260e-06	2.191822e-08	2.448383e+01	1.434564e+03
2.130000e-06	3.317871e-06	2.181435e-08	2.391168e+01	1.428018e+03
2.140000e-06	3.237284e-06	2.171043e-08	2.333090e+01	1.421422e+03
2.150000e-06	3.155565e-06	2.160040e-08	2.274195e+01	1.414688e+03
2.160000e-06	3.072761e-06	2.149310e-08	2.214519e+01	1.407696e+03
2.170000e-06	2.988954e-06	2.136668e-08	2.154120e+01	1.400336e+03
2.180000e-06	2.904110e-06	2.125057e-08	2.092974e+01	1.392535e+03
2.190000e-06	2.818058e-06	2.114274e-08	2.030956e+01	1.384283e+03
2.200000e-06	2.730829e-06	2.100830e-08	1.968091e+01	1.375632e+03
2.210000e-06	2.642645e-06	2.086697e-08	1.904537e+01	1.366678e+03
2.220000e-06	2.553604e-06	2.072975e-08	1.840366e+01	1.357523e+03
2.230000e-06	2.463637e-06	2.060176e-08	1.775528e+01	1.348242e+03
2.240000e-06	2.372870e-06	2.046540e-08	1.710112e+01	1.338849e+03
2.250000e-06	2.281401e-06	2.032316e-08	1.644191e+01	1.329290e+03
2.260000e-06	2.189220e-06	2.017220e-08	1.577756e+01	1.319450e+03
2.270000e-06	2.096189e-06	2.000386e-08	1.510710e+01	1.309184e+03
2.280000e-06	2.002189e-06	1.982642e-08	1.442965e+01	1.298363e+03
2.290000e-06	1.907315e-06	1.964782e-08	1.374590e+01	1.286906e+03
2.300000e-06	1.811696e-06	1.947605e-08	1.305677e+01	1.274806e+03
2.310000e-06	1.715533e-06	1.930051e-08	1.236374e+01	1.262132e+03
2.320000e-06	1.618939e-06	1.910825e-08	1.166759e+01	1.249000e+03
2.330000e-06	1.521842e-06	1.890260e-08	1.096782e+01	1.235533e+03
2.340000e-06	1.424190e-06	1.869453e-08	1.026405e+01	1.221814e+03
2.350000e-06	1.326054e-06	1.848143e-08	9.556787e+00	1.207848e+03
2.360000e-06	1.227529e-06	1.825564e-08	8.846720e+00	1.193545e+03
2.370000e-06	1.128665e-06	1.801939e-08	8.134216e+00	1.178740e+03
2.380000e-06	1.029524e-06	1.777729e-08	7.419717e+00	1.163227e+03
2.390000e-06	9.301149e-07	1.752626e-08	6.703279e+00	1.146816e+03
2.400000e-06	8.303982e-07	1.725866e-08	5.984626e+00	1.129378e+03
2.410000e-06	7.303856e-07	1.698013e-08	5.263842e+00	1.110880e+03
2.420000e-06	6.301179e-07	1.669382e-08	4.541219e+00	1.091385e+03
2.430000e-06	5.296886e-07	1.639337e-08	3.817432e+00	1.071010e+03
2.440000e-06	4.291354e-07	1.607736e-08	3.092751e+00	1.049877e+03
2.450000e-06	3.284350e-07	1.574771e-08	2.367010e+00	1.028038e+03
2.460000e-06	2.276182e-07	1.540024e-08	1.640430e+00	1.005427e+03
2.470000e-06	1.266944e-07	1.502630e-08	9.130787e-01	9.818347e+02
2.480000e-06	2.567294e-08	1.462778e-08	1.850232e-01	9.569339e+02
2.490000e-06	-7.540500e-08	1.421220e-08	-5.434390e-01	9.303343e+02
2.500000e-06	-1.764611e-07	1.377754e-08	-1.271744e+00	9.016648e+02
2.510000e-06	-2.774228e-07	1.331764e-08	-1.999368e+00	8.706493e+02
2.520000e-06	-3.782669e-07	1.282440e-08	-2.726145e+00	8.371506e+02
2.530000e-06	-4.790132e-07	1.228927e-08	-3.452217e+00	8.011603e+02
2.540000e-06	-5.796225e-07	1.171111e-08	-4.177302e+00	7.627270e+02
2.550000e-06	-6.800219e-07	1.108950e-08	-4.900874e+00	7.218331e+02
2.560000e-06	-7.801529e-07	1.042002e-08	-5.622512e+00	6.782497e+02
2.570000e-06	-8.799824e-07	9.693081e-09	-6.341976e+00	6.314100e+02
2.580000e-06	-9.795354e-07	8.896308e-09	-7.059449e+00	5.803442e+02
2.590000e-06	-1.078815e-06	8.017777e-09	-7.774948e+00	5.237108e+02
2.600000e-06	-1.177716e-06	7.041655e-09	-8.487725e+00	4.599377e+02
2.610000e-06	-1.276184e-06	5.949071e-09	-9.197377e+00	3.874626e+02
2.620000e-06	-1.374232e-06	4.719536e-09	-9.904001e+00	3.050353e+02
2.630000e-06	-1.471794e-06	3.333911e-09	-1.060712e+01	2.120249e+02
2.640000e-06	-1.568821e-06	1.784153e-09	-1.130639e+01	1.086684e+02
2.650000e-06	-1.665352e-06	7.927663e-11	-1.200208e+01	-3.797431e+00
2.660000e-06	-1.761465e-06	-1.752781e-09	-1.269477e+01	-1.231580e+02
2.670000e-06	-1.857036e-06	-3.662798e-09	-1.338354e+01	-2.464036e+02
2.680000e-06	-1.951880e-06	-5.583009e-09	-1.406707e+01	-3.700473e+02
2.690000e-06	-2.045830e-06	-7.442919e-09	-1.474416e+01	-4.905247e+02
2.700000e-06	-2.138843e-06	-9.185953e-09	-1.541450e+01	-6.046048e+02
2.710000e-06	-2.231007e-06	-1.077971e-08	-1.607873e+01	-7.097389e+02
2.720000e-06	-2.322359e-06	-1.221083e-08	-1.673709e+01	-8.042899e+02
2.730000e-06	-2.412938e-06	-1.347755e-08	-1.738989e+01	-8.876075e+02
2.740000e-06	-2.502660e-06	-1.458832e-08	-1.803651e+01	-9.599485e+02
2.750000e-06	-2.591503e-06	-1.555693e-08	-1.867680e+01	-1.022272e+03
2.760000e-06	-2.679593e-06	-1.640010e-08	-1.931165e+01	-1.075961e+03
2.770000e-06	-2.766879e-06	-1.713472e-08	-1.994072e+01	-1.122529e+03
2.780000e-06	-2.853088e-06	-1.777856e-08	-2.056202e+01	-1.163375e+03
2.790000e-06	-2.938070e-06	-1.834515e-08	-2.117448e+01	-1.199622e+03
2.800000e-06	-3.022002e-06	-1.884041e-08	-2.177937e+01	-1.232052e+03
2.810000e-06	-3.104993e-06	-1.927407e-08	-2.237749e+01	-1.261145e+03
2.820000e-06	-3.186945e-06	-1.965692e-08	-2.296811e+01	-1.287168e+03
2.830000e-06	-3.267803e-06	-1.999921e-08	-2.355085e+01	-1.310301e+03
2.840000e-06	-3.347581e-06	-2.031005e-08	-2.412580e+01	-1.330742e+03
2.850000e-06	-3.426122e-06	-2.059308e-08	-2.469184e+01	-1.348776e+03
2.860000e-06	-3.503213e-06	-2.084955e-08	-2.524743e+01	-1.364781e+03
2.870000e-06	-3.578808e-06	-2.108258e-08	-2.579224e+01	-1.379195e+03
2.880000e-06	-3.652971e-06	-2.129692e-08	-2.632673e+01	-1.392446e+03
2.890000e-06	-3.725845e-06	-2.149391e-08	-2.685193e+01	-1.404881e+03
2.900000e-06	-3.797537e-06	-2.167292e-08	-2.736860e+01	-1.416713e+03
2.910000e-06	-3.867789e-06	-2.183780e-08	-2.787491e+01	-1.428007e+03
2.920000e-06	-3.936408e-06	-2.199268e-08	-2.836944e+01	-1.438705e+03
2.930000e-06	-4.003613e-06	-2.213726e-08	-2.885378e+01	-1.448680e+03
2.940000e-06	-4.069483e-06	-2.227245e-08	-2.932850e+01	-1.457802e+03
