# Temperatura_=_73.02
# Concentracion g/m^3_=_41000.0
# C_Vs_to_Am_M_A/Vsm_=_65563218390.804596
# pendiente_HvsI_1/m_=_3716.3
# ordenada_HvsI_A/m_=_1297.0
# frecuencia_Hz_=_301638.50667760166

Tiempo_(s)	Campo_(V.s)	Magnetizacion_(V.s)	Campo_(kA/m)	Magnetizacion_(A/m)
0.000000e+00	-5.321700e-06	-2.386178e-08	-3.833764e+01	-1.560134e+03
1.000000e-08	-5.319512e-06	-2.385863e-08	-3.832188e+01	-1.560008e+03
2.000000e-08	-5.315488e-06	-2.385165e-08	-3.829289e+01	-1.559963e+03
3.000000e-08	-5.309855e-06	-2.384402e-08	-3.825231e+01	-1.559896e+03
4.000000e-08	-5.302635e-06	-2.383602e-08	-3.820029e+01	-1.559672e+03
5.000000e-08	-5.293765e-06	-2.382318e-08	-3.813639e+01	-1.559166e+03
6.000000e-08	-5.282912e-06	-2.380616e-08	-3.805821e+01	-1.558301e+03
7.000000e-08	-5.270069e-06	-2.378204e-08	-3.796569e+01	-1.557068e+03
8.000000e-08	-5.255240e-06	-2.376894e-08	-3.785886e+01	-1.555535e+03
9.000000e-08	-5.238096e-06	-2.379152e-08	-3.773536e+01	-1.553826e+03
1.000000e-07	-5.218789e-06	-2.377208e-08	-3.759627e+01	-1.552082e+03
1.100000e-07	-5.197677e-06	-2.372270e-08	-3.744418e+01	-1.550425e+03
1.200000e-07	-5.174884e-06	-2.369164e-08	-3.727997e+01	-1.548922e+03
1.300000e-07	-5.150643e-06	-2.359971e-08	-3.710534e+01	-1.547565e+03
1.400000e-07	-5.124902e-06	-2.358903e-08	-3.691990e+01	-1.546282e+03
1.500000e-07	-5.097401e-06	-2.364778e-08	-3.672179e+01	-1.544952e+03
1.600000e-07	-5.068343e-06	-2.353495e-08	-3.651245e+01	-1.543447e+03
1.700000e-07	-5.037802e-06	-2.354260e-08	-3.629243e+01	-1.541670e+03
1.800000e-07	-5.005326e-06	-2.358115e-08	-3.605848e+01	-1.539574e+03
1.900000e-07	-4.970814e-06	-2.342602e-08	-3.580985e+01	-1.537181e+03
2.000000e-07	-4.934728e-06	-2.340562e-08	-3.554989e+01	-1.534563e+03
2.100000e-07	-4.897065e-06	-2.339643e-08	-3.527856e+01	-1.531818e+03
2.200000e-07	-4.857680e-06	-2.330526e-08	-3.499483e+01	-1.529035e+03
2.300000e-07	-4.816453e-06	-2.329722e-08	-3.469783e+01	-1.526266e+03
2.400000e-07	-4.773230e-06	-2.325506e-08	-3.438645e+01	-1.523505e+03
2.500000e-07	-4.728235e-06	-2.319513e-08	-3.406230e+01	-1.520692e+03
2.600000e-07	-4.681528e-06	-2.315735e-08	-3.372583e+01	-1.517731e+03
2.700000e-07	-4.632887e-06	-2.307807e-08	-3.337542e+01	-1.514524e+03
2.800000e-07	-4.582099e-06	-2.303191e-08	-3.300954e+01	-1.510997e+03
2.900000e-07	-4.529310e-06	-2.296841e-08	-3.262924e+01	-1.507129e+03
3.000000e-07	-4.474894e-06	-2.290213e-08	-3.223723e+01	-1.502956e+03
3.100000e-07	-4.418937e-06	-2.286053e-08	-3.183412e+01	-1.498559e+03
3.200000e-07	-4.361199e-06	-2.279710e-08	-3.141817e+01	-1.494040e+03
3.300000e-07	-4.301756e-06	-2.272180e-08	-3.098994e+01	-1.489487e+03
3.400000e-07	-4.240828e-06	-2.263548e-08	-3.055102e+01	-1.484945e+03
3.500000e-07	-4.178474e-06	-2.256587e-08	-3.010182e+01	-1.480403e+03
3.600000e-07	-4.114787e-06	-2.249092e-08	-2.964302e+01	-1.475797e+03
3.700000e-07	-4.049658e-06	-2.242300e-08	-2.917382e+01	-1.471027e+03
3.800000e-07	-3.982872e-06	-2.236268e-08	-2.869269e+01	-1.465994e+03
3.900000e-07	-3.914519e-06	-2.226527e-08	-2.820028e+01	-1.460627e+03
4.000000e-07	-3.844852e-06	-2.216556e-08	-2.769840e+01	-1.454909e+03
4.100000e-07	-3.773977e-06	-2.207314e-08	-2.718781e+01	-1.448882e+03
4.200000e-07	-3.701952e-06	-2.198370e-08	-2.666894e+01	-1.442633e+03
4.300000e-07	-3.628532e-06	-2.189417e-08	-2.614002e+01	-1.436266e+03
4.400000e-07	-3.553444e-06	-2.180094e-08	-2.559909e+01	-1.429866e+03
4.500000e-07	-3.476856e-06	-2.170685e-08	-2.504735e+01	-1.423470e+03
4.600000e-07	-3.398938e-06	-2.159533e-08	-2.448602e+01	-1.417051e+03
4.700000e-07	-3.319698e-06	-2.148067e-08	-2.391517e+01	-1.410523e+03
4.800000e-07	-3.239132e-06	-2.137516e-08	-2.333478e+01	-1.403767e+03
4.900000e-07	-3.157327e-06	-2.126785e-08	-2.274545e+01	-1.396662e+03
5.000000e-07	-3.074443e-06	-2.115686e-08	-2.214835e+01	-1.389125e+03
5.100000e-07	-2.990659e-06	-2.103733e-08	-2.154477e+01	-1.381135e+03
5.200000e-07	-2.906048e-06	-2.091321e-08	-2.093523e+01	-1.372737e+03
5.300000e-07	-2.820499e-06	-2.077983e-08	-2.031894e+01	-1.364029e+03
5.400000e-07	-2.733982e-06	-2.064229e-08	-1.969567e+01	-1.355128e+03
5.500000e-07	-2.646592e-06	-2.051219e-08	-1.906611e+01	-1.346124e+03
5.600000e-07	-2.558310e-06	-2.037592e-08	-1.843012e+01	-1.337054e+03
5.700000e-07	-2.468949e-06	-2.022819e-08	-1.778636e+01	-1.327875e+03
5.800000e-07	-2.378422e-06	-2.007017e-08	-1.713420e+01	-1.318477e+03
5.900000e-07	-2.286940e-06	-1.991144e-08	-1.647517e+01	-1.308708e+03
6.000000e-07	-2.194690e-06	-1.975004e-08	-1.581060e+01	-1.298419e+03
6.100000e-07	-2.101726e-06	-1.958515e-08	-1.514088e+01	-1.287505e+03
6.200000e-07	-2.007990e-06	-1.941608e-08	-1.446560e+01	-1.275940e+03
6.300000e-07	-1.913528e-06	-1.923515e-08	-1.378510e+01	-1.263781e+03
6.400000e-07	-1.818495e-06	-1.904387e-08	-1.310048e+01	-1.251148e+03
6.500000e-07	-1.722859e-06	-1.884566e-08	-1.241151e+01	-1.238181e+03
6.600000e-07	-1.626588e-06	-1.864552e-08	-1.171798e+01	-1.224991e+03
6.700000e-07	-1.529688e-06	-1.844112e-08	-1.101991e+01	-1.211612e+03
6.800000e-07	-1.432145e-06	-1.823066e-08	-1.031721e+01	-1.197978e+03
6.900000e-07	-1.333982e-06	-1.801056e-08	-9.610037e+00	-1.183930e+03
7.000000e-07	-1.235259e-06	-1.777909e-08	-8.898835e+00	-1.169252e+03
7.100000e-07	-1.136041e-06	-1.753560e-08	-8.184064e+00	-1.153728e+03
7.200000e-07	-1.036449e-06	-1.728117e-08	-7.466601e+00	-1.137198e+03
7.300000e-07	-9.366262e-07	-1.701891e-08	-6.747475e+00	-1.119603e+03
7.400000e-07	-8.365708e-07	-1.674526e-08	-6.026674e+00	-1.100989e+03
7.500000e-07	-7.362321e-07	-1.646200e-08	-5.303832e+00	-1.081482e+03
7.600000e-07	-6.356872e-07	-1.616342e-08	-4.579504e+00	-1.061228e+03
7.700000e-07	-5.350052e-07	-1.584352e-08	-3.854189e+00	-1.040318e+03
7.800000e-07	-4.341495e-07	-1.550486e-08	-3.127622e+00	-1.018720e+03
7.900000e-07	-3.331468e-07	-1.514647e-08	-2.399997e+00	-9.962458e+02
8.000000e-07	-2.320167e-07	-1.476673e-08	-1.671453e+00	-9.725577e+02
8.100000e-07	-1.307270e-07	-1.436724e-08	-9.417603e-01	-9.472241e+02
8.200000e-07	-2.937537e-08	-1.394751e-08	-2.116208e-01	-9.198054e+02
8.300000e-07	7.201871e-08	-1.349904e-08	5.188243e-01	-8.899450e+02
8.400000e-07	1.734134e-07	-1.301370e-08	1.249274e+00	-8.574333e+02
8.500000e-07	2.746990e-07	-1.248840e-08	1.978938e+00	-8.222177e+02
8.600000e-07	3.758718e-07	-1.192178e-08	2.707789e+00	-7.843432e+02
8.700000e-07	4.769078e-07	-1.130972e-08	3.435654e+00	-7.438301e+02
8.800000e-07	5.778045e-07	-1.064688e-08	4.162516e+00	-7.005149e+02
8.900000e-07	6.785636e-07	-9.922672e-09	4.888386e+00	-6.538961e+02
9.000000e-07	7.791222e-07	-9.123446e-09	5.612813e+00	-6.030366e+02
9.100000e-07	8.794472e-07	-8.236735e-09	6.335556e+00	-5.465625e+02
9.200000e-07	9.795398e-07	-7.247845e-09	7.056626e+00	-4.827859e+02
9.300000e-07	1.079378e-06	-6.136296e-09	7.775865e+00	-4.099460e+02
9.400000e-07	1.178914e-06	-4.877506e-09	8.492922e+00	-3.265352e+02
9.500000e-07	1.278055e-06	-3.451353e-09	9.207137e+00	-2.316534e+02
9.600000e-07	1.376638e-06	-1.846826e-09	9.917326e+00	-1.253160e+02
9.700000e-07	1.474508e-06	-7.027061e-11	1.062239e+01	-8.645955e+00
9.800000e-07	1.571598e-06	1.848715e-09	1.132183e+01	1.160992e+02
9.900000e-07	1.668015e-06	3.855709e-09	1.201641e+01	2.456877e+02
1.000000e-06	1.763852e-06	5.875538e-09	1.270683e+01	3.762422e+02
1.010000e-06	1.859042e-06	7.831339e-09	1.339258e+01	5.036832e+02
1.020000e-06	1.953578e-06	9.658423e-09	1.407362e+01	6.242108e+02
1.030000e-06	2.047430e-06	1.131157e-08	1.474973e+01	7.347392e+02
1.040000e-06	2.140554e-06	1.276941e-08	1.542060e+01	8.332079e+02
1.050000e-06	2.233031e-06	1.403324e-08	1.608680e+01	9.187202e+02
1.060000e-06	2.324895e-06	1.511702e-08	1.674859e+01	9.914956e+02
1.070000e-06	2.416025e-06	1.604171e-08	1.740510e+01	1.052660e+03
1.080000e-06	2.506139e-06	1.683088e-08	1.805428e+01	1.103923e+03
1.090000e-06	2.595033e-06	1.750417e-08	1.869467e+01	1.147227e+03
1.100000e-06	2.682899e-06	1.808351e-08	1.932766e+01	1.184416e+03
1.110000e-06	2.769871e-06	1.858475e-08	1.995421e+01	1.217004e+03
1.120000e-06	2.855955e-06	1.901807e-08	2.057436e+01	1.246066e+03
1.130000e-06	2.941132e-06	1.939974e-08	2.118798e+01	1.272236e+03
1.140000e-06	3.025392e-06	1.974058e-08	2.179499e+01	1.295816e+03
1.150000e-06	3.108805e-06	2.004695e-08	2.239590e+01	1.316921e+03
1.160000e-06	3.191122e-06	2.032286e-08	2.298891e+01	1.335632e+03
1.170000e-06	3.272118e-06	2.057319e-08	2.357241e+01	1.352111e+03
1.180000e-06	3.351955e-06	2.080004e-08	2.414756e+01	1.366643e+03
1.190000e-06	3.430664e-06	2.100702e-08	2.471457e+01	1.379626e+03
1.200000e-06	3.508166e-06	2.119706e-08	2.527290e+01	1.391499e+03
1.210000e-06	3.584430e-06	2.137177e-08	2.582231e+01	1.402658e+03
1.220000e-06	3.659321e-06	2.153684e-08	2.636183e+01	1.413379e+03
1.230000e-06	3.732574e-06	2.169393e-08	2.688954e+01	1.423775e+03
1.240000e-06	3.804256e-06	2.184078e-08	2.740594e+01	1.433804e+03
1.250000e-06	3.874633e-06	2.197638e-08	2.791294e+01	1.443315e+03
1.260000e-06	3.943659e-06	2.209999e-08	2.841020e+01	1.452126e+03
1.270000e-06	4.011440e-06	2.221237e-08	2.889850e+01	1.460098e+03
1.280000e-06	4.077793e-06	2.231790e-08	2.937651e+01	1.467193e+03
1.290000e-06	4.142443e-06	2.241863e-08	2.984225e+01	1.473496e+03
1.300000e-06	4.205615e-06	2.251481e-08	3.029734e+01	1.479194e+03
1.310000e-06	4.267370e-06	2.260456e-08	3.074223e+01	1.484527e+03
1.320000e-06	4.327729e-06	2.268907e-08	3.117705e+01	1.489722e+03
1.330000e-06	4.386656e-06	2.276867e-08	3.160157e+01	1.494937e+03
1.340000e-06	4.443819e-06	2.284423e-08	3.201337e+01	1.500220e+03
1.350000e-06	4.499230e-06	2.291665e-08	3.241255e+01	1.505514e+03
1.360000e-06	4.553151e-06	2.298730e-08	3.280100e+01	1.510682e+03
1.370000e-06	4.605400e-06	2.305501e-08	3.317740e+01	1.515558e+03
1.380000e-06	4.655577e-06	2.311791e-08	3.353888e+01	1.520008e+03
1.390000e-06	4.703784e-06	2.317673e-08	3.388616e+01	1.523968e+03
1.400000e-06	4.750356e-06	2.323317e-08	3.422167e+01	1.527465e+03
1.410000e-06	4.795374e-06	2.328895e-08	3.454598e+01	1.530605e+03
1.420000e-06	4.838874e-06	2.334166e-08	3.485935e+01	1.533539e+03
1.430000e-06	4.880494e-06	2.338980e-08	3.515919e+01	1.536412e+03
1.440000e-06	4.920199e-06	2.343484e-08	3.544522e+01	1.539320e+03
1.450000e-06	4.958295e-06	2.347671e-08	3.571967e+01	1.542282e+03
1.460000e-06	4.994816e-06	2.351491e-08	3.598276e+01	1.545237e+03
1.470000e-06	5.029674e-06	2.354950e-08	3.623388e+01	1.548067e+03
1.480000e-06	5.062581e-06	2.358216e-08	3.647094e+01	1.550638e+03
1.490000e-06	5.093666e-06	2.361369e-08	3.669488e+01	1.552844e+03
1.500000e-06	5.123120e-06	2.364247e-08	3.690707e+01	1.554640e+03
1.510000e-06	5.150939e-06	2.366803e-08	3.710748e+01	1.556063e+03
1.520000e-06	5.176802e-06	2.369051e-08	3.729379e+01	1.557213e+03
1.530000e-06	5.200617e-06	2.370940e-08	3.746536e+01	1.558230e+03
1.540000e-06	5.222650e-06	2.372531e-08	3.762408e+01	1.559246e+03
1.550000e-06	5.242969e-06	2.374158e-08	3.777046e+01	1.560348e+03
1.560000e-06	5.261467e-06	2.375821e-08	3.790372e+01	1.561552e+03
1.570000e-06	5.277912e-06	2.377297e-08	3.802219e+01	1.562800e+03
1.580000e-06	5.292382e-06	2.378543e-08	3.812644e+01	1.563978e+03
1.590000e-06	5.304950e-06	2.379607e-08	3.821697e+01	1.564959e+03
1.600000e-06	5.315425e-06	2.380578e-08	3.829244e+01	1.565636e+03
1.610000e-06	5.323819e-06	2.381320e-08	3.835291e+01	1.565962e+03
1.620000e-06	5.330325e-06	2.381855e-08	3.839978e+01	1.565963e+03
1.630000e-06	5.335021e-06	2.382226e-08	3.843360e+01	1.565730e+03
1.640000e-06	5.337856e-06	2.382359e-08	3.845403e+01	1.565391e+03
1.650000e-06	5.338685e-06	2.382419e-08	3.846000e+01	1.565071e+03
1.660000e-06	5.337619e-06	2.382276e-08	3.845232e+01	1.564853e+03
1.670000e-06	5.334903e-06	2.382086e-08	3.843276e+01	1.564753e+03
1.680000e-06	5.330627e-06	2.381882e-08	3.840195e+01	1.564713e+03
1.690000e-06	5.324550e-06	2.381325e-08	3.835818e+01	1.564619e+03
1.700000e-06	5.316574e-06	2.380524e-08	3.830072e+01	1.564335e+03
1.710000e-06	5.306979e-06	2.379613e-08	3.823159e+01	1.563743e+03
1.720000e-06	5.295770e-06	2.378999e-08	3.815084e+01	1.562783e+03
1.730000e-06	5.282704e-06	2.377992e-08	3.805672e+01	1.561465e+03
1.740000e-06	5.267595e-06	2.371477e-08	3.794787e+01	1.559875e+03
1.750000e-06	5.250215e-06	2.368106e-08	3.782266e+01	1.558143e+03
1.760000e-06	5.230358e-06	2.368749e-08	3.767961e+01	1.556411e+03
1.770000e-06	5.208051e-06	2.367899e-08	3.751891e+01	1.554788e+03
1.780000e-06	5.184076e-06	2.372922e-08	3.734619e+01	1.553324e+03
1.790000e-06	5.159363e-06	2.364616e-08	3.716816e+01	1.551994e+03
1.800000e-06	5.133504e-06	2.354903e-08	3.698187e+01	1.550711e+03
1.810000e-06	5.105660e-06	2.362022e-08	3.678129e+01	1.549348e+03
1.820000e-06	5.075934e-06	2.352018e-08	3.656714e+01	1.547782e+03
1.830000e-06	5.044456e-06	2.347540e-08	3.634037e+01	1.545926e+03
1.840000e-06	5.011037e-06	2.358983e-08	3.609962e+01	1.543751e+03
1.850000e-06	4.976046e-06	2.350023e-08	3.584754e+01	1.541293e+03
1.860000e-06	4.939420e-06	2.347244e-08	3.558369e+01	1.538633e+03
1.870000e-06	4.900734e-06	2.348541e-08	3.530499e+01	1.535870e+03
1.880000e-06	4.860360e-06	2.335896e-08	3.501414e+01	1.533088e+03
1.890000e-06	4.818291e-06	2.334720e-08	3.471107e+01	1.530323e+03
1.900000e-06	4.774518e-06	2.328008e-08	3.439573e+01	1.527555e+03
1.910000e-06	4.729052e-06	2.322756e-08	3.406819e+01	1.524714e+03
1.920000e-06	4.681652e-06	2.326087e-08	3.372672e+01	1.521700e+03
1.930000e-06	4.632628e-06	2.314613e-08	3.337355e+01	1.518417e+03
1.940000e-06	4.581905e-06	2.312141e-08	3.300814e+01	1.514804e+03
1.950000e-06	4.529186e-06	2.306967e-08	3.262835e+01	1.510853e+03
1.960000e-06	4.474520e-06	2.296358e-08	3.223454e+01	1.506615e+03
1.970000e-06	4.418062e-06	2.294251e-08	3.182781e+01	1.502178e+03
1.980000e-06	4.360058e-06	2.284724e-08	3.140995e+01	1.497642e+03
1.990000e-06	4.300678e-06	2.280292e-08	3.098218e+01	1.493089e+03
2.000000e-06	4.239846e-06	2.274224e-08	3.054394e+01	1.488549e+03
2.010000e-06	4.177287e-06	2.264435e-08	3.009327e+01	1.483999e+03
2.020000e-06	4.113036e-06	2.257609e-08	2.963040e+01	1.479361e+03
2.030000e-06	4.047411e-06	2.246558e-08	2.915764e+01	1.474534e+03
2.040000e-06	3.980465e-06	2.242202e-08	2.867535e+01	1.469421e+03
2.050000e-06	3.912127e-06	2.234820e-08	2.818305e+01	1.463965e+03
2.060000e-06	3.842196e-06	2.225489e-08	2.767926e+01	1.458163e+03
2.070000e-06	3.770752e-06	2.218284e-08	2.716458e+01	1.452071e+03
2.080000e-06	3.698106e-06	2.207322e-08	2.664124e+01	1.445782e+03
2.090000e-06	3.624136e-06	2.198051e-08	2.610836e+01	1.439399e+03
2.100000e-06	3.548801e-06	2.186892e-08	2.556564e+01	1.432998e+03
2.110000e-06	3.472039e-06	2.178760e-08	2.501264e+01	1.426601e+03
2.120000e-06	3.393732e-06	2.169847e-08	2.444852e+01	1.420164e+03
2.130000e-06	3.314125e-06	2.158044e-08	2.387503e+01	1.413591e+03
2.140000e-06	3.233389e-06	2.147484e-08	2.329340e+01	1.406757e+03
2.150000e-06	3.151585e-06	2.135481e-08	2.270409e+01	1.399549e+03
2.160000e-06	3.068793e-06	2.124115e-08	2.210765e+01	1.391898e+03
2.170000e-06	2.985038e-06	2.111745e-08	2.150428e+01	1.383798e+03
2.180000e-06	2.900174e-06	2.100457e-08	2.089291e+01	1.375311e+03
2.190000e-06	2.814018e-06	2.088531e-08	2.027225e+01	1.366544e+03
2.200000e-06	2.726689e-06	2.074292e-08	1.964312e+01	1.357609e+03
2.210000e-06	2.638388e-06	2.060055e-08	1.900700e+01	1.348588e+03
2.220000e-06	2.549174e-06	2.045850e-08	1.836430e+01	1.339497e+03
2.230000e-06	2.459096e-06	2.032347e-08	1.771538e+01	1.330275e+03
2.240000e-06	2.368251e-06	2.017770e-08	1.706093e+01	1.320798e+03
2.250000e-06	2.276712e-06	2.002740e-08	1.640148e+01	1.310912e+03
2.260000e-06	2.184454e-06	1.986687e-08	1.573685e+01	1.300473e+03
2.270000e-06	2.091301e-06	1.969302e-08	1.506577e+01	1.289395e+03
2.280000e-06	1.997217e-06	1.951692e-08	1.438799e+01	1.277672e+03
2.290000e-06	1.902298e-06	1.933962e-08	1.370420e+01	1.265381e+03
2.300000e-06	1.806689e-06	1.915981e-08	1.301543e+01	1.252651e+03
2.310000e-06	1.710529e-06	1.897107e-08	1.232269e+01	1.239620e+03
2.320000e-06	1.613842e-06	1.877010e-08	1.162615e+01	1.226383e+03
2.330000e-06	1.516623e-06	1.855914e-08	1.092578e+01	1.212949e+03
2.340000e-06	1.418881e-06	1.834049e-08	1.022165e+01	1.199229e+03
2.350000e-06	1.320674e-06	1.811209e-08	9.514167e+00	1.185044e+03
2.360000e-06	1.222067e-06	1.787859e-08	8.803795e+00	1.170173e+03
2.370000e-06	1.123129e-06	1.763804e-08	8.091044e+00	1.154408e+03
2.380000e-06	1.023929e-06	1.738670e-08	7.376408e+00	1.137613e+03
2.390000e-06	9.244798e-07	1.712288e-08	6.659972e+00	1.119754e+03
2.400000e-06	8.248163e-07	1.684252e-08	5.941995e+00	1.100902e+03
2.410000e-06	7.249066e-07	1.654934e-08	5.222242e+00	1.081195e+03
2.420000e-06	6.247058e-07	1.624501e-08	4.500394e+00	1.060772e+03
2.430000e-06	5.242989e-07	1.592671e-08	3.777060e+00	1.039698e+03
2.440000e-06	4.237398e-07	1.559163e-08	3.052631e+00	1.017904e+03
2.450000e-06	3.230079e-07	1.523608e-08	2.326956e+00	9.951622e+02
2.460000e-06	2.220941e-07	1.485690e-08	1.599971e+00	9.711045e+02
2.470000e-06	1.210152e-07	1.445419e-08	8.717961e-01	9.452884e+02
2.480000e-06	1.983501e-08	1.402678e-08	1.428919e-01	9.172870e+02
2.490000e-06	-8.134307e-08	1.357050e-08	-5.859972e-01	8.867763e+02
2.500000e-06	-1.824415e-07	1.307791e-08	-1.314313e+00	8.535876e+02
2.510000e-06	-2.834494e-07	1.254691e-08	-2.041976e+00	8.177008e+02
2.520000e-06	-3.843288e-07	1.197502e-08	-2.768713e+00	7.791684e+02
2.530000e-06	-4.851116e-07	1.135280e-08	-3.494755e+00	7.379803e+02
2.540000e-06	-5.857793e-07	1.067509e-08	-4.219967e+00	6.939015e+02
2.550000e-06	-6.861693e-07	9.934063e-09	-4.943178e+00	6.463277e+02
2.560000e-06	-7.862719e-07	9.120352e-09	-5.664319e+00	5.942080e+02
2.570000e-06	-8.861647e-07	8.218586e-09	-6.383949e+00	5.360737e+02
2.580000e-06	-9.857882e-07	7.209385e-09	-7.101640e+00	4.701918e+02
2.590000e-06	-1.085098e-06	6.072914e-09	-7.817066e+00	3.948320e+02
2.600000e-06	-1.184098e-06	4.784861e-09	-8.530267e+00	3.086061e+02
2.610000e-06	-1.282727e-06	3.327714e-09	-9.240793e+00	2.108172e+02
2.620000e-06	-1.380918e-06	1.695226e-09	-9.948166e+00	1.017453e+02
2.630000e-06	-1.478601e-06	-1.054533e-10	-1.065187e+01	-1.719797e+01
2.640000e-06	-1.575721e-06	-2.042903e-09	-1.135153e+01	-1.434895e+02
2.650000e-06	-1.672284e-06	-4.060505e-09	-1.204717e+01	-2.736998e+02
2.660000e-06	-1.768373e-06	-6.084460e-09	-1.273940e+01	-4.038563e+02
2.670000e-06	-1.864019e-06	-8.036454e-09	-1.342843e+01	-5.299046e+02
2.680000e-06	-1.959050e-06	-9.851084e-09	-1.411304e+01	-6.481865e+02
2.690000e-06	-2.053081e-06	-1.148569e-08	-1.479044e+01	-7.558492e+02
2.700000e-06	-2.146029e-06	-1.292270e-08	-1.546004e+01	-8.511177e+02
2.710000e-06	-2.238156e-06	-1.416646e-08	-1.612372e+01	-9.333859e+02
2.720000e-06	-2.329551e-06	-1.523334e-08	-1.678214e+01	-1.003125e+03
2.730000e-06	-2.420177e-06	-1.614423e-08	-1.743501e+01	-1.061639e+03
2.740000e-06	-2.509965e-06	-1.692061e-08	-1.808184e+01	-1.110730e+03
2.750000e-06	-2.598802e-06	-1.758407e-08	-1.872183e+01	-1.152342e+03
2.760000e-06	-2.686789e-06	-1.815424e-08	-1.935568e+01	-1.188256e+03
2.770000e-06	-2.774072e-06	-1.864724e-08	-1.998447e+01	-1.219881e+03
2.780000e-06	-2.860313e-06	-1.907785e-08	-2.060575e+01	-1.248176e+03
2.790000e-06	-2.945271e-06	-1.945947e-08	-2.121779e+01	-1.273681e+03
2.800000e-06	-3.029184e-06	-1.979948e-08	-2.182230e+01	-1.296636e+03
2.810000e-06	-3.112113e-06	-2.010231e-08	-2.241973e+01	-1.317134e+03
2.820000e-06	-3.193993e-06	-2.037216e-08	-2.300959e+01	-1.335268e+03
2.830000e-06	-3.274793e-06	-2.061537e-08	-2.359168e+01	-1.351228e+03
2.840000e-06	-3.354551e-06	-2.084077e-08	-2.416626e+01	-1.365334e+03
2.850000e-06	-3.433009e-06	-2.104973e-08	-2.473147e+01	-1.377999e+03
2.860000e-06	-3.509915e-06	-2.124063e-08	-2.528551e+01	-1.389661e+03
2.870000e-06	-3.585409e-06	-2.141579e-08	-2.582937e+01	-1.400691e+03
2.880000e-06	-3.659527e-06	-2.157905e-08	-2.636331e+01	-1.411327e+03
2.890000e-06	-3.732341e-06	-2.173265e-08	-2.688787e+01	-1.421641e+03
2.900000e-06	-3.803953e-06	-2.187739e-08	-2.740376e+01	-1.431558e+03
2.910000e-06	-3.874097e-06	-2.201382e-08	-2.790908e+01	-1.440912e+03
2.920000e-06	-3.942642e-06	-2.213941e-08	-2.840288e+01	-1.449523e+03
2.930000e-06	-4.009777e-06	-2.225324e-08	-2.888652e+01	-1.457275e+03
2.940000e-06	-4.075575e-06	-2.235772e-08	-2.936053e+01	-1.464161e+03
