# Temperatura_=_90.17
# Concentracion g/m^3_=_41000.0
# C_Vs_to_Am_M_A/Vsm_=_65563218390.804596
# pendiente_HvsI_1/m_=_3716.3
# ordenada_HvsI_A/m_=_1297.0
# frecuencia_Hz_=_301636.4915258247

Tiempo_(s)	Campo_(V.s)	Magnetizacion_(V.s)	Campo_(kA/m)	Magnetizacion_(A/m)
0.000000e+00	-5.311951e-06	-2.447401e-08	-3.833489e+01	-1.600234e+03
1.000000e-08	-5.309710e-06	-2.446914e-08	-3.831872e+01	-1.600071e+03
2.000000e-08	-5.305628e-06	-2.446161e-08	-3.828926e+01	-1.599990e+03
3.000000e-08	-5.299977e-06	-2.445554e-08	-3.824848e+01	-1.599888e+03
4.000000e-08	-5.292758e-06	-2.444788e-08	-3.819638e+01	-1.599631e+03
5.000000e-08	-5.283859e-06	-2.443468e-08	-3.813216e+01	-1.599092e+03
6.000000e-08	-5.272923e-06	-2.441765e-08	-3.805323e+01	-1.598194e+03
7.000000e-08	-5.260010e-06	-2.439361e-08	-3.796004e+01	-1.596928e+03
8.000000e-08	-5.245157e-06	-2.438006e-08	-3.785286e+01	-1.595361e+03
9.000000e-08	-5.228013e-06	-2.440545e-08	-3.772913e+01	-1.593611e+03
1.000000e-07	-5.208683e-06	-2.438760e-08	-3.758963e+01	-1.591815e+03
1.100000e-07	-5.187482e-06	-2.433478e-08	-3.743663e+01	-1.590085e+03
1.200000e-07	-5.164590e-06	-2.429723e-08	-3.727142e+01	-1.588477e+03
1.300000e-07	-5.140332e-06	-2.419324e-08	-3.709636e+01	-1.586975e+03
1.400000e-07	-5.114594e-06	-2.418292e-08	-3.691062e+01	-1.585500e+03
1.500000e-07	-5.087079e-06	-2.425186e-08	-3.671205e+01	-1.583933e+03
1.600000e-07	-5.057995e-06	-2.413314e-08	-3.650216e+01	-1.582153e+03
1.700000e-07	-5.027469e-06	-2.414366e-08	-3.628186e+01	-1.580077e+03
1.800000e-07	-4.995062e-06	-2.417648e-08	-3.604799e+01	-1.577679e+03
1.900000e-07	-4.960592e-06	-2.399349e-08	-3.579923e+01	-1.575002e+03
2.000000e-07	-4.924536e-06	-2.397304e-08	-3.553902e+01	-1.572136e+03
2.100000e-07	-4.886875e-06	-2.395647e-08	-3.526723e+01	-1.569192e+03
2.200000e-07	-4.847465e-06	-2.384255e-08	-3.498282e+01	-1.566259e+03
2.300000e-07	-4.806276e-06	-2.385206e-08	-3.468557e+01	-1.563378e+03
2.400000e-07	-4.763099e-06	-2.381896e-08	-3.437398e+01	-1.560526e+03
2.500000e-07	-4.718158e-06	-2.375236e-08	-3.404965e+01	-1.557620e+03
2.600000e-07	-4.671515e-06	-2.372290e-08	-3.371304e+01	-1.554539e+03
2.700000e-07	-4.622935e-06	-2.362229e-08	-3.336245e+01	-1.551167e+03
2.800000e-07	-4.572233e-06	-2.356793e-08	-3.299655e+01	-1.547423e+03
2.900000e-07	-4.519518e-06	-2.352567e-08	-3.261612e+01	-1.543286e+03
3.000000e-07	-4.465141e-06	-2.344925e-08	-3.222369e+01	-1.538803e+03
3.100000e-07	-4.409185e-06	-2.339000e-08	-3.181987e+01	-1.534072e+03
3.200000e-07	-4.351445e-06	-2.333115e-08	-3.140318e+01	-1.529214e+03
3.300000e-07	-4.291989e-06	-2.324987e-08	-3.097410e+01	-1.524330e+03
3.400000e-07	-4.231098e-06	-2.314930e-08	-3.053467e+01	-1.519475e+03
3.500000e-07	-4.168789e-06	-2.308364e-08	-3.008500e+01	-1.514638e+03
3.600000e-07	-4.105081e-06	-2.301042e-08	-2.962524e+01	-1.509748e+03
3.700000e-07	-4.039985e-06	-2.292863e-08	-2.915546e+01	-1.504693e+03
3.800000e-07	-3.973236e-06	-2.285956e-08	-2.867375e+01	-1.499362e+03
3.900000e-07	-3.904868e-06	-2.275381e-08	-2.818036e+01	-1.493674e+03
4.000000e-07	-3.835264e-06	-2.264864e-08	-2.767805e+01	-1.487608e+03
4.100000e-07	-3.764515e-06	-2.255900e-08	-2.716747e+01	-1.481207e+03
4.200000e-07	-3.692550e-06	-2.246388e-08	-2.664812e+01	-1.474564e+03
4.300000e-07	-3.619204e-06	-2.236765e-08	-2.611880e+01	-1.467792e+03
4.400000e-07	-3.544241e-06	-2.227140e-08	-2.557781e+01	-1.460983e+03
4.500000e-07	-3.467772e-06	-2.217503e-08	-2.502595e+01	-1.454178e+03
4.600000e-07	-3.390007e-06	-2.205811e-08	-2.446474e+01	-1.447352e+03
4.700000e-07	-3.310920e-06	-2.193281e-08	-2.389400e+01	-1.440415e+03
4.800000e-07	-3.230477e-06	-2.181714e-08	-2.331346e+01	-1.433242e+03
4.900000e-07	-3.148790e-06	-2.170168e-08	-2.272395e+01	-1.425708e+03
5.000000e-07	-3.066087e-06	-2.158424e-08	-2.212711e+01	-1.417729e+03
5.100000e-07	-2.982456e-06	-2.145680e-08	-2.152356e+01	-1.409288e+03
5.200000e-07	-2.898004e-06	-2.132618e-08	-2.091409e+01	-1.400437e+03
5.300000e-07	-2.812642e-06	-2.118847e-08	-2.029807e+01	-1.391287e+03
5.400000e-07	-2.726275e-06	-2.104543e-08	-1.967478e+01	-1.381960e+03
5.500000e-07	-2.639028e-06	-2.091024e-08	-1.904514e+01	-1.372556e+03
5.600000e-07	-2.550850e-06	-2.076923e-08	-1.840878e+01	-1.363109e+03
5.700000e-07	-2.461645e-06	-2.061512e-08	-1.776501e+01	-1.353571e+03
5.800000e-07	-2.371302e-06	-2.044816e-08	-1.711303e+01	-1.343822e+03
5.900000e-07	-2.279912e-06	-2.027847e-08	-1.645350e+01	-1.333695e+03
6.000000e-07	-2.187774e-06	-2.010776e-08	-1.578856e+01	-1.323029e+03
6.100000e-07	-2.094968e-06	-1.993871e-08	-1.511881e+01	-1.311715e+03
6.200000e-07	-2.001391e-06	-1.976644e-08	-1.444349e+01	-1.299725e+03
6.300000e-07	-1.907079e-06	-1.958093e-08	-1.376286e+01	-1.287122e+03
6.400000e-07	-1.812165e-06	-1.938467e-08	-1.307789e+01	-1.274037e+03
6.500000e-07	-1.716632e-06	-1.918082e-08	-1.238846e+01	-1.260623e+03
6.600000e-07	-1.620481e-06	-1.897375e-08	-1.169457e+01	-1.246999e+03
6.700000e-07	-1.523685e-06	-1.876076e-08	-1.099602e+01	-1.233202e+03
6.800000e-07	-1.426285e-06	-1.854190e-08	-1.029311e+01	-1.219162e+03
6.900000e-07	-1.328357e-06	-1.831390e-08	-9.586390e+00	-1.204712e+03
7.000000e-07	-1.229839e-06	-1.807507e-08	-8.875407e+00	-1.189623e+03
7.100000e-07	-1.130824e-06	-1.782610e-08	-8.160848e+00	-1.173670e+03
7.200000e-07	-1.031433e-06	-1.756661e-08	-7.443569e+00	-1.156690e+03
7.300000e-07	-9.317250e-07	-1.729739e-08	-6.724003e+00	-1.138625e+03
7.400000e-07	-8.317691e-07	-1.701619e-08	-6.002649e+00	-1.119531e+03
7.500000e-07	-7.315997e-07	-1.672544e-08	-5.279754e+00	-1.099548e+03
7.600000e-07	-6.312512e-07	-1.642014e-08	-4.555566e+00	-1.078833e+03
7.700000e-07	-5.307275e-07	-1.609423e-08	-3.830114e+00	-1.057482e+03
7.800000e-07	-4.300468e-07	-1.574894e-08	-3.103529e+00	-1.035459e+03
7.900000e-07	-3.291991e-07	-1.538332e-08	-2.375740e+00	-1.012561e+03
8.000000e-07	-2.282259e-07	-1.499625e-08	-1.647044e+00	-9.884289e+02
8.100000e-07	-1.271630e-07	-1.458936e-08	-9.177002e-01	-9.626069e+02
8.200000e-07	-2.601118e-08	-1.416223e-08	-1.877156e-01	-9.346370e+02
8.300000e-07	7.518358e-08	-1.370626e-08	5.425792e-01	-9.041544e+02
8.400000e-07	1.763410e-07	-1.321250e-08	1.272605e+00	-8.709549e+02
8.500000e-07	2.774256e-07	-1.267789e-08	2.002105e+00	-8.350025e+02
8.600000e-07	3.784538e-07	-1.210206e-08	2.731197e+00	-7.963635e+02
8.700000e-07	4.793805e-07	-1.148016e-08	3.459557e+00	-7.550736e+02
8.800000e-07	5.801391e-07	-1.080492e-08	4.186704e+00	-7.109669e+02
8.900000e-07	6.807458e-07	-1.006575e-08	4.912755e+00	-6.635128e+02
9.000000e-07	7.811598e-07	-9.249143e-09	5.637415e+00	-6.117136e+02
9.100000e-07	8.813403e-07	-8.342482e-09	6.360391e+00	-5.541080e+02
9.200000e-07	9.813054e-07	-7.329519e-09	7.081811e+00	-4.889052e+02
9.300000e-07	1.080952e-06	-6.189912e-09	7.800934e+00	-4.142445e+02
9.400000e-07	1.180217e-06	-4.898028e-09	8.517300e+00	-3.285442e+02
9.500000e-07	1.279042e-06	-3.431749e-09	9.230492e+00	-2.308760e+02
9.600000e-07	1.377332e-06	-1.780662e-09	9.939829e+00	-1.212874e+02
9.700000e-07	1.474979e-06	4.838179e-11	1.064452e+01	-9.989223e-01
9.800000e-07	1.571896e-06	2.026680e-09	1.134394e+01	1.275768e+02
9.900000e-07	1.668070e-06	4.096509e-09	1.203801e+01	2.610138e+02
1.000000e-06	1.763637e-06	6.177737e-09	1.272768e+01	3.952277e+02
1.010000e-06	1.858635e-06	8.186894e-09	1.341326e+01	5.259499e+02
1.020000e-06	1.952951e-06	1.005415e-08	1.409391e+01	6.492361e+02
1.030000e-06	2.046578e-06	1.173478e-08	1.476959e+01	7.619205e+02
1.040000e-06	2.139501e-06	1.321061e-08	1.544019e+01	8.619348e+02
1.050000e-06	2.231805e-06	1.448530e-08	1.610633e+01	9.484417e+02
1.060000e-06	2.323528e-06	1.557566e-08	1.676826e+01	1.021772e+03
1.070000e-06	2.414462e-06	1.650371e-08	1.742451e+01	1.083189e+03
1.080000e-06	2.504361e-06	1.729483e-08	1.807329e+01	1.134545e+03
1.090000e-06	2.593121e-06	1.797201e-08	1.871384e+01	1.177900e+03
1.100000e-06	2.680860e-06	1.855595e-08	1.934703e+01	1.215181e+03
1.110000e-06	2.767715e-06	1.906176e-08	1.997384e+01	1.247944e+03
1.120000e-06	2.853689e-06	1.950148e-08	2.059429e+01	1.277265e+03
1.130000e-06	2.938736e-06	1.988845e-08	2.120805e+01	1.303752e+03
1.140000e-06	3.022875e-06	2.023295e-08	2.181526e+01	1.327667e+03
1.150000e-06	3.106092e-06	2.054177e-08	2.241581e+01	1.349089e+03
1.160000e-06	3.188124e-06	2.081989e-08	2.300781e+01	1.368077e+03
1.170000e-06	3.268913e-06	2.107187e-08	2.359084e+01	1.384785e+03
1.180000e-06	3.348587e-06	2.130132e-08	2.416583e+01	1.399512e+03
1.190000e-06	3.427138e-06	2.151309e-08	2.473271e+01	1.412680e+03
1.200000e-06	3.504468e-06	2.170908e-08	2.529078e+01	1.424755e+03
1.210000e-06	3.580543e-06	2.189047e-08	2.583979e+01	1.436153e+03
1.220000e-06	3.655267e-06	2.205987e-08	2.637906e+01	1.447158e+03
1.230000e-06	3.728359e-06	2.222109e-08	2.690654e+01	1.457879e+03
1.240000e-06	3.799923e-06	2.237335e-08	2.742300e+01	1.468256e+03
1.250000e-06	3.870155e-06	2.251372e-08	2.792985e+01	1.478117e+03
1.260000e-06	3.939037e-06	2.264205e-08	2.842694e+01	1.487258e+03
1.270000e-06	4.006630e-06	2.276026e-08	2.891475e+01	1.495524e+03
1.280000e-06	4.072739e-06	2.287068e-08	2.939184e+01	1.502873e+03
1.290000e-06	4.137183e-06	2.297714e-08	2.985691e+01	1.509395e+03
1.300000e-06	4.200181e-06	2.307929e-08	3.031155e+01	1.515289e+03
1.310000e-06	4.261780e-06	2.317428e-08	3.075609e+01	1.520811e+03
1.320000e-06	4.322018e-06	2.326154e-08	3.119082e+01	1.526202e+03
1.330000e-06	4.380857e-06	2.334186e-08	3.161544e+01	1.531625e+03
1.340000e-06	4.437932e-06	2.341893e-08	3.202733e+01	1.537127e+03
1.350000e-06	4.493243e-06	2.349433e-08	3.242650e+01	1.542643e+03
1.360000e-06	4.546997e-06	2.356827e-08	3.281442e+01	1.548024e+03
1.370000e-06	4.599008e-06	2.363861e-08	3.318978e+01	1.553093e+03
1.380000e-06	4.649014e-06	2.370460e-08	3.355065e+01	1.557709e+03
1.390000e-06	4.697082e-06	2.376773e-08	3.389755e+01	1.561807e+03
1.400000e-06	4.743493e-06	2.382801e-08	3.423248e+01	1.565424e+03
1.410000e-06	4.788409e-06	2.388526e-08	3.455663e+01	1.568677e+03
1.420000e-06	4.831758e-06	2.393913e-08	3.486947e+01	1.571731e+03
1.430000e-06	4.873234e-06	2.398908e-08	3.516879e+01	1.574742e+03
1.440000e-06	4.912870e-06	2.403567e-08	3.545483e+01	1.577811e+03
1.450000e-06	4.950892e-06	2.407920e-08	3.572923e+01	1.580954e+03
1.460000e-06	4.987335e-06	2.412037e-08	3.599223e+01	1.584102e+03
1.470000e-06	5.022096e-06	2.416006e-08	3.624308e+01	1.587122e+03
1.480000e-06	5.054890e-06	2.419688e-08	3.647975e+01	1.589866e+03
1.490000e-06	5.085864e-06	2.422936e-08	3.670328e+01	1.592219e+03
1.500000e-06	5.115221e-06	2.425852e-08	3.691515e+01	1.594131e+03
1.510000e-06	5.142896e-06	2.428559e-08	3.711486e+01	1.595641e+03
1.520000e-06	5.168626e-06	2.430968e-08	3.730055e+01	1.596858e+03
1.530000e-06	5.192295e-06	2.432941e-08	3.747136e+01	1.597933e+03
1.540000e-06	5.214128e-06	2.434723e-08	3.762893e+01	1.599008e+03
1.550000e-06	5.234296e-06	2.436579e-08	3.777448e+01	1.600179e+03
1.560000e-06	5.252726e-06	2.438426e-08	3.790748e+01	1.601463e+03
1.570000e-06	5.269162e-06	2.440044e-08	3.802609e+01	1.602800e+03
1.580000e-06	5.283597e-06	2.441324e-08	3.813027e+01	1.604070e+03
1.590000e-06	5.296091e-06	2.442516e-08	3.822043e+01	1.605134e+03
1.600000e-06	5.306469e-06	2.443570e-08	3.829533e+01	1.605878e+03
1.610000e-06	5.314733e-06	2.444310e-08	3.835497e+01	1.606249e+03
1.620000e-06	5.321134e-06	2.444826e-08	3.840116e+01	1.606271e+03
1.630000e-06	5.325794e-06	2.445164e-08	3.843479e+01	1.606036e+03
1.640000e-06	5.328568e-06	2.445266e-08	3.845481e+01	1.605678e+03
1.650000e-06	5.329287e-06	2.445352e-08	3.846000e+01	1.605327e+03
1.660000e-06	5.328184e-06	2.445225e-08	3.845203e+01	1.605074e+03
1.670000e-06	5.325459e-06	2.444847e-08	3.843237e+01	1.604937e+03
1.680000e-06	5.321095e-06	2.444475e-08	3.840088e+01	1.604861e+03
1.690000e-06	5.314866e-06	2.443713e-08	3.835592e+01	1.604733e+03
1.700000e-06	5.306797e-06	2.442705e-08	3.829769e+01	1.604415e+03
1.710000e-06	5.297174e-06	2.441796e-08	3.822825e+01	1.603790e+03
1.720000e-06	5.285896e-06	2.441169e-08	3.814686e+01	1.602797e+03
1.730000e-06	5.272737e-06	2.440069e-08	3.805189e+01	1.601447e+03
1.740000e-06	5.257540e-06	2.432897e-08	3.794222e+01	1.599821e+03
1.750000e-06	5.240095e-06	2.429102e-08	3.781633e+01	1.598046e+03
1.760000e-06	5.220179e-06	2.430179e-08	3.767259e+01	1.596257e+03
1.770000e-06	5.197850e-06	2.429859e-08	3.751145e+01	1.594553e+03
1.780000e-06	5.173897e-06	2.435954e-08	3.733859e+01	1.592976e+03
1.790000e-06	5.149223e-06	2.427004e-08	3.716053e+01	1.591490e+03
1.800000e-06	5.123406e-06	2.415224e-08	3.697421e+01	1.590003e+03
1.810000e-06	5.095558e-06	2.421757e-08	3.677324e+01	1.588392e+03
1.820000e-06	5.065915e-06	2.409569e-08	3.655931e+01	1.586543e+03
1.830000e-06	5.034560e-06	2.403796e-08	3.633303e+01	1.584385e+03
1.840000e-06	5.001168e-06	2.416946e-08	3.609205e+01	1.581910e+03
1.850000e-06	4.966161e-06	2.406000e-08	3.583942e+01	1.579175e+03
1.860000e-06	4.929523e-06	2.402994e-08	3.557501e+01	1.576279e+03
1.870000e-06	4.890816e-06	2.406913e-08	3.529567e+01	1.573330e+03
1.880000e-06	4.850367e-06	2.391328e-08	3.500376e+01	1.570408e+03
1.890000e-06	4.808229e-06	2.389808e-08	3.469966e+01	1.567539e+03
1.900000e-06	4.764376e-06	2.383521e-08	3.438319e+01	1.564682e+03
1.910000e-06	4.718867e-06	2.377070e-08	3.405476e+01	1.561743e+03
1.920000e-06	4.671457e-06	2.383158e-08	3.371262e+01	1.558599e+03
1.930000e-06	4.622445e-06	2.369438e-08	3.335891e+01	1.555139e+03
1.940000e-06	4.571775e-06	2.364834e-08	3.299324e+01	1.551295e+03
1.950000e-06	4.519135e-06	2.361877e-08	3.261335e+01	1.547063e+03
1.960000e-06	4.464591e-06	2.349626e-08	3.221973e+01	1.542507e+03
1.970000e-06	4.408274e-06	2.346288e-08	3.181330e+01	1.537732e+03
1.980000e-06	4.350352e-06	2.336998e-08	3.139529e+01	1.532858e+03
1.990000e-06	4.291009e-06	2.332914e-08	3.096703e+01	1.527978e+03
2.000000e-06	4.230323e-06	2.326275e-08	3.052908e+01	1.523131e+03
2.010000e-06	4.167984e-06	2.314521e-08	3.007919e+01	1.518289e+03
2.020000e-06	4.103870e-06	2.308390e-08	2.961650e+01	1.513368e+03
2.030000e-06	4.038263e-06	2.296903e-08	2.914303e+01	1.508253e+03
2.040000e-06	3.971260e-06	2.292005e-08	2.865949e+01	1.502837e+03
2.050000e-06	3.902881e-06	2.284427e-08	2.816602e+01	1.497053e+03
2.060000e-06	3.833033e-06	2.273998e-08	2.766195e+01	1.490896e+03
2.070000e-06	3.761650e-06	2.267278e-08	2.714680e+01	1.484424e+03
2.080000e-06	3.688997e-06	2.255012e-08	2.662248e+01	1.477738e+03
2.090000e-06	3.615118e-06	2.244776e-08	2.608931e+01	1.470948e+03
2.100000e-06	3.539934e-06	2.232846e-08	2.554673e+01	1.464138e+03
2.110000e-06	3.463379e-06	2.223694e-08	2.499425e+01	1.457333e+03
2.120000e-06	3.385346e-06	2.214665e-08	2.443111e+01	1.450488e+03
2.130000e-06	3.305909e-06	2.201913e-08	2.385784e+01	1.443504e+03
2.140000e-06	3.225257e-06	2.191208e-08	2.327579e+01	1.436251e+03
2.150000e-06	3.143559e-06	2.178715e-08	2.268620e+01	1.428610e+03
2.160000e-06	3.060842e-06	2.166933e-08	2.208926e+01	1.420514e+03
2.170000e-06	2.977094e-06	2.154083e-08	2.148487e+01	1.411962e+03
2.180000e-06	2.892277e-06	2.141961e-08	2.087277e+01	1.403024e+03
2.190000e-06	2.806301e-06	2.129306e-08	2.025230e+01	1.393817e+03
2.200000e-06	2.719083e-06	2.113877e-08	1.962287e+01	1.384463e+03
2.210000e-06	2.630832e-06	2.099055e-08	1.898599e+01	1.375047e+03
2.220000e-06	2.541776e-06	2.084220e-08	1.834330e+01	1.365584e+03
2.230000e-06	2.451824e-06	2.070328e-08	1.769414e+01	1.356007e+03
2.240000e-06	2.361122e-06	2.055617e-08	1.703957e+01	1.346178e+03
2.250000e-06	2.269721e-06	2.040381e-08	1.637995e+01	1.335930e+03
2.260000e-06	2.177520e-06	2.023884e-08	1.571456e+01	1.325109e+03
2.270000e-06	2.084534e-06	2.005702e-08	1.504351e+01	1.313624e+03
2.280000e-06	1.990666e-06	1.987243e-08	1.436609e+01	1.301470e+03
2.290000e-06	1.895970e-06	1.968369e-08	1.368269e+01	1.288732e+03
2.300000e-06	1.800453e-06	1.949406e-08	1.299338e+01	1.275550e+03
2.310000e-06	1.704269e-06	1.929875e-08	1.229924e+01	1.262075e+03
2.320000e-06	1.607679e-06	1.909388e-08	1.160218e+01	1.248407e+03
2.330000e-06	1.510658e-06	1.887781e-08	1.090200e+01	1.234559e+03
2.340000e-06	1.413114e-06	1.865336e-08	1.019806e+01	1.220435e+03
2.350000e-06	1.315053e-06	1.842017e-08	9.490379e+00	1.205847e+03
2.360000e-06	1.216570e-06	1.818050e-08	8.779649e+00	1.190561e+03
2.370000e-06	1.117753e-06	1.793140e-08	8.066513e+00	1.174362e+03
2.380000e-06	1.018670e-06	1.767081e-08	7.351458e+00	1.157111e+03
2.390000e-06	9.193914e-07	1.739904e-08	6.634995e+00	1.138778e+03
2.400000e-06	8.198339e-07	1.711112e-08	5.916515e+00	1.119447e+03
2.410000e-06	7.199827e-07	1.681280e-08	5.195917e+00	1.099266e+03
2.420000e-06	6.199059e-07	1.650424e-08	4.473690e+00	1.078387e+03
2.430000e-06	5.196076e-07	1.618144e-08	3.749865e+00	1.056876e+03
2.440000e-06	4.191538e-07	1.584069e-08	3.024917e+00	1.034659e+03
2.450000e-06	3.185837e-07	1.547724e-08	2.299131e+00	1.011491e+03
2.460000e-06	2.178624e-07	1.508931e-08	1.572253e+00	9.869799e+02
2.470000e-06	1.169571e-07	1.467600e-08	8.440469e-01	9.606610e+02
2.480000e-06	1.599183e-08	1.423568e-08	1.154087e-01	9.320909e+02
2.490000e-06	-8.491950e-08	1.376627e-08	-6.128407e-01	9.009404e+02
2.500000e-06	-1.857739e-07	1.326299e-08	-1.340679e+00	8.670496e+02
2.510000e-06	-2.865716e-07	1.272287e-08	-2.068109e+00	8.304170e+02
2.520000e-06	-3.873114e-07	1.214194e-08	-2.795120e+00	7.911160e+02
2.530000e-06	-4.879785e-07	1.151073e-08	-3.521607e+00	7.491484e+02
2.540000e-06	-5.885182e-07	1.082280e-08	-4.247174e+00	7.042710e+02
2.550000e-06	-6.888176e-07	1.006808e-08	-4.971007e+00	6.558425e+02
2.560000e-06	-7.888268e-07	9.235680e-09	-5.692746e+00	6.027442e+02
2.570000e-06	-8.885832e-07	8.311611e-09	-6.412660e+00	5.434144e+02
2.580000e-06	-9.880424e-07	7.277669e-09	-7.130430e+00	4.760163e+02
2.590000e-06	-1.087164e-06	6.111683e-09	-7.845764e+00	3.987240e+02
2.600000e-06	-1.185947e-06	4.790422e-09	-8.558657e+00	3.100847e+02
2.610000e-06	-1.284388e-06	3.296396e-09	-9.269074e+00	2.093875e+02
2.620000e-06	-1.382394e-06	1.618261e-09	-9.976356e+00	9.696095e+01
2.630000e-06	-1.479848e-06	-2.371706e-10	-1.067965e+01	-2.567045e+01
2.640000e-06	-1.576771e-06	-2.236762e-09	-1.137912e+01	-1.558164e+02
2.650000e-06	-1.673204e-06	-4.319298e-09	-1.207505e+01	-2.898472e+02
2.660000e-06	-1.769220e-06	-6.403482e-09	-1.276797e+01	-4.235851e+02
2.670000e-06	-1.864724e-06	-8.405994e-09	-1.345720e+01	-5.527954e+02
2.680000e-06	-1.959358e-06	-1.025884e-08	-1.414015e+01	-6.736900e+02
2.690000e-06	-2.052941e-06	-1.192017e-08	-1.481551e+01	-7.833542e+02
2.700000e-06	-2.145624e-06	-1.337402e-08	-1.548438e+01	-8.800227e+02
2.710000e-06	-2.237591e-06	-1.462918e-08	-1.614808e+01	-9.631636e+02
2.720000e-06	-2.328840e-06	-1.570477e-08	-1.680660e+01	-1.033368e+03
2.730000e-06	-2.419284e-06	-1.662161e-08	-1.745931e+01	-1.092083e+03
2.740000e-06	-2.508831e-06	-1.740165e-08	-1.810555e+01	-1.141246e+03
2.750000e-06	-2.597492e-06	-1.806772e-08	-1.874538e+01	-1.182914e+03
2.760000e-06	-2.685416e-06	-1.864031e-08	-1.937991e+01	-1.218938e+03
2.770000e-06	-2.772503e-06	-1.913531e-08	-2.000839e+01	-1.250761e+03
2.780000e-06	-2.858434e-06	-1.956873e-08	-2.062853e+01	-1.279332e+03
2.790000e-06	-2.943139e-06	-1.995329e-08	-2.123982e+01	-1.305163e+03
2.800000e-06	-3.026824e-06	-2.029598e-08	-2.184376e+01	-1.328452e+03
2.810000e-06	-3.109602e-06	-2.060094e-08	-2.244114e+01	-1.349258e+03
2.820000e-06	-3.191313e-06	-2.087464e-08	-2.303083e+01	-1.367657e+03
2.830000e-06	-3.271938e-06	-2.112356e-08	-2.361268e+01	-1.383836e+03
2.840000e-06	-3.351487e-06	-2.135290e-08	-2.418676e+01	-1.398132e+03
2.850000e-06	-3.429695e-06	-2.156605e-08	-2.475117e+01	-1.410984e+03
2.860000e-06	-3.506432e-06	-2.176351e-08	-2.530496e+01	-1.422856e+03
2.870000e-06	-3.581780e-06	-2.194565e-08	-2.584872e+01	-1.434136e+03
2.880000e-06	-3.655681e-06	-2.211196e-08	-2.638204e+01	-1.445067e+03
2.890000e-06	-3.728296e-06	-2.226571e-08	-2.690609e+01	-1.455714e+03
2.900000e-06	-3.799778e-06	-2.241116e-08	-2.742195e+01	-1.465982e+03
2.910000e-06	-3.869706e-06	-2.254907e-08	-2.792660e+01	-1.475683e+03
2.920000e-06	-3.938104e-06	-2.267814e-08	-2.842021e+01	-1.484617e+03
2.930000e-06	-4.005192e-06	-2.279722e-08	-2.890437e+01	-1.492653e+03
2.940000e-06	-4.070818e-06	-2.290809e-08	-2.937797e+01	-1.499783e+03
