# Temperatura_=_61.92
# Concentracion g/m^3_=_41000.0
# C_Vs_to_Am_M_A/Vsm_=_65563218390.804596
# pendiente_HvsI_1/m_=_3716.3
# ordenada_HvsI_A/m_=_1297.0
# frecuencia_Hz_=_301637.57097209775

Tiempo_(s)	Campo_(V.s)	Magnetizacion_(V.s)	Campo_(kA/m)	Magnetizacion_(A/m)
0.000000e+00	-5.325732e-06	-2.320819e-08	-3.833489e+01	-1.517441e+03
1.000000e-08	-5.323770e-06	-2.320701e-08	-3.832077e+01	-1.517297e+03
2.000000e-08	-5.319941e-06	-2.320124e-08	-3.829321e+01	-1.517234e+03
3.000000e-08	-5.314527e-06	-2.319400e-08	-3.825423e+01	-1.517166e+03
4.000000e-08	-5.307508e-06	-2.318557e-08	-3.820371e+01	-1.516971e+03
5.000000e-08	-5.298767e-06	-2.317324e-08	-3.814080e+01	-1.516528e+03
6.000000e-08	-5.288004e-06	-2.315833e-08	-3.806332e+01	-1.515757e+03
7.000000e-08	-5.275352e-06	-2.313668e-08	-3.797225e+01	-1.514638e+03
8.000000e-08	-5.260823e-06	-2.312334e-08	-3.786767e+01	-1.513223e+03
9.000000e-08	-5.243958e-06	-2.315020e-08	-3.774627e+01	-1.511618e+03
1.000000e-07	-5.224860e-06	-2.313887e-08	-3.760881e+01	-1.509953e+03
1.100000e-07	-5.203857e-06	-2.308323e-08	-3.745763e+01	-1.508344e+03
1.200000e-07	-5.181133e-06	-2.305042e-08	-3.729406e+01	-1.506863e+03
1.300000e-07	-5.157017e-06	-2.296133e-08	-3.712047e+01	-1.505512e+03
1.400000e-07	-5.131509e-06	-2.293342e-08	-3.693686e+01	-1.504232e+03
1.500000e-07	-5.104230e-06	-2.301165e-08	-3.674051e+01	-1.502918e+03
1.600000e-07	-5.075285e-06	-2.291699e-08	-3.653216e+01	-1.501451e+03
1.700000e-07	-5.044936e-06	-2.289806e-08	-3.631371e+01	-1.499735e+03
1.800000e-07	-5.012768e-06	-2.295449e-08	-3.608216e+01	-1.497721e+03
1.900000e-07	-4.978449e-06	-2.280076e-08	-3.583513e+01	-1.495421e+03
2.000000e-07	-4.942481e-06	-2.276064e-08	-3.557623e+01	-1.492896e+03
2.100000e-07	-4.904977e-06	-2.278277e-08	-3.530628e+01	-1.490235e+03
2.200000e-07	-4.865709e-06	-2.269890e-08	-3.502362e+01	-1.487526e+03
2.300000e-07	-4.824625e-06	-2.268277e-08	-3.472790e+01	-1.484822e+03
2.400000e-07	-4.781561e-06	-2.263697e-08	-3.441792e+01	-1.482126e+03
2.500000e-07	-4.736732e-06	-2.255545e-08	-3.409524e+01	-1.479390e+03
2.600000e-07	-4.690218e-06	-2.252773e-08	-3.376043e+01	-1.476531e+03
2.700000e-07	-4.641771e-06	-2.247496e-08	-3.341170e+01	-1.473458e+03
2.800000e-07	-4.591170e-06	-2.244212e-08	-3.304748e+01	-1.470100e+03
2.900000e-07	-4.538531e-06	-2.237597e-08	-3.266857e+01	-1.466429e+03
3.000000e-07	-4.484246e-06	-2.228485e-08	-3.227783e+01	-1.462470e+03
3.100000e-07	-4.428397e-06	-2.223377e-08	-3.187583e+01	-1.458290e+03
3.200000e-07	-4.370750e-06	-2.218511e-08	-3.146088e+01	-1.453978e+03
3.300000e-07	-4.311358e-06	-2.212704e-08	-3.103337e+01	-1.449613e+03
3.400000e-07	-4.250480e-06	-2.204854e-08	-3.059517e+01	-1.445240e+03
3.500000e-07	-4.188227e-06	-2.197626e-08	-3.014707e+01	-1.440852e+03
3.600000e-07	-4.124604e-06	-2.189406e-08	-2.968911e+01	-1.436397e+03
3.700000e-07	-4.059555e-06	-2.181492e-08	-2.922088e+01	-1.431788e+03
3.800000e-07	-3.992900e-06	-2.176196e-08	-2.874109e+01	-1.426935e+03
3.900000e-07	-3.924634e-06	-2.168148e-08	-2.824972e+01	-1.421772e+03
4.000000e-07	-3.855023e-06	-2.158665e-08	-2.774865e+01	-1.416283e+03
4.100000e-07	-3.784221e-06	-2.149503e-08	-2.723901e+01	-1.410500e+03
4.200000e-07	-3.712254e-06	-2.140395e-08	-2.672099e+01	-1.404500e+03
4.300000e-07	-3.638900e-06	-2.131648e-08	-2.619298e+01	-1.398376e+03
4.400000e-07	-3.563854e-06	-2.122763e-08	-2.565280e+01	-1.392202e+03
4.500000e-07	-3.487290e-06	-2.114034e-08	-2.510169e+01	-1.386014e+03
4.600000e-07	-3.409465e-06	-2.103323e-08	-2.454150e+01	-1.379787e+03
4.700000e-07	-3.330291e-06	-2.091888e-08	-2.397160e+01	-1.373445e+03
4.800000e-07	-3.249797e-06	-2.081495e-08	-2.339221e+01	-1.366879e+03
4.900000e-07	-3.168097e-06	-2.070843e-08	-2.280413e+01	-1.359980e+03
5.000000e-07	-3.085273e-06	-2.059832e-08	-2.220795e+01	-1.352672e+03
5.100000e-07	-3.001482e-06	-2.048152e-08	-2.160482e+01	-1.344936e+03
5.200000e-07	-2.916873e-06	-2.036305e-08	-2.099580e+01	-1.336813e+03
5.300000e-07	-2.831428e-06	-2.023584e-08	-2.038076e+01	-1.328395e+03
5.400000e-07	-2.745049e-06	-2.010256e-08	-1.975900e+01	-1.319789e+03
5.500000e-07	-2.657750e-06	-1.997529e-08	-1.913062e+01	-1.311078e+03
5.600000e-07	-2.569486e-06	-1.984306e-08	-1.849529e+01	-1.302295e+03
5.700000e-07	-2.480158e-06	-1.970005e-08	-1.785230e+01	-1.293399e+03
5.800000e-07	-2.389667e-06	-1.954741e-08	-1.720094e+01	-1.284287e+03
5.900000e-07	-2.298122e-06	-1.939448e-08	-1.654200e+01	-1.274815e+03
6.000000e-07	-2.205833e-06	-1.923735e-08	-1.587770e+01	-1.264839e+03
6.100000e-07	-2.112849e-06	-1.907345e-08	-1.520840e+01	-1.254259e+03
6.200000e-07	-2.019100e-06	-1.890569e-08	-1.453358e+01	-1.243048e+03
6.300000e-07	-1.924623e-06	-1.873078e-08	-1.385353e+01	-1.231256e+03
6.400000e-07	-1.829565e-06	-1.854842e-08	-1.316930e+01	-1.218994e+03
6.500000e-07	-1.733968e-06	-1.836024e-08	-1.248119e+01	-1.206393e+03
6.600000e-07	-1.637748e-06	-1.816825e-08	-1.178859e+01	-1.193557e+03
6.700000e-07	-1.540849e-06	-1.796781e-08	-1.109111e+01	-1.180519e+03
6.800000e-07	-1.443248e-06	-1.775730e-08	-1.038858e+01	-1.167219e+03
6.900000e-07	-1.345039e-06	-1.753743e-08	-9.681660e+00	-1.153507e+03
7.000000e-07	-1.246278e-06	-1.731053e-08	-8.970776e+00	-1.139180e+03
7.100000e-07	-1.147028e-06	-1.707570e-08	-8.256366e+00	-1.124033e+03
7.200000e-07	-1.047418e-06	-1.683024e-08	-7.539367e+00	-1.107914e+03
7.300000e-07	-9.474855e-07	-1.657401e-08	-6.820049e+00	-1.090764e+03
7.400000e-07	-8.472949e-07	-1.630539e-08	-6.098871e+00	-1.072626e+03
7.500000e-07	-7.469117e-07	-1.602629e-08	-5.376308e+00	-1.053620e+03
7.600000e-07	-6.463272e-07	-1.573509e-08	-4.652296e+00	-1.033886e+03
7.700000e-07	-5.455593e-07	-1.542741e-08	-3.926963e+00	-1.013510e+03
7.800000e-07	-4.446533e-07	-1.510075e-08	-3.200637e+00	-9.924649e+02
7.900000e-07	-3.435911e-07	-1.475356e-08	-2.473186e+00	-9.705719e+02
8.000000e-07	-2.424027e-07	-1.438319e-08	-1.744827e+00	-9.475090e+02
8.100000e-07	-1.411045e-07	-1.399189e-08	-1.015677e+00	-9.228613e+02
8.200000e-07	-3.969941e-08	-1.358138e-08	-2.857584e-01	-8.962034e+02
8.300000e-07	6.171758e-08	-1.314443e-08	4.442462e-01	-8.671865e+02
8.400000e-07	1.631082e-07	-1.267346e-08	1.174061e+00	-8.356016e+02
8.500000e-07	2.644547e-07	-1.216482e-08	1.903558e+00	-8.013910e+02
8.600000e-07	3.657429e-07	-1.161506e-08	2.632636e+00	-7.645937e+02
8.700000e-07	4.669044e-07	-1.102042e-08	3.360802e+00	-7.252302e+02
8.800000e-07	5.679282e-07	-1.037636e-08	4.087976e+00	-6.831494e+02
8.900000e-07	6.688338e-07	-9.672548e-09	4.814300e+00	-6.378804e+02
9.000000e-07	7.695437e-07	-8.896108e-09	5.539215e+00	-5.885340e+02
9.100000e-07	8.700378e-07	-8.034905e-09	6.262576e+00	-5.337983e+02
9.200000e-07	9.703156e-07	-7.074949e-09	6.984381e+00	-4.720510e+02
9.300000e-07	1.070313e-06	-5.998761e-09	7.704164e+00	-4.015875e+02
9.400000e-07	1.169917e-06	-4.781951e-09	8.421120e+00	-3.209330e+02
9.500000e-07	1.269080e-06	-3.404610e-09	9.134900e+00	-2.291842e+02
9.600000e-07	1.367775e-06	-1.854972e-09	9.845315e+00	-1.263105e+02
9.700000e-07	1.465850e-06	-1.368858e-10	1.055126e+01	-1.334699e+01
9.800000e-07	1.563208e-06	1.721691e-09	1.125205e+01	1.075715e+02
9.900000e-07	1.659832e-06	3.670265e-09	1.194755e+01	2.333556e+02
1.000000e-06	1.755741e-06	5.636643e-09	1.263791e+01	3.602709e+02
1.010000e-06	1.851038e-06	7.544256e-09	1.332387e+01	4.843631e+02
1.020000e-06	1.945738e-06	9.327897e-09	1.400552e+01	6.019235e+02
1.030000e-06	2.039739e-06	1.094436e-08	1.468215e+01	7.099136e+02
1.040000e-06	2.133033e-06	1.237287e-08	1.535368e+01	8.062744e+02
1.050000e-06	2.225675e-06	1.361062e-08	1.602052e+01	8.900712e+02
1.060000e-06	2.317656e-06	1.467169e-08	1.668260e+01	9.614577e+02
1.070000e-06	2.408900e-06	1.557776e-08	1.733938e+01	1.021480e+03
1.080000e-06	2.499204e-06	1.635063e-08	1.798940e+01	1.071774e+03
1.090000e-06	2.588375e-06	1.700996e-08	1.863125e+01	1.114218e+03
1.100000e-06	2.676485e-06	1.757772e-08	1.926547e+01	1.150613e+03
1.110000e-06	2.763683e-06	1.806963e-08	1.989313e+01	1.182457e+03
1.120000e-06	2.849990e-06	1.849697e-08	2.051437e+01	1.210820e+03
1.130000e-06	2.935354e-06	1.887238e-08	2.112883e+01	1.236346e+03
1.140000e-06	3.019760e-06	1.920493e-08	2.173639e+01	1.259347e+03
1.150000e-06	3.103269e-06	1.950150e-08	2.233749e+01	1.279944e+03
1.160000e-06	3.185768e-06	1.976736e-08	2.293132e+01	1.298218e+03
1.170000e-06	3.266990e-06	2.000885e-08	2.351596e+01	1.314319e+03
1.180000e-06	3.346996e-06	2.022955e-08	2.409185e+01	1.328517e+03
1.190000e-06	3.425862e-06	2.043319e-08	2.465953e+01	1.341191e+03
1.200000e-06	3.503503e-06	2.062026e-08	2.521839e+01	1.352767e+03
1.210000e-06	3.579951e-06	2.079295e-08	2.576867e+01	1.363632e+03
1.220000e-06	3.655051e-06	2.095549e-08	2.630924e+01	1.374058e+03
1.230000e-06	3.728499e-06	2.110910e-08	2.683792e+01	1.384166e+03
1.240000e-06	3.800408e-06	2.125201e-08	2.735553e+01	1.393919e+03
1.250000e-06	3.871014e-06	2.138373e-08	2.786376e+01	1.403178e+03
1.260000e-06	3.940273e-06	2.150433e-08	2.836228e+01	1.411762e+03
1.270000e-06	4.008259e-06	2.161568e-08	2.885165e+01	1.419534e+03
1.280000e-06	4.074802e-06	2.171924e-08	2.933063e+01	1.426452e+03
1.290000e-06	4.139628e-06	2.181659e-08	2.979725e+01	1.432594e+03
1.300000e-06	4.202928e-06	2.190981e-08	3.025289e+01	1.438140e+03
1.310000e-06	4.264848e-06	2.199874e-08	3.069860e+01	1.443325e+03
1.320000e-06	4.325429e-06	2.208274e-08	3.113466e+01	1.448376e+03
1.330000e-06	4.384673e-06	2.216160e-08	3.156110e+01	1.453450e+03
1.340000e-06	4.442207e-06	2.223642e-08	3.197523e+01	1.458601e+03
1.350000e-06	4.497905e-06	2.230704e-08	3.237615e+01	1.463776e+03
1.360000e-06	4.551970e-06	2.237557e-08	3.276531e+01	1.468839e+03
1.370000e-06	4.604325e-06	2.244153e-08	3.314217e+01	1.473622e+03
1.380000e-06	4.654659e-06	2.250415e-08	3.350447e+01	1.477986e+03
1.390000e-06	4.703051e-06	2.256320e-08	3.385280e+01	1.481859e+03
1.400000e-06	4.749787e-06	2.261818e-08	3.418921e+01	1.485261e+03
1.410000e-06	4.794972e-06	2.266999e-08	3.451445e+01	1.488292e+03
1.420000e-06	4.838690e-06	2.271938e-08	3.482913e+01	1.491105e+03
1.430000e-06	4.880559e-06	2.276482e-08	3.513051e+01	1.493850e+03
1.440000e-06	4.920501e-06	2.280649e-08	3.541802e+01	1.496634e+03
1.450000e-06	4.958780e-06	2.284603e-08	3.569355e+01	1.499487e+03
1.460000e-06	4.995498e-06	2.288326e-08	3.595785e+01	1.502360e+03
1.470000e-06	5.030603e-06	2.291871e-08	3.621053e+01	1.505138e+03
1.480000e-06	5.063755e-06	2.295161e-08	3.644916e+01	1.507686e+03
1.490000e-06	5.095072e-06	2.298079e-08	3.667459e+01	1.509890e+03
1.500000e-06	5.124757e-06	2.300734e-08	3.688826e+01	1.511693e+03
1.510000e-06	5.152771e-06	2.303101e-08	3.708991e+01	1.513117e+03
1.520000e-06	5.178853e-06	2.305190e-08	3.727764e+01	1.514251e+03
1.530000e-06	5.202827e-06	2.307148e-08	3.745021e+01	1.515230e+03
1.540000e-06	5.224948e-06	2.309003e-08	3.760944e+01	1.516190e+03
1.550000e-06	5.245453e-06	2.310912e-08	3.775704e+01	1.517227e+03
1.560000e-06	5.264222e-06	2.312681e-08	3.789214e+01	1.518371e+03
1.570000e-06	5.280940e-06	2.314058e-08	3.801247e+01	1.519581e+03
1.580000e-06	5.295637e-06	2.315207e-08	3.811826e+01	1.520755e+03
1.590000e-06	5.308425e-06	2.316261e-08	3.821031e+01	1.521768e+03
1.600000e-06	5.319072e-06	2.317188e-08	3.828695e+01	1.522509e+03
1.610000e-06	5.327591e-06	2.317878e-08	3.834827e+01	1.522920e+03
1.620000e-06	5.334246e-06	2.318428e-08	3.839618e+01	1.523008e+03
1.630000e-06	5.339100e-06	2.318926e-08	3.843111e+01	1.522849e+03
1.640000e-06	5.342097e-06	2.319218e-08	3.845268e+01	1.522557e+03
1.650000e-06	5.343113e-06	2.319521e-08	3.846000e+01	1.522255e+03
1.660000e-06	5.342249e-06	2.319593e-08	3.845378e+01	1.522030e+03
1.670000e-06	5.339731e-06	2.319369e-08	3.843565e+01	1.521910e+03
1.680000e-06	5.335638e-06	2.319076e-08	3.840619e+01	1.521855e+03
1.690000e-06	5.329657e-06	2.318411e-08	3.836314e+01	1.521767e+03
1.700000e-06	5.321758e-06	2.317510e-08	3.830628e+01	1.521519e+03
1.710000e-06	5.312307e-06	2.316503e-08	3.823826e+01	1.520999e+03
1.720000e-06	5.301280e-06	2.315863e-08	3.815888e+01	1.520139e+03
1.730000e-06	5.288396e-06	2.315351e-08	3.806614e+01	1.518938e+03
1.740000e-06	5.273468e-06	2.308688e-08	3.795869e+01	1.517464e+03
1.750000e-06	5.256354e-06	2.304144e-08	3.783550e+01	1.515831e+03
1.760000e-06	5.236728e-06	2.305448e-08	3.769424e+01	1.514169e+03
1.770000e-06	5.214591e-06	2.304977e-08	3.753489e+01	1.512588e+03
1.780000e-06	5.190759e-06	2.310629e-08	3.736335e+01	1.511141e+03
1.790000e-06	5.166126e-06	2.304284e-08	3.718603e+01	1.509815e+03
1.800000e-06	5.140441e-06	2.292683e-08	3.700115e+01	1.508537e+03
1.810000e-06	5.112782e-06	2.300931e-08	3.680206e+01	1.507194e+03
1.820000e-06	5.083164e-06	2.292070e-08	3.658887e+01	1.505672e+03
1.830000e-06	5.051860e-06	2.282524e-08	3.636355e+01	1.503883e+03
1.840000e-06	5.018626e-06	2.294196e-08	3.612432e+01	1.501793e+03
1.850000e-06	4.983737e-06	2.284417e-08	3.587319e+01	1.499429e+03
1.860000e-06	4.947197e-06	2.277765e-08	3.561017e+01	1.496860e+03
1.870000e-06	4.908626e-06	2.281443e-08	3.533254e+01	1.494180e+03
1.880000e-06	4.868395e-06	2.268602e-08	3.504295e+01	1.491468e+03
1.890000e-06	4.826507e-06	2.268311e-08	3.474144e+01	1.488767e+03
1.900000e-06	4.782875e-06	2.264804e-08	3.442738e+01	1.486066e+03
1.910000e-06	4.737534e-06	2.256353e-08	3.410101e+01	1.483308e+03
1.920000e-06	4.690256e-06	2.258568e-08	3.376070e+01	1.480403e+03
1.930000e-06	4.641300e-06	2.246651e-08	3.340832e+01	1.477263e+03
1.940000e-06	4.590668e-06	2.244718e-08	3.304386e+01	1.473827e+03
1.950000e-06	4.538029e-06	2.243771e-08	3.266496e+01	1.470079e+03
1.960000e-06	4.483458e-06	2.233122e-08	3.227216e+01	1.466056e+03
1.970000e-06	4.427134e-06	2.230840e-08	3.186673e+01	1.461834e+03
1.980000e-06	4.369224e-06	2.220524e-08	3.144989e+01	1.457502e+03
1.990000e-06	4.309907e-06	2.214871e-08	3.102293e+01	1.453132e+03
2.000000e-06	4.249130e-06	2.210196e-08	3.058545e+01	1.448757e+03
2.010000e-06	4.186678e-06	2.201471e-08	3.013592e+01	1.444359e+03
2.020000e-06	4.122508e-06	2.196762e-08	2.967402e+01	1.439873e+03
2.030000e-06	4.056892e-06	2.184779e-08	2.920171e+01	1.435210e+03
2.040000e-06	3.989982e-06	2.178860e-08	2.872010e+01	1.430283e+03
2.050000e-06	3.921729e-06	2.172223e-08	2.822881e+01	1.425038e+03
2.060000e-06	3.851905e-06	2.163044e-08	2.772620e+01	1.419469e+03
2.070000e-06	3.780519e-06	2.157312e-08	2.721237e+01	1.413623e+03
2.080000e-06	3.707920e-06	2.147229e-08	2.668980e+01	1.407583e+03
2.090000e-06	3.634044e-06	2.138596e-08	2.615804e+01	1.401440e+03
2.100000e-06	3.558802e-06	2.127203e-08	2.561644e+01	1.395261e+03
2.110000e-06	3.482125e-06	2.118362e-08	2.506451e+01	1.389066e+03
2.120000e-06	3.403875e-06	2.110149e-08	2.450127e+01	1.382819e+03
2.130000e-06	3.324315e-06	2.098947e-08	2.392859e+01	1.376432e+03
2.140000e-06	3.243681e-06	2.089692e-08	2.334818e+01	1.369791e+03
2.150000e-06	3.161948e-06	2.078591e-08	2.275986e+01	1.362794e+03
2.160000e-06	3.079156e-06	2.067490e-08	2.216392e+01	1.355378e+03
2.170000e-06	2.995408e-06	2.054811e-08	2.156110e+01	1.347538e+03
2.180000e-06	2.910542e-06	2.043287e-08	2.095023e+01	1.339331e+03
2.190000e-06	2.824373e-06	2.032088e-08	2.032998e+01	1.330856e+03
2.200000e-06	2.737002e-06	2.018579e-08	1.970108e+01	1.322216e+03
2.210000e-06	2.648675e-06	2.005230e-08	1.906530e+01	1.313486e+03
2.220000e-06	2.559527e-06	1.991769e-08	1.842361e+01	1.304680e+03
2.230000e-06	2.469505e-06	1.978689e-08	1.777562e+01	1.295742e+03
2.240000e-06	2.378721e-06	1.964175e-08	1.712216e+01	1.286554e+03
2.250000e-06	2.287248e-06	1.949397e-08	1.646373e+01	1.276967e+03
2.260000e-06	2.194982e-06	1.934168e-08	1.579960e+01	1.266846e+03
2.270000e-06	2.101853e-06	1.917508e-08	1.512925e+01	1.256108e+03
2.280000e-06	2.007799e-06	1.900319e-08	1.445224e+01	1.244743e+03
2.290000e-06	1.912894e-06	1.882888e-08	1.376911e+01	1.232821e+03
2.300000e-06	1.817265e-06	1.865287e-08	1.308076e+01	1.220461e+03
2.310000e-06	1.721035e-06	1.846932e-08	1.238810e+01	1.207793e+03
2.320000e-06	1.624364e-06	1.827584e-08	1.169225e+01	1.194906e+03
2.330000e-06	1.527185e-06	1.807393e-08	1.099276e+01	1.181812e+03
2.340000e-06	1.429381e-06	1.786492e-08	1.028875e+01	1.168425e+03
2.350000e-06	1.331130e-06	1.764271e-08	9.581538e+00	1.154578e+03
2.360000e-06	1.232568e-06	1.740969e-08	8.872090e+00	1.140064e+03
2.370000e-06	1.133668e-06	1.716943e-08	8.160201e+00	1.124684e+03
2.380000e-06	1.034488e-06	1.692321e-08	7.446295e+00	1.108308e+03
2.390000e-06	9.350658e-07	1.666978e-08	6.730651e+00	1.090902e+03
2.400000e-06	8.353647e-07	1.640079e-08	6.012997e+00	1.072534e+03
2.410000e-06	7.353627e-07	1.611777e-08	5.293178e+00	1.053333e+03
2.420000e-06	6.350761e-07	1.582093e-08	4.571310e+00	1.033433e+03
2.430000e-06	5.345467e-07	1.550748e-08	3.847694e+00	1.012897e+03
2.440000e-06	4.338171e-07	1.517757e-08	3.122638e+00	9.916623e+02
2.450000e-06	3.329453e-07	1.483063e-08	2.396557e+00	9.695112e+02
2.460000e-06	2.319387e-07	1.446317e-08	1.669507e+00	9.460923e+02
2.470000e-06	1.308158e-07	1.406965e-08	9.416188e-01	9.209796e+02
2.480000e-06	2.956750e-08	1.364987e-08	2.128284e-01	8.937593e+02
2.490000e-06	-7.177947e-08	1.320427e-08	-5.166722e-01	8.641131e+02
2.500000e-06	-1.730920e-07	1.272800e-08	-1.245925e+00	8.318713e+02
2.510000e-06	-2.742384e-07	1.221586e-08	-1.973982e+00	7.970080e+02
2.520000e-06	-3.752234e-07	1.166286e-08	-2.700877e+00	7.595705e+02
2.530000e-06	-4.761081e-07	1.106025e-08	-3.427050e+00	7.195513e+02
2.540000e-06	-5.768734e-07	1.040263e-08	-4.152364e+00	6.767322e+02
2.550000e-06	-6.774331e-07	9.683329e-09	-4.876198e+00	6.305437e+02
2.560000e-06	-7.776869e-07	8.890835e-09	-5.597830e+00	5.799873e+02
2.570000e-06	-8.776634e-07	8.013468e-09	-6.317466e+00	5.236580e+02
2.580000e-06	-9.773810e-07	7.036075e-09	-7.035238e+00	4.598877e+02
2.590000e-06	-1.076761e-06	5.937529e-09	-7.750578e+00	3.869974e+02
2.600000e-06	-1.175738e-06	4.694235e-09	-8.463024e+00	3.036238e+02
2.610000e-06	-1.274353e-06	3.287282e-09	-9.172858e+00	2.090565e+02
2.620000e-06	-1.372601e-06	1.708572e-09	-9.880051e+00	1.035189e+02
2.630000e-06	-1.470346e-06	-3.510395e-11	-1.058363e+01	-1.167536e+01
2.640000e-06	-1.567535e-06	-1.913768e-09	-1.128319e+01	-1.341322e+02
2.650000e-06	-1.664168e-06	-3.873962e-09	-1.197877e+01	-2.605663e+02
2.660000e-06	-1.760299e-06	-5.843507e-09	-1.267072e+01	-3.871456e+02
2.670000e-06	-1.855953e-06	-7.746664e-09	-1.335924e+01	-5.099337e+02
2.680000e-06	-1.951024e-06	-9.518800e-09	-1.404357e+01	-6.253529e+02
2.690000e-06	-2.045289e-06	-1.111641e-08	-1.472210e+01	-7.305865e+02
2.700000e-06	-2.138522e-06	-1.252196e-08	-1.539319e+01	-8.238502e+02
2.710000e-06	-2.230805e-06	-1.373865e-08	-1.605745e+01	-9.044914e+02
2.720000e-06	-2.322333e-06	-1.478318e-08	-1.671627e+01	-9.729108e+02
2.730000e-06	-2.413127e-06	-1.567606e-08	-1.736981e+01	-1.030333e+03
2.740000e-06	-2.503040e-06	-1.643839e-08	-1.801701e+01	-1.078487e+03
2.750000e-06	-2.592032e-06	-1.709007e-08	-1.865758e+01	-1.119259e+03
2.760000e-06	-2.680213e-06	-1.764878e-08	-1.929231e+01	-1.154393e+03
2.770000e-06	-2.767630e-06	-1.813020e-08	-1.992154e+01	-1.185284e+03
2.780000e-06	-2.854131e-06	-1.855016e-08	-2.054418e+01	-1.212893e+03
2.790000e-06	-2.939411e-06	-1.892198e-08	-2.115803e+01	-1.237769e+03
2.800000e-06	-3.023445e-06	-1.925299e-08	-2.176291e+01	-1.260162e+03
2.810000e-06	-3.106444e-06	-1.954819e-08	-2.236034e+01	-1.280171e+03
2.820000e-06	-3.188457e-06	-1.981128e-08	-2.295068e+01	-1.297884e+03
2.830000e-06	-3.269433e-06	-2.004863e-08	-2.353354e+01	-1.313479e+03
2.840000e-06	-3.349323e-06	-2.026857e-08	-2.410860e+01	-1.327259e+03
2.850000e-06	-3.428009e-06	-2.047100e-08	-2.467498e+01	-1.339619e+03
2.860000e-06	-3.505198e-06	-2.065721e-08	-2.523060e+01	-1.350985e+03
2.870000e-06	-3.580862e-06	-2.082983e-08	-2.577523e+01	-1.361721e+03
2.880000e-06	-3.655187e-06	-2.098865e-08	-2.631022e+01	-1.372064e+03
2.890000e-06	-3.728206e-06	-2.113620e-08	-2.683581e+01	-1.382092e+03
2.900000e-06	-3.799975e-06	-2.127409e-08	-2.735241e+01	-1.391738e+03
2.910000e-06	-3.870348e-06	-2.140394e-08	-2.785896e+01	-1.400845e+03
2.920000e-06	-3.939103e-06	-2.152415e-08	-2.835386e+01	-1.409237e+03
2.930000e-06	-4.006406e-06	-2.163537e-08	-2.883831e+01	-1.416795e+03
2.940000e-06	-4.072397e-06	-2.173993e-08	-2.931332e+01	-1.423508e+03
