# Temperatura_=_38.67
# Concentracion g/m^3_=_41000.0
# C_Vs_to_Am_M_A/Vsm_=_65563218390.804596
# pendiente_HvsI_1/m_=_3716.3
# ordenada_HvsI_A/m_=_1297.0
# frecuencia_Hz_=_301638.3616041088

Tiempo_(s)	Campo_(V.s)	Magnetizacion_(V.s)	Campo_(kA/m)	Magnetizacion_(A/m)
0.000000e+00	-5.327233e-06	-2.393809e-08	-3.833719e+01	-1.565529e+03
1.000000e-08	-5.324952e-06	-2.393515e-08	-3.832077e+01	-1.565153e+03
2.000000e-08	-5.320819e-06	-2.392687e-08	-3.829103e+01	-1.564846e+03
3.000000e-08	-5.315052e-06	-2.392070e-08	-3.824953e+01	-1.564606e+03
4.000000e-08	-5.307675e-06	-2.391315e-08	-3.819644e+01	-1.564375e+03
5.000000e-08	-5.298669e-06	-2.390034e-08	-3.813163e+01	-1.564054e+03
6.000000e-08	-5.287686e-06	-2.388486e-08	-3.805259e+01	-1.563537e+03
7.000000e-08	-5.274683e-06	-2.386015e-08	-3.795901e+01	-1.562741e+03
8.000000e-08	-5.259646e-06	-2.385770e-08	-3.785080e+01	-1.561637e+03
9.000000e-08	-5.242316e-06	-2.390078e-08	-3.772608e+01	-1.560262e+03
1.000000e-07	-5.222816e-06	-2.386820e-08	-3.758576e+01	-1.558703e+03
1.100000e-07	-5.201441e-06	-2.381353e-08	-3.743193e+01	-1.557079e+03
1.200000e-07	-5.178432e-06	-2.378809e-08	-3.726635e+01	-1.555501e+03
1.300000e-07	-5.154127e-06	-2.366097e-08	-3.709144e+01	-1.554041e+03
1.400000e-07	-5.128292e-06	-2.368304e-08	-3.690552e+01	-1.552705e+03
1.500000e-07	-5.100587e-06	-2.375884e-08	-3.670614e+01	-1.551431e+03
1.600000e-07	-5.071331e-06	-2.360484e-08	-3.649560e+01	-1.550107e+03
1.700000e-07	-5.040649e-06	-2.369070e-08	-3.627480e+01	-1.548601e+03
1.800000e-07	-5.008031e-06	-2.371524e-08	-3.604007e+01	-1.546797e+03
1.900000e-07	-4.973312e-06	-2.347606e-08	-3.579021e+01	-1.544630e+03
2.000000e-07	-4.937055e-06	-2.350188e-08	-3.552929e+01	-1.542105e+03
2.100000e-07	-4.899201e-06	-2.347877e-08	-3.525688e+01	-1.539289e+03
2.200000e-07	-4.859596e-06	-2.339372e-08	-3.497186e+01	-1.536295e+03
2.300000e-07	-4.818164e-06	-2.344367e-08	-3.467369e+01	-1.533248e+03
2.400000e-07	-4.774712e-06	-2.336538e-08	-3.436100e+01	-1.530242e+03
2.500000e-07	-4.729440e-06	-2.329074e-08	-3.403520e+01	-1.527319e+03
2.600000e-07	-4.682396e-06	-2.325420e-08	-3.369665e+01	-1.524453e+03
2.700000e-07	-4.633513e-06	-2.318798e-08	-3.334487e+01	-1.521562e+03
2.800000e-07	-4.582578e-06	-2.319486e-08	-3.297831e+01	-1.518529e+03
2.900000e-07	-4.529595e-06	-2.311298e-08	-3.259702e+01	-1.515245e+03
3.000000e-07	-4.474933e-06	-2.300569e-08	-3.220365e+01	-1.511634e+03
3.100000e-07	-4.418712e-06	-2.297525e-08	-3.179906e+01	-1.507677e+03
3.200000e-07	-4.360666e-06	-2.293930e-08	-3.138133e+01	-1.503419e+03
3.300000e-07	-4.300945e-06	-2.286940e-08	-3.095156e+01	-1.498949e+03
3.400000e-07	-4.239826e-06	-2.278982e-08	-3.051171e+01	-1.494370e+03
3.500000e-07	-4.177248e-06	-2.274291e-08	-3.006137e+01	-1.489769e+03
3.600000e-07	-4.113367e-06	-2.264049e-08	-2.960165e+01	-1.485187e+03
3.700000e-07	-4.047999e-06	-2.255938e-08	-2.913124e+01	-1.480605e+03
3.800000e-07	-3.980943e-06	-2.253253e-08	-2.864868e+01	-1.475953e+03
3.900000e-07	-3.912383e-06	-2.244790e-08	-2.815529e+01	-1.471127e+03
4.000000e-07	-3.842492e-06	-2.234906e-08	-2.765231e+01	-1.466027e+03
4.100000e-07	-3.771392e-06	-2.224654e-08	-2.714065e+01	-1.460584e+03
4.200000e-07	-3.699172e-06	-2.215970e-08	-2.662092e+01	-1.454782e+03
4.300000e-07	-3.625507e-06	-2.208033e-08	-2.609080e+01	-1.448664e+03
4.400000e-07	-3.550122e-06	-2.199715e-08	-2.554829e+01	-1.442314e+03
4.500000e-07	-3.473309e-06	-2.191098e-08	-2.499551e+01	-1.435831e+03
4.600000e-07	-3.395241e-06	-2.179595e-08	-2.443369e+01	-1.429293e+03
4.700000e-07	-3.315811e-06	-2.167502e-08	-2.386208e+01	-1.422733e+03
4.800000e-07	-3.235057e-06	-2.156834e-08	-2.328094e+01	-1.416123e+03
4.900000e-07	-3.153088e-06	-2.147418e-08	-2.269105e+01	-1.409381e+03
5.000000e-07	-3.070009e-06	-2.137312e-08	-2.209318e+01	-1.402395e+03
5.100000e-07	-2.986092e-06	-2.125780e-08	-2.148927e+01	-1.395057e+03
5.200000e-07	-2.901368e-06	-2.113788e-08	-2.087957e+01	-1.387295e+03
5.300000e-07	-2.815724e-06	-2.100568e-08	-2.026323e+01	-1.379091e+03
5.400000e-07	-2.729089e-06	-2.087052e-08	-1.963976e+01	-1.370492e+03
5.500000e-07	-2.641531e-06	-2.074751e-08	-1.900966e+01	-1.361585e+03
5.600000e-07	-2.553069e-06	-2.061957e-08	-1.837305e+01	-1.352469e+03
5.700000e-07	-2.463442e-06	-2.047717e-08	-1.772804e+01	-1.343219e+03
5.800000e-07	-2.372629e-06	-2.032079e-08	-1.707451e+01	-1.333855e+03
5.900000e-07	-2.280987e-06	-2.016478e-08	-1.641502e+01	-1.324328e+03
6.000000e-07	-2.188671e-06	-2.000749e-08	-1.575067e+01	-1.314529e+03
6.100000e-07	-2.095579e-06	-1.984806e-08	-1.508074e+01	-1.304319e+03
6.200000e-07	-2.001689e-06	-1.968583e-08	-1.440506e+01	-1.293566e+03
6.300000e-07	-1.907040e-06	-1.951197e-08	-1.372393e+01	-1.282185e+03
6.400000e-07	-1.811754e-06	-1.932877e-08	-1.303820e+01	-1.270160e+03
6.500000e-07	-1.715985e-06	-1.913631e-08	-1.234900e+01	-1.257551e+03
6.600000e-07	-1.619694e-06	-1.894105e-08	-1.165605e+01	-1.244469e+03
6.700000e-07	-1.522714e-06	-1.874271e-08	-1.095814e+01	-1.231036e+03
6.800000e-07	-1.424972e-06	-1.853728e-08	-1.025474e+01	-1.217339e+03
6.900000e-07	-1.326556e-06	-1.832052e-08	-9.546496e+00	-1.203393e+03
7.000000e-07	-1.227583e-06	-1.809381e-08	-8.834242e+00	-1.189125e+03
7.100000e-07	-1.128195e-06	-1.786093e-08	-8.119004e+00	-1.174379e+03
7.200000e-07	-1.028552e-06	-1.761989e-08	-7.401930e+00	-1.158956e+03
7.300000e-07	-9.286560e-07	-1.736798e-08	-6.683031e+00	-1.142667e+03
7.400000e-07	-8.285119e-07	-1.710396e-08	-5.962348e+00	-1.125377e+03
7.500000e-07	-7.280875e-07	-1.683273e-08	-5.239648e+00	-1.107041e+03
7.600000e-07	-6.273679e-07	-1.655019e-08	-4.514824e+00	-1.087709e+03
7.700000e-07	-5.264614e-07	-1.625042e-08	-3.788655e+00	-1.067492e+03
7.800000e-07	-4.254042e-07	-1.593408e-08	-3.061402e+00	-1.046507e+03
7.900000e-07	-3.242220e-07	-1.559937e-08	-2.333249e+00	-1.024815e+03
8.000000e-07	-2.229600e-07	-1.524624e-08	-1.604521e+00	-1.002360e+03
8.100000e-07	-1.215783e-07	-1.487585e-08	-8.749323e-01	-9.789506e+02
8.200000e-07	-2.012456e-08	-1.448909e-08	-1.448255e-01	-9.542721e+02
8.300000e-07	8.134904e-08	-1.408281e-08	5.854246e-01	-9.279411e+02
8.400000e-07	1.828099e-07	-1.364985e-08	1.315583e+00	-8.995838e+02
8.500000e-07	2.841947e-07	-1.318407e-08	2.045194e+00	-8.689139e+02
8.600000e-07	3.855089e-07	-1.268649e-08	2.774297e+00	-8.357801e+02
8.700000e-07	4.867009e-07	-1.215572e-08	3.502521e+00	-8.001641e+02
8.800000e-07	5.876970e-07	-1.158806e-08	4.229335e+00	-7.621153e+02
8.900000e-07	6.884903e-07	-1.097850e-08	4.954689e+00	-7.216343e+02
9.000000e-07	7.891027e-07	-1.031792e-08	5.678741e+00	-6.785287e+02
9.100000e-07	8.895059e-07	-9.599030e-09	6.401288e+00	-6.322822e+02
9.200000e-07	9.896276e-07	-8.810782e-09	7.121810e+00	-5.819794e+02
9.300000e-07	1.089475e-06	-7.943373e-09	7.840356e+00	-5.263230e+02
9.400000e-07	1.189088e-06	-6.980112e-09	8.557218e+00	-4.637601e+02
9.500000e-07	1.288287e-06	-5.900327e-09	9.271098e+00	-3.927094e+02
9.600000e-07	1.386850e-06	-4.681412e-09	9.980403e+00	-3.118580e+02
9.700000e-07	1.484732e-06	-3.304722e-09	1.068480e+01	-2.204709e+02
9.800000e-07	1.581873e-06	-1.763714e-09	1.138387e+01	-1.186508e+02
9.900000e-07	1.678260e-06	-6.593854e-11	1.207752e+01	-7.489542e+00
1.000000e-06	1.774045e-06	1.759094e-09	1.276683e+01	1.109312e+02
1.010000e-06	1.869272e-06	3.660891e-09	1.345213e+01	2.336998e+02
1.020000e-06	1.963815e-06	5.571524e-09	1.413250e+01	3.573756e+02
1.030000e-06	2.057641e-06	7.423181e-09	1.480772e+01	4.783808e+02
1.040000e-06	2.150792e-06	9.160626e-09	1.547808e+01	5.934136e+02
1.050000e-06	2.243266e-06	1.074985e-08	1.614356e+01	6.998114e+02
1.060000e-06	2.335126e-06	1.217519e-08	1.680463e+01	7.957991e+02
1.070000e-06	2.426303e-06	1.343465e-08	1.746078e+01	8.805891e+02
1.080000e-06	2.516429e-06	1.454057e-08	1.810936e+01	9.543227e+02
1.090000e-06	2.605286e-06	1.550711e-08	1.874882e+01	1.017880e+03
1.100000e-06	2.693142e-06	1.635109e-08	1.938108e+01	1.072610e+03
1.110000e-06	2.780194e-06	1.708595e-08	2.000754e+01	1.120031e+03
1.120000e-06	2.866328e-06	1.772722e-08	2.062740e+01	1.161577e+03
1.130000e-06	2.951525e-06	1.828746e-08	2.124052e+01	1.198420e+03
1.140000e-06	3.035826e-06	1.877770e-08	2.184718e+01	1.231390e+03
1.150000e-06	3.119277e-06	1.921168e-08	2.244774e+01	1.261000e+03
1.160000e-06	3.201625e-06	1.959921e-08	2.304035e+01	1.287530e+03
1.170000e-06	3.282651e-06	1.994896e-08	2.362345e+01	1.311154e+03
1.180000e-06	3.362482e-06	2.026215e-08	2.419795e+01	1.332050e+03
1.190000e-06	3.441102e-06	2.054327e-08	2.476373e+01	1.350478e+03
1.200000e-06	3.518512e-06	2.079710e-08	2.532081e+01	1.366799e+03
1.210000e-06	3.594728e-06	2.102778e-08	2.586930e+01	1.381445e+03
1.220000e-06	3.669584e-06	2.123833e-08	2.640800e+01	1.394854e+03
1.230000e-06	3.742802e-06	2.143234e-08	2.693490e+01	1.407395e+03
1.240000e-06	3.814450e-06	2.161337e-08	2.745052e+01	1.419313e+03
1.250000e-06	3.884779e-06	2.178270e-08	2.795663e+01	1.430698e+03
1.260000e-06	3.953810e-06	2.194060e-08	2.845341e+01	1.441514e+03
1.270000e-06	4.021599e-06	2.208806e-08	2.894125e+01	1.451637e+03
1.280000e-06	4.087865e-06	2.222374e-08	2.941813e+01	1.460933e+03
1.290000e-06	4.152411e-06	2.234837e-08	2.988263e+01	1.469315e+03
1.300000e-06	4.215497e-06	2.246373e-08	3.033663e+01	1.476791e+03
1.310000e-06	4.277224e-06	2.256997e-08	3.078084e+01	1.483469e+03
1.320000e-06	4.337608e-06	2.266792e-08	3.121540e+01	1.489537e+03
1.330000e-06	4.396541e-06	2.275736e-08	3.163950e+01	1.495211e+03
1.340000e-06	4.453637e-06	2.284171e-08	3.205039e+01	1.500685e+03
1.350000e-06	4.509001e-06	2.292301e-08	3.244882e+01	1.506080e+03
1.360000e-06	4.562872e-06	2.300139e-08	3.283650e+01	1.511424e+03
1.370000e-06	4.614995e-06	2.307636e-08	3.321160e+01	1.516657e+03
1.380000e-06	4.665037e-06	2.314726e-08	3.357172e+01	1.521663e+03
1.390000e-06	4.713104e-06	2.321434e-08	3.391763e+01	1.526314e+03
1.400000e-06	4.759580e-06	2.327654e-08	3.425210e+01	1.530517e+03
1.410000e-06	4.804540e-06	2.333346e-08	3.457565e+01	1.534245e+03
1.420000e-06	4.847958e-06	2.338643e-08	3.488811e+01	1.537546e+03
1.430000e-06	4.889456e-06	2.343546e-08	3.518674e+01	1.540527e+03
1.440000e-06	4.929095e-06	2.348106e-08	3.547200e+01	1.543323e+03
1.450000e-06	4.967202e-06	2.352481e-08	3.574624e+01	1.546049e+03
1.460000e-06	5.003698e-06	2.356756e-08	3.600889e+01	1.548774e+03
1.470000e-06	5.038421e-06	2.360716e-08	3.625876e+01	1.551496e+03
1.480000e-06	5.071172e-06	2.364186e-08	3.649446e+01	1.554153e+03
1.490000e-06	5.102160e-06	2.367263e-08	3.671746e+01	1.556641e+03
1.500000e-06	5.131530e-06	2.370150e-08	3.692882e+01	1.558856e+03
1.510000e-06	5.159258e-06	2.372702e-08	3.712837e+01	1.560725e+03
1.520000e-06	5.184973e-06	2.374890e-08	3.731342e+01	1.562233e+03
1.530000e-06	5.208569e-06	2.376815e-08	3.748323e+01	1.563430e+03
1.540000e-06	5.230366e-06	2.378504e-08	3.764009e+01	1.564414e+03
1.550000e-06	5.250516e-06	2.380217e-08	3.778510e+01	1.565301e+03
1.560000e-06	5.268878e-06	2.382011e-08	3.791724e+01	1.566193e+03
1.570000e-06	5.285245e-06	2.383688e-08	3.803502e+01	1.567143e+03
1.580000e-06	5.299680e-06	2.385080e-08	3.813890e+01	1.568145e+03
1.590000e-06	5.312130e-06	2.386245e-08	3.822850e+01	1.569134e+03
1.600000e-06	5.322329e-06	2.387176e-08	3.830190e+01	1.570012e+03
1.610000e-06	5.330382e-06	2.387788e-08	3.835985e+01	1.570677e+03
1.620000e-06	5.336610e-06	2.388186e-08	3.840467e+01	1.571061e+03
1.630000e-06	5.341096e-06	2.388449e-08	3.843695e+01	1.571148e+03
1.640000e-06	5.343709e-06	2.388668e-08	3.845576e+01	1.570980e+03
1.650000e-06	5.344299e-06	2.389005e-08	3.846000e+01	1.570647e+03
1.660000e-06	5.343095e-06	2.388805e-08	3.845134e+01	1.570255e+03
1.670000e-06	5.340272e-06	2.388503e-08	3.843102e+01	1.569892e+03
1.680000e-06	5.335836e-06	2.388467e-08	3.839910e+01	1.569603e+03
1.690000e-06	5.329517e-06	2.387897e-08	3.835362e+01	1.569371e+03
1.700000e-06	5.321340e-06	2.387019e-08	3.829478e+01	1.569127e+03
1.710000e-06	5.311614e-06	2.386373e-08	3.822479e+01	1.568765e+03
1.720000e-06	5.300229e-06	2.386442e-08	3.814286e+01	1.568183e+03
1.730000e-06	5.286882e-06	2.385326e-08	3.804680e+01	1.567309e+03
1.740000e-06	5.271494e-06	2.375886e-08	3.793606e+01	1.566131e+03
1.750000e-06	5.253953e-06	2.374525e-08	3.780983e+01	1.564698e+03
1.760000e-06	5.233864e-06	2.376376e-08	3.766526e+01	1.563110e+03
1.770000e-06	5.211304e-06	2.375667e-08	3.750291e+01	1.561487e+03
1.780000e-06	5.187211e-06	2.384626e-08	3.732952e+01	1.559933e+03
1.790000e-06	5.162421e-06	2.371092e-08	3.715113e+01	1.558505e+03
1.800000e-06	5.136416e-06	2.365056e-08	3.696398e+01	1.557191e+03
1.810000e-06	5.108352e-06	2.377008e-08	3.676202e+01	1.555916e+03
1.820000e-06	5.078377e-06	2.357892e-08	3.654631e+01	1.554557e+03
1.830000e-06	5.046662e-06	2.359744e-08	3.631807e+01	1.552985e+03
1.840000e-06	5.013068e-06	2.374999e-08	3.607632e+01	1.551092e+03
1.850000e-06	4.977943e-06	2.357716e-08	3.582354e+01	1.548832e+03
1.860000e-06	4.941040e-06	2.363218e-08	3.555796e+01	1.546223e+03
1.870000e-06	4.902091e-06	2.362123e-08	3.527767e+01	1.543350e+03
1.880000e-06	4.861543e-06	2.342269e-08	3.498587e+01	1.540331e+03
1.890000e-06	4.819278e-06	2.347328e-08	3.468172e+01	1.537286e+03
1.900000e-06	4.775305e-06	2.337578e-08	3.436527e+01	1.534298e+03
1.910000e-06	4.729596e-06	2.337796e-08	3.403632e+01	1.531393e+03
1.920000e-06	4.681953e-06	2.339242e-08	3.369346e+01	1.528529e+03
1.930000e-06	4.632731e-06	2.318327e-08	3.333923e+01	1.525612e+03
1.940000e-06	4.581788e-06	2.326679e-08	3.297263e+01	1.522525e+03
1.950000e-06	4.528760e-06	2.321714e-08	3.259101e+01	1.519163e+03
1.960000e-06	4.473805e-06	2.308879e-08	3.219553e+01	1.515463e+03
1.970000e-06	4.417104e-06	2.308750e-08	3.178749e+01	1.511424e+03
1.980000e-06	4.358875e-06	2.297802e-08	3.136844e+01	1.507102e+03
1.990000e-06	4.299325e-06	2.295665e-08	3.093989e+01	1.502594e+03
2.000000e-06	4.238259e-06	2.285553e-08	3.050043e+01	1.498001e+03
2.010000e-06	4.175426e-06	2.281396e-08	3.004826e+01	1.493403e+03
2.020000e-06	4.110954e-06	2.276786e-08	2.958430e+01	1.488823e+03
2.030000e-06	4.045115e-06	2.260255e-08	2.911048e+01	1.484232e+03
2.040000e-06	3.977996e-06	2.258054e-08	2.862746e+01	1.479545e+03
2.050000e-06	3.909537e-06	2.249919e-08	2.813480e+01	1.474658e+03
2.060000e-06	3.839504e-06	2.244350e-08	2.763081e+01	1.469475e+03
2.070000e-06	3.767940e-06	2.236811e-08	2.711581e+01	1.463940e+03
2.080000e-06	3.695104e-06	2.224858e-08	2.659164e+01	1.458052e+03
2.090000e-06	3.620944e-06	2.217769e-08	2.605796e+01	1.451865e+03
2.100000e-06	3.545436e-06	2.204611e-08	2.551457e+01	1.445472e+03
2.110000e-06	3.468375e-06	2.198493e-08	2.496000e+01	1.438968e+03
2.120000e-06	3.389735e-06	2.189864e-08	2.439408e+01	1.432423e+03
2.130000e-06	3.309902e-06	2.179239e-08	2.381956e+01	1.425855e+03
2.140000e-06	3.229011e-06	2.169097e-08	2.323743e+01	1.419219e+03
2.150000e-06	3.147049e-06	2.156812e-08	2.264760e+01	1.412426e+03
2.160000e-06	3.064085e-06	2.146127e-08	2.205055e+01	1.405360e+03
2.170000e-06	2.980215e-06	2.132732e-08	2.144698e+01	1.397920e+03
2.180000e-06	2.895157e-06	2.122778e-08	2.083486e+01	1.390045e+03
2.190000e-06	2.808706e-06	2.111527e-08	2.021272e+01	1.381735e+03
2.200000e-06	2.721160e-06	2.098061e-08	1.958270e+01	1.373048e+03
2.210000e-06	2.632719e-06	2.084219e-08	1.894624e+01	1.364078e+03
2.220000e-06	2.543411e-06	2.070572e-08	1.830354e+01	1.354923e+03
2.230000e-06	2.453218e-06	2.057904e-08	1.765447e+01	1.345644e+03
2.240000e-06	2.362226e-06	2.043398e-08	1.699965e+01	1.336245e+03
2.250000e-06	2.270600e-06	2.029185e-08	1.634027e+01	1.326660e+03
2.260000e-06	2.178256e-06	2.013574e-08	1.567572e+01	1.316771e+03
2.270000e-06	2.084840e-06	1.996588e-08	1.500345e+01	1.306435e+03
2.280000e-06	1.990352e-06	1.978844e-08	1.432348e+01	1.295530e+03
2.290000e-06	1.895093e-06	1.961500e-08	1.363795e+01	1.283985e+03
2.300000e-06	1.799310e-06	1.944696e-08	1.294865e+01	1.271805e+03
2.310000e-06	1.703047e-06	1.926816e-08	1.225590e+01	1.259065e+03
2.320000e-06	1.606236e-06	1.907422e-08	1.155920e+01	1.245882e+03
2.330000e-06	1.508872e-06	1.886745e-08	1.085853e+01	1.232376e+03
2.340000e-06	1.410962e-06	1.865751e-08	1.015392e+01	1.218618e+03
2.350000e-06	1.312646e-06	1.843693e-08	9.446394e+00	1.204601e+03
2.360000e-06	1.213942e-06	1.820751e-08	8.736080e+00	1.190229e+03
2.370000e-06	1.114867e-06	1.797206e-08	8.023089e+00	1.175332e+03
2.380000e-06	1.015576e-06	1.773204e-08	7.308544e+00	1.159708e+03
2.390000e-06	9.161035e-07	1.748165e-08	6.592697e+00	1.143176e+03
2.400000e-06	8.164079e-07	1.721370e-08	5.875242e+00	1.125624e+03
2.410000e-06	7.164411e-07	1.693634e-08	5.155836e+00	1.107030e+03
2.420000e-06	6.161786e-07	1.664854e-08	4.434301e+00	1.087464e+03
2.430000e-06	5.156894e-07	1.634445e-08	3.711135e+00	1.067044e+03
2.440000e-06	4.150088e-07	1.602613e-08	2.986592e+00	1.045879e+03
2.450000e-06	3.141181e-07	1.569601e-08	2.260536e+00	1.024005e+03
2.460000e-06	2.130516e-07	1.534585e-08	1.533216e+00	1.001333e+03
2.470000e-06	1.118548e-07	1.496918e-08	8.049579e-01	9.776392e+02
2.480000e-06	1.048739e-08	1.457133e-08	7.547201e-02	9.525833e+02
2.490000e-06	-9.095393e-08	1.415733e-08	-6.545458e-01	9.257773e+02
2.500000e-06	-1.922718e-07	1.372202e-08	-1.383675e+00	8.968627e+02
2.510000e-06	-2.934301e-07	1.325805e-08	-2.111656e+00	8.655841e+02
2.520000e-06	-3.944197e-07	1.275703e-08	-2.838423e+00	8.318260e+02
2.530000e-06	-4.952012e-07	1.221504e-08	-3.563693e+00	7.955955e+02
2.540000e-06	-5.958160e-07	1.163309e-08	-4.287763e+00	7.569424e+02
2.550000e-06	-6.962258e-07	1.100838e-08	-5.010357e+00	7.158328e+02
2.560000e-06	-7.963552e-07	1.033419e-08	-5.730933e+00	6.720041e+02
2.570000e-06	-8.961860e-07	9.600297e-09	-6.449362e+00	6.248441e+02
2.580000e-06	-9.957365e-07	8.796048e-09	-7.165772e+00	5.733363e+02
2.590000e-06	-1.095063e-06	7.908622e-09	-7.880571e+00	5.161033e+02
2.600000e-06	-1.194096e-06	6.921944e-09	-8.593257e+00	4.515604e+02
2.610000e-06	-1.292674e-06	5.818978e-09	-9.302667e+00	3.781640e+02
2.620000e-06	-1.390769e-06	4.577430e-09	-1.000861e+01	2.947174e+02
2.630000e-06	-1.488404e-06	3.176910e-09	-1.071123e+01	2.006741e+02
2.640000e-06	-1.585515e-06	1.610797e-09	-1.141009e+01	9.637521e+01
2.650000e-06	-1.682107e-06	-1.099428e-10	-1.210520e+01	-1.683371e+01
2.660000e-06	-1.778221e-06	-1.953970e-09	-1.279688e+01	-1.366423e+02
2.670000e-06	-1.873830e-06	-3.869547e-09	-1.348493e+01	-2.599740e+02
2.680000e-06	-1.968833e-06	-5.785424e-09	-1.416862e+01	-3.833149e+02
2.690000e-06	-2.063028e-06	-7.630781e-09	-1.484649e+01	-5.031183e+02
2.700000e-06	-2.156192e-06	-9.353061e-09	-1.551694e+01	-6.162118e+02
2.710000e-06	-2.248358e-06	-1.092474e-08	-1.618021e+01	-7.201365e+02
2.720000e-06	-2.339686e-06	-1.233356e-08	-1.683744e+01	-8.133615e+02
2.730000e-06	-2.430242e-06	-1.358052e-08	-1.748912e+01	-8.953424e+02
2.740000e-06	-2.519963e-06	-1.467436e-08	-1.813480e+01	-9.664274e+02
2.750000e-06	-2.608795e-06	-1.562815e-08	-1.877407e+01	-1.027641e+03
2.760000e-06	-2.696803e-06	-1.645808e-08	-1.940742e+01	-1.080402e+03
2.770000e-06	-2.784061e-06	-1.718039e-08	-2.003537e+01	-1.126229e+03
2.780000e-06	-2.870348e-06	-1.781391e-08	-2.065633e+01	-1.166503e+03
2.790000e-06	-2.955349e-06	-1.837015e-08	-2.126803e+01	-1.202315e+03
2.800000e-06	-3.039203e-06	-1.885758e-08	-2.187148e+01	-1.234409e+03
2.810000e-06	-3.122113e-06	-1.928744e-08	-2.246815e+01	-1.263230e+03
2.820000e-06	-3.203982e-06	-1.967012e-08	-2.305731e+01	-1.289020e+03
2.830000e-06	-3.284751e-06	-2.001223e-08	-2.363856e+01	-1.311944e+03
2.840000e-06	-3.364489e-06	-2.032014e-08	-2.421239e+01	-1.332196e+03
2.850000e-06	-3.443015e-06	-2.059974e-08	-2.477750e+01	-1.350061e+03
2.860000e-06	-3.519996e-06	-2.085251e-08	-2.533149e+01	-1.365923e+03
2.870000e-06	-3.595475e-06	-2.108283e-08	-2.587467e+01	-1.380221e+03
2.880000e-06	-3.669597e-06	-2.129602e-08	-2.640809e+01	-1.393384e+03
2.890000e-06	-3.742372e-06	-2.149201e-08	-2.693181e+01	-1.405754e+03
2.900000e-06	-3.813898e-06	-2.167083e-08	-2.744654e+01	-1.417536e+03
2.910000e-06	-3.883994e-06	-2.183442e-08	-2.795098e+01	-1.428789e+03
2.920000e-06	-3.952449e-06	-2.198581e-08	-2.844362e+01	-1.439445e+03
2.930000e-06	-4.019519e-06	-2.212922e-08	-2.892628e+01	-1.449375e+03
2.940000e-06	-4.085278e-06	-2.226441e-08	-2.939952e+01	-1.458448e+03
