# Temperatura_=_63.42
# Concentracion g/m^3_=_41000.0
# C_Vs_to_Am_M_A/Vsm_=_65563218390.804596
# pendiente_HvsI_1/m_=_3716.3
# ordenada_HvsI_A/m_=_1297.0
# frecuencia_Hz_=_301996.4254504795

Tiempo_(s)	Campo_(V.s)	Magnetizacion_(V.s)	Campo_(kA/m)	Magnetizacion_(A/m)
0.000000e+00	-6.748451e-06	-2.249780e-08	-4.746550e+01	-1.473343e+03
1.000000e-08	-6.744728e-06	-2.249415e-08	-4.743932e+01	-1.473464e+03
2.000000e-08	-6.738861e-06	-2.248897e-08	-4.739805e+01	-1.473093e+03
3.000000e-08	-6.730916e-06	-2.248126e-08	-4.734217e+01	-1.472213e+03
4.000000e-08	-6.720615e-06	-2.246897e-08	-4.726972e+01	-1.470934e+03
5.000000e-08	-6.707794e-06	-2.245390e-08	-4.717954e+01	-1.469467e+03
6.000000e-08	-6.692480e-06	-2.243335e-08	-4.707183e+01	-1.468051e+03
7.000000e-08	-6.674849e-06	-2.241063e-08	-4.694783e+01	-1.466887e+03
8.000000e-08	-6.655048e-06	-2.242478e-08	-4.680855e+01	-1.466067e+03
9.000000e-08	-6.632775e-06	-2.243864e-08	-4.665190e+01	-1.465556e+03
1.000000e-07	-6.607798e-06	-2.240086e-08	-4.647622e+01	-1.465199e+03
1.100000e-07	-6.580239e-06	-2.236433e-08	-4.628238e+01	-1.464772e+03
1.200000e-07	-6.550420e-06	-2.234621e-08	-4.607264e+01	-1.464054e+03
1.300000e-07	-6.518785e-06	-2.227952e-08	-4.585014e+01	-1.462892e+03
1.400000e-07	-6.485351e-06	-2.225023e-08	-4.561498e+01	-1.461254e+03
1.500000e-07	-6.449841e-06	-2.229570e-08	-4.536522e+01	-1.459229e+03
1.600000e-07	-6.412294e-06	-2.221112e-08	-4.510113e+01	-1.457001e+03
1.700000e-07	-6.372778e-06	-2.218615e-08	-4.482319e+01	-1.454786e+03
1.800000e-07	-6.330851e-06	-2.218099e-08	-4.452830e+01	-1.452760e+03
1.900000e-07	-6.286403e-06	-2.210424e-08	-4.421567e+01	-1.450999e+03
2.000000e-07	-6.239683e-06	-2.213922e-08	-4.388707e+01	-1.449453e+03
2.100000e-07	-6.190406e-06	-2.212677e-08	-4.354047e+01	-1.447958e+03
2.200000e-07	-6.138506e-06	-2.208936e-08	-4.317543e+01	-1.446284e+03
2.300000e-07	-6.084170e-06	-2.203957e-08	-4.279325e+01	-1.444210e+03
2.400000e-07	-6.027501e-06	-2.193816e-08	-4.239467e+01	-1.441590e+03
2.500000e-07	-5.968547e-06	-2.190285e-08	-4.198002e+01	-1.438404e+03
2.600000e-07	-5.907364e-06	-2.187563e-08	-4.154969e+01	-1.434764e+03
2.700000e-07	-5.844163e-06	-2.181865e-08	-4.110516e+01	-1.430883e+03
2.800000e-07	-5.778811e-06	-2.176365e-08	-4.064550e+01	-1.427009e+03
2.900000e-07	-5.711183e-06	-2.170589e-08	-4.016983e+01	-1.423348e+03
3.000000e-07	-5.641447e-06	-2.164465e-08	-3.967935e+01	-1.420000e+03
3.100000e-07	-5.569651e-06	-2.158967e-08	-3.917437e+01	-1.416925e+03
3.200000e-07	-5.495682e-06	-2.157021e-08	-3.865410e+01	-1.413955e+03
3.300000e-07	-5.419447e-06	-2.150718e-08	-3.811790e+01	-1.410842e+03
3.400000e-07	-5.340964e-06	-2.143173e-08	-3.756589e+01	-1.407335e+03
3.500000e-07	-5.260324e-06	-2.136785e-08	-3.699870e+01	-1.403257e+03
3.600000e-07	-5.177851e-06	-2.128292e-08	-3.641862e+01	-1.398559e+03
3.700000e-07	-5.093770e-06	-2.122279e-08	-3.582724e+01	-1.393338e+03
3.800000e-07	-5.008043e-06	-2.116335e-08	-3.522428e+01	-1.387803e+03
3.900000e-07	-4.920675e-06	-2.109121e-08	-3.460977e+01	-1.382208e+03
4.000000e-07	-4.831593e-06	-2.100709e-08	-3.398321e+01	-1.376775e+03
4.100000e-07	-4.740725e-06	-2.092489e-08	-3.334408e+01	-1.371619e+03
4.200000e-07	-4.648199e-06	-2.083910e-08	-3.269329e+01	-1.366709e+03
4.300000e-07	-4.554083e-06	-2.074430e-08	-3.203133e+01	-1.361873e+03
4.400000e-07	-4.458393e-06	-2.065331e-08	-3.135829e+01	-1.356852e+03
4.500000e-07	-4.361010e-06	-2.055736e-08	-3.067334e+01	-1.351380e+03
4.600000e-07	-4.261932e-06	-2.046279e-08	-2.997648e+01	-1.345263e+03
4.700000e-07	-4.161371e-06	-2.036595e-08	-2.926917e+01	-1.338446e+03
4.800000e-07	-4.059422e-06	-2.027211e-08	-2.855211e+01	-1.331029e+03
4.900000e-07	-3.956096e-06	-2.017371e-08	-2.782536e+01	-1.323233e+03
5.000000e-07	-3.851312e-06	-2.006464e-08	-2.708836e+01	-1.315335e+03
5.100000e-07	-3.744997e-06	-1.994915e-08	-2.634059e+01	-1.307571e+03
5.200000e-07	-3.637229e-06	-1.982839e-08	-2.558260e+01	-1.300058e+03
5.300000e-07	-3.528166e-06	-1.970144e-08	-2.481550e+01	-1.292745e+03
5.400000e-07	-3.417932e-06	-1.956535e-08	-2.404016e+01	-1.285426e+03
5.500000e-07	-3.306484e-06	-1.942787e-08	-2.325629e+01	-1.277790e+03
5.600000e-07	-3.193684e-06	-1.928905e-08	-2.246291e+01	-1.269518e+03
5.700000e-07	-3.079507e-06	-1.915091e-08	-2.165984e+01	-1.260381e+03
5.800000e-07	-2.963980e-06	-1.901246e-08	-2.084727e+01	-1.250313e+03
5.900000e-07	-2.847239e-06	-1.886916e-08	-2.002617e+01	-1.239430e+03
6.000000e-07	-2.729482e-06	-1.871434e-08	-1.919792e+01	-1.227999e+03
6.100000e-07	-2.610781e-06	-1.854645e-08	-1.836303e+01	-1.216346e+03
6.200000e-07	-2.491068e-06	-1.836846e-08	-1.752103e+01	-1.204749e+03
6.300000e-07	-2.370370e-06	-1.818391e-08	-1.667209e+01	-1.193333e+03
6.400000e-07	-2.248795e-06	-1.799448e-08	-1.581699e+01	-1.182012e+03
6.500000e-07	-2.126398e-06	-1.779801e-08	-1.495611e+01	-1.170500e+03
6.600000e-07	-2.003221e-06	-1.759209e-08	-1.408974e+01	-1.158378e+03
6.700000e-07	-1.879318e-06	-1.737744e-08	-1.321826e+01	-1.145219e+03
6.800000e-07	-1.754767e-06	-1.715598e-08	-1.234223e+01	-1.130712e+03
6.900000e-07	-1.629614e-06	-1.692581e-08	-1.146196e+01	-1.114761e+03
7.000000e-07	-1.503953e-06	-1.668546e-08	-1.057811e+01	-1.097518e+03
7.100000e-07	-1.377875e-06	-1.643393e-08	-9.691339e+00	-1.079331e+03
7.200000e-07	-1.251356e-06	-1.617003e-08	-8.801465e+00	-1.060624e+03
7.300000e-07	-1.124408e-06	-1.588940e-08	-7.908566e+00	-1.041738e+03
7.400000e-07	-9.971185e-07	-1.558768e-08	-7.013274e+00	-1.022783e+03
7.500000e-07	-8.695833e-07	-1.526811e-08	-6.116249e+00	-1.003543e+03
7.600000e-07	-7.417570e-07	-1.493172e-08	-5.217178e+00	-9.834864e+02
7.700000e-07	-6.135703e-07	-1.457440e-08	-4.315572e+00	-9.618636e+02
7.800000e-07	-4.851116e-07	-1.419399e-08	-3.412052e+00	-9.378928e+02
7.900000e-07	-3.564967e-07	-1.378807e-08	-2.507434e+00	-9.109632e+02
8.000000e-07	-2.277048e-07	-1.335111e-08	-1.601571e+00	-8.807984e+02
8.100000e-07	-9.880451e-08	-1.287781e-08	-6.949456e-01	-8.475169e+02
8.200000e-07	3.014339e-08	-1.236306e-08	2.120147e-01	-8.115518e+02
8.300000e-07	1.591133e-07	-1.180379e-08	1.119130e+00	-7.734320e+02
8.400000e-07	2.880031e-07	-1.119389e-08	2.025682e+00	-7.334692e+02
8.500000e-07	4.168493e-07	-1.052480e-08	2.931926e+00	-6.914292e+02
8.600000e-07	5.456076e-07	-9.786230e-09	3.837553e+00	-6.462850e+02
8.700000e-07	6.741670e-07	-8.963708e-09	4.741781e+00	-5.961404e+02
8.800000e-07	8.025152e-07	-8.039771e-09	5.644523e+00	-5.383781e+02
8.900000e-07	9.306335e-07	-6.987532e-09	6.545648e+00	-4.700375e+02
9.000000e-07	1.058382e-06	-5.774081e-09	7.444174e+00	-3.883681e+02
9.100000e-07	1.185696e-06	-4.360400e-09	8.339643e+00	-2.914525e+02
9.200000e-07	1.312626e-06	-2.708755e-09	9.232406e+00	-1.787691e+02
9.300000e-07	1.439118e-06	-7.965660e-10	1.012209e+01	-5.156168e+01
9.400000e-07	1.565150e-06	1.354844e-09	1.100854e+01	8.708119e+01
9.500000e-07	1.690717e-06	3.662122e-09	1.189173e+01	2.324761e+02
9.600000e-07	1.815745e-06	5.994941e-09	1.277112e+01	3.788944e+02
9.700000e-07	1.940120e-06	8.206753e-09	1.364591e+01	5.203155e+02
9.800000e-07	2.063821e-06	1.018331e-08	1.451597e+01	6.512422e+02
9.900000e-07	2.186787e-06	1.187193e-08	1.538086e+01	7.674232e+02
1.000000e-06	2.308874e-06	1.327354e-08	1.623956e+01	8.663470e+02
1.010000e-06	2.429947e-06	1.442096e-08	1.709113e+01	9.474215e+02
1.020000e-06	2.549993e-06	1.535686e-08	1.793548e+01	1.011822e+03
1.030000e-06	2.669060e-06	1.612347e-08	1.877294e+01	1.062059e+03
1.040000e-06	2.787190e-06	1.675907e-08	1.960381e+01	1.101373e+03
1.050000e-06	2.904399e-06	1.729199e-08	2.042821e+01	1.133093e+03
1.060000e-06	3.020500e-06	1.774048e-08	2.124481e+01	1.160085e+03
1.070000e-06	3.135381e-06	1.812298e-08	2.205283e+01	1.184399e+03
1.080000e-06	3.248990e-06	1.845726e-08	2.285190e+01	1.207150e+03
1.090000e-06	3.361256e-06	1.875228e-08	2.364153e+01	1.228627e+03
1.100000e-06	3.472278e-06	1.901493e-08	2.442241e+01	1.248564e+03
1.110000e-06	3.582168e-06	1.925102e-08	2.519532e+01	1.266482e+03
1.120000e-06	3.690924e-06	1.946702e-08	2.596027e+01	1.282003e+03
1.130000e-06	3.798528e-06	1.966562e-08	2.671710e+01	1.295056e+03
1.140000e-06	3.904825e-06	1.984883e-08	2.746474e+01	1.305946e+03
1.150000e-06	4.009555e-06	2.001776e-08	2.820137e+01	1.315279e+03
1.160000e-06	4.112712e-06	2.017511e-08	2.892693e+01	1.323796e+03
1.170000e-06	4.214484e-06	2.032123e-08	2.964275e+01	1.332164e+03
1.180000e-06	4.314883e-06	2.045759e-08	3.034890e+01	1.340810e+03
1.190000e-06	4.413811e-06	2.058659e-08	3.104472e+01	1.349837e+03
1.200000e-06	4.511009e-06	2.070644e-08	3.172837e+01	1.359034e+03
1.210000e-06	4.606405e-06	2.081811e-08	3.239934e+01	1.367984e+03
1.220000e-06	4.700209e-06	2.092347e-08	3.305911e+01	1.376223e+03
1.230000e-06	4.792505e-06	2.102272e-08	3.370828e+01	1.383399e+03
1.240000e-06	4.883151e-06	2.111654e-08	3.434584e+01	1.389385e+03
1.250000e-06	4.971901e-06	2.120516e-08	3.497007e+01	1.394317e+03
1.260000e-06	5.058812e-06	2.128801e-08	3.558136e+01	1.398542e+03
1.270000e-06	5.144044e-06	2.136642e-08	3.618084e+01	1.402514e+03
1.280000e-06	5.227579e-06	2.144059e-08	3.676839e+01	1.406651e+03
1.290000e-06	5.309196e-06	2.151379e-08	3.734245e+01	1.411221e+03
1.300000e-06	5.388716e-06	2.158468e-08	3.790175e+01	1.416270e+03
1.310000e-06	5.466231e-06	2.165310e-08	3.844696e+01	1.421626e+03
1.320000e-06	5.541773e-06	2.171787e-08	3.897829e+01	1.426968e+03
1.330000e-06	5.615149e-06	2.177827e-08	3.949438e+01	1.431935e+03
1.340000e-06	5.686394e-06	2.183566e-08	3.999548e+01	1.436239e+03
1.350000e-06	5.755654e-06	2.188928e-08	4.048262e+01	1.439758e+03
1.360000e-06	5.822906e-06	2.194099e-08	4.095565e+01	1.442564e+03
1.370000e-06	5.888009e-06	2.199020e-08	4.141355e+01	1.444892e+03
1.380000e-06	5.950969e-06	2.203676e-08	4.185638e+01	1.447066e+03
1.390000e-06	6.011965e-06	2.208199e-08	4.228540e+01	1.449390e+03
1.400000e-06	6.070970e-06	2.212508e-08	4.270041e+01	1.452059e+03
1.410000e-06	6.127810e-06	2.216570e-08	4.310020e+01	1.455100e+03
1.420000e-06	6.182421e-06	2.220192e-08	4.348431e+01	1.458372e+03
1.430000e-06	6.234690e-06	2.223657e-08	4.385195e+01	1.461613e+03
1.440000e-06	6.284315e-06	2.227001e-08	4.420098e+01	1.464532e+03
1.450000e-06	6.331454e-06	2.229950e-08	4.453254e+01	1.466898e+03
1.460000e-06	6.376474e-06	2.232713e-08	4.484919e+01	1.468612e+03
1.470000e-06	6.419359e-06	2.235233e-08	4.515082e+01	1.469737e+03
1.480000e-06	6.459884e-06	2.237487e-08	4.543586e+01	1.470477e+03
1.490000e-06	6.498120e-06	2.239559e-08	4.570479e+01	1.471108e+03
1.500000e-06	6.534277e-06	2.241511e-08	4.595910e+01	1.471896e+03
1.510000e-06	6.568145e-06	2.243487e-08	4.619732e+01	1.473013e+03
1.520000e-06	6.599566e-06	2.245386e-08	4.641831e+01	1.474486e+03
1.530000e-06	6.628726e-06	2.247079e-08	4.662341e+01	1.476197e+03
1.540000e-06	6.655618e-06	2.248557e-08	4.681256e+01	1.477920e+03
1.550000e-06	6.679943e-06	2.249730e-08	4.698365e+01	1.479397e+03
1.560000e-06	6.701827e-06	2.250724e-08	4.713758e+01	1.480419e+03
1.570000e-06	6.721506e-06	2.251686e-08	4.727599e+01	1.480892e+03
1.580000e-06	6.738787e-06	2.252553e-08	4.739753e+01	1.480863e+03
1.590000e-06	6.753510e-06	2.253255e-08	4.750109e+01	1.480505e+03
1.600000e-06	6.765709e-06	2.253886e-08	4.758689e+01	1.480061e+03
1.610000e-06	6.775241e-06	2.254474e-08	4.765393e+01	1.479766e+03
1.620000e-06	6.782170e-06	2.255022e-08	4.770267e+01	1.479772e+03
1.630000e-06	6.786815e-06	2.255367e-08	4.773534e+01	1.480106e+03
1.640000e-06	6.789006e-06	2.255364e-08	4.775075e+01	1.480658e+03
1.650000e-06	6.788748e-06	2.255083e-08	4.774893e+01	1.481220e+03
1.660000e-06	6.786320e-06	2.254308e-08	4.773186e+01	1.481552e+03
1.670000e-06	6.781700e-06	2.253839e-08	4.769937e+01	1.481458e+03
1.680000e-06	6.774760e-06	2.253426e-08	4.765055e+01	1.480847e+03
1.690000e-06	6.765605e-06	2.252779e-08	4.758616e+01	1.479762e+03
1.700000e-06	6.754310e-06	2.251924e-08	4.750672e+01	1.478368e+03
1.710000e-06	6.740634e-06	2.251415e-08	4.741052e+01	1.476898e+03
1.720000e-06	6.724630e-06	2.251482e-08	4.729796e+01	1.475582e+03
1.730000e-06	6.706595e-06	2.246354e-08	4.717111e+01	1.474575e+03
1.740000e-06	6.686129e-06	2.241720e-08	4.702716e+01	1.473913e+03
1.750000e-06	6.662439e-06	2.242511e-08	4.686053e+01	1.473501e+03
1.760000e-06	6.635723e-06	2.241595e-08	4.667263e+01	1.473143e+03
1.770000e-06	6.606679e-06	2.241441e-08	4.646834e+01	1.472607e+03
1.780000e-06	6.575703e-06	2.245235e-08	4.625048e+01	1.471698e+03
1.790000e-06	6.543275e-06	2.238170e-08	4.602239e+01	1.470313e+03
1.800000e-06	6.509158e-06	2.237241e-08	4.578243e+01	1.468479e+03
1.810000e-06	6.472588e-06	2.241361e-08	4.552521e+01	1.466336e+03
1.820000e-06	6.433687e-06	2.232811e-08	4.525160e+01	1.464090e+03
1.830000e-06	6.392642e-06	2.235752e-08	4.496291e+01	1.461947e+03
1.840000e-06	6.349444e-06	2.229922e-08	4.465907e+01	1.460045e+03
1.850000e-06	6.304132e-06	2.219224e-08	4.434037e+01	1.458399e+03
1.860000e-06	6.256392e-06	2.220684e-08	4.400459e+01	1.456905e+03
1.870000e-06	6.206356e-06	2.212630e-08	4.365266e+01	1.455359e+03
1.880000e-06	6.153858e-06	2.215765e-08	4.328341e+01	1.453525e+03
1.890000e-06	6.098693e-06	2.215229e-08	4.289540e+01	1.451211e+03
1.900000e-06	6.041261e-06	2.204307e-08	4.249145e+01	1.448325e+03
1.910000e-06	5.981572e-06	2.204196e-08	4.207163e+01	1.444908e+03
1.920000e-06	5.919582e-06	2.196697e-08	4.163562e+01	1.441128e+03
1.930000e-06	5.855417e-06	2.193669e-08	4.118431e+01	1.437222e+03
1.940000e-06	5.789175e-06	2.190055e-08	4.071840e+01	1.433428e+03
1.950000e-06	5.720817e-06	2.184528e-08	4.023760e+01	1.429910e+03
1.960000e-06	5.650114e-06	2.180273e-08	3.974031e+01	1.426705e+03
1.970000e-06	5.577244e-06	2.170208e-08	3.922777e+01	1.423708e+03
1.980000e-06	5.502322e-06	2.166961e-08	3.870080e+01	1.420707e+03
1.990000e-06	5.425198e-06	2.160248e-08	3.815835e+01	1.417441e+03
2.000000e-06	5.345985e-06	2.155658e-08	3.760121e+01	1.413686e+03
2.010000e-06	5.264809e-06	2.150473e-08	3.703025e+01	1.409319e+03
2.020000e-06	5.181867e-06	2.140724e-08	3.644688e+01	1.404361e+03
2.030000e-06	5.097111e-06	2.134311e-08	3.585074e+01	1.398965e+03
2.040000e-06	5.010398e-06	2.125552e-08	3.524084e+01	1.393372e+03
2.050000e-06	4.921912e-06	2.119185e-08	3.461847e+01	1.387832e+03
2.060000e-06	4.831867e-06	2.111333e-08	3.398513e+01	1.382524e+03
2.070000e-06	4.740283e-06	2.104180e-08	3.334097e+01	1.377497e+03
2.080000e-06	4.646964e-06	2.096397e-08	3.268461e+01	1.372652e+03
2.090000e-06	4.551838e-06	2.087151e-08	3.201553e+01	1.367767e+03
2.100000e-06	4.455118e-06	2.078549e-08	3.133525e+01	1.362569e+03
2.110000e-06	4.357016e-06	2.068616e-08	3.064525e+01	1.356816e+03
2.120000e-06	4.257507e-06	2.059409e-08	2.994535e+01	1.350374e+03
2.130000e-06	4.156390e-06	2.048702e-08	2.923414e+01	1.343259e+03
2.140000e-06	4.053555e-06	2.038520e-08	2.851084e+01	1.335635e+03
2.150000e-06	3.949198e-06	2.027730e-08	2.777684e+01	1.327760e+03
2.160000e-06	3.843478e-06	2.016808e-08	2.703326e+01	1.319902e+03
2.170000e-06	3.736514e-06	2.005833e-08	2.628092e+01	1.312252e+03
2.180000e-06	3.628362e-06	1.994611e-08	2.552023e+01	1.304850e+03
2.190000e-06	3.518887e-06	1.982700e-08	2.475023e+01	1.297570e+03
2.200000e-06	3.408043e-06	1.969976e-08	2.397061e+01	1.290147e+03
2.210000e-06	3.295823e-06	1.956819e-08	2.318130e+01	1.282254e+03
2.220000e-06	3.182291e-06	1.942639e-08	2.238277e+01	1.273603e+03
2.230000e-06	3.067501e-06	1.927907e-08	2.157539e+01	1.264033e+03
2.240000e-06	2.951515e-06	1.912762e-08	2.075960e+01	1.253563e+03
2.250000e-06	2.834359e-06	1.897730e-08	1.993558e+01	1.242388e+03
2.260000e-06	2.715980e-06	1.881924e-08	1.910296e+01	1.230816e+03
2.270000e-06	2.596433e-06	1.865711e-08	1.826211e+01	1.219164e+03
2.280000e-06	2.475861e-06	1.848603e-08	1.741407e+01	1.207650e+03
2.290000e-06	2.354464e-06	1.830758e-08	1.656022e+01	1.196303e+03
2.300000e-06	2.232390e-06	1.811906e-08	1.570160e+01	1.184942e+03
2.310000e-06	2.109645e-06	1.792067e-08	1.483827e+01	1.173204e+03
2.320000e-06	1.986261e-06	1.771577e-08	1.397045e+01	1.160652e+03
2.330000e-06	1.862172e-06	1.750048e-08	1.309767e+01	1.146896e+03
2.340000e-06	1.737323e-06	1.727379e-08	1.221953e+01	1.131718e+03
2.350000e-06	1.611838e-06	1.703304e-08	1.133693e+01	1.115136e+03
2.360000e-06	1.485823e-06	1.678369e-08	1.045059e+01	1.097405e+03
2.370000e-06	1.359321e-06	1.652510e-08	9.560843e+00	1.078926e+03
2.380000e-06	1.232357e-06	1.625589e-08	8.667835e+00	1.060107e+03
2.390000e-06	1.104959e-06	1.597148e-08	7.771771e+00	1.041196e+03
2.400000e-06	9.771338e-07	1.566550e-08	6.872711e+00	1.022158e+03
2.410000e-06	8.489681e-07	1.533792e-08	5.971252e+00	1.002624e+03
2.420000e-06	7.205622e-07	1.498873e-08	5.068104e+00	9.819422e+02
2.430000e-06	5.919389e-07	1.462024e-08	4.163426e+00	9.593228e+02
2.440000e-06	4.631083e-07	1.423031e-08	3.257291e+00	9.340388e+02
2.450000e-06	3.340859e-07	1.381499e-08	2.349807e+00	9.056194e+02
2.460000e-06	2.049181e-07	1.336813e-08	1.441300e+00	8.739722e+02
2.470000e-06	7.565126e-08	1.288338e-08	5.320962e-01	8.393806e+02
2.480000e-06	-5.361730e-08	1.235588e-08	-3.771195e-01	8.023566e+02
2.490000e-06	-1.828433e-07	1.177750e-08	-1.286036e+00	7.633703e+02
2.500000e-06	-3.120842e-07	1.114312e-08	-2.195057e+00	7.225181e+02
2.510000e-06	-4.412733e-07	1.044619e-08	-3.103714e+00	6.792200e+02
2.520000e-06	-5.703672e-07	9.676248e-09	-4.011701e+00	6.320420e+02
2.530000e-06	-6.993083e-07	8.816597e-09	-4.918614e+00	5.787202e+02
2.540000e-06	-8.279684e-07	7.845380e-09	-5.823549e+00	5.164183e+02
2.550000e-06	-9.562673e-07	6.736443e-09	-6.725945e+00	4.421973e+02
2.560000e-06	-1.084188e-06	5.455709e-09	-7.625677e+00	3.536165e+02
2.570000e-06	-1.211736e-06	3.962786e-09	-8.522793e+00	2.493455e+02
2.580000e-06	-1.338854e-06	2.221669e-09	-9.416885e+00	1.296522e+02
2.590000e-06	-1.465526e-06	2.211483e-10	-1.030783e+01	-3.353006e+00
2.600000e-06	-1.591731e-06	-2.000904e-09	-1.119550e+01	-1.457904e+02
2.610000e-06	-1.717292e-06	-4.346033e-09	-1.207864e+01	-2.924076e+02
2.620000e-06	-1.842045e-06	-6.669180e-09	-1.295610e+01	-4.372394e+02
2.630000e-06	-1.965955e-06	-8.826253e-09	-1.382762e+01	-5.744089e+02
2.640000e-06	-2.089077e-06	-1.072055e-08	-1.469361e+01	-6.989186e+02
2.650000e-06	-2.211454e-06	-1.231805e-08	-1.555435e+01	-8.072815e+02
2.660000e-06	-2.333028e-06	-1.363459e-08	-1.640945e+01	-8.978753e+02
2.670000e-06	-2.453732e-06	-1.471018e-08	-1.725842e+01	-9.709664e+02
2.680000e-06	-2.573576e-06	-1.559079e-08	-1.810135e+01	-1.028417e+03
2.690000e-06	-2.692503e-06	-1.631373e-08	-1.893783e+01	-1.073158e+03
2.700000e-06	-2.810326e-06	-1.691229e-08	-1.976654e+01	-1.108547e+03
2.710000e-06	-2.926899e-06	-1.741384e-08	-2.058646e+01	-1.137757e+03
2.720000e-06	-3.042189e-06	-1.783983e-08	-2.139736e+01	-1.163306e+03
2.730000e-06	-3.156219e-06	-1.820860e-08	-2.219940e+01	-1.186809e+03
2.740000e-06	-3.269014e-06	-1.853068e-08	-2.299274e+01	-1.208971e+03
2.750000e-06	-3.380466e-06	-1.881483e-08	-2.377664e+01	-1.229785e+03
2.760000e-06	-3.490572e-06	-1.906774e-08	-2.455108e+01	-1.248843e+03
2.770000e-06	-3.599513e-06	-1.929663e-08	-2.531732e+01	-1.265678e+03
2.780000e-06	-3.707356e-06	-1.950780e-08	-2.607584e+01	-1.280037e+03
2.790000e-06	-3.814054e-06	-1.970246e-08	-2.682630e+01	-1.292024e+03
2.800000e-06	-3.919461e-06	-1.988204e-08	-2.756769e+01	-1.302101e+03
2.810000e-06	-4.023398e-06	-2.004778e-08	-2.829873e+01	-1.310961e+03
2.820000e-06	-4.125778e-06	-2.020061e-08	-2.901883e+01	-1.319335e+03
2.830000e-06	-4.226601e-06	-2.034240e-08	-2.972797e+01	-1.327796e+03
2.840000e-06	-4.325974e-06	-2.047558e-08	-3.042691e+01	-1.336625e+03
2.850000e-06	-4.423953e-06	-2.060050e-08	-3.111605e+01	-1.345771e+03
2.860000e-06	-4.520398e-06	-2.071741e-08	-3.179441e+01	-1.354910e+03
2.870000e-06	-4.615233e-06	-2.082849e-08	-3.246143e+01	-1.363582e+03
2.880000e-06	-4.708360e-06	-2.093313e-08	-3.311644e+01	-1.371357e+03
2.890000e-06	-4.799793e-06	-2.102967e-08	-3.375954e+01	-1.377978e+03
2.900000e-06	-4.889568e-06	-2.112031e-08	-3.439097e+01	-1.383442e+03
2.910000e-06	-4.977584e-06	-2.120710e-08	-3.501004e+01	-1.387991e+03
2.920000e-06	-5.063736e-06	-2.128970e-08	-3.561599e+01	-1.392039e+03
2.930000e-06	-5.147953e-06	-2.136736e-08	-3.620833e+01	-1.396040e+03
2.940000e-06	-5.230362e-06	-2.144079e-08	-3.678796e+01	-1.400355e+03
