# Temperatura_=_61.56
# Concentracion g/m^3_=_41000.0
# C_Vs_to_Am_M_A/Vsm_=_65563218390.804596
# pendiente_HvsI_1/m_=_3716.3
# ordenada_HvsI_A/m_=_1297.0
# frecuencia_Hz_=_302001.6520148789

Tiempo_(s)	Campo_(V.s)	Magnetizacion_(V.s)	Campo_(kA/m)	Magnetizacion_(A/m)
0.000000e+00	-6.757981e-06	-2.434952e-08	-4.746786e+01	-1.594625e+03
1.000000e-08	-6.754665e-06	-2.434529e-08	-4.744458e+01	-1.594900e+03
2.000000e-08	-6.749096e-06	-2.433743e-08	-4.740545e+01	-1.594748e+03
3.000000e-08	-6.741427e-06	-2.432784e-08	-4.735159e+01	-1.594079e+03
4.000000e-08	-6.731474e-06	-2.431696e-08	-4.728168e+01	-1.592935e+03
5.000000e-08	-6.719081e-06	-2.430309e-08	-4.719463e+01	-1.591477e+03
6.000000e-08	-6.704255e-06	-2.428650e-08	-4.709050e+01	-1.589936e+03
7.000000e-08	-6.687015e-06	-2.426798e-08	-4.696940e+01	-1.588539e+03
8.000000e-08	-6.667560e-06	-2.425493e-08	-4.683275e+01	-1.587444e+03
9.000000e-08	-6.645783e-06	-2.426426e-08	-4.667979e+01	-1.586690e+03
1.000000e-07	-6.621274e-06	-2.425756e-08	-4.650764e+01	-1.586190e+03
1.100000e-07	-6.594048e-06	-2.421842e-08	-4.631640e+01	-1.585759e+03
1.200000e-07	-6.564551e-06	-2.418460e-08	-4.610922e+01	-1.585171e+03
1.300000e-07	-6.533183e-06	-2.414783e-08	-4.588889e+01	-1.584233e+03
1.400000e-07	-6.500008e-06	-2.408710e-08	-4.565587e+01	-1.582838e+03
1.500000e-07	-6.464799e-06	-2.407164e-08	-4.540856e+01	-1.580999e+03
1.600000e-07	-6.427511e-06	-2.409579e-08	-4.514666e+01	-1.578835e+03
1.700000e-07	-6.388252e-06	-2.404229e-08	-4.487090e+01	-1.576534e+03
1.800000e-07	-6.346644e-06	-2.403732e-08	-4.457864e+01	-1.574282e+03
1.900000e-07	-6.302527e-06	-2.400380e-08	-4.426877e+01	-1.572204e+03
2.000000e-07	-6.256161e-06	-2.391440e-08	-4.394310e+01	-1.570319e+03
2.100000e-07	-6.207351e-06	-2.391412e-08	-4.360025e+01	-1.568534e+03
2.200000e-07	-6.155913e-06	-2.389002e-08	-4.323896e+01	-1.566674e+03
2.300000e-07	-6.101989e-06	-2.384402e-08	-4.286019e+01	-1.564532e+03
2.400000e-07	-6.045753e-06	-2.378562e-08	-4.246520e+01	-1.561945e+03
2.500000e-07	-5.987189e-06	-2.372876e-08	-4.205385e+01	-1.558841e+03
2.600000e-07	-5.926340e-06	-2.368565e-08	-4.162644e+01	-1.555268e+03
2.700000e-07	-5.863427e-06	-2.362179e-08	-4.118454e+01	-1.551379e+03
2.800000e-07	-5.798360e-06	-2.358554e-08	-4.072752e+01	-1.547388e+03
2.900000e-07	-5.731031e-06	-2.353295e-08	-4.025460e+01	-1.543496e+03
3.000000e-07	-5.661553e-06	-2.345826e-08	-3.976659e+01	-1.539833e+03
3.100000e-07	-5.589998e-06	-2.340546e-08	-3.926399e+01	-1.536408e+03
3.200000e-07	-5.516330e-06	-2.335328e-08	-3.874654e+01	-1.533105e+03
3.300000e-07	-5.440416e-06	-2.330125e-08	-3.821333e+01	-1.529719e+03
3.400000e-07	-5.362281e-06	-2.322074e-08	-3.766451e+01	-1.526014e+03
3.500000e-07	-5.281968e-06	-2.314782e-08	-3.710039e+01	-1.521800e+03
3.600000e-07	-5.199676e-06	-2.307967e-08	-3.652238e+01	-1.516993e+03
3.700000e-07	-5.115745e-06	-2.300421e-08	-3.593285e+01	-1.511643e+03
3.800000e-07	-5.030208e-06	-2.294014e-08	-3.533204e+01	-1.505918e+03
3.900000e-07	-4.943059e-06	-2.286251e-08	-3.471991e+01	-1.500054e+03
4.000000e-07	-4.854189e-06	-2.277833e-08	-3.409568e+01	-1.494280e+03
4.100000e-07	-4.763474e-06	-2.268043e-08	-3.345850e+01	-1.488742e+03
4.200000e-07	-4.671049e-06	-2.258802e-08	-3.280931e+01	-1.483450e+03
4.300000e-07	-4.577039e-06	-2.250236e-08	-3.214899e+01	-1.478277e+03
4.400000e-07	-4.481427e-06	-2.241169e-08	-3.147742e+01	-1.472985e+03
4.500000e-07	-4.384086e-06	-2.231561e-08	-3.079369e+01	-1.467302e+03
4.600000e-07	-4.285069e-06	-2.220724e-08	-3.009820e+01	-1.461005e+03
4.700000e-07	-4.184594e-06	-2.209895e-08	-2.939247e+01	-1.453986e+03
4.800000e-07	-4.082756e-06	-2.199172e-08	-2.867716e+01	-1.446293e+03
4.900000e-07	-3.979546e-06	-2.188795e-08	-2.795222e+01	-1.438111e+03
5.000000e-07	-3.874826e-06	-2.177761e-08	-2.721667e+01	-1.429708e+03
5.100000e-07	-3.768619e-06	-2.165838e-08	-2.647067e+01	-1.421344e+03
5.200000e-07	-3.660991e-06	-2.152808e-08	-2.571470e+01	-1.413185e+03
5.300000e-07	-3.552022e-06	-2.139004e-08	-2.494930e+01	-1.405243e+03
5.400000e-07	-3.441901e-06	-2.125096e-08	-2.417581e+01	-1.397362e+03
5.500000e-07	-3.330539e-06	-2.111027e-08	-2.339361e+01	-1.389255e+03
5.600000e-07	-3.217819e-06	-2.096903e-08	-2.260187e+01	-1.380591e+03
5.700000e-07	-3.103709e-06	-2.081939e-08	-2.180036e+01	-1.371091e+03
5.800000e-07	-2.988179e-06	-2.066218e-08	-2.098889e+01	-1.360620e+03
5.900000e-07	-2.871374e-06	-2.049726e-08	-2.016845e+01	-1.349225e+03
6.000000e-07	-2.753552e-06	-2.032715e-08	-1.934087e+01	-1.337129e+03
6.100000e-07	-2.634836e-06	-2.014988e-08	-1.850701e+01	-1.324654e+03
6.200000e-07	-2.515181e-06	-1.996728e-08	-1.766656e+01	-1.312116e+03
6.300000e-07	-2.394505e-06	-1.977919e-08	-1.681894e+01	-1.299716e+03
6.400000e-07	-2.272930e-06	-1.958047e-08	-1.596500e+01	-1.287456e+03
6.500000e-07	-2.150569e-06	-1.937083e-08	-1.510553e+01	-1.275116e+03
6.600000e-07	-2.027351e-06	-1.915159e-08	-1.424005e+01	-1.262308e+03
6.700000e-07	-1.903326e-06	-1.892565e-08	-1.336891e+01	-1.248575e+03
6.800000e-07	-1.778637e-06	-1.869024e-08	-1.249310e+01	-1.233527e+03
6.900000e-07	-1.653398e-06	-1.844419e-08	-1.161342e+01	-1.216957e+03
7.000000e-07	-1.527664e-06	-1.818642e-08	-1.073027e+01	-1.198904e+03
7.100000e-07	-1.401506e-06	-1.791454e-08	-9.844141e+00	-1.179641e+03
7.200000e-07	-1.274949e-06	-1.762933e-08	-8.955206e+00	-1.159582e+03
7.300000e-07	-1.147975e-06	-1.733097e-08	-8.063344e+00	-1.139126e+03
7.400000e-07	-1.020643e-06	-1.701526e-08	-7.168967e+00	-1.118499e+03
7.500000e-07	-8.929337e-07	-1.667979e-08	-6.271941e+00	-1.097629e+03
7.600000e-07	-7.648489e-07	-1.632413e-08	-5.372277e+00	-1.076106e+03
7.700000e-07	-6.364075e-07	-1.594513e-08	-4.470108e+00	-1.053243e+03
7.800000e-07	-5.076928e-07	-1.554225e-08	-3.566020e+00	-1.028231e+03
7.900000e-07	-3.789001e-07	-1.511387e-08	-2.661384e+00	-1.000343e+03
8.000000e-07	-2.499965e-07	-1.465437e-08	-1.755968e+00	-9.691241e+02
8.100000e-07	-1.208922e-07	-1.415776e-08	-8.491435e-01	-9.345074e+02
8.200000e-07	8.308147e-09	-1.362001e-08	5.835619e-02	-8.967934e+02
8.300000e-07	1.375051e-07	-1.303672e-08	9.658321e-01	-8.564860e+02
8.400000e-07	2.666721e-07	-1.240024e-08	1.873097e+00	-8.140068e+02
8.500000e-07	3.957941e-07	-1.170360e-08	2.780047e+00	-7.693556e+02
8.600000e-07	5.248086e-07	-1.093609e-08	3.686241e+00	-7.218101e+02
8.700000e-07	6.536742e-07	-1.008670e-08	4.591389e+00	-6.697634e+02
8.800000e-07	7.824136e-07	-9.138656e-09	5.495651e+00	-6.107718e+02
8.900000e-07	9.108791e-07	-8.065282e-09	6.397989e+00	-5.418447e+02
9.000000e-07	1.038903e-06	-6.832434e-09	7.297222e+00	-4.599456e+02
9.100000e-07	1.166473e-06	-5.400588e-09	8.193274e+00	-3.626196e+02
9.200000e-07	1.293634e-06	-3.732181e-09	9.086449e+00	-2.486211e+02
9.300000e-07	1.420356e-06	-1.793060e-09	9.976536e+00	-1.184025e+02
9.400000e-07	1.546561e-06	4.107902e-10	1.086300e+01	2.565597e+01
9.500000e-07	1.672272e-06	2.793928e-09	1.174599e+01	1.793467e+02
9.600000e-07	1.797503e-06	5.238236e-09	1.262561e+01	3.370681e+02
9.700000e-07	1.922205e-06	7.654621e-09	1.350151e+01	4.925220e+02
9.800000e-07	2.046276e-06	9.928044e-09	1.437298e+01	6.395500e+02
9.900000e-07	2.169507e-06	1.193192e-08	1.523856e+01	7.729501e+02
1.000000e-06	2.291795e-06	1.361665e-08	1.609750e+01	8.891197e+02
1.010000e-06	2.413172e-06	1.499965e-08	1.695005e+01	9.864102e+02
1.020000e-06	2.533606e-06	1.612857e-08	1.779598e+01	1.065138e+03
1.030000e-06	2.653020e-06	1.705348e-08	1.863473e+01	1.127273e+03
1.040000e-06	2.771477e-06	1.781837e-08	1.946678e+01	1.175884e+03
1.050000e-06	2.888990e-06	1.845617e-08	2.029218e+01	1.214478e+03
1.060000e-06	3.005463e-06	1.899082e-08	2.111028e+01	1.246367e+03
1.070000e-06	3.120744e-06	1.944434e-08	2.192001e+01	1.274185e+03
1.080000e-06	3.234637e-06	1.983468e-08	2.272000e+01	1.299638e+03
1.090000e-06	3.347234e-06	2.017647e-08	2.351087e+01	1.323499e+03
1.100000e-06	3.458652e-06	2.047839e-08	2.429347e+01	1.345801e+03
1.110000e-06	3.568861e-06	2.074933e-08	2.506758e+01	1.366168e+03
1.120000e-06	3.677932e-06	2.099428e-08	2.583369e+01	1.384156e+03
1.130000e-06	3.785847e-06	2.121668e-08	2.659168e+01	1.399532e+03
1.140000e-06	3.892398e-06	2.142126e-08	2.734009e+01	1.412423e+03
1.150000e-06	3.997518e-06	2.161147e-08	2.807845e+01	1.423311e+03
1.160000e-06	4.101166e-06	2.178876e-08	2.880647e+01	1.432907e+03
1.170000e-06	4.203309e-06	2.195239e-08	2.952392e+01	1.441961e+03
1.180000e-06	4.304073e-06	2.210395e-08	3.023168e+01	1.451057e+03
1.190000e-06	4.403340e-06	2.224616e-08	3.092894e+01	1.460484e+03
1.200000e-06	4.500906e-06	2.237938e-08	3.161424e+01	1.470192e+03
1.210000e-06	4.596744e-06	2.250319e-08	3.228740e+01	1.479855e+03
1.220000e-06	4.690928e-06	2.261882e-08	3.294895e+01	1.489010e+03
1.230000e-06	4.783609e-06	2.272827e-08	3.359993e+01	1.497224e+03
1.240000e-06	4.874725e-06	2.283272e-08	3.423993e+01	1.504237e+03
1.250000e-06	4.964039e-06	2.293058e-08	3.486727e+01	1.510045e+03
1.260000e-06	5.051469e-06	2.302035e-08	3.548137e+01	1.514895e+03
1.270000e-06	5.137130e-06	2.310390e-08	3.608305e+01	1.519207e+03
1.280000e-06	5.221076e-06	2.318448e-08	3.667269e+01	1.523442e+03
1.290000e-06	5.303127e-06	2.326297e-08	3.724901e+01	1.527970e+03
1.300000e-06	5.383134e-06	2.333838e-08	3.781098e+01	1.532968e+03
1.310000e-06	5.461188e-06	2.341090e-08	3.835923e+01	1.538384e+03
1.320000e-06	5.537253e-06	2.348165e-08	3.889351e+01	1.543971e+03
1.330000e-06	5.611070e-06	2.354846e-08	3.941199e+01	1.549376e+03
1.340000e-06	5.682644e-06	2.361072e-08	3.991473e+01	1.554260e+03
1.350000e-06	5.752236e-06	2.367003e-08	4.040354e+01	1.558404e+03
1.360000e-06	5.819890e-06	2.372683e-08	4.087874e+01	1.561768e+03
1.370000e-06	5.885390e-06	2.378077e-08	4.133881e+01	1.564505e+03
1.380000e-06	5.948739e-06	2.383169e-08	4.178377e+01	1.566897e+03
1.390000e-06	6.010144e-06	2.388043e-08	4.221508e+01	1.569267e+03
1.400000e-06	6.069599e-06	2.392705e-08	4.263269e+01	1.571875e+03
1.410000e-06	6.126883e-06	2.396989e-08	4.303505e+01	1.574842e+03
1.420000e-06	6.181949e-06	2.400997e-08	4.342183e+01	1.578114e+03
1.430000e-06	6.234707e-06	2.404934e-08	4.379240e+01	1.581488e+03
1.440000e-06	6.284881e-06	2.408752e-08	4.414482e+01	1.584682e+03
1.450000e-06	6.332533e-06	2.412247e-08	4.447953e+01	1.587424e+03
1.460000e-06	6.378004e-06	2.415257e-08	4.479891e+01	1.589539e+03
1.470000e-06	6.421402e-06	2.417919e-08	4.510374e+01	1.591005e+03
1.480000e-06	6.462434e-06	2.420374e-08	4.539195e+01	1.591955e+03
1.490000e-06	6.501085e-06	2.422576e-08	4.566343e+01	1.592635e+03
1.500000e-06	6.537595e-06	2.424702e-08	4.591988e+01	1.593327e+03
1.510000e-06	6.571803e-06	2.426830e-08	4.616015e+01	1.594259e+03
1.520000e-06	6.603589e-06	2.428902e-08	4.638342e+01	1.595542e+03
1.530000e-06	6.633149e-06	2.430836e-08	4.659105e+01	1.597134e+03
1.540000e-06	6.660460e-06	2.432466e-08	4.678288e+01	1.598864e+03
1.550000e-06	6.685221e-06	2.433849e-08	4.695680e+01	1.600482e+03
1.560000e-06	6.707436e-06	2.434982e-08	4.711284e+01	1.601746e+03
1.570000e-06	6.727380e-06	2.435852e-08	4.725292e+01	1.602495e+03
1.580000e-06	6.745052e-06	2.436648e-08	4.737705e+01	1.602698e+03
1.590000e-06	6.760225e-06	2.437386e-08	4.748363e+01	1.602463e+03
1.600000e-06	6.772848e-06	2.438089e-08	4.757229e+01	1.602002e+03
1.610000e-06	6.782837e-06	2.438784e-08	4.764245e+01	1.601563e+03
1.620000e-06	6.790244e-06	2.439405e-08	4.769448e+01	1.601350e+03
1.630000e-06	6.795312e-06	2.439888e-08	4.773008e+01	1.601462e+03
1.640000e-06	6.798025e-06	2.439999e-08	4.774914e+01	1.601865e+03
1.650000e-06	6.798255e-06	2.439825e-08	4.775075e+01	1.602400e+03
1.660000e-06	6.796148e-06	2.439415e-08	4.773595e+01	1.602838e+03
1.670000e-06	6.791897e-06	2.438487e-08	4.770609e+01	1.602951e+03
1.680000e-06	6.785337e-06	2.437639e-08	4.766001e+01	1.602584e+03
1.690000e-06	6.776488e-06	2.436869e-08	4.759786e+01	1.601701e+03
1.700000e-06	6.765512e-06	2.436251e-08	4.752076e+01	1.600400e+03
1.710000e-06	6.752264e-06	2.435766e-08	4.742771e+01	1.598879e+03
1.720000e-06	6.736649e-06	2.435121e-08	4.731803e+01	1.597377e+03
1.730000e-06	6.718939e-06	2.433761e-08	4.719364e+01	1.596099e+03
1.740000e-06	6.698950e-06	2.428991e-08	4.705323e+01	1.595155e+03
1.750000e-06	6.675838e-06	2.426523e-08	4.689089e+01	1.594530e+03
1.760000e-06	6.649564e-06	2.426420e-08	4.670635e+01	1.594088e+03
1.770000e-06	6.620835e-06	2.424931e-08	4.650455e+01	1.593620e+03
1.780000e-06	6.590144e-06	2.425164e-08	4.628898e+01	1.592904e+03
1.790000e-06	6.557967e-06	2.427456e-08	4.606297e+01	1.591779e+03
1.800000e-06	6.524196e-06	2.422608e-08	4.582576e+01	1.590187e+03
1.810000e-06	6.488020e-06	2.421808e-08	4.557167e+01	1.588192e+03
1.820000e-06	6.449422e-06	2.421114e-08	4.530056e+01	1.585948e+03
1.830000e-06	6.408659e-06	2.413541e-08	4.501424e+01	1.583649e+03
1.840000e-06	6.365685e-06	2.416314e-08	4.471239e+01	1.581464e+03
1.850000e-06	6.320611e-06	2.412512e-08	4.439579e+01	1.579475e+03
1.860000e-06	6.273191e-06	2.406390e-08	4.406271e+01	1.577653e+03
1.870000e-06	6.223420e-06	2.403097e-08	4.371312e+01	1.575864e+03
1.880000e-06	6.171325e-06	2.394698e-08	4.334721e+01	1.573909e+03
1.890000e-06	6.116554e-06	2.395945e-08	4.296250e+01	1.571595e+03
1.900000e-06	6.059374e-06	2.391917e-08	4.256087e+01	1.568791e+03
1.910000e-06	5.999974e-06	2.387366e-08	4.214365e+01	1.565475e+03
1.920000e-06	5.938307e-06	2.385411e-08	4.171050e+01	1.561745e+03
1.930000e-06	5.874464e-06	2.376480e-08	4.126207e+01	1.557788e+03
1.940000e-06	5.808440e-06	2.375158e-08	4.079831e+01	1.553820e+03
1.950000e-06	5.740311e-06	2.367827e-08	4.031978e+01	1.550020e+03
1.960000e-06	5.669902e-06	2.361742e-08	3.982523e+01	1.546467e+03
1.970000e-06	5.597260e-06	2.356722e-08	3.931499e+01	1.543118e+03
1.980000e-06	5.522566e-06	2.348672e-08	3.879034e+01	1.539810e+03
1.990000e-06	5.445633e-06	2.344842e-08	3.824997e+01	1.536317e+03
2.000000e-06	5.366545e-06	2.336629e-08	3.769446e+01	1.532415e+03
2.010000e-06	5.285536e-06	2.332291e-08	3.712545e+01	1.527952e+03
2.020000e-06	5.202734e-06	2.324092e-08	3.654385e+01	1.522901e+03
2.030000e-06	5.118145e-06	2.314696e-08	3.594970e+01	1.517366e+03
2.040000e-06	5.031659e-06	2.307941e-08	3.534223e+01	1.511554e+03
2.050000e-06	4.943360e-06	2.300080e-08	3.472202e+01	1.505707e+03
2.060000e-06	4.853453e-06	2.294022e-08	3.409051e+01	1.500025e+03
2.070000e-06	4.761966e-06	2.283946e-08	3.344791e+01	1.494602e+03
2.080000e-06	4.668780e-06	2.275789e-08	3.279338e+01	1.489387e+03
2.090000e-06	4.573858e-06	2.266505e-08	3.212665e+01	1.484198e+03
2.100000e-06	4.477299e-06	2.257357e-08	3.144842e+01	1.478774e+03
2.110000e-06	4.379299e-06	2.248260e-08	3.076007e+01	1.472852e+03
2.120000e-06	4.279893e-06	2.238367e-08	3.006184e+01	1.466252e+03
2.130000e-06	4.178966e-06	2.228336e-08	2.935294e+01	1.458932e+03
2.140000e-06	4.076394e-06	2.216261e-08	2.863248e+01	1.451002e+03
2.150000e-06	3.972208e-06	2.204782e-08	2.790068e+01	1.442694e+03
2.160000e-06	3.866618e-06	2.192567e-08	2.715901e+01	1.434281e+03
2.170000e-06	3.759768e-06	2.181376e-08	2.640850e+01	1.425995e+03
2.180000e-06	3.651665e-06	2.169429e-08	2.564919e+01	1.417941e+03
2.190000e-06	3.542219e-06	2.157114e-08	2.488044e+01	1.410056e+03
2.200000e-06	3.431408e-06	2.143605e-08	2.410211e+01	1.402120e+03
2.210000e-06	3.319219e-06	2.129373e-08	2.331410e+01	1.393817e+03
2.220000e-06	3.205755e-06	2.114841e-08	2.251713e+01	1.384824e+03
2.230000e-06	3.091038e-06	2.099748e-08	2.171136e+01	1.374917e+03
2.240000e-06	2.975030e-06	2.084553e-08	2.089652e+01	1.364035e+03
2.250000e-06	2.857815e-06	2.068335e-08	2.007321e+01	1.352307e+03
2.260000e-06	2.739448e-06	2.051288e-08	1.924180e+01	1.340009e+03
2.270000e-06	2.619989e-06	2.033296e-08	1.840273e+01	1.327475e+03
2.280000e-06	2.499450e-06	2.015129e-08	1.755607e+01	1.314985e+03
2.290000e-06	2.378060e-06	1.996492e-08	1.670342e+01	1.302660e+03
2.300000e-06	2.256015e-06	1.977179e-08	1.584618e+01	1.290406e+03
2.310000e-06	2.133231e-06	1.956427e-08	1.498375e+01	1.277923e+03
2.320000e-06	2.009721e-06	1.934452e-08	1.411623e+01	1.264776e+03
2.330000e-06	1.885510e-06	1.911366e-08	1.324377e+01	1.250522e+03
2.340000e-06	1.760578e-06	1.887408e-08	1.236625e+01	1.234835e+03
2.350000e-06	1.635034e-06	1.862408e-08	1.148443e+01	1.217612e+03
2.360000e-06	1.508962e-06	1.836090e-08	1.059890e+01	1.198998e+03
2.370000e-06	1.382376e-06	1.808556e-08	9.709769e+00	1.179343e+03
2.380000e-06	1.255283e-06	1.779528e-08	8.817074e+00	1.159074e+03
2.390000e-06	1.127766e-06	1.749036e-08	7.921398e+00	1.138534e+03
2.400000e-06	9.998770e-07	1.716618e-08	7.023107e+00	1.117834e+03
2.410000e-06	8.716072e-07	1.682120e-08	6.122144e+00	1.096756e+03
2.420000e-06	7.430400e-07	1.645466e-08	5.219091e+00	1.074757e+03
2.430000e-06	6.142262e-07	1.606581e-08	4.314308e+00	1.051075e+03
2.440000e-06	4.852298e-07	1.565176e-08	3.408240e+00	1.024909e+03
2.450000e-06	3.560690e-07	1.521114e-08	2.501018e+00	9.956304e+02
2.460000e-06	2.267582e-07	1.473733e-08	1.592743e+00	9.629426e+02
2.470000e-06	9.735461e-08	1.422199e-08	6.838160e-01	9.269469e+02
2.480000e-06	-3.207861e-08	1.366463e-08	-2.253192e-01	8.880594e+02
2.490000e-06	-1.614962e-07	1.306207e-08	-1.134344e+00	8.467888e+02
2.500000e-06	-2.909078e-07	1.240627e-08	-2.043328e+00	8.034175e+02
2.510000e-06	-4.202489e-07	1.168590e-08	-2.951817e+00	7.576668e+02
2.520000e-06	-5.494849e-07	1.088843e-08	-3.859566e+00	7.084440e+02
2.530000e-06	-6.785835e-07	9.999760e-09	-4.766351e+00	6.537637e+02
2.540000e-06	-8.075048e-07	9.002955e-09	-5.671891e+00	5.908987e+02
2.550000e-06	-9.361056e-07	7.872137e-09	-6.575179e+00	5.167676e+02
2.560000e-06	-1.064309e-06	6.573277e-09	-7.475673e+00	4.285029e+02
2.570000e-06	-1.192151e-06	5.066243e-09	-8.373635e+00	3.240963e+02
2.580000e-06	-1.319544e-06	3.305386e-09	-9.268442e+00	2.029827e+02
2.590000e-06	-1.446377e-06	1.262622e-09	-1.015931e+01	6.643102e+01
2.600000e-06	-1.572628e-06	-1.037278e-09	-1.104610e+01	-8.236299e+01
2.610000e-06	-1.698269e-06	-3.497575e-09	-1.192859e+01	-2.385235e+02
2.620000e-06	-1.823260e-06	-5.998256e-09	-1.280653e+01	-3.960534e+02
2.630000e-06	-1.947558e-06	-8.421388e-09	-1.367959e+01	-5.486096e+02
2.640000e-06	-2.071025e-06	-1.063075e-08	-1.454682e+01	-6.903503e+02
2.650000e-06	-2.193619e-06	-1.253422e-08	-1.540791e+01	-8.166951e+02
2.660000e-06	-2.315411e-06	-1.412124e-08	-1.626338e+01	-9.248549e+02
2.670000e-06	-2.436452e-06	-1.542320e-08	-1.711357e+01	-1.014042e+03
2.680000e-06	-2.556649e-06	-1.648758e-08	-1.795783e+01	-1.085336e+03
2.690000e-06	-2.675818e-06	-1.735942e-08	-1.879487e+01	-1.141256e+03
2.700000e-06	-2.793870e-06	-1.807722e-08	-1.962407e+01	-1.185140e+03
2.710000e-06	-2.910827e-06	-1.867604e-08	-2.044556e+01	-1.220483e+03
2.720000e-06	-3.026592e-06	-1.918262e-08	-2.125869e+01	-1.250354e+03
2.730000e-06	-3.141053e-06	-1.961572e-08	-2.206267e+01	-1.277004e+03
2.740000e-06	-3.254222e-06	-1.999161e-08	-2.285756e+01	-1.301727e+03
2.750000e-06	-3.366146e-06	-2.032217e-08	-2.364371e+01	-1.324945e+03
2.760000e-06	-3.476738e-06	-2.061478e-08	-2.442051e+01	-1.346473e+03
2.770000e-06	-3.586031e-06	-2.087531e-08	-2.518818e+01	-1.365865e+03
2.780000e-06	-3.694180e-06	-2.110995e-08	-2.594782e+01	-1.382741e+03
2.790000e-06	-3.801147e-06	-2.132664e-08	-2.669915e+01	-1.397012e+03
2.800000e-06	-3.906843e-06	-2.152901e-08	-2.744155e+01	-1.408965e+03
2.810000e-06	-4.011133e-06	-2.171463e-08	-2.817408e+01	-1.419203e+03
2.820000e-06	-4.113894e-06	-2.188318e-08	-2.889587e+01	-1.428478e+03
2.830000e-06	-4.215109e-06	-2.203883e-08	-2.960680e+01	-1.437491e+03
2.840000e-06	-4.314827e-06	-2.218501e-08	-3.030722e+01	-1.446711e+03
2.850000e-06	-4.413141e-06	-2.232244e-08	-3.099778e+01	-1.456281e+03
2.860000e-06	-4.510053e-06	-2.245157e-08	-3.167848e+01	-1.466019e+03
2.870000e-06	-4.605354e-06	-2.257356e-08	-3.234788e+01	-1.475521e+03
2.880000e-06	-4.698916e-06	-2.268827e-08	-3.300505e+01	-1.484316e+03
2.890000e-06	-4.790801e-06	-2.279454e-08	-3.365045e+01	-1.492030e+03
2.900000e-06	-4.881025e-06	-2.289372e-08	-3.428418e+01	-1.498509e+03
2.910000e-06	-4.969499e-06	-2.298764e-08	-3.490562e+01	-1.503861e+03
2.920000e-06	-5.056079e-06	-2.307606e-08	-3.551376e+01	-1.508421e+03
2.930000e-06	-5.140761e-06	-2.315916e-08	-3.610856e+01	-1.512644e+03
2.940000e-06	-5.223639e-06	-2.323836e-08	-3.669069e+01	-1.516966e+03
