# Temperatura_=_31.8
# Concentracion g/m^3_=_41000.0
# C_Vs_to_Am_M_A/Vsm_=_65563218390.804596
# pendiente_HvsI_1/m_=_3716.3
# ordenada_HvsI_A/m_=_1297.0
# frecuencia_Hz_=_301994.9757701167

Tiempo_(s)	Campo_(V.s)	Magnetizacion_(V.s)	Campo_(kA/m)	Magnetizacion_(A/m)
0.000000e+00	-6.724143e-06	-2.480019e-08	-4.747226e+01	-1.622481e+03
1.000000e-08	-6.721088e-06	-2.479898e-08	-4.745069e+01	-1.622884e+03
2.000000e-08	-6.715820e-06	-2.479091e-08	-4.741350e+01	-1.623171e+03
3.000000e-08	-6.708486e-06	-2.478185e-08	-4.736172e+01	-1.623123e+03
4.000000e-08	-6.698856e-06	-2.477205e-08	-4.729374e+01	-1.622598e+03
5.000000e-08	-6.686762e-06	-2.475778e-08	-4.720835e+01	-1.621572e+03
6.000000e-08	-6.672141e-06	-2.473912e-08	-4.710513e+01	-1.620151e+03
7.000000e-08	-6.655134e-06	-2.470714e-08	-4.698506e+01	-1.618534e+03
8.000000e-08	-6.636063e-06	-2.469413e-08	-4.685042e+01	-1.616956e+03
9.000000e-08	-6.614702e-06	-2.475017e-08	-4.669961e+01	-1.615615e+03
1.000000e-07	-6.590611e-06	-2.473228e-08	-4.652953e+01	-1.614609e+03
1.100000e-07	-6.563777e-06	-2.466085e-08	-4.634008e+01	-1.613914e+03
1.200000e-07	-6.534604e-06	-2.464529e-08	-4.613412e+01	-1.613387e+03
1.300000e-07	-6.503591e-06	-2.460241e-08	-4.591517e+01	-1.612814e+03
1.400000e-07	-6.470849e-06	-2.449606e-08	-4.568401e+01	-1.611975e+03
1.500000e-07	-6.436106e-06	-2.457538e-08	-4.543873e+01	-1.610712e+03
1.600000e-07	-6.399253e-06	-2.459200e-08	-4.517855e+01	-1.608970e+03
1.700000e-07	-6.360400e-06	-2.445214e-08	-4.490424e+01	-1.606812e+03
1.800000e-07	-6.319269e-06	-2.452870e-08	-4.461386e+01	-1.604395e+03
1.900000e-07	-6.275657e-06	-2.443618e-08	-4.430596e+01	-1.601910e+03
2.000000e-07	-6.229839e-06	-2.436176e-08	-4.398249e+01	-1.599522e+03
2.100000e-07	-6.181653e-06	-2.441848e-08	-4.364229e+01	-1.597315e+03
2.200000e-07	-6.130719e-06	-2.432505e-08	-4.328270e+01	-1.595261e+03
2.300000e-07	-6.077257e-06	-2.430418e-08	-4.290526e+01	-1.593232e+03
2.400000e-07	-6.021560e-06	-2.425435e-08	-4.251204e+01	-1.591038e+03
2.500000e-07	-5.963522e-06	-2.418033e-08	-4.210229e+01	-1.588494e+03
2.600000e-07	-5.903163e-06	-2.416419e-08	-4.167616e+01	-1.585478e+03
2.700000e-07	-5.840726e-06	-2.409746e-08	-4.123536e+01	-1.581971e+03
2.800000e-07	-5.776270e-06	-2.405001e-08	-4.078030e+01	-1.578070e+03
2.900000e-07	-5.709582e-06	-2.399408e-08	-4.030949e+01	-1.573955e+03
3.000000e-07	-5.640612e-06	-2.395325e-08	-3.982257e+01	-1.569833e+03
3.100000e-07	-5.569563e-06	-2.388835e-08	-3.932096e+01	-1.565871e+03
3.200000e-07	-5.496475e-06	-2.382149e-08	-3.880496e+01	-1.562141e+03
3.300000e-07	-5.421186e-06	-2.377949e-08	-3.827342e+01	-1.558595e+03
3.400000e-07	-5.343622e-06	-2.368205e-08	-3.772582e+01	-1.555074e+03
3.500000e-07	-5.263880e-06	-2.362847e-08	-3.716285e+01	-1.551354e+03
3.600000e-07	-5.182189e-06	-2.356214e-08	-3.658611e+01	-1.547219e+03
3.700000e-07	-5.098815e-06	-2.348208e-08	-3.599749e+01	-1.542526e+03
3.800000e-07	-5.013804e-06	-2.341422e-08	-3.539731e+01	-1.537248e+03
3.900000e-07	-4.927224e-06	-2.332770e-08	-3.478606e+01	-1.531489e+03
4.000000e-07	-4.839015e-06	-2.324495e-08	-3.416331e+01	-1.525446e+03
4.100000e-07	-4.749022e-06	-2.315830e-08	-3.352796e+01	-1.519354e+03
4.200000e-07	-4.657322e-06	-2.308129e-08	-3.288057e+01	-1.513402e+03
4.300000e-07	-4.564021e-06	-2.298620e-08	-3.222186e+01	-1.507677e+03
4.400000e-07	-4.469140e-06	-2.288593e-08	-3.155200e+01	-1.502128e+03
4.500000e-07	-4.372617e-06	-2.278893e-08	-3.087055e+01	-1.496581e+03
4.600000e-07	-4.274408e-06	-2.268293e-08	-3.017720e+01	-1.490784e+03
4.700000e-07	-4.174637e-06	-2.258228e-08	-2.947282e+01	-1.484489e+03
4.800000e-07	-4.073467e-06	-2.247700e-08	-2.875856e+01	-1.477528e+03
4.900000e-07	-3.970914e-06	-2.237037e-08	-2.803454e+01	-1.469864e+03
5.000000e-07	-3.866936e-06	-2.225359e-08	-2.730046e+01	-1.461604e+03
5.100000e-07	-3.761513e-06	-2.213090e-08	-2.655618e+01	-1.452969e+03
5.200000e-07	-3.654596e-06	-2.200423e-08	-2.580134e+01	-1.444217e+03
5.300000e-07	-3.546286e-06	-2.187328e-08	-2.503668e+01	-1.435563e+03
5.400000e-07	-3.436753e-06	-2.173777e-08	-2.426338e+01	-1.427096e+03
5.500000e-07	-3.326030e-06	-2.159586e-08	-2.348168e+01	-1.418751e+03
5.600000e-07	-3.214040e-06	-2.145235e-08	-2.269103e+01	-1.410309e+03
5.700000e-07	-3.100706e-06	-2.130142e-08	-2.189090e+01	-1.401465e+03
5.800000e-07	-2.985974e-06	-2.114701e-08	-2.108090e+01	-1.391913e+03
5.900000e-07	-2.869908e-06	-2.098650e-08	-2.026147e+01	-1.381440e+03
6.000000e-07	-2.752753e-06	-2.082076e-08	-1.943436e+01	-1.369995e+03
6.100000e-07	-2.634655e-06	-2.064512e-08	-1.860059e+01	-1.357706e+03
6.200000e-07	-2.515627e-06	-2.046044e-08	-1.776025e+01	-1.344839e+03
6.300000e-07	-2.395695e-06	-2.026995e-08	-1.691354e+01	-1.331710e+03
6.400000e-07	-2.274956e-06	-2.007246e-08	-1.606112e+01	-1.318581e+03
6.500000e-07	-2.153417e-06	-1.987002e-08	-1.520307e+01	-1.305560e+03
6.600000e-07	-2.031002e-06	-1.965748e-08	-1.433882e+01	-1.292548e+03
6.700000e-07	-1.907748e-06	-1.943610e-08	-1.346865e+01	-1.279253e+03
6.800000e-07	-1.783771e-06	-1.920454e-08	-1.259337e+01	-1.265258e+03
6.900000e-07	-1.659222e-06	-1.896176e-08	-1.171406e+01	-1.250142e+03
7.000000e-07	-1.534162e-06	-1.870924e-08	-1.083114e+01	-1.233603e+03
7.100000e-07	-1.408638e-06	-1.844584e-08	-9.944941e+00	-1.215549e+03
7.200000e-07	-1.282749e-06	-1.817134e-08	-9.056173e+00	-1.196125e+03
7.300000e-07	-1.156490e-06	-1.788330e-08	-8.164786e+00	-1.175664e+03
7.400000e-07	-1.029831e-06	-1.757869e-08	-7.270581e+00	-1.154566e+03
7.500000e-07	-9.028011e-07	-1.725589e-08	-6.373750e+00	-1.133144e+03
7.600000e-07	-7.754243e-07	-1.691633e-08	-5.474473e+00	-1.111484e+03
7.700000e-07	-6.477527e-07	-1.655589e-08	-4.573116e+00	-1.089356e+03
7.800000e-07	-5.198386e-07	-1.617299e-08	-3.670046e+00	-1.066226e+03
7.900000e-07	-3.917415e-07	-1.576890e-08	-2.765684e+00	-1.041359e+03
8.000000e-07	-2.635490e-07	-1.533990e-08	-1.860649e+00	-1.013995e+03
8.100000e-07	-1.352374e-07	-1.488011e-08	-9.547725e-01	-9.835450e+02
8.200000e-07	-6.818325e-09	-1.438552e-08	-4.813718e-02	-9.497456e+02
8.300000e-07	1.215997e-07	-1.385397e-08	8.584903e-01	-9.127122e+02
8.400000e-07	2.499612e-07	-1.328101e-08	1.764719e+00	-8.728536e+02
8.500000e-07	3.783128e-07	-1.266188e-08	2.670878e+00	-8.306541e+02
8.600000e-07	5.066065e-07	-1.198811e-08	3.576627e+00	-7.863665e+02
8.700000e-07	6.347264e-07	-1.124978e-08	4.481151e+00	-7.396939e+02
8.800000e-07	7.626365e-07	-1.043602e-08	5.384192e+00	-6.895541e+02
8.900000e-07	8.903121e-07	-9.533241e-09	6.285578e+00	-6.340124e+02
9.000000e-07	1.017714e-06	-8.522902e-09	7.185032e+00	-5.704356e+02
9.100000e-07	1.144762e-06	-7.378313e-09	8.081988e+00	-4.958695e+02
9.200000e-07	1.271368e-06	-6.067011e-09	8.975822e+00	-4.075863e+02
9.300000e-07	1.397550e-06	-4.547980e-09	9.866666e+00	-3.036992e+02
9.400000e-07	1.523279e-06	-2.783906e-09	1.075430e+01	-1.837143e+02
9.500000e-07	1.648510e-06	-7.558341e-10	1.163844e+01	-4.889382e+01
9.600000e-07	1.773276e-06	1.506236e-09	1.251928e+01	9.766649e+01
9.700000e-07	1.897494e-06	3.908559e-09	1.339626e+01	2.512829e+02
9.800000e-07	2.021032e-06	6.341215e-09	1.426843e+01	4.062226e+02
9.900000e-07	2.143778e-06	8.682531e-09	1.513501e+01	5.564438e+02
1.000000e-06	2.265579e-06	1.080663e-08	1.599492e+01	6.963979e+02
1.010000e-06	2.386425e-06	1.264746e-08	1.684810e+01	8.217433e+02
1.020000e-06	2.506381e-06	1.420163e-08	1.769498e+01	9.298380e+02
1.030000e-06	2.625352e-06	1.549588e-08	1.853491e+01	1.019927e+03
1.040000e-06	2.743284e-06	1.657037e-08	1.936751e+01	1.093007e+03
1.050000e-06	2.860242e-06	1.746668e-08	2.019323e+01	1.151414e+03
1.060000e-06	2.976182e-06	1.821622e-08	2.101176e+01	1.198240e+03
1.070000e-06	3.090914e-06	1.884730e-08	2.182176e+01	1.236711e+03
1.080000e-06	3.204347e-06	1.938417e-08	2.262260e+01	1.269648e+03
1.090000e-06	3.316548e-06	1.984785e-08	2.341473e+01	1.299113e+03
1.100000e-06	3.427528e-06	2.025158e-08	2.419825e+01	1.326284e+03
1.110000e-06	3.537295e-06	2.060795e-08	2.497321e+01	1.351546e+03
1.120000e-06	3.645972e-06	2.092415e-08	2.574046e+01	1.374749e+03
1.130000e-06	3.753547e-06	2.120782e-08	2.649993e+01	1.395522e+03
1.140000e-06	3.859763e-06	2.146612e-08	2.724982e+01	1.413580e+03
1.150000e-06	3.964473e-06	2.169972e-08	2.798907e+01	1.428919e+03
1.160000e-06	4.067703e-06	2.191298e-08	2.871787e+01	1.441885e+03
1.170000e-06	4.169516e-06	2.210901e-08	2.943667e+01	1.453102e+03
1.180000e-06	4.270000e-06	2.228963e-08	3.014608e+01	1.463318e+03
1.190000e-06	4.368949e-06	2.245698e-08	3.084465e+01	1.473205e+03
1.200000e-06	4.466145e-06	2.261442e-08	3.153086e+01	1.483199e+03
1.210000e-06	4.561686e-06	2.276199e-08	3.220538e+01	1.493418e+03
1.220000e-06	4.655629e-06	2.290127e-08	3.286861e+01	1.503675e+03
1.230000e-06	4.748068e-06	2.303108e-08	3.352123e+01	1.513577e+03
1.240000e-06	4.838943e-06	2.315295e-08	3.416280e+01	1.522685e+03
1.250000e-06	4.927956e-06	2.326461e-08	3.479123e+01	1.530660e+03
1.260000e-06	5.015118e-06	2.336608e-08	3.540659e+01	1.537381e+03
1.270000e-06	5.100585e-06	2.346042e-08	3.600999e+01	1.542978e+03
1.280000e-06	5.184399e-06	2.354962e-08	3.660171e+01	1.547790e+03
1.290000e-06	5.266376e-06	2.363557e-08	3.718047e+01	1.552262e+03
1.300000e-06	5.346295e-06	2.371878e-08	3.774469e+01	1.556810e+03
1.310000e-06	5.424193e-06	2.379784e-08	3.829465e+01	1.561708e+03
1.320000e-06	5.500084e-06	2.387190e-08	3.883044e+01	1.567018e+03
1.330000e-06	5.573758e-06	2.394221e-08	3.935058e+01	1.572592e+03
1.340000e-06	5.645277e-06	2.400846e-08	3.985549e+01	1.578133e+03
1.350000e-06	5.714868e-06	2.407231e-08	4.034681e+01	1.583298e+03
1.360000e-06	5.782481e-06	2.413416e-08	4.082415e+01	1.587814e+03
1.370000e-06	5.847877e-06	2.419245e-08	4.128584e+01	1.591555e+03
1.380000e-06	5.911127e-06	2.424688e-08	4.173239e+01	1.594585e+03
1.390000e-06	5.972477e-06	2.429839e-08	4.216552e+01	1.597122e+03
1.400000e-06	6.031881e-06	2.434744e-08	4.258491e+01	1.599470e+03
1.410000e-06	6.089097e-06	2.439273e-08	4.298885e+01	1.601922e+03
1.420000e-06	6.144105e-06	2.443450e-08	4.337721e+01	1.604666e+03
1.430000e-06	6.196892e-06	2.447460e-08	4.374988e+01	1.607733e+03
1.440000e-06	6.247100e-06	2.451444e-08	4.410435e+01	1.610993e+03
1.450000e-06	6.294760e-06	2.455116e-08	4.444083e+01	1.614201e+03
1.460000e-06	6.340219e-06	2.458372e-08	4.476177e+01	1.617081e+03
1.470000e-06	6.383595e-06	2.461293e-08	4.506800e+01	1.619412e+03
1.480000e-06	6.424636e-06	2.463824e-08	4.535775e+01	1.621097e+03
1.490000e-06	6.463287e-06	2.466148e-08	4.563063e+01	1.622194e+03
1.500000e-06	6.499851e-06	2.468357e-08	4.588877e+01	1.622898e+03
1.510000e-06	6.534230e-06	2.470512e-08	4.613148e+01	1.623473e+03
1.520000e-06	6.566182e-06	2.472539e-08	4.635706e+01	1.624175e+03
1.530000e-06	6.595798e-06	2.474329e-08	4.656615e+01	1.625175e+03
1.540000e-06	6.623200e-06	2.475893e-08	4.675960e+01	1.626504e+03
1.550000e-06	6.648162e-06	2.477203e-08	4.693584e+01	1.628056e+03
1.560000e-06	6.670604e-06	2.478345e-08	4.709428e+01	1.629616e+03
1.570000e-06	6.690803e-06	2.479493e-08	4.723688e+01	1.630938e+03
1.580000e-06	6.708754e-06	2.480539e-08	4.736361e+01	1.631820e+03
1.590000e-06	6.724168e-06	2.481362e-08	4.747244e+01	1.632167e+03
1.600000e-06	6.737000e-06	2.481982e-08	4.756303e+01	1.632021e+03
1.610000e-06	6.747189e-06	2.482498e-08	4.763496e+01	1.631545e+03
1.620000e-06	6.754753e-06	2.483054e-08	4.768837e+01	1.630971e+03
1.630000e-06	6.759990e-06	2.483455e-08	4.772534e+01	1.630526e+03
1.640000e-06	6.763007e-06	2.483458e-08	4.774664e+01	1.630364e+03
1.650000e-06	6.763589e-06	2.483486e-08	4.775075e+01	1.630517e+03
1.660000e-06	6.761743e-06	2.482942e-08	4.773772e+01	1.630883e+03
1.670000e-06	6.757779e-06	2.482180e-08	4.770973e+01	1.631267e+03
1.680000e-06	6.751500e-06	2.481853e-08	4.766540e+01	1.631437e+03
1.690000e-06	6.742945e-06	2.481300e-08	4.760500e+01	1.631198e+03
1.700000e-06	6.732302e-06	2.480601e-08	4.752987e+01	1.630455e+03
1.710000e-06	6.719344e-06	2.479931e-08	4.743838e+01	1.629242e+03
1.720000e-06	6.704044e-06	2.481050e-08	4.733036e+01	1.627711e+03
1.730000e-06	6.686643e-06	2.479523e-08	4.720751e+01	1.626085e+03
1.740000e-06	6.667025e-06	2.468778e-08	4.706901e+01	1.624591e+03
1.750000e-06	6.644406e-06	2.468617e-08	4.690932e+01	1.623390e+03
1.760000e-06	6.618583e-06	2.472268e-08	4.672701e+01	1.622531e+03
1.770000e-06	6.590233e-06	2.468273e-08	4.652686e+01	1.621932e+03
1.780000e-06	6.559802e-06	2.474591e-08	4.631202e+01	1.621415e+03
1.790000e-06	6.527851e-06	2.473780e-08	4.608644e+01	1.620755e+03
1.800000e-06	6.494482e-06	2.457639e-08	4.585086e+01	1.619751e+03
1.810000e-06	6.458826e-06	2.468569e-08	4.559913e+01	1.618284e+03
1.820000e-06	6.420720e-06	2.463647e-08	4.533010e+01	1.616352e+03
1.830000e-06	6.380422e-06	2.455664e-08	4.504560e+01	1.614063e+03
1.840000e-06	6.337898e-06	2.469868e-08	4.474538e+01	1.611595e+03
1.850000e-06	6.293334e-06	2.450333e-08	4.443076e+01	1.609137e+03
1.860000e-06	6.246472e-06	2.450511e-08	4.409991e+01	1.606825e+03
1.870000e-06	6.197162e-06	2.451117e-08	4.375179e+01	1.604695e+03
1.880000e-06	6.145615e-06	2.438309e-08	4.338787e+01	1.602674e+03
1.890000e-06	6.091409e-06	2.447534e-08	4.300518e+01	1.600601e+03
1.900000e-06	6.034707e-06	2.433017e-08	4.260486e+01	1.598280e+03
1.910000e-06	5.975868e-06	2.430654e-08	4.218946e+01	1.595545e+03
1.920000e-06	5.914812e-06	2.432248e-08	4.175840e+01	1.592316e+03
1.930000e-06	5.851576e-06	2.419847e-08	4.131196e+01	1.588624e+03
1.940000e-06	5.786152e-06	2.421138e-08	4.085007e+01	1.584609e+03
1.950000e-06	5.718644e-06	2.408286e-08	4.037347e+01	1.580468e+03
1.960000e-06	5.648837e-06	2.408960e-08	3.988063e+01	1.576400e+03
1.970000e-06	5.576773e-06	2.401526e-08	3.937186e+01	1.572538e+03
1.980000e-06	5.502727e-06	2.392844e-08	3.884910e+01	1.568902e+03
1.990000e-06	5.426537e-06	2.392306e-08	3.831120e+01	1.565393e+03
2.000000e-06	5.348238e-06	2.380003e-08	3.775841e+01	1.561817e+03
2.010000e-06	5.267944e-06	2.378459e-08	3.719154e+01	1.557946e+03
2.020000e-06	5.185809e-06	2.367902e-08	3.661167e+01	1.553585e+03
2.030000e-06	5.101902e-06	2.362186e-08	3.601928e+01	1.548638e+03
2.040000e-06	5.016088e-06	2.356008e-08	3.541344e+01	1.543137e+03
2.050000e-06	4.928393e-06	2.345969e-08	3.479431e+01	1.537230e+03
2.060000e-06	4.839043e-06	2.339151e-08	3.416351e+01	1.531141e+03
2.070000e-06	4.748174e-06	2.328273e-08	3.352197e+01	1.525092e+03
2.080000e-06	4.655651e-06	2.322573e-08	3.286876e+01	1.519237e+03
2.090000e-06	4.561444e-06	2.311948e-08	3.220367e+01	1.513603e+03
2.100000e-06	4.465578e-06	2.303763e-08	3.152685e+01	1.508085e+03
2.110000e-06	4.368196e-06	2.294116e-08	3.083934e+01	1.502465e+03
2.120000e-06	4.269444e-06	2.284025e-08	3.014216e+01	1.496484e+03
2.130000e-06	4.169186e-06	2.273712e-08	2.943433e+01	1.489920e+03
2.140000e-06	4.067283e-06	2.261757e-08	2.871490e+01	1.482655e+03
2.150000e-06	3.963703e-06	2.251491e-08	2.798363e+01	1.474717e+03
2.160000e-06	3.858703e-06	2.239476e-08	2.724233e+01	1.466267e+03
2.170000e-06	3.752496e-06	2.228547e-08	2.649252e+01	1.457553e+03
2.180000e-06	3.645131e-06	2.215742e-08	2.573452e+01	1.448824e+03
2.190000e-06	3.536494e-06	2.203527e-08	2.496755e+01	1.440250e+03
2.200000e-06	3.426513e-06	2.189926e-08	2.419108e+01	1.431856e+03
2.210000e-06	3.315117e-06	2.176404e-08	2.340463e+01	1.423504e+03
2.220000e-06	3.202380e-06	2.162065e-08	2.260871e+01	1.414932e+03
2.230000e-06	3.088426e-06	2.147287e-08	2.180420e+01	1.405820e+03
2.240000e-06	2.973260e-06	2.131670e-08	2.099113e+01	1.395893e+03
2.250000e-06	2.856992e-06	2.115003e-08	2.017028e+01	1.385001e+03
2.260000e-06	2.739614e-06	2.098195e-08	1.934160e+01	1.373172e+03
2.270000e-06	2.621015e-06	2.080741e-08	1.850429e+01	1.360599e+03
2.280000e-06	2.501212e-06	2.063335e-08	1.765849e+01	1.347583e+03
2.290000e-06	2.380487e-06	2.044561e-08	1.680617e+01	1.334432e+03
2.300000e-06	2.259022e-06	2.025049e-08	1.594863e+01	1.321349e+03
2.310000e-06	2.136865e-06	2.004082e-08	1.508620e+01	1.308359e+03
2.320000e-06	2.014036e-06	1.982491e-08	1.421904e+01	1.295273e+03
2.330000e-06	1.890556e-06	1.959888e-08	1.334727e+01	1.281734e+03
2.340000e-06	1.766398e-06	1.936473e-08	1.247072e+01	1.267308e+03
2.350000e-06	1.641652e-06	1.911865e-08	1.159002e+01	1.251611e+03
2.360000e-06	1.516441e-06	1.886028e-08	1.070603e+01	1.234422e+03
2.370000e-06	1.390748e-06	1.859127e-08	9.818644e+00	1.215752e+03
2.380000e-06	1.264526e-06	1.830890e-08	8.927516e+00	1.195837e+03
2.390000e-06	1.137774e-06	1.801510e-08	8.032656e+00	1.175058e+03
2.400000e-06	1.010518e-06	1.770404e-08	7.134229e+00	1.153795e+03
2.410000e-06	8.828352e-07	1.737718e-08	6.232792e+00	1.132280e+03
2.420000e-06	7.548554e-07	1.702949e-08	5.329258e+00	1.110468e+03
2.430000e-06	6.266212e-07	1.666010e-08	4.423928e+00	1.087993e+03
2.440000e-06	4.982082e-07	1.626899e-08	3.517336e+00	1.064217e+03
2.450000e-06	3.696881e-07	1.585413e-08	2.609987e+00	1.038370e+03
2.460000e-06	2.410361e-07	1.541307e-08	1.701708e+00	1.009741e+03
2.470000e-06	1.122541e-07	1.494092e-08	7.925107e-01	9.778670e+02
2.480000e-06	-1.657848e-08	1.443471e-08	-1.170436e-01	9.426490e+02
2.490000e-06	-1.454322e-07	1.388737e-08	-1.026747e+00	9.043461e+02
2.500000e-06	-2.742811e-07	1.329334e-08	-1.936417e+00	8.634328e+02
2.510000e-06	-4.030517e-07	1.265023e-08	-2.845533e+00	8.203347e+02
2.520000e-06	-5.317163e-07	1.195200e-08	-3.753902e+00	7.751053e+02
2.530000e-06	-6.602399e-07	1.118708e-08	-4.661275e+00	7.271318e+02
2.540000e-06	-7.885651e-07	1.034157e-08	-5.567248e+00	6.749628e+02
2.550000e-06	-9.166499e-07	9.400446e-09	-6.471522e+00	6.163315e+02
2.560000e-06	-1.044354e-06	8.343035e-09	-7.373109e+00	5.484094e+02
2.570000e-06	-1.171559e-06	7.140734e-09	-8.271177e+00	4.682657e+02
2.580000e-06	-1.298267e-06	5.756950e-09	-9.165729e+00	3.734580e+02
2.590000e-06	-1.424426e-06	4.152845e-09	-1.005641e+01	2.626374e+02
2.600000e-06	-1.549992e-06	2.294664e-09	-1.094290e+01	1.360332e+02
2.610000e-06	-1.674995e-06	1.721371e-10	-1.182542e+01	-4.297452e+00
2.620000e-06	-1.799369e-06	-2.170705e-09	-1.270349e+01	-1.545296e+02
2.630000e-06	-1.923030e-06	-4.629992e-09	-1.357654e+01	-3.094494e+02
2.640000e-06	-2.045958e-06	-7.073098e-09	-1.444440e+01	-4.630941e+02
2.650000e-06	-2.168070e-06	-9.364944e-09	-1.530651e+01	-6.095366e+02
2.660000e-06	-2.289353e-06	-1.140525e-08	-1.616277e+01	-7.436684e+02
2.670000e-06	-2.409913e-06	-1.315625e-08	-1.701392e+01	-8.618327e+02
2.680000e-06	-2.529646e-06	-1.462689e-08	-1.785923e+01	-9.621925e+02
2.690000e-06	-2.648285e-06	-1.584924e-08	-1.869682e+01	-1.044778e+03
2.700000e-06	-2.765742e-06	-1.686414e-08	-1.952606e+01	-1.111223e+03
2.710000e-06	-2.882089e-06	-1.771134e-08	-2.034746e+01	-1.164264e+03
2.720000e-06	-2.997293e-06	-1.842392e-08	-2.116081e+01	-1.207125e+03
2.730000e-06	-3.111211e-06	-1.902798e-08	-2.196506e+01	-1.242916e+03
2.740000e-06	-3.223767e-06	-1.954247e-08	-2.275970e+01	-1.274162e+03
2.750000e-06	-3.335033e-06	-1.998478e-08	-2.354524e+01	-1.302547e+03
2.760000e-06	-3.445090e-06	-2.037153e-08	-2.432224e+01	-1.328889e+03
2.770000e-06	-3.553993e-06	-2.071207e-08	-2.509109e+01	-1.353306e+03
2.780000e-06	-3.661843e-06	-2.101462e-08	-2.585251e+01	-1.375512e+03
2.790000e-06	-3.768565e-06	-2.128698e-08	-2.660596e+01	-1.395141e+03
2.800000e-06	-3.873995e-06	-2.153358e-08	-2.735029e+01	-1.412012e+03
2.810000e-06	-3.978070e-06	-2.176110e-08	-2.808506e+01	-1.426270e+03
2.820000e-06	-4.080596e-06	-2.197342e-08	-2.880889e+01	-1.438396e+03
2.830000e-06	-4.181491e-06	-2.216727e-08	-2.952121e+01	-1.449091e+03
2.840000e-06	-4.280901e-06	-2.234338e-08	-3.022304e+01	-1.459093e+03
2.850000e-06	-4.378925e-06	-2.250605e-08	-3.091508e+01	-1.468988e+03
2.860000e-06	-4.475575e-06	-2.265741e-08	-3.159743e+01	-1.479081e+03
2.870000e-06	-4.570618e-06	-2.280009e-08	-3.226844e+01	-1.489352e+03
2.880000e-06	-4.663894e-06	-2.293420e-08	-3.292696e+01	-1.499509e+03
2.890000e-06	-4.755494e-06	-2.305920e-08	-3.357365e+01	-1.509120e+03
2.900000e-06	-4.845447e-06	-2.317574e-08	-3.420872e+01	-1.517771e+03
2.910000e-06	-4.933679e-06	-2.328515e-08	-3.483164e+01	-1.525207e+03
2.920000e-06	-5.020009e-06	-2.338850e-08	-3.544112e+01	-1.531414e+03
2.930000e-06	-5.104434e-06	-2.348515e-08	-3.603716e+01	-1.536622e+03
2.940000e-06	-5.187097e-06	-2.357539e-08	-3.662076e+01	-1.541230e+03
