# Temperatura_=_82.59
# Concentracion g/m^3_=_41000.0
# C_Vs_to_Am_M_A/Vsm_=_65563218390.804596
# pendiente_HvsI_1/m_=_3716.3
# ordenada_HvsI_A/m_=_1297.0
# frecuencia_Hz_=_302001.49058134994

Tiempo_(s)	Campo_(V.s)	Magnetizacion_(V.s)	Campo_(kA/m)	Magnetizacion_(A/m)
0.000000e+00	-6.724814e-06	-2.364175e-08	-4.747216e+01	-1.549024e+03
1.000000e-08	-6.721316e-06	-2.363707e-08	-4.744747e+01	-1.549047e+03
2.000000e-08	-6.715708e-06	-2.363010e-08	-4.740788e+01	-1.548512e+03
3.000000e-08	-6.708058e-06	-2.362023e-08	-4.735388e+01	-1.547430e+03
4.000000e-08	-6.698027e-06	-2.360745e-08	-4.728307e+01	-1.545949e+03
5.000000e-08	-6.685480e-06	-2.359266e-08	-4.719449e+01	-1.544305e+03
6.000000e-08	-6.670472e-06	-2.357388e-08	-4.708855e+01	-1.542747e+03
7.000000e-08	-6.653146e-06	-2.354997e-08	-4.696624e+01	-1.541462e+03
8.000000e-08	-6.633675e-06	-2.354029e-08	-4.682879e+01	-1.540518e+03
9.000000e-08	-6.611886e-06	-2.354742e-08	-4.667497e+01	-1.539844e+03
1.000000e-07	-6.587366e-06	-2.352674e-08	-4.650188e+01	-1.539259e+03
1.100000e-07	-6.560118e-06	-2.348481e-08	-4.630953e+01	-1.538530e+03
1.200000e-07	-6.530669e-06	-2.345144e-08	-4.610164e+01	-1.537446e+03
1.300000e-07	-6.499404e-06	-2.339944e-08	-4.588094e+01	-1.535889e+03
1.400000e-07	-6.466345e-06	-2.335867e-08	-4.564757e+01	-1.533864e+03
1.500000e-07	-6.431237e-06	-2.336432e-08	-4.539972e+01	-1.531499e+03
1.600000e-07	-6.394007e-06	-2.332410e-08	-4.513691e+01	-1.528997e+03
1.700000e-07	-6.354796e-06	-2.328253e-08	-4.486011e+01	-1.526568e+03
1.800000e-07	-6.313254e-06	-2.326302e-08	-4.456686e+01	-1.524356e+03
1.900000e-07	-6.269228e-06	-2.319720e-08	-4.425607e+01	-1.522386e+03
2.000000e-07	-6.222994e-06	-2.317696e-08	-4.392969e+01	-1.520552e+03
2.100000e-07	-6.174311e-06	-2.316344e-08	-4.358602e+01	-1.518648e+03
2.200000e-07	-6.122938e-06	-2.311051e-08	-4.322336e+01	-1.516427e+03
2.300000e-07	-6.069089e-06	-2.306151e-08	-4.284323e+01	-1.513680e+03
2.400000e-07	-6.012953e-06	-2.297988e-08	-4.244695e+01	-1.510307e+03
2.500000e-07	-5.954544e-06	-2.291387e-08	-4.203463e+01	-1.506348e+03
2.600000e-07	-5.893889e-06	-2.287990e-08	-4.160645e+01	-1.501976e+03
2.700000e-07	-5.831138e-06	-2.281654e-08	-4.116348e+01	-1.497447e+03
2.800000e-07	-5.766257e-06	-2.275499e-08	-4.070546e+01	-1.493022e+03
2.900000e-07	-5.699131e-06	-2.270163e-08	-4.023161e+01	-1.488883e+03
3.000000e-07	-5.629871e-06	-2.263325e-08	-3.974268e+01	-1.485078e+03
3.100000e-07	-5.558547e-06	-2.256094e-08	-3.923918e+01	-1.481504e+03
3.200000e-07	-5.485110e-06	-2.250597e-08	-3.872078e+01	-1.477933e+03
3.300000e-07	-5.409451e-06	-2.244071e-08	-3.818668e+01	-1.474081e+03
3.400000e-07	-5.331603e-06	-2.235473e-08	-3.763713e+01	-1.469699e+03
3.500000e-07	-5.251634e-06	-2.228150e-08	-3.707261e+01	-1.464648e+03
3.600000e-07	-5.169712e-06	-2.219813e-08	-3.649430e+01	-1.458940e+03
3.700000e-07	-5.086117e-06	-2.211508e-08	-3.590418e+01	-1.452741e+03
3.800000e-07	-5.000850e-06	-2.203804e-08	-3.530226e+01	-1.446315e+03
3.900000e-07	-4.913940e-06	-2.194828e-08	-3.468874e+01	-1.439944e+03
4.000000e-07	-4.825402e-06	-2.185642e-08	-3.406373e+01	-1.433835e+03
4.100000e-07	-4.735042e-06	-2.176498e-08	-3.342586e+01	-1.428055e+03
4.200000e-07	-4.643031e-06	-2.167028e-08	-3.277633e+01	-1.422503e+03
4.300000e-07	-4.549512e-06	-2.156691e-08	-3.211615e+01	-1.416939e+03
4.400000e-07	-4.454382e-06	-2.146279e-08	-3.144461e+01	-1.411057e+03
4.500000e-07	-4.357594e-06	-2.135536e-08	-3.076136e+01	-1.404579e+03
4.600000e-07	-4.259094e-06	-2.124414e-08	-3.006602e+01	-1.397343e+03
4.700000e-07	-4.159075e-06	-2.113209e-08	-2.935996e+01	-1.389354e+03
4.800000e-07	-4.057681e-06	-2.101720e-08	-2.864420e+01	-1.380790e+03
4.900000e-07	-3.954872e-06	-2.089931e-08	-2.791844e+01	-1.371938e+03
5.000000e-07	-3.850635e-06	-2.077407e-08	-2.718260e+01	-1.363111e+03
5.100000e-07	-3.744950e-06	-2.064494e-08	-2.643655e+01	-1.354541e+03
5.200000e-07	-3.637783e-06	-2.051112e-08	-2.568003e+01	-1.346298e+03
5.300000e-07	-3.529274e-06	-2.037229e-08	-2.491404e+01	-1.338259e+03
5.400000e-07	-3.419554e-06	-2.022618e-08	-2.413949e+01	-1.330139e+03
5.500000e-07	-3.308607e-06	-2.007493e-08	-2.335629e+01	-1.321571e+03
5.600000e-07	-3.196408e-06	-1.992167e-08	-2.256425e+01	-1.312219e+03
5.700000e-07	-3.082916e-06	-1.976514e-08	-2.176308e+01	-1.301882e+03
5.800000e-07	-2.968036e-06	-1.960691e-08	-2.095211e+01	-1.290561e+03
5.900000e-07	-2.851817e-06	-1.944499e-08	-2.013169e+01	-1.278463e+03
6.000000e-07	-2.734504e-06	-1.927389e-08	-1.930355e+01	-1.265936e+03
6.100000e-07	-2.616248e-06	-1.908974e-08	-1.846876e+01	-1.253357e+03
6.200000e-07	-2.497063e-06	-1.889648e-08	-1.762740e+01	-1.241002e+03
6.300000e-07	-2.376943e-06	-1.869945e-08	-1.677944e+01	-1.228946e+03
6.400000e-07	-2.255953e-06	-1.849846e-08	-1.592534e+01	-1.217016e+03
6.500000e-07	-2.134148e-06	-1.829135e-08	-1.506549e+01	-1.204826e+03
6.600000e-07	-2.011487e-06	-1.807700e-08	-1.419960e+01	-1.191879e+03
6.700000e-07	-1.887984e-06	-1.785302e-08	-1.332776e+01	-1.177711e+03
6.800000e-07	-1.763827e-06	-1.761654e-08	-1.245130e+01	-1.162037e+03
6.900000e-07	-1.639181e-06	-1.736769e-08	-1.157139e+01	-1.144837e+03
7.000000e-07	-1.514072e-06	-1.711035e-08	-1.068822e+01	-1.126370e+03
7.100000e-07	-1.388535e-06	-1.684359e-08	-9.802018e+00	-1.107086e+03
7.200000e-07	-1.262547e-06	-1.656320e-08	-8.912641e+00	-1.087477e+03
7.300000e-07	-1.136082e-06	-1.626792e-08	-8.019892e+00	-1.067886e+03
7.400000e-07	-1.009262e-06	-1.595470e-08	-7.124638e+00	-1.048355e+03
7.500000e-07	-8.821059e-07	-1.562392e-08	-6.227008e+00	-1.028550e+03
7.600000e-07	-7.546034e-07	-1.527452e-08	-5.326936e+00	-1.007794e+03
7.700000e-07	-6.268178e-07	-1.490286e-08	-4.424865e+00	-9.852204e+02
7.800000e-07	-4.988313e-07	-1.450723e-08	-3.521376e+00	-9.599854e+02
7.900000e-07	-3.707314e-07	-1.408540e-08	-2.617086e+00	-9.314988e+02
8.000000e-07	-2.424957e-07	-1.363039e-08	-1.711838e+00	-8.995807e+02
8.100000e-07	-1.141273e-07	-1.313535e-08	-8.056533e-01	-8.644889e+02
8.200000e-07	1.433128e-08	-1.259637e-08	1.011681e-01	-8.267840e+02
8.300000e-07	1.428413e-07	-1.201026e-08	1.008353e+00	-7.870475e+02
8.400000e-07	2.713152e-07	-1.137178e-08	1.915282e+00	-7.455164e+02
8.500000e-07	3.997184e-07	-1.066930e-08	2.821713e+00	-7.017288e+02
8.600000e-07	5.280386e-07	-9.887326e-09	3.727558e+00	-6.542917e+02
8.700000e-07	6.562361e-07	-9.009417e-09	4.632536e+00	-6.008602e+02
8.800000e-07	7.842376e-07	-8.016468e-09	5.536131e+00	-5.383765e+02
8.900000e-07	9.119631e-07	-6.877734e-09	6.437778e+00	-4.635534e+02
9.000000e-07	1.039318e-06	-5.554003e-09	7.336811e+00	-3.735262e+02
9.100000e-07	1.166239e-06	-4.001871e-09	8.232778e+00	-2.665423e+02
9.200000e-07	1.292747e-06	-2.181533e-09	9.125828e+00	-1.425400e+02
9.300000e-07	1.418864e-06	-7.745311e-11	1.001612e+01	-3.475623e+00
9.400000e-07	1.544537e-06	2.253923e-09	1.090328e+01	1.466929e+02
9.500000e-07	1.669708e-06	4.687273e-09	1.178689e+01	3.023879e+02
9.600000e-07	1.794393e-06	7.113930e-09	1.266707e+01	4.571037e+02
9.700000e-07	1.918557e-06	9.409752e-09	1.354358e+01	6.042837e+02
9.800000e-07	2.042082e-06	1.143289e-08	1.441558e+01	7.382162e+02
9.900000e-07	2.164756e-06	1.312220e-08	1.528156e+01	8.547782e+02
1.000000e-06	2.286366e-06	1.449281e-08	1.614004e+01	9.518881e+02
1.010000e-06	2.406956e-06	1.559166e-08	1.699131e+01	1.029594e+03
1.020000e-06	2.526659e-06	1.647458e-08	1.783632e+01	1.089797e+03
1.030000e-06	2.645461e-06	1.719239e-08	1.867498e+01	1.135699e+03
1.040000e-06	2.763363e-06	1.778271e-08	1.950727e+01	1.171085e+03
1.050000e-06	2.880306e-06	1.827488e-08	2.033281e+01	1.199623e+03
1.060000e-06	2.996122e-06	1.869100e-08	2.115039e+01	1.224296e+03
1.070000e-06	3.110629e-06	1.905034e-08	2.195871e+01	1.247084e+03
1.080000e-06	3.223801e-06	1.936697e-08	2.275762e+01	1.268902e+03
1.090000e-06	3.335768e-06	1.964835e-08	2.354803e+01	1.289799e+03
1.100000e-06	3.446548e-06	1.990204e-08	2.433006e+01	1.309291e+03
1.110000e-06	3.556159e-06	2.013183e-08	2.510382e+01	1.326759e+03
1.120000e-06	3.664706e-06	2.034150e-08	2.587009e+01	1.341780e+03
1.130000e-06	3.772116e-06	2.053551e-08	2.662832e+01	1.354325e+03
1.140000e-06	3.878080e-06	2.071772e-08	2.737634e+01	1.364791e+03
1.150000e-06	3.982525e-06	2.088986e-08	2.811365e+01	1.373885e+03
1.160000e-06	4.085585e-06	2.105224e-08	2.884118e+01	1.382413e+03
1.170000e-06	4.187265e-06	2.120338e-08	2.955896e+01	1.391059e+03
1.180000e-06	4.287579e-06	2.134490e-08	3.026710e+01	1.400203e+03
1.190000e-06	4.386345e-06	2.147980e-08	3.096432e+01	1.409857e+03
1.200000e-06	4.483323e-06	2.160656e-08	3.164891e+01	1.419706e+03
1.210000e-06	4.578585e-06	2.172490e-08	3.232139e+01	1.429240e+03
1.220000e-06	4.672288e-06	2.183604e-08	3.298286e+01	1.437942e+03
1.230000e-06	4.764533e-06	2.194114e-08	3.363404e+01	1.445458e+03
1.240000e-06	4.855128e-06	2.204184e-08	3.427357e+01	1.451701e+03
1.250000e-06	4.943849e-06	2.213853e-08	3.489988e+01	1.456873e+03
1.260000e-06	5.030722e-06	2.222936e-08	3.551314e+01	1.461393e+03
1.270000e-06	5.115850e-06	2.231509e-08	3.611408e+01	1.465762e+03
1.280000e-06	5.199294e-06	2.239808e-08	3.670313e+01	1.470415e+03
1.290000e-06	5.280845e-06	2.248010e-08	3.727882e+01	1.475597e+03
1.300000e-06	5.360398e-06	2.255965e-08	3.784041e+01	1.481301e+03
1.310000e-06	5.438005e-06	2.263381e-08	3.838825e+01	1.487297e+03
1.320000e-06	5.513514e-06	2.270401e-08	3.892129e+01	1.493210e+03
1.330000e-06	5.586805e-06	2.277239e-08	3.943867e+01	1.498652e+03
1.340000e-06	5.658001e-06	2.283811e-08	3.994126e+01	1.503345e+03
1.350000e-06	5.727257e-06	2.290090e-08	4.043016e+01	1.507199e+03
1.360000e-06	5.794489e-06	2.296126e-08	4.090476e+01	1.510339e+03
1.370000e-06	5.859583e-06	2.301913e-08	4.136427e+01	1.513050e+03
1.380000e-06	5.922575e-06	2.307423e-08	4.180895e+01	1.515688e+03
1.390000e-06	5.983615e-06	2.312752e-08	4.223985e+01	1.518562e+03
1.400000e-06	6.042679e-06	2.317918e-08	4.265680e+01	1.521841e+03
1.410000e-06	6.099551e-06	2.322744e-08	4.305827e+01	1.525509e+03
1.420000e-06	6.154240e-06	2.326970e-08	4.344434e+01	1.529370e+03
1.430000e-06	6.206595e-06	2.330932e-08	4.381392e+01	1.533122e+03
1.440000e-06	6.256340e-06	2.334899e-08	4.416508e+01	1.536453e+03
1.450000e-06	6.303604e-06	2.338643e-08	4.449873e+01	1.539138e+03
1.460000e-06	6.348730e-06	2.342170e-08	4.481729e+01	1.541110e+03
1.470000e-06	6.391757e-06	2.345479e-08	4.512103e+01	1.542475e+03
1.480000e-06	6.432389e-06	2.348528e-08	4.540786e+01	1.543479e+03
1.490000e-06	6.470667e-06	2.351230e-08	4.567807e+01	1.544426e+03
1.500000e-06	6.506859e-06	2.353478e-08	4.593356e+01	1.545581e+03
1.510000e-06	6.540780e-06	2.355567e-08	4.617302e+01	1.547094e+03
1.520000e-06	6.572268e-06	2.357763e-08	4.639530e+01	1.548953e+03
1.530000e-06	6.601528e-06	2.359905e-08	4.660186e+01	1.550993e+03
1.540000e-06	6.628521e-06	2.361790e-08	4.679241e+01	1.552952e+03
1.550000e-06	6.653005e-06	2.363327e-08	4.696524e+01	1.554555e+03
1.560000e-06	6.675079e-06	2.364678e-08	4.712107e+01	1.555603e+03
1.570000e-06	6.694974e-06	2.365811e-08	4.726151e+01	1.556033e+03
1.580000e-06	6.712488e-06	2.366692e-08	4.738515e+01	1.555938e+03
1.590000e-06	6.727413e-06	2.367443e-08	4.749051e+01	1.555533e+03
1.600000e-06	6.739828e-06	2.368168e-08	4.757815e+01	1.555093e+03
1.610000e-06	6.749619e-06	2.368872e-08	4.764726e+01	1.554861e+03
1.620000e-06	6.756792e-06	2.369406e-08	4.769790e+01	1.554977e+03
1.630000e-06	6.761645e-06	2.369697e-08	4.773216e+01	1.555434e+03
1.640000e-06	6.764178e-06	2.369634e-08	4.775004e+01	1.556083e+03
1.650000e-06	6.764278e-06	2.369449e-08	4.775075e+01	1.556684e+03
1.660000e-06	6.762094e-06	2.369163e-08	4.773533e+01	1.556978e+03
1.670000e-06	6.757825e-06	2.368682e-08	4.770520e+01	1.556772e+03
1.680000e-06	6.751287e-06	2.367975e-08	4.765904e+01	1.555994e+03
1.690000e-06	6.742431e-06	2.367051e-08	4.759653e+01	1.554718e+03
1.700000e-06	6.731449e-06	2.365985e-08	4.751900e+01	1.553137e+03
1.710000e-06	6.718151e-06	2.364984e-08	4.742513e+01	1.551504e+03
1.720000e-06	6.702515e-06	2.364482e-08	4.731475e+01	1.550048e+03
1.730000e-06	6.684809e-06	2.361596e-08	4.718976e+01	1.548910e+03
1.740000e-06	6.664782e-06	2.356245e-08	4.704838e+01	1.548100e+03
1.750000e-06	6.641643e-06	2.354506e-08	4.688504e+01	1.547492e+03
1.760000e-06	6.615360e-06	2.354098e-08	4.669950e+01	1.546876e+03
1.770000e-06	6.586719e-06	2.353301e-08	4.649731e+01	1.546018e+03
1.780000e-06	6.556108e-06	2.354932e-08	4.628122e+01	1.544741e+03
1.790000e-06	6.523944e-06	2.351330e-08	4.605417e+01	1.542977e+03
1.800000e-06	6.490186e-06	2.346717e-08	4.581586e+01	1.540786e+03
1.810000e-06	6.454060e-06	2.347960e-08	4.556084e+01	1.538337e+03
1.820000e-06	6.415538e-06	2.343831e-08	4.528890e+01	1.535845e+03
1.830000e-06	6.374837e-06	2.342884e-08	4.500158e+01	1.533499e+03
1.840000e-06	6.331985e-06	2.342329e-08	4.469908e+01	1.531397e+03
1.850000e-06	6.286997e-06	2.332687e-08	4.438150e+01	1.529507e+03
1.860000e-06	6.239621e-06	2.330211e-08	4.404706e+01	1.527674e+03
1.870000e-06	6.189985e-06	2.325611e-08	4.369667e+01	1.525666e+03
1.880000e-06	6.137996e-06	2.320792e-08	4.332967e+01	1.523241e+03
1.890000e-06	6.083249e-06	2.320962e-08	4.294319e+01	1.520232e+03
1.900000e-06	6.026129e-06	2.312131e-08	4.253996e+01	1.516596e+03
1.910000e-06	5.966893e-06	2.308125e-08	4.212181e+01	1.512434e+03
1.920000e-06	5.905509e-06	2.303907e-08	4.168848e+01	1.507963e+03
1.930000e-06	5.841945e-06	2.295874e-08	4.123977e+01	1.503451e+03
1.940000e-06	5.776160e-06	2.291966e-08	4.077537e+01	1.499134e+03
1.950000e-06	5.708314e-06	2.285072e-08	4.029643e+01	1.495144e+03
1.960000e-06	5.638168e-06	2.280171e-08	3.980125e+01	1.491461e+03
1.970000e-06	5.565762e-06	2.271848e-08	3.929012e+01	1.487923e+03
1.980000e-06	5.491363e-06	2.264595e-08	3.876492e+01	1.484267e+03
1.990000e-06	5.414869e-06	2.258950e-08	3.822493e+01	1.480216e+03
2.000000e-06	5.336224e-06	2.250176e-08	3.766975e+01	1.475558e+03
2.010000e-06	5.255515e-06	2.244288e-08	3.710001e+01	1.470215e+03
2.020000e-06	5.173009e-06	2.234998e-08	3.651758e+01	1.464271e+03
2.030000e-06	5.088780e-06	2.227129e-08	3.592299e+01	1.457941e+03
2.040000e-06	5.002696e-06	2.218998e-08	3.531530e+01	1.451508e+03
2.050000e-06	4.914744e-06	2.209507e-08	3.469442e+01	1.445233e+03
2.060000e-06	4.825140e-06	2.200861e-08	3.406188e+01	1.439268e+03
2.070000e-06	4.734044e-06	2.190807e-08	3.341881e+01	1.433609e+03
2.080000e-06	4.641272e-06	2.182066e-08	3.276391e+01	1.428088e+03
2.090000e-06	4.546677e-06	2.171661e-08	3.209614e+01	1.422428e+03
2.100000e-06	4.450429e-06	2.161763e-08	3.141671e+01	1.416321e+03
2.110000e-06	4.352783e-06	2.150978e-08	3.072740e+01	1.409531e+03
2.120000e-06	4.253798e-06	2.139754e-08	3.002864e+01	1.401963e+03
2.130000e-06	4.153345e-06	2.128231e-08	2.931951e+01	1.393699e+03
2.140000e-06	4.051196e-06	2.116165e-08	2.859842e+01	1.384974e+03
2.150000e-06	3.947387e-06	2.104550e-08	2.786560e+01	1.376099e+03
2.160000e-06	3.842191e-06	2.092110e-08	2.712300e+01	1.367363e+03
2.170000e-06	3.735783e-06	2.079828e-08	2.637184e+01	1.358937e+03
2.180000e-06	3.628190e-06	2.066540e-08	2.561231e+01	1.350809e+03
2.190000e-06	3.519307e-06	2.052977e-08	2.484367e+01	1.342779e+03
2.200000e-06	3.409118e-06	2.038835e-08	2.406583e+01	1.334515e+03
2.210000e-06	3.297502e-06	2.024451e-08	2.327790e+01	1.325648e+03
2.220000e-06	3.184530e-06	2.009155e-08	2.248040e+01	1.315889e+03
2.230000e-06	3.070353e-06	1.993085e-08	2.167440e+01	1.305119e+03
2.240000e-06	2.955020e-06	1.976786e-08	2.086023e+01	1.293431e+03
2.250000e-06	2.838520e-06	1.960078e-08	2.003783e+01	1.281104e+03
2.260000e-06	2.720794e-06	1.942943e-08	1.920677e+01	1.268513e+03
2.270000e-06	2.601842e-06	1.925153e-08	1.836706e+01	1.256008e+03
2.280000e-06	2.481781e-06	1.906923e-08	1.751952e+01	1.243788e+03
2.290000e-06	2.360889e-06	1.887706e-08	1.666611e+01	1.231823e+03
2.300000e-06	2.239275e-06	1.867423e-08	1.580761e+01	1.219840e+03
2.310000e-06	2.116994e-06	1.846009e-08	1.494439e+01	1.207389e+03
2.320000e-06	1.994077e-06	1.824046e-08	1.407669e+01	1.193970e+03
2.330000e-06	1.870468e-06	1.801240e-08	1.320411e+01	1.179179e+03
2.340000e-06	1.746144e-06	1.777336e-08	1.232647e+01	1.162838e+03
2.350000e-06	1.621266e-06	1.752131e-08	1.144493e+01	1.145051e+03
2.360000e-06	1.495899e-06	1.725766e-08	1.055993e+01	1.126174e+03
2.370000e-06	1.369998e-06	1.698391e-08	9.671164e+00	1.106696e+03
2.380000e-06	1.243595e-06	1.669784e-08	8.778853e+00	1.087069e+03
2.390000e-06	1.116776e-06	1.639881e-08	7.883606e+00	1.067522e+03
2.400000e-06	9.895028e-07	1.608092e-08	6.985150e+00	1.047938e+03
2.410000e-06	8.617492e-07	1.574065e-08	6.083305e+00	1.027826e+03
2.420000e-06	7.336953e-07	1.537618e-08	5.179340e+00	1.006403e+03
2.430000e-06	6.054120e-07	1.499073e-08	4.273757e+00	9.827833e+02
2.440000e-06	4.769545e-07	1.458323e-08	3.366942e+00	9.562071e+02
2.450000e-06	3.483592e-07	1.414801e-08	2.459156e+00	9.262469e+02
2.460000e-06	2.196446e-07	1.367928e-08	1.550526e+00	8.929162e+02
2.470000e-06	9.086004e-08	1.317017e-08	6.414040e-01	8.566285e+02
2.480000e-06	-3.797457e-08	1.261638e-08	-2.680721e-01	8.179947e+02
2.490000e-06	-1.668394e-07	1.201084e-08	-1.177762e+00	7.774952e+02
2.500000e-06	-2.957101e-07	1.134430e-08	-2.087492e+00	7.351062e+02
2.510000e-06	-4.244840e-07	1.061040e-08	-2.996540e+00	6.899846e+02
2.520000e-06	-5.530831e-07	9.795919e-09	-3.904353e+00	6.403172e+02
2.530000e-06	-6.815436e-07	8.877993e-09	-4.811188e+00	5.834092e+02
2.540000e-06	-8.098872e-07	7.832892e-09	-5.717198e+00	5.160327e+02
2.550000e-06	-9.379212e-07	6.629362e-09	-6.621023e+00	4.349965e+02
2.560000e-06	-1.065543e-06	5.227975e-09	-7.521937e+00	3.378308e+02
2.570000e-06	-1.192780e-06	3.586266e-09	-8.420137e+00	2.234489e+02
2.580000e-06	-1.319503e-06	1.665244e-09	-9.314707e+00	9.263231e+01
2.590000e-06	-1.445644e-06	-5.382345e-10	-1.020517e+01	-5.178112e+01
2.600000e-06	-1.571190e-06	-2.951020e-09	-1.109143e+01	-2.050722e+02
2.610000e-06	-1.696095e-06	-5.445169e-09	-1.197316e+01	-3.611666e+02
2.620000e-06	-1.820348e-06	-7.883554e-09	-1.285029e+01	-5.134242e+02
2.630000e-06	-1.943880e-06	-1.011765e-08	-1.372234e+01	-6.555462e+02
2.640000e-06	-2.066618e-06	-1.203851e-08	-1.458878e+01	-7.824249e+02
2.650000e-06	-2.188561e-06	-1.362251e-08	-1.544960e+01	-8.907771e+02
2.660000e-06	-2.309744e-06	-1.489950e-08	-1.630506e+01	-9.794452e+02
2.670000e-06	-2.430220e-06	-1.592373e-08	-1.715554e+01	-1.049324e+03
2.680000e-06	-2.549836e-06	-1.675131e-08	-1.799994e+01	-1.102954e+03
2.690000e-06	-2.668371e-06	-1.742605e-08	-1.883671e+01	-1.143875e+03
2.700000e-06	-2.785749e-06	-1.798075e-08	-1.966531e+01	-1.175905e+03
2.710000e-06	-2.901969e-06	-1.844329e-08	-2.048573e+01	-1.202474e+03
2.720000e-06	-3.017049e-06	-1.883943e-08	-2.129811e+01	-1.226159e+03
2.730000e-06	-3.130884e-06	-1.918563e-08	-2.210170e+01	-1.248474e+03
2.740000e-06	-3.243270e-06	-1.949061e-08	-2.289506e+01	-1.269930e+03
2.750000e-06	-3.354281e-06	-1.976230e-08	-2.367872e+01	-1.290299e+03
2.760000e-06	-3.464093e-06	-2.000638e-08	-2.445390e+01	-1.308993e+03
2.770000e-06	-3.572784e-06	-2.022864e-08	-2.522118e+01	-1.325442e+03
2.780000e-06	-3.680456e-06	-2.043369e-08	-2.598127e+01	-1.339378e+03
2.790000e-06	-3.786958e-06	-2.062404e-08	-2.673309e+01	-1.350960e+03
2.800000e-06	-3.892114e-06	-2.080166e-08	-2.747541e+01	-1.360738e+03
2.810000e-06	-3.995899e-06	-2.096797e-08	-2.820806e+01	-1.369492e+03
2.820000e-06	-4.098083e-06	-2.112330e-08	-2.892940e+01	-1.377999e+03
2.830000e-06	-4.198688e-06	-2.126963e-08	-2.963960e+01	-1.386831e+03
2.840000e-06	-4.297946e-06	-2.140932e-08	-3.034028e+01	-1.396213e+03
2.850000e-06	-4.395730e-06	-2.154089e-08	-3.103057e+01	-1.406002e+03
2.860000e-06	-4.492027e-06	-2.166401e-08	-3.171035e+01	-1.415781e+03
2.870000e-06	-4.586707e-06	-2.178014e-08	-3.237872e+01	-1.425014e+03
2.880000e-06	-4.679685e-06	-2.188915e-08	-3.303508e+01	-1.433236e+03
2.890000e-06	-4.771060e-06	-2.199212e-08	-3.368012e+01	-1.440198e+03
2.900000e-06	-4.860745e-06	-2.209024e-08	-3.431323e+01	-1.445940e+03
2.910000e-06	-4.948707e-06	-2.218359e-08	-3.493417e+01	-1.450772e+03
2.920000e-06	-5.034788e-06	-2.227325e-08	-3.554184e+01	-1.455164e+03
2.930000e-06	-5.118944e-06	-2.235882e-08	-3.613592e+01	-1.459609e+03
2.940000e-06	-5.201360e-06	-2.244080e-08	-3.671771e+01	-1.464471e+03
