# Temperatura_=_83.47
# Concentracion g/m^3_=_41000.0
# C_Vs_to_Am_M_A/Vsm_=_65563218390.804596
# pendiente_HvsI_1/m_=_3716.3
# ordenada_HvsI_A/m_=_1297.0
# frecuencia_Hz_=_302002.703328456

Tiempo_(s)	Campo_(V.s)	Magnetizacion_(V.s)	Campo_(kA/m)	Magnetizacion_(A/m)
0.000000e+00	-6.759777e-06	-2.387610e-08	-4.747125e+01	-1.564834e+03
1.000000e-08	-6.756594e-06	-2.387115e-08	-4.744890e+01	-1.564940e+03
2.000000e-08	-6.751210e-06	-2.386228e-08	-4.741109e+01	-1.564470e+03
3.000000e-08	-6.743792e-06	-2.385149e-08	-4.735899e+01	-1.563420e+03
4.000000e-08	-6.734049e-06	-2.383937e-08	-4.729057e+01	-1.561930e+03
5.000000e-08	-6.721820e-06	-2.382408e-08	-4.720469e+01	-1.560238e+03
6.000000e-08	-6.707095e-06	-2.380660e-08	-4.710129e+01	-1.558609e+03
7.000000e-08	-6.689941e-06	-2.378181e-08	-4.698082e+01	-1.557255e+03
8.000000e-08	-6.670661e-06	-2.376658e-08	-4.684543e+01	-1.556267e+03
9.000000e-08	-6.649081e-06	-2.379039e-08	-4.669388e+01	-1.555593e+03
1.000000e-07	-6.624752e-06	-2.377413e-08	-4.652302e+01	-1.555058e+03
1.100000e-07	-6.597691e-06	-2.371543e-08	-4.633298e+01	-1.554419e+03
1.200000e-07	-6.568360e-06	-2.368238e-08	-4.612700e+01	-1.553443e+03
1.300000e-07	-6.537189e-06	-2.364770e-08	-4.590810e+01	-1.551980e+03
1.400000e-07	-6.504188e-06	-2.357436e-08	-4.567635e+01	-1.550004e+03
1.500000e-07	-6.469196e-06	-2.357691e-08	-4.543061e+01	-1.547622e+03
1.600000e-07	-6.432163e-06	-2.359937e-08	-4.517054e+01	-1.545029e+03
1.700000e-07	-6.393086e-06	-2.350602e-08	-4.489612e+01	-1.542446e+03
1.800000e-07	-6.351706e-06	-2.350947e-08	-4.460552e+01	-1.540041e+03
1.900000e-07	-6.307839e-06	-2.345721e-08	-4.429747e+01	-1.537875e+03
2.000000e-07	-6.261698e-06	-2.337697e-08	-4.397343e+01	-1.535876e+03
2.100000e-07	-6.213083e-06	-2.339203e-08	-4.363203e+01	-1.533862e+03
2.200000e-07	-6.161734e-06	-2.332725e-08	-4.327143e+01	-1.531598e+03
2.300000e-07	-6.107905e-06	-2.329190e-08	-4.289341e+01	-1.528867e+03
2.400000e-07	-6.051767e-06	-2.323908e-08	-4.249918e+01	-1.525548e+03
2.500000e-07	-5.993318e-06	-2.315782e-08	-4.208871e+01	-1.521650e+03
2.600000e-07	-5.932666e-06	-2.311708e-08	-4.166277e+01	-1.517317e+03
2.700000e-07	-5.869969e-06	-2.304519e-08	-4.122248e+01	-1.512783e+03
2.800000e-07	-5.805168e-06	-2.298398e-08	-4.076741e+01	-1.508302e+03
2.900000e-07	-5.738055e-06	-2.292961e-08	-4.029609e+01	-1.504064e+03
3.000000e-07	-5.668681e-06	-2.287084e-08	-3.980891e+01	-1.500137e+03
3.100000e-07	-5.597250e-06	-2.279896e-08	-3.930728e+01	-1.496441e+03
3.200000e-07	-5.523675e-06	-2.272481e-08	-3.879059e+01	-1.492771e+03
3.300000e-07	-5.447823e-06	-2.266800e-08	-3.825792e+01	-1.488860e+03
3.400000e-07	-5.369769e-06	-2.257359e-08	-3.770977e+01	-1.484458e+03
3.500000e-07	-5.289571e-06	-2.250347e-08	-3.714657e+01	-1.479414e+03
3.600000e-07	-5.207424e-06	-2.243206e-08	-3.656969e+01	-1.473723e+03
3.700000e-07	-5.123608e-06	-2.234270e-08	-3.598108e+01	-1.467528e+03
3.800000e-07	-5.038192e-06	-2.226230e-08	-3.538123e+01	-1.461077e+03
3.900000e-07	-4.951153e-06	-2.216665e-08	-3.477000e+01	-1.454646e+03
4.000000e-07	-4.862405e-06	-2.207457e-08	-3.414675e+01	-1.448446e+03
4.100000e-07	-4.771858e-06	-2.197927e-08	-3.351088e+01	-1.442559e+03
4.200000e-07	-4.679619e-06	-2.188690e-08	-3.286312e+01	-1.436904e+03
4.300000e-07	-4.585812e-06	-2.178261e-08	-3.220435e+01	-1.431260e+03
4.400000e-07	-4.490442e-06	-2.167549e-08	-3.153460e+01	-1.425331e+03
4.500000e-07	-4.393344e-06	-2.156989e-08	-3.085272e+01	-1.418839e+03
4.600000e-07	-4.294503e-06	-2.145622e-08	-3.015860e+01	-1.411612e+03
4.700000e-07	-4.194126e-06	-2.134666e-08	-2.945370e+01	-1.403637e+03
4.800000e-07	-4.092365e-06	-2.123240e-08	-2.873907e+01	-1.395070e+03
4.900000e-07	-3.989232e-06	-2.111607e-08	-2.801480e+01	-1.386186e+03
5.000000e-07	-3.884602e-06	-2.099002e-08	-2.728003e+01	-1.377294e+03
5.100000e-07	-3.778515e-06	-2.085822e-08	-2.653502e+01	-1.368629e+03
5.200000e-07	-3.671000e-06	-2.072116e-08	-2.577999e+01	-1.360277e+03
5.300000e-07	-3.562151e-06	-2.058059e-08	-2.501558e+01	-1.352134e+03
5.400000e-07	-3.452127e-06	-2.043486e-08	-2.424293e+01	-1.343931e+03
5.500000e-07	-3.340896e-06	-2.028288e-08	-2.346180e+01	-1.335307e+03
5.600000e-07	-3.228258e-06	-2.012970e-08	-2.267079e+01	-1.325922e+03
5.700000e-07	-3.114195e-06	-1.996913e-08	-2.186976e+01	-1.315563e+03
5.800000e-07	-2.998759e-06	-1.980651e-08	-2.105910e+01	-1.304209e+03
5.900000e-07	-2.881995e-06	-1.964055e-08	-2.023912e+01	-1.292048e+03
6.000000e-07	-2.764253e-06	-1.946910e-08	-1.941226e+01	-1.279416e+03
6.100000e-07	-2.645648e-06	-1.928622e-08	-1.857935e+01	-1.266689e+03
6.200000e-07	-2.526063e-06	-1.909522e-08	-1.773955e+01	-1.254160e+03
6.300000e-07	-2.405414e-06	-1.889744e-08	-1.689228e+01	-1.241927e+03
6.400000e-07	-2.283832e-06	-1.869134e-08	-1.603845e+01	-1.229847e+03
6.500000e-07	-2.161468e-06	-1.848056e-08	-1.517914e+01	-1.217554e+03
6.600000e-07	-2.038308e-06	-1.826271e-08	-1.431423e+01	-1.204564e+03
6.700000e-07	-1.914358e-06	-1.803720e-08	-1.344378e+01	-1.190407e+03
6.800000e-07	-1.789705e-06	-1.780124e-08	-1.256839e+01	-1.174774e+03
6.900000e-07	-1.664481e-06	-1.755480e-08	-1.168900e+01	-1.157614e+03
7.000000e-07	-1.538820e-06	-1.729674e-08	-1.080652e+01	-1.139152e+03
7.100000e-07	-1.412754e-06	-1.702558e-08	-9.921218e+00	-1.119816e+03
7.200000e-07	-1.286194e-06	-1.674135e-08	-9.032433e+00	-1.100088e+03
7.300000e-07	-1.159163e-06	-1.644553e-08	-8.140347e+00	-1.080327e+03
7.400000e-07	-1.031769e-06	-1.613327e-08	-7.245708e+00	-1.060601e+03
7.500000e-07	-9.040442e-07	-1.580076e-08	-6.348746e+00	-1.040615e+03
7.600000e-07	-7.759339e-07	-1.544932e-08	-5.449078e+00	-1.019727e+03
7.700000e-07	-6.474622e-07	-1.507471e-08	-4.546872e+00	-9.970882e+02
7.800000e-07	-5.187485e-07	-1.467650e-08	-3.642966e+00	-9.718543e+02
7.900000e-07	-3.898461e-07	-1.425389e-08	-2.737735e+00	-9.434116e+02
8.000000e-07	-2.607975e-07	-1.379993e-08	-1.831478e+00	-9.115418e+02
8.100000e-07	-1.316419e-07	-1.330672e-08	-9.244694e-01	-8.764607e+02
8.200000e-07	-2.417286e-09	-1.276850e-08	-1.697565e-02	-8.386988e+02
8.300000e-07	1.268440e-07	-1.218209e-08	8.907754e-01	-7.988308e+02
8.400000e-07	2.561214e-07	-1.154171e-08	1.798640e+00	-7.571163e+02
8.500000e-07	3.853472e-07	-1.083782e-08	2.706141e+00	-7.131428e+02
8.600000e-07	5.144433e-07	-1.005528e-08	3.612732e+00	-6.655803e+02
8.700000e-07	6.433238e-07	-9.177928e-09	4.517809e+00	-6.121416e+02
8.800000e-07	7.719975e-07	-8.187853e-09	5.421434e+00	-5.497992e+02
8.900000e-07	9.004508e-07	-7.053007e-09	6.323511e+00	-4.752519e+02
9.000000e-07	1.028561e-06	-5.732550e-09	7.223178e+00	-3.855668e+02
9.100000e-07	1.156274e-06	-4.183384e-09	8.120054e+00	-2.788738e+02
9.200000e-07	1.283530e-06	-2.362631e-09	9.013727e+00	-1.549603e+02
9.300000e-07	1.410269e-06	-2.516827e-10	9.903761e+00	-1.562680e+01
9.400000e-07	1.536526e-06	2.089202e-09	1.079042e+01	1.352981e+02
9.500000e-07	1.662375e-06	4.528206e-09	1.167420e+01	2.923096e+02
9.600000e-07	1.787782e-06	6.967500e-09	1.255489e+01	4.488986e+02
9.700000e-07	1.912583e-06	9.303977e-09	1.343132e+01	5.984233e+02
9.800000e-07	2.036639e-06	1.138295e-08	1.430252e+01	7.350159e+02
9.900000e-07	2.159876e-06	1.312305e-08	1.516796e+01	8.543517e+02
1.000000e-06	2.282279e-06	1.453494e-08	1.602755e+01	9.541363e+02
1.010000e-06	2.403823e-06	1.566622e-08	1.688110e+01	1.034230e+03
1.020000e-06	2.524426e-06	1.657321e-08	1.772805e+01	1.096405e+03
1.030000e-06	2.644038e-06	1.730681e-08	1.856803e+01	1.143800e+03
1.040000e-06	2.762615e-06	1.790941e-08	1.940075e+01	1.180221e+03
1.050000e-06	2.880230e-06	1.841216e-08	2.022672e+01	1.209412e+03
1.060000e-06	2.996751e-06	1.883680e-08	2.104500e+01	1.234476e+03
1.070000e-06	3.112059e-06	1.920332e-08	2.185476e+01	1.257518e+03
1.080000e-06	3.226196e-06	1.952497e-08	2.265630e+01	1.279562e+03
1.090000e-06	3.339052e-06	1.981207e-08	2.344884e+01	1.300726e+03
1.100000e-06	3.450571e-06	2.006984e-08	2.423200e+01	1.320554e+03
1.110000e-06	3.560826e-06	2.030366e-08	2.500628e+01	1.338409e+03
1.120000e-06	3.669969e-06	2.051784e-08	2.577275e+01	1.353827e+03
1.130000e-06	3.777926e-06	2.071581e-08	2.653088e+01	1.366728e+03
1.140000e-06	3.884566e-06	2.090133e-08	2.727978e+01	1.377469e+03
1.150000e-06	3.989841e-06	2.107480e-08	2.801908e+01	1.386739e+03
1.160000e-06	4.093634e-06	2.123924e-08	2.874798e+01	1.395355e+03
1.170000e-06	4.195966e-06	2.139355e-08	2.946662e+01	1.404034e+03
1.180000e-06	4.296856e-06	2.153897e-08	3.017512e+01	1.413202e+03
1.190000e-06	4.396246e-06	2.167566e-08	3.087310e+01	1.422915e+03
1.200000e-06	4.494034e-06	2.180396e-08	3.155983e+01	1.432885e+03
1.210000e-06	4.590115e-06	2.192520e-08	3.223457e+01	1.442612e+03
1.220000e-06	4.684553e-06	2.204105e-08	3.289777e+01	1.451563e+03
1.230000e-06	4.777441e-06	2.215054e-08	3.355009e+01	1.459351e+03
1.240000e-06	4.868745e-06	2.225483e-08	3.419127e+01	1.465851e+03
1.250000e-06	4.958261e-06	2.235346e-08	3.481991e+01	1.471229e+03
1.260000e-06	5.045818e-06	2.244568e-08	3.543479e+01	1.475884e+03
1.270000e-06	5.131558e-06	2.253268e-08	3.603691e+01	1.480316e+03
1.280000e-06	5.215601e-06	2.261532e-08	3.662711e+01	1.484977e+03
1.290000e-06	5.297840e-06	2.269680e-08	3.720464e+01	1.490138e+03
1.300000e-06	5.378089e-06	2.277651e-08	3.776820e+01	1.495828e+03
1.310000e-06	5.456289e-06	2.285283e-08	3.831737e+01	1.501838e+03
1.320000e-06	5.532439e-06	2.292589e-08	3.885214e+01	1.507809e+03
1.330000e-06	5.606435e-06	2.299530e-08	3.937178e+01	1.513350e+03
1.340000e-06	5.678271e-06	2.306148e-08	3.987626e+01	1.518167e+03
1.350000e-06	5.748085e-06	2.312555e-08	4.036653e+01	1.522150e+03
1.360000e-06	5.815931e-06	2.318740e-08	4.084299e+01	1.525399e+03
1.370000e-06	5.881638e-06	2.324727e-08	4.130442e+01	1.528188e+03
1.380000e-06	5.945178e-06	2.330459e-08	4.175064e+01	1.530869e+03
1.390000e-06	6.006732e-06	2.335767e-08	4.218291e+01	1.533759e+03
1.400000e-06	6.066331e-06	2.340847e-08	4.260145e+01	1.537043e+03
1.410000e-06	6.123781e-06	2.345743e-08	4.300490e+01	1.540721e+03
1.420000e-06	6.179045e-06	2.350316e-08	4.339299e+01	1.544612e+03
1.430000e-06	6.232016e-06	2.354687e-08	4.376499e+01	1.548418e+03
1.440000e-06	6.282412e-06	2.358972e-08	4.411890e+01	1.551820e+03
1.450000e-06	6.330288e-06	2.363047e-08	4.445512e+01	1.554582e+03
1.460000e-06	6.375933e-06	2.366720e-08	4.477566e+01	1.556618e+03
1.470000e-06	6.419458e-06	2.370028e-08	4.508133e+01	1.558022e+03
1.480000e-06	6.460673e-06	2.372932e-08	4.537076e+01	1.559033e+03
1.490000e-06	6.499502e-06	2.375452e-08	4.564344e+01	1.559956e+03
1.500000e-06	6.536116e-06	2.377708e-08	4.590056e+01	1.561070e+03
1.510000e-06	6.570489e-06	2.380016e-08	4.614195e+01	1.562541e+03
1.520000e-06	6.602505e-06	2.382449e-08	4.636679e+01	1.564373e+03
1.530000e-06	6.632247e-06	2.384733e-08	4.657566e+01	1.566415e+03
1.540000e-06	6.659761e-06	2.386677e-08	4.676888e+01	1.568405e+03
1.550000e-06	6.684762e-06	2.388166e-08	4.694445e+01	1.570064e+03
1.560000e-06	6.707244e-06	2.389358e-08	4.710233e+01	1.571177e+03
1.570000e-06	6.727474e-06	2.390414e-08	4.724440e+01	1.571667e+03
1.580000e-06	6.745363e-06	2.391340e-08	4.737003e+01	1.571613e+03
1.590000e-06	6.760757e-06	2.392130e-08	4.747813e+01	1.571226e+03
1.600000e-06	6.773591e-06	2.392917e-08	4.756826e+01	1.570784e+03
1.610000e-06	6.783677e-06	2.393761e-08	4.763909e+01	1.570541e+03
1.620000e-06	6.791139e-06	2.394414e-08	4.769149e+01	1.570652e+03
1.630000e-06	6.796301e-06	2.394810e-08	4.772775e+01	1.571126e+03
1.640000e-06	6.799171e-06	2.394901e-08	4.774790e+01	1.571821e+03
1.650000e-06	6.799577e-06	2.394825e-08	4.775075e+01	1.572492e+03
1.660000e-06	6.797615e-06	2.394483e-08	4.773697e+01	1.572870e+03
1.670000e-06	6.793542e-06	2.393661e-08	4.770837e+01	1.572742e+03
1.680000e-06	6.787192e-06	2.393024e-08	4.766377e+01	1.572017e+03
1.690000e-06	6.778568e-06	2.392118e-08	4.760321e+01	1.570756e+03
1.700000e-06	6.767795e-06	2.391090e-08	4.752756e+01	1.569148e+03
1.710000e-06	6.754707e-06	2.390191e-08	4.743564e+01	1.567455e+03
1.720000e-06	6.739256e-06	2.389921e-08	4.732714e+01	1.565926e+03
1.730000e-06	6.721673e-06	2.388116e-08	4.720366e+01	1.564728e+03
1.740000e-06	6.701842e-06	2.380209e-08	4.706439e+01	1.563891e+03
1.750000e-06	6.678961e-06	2.378068e-08	4.690371e+01	1.563306e+03
1.760000e-06	6.652882e-06	2.379749e-08	4.672057e+01	1.562759e+03
1.770000e-06	6.624339e-06	2.377344e-08	4.652012e+01	1.562003e+03
1.780000e-06	6.593758e-06	2.378704e-08	4.630537e+01	1.560832e+03
1.790000e-06	6.561624e-06	2.380188e-08	4.607970e+01	1.559146e+03
1.800000e-06	6.527935e-06	2.370523e-08	4.584311e+01	1.556979e+03
1.810000e-06	6.491878e-06	2.373278e-08	4.558990e+01	1.554482e+03
1.820000e-06	6.453367e-06	2.372253e-08	4.531945e+01	1.551869e+03
1.830000e-06	6.412734e-06	2.362863e-08	4.503410e+01	1.549349e+03
1.840000e-06	6.369951e-06	2.368401e-08	4.473366e+01	1.547049e+03
1.850000e-06	6.325092e-06	2.356573e-08	4.441862e+01	1.544973e+03
1.860000e-06	6.277915e-06	2.351520e-08	4.408732e+01	1.542997e+03
1.870000e-06	6.228355e-06	2.351426e-08	4.373928e+01	1.540907e+03
1.880000e-06	6.176535e-06	2.339918e-08	4.337537e+01	1.538467e+03
1.890000e-06	6.121982e-06	2.343575e-08	4.299227e+01	1.535494e+03
1.900000e-06	6.064923e-06	2.334921e-08	4.259156e+01	1.531920e+03
1.910000e-06	6.005731e-06	2.328890e-08	4.217588e+01	1.527813e+03
1.920000e-06	5.944267e-06	2.328477e-08	4.174424e+01	1.523365e+03
1.930000e-06	5.880585e-06	2.317291e-08	4.129703e+01	1.518827e+03
1.940000e-06	5.814741e-06	2.315158e-08	4.083463e+01	1.514435e+03
1.950000e-06	5.746823e-06	2.305277e-08	4.035767e+01	1.510332e+03
1.960000e-06	5.676626e-06	2.301698e-08	3.986471e+01	1.506524e+03
1.970000e-06	5.604120e-06	2.295059e-08	3.935553e+01	1.502872e+03
1.980000e-06	5.529553e-06	2.285500e-08	3.883187e+01	1.499135e+03
1.990000e-06	5.452828e-06	2.282277e-08	3.829306e+01	1.495041e+03
2.000000e-06	5.373954e-06	2.271024e-08	3.773916e+01	1.490377e+03
2.010000e-06	5.293090e-06	2.266252e-08	3.717128e+01	1.485049e+03
2.020000e-06	5.210460e-06	2.256657e-08	3.659101e+01	1.479119e+03
2.030000e-06	5.126057e-06	2.248527e-08	3.599828e+01	1.472783e+03
2.040000e-06	5.039738e-06	2.241421e-08	3.539209e+01	1.466311e+03
2.050000e-06	4.951543e-06	2.231127e-08	3.477274e+01	1.459961e+03
2.060000e-06	4.861663e-06	2.223232e-08	3.414154e+01	1.453897e+03
2.070000e-06	4.770324e-06	2.211880e-08	3.350011e+01	1.448130e+03
2.080000e-06	4.677370e-06	2.203701e-08	3.284732e+01	1.442515e+03
2.090000e-06	4.582605e-06	2.192958e-08	3.218183e+01	1.436789e+03
2.100000e-06	4.486143e-06	2.183295e-08	3.150441e+01	1.430650e+03
2.110000e-06	4.388201e-06	2.172708e-08	3.081660e+01	1.423858e+03
2.120000e-06	4.288898e-06	2.161303e-08	3.011924e+01	1.416303e+03
2.130000e-06	4.188091e-06	2.149942e-08	2.941131e+01	1.408049e+03
2.140000e-06	4.085573e-06	2.137160e-08	2.869137e+01	1.399311e+03
2.150000e-06	3.981413e-06	2.125605e-08	2.795989e+01	1.390390e+03
2.160000e-06	3.875849e-06	2.112879e-08	2.721856e+01	1.381575e+03
2.170000e-06	3.769031e-06	2.100707e-08	2.646842e+01	1.373047e+03
2.180000e-06	3.660991e-06	2.087119e-08	2.570970e+01	1.364810e+03
2.190000e-06	3.551642e-06	2.073688e-08	2.494178e+01	1.356684e+03
2.200000e-06	3.441021e-06	2.059464e-08	2.416494e+01	1.348348e+03
2.210000e-06	3.329014e-06	2.045195e-08	2.337835e+01	1.339437e+03
2.220000e-06	3.215661e-06	2.030183e-08	2.258232e+01	1.329653e+03
2.230000e-06	3.101087e-06	2.014294e-08	2.177771e+01	1.318859e+03
2.240000e-06	2.985210e-06	1.997779e-08	2.096395e+01	1.307128e+03
2.250000e-06	2.868075e-06	1.980523e-08	2.014136e+01	1.294720e+03
2.260000e-06	2.749807e-06	1.963027e-08	1.931081e+01	1.282006e+03
2.270000e-06	2.630439e-06	1.944911e-08	1.847254e+01	1.269339e+03
2.280000e-06	2.509945e-06	1.926615e-08	1.762635e+01	1.256941e+03
2.290000e-06	2.388610e-06	1.907259e-08	1.677427e+01	1.244808e+03
2.300000e-06	2.266657e-06	1.887128e-08	1.591784e+01	1.232693e+03
2.310000e-06	2.143972e-06	1.865628e-08	1.505627e+01	1.220166e+03
2.320000e-06	2.020537e-06	1.843559e-08	1.418943e+01	1.206728e+03
2.330000e-06	1.896320e-06	1.820613e-08	1.331711e+01	1.191965e+03
2.340000e-06	1.771317e-06	1.796783e-08	1.243926e+01	1.175670e+03
2.350000e-06	1.645750e-06	1.771767e-08	1.155745e+01	1.157912e+03
2.360000e-06	1.519728e-06	1.745337e-08	1.067245e+01	1.139017e+03
2.370000e-06	1.393264e-06	1.717646e-08	9.784344e+00	1.119460e+03
2.380000e-06	1.266342e-06	1.688655e-08	8.893022e+00	1.099689e+03
2.390000e-06	1.138964e-06	1.658593e-08	7.998496e+00	1.079957e+03
2.400000e-06	1.011199e-06	1.626763e-08	7.101252e+00	1.060181e+03
2.410000e-06	8.830471e-07	1.593000e-08	6.201291e+00	1.039905e+03
2.420000e-06	7.545046e-07	1.556838e-08	5.298588e+00	1.018378e+03
2.430000e-06	6.256644e-07	1.518235e-08	4.393794e+00	9.947236e+02
2.440000e-06	4.966217e-07	1.477030e-08	3.487578e+00	9.681714e+02
2.450000e-06	3.673955e-07	1.433099e-08	2.580074e+00	9.382626e+02
2.460000e-06	2.380222e-07	1.386106e-08	1.671536e+00	9.049693e+02
2.470000e-06	1.085404e-07	1.335004e-08	7.622367e-01	8.686663e+02
2.480000e-06	-2.099971e-08	1.279353e-08	-1.474727e-01	8.299431e+02
2.490000e-06	-1.505184e-07	1.218771e-08	-1.057032e+00	7.892858e+02
2.500000e-06	-2.800497e-07	1.152254e-08	-1.966679e+00	7.467056e+02
2.510000e-06	-4.095299e-07	1.078738e-08	-2.875967e+00	7.014166e+02
2.520000e-06	-5.388167e-07	9.970390e-09	-3.783897e+00	6.516690e+02
2.530000e-06	-6.679225e-07	9.052988e-09	-4.690556e+00	5.948163e+02
2.540000e-06	-7.968867e-07	8.009414e-09	-5.596221e+00	5.276441e+02
2.550000e-06	-9.255039e-07	6.806354e-09	-6.499449e+00	4.469240e+02
2.560000e-06	-1.053655e-06	5.406646e-09	-7.399401e+00	3.500958e+02
2.570000e-06	-1.181377e-06	3.766758e-09	-8.296347e+00	2.359380e+02
2.580000e-06	-1.308618e-06	1.845084e-09	-9.189907e+00	1.050756e+02
2.590000e-06	-1.435392e-06	-3.659166e-10	-1.008019e+01	-3.980220e+01
2.600000e-06	-1.561720e-06	-2.789397e-09	-1.096735e+01	-1.940845e+02
2.610000e-06	-1.687517e-06	-5.293560e-09	-1.185077e+01	-3.517387e+02
2.620000e-06	-1.812646e-06	-7.761347e-09	-1.272950e+01	-5.060863e+02
2.630000e-06	-1.937020e-06	-1.004839e-08	-1.360293e+01	-6.507102e+02
2.640000e-06	-2.060566e-06	-1.202378e-08	-1.447054e+01	-7.803234e+02
2.650000e-06	-2.183255e-06	-1.365342e-08	-1.533214e+01	-8.914318e+02
2.660000e-06	-2.305256e-06	-1.496712e-08	-1.618891e+01	-9.826719e+02
2.670000e-06	-2.426536e-06	-1.601899e-08	-1.704060e+01	-1.054772e+03
2.680000e-06	-2.546781e-06	-1.686641e-08	-1.788504e+01	-1.110171e+03
2.690000e-06	-2.665963e-06	-1.755621e-08	-1.872200e+01	-1.152382e+03
2.700000e-06	-2.784141e-06	-1.812459e-08	-1.955192e+01	-1.185270e+03
2.710000e-06	-2.901257e-06	-1.859841e-08	-2.037438e+01	-1.212364e+03
2.720000e-06	-3.017162e-06	-1.900229e-08	-2.118834e+01	-1.236365e+03
2.730000e-06	-3.131767e-06	-1.935480e-08	-2.199317e+01	-1.258911e+03
2.740000e-06	-3.245129e-06	-1.966543e-08	-2.278926e+01	-1.280604e+03
2.750000e-06	-3.357190e-06	-1.994222e-08	-2.357623e+01	-1.301269e+03
2.760000e-06	-3.467886e-06	-2.019010e-08	-2.435360e+01	-1.320323e+03
2.770000e-06	-3.577328e-06	-2.041696e-08	-2.512216e+01	-1.337170e+03
2.780000e-06	-3.685608e-06	-2.062707e-08	-2.588257e+01	-1.351491e+03
2.790000e-06	-3.792697e-06	-2.082096e-08	-2.663462e+01	-1.363397e+03
2.800000e-06	-3.898543e-06	-2.100086e-08	-2.737793e+01	-1.373408e+03
2.810000e-06	-4.003049e-06	-2.116926e-08	-2.811184e+01	-1.382296e+03
2.820000e-06	-4.106068e-06	-2.132687e-08	-2.883530e+01	-1.390863e+03
2.830000e-06	-4.207559e-06	-2.147471e-08	-2.954803e+01	-1.399718e+03
2.840000e-06	-4.307498e-06	-2.161499e-08	-3.024986e+01	-1.409133e+03
2.850000e-06	-4.405919e-06	-2.174723e-08	-3.094103e+01	-1.419005e+03
2.860000e-06	-4.502899e-06	-2.187101e-08	-3.162208e+01	-1.428936e+03
2.870000e-06	-4.598330e-06	-2.198986e-08	-3.229226e+01	-1.438389e+03
2.880000e-06	-4.692103e-06	-2.210349e-08	-3.295079e+01	-1.446874e+03
2.890000e-06	-4.784144e-06	-2.220972e-08	-3.359716e+01	-1.454106e+03
2.900000e-06	-4.874512e-06	-2.231083e-08	-3.423178e+01	-1.460086e+03
2.910000e-06	-4.963142e-06	-2.240708e-08	-3.485419e+01	-1.465094e+03
2.920000e-06	-5.049885e-06	-2.249870e-08	-3.546335e+01	-1.469590e+03
2.930000e-06	-5.134736e-06	-2.258537e-08	-3.605923e+01	-1.474070e+03
2.940000e-06	-5.217740e-06	-2.266788e-08	-3.664213e+01	-1.478924e+03
