# Temperatura_=_87.17
# Concentracion g/m^3_=_41000.0
# C_Vs_to_Am_M_A/Vsm_=_65563218390.804596
# pendiente_HvsI_1/m_=_3716.3
# ordenada_HvsI_A/m_=_1297.0
# frecuencia_Hz_=_301998.9272068091

Tiempo_(s)	Campo_(V.s)	Magnetizacion_(V.s)	Campo_(kA/m)	Magnetizacion_(A/m)
0.000000e+00	-6.743014e-06	-2.369122e-08	-4.747430e+01	-1.551873e+03
1.000000e-08	-6.739710e-06	-2.368484e-08	-4.745103e+01	-1.551906e+03
2.000000e-08	-6.734195e-06	-2.367798e-08	-4.741221e+01	-1.551388e+03
3.000000e-08	-6.726562e-06	-2.366732e-08	-4.735847e+01	-1.550313e+03
4.000000e-08	-6.716622e-06	-2.365362e-08	-4.728848e+01	-1.548811e+03
5.000000e-08	-6.704182e-06	-2.363734e-08	-4.720090e+01	-1.547108e+03
6.000000e-08	-6.689197e-06	-2.362047e-08	-4.709540e+01	-1.545454e+03
7.000000e-08	-6.671854e-06	-2.360271e-08	-4.697330e+01	-1.544047e+03
8.000000e-08	-6.652438e-06	-2.358317e-08	-4.683659e+01	-1.542978e+03
9.000000e-08	-6.630712e-06	-2.357577e-08	-4.668363e+01	-1.542201e+03
1.000000e-07	-6.606283e-06	-2.356979e-08	-4.651164e+01	-1.541558e+03
1.100000e-07	-6.579168e-06	-2.353164e-08	-4.632074e+01	-1.540826e+03
1.200000e-07	-6.549739e-06	-2.348484e-08	-4.611355e+01	-1.539796e+03
1.300000e-07	-6.518433e-06	-2.345493e-08	-4.589313e+01	-1.538333e+03
1.400000e-07	-6.485301e-06	-2.341679e-08	-4.565987e+01	-1.536417e+03
1.500000e-07	-6.450183e-06	-2.336875e-08	-4.541262e+01	-1.534146e+03
1.600000e-07	-6.413079e-06	-2.338059e-08	-4.515139e+01	-1.531694e+03
1.700000e-07	-6.373987e-06	-2.333370e-08	-4.487616e+01	-1.529255e+03
1.800000e-07	-6.332506e-06	-2.328187e-08	-4.458411e+01	-1.526965e+03
1.900000e-07	-6.288525e-06	-2.326212e-08	-4.427446e+01	-1.524858e+03
2.000000e-07	-6.242340e-06	-2.318239e-08	-4.394930e+01	-1.522850e+03
2.100000e-07	-6.193721e-06	-2.315685e-08	-4.360699e+01	-1.520755e+03
2.200000e-07	-6.142437e-06	-2.312606e-08	-4.324593e+01	-1.518353e+03
2.300000e-07	-6.088646e-06	-2.306856e-08	-4.286721e+01	-1.515450e+03
2.400000e-07	-6.032483e-06	-2.301161e-08	-4.247179e+01	-1.511954e+03
2.500000e-07	-5.973969e-06	-2.294486e-08	-4.205982e+01	-1.507902e+03
2.600000e-07	-5.913198e-06	-2.289457e-08	-4.163197e+01	-1.503454e+03
2.700000e-07	-5.850387e-06	-2.282898e-08	-4.118975e+01	-1.498851e+03
2.800000e-07	-5.785476e-06	-2.276699e-08	-4.073274e+01	-1.494341e+03
2.900000e-07	-5.718291e-06	-2.271497e-08	-4.025972e+01	-1.490097e+03
3.000000e-07	-5.648921e-06	-2.264283e-08	-3.977132e+01	-1.486166e+03
3.100000e-07	-5.577482e-06	-2.257986e-08	-3.926835e+01	-1.482448e+03
3.200000e-07	-5.503895e-06	-2.250918e-08	-3.875026e+01	-1.478724e+03
3.300000e-07	-5.428078e-06	-2.243996e-08	-3.821647e+01	-1.474721e+03
3.400000e-07	-5.350052e-06	-2.235994e-08	-3.766713e+01	-1.470197e+03
3.500000e-07	-5.269868e-06	-2.227503e-08	-3.710259e+01	-1.465012e+03
3.600000e-07	-5.187777e-06	-2.219580e-08	-3.652463e+01	-1.459178e+03
3.700000e-07	-5.104052e-06	-2.210594e-08	-3.593516e+01	-1.452851e+03
3.800000e-07	-5.018669e-06	-2.202419e-08	-3.533402e+01	-1.446288e+03
3.900000e-07	-4.931619e-06	-2.193326e-08	-3.472114e+01	-1.439767e+03
4.000000e-07	-4.842891e-06	-2.184337e-08	-3.409646e+01	-1.433493e+03
4.100000e-07	-4.752384e-06	-2.174819e-08	-3.345923e+01	-1.427539e+03
4.200000e-07	-4.660202e-06	-2.164696e-08	-3.281023e+01	-1.421813e+03
4.300000e-07	-4.566454e-06	-2.154395e-08	-3.215019e+01	-1.416086e+03
4.400000e-07	-4.471139e-06	-2.143540e-08	-3.147913e+01	-1.410061e+03
4.500000e-07	-4.374088e-06	-2.132778e-08	-3.079583e+01	-1.403464e+03
4.600000e-07	-4.275320e-06	-2.121450e-08	-3.010046e+01	-1.396131e+03
4.700000e-07	-4.175080e-06	-2.110111e-08	-2.939472e+01	-1.388061e+03
4.800000e-07	-4.073409e-06	-2.098533e-08	-2.867890e+01	-1.379419e+03
4.900000e-07	-3.970348e-06	-2.086683e-08	-2.795330e+01	-1.370484e+03
5.000000e-07	-3.865853e-06	-2.074133e-08	-2.721760e+01	-1.361559e+03
5.100000e-07	-3.759854e-06	-2.061035e-08	-2.647131e+01	-1.352874e+03
5.200000e-07	-3.652480e-06	-2.047446e-08	-2.571534e+01	-1.344499e+03
5.300000e-07	-3.543761e-06	-2.033202e-08	-2.494991e+01	-1.336321e+03
5.400000e-07	-3.433795e-06	-2.018483e-08	-2.417569e+01	-1.328062e+03
5.500000e-07	-3.322674e-06	-2.003368e-08	-2.339334e+01	-1.319361e+03
5.600000e-07	-3.210296e-06	-1.988044e-08	-2.260214e+01	-1.309884e+03
5.700000e-07	-3.096489e-06	-1.971992e-08	-2.180088e+01	-1.299428e+03
5.800000e-07	-2.981264e-06	-1.955587e-08	-2.098964e+01	-1.287989e+03
5.900000e-07	-2.864799e-06	-1.938769e-08	-2.016967e+01	-1.275765e+03
6.000000e-07	-2.747187e-06	-1.921316e-08	-1.934161e+01	-1.263100e+03
6.100000e-07	-2.628677e-06	-1.902950e-08	-1.850724e+01	-1.250370e+03
6.200000e-07	-2.509336e-06	-1.883865e-08	-1.766702e+01	-1.237859e+03
6.300000e-07	-2.388994e-06	-1.864305e-08	-1.681975e+01	-1.225651e+03
6.400000e-07	-2.267698e-06	-1.844142e-08	-1.596576e+01	-1.213589e+03
6.500000e-07	-2.145560e-06	-1.823192e-08	-1.510585e+01	-1.201297e+03
6.600000e-07	-2.022598e-06	-1.801254e-08	-1.424014e+01	-1.188283e+03
6.700000e-07	-1.898881e-06	-1.778461e-08	-1.336910e+01	-1.174082e+03
6.800000e-07	-1.774540e-06	-1.754606e-08	-1.249368e+01	-1.158394e+03
6.900000e-07	-1.649601e-06	-1.729846e-08	-1.161405e+01	-1.141182e+03
7.000000e-07	-1.524089e-06	-1.704252e-08	-1.073037e+01	-1.122686e+03
7.100000e-07	-1.398137e-06	-1.677473e-08	-9.843607e+00	-1.103346e+03
7.200000e-07	-1.271843e-06	-1.649202e-08	-8.954434e+00	-1.083648e+03
7.300000e-07	-1.145174e-06	-1.619352e-08	-8.062614e+00	-1.063949e+03
7.400000e-07	-1.018114e-06	-1.587981e-08	-7.168049e+00	-1.044312e+03
7.500000e-07	-8.907093e-07	-1.555112e-08	-6.271053e+00	-1.024433e+03
7.600000e-07	-7.629668e-07	-1.520309e-08	-5.371680e+00	-1.003664e+03
7.700000e-07	-6.349215e-07	-1.483100e-08	-4.470175e+00	-9.811554e+02
7.800000e-07	-5.066043e-07	-1.443501e-08	-3.566756e+00	-9.560716e+02
7.900000e-07	-3.780467e-07	-1.401417e-08	-2.661644e+00	-9.278119e+02
8.000000e-07	-2.493432e-07	-1.356218e-08	-1.755505e+00	-8.961750e+02
8.100000e-07	-1.205248e-07	-1.307287e-08	-8.485567e-01	-8.613938e+02
8.200000e-07	8.394341e-09	-1.254205e-08	5.910049e-02	-8.240110e+02
8.300000e-07	1.373522e-07	-1.196505e-08	9.670307e-01	-7.846080e+02
8.400000e-07	2.662907e-07	-1.133543e-08	1.874824e+00	-7.434447e+02
8.500000e-07	3.951429e-07	-1.064145e-08	2.782010e+00	-7.001062e+02
8.600000e-07	5.238663e-07	-9.867763e-09	3.688289e+00	-6.532623e+02
8.700000e-07	6.524252e-07	-9.000155e-09	4.593410e+00	-6.006330e+02
8.800000e-07	7.808377e-07	-8.020574e-09	5.497501e+00	-5.392096e+02
8.900000e-07	9.090274e-07	-6.900171e-09	6.400022e+00	-4.657210e+02
9.000000e-07	1.036777e-06	-5.599979e-09	7.299444e+00	-3.772735e+02
9.100000e-07	1.164020e-06	-4.075138e-09	8.195299e+00	-2.720361e+02
9.200000e-07	1.290805e-06	-2.284111e-09	9.087936e+00	-1.498262e+02
9.300000e-07	1.417192e-06	-2.098279e-10	9.977765e+00	-1.245281e+01
9.400000e-07	1.543217e-06	2.096570e-09	1.086505e+01	1.362758e+02
9.500000e-07	1.668758e-06	4.517573e-09	1.174892e+01	2.909091e+02
9.600000e-07	1.793736e-06	6.939182e-09	1.262883e+01	4.450236e+02
9.700000e-07	1.918176e-06	9.233793e-09	1.350495e+01	5.920856e+02
9.800000e-07	2.041928e-06	1.126330e-08	1.437623e+01	7.263446e+02
9.900000e-07	2.164761e-06	1.296542e-08	1.524103e+01	8.435852e+02
1.000000e-06	2.286675e-06	1.434948e-08	1.609937e+01	9.415996e+02
1.010000e-06	2.407812e-06	1.546066e-08	1.695224e+01	1.020299e+03
1.020000e-06	2.528015e-06	1.635503e-08	1.779853e+01	1.081463e+03
1.030000e-06	2.647204e-06	1.708147e-08	1.863768e+01	1.128202e+03
1.040000e-06	2.765494e-06	1.768026e-08	1.947050e+01	1.164258e+03
1.050000e-06	2.882836e-06	1.818113e-08	2.029665e+01	1.193297e+03
1.060000e-06	2.999071e-06	1.860636e-08	2.111500e+01	1.218338e+03
1.070000e-06	3.113984e-06	1.897320e-08	2.192406e+01	1.241410e+03
1.080000e-06	3.227575e-06	1.929434e-08	2.272379e+01	1.263488e+03
1.090000e-06	3.339950e-06	1.957944e-08	2.351497e+01	1.284660e+03
1.100000e-06	3.451084e-06	1.983646e-08	2.429741e+01	1.304465e+03
1.110000e-06	3.561011e-06	2.007069e-08	2.507135e+01	1.322281e+03
1.120000e-06	3.669838e-06	2.028589e-08	2.583755e+01	1.337663e+03
1.130000e-06	3.777523e-06	2.048495e-08	2.659571e+01	1.350553e+03
1.140000e-06	3.883848e-06	2.066997e-08	2.734429e+01	1.361321e+03
1.150000e-06	3.988673e-06	2.084360e-08	2.808231e+01	1.370659e+03
1.160000e-06	4.092019e-06	2.100766e-08	2.880992e+01	1.379377e+03
1.170000e-06	4.193985e-06	2.116190e-08	2.952782e+01	1.388175e+03
1.180000e-06	4.294587e-06	2.130736e-08	3.023611e+01	1.397464e+03
1.190000e-06	4.393647e-06	2.144573e-08	3.093354e+01	1.407282e+03
1.200000e-06	4.490995e-06	2.157529e-08	3.161892e+01	1.417336e+03
1.210000e-06	4.586618e-06	2.169624e-08	3.229216e+01	1.427124e+03
1.220000e-06	4.680643e-06	2.181150e-08	3.295414e+01	1.436121e+03
1.230000e-06	4.773178e-06	2.192164e-08	3.360564e+01	1.443950e+03
1.240000e-06	4.864105e-06	2.202676e-08	3.424581e+01	1.450496e+03
1.250000e-06	4.953168e-06	2.212628e-08	3.487286e+01	1.455934e+03
1.260000e-06	5.040347e-06	2.221909e-08	3.548664e+01	1.460665e+03
1.270000e-06	5.125763e-06	2.230729e-08	3.608802e+01	1.465186e+03
1.280000e-06	5.209496e-06	2.239194e-08	3.667754e+01	1.469941e+03
1.290000e-06	5.291410e-06	2.247422e-08	3.725426e+01	1.475194e+03
1.300000e-06	5.371278e-06	2.255425e-08	3.781657e+01	1.480966e+03
1.310000e-06	5.449139e-06	2.263115e-08	3.836475e+01	1.487045e+03
1.320000e-06	5.524995e-06	2.270463e-08	3.889881e+01	1.493073e+03
1.330000e-06	5.598694e-06	2.277432e-08	3.941770e+01	1.498663e+03
1.340000e-06	5.670269e-06	2.284078e-08	3.992162e+01	1.503529e+03
1.350000e-06	5.739833e-06	2.290548e-08	4.041139e+01	1.507566e+03
1.360000e-06	5.807358e-06	2.296867e-08	4.088680e+01	1.510882e+03
1.370000e-06	5.872716e-06	2.303044e-08	4.134696e+01	1.513752e+03
1.380000e-06	5.935967e-06	2.309035e-08	4.179227e+01	1.516525e+03
1.390000e-06	5.997273e-06	2.314633e-08	4.222390e+01	1.519517e+03
1.400000e-06	6.056627e-06	2.319851e-08	4.264178e+01	1.522908e+03
1.410000e-06	6.113802e-06	2.324614e-08	4.304432e+01	1.526693e+03
1.420000e-06	6.168685e-06	2.328956e-08	4.343073e+01	1.530689e+03
1.430000e-06	6.221271e-06	2.333209e-08	4.380096e+01	1.534595e+03
1.440000e-06	6.271313e-06	2.337447e-08	4.415328e+01	1.538095e+03
1.450000e-06	6.318773e-06	2.341419e-08	4.448742e+01	1.540950e+03
1.460000e-06	6.363999e-06	2.345102e-08	4.480583e+01	1.543078e+03
1.470000e-06	6.407146e-06	2.348514e-08	4.510962e+01	1.544569e+03
1.480000e-06	6.447978e-06	2.351527e-08	4.539709e+01	1.545660e+03
1.490000e-06	6.486478e-06	2.354075e-08	4.566815e+01	1.546657e+03
1.500000e-06	6.522850e-06	2.356331e-08	4.592423e+01	1.547837e+03
1.510000e-06	6.556951e-06	2.358606e-08	4.616432e+01	1.549368e+03
1.520000e-06	6.588631e-06	2.360921e-08	4.638736e+01	1.551256e+03
1.530000e-06	6.618054e-06	2.363123e-08	4.659452e+01	1.553354e+03
1.540000e-06	6.645227e-06	2.365111e-08	4.678583e+01	1.555407e+03
1.550000e-06	6.669897e-06	2.366876e-08	4.695952e+01	1.557135e+03
1.560000e-06	6.692117e-06	2.368255e-08	4.711596e+01	1.558326e+03
1.570000e-06	6.712130e-06	2.369380e-08	4.725686e+01	1.558895e+03
1.580000e-06	6.729752e-06	2.370542e-08	4.738093e+01	1.558912e+03
1.590000e-06	6.744799e-06	2.371617e-08	4.748687e+01	1.558580e+03
1.600000e-06	6.757321e-06	2.372396e-08	4.757503e+01	1.558163e+03
1.610000e-06	6.767253e-06	2.372912e-08	4.764496e+01	1.557911e+03
1.620000e-06	6.774597e-06	2.373305e-08	4.769666e+01	1.557977e+03
1.630000e-06	6.779557e-06	2.373559e-08	4.773158e+01	1.558375e+03
1.640000e-06	6.782150e-06	2.373549e-08	4.774984e+01	1.558976e+03
1.650000e-06	6.782280e-06	2.373407e-08	4.775075e+01	1.559551e+03
1.660000e-06	6.780121e-06	2.373314e-08	4.773555e+01	1.559845e+03
1.670000e-06	6.775844e-06	2.372708e-08	4.770544e+01	1.559653e+03
1.680000e-06	6.769304e-06	2.371922e-08	4.765940e+01	1.558891e+03
1.690000e-06	6.760507e-06	2.371007e-08	4.759746e+01	1.557612e+03
1.700000e-06	6.749581e-06	2.369886e-08	4.752054e+01	1.555994e+03
1.710000e-06	6.736379e-06	2.368655e-08	4.742759e+01	1.554284e+03
1.720000e-06	6.720833e-06	2.367164e-08	4.731813e+01	1.552719e+03
1.730000e-06	6.703180e-06	2.365492e-08	4.719385e+01	1.551455e+03
1.740000e-06	6.683191e-06	2.361279e-08	4.705311e+01	1.550526e+03
1.750000e-06	6.660118e-06	2.357403e-08	4.689067e+01	1.549833e+03
1.760000e-06	6.633959e-06	2.357274e-08	4.670650e+01	1.549181e+03
1.770000e-06	6.605356e-06	2.357018e-08	4.650512e+01	1.548346e+03
1.780000e-06	6.574741e-06	2.354835e-08	4.628957e+01	1.547143e+03
1.790000e-06	6.542599e-06	2.356035e-08	4.606328e+01	1.545482e+03
1.800000e-06	6.508842e-06	2.351705e-08	4.582561e+01	1.543398e+03
1.810000e-06	6.472692e-06	2.348065e-08	4.557110e+01	1.541027e+03
1.820000e-06	6.434132e-06	2.350498e-08	4.529961e+01	1.538560e+03
1.830000e-06	6.393451e-06	2.344548e-08	4.501320e+01	1.536175e+03
1.840000e-06	6.350626e-06	2.344218e-08	4.471168e+01	1.533968e+03
1.850000e-06	6.305645e-06	2.341009e-08	4.439500e+01	1.531923e+03
1.860000e-06	6.258308e-06	2.332113e-08	4.406172e+01	1.529905e+03
1.870000e-06	6.208626e-06	2.330494e-08	4.371193e+01	1.527707e+03
1.880000e-06	6.156581e-06	2.323141e-08	4.334551e+01	1.525111e+03
1.890000e-06	6.101889e-06	2.320643e-08	4.296045e+01	1.521960e+03
1.900000e-06	6.044790e-06	2.316727e-08	4.255844e+01	1.518215e+03
1.910000e-06	5.985541e-06	2.308135e-08	4.214130e+01	1.513969e+03
1.920000e-06	5.924096e-06	2.305302e-08	4.170870e+01	1.509425e+03
1.930000e-06	5.860452e-06	2.297136e-08	4.126061e+01	1.504836e+03
1.940000e-06	5.794635e-06	2.292798e-08	4.079722e+01	1.500426e+03
1.950000e-06	5.726675e-06	2.286702e-08	4.031875e+01	1.496321e+03
1.960000e-06	5.656394e-06	2.278861e-08	3.982394e+01	1.492503e+03
1.970000e-06	5.583871e-06	2.273586e-08	3.931334e+01	1.488816e+03
1.980000e-06	5.509315e-06	2.264153e-08	3.878842e+01	1.485008e+03
1.990000e-06	5.432646e-06	2.258581e-08	3.824863e+01	1.480809e+03
2.000000e-06	5.353835e-06	2.250490e-08	3.769376e+01	1.476012e+03
2.010000e-06	5.273006e-06	2.243426e-08	3.712468e+01	1.470540e+03
2.020000e-06	5.190422e-06	2.235915e-08	3.654325e+01	1.464469e+03
2.030000e-06	5.106075e-06	2.225720e-08	3.594940e+01	1.458008e+03
2.040000e-06	5.019784e-06	2.217829e-08	3.534187e+01	1.451433e+03
2.050000e-06	4.931635e-06	2.207928e-08	3.472125e+01	1.445001e+03
2.060000e-06	4.841892e-06	2.199491e-08	3.408942e+01	1.438867e+03
2.070000e-06	4.750706e-06	2.189203e-08	3.344743e+01	1.433032e+03
2.080000e-06	4.657880e-06	2.179523e-08	3.279388e+01	1.427341e+03
2.090000e-06	4.563264e-06	2.169749e-08	3.212774e+01	1.421525e+03
2.100000e-06	4.466949e-06	2.158912e-08	3.144962e+01	1.415286e+03
2.110000e-06	4.369143e-06	2.148318e-08	3.076102e+01	1.408386e+03
2.120000e-06	4.269961e-06	2.136710e-08	3.006273e+01	1.400729e+03
2.130000e-06	4.169215e-06	2.125683e-08	2.935342e+01	1.392388e+03
2.140000e-06	4.066815e-06	2.113486e-08	2.863248e+01	1.383584e+03
2.150000e-06	3.962902e-06	2.101409e-08	2.790087e+01	1.374620e+03
2.160000e-06	3.857576e-06	2.088675e-08	2.715932e+01	1.365779e+03
2.170000e-06	3.750985e-06	2.075996e-08	2.640887e+01	1.357230e+03
2.180000e-06	3.643204e-06	2.062782e-08	2.565003e+01	1.348966e+03
2.190000e-06	3.534072e-06	2.049061e-08	2.488169e+01	1.340796e+03
2.200000e-06	3.423557e-06	2.035103e-08	2.410361e+01	1.332395e+03
2.210000e-06	3.311642e-06	2.020328e-08	2.331567e+01	1.323398e+03
2.220000e-06	3.198378e-06	2.004874e-08	2.251823e+01	1.313517e+03
2.230000e-06	3.083916e-06	1.988487e-08	2.171236e+01	1.302630e+03
2.240000e-06	2.968282e-06	1.972159e-08	2.089824e+01	1.290821e+03
2.250000e-06	2.851389e-06	1.955468e-08	2.007525e+01	1.278363e+03
2.260000e-06	2.733266e-06	1.938292e-08	1.924361e+01	1.265629e+03
2.270000e-06	2.614035e-06	1.920186e-08	1.840416e+01	1.252969e+03
2.280000e-06	2.493795e-06	1.901407e-08	1.755761e+01	1.240593e+03
2.290000e-06	2.372687e-06	1.881847e-08	1.670494e+01	1.228483e+03
2.300000e-06	2.250801e-06	1.861383e-08	1.584680e+01	1.216379e+03
2.310000e-06	2.128227e-06	1.840076e-08	1.498381e+01	1.203841e+03
2.320000e-06	2.005016e-06	1.818136e-08	1.411634e+01	1.190371e+03
2.330000e-06	1.881144e-06	1.795288e-08	1.324422e+01	1.175557e+03
2.340000e-06	1.756499e-06	1.771195e-08	1.236666e+01	1.159205e+03
2.350000e-06	1.631142e-06	1.746075e-08	1.148408e+01	1.141401e+03
2.360000e-06	1.505331e-06	1.719870e-08	1.059831e+01	1.122484e+03
2.370000e-06	1.379117e-06	1.692515e-08	9.709699e+00	1.102936e+03
2.380000e-06	1.252415e-06	1.663818e-08	8.817650e+00	1.083210e+03
2.390000e-06	1.125228e-06	1.633627e-08	7.922185e+00	1.063552e+03
2.400000e-06	9.975872e-07	1.601669e-08	7.023529e+00	1.043873e+03
2.410000e-06	8.695508e-07	1.567766e-08	6.122086e+00	1.023709e+03
2.420000e-06	7.412098e-07	1.531590e-08	5.218499e+00	1.002304e+03
2.430000e-06	6.126349e-07	1.493208e-08	4.313266e+00	9.787875e+02
2.440000e-06	4.839218e-07	1.452588e-08	3.407059e+00	9.523971e+02
2.450000e-06	3.550818e-07	1.409480e-08	2.499959e+00	9.226901e+02
2.460000e-06	2.260666e-07	1.363090e-08	1.591626e+00	8.896561e+02
2.470000e-06	9.695437e-08	1.312456e-08	6.826088e-01	8.536853e+02
2.480000e-06	-3.215396e-08	1.257324e-08	-2.263805e-01	8.153772e+02
2.490000e-06	-1.612133e-07	1.197230e-08	-1.135025e+00	7.752217e+02
2.500000e-06	-2.902545e-07	1.131385e-08	-2.043541e+00	7.332284e+02
2.510000e-06	-4.192659e-07	1.058942e-08	-2.951848e+00	6.886094e+02
2.520000e-06	-5.481650e-07	9.785529e-09	-3.859365e+00	6.396174e+02
2.530000e-06	-6.769245e-07	8.880561e-09	-4.765898e+00	5.836177e+02
2.540000e-06	-8.054986e-07	7.851232e-09	-5.671126e+00	5.174195e+02
2.550000e-06	-9.338196e-07	6.666908e-09	-6.574572e+00	4.378293e+02
2.560000e-06	-1.061789e-06	5.289322e-09	-7.475540e+00	3.423272e+02
2.570000e-06	-1.189329e-06	3.675069e-09	-8.373492e+00	2.297282e+02
2.580000e-06	-1.316334e-06	1.782495e-09	-9.267670e+00	1.006793e+02
2.590000e-06	-1.442773e-06	-3.923536e-10	-1.015786e+01	-4.213311e+01
2.600000e-06	-1.568735e-06	-2.780903e-09	-1.104471e+01	-1.941330e+02
2.610000e-06	-1.694159e-06	-5.260763e-09	-1.192776e+01	-3.493562e+02
2.620000e-06	-1.818904e-06	-7.694453e-09	-1.280603e+01	-5.012206e+02
2.630000e-06	-1.942841e-06	-9.931675e-09	-1.367861e+01	-6.434232e+02
2.640000e-06	-2.065917e-06	-1.186200e-08	-1.454512e+01	-7.707931e+02
2.650000e-06	-2.188184e-06	-1.345870e-08	-1.540595e+01	-8.799374e+02
2.660000e-06	-2.309700e-06	-1.475014e-08	-1.626148e+01	-9.695646e+02
2.670000e-06	-2.430463e-06	-1.578916e-08	-1.711171e+01	-1.040437e+03
2.680000e-06	-2.550354e-06	-1.662944e-08	-1.795581e+01	-1.094983e+03
2.690000e-06	-2.669232e-06	-1.731434e-08	-1.879277e+01	-1.136673e+03
2.700000e-06	-2.787065e-06	-1.787825e-08	-1.962238e+01	-1.169298e+03
2.710000e-06	-2.903804e-06	-1.834897e-08	-2.044428e+01	-1.196305e+03
2.720000e-06	-3.019301e-06	-1.875098e-08	-2.125744e+01	-1.220314e+03
2.730000e-06	-3.133518e-06	-1.910147e-08	-2.206158e+01	-1.242897e+03
2.740000e-06	-3.246441e-06	-1.941141e-08	-2.285662e+01	-1.264615e+03
2.750000e-06	-3.358014e-06	-1.968909e-08	-2.364215e+01	-1.285275e+03
2.760000e-06	-3.468243e-06	-1.993886e-08	-2.441822e+01	-1.304298e+03
2.770000e-06	-3.577291e-06	-2.016557e-08	-2.518597e+01	-1.321104e+03
2.780000e-06	-3.685250e-06	-2.037454e-08	-2.594606e+01	-1.335398e+03
2.790000e-06	-3.792058e-06	-2.056942e-08	-2.669805e+01	-1.347308e+03
2.800000e-06	-3.897615e-06	-2.075155e-08	-2.744122e+01	-1.357365e+03
2.810000e-06	-4.001742e-06	-2.092161e-08	-2.817433e+01	-1.366338e+03
2.820000e-06	-4.104325e-06	-2.108023e-08	-2.889657e+01	-1.375017e+03
2.830000e-06	-4.205335e-06	-2.122981e-08	-2.960773e+01	-1.383994e+03
2.840000e-06	-4.304842e-06	-2.137277e-08	-3.030831e+01	-1.393525e+03
2.850000e-06	-4.402959e-06	-2.150802e-08	-3.099910e+01	-1.403495e+03
2.860000e-06	-4.499614e-06	-2.163473e-08	-3.167961e+01	-1.413500e+03
2.870000e-06	-4.594606e-06	-2.175365e-08	-3.234840e+01	-1.423007e+03
2.880000e-06	-4.687888e-06	-2.186623e-08	-3.300515e+01	-1.431534e+03
2.890000e-06	-4.779538e-06	-2.197368e-08	-3.365042e+01	-1.438808e+03
2.900000e-06	-4.869574e-06	-2.207534e-08	-3.428431e+01	-1.444841e+03
2.910000e-06	-4.957855e-06	-2.217221e-08	-3.490586e+01	-1.449916e+03
2.920000e-06	-5.044246e-06	-2.226554e-08	-3.551410e+01	-1.454494e+03
2.930000e-06	-5.128758e-06	-2.235469e-08	-3.610910e+01	-1.459067e+03
2.940000e-06	-5.211444e-06	-2.243916e-08	-3.669125e+01	-1.464015e+03
