# Temperatura_=_96.82
# Concentracion g/m^3_=_41000.0
# C_Vs_to_Am_M_A/Vsm_=_65563218390.804596
# pendiente_HvsI_1/m_=_3716.3
# ordenada_HvsI_A/m_=_1297.0
# frecuencia_Hz_=_302003.35980348004

Tiempo_(s)	Campo_(V.s)	Magnetizacion_(V.s)	Campo_(kA/m)	Magnetizacion_(A/m)
0.000000e+00	-6.785679e-06	-2.422274e-08	-4.747160e+01	-1.586675e+03
1.000000e-08	-6.782414e-06	-2.421583e-08	-4.744876e+01	-1.586650e+03
2.000000e-08	-6.776946e-06	-2.420864e-08	-4.741050e+01	-1.586066e+03
3.000000e-08	-6.769343e-06	-2.419709e-08	-4.735731e+01	-1.584945e+03
4.000000e-08	-6.759438e-06	-2.418224e-08	-4.728802e+01	-1.583437e+03
5.000000e-08	-6.746989e-06	-2.416679e-08	-4.720093e+01	-1.581772e+03
6.000000e-08	-6.731991e-06	-2.415136e-08	-4.709601e+01	-1.580188e+03
7.000000e-08	-6.714642e-06	-2.413681e-08	-4.697463e+01	-1.578857e+03
8.000000e-08	-6.695171e-06	-2.411804e-08	-4.683842e+01	-1.577835e+03
9.000000e-08	-6.673359e-06	-2.409168e-08	-4.668583e+01	-1.577046e+03
1.000000e-07	-6.648796e-06	-2.408197e-08	-4.651399e+01	-1.576312e+03
1.100000e-07	-6.621539e-06	-2.405571e-08	-4.632330e+01	-1.575414e+03
1.200000e-07	-6.591975e-06	-2.400979e-08	-4.611648e+01	-1.574160e+03
1.300000e-07	-6.560522e-06	-2.397998e-08	-4.589643e+01	-1.572452e+03
1.400000e-07	-6.527275e-06	-2.395688e-08	-4.566384e+01	-1.570309e+03
1.500000e-07	-6.492008e-06	-2.388558e-08	-4.541712e+01	-1.567864e+03
1.600000e-07	-6.454690e-06	-2.386973e-08	-4.515605e+01	-1.565310e+03
1.700000e-07	-6.415343e-06	-2.386082e-08	-4.488078e+01	-1.562839e+03
1.800000e-07	-6.373622e-06	-2.377320e-08	-4.458891e+01	-1.560569e+03
1.900000e-07	-6.329420e-06	-2.375640e-08	-4.427968e+01	-1.558499e+03
2.000000e-07	-6.282941e-06	-2.371673e-08	-4.395452e+01	-1.556507e+03
2.100000e-07	-6.233974e-06	-2.366358e-08	-4.361195e+01	-1.554379e+03
2.200000e-07	-6.182304e-06	-2.364280e-08	-4.325048e+01	-1.551875e+03
2.300000e-07	-6.128135e-06	-2.358383e-08	-4.287152e+01	-1.548806e+03
2.400000e-07	-6.071660e-06	-2.351718e-08	-4.247643e+01	-1.545097e+03
2.500000e-07	-6.012869e-06	-2.345047e-08	-4.206513e+01	-1.540810e+03
2.600000e-07	-5.951837e-06	-2.339351e-08	-4.163817e+01	-1.536137e+03
2.700000e-07	-5.888685e-06	-2.332978e-08	-4.119636e+01	-1.531337e+03
2.800000e-07	-5.823387e-06	-2.326049e-08	-4.073955e+01	-1.526663e+03
2.900000e-07	-5.755831e-06	-2.321035e-08	-4.026693e+01	-1.522281e+03
3.000000e-07	-5.686101e-06	-2.313519e-08	-3.977912e+01	-1.518216e+03
3.100000e-07	-5.614286e-06	-2.306669e-08	-3.927671e+01	-1.514345e+03
3.200000e-07	-5.540260e-06	-2.299777e-08	-3.875883e+01	-1.510431e+03
3.300000e-07	-5.463983e-06	-2.291796e-08	-3.822521e+01	-1.506193e+03
3.400000e-07	-5.385482e-06	-2.284006e-08	-3.767603e+01	-1.501395e+03
3.500000e-07	-5.304869e-06	-2.275088e-08	-3.711207e+01	-1.495915e+03
3.600000e-07	-5.222371e-06	-2.266768e-08	-3.653493e+01	-1.489791e+03
3.700000e-07	-5.138172e-06	-2.257884e-08	-3.594589e+01	-1.483203e+03
3.800000e-07	-5.052346e-06	-2.248946e-08	-3.534546e+01	-1.476423e+03
3.900000e-07	-4.964883e-06	-2.239428e-08	-3.473358e+01	-1.469725e+03
4.000000e-07	-4.875660e-06	-2.229962e-08	-3.410939e+01	-1.463303e+03
4.100000e-07	-4.784612e-06	-2.220367e-08	-3.347243e+01	-1.457203e+03
4.200000e-07	-4.691899e-06	-2.209729e-08	-3.282383e+01	-1.451306e+03
4.300000e-07	-4.597668e-06	-2.199045e-08	-3.216460e+01	-1.445362e+03
4.400000e-07	-4.501836e-06	-2.188009e-08	-3.149417e+01	-1.439067e+03
4.500000e-07	-4.404250e-06	-2.176503e-08	-3.081148e+01	-1.432152e+03
4.600000e-07	-4.304980e-06	-2.164772e-08	-3.011700e+01	-1.424472e+03
4.700000e-07	-4.204215e-06	-2.152872e-08	-2.941206e+01	-1.416053e+03
4.800000e-07	-4.102052e-06	-2.140871e-08	-2.869734e+01	-1.407082e+03
4.900000e-07	-3.998476e-06	-2.128612e-08	-2.797274e+01	-1.397851e+03
5.000000e-07	-3.893385e-06	-2.115654e-08	-2.723754e+01	-1.388662e+03
5.100000e-07	-3.786756e-06	-2.101983e-08	-2.649158e+01	-1.379727e+03
5.200000e-07	-3.678694e-06	-2.087679e-08	-2.573559e+01	-1.371094e+03
5.300000e-07	-3.569362e-06	-2.072911e-08	-2.497072e+01	-1.362621e+03
5.400000e-07	-3.458850e-06	-2.057556e-08	-2.419760e+01	-1.354016e+03
5.500000e-07	-3.347076e-06	-2.041802e-08	-2.341565e+01	-1.344915e+03
5.600000e-07	-3.233839e-06	-2.025758e-08	-2.262345e+01	-1.335000e+03
5.700000e-07	-3.119151e-06	-2.009351e-08	-2.182112e+01	-1.324099e+03
5.800000e-07	-3.003106e-06	-1.992678e-08	-2.100928e+01	-1.312238e+03
5.900000e-07	-2.885810e-06	-1.975468e-08	-2.018870e+01	-1.299643e+03
6.000000e-07	-2.767484e-06	-1.957548e-08	-1.936091e+01	-1.286668e+03
6.100000e-07	-2.648327e-06	-1.938639e-08	-1.852730e+01	-1.273678e+03
6.200000e-07	-2.528231e-06	-1.918852e-08	-1.768712e+01	-1.260925e+03
6.300000e-07	-2.407021e-06	-1.898410e-08	-1.683916e+01	-1.248454e+03
6.400000e-07	-2.284828e-06	-1.877475e-08	-1.598432e+01	-1.236065e+03
6.500000e-07	-2.161839e-06	-1.855982e-08	-1.512390e+01	-1.223357e+03
6.600000e-07	-2.038128e-06	-1.833590e-08	-1.425844e+01	-1.209836e+03
6.700000e-07	-1.913671e-06	-1.810095e-08	-1.338776e+01	-1.195061e+03
6.800000e-07	-1.788559e-06	-1.785497e-08	-1.251249e+01	-1.178776e+03
6.900000e-07	-1.662884e-06	-1.760033e-08	-1.163329e+01	-1.160996e+03
7.000000e-07	-1.536714e-06	-1.733694e-08	-1.075062e+01	-1.142002e+03
7.100000e-07	-1.410127e-06	-1.706209e-08	-9.865041e+00	-1.122247e+03
7.200000e-07	-1.283133e-06	-1.677387e-08	-8.976610e+00	-1.102203e+03
7.300000e-07	-1.155702e-06	-1.646966e-08	-8.085117e+00	-1.082175e+03
7.400000e-07	-1.027852e-06	-1.614576e-08	-7.190700e+00	-1.062157e+03
7.500000e-07	-8.996594e-07	-1.580398e-08	-6.293883e+00	-1.041771e+03
7.600000e-07	-7.711054e-07	-1.544368e-08	-5.394538e+00	-1.020322e+03
7.700000e-07	-6.421375e-07	-1.506235e-08	-4.492298e+00	-9.969478e+02
7.800000e-07	-5.128781e-07	-1.465656e-08	-3.588019e+00	-9.708439e+02
7.900000e-07	-3.834622e-07	-1.422372e-08	-2.682644e+00	-9.414789e+02
8.000000e-07	-2.539034e-07	-1.375944e-08	-1.776271e+00	-9.087344e+02
8.100000e-07	-1.241996e-07	-1.325568e-08	-8.688817e-01	-8.729091e+02
8.200000e-07	5.582535e-09	-1.270662e-08	3.905459e-02	-8.345622e+02
8.300000e-07	1.354173e-07	-1.210809e-08	9.473589e-01	-7.942174e+02
8.400000e-07	2.652553e-07	-1.145419e-08	1.855687e+00	-7.519959e+02
8.500000e-07	3.950095e-07	-1.073142e-08	2.763428e+00	-7.072768e+02
8.600000e-07	5.246908e-07	-9.924899e-09	3.670659e+00	-6.584922e+02
8.700000e-07	6.542457e-07	-9.020348e-09	4.577005e+00	-6.031437e+02
8.800000e-07	7.835471e-07	-7.996858e-09	5.481579e+00	-5.380790e+02
8.900000e-07	9.124627e-07	-6.820735e-09	6.383453e+00	-4.600062e+02
9.000000e-07	1.040904e-06	-5.448359e-09	7.282008e+00	-3.661602e+02
9.100000e-07	1.168887e-06	-3.832968e-09	8.177356e+00	-2.549879e+02
9.200000e-07	1.296446e-06	-1.932483e-09	9.069740e+00	-1.267021e+02
9.300000e-07	1.423595e-06	2.560797e-10	9.959261e+00	1.643265e+01
9.400000e-07	1.550384e-06	2.640906e-09	1.084625e+01	1.701642e+02
9.500000e-07	1.676738e-06	5.088889e-09	1.173021e+01	3.286824e+02
9.600000e-07	1.802495e-06	7.521225e-09	1.260999e+01	4.853466e+02
9.700000e-07	1.927627e-06	9.830726e-09	1.348539e+01	6.335798e+02
9.800000e-07	2.052093e-06	1.186434e-08	1.435614e+01	7.677612e+02
9.900000e-07	2.175753e-06	1.355108e-08	1.522125e+01	8.839462e+02
1.000000e-06	2.298629e-06	1.491023e-08	1.608086e+01	9.802820e+02
1.010000e-06	2.420714e-06	1.599617e-08	1.693496e+01	1.057053e+03
1.020000e-06	2.541702e-06	1.686836e-08	1.778137e+01	1.116367e+03
1.030000e-06	2.661531e-06	1.757560e-08	1.861968e+01	1.161567e+03
1.040000e-06	2.780438e-06	1.815829e-08	1.945153e+01	1.196513e+03
1.050000e-06	2.898453e-06	1.864735e-08	2.027714e+01	1.224875e+03
1.060000e-06	3.015472e-06	1.906437e-08	2.109579e+01	1.249587e+03
1.070000e-06	3.131325e-06	1.942525e-08	2.190628e+01	1.272551e+03
1.080000e-06	3.245874e-06	1.974159e-08	2.270765e+01	1.294607e+03
1.090000e-06	3.359084e-06	2.002367e-08	2.349965e+01	1.315738e+03
1.100000e-06	3.470944e-06	2.027971e-08	2.428221e+01	1.335432e+03
1.110000e-06	3.581558e-06	2.051449e-08	2.505605e+01	1.353069e+03
1.120000e-06	3.691042e-06	2.073116e-08	2.582198e+01	1.368248e+03
1.130000e-06	3.799374e-06	2.093201e-08	2.657985e+01	1.380970e+03
1.140000e-06	3.906468e-06	2.111926e-08	2.732907e+01	1.391661e+03
1.150000e-06	4.012148e-06	2.129393e-08	2.806839e+01	1.401042e+03
1.160000e-06	4.116248e-06	2.145921e-08	2.879666e+01	1.409919e+03
1.170000e-06	4.218822e-06	2.161524e-08	2.951425e+01	1.418956e+03
1.180000e-06	4.319988e-06	2.176286e-08	3.022200e+01	1.428511e+03
1.190000e-06	4.419723e-06	2.190354e-08	3.091972e+01	1.438568e+03
1.200000e-06	4.517805e-06	2.203526e-08	3.160589e+01	1.448795e+03
1.210000e-06	4.614081e-06	2.215869e-08	3.227942e+01	1.458679e+03
1.220000e-06	4.708649e-06	2.227589e-08	3.294101e+01	1.467710e+03
1.230000e-06	4.801652e-06	2.238897e-08	3.359164e+01	1.475549e+03
1.240000e-06	4.893071e-06	2.249837e-08	3.423119e+01	1.482123e+03
1.250000e-06	4.982716e-06	2.260124e-08	3.485834e+01	1.487645e+03
1.260000e-06	5.070494e-06	2.269645e-08	3.547242e+01	1.492533e+03
1.270000e-06	5.156503e-06	2.278573e-08	3.607413e+01	1.497276e+03
1.280000e-06	5.240805e-06	2.287194e-08	3.666389e+01	1.502291e+03
1.290000e-06	5.323197e-06	2.295776e-08	3.724029e+01	1.507800e+03
1.300000e-06	5.403502e-06	2.304062e-08	3.780210e+01	1.513786e+03
1.310000e-06	5.481831e-06	2.311963e-08	3.835007e+01	1.520012e+03
1.320000e-06	5.558185e-06	2.319515e-08	3.888423e+01	1.526113e+03
1.330000e-06	5.632431e-06	2.326741e-08	3.940365e+01	1.531721e+03
1.340000e-06	5.704518e-06	2.333646e-08	3.990796e+01	1.536584e+03
1.350000e-06	5.774523e-06	2.340326e-08	4.039770e+01	1.540636e+03
1.360000e-06	5.842574e-06	2.346904e-08	4.087378e+01	1.544018e+03
1.370000e-06	5.908478e-06	2.353349e-08	4.133483e+01	1.547018e+03
1.380000e-06	5.972169e-06	2.359424e-08	4.178040e+01	1.549983e+03
1.390000e-06	6.033868e-06	2.365132e-08	4.221204e+01	1.553201e+03
1.400000e-06	6.093577e-06	2.370583e-08	4.262976e+01	1.556816e+03
1.410000e-06	6.151109e-06	2.375720e-08	4.303224e+01	1.560787e+03
1.420000e-06	6.206396e-06	2.380465e-08	4.341902e+01	1.564905e+03
1.430000e-06	6.259369e-06	2.384976e-08	4.378961e+01	1.568866e+03
1.440000e-06	6.309791e-06	2.389423e-08	4.414236e+01	1.572363e+03
1.450000e-06	6.357703e-06	2.393575e-08	4.447755e+01	1.575188e+03
1.460000e-06	6.403424e-06	2.397466e-08	4.479740e+01	1.577293e+03
1.470000e-06	6.446986e-06	2.401097e-08	4.510215e+01	1.578800e+03
1.480000e-06	6.488163e-06	2.404317e-08	4.539022e+01	1.579963e+03
1.490000e-06	6.526997e-06	2.407166e-08	4.566190e+01	1.581081e+03
1.500000e-06	6.563697e-06	2.409707e-08	4.591865e+01	1.582414e+03
1.510000e-06	6.598093e-06	2.412138e-08	4.615927e+01	1.584095e+03
1.520000e-06	6.630060e-06	2.414530e-08	4.638291e+01	1.586100e+03
1.530000e-06	6.659751e-06	2.416786e-08	4.659062e+01	1.588254e+03
1.540000e-06	6.687169e-06	2.418776e-08	4.678244e+01	1.590296e+03
1.550000e-06	6.712096e-06	2.420403e-08	4.695682e+01	1.591959e+03
1.560000e-06	6.734491e-06	2.421792e-08	4.711350e+01	1.593054e+03
1.570000e-06	6.754654e-06	2.423000e-08	4.725456e+01	1.593533e+03
1.580000e-06	6.772479e-06	2.424058e-08	4.737926e+01	1.593498e+03
1.590000e-06	6.787644e-06	2.424941e-08	4.748535e+01	1.593167e+03
1.600000e-06	6.800216e-06	2.425704e-08	4.757330e+01	1.592809e+03
1.610000e-06	6.810206e-06	2.426421e-08	4.764319e+01	1.592658e+03
1.620000e-06	6.817613e-06	2.427041e-08	4.769501e+01	1.592839e+03
1.630000e-06	6.822664e-06	2.427431e-08	4.773034e+01	1.593335e+03
1.640000e-06	6.825350e-06	2.427381e-08	4.774913e+01	1.593992e+03
1.650000e-06	6.825581e-06	2.427032e-08	4.775075e+01	1.594571e+03
1.660000e-06	6.823558e-06	2.426739e-08	4.773660e+01	1.594823e+03
1.670000e-06	6.819395e-06	2.426215e-08	4.770747e+01	1.594567e+03
1.680000e-06	6.812865e-06	2.425438e-08	4.766179e+01	1.593744e+03
1.690000e-06	6.804032e-06	2.424535e-08	4.759999e+01	1.592433e+03
1.700000e-06	6.793060e-06	2.423548e-08	4.752324e+01	1.590829e+03
1.710000e-06	6.779752e-06	2.422302e-08	4.743013e+01	1.589173e+03
1.720000e-06	6.764108e-06	2.420511e-08	4.732069e+01	1.587684e+03
1.730000e-06	6.746395e-06	2.418759e-08	4.719678e+01	1.586489e+03
1.740000e-06	6.726334e-06	2.416668e-08	4.705643e+01	1.585584e+03
1.750000e-06	6.703166e-06	2.412350e-08	4.689435e+01	1.584846e+03
1.760000e-06	6.676893e-06	2.410545e-08	4.671055e+01	1.584070e+03
1.770000e-06	6.648139e-06	2.410004e-08	4.650939e+01	1.583040e+03
1.780000e-06	6.617357e-06	2.406294e-08	4.629404e+01	1.581598e+03
1.790000e-06	6.585025e-06	2.406080e-08	4.606786e+01	1.579696e+03
1.800000e-06	6.551062e-06	2.405963e-08	4.583026e+01	1.577403e+03
1.810000e-06	6.514771e-06	2.400874e-08	4.557637e+01	1.574887e+03
1.820000e-06	6.476057e-06	2.402382e-08	4.530553e+01	1.572350e+03
1.830000e-06	6.435149e-06	2.398968e-08	4.501934e+01	1.569958e+03
1.840000e-06	6.392103e-06	2.393503e-08	4.471820e+01	1.567783e+03
1.850000e-06	6.346911e-06	2.393354e-08	4.440204e+01	1.565770e+03
1.860000e-06	6.299316e-06	2.384588e-08	4.406908e+01	1.563750e+03
1.870000e-06	6.249360e-06	2.380105e-08	4.371960e+01	1.561490e+03
1.880000e-06	6.197036e-06	2.376339e-08	4.335354e+01	1.558763e+03
1.890000e-06	6.142061e-06	2.371178e-08	4.296895e+01	1.555423e+03
1.900000e-06	6.084658e-06	2.368010e-08	4.256736e+01	1.551451e+03
1.910000e-06	6.025032e-06	2.359620e-08	4.215023e+01	1.546972e+03
1.920000e-06	5.963175e-06	2.355434e-08	4.171748e+01	1.542212e+03
1.930000e-06	5.899149e-06	2.348858e-08	4.126957e+01	1.537441e+03
1.940000e-06	5.832977e-06	2.341477e-08	4.080664e+01	1.532880e+03
1.950000e-06	5.764666e-06	2.336980e-08	4.032875e+01	1.528640e+03
1.960000e-06	5.694014e-06	2.327987e-08	3.983447e+01	1.524683e+03
1.970000e-06	5.621123e-06	2.322723e-08	3.932454e+01	1.520829e+03
1.980000e-06	5.546196e-06	2.314227e-08	3.880036e+01	1.516812e+03
1.990000e-06	5.469090e-06	2.306624e-08	3.826094e+01	1.512358e+03
2.000000e-06	5.389840e-06	2.299998e-08	3.770652e+01	1.507275e+03
2.010000e-06	5.308651e-06	2.291285e-08	3.713853e+01	1.501507e+03
2.020000e-06	5.225659e-06	2.283592e-08	3.655793e+01	1.495157e+03
2.030000e-06	5.140793e-06	2.273238e-08	3.596422e+01	1.488452e+03
2.040000e-06	5.053980e-06	2.265053e-08	3.535689e+01	1.481678e+03
2.050000e-06	4.965377e-06	2.255391e-08	3.473703e+01	1.475084e+03
2.060000e-06	4.875179e-06	2.245859e-08	3.410603e+01	1.468805e+03
2.070000e-06	4.783404e-06	2.235826e-08	3.346398e+01	1.462817e+03
2.080000e-06	4.689897e-06	2.225539e-08	3.280982e+01	1.456937e+03
2.090000e-06	4.594613e-06	2.215935e-08	3.214323e+01	1.450882e+03
2.100000e-06	4.497729e-06	2.204651e-08	3.146544e+01	1.444349e+03
2.110000e-06	4.399412e-06	2.193713e-08	3.077763e+01	1.437117e+03
2.120000e-06	4.299704e-06	2.181811e-08	3.008009e+01	1.429108e+03
2.130000e-06	4.198411e-06	2.169971e-08	2.937146e+01	1.420423e+03
2.140000e-06	4.095342e-06	2.157297e-08	2.865040e+01	1.411303e+03
2.150000e-06	3.990702e-06	2.144715e-08	2.791835e+01	1.402058e+03
2.160000e-06	3.884744e-06	2.131826e-08	2.717709e+01	1.392961e+03
2.170000e-06	3.777531e-06	2.118502e-08	2.642705e+01	1.384162e+03
2.180000e-06	3.669014e-06	2.104774e-08	2.566788e+01	1.375627e+03
2.190000e-06	3.559126e-06	2.090344e-08	2.489912e+01	1.367142e+03
2.200000e-06	3.447931e-06	2.075898e-08	2.412121e+01	1.358369e+03
2.210000e-06	3.335330e-06	2.060577e-08	2.333347e+01	1.348954e+03
2.220000e-06	3.221406e-06	2.044631e-08	2.253648e+01	1.338628e+03
2.230000e-06	3.106220e-06	2.027815e-08	2.173065e+01	1.327301e+03
2.240000e-06	2.989667e-06	2.011030e-08	2.091527e+01	1.315090e+03
2.250000e-06	2.871860e-06	1.993588e-08	2.009110e+01	1.302287e+03
2.260000e-06	2.752921e-06	1.975605e-08	1.925902e+01	1.289266e+03
2.270000e-06	2.632905e-06	1.957033e-08	1.841941e+01	1.276358e+03
2.280000e-06	2.511872e-06	1.937663e-08	1.757268e+01	1.263736e+03
2.290000e-06	2.390008e-06	1.917532e-08	1.672014e+01	1.251340e+03
2.300000e-06	2.267440e-06	1.896576e-08	1.586267e+01	1.238873e+03
2.310000e-06	2.144228e-06	1.874854e-08	1.500070e+01	1.225879e+03
2.320000e-06	2.020371e-06	1.852267e-08	1.413421e+01	1.211868e+03
2.330000e-06	1.895781e-06	1.828747e-08	1.326260e+01	1.196464e+03
2.340000e-06	1.770372e-06	1.803963e-08	1.238526e+01	1.179521e+03
2.350000e-06	1.644209e-06	1.778052e-08	1.150264e+01	1.161175e+03
2.360000e-06	1.517510e-06	1.750995e-08	1.061627e+01	1.141795e+03
2.370000e-06	1.390367e-06	1.722817e-08	9.726803e+00	1.121866e+03
2.380000e-06	1.262810e-06	1.693313e-08	8.834427e+00	1.101808e+03
2.390000e-06	1.134829e-06	1.662262e-08	7.939095e+00	1.081808e+03
2.400000e-06	1.006388e-06	1.629414e-08	7.040541e+00	1.061701e+03
2.410000e-06	8.775732e-07	1.594570e-08	6.139371e+00	1.040961e+03
2.420000e-06	7.484968e-07	1.557550e-08	5.236372e+00	1.018795e+03
2.430000e-06	6.192140e-07	1.518289e-08	4.331929e+00	9.943398e+02
2.440000e-06	4.897585e-07	1.476432e-08	3.426277e+00	9.668826e+02
2.450000e-06	3.601384e-07	1.431725e-08	2.519475e+00	9.360592e+02
2.460000e-06	2.303680e-07	1.383693e-08	1.611620e+00	9.019386e+02
2.470000e-06	1.004863e-07	1.331445e-08	7.029875e-01	8.649597e+02
2.480000e-06	-2.943639e-08	1.274564e-08	-2.059326e-01	8.257087e+02
2.490000e-06	-1.593383e-07	1.212519e-08	-1.114707e+00	7.845827e+02
2.500000e-06	-2.892208e-07	1.144394e-08	-2.023346e+00	7.414209e+02
2.510000e-06	-4.190186e-07	1.069110e-08	-2.931392e+00	6.952103e+02
2.520000e-06	-5.486614e-07	9.851550e-09	-3.838353e+00	6.439673e+02
2.530000e-06	-6.781609e-07	8.905969e-09	-4.744313e+00	5.848643e+02
2.540000e-06	-8.074598e-07	7.828583e-09	-5.648869e+00	5.146148e+02
2.550000e-06	-9.364522e-07	6.582476e-09	-6.551280e+00	4.300663e+02
2.560000e-06	-1.065143e-06	5.125061e-09	-7.451579e+00	3.288937e+02
2.570000e-06	-1.193448e-06	3.411048e-09	-8.349187e+00	2.102457e+02
2.580000e-06	-1.321298e-06	1.401086e-09	-9.243602e+00	7.519860e+01
2.590000e-06	-1.448716e-06	-8.898546e-10	-1.013500e+01	-7.310134e+01
2.600000e-06	-1.575662e-06	-3.353080e-09	-1.102310e+01	-2.296621e+02
2.610000e-06	-1.702085e-06	-5.862120e-09	-1.190753e+01	-3.882150e+02
2.620000e-06	-1.827815e-06	-8.315274e-09	-1.278712e+01	-5.420333e+02
2.630000e-06	-1.952627e-06	-1.056911e-08	-1.366029e+01	-6.848470e+02
2.640000e-06	-2.076504e-06	-1.249645e-08	-1.452691e+01	-8.116808e+02
2.650000e-06	-2.199585e-06	-1.407197e-08	-1.538797e+01	-9.194566e+02
2.660000e-06	-2.321919e-06	-1.533566e-08	-1.624380e+01	-1.007254e+03
2.670000e-06	-2.443397e-06	-1.634746e-08	-1.709364e+01	-1.076196e+03
2.680000e-06	-2.563975e-06	-1.716417e-08	-1.793719e+01	-1.129003e+03
2.690000e-06	-2.683635e-06	-1.783085e-08	-1.877431e+01	-1.169331e+03
2.700000e-06	-2.802332e-06	-1.838115e-08	-1.960470e+01	-1.201037e+03
2.710000e-06	-2.919939e-06	-1.884231e-08	-2.042746e+01	-1.227531e+03
2.720000e-06	-3.036218e-06	-1.923832e-08	-2.124093e+01	-1.251324e+03
2.730000e-06	-3.151188e-06	-1.958431e-08	-2.204524e+01	-1.273851e+03
2.740000e-06	-3.264951e-06	-1.989075e-08	-2.284111e+01	-1.295549e+03
2.750000e-06	-3.377394e-06	-2.016481e-08	-2.362775e+01	-1.316141e+03
2.760000e-06	-3.488431e-06	-2.041230e-08	-2.440455e+01	-1.335021e+03
2.770000e-06	-3.598151e-06	-2.063864e-08	-2.517213e+01	-1.351631e+03
2.780000e-06	-3.706682e-06	-2.084844e-08	-2.593139e+01	-1.365729e+03
2.790000e-06	-3.814103e-06	-2.104433e-08	-2.668290e+01	-1.377506e+03
2.800000e-06	-3.920346e-06	-2.122579e-08	-2.742616e+01	-1.387535e+03
2.810000e-06	-4.025241e-06	-2.139472e-08	-2.815999e+01	-1.396604e+03
2.820000e-06	-4.128596e-06	-2.155368e-08	-2.888304e+01	-1.405482e+03
2.830000e-06	-4.230283e-06	-2.170428e-08	-2.959443e+01	-1.414717e+03
2.840000e-06	-4.330395e-06	-2.184894e-08	-3.029480e+01	-1.424508e+03
2.850000e-06	-4.429083e-06	-2.198595e-08	-3.098520e+01	-1.434692e+03
2.860000e-06	-4.526366e-06	-2.211382e-08	-3.166578e+01	-1.444837e+03
2.870000e-06	-4.622107e-06	-2.223571e-08	-3.233557e+01	-1.454410e+03
2.880000e-06	-4.716084e-06	-2.235162e-08	-3.299302e+01	-1.462956e+03
2.890000e-06	-4.808275e-06	-2.246098e-08	-3.363798e+01	-1.470243e+03
2.900000e-06	-4.898852e-06	-2.256536e-08	-3.427164e+01	-1.476325e+03
2.910000e-06	-4.987746e-06	-2.266481e-08	-3.489353e+01	-1.481515e+03
2.920000e-06	-5.074743e-06	-2.275915e-08	-3.550215e+01	-1.486280e+03
2.930000e-06	-5.159772e-06	-2.284906e-08	-3.609700e+01	-1.491096e+03
2.940000e-06	-5.242954e-06	-2.293602e-08	-3.667892e+01	-1.496308e+03
