# Temperatura_=_58.82
# Concentracion g/m^3_=_41000.0
# C_Vs_to_Am_M_A/Vsm_=_65563218390.804596
# pendiente_HvsI_1/m_=_3716.3
# ordenada_HvsI_A/m_=_1297.0
# frecuencia_Hz_=_302000.3417913542

Tiempo_(s)	Campo_(V.s)	Magnetizacion_(V.s)	Campo_(kA/m)	Magnetizacion_(A/m)
0.000000e+00	-6.739552e-06	-2.552204e-08	-4.746808e+01	-1.670417e+03
1.000000e-08	-6.736072e-06	-2.551773e-08	-4.744356e+01	-1.670707e+03
2.000000e-08	-6.730395e-06	-2.551207e-08	-4.740358e+01	-1.670653e+03
3.000000e-08	-6.722639e-06	-2.550460e-08	-4.734895e+01	-1.670134e+03
4.000000e-08	-6.712598e-06	-2.549352e-08	-4.727823e+01	-1.669143e+03
5.000000e-08	-6.700009e-06	-2.547773e-08	-4.718956e+01	-1.667789e+03
6.000000e-08	-6.684882e-06	-2.545666e-08	-4.708303e+01	-1.666262e+03
7.000000e-08	-6.667461e-06	-2.543430e-08	-4.696032e+01	-1.664777e+03
8.000000e-08	-6.647872e-06	-2.543152e-08	-4.682235e+01	-1.663509e+03
9.000000e-08	-6.625849e-06	-2.543599e-08	-4.666724e+01	-1.662540e+03
1.000000e-07	-6.601117e-06	-2.541977e-08	-4.649305e+01	-1.661842e+03
1.100000e-07	-6.573762e-06	-2.539069e-08	-4.630038e+01	-1.661282e+03
1.200000e-07	-6.544122e-06	-2.535613e-08	-4.609162e+01	-1.660671e+03
1.300000e-07	-6.512666e-06	-2.528930e-08	-4.587007e+01	-1.659818e+03
1.400000e-07	-6.479473e-06	-2.524874e-08	-4.563628e+01	-1.658589e+03
1.500000e-07	-6.444211e-06	-2.525599e-08	-4.538793e+01	-1.656940e+03
1.600000e-07	-6.406860e-06	-2.522580e-08	-4.512486e+01	-1.654929e+03
1.700000e-07	-6.367525e-06	-2.522793e-08	-4.484781e+01	-1.652684e+03
1.800000e-07	-6.325858e-06	-2.521427e-08	-4.455434e+01	-1.650360e+03
1.900000e-07	-6.281732e-06	-2.512271e-08	-4.424355e+01	-1.648081e+03
2.000000e-07	-6.235357e-06	-2.506529e-08	-4.391692e+01	-1.645898e+03
2.100000e-07	-6.186518e-06	-2.504382e-08	-4.357294e+01	-1.643772e+03
2.200000e-07	-6.135028e-06	-2.503513e-08	-4.321028e+01	-1.641584e+03
2.300000e-07	-6.081044e-06	-2.501441e-08	-4.283006e+01	-1.639179e+03
2.400000e-07	-6.024739e-06	-2.494708e-08	-4.243349e+01	-1.636416e+03
2.500000e-07	-5.966114e-06	-2.487709e-08	-4.202059e+01	-1.633220e+03
2.600000e-07	-5.905224e-06	-2.481711e-08	-4.159173e+01	-1.629608e+03
2.700000e-07	-5.842270e-06	-2.475319e-08	-4.114833e+01	-1.625688e+03
2.800000e-07	-5.777227e-06	-2.470895e-08	-4.069022e+01	-1.621629e+03
2.900000e-07	-5.709884e-06	-2.467245e-08	-4.021591e+01	-1.617604e+03
3.000000e-07	-5.640295e-06	-2.461116e-08	-3.972578e+01	-1.613736e+03
3.100000e-07	-5.568684e-06	-2.453761e-08	-3.922140e+01	-1.610054e+03
3.200000e-07	-5.495032e-06	-2.448496e-08	-3.870266e+01	-1.606480e+03
3.300000e-07	-5.419159e-06	-2.442355e-08	-3.816827e+01	-1.602849e+03
3.400000e-07	-5.341079e-06	-2.434293e-08	-3.761833e+01	-1.598957e+03
3.500000e-07	-5.260860e-06	-2.427329e-08	-3.705334e+01	-1.594624e+03
3.600000e-07	-5.178696e-06	-2.419961e-08	-3.647464e+01	-1.589750e+03
3.700000e-07	-5.094859e-06	-2.412274e-08	-3.588416e+01	-1.584346e+03
3.800000e-07	-5.009389e-06	-2.405086e-08	-3.528218e+01	-1.578535e+03
3.900000e-07	-4.922257e-06	-2.397013e-08	-3.466848e+01	-1.572511e+03
4.000000e-07	-4.833437e-06	-2.387743e-08	-3.404291e+01	-1.566478e+03
4.100000e-07	-4.742847e-06	-2.378021e-08	-3.340487e+01	-1.560586e+03
4.200000e-07	-4.650546e-06	-2.368876e-08	-3.275477e+01	-1.554877e+03
4.300000e-07	-4.556661e-06	-2.359936e-08	-3.209352e+01	-1.549269e+03
4.400000e-07	-4.461181e-06	-2.350285e-08	-3.142103e+01	-1.543577e+03
4.500000e-07	-4.364088e-06	-2.339472e-08	-3.073718e+01	-1.537565e+03
4.600000e-07	-4.265310e-06	-2.328035e-08	-3.004147e+01	-1.531024e+03
4.700000e-07	-4.165004e-06	-2.316501e-08	-2.933499e+01	-1.523828e+03
4.800000e-07	-4.063365e-06	-2.305214e-08	-2.861913e+01	-1.515983e+03
4.900000e-07	-3.960324e-06	-2.294417e-08	-2.789339e+01	-1.507620e+03
5.000000e-07	-3.855792e-06	-2.283107e-08	-2.715715e+01	-1.498958e+03
5.100000e-07	-3.749752e-06	-2.270466e-08	-2.641029e+01	-1.490227e+03
5.200000e-07	-3.642216e-06	-2.256582e-08	-2.565289e+01	-1.481598e+03
5.300000e-07	-3.533330e-06	-2.242379e-08	-2.488598e+01	-1.473114e+03
5.400000e-07	-3.423319e-06	-2.228064e-08	-2.411115e+01	-1.464671e+03
5.500000e-07	-3.312150e-06	-2.213525e-08	-2.332816e+01	-1.456041e+03
5.600000e-07	-3.199672e-06	-2.198493e-08	-2.253596e+01	-1.446932e+03
5.700000e-07	-3.085865e-06	-2.182485e-08	-2.173440e+01	-1.437081e+03
5.800000e-07	-2.970706e-06	-2.165754e-08	-2.092331e+01	-1.426327e+03
5.900000e-07	-2.854230e-06	-2.148685e-08	-2.010294e+01	-1.414668e+03
6.000000e-07	-2.736683e-06	-2.131199e-08	-1.927503e+01	-1.402257e+03
6.100000e-07	-2.618224e-06	-2.112857e-08	-1.844070e+01	-1.389356e+03
6.200000e-07	-2.498803e-06	-2.093658e-08	-1.759959e+01	-1.376247e+03
6.300000e-07	-2.378352e-06	-2.073469e-08	-1.675123e+01	-1.363131e+03
6.400000e-07	-2.256997e-06	-2.052288e-08	-1.589650e+01	-1.350052e+03
6.500000e-07	-2.134860e-06	-2.030321e-08	-1.503627e+01	-1.336860e+03
6.600000e-07	-2.011879e-06	-2.007596e-08	-1.417009e+01	-1.323240e+03
6.700000e-07	-1.888091e-06	-1.984138e-08	-1.329822e+01	-1.308794e+03
6.800000e-07	-1.763672e-06	-1.959646e-08	-1.242191e+01	-1.293151e+03
6.900000e-07	-1.638737e-06	-1.933915e-08	-1.154197e+01	-1.276079e+03
7.000000e-07	-1.513351e-06	-1.906917e-08	-1.065885e+01	-1.257550e+03
7.100000e-07	-1.387543e-06	-1.878436e-08	-9.772753e+00	-1.237751e+03
7.200000e-07	-1.261257e-06	-1.848451e-08	-8.883298e+00	-1.217009e+03
7.300000e-07	-1.134540e-06	-1.817099e-08	-7.990805e+00	-1.195673e+03
7.400000e-07	-1.007495e-06	-1.784052e-08	-7.095995e+00	-1.173968e+03
7.500000e-07	-8.800794e-07	-1.749107e-08	-6.198583e+00	-1.151874e+03
7.600000e-07	-7.523262e-07	-1.712088e-08	-5.298791e+00	-1.129073e+03
7.700000e-07	-6.243198e-07	-1.672745e-08	-4.397215e+00	-1.104984e+03
7.800000e-07	-4.960907e-07	-1.630888e-08	-3.494071e+00	-1.078879e+03
7.900000e-07	-3.676761e-07	-1.586328e-08	-2.589620e+00	-1.050060e+03
8.000000e-07	-2.391383e-07	-1.538645e-08	-1.684301e+00	-1.018035e+03
8.100000e-07	-1.105236e-07	-1.487059e-08	-7.784406e-01	-9.826347e+02
8.200000e-07	1.821072e-08	-1.431116e-08	1.282619e-01	-9.440204e+02
8.300000e-07	1.469987e-07	-1.370602e-08	1.035342e+00	-9.025611e+02
8.400000e-07	2.757431e-07	-1.304836e-08	1.942117e+00	-8.585948e+02
8.500000e-07	4.044426e-07	-1.232811e-08	2.848574e+00	-8.121250e+02
8.600000e-07	5.330375e-07	-1.153605e-08	3.754295e+00	-7.625360e+02
8.700000e-07	6.614494e-07	-1.066230e-08	4.658726e+00	-7.084145e+02
8.800000e-07	7.896947e-07	-9.689735e-09	5.561985e+00	-6.475540e+02
8.900000e-07	9.176841e-07	-8.591230e-09	6.463441e+00	-5.771787e+02
9.000000e-07	1.045319e-06	-7.335217e-09	7.362400e+00	-4.943733e+02
9.100000e-07	1.172584e-06	-5.885614e-09	8.258751e+00	-3.966528e+02
9.200000e-07	1.299438e-06	-4.199057e-09	9.152216e+00	-2.825612e+02
9.300000e-07	1.425839e-06	-2.234199e-09	1.004248e+01	-1.521729e+02
9.400000e-07	1.551752e-06	-4.787040e-13	1.092931e+01	-7.376712e+00
9.500000e-07	1.677171e-06	2.400264e-09	1.181266e+01	1.481368e+02
9.600000e-07	1.802116e-06	4.849664e-09	1.269268e+01	3.092051e+02
9.700000e-07	1.926499e-06	7.297055e-09	1.356874e+01	4.697955e+02
9.800000e-07	2.050185e-06	9.680740e-09	1.443988e+01	6.237734e+02
9.900000e-07	2.173115e-06	1.185786e-08	1.530570e+01	7.656978e+02
1.000000e-06	2.295120e-06	1.371977e-08	1.616501e+01	8.914933e+02
1.010000e-06	2.416150e-06	1.526293e-08	1.701745e+01	9.988810e+02
1.020000e-06	2.536244e-06	1.652747e-08	1.786330e+01	1.087495e+03
1.030000e-06	2.655323e-06	1.756274e-08	1.870199e+01	1.158686e+03
1.040000e-06	2.773383e-06	1.841784e-08	1.953352e+01	1.215063e+03
1.050000e-06	2.890487e-06	1.913003e-08	2.035831e+01	1.259896e+03
1.060000e-06	3.006584e-06	1.972745e-08	2.117600e+01	1.296493e+03
1.070000e-06	3.121425e-06	2.023452e-08	2.198485e+01	1.327691e+03
1.080000e-06	3.234860e-06	2.067093e-08	2.278380e+01	1.355533e+03
1.090000e-06	3.347015e-06	2.105224e-08	2.357373e+01	1.381172e+03
1.100000e-06	3.458026e-06	2.138767e-08	2.435560e+01	1.404991e+03
1.110000e-06	3.567919e-06	2.168465e-08	2.512960e+01	1.426855e+03
1.120000e-06	3.676739e-06	2.195006e-08	2.589605e+01	1.446436e+03
1.130000e-06	3.784412e-06	2.219063e-08	2.665440e+01	1.463489e+03
1.140000e-06	3.890610e-06	2.241212e-08	2.740238e+01	1.478039e+03
1.150000e-06	3.995245e-06	2.261659e-08	2.813935e+01	1.490432e+03
1.160000e-06	4.098470e-06	2.280650e-08	2.886638e+01	1.501265e+03
1.170000e-06	4.200309e-06	2.298372e-08	2.958365e+01	1.511224e+03
1.180000e-06	4.300780e-06	2.314886e-08	3.029129e+01	1.520912e+03
1.190000e-06	4.399707e-06	2.330331e-08	3.098806e+01	1.530701e+03
1.200000e-06	4.496886e-06	2.344728e-08	3.167251e+01	1.540666e+03
1.210000e-06	4.592335e-06	2.358032e-08	3.234478e+01	1.550607e+03
1.220000e-06	4.686174e-06	2.370437e-08	3.300571e+01	1.560152e+03
1.230000e-06	4.778549e-06	2.382256e-08	3.365632e+01	1.568904e+03
1.240000e-06	4.869259e-06	2.393407e-08	3.429521e+01	1.576575e+03
1.250000e-06	4.958099e-06	2.403645e-08	3.492093e+01	1.583083e+03
1.260000e-06	5.045114e-06	2.413038e-08	3.553379e+01	1.588579e+03
1.270000e-06	5.130381e-06	2.421947e-08	3.613435e+01	1.593393e+03
1.280000e-06	5.213936e-06	2.430621e-08	3.672284e+01	1.597938e+03
1.290000e-06	5.295611e-06	2.439016e-08	3.729810e+01	1.602583e+03
1.300000e-06	5.375317e-06	2.447042e-08	3.785948e+01	1.607556e+03
1.310000e-06	5.453051e-06	2.454533e-08	3.840698e+01	1.612887e+03
1.320000e-06	5.528709e-06	2.461536e-08	3.893986e+01	1.618418e+03
1.330000e-06	5.602172e-06	2.468195e-08	3.945727e+01	1.623867e+03
1.340000e-06	5.673539e-06	2.474570e-08	3.995992e+01	1.628927e+03
1.350000e-06	5.742942e-06	2.480789e-08	4.044874e+01	1.633361e+03
1.360000e-06	5.810305e-06	2.486794e-08	4.092319e+01	1.637080e+03
1.370000e-06	5.875491e-06	2.492537e-08	4.138231e+01	1.640163e+03
1.380000e-06	5.938547e-06	2.497953e-08	4.182643e+01	1.642822e+03
1.390000e-06	5.999666e-06	2.503134e-08	4.225690e+01	1.645336e+03
1.400000e-06	6.058770e-06	2.508000e-08	4.267318e+01	1.647958e+03
1.410000e-06	6.115672e-06	2.512406e-08	4.307395e+01	1.650838e+03
1.420000e-06	6.170367e-06	2.516383e-08	4.345919e+01	1.653984e+03
1.430000e-06	6.222722e-06	2.520118e-08	4.382793e+01	1.657261e+03
1.440000e-06	6.272470e-06	2.523851e-08	4.417832e+01	1.660441e+03
1.450000e-06	6.319776e-06	2.527333e-08	4.451151e+01	1.663283e+03
1.460000e-06	6.364980e-06	2.530544e-08	4.482988e+01	1.665605e+03
1.470000e-06	6.408034e-06	2.533627e-08	4.513313e+01	1.667346e+03
1.480000e-06	6.448720e-06	2.536458e-08	4.541968e+01	1.668581e+03
1.490000e-06	6.487104e-06	2.538989e-08	4.569003e+01	1.669498e+03
1.500000e-06	6.523340e-06	2.541264e-08	4.594525e+01	1.670336e+03
1.510000e-06	6.557242e-06	2.543341e-08	4.618403e+01	1.671312e+03
1.520000e-06	6.588728e-06	2.545286e-08	4.640579e+01	1.672552e+03
1.530000e-06	6.617974e-06	2.547073e-08	4.661177e+01	1.674058e+03
1.540000e-06	6.644949e-06	2.548621e-08	4.680176e+01	1.675706e+03
1.550000e-06	6.669406e-06	2.549969e-08	4.697402e+01	1.677292e+03
1.560000e-06	6.691397e-06	2.551286e-08	4.712891e+01	1.678597e+03
1.570000e-06	6.711194e-06	2.552510e-08	4.726834e+01	1.679453e+03
1.580000e-06	6.728673e-06	2.553584e-08	4.739145e+01	1.679803e+03
1.590000e-06	6.743593e-06	2.554419e-08	4.749654e+01	1.679711e+03
1.600000e-06	6.755898e-06	2.555014e-08	4.758320e+01	1.679347e+03
1.610000e-06	6.765516e-06	2.555508e-08	4.765094e+01	1.678928e+03
1.620000e-06	6.772554e-06	2.555916e-08	4.770051e+01	1.678657e+03
1.630000e-06	6.777297e-06	2.556179e-08	4.773392e+01	1.678654e+03
1.640000e-06	6.779686e-06	2.556258e-08	4.775075e+01	1.678924e+03
1.650000e-06	6.779651e-06	2.556157e-08	4.775050e+01	1.679356e+03
1.660000e-06	6.777417e-06	2.555846e-08	4.773477e+01	1.679755e+03
1.670000e-06	6.773031e-06	2.555370e-08	4.770388e+01	1.679909e+03
1.680000e-06	6.766276e-06	2.554774e-08	4.765630e+01	1.679650e+03
1.690000e-06	6.757285e-06	2.554050e-08	4.759297e+01	1.678907e+03
1.700000e-06	6.746202e-06	2.553207e-08	4.751491e+01	1.677731e+03
1.710000e-06	6.732758e-06	2.552526e-08	4.742022e+01	1.676272e+03
1.720000e-06	6.717003e-06	2.552026e-08	4.730926e+01	1.674742e+03
1.730000e-06	6.699196e-06	2.549098e-08	4.718384e+01	1.673343e+03
1.740000e-06	6.678962e-06	2.545210e-08	4.704133e+01	1.672212e+03
1.750000e-06	6.655604e-06	2.543473e-08	4.687681e+01	1.671382e+03
1.760000e-06	6.629201e-06	2.542001e-08	4.669085e+01	1.670771e+03
1.770000e-06	6.600387e-06	2.541991e-08	4.648791e+01	1.670216e+03
1.780000e-06	6.569569e-06	2.544220e-08	4.627085e+01	1.669516e+03
1.790000e-06	6.537278e-06	2.541804e-08	4.604341e+01	1.668503e+03
1.800000e-06	6.503393e-06	2.540674e-08	4.580476e+01	1.667080e+03
1.810000e-06	6.467093e-06	2.540208e-08	4.554909e+01	1.665253e+03
1.820000e-06	6.428384e-06	2.534509e-08	4.527645e+01	1.663116e+03
1.830000e-06	6.387524e-06	2.533361e-08	4.498867e+01	1.660818e+03
1.840000e-06	6.344528e-06	2.532908e-08	4.468584e+01	1.658506e+03
1.850000e-06	6.299442e-06	2.530214e-08	4.436828e+01	1.656273e+03
1.860000e-06	6.251969e-06	2.527044e-08	4.403393e+01	1.654129e+03
1.870000e-06	6.202157e-06	2.517486e-08	4.368309e+01	1.651995e+03
1.880000e-06	6.149968e-06	2.510813e-08	4.331551e+01	1.649729e+03
1.890000e-06	6.095061e-06	2.509545e-08	4.292879e+01	1.647175e+03
1.900000e-06	6.037820e-06	2.506350e-08	4.252563e+01	1.644217e+03
1.910000e-06	5.978415e-06	2.504679e-08	4.210723e+01	1.640822e+03
1.920000e-06	5.916784e-06	2.499243e-08	4.167315e+01	1.637051e+03
1.930000e-06	5.852948e-06	2.491887e-08	4.122353e+01	1.633047e+03
1.940000e-06	5.786916e-06	2.486317e-08	4.075846e+01	1.628986e+03
1.950000e-06	5.718775e-06	2.480579e-08	4.027853e+01	1.625026e+03
1.960000e-06	5.648358e-06	2.475811e-08	3.978257e+01	1.621250e+03
1.970000e-06	5.575785e-06	2.469412e-08	3.927142e+01	1.617636e+03
1.980000e-06	5.501133e-06	2.463982e-08	3.874563e+01	1.614063e+03
1.990000e-06	5.424343e-06	2.457560e-08	3.820478e+01	1.610338e+03
2.000000e-06	5.345460e-06	2.449770e-08	3.764919e+01	1.606262e+03
2.010000e-06	5.264535e-06	2.443954e-08	3.707922e+01	1.601686e+03
2.020000e-06	5.181824e-06	2.435261e-08	3.649667e+01	1.596560e+03
2.030000e-06	5.097345e-06	2.426738e-08	3.590166e+01	1.590949e+03
2.040000e-06	5.010984e-06	2.419306e-08	3.529341e+01	1.585015e+03
2.050000e-06	4.922760e-06	2.412149e-08	3.467203e+01	1.578966e+03
2.060000e-06	4.832913e-06	2.404542e-08	3.403922e+01	1.572988e+03
2.070000e-06	4.741550e-06	2.394333e-08	3.339573e+01	1.567185e+03
2.080000e-06	4.648524e-06	2.385147e-08	3.274053e+01	1.561543e+03
2.090000e-06	4.553742e-06	2.375810e-08	3.207296e+01	1.555926e+03
2.100000e-06	4.457283e-06	2.366775e-08	3.139358e+01	1.550117e+03
2.110000e-06	4.359389e-06	2.357149e-08	3.070409e+01	1.543884e+03
2.120000e-06	4.260094e-06	2.346811e-08	3.000473e+01	1.537049e+03
2.130000e-06	4.159262e-06	2.335553e-08	2.929455e+01	1.529545e+03
2.140000e-06	4.056748e-06	2.323178e-08	2.857253e+01	1.521439e+03
2.150000e-06	3.952653e-06	2.311482e-08	2.783937e+01	1.512910e+03
2.160000e-06	3.847218e-06	2.299529e-08	2.709676e+01	1.504192e+03
2.170000e-06	3.740561e-06	2.287757e-08	2.634556e+01	1.495497e+03
2.180000e-06	3.632652e-06	2.275125e-08	2.558553e+01	1.486941e+03
2.190000e-06	3.523417e-06	2.261950e-08	2.481616e+01	1.478500e+03
2.200000e-06	3.412854e-06	2.247708e-08	2.403745e+01	1.470006e+03
2.210000e-06	3.300891e-06	2.232656e-08	2.324887e+01	1.461193e+03
2.220000e-06	3.187676e-06	2.217500e-08	2.245147e+01	1.451770e+03
2.230000e-06	3.073208e-06	2.202000e-08	2.164525e+01	1.441513e+03
2.240000e-06	2.957443e-06	2.186172e-08	2.082989e+01	1.430332e+03
2.250000e-06	2.840499e-06	2.169275e-08	2.000623e+01	1.418298e+03
2.260000e-06	2.722397e-06	2.151447e-08	1.917441e+01	1.405626e+03
2.270000e-06	2.603146e-06	2.132754e-08	1.833450e+01	1.392598e+03
2.280000e-06	2.482831e-06	2.113693e-08	1.748710e+01	1.379472e+03
2.290000e-06	2.361710e-06	2.094245e-08	1.663402e+01	1.366382e+03
2.300000e-06	2.239892e-06	2.073953e-08	1.577603e+01	1.353282e+03
2.310000e-06	2.117351e-06	2.052059e-08	1.491295e+01	1.339941e+03
2.320000e-06	1.994147e-06	2.028749e-08	1.404520e+01	1.325990e+03
2.330000e-06	1.870281e-06	2.004476e-08	1.317278e+01	1.311031e+03
2.340000e-06	1.745687e-06	1.979545e-08	1.229524e+01	1.294744e+03
2.350000e-06	1.620479e-06	1.953793e-08	1.141337e+01	1.276988e+03
2.360000e-06	1.494764e-06	1.926597e-08	1.052794e+01	1.257838e+03
2.370000e-06	1.368522e-06	1.897827e-08	9.638786e+00	1.237557e+03
2.380000e-06	1.241788e-06	1.867520e-08	8.746174e+00	1.216503e+03
2.390000e-06	1.114659e-06	1.835523e-08	7.850774e+00	1.194983e+03
2.400000e-06	9.870755e-07	1.801627e-08	6.952179e+00	1.173119e+03
2.410000e-06	8.590408e-07	1.765945e-08	6.050404e+00	1.150758e+03
2.420000e-06	7.307585e-07	1.728068e-08	5.146885e+00	1.127446e+03
2.430000e-06	6.022537e-07	1.687636e-08	4.241799e+00	1.102516e+03
2.440000e-06	4.735320e-07	1.644384e-08	3.335185e+00	1.075231e+03
2.450000e-06	3.446526e-07	1.598346e-08	2.427460e+00	1.044969e+03
2.460000e-06	2.156430e-07	1.548998e-08	1.518818e+00	1.011380e+03
2.470000e-06	8.655579e-08	1.495601e-08	6.096305e-01	9.744525e+02
2.480000e-06	-4.254747e-08	1.438002e-08	-2.996707e-01	9.344690e+02
2.490000e-06	-1.716418e-07	1.375692e-08	-1.208909e+00	8.918191e+02
2.500000e-06	-3.007179e-07	1.307803e-08	-2.118019e+00	8.467241e+02
2.510000e-06	-4.297179e-07	1.233356e-08	-3.026593e+00	7.989312e+02
2.520000e-06	-5.585814e-07	1.151381e-08	-3.934206e+00	7.474667e+02
2.530000e-06	-6.873357e-07	1.060365e-08	-4.841049e+00	6.905355e+02
2.540000e-06	-8.158849e-07	9.584484e-09	-5.746448e+00	6.256256e+02
2.550000e-06	-9.441106e-07	8.431385e-09	-6.649568e+00	5.498322e+02
2.560000e-06	-1.071984e-06	7.110435e-09	-7.550207e+00	4.603644e+02
2.570000e-06	-1.199439e-06	5.580215e-09	-8.447899e+00	3.551432e+02
2.580000e-06	-1.326445e-06	3.793663e-09	-9.342427e+00	2.333718e+02
2.590000e-06	-1.452937e-06	1.721033e-09	-1.023334e+01	9.594826e+01
2.600000e-06	-1.578819e-06	-6.084098e-10	-1.111996e+01	-5.438093e+01
2.610000e-06	-1.704021e-06	-3.086645e-09	-1.200178e+01	-2.131825e+02
2.620000e-06	-1.828537e-06	-5.604670e-09	-1.287877e+01	-3.748019e+02
2.630000e-06	-1.952364e-06	-8.100753e-09	-1.375091e+01	-5.330584e+02
2.640000e-06	-2.075405e-06	-1.046380e-08	-1.461751e+01	-6.820448e+02
2.650000e-06	-2.197566e-06	-1.255158e-08	-1.547791e+01	-8.168828e+02
2.660000e-06	-2.318935e-06	-1.430927e-08	-1.633274e+01	-9.342956e+02
2.670000e-06	-2.439560e-06	-1.575848e-08	-1.718233e+01	-1.032898e+03
2.680000e-06	-2.559347e-06	-1.694635e-08	-1.802602e+01	-1.113163e+03
2.690000e-06	-2.678101e-06	-1.792188e-08	-1.886243e+01	-1.177095e+03
2.700000e-06	-2.795701e-06	-1.872672e-08	-1.969071e+01	-1.227686e+03
2.710000e-06	-2.912152e-06	-1.939747e-08	-2.051090e+01	-1.268300e+03
2.720000e-06	-3.027435e-06	-1.996408e-08	-2.132286e+01	-1.302078e+03
2.730000e-06	-3.141477e-06	-2.044747e-08	-2.212608e+01	-1.331516e+03
2.740000e-06	-3.254154e-06	-2.086417e-08	-2.291969e+01	-1.358241e+03
2.750000e-06	-3.365531e-06	-2.122753e-08	-2.370414e+01	-1.383024e+03
2.760000e-06	-3.475684e-06	-2.154718e-08	-2.447997e+01	-1.405969e+03
2.770000e-06	-3.584608e-06	-2.183105e-08	-2.524715e+01	-1.426812e+03
2.780000e-06	-3.692427e-06	-2.208655e-08	-2.600653e+01	-1.445234e+03
2.790000e-06	-3.799123e-06	-2.232091e-08	-2.675801e+01	-1.461099e+03
2.800000e-06	-3.904585e-06	-2.253894e-08	-2.750081e+01	-1.474584e+03
2.810000e-06	-4.008662e-06	-2.274088e-08	-2.823384e+01	-1.486167e+03
2.820000e-06	-4.111096e-06	-2.292638e-08	-2.895531e+01	-1.496507e+03
2.830000e-06	-4.211895e-06	-2.309666e-08	-2.966526e+01	-1.506274e+03
2.840000e-06	-4.311272e-06	-2.325427e-08	-3.036519e+01	-1.515978e+03
2.850000e-06	-4.409260e-06	-2.339986e-08	-3.105534e+01	-1.525855e+03
2.860000e-06	-4.505754e-06	-2.353448e-08	-3.173497e+01	-1.535845e+03
2.870000e-06	-4.600575e-06	-2.366196e-08	-3.240281e+01	-1.545651e+03
2.880000e-06	-4.693639e-06	-2.378389e-08	-3.305828e+01	-1.554872e+03
2.890000e-06	-4.785115e-06	-2.389822e-08	-3.370256e+01	-1.563144e+03
2.900000e-06	-4.874957e-06	-2.400409e-08	-3.433534e+01	-1.570268e+03
2.910000e-06	-4.963013e-06	-2.410294e-08	-3.495554e+01	-1.576272e+03
2.920000e-06	-5.049169e-06	-2.419586e-08	-3.556235e+01	-1.581401e+03
2.930000e-06	-5.133415e-06	-2.428393e-08	-3.615571e+01	-1.586036e+03
2.940000e-06	-5.215857e-06	-2.436722e-08	-3.673637e+01	-1.590586e+03
