# Temperatura_=_64.84
# Concentracion g/m^3_=_41000.0
# C_Vs_to_Am_M_A/Vsm_=_65563218390.804596
# pendiente_HvsI_1/m_=_3716.3
# ordenada_HvsI_A/m_=_1297.0
# frecuencia_Hz_=_302002.9775518341

Tiempo_(s)	Campo_(V.s)	Magnetizacion_(V.s)	Campo_(kA/m)	Magnetizacion_(A/m)
0.000000e+00	-6.704690e-06	-2.181431e-08	-4.747004e+01	-1.429275e+03
1.000000e-08	-6.701399e-06	-2.181394e-08	-4.744674e+01	-1.429480e+03
2.000000e-08	-6.695959e-06	-2.180562e-08	-4.740823e+01	-1.429185e+03
3.000000e-08	-6.688497e-06	-2.179714e-08	-4.735539e+01	-1.428369e+03
4.000000e-08	-6.678721e-06	-2.178749e-08	-4.728618e+01	-1.427143e+03
5.000000e-08	-6.666410e-06	-2.177320e-08	-4.719901e+01	-1.425716e+03
6.000000e-08	-6.651673e-06	-2.175396e-08	-4.709467e+01	-1.424328e+03
7.000000e-08	-6.634629e-06	-2.172550e-08	-4.697400e+01	-1.423179e+03
8.000000e-08	-6.615368e-06	-2.173458e-08	-4.683763e+01	-1.422367e+03
9.000000e-08	-6.593747e-06	-2.178944e-08	-4.668455e+01	-1.421861e+03
1.000000e-07	-6.569424e-06	-2.175723e-08	-4.651234e+01	-1.421515e+03
1.100000e-07	-6.542425e-06	-2.169405e-08	-4.632118e+01	-1.421113e+03
1.200000e-07	-6.513135e-06	-2.167750e-08	-4.611381e+01	-1.420441e+03
1.300000e-07	-6.482025e-06	-2.160624e-08	-4.589354e+01	-1.419352e+03
1.400000e-07	-6.449246e-06	-2.152512e-08	-4.566146e+01	-1.417812e+03
1.500000e-07	-6.414475e-06	-2.164015e-08	-4.541528e+01	-1.415905e+03
1.600000e-07	-6.377588e-06	-2.160811e-08	-4.515412e+01	-1.413807e+03
1.700000e-07	-6.338694e-06	-2.150419e-08	-4.487874e+01	-1.411721e+03
1.800000e-07	-6.297480e-06	-2.159188e-08	-4.458694e+01	-1.409813e+03
1.900000e-07	-6.253813e-06	-2.147680e-08	-4.427778e+01	-1.408152e+03
2.000000e-07	-6.207902e-06	-2.144187e-08	-4.395272e+01	-1.406690e+03
2.100000e-07	-6.159562e-06	-2.146366e-08	-4.361047e+01	-1.405268e+03
2.200000e-07	-6.108542e-06	-2.134363e-08	-4.324924e+01	-1.403669e+03
2.300000e-07	-6.055069e-06	-2.133945e-08	-4.287064e+01	-1.401686e+03
2.400000e-07	-5.999320e-06	-2.132236e-08	-4.247593e+01	-1.399187e+03
2.500000e-07	-5.941234e-06	-2.126632e-08	-4.206467e+01	-1.396156e+03
2.600000e-07	-5.880868e-06	-2.124148e-08	-4.163727e+01	-1.392705e+03
2.700000e-07	-5.818421e-06	-2.118123e-08	-4.119514e+01	-1.389035e+03
2.800000e-07	-5.753924e-06	-2.111187e-08	-4.073850e+01	-1.385375e+03
2.900000e-07	-5.687198e-06	-2.105670e-08	-4.026607e+01	-1.381911e+03
3.000000e-07	-5.618311e-06	-2.105503e-08	-3.977834e+01	-1.378723e+03
3.100000e-07	-5.547375e-06	-2.099976e-08	-3.927611e+01	-1.375761e+03
3.200000e-07	-5.474377e-06	-2.092155e-08	-3.875927e+01	-1.372855e+03
3.300000e-07	-5.399210e-06	-2.086110e-08	-3.822708e+01	-1.369768e+03
3.400000e-07	-5.321825e-06	-2.077786e-08	-3.767918e+01	-1.366273e+03
3.500000e-07	-5.242277e-06	-2.073754e-08	-3.711597e+01	-1.362218e+03
3.600000e-07	-5.160696e-06	-2.067533e-08	-3.653837e+01	-1.357582e+03
3.700000e-07	-5.077370e-06	-2.060852e-08	-3.594841e+01	-1.352479e+03
3.800000e-07	-4.992404e-06	-2.054057e-08	-3.534684e+01	-1.347124e+03
3.900000e-07	-4.905830e-06	-2.044942e-08	-3.473388e+01	-1.341768e+03
4.000000e-07	-4.817671e-06	-2.036780e-08	-3.410971e+01	-1.336613e+03
4.100000e-07	-4.727796e-06	-2.030409e-08	-3.347338e+01	-1.331750e+03
4.200000e-07	-4.636188e-06	-2.024062e-08	-3.282479e+01	-1.327122e+03
4.300000e-07	-4.542981e-06	-2.015025e-08	-3.216487e+01	-1.322539e+03
4.400000e-07	-4.448212e-06	-2.006224e-08	-3.149389e+01	-1.317733e+03
4.500000e-07	-4.351830e-06	-1.997383e-08	-3.081150e+01	-1.312442e+03
4.600000e-07	-4.253782e-06	-1.987642e-08	-3.011730e+01	-1.306489e+03
4.700000e-07	-4.154156e-06	-1.978653e-08	-2.941194e+01	-1.299841e+03
4.800000e-07	-4.053156e-06	-1.969296e-08	-2.869685e+01	-1.292623e+03
4.900000e-07	-3.950800e-06	-1.958961e-08	-2.797215e+01	-1.285075e+03
5.000000e-07	-3.846961e-06	-1.947780e-08	-2.723696e+01	-1.277483e+03
5.100000e-07	-3.741694e-06	-1.936698e-08	-2.649166e+01	-1.270080e+03
5.200000e-07	-3.634970e-06	-1.925202e-08	-2.573604e+01	-1.262968e+03
5.300000e-07	-3.526821e-06	-1.913328e-08	-2.497033e+01	-1.256075e+03
5.400000e-07	-3.417492e-06	-1.901464e-08	-2.419627e+01	-1.249172e+03
5.500000e-07	-3.306982e-06	-1.889347e-08	-2.341384e+01	-1.241929e+03
5.600000e-07	-3.195191e-06	-1.876565e-08	-2.262235e+01	-1.234021e+03
5.700000e-07	-3.082166e-06	-1.862703e-08	-2.182212e+01	-1.225218e+03
5.800000e-07	-2.967835e-06	-1.848303e-08	-2.101264e+01	-1.215469e+03
5.900000e-07	-2.852145e-06	-1.833234e-08	-2.019354e+01	-1.204911e+03
6.000000e-07	-2.735309e-06	-1.817607e-08	-1.936633e+01	-1.193832e+03
6.100000e-07	-2.617481e-06	-1.801684e-08	-1.853209e+01	-1.182578e+03
6.200000e-07	-2.498729e-06	-1.785640e-08	-1.769131e+01	-1.171436e+03
6.300000e-07	-2.379025e-06	-1.768777e-08	-1.684380e+01	-1.160528e+03
6.400000e-07	-2.258422e-06	-1.750696e-08	-1.598991e+01	-1.149761e+03
6.500000e-07	-2.137101e-06	-1.731639e-08	-1.513094e+01	-1.138828e+03
6.600000e-07	-2.015022e-06	-1.711657e-08	-1.426661e+01	-1.127293e+03
6.700000e-07	-1.892048e-06	-1.691116e-08	-1.339594e+01	-1.114709e+03
6.800000e-07	-1.768244e-06	-1.669906e-08	-1.251939e+01	-1.100758e+03
6.900000e-07	-1.643825e-06	-1.647678e-08	-1.163848e+01	-1.085343e+03
7.000000e-07	-1.518948e-06	-1.624201e-08	-1.075434e+01	-1.068626e+03
7.100000e-07	-1.393712e-06	-1.599533e-08	-9.867654e+00	-1.050972e+03
7.200000e-07	-1.268083e-06	-1.573652e-08	-8.978186e+00	-1.032826e+03
7.300000e-07	-1.142050e-06	-1.546289e-08	-8.085857e+00	-1.014551e+03
7.400000e-07	-1.015687e-06	-1.517522e-08	-7.191193e+00	-9.962710e+02
7.500000e-07	-8.889649e-07	-1.487156e-08	-6.293982e+00	-9.777826e+02
7.600000e-07	-7.619016e-07	-1.454771e-08	-5.394358e+00	-9.585557e+02
7.700000e-07	-6.345851e-07	-1.420289e-08	-4.492941e+00	-9.378396e+02
7.800000e-07	-5.070736e-07	-1.383726e-08	-3.590144e+00	-9.148461e+02
7.900000e-07	-3.793396e-07	-1.344704e-08	-2.685771e+00	-8.889576e+02
8.000000e-07	-2.514102e-07	-1.302655e-08	-1.780016e+00	-8.598925e+02
8.100000e-07	-1.233269e-07	-1.257096e-08	-8.731700e-01	-8.277679e+02
8.200000e-07	4.873274e-09	-1.207632e-08	3.450338e-02	-7.930198e+02
8.300000e-07	1.330821e-07	-1.153948e-08	9.422381e-01	-7.561855e+02
8.400000e-07	2.612648e-07	-1.095411e-08	1.849788e+00	-7.175888e+02
8.500000e-07	3.893783e-07	-1.031130e-08	2.756847e+00	-6.770115e+02
8.600000e-07	5.173743e-07	-9.600463e-09	3.663074e+00	-6.334456e+02
8.700000e-07	6.451868e-07	-8.804838e-09	4.568003e+00	-5.850150e+02
8.800000e-07	7.727895e-07	-7.908059e-09	5.471445e+00	-5.291230e+02
8.900000e-07	9.001700e-07	-6.886714e-09	6.373316e+00	-4.628282e+02
9.000000e-07	1.027205e-06	-5.708474e-09	7.272740e+00	-3.833950e+02
9.100000e-07	1.153849e-06	-4.337072e-09	8.169393e+00	-2.889147e+02
9.200000e-07	1.280114e-06	-2.734295e-09	9.063368e+00	-1.788640e+02
9.300000e-07	1.405934e-06	-8.776406e-10	9.954190e+00	-5.447233e+01
9.400000e-07	1.531277e-06	1.214806e-09	1.084163e+01	8.120051e+01
9.500000e-07	1.656178e-06	3.465301e-09	1.172595e+01	2.235149e+02
9.600000e-07	1.780662e-06	5.744742e-09	1.260731e+01	3.667990e+02
9.700000e-07	1.904568e-06	7.909938e-09	1.348458e+01	5.050983e+02
9.800000e-07	2.027623e-06	9.847927e-09	1.435582e+01	6.329853e+02
9.900000e-07	2.149717e-06	1.150246e-08	1.522026e+01	7.462761e+02
1.000000e-06	2.270952e-06	1.287246e-08	1.607862e+01	8.425173e+02
1.010000e-06	2.391395e-06	1.399032e-08	1.693137e+01	9.211612e+02
1.020000e-06	2.510952e-06	1.489953e-08	1.777786e+01	9.834101e+02
1.030000e-06	2.629552e-06	1.564175e-08	1.861756e+01	1.031784e+03
1.040000e-06	2.747189e-06	1.625354e-08	1.945044e+01	1.069517e+03
1.050000e-06	2.863841e-06	1.676576e-08	2.027635e+01	1.099917e+03
1.060000e-06	2.979324e-06	1.719947e-08	2.109398e+01	1.125821e+03
1.070000e-06	3.093466e-06	1.757382e-08	2.190212e+01	1.149247e+03
1.080000e-06	3.206351e-06	1.790159e-08	2.270136e+01	1.171276e+03
1.090000e-06	3.318134e-06	1.818934e-08	2.349280e+01	1.192162e+03
1.100000e-06	3.428783e-06	1.844613e-08	2.427621e+01	1.211613e+03
1.110000e-06	3.538275e-06	1.867792e-08	2.505143e+01	1.229121e+03
1.120000e-06	3.646660e-06	1.888941e-08	2.581880e+01	1.244283e+03
1.130000e-06	3.753801e-06	1.908403e-08	2.657738e+01	1.257010e+03
1.140000e-06	3.859534e-06	1.926153e-08	2.732598e+01	1.267587e+03
1.150000e-06	3.963798e-06	1.942433e-08	2.806418e+01	1.276606e+03
1.160000e-06	4.066577e-06	1.957598e-08	2.879187e+01	1.284797e+03
1.170000e-06	4.167947e-06	1.971822e-08	2.950958e+01	1.292824e+03
1.180000e-06	4.267981e-06	1.985182e-08	3.021783e+01	1.301115e+03
1.190000e-06	4.366464e-06	1.997657e-08	3.091511e+01	1.309781e+03
1.200000e-06	4.463215e-06	2.009223e-08	3.160011e+01	1.318621e+03
1.210000e-06	4.558329e-06	2.019904e-08	3.227354e+01	1.327232e+03
1.220000e-06	4.651916e-06	2.029924e-08	3.293615e+01	1.335164e+03
1.230000e-06	4.744002e-06	2.039378e-08	3.358812e+01	1.342073e+03
1.240000e-06	4.834390e-06	2.048291e-08	3.422808e+01	1.347836e+03
1.250000e-06	4.922893e-06	2.056543e-08	3.485469e+01	1.352585e+03
1.260000e-06	5.009581e-06	2.064479e-08	3.546846e+01	1.356663e+03
1.270000e-06	5.094589e-06	2.072307e-08	3.607033e+01	1.360508e+03
1.280000e-06	5.177864e-06	2.079850e-08	3.665992e+01	1.364530e+03
1.290000e-06	5.259178e-06	2.087111e-08	3.723564e+01	1.368983e+03
1.300000e-06	5.338537e-06	2.093939e-08	3.779751e+01	1.373906e+03
1.310000e-06	5.416020e-06	2.100385e-08	3.834610e+01	1.379123e+03
1.320000e-06	5.491448e-06	2.106488e-08	3.888014e+01	1.384313e+03
1.330000e-06	5.564669e-06	2.112156e-08	3.939855e+01	1.389114e+03
1.340000e-06	5.635809e-06	2.117528e-08	3.990223e+01	1.393246e+03
1.350000e-06	5.705038e-06	2.122582e-08	4.039238e+01	1.396587e+03
1.360000e-06	5.772236e-06	2.127375e-08	4.086815e+01	1.399213e+03
1.370000e-06	5.837270e-06	2.131889e-08	4.132859e+01	1.401361e+03
1.380000e-06	5.900229e-06	2.136238e-08	4.177435e+01	1.403353e+03
1.390000e-06	5.961295e-06	2.140661e-08	4.220671e+01	1.405495e+03
1.400000e-06	6.020378e-06	2.144898e-08	4.262502e+01	1.407982e+03
1.410000e-06	6.077254e-06	2.148745e-08	4.302772e+01	1.410845e+03
1.420000e-06	6.131950e-06	2.152195e-08	4.341497e+01	1.413948e+03
1.430000e-06	6.184363e-06	2.155356e-08	4.378606e+01	1.417036e+03
1.440000e-06	6.234186e-06	2.158268e-08	4.413881e+01	1.419823e+03
1.450000e-06	6.281526e-06	2.160924e-08	4.447398e+01	1.422083e+03
1.460000e-06	6.326751e-06	2.163513e-08	4.479418e+01	1.423718e+03
1.470000e-06	6.369861e-06	2.166051e-08	4.509941e+01	1.424792e+03
1.480000e-06	6.410577e-06	2.168340e-08	4.538768e+01	1.425500e+03
1.490000e-06	6.448966e-06	2.170456e-08	4.565948e+01	1.426113e+03
1.500000e-06	6.485245e-06	2.172652e-08	4.591634e+01	1.426887e+03
1.510000e-06	6.519265e-06	2.174782e-08	4.615721e+01	1.427984e+03
1.520000e-06	6.550895e-06	2.176572e-08	4.638115e+01	1.429428e+03
1.530000e-06	6.580247e-06	2.178179e-08	4.658897e+01	1.431097e+03
1.540000e-06	6.607331e-06	2.179588e-08	4.678072e+01	1.432768e+03
1.550000e-06	6.631907e-06	2.180569e-08	4.695473e+01	1.434187e+03
1.560000e-06	6.654031e-06	2.181265e-08	4.711137e+01	1.435151e+03
1.570000e-06	6.673959e-06	2.182000e-08	4.725246e+01	1.435573e+03
1.580000e-06	6.691573e-06	2.183011e-08	4.737717e+01	1.435509e+03
1.590000e-06	6.706686e-06	2.184109e-08	4.748417e+01	1.435134e+03
1.600000e-06	6.719228e-06	2.185116e-08	4.757297e+01	1.434696e+03
1.610000e-06	6.729099e-06	2.185930e-08	4.764286e+01	1.434430e+03
1.620000e-06	6.736437e-06	2.186330e-08	4.769482e+01	1.434487e+03
1.630000e-06	6.741466e-06	2.186451e-08	4.773042e+01	1.434891e+03
1.640000e-06	6.744119e-06	2.186429e-08	4.774920e+01	1.435529e+03
1.650000e-06	6.744338e-06	2.186462e-08	4.775075e+01	1.436187e+03
1.660000e-06	6.742305e-06	2.185741e-08	4.773636e+01	1.436619e+03
1.670000e-06	6.738148e-06	2.185187e-08	4.770693e+01	1.436624e+03
1.680000e-06	6.731724e-06	2.185212e-08	4.766144e+01	1.436102e+03
1.690000e-06	6.723048e-06	2.184842e-08	4.760002e+01	1.435093e+03
1.700000e-06	6.712241e-06	2.184247e-08	4.752350e+01	1.433754e+03
1.710000e-06	6.699077e-06	2.183965e-08	4.743030e+01	1.432317e+03
1.720000e-06	6.683540e-06	2.185186e-08	4.732029e+01	1.431014e+03
1.730000e-06	6.665974e-06	2.181003e-08	4.719592e+01	1.430007e+03
1.740000e-06	6.646181e-06	2.170278e-08	4.705579e+01	1.429340e+03
1.750000e-06	6.623376e-06	2.170914e-08	4.689433e+01	1.428928e+03
1.760000e-06	6.597439e-06	2.173395e-08	4.671069e+01	1.428588e+03
1.770000e-06	6.568995e-06	2.171816e-08	4.650930e+01	1.428097e+03
1.780000e-06	6.538462e-06	2.181363e-08	4.629312e+01	1.427261e+03
1.790000e-06	6.506399e-06	2.176861e-08	4.606611e+01	1.425978e+03
1.800000e-06	6.472844e-06	2.162048e-08	4.582854e+01	1.424267e+03
1.810000e-06	6.436989e-06	2.171571e-08	4.557468e+01	1.422256e+03
1.820000e-06	6.398772e-06	2.162795e-08	4.530410e+01	1.420141e+03
1.830000e-06	6.358401e-06	2.160522e-08	4.501827e+01	1.418117e+03
1.840000e-06	6.315781e-06	2.171046e-08	4.471651e+01	1.416316e+03
1.850000e-06	6.271069e-06	2.151227e-08	4.439995e+01	1.414756e+03
1.860000e-06	6.224083e-06	2.156071e-08	4.406728e+01	1.413337e+03
1.870000e-06	6.174746e-06	2.157035e-08	4.371797e+01	1.411870e+03
1.880000e-06	6.123137e-06	2.146750e-08	4.335257e+01	1.410131e+03
1.890000e-06	6.068873e-06	2.150638e-08	4.296837e+01	1.407939e+03
1.900000e-06	6.012140e-06	2.135748e-08	4.256670e+01	1.405208e+03
1.910000e-06	5.953267e-06	2.135891e-08	4.214987e+01	1.401980e+03
1.920000e-06	5.892243e-06	2.138004e-08	4.171782e+01	1.398410e+03
1.930000e-06	5.829085e-06	2.130652e-08	4.127064e+01	1.394719e+03
1.940000e-06	5.763744e-06	2.126626e-08	4.080803e+01	1.391128e+03
1.950000e-06	5.696270e-06	2.113737e-08	4.033030e+01	1.387782e+03
1.960000e-06	5.626529e-06	2.116150e-08	3.983653e+01	1.384707e+03
1.970000e-06	5.554562e-06	2.108034e-08	3.932699e+01	1.381798e+03
1.980000e-06	5.480551e-06	2.102003e-08	3.880299e+01	1.378847e+03
1.990000e-06	5.404466e-06	2.101249e-08	3.826429e+01	1.375613e+03
2.000000e-06	5.326259e-06	2.090397e-08	3.771057e+01	1.371891e+03
2.010000e-06	5.245968e-06	2.085767e-08	3.714211e+01	1.367584e+03
2.020000e-06	5.163847e-06	2.075116e-08	3.656068e+01	1.362729e+03
2.030000e-06	5.079995e-06	2.072067e-08	3.596700e+01	1.357490e+03
2.040000e-06	4.994319e-06	2.067363e-08	3.536040e+01	1.352107e+03
2.050000e-06	4.906761e-06	2.058086e-08	3.474048e+01	1.346820e+03
2.060000e-06	4.817473e-06	2.050559e-08	3.410831e+01	1.341790e+03
2.070000e-06	4.726699e-06	2.041871e-08	3.346562e+01	1.337046e+03
2.080000e-06	4.634331e-06	2.035494e-08	3.281164e+01	1.332469e+03
2.090000e-06	4.540301e-06	2.024836e-08	3.214590e+01	1.327827e+03
2.100000e-06	4.444618e-06	2.016777e-08	3.146845e+01	1.322845e+03
2.110000e-06	4.347419e-06	2.007959e-08	3.078027e+01	1.317287e+03
2.120000e-06	4.248831e-06	1.999262e-08	3.008225e+01	1.311033e+03
2.130000e-06	4.148734e-06	1.989900e-08	2.937355e+01	1.304119e+03
2.140000e-06	4.047027e-06	1.979408e-08	2.865346e+01	1.296728e+03
2.150000e-06	3.943665e-06	1.969506e-08	2.792164e+01	1.289130e+03
2.160000e-06	3.838851e-06	1.959173e-08	2.717954e+01	1.281599e+03
2.170000e-06	3.732775e-06	1.949531e-08	2.642851e+01	1.274320e+03
2.180000e-06	3.625459e-06	1.937711e-08	2.566870e+01	1.267323e+03
2.190000e-06	3.516899e-06	1.925796e-08	2.490008e+01	1.260464e+03
2.200000e-06	3.407036e-06	1.912842e-08	2.412224e+01	1.253461e+03
2.210000e-06	3.295723e-06	1.900618e-08	2.333413e+01	1.245971e+03
2.220000e-06	3.183155e-06	1.887714e-08	2.253714e+01	1.237701e+03
2.230000e-06	3.069480e-06	1.874291e-08	2.173230e+01	1.228490e+03
2.240000e-06	2.954582e-06	1.860482e-08	2.091881e+01	1.218369e+03
2.250000e-06	2.838497e-06	1.845639e-08	2.009691e+01	1.207549e+03
2.260000e-06	2.721276e-06	1.829890e-08	1.926697e+01	1.196356e+03
2.270000e-06	2.602928e-06	1.813794e-08	1.842906e+01	1.185125e+03
2.280000e-06	2.483357e-06	1.797953e-08	1.758248e+01	1.174082e+03
2.290000e-06	2.362820e-06	1.780730e-08	1.672906e+01	1.163262e+03
2.300000e-06	2.241642e-06	1.762429e-08	1.587111e+01	1.152474e+03
2.310000e-06	2.119805e-06	1.743216e-08	1.500848e+01	1.141342e+03
2.320000e-06	1.997317e-06	1.723925e-08	1.414125e+01	1.129410e+03
2.330000e-06	1.874148e-06	1.703472e-08	1.326920e+01	1.116271e+03
2.340000e-06	1.750207e-06	1.681684e-08	1.239168e+01	1.101691e+03
2.350000e-06	1.625628e-06	1.658806e-08	1.150965e+01	1.085687e+03
2.360000e-06	1.500621e-06	1.635068e-08	1.062458e+01	1.068518e+03
2.370000e-06	1.375240e-06	1.610425e-08	9.736868e+00	1.050602e+03
2.380000e-06	1.249477e-06	1.584253e-08	8.846456e+00	1.032369e+03
2.390000e-06	1.123262e-06	1.556352e-08	7.952837e+00	1.014097e+03
2.400000e-06	9.965238e-07	1.526477e-08	7.055513e+00	9.957754e+02
2.410000e-06	8.692731e-07	1.495152e-08	6.154562e+00	9.770542e+02
2.420000e-06	7.416249e-07	1.462336e-08	5.250796e+00	9.572903e+02
2.430000e-06	6.136904e-07	1.427547e-08	4.345004e+00	9.356917e+02
2.440000e-06	4.855362e-07	1.390129e-08	3.437656e+00	9.115188e+02
2.450000e-06	3.572601e-07	1.349544e-08	2.529446e+00	8.842824e+02
2.460000e-06	2.288553e-07	1.305772e-08	1.620324e+00	8.538721e+02
2.470000e-06	1.003285e-07	1.259104e-08	7.103386e-01	8.205598e+02
2.480000e-06	-2.826104e-08	1.208994e-08	-2.000917e-01	7.848589e+02
2.490000e-06	-1.568239e-07	1.153700e-08	-1.110333e+00	7.472565e+02
2.500000e-06	-2.853398e-07	1.092395e-08	-2.020241e+00	7.078820e+02
2.510000e-06	-4.137912e-07	1.024841e-08	-2.929693e+00	6.662008e+02
2.520000e-06	-5.421641e-07	9.501952e-09	-3.838589e+00	6.208302e+02
2.530000e-06	-6.704048e-07	8.670090e-09	-4.746549e+00	5.695532e+02
2.540000e-06	-7.984233e-07	7.730271e-09	-5.652936e+00	5.095674e+02
2.550000e-06	-9.261862e-07	6.655574e-09	-6.557513e+00	4.379452e+02
2.560000e-06	-1.053473e-06	5.411138e-09	-7.458719e+00	3.522299e+02
2.570000e-06	-1.180177e-06	3.958055e-09	-8.355798e+00	2.510463e+02
2.580000e-06	-1.306355e-06	2.263921e-09	-9.249154e+00	1.345927e+02
2.590000e-06	-1.432040e-06	3.153588e-10	-1.013902e+01	4.892529e+00
2.600000e-06	-1.557268e-06	-1.852454e-09	-1.102565e+01	-1.342680e+02
2.610000e-06	-1.681991e-06	-4.141884e-09	-1.190870e+01	-2.777252e+02
2.620000e-06	-1.806069e-06	-6.412311e-09	-1.278719e+01	-4.195872e+02
2.630000e-06	-1.929343e-06	-8.522607e-09	-1.365999e+01	-5.540282e+02
2.640000e-06	-2.051810e-06	-1.037580e-08	-1.452707e+01	-6.760766e+02
2.650000e-06	-2.173491e-06	-1.193880e-08	-1.538858e+01	-7.822476e+02
2.660000e-06	-2.294438e-06	-1.322509e-08	-1.624491e+01	-8.709027e+02
2.670000e-06	-2.414651e-06	-1.427178e-08	-1.709603e+01	-9.422813e+02
2.680000e-06	-2.533913e-06	-1.512427e-08	-1.794042e+01	-9.982164e+02
2.690000e-06	-2.652043e-06	-1.582446e-08	-1.877679e+01	-1.041613e+03
2.700000e-06	-2.769032e-06	-1.640754e-08	-1.960509e+01	-1.075812e+03
2.710000e-06	-2.884905e-06	-1.689739e-08	-2.042548e+01	-1.103978e+03
2.720000e-06	-2.999631e-06	-1.731212e-08	-2.123776e+01	-1.128626e+03
2.730000e-06	-3.113154e-06	-1.766870e-08	-2.204152e+01	-1.151371e+03
2.740000e-06	-3.225423e-06	-1.798013e-08	-2.283639e+01	-1.172916e+03
2.750000e-06	-3.336451e-06	-1.825569e-08	-2.362249e+01	-1.193241e+03
2.760000e-06	-3.446204e-06	-1.850280e-08	-2.439956e+01	-1.211919e+03
2.770000e-06	-3.554752e-06	-1.872748e-08	-2.516809e+01	-1.228454e+03
2.780000e-06	-3.662177e-06	-1.893408e-08	-2.592867e+01	-1.242559e+03
2.790000e-06	-3.768406e-06	-1.912248e-08	-2.668078e+01	-1.254306e+03
2.800000e-06	-3.873352e-06	-1.929352e-08	-2.742382e+01	-1.264128e+03
2.810000e-06	-3.976893e-06	-1.945104e-08	-2.815690e+01	-1.272700e+03
2.820000e-06	-4.078915e-06	-1.959854e-08	-2.887922e+01	-1.280747e+03
2.830000e-06	-4.179418e-06	-1.973718e-08	-2.959080e+01	-1.288850e+03
2.840000e-06	-4.278469e-06	-1.986690e-08	-3.029209e+01	-1.297306e+03
2.850000e-06	-4.376086e-06	-1.998770e-08	-3.098323e+01	-1.306083e+03
2.860000e-06	-4.472289e-06	-2.010058e-08	-3.166436e+01	-1.314879e+03
2.870000e-06	-4.566920e-06	-2.020557e-08	-3.233436e+01	-1.323249e+03
2.880000e-06	-4.659827e-06	-2.030399e-08	-3.299215e+01	-1.330771e+03
2.890000e-06	-4.751086e-06	-2.039790e-08	-3.363828e+01	-1.337186e+03
2.900000e-06	-4.840642e-06	-2.048581e-08	-3.427235e+01	-1.342482e+03
2.910000e-06	-4.928425e-06	-2.056889e-08	-3.489386e+01	-1.346891e+03
2.920000e-06	-5.014314e-06	-2.064917e-08	-3.550197e+01	-1.350811e+03
2.930000e-06	-5.098344e-06	-2.072593e-08	-3.609691e+01	-1.354687e+03
2.940000e-06	-5.180602e-06	-2.079884e-08	-3.667930e+01	-1.358871e+03
