# Temperatura_=_55.82
# Concentracion g/m^3_=_41000.0
# C_Vs_to_Am_M_A/Vsm_=_65563218390.804596
# pendiente_HvsI_1/m_=_3716.3
# ordenada_HvsI_A/m_=_1297.0
# frecuencia_Hz_=_302003.70855870296

Tiempo_(s)	Campo_(V.s)	Magnetizacion_(V.s)	Campo_(kA/m)	Magnetizacion_(A/m)
0.000000e+00	-6.732927e-06	-2.604898e-08	-4.746792e+01	-1.705381e+03
1.000000e-08	-6.729517e-06	-2.604508e-08	-4.744387e+01	-1.705656e+03
2.000000e-08	-6.723946e-06	-2.603427e-08	-4.740459e+01	-1.705615e+03
3.000000e-08	-6.716301e-06	-2.602300e-08	-4.735070e+01	-1.705132e+03
4.000000e-08	-6.706372e-06	-2.601091e-08	-4.728070e+01	-1.704185e+03
5.000000e-08	-6.693883e-06	-2.599600e-08	-4.719265e+01	-1.702863e+03
6.000000e-08	-6.678893e-06	-2.597334e-08	-4.708697e+01	-1.701342e+03
7.000000e-08	-6.661645e-06	-2.594540e-08	-4.696537e+01	-1.699829e+03
8.000000e-08	-6.642217e-06	-2.596599e-08	-4.682840e+01	-1.698501e+03
9.000000e-08	-6.620405e-06	-2.600369e-08	-4.667462e+01	-1.697451e+03
1.000000e-07	-6.595866e-06	-2.595449e-08	-4.650161e+01	-1.696661e+03
1.100000e-07	-6.568614e-06	-2.589815e-08	-4.630948e+01	-1.696009e+03
1.200000e-07	-6.539155e-06	-2.587747e-08	-4.610180e+01	-1.695309e+03
1.300000e-07	-6.507869e-06	-2.578887e-08	-4.588122e+01	-1.694364e+03
1.400000e-07	-6.474759e-06	-2.572648e-08	-4.564780e+01	-1.693031e+03
1.500000e-07	-6.439642e-06	-2.584778e-08	-4.540022e+01	-1.691256e+03
1.600000e-07	-6.402434e-06	-2.577224e-08	-4.513790e+01	-1.689092e+03
1.700000e-07	-6.363268e-06	-2.570201e-08	-4.486177e+01	-1.686673e+03
1.800000e-07	-6.321820e-06	-2.576500e-08	-4.456956e+01	-1.684169e+03
1.900000e-07	-6.277823e-06	-2.562175e-08	-4.425938e+01	-1.681731e+03
2.000000e-07	-6.231560e-06	-2.562012e-08	-4.393322e+01	-1.679438e+03
2.100000e-07	-6.182863e-06	-2.560962e-08	-4.358990e+01	-1.677274e+03
2.200000e-07	-6.131516e-06	-2.549889e-08	-4.322789e+01	-1.675131e+03
2.300000e-07	-6.077711e-06	-2.550863e-08	-4.284856e+01	-1.672844e+03
2.400000e-07	-6.021544e-06	-2.547093e-08	-4.245258e+01	-1.670247e+03
2.500000e-07	-5.963050e-06	-2.539705e-08	-4.204019e+01	-1.667225e+03
2.600000e-07	-5.902347e-06	-2.535586e-08	-4.161223e+01	-1.663750e+03
2.700000e-07	-5.839605e-06	-2.529726e-08	-4.116989e+01	-1.659896e+03
2.800000e-07	-5.774782e-06	-2.521985e-08	-4.071288e+01	-1.655813e+03
2.900000e-07	-5.707688e-06	-2.517359e-08	-4.023986e+01	-1.651679e+03
3.000000e-07	-5.638351e-06	-2.517001e-08	-3.975103e+01	-1.647641e+03
3.100000e-07	-5.566884e-06	-2.508722e-08	-3.924717e+01	-1.643770e+03
3.200000e-07	-5.493363e-06	-2.500465e-08	-3.872884e+01	-1.640033e+03
3.300000e-07	-5.417703e-06	-2.492668e-08	-3.819543e+01	-1.636302e+03
3.400000e-07	-5.339845e-06	-2.483778e-08	-3.764653e+01	-1.632391e+03
3.500000e-07	-5.259828e-06	-2.479500e-08	-3.708240e+01	-1.628116e+03
3.600000e-07	-5.177822e-06	-2.472472e-08	-3.650424e+01	-1.623351e+03
3.700000e-07	-5.094079e-06	-2.464946e-08	-3.591385e+01	-1.618068e+03
3.800000e-07	-5.008681e-06	-2.456578e-08	-3.531178e+01	-1.612349e+03
3.900000e-07	-4.921664e-06	-2.446745e-08	-3.469830e+01	-1.606357e+03
4.000000e-07	-4.832965e-06	-2.437417e-08	-3.407296e+01	-1.600284e+03
4.100000e-07	-4.742565e-06	-2.430312e-08	-3.343563e+01	-1.594292e+03
4.200000e-07	-4.650538e-06	-2.422482e-08	-3.278683e+01	-1.588452e+03
4.300000e-07	-4.556885e-06	-2.411932e-08	-3.212657e+01	-1.582721e+03
4.400000e-07	-4.461564e-06	-2.401797e-08	-3.145454e+01	-1.576948e+03
4.500000e-07	-4.364557e-06	-2.391090e-08	-3.077063e+01	-1.570920e+03
4.600000e-07	-4.265917e-06	-2.379956e-08	-3.007521e+01	-1.564424e+03
4.700000e-07	-4.165763e-06	-2.369630e-08	-2.936911e+01	-1.557315e+03
4.800000e-07	-4.064212e-06	-2.359094e-08	-2.865316e+01	-1.549562e+03
4.900000e-07	-3.961282e-06	-2.347108e-08	-2.792750e+01	-1.541254e+03
5.000000e-07	-3.856894e-06	-2.334149e-08	-2.719155e+01	-1.532579e+03
5.100000e-07	-3.751038e-06	-2.321025e-08	-2.644525e+01	-1.523756e+03
5.200000e-07	-3.643744e-06	-2.307521e-08	-2.568881e+01	-1.514965e+03
5.300000e-07	-3.535105e-06	-2.293805e-08	-2.492290e+01	-1.506283e+03
5.400000e-07	-3.425319e-06	-2.279901e-08	-2.414890e+01	-1.497648e+03
5.500000e-07	-3.314333e-06	-2.265577e-08	-2.336643e+01	-1.488871e+03
5.600000e-07	-3.201958e-06	-2.250114e-08	-2.257417e+01	-1.479688e+03
5.700000e-07	-3.088183e-06	-2.233457e-08	-2.177205e+01	-1.469833e+03
5.800000e-07	-2.973074e-06	-2.216389e-08	-2.096052e+01	-1.459124e+03
5.900000e-07	-2.856708e-06	-2.199073e-08	-2.014012e+01	-1.447512e+03
6.000000e-07	-2.739264e-06	-2.181183e-08	-1.931213e+01	-1.435105e+03
6.100000e-07	-2.620824e-06	-2.162835e-08	-1.847712e+01	-1.422123e+03
6.200000e-07	-2.501446e-06	-2.143850e-08	-1.763548e+01	-1.408829e+03
6.300000e-07	-2.381164e-06	-2.123620e-08	-1.678748e+01	-1.395436e+03
6.400000e-07	-2.259965e-06	-2.102170e-08	-1.593301e+01	-1.382021e+03
6.500000e-07	-2.137933e-06	-2.079894e-08	-1.507267e+01	-1.368487e+03
6.600000e-07	-2.015161e-06	-2.056753e-08	-1.420712e+01	-1.354568e+03
6.700000e-07	-1.891616e-06	-2.032812e-08	-1.333611e+01	-1.339901e+03
6.800000e-07	-1.767267e-06	-2.007845e-08	-1.245944e+01	-1.324119e+03
6.900000e-07	-1.642328e-06	-1.981532e-08	-1.157860e+01	-1.306965e+03
7.000000e-07	-1.516983e-06	-1.954117e-08	-1.069491e+01	-1.288362e+03
7.100000e-07	-1.391225e-06	-1.925317e-08	-9.808297e+00	-1.268434e+03
7.200000e-07	-1.265039e-06	-1.895071e-08	-8.918673e+00	-1.247460e+03
7.300000e-07	-1.138426e-06	-1.863255e-08	-8.026035e+00	-1.225767e+03
7.400000e-07	-1.011431e-06	-1.829720e-08	-7.130707e+00	-1.203592e+03
7.500000e-07	-8.841221e-07	-1.794230e-08	-6.233163e+00	-1.180966e+03
7.600000e-07	-7.565271e-07	-1.756284e-08	-5.333603e+00	-1.157642e+03
7.700000e-07	-6.286376e-07	-1.715980e-08	-4.431967e+00	-1.133114e+03
7.800000e-07	-5.005350e-07	-1.673621e-08	-3.528830e+00	-1.106707e+03
7.900000e-07	-3.723469e-07	-1.628843e-08	-2.625089e+00	-1.077738e+03
8.000000e-07	-2.439928e-07	-1.580791e-08	-1.720178e+00	-1.045682e+03
8.100000e-07	-1.154450e-07	-1.528799e-08	-8.139007e-01	-1.010300e+03
8.200000e-07	1.317591e-08	-1.472490e-08	9.289168e-02	-9.716656e+02
8.300000e-07	1.418254e-07	-1.411526e-08	9.998857e-01	-9.300727e+02
8.400000e-07	2.704783e-07	-1.345405e-08	1.906903e+00	-8.858266e+02
8.500000e-07	3.990403e-07	-1.273405e-08	2.813281e+00	-8.389606e+02
8.600000e-07	5.274714e-07	-1.194445e-08	3.718734e+00	-7.889544e+02
8.700000e-07	6.557819e-07	-1.107083e-08	4.623338e+00	-7.345387e+02
8.800000e-07	7.838586e-07	-1.009884e-08	5.526294e+00	-6.736634e+02
8.900000e-07	9.115971e-07	-9.004851e-09	6.426865e+00	-6.036746e+02
9.000000e-07	1.038992e-06	-7.757482e-09	7.325010e+00	-5.216974e+02
9.100000e-07	1.166068e-06	-6.319494e-09	8.220912e+00	-4.251709e+02
9.200000e-07	1.292802e-06	-4.646141e-09	9.114400e+00	-3.124363e+02
9.300000e-07	1.419108e-06	-2.693032e-09	1.000487e+01	-1.832557e+02
9.400000e-07	1.544943e-06	-4.649268e-10	1.089203e+01	-3.914162e+01
9.500000e-07	1.670305e-06	1.936021e-09	1.177584e+01	1.165898e+02
9.600000e-07	1.795171e-06	4.390517e-09	1.265617e+01	2.790768e+02
9.700000e-07	1.919430e-06	6.851991e-09	1.353220e+01	4.424508e+02
9.800000e-07	2.042959e-06	9.287058e-09	1.440310e+01	6.005651e+02
9.900000e-07	2.165749e-06	1.156786e-08	1.526878e+01	7.477826e+02
1.000000e-06	2.287705e-06	1.355158e-08	1.612858e+01	8.796768e+02
1.010000e-06	2.408626e-06	1.520463e-08	1.698109e+01	9.935196e+02
1.020000e-06	2.528483e-06	1.656305e-08	1.782610e+01	1.088473e+03
1.030000e-06	2.647383e-06	1.767627e-08	1.866435e+01	1.165469e+03
1.040000e-06	2.765410e-06	1.859375e-08	1.949646e+01	1.226815e+03
1.050000e-06	2.882505e-06	1.935610e-08	2.032199e+01	1.275632e+03
1.060000e-06	2.998527e-06	1.999544e-08	2.113996e+01	1.315237e+03
1.070000e-06	3.113333e-06	2.053833e-08	2.194936e+01	1.348606e+03
1.080000e-06	3.226779e-06	2.100357e-08	2.274917e+01	1.378003e+03
1.090000e-06	3.338836e-06	2.140638e-08	2.353918e+01	1.404829e+03
1.100000e-06	3.449732e-06	2.176252e-08	2.432101e+01	1.429680e+03
1.110000e-06	3.559612e-06	2.207899e-08	2.509567e+01	1.452569e+03
1.120000e-06	3.668343e-06	2.236299e-08	2.586224e+01	1.473227e+03
1.130000e-06	3.775843e-06	2.262212e-08	2.662013e+01	1.491393e+03
1.140000e-06	3.882075e-06	2.285921e-08	2.736908e+01	1.507023e+03
1.150000e-06	3.986812e-06	2.307581e-08	2.810748e+01	1.520376e+03
1.160000e-06	4.090025e-06	2.327270e-08	2.883515e+01	1.531974e+03
1.170000e-06	4.191856e-06	2.345442e-08	2.955307e+01	1.542476e+03
1.180000e-06	4.292286e-06	2.362446e-08	3.026111e+01	1.552499e+03
1.190000e-06	4.391202e-06	2.378344e-08	3.095848e+01	1.562476e+03
1.200000e-06	4.488357e-06	2.393212e-08	3.164344e+01	1.572562e+03
1.210000e-06	4.583764e-06	2.407102e-08	3.231606e+01	1.582640e+03
1.220000e-06	4.677579e-06	2.420208e-08	3.297747e+01	1.592397e+03
1.230000e-06	4.769826e-06	2.432506e-08	3.362782e+01	1.601455e+03
1.240000e-06	4.860530e-06	2.443836e-08	3.426730e+01	1.609509e+03
1.250000e-06	4.949430e-06	2.454391e-08	3.489405e+01	1.616433e+03
1.260000e-06	5.036427e-06	2.464445e-08	3.550739e+01	1.622318e+03
1.270000e-06	5.121704e-06	2.474202e-08	3.610861e+01	1.627443e+03
1.280000e-06	5.205248e-06	2.483366e-08	3.669760e+01	1.632189e+03
1.290000e-06	5.286831e-06	2.491832e-08	3.727277e+01	1.636927e+03
1.300000e-06	5.366332e-06	2.499502e-08	3.783326e+01	1.641911e+03
1.310000e-06	5.443954e-06	2.506602e-08	3.838050e+01	1.647216e+03
1.320000e-06	5.519620e-06	2.513576e-08	3.891396e+01	1.652732e+03
1.330000e-06	5.593012e-06	2.520536e-08	3.943138e+01	1.658211e+03
1.340000e-06	5.664235e-06	2.527396e-08	3.993351e+01	1.663360e+03
1.350000e-06	5.733483e-06	2.533913e-08	4.042172e+01	1.667934e+03
1.360000e-06	5.800781e-06	2.540132e-08	4.089618e+01	1.671813e+03
1.370000e-06	5.866000e-06	2.545890e-08	4.135597e+01	1.675039e+03
1.380000e-06	5.929120e-06	2.551154e-08	4.180098e+01	1.677793e+03
1.390000e-06	5.990322e-06	2.556184e-08	4.223246e+01	1.680336e+03
1.400000e-06	6.049536e-06	2.560964e-08	4.264993e+01	1.682923e+03
1.410000e-06	6.106569e-06	2.565293e-08	4.305201e+01	1.685729e+03
1.420000e-06	6.161393e-06	2.569260e-08	4.343853e+01	1.688792e+03
1.430000e-06	6.213898e-06	2.573238e-08	4.380870e+01	1.692014e+03
1.440000e-06	6.263753e-06	2.577394e-08	4.416018e+01	1.695191e+03
1.450000e-06	6.311138e-06	2.581361e-08	4.449425e+01	1.698087e+03
1.460000e-06	6.356371e-06	2.584717e-08	4.481315e+01	1.700506e+03
1.470000e-06	6.399456e-06	2.587538e-08	4.511690e+01	1.702359e+03
1.480000e-06	6.440180e-06	2.590031e-08	4.540401e+01	1.703687e+03
1.490000e-06	6.478609e-06	2.592332e-08	4.567494e+01	1.704648e+03
1.500000e-06	6.514958e-06	2.594647e-08	4.593120e+01	1.705466e+03
1.510000e-06	6.548956e-06	2.596877e-08	4.617089e+01	1.706361e+03
1.520000e-06	6.580494e-06	2.598936e-08	4.639324e+01	1.707481e+03
1.530000e-06	6.609791e-06	2.600891e-08	4.659979e+01	1.708861e+03
1.540000e-06	6.636903e-06	2.602587e-08	4.679093e+01	1.710414e+03
1.550000e-06	6.661532e-06	2.604099e-08	4.696457e+01	1.711963e+03
1.560000e-06	6.683630e-06	2.605500e-08	4.712036e+01	1.713299e+03
1.570000e-06	6.703479e-06	2.606575e-08	4.726030e+01	1.714250e+03
1.580000e-06	6.720972e-06	2.607402e-08	4.738363e+01	1.714735e+03
1.590000e-06	6.735957e-06	2.608224e-08	4.748927e+01	1.714788e+03
1.600000e-06	6.748440e-06	2.609166e-08	4.757728e+01	1.714545e+03
1.610000e-06	6.758251e-06	2.610037e-08	4.764645e+01	1.714205e+03
1.620000e-06	6.765464e-06	2.610582e-08	4.769730e+01	1.713960e+03
1.630000e-06	6.770378e-06	2.610968e-08	4.773195e+01	1.713939e+03
1.640000e-06	6.772951e-06	2.611210e-08	4.775008e+01	1.714165e+03
1.650000e-06	6.773045e-06	2.611288e-08	4.775075e+01	1.714550e+03
1.660000e-06	6.770851e-06	2.610436e-08	4.773528e+01	1.714919e+03
1.670000e-06	6.766592e-06	2.609912e-08	4.770525e+01	1.715071e+03
1.680000e-06	6.760023e-06	2.609724e-08	4.765895e+01	1.714837e+03
1.690000e-06	6.751131e-06	2.608962e-08	4.759625e+01	1.714137e+03
1.700000e-06	6.740151e-06	2.608218e-08	4.751884e+01	1.713000e+03
1.710000e-06	6.726814e-06	2.608049e-08	4.742482e+01	1.711563e+03
1.720000e-06	6.711123e-06	2.608952e-08	4.731419e+01	1.710022e+03
1.730000e-06	6.693435e-06	2.603115e-08	4.718949e+01	1.708580e+03
1.740000e-06	6.673442e-06	2.594179e-08	4.704853e+01	1.707378e+03
1.750000e-06	6.650370e-06	2.595937e-08	4.688588e+01	1.706460e+03
1.760000e-06	6.624191e-06	2.596850e-08	4.670131e+01	1.705757e+03
1.770000e-06	6.595538e-06	2.595934e-08	4.649931e+01	1.705110e+03
1.780000e-06	6.564835e-06	2.605841e-08	4.628285e+01	1.704320e+03
1.790000e-06	6.532635e-06	2.597884e-08	4.605583e+01	1.703210e+03
1.800000e-06	6.498865e-06	2.586136e-08	4.581775e+01	1.701675e+03
1.810000e-06	6.462683e-06	2.595565e-08	4.556266e+01	1.699709e+03
1.820000e-06	6.424120e-06	2.583819e-08	4.529079e+01	1.697409e+03
1.830000e-06	6.383431e-06	2.585237e-08	4.500392e+01	1.694931e+03
1.840000e-06	6.340584e-06	2.590456e-08	4.470185e+01	1.692445e+03
1.850000e-06	6.295610e-06	2.572173e-08	4.438477e+01	1.690072e+03
1.860000e-06	6.248293e-06	2.578791e-08	4.405119e+01	1.687849e+03
1.870000e-06	6.198669e-06	2.573563e-08	4.370133e+01	1.685715e+03
1.880000e-06	6.146722e-06	2.564980e-08	4.333510e+01	1.683529e+03
1.890000e-06	6.092122e-06	2.565580e-08	4.295017e+01	1.681120e+03
1.900000e-06	6.035106e-06	2.552174e-08	4.254819e+01	1.678337e+03
1.910000e-06	5.975893e-06	2.554784e-08	4.213073e+01	1.675103e+03
1.920000e-06	5.914446e-06	2.553019e-08	4.169753e+01	1.671441e+03
1.930000e-06	5.850831e-06	2.546058e-08	4.124903e+01	1.667461e+03
1.940000e-06	5.784997e-06	2.537757e-08	4.078489e+01	1.663335e+03
1.950000e-06	5.717005e-06	2.527157e-08	4.030554e+01	1.659232e+03
1.960000e-06	5.646781e-06	2.529589e-08	3.981046e+01	1.655272e+03
1.970000e-06	5.574346e-06	2.520097e-08	3.929978e+01	1.651476e+03
1.980000e-06	5.499853e-06	2.515858e-08	3.877460e+01	1.647764e+03
1.990000e-06	5.423220e-06	2.511165e-08	3.823433e+01	1.643976e+03
2.000000e-06	5.344431e-06	2.500114e-08	3.767885e+01	1.639919e+03
2.010000e-06	5.263637e-06	2.493108e-08	3.710925e+01	1.635429e+03
2.020000e-06	5.181082e-06	2.482713e-08	3.652722e+01	1.630423e+03
2.030000e-06	5.096769e-06	2.480124e-08	3.593281e+01	1.624924e+03
2.040000e-06	5.010574e-06	2.473916e-08	3.532512e+01	1.619056e+03
2.050000e-06	4.922552e-06	2.464448e-08	3.470456e+01	1.613005e+03
2.060000e-06	4.832899e-06	2.454551e-08	3.407250e+01	1.606957e+03
2.070000e-06	4.741745e-06	2.445315e-08	3.342985e+01	1.601036e+03
2.080000e-06	4.648920e-06	2.436798e-08	3.277543e+01	1.595261e+03
2.090000e-06	4.554320e-06	2.425656e-08	3.210848e+01	1.589536e+03
2.100000e-06	4.458064e-06	2.416657e-08	3.142987e+01	1.583675e+03
2.110000e-06	4.360327e-06	2.406464e-08	3.074081e+01	1.577456e+03
2.120000e-06	4.261191e-06	2.396334e-08	3.004189e+01	1.570690e+03
2.130000e-06	4.160568e-06	2.384944e-08	2.933248e+01	1.563280e+03
2.140000e-06	4.058303e-06	2.373350e-08	2.861151e+01	1.555253e+03
2.150000e-06	3.954444e-06	2.361874e-08	2.787929e+01	1.546750e+03
2.160000e-06	3.849205e-06	2.350620e-08	2.713734e+01	1.537982e+03
2.170000e-06	3.742702e-06	2.338766e-08	2.638648e+01	1.529159e+03
2.180000e-06	3.634955e-06	2.324895e-08	2.562685e+01	1.520419e+03
2.190000e-06	3.525849e-06	2.310690e-08	2.485764e+01	1.511777e+03
2.200000e-06	3.415419e-06	2.296086e-08	2.407910e+01	1.503109e+03
2.210000e-06	3.303623e-06	2.282186e-08	2.329092e+01	1.494180e+03
2.220000e-06	3.190464e-06	2.267419e-08	2.249314e+01	1.484717e+03
2.230000e-06	3.076069e-06	2.252180e-08	2.168664e+01	1.474483e+03
2.240000e-06	2.960509e-06	2.236103e-08	2.087193e+01	1.463353e+03
2.250000e-06	2.843797e-06	2.218670e-08	2.004910e+01	1.451353e+03
2.260000e-06	2.725832e-06	2.200049e-08	1.921743e+01	1.438649e+03
2.270000e-06	2.606760e-06	2.181516e-08	1.837796e+01	1.425492e+03
2.280000e-06	2.486666e-06	2.163014e-08	1.753128e+01	1.412135e+03
2.290000e-06	2.365632e-06	2.143029e-08	1.667798e+01	1.398734e+03
2.300000e-06	2.243899e-06	2.121651e-08	1.581974e+01	1.385289e+03
2.310000e-06	2.121482e-06	2.099176e-08	1.495669e+01	1.371620e+03
2.320000e-06	1.998387e-06	2.076168e-08	1.408886e+01	1.357404e+03
2.330000e-06	1.874631e-06	2.052038e-08	1.321636e+01	1.342263e+03
2.340000e-06	1.750223e-06	2.026883e-08	1.233928e+01	1.325869e+03
2.350000e-06	1.625145e-06	2.000768e-08	1.145746e+01	1.308041e+03
2.360000e-06	1.499418e-06	1.973443e-08	1.057107e+01	1.288798e+03
2.370000e-06	1.373167e-06	1.944405e-08	9.680989e+00	1.268346e+03
2.380000e-06	1.246493e-06	1.913467e-08	8.787921e+00	1.247002e+03
2.390000e-06	1.119444e-06	1.880695e-08	7.892212e+00	1.225068e+03
2.400000e-06	9.919821e-07	1.845955e-08	6.993588e+00	1.202698e+03
2.410000e-06	8.641609e-07	1.809799e-08	6.092434e+00	1.179798e+03
2.420000e-06	7.360391e-07	1.772060e-08	5.189160e+00	1.155994e+03
2.430000e-06	6.076471e-07	1.731959e-08	4.283982e+00	1.130684e+03
2.440000e-06	4.790671e-07	1.688630e-08	3.377478e+00	1.103169e+03
2.450000e-06	3.503395e-07	1.641677e-08	2.469934e+00	1.072819e+03
2.460000e-06	2.214177e-07	1.591346e-08	1.561020e+00	1.039231e+03
2.470000e-06	9.239069e-08	1.537773e-08	6.513651e-01	1.002315e+03
2.480000e-06	-3.663185e-08	1.480394e-08	-2.582588e-01	9.622658e+02
2.490000e-06	-1.656363e-07	1.417905e-08	-1.167755e+00	9.194149e+02
2.500000e-06	-2.946260e-07	1.349484e-08	-2.077147e+00	8.739781e+02
2.510000e-06	-4.235849e-07	1.274586e-08	-2.986322e+00	8.257636e+02
2.520000e-06	-5.524401e-07	1.192285e-08	-3.894766e+00	7.739191e+02
2.530000e-06	-6.811453e-07	1.101447e-08	-4.802153e+00	7.168047e+02
2.540000e-06	-8.096058e-07	1.000008e-08	-5.707814e+00	6.520549e+02
2.550000e-06	-9.377018e-07	8.853660e-09	-6.610906e+00	5.768543e+02
2.560000e-06	-1.065410e-06	7.542293e-09	-7.511265e+00	4.884016e+02
2.570000e-06	-1.192741e-06	6.024456e-09	-8.408960e+00	3.844826e+02
2.580000e-06	-1.319634e-06	4.255117e-09	-9.303570e+00	2.640427e+02
2.590000e-06	-1.446032e-06	2.194125e-09	-1.019469e+01	1.276310e+02
2.600000e-06	-1.571887e-06	-1.338726e-10	-1.108198e+01	-2.239032e+01
2.610000e-06	-1.697100e-06	-2.615061e-09	-1.196475e+01	-1.819371e+02
2.620000e-06	-1.821578e-06	-5.140247e-09	-1.284233e+01	-3.455988e+02
2.630000e-06	-1.945252e-06	-7.662636e-09	-1.371425e+01	-5.072801e+02
2.640000e-06	-2.068138e-06	-1.010385e-08	-1.458061e+01	-6.609749e+02
2.650000e-06	-2.190270e-06	-1.231337e-08	-1.544165e+01	-8.015314e+02
2.660000e-06	-2.311640e-06	-1.419397e-08	-1.629733e+01	-9.252678e+02
2.670000e-06	-2.432215e-06	-1.574841e-08	-1.714740e+01	-1.030329e+03
2.680000e-06	-2.551895e-06	-1.702012e-08	-1.799115e+01	-1.116732e+03
2.690000e-06	-2.670675e-06	-1.806454e-08	-1.882856e+01	-1.186109e+03
2.700000e-06	-2.788384e-06	-1.892974e-08	-1.965843e+01	-1.241221e+03
2.710000e-06	-2.904745e-06	-1.965336e-08	-2.047879e+01	-1.285356e+03
2.720000e-06	-3.019847e-06	-2.026236e-08	-2.129027e+01	-1.321730e+03
2.730000e-06	-3.133862e-06	-2.077635e-08	-2.209409e+01	-1.353023e+03
2.740000e-06	-3.246667e-06	-2.121574e-08	-2.288938e+01	-1.381103e+03
2.750000e-06	-3.358050e-06	-2.159964e-08	-2.367464e+01	-1.406977e+03
2.760000e-06	-3.468091e-06	-2.193954e-08	-2.445044e+01	-1.430937e+03
2.770000e-06	-3.576952e-06	-2.224261e-08	-2.521792e+01	-1.452827e+03
2.780000e-06	-3.684712e-06	-2.251587e-08	-2.597765e+01	-1.472349e+03
2.790000e-06	-3.791378e-06	-2.276299e-08	-2.672965e+01	-1.489323e+03
2.800000e-06	-3.896758e-06	-2.298855e-08	-2.747259e+01	-1.503843e+03
2.810000e-06	-4.000697e-06	-2.319621e-08	-2.820538e+01	-1.516302e+03
2.820000e-06	-4.103137e-06	-2.338716e-08	-2.892759e+01	-1.527306e+03
2.830000e-06	-4.203940e-06	-2.356263e-08	-2.963826e+01	-1.537515e+03
2.840000e-06	-4.303296e-06	-2.372596e-08	-3.033873e+01	-1.547476e+03
2.850000e-06	-4.401324e-06	-2.387875e-08	-3.102984e+01	-1.557500e+03
2.860000e-06	-4.497821e-06	-2.402297e-08	-3.171016e+01	-1.567609e+03
2.870000e-06	-4.592715e-06	-2.415946e-08	-3.237917e+01	-1.577582e+03
2.880000e-06	-4.685855e-06	-2.428513e-08	-3.303582e+01	-1.587058e+03
2.890000e-06	-4.777300e-06	-2.440050e-08	-3.368051e+01	-1.595676e+03
2.900000e-06	-4.867129e-06	-2.450706e-08	-3.431382e+01	-1.603206e+03
2.910000e-06	-4.955145e-06	-2.460692e-08	-3.493435e+01	-1.609622e+03
2.920000e-06	-5.041287e-06	-2.470267e-08	-3.554165e+01	-1.615108e+03
2.930000e-06	-5.125565e-06	-2.479260e-08	-3.613582e+01	-1.620005e+03
2.940000e-06	-5.208063e-06	-2.487777e-08	-3.671745e+01	-1.624704e+03
