# Temperatura_=_46.06
# Concentracion g/m^3_=_41000.0
# C_Vs_to_Am_M_A/Vsm_=_65563218390.804596
# pendiente_HvsI_1/m_=_3716.3
# ordenada_HvsI_A/m_=_1297.0
# frecuencia_Hz_=_302002.8638615239

Tiempo_(s)	Campo_(V.s)	Magnetizacion_(V.s)	Campo_(kA/m)	Magnetizacion_(A/m)
0.000000e+00	-6.716700e-06	-2.533549e-08	-4.746705e+01	-1.657782e+03
1.000000e-08	-6.713094e-06	-2.533065e-08	-4.744156e+01	-1.658175e+03
2.000000e-08	-6.707321e-06	-2.532238e-08	-4.740076e+01	-1.658272e+03
3.000000e-08	-6.699504e-06	-2.531273e-08	-4.734552e+01	-1.657906e+03
4.000000e-08	-6.689386e-06	-2.530016e-08	-4.727402e+01	-1.657021e+03
5.000000e-08	-6.676790e-06	-2.528549e-08	-4.718500e+01	-1.655693e+03
6.000000e-08	-6.661782e-06	-2.526344e-08	-4.707894e+01	-1.654107e+03
7.000000e-08	-6.644489e-06	-2.524186e-08	-4.695673e+01	-1.652501e+03
8.000000e-08	-6.624994e-06	-2.526647e-08	-4.681896e+01	-1.651091e+03
9.000000e-08	-6.603041e-06	-2.528029e-08	-4.666381e+01	-1.650007e+03
1.000000e-07	-6.578303e-06	-2.523614e-08	-4.648899e+01	-1.649255e+03
1.100000e-07	-6.550920e-06	-2.519642e-08	-4.629547e+01	-1.648713e+03
1.200000e-07	-6.521367e-06	-2.516256e-08	-4.608662e+01	-1.648169e+03
1.300000e-07	-6.489972e-06	-2.507247e-08	-4.586475e+01	-1.647390e+03
1.400000e-07	-6.456799e-06	-2.506865e-08	-4.563032e+01	-1.646189e+03
1.500000e-07	-6.421608e-06	-2.514184e-08	-4.538163e+01	-1.644481e+03
1.600000e-07	-6.384333e-06	-2.504126e-08	-4.511820e+01	-1.642308e+03
1.700000e-07	-6.345064e-06	-2.503157e-08	-4.484069e+01	-1.639822e+03
1.800000e-07	-6.303477e-06	-2.502559e-08	-4.454679e+01	-1.637235e+03
1.900000e-07	-6.259458e-06	-2.492089e-08	-4.423571e+01	-1.634747e+03
2.000000e-07	-6.213204e-06	-2.493618e-08	-4.390883e+01	-1.632486e+03
2.100000e-07	-6.164491e-06	-2.489023e-08	-4.356457e+01	-1.630463e+03
2.200000e-07	-6.113105e-06	-2.483815e-08	-4.320143e+01	-1.628572e+03
2.300000e-07	-6.059205e-06	-2.482091e-08	-4.282052e+01	-1.626618e+03
2.400000e-07	-6.002966e-06	-2.476399e-08	-4.242307e+01	-1.624381e+03
2.500000e-07	-5.944441e-06	-2.472817e-08	-4.200948e+01	-1.621684e+03
2.600000e-07	-5.883704e-06	-2.467348e-08	-4.158025e+01	-1.618451e+03
2.700000e-07	-5.820898e-06	-2.460554e-08	-4.113640e+01	-1.614727e+03
2.800000e-07	-5.755966e-06	-2.454277e-08	-4.067752e+01	-1.610665e+03
2.900000e-07	-5.688763e-06	-2.449838e-08	-4.020260e+01	-1.606479e+03
3.000000e-07	-5.619411e-06	-2.446831e-08	-3.971248e+01	-1.602372e+03
3.100000e-07	-5.548063e-06	-2.440012e-08	-3.920827e+01	-1.598472e+03
3.200000e-07	-5.474576e-06	-2.432992e-08	-3.868894e+01	-1.594794e+03
3.300000e-07	-5.398829e-06	-2.424445e-08	-3.815363e+01	-1.591226e+03
3.400000e-07	-5.320893e-06	-2.417986e-08	-3.760285e+01	-1.587570e+03
3.500000e-07	-5.240846e-06	-2.412454e-08	-3.703716e+01	-1.583601e+03
3.600000e-07	-5.158840e-06	-2.404415e-08	-3.645762e+01	-1.579138e+03
3.700000e-07	-5.075158e-06	-2.397891e-08	-3.586624e+01	-1.574101e+03
3.800000e-07	-4.989880e-06	-2.389489e-08	-3.526358e+01	-1.568539e+03
3.900000e-07	-4.902986e-06	-2.380061e-08	-3.464949e+01	-1.562613e+03
4.000000e-07	-4.814435e-06	-2.371872e-08	-3.402370e+01	-1.556547e+03
4.100000e-07	-4.724060e-06	-2.364938e-08	-3.338502e+01	-1.550551e+03
4.200000e-07	-4.632031e-06	-2.356444e-08	-3.273465e+01	-1.544755e+03
4.300000e-07	-4.538481e-06	-2.346167e-08	-3.207353e+01	-1.539163e+03
4.400000e-07	-4.443355e-06	-2.336560e-08	-3.140128e+01	-1.533646e+03
4.500000e-07	-4.346568e-06	-2.326138e-08	-3.071728e+01	-1.527978e+03
4.600000e-07	-4.248037e-06	-2.315636e-08	-3.002095e+01	-1.521907e+03
4.700000e-07	-4.148009e-06	-2.305326e-08	-2.931406e+01	-1.515229e+03
4.800000e-07	-4.046591e-06	-2.295014e-08	-2.859733e+01	-1.507855e+03
4.900000e-07	-3.943777e-06	-2.283541e-08	-2.787075e+01	-1.499840e+03
5.000000e-07	-3.839614e-06	-2.271190e-08	-2.713462e+01	-1.491366e+03
5.100000e-07	-3.733947e-06	-2.258772e-08	-2.638788e+01	-1.482679e+03
5.200000e-07	-3.626766e-06	-2.245746e-08	-2.563043e+01	-1.474013e+03
5.300000e-07	-3.518270e-06	-2.232486e-08	-2.486368e+01	-1.465506e+03
5.400000e-07	-3.408583e-06	-2.218930e-08	-2.408852e+01	-1.457145e+03
5.500000e-07	-3.297709e-06	-2.204952e-08	-2.330497e+01	-1.448764e+03
5.600000e-07	-3.185534e-06	-2.189820e-08	-2.251223e+01	-1.440083e+03
5.700000e-07	-3.071956e-06	-2.174139e-08	-2.170957e+01	-1.430790e+03
5.800000e-07	-2.957006e-06	-2.157983e-08	-2.089721e+01	-1.420636e+03
5.900000e-07	-2.840825e-06	-2.141178e-08	-2.007616e+01	-1.409515e+03
6.000000e-07	-2.723599e-06	-2.123943e-08	-1.924773e+01	-1.397495e+03
6.100000e-07	-2.605410e-06	-2.106261e-08	-1.841249e+01	-1.384800e+03
6.200000e-07	-2.486336e-06	-2.087723e-08	-1.757098e+01	-1.371736e+03
6.300000e-07	-2.366366e-06	-2.068096e-08	-1.672316e+01	-1.358592e+03
6.400000e-07	-2.245489e-06	-2.047701e-08	-1.586892e+01	-1.345530e+03
6.500000e-07	-2.123716e-06	-2.026365e-08	-1.500834e+01	-1.332519e+03
6.600000e-07	-2.001061e-06	-2.004181e-08	-1.414154e+01	-1.319324e+03
6.700000e-07	-1.877642e-06	-1.981241e-08	-1.326933e+01	-1.305556e+03
6.800000e-07	-1.753552e-06	-1.957367e-08	-1.239239e+01	-1.290783e+03
6.900000e-07	-1.628936e-06	-1.932241e-08	-1.151172e+01	-1.274647e+03
7.000000e-07	-1.503847e-06	-1.905878e-08	-1.062771e+01	-1.256978e+03
7.100000e-07	-1.378283e-06	-1.878276e-08	-9.740349e+00	-1.237839e+03
7.200000e-07	-1.252311e-06	-1.849419e-08	-8.850104e+00	-1.217506e+03
7.300000e-07	-1.125949e-06	-1.819067e-08	-7.957103e+00	-1.196367e+03
7.400000e-07	-9.992379e-07	-1.786955e-08	-7.061633e+00	-1.174776e+03
7.500000e-07	-8.722416e-07	-1.753028e-08	-6.164148e+00	-1.152902e+03
7.600000e-07	-7.449219e-07	-1.716846e-08	-5.264377e+00	-1.130624e+03
7.700000e-07	-6.173167e-07	-1.678615e-08	-4.362589e+00	-1.107504e+03
7.800000e-07	-4.895700e-07	-1.638419e-08	-3.459800e+00	-1.082861e+03
7.900000e-07	-3.616622e-07	-1.595877e-08	-2.555874e+00	-1.055929e+03
8.000000e-07	-2.335571e-07	-1.550353e-08	-1.650553e+00	-1.026046e+03
8.100000e-07	-1.053293e-07	-1.501184e-08	-7.443645e-01	-9.928268e+02
8.200000e-07	2.293302e-08	-1.448047e-08	1.620681e-01	-9.562540e+02
8.300000e-07	1.511890e-07	-1.390549e-08	1.068456e+00	-9.166313e+02
8.400000e-07	2.794362e-07	-1.328498e-08	1.974781e+00	-8.744063e+02
8.500000e-07	4.075929e-07	-1.261262e-08	2.880467e+00	-8.298840e+02
8.600000e-07	5.356127e-07	-1.187702e-08	3.785185e+00	-7.829044e+02
8.700000e-07	6.635149e-07	-1.106530e-08	4.689072e+00	-7.325742e+02
8.800000e-07	7.912417e-07	-1.016594e-08	5.591720e+00	-6.771444e+02
8.900000e-07	9.187411e-07	-9.160752e-09	6.492761e+00	-6.140992e+02
9.000000e-07	1.045917e-06	-8.021126e-09	7.391515e+00	-5.404746e+02
9.100000e-07	1.172686e-06	-6.713873e-09	8.287396e+00	-4.533710e+02
9.200000e-07	1.299058e-06	-5.198285e-09	9.180466e+00	-3.505688e+02
9.300000e-07	1.425065e-06	-3.431557e-09	1.007096e+01	-2.311215e+02
9.400000e-07	1.550629e-06	-1.382948e-09	1.095832e+01	-9.579459e+01
9.500000e-07	1.675696e-06	9.158044e-10	1.184218e+01	5.276064e+01
9.600000e-07	1.800260e-06	3.346122e-09	1.272247e+01	2.101565e+02
9.700000e-07	1.924227e-06	5.806869e-09	1.359855e+01	3.707339e+02
9.800000e-07	2.047439e-06	8.242842e-09	1.446929e+01	5.282676e+02
9.900000e-07	2.169780e-06	1.053623e-08	1.533388e+01	6.767831e+02
1.000000e-06	2.291339e-06	1.255295e-08	1.619294e+01	8.113322e+02
1.010000e-06	2.412040e-06	1.424990e-08	1.704593e+01	9.285832e+02
1.020000e-06	2.531677e-06	1.565299e-08	1.789141e+01	1.027121e+03
1.030000e-06	2.650299e-06	1.680774e-08	1.872972e+01	1.107415e+03
1.040000e-06	2.768032e-06	1.776144e-08	1.956173e+01	1.171483e+03
1.050000e-06	2.884778e-06	1.855382e-08	2.038678e+01	1.222344e+03
1.060000e-06	3.000376e-06	1.921791e-08	2.120372e+01	1.263372e+03
1.070000e-06	3.114698e-06	1.978230e-08	2.201163e+01	1.297706e+03
1.080000e-06	3.227646e-06	2.026655e-08	2.280983e+01	1.327811e+03
1.090000e-06	3.339322e-06	2.068386e-08	2.359905e+01	1.355265e+03
1.100000e-06	3.449925e-06	2.104936e-08	2.438069e+01	1.380774e+03
1.110000e-06	3.559470e-06	2.137228e-08	2.515484e+01	1.404383e+03
1.120000e-06	3.667866e-06	2.166083e-08	2.592088e+01	1.425780e+03
1.130000e-06	3.774967e-06	2.192388e-08	2.667776e+01	1.444621e+03
1.140000e-06	3.880653e-06	2.216311e-08	2.742465e+01	1.460774e+03
1.150000e-06	3.984904e-06	2.238165e-08	2.816139e+01	1.474442e+03
1.160000e-06	4.087726e-06	2.258231e-08	2.888804e+01	1.486143e+03
1.170000e-06	4.189223e-06	2.276838e-08	2.960532e+01	1.496577e+03
1.180000e-06	4.289321e-06	2.294053e-08	3.031271e+01	1.506444e+03
1.190000e-06	4.387827e-06	2.310122e-08	3.100886e+01	1.516268e+03
1.200000e-06	4.484665e-06	2.325120e-08	3.169321e+01	1.526279e+03
1.210000e-06	4.579792e-06	2.338918e-08	3.236547e+01	1.536397e+03
1.220000e-06	4.673354e-06	2.351816e-08	3.302668e+01	1.546299e+03
1.230000e-06	4.765375e-06	2.363855e-08	3.367699e+01	1.555561e+03
1.240000e-06	4.855665e-06	2.375024e-08	3.431508e+01	1.563811e+03
1.250000e-06	4.944158e-06	2.385539e-08	3.494046e+01	1.570857e+03
1.260000e-06	5.030859e-06	2.395533e-08	3.555318e+01	1.576751e+03
1.270000e-06	5.115829e-06	2.404984e-08	3.615366e+01	1.581766e+03
1.280000e-06	5.198988e-06	2.413902e-08	3.674135e+01	1.586316e+03
1.290000e-06	5.280204e-06	2.422343e-08	3.731530e+01	1.590828e+03
1.300000e-06	5.359478e-06	2.430263e-08	3.787553e+01	1.595621e+03
1.310000e-06	5.436854e-06	2.437684e-08	3.842235e+01	1.600820e+03
1.320000e-06	5.512177e-06	2.444723e-08	3.895466e+01	1.606334e+03
1.330000e-06	5.585298e-06	2.451520e-08	3.947140e+01	1.611903e+03
1.340000e-06	5.656318e-06	2.458020e-08	3.997330e+01	1.617188e+03
1.350000e-06	5.725366e-06	2.464127e-08	4.046127e+01	1.621887e+03
1.360000e-06	5.792362e-06	2.469944e-08	4.093473e+01	1.625824e+03
1.370000e-06	5.857214e-06	2.475422e-08	4.139304e+01	1.629004e+03
1.380000e-06	5.919997e-06	2.480667e-08	4.183673e+01	1.631605e+03
1.390000e-06	5.980851e-06	2.485733e-08	4.226679e+01	1.633915e+03
1.400000e-06	6.039691e-06	2.490448e-08	4.268261e+01	1.636239e+03
1.410000e-06	6.096342e-06	2.494861e-08	4.308297e+01	1.638807e+03
1.420000e-06	6.150780e-06	2.498838e-08	4.346768e+01	1.641707e+03
1.430000e-06	6.202854e-06	2.502517e-08	4.383569e+01	1.644860e+03
1.440000e-06	6.252369e-06	2.506066e-08	4.418561e+01	1.648057e+03
1.450000e-06	6.299448e-06	2.509335e-08	4.451832e+01	1.651028e+03
1.460000e-06	6.344397e-06	2.512475e-08	4.483598e+01	1.653531e+03
1.470000e-06	6.387157e-06	2.515409e-08	4.513816e+01	1.655427e+03
1.480000e-06	6.427601e-06	2.517993e-08	4.542398e+01	1.656727e+03
1.490000e-06	6.465842e-06	2.520264e-08	4.569423e+01	1.657580e+03
1.500000e-06	6.501914e-06	2.522518e-08	4.594915e+01	1.658231e+03
1.510000e-06	6.535628e-06	2.524655e-08	4.618741e+01	1.658937e+03
1.520000e-06	6.566933e-06	2.526443e-08	4.640864e+01	1.659893e+03
1.530000e-06	6.596037e-06	2.528197e-08	4.661432e+01	1.661171e+03
1.540000e-06	6.622885e-06	2.529858e-08	4.680405e+01	1.662702e+03
1.550000e-06	6.647249e-06	2.531227e-08	4.697623e+01	1.664301e+03
1.560000e-06	6.669201e-06	2.532447e-08	4.713137e+01	1.665730e+03
1.570000e-06	6.688906e-06	2.533608e-08	4.727063e+01	1.666776e+03
1.580000e-06	6.706244e-06	2.534669e-08	4.739315e+01	1.667316e+03
1.590000e-06	6.721004e-06	2.535555e-08	4.749746e+01	1.667357e+03
1.600000e-06	6.733176e-06	2.536326e-08	4.758348e+01	1.667032e+03
1.610000e-06	6.742751e-06	2.537021e-08	4.765115e+01	1.666558e+03
1.620000e-06	6.749775e-06	2.537438e-08	4.770079e+01	1.666165e+03
1.630000e-06	6.754487e-06	2.537667e-08	4.773409e+01	1.666024e+03
1.640000e-06	6.756845e-06	2.537855e-08	4.775075e+01	1.666192e+03
1.650000e-06	6.756777e-06	2.537813e-08	4.775027e+01	1.666598e+03
1.660000e-06	6.754481e-06	2.537210e-08	4.773404e+01	1.667059e+03
1.670000e-06	6.750031e-06	2.536703e-08	4.770260e+01	1.667344e+03
1.680000e-06	6.743311e-06	2.536289e-08	4.765511e+01	1.667244e+03
1.690000e-06	6.734334e-06	2.535634e-08	4.759167e+01	1.666638e+03
1.700000e-06	6.723174e-06	2.534992e-08	4.751280e+01	1.665533e+03
1.710000e-06	6.709624e-06	2.534952e-08	4.741704e+01	1.664060e+03
1.720000e-06	6.693757e-06	2.534839e-08	4.730491e+01	1.662438e+03
1.730000e-06	6.675901e-06	2.528163e-08	4.717872e+01	1.660902e+03
1.740000e-06	6.655654e-06	2.522811e-08	4.703563e+01	1.659637e+03
1.750000e-06	6.632318e-06	2.523692e-08	4.687071e+01	1.658718e+03
1.760000e-06	6.606006e-06	2.522957e-08	4.668477e+01	1.658088e+03
1.770000e-06	6.577261e-06	2.525464e-08	4.648163e+01	1.657577e+03
1.780000e-06	6.546504e-06	2.530873e-08	4.626427e+01	1.656955e+03
1.790000e-06	6.514276e-06	2.520154e-08	4.603651e+01	1.656000e+03
1.800000e-06	6.480409e-06	2.517960e-08	4.579717e+01	1.654569e+03
1.810000e-06	6.444187e-06	2.520178e-08	4.554119e+01	1.652635e+03
1.820000e-06	6.405571e-06	2.510734e-08	4.526829e+01	1.650296e+03
1.830000e-06	6.364756e-06	2.517490e-08	4.497985e+01	1.647739e+03
1.840000e-06	6.321853e-06	2.511678e-08	4.467665e+01	1.645178e+03
1.850000e-06	6.276798e-06	2.501235e-08	4.435825e+01	1.642789e+03
1.860000e-06	6.229341e-06	2.504696e-08	4.402287e+01	1.640648e+03
1.870000e-06	6.179601e-06	2.496910e-08	4.367136e+01	1.638709e+03
1.880000e-06	6.127502e-06	2.496286e-08	4.330317e+01	1.636819e+03
1.890000e-06	6.072781e-06	2.491155e-08	4.291646e+01	1.634762e+03
1.900000e-06	6.015704e-06	2.482442e-08	4.251310e+01	1.632331e+03
1.910000e-06	5.956461e-06	2.486092e-08	4.209442e+01	1.629391e+03
1.920000e-06	5.895028e-06	2.479715e-08	4.166027e+01	1.625919e+03
1.930000e-06	5.831334e-06	2.475486e-08	4.121015e+01	1.622017e+03
1.940000e-06	5.765430e-06	2.466737e-08	4.074440e+01	1.617873e+03
1.950000e-06	5.697475e-06	2.460190e-08	4.026416e+01	1.613703e+03
1.960000e-06	5.627267e-06	2.458581e-08	3.976800e+01	1.609686e+03
1.970000e-06	5.554818e-06	2.449496e-08	3.925600e+01	1.605898e+03
1.980000e-06	5.480344e-06	2.446685e-08	3.872969e+01	1.602294e+03
1.990000e-06	5.403792e-06	2.439854e-08	3.818870e+01	1.598716e+03
2.000000e-06	5.325088e-06	2.432517e-08	3.763250e+01	1.594944e+03
2.010000e-06	5.244395e-06	2.424419e-08	3.706224e+01	1.590766e+03
2.020000e-06	5.161955e-06	2.415877e-08	3.647963e+01	1.586041e+03
2.030000e-06	5.077777e-06	2.412558e-08	3.588475e+01	1.580749e+03
2.040000e-06	4.991692e-06	2.404179e-08	3.527638e+01	1.574996e+03
2.050000e-06	4.903746e-06	2.395512e-08	3.465487e+01	1.568979e+03
2.060000e-06	4.814196e-06	2.386462e-08	3.402201e+01	1.562925e+03
2.070000e-06	4.723105e-06	2.378857e-08	3.337827e+01	1.557016e+03
2.080000e-06	4.630316e-06	2.369889e-08	3.272253e+01	1.551325e+03
2.090000e-06	4.535693e-06	2.359679e-08	3.205383e+01	1.545794e+03
2.100000e-06	4.439467e-06	2.350817e-08	3.137380e+01	1.540242e+03
2.110000e-06	4.341886e-06	2.340743e-08	3.068419e+01	1.534420e+03
2.120000e-06	4.242976e-06	2.330884e-08	2.998519e+01	1.528088e+03
2.130000e-06	4.142593e-06	2.319770e-08	2.927579e+01	1.521092e+03
2.140000e-06	4.040501e-06	2.309213e-08	2.855430e+01	1.513409e+03
2.150000e-06	3.936718e-06	2.298028e-08	2.782086e+01	1.505155e+03
2.160000e-06	3.831531e-06	2.287259e-08	2.707751e+01	1.496552e+03
2.170000e-06	3.725129e-06	2.275625e-08	2.632556e+01	1.487854e+03
2.180000e-06	3.617500e-06	2.262475e-08	2.556494e+01	1.479255e+03
2.190000e-06	3.508594e-06	2.248763e-08	2.479530e+01	1.470830e+03
2.200000e-06	3.398315e-06	2.234905e-08	2.401595e+01	1.462492e+03
2.210000e-06	3.286605e-06	2.221429e-08	2.322650e+01	1.454013e+03
2.220000e-06	3.173646e-06	2.207048e-08	2.242822e+01	1.445087e+03
2.230000e-06	3.059529e-06	2.192183e-08	2.162175e+01	1.435421e+03
2.240000e-06	2.944264e-06	2.176317e-08	2.080717e+01	1.424825e+03
2.250000e-06	2.827792e-06	2.159417e-08	1.998406e+01	1.413270e+03
2.260000e-06	2.710066e-06	2.141780e-08	1.915209e+01	1.400904e+03
2.270000e-06	2.591164e-06	2.124184e-08	1.831180e+01	1.388001e+03
2.280000e-06	2.471216e-06	2.106021e-08	1.746413e+01	1.374872e+03
2.290000e-06	2.350475e-06	2.086566e-08	1.661085e+01	1.361759e+03
2.300000e-06	2.228995e-06	2.065942e-08	1.575235e+01	1.348740e+03
2.310000e-06	2.106777e-06	2.044621e-08	1.488863e+01	1.335687e+03
2.320000e-06	1.983926e-06	2.022613e-08	1.402044e+01	1.322283e+03
2.330000e-06	1.860438e-06	1.999467e-08	1.314775e+01	1.308103e+03
2.340000e-06	1.736251e-06	1.975314e-08	1.227012e+01	1.292735e+03
2.350000e-06	1.611461e-06	1.950237e-08	1.138823e+01	1.275897e+03
2.360000e-06	1.486140e-06	1.924031e-08	1.050258e+01	1.257526e+03
2.370000e-06	1.360310e-06	1.896244e-08	9.613338e+00	1.237792e+03
2.380000e-06	1.234045e-06	1.866703e-08	8.721017e+00	1.217038e+03
2.390000e-06	1.107331e-06	1.835444e-08	7.825531e+00	1.195655e+03
2.400000e-06	9.801341e-07	1.802496e-08	6.926627e+00	1.173931e+03
2.410000e-06	8.525620e-07	1.767768e-08	6.025072e+00	1.151906e+03
2.420000e-06	7.246852e-07	1.731372e-08	5.121364e+00	1.129312e+03
2.430000e-06	5.965462e-07	1.692988e-08	4.215803e+00	1.105582e+03
2.440000e-06	4.682121e-07	1.652005e-08	3.308863e+00	1.079973e+03
2.450000e-06	3.397019e-07	1.607908e-08	2.400680e+00	1.051742e+03
2.460000e-06	2.110837e-07	1.560711e-08	1.491733e+00	1.020339e+03
2.470000e-06	8.239272e-08	1.510498e-08	5.822709e-01	9.855458e+02
2.480000e-06	-4.629846e-08	1.456396e-08	-3.271921e-01	9.475075e+02
2.490000e-06	-1.749686e-07	1.397518e-08	-1.236506e+00	9.066249e+02
2.500000e-06	-3.036813e-07	1.333623e-08	-2.146121e+00	8.633189e+02
2.510000e-06	-4.323042e-07	1.264040e-08	-3.055102e+00	8.177179e+02
2.520000e-06	-5.607706e-07	1.187682e-08	-3.962976e+00	7.693478e+02
2.530000e-06	-6.891057e-07	1.103321e-08	-4.869923e+00	7.169215e+02
2.540000e-06	-8.172671e-07	1.009483e-08	-5.775642e+00	6.583088e+02
2.550000e-06	-9.451687e-07	9.042054e-09	-6.679525e+00	5.907328e+02
2.560000e-06	-1.072563e-06	7.845606e-09	-7.579824e+00	5.111869e+02
2.570000e-06	-1.199433e-06	6.469573e-09	-8.476413e+00	4.170089e+02
2.580000e-06	-1.325891e-06	4.871040e-09	-9.370094e+00	3.065028e+02
2.590000e-06	-1.451869e-06	3.006393e-09	-1.026039e+01	1.794764e+02
2.600000e-06	-1.577328e-06	8.539526e-10	-1.114701e+01	3.756804e+01
2.610000e-06	-1.702209e-06	-1.536926e-09	-1.202954e+01	-1.157260e+02
2.620000e-06	-1.826350e-06	-4.043900e-09	-1.290685e+01	-2.753528e+02
2.630000e-06	-1.949668e-06	-6.565960e-09	-1.377834e+01	-4.352926e+02
2.640000e-06	-2.072218e-06	-9.009530e-09	-1.464440e+01	-5.893338e+02
2.650000e-06	-2.194022e-06	-1.123611e-08	-1.550520e+01	-7.318902e+02
2.660000e-06	-2.315104e-06	-1.315394e-08	-1.636089e+01	-8.587065e+02
2.670000e-06	-2.435409e-06	-1.475617e-08	-1.721108e+01	-9.673234e+02
2.680000e-06	-2.554723e-06	-1.607721e-08	-1.805428e+01	-1.057225e+03
2.690000e-06	-2.672965e-06	-1.716638e-08	-1.888990e+01	-1.129656e+03
2.700000e-06	-2.790128e-06	-1.806950e-08	-1.971788e+01	-1.187178e+03
2.710000e-06	-2.906118e-06	-1.882343e-08	-2.053759e+01	-1.233053e+03
2.720000e-06	-3.020903e-06	-1.945646e-08	-2.134878e+01	-1.270613e+03
2.730000e-06	-3.134446e-06	-1.999113e-08	-2.215119e+01	-1.302726e+03
2.740000e-06	-3.246701e-06	-2.044791e-08	-2.294450e+01	-1.331457e+03
2.750000e-06	-3.357677e-06	-2.084367e-08	-2.372877e+01	-1.357964e+03
2.760000e-06	-3.467443e-06	-2.119159e-08	-2.450448e+01	-1.382612e+03
2.770000e-06	-3.576080e-06	-2.150154e-08	-2.527222e+01	-1.405239e+03
2.780000e-06	-3.683572e-06	-2.178056e-08	-2.603187e+01	-1.425481e+03
2.790000e-06	-3.789871e-06	-2.203332e-08	-2.678309e+01	-1.443068e+03
2.800000e-06	-3.894885e-06	-2.226406e-08	-2.752523e+01	-1.458019e+03
2.810000e-06	-3.998441e-06	-2.247714e-08	-2.825706e+01	-1.470691e+03
2.820000e-06	-4.100472e-06	-2.267193e-08	-2.897812e+01	-1.481709e+03
2.830000e-06	-4.201005e-06	-2.284969e-08	-2.968858e+01	-1.491797e+03
2.840000e-06	-4.300045e-06	-2.301411e-08	-3.038850e+01	-1.501593e+03
2.850000e-06	-4.397639e-06	-2.316717e-08	-3.107820e+01	-1.511492e+03
2.860000e-06	-4.493743e-06	-2.331075e-08	-3.175736e+01	-1.521577e+03
2.870000e-06	-4.588186e-06	-2.344670e-08	-3.242480e+01	-1.531642e+03
2.880000e-06	-4.680968e-06	-2.357461e-08	-3.308049e+01	-1.541297e+03
2.890000e-06	-4.772138e-06	-2.369305e-08	-3.372479e+01	-1.550124e+03
2.900000e-06	-4.861622e-06	-2.380309e-08	-3.435718e+01	-1.557822e+03
2.910000e-06	-4.949296e-06	-2.390467e-08	-3.497677e+01	-1.564309e+03
2.920000e-06	-5.035108e-06	-2.399950e-08	-3.558320e+01	-1.569747e+03
2.930000e-06	-5.119117e-06	-2.408735e-08	-3.617690e+01	-1.574488e+03
2.940000e-06	-5.201354e-06	-2.417167e-08	-3.675806e+01	-1.578969e+03
