# Temperatura_=_44.21
# Concentracion g/m^3_=_41000.0
# C_Vs_to_Am_M_A/Vsm_=_65563218390.804596
# pendiente_HvsI_1/m_=_3716.3
# ordenada_HvsI_A/m_=_1297.0
# frecuencia_Hz_=_302003.99684362573

Tiempo_(s)	Campo_(V.s)	Magnetizacion_(V.s)	Campo_(kA/m)	Magnetizacion_(A/m)
0.000000e+00	-6.746851e-06	-2.525950e-08	-4.746644e+01	-1.653040e+03
1.000000e-08	-6.743463e-06	-2.525986e-08	-4.744260e+01	-1.653431e+03
2.000000e-08	-6.737862e-06	-2.525249e-08	-4.740320e+01	-1.653553e+03
3.000000e-08	-6.730153e-06	-2.524357e-08	-4.734896e+01	-1.653232e+03
4.000000e-08	-6.720156e-06	-2.523183e-08	-4.727863e+01	-1.652405e+03
5.000000e-08	-6.707705e-06	-2.521711e-08	-4.719103e+01	-1.651133e+03
6.000000e-08	-6.692801e-06	-2.519445e-08	-4.708617e+01	-1.649587e+03
7.000000e-08	-6.675512e-06	-2.516617e-08	-4.696454e+01	-1.647992e+03
8.000000e-08	-6.656006e-06	-2.518914e-08	-4.682731e+01	-1.646556e+03
9.000000e-08	-6.634108e-06	-2.522977e-08	-4.667325e+01	-1.645412e+03
1.000000e-07	-6.609484e-06	-2.516951e-08	-4.650001e+01	-1.644571e+03
1.100000e-07	-6.582212e-06	-2.511098e-08	-4.630814e+01	-1.643926e+03
1.200000e-07	-6.552707e-06	-2.509768e-08	-4.610057e+01	-1.643286e+03
1.300000e-07	-6.521306e-06	-2.500952e-08	-4.587965e+01	-1.642438e+03
1.400000e-07	-6.488051e-06	-2.496069e-08	-4.564569e+01	-1.641211e+03
1.500000e-07	-6.452803e-06	-2.508111e-08	-4.539770e+01	-1.639534e+03
1.600000e-07	-6.415559e-06	-2.497688e-08	-4.513568e+01	-1.637452e+03
1.700000e-07	-6.376341e-06	-2.489859e-08	-4.485977e+01	-1.635111e+03
1.800000e-07	-6.334734e-06	-2.496466e-08	-4.456705e+01	-1.632708e+03
1.900000e-07	-6.290616e-06	-2.483935e-08	-4.425667e+01	-1.630423e+03
2.000000e-07	-6.244243e-06	-2.487550e-08	-4.393042e+01	-1.628361e+03
2.100000e-07	-6.195420e-06	-2.488378e-08	-4.358693e+01	-1.626511e+03
2.200000e-07	-6.143927e-06	-2.477031e-08	-4.322466e+01	-1.624751e+03
2.300000e-07	-6.089956e-06	-2.473963e-08	-4.284495e+01	-1.622877e+03
2.400000e-07	-6.033683e-06	-2.467969e-08	-4.244905e+01	-1.620673e+03
2.500000e-07	-5.975006e-06	-2.464149e-08	-4.203624e+01	-1.617971e+03
2.600000e-07	-5.914063e-06	-2.460930e-08	-4.160748e+01	-1.614713e+03
2.700000e-07	-5.851115e-06	-2.455490e-08	-4.116462e+01	-1.610964e+03
2.800000e-07	-5.786090e-06	-2.449040e-08	-4.070715e+01	-1.606895e+03
2.900000e-07	-5.718833e-06	-2.441226e-08	-4.023398e+01	-1.602732e+03
3.000000e-07	-5.649409e-06	-2.439251e-08	-3.974555e+01	-1.598683e+03
3.100000e-07	-5.577977e-06	-2.433649e-08	-3.924301e+01	-1.594874e+03
3.200000e-07	-5.504299e-06	-2.428054e-08	-3.872465e+01	-1.591303e+03
3.300000e-07	-5.428296e-06	-2.421188e-08	-3.818995e+01	-1.587844e+03
3.400000e-07	-5.350215e-06	-2.412416e-08	-3.764062e+01	-1.584279e+03
3.500000e-07	-5.270057e-06	-2.406924e-08	-3.707668e+01	-1.580370e+03
3.600000e-07	-5.187908e-06	-2.398640e-08	-3.649873e+01	-1.575929e+03
3.700000e-07	-5.104036e-06	-2.392591e-08	-3.590866e+01	-1.570880e+03
3.800000e-07	-5.018500e-06	-2.385293e-08	-3.530689e+01	-1.565283e+03
3.900000e-07	-4.931295e-06	-2.376296e-08	-3.469337e+01	-1.559317e+03
4.000000e-07	-4.842346e-06	-2.367538e-08	-3.406758e+01	-1.553222e+03
4.100000e-07	-4.751562e-06	-2.359574e-08	-3.342889e+01	-1.547225e+03
4.200000e-07	-4.659180e-06	-2.351441e-08	-3.277894e+01	-1.541465e+03
4.300000e-07	-4.565308e-06	-2.340948e-08	-3.211853e+01	-1.535943e+03
4.400000e-07	-4.469854e-06	-2.331484e-08	-3.144697e+01	-1.530519e+03
4.500000e-07	-4.372695e-06	-2.321543e-08	-3.076343e+01	-1.524952e+03
4.600000e-07	-4.273848e-06	-2.311225e-08	-3.006801e+01	-1.518969e+03
4.700000e-07	-4.173520e-06	-2.301085e-08	-2.936216e+01	-1.512351e+03
4.800000e-07	-4.071778e-06	-2.290600e-08	-2.864637e+01	-1.505001e+03
4.900000e-07	-3.968621e-06	-2.279014e-08	-2.792063e+01	-1.496977e+03
5.000000e-07	-3.864018e-06	-2.266487e-08	-2.718471e+01	-1.488468e+03
5.100000e-07	-3.757872e-06	-2.254297e-08	-2.643793e+01	-1.479741e+03
5.200000e-07	-3.650273e-06	-2.241617e-08	-2.568093e+01	-1.471048e+03
5.300000e-07	-3.541386e-06	-2.228371e-08	-2.491488e+01	-1.462542e+03
5.400000e-07	-3.431284e-06	-2.214547e-08	-2.414027e+01	-1.454220e+03
5.500000e-07	-3.319962e-06	-2.200357e-08	-2.335708e+01	-1.445912e+03
5.600000e-07	-3.207357e-06	-2.185582e-08	-2.256487e+01	-1.437327e+03
5.700000e-07	-3.093374e-06	-2.170422e-08	-2.176296e+01	-1.428134e+03
5.800000e-07	-2.978007e-06	-2.154879e-08	-2.095131e+01	-1.418064e+03
5.900000e-07	-2.861363e-06	-2.138460e-08	-2.013068e+01	-1.406993e+03
6.000000e-07	-2.743593e-06	-2.120983e-08	-1.930213e+01	-1.394982e+03
6.100000e-07	-2.624941e-06	-2.102755e-08	-1.846737e+01	-1.382258e+03
6.200000e-07	-2.505427e-06	-2.083927e-08	-1.762655e+01	-1.369142e+03
6.300000e-07	-2.384876e-06	-2.064481e-08	-1.677843e+01	-1.355941e+03
6.400000e-07	-2.263311e-06	-2.044341e-08	-1.592318e+01	-1.342839e+03
6.500000e-07	-2.140957e-06	-2.023173e-08	-1.506238e+01	-1.329822e+03
6.600000e-07	-2.017891e-06	-2.000908e-08	-1.419656e+01	-1.316661e+03
6.700000e-07	-1.894079e-06	-1.977727e-08	-1.332550e+01	-1.302966e+03
6.800000e-07	-1.769600e-06	-1.953698e-08	-1.244975e+01	-1.288288e+03
6.900000e-07	-1.644520e-06	-1.928585e-08	-1.156977e+01	-1.272253e+03
7.000000e-07	-1.518921e-06	-1.902556e-08	-1.068614e+01	-1.254672e+03
7.100000e-07	-1.392900e-06	-1.875378e-08	-9.799532e+00	-1.235595e+03
7.200000e-07	-1.266490e-06	-1.846780e-08	-8.910199e+00	-1.215298e+03
7.300000e-07	-1.139670e-06	-1.816614e-08	-8.017972e+00	-1.194179e+03
7.400000e-07	-1.012489e-06	-1.784514e-08	-7.123209e+00	-1.172611e+03
7.500000e-07	-8.849873e-07	-1.750525e-08	-6.226192e+00	-1.150788e+03
7.600000e-07	-7.571582e-07	-1.714596e-08	-5.326870e+00	-1.128610e+03
7.700000e-07	-6.290055e-07	-1.676671e-08	-4.425272e+00	-1.105650e+03
7.800000e-07	-5.005369e-07	-1.636700e-08	-3.521451e+00	-1.081226e+03
7.900000e-07	-3.718968e-07	-1.594339e-08	-2.616423e+00	-1.054556e+03
8.000000e-07	-2.431441e-07	-1.548865e-08	-1.710603e+00	-1.024955e+03
8.100000e-07	-1.142894e-07	-1.499920e-08	-8.040653e-01	-9.920145e+02
8.200000e-07	1.461461e-08	-1.447459e-08	1.028188e-01	-9.557004e+02
8.300000e-07	1.435509e-07	-1.390835e-08	1.009930e+00	-9.163167e+02
8.400000e-07	2.724473e-07	-1.329552e-08	1.916762e+00	-8.743314e+02
8.500000e-07	4.012536e-07	-1.262956e-08	2.822958e+00	-8.300893e+02
8.600000e-07	5.299773e-07	-1.189978e-08	3.728574e+00	-7.834815e+02
8.700000e-07	6.585678e-07	-1.109447e-08	4.633253e+00	-7.336662e+02
8.800000e-07	7.869735e-07	-1.020440e-08	5.536631e+00	-6.789321e+02
8.900000e-07	9.151228e-07	-9.209717e-09	6.438206e+00	-6.167749e+02
9.000000e-07	1.042902e-06	-8.083731e-09	7.337176e+00	-5.442073e+02
9.100000e-07	1.170243e-06	-6.793587e-09	8.233064e+00	-4.582709e+02
9.200000e-07	1.297150e-06	-5.298413e-09	9.125899e+00	-3.566573e+02
9.300000e-07	1.423643e-06	-3.554601e-09	1.001582e+01	-2.383155e+02
9.400000e-07	1.549733e-06	-1.526220e-09	1.090291e+01	-1.039081e+02
9.500000e-07	1.675382e-06	7.631319e-10	1.178689e+01	4.399632e+01
9.600000e-07	1.800496e-06	3.193376e-09	1.266711e+01	2.010577e+02
9.700000e-07	1.924947e-06	5.653800e-09	1.354267e+01	3.616206e+02
9.800000e-07	2.048639e-06	8.095232e-09	1.441288e+01	5.194197e+02
9.900000e-07	2.171580e-06	1.039982e-08	1.527782e+01	6.684044e+02
1.000000e-06	2.293786e-06	1.242716e-08	1.613758e+01	8.035303e+02
1.010000e-06	2.415101e-06	1.413456e-08	1.699107e+01	9.213667e+02
1.020000e-06	2.535337e-06	1.554436e-08	1.783697e+01	1.020415e+03
1.030000e-06	2.654530e-06	1.670365e-08	1.867554e+01	1.101089e+03
1.040000e-06	2.772801e-06	1.766110e-08	1.950762e+01	1.165387e+03
1.050000e-06	2.890086e-06	1.845704e-08	2.033276e+01	1.216340e+03
1.060000e-06	3.006237e-06	1.912320e-08	2.114992e+01	1.257361e+03
1.070000e-06	3.121266e-06	1.968625e-08	2.195919e+01	1.291641e+03
1.080000e-06	3.235105e-06	2.016750e-08	2.276008e+01	1.321695e+03
1.090000e-06	3.347553e-06	2.058228e-08	2.355120e+01	1.349140e+03
1.100000e-06	3.458697e-06	2.094818e-08	2.433313e+01	1.374702e+03
1.110000e-06	3.568776e-06	2.127432e-08	2.510757e+01	1.398420e+03
1.120000e-06	3.677726e-06	2.156670e-08	2.587408e+01	1.419965e+03
1.130000e-06	3.785411e-06	2.183108e-08	2.663168e+01	1.438964e+03
1.140000e-06	3.891764e-06	2.207166e-08	2.737991e+01	1.455257e+03
1.150000e-06	3.996672e-06	2.229118e-08	2.811798e+01	1.469026e+03
1.160000e-06	4.100102e-06	2.249081e-08	2.884564e+01	1.480781e+03
1.170000e-06	4.202114e-06	2.267518e-08	2.956333e+01	1.491228e+03
1.180000e-06	4.302644e-06	2.284851e-08	3.027059e+01	1.501087e+03
1.190000e-06	4.401620e-06	2.301150e-08	3.096692e+01	1.510900e+03
1.200000e-06	4.498964e-06	2.316389e-08	3.165177e+01	1.520919e+03
1.210000e-06	4.594595e-06	2.330370e-08	3.232457e+01	1.531073e+03
1.220000e-06	4.688620e-06	2.343490e-08	3.298607e+01	1.541042e+03
1.230000e-06	4.781100e-06	2.355801e-08	3.363669e+01	1.550393e+03
1.240000e-06	4.871965e-06	2.367221e-08	3.427597e+01	1.558737e+03
1.250000e-06	4.961024e-06	2.377726e-08	3.490253e+01	1.565866e+03
1.260000e-06	5.048252e-06	2.387485e-08	3.551620e+01	1.571812e+03
1.270000e-06	5.133734e-06	2.396947e-08	3.611760e+01	1.576846e+03
1.280000e-06	5.217405e-06	2.405888e-08	3.670625e+01	1.581382e+03
1.290000e-06	5.299176e-06	2.414315e-08	3.728154e+01	1.585859e+03
1.300000e-06	5.378958e-06	2.422228e-08	3.784283e+01	1.590611e+03
1.310000e-06	5.456753e-06	2.429853e-08	3.839015e+01	1.595780e+03
1.320000e-06	5.532522e-06	2.437104e-08	3.892321e+01	1.601288e+03
1.330000e-06	5.606101e-06	2.443899e-08	3.944086e+01	1.606881e+03
1.340000e-06	5.677544e-06	2.450316e-08	3.994349e+01	1.612219e+03
1.350000e-06	5.747004e-06	2.456342e-08	4.043217e+01	1.616987e+03
1.360000e-06	5.814457e-06	2.462118e-08	4.090672e+01	1.620997e+03
1.370000e-06	5.879783e-06	2.467653e-08	4.136631e+01	1.624241e+03
1.380000e-06	5.943003e-06	2.473065e-08	4.181109e+01	1.626883e+03
1.390000e-06	6.004238e-06	2.478316e-08	4.224190e+01	1.629209e+03
1.400000e-06	6.063428e-06	2.483238e-08	4.265832e+01	1.631526e+03
1.410000e-06	6.120456e-06	2.487671e-08	4.305953e+01	1.634073e+03
1.420000e-06	6.175307e-06	2.491515e-08	4.344543e+01	1.636948e+03
1.430000e-06	6.227828e-06	2.495167e-08	4.381493e+01	1.640083e+03
1.440000e-06	6.277747e-06	2.498756e-08	4.416613e+01	1.643277e+03
1.450000e-06	6.325248e-06	2.502024e-08	4.450031e+01	1.646262e+03
1.460000e-06	6.370609e-06	2.505102e-08	4.481944e+01	1.648792e+03
1.470000e-06	6.413789e-06	2.508105e-08	4.512323e+01	1.650723e+03
1.480000e-06	6.454611e-06	2.510883e-08	4.541043e+01	1.652056e+03
1.490000e-06	6.493064e-06	2.513314e-08	4.568096e+01	1.652934e+03
1.500000e-06	6.529327e-06	2.515678e-08	4.593608e+01	1.653597e+03
1.510000e-06	6.563309e-06	2.517841e-08	4.617515e+01	1.654303e+03
1.520000e-06	6.594915e-06	2.519634e-08	4.639751e+01	1.655253e+03
1.530000e-06	6.624315e-06	2.521319e-08	4.660435e+01	1.656523e+03
1.540000e-06	6.651483e-06	2.522854e-08	4.679549e+01	1.658051e+03
1.550000e-06	6.676118e-06	2.524205e-08	4.696881e+01	1.659657e+03
1.560000e-06	6.698249e-06	2.525400e-08	4.712451e+01	1.661104e+03
1.570000e-06	6.718139e-06	2.526519e-08	4.726443e+01	1.662173e+03
1.580000e-06	6.735616e-06	2.527674e-08	4.738739e+01	1.662736e+03
1.590000e-06	6.750533e-06	2.528725e-08	4.749234e+01	1.662791e+03
1.600000e-06	6.762952e-06	2.529503e-08	4.757971e+01	1.662465e+03
1.610000e-06	6.772711e-06	2.530056e-08	4.764837e+01	1.661972e+03
1.620000e-06	6.779902e-06	2.530409e-08	4.769896e+01	1.661543e+03
1.630000e-06	6.784769e-06	2.530637e-08	4.773320e+01	1.661356e+03
1.640000e-06	6.787233e-06	2.530802e-08	4.775054e+01	1.661478e+03
1.650000e-06	6.787263e-06	2.530921e-08	4.775075e+01	1.661848e+03
1.660000e-06	6.785042e-06	2.530099e-08	4.773512e+01	1.662293e+03
1.670000e-06	6.780693e-06	2.529601e-08	4.770453e+01	1.662589e+03
1.680000e-06	6.774056e-06	2.529295e-08	4.765784e+01	1.662523e+03
1.690000e-06	6.765109e-06	2.528590e-08	4.759489e+01	1.661971e+03
1.700000e-06	6.754010e-06	2.527886e-08	4.751680e+01	1.660924e+03
1.710000e-06	6.740570e-06	2.527674e-08	4.742224e+01	1.659502e+03
1.720000e-06	6.724827e-06	2.528472e-08	4.731149e+01	1.657907e+03
1.730000e-06	6.707066e-06	2.521799e-08	4.718653e+01	1.656366e+03
1.740000e-06	6.686988e-06	2.512718e-08	4.704528e+01	1.655059e+03
1.750000e-06	6.663776e-06	2.515698e-08	4.688197e+01	1.654064e+03
1.760000e-06	6.637430e-06	2.516551e-08	4.669662e+01	1.653336e+03
1.770000e-06	6.608698e-06	2.515553e-08	4.649448e+01	1.652723e+03
1.780000e-06	6.577986e-06	2.525220e-08	4.627841e+01	1.652015e+03
1.790000e-06	6.545793e-06	2.515055e-08	4.605193e+01	1.651009e+03
1.800000e-06	6.511957e-06	2.504775e-08	4.581388e+01	1.649578e+03
1.810000e-06	6.475679e-06	2.515051e-08	4.555865e+01	1.647703e+03
1.820000e-06	6.436976e-06	2.504361e-08	4.528636e+01	1.645481e+03
1.830000e-06	6.396156e-06	2.509716e-08	4.499918e+01	1.643089e+03
1.840000e-06	6.353256e-06	2.510820e-08	4.469736e+01	1.640724e+03
1.850000e-06	6.308176e-06	2.488289e-08	4.438021e+01	1.638539e+03
1.860000e-06	6.260606e-06	2.496953e-08	4.404553e+01	1.636586e+03
1.870000e-06	6.210742e-06	2.493176e-08	4.369473e+01	1.634802e+03
1.880000e-06	6.158592e-06	2.491154e-08	4.332783e+01	1.633020e+03
1.890000e-06	6.103777e-06	2.493629e-08	4.294219e+01	1.631021e+03
1.900000e-06	6.046598e-06	2.476723e-08	4.253991e+01	1.628603e+03
1.910000e-06	5.987210e-06	2.479397e-08	4.212210e+01	1.625646e+03
1.920000e-06	5.925590e-06	2.472708e-08	4.168858e+01	1.622147e+03
1.930000e-06	5.861783e-06	2.468366e-08	4.123968e+01	1.618225e+03
1.940000e-06	5.795762e-06	2.465726e-08	4.077519e+01	1.614087e+03
1.950000e-06	5.727650e-06	2.454735e-08	4.029600e+01	1.609958e+03
1.960000e-06	5.657263e-06	2.456678e-08	3.980081e+01	1.606014e+03
1.970000e-06	5.584606e-06	2.443707e-08	3.928964e+01	1.602326e+03
1.980000e-06	5.509960e-06	2.440503e-08	3.876448e+01	1.598833e+03
1.990000e-06	5.433170e-06	2.436485e-08	3.822423e+01	1.595357e+03
2.000000e-06	5.354152e-06	2.427074e-08	3.766832e+01	1.591663e+03
2.010000e-06	5.273138e-06	2.422278e-08	3.709835e+01	1.587528e+03
2.020000e-06	5.190376e-06	2.409711e-08	3.651610e+01	1.582808e+03
2.030000e-06	5.105834e-06	2.406846e-08	3.592131e+01	1.577492e+03
2.040000e-06	5.019340e-06	2.398229e-08	3.531279e+01	1.571699e+03
2.050000e-06	4.930978e-06	2.390475e-08	3.469114e+01	1.565644e+03
2.060000e-06	4.840986e-06	2.382732e-08	3.405802e+01	1.559573e+03
2.070000e-06	4.749553e-06	2.374535e-08	3.341475e+01	1.553680e+03
2.080000e-06	4.656471e-06	2.367100e-08	3.275989e+01	1.548041e+03
2.090000e-06	4.561563e-06	2.355280e-08	3.209218e+01	1.542592e+03
2.100000e-06	4.465062e-06	2.346994e-08	3.141326e+01	1.537139e+03
2.110000e-06	4.367127e-06	2.336170e-08	3.072425e+01	1.531413e+03
2.120000e-06	4.267836e-06	2.326959e-08	3.002570e+01	1.525159e+03
2.130000e-06	4.167075e-06	2.316188e-08	2.931682e+01	1.518207e+03
2.140000e-06	4.064587e-06	2.305746e-08	2.859578e+01	1.510531e+03
2.150000e-06	3.960464e-06	2.294556e-08	2.786324e+01	1.502254e+03
2.160000e-06	3.854970e-06	2.283012e-08	2.712105e+01	1.493612e+03
2.170000e-06	3.748199e-06	2.271763e-08	2.636988e+01	1.484876e+03
2.180000e-06	3.640212e-06	2.258744e-08	2.561015e+01	1.476262e+03
2.190000e-06	3.530874e-06	2.245848e-08	2.484092e+01	1.467855e+03
2.200000e-06	3.420133e-06	2.231589e-08	2.406182e+01	1.459573e+03
2.210000e-06	3.308022e-06	2.218107e-08	2.327308e+01	1.451180e+03
2.220000e-06	3.194671e-06	2.203066e-08	2.247562e+01	1.442354e+03
2.230000e-06	3.080163e-06	2.187814e-08	2.167001e+01	1.432783e+03
2.240000e-06	2.964448e-06	2.171819e-08	2.085592e+01	1.422256e+03
2.250000e-06	2.847453e-06	2.155347e-08	2.003282e+01	1.410732e+03
2.260000e-06	2.729169e-06	2.138078e-08	1.920065e+01	1.398357e+03
2.270000e-06	2.609752e-06	2.120530e-08	1.836051e+01	1.385412e+03
2.280000e-06	2.489374e-06	2.102490e-08	1.751361e+01	1.372226e+03
2.290000e-06	2.368189e-06	2.082900e-08	1.666103e+01	1.359062e+03
2.300000e-06	2.246245e-06	2.062303e-08	1.580311e+01	1.346017e+03
2.310000e-06	2.123592e-06	2.040758e-08	1.494020e+01	1.332976e+03
2.320000e-06	2.000284e-06	2.019057e-08	1.407269e+01	1.319625e+03
2.330000e-06	1.876336e-06	1.996183e-08	1.320068e+01	1.305530e+03
2.340000e-06	1.751654e-06	1.972147e-08	1.232349e+01	1.290263e+03
2.350000e-06	1.626271e-06	1.946670e-08	1.144138e+01	1.273522e+03
2.360000e-06	1.500320e-06	1.920175e-08	1.055527e+01	1.255227e+03
2.370000e-06	1.373900e-06	1.892500e-08	9.665861e+00	1.235542e+03
2.380000e-06	1.247054e-06	1.863437e-08	8.773458e+00	1.214814e+03
2.390000e-06	1.119744e-06	1.832736e-08	7.877786e+00	1.193450e+03
2.400000e-06	9.920118e-07	1.799806e-08	6.979147e+00	1.171758e+03
2.410000e-06	8.639618e-07	1.764964e-08	6.078271e+00	1.149806e+03
2.420000e-06	7.356696e-07	1.728355e-08	5.175691e+00	1.127339e+03
2.430000e-06	6.071492e-07	1.689912e-08	4.271505e+00	1.103797e+03
2.440000e-06	4.783863e-07	1.649272e-08	3.365613e+00	1.078429e+03
2.450000e-06	3.494442e-07	1.605749e-08	2.458461e+00	1.050473e+03
2.460000e-06	2.203514e-07	1.559106e-08	1.550248e+00	1.019353e+03
2.470000e-06	9.115627e-08	1.509333e-08	6.413160e-01	9.848300e+02
2.480000e-06	-3.808761e-08	1.455696e-08	-2.679596e-01	9.470400e+02
2.490000e-06	-1.673437e-07	1.397260e-08	-1.177321e+00	9.063928e+02
2.500000e-06	-2.965183e-07	1.333671e-08	-2.086109e+00	8.633395e+02
2.510000e-06	-4.256453e-07	1.264467e-08	-2.994562e+00	8.180544e+02
2.520000e-06	-5.547040e-07	1.188597e-08	-3.902535e+00	7.701165e+02
2.530000e-06	-6.835541e-07	1.104996e-08	-4.809040e+00	7.182856e+02
2.540000e-06	-8.121359e-07	1.012076e-08	-5.713657e+00	6.604583e+02
2.550000e-06	-9.404459e-07	9.079303e-09	-6.616363e+00	5.938539e+02
2.560000e-06	-1.068335e-06	7.899324e-09	-7.516108e+00	5.154254e+02
2.570000e-06	-1.195800e-06	6.542836e-09	-8.412867e+00	4.224368e+02
2.580000e-06	-1.322896e-06	4.966165e-09	-9.307033e+00	3.130939e+02
2.590000e-06	-1.449512e-06	3.122138e-09	-1.019782e+01	1.870986e+02
2.600000e-06	-1.575660e-06	9.853817e-10	-1.108531e+01	4.599339e+01
2.610000e-06	-1.701250e-06	-1.399748e-09	-1.196888e+01	-1.067934e+02
2.620000e-06	-1.826044e-06	-3.907331e-09	-1.284686e+01	-2.662367e+02
2.630000e-06	-1.950015e-06	-6.431064e-09	-1.371903e+01	-4.262995e+02
2.640000e-06	-2.073224e-06	-8.883185e-09	-1.458585e+01	-5.807119e+02
2.650000e-06	-2.195619e-06	-1.112112e-08	-1.544694e+01	-7.238001e+02
2.660000e-06	-2.317238e-06	-1.304688e-08	-1.630257e+01	-8.512091e+02
2.670000e-06	-2.438064e-06	-1.465439e-08	-1.715262e+01	-9.603856e+02
2.680000e-06	-2.557944e-06	-1.597799e-08	-1.799602e+01	-1.050742e+03
2.690000e-06	-2.676839e-06	-1.706649e-08	-1.883249e+01	-1.123484e+03
2.700000e-06	-2.794756e-06	-1.796858e-08	-1.966208e+01	-1.181168e+03
2.710000e-06	-2.911506e-06	-1.872284e-08	-2.048345e+01	-1.227083e+03
2.720000e-06	-3.026971e-06	-1.935791e-08	-2.129579e+01	-1.264608e+03
2.730000e-06	-3.141188e-06	-1.989595e-08	-2.209935e+01	-1.296663e+03
2.740000e-06	-3.254156e-06	-2.035626e-08	-2.289412e+01	-1.325359e+03
2.750000e-06	-3.365833e-06	-2.075560e-08	-2.367980e+01	-1.351885e+03
2.760000e-06	-3.476243e-06	-2.110453e-08	-2.445657e+01	-1.376613e+03
2.770000e-06	-3.585399e-06	-2.141414e-08	-2.522453e+01	-1.399371e+03
2.780000e-06	-3.693329e-06	-2.169346e-08	-2.598385e+01	-1.419769e+03
2.790000e-06	-3.800115e-06	-2.194589e-08	-2.673513e+01	-1.437509e+03
2.800000e-06	-3.905645e-06	-2.217676e-08	-2.747757e+01	-1.452583e+03
2.810000e-06	-4.009760e-06	-2.239147e-08	-2.821005e+01	-1.465335e+03
2.820000e-06	-4.112391e-06	-2.258896e-08	-2.893210e+01	-1.476387e+03
2.830000e-06	-4.213483e-06	-2.276827e-08	-2.964331e+01	-1.486476e+03
2.840000e-06	-4.313074e-06	-2.293339e-08	-3.034397e+01	-1.496259e+03
2.850000e-06	-4.411227e-06	-2.308700e-08	-3.103451e+01	-1.506154e+03
2.860000e-06	-4.507873e-06	-2.323131e-08	-3.171445e+01	-1.516259e+03
2.870000e-06	-4.602897e-06	-2.336668e-08	-3.238298e+01	-1.526375e+03
2.880000e-06	-4.696233e-06	-2.349290e-08	-3.303963e+01	-1.536110e+03
2.890000e-06	-4.787863e-06	-2.361046e-08	-3.368428e+01	-1.545031e+03
2.900000e-06	-4.877825e-06	-2.371993e-08	-3.431719e+01	-1.552820e+03
2.910000e-06	-4.966082e-06	-2.382147e-08	-3.493811e+01	-1.559377e+03
2.920000e-06	-5.052432e-06	-2.391613e-08	-3.554561e+01	-1.564852e+03
2.930000e-06	-5.136825e-06	-2.400507e-08	-3.613935e+01	-1.569596e+03
2.940000e-06	-5.219398e-06	-2.409022e-08	-3.672027e+01	-1.574051e+03
