# Temperatura_=_31.55
# Concentracion g/m^3_=_41000.0
# C_Vs_to_Am_M_A/Vsm_=_65563218390.804596
# pendiente_HvsI_1/m_=_3716.3
# ordenada_HvsI_A/m_=_1297.0
# frecuencia_Hz_=_302002.36184992775

Tiempo_(s)	Campo_(V.s)	Magnetizacion_(V.s)	Campo_(kA/m)	Magnetizacion_(A/m)
0.000000e+00	-6.732524e-06	-2.511284e-08	-4.746931e+01	-1.643310e+03
1.000000e-08	-6.729222e-06	-2.511349e-08	-4.744603e+01	-1.643739e+03
2.000000e-08	-6.723704e-06	-2.510234e-08	-4.740712e+01	-1.643976e+03
3.000000e-08	-6.716085e-06	-2.509065e-08	-4.735340e+01	-1.643814e+03
4.000000e-08	-6.706198e-06	-2.507788e-08	-4.728369e+01	-1.643138e+03
5.000000e-08	-6.693872e-06	-2.506114e-08	-4.719678e+01	-1.641963e+03
6.000000e-08	-6.679029e-06	-2.503892e-08	-4.709213e+01	-1.640429e+03
7.000000e-08	-6.661848e-06	-2.500547e-08	-4.697099e+01	-1.638759e+03
8.000000e-08	-6.642567e-06	-2.502254e-08	-4.683505e+01	-1.637189e+03
9.000000e-08	-6.620903e-06	-2.509780e-08	-4.668230e+01	-1.635899e+03
1.000000e-07	-6.596463e-06	-2.504338e-08	-4.650997e+01	-1.634955e+03
1.100000e-07	-6.569335e-06	-2.496359e-08	-4.631870e+01	-1.634294e+03
1.200000e-07	-6.539947e-06	-2.495907e-08	-4.611150e+01	-1.633740e+03
1.300000e-07	-6.508667e-06	-2.487344e-08	-4.589095e+01	-1.633066e+03
1.400000e-07	-6.475611e-06	-2.476571e-08	-4.565788e+01	-1.632060e+03
1.500000e-07	-6.440563e-06	-2.493475e-08	-4.541077e+01	-1.630587e+03
1.600000e-07	-6.403402e-06	-2.488802e-08	-4.514875e+01	-1.628636e+03
1.700000e-07	-6.364278e-06	-2.473908e-08	-4.487290e+01	-1.626311e+03
1.800000e-07	-6.322889e-06	-2.487064e-08	-4.458108e+01	-1.623800e+03
1.900000e-07	-6.279005e-06	-2.470928e-08	-4.427166e+01	-1.621308e+03
2.000000e-07	-6.232847e-06	-2.466919e-08	-4.394621e+01	-1.618992e+03
2.100000e-07	-6.184266e-06	-2.472808e-08	-4.360368e+01	-1.616906e+03
2.200000e-07	-6.133002e-06	-2.461198e-08	-4.324223e+01	-1.614983e+03
2.300000e-07	-6.079227e-06	-2.460975e-08	-4.286308e+01	-1.613054e+03
2.400000e-07	-6.023131e-06	-2.455271e-08	-4.246756e+01	-1.610903e+03
2.500000e-07	-5.964709e-06	-2.448908e-08	-4.205564e+01	-1.608330e+03
2.600000e-07	-5.904047e-06	-2.446289e-08	-4.162793e+01	-1.605222e+03
2.700000e-07	-5.841312e-06	-2.439372e-08	-4.118560e+01	-1.601584e+03
2.800000e-07	-5.776466e-06	-2.434808e-08	-4.072839e+01	-1.597542e+03
2.900000e-07	-5.709376e-06	-2.428362e-08	-4.025535e+01	-1.593304e+03
3.000000e-07	-5.640118e-06	-2.425699e-08	-3.976704e+01	-1.589093e+03
3.100000e-07	-5.568808e-06	-2.417946e-08	-3.926424e+01	-1.585078e+03
3.200000e-07	-5.495426e-06	-2.411588e-08	-3.874685e+01	-1.581316e+03
3.300000e-07	-5.419802e-06	-2.406432e-08	-3.821364e+01	-1.577737e+03
3.400000e-07	-5.341970e-06	-2.395787e-08	-3.766487e+01	-1.574159e+03
3.500000e-07	-5.262039e-06	-2.391558e-08	-3.710129e+01	-1.570345e+03
3.600000e-07	-5.180117e-06	-2.384336e-08	-3.652368e+01	-1.566078e+03
3.700000e-07	-5.096436e-06	-2.376916e-08	-3.593367e+01	-1.561229e+03
3.800000e-07	-5.011087e-06	-2.369880e-08	-3.533189e+01	-1.555798e+03
3.900000e-07	-4.924187e-06	-2.361318e-08	-3.471918e+01	-1.549913e+03
4.000000e-07	-4.835648e-06	-2.352524e-08	-3.409492e+01	-1.543793e+03
4.100000e-07	-4.745285e-06	-2.343640e-08	-3.345779e+01	-1.537676e+03
4.200000e-07	-4.653194e-06	-2.336249e-08	-3.280848e+01	-1.531742e+03
4.300000e-07	-4.559499e-06	-2.326649e-08	-3.214787e+01	-1.526052e+03
4.400000e-07	-4.464315e-06	-2.316907e-08	-3.147674e+01	-1.520521e+03
4.500000e-07	-4.367456e-06	-2.306953e-08	-3.079382e+01	-1.514946e+03
4.600000e-07	-4.268836e-06	-2.296386e-08	-3.009848e+01	-1.509060e+03
4.700000e-07	-4.168726e-06	-2.286270e-08	-2.939262e+01	-1.502615e+03
4.800000e-07	-4.067260e-06	-2.275571e-08	-2.867721e+01	-1.495462e+03
4.900000e-07	-3.964457e-06	-2.264460e-08	-2.795238e+01	-1.487597e+03
5.000000e-07	-3.860137e-06	-2.252300e-08	-2.721684e+01	-1.479162e+03
5.100000e-07	-3.754313e-06	-2.239752e-08	-2.647070e+01	-1.470404e+03
5.200000e-07	-3.647128e-06	-2.226886e-08	-2.571497e+01	-1.461591e+03
5.300000e-07	-3.538587e-06	-2.213765e-08	-2.494967e+01	-1.452924e+03
5.400000e-07	-3.428765e-06	-2.200501e-08	-2.417535e+01	-1.444466e+03
5.500000e-07	-3.317756e-06	-2.186686e-08	-2.339265e+01	-1.436107e+03
5.600000e-07	-3.205463e-06	-2.172271e-08	-2.260090e+01	-1.427594e+03
5.700000e-07	-3.091797e-06	-2.156709e-08	-2.179947e+01	-1.418599e+03
5.800000e-07	-2.976778e-06	-2.140499e-08	-2.098850e+01	-1.408815e+03
5.900000e-07	-2.860498e-06	-2.123966e-08	-2.016864e+01	-1.398053e+03
6.000000e-07	-2.743145e-06	-2.106822e-08	-1.934122e+01	-1.386300e+03
6.100000e-07	-2.624817e-06	-2.089079e-08	-1.850692e+01	-1.373729e+03
6.200000e-07	-2.505587e-06	-2.070656e-08	-1.766625e+01	-1.360639e+03
6.300000e-07	-2.385333e-06	-2.051470e-08	-1.681838e+01	-1.347362e+03
6.400000e-07	-2.264070e-06	-2.031370e-08	-1.596338e+01	-1.334149e+03
6.500000e-07	-2.142096e-06	-2.010618e-08	-1.510337e+01	-1.321069e+03
6.600000e-07	-2.019502e-06	-1.989164e-08	-1.423899e+01	-1.307976e+03
6.700000e-07	-1.896129e-06	-1.966736e-08	-1.336912e+01	-1.294526e+03
6.800000e-07	-1.771932e-06	-1.943084e-08	-1.249344e+01	-1.280271e+03
6.900000e-07	-1.647077e-06	-1.918063e-08	-1.161312e+01	-1.264785e+03
7.000000e-07	-1.521704e-06	-1.892057e-08	-1.072915e+01	-1.247789e+03
7.100000e-07	-1.395892e-06	-1.864994e-08	-9.842078e+00	-1.229236e+03
7.200000e-07	-1.269700e-06	-1.836945e-08	-8.952328e+00	-1.209329e+03
7.300000e-07	-1.143142e-06	-1.807697e-08	-8.060005e+00	-1.188444e+03
7.400000e-07	-1.016282e-06	-1.776593e-08	-7.165546e+00	-1.167000e+03
7.500000e-07	-8.891218e-07	-1.743478e-08	-6.268971e+00	-1.145296e+03
7.600000e-07	-7.616070e-07	-1.708515e-08	-5.369897e+00	-1.123368e+03
7.700000e-07	-6.337782e-07	-1.671535e-08	-4.468608e+00	-1.100921e+03
7.800000e-07	-5.057024e-07	-1.632472e-08	-3.565579e+00	-1.077354e+03
7.900000e-07	-3.774377e-07	-1.591296e-08	-2.661217e+00	-1.051887e+03
8.000000e-07	-2.489613e-07	-1.547460e-08	-1.755362e+00	-1.023753e+03
8.100000e-07	-1.202804e-07	-1.500285e-08	-8.480667e-01	-9.924021e+02
8.200000e-07	8.470614e-09	-1.449494e-08	5.972414e-02	-9.576392e+02
8.300000e-07	1.371886e-07	-1.395015e-08	9.672821e-01	-9.196562e+02
8.400000e-07	2.658891e-07	-1.336535e-08	1.874716e+00	-8.789146e+02
8.500000e-07	3.945255e-07	-1.273226e-08	2.781698e+00	-8.358956e+02
8.600000e-07	5.230038e-07	-1.204028e-08	3.687566e+00	-7.907732e+02
8.700000e-07	6.512805e-07	-1.127963e-08	4.592013e+00	-7.430938e+02
8.800000e-07	7.793132e-07	-1.043915e-08	5.494738e+00	-6.915610e+02
8.900000e-07	9.071532e-07	-9.504054e-09	6.396106e+00	-6.340097e+02
9.000000e-07	1.034675e-06	-8.456098e-09	7.295229e+00	-5.676140e+02
9.100000e-07	1.161760e-06	-7.265574e-09	8.191276e+00	-4.893201e+02
9.200000e-07	1.288421e-06	-5.894710e-09	9.084330e+00	-3.964363e+02
9.300000e-07	1.414672e-06	-4.301847e-09	9.974490e+00	-2.872668e+02
9.400000e-07	1.540520e-06	-2.446893e-09	1.086181e+01	-1.616525e+02
9.500000e-07	1.665909e-06	-3.164097e-10	1.174590e+01	-2.129090e+01
9.600000e-07	1.790758e-06	2.030459e-09	1.262618e+01	1.302513e+02
9.700000e-07	1.914913e-06	4.475348e-09	1.350157e+01	2.878612e+02
9.800000e-07	2.038316e-06	6.927022e-09	1.437164e+01	4.454905e+02
9.900000e-07	2.160986e-06	9.280854e-09	1.523656e+01	5.969471e+02
1.000000e-06	2.282938e-06	1.140000e-08	1.609642e+01	7.367194e+02
1.010000e-06	2.404042e-06	1.321439e-08	1.695029e+01	8.606766e+02
1.020000e-06	2.524054e-06	1.472941e-08	1.779646e+01	9.665172e+02
1.030000e-06	2.642975e-06	1.598275e-08	1.863494e+01	1.053891e+03
1.040000e-06	2.760984e-06	1.701930e-08	1.946699e+01	1.124189e+03
1.050000e-06	2.878076e-06	1.788249e-08	2.029258e+01	1.180075e+03
1.060000e-06	2.994053e-06	1.860512e-08	2.111030e+01	1.224850e+03
1.070000e-06	3.108820e-06	1.921749e-08	2.191949e+01	1.261823e+03
1.080000e-06	3.222323e-06	1.974259e-08	2.271978e+01	1.293779e+03
1.090000e-06	3.334484e-06	2.019424e-08	2.351059e+01	1.322662e+03
1.100000e-06	3.445399e-06	2.058671e-08	2.429263e+01	1.349498e+03
1.110000e-06	3.555244e-06	2.093343e-08	2.506712e+01	1.374525e+03
1.120000e-06	3.664021e-06	2.124476e-08	2.583408e+01	1.397490e+03
1.130000e-06	3.771582e-06	2.152714e-08	2.659246e+01	1.417976e+03
1.140000e-06	3.877808e-06	2.178387e-08	2.734143e+01	1.435707e+03
1.150000e-06	3.982533e-06	2.201762e-08	2.807982e+01	1.450726e+03
1.160000e-06	4.085722e-06	2.223125e-08	2.880738e+01	1.463436e+03
1.170000e-06	4.187556e-06	2.242755e-08	2.952539e+01	1.474508e+03
1.180000e-06	4.287994e-06	2.260928e-08	3.023355e+01	1.484701e+03
1.190000e-06	4.386883e-06	2.277820e-08	3.093079e+01	1.494668e+03
1.200000e-06	4.484105e-06	2.293720e-08	3.161628e+01	1.504794e+03
1.210000e-06	4.579547e-06	2.308333e-08	3.228921e+01	1.515136e+03
1.220000e-06	4.673374e-06	2.321940e-08	3.295077e+01	1.525452e+03
1.230000e-06	4.765750e-06	2.334660e-08	3.360209e+01	1.535321e+03
1.240000e-06	4.856542e-06	2.346553e-08	3.424224e+01	1.544301e+03
1.250000e-06	4.945485e-06	2.357491e-08	3.486935e+01	1.552088e+03
1.260000e-06	5.032551e-06	2.367830e-08	3.548323e+01	1.558610e+03
1.270000e-06	5.117878e-06	2.377820e-08	3.608485e+01	1.564050e+03
1.280000e-06	5.201463e-06	2.387134e-08	3.667419e+01	1.568789e+03
1.290000e-06	5.283188e-06	2.395896e-08	3.725041e+01	1.573284e+03
1.300000e-06	5.362901e-06	2.403937e-08	3.781244e+01	1.577939e+03
1.310000e-06	5.440634e-06	2.411548e-08	3.836052e+01	1.582989e+03
1.320000e-06	5.516364e-06	2.418715e-08	3.889448e+01	1.588449e+03
1.330000e-06	5.589876e-06	2.425591e-08	3.941279e+01	1.594122e+03
1.340000e-06	5.661230e-06	2.432326e-08	3.991589e+01	1.599681e+03
1.350000e-06	5.730635e-06	2.438765e-08	4.040524e+01	1.604779e+03
1.360000e-06	5.798091e-06	2.445019e-08	4.088086e+01	1.609158e+03
1.370000e-06	5.863407e-06	2.450963e-08	4.134139e+01	1.612730e+03
1.380000e-06	5.926575e-06	2.456550e-08	4.178677e+01	1.615597e+03
1.390000e-06	5.987836e-06	2.461723e-08	4.221870e+01	1.618013e+03
1.400000e-06	6.047149e-06	2.466461e-08	4.263691e+01	1.620298e+03
1.410000e-06	6.104202e-06	2.470834e-08	4.303917e+01	1.622742e+03
1.420000e-06	6.159011e-06	2.474805e-08	4.342562e+01	1.625513e+03
1.430000e-06	6.211553e-06	2.478640e-08	4.379608e+01	1.628612e+03
1.440000e-06	6.261573e-06	2.482428e-08	4.414875e+01	1.631880e+03
1.450000e-06	6.309099e-06	2.485946e-08	4.448385e+01	1.635056e+03
1.460000e-06	6.354421e-06	2.489232e-08	4.480340e+01	1.637862e+03
1.470000e-06	6.397638e-06	2.492404e-08	4.510811e+01	1.640092e+03
1.480000e-06	6.438429e-06	2.495272e-08	4.539572e+01	1.641677e+03
1.490000e-06	6.476864e-06	2.497557e-08	4.566672e+01	1.642703e+03
1.500000e-06	6.513248e-06	2.499623e-08	4.592325e+01	1.643384e+03
1.510000e-06	6.547355e-06	2.501578e-08	4.616373e+01	1.643989e+03
1.520000e-06	6.578992e-06	2.503400e-08	4.638679e+01	1.644763e+03
1.530000e-06	6.608375e-06	2.505249e-08	4.659397e+01	1.645850e+03
1.540000e-06	6.635565e-06	2.506934e-08	4.678567e+01	1.647251e+03
1.550000e-06	6.660237e-06	2.508466e-08	4.695963e+01	1.648831e+03
1.560000e-06	6.682409e-06	2.509793e-08	4.711596e+01	1.650365e+03
1.570000e-06	6.702404e-06	2.510932e-08	4.725694e+01	1.651612e+03
1.580000e-06	6.720027e-06	2.512162e-08	4.738119e+01	1.652391e+03
1.590000e-06	6.735085e-06	2.513267e-08	4.748737e+01	1.652640e+03
1.600000e-06	6.747635e-06	2.514029e-08	4.757585e+01	1.652435e+03
1.610000e-06	6.757519e-06	2.514447e-08	4.764554e+01	1.651959e+03
1.620000e-06	6.764797e-06	2.514660e-08	4.769686e+01	1.651452e+03
1.630000e-06	6.769767e-06	2.514926e-08	4.773190e+01	1.651126e+03
1.640000e-06	6.772338e-06	2.515320e-08	4.775003e+01	1.651103e+03
1.650000e-06	6.772441e-06	2.515944e-08	4.775075e+01	1.651376e+03
1.660000e-06	6.770331e-06	2.515302e-08	4.773588e+01	1.651810e+03
1.670000e-06	6.766117e-06	2.514614e-08	4.770616e+01	1.652189e+03
1.680000e-06	6.759575e-06	2.514278e-08	4.766004e+01	1.652279e+03
1.690000e-06	6.750796e-06	2.513462e-08	4.759814e+01	1.651905e+03
1.700000e-06	6.739910e-06	2.512704e-08	4.752139e+01	1.651008e+03
1.710000e-06	6.726650e-06	2.512647e-08	4.742790e+01	1.649658e+03
1.720000e-06	6.711034e-06	2.514526e-08	4.731779e+01	1.648038e+03
1.730000e-06	6.693341e-06	2.509121e-08	4.719304e+01	1.646386e+03
1.740000e-06	6.673411e-06	2.495957e-08	4.705252e+01	1.644923e+03
1.750000e-06	6.650412e-06	2.499254e-08	4.689036e+01	1.643783e+03
1.760000e-06	6.624231e-06	2.502521e-08	4.670576e+01	1.642978e+03
1.770000e-06	6.595630e-06	2.498810e-08	4.650411e+01	1.642391e+03
1.780000e-06	6.564986e-06	2.511797e-08	4.628804e+01	1.641817e+03
1.790000e-06	6.532790e-06	2.505661e-08	4.606104e+01	1.641026e+03
1.800000e-06	6.499142e-06	2.485967e-08	4.582379e+01	1.639832e+03
1.810000e-06	6.463180e-06	2.500098e-08	4.557023e+01	1.638151e+03
1.820000e-06	6.424725e-06	2.486613e-08	4.529909e+01	1.636023e+03
1.830000e-06	6.384129e-06	2.485410e-08	4.501286e+01	1.633595e+03
1.840000e-06	6.341361e-06	2.502773e-08	4.471132e+01	1.631071e+03
1.850000e-06	6.296439e-06	2.477523e-08	4.439459e+01	1.628642e+03
1.860000e-06	6.249148e-06	2.484290e-08	4.406115e+01	1.626428e+03
1.870000e-06	6.199566e-06	2.479947e-08	4.371156e+01	1.624429e+03
1.880000e-06	6.147690e-06	2.468326e-08	4.334579e+01	1.622531e+03
1.890000e-06	6.093069e-06	2.477633e-08	4.296068e+01	1.620536e+03
1.900000e-06	6.036079e-06	2.459990e-08	4.255886e+01	1.618227e+03
1.910000e-06	5.976969e-06	2.464703e-08	4.214208e+01	1.615435e+03
1.920000e-06	5.915592e-06	2.461955e-08	4.170933e+01	1.612094e+03
1.930000e-06	5.852040e-06	2.450735e-08	4.126124e+01	1.608264e+03
1.940000e-06	5.786317e-06	2.451237e-08	4.079785e+01	1.604112e+03
1.950000e-06	5.718511e-06	2.436594e-08	4.031976e+01	1.599863e+03
1.960000e-06	5.648372e-06	2.441130e-08	3.982523e+01	1.595723e+03
1.970000e-06	5.575939e-06	2.429604e-08	3.931452e+01	1.591819e+03
1.980000e-06	5.501506e-06	2.424030e-08	3.878971e+01	1.588154e+03
1.990000e-06	5.424918e-06	2.422628e-08	3.824971e+01	1.584604e+03
2.000000e-06	5.346201e-06	2.409467e-08	3.769470e+01	1.580957e+03
2.010000e-06	5.265495e-06	2.407222e-08	3.712566e+01	1.576974e+03
2.020000e-06	5.183067e-06	2.394267e-08	3.654448e+01	1.572470e+03
2.030000e-06	5.098896e-06	2.391592e-08	3.595101e+01	1.567366e+03
2.040000e-06	5.012743e-06	2.384276e-08	3.534357e+01	1.561720e+03
2.050000e-06	4.924744e-06	2.375266e-08	3.472312e+01	1.555707e+03
2.060000e-06	4.835125e-06	2.367734e-08	3.409123e+01	1.549563e+03
2.070000e-06	4.743977e-06	2.357249e-08	3.344857e+01	1.543511e+03
2.080000e-06	4.651155e-06	2.351080e-08	3.279411e+01	1.537685e+03
2.090000e-06	4.556553e-06	2.338923e-08	3.212709e+01	1.532083e+03
2.100000e-06	4.460312e-06	2.331181e-08	3.144852e+01	1.526567e+03
2.110000e-06	4.362643e-06	2.321068e-08	3.075988e+01	1.520894e+03
2.120000e-06	4.263666e-06	2.311681e-08	3.006202e+01	1.514797e+03
2.130000e-06	4.163135e-06	2.300686e-08	2.935320e+01	1.508061e+03
2.140000e-06	4.060867e-06	2.289041e-08	2.863213e+01	1.500597e+03
2.150000e-06	3.957007e-06	2.278648e-08	2.789985e+01	1.492465e+03
2.160000e-06	3.851700e-06	2.266992e-08	2.715735e+01	1.483861e+03
2.170000e-06	3.745174e-06	2.255861e-08	2.640627e+01	1.475050e+03
2.180000e-06	3.637500e-06	2.242662e-08	2.564709e+01	1.466285e+03
2.190000e-06	3.528465e-06	2.230092e-08	2.487831e+01	1.457712e+03
2.200000e-06	3.418125e-06	2.215613e-08	2.410033e+01	1.449321e+03
2.210000e-06	3.306422e-06	2.201945e-08	2.331274e+01	1.440936e+03
2.220000e-06	3.193391e-06	2.187582e-08	2.251578e+01	1.432261e+03
2.230000e-06	3.079158e-06	2.173244e-08	2.171036e+01	1.422963e+03
2.240000e-06	2.963676e-06	2.157574e-08	2.089612e+01	1.412776e+03
2.250000e-06	2.846889e-06	2.140918e-08	2.007269e+01	1.401581e+03
2.260000e-06	2.728917e-06	2.123462e-08	1.924089e+01	1.389450e+03
2.270000e-06	2.609951e-06	2.105475e-08	1.840210e+01	1.376617e+03
2.280000e-06	2.489895e-06	2.087676e-08	1.755562e+01	1.363411e+03
2.290000e-06	2.368919e-06	2.068548e-08	1.670264e+01	1.350142e+03
2.300000e-06	2.247227e-06	2.048754e-08	1.584463e+01	1.336992e+03
2.310000e-06	2.124867e-06	2.027446e-08	1.498190e+01	1.323940e+03
2.320000e-06	2.001910e-06	2.005608e-08	1.411496e+01	1.310747e+03
2.330000e-06	1.878278e-06	1.982774e-08	1.324326e+01	1.297011e+03
2.340000e-06	1.753871e-06	1.959216e-08	1.236609e+01	1.282278e+03
2.350000e-06	1.628726e-06	1.934496e-08	1.148373e+01	1.266169e+03
2.360000e-06	1.502989e-06	1.908615e-08	1.059719e+01	1.248498e+03
2.370000e-06	1.376864e-06	1.881354e-08	9.707914e+00	1.229330e+03
2.380000e-06	1.250409e-06	1.852565e-08	8.816316e+00	1.208954e+03
2.390000e-06	1.123527e-06	1.822400e-08	7.921699e+00	1.187784e+03
2.400000e-06	9.962119e-07	1.790252e-08	7.024036e+00	1.166207e+03
2.410000e-06	8.684868e-07	1.756767e-08	6.123479e+00	1.144424e+03
2.420000e-06	7.404119e-07	1.721699e-08	5.220455e+00	1.122332e+03
2.430000e-06	6.121092e-07	1.684553e-08	4.315826e+00	1.099495e+03
2.440000e-06	4.836442e-07	1.644959e-08	3.410052e+00	1.075215e+03
2.450000e-06	3.549919e-07	1.602503e-08	2.502957e+00	1.048693e+03
2.460000e-06	2.261117e-07	1.557183e-08	1.594256e+00	1.019232e+03
2.470000e-06	9.711388e-08	1.508986e-08	6.847252e-01	9.864215e+02
2.480000e-06	-3.192553e-08	1.457468e-08	-2.250987e-01	9.502374e+02
2.490000e-06	-1.609417e-07	1.401614e-08	-1.134759e+00	9.110100e+02
2.500000e-06	-2.899014e-07	1.340992e-08	-2.044021e+00	8.692458e+02
2.510000e-06	-4.188111e-07	1.275095e-08	-2.952930e+00	8.253365e+02
2.520000e-06	-5.476150e-07	1.203186e-08	-3.861094e+00	7.792222e+02
2.530000e-06	-6.762379e-07	1.124359e-08	-4.767981e+00	7.301050e+02
2.540000e-06	-8.046078e-07	1.036980e-08	-5.673084e+00	6.763063e+02
2.550000e-06	-9.327229e-07	9.395268e-09	-6.576391e+00	6.153384e+02
2.560000e-06	-1.060438e-06	8.297710e-09	-7.476875e+00	5.442133e+02
2.570000e-06	-1.187607e-06	7.043930e-09	-8.373516e+00	4.599547e+02
2.580000e-06	-1.314346e-06	5.595668e-09	-9.267120e+00	3.602222e+02
2.590000e-06	-1.440679e-06	3.912220e-09	-1.015786e+01	2.439228e+02
2.600000e-06	-1.566577e-06	1.957201e-09	-1.104553e+01	1.116702e+02
2.610000e-06	-1.691983e-06	-2.713673e-10	-1.192974e+01	-3.401850e+01
2.620000e-06	-1.816617e-06	-2.702305e-09	-1.280850e+01	-1.888560e+02
2.630000e-06	-1.940361e-06	-5.216005e-09	-1.368099e+01	-3.472401e+02
2.640000e-06	-2.063286e-06	-7.693657e-09	-1.454770e+01	-5.029582e+02
2.650000e-06	-2.185437e-06	-1.000099e-08	-1.540896e+01	-6.500130e+02
2.660000e-06	-2.306840e-06	-1.202843e-08	-1.626494e+01	-7.834110e+02
2.670000e-06	-2.427390e-06	-1.374529e-08	-1.711491e+01	-8.997686e+02
2.680000e-06	-2.546970e-06	-1.517303e-08	-1.795804e+01	-9.976254e+02
2.690000e-06	-2.665612e-06	-1.635404e-08	-1.879455e+01	-1.077421e+03
2.700000e-06	-2.783274e-06	-1.733344e-08	-1.962415e+01	-1.141162e+03
2.710000e-06	-2.899759e-06	-1.815262e-08	-2.044546e+01	-1.191864e+03
2.720000e-06	-3.014987e-06	-1.884299e-08	-2.125791e+01	-1.232909e+03
2.730000e-06	-3.128981e-06	-1.942838e-08	-2.206165e+01	-1.267432e+03
2.740000e-06	-3.241733e-06	-1.992651e-08	-2.285663e+01	-1.297886e+03
2.750000e-06	-3.353146e-06	-2.035558e-08	-2.364218e+01	-1.325815e+03
2.760000e-06	-3.463241e-06	-2.073107e-08	-2.441843e+01	-1.351880e+03
2.770000e-06	-3.572167e-06	-2.106232e-08	-2.518644e+01	-1.376069e+03
2.780000e-06	-3.679956e-06	-2.136020e-08	-2.594643e+01	-1.398018e+03
2.790000e-06	-3.786594e-06	-2.162985e-08	-2.669831e+01	-1.417339e+03
2.800000e-06	-3.892012e-06	-2.187489e-08	-2.744158e+01	-1.433878e+03
2.810000e-06	-3.996004e-06	-2.210072e-08	-2.817480e+01	-1.447837e+03
2.820000e-06	-4.098414e-06	-2.230928e-08	-2.889687e+01	-1.459750e+03
2.830000e-06	-4.199262e-06	-2.249887e-08	-2.960792e+01	-1.470352e+03
2.840000e-06	-4.298628e-06	-2.267261e-08	-3.030853e+01	-1.480379e+03
2.850000e-06	-4.396604e-06	-2.283455e-08	-3.099933e+01	-1.490383e+03
2.860000e-06	-4.493144e-06	-2.298640e-08	-3.168001e+01	-1.500612e+03
2.870000e-06	-4.588109e-06	-2.312990e-08	-3.234959e+01	-1.510984e+03
2.880000e-06	-4.681357e-06	-2.326338e-08	-3.300706e+01	-1.521162e+03
2.890000e-06	-4.772855e-06	-2.338728e-08	-3.365218e+01	-1.530697e+03
2.900000e-06	-4.862723e-06	-2.350167e-08	-3.428582e+01	-1.539189e+03
2.910000e-06	-4.950864e-06	-2.360908e-08	-3.490728e+01	-1.546425e+03
2.920000e-06	-5.037070e-06	-2.371091e-08	-3.551509e+01	-1.552444e+03
2.930000e-06	-5.121345e-06	-2.380623e-08	-3.610929e+01	-1.557527e+03
2.940000e-06	-5.203855e-06	-2.389582e-08	-3.669105e+01	-1.562103e+03
