# Temperatura_=_63.8
# Concentracion g/m^3_=_41000.0
# C_Vs_to_Am_M_A/Vsm_=_65563218390.804596
# pendiente_HvsI_1/m_=_3716.3
# ordenada_HvsI_A/m_=_1297.0
# frecuencia_Hz_=_302002.3670505863

Tiempo_(s)	Campo_(V.s)	Magnetizacion_(V.s)	Campo_(kA/m)	Magnetizacion_(A/m)
0.000000e+00	-6.711332e-06	-2.088381e-08	-4.746233e+01	-1.368055e+03
1.000000e-08	-6.707933e-06	-2.088485e-08	-4.743829e+01	-1.368058e+03
2.000000e-08	-6.702313e-06	-2.087960e-08	-4.739854e+01	-1.367565e+03
3.000000e-08	-6.694618e-06	-2.087302e-08	-4.734412e+01	-1.366600e+03
4.000000e-08	-6.684654e-06	-2.086272e-08	-4.727366e+01	-1.365305e+03
5.000000e-08	-6.672209e-06	-2.084689e-08	-4.718565e+01	-1.363894e+03
6.000000e-08	-6.657300e-06	-2.082374e-08	-4.708022e+01	-1.362587e+03
7.000000e-08	-6.640106e-06	-2.079169e-08	-4.695862e+01	-1.361544e+03
8.000000e-08	-6.620785e-06	-2.080612e-08	-4.682198e+01	-1.360815e+03
9.000000e-08	-6.599028e-06	-2.086369e-08	-4.666812e+01	-1.360328e+03
1.000000e-07	-6.574533e-06	-2.081631e-08	-4.649489e+01	-1.359915e+03
1.100000e-07	-6.547422e-06	-2.075171e-08	-4.630316e+01	-1.359365e+03
1.200000e-07	-6.518030e-06	-2.074361e-08	-4.609530e+01	-1.358491e+03
1.300000e-07	-6.486747e-06	-2.066867e-08	-4.587407e+01	-1.357192e+03
1.400000e-07	-6.453692e-06	-2.059180e-08	-4.564031e+01	-1.355480e+03
1.500000e-07	-6.418658e-06	-2.072422e-08	-4.539254e+01	-1.353476e+03
1.600000e-07	-6.381599e-06	-2.066162e-08	-4.513046e+01	-1.351373e+03
1.700000e-07	-6.342599e-06	-2.054583e-08	-4.485466e+01	-1.349366e+03
1.800000e-07	-6.301255e-06	-2.064159e-08	-4.456228e+01	-1.347593e+03
1.900000e-07	-6.257389e-06	-2.051839e-08	-4.425205e+01	-1.346085e+03
2.000000e-07	-6.211292e-06	-2.051663e-08	-4.392606e+01	-1.344753e+03
2.100000e-07	-6.162792e-06	-2.054561e-08	-4.358307e+01	-1.343415e+03
2.200000e-07	-6.111634e-06	-2.042706e-08	-4.322128e+01	-1.341850e+03
2.300000e-07	-6.057952e-06	-2.042013e-08	-4.284164e+01	-1.339865e+03
2.400000e-07	-6.001949e-06	-2.037691e-08	-4.244559e+01	-1.337356e+03
2.500000e-07	-5.943629e-06	-2.032832e-08	-4.203316e+01	-1.334345e+03
2.600000e-07	-5.883072e-06	-2.030327e-08	-4.160490e+01	-1.330965e+03
2.700000e-07	-5.820457e-06	-2.024281e-08	-4.116209e+01	-1.327427e+03
2.800000e-07	-5.755693e-06	-2.019004e-08	-4.070408e+01	-1.323951e+03
2.900000e-07	-5.688667e-06	-2.012500e-08	-4.023007e+01	-1.320694e+03
3.000000e-07	-5.619539e-06	-2.011651e-08	-3.974120e+01	-1.317703e+03
3.100000e-07	-5.548375e-06	-2.006759e-08	-3.923793e+01	-1.314896e+03
3.200000e-07	-5.475115e-06	-2.000060e-08	-3.871984e+01	-1.312086e+03
3.300000e-07	-5.399654e-06	-1.993716e-08	-3.818618e+01	-1.309041e+03
3.400000e-07	-5.322038e-06	-1.985493e-08	-3.763728e+01	-1.305555e+03
3.500000e-07	-5.242301e-06	-1.981902e-08	-3.707338e+01	-1.301512e+03
3.600000e-07	-5.160525e-06	-1.975110e-08	-3.649507e+01	-1.296928e+03
3.700000e-07	-5.077050e-06	-1.969334e-08	-3.590474e+01	-1.291942e+03
3.800000e-07	-4.991974e-06	-1.963130e-08	-3.530308e+01	-1.286776e+03
3.900000e-07	-4.905301e-06	-1.954411e-08	-3.469014e+01	-1.281667e+03
4.000000e-07	-4.816934e-06	-1.946458e-08	-3.406520e+01	-1.276784e+03
4.100000e-07	-4.726753e-06	-1.939828e-08	-3.342745e+01	-1.272179e+03
4.200000e-07	-4.634883e-06	-1.933469e-08	-3.277774e+01	-1.267759e+03
4.300000e-07	-4.541441e-06	-1.924395e-08	-3.211693e+01	-1.263318e+03
4.400000e-07	-4.446507e-06	-1.915612e-08	-3.144556e+01	-1.258591e+03
4.500000e-07	-4.349977e-06	-1.906863e-08	-3.076290e+01	-1.253345e+03
4.600000e-07	-4.251715e-06	-1.897624e-08	-3.006799e+01	-1.247441e+03
4.700000e-07	-4.151871e-06	-1.889026e-08	-2.936190e+01	-1.240889e+03
4.800000e-07	-4.050575e-06	-1.880219e-08	-2.864553e+01	-1.233843e+03
4.900000e-07	-3.947879e-06	-1.870489e-08	-2.791928e+01	-1.226552e+03
5.000000e-07	-3.843818e-06	-1.859512e-08	-2.718336e+01	-1.219282e+03
5.100000e-07	-3.738347e-06	-1.848529e-08	-2.643747e+01	-1.212227e+03
5.200000e-07	-3.631422e-06	-1.837327e-08	-2.568130e+01	-1.205445e+03
5.300000e-07	-3.523091e-06	-1.825745e-08	-2.491519e+01	-1.198824e+03
5.400000e-07	-3.413524e-06	-1.814004e-08	-2.414034e+01	-1.192112e+03
5.500000e-07	-3.302810e-06	-1.801892e-08	-2.335737e+01	-1.184990e+03
5.600000e-07	-3.190901e-06	-1.789306e-08	-2.256595e+01	-1.177164e+03
5.700000e-07	-3.077651e-06	-1.776234e-08	-2.176505e+01	-1.168456e+03
5.800000e-07	-2.962944e-06	-1.762766e-08	-2.095385e+01	-1.158863e+03
5.900000e-07	-2.846912e-06	-1.748535e-08	-2.013327e+01	-1.148557e+03
6.000000e-07	-2.729822e-06	-1.733438e-08	-1.930521e+01	-1.137832e+03
6.100000e-07	-2.611826e-06	-1.717893e-08	-1.847075e+01	-1.127009e+03
6.200000e-07	-2.492916e-06	-1.701846e-08	-1.762982e+01	-1.116323e+03
6.300000e-07	-2.373073e-06	-1.684986e-08	-1.678229e+01	-1.105837e+03
6.400000e-07	-2.252328e-06	-1.667275e-08	-1.592839e+01	-1.095408e+03
6.500000e-07	-2.130741e-06	-1.648652e-08	-1.506853e+01	-1.084706e+03
6.600000e-07	-2.008406e-06	-1.629179e-08	-1.420339e+01	-1.073310e+03
6.700000e-07	-1.885342e-06	-1.609234e-08	-1.333308e+01	-1.060827e+03
6.800000e-07	-1.761506e-06	-1.588695e-08	-1.245732e+01	-1.047011e+03
6.900000e-07	-1.637033e-06	-1.566974e-08	-1.157704e+01	-1.031843e+03
7.000000e-07	-1.512088e-06	-1.543997e-08	-1.069344e+01	-1.015538e+03
7.100000e-07	-1.386735e-06	-1.519944e-08	-9.806947e+00	-9.984716e+02
7.200000e-07	-1.260990e-06	-1.494769e-08	-8.917685e+00	-9.810536e+02
7.300000e-07	-1.134793e-06	-1.468259e-08	-8.025221e+00	-9.635683e+02
7.400000e-07	-1.008191e-06	-1.440391e-08	-7.129897e+00	-9.460449e+02
7.500000e-07	-8.812614e-07	-1.410900e-08	-6.232253e+00	-9.281945e+02
7.600000e-07	-7.540613e-07	-1.379302e-08	-5.332698e+00	-9.094416e+02
7.700000e-07	-6.266565e-07	-1.345515e-08	-4.431695e+00	-8.890485e+02
7.800000e-07	-4.990689e-07	-1.309851e-08	-3.529399e+00	-8.662988e+02
7.900000e-07	-3.712722e-07	-1.271819e-08	-2.625625e+00	-8.406877e+02
8.000000e-07	-2.432532e-07	-1.230705e-08	-1.720279e+00	-8.120529e+02
8.100000e-07	-1.150956e-07	-1.186094e-08	-8.139526e-01	-7.805951e+02
8.200000e-07	1.313837e-08	-1.137638e-08	9.291415e-02	-7.467622e+02
8.300000e-07	1.414416e-07	-1.084858e-08	1.000271e+00	-7.110107e+02
8.400000e-07	2.697220e-07	-1.027056e-08	1.907466e+00	-6.734987e+02
8.500000e-07	3.978465e-07	-9.634249e-09	2.813558e+00	-6.337908e+02
8.600000e-07	5.258648e-07	-8.926737e-09	3.718900e+00	-5.906679e+02
8.700000e-07	6.537843e-07	-8.131054e-09	4.623542e+00	-5.421168e+02
8.800000e-07	7.814657e-07	-7.231235e-09	5.526500e+00	-4.855384e+02
8.900000e-07	9.088695e-07	-6.204259e-09	6.427496e+00	-4.181616e+02
9.000000e-07	1.035971e-06	-5.016526e-09	7.326357e+00	-3.375959e+02
9.100000e-07	1.162723e-06	-3.630545e-09	8.222743e+00	-2.424121e+02
9.200000e-07	1.289114e-06	-2.015118e-09	9.116573e+00	-1.326264e+02
9.300000e-07	1.415064e-06	-1.587433e-10	1.000729e+01	-9.968664e+00
9.400000e-07	1.540511e-06	1.905613e-09	1.089445e+01	1.221394e+02
9.500000e-07	1.665523e-06	4.083026e-09	1.177853e+01	2.589150e+02
9.600000e-07	1.790069e-06	6.239537e-09	1.265931e+01	3.948040e+02
9.700000e-07	1.913931e-06	8.244754e-09	1.353526e+01	5.242232e+02
9.800000e-07	2.036983e-06	1.000905e-08	1.440548e+01	6.423158e+02
9.900000e-07	2.159240e-06	1.149713e-08	1.527008e+01	7.455744e+02
1.000000e-06	2.280751e-06	1.272084e-08	1.612940e+01	8.322180e+02
1.010000e-06	2.401388e-06	1.371685e-08	1.698254e+01	9.022605e+02
1.020000e-06	2.521005e-06	1.452507e-08	1.782846e+01	9.572765e+02
1.030000e-06	2.639650e-06	1.518483e-08	1.866752e+01	9.999292e+02
1.040000e-06	2.757333e-06	1.573021e-08	1.949977e+01	1.033375e+03
1.050000e-06	2.873992e-06	1.618800e-08	2.032478e+01	1.060674e+03
1.060000e-06	2.989458e-06	1.657883e-08	2.114135e+01	1.084320e+03
1.070000e-06	3.103673e-06	1.691735e-08	2.194908e+01	1.105975e+03
1.080000e-06	3.216730e-06	1.721328e-08	2.274861e+01	1.126426e+03
1.090000e-06	3.328522e-06	1.747279e-08	2.353920e+01	1.145746e+03
1.100000e-06	3.439110e-06	1.770540e-08	2.432128e+01	1.163577e+03
1.110000e-06	3.548627e-06	1.791614e-08	2.509577e+01	1.179456e+03
1.120000e-06	3.657055e-06	1.810859e-08	2.586258e+01	1.193083e+03
1.130000e-06	3.764224e-06	1.828793e-08	2.662048e+01	1.204481e+03
1.140000e-06	3.870002e-06	1.845451e-08	2.736853e+01	1.214019e+03
1.150000e-06	3.974362e-06	1.860723e-08	2.810657e+01	1.222309e+03
1.160000e-06	4.077214e-06	1.874798e-08	2.883393e+01	1.230034e+03
1.170000e-06	4.178637e-06	1.888022e-08	2.955119e+01	1.237761e+03
1.180000e-06	4.278646e-06	1.900480e-08	3.025845e+01	1.245803e+03
1.190000e-06	4.377147e-06	1.912110e-08	3.095505e+01	1.254166e+03
1.200000e-06	4.474014e-06	1.922951e-08	3.164008e+01	1.262591e+03
1.210000e-06	4.569187e-06	1.932937e-08	3.231315e+01	1.270670e+03
1.220000e-06	4.662800e-06	1.942392e-08	3.297517e+01	1.277998e+03
1.230000e-06	4.754909e-06	1.951351e-08	3.362657e+01	1.284314e+03
1.240000e-06	4.845347e-06	1.959761e-08	3.426614e+01	1.289577e+03
1.250000e-06	4.933941e-06	1.967760e-08	3.489268e+01	1.293985e+03
1.260000e-06	5.020669e-06	1.975513e-08	3.550601e+01	1.297899e+03
1.270000e-06	5.105609e-06	1.983279e-08	3.610670e+01	1.301737e+03
1.280000e-06	5.188864e-06	1.990704e-08	3.669548e+01	1.305844e+03
1.290000e-06	5.270296e-06	1.997604e-08	3.727137e+01	1.310396e+03
1.300000e-06	5.349706e-06	2.004047e-08	3.783295e+01	1.315357e+03
1.310000e-06	5.427102e-06	2.010196e-08	3.838030e+01	1.320504e+03
1.320000e-06	5.502453e-06	2.016031e-08	3.891317e+01	1.325505e+03
1.330000e-06	5.575628e-06	2.021460e-08	3.943066e+01	1.330030e+03
1.340000e-06	5.646713e-06	2.026509e-08	3.993337e+01	1.333854e+03
1.350000e-06	5.715852e-06	2.031350e-08	4.042232e+01	1.336919e+03
1.360000e-06	5.783053e-06	2.036120e-08	4.089756e+01	1.339351e+03
1.370000e-06	5.848171e-06	2.040725e-08	4.135808e+01	1.341411e+03
1.380000e-06	5.911144e-06	2.045046e-08	4.180343e+01	1.343412e+03
1.390000e-06	5.972126e-06	2.049021e-08	4.223468e+01	1.345621e+03
1.400000e-06	6.031142e-06	2.052728e-08	4.265205e+01	1.348179e+03
1.410000e-06	6.087986e-06	2.056215e-08	4.305404e+01	1.351067e+03
1.420000e-06	6.142557e-06	2.059518e-08	4.343997e+01	1.354116e+03
1.430000e-06	6.194787e-06	2.062625e-08	4.380933e+01	1.357067e+03
1.440000e-06	6.244458e-06	2.065607e-08	4.416061e+01	1.359659e+03
1.450000e-06	6.291653e-06	2.068537e-08	4.449437e+01	1.361710e+03
1.460000e-06	6.336669e-06	2.071331e-08	4.481272e+01	1.363170e+03
1.470000e-06	6.379650e-06	2.073876e-08	4.511668e+01	1.364140e+03
1.480000e-06	6.420372e-06	2.076154e-08	4.540467e+01	1.364830e+03
1.490000e-06	6.458747e-06	2.078155e-08	4.567606e+01	1.365498e+03
1.500000e-06	6.494944e-06	2.080017e-08	4.593204e+01	1.366362e+03
1.510000e-06	6.528844e-06	2.081806e-08	4.617178e+01	1.367539e+03
1.520000e-06	6.560345e-06	2.083391e-08	4.639455e+01	1.369009e+03
1.530000e-06	6.589593e-06	2.084796e-08	4.660139e+01	1.370627e+03
1.540000e-06	6.616620e-06	2.086053e-08	4.679252e+01	1.372169e+03
1.550000e-06	6.641144e-06	2.087239e-08	4.696596e+01	1.373412e+03
1.560000e-06	6.663157e-06	2.088324e-08	4.712164e+01	1.374197e+03
1.570000e-06	6.682907e-06	2.089248e-08	4.726130e+01	1.374486e+03
1.580000e-06	6.700267e-06	2.090167e-08	4.738408e+01	1.374369e+03
1.590000e-06	6.715140e-06	2.091022e-08	4.748926e+01	1.374036e+03
1.600000e-06	6.727542e-06	2.091713e-08	4.757696e+01	1.373717e+03
1.610000e-06	6.737284e-06	2.092315e-08	4.764586e+01	1.373606e+03
1.620000e-06	6.744470e-06	2.092728e-08	4.769668e+01	1.373803e+03
1.630000e-06	6.749392e-06	2.093049e-08	4.773148e+01	1.374282e+03
1.640000e-06	6.751990e-06	2.093305e-08	4.774986e+01	1.374897e+03
1.650000e-06	6.752116e-06	2.093490e-08	4.775075e+01	1.375434e+03
1.660000e-06	6.749962e-06	2.092612e-08	4.773551e+01	1.375670e+03
1.670000e-06	6.745692e-06	2.091781e-08	4.770532e+01	1.375449e+03
1.680000e-06	6.739072e-06	2.091323e-08	4.765851e+01	1.374727e+03
1.690000e-06	6.730177e-06	2.090653e-08	4.759560e+01	1.373588e+03
1.700000e-06	6.719163e-06	2.089981e-08	4.751771e+01	1.372211e+03
1.710000e-06	6.705811e-06	2.089777e-08	4.742328e+01	1.370825e+03
1.720000e-06	6.690143e-06	2.090996e-08	4.731248e+01	1.369628e+03
1.730000e-06	6.672441e-06	2.085794e-08	4.718729e+01	1.368733e+03
1.740000e-06	6.652461e-06	2.074778e-08	4.704600e+01	1.368133e+03
1.750000e-06	6.629414e-06	2.077067e-08	4.688301e+01	1.367708e+03
1.760000e-06	6.603254e-06	2.079597e-08	4.669800e+01	1.367259e+03
1.770000e-06	6.574628e-06	2.077533e-08	4.649556e+01	1.366579e+03
1.780000e-06	6.543945e-06	2.087617e-08	4.627857e+01	1.365515e+03
1.790000e-06	6.511773e-06	2.080456e-08	4.605105e+01	1.364017e+03
1.800000e-06	6.478064e-06	2.065141e-08	4.581266e+01	1.362150e+03
1.810000e-06	6.442044e-06	2.076939e-08	4.555793e+01	1.360076e+03
1.820000e-06	6.403642e-06	2.066520e-08	4.528635e+01	1.357997e+03
1.830000e-06	6.363088e-06	2.066524e-08	4.499956e+01	1.356089e+03
1.840000e-06	6.320378e-06	2.076180e-08	4.469751e+01	1.354443e+03
1.850000e-06	6.275581e-06	2.053968e-08	4.438071e+01	1.353036e+03
1.860000e-06	6.228407e-06	2.061658e-08	4.404709e+01	1.351730e+03
1.870000e-06	6.178837e-06	2.059751e-08	4.369654e+01	1.350315e+03
1.880000e-06	6.126997e-06	2.051585e-08	4.332993e+01	1.348576e+03
1.890000e-06	6.072491e-06	2.057067e-08	4.294447e+01	1.346355e+03
1.900000e-06	6.015566e-06	2.040391e-08	4.254189e+01	1.343604e+03
1.910000e-06	5.956548e-06	2.043854e-08	4.212452e+01	1.340400e+03
1.920000e-06	5.895361e-06	2.042999e-08	4.169180e+01	1.336920e+03
1.930000e-06	5.831915e-06	2.035693e-08	4.124312e+01	1.333388e+03
1.940000e-06	5.766232e-06	2.034045e-08	4.077861e+01	1.330001e+03
1.950000e-06	5.698510e-06	2.020372e-08	4.029968e+01	1.326872e+03
1.960000e-06	5.628520e-06	2.023738e-08	3.980472e+01	1.323985e+03
1.970000e-06	5.556243e-06	2.014174e-08	3.929357e+01	1.321205e+03
1.980000e-06	5.481970e-06	2.009810e-08	3.876832e+01	1.318317e+03
1.990000e-06	5.405598e-06	2.008395e-08	3.822822e+01	1.315090e+03
2.000000e-06	5.327064e-06	1.997418e-08	3.767283e+01	1.311353e+03
2.010000e-06	5.246519e-06	1.994027e-08	3.710322e+01	1.307051e+03
2.020000e-06	5.164227e-06	1.982388e-08	3.652125e+01	1.302257e+03
2.030000e-06	5.080227e-06	1.980525e-08	3.592721e+01	1.297159e+03
2.040000e-06	4.994276e-06	1.974661e-08	3.531936e+01	1.291994e+03
2.050000e-06	4.906453e-06	1.966155e-08	3.469828e+01	1.286976e+03
2.060000e-06	4.817024e-06	1.959177e-08	3.406584e+01	1.282226e+03
2.070000e-06	4.726064e-06	1.950817e-08	3.342258e+01	1.277728e+03
2.080000e-06	4.633491e-06	1.945211e-08	3.276790e+01	1.273331e+03
2.090000e-06	4.539178e-06	1.934566e-08	3.210092e+01	1.268792e+03
2.100000e-06	4.443192e-06	1.927314e-08	3.142211e+01	1.263850e+03
2.110000e-06	4.345732e-06	1.918128e-08	3.073288e+01	1.258308e+03
2.120000e-06	4.246878e-06	1.909510e-08	3.003379e+01	1.252095e+03
2.130000e-06	4.146573e-06	1.899948e-08	2.932443e+01	1.245289e+03
2.140000e-06	4.044629e-06	1.890243e-08	2.860349e+01	1.238096e+03
2.150000e-06	3.940981e-06	1.880846e-08	2.787049e+01	1.230785e+03
2.160000e-06	3.835914e-06	1.870819e-08	2.712746e+01	1.223599e+03
2.170000e-06	3.729598e-06	1.861474e-08	2.637560e+01	1.216676e+03
2.180000e-06	3.622122e-06	1.849818e-08	2.561553e+01	1.209993e+03
2.190000e-06	3.513427e-06	1.838456e-08	2.484684e+01	1.203369e+03
2.200000e-06	3.403389e-06	1.825778e-08	2.406866e+01	1.196509e+03
2.210000e-06	3.291905e-06	1.814094e-08	2.328025e+01	1.189093e+03
2.220000e-06	3.179076e-06	1.801383e-08	2.248233e+01	1.180871e+03
2.230000e-06	3.065113e-06	1.788591e-08	2.167638e+01	1.171743e+03
2.240000e-06	2.950024e-06	1.775067e-08	2.086248e+01	1.161789e+03
2.250000e-06	2.833724e-06	1.760355e-08	2.004001e+01	1.151250e+03
2.260000e-06	2.716120e-06	1.744893e-08	1.920832e+01	1.140443e+03
2.270000e-06	2.597371e-06	1.729215e-08	1.836853e+01	1.129664e+03
2.280000e-06	2.477594e-06	1.713626e-08	1.752146e+01	1.119078e+03
2.290000e-06	2.356928e-06	1.696617e-08	1.666812e+01	1.108650e+03
2.300000e-06	2.235548e-06	1.678910e-08	1.580972e+01	1.098144e+03
2.310000e-06	2.113479e-06	1.660396e-08	1.494646e+01	1.087176e+03
2.320000e-06	1.990737e-06	1.641669e-08	1.407843e+01	1.075319e+03
2.330000e-06	1.867365e-06	1.621609e-08	1.320595e+01	1.062236e+03
2.340000e-06	1.743397e-06	1.600527e-08	1.232925e+01	1.047782e+03
2.350000e-06	1.618780e-06	1.578403e-08	1.144796e+01	1.032048e+03
2.360000e-06	1.493570e-06	1.555250e-08	1.056248e+01	1.015339e+03
2.370000e-06	1.367893e-06	1.530985e-08	9.673696e+00	9.980637e+02
2.380000e-06	1.241786e-06	1.505274e-08	8.781870e+00	9.805936e+02
2.390000e-06	1.115262e-06	1.478117e-08	7.887098e+00	9.631072e+02
2.400000e-06	9.883112e-07	1.449154e-08	6.989305e+00	9.454886e+02
2.410000e-06	8.609483e-07	1.418775e-08	6.088599e+00	9.273059e+02
2.420000e-06	7.331765e-07	1.386871e-08	5.185001e+00	9.078880e+02
2.430000e-06	6.051792e-07	1.352981e-08	4.279808e+00	8.864825e+02
2.440000e-06	4.770430e-07	1.316334e-08	3.373633e+00	8.624497e+02
2.450000e-06	3.486883e-07	1.276482e-08	2.465913e+00	8.354333e+02
2.460000e-06	2.200985e-07	1.233634e-08	1.556530e+00	8.054451e+02
2.470000e-06	9.133739e-08	1.187858e-08	6.459351e-01	7.728231e+02
2.480000e-06	-3.741585e-08	1.138487e-08	-2.646037e-01	7.380547e+02
2.490000e-06	-1.661028e-07	1.083855e-08	-1.174674e+00	7.014975e+02
2.500000e-06	-2.947362e-07	1.023282e-08	-2.084365e+00	6.630664e+02
2.510000e-06	-4.233172e-07	9.564633e-09	-2.993686e+00	6.219765e+02
2.520000e-06	-5.517962e-07	8.822534e-09	-3.902285e+00	5.766282e+02
2.530000e-06	-6.801000e-07	7.992021e-09	-4.809645e+00	5.246968e+02
2.540000e-06	-8.081458e-07	7.049838e-09	-5.715182e+00	4.634417e+02
2.550000e-06	-9.358460e-07	5.967575e-09	-6.618273e+00	3.901949e+02
2.560000e-06	-1.063094e-06	4.710954e-09	-7.518166e+00	3.029429e+02
2.570000e-06	-1.189874e-06	3.243835e-09	-8.414748e+00	2.008783e+02
2.580000e-06	-1.316225e-06	1.539636e-09	-9.308302e+00	8.479571e+01
2.590000e-06	-1.442157e-06	-4.015861e-10	-1.019889e+01	-4.276744e+01
2.600000e-06	-1.567674e-06	-2.526536e-09	-1.108654e+01	-1.776989e+02
2.610000e-06	-1.692570e-06	-4.724542e-09	-1.196980e+01	-3.147721e+02
2.620000e-06	-1.816675e-06	-6.856417e-09	-1.284746e+01	-4.483228e+02
2.630000e-06	-1.940037e-06	-8.797621e-09	-1.371988e+01	-5.730161e+02
2.640000e-06	-2.062591e-06	-1.047599e-08	-1.458658e+01	-6.845568e+02
2.650000e-06	-2.184323e-06	-1.187808e-08	-1.544747e+01	-7.802103e+02
2.660000e-06	-2.305364e-06	-1.302773e-08	-1.630346e+01	-8.590397e+02
2.670000e-06	-2.425643e-06	-1.396221e-08	-1.715407e+01	-9.218293e+02
2.680000e-06	-2.544954e-06	-1.472171e-08	-1.799783e+01	-9.707281e+02
2.690000e-06	-2.663255e-06	-1.534507e-08	-1.883446e+01	-1.008705e+03
2.700000e-06	-2.780449e-06	-1.586271e-08	-1.966325e+01	-1.038941e+03
2.710000e-06	-2.896383e-06	-1.629824e-08	-2.048313e+01	-1.064279e+03
2.720000e-06	-3.011057e-06	-1.667057e-08	-2.129410e+01	-1.086847e+03
2.730000e-06	-3.124554e-06	-1.699315e-08	-2.209675e+01	-1.107893e+03
2.740000e-06	-3.236904e-06	-1.727791e-08	-2.289128e+01	-1.127842e+03
2.750000e-06	-3.347991e-06	-1.753237e-08	-2.367688e+01	-1.146527e+03
2.760000e-06	-3.457787e-06	-1.775965e-08	-2.445336e+01	-1.163504e+03
2.770000e-06	-3.566389e-06	-1.796498e-08	-2.522139e+01	-1.178355e+03
2.780000e-06	-3.673836e-06	-1.815135e-08	-2.598125e+01	-1.190921e+03
2.790000e-06	-3.780095e-06	-1.832076e-08	-2.673271e+01	-1.201390e+03
2.800000e-06	-3.885151e-06	-1.847644e-08	-2.747566e+01	-1.210262e+03
2.810000e-06	-3.988742e-06	-1.862259e-08	-2.820825e+01	-1.218206e+03
2.820000e-06	-4.090722e-06	-1.876177e-08	-2.892946e+01	-1.225873e+03
2.830000e-06	-4.191174e-06	-1.889287e-08	-2.963985e+01	-1.233725e+03
2.840000e-06	-4.290185e-06	-1.901633e-08	-3.034005e+01	-1.241932e+03
2.850000e-06	-4.387879e-06	-1.913121e-08	-3.103094e+01	-1.250367e+03
2.860000e-06	-4.484056e-06	-1.923686e-08	-3.171110e+01	-1.258683e+03
2.870000e-06	-4.578557e-06	-1.933428e-08	-3.237941e+01	-1.266457e+03
2.880000e-06	-4.671351e-06	-1.942495e-08	-3.303564e+01	-1.273334e+03
2.890000e-06	-4.762491e-06	-1.951168e-08	-3.368018e+01	-1.279149e+03
2.900000e-06	-4.852060e-06	-1.959493e-08	-3.431361e+01	-1.283977e+03
2.910000e-06	-4.939798e-06	-1.967491e-08	-3.493409e+01	-1.288103e+03
2.920000e-06	-5.025609e-06	-1.975293e-08	-3.554095e+01	-1.291930e+03
2.930000e-06	-5.109580e-06	-1.982816e-08	-3.613479e+01	-1.295857e+03
2.940000e-06	-5.191776e-06	-1.990029e-08	-3.671607e+01	-1.300160e+03
