# Temperatura_=_62.32
# Concentracion g/m^3_=_41000.0
# C_Vs_to_Am_M_A/Vsm_=_65563218390.804596
# pendiente_HvsI_1/m_=_3716.3
# ordenada_HvsI_A/m_=_1297.0
# frecuencia_Hz_=_302006.2163733909

Tiempo_(s)	Campo_(V.s)	Magnetizacion_(V.s)	Campo_(kA/m)	Magnetizacion_(A/m)
0.000000e+00	-6.714004e-06	-2.449785e-08	-4.746744e+01	-1.603968e+03
1.000000e-08	-6.710615e-06	-2.449275e-08	-4.744347e+01	-1.604279e+03
2.000000e-08	-6.705050e-06	-2.448394e-08	-4.740413e+01	-1.604169e+03
3.000000e-08	-6.697450e-06	-2.447445e-08	-4.735040e+01	-1.603544e+03
4.000000e-08	-6.687551e-06	-2.446391e-08	-4.728041e+01	-1.602434e+03
5.000000e-08	-6.675143e-06	-2.445080e-08	-4.719269e+01	-1.600993e+03
6.000000e-08	-6.660270e-06	-2.443118e-08	-4.708754e+01	-1.599444e+03
7.000000e-08	-6.643078e-06	-2.440581e-08	-4.696599e+01	-1.598011e+03
8.000000e-08	-6.623756e-06	-2.441693e-08	-4.682939e+01	-1.596855e+03
9.000000e-08	-6.602045e-06	-2.444645e-08	-4.667590e+01	-1.596023e+03
1.000000e-07	-6.577599e-06	-2.440804e-08	-4.650306e+01	-1.595437e+03
1.100000e-07	-6.550485e-06	-2.435921e-08	-4.631137e+01	-1.594922e+03
1.200000e-07	-6.521115e-06	-2.433627e-08	-4.610372e+01	-1.594261e+03
1.300000e-07	-6.489891e-06	-2.425740e-08	-4.588297e+01	-1.593266e+03
1.400000e-07	-6.456879e-06	-2.420649e-08	-4.564959e+01	-1.591833e+03
1.500000e-07	-6.421806e-06	-2.430028e-08	-4.540162e+01	-1.589974e+03
1.600000e-07	-6.384684e-06	-2.423143e-08	-4.513917e+01	-1.587808e+03
1.700000e-07	-6.345630e-06	-2.418119e-08	-4.486306e+01	-1.585519e+03
1.800000e-07	-6.304234e-06	-2.422706e-08	-4.457040e+01	-1.583293e+03
1.900000e-07	-6.260359e-06	-2.410873e-08	-4.426020e+01	-1.581256e+03
2.000000e-07	-6.214209e-06	-2.409984e-08	-4.393393e+01	-1.579428e+03
2.100000e-07	-6.165682e-06	-2.406557e-08	-4.359084e+01	-1.577717e+03
2.200000e-07	-6.114567e-06	-2.396274e-08	-4.322947e+01	-1.575944e+03
2.300000e-07	-6.060950e-06	-2.396975e-08	-4.285040e+01	-1.573901e+03
2.400000e-07	-6.005015e-06	-2.394702e-08	-4.245494e+01	-1.571417e+03
2.500000e-07	-5.946779e-06	-2.389903e-08	-4.204322e+01	-1.568411e+03
2.600000e-07	-5.886305e-06	-2.386504e-08	-4.161568e+01	-1.564924e+03
2.700000e-07	-5.823775e-06	-2.379393e-08	-4.117359e+01	-1.561104e+03
2.800000e-07	-5.759133e-06	-2.371391e-08	-4.071658e+01	-1.557161e+03
2.900000e-07	-5.692206e-06	-2.367074e-08	-4.024341e+01	-1.553299e+03
3.000000e-07	-5.623120e-06	-2.366740e-08	-3.975498e+01	-1.549653e+03
3.100000e-07	-5.551977e-06	-2.360392e-08	-3.925200e+01	-1.546241e+03
3.200000e-07	-5.478722e-06	-2.352457e-08	-3.873410e+01	-1.542955e+03
3.300000e-07	-5.403229e-06	-2.344053e-08	-3.820037e+01	-1.539597e+03
3.400000e-07	-5.325539e-06	-2.335681e-08	-3.765110e+01	-1.535933e+03
3.500000e-07	-5.245796e-06	-2.331412e-08	-3.708733e+01	-1.531772e+03
3.600000e-07	-5.164063e-06	-2.324829e-08	-3.650948e+01	-1.527024e+03
3.700000e-07	-5.080572e-06	-2.318280e-08	-3.591921e+01	-1.521732e+03
3.800000e-07	-4.995500e-06	-2.310431e-08	-3.531776e+01	-1.516060e+03
3.900000e-07	-4.908818e-06	-2.300345e-08	-3.470493e+01	-1.510238e+03
4.000000e-07	-4.820428e-06	-2.291376e-08	-3.408002e+01	-1.504497e+03
4.100000e-07	-4.730286e-06	-2.284742e-08	-3.344272e+01	-1.498985e+03
4.200000e-07	-4.638454e-06	-2.277245e-08	-3.279347e+01	-1.493720e+03
4.300000e-07	-4.545028e-06	-2.267478e-08	-3.213296e+01	-1.488578e+03
4.400000e-07	-4.449989e-06	-2.258324e-08	-3.146104e+01	-1.483327e+03
4.500000e-07	-4.353363e-06	-2.248472e-08	-3.077791e+01	-1.477697e+03
4.600000e-07	-4.255124e-06	-2.237802e-08	-3.008336e+01	-1.471460e+03
4.700000e-07	-4.155276e-06	-2.227751e-08	-2.937745e+01	-1.464505e+03
4.800000e-07	-4.054015e-06	-2.217634e-08	-2.866154e+01	-1.456873e+03
4.900000e-07	-3.951364e-06	-2.206308e-08	-2.793581e+01	-1.448746e+03
5.000000e-07	-3.847266e-06	-2.193988e-08	-2.719984e+01	-1.440389e+03
5.100000e-07	-3.741780e-06	-2.181669e-08	-2.645406e+01	-1.432068e+03
5.200000e-07	-3.634845e-06	-2.168952e-08	-2.569804e+01	-1.423954e+03
5.300000e-07	-3.526528e-06	-2.155806e-08	-2.493225e+01	-1.416069e+03
5.400000e-07	-3.417008e-06	-2.142672e-08	-2.415795e+01	-1.408261e+03
5.500000e-07	-3.306258e-06	-2.129576e-08	-2.337496e+01	-1.400247e+03
5.600000e-07	-3.194240e-06	-2.115663e-08	-2.258301e+01	-1.391690e+03
5.700000e-07	-3.080968e-06	-2.100438e-08	-2.178218e+01	-1.382304e+03
5.800000e-07	-2.966379e-06	-2.084281e-08	-2.097205e+01	-1.371939e+03
5.900000e-07	-2.850429e-06	-2.067368e-08	-2.015229e+01	-1.360629e+03
6.000000e-07	-2.733313e-06	-2.049866e-08	-1.932429e+01	-1.348585e+03
6.100000e-07	-2.615227e-06	-2.032366e-08	-1.848943e+01	-1.336128e+03
6.200000e-07	-2.496170e-06	-2.014665e-08	-1.764771e+01	-1.323579e+03
6.300000e-07	-2.376177e-06	-1.995919e-08	-1.679937e+01	-1.311150e+03
6.400000e-07	-2.255411e-06	-1.975955e-08	-1.594557e+01	-1.298860e+03
6.500000e-07	-2.133886e-06	-1.954980e-08	-1.508639e+01	-1.286507e+03
6.600000e-07	-2.011539e-06	-1.933123e-08	-1.422141e+01	-1.273714e+03
6.700000e-07	-1.888400e-06	-1.910616e-08	-1.335083e+01	-1.260027e+03
6.800000e-07	-1.764485e-06	-1.887309e-08	-1.247476e+01	-1.245049e+03
6.900000e-07	-1.639902e-06	-1.862707e-08	-1.159396e+01	-1.228554e+03
7.000000e-07	-1.514834e-06	-1.836795e-08	-1.070975e+01	-1.210563e+03
7.100000e-07	-1.389412e-06	-1.809390e-08	-9.823023e+00	-1.191328e+03
7.200000e-07	-1.263621e-06	-1.780617e-08	-8.933695e+00	-1.171250e+03
7.300000e-07	-1.137407e-06	-1.750496e-08	-8.041369e+00	-1.150725e+03
7.400000e-07	-1.010749e-06	-1.718826e-08	-7.145907e+00	-1.129993e+03
7.500000e-07	-8.837527e-07	-1.685278e-08	-6.248056e+00	-1.109000e+03
7.600000e-07	-7.565138e-07	-1.649423e-08	-5.348488e+00	-1.087364e+03
7.700000e-07	-6.289734e-07	-1.611145e-08	-4.446788e+00	-1.064421e+03
7.800000e-07	-5.011525e-07	-1.570447e-08	-3.543105e+00	-1.039375e+03
7.900000e-07	-3.731663e-07	-1.527314e-08	-2.638254e+00	-1.011498e+03
8.000000e-07	-2.451076e-07	-1.481231e-08	-1.732890e+00	-9.803230e+02
8.100000e-07	-1.169293e-07	-1.431503e-08	-8.266799e-01	-9.457536e+02
8.200000e-07	1.141176e-08	-1.377577e-08	8.068017e-02	-9.080578e+02
8.300000e-07	1.397777e-07	-1.319013e-08	9.882161e-01	-8.677102e+02
8.400000e-07	2.680828e-07	-1.255285e-08	1.895323e+00	-8.251139e+02
8.500000e-07	3.963456e-07	-1.185578e-08	2.802130e+00	-7.802668e+02
8.600000e-07	5.245202e-07	-1.108672e-08	3.708313e+00	-7.324615e+02
8.700000e-07	6.524939e-07	-1.023124e-08	4.613076e+00	-6.801179e+02
8.800000e-07	7.802536e-07	-9.274681e-09	5.516327e+00	-6.208231e+02
8.900000e-07	9.077780e-07	-8.193013e-09	6.417913e+00	-5.516090e+02
9.000000e-07	1.034965e-06	-6.952767e-09	7.317114e+00	-4.694440e+02
9.100000e-07	1.161775e-06	-5.514228e-09	8.213652e+00	-3.718537e+02
9.200000e-07	1.288192e-06	-3.834294e-09	9.107409e+00	-2.575481e+02
9.300000e-07	1.414172e-06	-1.877611e-09	9.998072e+00	-1.269159e+02
9.400000e-07	1.539684e-06	3.446671e-10	1.088544e+01	1.773346e+01
9.500000e-07	1.664732e-06	2.739646e-09	1.176951e+01	1.722553e+02
9.600000e-07	1.789318e-06	5.191680e-09	1.265032e+01	3.310872e+02
9.700000e-07	1.913359e-06	7.623243e-09	1.352729e+01	4.879357e+02
9.800000e-07	2.036612e-06	9.925365e-09	1.439868e+01	6.366061e+02
9.900000e-07	2.158907e-06	1.196040e-08	1.526329e+01	7.718224e+02
1.000000e-06	2.280352e-06	1.367243e-08	1.612189e+01	8.898804e+02
1.010000e-06	2.400981e-06	1.508143e-08	1.697473e+01	9.890188e+02
1.020000e-06	2.520610e-06	1.623020e-08	1.782050e+01	1.069448e+03
1.030000e-06	2.639267e-06	1.716806e-08	1.865939e+01	1.133054e+03
1.040000e-06	2.756963e-06	1.793958e-08	1.949149e+01	1.182861e+03
1.050000e-06	2.873641e-06	1.858031e-08	2.031640e+01	1.222368e+03
1.060000e-06	2.989234e-06	1.911870e-08	2.113363e+01	1.254917e+03
1.070000e-06	3.103494e-06	1.957927e-08	2.194144e+01	1.283200e+03
1.080000e-06	3.216485e-06	1.997926e-08	2.274028e+01	1.308993e+03
1.090000e-06	3.328347e-06	2.032850e-08	2.353113e+01	1.333133e+03
1.100000e-06	3.439039e-06	2.063608e-08	2.431371e+01	1.355707e+03
1.110000e-06	3.548526e-06	2.090981e-08	2.508778e+01	1.376367e+03
1.120000e-06	3.656890e-06	2.115699e-08	2.585390e+01	1.394673e+03
1.130000e-06	3.764022e-06	2.138392e-08	2.661131e+01	1.410376e+03
1.140000e-06	3.869764e-06	2.159333e-08	2.735890e+01	1.423572e+03
1.150000e-06	3.974175e-06	2.178715e-08	2.809708e+01	1.434714e+03
1.160000e-06	4.077181e-06	2.196415e-08	2.882532e+01	1.444490e+03
1.170000e-06	4.178748e-06	2.212806e-08	2.954339e+01	1.453638e+03
1.180000e-06	4.278901e-06	2.228128e-08	3.025146e+01	1.462749e+03
1.190000e-06	4.377490e-06	2.242353e-08	3.094848e+01	1.472128e+03
1.200000e-06	4.474352e-06	2.255646e-08	3.163329e+01	1.481753e+03
1.210000e-06	4.569522e-06	2.267938e-08	3.230613e+01	1.491324e+03
1.220000e-06	4.663119e-06	2.279590e-08	3.296785e+01	1.500401e+03
1.230000e-06	4.755244e-06	2.290527e-08	3.361917e+01	1.508566e+03
1.240000e-06	4.845701e-06	2.300615e-08	3.425869e+01	1.515561e+03
1.250000e-06	4.934298e-06	2.309998e-08	3.488507e+01	1.521379e+03
1.260000e-06	5.021115e-06	2.318893e-08	3.549886e+01	1.526255e+03
1.270000e-06	5.106238e-06	2.327589e-08	3.610066e+01	1.530597e+03
1.280000e-06	5.189603e-06	2.335954e-08	3.669005e+01	1.534857e+03
1.290000e-06	5.271062e-06	2.343849e-08	3.726596e+01	1.539397e+03
1.300000e-06	5.350526e-06	2.351218e-08	3.782776e+01	1.544393e+03
1.310000e-06	5.428010e-06	2.358176e-08	3.837557e+01	1.549795e+03
1.320000e-06	5.503397e-06	2.364912e-08	3.890855e+01	1.555356e+03
1.330000e-06	5.576591e-06	2.371402e-08	3.942602e+01	1.560728e+03
1.340000e-06	5.647723e-06	2.377550e-08	3.992892e+01	1.565567e+03
1.350000e-06	5.716905e-06	2.383364e-08	4.041803e+01	1.569652e+03
1.360000e-06	5.784064e-06	2.388947e-08	4.089284e+01	1.572938e+03
1.370000e-06	5.849059e-06	2.394228e-08	4.135235e+01	1.575574e+03
1.380000e-06	5.911966e-06	2.399093e-08	4.179709e+01	1.577841e+03
1.390000e-06	5.972944e-06	2.403632e-08	4.222821e+01	1.580066e+03
1.400000e-06	6.031949e-06	2.407944e-08	4.264536e+01	1.582520e+03
1.410000e-06	6.088790e-06	2.412083e-08	4.304723e+01	1.585332e+03
1.420000e-06	6.143428e-06	2.416114e-08	4.343351e+01	1.588465e+03
1.430000e-06	6.195722e-06	2.419875e-08	4.380323e+01	1.591726e+03
1.440000e-06	6.245442e-06	2.423367e-08	4.415474e+01	1.594839e+03
1.450000e-06	6.292742e-06	2.426545e-08	4.448915e+01	1.597533e+03
1.460000e-06	6.337921e-06	2.429484e-08	4.480856e+01	1.599628e+03
1.470000e-06	6.380924e-06	2.432267e-08	4.511259e+01	1.601091e+03
1.480000e-06	6.421576e-06	2.434854e-08	4.539999e+01	1.602043e+03
1.490000e-06	6.459963e-06	2.437180e-08	4.567139e+01	1.602719e+03
1.500000e-06	6.496242e-06	2.439316e-08	4.592788e+01	1.603390e+03
1.510000e-06	6.530209e-06	2.441407e-08	4.616802e+01	1.604286e+03
1.520000e-06	6.561745e-06	2.443204e-08	4.639097e+01	1.605518e+03
1.530000e-06	6.591070e-06	2.444864e-08	4.659830e+01	1.607053e+03
1.540000e-06	6.618147e-06	2.446483e-08	4.678974e+01	1.608730e+03
1.550000e-06	6.642710e-06	2.447845e-08	4.696339e+01	1.610308e+03
1.560000e-06	6.664810e-06	2.448962e-08	4.711964e+01	1.611552e+03
1.570000e-06	6.684713e-06	2.449824e-08	4.726035e+01	1.612302e+03
1.580000e-06	6.702205e-06	2.450798e-08	4.738402e+01	1.612525e+03
1.590000e-06	6.717078e-06	2.451875e-08	4.748917e+01	1.612326e+03
1.600000e-06	6.729501e-06	2.452765e-08	4.757700e+01	1.611907e+03
1.610000e-06	6.739295e-06	2.453387e-08	4.764624e+01	1.611510e+03
1.620000e-06	6.746468e-06	2.453706e-08	4.769695e+01	1.611334e+03
1.630000e-06	6.751396e-06	2.453991e-08	4.773179e+01	1.611477e+03
1.640000e-06	6.753976e-06	2.454120e-08	4.775003e+01	1.611905e+03
1.650000e-06	6.754077e-06	2.454069e-08	4.775075e+01	1.612463e+03
1.660000e-06	6.751915e-06	2.453452e-08	4.773546e+01	1.612924e+03
1.670000e-06	6.747607e-06	2.453122e-08	4.770501e+01	1.613062e+03
1.680000e-06	6.741040e-06	2.452882e-08	4.765858e+01	1.612720e+03
1.690000e-06	6.732227e-06	2.452223e-08	4.759627e+01	1.611860e+03
1.700000e-06	6.721248e-06	2.451499e-08	4.751865e+01	1.610575e+03
1.710000e-06	6.707940e-06	2.451184e-08	4.742456e+01	1.609057e+03
1.720000e-06	6.692281e-06	2.451637e-08	4.731385e+01	1.607538e+03
1.730000e-06	6.674544e-06	2.446771e-08	4.718846e+01	1.606223e+03
1.740000e-06	6.654521e-06	2.438934e-08	4.704689e+01	1.605223e+03
1.750000e-06	6.631514e-06	2.439506e-08	4.688423e+01	1.604524e+03
1.760000e-06	6.605446e-06	2.440240e-08	4.669994e+01	1.603999e+03
1.770000e-06	6.576932e-06	2.439838e-08	4.649835e+01	1.603446e+03
1.780000e-06	6.546421e-06	2.447672e-08	4.628264e+01	1.602652e+03
1.790000e-06	6.514330e-06	2.440182e-08	4.605576e+01	1.601463e+03
1.800000e-06	6.480618e-06	2.430375e-08	4.581742e+01	1.599826e+03
1.810000e-06	6.444598e-06	2.436452e-08	4.556276e+01	1.597808e+03
1.820000e-06	6.406242e-06	2.426802e-08	4.529158e+01	1.595563e+03
1.830000e-06	6.365714e-06	2.429784e-08	4.500505e+01	1.593285e+03
1.840000e-06	6.322957e-06	2.434256e-08	4.470277e+01	1.591139e+03
1.850000e-06	6.278063e-06	2.419796e-08	4.438537e+01	1.589206e+03
1.860000e-06	6.230811e-06	2.425837e-08	4.405130e+01	1.587453e+03
1.870000e-06	6.181222e-06	2.422146e-08	4.370071e+01	1.585742e+03
1.880000e-06	6.129374e-06	2.413984e-08	4.333415e+01	1.583872e+03
1.890000e-06	6.074915e-06	2.412491e-08	4.294913e+01	1.581643e+03
1.900000e-06	6.018014e-06	2.399831e-08	4.254685e+01	1.578922e+03
1.910000e-06	5.958915e-06	2.402212e-08	4.212902e+01	1.575684e+03
1.920000e-06	5.897624e-06	2.402531e-08	4.169570e+01	1.572021e+03
1.930000e-06	5.834155e-06	2.396177e-08	4.124698e+01	1.568119e+03
1.940000e-06	5.768528e-06	2.388140e-08	4.078300e+01	1.564194e+03
1.950000e-06	5.700829e-06	2.377608e-08	4.030438e+01	1.560425e+03
1.960000e-06	5.630861e-06	2.378386e-08	3.980971e+01	1.556896e+03
1.970000e-06	5.558642e-06	2.370294e-08	3.929913e+01	1.553565e+03
1.980000e-06	5.484355e-06	2.366181e-08	3.877392e+01	1.550278e+03
1.990000e-06	5.407984e-06	2.363024e-08	3.823399e+01	1.546808e+03
2.000000e-06	5.329522e-06	2.352884e-08	3.767926e+01	1.542935e+03
2.010000e-06	5.249023e-06	2.345637e-08	3.711015e+01	1.538507e+03
2.020000e-06	5.166679e-06	2.335554e-08	3.652798e+01	1.533496e+03
2.030000e-06	5.082619e-06	2.332775e-08	3.593368e+01	1.528004e+03
2.040000e-06	4.996788e-06	2.327338e-08	3.532686e+01	1.522235e+03
2.050000e-06	4.909035e-06	2.317954e-08	3.470646e+01	1.516429e+03
2.060000e-06	4.819587e-06	2.309264e-08	3.407407e+01	1.510785e+03
2.070000e-06	4.728648e-06	2.300410e-08	3.343113e+01	1.505397e+03
2.080000e-06	4.636132e-06	2.292285e-08	3.277706e+01	1.500215e+03
2.090000e-06	4.541954e-06	2.281656e-08	3.211123e+01	1.495058e+03
2.100000e-06	4.446006e-06	2.273063e-08	3.143288e+01	1.489667e+03
2.110000e-06	4.348546e-06	2.263649e-08	3.074385e+01	1.483781e+03
2.120000e-06	4.249675e-06	2.253996e-08	3.004484e+01	1.477218e+03
2.130000e-06	4.149300e-06	2.243537e-08	2.933520e+01	1.469937e+03
2.140000e-06	4.047367e-06	2.232374e-08	2.861454e+01	1.462048e+03
2.150000e-06	3.943771e-06	2.221398e-08	2.788213e+01	1.453782e+03
2.160000e-06	3.838754e-06	2.210508e-08	2.713967e+01	1.445415e+03
2.170000e-06	3.732505e-06	2.199599e-08	2.638849e+01	1.437180e+03
2.180000e-06	3.625032e-06	2.186630e-08	2.562866e+01	1.429183e+03
2.190000e-06	3.516278e-06	2.173267e-08	2.485979e+01	1.421365e+03
2.200000e-06	3.406173e-06	2.159400e-08	2.408135e+01	1.413505e+03
2.210000e-06	3.294651e-06	2.146050e-08	2.329290e+01	1.405282e+03
2.220000e-06	3.181862e-06	2.132005e-08	2.249549e+01	1.396373e+03
2.230000e-06	3.067880e-06	2.117574e-08	2.168965e+01	1.386542e+03
2.240000e-06	2.952608e-06	2.102728e-08	2.087469e+01	1.375725e+03
2.250000e-06	2.836188e-06	2.086458e-08	2.005160e+01	1.364043e+03
2.260000e-06	2.718710e-06	2.068988e-08	1.922105e+01	1.351767e+03
2.270000e-06	2.600115e-06	2.051198e-08	1.838259e+01	1.339235e+03
2.280000e-06	2.480380e-06	2.033339e-08	1.753608e+01	1.326728e+03
2.290000e-06	2.359704e-06	2.014244e-08	1.668291e+01	1.314377e+03
2.300000e-06	2.238305e-06	1.994124e-08	1.582462e+01	1.302098e+03
2.310000e-06	2.116218e-06	1.973206e-08	1.496148e+01	1.289598e+03
2.320000e-06	1.993408e-06	1.951780e-08	1.409323e+01	1.276449e+03
2.330000e-06	1.869910e-06	1.928927e-08	1.322011e+01	1.262206e+03
2.340000e-06	1.745754e-06	1.904775e-08	1.234233e+01	1.246541e+03
2.350000e-06	1.621043e-06	1.879850e-08	1.146063e+01	1.229336e+03
2.360000e-06	1.495914e-06	1.853977e-08	1.057599e+01	1.210727e+03
2.370000e-06	1.370393e-06	1.826646e-08	9.688564e+00	1.191050e+03
2.380000e-06	1.244432e-06	1.797495e-08	8.798029e+00	1.170724e+03
2.390000e-06	1.117952e-06	1.766541e-08	7.903827e+00	1.150091e+03
2.400000e-06	9.909415e-07	1.733715e-08	7.005872e+00	1.129267e+03
2.410000e-06	8.635288e-07	1.699340e-08	6.105075e+00	1.108046e+03
2.420000e-06	7.357926e-07	1.663198e-08	5.201991e+00	1.085901e+03
2.430000e-06	6.077606e-07	1.624893e-08	4.296816e+00	1.062083e+03
2.440000e-06	4.795209e-07	1.583734e-08	3.390172e+00	1.035805e+03
2.450000e-06	3.510964e-07	1.539110e-08	2.482222e+00	1.006436e+03
2.460000e-06	2.225099e-07	1.491049e-08	1.573126e+00	9.736759e+02
2.470000e-06	9.382865e-08	1.439707e-08	6.633605e-01	9.376067e+02
2.480000e-06	-3.489116e-08	1.384387e-08	-2.466775e-01	8.986202e+02
2.490000e-06	-1.636078e-07	1.323848e-08	-1.156693e+00	8.571979e+02
2.500000e-06	-2.923027e-07	1.257734e-08	-2.066555e+00	8.135965e+02
2.510000e-06	-4.209263e-07	1.185340e-08	-2.975913e+00	7.675178e+02
2.520000e-06	-5.494541e-07	1.105402e-08	-3.884594e+00	7.178589e+02
2.530000e-06	-6.778441e-07	1.016340e-08	-4.792300e+00	6.626337e+02
2.540000e-06	-8.059595e-07	9.161224e-09	-5.698065e+00	5.991227e+02
2.550000e-06	-9.337579e-07	8.023317e-09	-6.601589e+00	5.242568e+02
2.560000e-06	-1.061165e-06	6.715785e-09	-7.502343e+00	4.351824e+02
2.570000e-06	-1.188086e-06	5.195926e-09	-8.399664e+00	3.299019e+02
2.580000e-06	-1.314445e-06	3.418578e-09	-9.293011e+00	2.078560e+02
2.590000e-06	-1.440265e-06	1.356610e-09	-1.018255e+01	7.031399e+01
2.600000e-06	-1.565639e-06	-9.616006e-10	-1.106893e+01	-7.953107e+01
2.610000e-06	-1.690505e-06	-3.434830e-09	-1.195173e+01	-2.368058e+02
2.620000e-06	-1.814704e-06	-5.949812e-09	-1.282980e+01	-3.955108e+02
2.630000e-06	-1.938098e-06	-8.398696e-09	-1.370218e+01	-5.492920e+02
2.640000e-06	-2.060656e-06	-1.064179e-08	-1.456866e+01	-6.922863e+02
2.650000e-06	-2.182388e-06	-1.257672e-08	-1.542930e+01	-8.198810e+02
2.660000e-06	-2.303407e-06	-1.418890e-08	-1.628489e+01	-9.292483e+02
2.670000e-06	-2.423738e-06	-1.550950e-08	-1.713562e+01	-1.019559e+03
2.680000e-06	-2.543126e-06	-1.658607e-08	-1.797968e+01	-1.091857e+03
2.690000e-06	-2.661450e-06	-1.746804e-08	-1.881622e+01	-1.148633e+03
2.700000e-06	-2.778722e-06	-1.819844e-08	-1.964533e+01	-1.193216e+03
2.710000e-06	-2.894805e-06	-1.880989e-08	-2.046603e+01	-1.229104e+03
2.720000e-06	-3.009655e-06	-1.932468e-08	-2.127800e+01	-1.259388e+03
2.730000e-06	-3.123236e-06	-1.976105e-08	-2.208101e+01	-1.286350e+03
2.740000e-06	-3.235533e-06	-2.014021e-08	-2.287494e+01	-1.311320e+03
2.750000e-06	-3.346579e-06	-2.047434e-08	-2.366003e+01	-1.334754e+03
2.760000e-06	-3.456336e-06	-2.076969e-08	-2.443600e+01	-1.356493e+03
2.770000e-06	-3.564978e-06	-2.103494e-08	-2.520409e+01	-1.376106e+03
2.780000e-06	-3.672526e-06	-2.127671e-08	-2.596444e+01	-1.393212e+03
2.790000e-06	-3.778837e-06	-2.149819e-08	-2.671605e+01	-1.407714e+03
2.800000e-06	-3.883891e-06	-2.169818e-08	-2.745878e+01	-1.419879e+03
2.810000e-06	-3.987535e-06	-2.188023e-08	-2.819153e+01	-1.430291e+03
2.820000e-06	-4.089626e-06	-2.204773e-08	-2.891330e+01	-1.439686e+03
2.830000e-06	-4.190212e-06	-2.220275e-08	-2.962444e+01	-1.448755e+03
2.840000e-06	-4.289386e-06	-2.235044e-08	-3.032559e+01	-1.457970e+03
2.850000e-06	-4.387121e-06	-2.249106e-08	-3.101657e+01	-1.467482e+03
2.860000e-06	-4.483351e-06	-2.262369e-08	-3.169691e+01	-1.477129e+03
2.870000e-06	-4.577884e-06	-2.274618e-08	-3.236525e+01	-1.486525e+03
2.880000e-06	-4.670720e-06	-2.285753e-08	-3.302159e+01	-1.495221e+03
2.890000e-06	-4.761938e-06	-2.296191e-08	-3.366649e+01	-1.502858e+03
2.900000e-06	-4.851462e-06	-2.305944e-08	-3.429942e+01	-1.509289e+03
2.910000e-06	-4.939291e-06	-2.314988e-08	-3.492036e+01	-1.514624e+03
2.920000e-06	-5.025243e-06	-2.323675e-08	-3.552804e+01	-1.519193e+03
2.930000e-06	-5.109285e-06	-2.332130e-08	-3.612221e+01	-1.523441e+03
2.940000e-06	-5.191571e-06	-2.340255e-08	-3.670396e+01	-1.527792e+03
