# Temperatura_=_64.38
# Concentracion g/m^3_=_41000.0
# C_Vs_to_Am_M_A/Vsm_=_65563218390.804596
# pendiente_HvsI_1/m_=_3716.3
# ordenada_HvsI_A/m_=_1297.0
# frecuencia_Hz_=_302009.00640885654

Tiempo_(s)	Campo_(V.s)	Magnetizacion_(V.s)	Campo_(kA/m)	Magnetizacion_(A/m)
0.000000e+00	-6.729135e-06	-2.201398e-08	-4.746665e+01	-1.442439e+03
1.000000e-08	-6.726178e-06	-2.201346e-08	-4.744579e+01	-1.442626e+03
2.000000e-08	-6.721002e-06	-2.200475e-08	-4.740928e+01	-1.442318e+03
3.000000e-08	-6.713730e-06	-2.199556e-08	-4.735798e+01	-1.441483e+03
4.000000e-08	-6.704151e-06	-2.198696e-08	-4.729041e+01	-1.440225e+03
5.000000e-08	-6.692114e-06	-2.197438e-08	-4.720551e+01	-1.438752e+03
6.000000e-08	-6.677619e-06	-2.195801e-08	-4.710326e+01	-1.437308e+03
7.000000e-08	-6.660793e-06	-2.192784e-08	-4.698457e+01	-1.436101e+03
8.000000e-08	-6.641802e-06	-2.192674e-08	-4.685061e+01	-1.435243e+03
9.000000e-08	-6.620489e-06	-2.199367e-08	-4.670026e+01	-1.434710e+03
1.000000e-07	-6.596486e-06	-2.196270e-08	-4.653095e+01	-1.434358e+03
1.100000e-07	-6.569766e-06	-2.188106e-08	-4.634247e+01	-1.433968e+03
1.200000e-07	-6.540682e-06	-2.187082e-08	-4.613732e+01	-1.433316e+03
1.300000e-07	-6.509674e-06	-2.182088e-08	-4.591859e+01	-1.432243e+03
1.400000e-07	-6.476937e-06	-2.170511e-08	-4.568766e+01	-1.430705e+03
1.500000e-07	-6.442245e-06	-2.182295e-08	-4.544295e+01	-1.428780e+03
1.600000e-07	-6.405432e-06	-2.183533e-08	-4.518328e+01	-1.426649e+03
1.700000e-07	-6.366603e-06	-2.166349e-08	-4.490938e+01	-1.424525e+03
1.800000e-07	-6.325489e-06	-2.176573e-08	-4.461937e+01	-1.422591e+03
1.900000e-07	-6.281929e-06	-2.168209e-08	-4.431210e+01	-1.420931e+03
2.000000e-07	-6.236138e-06	-2.161862e-08	-4.398909e+01	-1.419506e+03
2.100000e-07	-6.187942e-06	-2.167385e-08	-4.364912e+01	-1.418159e+03
2.200000e-07	-6.137051e-06	-2.156173e-08	-4.329014e+01	-1.416664e+03
2.300000e-07	-6.083624e-06	-2.155339e-08	-4.291328e+01	-1.414796e+03
2.400000e-07	-6.027930e-06	-2.153049e-08	-4.252041e+01	-1.412400e+03
2.500000e-07	-5.969944e-06	-2.146748e-08	-4.211139e+01	-1.409445e+03
2.600000e-07	-5.909688e-06	-2.143638e-08	-4.168635e+01	-1.406028e+03
2.700000e-07	-5.847326e-06	-2.136369e-08	-4.124645e+01	-1.402353e+03
2.800000e-07	-5.782886e-06	-2.131216e-08	-4.079190e+01	-1.398663e+03
2.900000e-07	-5.716209e-06	-2.125126e-08	-4.032157e+01	-1.395164e+03
3.000000e-07	-5.647295e-06	-2.124342e-08	-3.983546e+01	-1.391962e+03
3.100000e-07	-5.576321e-06	-2.120814e-08	-3.933481e+01	-1.389023e+03
3.200000e-07	-5.503272e-06	-2.112882e-08	-3.881953e+01	-1.386190e+03
3.300000e-07	-5.428040e-06	-2.106179e-08	-3.828885e+01	-1.383222e+03
3.400000e-07	-5.350660e-06	-2.097309e-08	-3.774302e+01	-1.379873e+03
3.500000e-07	-5.271154e-06	-2.094058e-08	-3.718219e+01	-1.375971e+03
3.600000e-07	-5.189570e-06	-2.088018e-08	-3.660671e+01	-1.371467e+03
3.700000e-07	-5.106218e-06	-2.081219e-08	-3.601875e+01	-1.366458e+03
3.800000e-07	-5.021244e-06	-2.075100e-08	-3.541935e+01	-1.361152e+03
3.900000e-07	-4.934562e-06	-2.065801e-08	-3.480791e+01	-1.355805e+03
4.000000e-07	-4.846177e-06	-2.057487e-08	-3.418445e+01	-1.350638e+03
4.100000e-07	-4.756061e-06	-2.050883e-08	-3.354878e+01	-1.345765e+03
4.200000e-07	-4.664280e-06	-2.045014e-08	-3.290136e+01	-1.341153e+03
4.300000e-07	-4.570946e-06	-2.036210e-08	-3.224300e+01	-1.336627e+03
4.400000e-07	-4.476080e-06	-2.026907e-08	-3.157382e+01	-1.331920e+03
4.500000e-07	-4.379548e-06	-2.017916e-08	-3.089289e+01	-1.326758e+03
4.600000e-07	-4.281258e-06	-2.008284e-08	-3.019957e+01	-1.320945e+03
4.700000e-07	-4.181426e-06	-1.999677e-08	-2.949536e+01	-1.314424e+03
4.800000e-07	-4.080209e-06	-1.990781e-08	-2.878138e+01	-1.307298e+03
4.900000e-07	-3.977616e-06	-1.981004e-08	-2.805771e+01	-1.299801e+03
5.000000e-07	-3.873587e-06	-1.969861e-08	-2.732390e+01	-1.292220e+03
5.100000e-07	-3.768064e-06	-1.958605e-08	-2.657955e+01	-1.284805e+03
5.200000e-07	-3.661095e-06	-1.946913e-08	-2.582500e+01	-1.277681e+03
5.300000e-07	-3.552768e-06	-1.934647e-08	-2.506087e+01	-1.270800e+03
5.400000e-07	-3.443182e-06	-1.922672e-08	-2.428786e+01	-1.263943e+03
5.500000e-07	-3.332376e-06	-1.910573e-08	-2.350625e+01	-1.256785e+03
5.600000e-07	-3.220293e-06	-1.897935e-08	-2.271563e+01	-1.248985e+03
5.700000e-07	-3.106872e-06	-1.884283e-08	-2.191557e+01	-1.240294e+03
5.800000e-07	-2.992081e-06	-1.870324e-08	-2.110584e+01	-1.230629e+03
5.900000e-07	-2.875929e-06	-1.855686e-08	-2.028652e+01	-1.220108e+03
6.000000e-07	-2.758634e-06	-1.840408e-08	-1.945913e+01	-1.209008e+03
6.100000e-07	-2.640437e-06	-1.824644e-08	-1.862538e+01	-1.197681e+03
6.200000e-07	-2.521385e-06	-1.808281e-08	-1.778560e+01	-1.186434e+03
6.300000e-07	-2.401402e-06	-1.791007e-08	-1.693925e+01	-1.175420e+03
6.400000e-07	-2.280498e-06	-1.772656e-08	-1.608640e+01	-1.164574e+03
6.500000e-07	-2.158781e-06	-1.753647e-08	-1.522783e+01	-1.153609e+03
6.600000e-07	-2.036217e-06	-1.733897e-08	-1.436327e+01	-1.142094e+03
6.700000e-07	-1.912855e-06	-1.713609e-08	-1.349309e+01	-1.129568e+03
6.800000e-07	-1.788790e-06	-1.692415e-08	-1.261795e+01	-1.115683e+03
6.900000e-07	-1.664089e-06	-1.669928e-08	-1.173832e+01	-1.100310e+03
7.000000e-07	-1.538909e-06	-1.646195e-08	-1.085531e+01	-1.083583e+03
7.100000e-07	-1.413301e-06	-1.621306e-08	-9.969284e+00	-1.065853e+03
7.200000e-07	-1.287262e-06	-1.595364e-08	-9.080220e+00	-1.047573e+03
7.300000e-07	-1.160826e-06	-1.568270e-08	-8.188347e+00	-1.029132e+03
7.400000e-07	-1.034031e-06	-1.539838e-08	-7.293951e+00	-1.010694e+03
7.500000e-07	-9.068449e-07	-1.509578e-08	-6.396793e+00	-9.920948e+02
7.600000e-07	-7.792992e-07	-1.477023e-08	-5.497099e+00	-9.728320e+02
7.700000e-07	-6.515089e-07	-1.442079e-08	-4.595679e+00	-9.521593e+02
7.800000e-07	-5.235278e-07	-1.405102e-08	-3.692913e+00	-9.292672e+02
7.900000e-07	-3.953948e-07	-1.365966e-08	-2.789076e+00	-9.034955e+02
8.000000e-07	-2.671213e-07	-1.323976e-08	-1.884247e+00	-8.745119e+02
8.100000e-07	-1.387277e-07	-1.278452e-08	-9.785716e-01	-8.423917e+02
8.200000e-07	-1.025277e-08	-1.229148e-08	-7.232203e-02	-8.075552e+02
8.300000e-07	1.182762e-07	-1.175658e-08	8.343084e-01	-7.705607e+02
8.400000e-07	2.467750e-07	-1.117194e-08	1.740726e+00	-7.317919e+02
8.500000e-07	3.752298e-07	-1.053141e-08	2.646833e+00	-6.911179e+02
8.600000e-07	5.036191e-07	-9.824028e-09	3.552479e+00	-6.476240e+02
8.700000e-07	6.318347e-07	-9.031691e-09	4.456899e+00	-5.995061e+02
8.800000e-07	7.598760e-07	-8.138487e-09	5.360089e+00	-5.441902e+02
8.900000e-07	8.877230e-07	-7.123383e-09	6.261909e+00	-4.786896e+02
9.000000e-07	1.015281e-06	-5.954842e-09	7.161694e+00	-4.001489e+02
9.100000e-07	1.142468e-06	-4.594746e-09	8.058855e+00	-3.064771e+02
9.200000e-07	1.269266e-06	-3.004506e-09	8.953273e+00	-1.969330e+02
9.300000e-07	1.395594e-06	-1.156521e-09	9.844384e+00	-7.253139e+01
9.400000e-07	1.521395e-06	9.396372e-10	1.073176e+01	6.383768e+01
9.500000e-07	1.646711e-06	3.211107e-09	1.161574e+01	2.076232e+02
9.600000e-07	1.771598e-06	5.529587e-09	1.249668e+01	3.531387e+02
9.700000e-07	1.895967e-06	7.748147e-09	1.337396e+01	4.943094e+02
9.800000e-07	2.019649e-06	9.745033e-09	1.424640e+01	6.254995e+02
9.900000e-07	2.142510e-06	1.145513e-08	1.511305e+01	7.422626e+02
1.000000e-06	2.264391e-06	1.287346e-08	1.597279e+01	8.418738e+02
1.010000e-06	2.385319e-06	1.403117e-08	1.682580e+01	9.235485e+02
1.020000e-06	2.505404e-06	1.497177e-08	1.767287e+01	9.883225e+02
1.030000e-06	2.624586e-06	1.573901e-08	1.851357e+01	1.038639e+03
1.040000e-06	2.742744e-06	1.637090e-08	1.934704e+01	1.077748e+03
1.050000e-06	2.859895e-06	1.689899e-08	2.017341e+01	1.109045e+03
1.060000e-06	2.975977e-06	1.734509e-08	2.099224e+01	1.135502e+03
1.070000e-06	3.090830e-06	1.772789e-08	2.180241e+01	1.159281e+03
1.080000e-06	3.204371e-06	1.806221e-08	2.260331e+01	1.181588e+03
1.090000e-06	3.316670e-06	1.835597e-08	2.339546e+01	1.202762e+03
1.100000e-06	3.427781e-06	1.861592e-08	2.417923e+01	1.222542e+03
1.110000e-06	3.537686e-06	1.884903e-08	2.495448e+01	1.240412e+03
1.120000e-06	3.646465e-06	1.906098e-08	2.572180e+01	1.255930e+03
1.130000e-06	3.754155e-06	1.925708e-08	2.648143e+01	1.268959e+03
1.140000e-06	3.860517e-06	1.943892e-08	2.723170e+01	1.279749e+03
1.150000e-06	3.965365e-06	1.960621e-08	2.797129e+01	1.288880e+03
1.160000e-06	4.068755e-06	1.976023e-08	2.870059e+01	1.297092e+03
1.170000e-06	4.170726e-06	1.990255e-08	2.941988e+01	1.305088e+03
1.180000e-06	4.271338e-06	2.003588e-08	3.012959e+01	1.313340e+03
1.190000e-06	4.370525e-06	2.016126e-08	3.082925e+01	1.321999e+03
1.200000e-06	4.468008e-06	2.027816e-08	3.151688e+01	1.330890e+03
1.210000e-06	4.563714e-06	2.038511e-08	3.219198e+01	1.339612e+03
1.220000e-06	4.657789e-06	2.048600e-08	3.285558e+01	1.347694e+03
1.230000e-06	4.750367e-06	2.058158e-08	3.350861e+01	1.354762e+03
1.240000e-06	4.841400e-06	2.067114e-08	3.415075e+01	1.360656e+03
1.250000e-06	4.930585e-06	2.075502e-08	3.477986e+01	1.365481e+03
1.260000e-06	5.017822e-06	2.083524e-08	3.539521e+01	1.369568e+03
1.270000e-06	5.103312e-06	2.091462e-08	3.599826e+01	1.373368e+03
1.280000e-06	5.187162e-06	2.099214e-08	3.658972e+01	1.377313e+03
1.290000e-06	5.269074e-06	2.106588e-08	3.716752e+01	1.381694e+03
1.300000e-06	5.348935e-06	2.113402e-08	3.773085e+01	1.386580e+03
1.310000e-06	5.426880e-06	2.119777e-08	3.828067e+01	1.391816e+03
1.320000e-06	5.502859e-06	2.125822e-08	3.881662e+01	1.397084e+03
1.330000e-06	5.576693e-06	2.131603e-08	3.933744e+01	1.402010e+03
1.340000e-06	5.648359e-06	2.137063e-08	3.984296e+01	1.406284e+03
1.350000e-06	5.718037e-06	2.142198e-08	4.033446e+01	1.409756e+03
1.360000e-06	5.785753e-06	2.147156e-08	4.081212e+01	1.412474e+03
1.370000e-06	5.851326e-06	2.151865e-08	4.127467e+01	1.414660e+03
1.380000e-06	5.914738e-06	2.156364e-08	4.172197e+01	1.416641e+03
1.390000e-06	5.976169e-06	2.160781e-08	4.215530e+01	1.418737e+03
1.400000e-06	6.035612e-06	2.164875e-08	4.257460e+01	1.421168e+03
1.410000e-06	6.092919e-06	2.168505e-08	4.297884e+01	1.423991e+03
1.420000e-06	6.148049e-06	2.171835e-08	4.336772e+01	1.427087e+03
1.430000e-06	6.200915e-06	2.174871e-08	4.374064e+01	1.430210e+03
1.440000e-06	6.251280e-06	2.177711e-08	4.409590e+01	1.433064e+03
1.450000e-06	6.299097e-06	2.180436e-08	4.443320e+01	1.435404e+03
1.460000e-06	6.344631e-06	2.183139e-08	4.475440e+01	1.437111e+03
1.470000e-06	6.388055e-06	2.185818e-08	4.506070e+01	1.438226e+03
1.480000e-06	6.429189e-06	2.188267e-08	4.535086e+01	1.438934e+03
1.490000e-06	6.467995e-06	2.190475e-08	4.562459e+01	1.439506e+03
1.500000e-06	6.504679e-06	2.192563e-08	4.588336e+01	1.440211e+03
1.510000e-06	6.539085e-06	2.194475e-08	4.612606e+01	1.441233e+03
1.520000e-06	6.571068e-06	2.196057e-08	4.635166e+01	1.442618e+03
1.530000e-06	6.600809e-06	2.197501e-08	4.656145e+01	1.444264e+03
1.540000e-06	6.628368e-06	2.198824e-08	4.675585e+01	1.445955e+03
1.550000e-06	6.653479e-06	2.199997e-08	4.693298e+01	1.447431e+03
1.560000e-06	6.676087e-06	2.201098e-08	4.709245e+01	1.448478e+03
1.570000e-06	6.696417e-06	2.202060e-08	4.723586e+01	1.448986e+03
1.580000e-06	6.714353e-06	2.203075e-08	4.736237e+01	1.448989e+03
1.590000e-06	6.729715e-06	2.204070e-08	4.747074e+01	1.448651e+03
1.600000e-06	6.742601e-06	2.205029e-08	4.756163e+01	1.448211e+03
1.610000e-06	6.752919e-06	2.205838e-08	4.763442e+01	1.447908e+03
1.620000e-06	6.760575e-06	2.206206e-08	4.768842e+01	1.447908e+03
1.630000e-06	6.765850e-06	2.206279e-08	4.772563e+01	1.448247e+03
1.640000e-06	6.768860e-06	2.206247e-08	4.774686e+01	1.448828e+03
1.650000e-06	6.769411e-06	2.206448e-08	4.775075e+01	1.449445e+03
1.660000e-06	6.767639e-06	2.205786e-08	4.773825e+01	1.449853e+03
1.670000e-06	6.763778e-06	2.205000e-08	4.771102e+01	1.449842e+03
1.680000e-06	6.757645e-06	2.204852e-08	4.766776e+01	1.449306e+03
1.690000e-06	6.749229e-06	2.204400e-08	4.760839e+01	1.448273e+03
1.700000e-06	6.738669e-06	2.203737e-08	4.753390e+01	1.446896e+03
1.710000e-06	6.725821e-06	2.203265e-08	4.744327e+01	1.445407e+03
1.720000e-06	6.710574e-06	2.204521e-08	4.733572e+01	1.444046e+03
1.730000e-06	6.693208e-06	2.201343e-08	4.721322e+01	1.442986e+03
1.740000e-06	6.673665e-06	2.188404e-08	4.707536e+01	1.442279e+03
1.750000e-06	6.651148e-06	2.188832e-08	4.691653e+01	1.441850e+03
1.760000e-06	6.625453e-06	2.193354e-08	4.673528e+01	1.441512e+03
1.770000e-06	6.597227e-06	2.189932e-08	4.653618e+01	1.441038e+03
1.780000e-06	6.566870e-06	2.199903e-08	4.632205e+01	1.440221e+03
1.790000e-06	6.534905e-06	2.199433e-08	4.609657e+01	1.438949e+03
1.800000e-06	6.501476e-06	2.178913e-08	4.586076e+01	1.437231e+03
1.810000e-06	6.465805e-06	2.190686e-08	4.560914e+01	1.435194e+03
1.820000e-06	6.427682e-06	2.185335e-08	4.534023e+01	1.433042e+03
1.830000e-06	6.387390e-06	2.177360e-08	4.505601e+01	1.430984e+03
1.840000e-06	6.344912e-06	2.193937e-08	4.475638e+01	1.429166e+03
1.850000e-06	6.300350e-06	2.172438e-08	4.444204e+01	1.427622e+03
1.860000e-06	6.253477e-06	2.174114e-08	4.411140e+01	1.426257e+03
1.870000e-06	6.204196e-06	2.176632e-08	4.376378e+01	1.424879e+03
1.880000e-06	6.152660e-06	2.163318e-08	4.340025e+01	1.423251e+03
1.890000e-06	6.098439e-06	2.171168e-08	4.301778e+01	1.421171e+03
1.900000e-06	6.041739e-06	2.155605e-08	4.261782e+01	1.418534e+03
1.910000e-06	5.982895e-06	2.156334e-08	4.220274e+01	1.415364e+03
1.920000e-06	5.921842e-06	2.160703e-08	4.177208e+01	1.411810e+03
1.930000e-06	5.858654e-06	2.149653e-08	4.132636e+01	1.408102e+03
1.940000e-06	5.793268e-06	2.148970e-08	4.086513e+01	1.404475e+03
1.950000e-06	5.725798e-06	2.133066e-08	4.038921e+01	1.401100e+03
1.960000e-06	5.656116e-06	2.135506e-08	3.989768e+01	1.398025e+03
1.970000e-06	5.584146e-06	2.130070e-08	3.939001e+01	1.395160e+03
1.980000e-06	5.510127e-06	2.122901e-08	3.886788e+01	1.392302e+03
1.990000e-06	5.434007e-06	2.123236e-08	3.833094e+01	1.389201e+03
2.000000e-06	5.355673e-06	2.111039e-08	3.777838e+01	1.385632e+03
2.010000e-06	5.275243e-06	2.107741e-08	3.721104e+01	1.381472e+03
2.020000e-06	5.193020e-06	2.096241e-08	3.663105e+01	1.376734e+03
2.030000e-06	5.109059e-06	2.093210e-08	3.603879e+01	1.371570e+03
2.040000e-06	5.023234e-06	2.089472e-08	3.543339e+01	1.366217e+03
2.050000e-06	4.935526e-06	2.079680e-08	3.481471e+01	1.360927e+03
2.060000e-06	4.846086e-06	2.072508e-08	3.418381e+01	1.355883e+03
2.070000e-06	4.755176e-06	2.063089e-08	3.354254e+01	1.351137e+03
2.080000e-06	4.662680e-06	2.057977e-08	3.289008e+01	1.346592e+03
2.090000e-06	4.568408e-06	2.047603e-08	3.222509e+01	1.342026e+03
2.100000e-06	4.472454e-06	2.039849e-08	3.154825e+01	1.337157e+03
2.110000e-06	4.375010e-06	2.030974e-08	3.086088e+01	1.331736e+03
2.120000e-06	4.276206e-06	2.021821e-08	3.016393e+01	1.325619e+03
2.130000e-06	4.175924e-06	2.012194e-08	2.945655e+01	1.318819e+03
2.140000e-06	4.073992e-06	2.001679e-08	2.873753e+01	1.311503e+03
2.150000e-06	3.970438e-06	1.992249e-08	2.800707e+01	1.303937e+03
2.160000e-06	3.865435e-06	1.981900e-08	2.726640e+01	1.296405e+03
2.170000e-06	3.759139e-06	1.972783e-08	2.651659e+01	1.289111e+03
2.180000e-06	3.651620e-06	1.961213e-08	2.575816e+01	1.282110e+03
2.190000e-06	3.542799e-06	1.949702e-08	2.499055e+01	1.275276e+03
2.200000e-06	3.432612e-06	1.936821e-08	2.421330e+01	1.268335e+03
2.210000e-06	3.321032e-06	1.924777e-08	2.342623e+01	1.260943e+03
2.220000e-06	3.208205e-06	1.911835e-08	2.263035e+01	1.252786e+03
2.230000e-06	3.094228e-06	1.898304e-08	2.182637e+01	1.243678e+03
2.240000e-06	2.979011e-06	1.884119e-08	2.101365e+01	1.233623e+03
2.250000e-06	2.862557e-06	1.868857e-08	2.019219e+01	1.222816e+03
2.260000e-06	2.744895e-06	1.853006e-08	1.936222e+01	1.211577e+03
2.270000e-06	2.626089e-06	1.836958e-08	1.852417e+01	1.200256e+03
2.280000e-06	2.506166e-06	1.821340e-08	1.767824e+01	1.189104e+03
2.290000e-06	2.385339e-06	1.804228e-08	1.682594e+01	1.178186e+03
2.300000e-06	2.263837e-06	1.786041e-08	1.596888e+01	1.167337e+03
2.310000e-06	2.141605e-06	1.766587e-08	1.510667e+01	1.156196e+03
2.320000e-06	2.018633e-06	1.746964e-08	1.423923e+01	1.144303e+03
2.330000e-06	1.895031e-06	1.726273e-08	1.336736e+01	1.131228e+03
2.340000e-06	1.770759e-06	1.704628e-08	1.249076e+01	1.116709e+03
2.350000e-06	1.645866e-06	1.681958e-08	1.160978e+01	1.100727e+03
2.360000e-06	1.520499e-06	1.658303e-08	1.072545e+01	1.083520e+03
2.370000e-06	1.394637e-06	1.633577e-08	9.837632e+00	1.065500e+03
2.380000e-06	1.268255e-06	1.607045e-08	8.946141e+00	1.047116e+03
2.390000e-06	1.141387e-06	1.578994e-08	8.051230e+00	1.028676e+03
2.400000e-06	1.014065e-06	1.549141e-08	7.153115e+00	1.010212e+03
2.410000e-06	8.863575e-07	1.517796e-08	6.252278e+00	9.914100e+02
2.420000e-06	7.583289e-07	1.484820e-08	5.349176e+00	9.716451e+02
2.430000e-06	6.300425e-07	1.449833e-08	4.444257e+00	9.501187e+02
2.440000e-06	5.015680e-07	1.412443e-08	3.538010e+00	9.260597e+02
2.450000e-06	3.729211e-07	1.372009e-08	2.630548e+00	8.989310e+02
2.460000e-06	2.441232e-07	1.328433e-08	1.722021e+00	8.685730e+02
2.470000e-06	1.151897e-07	1.281812e-08	8.125363e-01	8.352252e+02
2.480000e-06	-1.381460e-08	1.231599e-08	-9.744680e-02	7.994000e+02
2.490000e-06	-1.428069e-07	1.176195e-08	-1.007345e+00	7.616229e+02
2.500000e-06	-2.717125e-07	1.114845e-08	-1.916633e+00	7.220968e+02
2.510000e-06	-4.005173e-07	1.047305e-08	-2.825209e+00	6.803803e+02
2.520000e-06	-5.292453e-07	9.727340e-09	-3.733243e+00	6.351782e+02
2.530000e-06	-6.578248e-07	8.897993e-09	-4.640231e+00	5.843276e+02
2.540000e-06	-7.861734e-07	7.963682e-09	-5.545589e+00	5.250212e+02
2.550000e-06	-9.142960e-07	6.897455e-09	-6.449352e+00	4.542539e+02
2.560000e-06	-1.042120e-06	5.664584e-09	-7.351008e+00	3.694201e+02
2.570000e-06	-1.169524e-06	4.224706e-09	-8.249705e+00	2.689430e+02
2.580000e-06	-1.296405e-06	2.541053e-09	-9.144710e+00	1.527991e+02
2.590000e-06	-1.422741e-06	5.958942e-10	-1.003587e+01	2.281147e+01
2.600000e-06	-1.548528e-06	-1.582426e-09	-1.092316e+01	-1.173723e+02
2.610000e-06	-1.673693e-06	-3.899737e-09	-1.180606e+01	-2.626347e+02
2.620000e-06	-1.798195e-06	-6.215399e-09	-1.268429e+01	-4.070231e+02
2.630000e-06	-1.922031e-06	-8.382336e-09	-1.355781e+01	-5.445502e+02
2.640000e-06	-2.045104e-06	-1.029371e-08	-1.442596e+01	-6.700081e+02
2.650000e-06	-2.167320e-06	-1.190974e-08	-1.528806e+01	-7.796399e+02
2.660000e-06	-2.288750e-06	-1.324308e-08	-1.614461e+01	-8.715453e+02
2.670000e-06	-2.409432e-06	-1.432969e-08	-1.699590e+01	-9.457535e+02
2.680000e-06	-2.529295e-06	-1.521389e-08	-1.784139e+01	-1.003968e+03
2.690000e-06	-2.648110e-06	-1.593764e-08	-1.867950e+01	-1.049058e+03
2.700000e-06	-2.765781e-06	-1.653719e-08	-1.950954e+01	-1.084414e+03
2.710000e-06	-2.882302e-06	-1.703906e-08	-2.033147e+01	-1.113311e+03
2.720000e-06	-2.997597e-06	-1.746296e-08	-2.114475e+01	-1.138409e+03
2.730000e-06	-3.111697e-06	-1.782677e-08	-2.194960e+01	-1.161462e+03
2.740000e-06	-3.224516e-06	-1.814484e-08	-2.274541e+01	-1.183282e+03
2.750000e-06	-3.335987e-06	-1.842757e-08	-2.353172e+01	-1.203911e+03
2.760000e-06	-3.446211e-06	-1.867999e-08	-2.430923e+01	-1.222936e+03
2.770000e-06	-3.555240e-06	-1.890885e-08	-2.507831e+01	-1.239836e+03
2.780000e-06	-3.663156e-06	-1.911762e-08	-2.583954e+01	-1.254280e+03
2.790000e-06	-3.769937e-06	-1.930597e-08	-2.659276e+01	-1.266295e+03
2.800000e-06	-3.875447e-06	-1.947725e-08	-2.733701e+01	-1.276286e+03
2.810000e-06	-3.979614e-06	-1.963635e-08	-2.807180e+01	-1.284928e+03
2.820000e-06	-4.082259e-06	-1.978652e-08	-2.879585e+01	-1.292969e+03
2.830000e-06	-4.183280e-06	-1.992687e-08	-2.950844e+01	-1.301032e+03
2.840000e-06	-4.282804e-06	-2.005823e-08	-3.021047e+01	-1.309458e+03
2.850000e-06	-4.380937e-06	-2.017984e-08	-3.090269e+01	-1.318251e+03
2.860000e-06	-4.477640e-06	-2.029281e-08	-3.158483e+01	-1.327125e+03
2.870000e-06	-4.572756e-06	-2.040003e-08	-3.225576e+01	-1.335626e+03
2.880000e-06	-4.666115e-06	-2.050115e-08	-3.291431e+01	-1.343307e+03
2.890000e-06	-4.757803e-06	-2.059620e-08	-3.356107e+01	-1.349874e+03
2.900000e-06	-4.847889e-06	-2.068447e-08	-3.419652e+01	-1.355280e+03
2.910000e-06	-4.936212e-06	-2.076697e-08	-3.481955e+01	-1.359736e+03
2.920000e-06	-5.022619e-06	-2.084618e-08	-3.542905e+01	-1.363640e+03
2.930000e-06	-5.107131e-06	-2.092191e-08	-3.602519e+01	-1.367453e+03
2.940000e-06	-5.189870e-06	-2.099367e-08	-3.660882e+01	-1.371559e+03
