# Temperatura_=_42.23
# Concentracion g/m^3_=_41000.0
# C_Vs_to_Am_M_A/Vsm_=_65563218390.804596
# pendiente_HvsI_1/m_=_3716.3
# ordenada_HvsI_A/m_=_1297.0
# frecuencia_Hz_=_302009.31917593203

Tiempo_(s)	Campo_(V.s)	Magnetizacion_(V.s)	Campo_(kA/m)	Magnetizacion_(A/m)
0.000000e+00	-6.749857e-06	-2.516587e-08	-4.746255e+01	-1.647542e+03
1.000000e-08	-6.746649e-06	-2.516588e-08	-4.743999e+01	-1.647969e+03
2.000000e-08	-6.741252e-06	-2.515624e-08	-4.740204e+01	-1.648159e+03
3.000000e-08	-6.733817e-06	-2.514704e-08	-4.734976e+01	-1.647920e+03
4.000000e-08	-6.724060e-06	-2.513682e-08	-4.728115e+01	-1.647162e+03
5.000000e-08	-6.711733e-06	-2.512160e-08	-4.719447e+01	-1.645927e+03
6.000000e-08	-6.696912e-06	-2.510032e-08	-4.709025e+01	-1.644373e+03
7.000000e-08	-6.679771e-06	-2.506733e-08	-4.696973e+01	-1.642731e+03
8.000000e-08	-6.660514e-06	-2.508332e-08	-4.683432e+01	-1.641229e+03
9.000000e-08	-6.638874e-06	-2.515904e-08	-4.668215e+01	-1.640028e+03
1.000000e-07	-6.614482e-06	-2.509813e-08	-4.651064e+01	-1.639171e+03
1.100000e-07	-6.587394e-06	-2.501663e-08	-4.632017e+01	-1.638576e+03
1.200000e-07	-6.557981e-06	-2.501304e-08	-4.611335e+01	-1.638060e+03
1.300000e-07	-6.526733e-06	-2.493027e-08	-4.589362e+01	-1.637401e+03
1.400000e-07	-6.493703e-06	-2.481733e-08	-4.566136e+01	-1.636405e+03
1.500000e-07	-6.458713e-06	-2.499345e-08	-4.541533e+01	-1.634963e+03
1.600000e-07	-6.421662e-06	-2.495029e-08	-4.515480e+01	-1.633082e+03
1.700000e-07	-6.382570e-06	-2.478885e-08	-4.487992e+01	-1.630879e+03
1.800000e-07	-6.341118e-06	-2.493729e-08	-4.458845e+01	-1.628533e+03
1.900000e-07	-6.297123e-06	-2.477710e-08	-4.427908e+01	-1.626228e+03
2.000000e-07	-6.250898e-06	-2.474663e-08	-4.395405e+01	-1.624088e+03
2.100000e-07	-6.202259e-06	-2.480186e-08	-4.361204e+01	-1.622131e+03
2.200000e-07	-6.150970e-06	-2.465519e-08	-4.325139e+01	-1.620267e+03
2.300000e-07	-6.097177e-06	-2.465949e-08	-4.287314e+01	-1.618318e+03
2.400000e-07	-6.041066e-06	-2.461934e-08	-4.247859e+01	-1.616080e+03
2.500000e-07	-5.982634e-06	-2.456110e-08	-4.206772e+01	-1.613387e+03
2.600000e-07	-5.921914e-06	-2.453811e-08	-4.164075e+01	-1.610167e+03
2.700000e-07	-5.859154e-06	-2.446670e-08	-4.119944e+01	-1.606464e+03
2.800000e-07	-5.794287e-06	-2.440531e-08	-4.074333e+01	-1.602432e+03
2.900000e-07	-5.727136e-06	-2.433351e-08	-4.027114e+01	-1.598283e+03
3.000000e-07	-5.657794e-06	-2.433341e-08	-3.978355e+01	-1.594223e+03
3.100000e-07	-5.586424e-06	-2.426918e-08	-3.928171e+01	-1.590384e+03
3.200000e-07	-5.512971e-06	-2.419687e-08	-3.876521e+01	-1.586783e+03
3.300000e-07	-5.437255e-06	-2.413362e-08	-3.823280e+01	-1.583310e+03
3.400000e-07	-5.359343e-06	-2.402165e-08	-3.768496e+01	-1.579762e+03
3.500000e-07	-5.279292e-06	-2.398682e-08	-3.712207e+01	-1.575903e+03
3.600000e-07	-5.197237e-06	-2.391816e-08	-3.654509e+01	-1.571540e+03
3.700000e-07	-5.113477e-06	-2.384954e-08	-3.595612e+01	-1.566582e+03
3.800000e-07	-5.028092e-06	-2.378046e-08	-3.535572e+01	-1.561072e+03
3.900000e-07	-4.941077e-06	-2.368713e-08	-3.474386e+01	-1.555172e+03
4.000000e-07	-4.852364e-06	-2.359245e-08	-3.412006e+01	-1.549114e+03
4.100000e-07	-4.761853e-06	-2.351219e-08	-3.348362e+01	-1.543126e+03
4.200000e-07	-4.669638e-06	-2.344801e-08	-3.283520e+01	-1.537357e+03
4.300000e-07	-4.575833e-06	-2.334899e-08	-3.217560e+01	-1.531825e+03
4.400000e-07	-4.480473e-06	-2.325000e-08	-3.150506e+01	-1.526408e+03
4.500000e-07	-4.383412e-06	-2.315100e-08	-3.082256e+01	-1.520875e+03
4.600000e-07	-4.284653e-06	-2.304431e-08	-3.012812e+01	-1.514955e+03
4.700000e-07	-4.184400e-06	-2.294499e-08	-2.942318e+01	-1.508423e+03
4.800000e-07	-4.082735e-06	-2.284253e-08	-2.870831e+01	-1.501165e+03
4.900000e-07	-3.979667e-06	-2.273388e-08	-2.798358e+01	-1.493221e+03
5.000000e-07	-3.875122e-06	-2.261207e-08	-2.724845e+01	-1.484769e+03
5.100000e-07	-3.769055e-06	-2.248667e-08	-2.650263e+01	-1.476069e+03
5.200000e-07	-3.661590e-06	-2.235624e-08	-2.574697e+01	-1.467380e+03
5.300000e-07	-3.552834e-06	-2.222221e-08	-2.498224e+01	-1.458872e+03
5.400000e-07	-3.442851e-06	-2.208785e-08	-2.420888e+01	-1.450563e+03
5.500000e-07	-3.331612e-06	-2.195165e-08	-2.342669e+01	-1.442303e+03
5.600000e-07	-3.219026e-06	-2.181137e-08	-2.263503e+01	-1.433810e+03
5.700000e-07	-3.105103e-06	-2.165802e-08	-2.183396e+01	-1.424755e+03
5.800000e-07	-2.989839e-06	-2.149669e-08	-2.102347e+01	-1.414854e+03
5.900000e-07	-2.873294e-06	-2.132931e-08	-2.020396e+01	-1.403960e+03
6.000000e-07	-2.755630e-06	-2.115687e-08	-1.937659e+01	-1.392111e+03
6.100000e-07	-2.637052e-06	-2.097998e-08	-1.854279e+01	-1.379515e+03
6.200000e-07	-2.517558e-06	-2.079884e-08	-1.770256e+01	-1.366486e+03
6.300000e-07	-2.397030e-06	-2.060780e-08	-1.685505e+01	-1.353339e+03
6.400000e-07	-2.275607e-06	-2.040305e-08	-1.600125e+01	-1.340279e+03
6.500000e-07	-2.153415e-06	-2.019131e-08	-1.514204e+01	-1.327320e+03
6.600000e-07	-2.030414e-06	-1.997203e-08	-1.427714e+01	-1.314260e+03
6.700000e-07	-1.906627e-06	-1.974599e-08	-1.340671e+01	-1.300721e+03
6.800000e-07	-1.782133e-06	-1.951105e-08	-1.253131e+01	-1.286257e+03
6.900000e-07	-1.657040e-06	-1.926482e-08	-1.165170e+01	-1.270475e+03
7.000000e-07	-1.531467e-06	-1.900751e-08	-1.076872e+01	-1.253158e+03
7.100000e-07	-1.405487e-06	-1.873638e-08	-9.882876e+00	-1.234328e+03
7.200000e-07	-1.279081e-06	-1.845233e-08	-8.994033e+00	-1.214236e+03
7.300000e-07	-1.152250e-06	-1.815352e-08	-8.102206e+00	-1.193276e+03
7.400000e-07	-1.025041e-06	-1.783728e-08	-7.207714e+00	-1.171838e+03
7.500000e-07	-8.974416e-07	-1.750221e-08	-6.310484e+00	-1.150147e+03
7.600000e-07	-7.694865e-07	-1.714850e-08	-5.410750e+00	-1.128146e+03
7.700000e-07	-6.412546e-07	-1.677227e-08	-4.509070e+00	-1.105445e+03
7.800000e-07	-5.127700e-07	-1.637435e-08	-3.605613e+00	-1.081386e+03
7.900000e-07	-3.840806e-07	-1.595543e-08	-2.700715e+00	-1.055181e+03
8.000000e-07	-2.552763e-07	-1.550879e-08	-1.795010e+00	-1.026118e+03
8.100000e-07	-1.263471e-07	-1.502840e-08	-8.884269e-01	-9.937423e+02
8.200000e-07	2.683293e-09	-1.451068e-08	1.886794e-02	-9.579726e+02
8.300000e-07	1.317177e-07	-1.395229e-08	9.261912e-01	-9.190847e+02
8.400000e-07	2.606835e-07	-1.334682e-08	1.833032e+00	-8.775542e+02
8.500000e-07	3.895448e-07	-1.268986e-08	2.739138e+00	-8.337793e+02
8.600000e-07	5.183580e-07	-1.197356e-08	3.644905e+00	-7.877486e+02
8.700000e-07	6.470880e-07	-1.118494e-08	4.550089e+00	-7.387456e+02
8.800000e-07	7.755609e-07	-1.031408e-08	5.453463e+00	-6.851851e+02
8.900000e-07	9.037585e-07	-9.341702e-09	6.354902e+00	-6.246559e+02
9.000000e-07	1.031687e-06	-8.242471e-09	7.254446e+00	-5.542000e+02
9.100000e-07	1.159227e-06	-6.985295e-09	8.151268e+00	-4.708014e+02
9.200000e-07	1.286325e-06	-5.530704e-09	9.044974e+00	-3.720029e+02
9.300000e-07	1.412934e-06	-3.833283e-09	9.935243e+00	-2.565260e+02
9.400000e-07	1.539047e-06	-1.855983e-09	1.082202e+01	-1.247596e+02
9.500000e-07	1.664716e-06	3.915566e-10	1.170568e+01	2.100430e+01
9.600000e-07	1.789932e-06	2.804402e-09	1.258615e+01	1.766566e+02
9.700000e-07	1.914524e-06	5.262916e-09	1.346224e+01	3.366871e+02
9.800000e-07	2.038387e-06	7.712614e-09	1.433320e+01	4.948632e+02
9.900000e-07	2.161504e-06	1.004056e-08	1.519891e+01	6.450504e+02
1.000000e-06	2.283837e-06	1.210265e-08	1.605912e+01	7.820199e+02
1.010000e-06	2.405314e-06	1.384760e-08	1.691330e+01	9.020913e+02
1.020000e-06	2.525789e-06	1.529143e-08	1.776043e+01	1.003496e+03
1.030000e-06	2.645169e-06	1.647916e-08	1.859987e+01	1.086403e+03
1.040000e-06	2.763502e-06	1.745941e-08	1.943195e+01	1.152629e+03
1.050000e-06	2.880848e-06	1.827422e-08	2.025708e+01	1.205107e+03
1.060000e-06	2.997102e-06	1.895609e-08	2.107454e+01	1.247238e+03
1.070000e-06	3.112245e-06	1.953474e-08	2.188418e+01	1.282269e+03
1.080000e-06	3.226180e-06	2.002974e-08	2.268533e+01	1.312818e+03
1.090000e-06	3.338746e-06	2.045546e-08	2.347685e+01	1.340613e+03
1.100000e-06	3.450051e-06	2.082777e-08	2.425951e+01	1.366477e+03
1.110000e-06	3.560233e-06	2.115620e-08	2.503427e+01	1.390508e+03
1.120000e-06	3.669302e-06	2.145025e-08	2.580120e+01	1.412395e+03
1.130000e-06	3.777223e-06	2.171638e-08	2.656007e+01	1.431745e+03
1.140000e-06	3.883804e-06	2.195952e-08	2.730950e+01	1.448362e+03
1.150000e-06	3.988853e-06	2.218217e-08	2.804817e+01	1.462385e+03
1.160000e-06	4.092408e-06	2.238597e-08	2.877633e+01	1.474298e+03
1.170000e-06	4.194529e-06	2.257346e-08	2.949441e+01	1.484807e+03
1.180000e-06	4.295252e-06	2.274831e-08	3.020265e+01	1.494653e+03
1.190000e-06	4.394542e-06	2.291124e-08	3.090083e+01	1.504421e+03
1.200000e-06	4.492182e-06	2.306327e-08	3.158740e+01	1.514406e+03
1.210000e-06	4.588039e-06	2.320209e-08	3.226143e+01	1.524576e+03
1.220000e-06	4.682214e-06	2.333230e-08	3.292363e+01	1.534628e+03
1.230000e-06	4.774841e-06	2.345567e-08	3.357495e+01	1.544123e+03
1.240000e-06	4.865903e-06	2.357085e-08	3.421526e+01	1.552645e+03
1.250000e-06	4.955152e-06	2.367724e-08	3.484283e+01	1.559950e+03
1.260000e-06	5.042465e-06	2.377761e-08	3.545679e+01	1.566035e+03
1.270000e-06	5.128039e-06	2.387417e-08	3.605851e+01	1.571144e+03
1.280000e-06	5.211967e-06	2.396421e-08	3.664866e+01	1.575687e+03
1.290000e-06	5.294009e-06	2.404903e-08	3.722555e+01	1.580117e+03
1.300000e-06	5.373998e-06	2.412780e-08	3.778800e+01	1.584796e+03
1.310000e-06	5.452026e-06	2.420220e-08	3.833667e+01	1.589901e+03
1.320000e-06	5.528092e-06	2.427316e-08	3.887154e+01	1.595381e+03
1.330000e-06	5.601989e-06	2.434192e-08	3.939116e+01	1.600999e+03
1.340000e-06	5.673680e-06	2.440771e-08	3.989526e+01	1.606412e+03
1.350000e-06	5.743334e-06	2.447088e-08	4.038504e+01	1.611287e+03
1.360000e-06	5.811021e-06	2.453202e-08	4.086100e+01	1.615410e+03
1.370000e-06	5.876573e-06	2.458881e-08	4.132193e+01	1.618743e+03
1.380000e-06	5.939969e-06	2.464075e-08	4.176771e+01	1.621433e+03
1.390000e-06	6.001402e-06	2.469051e-08	4.219968e+01	1.623759e+03
1.400000e-06	6.060889e-06	2.473883e-08	4.261797e+01	1.626039e+03
1.410000e-06	6.118210e-06	2.478334e-08	4.302103e+01	1.628533e+03
1.420000e-06	6.173247e-06	2.482340e-08	4.340804e+01	1.631365e+03
1.430000e-06	6.226002e-06	2.486034e-08	4.377899e+01	1.634490e+03
1.440000e-06	6.276217e-06	2.489692e-08	4.413209e+01	1.637717e+03
1.450000e-06	6.323921e-06	2.493189e-08	4.446752e+01	1.640776e+03
1.460000e-06	6.369461e-06	2.496354e-08	4.478774e+01	1.643404e+03
1.470000e-06	6.412931e-06	2.499294e-08	4.509340e+01	1.645431e+03
1.480000e-06	6.454018e-06	2.501978e-08	4.538231e+01	1.646835e+03
1.490000e-06	6.492713e-06	2.504389e-08	4.565440e+01	1.647740e+03
1.500000e-06	6.529301e-06	2.506605e-08	4.591168e+01	1.648381e+03
1.510000e-06	6.563607e-06	2.508655e-08	4.615290e+01	1.649027e+03
1.520000e-06	6.595424e-06	2.510556e-08	4.637663e+01	1.649896e+03
1.530000e-06	6.624972e-06	2.512401e-08	4.658440e+01	1.651091e+03
1.540000e-06	6.652379e-06	2.514072e-08	4.677712e+01	1.652572e+03
1.550000e-06	6.677275e-06	2.515491e-08	4.695218e+01	1.654171e+03
1.560000e-06	6.699606e-06	2.516785e-08	4.710920e+01	1.655650e+03
1.570000e-06	6.719722e-06	2.517877e-08	4.725065e+01	1.656777e+03
1.580000e-06	6.737512e-06	2.518849e-08	4.737574e+01	1.657402e+03
1.590000e-06	6.752759e-06	2.519733e-08	4.748295e+01	1.657501e+03
1.600000e-06	6.765447e-06	2.520577e-08	4.757217e+01	1.657185e+03
1.610000e-06	6.775429e-06	2.521332e-08	4.764236e+01	1.656661e+03
1.620000e-06	6.782806e-06	2.521801e-08	4.769423e+01	1.656171e+03
1.630000e-06	6.787848e-06	2.522103e-08	4.772968e+01	1.655911e+03
1.640000e-06	6.790554e-06	2.522305e-08	4.774871e+01	1.655972e+03
1.650000e-06	6.790844e-06	2.522658e-08	4.775075e+01	1.656312e+03
1.660000e-06	6.788816e-06	2.521695e-08	4.773650e+01	1.656770e+03
1.670000e-06	6.784637e-06	2.520896e-08	4.770711e+01	1.657118e+03
1.680000e-06	6.778170e-06	2.520609e-08	4.766163e+01	1.657131e+03
1.690000e-06	6.769485e-06	2.519869e-08	4.760056e+01	1.656657e+03
1.700000e-06	6.758671e-06	2.519185e-08	4.752453e+01	1.655667e+03
1.710000e-06	6.745433e-06	2.519001e-08	4.743144e+01	1.654261e+03
1.720000e-06	6.729840e-06	2.520677e-08	4.732179e+01	1.652639e+03
1.730000e-06	6.712250e-06	2.515489e-08	4.719811e+01	1.651039e+03
1.740000e-06	6.692390e-06	2.501973e-08	4.705846e+01	1.649666e+03
1.750000e-06	6.669412e-06	2.505668e-08	4.689689e+01	1.648630e+03
1.760000e-06	6.643280e-06	2.509145e-08	4.671313e+01	1.647915e+03
1.770000e-06	6.614714e-06	2.505314e-08	4.651227e+01	1.647385e+03
1.780000e-06	6.584081e-06	2.519197e-08	4.629687e+01	1.646833e+03
1.790000e-06	6.551920e-06	2.513352e-08	4.607073e+01	1.646041e+03
1.800000e-06	6.518280e-06	2.491829e-08	4.583418e+01	1.644847e+03
1.810000e-06	6.482258e-06	2.508442e-08	4.558089e+01	1.643196e+03
1.820000e-06	6.443768e-06	2.496888e-08	4.531024e+01	1.641149e+03
1.830000e-06	6.403165e-06	2.495208e-08	4.502474e+01	1.638858e+03
1.840000e-06	6.360382e-06	2.512418e-08	4.472390e+01	1.636513e+03
1.850000e-06	6.315452e-06	2.484787e-08	4.440797e+01	1.634278e+03
1.860000e-06	6.268100e-06	2.495041e-08	4.407501e+01	1.632230e+03
1.870000e-06	6.218368e-06	2.492975e-08	4.372531e+01	1.630336e+03
1.880000e-06	6.166467e-06	2.479685e-08	4.336036e+01	1.628460e+03
1.890000e-06	6.111887e-06	2.487903e-08	4.297657e+01	1.626405e+03
1.900000e-06	6.054810e-06	2.467503e-08	4.257523e+01	1.623975e+03
1.910000e-06	5.995576e-06	2.472788e-08	4.215872e+01	1.621042e+03
1.920000e-06	5.934106e-06	2.472585e-08	4.172648e+01	1.617587e+03
1.930000e-06	5.870478e-06	2.463179e-08	4.127908e+01	1.613710e+03
1.940000e-06	5.804643e-06	2.462640e-08	4.081614e+01	1.609599e+03
1.950000e-06	5.736693e-06	2.444696e-08	4.033834e+01	1.605471e+03
1.960000e-06	5.666422e-06	2.449953e-08	3.984423e+01	1.601506e+03
1.970000e-06	5.593889e-06	2.438292e-08	3.933420e+01	1.597787e+03
1.980000e-06	5.519345e-06	2.434210e-08	3.881004e+01	1.594269e+03
1.990000e-06	5.442589e-06	2.434000e-08	3.827031e+01	1.590792e+03
2.000000e-06	5.363722e-06	2.420317e-08	3.771575e+01	1.587131e+03
2.010000e-06	5.282886e-06	2.417523e-08	3.714734e+01	1.583059e+03
2.020000e-06	5.200264e-06	2.402808e-08	3.656637e+01	1.578426e+03
2.030000e-06	5.115899e-06	2.401015e-08	3.597315e+01	1.573202e+03
2.040000e-06	5.029618e-06	2.394814e-08	3.536645e+01	1.567487e+03
2.050000e-06	4.941470e-06	2.386334e-08	3.474662e+01	1.561486e+03
2.060000e-06	4.851679e-06	2.378173e-08	3.411525e+01	1.555438e+03
2.070000e-06	4.760397e-06	2.367568e-08	3.347339e+01	1.549543e+03
2.080000e-06	4.667469e-06	2.361431e-08	3.281995e+01	1.543894e+03
2.090000e-06	4.572801e-06	2.348785e-08	3.215428e+01	1.538441e+03
2.100000e-06	4.476445e-06	2.341096e-08	3.147674e+01	1.533006e+03
2.110000e-06	4.378604e-06	2.330892e-08	3.078876e+01	1.527329e+03
2.120000e-06	4.279411e-06	2.321952e-08	3.009127e+01	1.521150e+03
2.130000e-06	4.178712e-06	2.310775e-08	2.938319e+01	1.514289e+03
2.140000e-06	4.076303e-06	2.299105e-08	2.866309e+01	1.506701e+03
2.150000e-06	3.972261e-06	2.288357e-08	2.793150e+01	1.498495e+03
2.160000e-06	3.866828e-06	2.276925e-08	2.719013e+01	1.489896e+03
2.170000e-06	3.760132e-06	2.266306e-08	2.643989e+01	1.481175e+03
2.180000e-06	3.652202e-06	2.252915e-08	2.568096e+01	1.472560e+03
2.190000e-06	3.542890e-06	2.240066e-08	2.491232e+01	1.464156e+03
2.200000e-06	3.432199e-06	2.225330e-08	2.413398e+01	1.455900e+03
2.210000e-06	3.320148e-06	2.211967e-08	2.334608e+01	1.447575e+03
2.220000e-06	3.206775e-06	2.197511e-08	2.254888e+01	1.438864e+03
2.230000e-06	3.092218e-06	2.183036e-08	2.174335e+01	1.429447e+03
2.240000e-06	2.976483e-06	2.167523e-08	2.092955e+01	1.419096e+03
2.250000e-06	2.859505e-06	2.151131e-08	2.010700e+01	1.407746e+03
2.260000e-06	2.741343e-06	2.133565e-08	1.927613e+01	1.395518e+03
2.270000e-06	2.622084e-06	2.115527e-08	1.843754e+01	1.382682e+03
2.280000e-06	2.501719e-06	2.097790e-08	1.759118e+01	1.369566e+03
2.290000e-06	2.380446e-06	2.078617e-08	1.673843e+01	1.356447e+03
2.300000e-06	2.258488e-06	2.058676e-08	1.588087e+01	1.343448e+03
2.310000e-06	2.135830e-06	2.037263e-08	1.501838e+01	1.330482e+03
2.320000e-06	2.012441e-06	2.015584e-08	1.415076e+01	1.317256e+03
2.330000e-06	1.888373e-06	1.992603e-08	1.327835e+01	1.303346e+03
2.340000e-06	1.763610e-06	1.968528e-08	1.240107e+01	1.288313e+03
2.350000e-06	1.638241e-06	1.943214e-08	1.151952e+01	1.271835e+03
2.360000e-06	1.512398e-06	1.917105e-08	1.063464e+01	1.253800e+03
2.370000e-06	1.386045e-06	1.889817e-08	9.746168e+00	1.234344e+03
2.380000e-06	1.259169e-06	1.860833e-08	8.854018e+00	1.213800e+03
2.390000e-06	1.131870e-06	1.830258e-08	7.958901e+00	1.192578e+03
2.400000e-06	1.004200e-06	1.797623e-08	7.061168e+00	1.171012e+03
2.410000e-06	8.761191e-07	1.763587e-08	6.160552e+00	1.149207e+03
2.420000e-06	7.477072e-07	1.727834e-08	5.257606e+00	1.126951e+03
2.430000e-06	6.190325e-07	1.690103e-08	4.352812e+00	1.103717e+03
2.440000e-06	4.901079e-07	1.649951e-08	3.446261e+00	1.078762e+03
2.450000e-06	3.609940e-07	1.606638e-08	2.538379e+00	1.051310e+03
2.460000e-06	2.317463e-07	1.560189e-08	1.629556e+00	1.020747e+03
2.470000e-06	1.024294e-07	1.510721e-08	7.202463e-01	9.867845e+02
2.480000e-06	-2.691727e-08	1.457943e-08	-1.892725e-01	9.495182e+02
2.490000e-06	-1.562711e-07	1.400645e-08	-1.098841e+00	9.093441e+02
2.500000e-06	-2.855998e-07	1.338195e-08	-2.008235e+00	8.667419e+02
2.510000e-06	-4.148858e-07	1.270122e-08	-2.917327e+00	8.219607e+02
2.520000e-06	-5.440471e-07	1.195651e-08	-3.825542e+00	7.746929e+02
2.530000e-06	-6.729877e-07	1.113764e-08	-4.732206e+00	7.238276e+02
2.540000e-06	-8.017106e-07	1.022779e-08	-5.637339e+00	6.673766e+02
2.550000e-06	-9.301417e-07	9.207254e-09	-6.540419e+00	6.026261e+02
2.560000e-06	-1.058126e-06	8.050696e-09	-7.440360e+00	5.265201e+02
2.570000e-06	-1.185680e-06	6.725459e-09	-8.337272e+00	4.362219e+02
2.580000e-06	-1.312837e-06	5.188976e-09	-9.231396e+00	3.297494e+02
2.590000e-06	-1.439494e-06	3.394537e-09	-1.012200e+01	2.065503e+02
2.600000e-06	-1.565613e-06	1.311553e-09	-1.100882e+01	6.788650e+01
2.610000e-06	-1.691201e-06	-1.031425e-09	-1.189191e+01	-8.307496e+01
2.620000e-06	-1.816102e-06	-3.520646e-09	-1.277017e+01	-2.415045e+02
2.630000e-06	-1.940261e-06	-6.044787e-09	-1.364321e+01	-4.014602e+02
2.640000e-06	-2.063654e-06	-8.513563e-09	-1.451087e+01	-5.566500e+02
2.650000e-06	-2.186167e-06	-1.078336e-08	-1.537233e+01	-7.012662e+02
2.660000e-06	-2.307888e-06	-1.274684e-08	-1.622823e+01	-8.307337e+02
2.670000e-06	-2.428818e-06	-1.438922e-08	-1.707857e+01	-9.422345e+02
2.680000e-06	-2.548851e-06	-1.574285e-08	-1.792260e+01	-1.034917e+03
2.690000e-06	-2.667927e-06	-1.685587e-08	-1.875989e+01	-1.109769e+03
2.700000e-06	-2.785933e-06	-1.777850e-08	-1.958967e+01	-1.169201e+03
2.710000e-06	-2.902827e-06	-1.855191e-08	-2.041163e+01	-1.216445e+03
2.720000e-06	-3.018525e-06	-1.920417e-08	-2.122517e+01	-1.254902e+03
2.730000e-06	-3.132955e-06	-1.975732e-08	-2.202980e+01	-1.287574e+03
2.740000e-06	-3.246097e-06	-2.022859e-08	-2.282538e+01	-1.316684e+03
2.750000e-06	-3.357881e-06	-2.063615e-08	-2.361140e+01	-1.343528e+03
2.760000e-06	-3.468366e-06	-2.099192e-08	-2.438829e+01	-1.368559e+03
2.770000e-06	-3.577649e-06	-2.130569e-08	-2.515673e+01	-1.391643e+03
2.780000e-06	-3.685796e-06	-2.158799e-08	-2.591718e+01	-1.412392e+03
2.790000e-06	-3.792770e-06	-2.184313e-08	-2.666938e+01	-1.430476e+03
2.800000e-06	-3.898468e-06	-2.207536e-08	-2.741261e+01	-1.445845e+03
2.810000e-06	-4.002769e-06	-2.229047e-08	-2.814602e+01	-1.458808e+03
2.820000e-06	-4.105557e-06	-2.248906e-08	-2.886879e+01	-1.469972e+03
2.830000e-06	-4.206786e-06	-2.267120e-08	-2.958059e+01	-1.480084e+03
2.840000e-06	-4.306478e-06	-2.283906e-08	-3.028159e+01	-1.489834e+03
2.850000e-06	-4.404742e-06	-2.299452e-08	-3.097255e+01	-1.499683e+03
2.860000e-06	-4.501518e-06	-2.314038e-08	-3.165304e+01	-1.509775e+03
2.870000e-06	-4.596712e-06	-2.327760e-08	-3.232241e+01	-1.519937e+03
2.880000e-06	-4.690213e-06	-2.340497e-08	-3.297988e+01	-1.529784e+03
2.890000e-06	-4.781982e-06	-2.352299e-08	-3.362516e+01	-1.538869e+03
2.900000e-06	-4.872133e-06	-2.363166e-08	-3.425907e+01	-1.546840e+03
2.910000e-06	-4.960580e-06	-2.373403e-08	-3.488100e+01	-1.553559e+03
2.920000e-06	-5.047182e-06	-2.383174e-08	-3.548996e+01	-1.559146e+03
2.930000e-06	-5.131858e-06	-2.392460e-08	-3.608536e+01	-1.563932e+03
2.940000e-06	-5.214655e-06	-2.401255e-08	-3.666756e+01	-1.568367e+03
