# Temperatura_=_82.14
# Concentracion g/m^3_=_28200.0
# C_Vs_to_Am_M_A/Vsm_=_65563218390.804596
# pendiente_HvsI_1/m_=_3716.3
# ordenada_HvsI_A/m_=_1297.0
# frecuencia_Hz_=_302096.36002068396

Tiempo_(s)	Campo_(V.s)	Magnetizacion_(V.s)	Campo_(kA/m)	Magnetizacion_(A/m)
0.000000e+00	-6.391926e-06	-2.458425e-08	-4.558154e+01	-1.609206e+03
1.000000e-08	-6.388553e-06	-2.457818e-08	-4.555748e+01	-1.608724e+03
2.000000e-08	-6.383097e-06	-2.456790e-08	-4.551858e+01	-1.608058e+03
3.000000e-08	-6.375714e-06	-2.455499e-08	-4.546593e+01	-1.607210e+03
4.000000e-08	-6.366182e-06	-2.453854e-08	-4.539796e+01	-1.606177e+03
5.000000e-08	-6.354246e-06	-2.452140e-08	-4.531284e+01	-1.604960e+03
6.000000e-08	-6.339852e-06	-2.450028e-08	-4.521019e+01	-1.603555e+03
7.000000e-08	-6.323150e-06	-2.447192e-08	-4.509109e+01	-1.601963e+03
8.000000e-08	-6.304504e-06	-2.446113e-08	-4.495812e+01	-1.600189e+03
9.000000e-08	-6.283800e-06	-2.447201e-08	-4.481048e+01	-1.598245e+03
1.000000e-07	-6.260715e-06	-2.441932e-08	-4.464586e+01	-1.596150e+03
1.100000e-07	-6.234991e-06	-2.435766e-08	-4.446242e+01	-1.593928e+03
1.200000e-07	-6.206852e-06	-2.432835e-08	-4.426176e+01	-1.591603e+03
1.300000e-07	-6.176867e-06	-2.427068e-08	-4.404793e+01	-1.589197e+03
1.400000e-07	-6.145252e-06	-2.419846e-08	-4.382248e+01	-1.586718e+03
1.500000e-07	-6.111799e-06	-2.424257e-08	-4.358393e+01	-1.584158e+03
1.600000e-07	-6.076336e-06	-2.419679e-08	-4.333104e+01	-1.581490e+03
1.700000e-07	-6.038996e-06	-2.408933e-08	-4.306476e+01	-1.578671e+03
1.800000e-07	-5.999619e-06	-2.412023e-08	-4.278396e+01	-1.575648e+03
1.900000e-07	-5.957810e-06	-2.400574e-08	-4.248581e+01	-1.572364e+03
2.000000e-07	-5.913783e-06	-2.393399e-08	-4.217185e+01	-1.568772e+03
2.100000e-07	-5.867731e-06	-2.389364e-08	-4.184345e+01	-1.564841e+03
2.200000e-07	-5.819307e-06	-2.373571e-08	-4.149813e+01	-1.560560e+03
2.300000e-07	-5.768359e-06	-2.368379e-08	-4.113481e+01	-1.555942e+03
2.400000e-07	-5.714987e-06	-2.364898e-08	-4.075421e+01	-1.551015e+03
2.500000e-07	-5.659507e-06	-2.357354e-08	-4.035858e+01	-1.545814e+03
2.600000e-07	-5.601875e-06	-2.350492e-08	-3.994760e+01	-1.540371e+03
2.700000e-07	-5.542022e-06	-2.341025e-08	-3.952078e+01	-1.534705e+03
2.800000e-07	-5.480192e-06	-2.329823e-08	-3.907986e+01	-1.528818e+03
2.900000e-07	-5.416394e-06	-2.316819e-08	-3.862491e+01	-1.522691e+03
3.000000e-07	-5.350535e-06	-2.310512e-08	-3.815526e+01	-1.516294e+03
3.100000e-07	-5.282581e-06	-2.303957e-08	-3.767068e+01	-1.509588e+03
3.200000e-07	-5.212656e-06	-2.291961e-08	-3.717203e+01	-1.502540e+03
3.300000e-07	-5.140896e-06	-2.278497e-08	-3.666030e+01	-1.495131e+03
3.400000e-07	-5.067254e-06	-2.263833e-08	-3.613515e+01	-1.487356e+03
3.500000e-07	-4.991546e-06	-2.253651e-08	-3.559528e+01	-1.479231e+03
3.600000e-07	-4.913685e-06	-2.241684e-08	-3.504004e+01	-1.470780e+03
3.700000e-07	-4.833829e-06	-2.229239e-08	-3.447058e+01	-1.462032e+03
3.800000e-07	-4.752177e-06	-2.216283e-08	-3.388830e+01	-1.453005e+03
3.900000e-07	-4.668923e-06	-2.199128e-08	-3.329461e+01	-1.443703e+03
4.000000e-07	-4.584306e-06	-2.182620e-08	-3.269120e+01	-1.434110e+03
4.100000e-07	-4.498307e-06	-2.168566e-08	-3.207793e+01	-1.424189e+03
4.200000e-07	-4.410805e-06	-2.154932e-08	-3.145395e+01	-1.413894e+03
4.300000e-07	-4.321825e-06	-2.138124e-08	-3.081941e+01	-1.403177e+03
4.400000e-07	-4.231232e-06	-2.120765e-08	-3.017339e+01	-1.391997e+03
4.500000e-07	-4.139008e-06	-2.103147e-08	-2.951573e+01	-1.380328e+03
4.600000e-07	-4.045317e-06	-2.083708e-08	-2.884761e+01	-1.368161e+03
4.700000e-07	-3.950310e-06	-2.064927e-08	-2.817010e+01	-1.355504e+03
4.800000e-07	-3.853920e-06	-2.045660e-08	-2.748274e+01	-1.342370e+03
4.900000e-07	-3.756089e-06	-2.024602e-08	-2.678509e+01	-1.328771e+03
5.000000e-07	-3.656745e-06	-2.001714e-08	-2.607666e+01	-1.314707e+03
5.100000e-07	-3.555954e-06	-1.978895e-08	-2.535790e+01	-1.300157e+03
5.200000e-07	-3.454025e-06	-1.956131e-08	-2.463104e+01	-1.285086e+03
5.300000e-07	-3.350939e-06	-1.932307e-08	-2.389592e+01	-1.269440e+03
5.400000e-07	-3.246593e-06	-1.907646e-08	-2.315182e+01	-1.253159e+03
5.500000e-07	-3.140998e-06	-1.881756e-08	-2.239881e+01	-1.236184e+03
5.600000e-07	-3.034071e-06	-1.854507e-08	-2.163630e+01	-1.218466e+03
5.700000e-07	-2.925939e-06	-1.825850e-08	-2.086520e+01	-1.199965e+03
5.800000e-07	-2.816768e-06	-1.796445e-08	-2.008669e+01	-1.180656e+03
5.900000e-07	-2.706637e-06	-1.765618e-08	-1.930133e+01	-1.160514e+03
6.000000e-07	-2.595611e-06	-1.732916e-08	-1.850959e+01	-1.139511e+03
6.100000e-07	-2.483522e-06	-1.698834e-08	-1.771028e+01	-1.117605e+03
6.200000e-07	-2.370398e-06	-1.663795e-08	-1.690357e+01	-1.094732e+03
6.300000e-07	-2.256361e-06	-1.627607e-08	-1.609036e+01	-1.070809e+03
6.400000e-07	-2.141339e-06	-1.589652e-08	-1.527013e+01	-1.045736e+03
6.500000e-07	-2.025319e-06	-1.549324e-08	-1.444278e+01	-1.019401e+03
6.600000e-07	-1.908451e-06	-1.506329e-08	-1.360938e+01	-9.916897e+02
6.700000e-07	-1.790900e-06	-1.461442e-08	-1.277111e+01	-9.624925e+02
6.800000e-07	-1.672828e-06	-1.414783e-08	-1.192913e+01	-9.317055e+02
6.900000e-07	-1.554329e-06	-1.365684e-08	-1.108409e+01	-8.992284e+02
7.000000e-07	-1.435411e-06	-1.313428e-08	-1.023608e+01	-8.649588e+02
7.100000e-07	-1.315949e-06	-1.257968e-08	-9.384183e+00	-8.287870e+02
7.200000e-07	-1.195933e-06	-1.199485e-08	-8.528329e+00	-7.905940e+02
7.300000e-07	-1.075424e-06	-1.137562e-08	-7.668972e+00	-7.502580e+02
7.400000e-07	-9.544783e-07	-1.072348e-08	-6.806492e+00	-7.076694e+02
7.500000e-07	-8.332198e-07	-1.004131e-08	-5.941784e+00	-6.627549e+02
7.600000e-07	-7.116765e-07	-9.324021e-09	-5.075045e+00	-6.155044e+02
7.700000e-07	-5.899498e-07	-8.565933e-09	-4.206998e+00	-5.659966e+02
7.800000e-07	-4.681033e-07	-7.776207e-09	-3.338097e+00	-5.144130e+02
7.900000e-07	-3.461057e-07	-6.963390e-09	-2.468119e+00	-4.610366e+02
8.000000e-07	-2.240214e-07	-6.129416e-09	-1.597522e+00	-4.062289e+02
8.100000e-07	-1.018523e-07	-5.281163e-09	-7.263202e-01	-3.503888e+02
8.200000e-07	2.042853e-08	-4.424508e-09	1.456781e-01	-2.938968e+02
8.300000e-07	1.427799e-07	-3.561864e-09	1.018179e+00	-2.370568e+02
8.400000e-07	2.651148e-07	-2.692099e-09	1.890563e+00	-1.800460e+02
8.500000e-07	3.873274e-07	-1.819383e-09	2.762075e+00	-1.228856e+02
8.600000e-07	5.094265e-07	-9.421553e-10	3.632777e+00	-6.544044e+01
8.700000e-07	6.314407e-07	-5.501918e-11	4.502875e+00	-7.450828e+00
8.800000e-07	7.533501e-07	8.439479e-10	5.372224e+00	5.140694e+01
8.900000e-07	8.751487e-07	1.756813e-09	6.240783e+00	1.114417e+02
9.000000e-07	9.967044e-07	2.687434e-09	7.107611e+00	1.728644e+02
9.100000e-07	1.117939e-06	3.642215e-09	7.972149e+00	2.357164e+02
9.200000e-07	1.238699e-06	4.615526e-09	8.833301e+00	2.998243e+02
9.300000e-07	1.358808e-06	5.602234e-09	9.689809e+00	3.647898e+02
9.400000e-07	1.478326e-06	6.596852e-09	1.054211e+01	4.300173e+02
9.500000e-07	1.597300e-06	7.585990e-09	1.139053e+01	4.947750e+02
9.600000e-07	1.715756e-06	8.555010e-09	1.223525e+01	5.582770e+02
9.700000e-07	1.833666e-06	9.489193e-09	1.307608e+01	6.197725e+02
9.800000e-07	1.950901e-06	1.038074e-08	1.391209e+01	6.786265e+02
9.900000e-07	2.067331e-06	1.122382e-08	1.474237e+01	7.343769e+02
1.000000e-06	2.182925e-06	1.201411e-08	1.556668e+01	7.867624e+02
1.010000e-06	2.297617e-06	1.275183e-08	1.638456e+01	8.357186e+02
1.020000e-06	2.411402e-06	1.344203e-08	1.719598e+01	8.813458e+02
1.030000e-06	2.524147e-06	1.408829e-08	1.799998e+01	9.238598e+02
1.040000e-06	2.635728e-06	1.469347e-08	1.879567e+01	9.635366e+02
1.050000e-06	2.746293e-06	1.525920e-08	1.958413e+01	1.000661e+03
1.060000e-06	2.855940e-06	1.578838e-08	2.036603e+01	1.035492e+03
1.070000e-06	2.964765e-06	1.628303e-08	2.114207e+01	1.068239e+03
1.080000e-06	3.072707e-06	1.674742e-08	2.191182e+01	1.099064e+03
1.090000e-06	3.179565e-06	1.718629e-08	2.267383e+01	1.128091e+03
1.100000e-06	3.285278e-06	1.760114e-08	2.342768e+01	1.155423e+03
1.110000e-06	3.389711e-06	1.799157e-08	2.417241e+01	1.181160e+03
1.120000e-06	3.492779e-06	1.835985e-08	2.490740e+01	1.205409e+03
1.130000e-06	3.594681e-06	1.870838e-08	2.563408e+01	1.228288e+03
1.140000e-06	3.695425e-06	1.903924e-08	2.635249e+01	1.249924e+03
1.150000e-06	3.794831e-06	1.935465e-08	2.706136e+01	1.270438e+03
1.160000e-06	3.892921e-06	1.965443e-08	2.776085e+01	1.289938e+03
1.170000e-06	3.989508e-06	1.993640e-08	2.844963e+01	1.308510e+03
1.180000e-06	4.084549e-06	2.020188e-08	2.912738e+01	1.326212e+03
1.190000e-06	4.178286e-06	2.045490e-08	2.979582e+01	1.343083e+03
1.200000e-06	4.270721e-06	2.069511e-08	3.045499e+01	1.359143e+03
1.210000e-06	4.361749e-06	2.092580e-08	3.110412e+01	1.374414e+03
1.220000e-06	4.451142e-06	2.114623e-08	3.174159e+01	1.388918e+03
1.230000e-06	4.538782e-06	2.135377e-08	3.236656e+01	1.402693e+03
1.240000e-06	4.624812e-06	2.155078e-08	3.298005e+01	1.415788e+03
1.250000e-06	4.709287e-06	2.174133e-08	3.358246e+01	1.428262e+03
1.260000e-06	4.792223e-06	2.192434e-08	3.417388e+01	1.440174e+03
1.270000e-06	4.873393e-06	2.209775e-08	3.475271e+01	1.451574e+03
1.280000e-06	4.952623e-06	2.226271e-08	3.531771e+01	1.462499e+03
1.290000e-06	5.030046e-06	2.242093e-08	3.586982e+01	1.472966e+03
1.300000e-06	5.105586e-06	2.257369e-08	3.640850e+01	1.482976e+03
1.310000e-06	5.179115e-06	2.272085e-08	3.693285e+01	1.492519e+03
1.320000e-06	5.250653e-06	2.286063e-08	3.744299e+01	1.501580e+03
1.330000e-06	5.320321e-06	2.299328e-08	3.793981e+01	1.510149e+03
1.340000e-06	5.388133e-06	2.311632e-08	3.842338e+01	1.518227e+03
1.350000e-06	5.453952e-06	2.323117e-08	3.889274e+01	1.525830e+03
1.360000e-06	5.517756e-06	2.334086e-08	3.934774e+01	1.532986e+03
1.370000e-06	5.579679e-06	2.344609e-08	3.978932e+01	1.539734e+03
1.380000e-06	5.639770e-06	2.354511e-08	4.021783e+01	1.546116e+03
1.390000e-06	5.697922e-06	2.363525e-08	4.063252e+01	1.552172e+03
1.400000e-06	5.753943e-06	2.371955e-08	4.103201e+01	1.557934e+03
1.410000e-06	5.807820e-06	2.380150e-08	4.141621e+01	1.563425e+03
1.420000e-06	5.859484e-06	2.388115e-08	4.178464e+01	1.568657e+03
1.430000e-06	5.908633e-06	2.395709e-08	4.213512e+01	1.573635e+03
1.440000e-06	5.955484e-06	2.402925e-08	4.246922e+01	1.578360e+03
1.450000e-06	6.000452e-06	2.409804e-08	4.278990e+01	1.582829e+03
1.460000e-06	6.043514e-06	2.416337e-08	4.309698e+01	1.587039e+03
1.470000e-06	6.084274e-06	2.422328e-08	4.338764e+01	1.590987e+03
1.480000e-06	6.122697e-06	2.427874e-08	4.366164e+01	1.594673e+03
1.490000e-06	6.159112e-06	2.433089e-08	4.392132e+01	1.598093e+03
1.500000e-06	6.193438e-06	2.437710e-08	4.416610e+01	1.601245e+03
1.510000e-06	6.225515e-06	2.441849e-08	4.439484e+01	1.604126e+03
1.520000e-06	6.255418e-06	2.445657e-08	4.460809e+01	1.606734e+03
1.530000e-06	6.283188e-06	2.449058e-08	4.480612e+01	1.609069e+03
1.540000e-06	6.308567e-06	2.452165e-08	4.498710e+01	1.611133e+03
1.550000e-06	6.331585e-06	2.455037e-08	4.515124e+01	1.612936e+03
1.560000e-06	6.352479e-06	2.457461e-08	4.530024e+01	1.614489e+03
1.570000e-06	6.371278e-06	2.459419e-08	4.543430e+01	1.615807e+03
1.580000e-06	6.387773e-06	2.461142e-08	4.555193e+01	1.616908e+03
1.590000e-06	6.401825e-06	2.462485e-08	4.565213e+01	1.617805e+03
1.600000e-06	6.413425e-06	2.463398e-08	4.573486e+01	1.618511e+03
1.610000e-06	6.422406e-06	2.464119e-08	4.579889e+01	1.619033e+03
1.620000e-06	6.428938e-06	2.464734e-08	4.584548e+01	1.619373e+03
1.630000e-06	6.433362e-06	2.465272e-08	4.587703e+01	1.619531e+03
1.640000e-06	6.435546e-06	2.465661e-08	4.589260e+01	1.619507e+03
1.650000e-06	6.435371e-06	2.465666e-08	4.589135e+01	1.619299e+03
1.660000e-06	6.433062e-06	2.464744e-08	4.587488e+01	1.618906e+03
1.670000e-06	6.428717e-06	2.463570e-08	4.584390e+01	1.618330e+03
1.680000e-06	6.422156e-06	2.462188e-08	4.579712e+01	1.617571e+03
1.690000e-06	6.413475e-06	2.460747e-08	4.573521e+01	1.616628e+03
1.700000e-06	6.402828e-06	2.459475e-08	4.565928e+01	1.615501e+03
1.710000e-06	6.389959e-06	2.458028e-08	4.556751e+01	1.614187e+03
1.720000e-06	6.374807e-06	2.456675e-08	4.545946e+01	1.612686e+03
1.730000e-06	6.357670e-06	2.451566e-08	4.533726e+01	1.611000e+03
1.740000e-06	6.338443e-06	2.443632e-08	4.520014e+01	1.609137e+03
1.750000e-06	6.316296e-06	2.442688e-08	4.504222e+01	1.607112e+03
1.760000e-06	6.290993e-06	2.441820e-08	4.486178e+01	1.604948e+03
1.770000e-06	6.263394e-06	2.438064e-08	4.466496e+01	1.602669e+03
1.780000e-06	6.233983e-06	2.440284e-08	4.445523e+01	1.600300e+03
1.790000e-06	6.202855e-06	2.436105e-08	4.423326e+01	1.597855e+03
1.800000e-06	6.170236e-06	2.426417e-08	4.400064e+01	1.595335e+03
1.810000e-06	6.135674e-06	2.424620e-08	4.375418e+01	1.592723e+03
1.820000e-06	6.099168e-06	2.412466e-08	4.349385e+01	1.589983e+03
1.830000e-06	6.060646e-06	2.412724e-08	4.321914e+01	1.587067e+03
1.840000e-06	6.019644e-06	2.420501e-08	4.292676e+01	1.583918e+03
1.850000e-06	5.976548e-06	2.406724e-08	4.261943e+01	1.580482e+03
1.860000e-06	5.931454e-06	2.407036e-08	4.229786e+01	1.576721e+03
1.870000e-06	5.884200e-06	2.402943e-08	4.196089e+01	1.572613e+03
1.880000e-06	5.834833e-06	2.391070e-08	4.160885e+01	1.568159e+03
1.890000e-06	5.782972e-06	2.388354e-08	4.123902e+01	1.563380e+03
1.900000e-06	5.728504e-06	2.372787e-08	4.085061e+01	1.558309e+03
1.910000e-06	5.671827e-06	2.367215e-08	4.044643e+01	1.552981e+03
1.920000e-06	5.613198e-06	2.364025e-08	4.002835e+01	1.547422e+03
1.930000e-06	5.552693e-06	2.355523e-08	3.959688e+01	1.541644e+03
1.940000e-06	5.490055e-06	2.349139e-08	3.915020e+01	1.535638e+03
1.950000e-06	5.425265e-06	2.331528e-08	3.868817e+01	1.529379e+03
1.960000e-06	5.358465e-06	2.323052e-08	3.821182e+01	1.522830e+03
1.970000e-06	5.289660e-06	2.310948e-08	3.772116e+01	1.515954e+03
1.980000e-06	5.218794e-06	2.300392e-08	3.721581e+01	1.508724e+03
1.990000e-06	5.145912e-06	2.294179e-08	3.669607e+01	1.501129e+03
2.000000e-06	5.071235e-06	2.280089e-08	3.616355e+01	1.493174e+03
2.010000e-06	4.994530e-06	2.268287e-08	3.561655e+01	1.484880e+03
2.020000e-06	4.915707e-06	2.250571e-08	3.505446e+01	1.476275e+03
2.030000e-06	4.835072e-06	2.239267e-08	3.447944e+01	1.467384e+03
2.040000e-06	4.752807e-06	2.228502e-08	3.389280e+01	1.458218e+03
2.050000e-06	4.669067e-06	2.213094e-08	3.329564e+01	1.448771e+03
2.060000e-06	4.583727e-06	2.198001e-08	3.268707e+01	1.439017e+03
2.070000e-06	4.496641e-06	2.180303e-08	3.206605e+01	1.428913e+03
2.080000e-06	4.407918e-06	2.164865e-08	3.143336e+01	1.418411e+03
2.090000e-06	4.317731e-06	2.147644e-08	3.079022e+01	1.407464e+03
2.100000e-06	4.226099e-06	2.132590e-08	3.013678e+01	1.396039e+03
2.110000e-06	4.132949e-06	2.114644e-08	2.947252e+01	1.384119e+03
2.120000e-06	4.038369e-06	2.094438e-08	2.879806e+01	1.371703e+03
2.130000e-06	3.942331e-06	2.074330e-08	2.811321e+01	1.358804e+03
2.140000e-06	3.844860e-06	2.054115e-08	2.741812e+01	1.345434e+03
2.150000e-06	3.746138e-06	2.034306e-08	2.671413e+01	1.331601e+03
2.160000e-06	3.646123e-06	2.012391e-08	2.600091e+01	1.317295e+03
2.170000e-06	3.544708e-06	1.990788e-08	2.527771e+01	1.302488e+03
2.180000e-06	3.441917e-06	1.966599e-08	2.454469e+01	1.287135e+03
2.190000e-06	3.337778e-06	1.941702e-08	2.380207e+01	1.271176e+03
2.200000e-06	3.232375e-06	1.916475e-08	2.305043e+01	1.254553e+03
2.210000e-06	3.125949e-06	1.891206e-08	2.229149e+01	1.237209e+03
2.220000e-06	3.018454e-06	1.863885e-08	2.152493e+01	1.219101e+03
2.230000e-06	2.909809e-06	1.834452e-08	2.075018e+01	1.200197e+03
2.240000e-06	2.800199e-06	1.804877e-08	1.996853e+01	1.180473e+03
2.250000e-06	2.689577e-06	1.774443e-08	1.917968e+01	1.159902e+03
2.260000e-06	2.577912e-06	1.742167e-08	1.838338e+01	1.138451e+03
2.270000e-06	2.465211e-06	1.707581e-08	1.757970e+01	1.116068e+03
2.280000e-06	2.351511e-06	1.671749e-08	1.676889e+01	1.092680e+03
2.290000e-06	2.236913e-06	1.634275e-08	1.595168e+01	1.068193e+03
2.300000e-06	2.121450e-06	1.595464e-08	1.512830e+01	1.042501e+03
2.310000e-06	2.005150e-06	1.554690e-08	1.429895e+01	1.015489e+03
2.320000e-06	1.887970e-06	1.511908e-08	1.346332e+01	9.870462e+02
2.330000e-06	1.770083e-06	1.466257e-08	1.262266e+01	9.570645e+02
2.340000e-06	1.651643e-06	1.417340e-08	1.177805e+01	9.254425e+02
2.350000e-06	1.532578e-06	1.365953e-08	1.092898e+01	8.920800e+02
2.360000e-06	1.412900e-06	1.312488e-08	1.007555e+01	8.568713e+02
2.370000e-06	1.292710e-06	1.256592e-08	9.218456e+00	8.197018e+02
2.380000e-06	1.172059e-06	1.197035e-08	8.358082e+00	7.804499e+02
2.390000e-06	1.051029e-06	1.133607e-08	7.495004e+00	7.389973e+02
2.400000e-06	9.297188e-07	1.066500e-08	6.629929e+00	6.952493e+02
2.410000e-06	8.081888e-07	9.962911e-09	5.763285e+00	6.491606e+02
2.420000e-06	6.864116e-07	9.228004e-09	4.894878e+00	6.007630e+02
2.430000e-06	5.643785e-07	8.458507e-09	4.024646e+00	5.501856e+02
2.440000e-06	4.421388e-07	7.659138e-09	3.152941e+00	4.976622e+02
2.450000e-06	3.198045e-07	6.831056e-09	2.280562e+00	4.435191e+02
2.460000e-06	1.974353e-07	5.979887e-09	1.407933e+00	3.881428e+02
2.470000e-06	7.495210e-08	5.118114e-09	5.344918e-01	3.319302e+02
2.480000e-06	-4.756736e-08	4.254898e-09	-3.392082e-01	2.752308e+02
2.490000e-06	-1.700679e-07	3.388725e-09	-1.212774e+00	2.182903e+02
2.500000e-06	-2.925478e-07	2.516232e-09	-2.086191e+00	1.612099e+02
2.510000e-06	-4.149475e-07	1.639903e-09	-2.959037e+00	1.039305e+02
2.520000e-06	-5.372802e-07	7.582707e-10	-3.831405e+00	4.624892e+01
2.530000e-06	-6.594734e-07	-1.331008e-10	-4.702779e+00	-1.213561e+01
2.540000e-06	-7.814022e-07	-1.040994e-09	-5.572267e+00	-7.154988e+01
2.550000e-06	-9.030278e-07	-1.968999e-09	-6.439592e+00	-1.322638e+02
2.560000e-06	-1.024373e-06	-2.917002e-09	-7.304921e+00	-1.944110e+02
2.570000e-06	-1.145348e-06	-3.886480e-09	-8.167602e+00	-2.579293e+02
2.580000e-06	-1.265925e-06	-4.872260e-09	-9.027454e+00	-3.225315e+02
2.590000e-06	-1.386049e-06	-5.868428e-09	-9.884071e+00	-3.877151e+02
2.600000e-06	-1.505521e-06	-6.867154e-09	-1.073604e+01	-4.528070e+02
2.610000e-06	-1.624394e-06	-7.854255e-09	-1.158374e+01	-5.170373e+02
2.620000e-06	-1.742745e-06	-8.814134e-09	-1.242771e+01	-5.796267e+02
2.630000e-06	-1.860413e-06	-9.736550e-09	-1.326681e+01	-6.398735e+02
2.640000e-06	-1.977224e-06	-1.061503e-08	-1.409980e+01	-6.972234e+02
2.650000e-06	-2.093024e-06	-1.144305e-08	-1.492559e+01	-7.513136e+02
2.660000e-06	-2.207808e-06	-1.221774e-08	-1.574413e+01	-8.019836e+02
2.670000e-06	-2.321618e-06	-1.294229e-08	-1.655572e+01	-8.492566e+02
2.680000e-06	-2.434425e-06	-1.361902e-08	-1.736016e+01	-8.932976e+02
2.690000e-06	-2.546222e-06	-1.425020e-08	-1.815740e+01	-9.343592e+02
2.700000e-06	-2.656951e-06	-1.484039e-08	-1.894702e+01	-9.727277e+02
2.710000e-06	-2.766643e-06	-1.539479e-08	-1.972924e+01	-1.008678e+03
2.720000e-06	-2.875457e-06	-1.591590e-08	-2.050520e+01	-1.042446e+03
2.730000e-06	-2.983438e-06	-1.640321e-08	-2.127523e+01	-1.074217e+03
2.740000e-06	-3.090495e-06	-1.685916e-08	-2.203867e+01	-1.104132e+03
2.750000e-06	-3.196558e-06	-1.728579e-08	-2.279501e+01	-1.132301e+03
2.760000e-06	-3.301462e-06	-1.768694e-08	-2.354310e+01	-1.158825e+03
2.770000e-06	-3.405141e-06	-1.806896e-08	-2.428244e+01	-1.183806e+03
2.780000e-06	-3.507624e-06	-1.843281e-08	-2.501326e+01	-1.207357e+03
2.790000e-06	-3.608723e-06	-1.877637e-08	-2.573420e+01	-1.229602e+03
2.800000e-06	-3.708427e-06	-1.909914e-08	-2.644521e+01	-1.250664e+03
2.810000e-06	-3.806935e-06	-1.940425e-08	-2.714768e+01	-1.270662e+03
2.820000e-06	-3.904263e-06	-1.969452e-08	-2.784173e+01	-1.289691e+03
2.830000e-06	-4.000265e-06	-1.997053e-08	-2.852634e+01	-1.307824e+03
2.840000e-06	-4.094856e-06	-2.023437e-08	-2.920087e+01	-1.325110e+03
2.850000e-06	-4.187887e-06	-2.048636e-08	-2.986429e+01	-1.341575e+03
2.860000e-06	-4.279350e-06	-2.072758e-08	-3.051653e+01	-1.357241e+03
2.870000e-06	-4.369405e-06	-2.095848e-08	-3.115872e+01	-1.372126e+03
2.880000e-06	-4.457867e-06	-2.117730e-08	-3.178955e+01	-1.386263e+03
2.890000e-06	-4.544686e-06	-2.138471e-08	-3.240867e+01	-1.399694e+03
2.900000e-06	-4.629818e-06	-2.158147e-08	-3.301575e+01	-1.412473e+03
2.910000e-06	-4.713245e-06	-2.176941e-08	-3.361068e+01	-1.424661e+03
2.920000e-06	-4.795072e-06	-2.194879e-08	-3.419420e+01	-1.436314e+03
2.930000e-06	-4.875169e-06	-2.211908e-08	-3.476538e+01	-1.447475e+03
2.940000e-06	-4.953374e-06	-2.228041e-08	-3.532306e+01	-1.458172e+03
