# Temperatura_=_84.23
# Concentracion g/m^3_=_28200.0
# C_Vs_to_Am_M_A/Vsm_=_65563218390.804596
# pendiente_HvsI_1/m_=_3716.3
# ordenada_HvsI_A/m_=_1297.0
# frecuencia_Hz_=_302093.90861190704

Tiempo_(s)	Campo_(V.s)	Magnetizacion_(V.s)	Campo_(kA/m)	Magnetizacion_(A/m)
0.000000e+00	-6.359324e-06	-2.460147e-08	-4.559507e+01	-1.611511e+03
1.000000e-08	-6.357583e-06	-2.459961e-08	-4.558259e+01	-1.611112e+03
2.000000e-08	-6.353599e-06	-2.459201e-08	-4.555402e+01	-1.610532e+03
3.000000e-08	-6.347643e-06	-2.458201e-08	-4.551132e+01	-1.609771e+03
4.000000e-08	-6.339750e-06	-2.456957e-08	-4.545473e+01	-1.608827e+03
5.000000e-08	-6.329661e-06	-2.454874e-08	-4.538239e+01	-1.607695e+03
6.000000e-08	-6.317152e-06	-2.452356e-08	-4.529271e+01	-1.606371e+03
7.000000e-08	-6.302324e-06	-2.449368e-08	-4.518639e+01	-1.604855e+03
8.000000e-08	-6.285280e-06	-2.445945e-08	-4.506419e+01	-1.603152e+03
9.000000e-08	-6.266190e-06	-2.445951e-08	-4.492732e+01	-1.601278e+03
1.000000e-07	-6.244937e-06	-2.449893e-08	-4.477494e+01	-1.599255e+03
1.100000e-07	-6.221247e-06	-2.442267e-08	-4.460509e+01	-1.597110e+03
1.200000e-07	-6.194973e-06	-2.434533e-08	-4.441671e+01	-1.594869e+03
1.300000e-07	-6.166377e-06	-2.432733e-08	-4.421168e+01	-1.592555e+03
1.400000e-07	-6.136013e-06	-2.423533e-08	-4.399397e+01	-1.590171e+03
1.500000e-07	-6.104173e-06	-2.413061e-08	-4.376569e+01	-1.587706e+03
1.600000e-07	-6.070540e-06	-2.426568e-08	-4.352455e+01	-1.585125e+03
1.700000e-07	-6.034822e-06	-2.416637e-08	-4.326846e+01	-1.582376e+03
1.800000e-07	-5.997201e-06	-2.402532e-08	-4.299873e+01	-1.579399e+03
1.900000e-07	-5.957478e-06	-2.414098e-08	-4.271391e+01	-1.576134e+03
2.000000e-07	-5.915342e-06	-2.394318e-08	-4.241181e+01	-1.572534e+03
2.100000e-07	-5.871096e-06	-2.390375e-08	-4.209457e+01	-1.568573e+03
2.200000e-07	-5.824740e-06	-2.389061e-08	-4.176221e+01	-1.564251e+03
2.300000e-07	-5.776016e-06	-2.367751e-08	-4.141287e+01	-1.559594e+03
2.400000e-07	-5.724840e-06	-2.365421e-08	-4.104595e+01	-1.554647e+03
2.500000e-07	-5.671200e-06	-2.360156e-08	-4.066136e+01	-1.549459e+03
2.600000e-07	-5.615421e-06	-2.351676e-08	-4.026144e+01	-1.544076e+03
2.700000e-07	-5.557451e-06	-2.348051e-08	-3.984581e+01	-1.538524e+03
2.800000e-07	-5.497346e-06	-2.337084e-08	-3.941486e+01	-1.532804e+03
2.900000e-07	-5.435354e-06	-2.325538e-08	-3.897039e+01	-1.526891e+03
3.000000e-07	-5.371440e-06	-2.312191e-08	-3.851214e+01	-1.520742e+03
3.100000e-07	-5.305453e-06	-2.307295e-08	-3.803903e+01	-1.514301e+03
3.200000e-07	-5.237398e-06	-2.299280e-08	-3.755109e+01	-1.507518e+03
3.300000e-07	-5.167351e-06	-2.287064e-08	-3.704887e+01	-1.500359e+03
3.400000e-07	-5.095529e-06	-2.274926e-08	-3.653391e+01	-1.492812e+03
3.500000e-07	-5.021837e-06	-2.258646e-08	-3.600556e+01	-1.484887e+03
3.600000e-07	-4.945990e-06	-2.249098e-08	-3.546175e+01	-1.476614e+03
3.700000e-07	-4.868108e-06	-2.236246e-08	-3.490336e+01	-1.468031e+03
3.800000e-07	-4.788232e-06	-2.224092e-08	-3.433066e+01	-1.459169e+03
3.900000e-07	-4.706587e-06	-2.211761e-08	-3.374528e+01	-1.450045e+03
4.000000e-07	-4.623399e-06	-2.193709e-08	-3.314884e+01	-1.440654e+03
4.100000e-07	-4.538757e-06	-2.176930e-08	-3.254198e+01	-1.430966e+03
4.200000e-07	-4.452734e-06	-2.162706e-08	-3.192521e+01	-1.420933e+03
4.300000e-07	-4.365298e-06	-2.149130e-08	-3.129831e+01	-1.410504e+03
4.400000e-07	-4.276373e-06	-2.132057e-08	-3.066073e+01	-1.399628e+03
4.500000e-07	-4.185771e-06	-2.114409e-08	-3.001113e+01	-1.388270e+03
4.600000e-07	-4.093574e-06	-2.096582e-08	-2.935010e+01	-1.376414e+03
4.700000e-07	-3.999997e-06	-2.076473e-08	-2.867917e+01	-1.364064e+03
4.800000e-07	-3.905063e-06	-2.057593e-08	-2.799852e+01	-1.351232e+03
4.900000e-07	-3.808836e-06	-2.038163e-08	-2.730859e+01	-1.337937e+03
5.000000e-07	-3.711155e-06	-2.016869e-08	-2.660823e+01	-1.324184e+03
5.100000e-07	-3.611916e-06	-1.993669e-08	-2.589671e+01	-1.309962e+03
5.200000e-07	-3.511394e-06	-1.970619e-08	-2.517599e+01	-1.295240e+03
5.300000e-07	-3.409697e-06	-1.947900e-08	-2.444684e+01	-1.279968e+03
5.400000e-07	-3.306739e-06	-1.923790e-08	-2.370865e+01	-1.264084e+03
5.500000e-07	-3.202632e-06	-1.898707e-08	-2.296223e+01	-1.247528e+03
5.600000e-07	-3.097306e-06	-1.872265e-08	-2.220706e+01	-1.230245e+03
5.700000e-07	-2.990551e-06	-1.844697e-08	-2.144165e+01	-1.212196e+03
5.800000e-07	-2.882602e-06	-1.815686e-08	-2.066768e+01	-1.193359e+03
5.900000e-07	-2.773729e-06	-1.785853e-08	-1.988708e+01	-1.173716e+03
6.000000e-07	-2.663901e-06	-1.754621e-08	-1.909964e+01	-1.153251e+03
6.100000e-07	-2.553130e-06	-1.721286e-08	-1.830543e+01	-1.131937e+03
6.200000e-07	-2.441394e-06	-1.686644e-08	-1.750430e+01	-1.109725e+03
6.300000e-07	-2.328792e-06	-1.651173e-08	-1.669697e+01	-1.086543e+03
6.400000e-07	-2.215270e-06	-1.614722e-08	-1.588304e+01	-1.062293e+03
6.500000e-07	-2.100646e-06	-1.576365e-08	-1.506121e+01	-1.036864e+03
6.600000e-07	-1.985049e-06	-1.535568e-08	-1.423240e+01	-1.010137e+03
6.700000e-07	-1.868690e-06	-1.492046e-08	-1.339813e+01	-9.819956e+02
6.800000e-07	-1.751694e-06	-1.446628e-08	-1.255929e+01	-9.523318e+02
6.900000e-07	-1.634108e-06	-1.399358e-08	-1.171622e+01	-9.210474e+02
7.000000e-07	-1.515971e-06	-1.349495e-08	-1.086920e+01	-8.880483e+02
7.100000e-07	-1.397277e-06	-1.296767e-08	-1.001819e+01	-8.532379e+02
7.200000e-07	-1.278121e-06	-1.240527e-08	-9.163866e+00	-8.165100e+02
7.300000e-07	-1.158553e-06	-1.181218e-08	-8.306589e+00	-7.777489e+02
7.400000e-07	-1.038580e-06	-1.118491e-08	-7.446407e+00	-7.368368e+02
7.500000e-07	-9.183424e-07	-1.052641e-08	-6.584330e+00	-6.936719e+02
7.600000e-07	-7.978732e-07	-9.837346e-09	-5.720590e+00	-6.481939e+02
7.700000e-07	-6.771427e-07	-9.111031e-09	-4.854976e+00	-6.004122e+02
7.800000e-07	-5.561603e-07	-8.346276e-09	-3.987557e+00	-5.504286e+02
7.900000e-07	-4.350238e-07	-7.550863e-09	-3.119033e+00	-4.984491e+02
8.000000e-07	-3.137839e-07	-6.733984e-09	-2.249768e+00	-4.447757e+02
8.100000e-07	-1.923986e-07	-5.898320e-09	-1.379459e+00	-3.897793e+02
8.200000e-07	-7.083253e-08	-5.051834e-09	-5.078549e-01	-3.338536e+02
8.300000e-07	5.083570e-08	-4.196862e-09	3.644817e-01	-2.773586e+02
8.400000e-07	1.725015e-07	-3.334154e-09	1.236801e+00	-2.205641e+02
8.500000e-07	2.941668e-07	-2.463148e-09	2.109116e+00	-1.636057e+02
8.600000e-07	4.157469e-07	-1.590059e-09	2.980821e+00	-1.064630e+02
8.700000e-07	5.371455e-07	-7.116584e-10	3.851225e+00	-4.896914e+01
8.800000e-07	6.583779e-07	1.773520e-10	4.720437e+00	9.150220e+00
8.900000e-07	7.794902e-07	1.077530e-09	5.588788e+00	6.821156e+01
9.000000e-07	9.003914e-07	1.992940e-09	6.455625e+00	1.284943e+02
9.100000e-07	1.021006e-06	2.927672e-09	7.320408e+00	1.901620e+02
9.200000e-07	1.141256e-06	3.885283e-09	8.182574e+00	2.531992e+02
9.300000e-07	1.261096e-06	4.860259e-09	9.041803e+00	3.173764e+02
9.400000e-07	1.380533e-06	5.847415e-09	9.898142e+00	3.822502e+02
9.500000e-07	1.499461e-06	6.839602e-09	1.075083e+01	4.471992e+02
9.600000e-07	1.617820e-06	7.823668e-09	1.159944e+01	5.114891e+02
9.700000e-07	1.735552e-06	8.783072e-09	1.244356e+01	5.743547e+02
9.800000e-07	1.852667e-06	9.704637e-09	1.328325e+01	6.350841e+02
9.900000e-07	1.969179e-06	1.058383e-08	1.411861e+01	6.930914e+02
1.000000e-06	2.084851e-06	1.141550e-08	1.494796e+01	7.479655e+02
1.010000e-06	2.199520e-06	1.219431e-08	1.577012e+01	7.994897e+02
1.020000e-06	2.313152e-06	1.292033e-08	1.658483e+01	8.476315e+02
1.030000e-06	2.425828e-06	1.359988e-08	1.739270e+01	8.925091e+02
1.040000e-06	2.537580e-06	1.423529e-08	1.819394e+01	9.343426e+02
1.050000e-06	2.648386e-06	1.483207e-08	1.898839e+01	9.734024e+02
1.060000e-06	2.758267e-06	1.539043e-08	1.977622e+01	1.009964e+03
1.070000e-06	2.867236e-06	1.591344e-08	2.055750e+01	1.044273e+03
1.080000e-06	2.975373e-06	1.640060e-08	2.133282e+01	1.076534e+03
1.090000e-06	3.082526e-06	1.685807e-08	2.210109e+01	1.106906e+03
1.100000e-06	3.188509e-06	1.729124e-08	2.286097e+01	1.135514e+03
1.110000e-06	3.293201e-06	1.769965e-08	2.361159e+01	1.162464e+03
1.120000e-06	3.396549e-06	1.808486e-08	2.435257e+01	1.187857e+03
1.130000e-06	3.498718e-06	1.844856e-08	2.508510e+01	1.211801e+03
1.140000e-06	3.599788e-06	1.879454e-08	2.580975e+01	1.234411e+03
1.150000e-06	3.699711e-06	1.912393e-08	2.652618e+01	1.255804e+03
1.160000e-06	3.798332e-06	1.943803e-08	2.723327e+01	1.276096e+03
1.170000e-06	3.895501e-06	1.973361e-08	2.792996e+01	1.295385e+03
1.180000e-06	3.991128e-06	2.001045e-08	2.861558e+01	1.313754e+03
1.190000e-06	4.085358e-06	2.027220e-08	2.929120e+01	1.331260e+03
1.200000e-06	4.178299e-06	2.052227e-08	2.995756e+01	1.347943e+03
1.210000e-06	4.269899e-06	2.076020e-08	3.061432e+01	1.363831e+03
1.220000e-06	4.360000e-06	2.098969e-08	3.126032e+01	1.378947e+03
1.230000e-06	4.448354e-06	2.120831e-08	3.189380e+01	1.393319e+03
1.240000e-06	4.535065e-06	2.141637e-08	3.251550e+01	1.406983e+03
1.250000e-06	4.620257e-06	2.161292e-08	3.312631e+01	1.419985e+03
1.260000e-06	4.703936e-06	2.180120e-08	3.372628e+01	1.432376e+03
1.270000e-06	4.786035e-06	2.198211e-08	3.431490e+01	1.444208e+03
1.280000e-06	4.866259e-06	2.215394e-08	3.489009e+01	1.455527e+03
1.290000e-06	4.944575e-06	2.231862e-08	3.545161e+01	1.466365e+03
1.300000e-06	5.021134e-06	2.247703e-08	3.600052e+01	1.476742e+03
1.310000e-06	5.095732e-06	2.262980e-08	3.653537e+01	1.486664e+03
1.320000e-06	5.168288e-06	2.277549e-08	3.705558e+01	1.496127e+03
1.330000e-06	5.238964e-06	2.291417e-08	3.756232e+01	1.505122e+03
1.340000e-06	5.307802e-06	2.304673e-08	3.805587e+01	1.513643e+03
1.350000e-06	5.374803e-06	2.317134e-08	3.853626e+01	1.521690e+03
1.360000e-06	5.439806e-06	2.328759e-08	3.900231e+01	1.529274e+03
1.370000e-06	5.502784e-06	2.339746e-08	3.945385e+01	1.536415e+03
1.380000e-06	5.563952e-06	2.350090e-08	3.989241e+01	1.543141e+03
1.390000e-06	5.623294e-06	2.359752e-08	4.031788e+01	1.549486e+03
1.400000e-06	5.680583e-06	2.368792e-08	4.072864e+01	1.555485e+03
1.410000e-06	5.735799e-06	2.377428e-08	4.112453e+01	1.561170e+03
1.420000e-06	5.788942e-06	2.385686e-08	4.150555e+01	1.566568e+03
1.430000e-06	5.839648e-06	2.393541e-08	4.186910e+01	1.571701e+03
1.440000e-06	5.887871e-06	2.400972e-08	4.221485e+01	1.576581e+03
1.450000e-06	5.933942e-06	2.408050e-08	4.254517e+01	1.581217e+03
1.460000e-06	5.978131e-06	2.414750e-08	4.286200e+01	1.585611e+03
1.470000e-06	6.020323e-06	2.421094e-08	4.316450e+01	1.589759e+03
1.480000e-06	6.060228e-06	2.427054e-08	4.345061e+01	1.593656e+03
1.490000e-06	6.097961e-06	2.432720e-08	4.372115e+01	1.597291e+03
1.500000e-06	6.133729e-06	2.437964e-08	4.397760e+01	1.600657e+03
1.510000e-06	6.167338e-06	2.442564e-08	4.421857e+01	1.603745e+03
1.520000e-06	6.198671e-06	2.446681e-08	4.444322e+01	1.606550e+03
1.530000e-06	6.227944e-06	2.450419e-08	4.465310e+01	1.609071e+03
1.540000e-06	6.255199e-06	2.453749e-08	4.484852e+01	1.611311e+03
1.550000e-06	6.280053e-06	2.456704e-08	4.502672e+01	1.613281e+03
1.560000e-06	6.302445e-06	2.459356e-08	4.518726e+01	1.614993e+03
1.570000e-06	6.322768e-06	2.461599e-08	4.533298e+01	1.616463e+03
1.580000e-06	6.340934e-06	2.463480e-08	4.546322e+01	1.617707e+03
1.590000e-06	6.356692e-06	2.464968e-08	4.557620e+01	1.618738e+03
1.600000e-06	6.370019e-06	2.466121e-08	4.567175e+01	1.619566e+03
1.610000e-06	6.380872e-06	2.467115e-08	4.574957e+01	1.620198e+03
1.620000e-06	6.389249e-06	2.467979e-08	4.580963e+01	1.620639e+03
1.630000e-06	6.395281e-06	2.468648e-08	4.585287e+01	1.620890e+03
1.640000e-06	6.399186e-06	2.469095e-08	4.588088e+01	1.620954e+03
1.650000e-06	6.400821e-06	2.469234e-08	4.589260e+01	1.620833e+03
1.660000e-06	6.400092e-06	2.468996e-08	4.588737e+01	1.620529e+03
1.670000e-06	6.397285e-06	2.467602e-08	4.586724e+01	1.620044e+03
1.680000e-06	6.392472e-06	2.466657e-08	4.583273e+01	1.619378e+03
1.690000e-06	6.385490e-06	2.465423e-08	4.578268e+01	1.618531e+03
1.700000e-06	6.376332e-06	2.463948e-08	4.571702e+01	1.617498e+03
1.710000e-06	6.365123e-06	2.462619e-08	4.563665e+01	1.616276e+03
1.720000e-06	6.351716e-06	2.461274e-08	4.554052e+01	1.614861e+03
1.730000e-06	6.336110e-06	2.460737e-08	4.542863e+01	1.613255e+03
1.740000e-06	6.318559e-06	2.453633e-08	4.530279e+01	1.611469e+03
1.750000e-06	6.298791e-06	2.443280e-08	4.516106e+01	1.609521e+03
1.760000e-06	6.276029e-06	2.445809e-08	4.499786e+01	1.607436e+03
1.770000e-06	6.250202e-06	2.444801e-08	4.481269e+01	1.605241e+03
1.780000e-06	6.222242e-06	2.439124e-08	4.461222e+01	1.602963e+03
1.790000e-06	6.192554e-06	2.448653e-08	4.439937e+01	1.600615e+03
1.800000e-06	6.161274e-06	2.437097e-08	4.417509e+01	1.598195e+03
1.810000e-06	6.128462e-06	2.423091e-08	4.393983e+01	1.595680e+03
1.820000e-06	6.093595e-06	2.434653e-08	4.368984e+01	1.593026e+03
1.830000e-06	6.056847e-06	2.414495e-08	4.342637e+01	1.590177e+03
1.840000e-06	6.018035e-06	2.417889e-08	4.314810e+01	1.587072e+03
1.850000e-06	5.976764e-06	2.426105e-08	4.285219e+01	1.583655e+03
1.860000e-06	5.933464e-06	2.398086e-08	4.254174e+01	1.579887e+03
1.870000e-06	5.888073e-06	2.409215e-08	4.221630e+01	1.575755e+03
1.880000e-06	5.840521e-06	2.401711e-08	4.187536e+01	1.571271e+03
1.890000e-06	5.790822e-06	2.389479e-08	4.151903e+01	1.566472e+03
1.900000e-06	5.738580e-06	2.392112e-08	4.114446e+01	1.561405e+03
1.910000e-06	5.683855e-06	2.365078e-08	4.075210e+01	1.556120e+03
1.920000e-06	5.627002e-06	2.365254e-08	4.034447e+01	1.550655e+03
1.930000e-06	5.568163e-06	2.361319e-08	3.992260e+01	1.545025e+03
1.940000e-06	5.507404e-06	2.350562e-08	3.948698e+01	1.539218e+03
1.950000e-06	5.444489e-06	2.347518e-08	3.903589e+01	1.533200e+03
1.960000e-06	5.379439e-06	2.325784e-08	3.856949e+01	1.526920e+03
1.970000e-06	5.312473e-06	2.322869e-08	3.808936e+01	1.520324e+03
1.980000e-06	5.243636e-06	2.305418e-08	3.759581e+01	1.513369e+03
1.990000e-06	5.172694e-06	2.295010e-08	3.708718e+01	1.506028e+03
2.000000e-06	5.099675e-06	2.291451e-08	3.656364e+01	1.498301e+03
2.010000e-06	5.024962e-06	2.274657e-08	3.602796e+01	1.490208e+03
2.020000e-06	4.948261e-06	2.265799e-08	3.547803e+01	1.481785e+03
2.030000e-06	4.869402e-06	2.243477e-08	3.491263e+01	1.473067e+03
2.040000e-06	4.788758e-06	2.234707e-08	3.433443e+01	1.464081e+03
2.050000e-06	4.706524e-06	2.224036e-08	3.374483e+01	1.454834e+03
2.060000e-06	4.622749e-06	2.207473e-08	3.314418e+01	1.445308e+03
2.070000e-06	4.537447e-06	2.193338e-08	3.253258e+01	1.435464e+03
2.080000e-06	4.450426e-06	2.174193e-08	3.190866e+01	1.425253e+03
2.090000e-06	4.361747e-06	2.160333e-08	3.127285e+01	1.414620e+03
2.100000e-06	4.271649e-06	2.141036e-08	3.062686e+01	1.403521e+03
2.110000e-06	4.180097e-06	2.126718e-08	2.997046e+01	1.391931e+03
2.120000e-06	4.087224e-06	2.108539e-08	2.930457e+01	1.379843e+03
2.130000e-06	3.992942e-06	2.088209e-08	2.862859e+01	1.367265e+03
2.140000e-06	3.897064e-06	2.068232e-08	2.794116e+01	1.354215e+03
2.150000e-06	3.799800e-06	2.047137e-08	2.724380e+01	1.340706e+03
2.160000e-06	3.701239e-06	2.027663e-08	2.653714e+01	1.326736e+03
2.170000e-06	3.601402e-06	2.004881e-08	2.582133e+01	1.312286e+03
2.180000e-06	3.500308e-06	1.983388e-08	2.509651e+01	1.297313e+03
2.190000e-06	3.397722e-06	1.958406e-08	2.436098e+01	1.281763e+03
2.200000e-06	3.293685e-06	1.933621e-08	2.361506e+01	1.265573e+03
2.210000e-06	3.188512e-06	1.907762e-08	2.286099e+01	1.248683e+03
2.220000e-06	3.082276e-06	1.881833e-08	2.209930e+01	1.231047e+03
2.230000e-06	2.974911e-06	1.853740e-08	2.132952e+01	1.212633e+03
2.240000e-06	2.866602e-06	1.823748e-08	2.055296e+01	1.193421e+03
2.250000e-06	2.757441e-06	1.794067e-08	1.977030e+01	1.173398e+03
2.260000e-06	2.647194e-06	1.763112e-08	1.897985e+01	1.152542e+03
2.270000e-06	2.535886e-06	1.730522e-08	1.818179e+01	1.130816e+03
2.280000e-06	2.423597e-06	1.695453e-08	1.737670e+01	1.108163e+03
2.290000e-06	2.310336e-06	1.659366e-08	1.656464e+01	1.084496e+03
2.300000e-06	2.196134e-06	1.620956e-08	1.574584e+01	1.059712e+03
2.310000e-06	2.081068e-06	1.581363e-08	1.492084e+01	1.033694e+03
2.320000e-06	1.965271e-06	1.539947e-08	1.409060e+01	1.006322e+03
2.330000e-06	1.848821e-06	1.496723e-08	1.325567e+01	9.774851e+02
2.340000e-06	1.731733e-06	1.450433e-08	1.241618e+01	9.470790e+02
2.350000e-06	1.613929e-06	1.400869e-08	1.157155e+01	9.150085e+02
2.360000e-06	1.495342e-06	1.348852e-08	1.072130e+01	8.811792e+02
2.370000e-06	1.376063e-06	1.294478e-08	9.866093e+00	8.454907e+02
2.380000e-06	1.256240e-06	1.237558e-08	9.006990e+00	8.078319e+02
2.390000e-06	1.136026e-06	1.176936e-08	8.145076e+00	7.680847e+02
2.400000e-06	1.015555e-06	1.112802e-08	7.281325e+00	7.261357e+02
2.410000e-06	8.948528e-07	1.045055e-08	6.415914e+00	6.818991e+02
2.420000e-06	7.739045e-07	9.740555e-09	5.548739e+00	6.353435e+02
2.430000e-06	6.527335e-07	8.995802e-09	4.679967e+00	5.865188e+02
2.440000e-06	5.313564e-07	8.220085e-09	3.809718e+00	5.355750e+02
2.450000e-06	4.097706e-07	7.416313e-09	2.937973e+00	4.827648e+02
2.460000e-06	2.880770e-07	6.583809e-09	2.065454e+00	4.284267e+02
2.470000e-06	1.662823e-07	5.730641e-09	1.192211e+00	3.729488e+02
2.480000e-06	4.437099e-08	4.868320e-09	3.181311e-01	3.167166e+02
2.490000e-06	-7.753522e-08	4.005942e-09	-5.559119e-01	2.600546e+02
2.500000e-06	-1.993642e-07	3.139090e-09	-1.429401e+00	2.031747e+02
2.510000e-06	-3.211037e-07	2.265543e-09	-2.302249e+00	1.461411e+02
2.520000e-06	-4.427483e-07	1.388213e-09	-3.174416e+00	8.886218e+01
2.530000e-06	-5.642990e-07	5.045597e-10	-4.045910e+00	3.111462e+01
2.540000e-06	-6.857106e-07	-3.899645e-10	-4.916407e+00	-2.740476e+01
2.550000e-06	-8.069047e-07	-1.301221e-09	-5.785344e+00	-8.700544e+01
2.560000e-06	-9.278627e-07	-2.230040e-09	-6.652589e+00	-1.479222e+02
2.570000e-06	-1.048555e-06	-3.179661e-09	-7.517927e+00	-2.102420e+02
2.580000e-06	-1.168916e-06	-4.150126e-09	-8.380896e+00	-2.738521e+02
2.590000e-06	-1.288846e-06	-5.135726e-09	-9.240763e+00	-3.384215e+02
2.600000e-06	-1.408234e-06	-6.129447e-09	-1.009675e+01	-4.034178e+02
2.610000e-06	-1.527011e-06	-7.121789e-09	-1.094836e+01	-4.681578e+02
2.620000e-06	-1.645090e-06	-8.101613e-09	-1.179497e+01	-5.318819e+02
2.630000e-06	-1.762441e-06	-9.052759e-09	-1.263634e+01	-5.938397e+02
2.640000e-06	-1.879037e-06	-9.965163e-09	-1.347232e+01	-6.533701e+02
2.650000e-06	-1.994791e-06	-1.083292e-08	-1.430225e+01	-7.099638e+02
2.660000e-06	-2.109732e-06	-1.164767e-08	-1.512635e+01	-7.632995e+02
2.670000e-06	-2.223700e-06	-1.240859e-08	-1.594348e+01	-8.132489e+02
2.680000e-06	-2.336606e-06	-1.312002e-08	-1.675300e+01	-8.598548e+02
2.690000e-06	-2.448513e-06	-1.378474e-08	-1.755534e+01	-9.032891e+02
2.700000e-06	-2.559376e-06	-1.440708e-08	-1.835021e+01	-9.438017e+02
2.710000e-06	-2.669204e-06	-1.499220e-08	-1.913766e+01	-9.816700e+02
2.720000e-06	-2.778136e-06	-1.554379e-08	-1.991868e+01	-1.017159e+03
2.730000e-06	-2.886283e-06	-1.605979e-08	-2.069407e+01	-1.050497e+03
2.740000e-06	-2.993508e-06	-1.654027e-08	-2.146285e+01	-1.081865e+03
2.750000e-06	-3.099762e-06	-1.698852e-08	-2.222467e+01	-1.111406e+03
2.760000e-06	-3.204991e-06	-1.740690e-08	-2.297914e+01	-1.139233e+03
2.770000e-06	-3.309004e-06	-1.780251e-08	-2.372489e+01	-1.165449e+03
2.780000e-06	-3.411774e-06	-1.817951e-08	-2.446173e+01	-1.190157e+03
2.790000e-06	-3.513256e-06	-1.853775e-08	-2.518934e+01	-1.213469e+03
2.800000e-06	-3.613423e-06	-1.887592e-08	-2.590752e+01	-1.235501e+03
2.810000e-06	-3.712409e-06	-1.919602e-08	-2.661722e+01	-1.256371e+03
2.820000e-06	-3.810166e-06	-1.950143e-08	-2.731812e+01	-1.276187e+03
2.830000e-06	-3.906694e-06	-1.979126e-08	-2.801021e+01	-1.295042e+03
2.840000e-06	-4.001920e-06	-2.006574e-08	-2.869296e+01	-1.313006e+03
2.850000e-06	-4.095578e-06	-2.032488e-08	-2.936447e+01	-1.330128e+03
2.860000e-06	-4.187686e-06	-2.057120e-08	-3.002486e+01	-1.346441e+03
2.870000e-06	-4.278431e-06	-2.080781e-08	-3.067548e+01	-1.361969e+03
2.880000e-06	-4.367669e-06	-2.103530e-08	-3.131531e+01	-1.376737e+03
2.890000e-06	-4.455231e-06	-2.125380e-08	-3.194311e+01	-1.390777e+03
2.900000e-06	-4.541109e-06	-2.146135e-08	-3.255884e+01	-1.404129e+03
2.910000e-06	-4.625288e-06	-2.165744e-08	-3.316238e+01	-1.416843e+03
2.920000e-06	-4.707900e-06	-2.184478e-08	-3.375470e+01	-1.428970e+03
2.930000e-06	-4.788944e-06	-2.202242e-08	-3.433576e+01	-1.440560e+03
2.940000e-06	-4.868196e-06	-2.219026e-08	-3.490399e+01	-1.451654e+03
