# Temperatura_=_89.54
# Concentracion g/m^3_=_28200.0
# C_Vs_to_Am_M_A/Vsm_=_65563218390.804596
# pendiente_HvsI_1/m_=_3716.3
# ordenada_HvsI_A/m_=_1297.0
# frecuencia_Hz_=_302096.2050465956

Tiempo_(s)	Campo_(V.s)	Magnetizacion_(V.s)	Campo_(kA/m)	Magnetizacion_(A/m)
0.000000e+00	-6.423288e-06	-2.515301e-08	-4.557644e+01	-1.645101e+03
1.000000e-08	-6.419642e-06	-2.514686e-08	-4.555057e+01	-1.644547e+03
2.000000e-08	-6.414088e-06	-2.513576e-08	-4.551116e+01	-1.643877e+03
3.000000e-08	-6.406529e-06	-2.512552e-08	-4.545752e+01	-1.643067e+03
4.000000e-08	-6.396662e-06	-2.510822e-08	-4.538752e+01	-1.642075e+03
5.000000e-08	-6.384332e-06	-2.508375e-08	-4.530003e+01	-1.640845e+03
6.000000e-08	-6.369599e-06	-2.505517e-08	-4.519549e+01	-1.639327e+03
7.000000e-08	-6.352620e-06	-2.501651e-08	-4.507501e+01	-1.637490e+03
8.000000e-08	-6.333690e-06	-2.500997e-08	-4.494070e+01	-1.635339e+03
9.000000e-08	-6.312610e-06	-2.508612e-08	-4.479112e+01	-1.632920e+03
1.000000e-07	-6.289042e-06	-2.497723e-08	-4.462390e+01	-1.630319e+03
1.100000e-07	-6.262824e-06	-2.486352e-08	-4.443787e+01	-1.627646e+03
1.200000e-07	-6.234280e-06	-2.486415e-08	-4.423533e+01	-1.625014e+03
1.300000e-07	-6.203943e-06	-2.478376e-08	-4.402008e+01	-1.622512e+03
1.400000e-07	-6.172153e-06	-2.463077e-08	-4.379451e+01	-1.620184e+03
1.500000e-07	-6.138445e-06	-2.483011e-08	-4.355533e+01	-1.618013e+03
1.600000e-07	-6.102551e-06	-2.474898e-08	-4.330065e+01	-1.615919e+03
1.700000e-07	-6.064862e-06	-2.447908e-08	-4.303323e+01	-1.613769e+03
1.800000e-07	-6.025108e-06	-2.468724e-08	-4.275115e+01	-1.611403e+03
1.900000e-07	-5.982888e-06	-2.445693e-08	-4.245158e+01	-1.608663e+03
2.000000e-07	-5.938454e-06	-2.440390e-08	-4.213630e+01	-1.605424e+03
2.100000e-07	-5.891917e-06	-2.449273e-08	-4.180610e+01	-1.601612e+03
2.200000e-07	-5.842972e-06	-2.422455e-08	-4.145881e+01	-1.597220e+03
2.300000e-07	-5.791506e-06	-2.420380e-08	-4.109363e+01	-1.592302e+03
2.400000e-07	-5.737555e-06	-2.415938e-08	-4.071082e+01	-1.586954e+03
2.500000e-07	-5.681447e-06	-2.405030e-08	-4.031271e+01	-1.581288e+03
2.600000e-07	-5.623178e-06	-2.400851e-08	-3.989926e+01	-1.575408e+03
2.700000e-07	-5.562784e-06	-2.389741e-08	-3.947073e+01	-1.569379e+03
2.800000e-07	-5.500531e-06	-2.381123e-08	-3.902902e+01	-1.563222e+03
2.900000e-07	-5.436287e-06	-2.364439e-08	-3.857318e+01	-1.556906e+03
3.000000e-07	-5.369894e-06	-2.359494e-08	-3.810208e+01	-1.550370e+03
3.100000e-07	-5.301401e-06	-2.352142e-08	-3.761609e+01	-1.543532e+03
3.200000e-07	-5.230942e-06	-2.338411e-08	-3.711615e+01	-1.536322e+03
3.300000e-07	-5.158680e-06	-2.328568e-08	-3.660341e+01	-1.528693e+03
3.400000e-07	-5.084446e-06	-2.310294e-08	-3.607669e+01	-1.520634e+03
3.500000e-07	-5.008043e-06	-2.301070e-08	-3.553457e+01	-1.512171e+03
3.600000e-07	-4.929424e-06	-2.287478e-08	-3.497673e+01	-1.503352e+03
3.700000e-07	-4.848782e-06	-2.274250e-08	-3.440453e+01	-1.494229e+03
3.800000e-07	-4.766549e-06	-2.263363e-08	-3.382105e+01	-1.484842e+03
3.900000e-07	-4.682835e-06	-2.245324e-08	-3.322705e+01	-1.475205e+03
4.000000e-07	-4.597708e-06	-2.228276e-08	-3.262304e+01	-1.465299e+03
4.100000e-07	-4.511165e-06	-2.212803e-08	-3.200897e+01	-1.455073e+03
4.200000e-07	-4.423169e-06	-2.199343e-08	-3.138459e+01	-1.444461e+03
4.300000e-07	-4.333562e-06	-2.181378e-08	-3.074879e+01	-1.433397e+03
4.400000e-07	-4.242249e-06	-2.162394e-08	-3.010088e+01	-1.421828e+03
4.500000e-07	-4.149447e-06	-2.144738e-08	-2.944240e+01	-1.409727e+03
4.600000e-07	-4.055250e-06	-2.124067e-08	-2.877402e+01	-1.397096e+03
4.700000e-07	-3.959647e-06	-2.105571e-08	-2.809567e+01	-1.383954e+03
4.800000e-07	-3.862503e-06	-2.086058e-08	-2.740639e+01	-1.370334e+03
4.900000e-07	-3.763892e-06	-2.064560e-08	-2.670670e+01	-1.356257e+03
5.000000e-07	-3.663944e-06	-2.040779e-08	-2.599751e+01	-1.341725e+03
5.100000e-07	-3.562597e-06	-2.016813e-08	-2.527841e+01	-1.326715e+03
5.200000e-07	-3.460043e-06	-1.993487e-08	-2.455074e+01	-1.311176e+03
5.300000e-07	-3.356384e-06	-1.968980e-08	-2.381522e+01	-1.295040e+03
5.400000e-07	-3.251355e-06	-1.943958e-08	-2.306999e+01	-1.278233e+03
5.500000e-07	-3.144935e-06	-1.916977e-08	-2.231489e+01	-1.260691e+03
5.600000e-07	-3.037282e-06	-1.888983e-08	-2.155103e+01	-1.242367e+03
5.700000e-07	-2.928479e-06	-1.859264e-08	-2.077903e+01	-1.223234e+03
5.800000e-07	-2.818672e-06	-1.829170e-08	-1.999989e+01	-1.203279e+03
5.900000e-07	-2.708056e-06	-1.797972e-08	-1.921501e+01	-1.182491e+03
6.000000e-07	-2.596521e-06	-1.764760e-08	-1.842362e+01	-1.160849e+03
6.100000e-07	-2.483760e-06	-1.729778e-08	-1.762352e+01	-1.138310e+03
6.200000e-07	-2.369825e-06	-1.693245e-08	-1.681510e+01	-1.114800e+03
6.300000e-07	-2.254823e-06	-1.655831e-08	-1.599910e+01	-1.090218e+03
6.400000e-07	-2.138892e-06	-1.616608e-08	-1.517651e+01	-1.064445e+03
6.500000e-07	-2.022114e-06	-1.575490e-08	-1.434791e+01	-1.037352e+03
6.600000e-07	-1.904559e-06	-1.531300e-08	-1.351380e+01	-1.008817e+03
6.700000e-07	-1.786466e-06	-1.484955e-08	-1.267587e+01	-9.787318e+02
6.800000e-07	-1.667940e-06	-1.437009e-08	-1.183487e+01	-9.470012e+02
6.900000e-07	-1.548888e-06	-1.386647e-08	-1.099013e+01	-9.135374e+02
7.000000e-07	-1.429204e-06	-1.333188e-08	-1.014092e+01	-8.782495e+02
7.100000e-07	-1.308969e-06	-1.276014e-08	-9.287789e+00	-8.410325e+02
7.200000e-07	-1.188248e-06	-1.215985e-08	-8.431216e+00	-8.017633e+02
7.300000e-07	-1.067049e-06	-1.152154e-08	-7.571245e+00	-7.603071e+02
7.400000e-07	-9.454031e-07	-1.085128e-08	-6.708108e+00	-7.165365e+02
7.500000e-07	-8.234053e-07	-1.015240e-08	-5.842472e+00	-6.703603e+02
7.600000e-07	-7.011575e-07	-9.416336e-09	-4.975063e+00	-6.217578e+02
7.700000e-07	-5.786909e-07	-8.636723e-09	-4.106101e+00	-5.708079e+02
7.800000e-07	-4.560470e-07	-7.823105e-09	-3.235882e+00	-5.177048e+02
7.900000e-07	-3.332439e-07	-6.985792e-09	-2.364532e+00	-4.627527e+02
8.000000e-07	-2.103274e-07	-6.124953e-09	-1.492378e+00	-4.063377e+02
8.100000e-07	-8.731830e-08	-5.250897e-09	-6.195670e-01	-3.488767e+02
8.200000e-07	3.577127e-08	-4.369307e-09	2.538150e-01	-2.907556e+02
8.300000e-07	1.588639e-07	-3.483143e-09	1.127219e+00	-2.322648e+02
8.400000e-07	2.819503e-07	-2.588826e-09	2.000579e+00	-1.735508e+02
8.500000e-07	4.049642e-07	-1.690578e-09	2.873423e+00	-1.145918e+02
8.600000e-07	5.278531e-07	-7.848036e-10	3.745381e+00	-5.520868e+01
8.700000e-07	6.506055e-07	1.318917e-10	4.616372e+00	4.890870e+00
8.800000e-07	7.732013e-07	1.064841e-09	5.486250e+00	6.603931e+01
8.900000e-07	8.956349e-07	2.018551e-09	6.354978e+00	1.285223e+02
9.000000e-07	1.017796e-06	2.989280e-09	7.221774e+00	1.924934e+02
9.100000e-07	1.139567e-06	3.980657e-09	8.085796e+00	2.579079e+02
9.200000e-07	1.260874e-06	4.990354e-09	8.946533e+00	3.244886e+02
9.300000e-07	1.381588e-06	6.011577e-09	9.803055e+00	3.917317e+02
9.400000e-07	1.501658e-06	7.036534e-09	1.065501e+01	4.589506e+02
9.500000e-07	1.621117e-06	8.051307e-09	1.150263e+01	5.253500e+02
9.600000e-07	1.740016e-06	9.038007e-09	1.234628e+01	5.901170e+02
9.700000e-07	1.858394e-06	9.984361e-09	1.318623e+01	6.525111e+02
9.800000e-07	1.976136e-06	1.088470e-08	1.402167e+01	7.119389e+02
9.900000e-07	2.093044e-06	1.173318e-08	1.485119e+01	7.680015e+02
1.000000e-06	2.209068e-06	1.252516e-08	1.567444e+01	8.205090e+02
1.010000e-06	2.324220e-06	1.325954e-08	1.649150e+01	8.694644e+02
1.020000e-06	2.438466e-06	1.394571e-08	1.730214e+01	9.150230e+02
1.030000e-06	2.551620e-06	1.458795e-08	1.810502e+01	9.574385e+02
1.040000e-06	2.663547e-06	1.519274e-08	1.889920e+01	9.970078e+02
1.050000e-06	2.774479e-06	1.575719e-08	1.968631e+01	1.034025e+03
1.060000e-06	2.884566e-06	1.628551e-08	2.046744e+01	1.068749e+03
1.070000e-06	2.993748e-06	1.677574e-08	2.124214e+01	1.101391e+03
1.080000e-06	3.101952e-06	1.723682e-08	2.200990e+01	1.132117e+03
1.090000e-06	3.209173e-06	1.767258e-08	2.277069e+01	1.161056e+03
1.100000e-06	3.315376e-06	1.808213e-08	2.352425e+01	1.188321e+03
1.110000e-06	3.420177e-06	1.846968e-08	2.426786e+01	1.214020e+03
1.120000e-06	3.523508e-06	1.883813e-08	2.500105e+01	1.238263e+03
1.130000e-06	3.625707e-06	1.918901e-08	2.572620e+01	1.261169e+03
1.140000e-06	3.726723e-06	1.951995e-08	2.644296e+01	1.282856e+03
1.150000e-06	3.826438e-06	1.983499e-08	2.715049e+01	1.303435e+03
1.160000e-06	3.924895e-06	2.013242e-08	2.784909e+01	1.323004e+03
1.170000e-06	4.021781e-06	2.041475e-08	2.853655e+01	1.341641e+03
1.180000e-06	4.117016e-06	2.068161e-08	2.921229e+01	1.359403e+03
1.190000e-06	4.210889e-06	2.093603e-08	2.987836e+01	1.376331e+03
1.200000e-06	4.303391e-06	2.117653e-08	3.053471e+01	1.392456e+03
1.210000e-06	4.394561e-06	2.140861e-08	3.118161e+01	1.407807e+03
1.220000e-06	4.484201e-06	2.163165e-08	3.181765e+01	1.422415e+03
1.230000e-06	4.572039e-06	2.184315e-08	3.244091e+01	1.436321e+03
1.240000e-06	4.658120e-06	2.204168e-08	3.305169e+01	1.449569e+03
1.250000e-06	4.742643e-06	2.223323e-08	3.365142e+01	1.462208e+03
1.260000e-06	4.825751e-06	2.241661e-08	3.424112e+01	1.474285e+03
1.270000e-06	4.907142e-06	2.259175e-08	3.481863e+01	1.485842e+03
1.280000e-06	4.986617e-06	2.275899e-08	3.538254e+01	1.496909e+03
1.290000e-06	5.064226e-06	2.291934e-08	3.593322e+01	1.507505e+03
1.300000e-06	5.139931e-06	2.307483e-08	3.647038e+01	1.517640e+03
1.310000e-06	5.213529e-06	2.322418e-08	3.699260e+01	1.527314e+03
1.320000e-06	5.285080e-06	2.336651e-08	3.750028e+01	1.536524e+03
1.330000e-06	5.354810e-06	2.350152e-08	3.799506e+01	1.545268e+03
1.340000e-06	5.422736e-06	2.362860e-08	3.847702e+01	1.553546e+03
1.350000e-06	5.488657e-06	2.374668e-08	3.894476e+01	1.561363e+03
1.360000e-06	5.552505e-06	2.385892e-08	3.939780e+01	1.568733e+03
1.370000e-06	5.614472e-06	2.396536e-08	3.983749e+01	1.575675e+03
1.380000e-06	5.674584e-06	2.406440e-08	4.026401e+01	1.582213e+03
1.390000e-06	5.732734e-06	2.415608e-08	4.067662e+01	1.588379e+03
1.400000e-06	5.788798e-06	2.424360e-08	4.107441e+01	1.594206e+03
1.410000e-06	5.842776e-06	2.432788e-08	4.145742e+01	1.599727e+03
1.420000e-06	5.894506e-06	2.440832e-08	4.182447e+01	1.604973e+03
1.430000e-06	5.943677e-06	2.448638e-08	4.217336e+01	1.609971e+03
1.440000e-06	5.990432e-06	2.456083e-08	4.250511e+01	1.614736e+03
1.450000e-06	6.035220e-06	2.463015e-08	4.282291e+01	1.619273e+03
1.460000e-06	6.078182e-06	2.469643e-08	4.312774e+01	1.623577e+03
1.470000e-06	6.118917e-06	2.475811e-08	4.341677e+01	1.627634e+03
1.480000e-06	6.157338e-06	2.481460e-08	4.368939e+01	1.631423e+03
1.490000e-06	6.193749e-06	2.486701e-08	4.394774e+01	1.634925e+03
1.500000e-06	6.227988e-06	2.491531e-08	4.419069e+01	1.638127e+03
1.510000e-06	6.259942e-06	2.496053e-08	4.441742e+01	1.641022e+03
1.520000e-06	6.289722e-06	2.500288e-08	4.462872e+01	1.643617e+03
1.530000e-06	6.317489e-06	2.503976e-08	4.482574e+01	1.645929e+03
1.540000e-06	6.342832e-06	2.506909e-08	4.500557e+01	1.647980e+03
1.550000e-06	6.365670e-06	2.509263e-08	4.516761e+01	1.649791e+03
1.560000e-06	6.386372e-06	2.511451e-08	4.531450e+01	1.651379e+03
1.570000e-06	6.404951e-06	2.513472e-08	4.544633e+01	1.652750e+03
1.580000e-06	6.421246e-06	2.515213e-08	4.556195e+01	1.653902e+03
1.590000e-06	6.435104e-06	2.516682e-08	4.566028e+01	1.654825e+03
1.600000e-06	6.446522e-06	2.517767e-08	4.574130e+01	1.655507e+03
1.610000e-06	6.455320e-06	2.518564e-08	4.580372e+01	1.655942e+03
1.620000e-06	6.461687e-06	2.518976e-08	4.584890e+01	1.656138e+03
1.630000e-06	6.465964e-06	2.519180e-08	4.587925e+01	1.656113e+03
1.640000e-06	6.467846e-06	2.519400e-08	4.589260e+01	1.655898e+03
1.650000e-06	6.467327e-06	2.519607e-08	4.588892e+01	1.655526e+03
1.660000e-06	6.464764e-06	2.517939e-08	4.587074e+01	1.655027e+03
1.670000e-06	6.460235e-06	2.516967e-08	4.583860e+01	1.654413e+03
1.680000e-06	6.453429e-06	2.515671e-08	4.579030e+01	1.653675e+03
1.690000e-06	6.444365e-06	2.514031e-08	4.572599e+01	1.652777e+03
1.700000e-06	6.433348e-06	2.512827e-08	4.564782e+01	1.651670e+03
1.710000e-06	6.420152e-06	2.511677e-08	4.555419e+01	1.650299e+03
1.720000e-06	6.404694e-06	2.512263e-08	4.544451e+01	1.648620e+03
1.730000e-06	6.387262e-06	2.505563e-08	4.532082e+01	1.646619e+03
1.740000e-06	6.367732e-06	2.489358e-08	4.518224e+01	1.644323e+03
1.750000e-06	6.345117e-06	2.493770e-08	4.502178e+01	1.641798e+03
1.760000e-06	6.319263e-06	2.494161e-08	4.483833e+01	1.639144e+03
1.770000e-06	6.291282e-06	2.485176e-08	4.463979e+01	1.636475e+03
1.780000e-06	6.261525e-06	2.500377e-08	4.442865e+01	1.633896e+03
1.790000e-06	6.230137e-06	2.488687e-08	4.420594e+01	1.631476e+03
1.800000e-06	6.197344e-06	2.460143e-08	4.397325e+01	1.629230e+03
1.810000e-06	6.162423e-06	2.484687e-08	4.372547e+01	1.627108e+03
1.820000e-06	6.125423e-06	2.470510e-08	4.346294e+01	1.625001e+03
1.830000e-06	6.086342e-06	2.473483e-08	4.318564e+01	1.622761e+03
1.840000e-06	6.044814e-06	2.495987e-08	4.289098e+01	1.620224e+03
1.850000e-06	6.001330e-06	2.454056e-08	4.258244e+01	1.617244e+03
1.860000e-06	5.955773e-06	2.469675e-08	4.225919e+01	1.613720e+03
1.870000e-06	5.907951e-06	2.465963e-08	4.191987e+01	1.609612e+03
1.880000e-06	5.858055e-06	2.445042e-08	4.156583e+01	1.604944e+03
1.890000e-06	5.805577e-06	2.456959e-08	4.119347e+01	1.599794e+03
1.900000e-06	5.750505e-06	2.425608e-08	4.080271e+01	1.594270e+03
1.910000e-06	5.693260e-06	2.426867e-08	4.039653e+01	1.588484e+03
1.920000e-06	5.634045e-06	2.423089e-08	3.997637e+01	1.582520e+03
1.930000e-06	5.573094e-06	2.407540e-08	3.954389e+01	1.576425e+03
1.940000e-06	5.509920e-06	2.411416e-08	3.909563e+01	1.570192e+03
1.950000e-06	5.444530e-06	2.381501e-08	3.863166e+01	1.563772e+03
1.960000e-06	5.377190e-06	2.383791e-08	3.815385e+01	1.557092e+03
1.970000e-06	5.307823e-06	2.364882e-08	3.766166e+01	1.550073e+03
1.980000e-06	5.236320e-06	2.352364e-08	3.715431e+01	1.542654e+03
1.990000e-06	5.162763e-06	2.353494e-08	3.663239e+01	1.534806e+03
2.000000e-06	5.087522e-06	2.331094e-08	3.609851e+01	1.526538e+03
2.010000e-06	5.010125e-06	2.325917e-08	3.554934e+01	1.517887e+03
2.020000e-06	4.930581e-06	2.299322e-08	3.498493e+01	1.508906e+03
2.030000e-06	4.849397e-06	2.291591e-08	3.440890e+01	1.499644e+03
2.040000e-06	4.766610e-06	2.281357e-08	3.382148e+01	1.490130e+03
2.050000e-06	4.682302e-06	2.262932e-08	3.322327e+01	1.480360e+03
2.060000e-06	4.596237e-06	2.250190e-08	3.261260e+01	1.470298e+03
2.070000e-06	4.508410e-06	2.228642e-08	3.198942e+01	1.459885e+03
2.080000e-06	4.419022e-06	2.216949e-08	3.135517e+01	1.449052e+03
2.090000e-06	4.328239e-06	2.195204e-08	3.071102e+01	1.437738e+03
2.100000e-06	4.236050e-06	2.181623e-08	3.005689e+01	1.425901e+03
2.110000e-06	4.142247e-06	2.163083e-08	2.939131e+01	1.413530e+03
2.120000e-06	4.046957e-06	2.141781e-08	2.871518e+01	1.400637e+03
2.130000e-06	3.950294e-06	2.121459e-08	2.802931e+01	1.387250e+03
2.140000e-06	3.852231e-06	2.098851e-08	2.733350e+01	1.373396e+03
2.150000e-06	3.752910e-06	2.079879e-08	2.662878e+01	1.359090e+03
2.160000e-06	3.652359e-06	2.055628e-08	2.591531e+01	1.344321e+03
2.170000e-06	3.550288e-06	2.034195e-08	2.519107e+01	1.329052e+03
2.180000e-06	3.446720e-06	2.008216e-08	2.445620e+01	1.313220e+03
2.190000e-06	3.341906e-06	1.983803e-08	2.371249e+01	1.296754e+03
2.200000e-06	3.235925e-06	1.957462e-08	2.296051e+01	1.279584e+03
2.210000e-06	3.128883e-06	1.931167e-08	2.220099e+01	1.261653e+03
2.220000e-06	3.020759e-06	1.902785e-08	2.143380e+01	1.242923e+03
2.230000e-06	2.911533e-06	1.871892e-08	2.065879e+01	1.223377e+03
2.240000e-06	2.801281e-06	1.840919e-08	1.987649e+01	1.203004e+03
2.250000e-06	2.689954e-06	1.808913e-08	1.908657e+01	1.181790e+03
2.260000e-06	2.577544e-06	1.776411e-08	1.828896e+01	1.159704e+03
2.270000e-06	2.464040e-06	1.740926e-08	1.748360e+01	1.136688e+03
2.280000e-06	2.349571e-06	1.704648e-08	1.667138e+01	1.112653e+03
2.290000e-06	2.234330e-06	1.665525e-08	1.585369e+01	1.087488e+03
2.300000e-06	2.118259e-06	1.625353e-08	1.503011e+01	1.061068e+03
2.310000e-06	2.001208e-06	1.582999e-08	1.419957e+01	1.033265e+03
2.320000e-06	1.883243e-06	1.539192e-08	1.336255e+01	1.003965e+03
2.330000e-06	1.764594e-06	1.492352e-08	1.252067e+01	9.730653e+02
2.340000e-06	1.645337e-06	1.442094e-08	1.167449e+01	9.404760e+02
2.350000e-06	1.525512e-06	1.389093e-08	1.082427e+01	9.061092e+02
2.360000e-06	1.405190e-06	1.333666e-08	9.970522e+00	8.698679e+02
2.370000e-06	1.284444e-06	1.276079e-08	9.113776e+00	8.316383e+02
2.380000e-06	1.163364e-06	1.214737e-08	8.254649e+00	7.912895e+02
2.390000e-06	1.041908e-06	1.149743e-08	7.392858e+00	7.486876e+02
2.400000e-06	9.200320e-07	1.080610e-08	6.528087e+00	7.037189e+02
2.410000e-06	7.978198e-07	1.008199e-08	5.660931e+00	6.563235e+02
2.420000e-06	6.753489e-07	9.322963e-09	4.791938e+00	6.065274e+02
2.430000e-06	5.526550e-07	8.530333e-09	3.921364e+00	5.544663e+02
2.440000e-06	4.298479e-07	7.707554e-09	3.049986e+00	5.003916e+02
2.450000e-06	3.069816e-07	6.854336e-09	2.178188e+00	4.446535e+02
2.460000e-06	1.840297e-07	5.981586e-09	1.305783e+00	3.876608e+02
2.470000e-06	6.099161e-08	5.097118e-09	4.327660e-01	3.298231e+02
2.480000e-06	-6.207307e-08	4.211054e-09	-4.404395e-01	2.714859e+02
2.490000e-06	-1.851197e-07	3.319911e-09	-1.313517e+00	2.128725e+02
2.500000e-06	-3.081374e-07	2.417111e-09	-2.186389e+00	1.540462e+02
2.510000e-06	-4.310960e-07	1.506587e-09	-3.058842e+00	9.490306e+01
2.520000e-06	-5.539396e-07	5.883833e-10	-3.930478e+00	3.519969e+01
2.530000e-06	-6.766220e-07	-3.381974e-10	-4.800972e+00	-2.538657e+01
2.540000e-06	-7.991041e-07	-1.281700e-09	-5.670043e+00	-8.717599e+01
2.550000e-06	-9.213281e-07	-2.245941e-09	-6.537283e+00	-1.503980e+02
2.560000e-06	-1.043212e-06	-3.232304e-09	-7.402108e+00	-2.151136e+02
2.570000e-06	-1.164674e-06	-4.240700e-09	-8.263946e+00	-2.811636e+02
2.580000e-06	-1.285748e-06	-5.261412e-09	-9.123029e+00	-3.481544e+02
2.590000e-06	-1.406402e-06	-6.287998e-09	-9.979129e+00	-4.154830e+02
2.600000e-06	-1.526532e-06	-7.315279e-09	-1.083151e+01	-4.823978e+02
2.610000e-06	-1.646062e-06	-8.329774e-09	-1.167963e+01	-5.480832e+02
2.620000e-06	-1.764973e-06	-9.311117e-09	-1.252337e+01	-6.117516e+02
2.630000e-06	-1.883229e-06	-1.024606e-08	-1.336245e+01	-6.727283e+02
2.640000e-06	-2.000562e-06	-1.113050e-08	-1.419499e+01	-7.305133e+02
2.650000e-06	-2.116857e-06	-1.196035e-08	-1.502016e+01	-7.848122e+02
2.660000e-06	-2.232241e-06	-1.273555e-08	-1.583887e+01	-8.355357e+02
2.670000e-06	-2.346693e-06	-1.346105e-08	-1.665096e+01	-8.827688e+02
2.680000e-06	-2.460150e-06	-1.413645e-08	-1.745600e+01	-9.267232e+02
2.690000e-06	-2.572451e-06	-1.476529e-08	-1.825282e+01	-9.676807e+02
2.700000e-06	-2.683478e-06	-1.535540e-08	-1.904062e+01	-1.005942e+03
2.710000e-06	-2.793540e-06	-1.591153e-08	-1.982156e+01	-1.041786e+03
2.720000e-06	-2.902798e-06	-1.643409e-08	-2.059681e+01	-1.075448e+03
2.730000e-06	-3.011170e-06	-1.692166e-08	-2.136576e+01	-1.107117e+03
2.740000e-06	-3.118637e-06	-1.737795e-08	-2.212829e+01	-1.136938e+03
2.750000e-06	-3.225060e-06	-1.780349e-08	-2.288342e+01	-1.165030e+03
2.760000e-06	-3.330305e-06	-1.820412e-08	-2.363018e+01	-1.191501e+03
2.770000e-06	-3.434354e-06	-1.858631e-08	-2.436846e+01	-1.216461e+03
2.780000e-06	-3.537201e-06	-1.894955e-08	-2.509821e+01	-1.240023e+03
2.790000e-06	-3.638637e-06	-1.929244e-08	-2.581795e+01	-1.262308e+03
2.800000e-06	-3.738697e-06	-1.961742e-08	-2.652792e+01	-1.283431e+03
2.810000e-06	-3.837564e-06	-1.992792e-08	-2.722944e+01	-1.303497e+03
2.820000e-06	-3.935232e-06	-2.022200e-08	-2.792244e+01	-1.322595e+03
2.830000e-06	-4.031599e-06	-2.049978e-08	-2.860621e+01	-1.340792e+03
2.840000e-06	-4.126568e-06	-2.076273e-08	-2.928007e+01	-1.358135e+03
2.850000e-06	-4.219952e-06	-2.101316e-08	-2.994267e+01	-1.374661e+03
2.860000e-06	-4.311790e-06	-2.125312e-08	-3.059430e+01	-1.390398e+03
2.870000e-06	-4.402173e-06	-2.148440e-08	-3.123562e+01	-1.405376e+03
2.880000e-06	-4.490851e-06	-2.170736e-08	-3.186483e+01	-1.419631e+03
2.890000e-06	-4.577877e-06	-2.191885e-08	-3.248233e+01	-1.433205e+03
2.900000e-06	-4.663118e-06	-2.211859e-08	-3.308715e+01	-1.446145e+03
2.910000e-06	-4.746692e-06	-2.230857e-08	-3.368016e+01	-1.458501e+03
2.920000e-06	-4.828754e-06	-2.248915e-08	-3.426242e+01	-1.470316e+03
2.930000e-06	-4.909072e-06	-2.266158e-08	-3.483232e+01	-1.481628e+03
2.940000e-06	-4.987470e-06	-2.282552e-08	-3.538859e+01	-1.492461e+03
