# Temperatura_=_49.01
# Concentracion g/m^3_=_28200.0
# C_Vs_to_Am_M_A/Vsm_=_65563218390.804596
# pendiente_HvsI_1/m_=_3716.3
# ordenada_HvsI_A/m_=_1297.0
# frecuencia_Hz_=_302101.0972116049

Tiempo_(s)	Campo_(V.s)	Magnetizacion_(V.s)	Campo_(kA/m)	Magnetizacion_(A/m)
0.000000e+00	-6.388062e-06	-2.013272e-08	-4.557360e+01	-1.317205e+03
1.000000e-08	-6.384395e-06	-2.013071e-08	-4.554744e+01	-1.316713e+03
2.000000e-08	-6.378649e-06	-2.012151e-08	-4.550645e+01	-1.316096e+03
3.000000e-08	-6.370951e-06	-2.011018e-08	-4.545153e+01	-1.315375e+03
4.000000e-08	-6.361107e-06	-2.009412e-08	-4.538130e+01	-1.314560e+03
5.000000e-08	-6.348923e-06	-2.007667e-08	-4.529438e+01	-1.313646e+03
6.000000e-08	-6.334413e-06	-2.005466e-08	-4.519086e+01	-1.312615e+03
7.000000e-08	-6.317541e-06	-2.002059e-08	-4.507049e+01	-1.311439e+03
8.000000e-08	-6.298645e-06	-2.001920e-08	-4.493568e+01	-1.310089e+03
9.000000e-08	-6.277630e-06	-2.008472e-08	-4.478576e+01	-1.308542e+03
1.000000e-07	-6.254051e-06	-2.001067e-08	-4.461754e+01	-1.306793e+03
1.100000e-07	-6.227821e-06	-1.992647e-08	-4.443041e+01	-1.304857e+03
1.200000e-07	-6.199365e-06	-1.993678e-08	-4.422740e+01	-1.302772e+03
1.300000e-07	-6.169147e-06	-1.987961e-08	-4.401182e+01	-1.300589e+03
1.400000e-07	-6.137331e-06	-1.974797e-08	-4.378484e+01	-1.298364e+03
1.500000e-07	-6.103720e-06	-1.990877e-08	-4.354505e+01	-1.296142e+03
1.600000e-07	-6.068091e-06	-1.987543e-08	-4.329087e+01	-1.293946e+03
1.700000e-07	-6.030623e-06	-1.966485e-08	-4.302357e+01	-1.291769e+03
1.800000e-07	-5.991022e-06	-1.984076e-08	-4.274105e+01	-1.289572e+03
1.900000e-07	-5.948973e-06	-1.967954e-08	-4.244106e+01	-1.287290e+03
2.000000e-07	-5.904778e-06	-1.959381e-08	-4.212577e+01	-1.284841e+03
2.100000e-07	-5.858486e-06	-1.964749e-08	-4.179551e+01	-1.282149e+03
2.200000e-07	-5.809817e-06	-1.943609e-08	-4.144830e+01	-1.279148e+03
2.300000e-07	-5.758642e-06	-1.941252e-08	-4.108321e+01	-1.275804e+03
2.400000e-07	-5.704977e-06	-1.939644e-08	-4.070035e+01	-1.272109e+03
2.500000e-07	-5.649111e-06	-1.932909e-08	-4.030179e+01	-1.268088e+03
2.600000e-07	-5.591075e-06	-1.929833e-08	-3.988775e+01	-1.263780e+03
2.700000e-07	-5.530963e-06	-1.920103e-08	-3.945890e+01	-1.259235e+03
2.800000e-07	-5.468989e-06	-1.913140e-08	-3.901677e+01	-1.254492e+03
2.900000e-07	-5.404980e-06	-1.900106e-08	-3.856011e+01	-1.249573e+03
3.000000e-07	-5.338843e-06	-1.896059e-08	-3.808828e+01	-1.244478e+03
3.100000e-07	-5.270661e-06	-1.892698e-08	-3.760186e+01	-1.239185e+03
3.200000e-07	-5.200506e-06	-1.882085e-08	-3.710136e+01	-1.233659e+03
3.300000e-07	-5.128538e-06	-1.872507e-08	-3.658793e+01	-1.227863e+03
3.400000e-07	-5.054703e-06	-1.857730e-08	-3.606118e+01	-1.221765e+03
3.500000e-07	-4.978768e-06	-1.850481e-08	-3.551944e+01	-1.215349e+03
3.600000e-07	-4.900703e-06	-1.840993e-08	-3.496251e+01	-1.208616e+03
3.700000e-07	-4.820613e-06	-1.831467e-08	-3.439113e+01	-1.201582e+03
3.800000e-07	-4.738790e-06	-1.823008e-08	-3.380739e+01	-1.194269e+03
3.900000e-07	-4.655453e-06	-1.807771e-08	-3.321286e+01	-1.186697e+03
4.000000e-07	-4.570673e-06	-1.793682e-08	-3.260802e+01	-1.178875e+03
4.100000e-07	-4.484481e-06	-1.781665e-08	-3.199311e+01	-1.170796e+03
4.200000e-07	-4.396874e-06	-1.771213e-08	-3.136810e+01	-1.162435e+03
4.300000e-07	-4.307763e-06	-1.757412e-08	-3.073237e+01	-1.153756e+03
4.400000e-07	-4.216942e-06	-1.742676e-08	-3.008444e+01	-1.144717e+03
4.500000e-07	-4.124502e-06	-1.729055e-08	-2.942495e+01	-1.135278e+03
4.600000e-07	-4.030613e-06	-1.712665e-08	-2.875513e+01	-1.125414e+03
4.700000e-07	-3.935381e-06	-1.697790e-08	-2.807572e+01	-1.115111e+03
4.800000e-07	-3.838817e-06	-1.682502e-08	-2.738682e+01	-1.104369e+03
4.900000e-07	-3.740729e-06	-1.665472e-08	-2.668704e+01	-1.093196e+03
5.000000e-07	-3.641175e-06	-1.646113e-08	-2.597681e+01	-1.081599e+03
5.100000e-07	-3.540338e-06	-1.626987e-08	-2.525742e+01	-1.069577e+03
5.200000e-07	-3.438243e-06	-1.608604e-08	-2.452906e+01	-1.057116e+03
5.300000e-07	-3.334975e-06	-1.588716e-08	-2.379232e+01	-1.044184e+03
5.400000e-07	-3.230519e-06	-1.568491e-08	-2.304711e+01	-1.030735e+03
5.500000e-07	-3.124795e-06	-1.546943e-08	-2.229286e+01	-1.016714e+03
5.600000e-07	-3.017744e-06	-1.524500e-08	-2.152913e+01	-1.002067e+03
5.700000e-07	-2.909431e-06	-1.500692e-08	-2.075642e+01	-9.867397e+02
5.800000e-07	-2.800131e-06	-1.476310e-08	-1.997665e+01	-9.706909e+02
5.900000e-07	-2.689898e-06	-1.450520e-08	-1.919023e+01	-9.538864e+02
6.000000e-07	-2.578727e-06	-1.423086e-08	-1.839711e+01	-9.362979e+02
6.100000e-07	-2.466560e-06	-1.394679e-08	-1.759689e+01	-9.178969e+02
6.200000e-07	-2.353420e-06	-1.365348e-08	-1.678973e+01	-8.986481e+02
6.300000e-07	-2.239301e-06	-1.335089e-08	-1.597559e+01	-8.785042e+02
6.400000e-07	-2.124080e-06	-1.302907e-08	-1.515358e+01	-8.574030e+02
6.500000e-07	-2.007948e-06	-1.268933e-08	-1.432506e+01	-8.352682e+02
6.600000e-07	-1.891108e-06	-1.232543e-08	-1.349151e+01	-8.120120e+02
6.700000e-07	-1.773612e-06	-1.194590e-08	-1.265327e+01	-7.875399e+02
6.800000e-07	-1.655546e-06	-1.155397e-08	-1.181097e+01	-7.617547e+02
6.900000e-07	-1.536973e-06	-1.114103e-08	-1.096505e+01	-7.345605e+02
7.000000e-07	-1.417896e-06	-1.070453e-08	-1.011553e+01	-7.058641e+02
7.100000e-07	-1.298339e-06	-1.023900e-08	-9.262589e+00	-6.755776e+02
7.200000e-07	-1.178256e-06	-9.747947e-09	-8.405894e+00	-6.436210e+02
7.300000e-07	-1.057792e-06	-9.228354e-09	-7.546479e+00	-6.099281e+02
7.400000e-07	-9.370842e-07	-8.686360e-09	-6.685330e+00	-5.744568e+02
7.500000e-07	-8.159925e-07	-8.124450e-09	-5.821440e+00	-5.372016e+02
7.600000e-07	-6.945781e-07	-7.534896e-09	-4.955247e+00	-4.982085e+02
7.700000e-07	-5.729505e-07	-6.912212e-09	-4.087534e+00	-4.575873e+02
7.800000e-07	-4.510981e-07	-6.263847e-09	-3.218216e+00	-4.155177e+02
7.900000e-07	-3.290817e-07	-5.600720e-09	-2.347729e+00	-3.722445e+02
8.000000e-07	-2.069183e-07	-4.925171e-09	-1.476193e+00	-3.280610e+02
8.100000e-07	-8.461582e-08	-4.246063e-09	-6.036647e-01	-2.832787e+02
8.200000e-07	3.772596e-08	-3.567133e-09	2.691439e-01	-2.381895e+02
8.300000e-07	1.600934e-07	-2.887739e-09	1.142136e+00	-1.930244e+02
8.400000e-07	2.824387e-07	-2.204179e-09	2.014969e+00	-1.479174e+02
8.500000e-07	4.047342e-07	-1.520755e-09	2.887447e+00	-1.028834e+02
8.600000e-07	5.268860e-07	-8.345828e-10	3.758901e+00	-5.781518e+01
8.700000e-07	6.488223e-07	-1.421268e-10	4.628817e+00	-1.250356e+01
8.800000e-07	7.705420e-07	5.581889e-10	5.497187e+00	3.332226e+01
8.900000e-07	8.919921e-07	1.270077e-09	6.363634e+00	7.993881e+01
9.000000e-07	1.013164e-06	1.994212e-09	7.228099e+00	1.275671e+02
9.100000e-07	1.133980e-06	2.734121e-09	8.090020e+00	1.763169e+02
9.200000e-07	1.254430e-06	3.488691e-09	8.949336e+00	2.261468e+02
9.300000e-07	1.374444e-06	4.256541e-09	9.805533e+00	2.768474e+02
9.400000e-07	1.493922e-06	5.035914e-09	1.065791e+01	3.280520e+02
9.500000e-07	1.612812e-06	5.820125e-09	1.150610e+01	3.792710e+02
9.600000e-07	1.731161e-06	6.594697e-09	1.235042e+01	4.299454e+02
9.700000e-07	1.848913e-06	7.348100e-09	1.319048e+01	4.795084e+02
9.800000e-07	1.965984e-06	8.075247e-09	1.402569e+01	5.274454e+02
9.900000e-07	2.082364e-06	8.769094e-09	1.485597e+01	5.733414e+02
1.000000e-06	2.197915e-06	9.423811e-09	1.568033e+01	6.169106e+02
1.010000e-06	2.312457e-06	1.004078e-08	1.649749e+01	6.580044e+02
1.020000e-06	2.425852e-06	1.062468e-08	1.730647e+01	6.965997e+02
1.030000e-06	2.538251e-06	1.117609e-08	1.810835e+01	7.327725e+02
1.040000e-06	2.649719e-06	1.169410e-08	1.890358e+01	7.666646e+02
1.050000e-06	2.760250e-06	1.217575e-08	1.969213e+01	7.984494e+02
1.060000e-06	2.869903e-06	1.262638e-08	2.047441e+01	8.283038e+02
1.070000e-06	2.978619e-06	1.304852e-08	2.125001e+01	8.563898e+02
1.080000e-06	3.086417e-06	1.344879e-08	2.201906e+01	8.828463e+02
1.090000e-06	3.193123e-06	1.382918e-08	2.278033e+01	9.077892e+02
1.100000e-06	3.298502e-06	1.419006e-08	2.353212e+01	9.313179e+02
1.110000e-06	3.402612e-06	1.453219e-08	2.427486e+01	9.535220e+02
1.120000e-06	3.505498e-06	1.485099e-08	2.500886e+01	9.744883e+02
1.130000e-06	3.607174e-06	1.514710e-08	2.573424e+01	9.943034e+02
1.140000e-06	3.707698e-06	1.542698e-08	2.645139e+01	1.013053e+03
1.150000e-06	3.807004e-06	1.569653e-08	2.715986e+01	1.030820e+03
1.160000e-06	3.904802e-06	1.595442e-08	2.785757e+01	1.047677e+03
1.170000e-06	4.001064e-06	1.619971e-08	2.854432e+01	1.063691e+03
1.180000e-06	4.095935e-06	1.643229e-08	2.922115e+01	1.078914e+03
1.190000e-06	4.189370e-06	1.665036e-08	2.988773e+01	1.093389e+03
1.200000e-06	4.281557e-06	1.685409e-08	3.054541e+01	1.107156e+03
1.210000e-06	4.372328e-06	1.704963e-08	3.119299e+01	1.120248e+03
1.220000e-06	4.461359e-06	1.723727e-08	3.182815e+01	1.132703e+03
1.230000e-06	4.548632e-06	1.741771e-08	3.245077e+01	1.144555e+03
1.240000e-06	4.634290e-06	1.758852e-08	3.306187e+01	1.155843e+03
1.250000e-06	4.718559e-06	1.775160e-08	3.366306e+01	1.166598e+03
1.260000e-06	4.801234e-06	1.790858e-08	3.425288e+01	1.176848e+03
1.270000e-06	4.882059e-06	1.805904e-08	3.482950e+01	1.186612e+03
1.280000e-06	4.960999e-06	1.820148e-08	3.539267e+01	1.195901e+03
1.290000e-06	5.038114e-06	1.833655e-08	3.594283e+01	1.204718e+03
1.300000e-06	5.113342e-06	1.846447e-08	3.647952e+01	1.213067e+03
1.310000e-06	5.186479e-06	1.858480e-08	3.700129e+01	1.220953e+03
1.320000e-06	5.257630e-06	1.869678e-08	3.750889e+01	1.228388e+03
1.330000e-06	5.326960e-06	1.880151e-08	3.800351e+01	1.235393e+03
1.340000e-06	5.394507e-06	1.890058e-08	3.848540e+01	1.241999e+03
1.350000e-06	5.460079e-06	1.899468e-08	3.895320e+01	1.248245e+03
1.360000e-06	5.523570e-06	1.908595e-08	3.940616e+01	1.254168e+03
1.370000e-06	5.585143e-06	1.917420e-08	3.984543e+01	1.259806e+03
1.380000e-06	5.644949e-06	1.925766e-08	4.027210e+01	1.265185e+03
1.390000e-06	5.702745e-06	1.933581e-08	4.068442e+01	1.270324e+03
1.400000e-06	5.758389e-06	1.940942e-08	4.108140e+01	1.275231e+03
1.410000e-06	5.812008e-06	1.947863e-08	4.146393e+01	1.279908e+03
1.420000e-06	5.863326e-06	1.954421e-08	4.183004e+01	1.284349e+03
1.430000e-06	5.912165e-06	1.960755e-08	4.217847e+01	1.288550e+03
1.440000e-06	5.958780e-06	1.967066e-08	4.251103e+01	1.292510e+03
1.450000e-06	6.003433e-06	1.972917e-08	4.282959e+01	1.296228e+03
1.460000e-06	6.046059e-06	1.978327e-08	4.313369e+01	1.299707e+03
1.470000e-06	6.086407e-06	1.983346e-08	4.342154e+01	1.302952e+03
1.480000e-06	6.124539e-06	1.987910e-08	4.369358e+01	1.305965e+03
1.490000e-06	6.160743e-06	1.992105e-08	4.395187e+01	1.308746e+03
1.500000e-06	6.194762e-06	1.995634e-08	4.419456e+01	1.311294e+03
1.510000e-06	6.226446e-06	1.998723e-08	4.442060e+01	1.313606e+03
1.520000e-06	6.256054e-06	2.001686e-08	4.463183e+01	1.315681e+03
1.530000e-06	6.283607e-06	2.004480e-08	4.482840e+01	1.317524e+03
1.540000e-06	6.308767e-06	2.007096e-08	4.500789e+01	1.319145e+03
1.550000e-06	6.331480e-06	2.009402e-08	4.516994e+01	1.320559e+03
1.560000e-06	6.352090e-06	2.011529e-08	4.531697e+01	1.321785e+03
1.570000e-06	6.370605e-06	2.013201e-08	4.544906e+01	1.322843e+03
1.580000e-06	6.386728e-06	2.014341e-08	4.556408e+01	1.323746e+03
1.590000e-06	6.400404e-06	2.015337e-08	4.566165e+01	1.324500e+03
1.600000e-06	6.411668e-06	2.016067e-08	4.574201e+01	1.325105e+03
1.610000e-06	6.420384e-06	2.016702e-08	4.580419e+01	1.325551e+03
1.620000e-06	6.426717e-06	2.017167e-08	4.584937e+01	1.325826e+03
1.630000e-06	6.430919e-06	2.017607e-08	4.587935e+01	1.325921e+03
1.640000e-06	6.432776e-06	2.018166e-08	4.589260e+01	1.325833e+03
1.650000e-06	6.432270e-06	2.018523e-08	4.588899e+01	1.325569e+03
1.660000e-06	6.429693e-06	2.017199e-08	4.587060e+01	1.325146e+03
1.670000e-06	6.425172e-06	2.016187e-08	4.583835e+01	1.324587e+03
1.680000e-06	6.418400e-06	2.015029e-08	4.579004e+01	1.323914e+03
1.690000e-06	6.409371e-06	2.013798e-08	4.572563e+01	1.323142e+03
1.700000e-06	6.398369e-06	2.013019e-08	4.564713e+01	1.322276e+03
1.710000e-06	6.385237e-06	2.012572e-08	4.555345e+01	1.321304e+03
1.720000e-06	6.369835e-06	2.013541e-08	4.544357e+01	1.320203e+03
1.730000e-06	6.352409e-06	2.007617e-08	4.531924e+01	1.318941e+03
1.740000e-06	6.332874e-06	1.994807e-08	4.517988e+01	1.317491e+03
1.750000e-06	6.310319e-06	1.999165e-08	4.501897e+01	1.315840e+03
1.760000e-06	6.284596e-06	2.001024e-08	4.483546e+01	1.313991e+03
1.770000e-06	6.256706e-06	1.994699e-08	4.463649e+01	1.311972e+03
1.780000e-06	6.227122e-06	2.006369e-08	4.442542e+01	1.309829e+03
1.790000e-06	6.195922e-06	1.997107e-08	4.420284e+01	1.307616e+03
1.800000e-06	6.163227e-06	1.974157e-08	4.396959e+01	1.305385e+03
1.810000e-06	6.128426e-06	1.984421e-08	4.372131e+01	1.303173e+03
1.820000e-06	6.091532e-06	1.962792e-08	4.345810e+01	1.300987e+03
1.830000e-06	6.052568e-06	1.965457e-08	4.318012e+01	1.298804e+03
1.840000e-06	6.011190e-06	1.990565e-08	4.288492e+01	1.296571e+03
1.850000e-06	5.967823e-06	1.963325e-08	4.257554e+01	1.294213e+03
1.860000e-06	5.922411e-06	1.974422e-08	4.225157e+01	1.291650e+03
1.870000e-06	5.874814e-06	1.971382e-08	4.191199e+01	1.288807e+03
1.880000e-06	5.825147e-06	1.954523e-08	4.155766e+01	1.285635e+03
1.890000e-06	5.772882e-06	1.963525e-08	4.118480e+01	1.282111e+03
1.900000e-06	5.718092e-06	1.939756e-08	4.079391e+01	1.278246e+03
1.910000e-06	5.661190e-06	1.942329e-08	4.038797e+01	1.274073e+03
1.920000e-06	5.602290e-06	1.942522e-08	3.996776e+01	1.269639e+03
1.930000e-06	5.541576e-06	1.930130e-08	3.953462e+01	1.264988e+03
1.940000e-06	5.478669e-06	1.933042e-08	3.908582e+01	1.260153e+03
1.950000e-06	5.413601e-06	1.908789e-08	3.862162e+01	1.255145e+03
1.960000e-06	5.346581e-06	1.908866e-08	3.814348e+01	1.249952e+03
1.970000e-06	5.277491e-06	1.896657e-08	3.765059e+01	1.244545e+03
1.980000e-06	5.206309e-06	1.886510e-08	3.714276e+01	1.238886e+03
1.990000e-06	5.133164e-06	1.887865e-08	3.662093e+01	1.232939e+03
2.000000e-06	5.058251e-06	1.871028e-08	3.608649e+01	1.226680e+03
2.010000e-06	4.981338e-06	1.866207e-08	3.553777e+01	1.220102e+03
2.020000e-06	4.902355e-06	1.846672e-08	3.497429e+01	1.213214e+03
2.030000e-06	4.821548e-06	1.840298e-08	3.439781e+01	1.206035e+03
2.040000e-06	4.739134e-06	1.833977e-08	3.380985e+01	1.198588e+03
2.050000e-06	4.655223e-06	1.819444e-08	3.321121e+01	1.190888e+03
2.060000e-06	4.569690e-06	1.809127e-08	3.260100e+01	1.182937e+03
2.070000e-06	4.482422e-06	1.791733e-08	3.197842e+01	1.174719e+03
2.080000e-06	4.393526e-06	1.781816e-08	3.134422e+01	1.166202e+03
2.090000e-06	4.303153e-06	1.765923e-08	3.069948e+01	1.157345e+03
2.100000e-06	4.211359e-06	1.755163e-08	3.004461e+01	1.148108e+03
2.110000e-06	4.118151e-06	1.741166e-08	2.937964e+01	1.138456e+03
2.120000e-06	4.023449e-06	1.723788e-08	2.870402e+01	1.128371e+03
2.130000e-06	3.927198e-06	1.707692e-08	2.801735e+01	1.117845e+03
2.140000e-06	3.829620e-06	1.689986e-08	2.732121e+01	1.106884e+03
2.150000e-06	3.730800e-06	1.674779e-08	2.661621e+01	1.095496e+03
2.160000e-06	3.630626e-06	1.655941e-08	2.590155e+01	1.083684e+03
2.170000e-06	3.529034e-06	1.639157e-08	2.517677e+01	1.071443e+03
2.180000e-06	3.426022e-06	1.618681e-08	2.444187e+01	1.058749e+03
2.190000e-06	3.321667e-06	1.598651e-08	2.369738e+01	1.045562e+03
2.200000e-06	3.216152e-06	1.577731e-08	2.294462e+01	1.031832e+03
2.210000e-06	3.109619e-06	1.556642e-08	2.218459e+01	1.017502e+03
2.220000e-06	3.001984e-06	1.533801e-08	2.141670e+01	1.002518e+03
2.230000e-06	2.893326e-06	1.509116e-08	2.064152e+01	9.868327e+02
2.240000e-06	2.783688e-06	1.484770e-08	1.985934e+01	9.704072e+02
2.250000e-06	2.672920e-06	1.459209e-08	1.906910e+01	9.532116e+02
2.260000e-06	2.561107e-06	1.432429e-08	1.827140e+01	9.352181e+02
2.270000e-06	2.448367e-06	1.402949e-08	1.746710e+01	9.163957e+02
2.280000e-06	2.334649e-06	1.372994e-08	1.665581e+01	8.967036e+02
2.290000e-06	2.219991e-06	1.341205e-08	1.583782e+01	8.760872e+02
2.300000e-06	2.104526e-06	1.308711e-08	1.501407e+01	8.544770e+02
2.310000e-06	1.988194e-06	1.274647e-08	1.418414e+01	8.317904e+02
2.320000e-06	1.871011e-06	1.238858e-08	1.334814e+01	8.079358e+02
2.330000e-06	1.753188e-06	1.200547e-08	1.250756e+01	7.828167e+02
2.340000e-06	1.634695e-06	1.159497e-08	1.166221e+01	7.563363e+02
2.350000e-06	1.515412e-06	1.116607e-08	1.081123e+01	7.283999e+02
2.360000e-06	1.395493e-06	1.072232e-08	9.955701e+00	6.989165e+02
2.370000e-06	1.275206e-06	1.025957e-08	9.097555e+00	6.678016e+02
2.380000e-06	1.154652e-06	9.762922e-09	8.237496e+00	6.349813e+02
2.390000e-06	1.033782e-06	9.232666e-09	7.375189e+00	6.004001e+02
2.400000e-06	9.125559e-07	8.670885e-09	6.510341e+00	5.640321e+02
2.410000e-06	7.910592e-07	8.088543e-09	5.643561e+00	5.258958e+02
2.420000e-06	6.693378e-07	7.483368e-09	4.775178e+00	4.860681e+02
2.430000e-06	5.473835e-07	6.855839e-09	3.905134e+00	4.446933e+02
2.440000e-06	4.252846e-07	6.208017e-09	3.034058e+00	4.019852e+02
2.450000e-06	3.030396e-07	5.537582e-09	2.161940e+00	3.582156e+02
2.460000e-06	1.806174e-07	4.851553e-09	1.288557e+00	3.136914e+02
2.470000e-06	5.817368e-08	4.160048e-09	4.150217e-01	2.687195e+02
2.480000e-06	-6.422513e-08	3.471650e-09	-4.581938e-01	2.235663e+02
2.490000e-06	-1.866898e-07	2.782965e-09	-1.331879e+00	1.784181e+02
2.500000e-06	-3.091227e-07	2.090603e-09	-2.205337e+00	1.333510e+02
2.510000e-06	-4.314030e-07	1.398650e-09	-3.077708e+00	8.831780e+01
2.520000e-06	-5.536028e-07	7.053968e-10	-3.949504e+00	4.315650e+01
2.530000e-06	-6.756951e-07	6.856012e-12	-4.820532e+00	-2.379150e+00
2.540000e-06	-7.975397e-07	-7.025487e-10	-5.689794e+00	-4.857037e+01
2.550000e-06	-9.190747e-07	-1.423767e-09	-6.556847e+00	-9.567352e+01
2.560000e-06	-1.040293e-06	-2.157082e-09	-7.421638e+00	-1.438602e+02
2.570000e-06	-1.161163e-06	-2.908775e-09	-8.283951e+00	-1.931682e+02
2.580000e-06	-1.281671e-06	-3.676548e-09	-9.143676e+00	-2.434725e+02
2.590000e-06	-1.401762e-06	-4.455243e-09	-1.000043e+01	-2.944823e+02
2.600000e-06	-1.521308e-06	-5.239933e-09	-1.085329e+01	-3.457635e+02
2.610000e-06	-1.640165e-06	-6.021734e-09	-1.170123e+01	-3.967846e+02
2.620000e-06	-1.758212e-06	-6.791199e-09	-1.254341e+01	-4.469748e+02
2.630000e-06	-1.875477e-06	-7.538617e-09	-1.337999e+01	-4.957864e+02
2.640000e-06	-1.991981e-06	-8.260487e-09	-1.421116e+01	-5.427496e+02
2.650000e-06	-2.107608e-06	-8.950471e-09	-1.503606e+01	-5.875119e+02
2.660000e-06	-2.222357e-06	-9.601780e-09	-1.585470e+01	-6.298563e+02
2.670000e-06	-2.336180e-06	-1.021513e-08	-1.666673e+01	-6.696993e+02
2.680000e-06	-2.448863e-06	-1.078978e-08	-1.747064e+01	-7.070715e+02
2.690000e-06	-2.560467e-06	-1.132411e-08	-1.826684e+01	-7.420861e+02
2.700000e-06	-2.671139e-06	-1.182355e-08	-1.905639e+01	-7.749046e+02
2.710000e-06	-2.780812e-06	-1.229610e-08	-1.983882e+01	-8.057053e+02
2.720000e-06	-2.889550e-06	-1.274213e-08	-2.061457e+01	-8.346591e+02
2.730000e-06	-2.997411e-06	-1.316004e-08	-2.138408e+01	-8.619171e+02
2.740000e-06	-3.104295e-06	-1.355414e-08	-2.214661e+01	-8.876061e+02
2.750000e-06	-3.210165e-06	-1.392627e-08	-2.290190e+01	-9.118328e+02
2.760000e-06	-3.314895e-06	-1.427450e-08	-2.364907e+01	-9.346908e+02
2.770000e-06	-3.418413e-06	-1.460239e-08	-2.438758e+01	-9.562678e+02
2.780000e-06	-3.520585e-06	-1.491356e-08	-2.511649e+01	-9.766503e+02
2.790000e-06	-3.621416e-06	-1.520911e-08	-2.583584e+01	-9.959247e+02
2.800000e-06	-3.721076e-06	-1.548800e-08	-2.654684e+01	-1.014175e+03
2.810000e-06	-3.819472e-06	-1.575132e-08	-2.724881e+01	-1.031481e+03
2.820000e-06	-3.916539e-06	-1.600143e-08	-2.794130e+01	-1.047912e+03
2.830000e-06	-4.012296e-06	-1.624090e-08	-2.862445e+01	-1.063527e+03
2.840000e-06	-4.106572e-06	-1.647103e-08	-2.929703e+01	-1.078374e+03
2.850000e-06	-4.199318e-06	-1.669051e-08	-2.995870e+01	-1.092493e+03
2.860000e-06	-4.290606e-06	-1.690008e-08	-3.060997e+01	-1.105920e+03
2.870000e-06	-4.380382e-06	-1.709910e-08	-3.125044e+01	-1.118692e+03
2.880000e-06	-4.468616e-06	-1.728646e-08	-3.187992e+01	-1.130843e+03
2.890000e-06	-4.555088e-06	-1.746059e-08	-3.249683e+01	-1.142412e+03
2.900000e-06	-4.639837e-06	-1.762422e-08	-3.310144e+01	-1.153432e+03
2.910000e-06	-4.723024e-06	-1.778243e-08	-3.369492e+01	-1.163934e+03
2.920000e-06	-4.804516e-06	-1.793547e-08	-3.427629e+01	-1.173942e+03
2.930000e-06	-4.884339e-06	-1.808186e-08	-3.484576e+01	-1.183470e+03
2.940000e-06	-4.962236e-06	-1.822011e-08	-3.540150e+01	-1.192525e+03
