# Temperatura_=_86.03
# Concentracion g/m^3_=_28200.0
# C_Vs_to_Am_M_A/Vsm_=_65563218390.804596
# pendiente_HvsI_1/m_=_3716.3
# ordenada_HvsI_A/m_=_1297.0
# frecuencia_Hz_=_302093.30873496685

Tiempo_(s)	Campo_(V.s)	Magnetizacion_(V.s)	Campo_(kA/m)	Magnetizacion_(A/m)
0.000000e+00	-6.378088e-06	-2.467726e-08	-4.558667e+01	-1.616721e+03
1.000000e-08	-6.374728e-06	-2.467541e-08	-4.556266e+01	-1.616214e+03
2.000000e-08	-6.369307e-06	-2.466433e-08	-4.552391e+01	-1.615478e+03
3.000000e-08	-6.361936e-06	-2.465240e-08	-4.547123e+01	-1.614526e+03
4.000000e-08	-6.352418e-06	-2.463463e-08	-4.540320e+01	-1.613381e+03
5.000000e-08	-6.340567e-06	-2.461325e-08	-4.531849e+01	-1.612069e+03
6.000000e-08	-6.326387e-06	-2.459072e-08	-4.521715e+01	-1.610618e+03
7.000000e-08	-6.309836e-06	-2.455366e-08	-4.509885e+01	-1.609049e+03
8.000000e-08	-6.291222e-06	-2.453345e-08	-4.496581e+01	-1.607370e+03
9.000000e-08	-6.270592e-06	-2.458333e-08	-4.481836e+01	-1.605575e+03
1.000000e-07	-6.247518e-06	-2.453519e-08	-4.465343e+01	-1.603648e+03
1.100000e-07	-6.221785e-06	-2.444419e-08	-4.446951e+01	-1.601561e+03
1.200000e-07	-6.193718e-06	-2.442225e-08	-4.426891e+01	-1.599285e+03
1.300000e-07	-6.163805e-06	-2.437021e-08	-4.405510e+01	-1.596790e+03
1.400000e-07	-6.132328e-06	-2.423564e-08	-4.383013e+01	-1.594053e+03
1.500000e-07	-6.099154e-06	-2.430514e-08	-4.359302e+01	-1.591060e+03
1.600000e-07	-6.063891e-06	-2.433015e-08	-4.334098e+01	-1.587803e+03
1.700000e-07	-6.026725e-06	-2.411115e-08	-4.307534e+01	-1.584285e+03
1.800000e-07	-5.987545e-06	-2.421141e-08	-4.279531e+01	-1.580514e+03
1.900000e-07	-5.945898e-06	-2.411191e-08	-4.249764e+01	-1.576501e+03
2.000000e-07	-5.902072e-06	-2.394955e-08	-4.218440e+01	-1.572260e+03
2.100000e-07	-5.856171e-06	-2.400805e-08	-4.185633e+01	-1.567803e+03
2.200000e-07	-5.807922e-06	-2.381782e-08	-4.151147e+01	-1.563142e+03
2.300000e-07	-5.757195e-06	-2.372438e-08	-4.114891e+01	-1.558286e+03
2.400000e-07	-5.703998e-06	-2.371613e-08	-4.076869e+01	-1.553237e+03
2.500000e-07	-5.648630e-06	-2.361467e-08	-4.037295e+01	-1.547996e+03
2.600000e-07	-5.591113e-06	-2.354595e-08	-3.996186e+01	-1.542552e+03
2.700000e-07	-5.531426e-06	-2.345741e-08	-3.953525e+01	-1.536889e+03
2.800000e-07	-5.469825e-06	-2.335635e-08	-3.909496e+01	-1.530987e+03
2.900000e-07	-5.406256e-06	-2.320794e-08	-3.864061e+01	-1.524816e+03
3.000000e-07	-5.340566e-06	-2.314002e-08	-3.817110e+01	-1.518349e+03
3.100000e-07	-5.272811e-06	-2.310009e-08	-3.768683e+01	-1.511562e+03
3.200000e-07	-5.203101e-06	-2.295774e-08	-3.718858e+01	-1.504435e+03
3.300000e-07	-5.131602e-06	-2.284090e-08	-3.667755e+01	-1.496961e+03
3.400000e-07	-5.058217e-06	-2.268446e-08	-3.615304e+01	-1.489141e+03
3.500000e-07	-4.982697e-06	-2.256397e-08	-3.561327e+01	-1.480987e+03
3.600000e-07	-4.904975e-06	-2.245792e-08	-3.505776e+01	-1.472512e+03
3.700000e-07	-4.825222e-06	-2.232760e-08	-3.448773e+01	-1.463731e+03
3.800000e-07	-4.743717e-06	-2.221047e-08	-3.390519e+01	-1.454649e+03
3.900000e-07	-4.660673e-06	-2.203455e-08	-3.331164e+01	-1.445263e+03
4.000000e-07	-4.576241e-06	-2.186327e-08	-3.270817e+01	-1.435556e+03
4.100000e-07	-4.490371e-06	-2.171406e-08	-3.209443e+01	-1.425500e+03
4.200000e-07	-4.403087e-06	-2.157833e-08	-3.147057e+01	-1.415063e+03
4.300000e-07	-4.314321e-06	-2.141452e-08	-3.083613e+01	-1.404211e+03
4.400000e-07	-4.223872e-06	-2.122956e-08	-3.018965e+01	-1.392916e+03
4.500000e-07	-4.131810e-06	-2.105630e-08	-2.953165e+01	-1.381160e+03
4.600000e-07	-4.038306e-06	-2.085534e-08	-2.886334e+01	-1.368936e+03
4.700000e-07	-3.943508e-06	-2.066603e-08	-2.818578e+01	-1.356243e+03
4.800000e-07	-3.847321e-06	-2.047750e-08	-2.749830e+01	-1.343084e+03
4.900000e-07	-3.749660e-06	-2.026912e-08	-2.680028e+01	-1.329458e+03
5.000000e-07	-3.650570e-06	-2.003852e-08	-2.609204e+01	-1.315354e+03
5.100000e-07	-3.550135e-06	-1.980465e-08	-2.537419e+01	-1.300746e+03
5.200000e-07	-3.448477e-06	-1.957546e-08	-2.464761e+01	-1.285598e+03
5.300000e-07	-3.345603e-06	-1.933469e-08	-2.391233e+01	-1.269862e+03
5.400000e-07	-3.241452e-06	-1.908906e-08	-2.316792e+01	-1.253485e+03
5.500000e-07	-3.136079e-06	-1.882948e-08	-2.241477e+01	-1.236419e+03
5.600000e-07	-3.029490e-06	-1.855765e-08	-2.165294e+01	-1.218619e+03
5.700000e-07	-2.921614e-06	-1.826793e-08	-2.088191e+01	-1.200051e+03
5.800000e-07	-2.812677e-06	-1.797078e-08	-2.010330e+01	-1.180686e+03
5.900000e-07	-2.702782e-06	-1.766271e-08	-1.931784e+01	-1.160495e+03
6.000000e-07	-2.591972e-06	-1.733792e-08	-1.852583e+01	-1.139445e+03
6.100000e-07	-2.480211e-06	-1.699611e-08	-1.772703e+01	-1.117486e+03
6.200000e-07	-2.367360e-06	-1.664198e-08	-1.692044e+01	-1.094555e+03
6.300000e-07	-2.253526e-06	-1.627778e-08	-1.610682e+01	-1.070567e+03
6.400000e-07	-2.138684e-06	-1.589594e-08	-1.528600e+01	-1.045426e+03
6.500000e-07	-2.022798e-06	-1.549528e-08	-1.445772e+01	-1.019026e+03
6.600000e-07	-1.906174e-06	-1.506603e-08	-1.362416e+01	-9.912573e+02
6.700000e-07	-1.788983e-06	-1.461617e-08	-1.278656e+01	-9.620145e+02
6.800000e-07	-1.671199e-06	-1.414946e-08	-1.194471e+01	-9.311947e+02
6.900000e-07	-1.552859e-06	-1.365755e-08	-1.109889e+01	-8.986957e+02
7.000000e-07	-1.434040e-06	-1.313434e-08	-1.024964e+01	-8.644113e+02
7.100000e-07	-1.314791e-06	-1.257786e-08	-9.397322e+00	-8.282272e+02
7.200000e-07	-1.195045e-06	-1.199135e-08	-8.541453e+00	-7.900206e+02
7.300000e-07	-1.074810e-06	-1.137044e-08	-7.682084e+00	-7.496675e+02
7.400000e-07	-9.541743e-07	-1.071664e-08	-6.819854e+00	-7.070586e+02
7.500000e-07	-8.332249e-07	-1.003541e-08	-5.955382e+00	-6.621217e+02
7.600000e-07	-7.120773e-07	-9.320514e-09	-5.089493e+00	-6.148484e+02
7.700000e-07	-5.907128e-07	-8.561962e-09	-4.222054e+00	-5.653172e+02
7.800000e-07	-4.691481e-07	-7.768635e-09	-3.353183e+00	-5.137074e+02
7.900000e-07	-3.474806e-07	-6.952424e-09	-2.483579e+00	-4.602965e+02
8.000000e-07	-2.256726e-07	-6.118524e-09	-1.612969e+00	-4.054383e+02
8.100000e-07	-1.037417e-07	-5.270352e-09	-7.414822e-01	-3.495233e+02
8.200000e-07	1.826718e-08	-4.413166e-09	1.305626e-01	-2.929254e+02
8.300000e-07	1.403329e-07	-3.547835e-09	1.003014e+00	-2.359448e+02
8.400000e-07	2.623594e-07	-2.673464e-09	1.875185e+00	-1.787601e+02
8.500000e-07	3.843851e-07	-1.796999e-09	2.747350e+00	-1.213981e+02
8.600000e-07	5.063076e-07	-9.164122e-10	3.618777e+00	-6.373325e+01
8.700000e-07	6.280217e-07	-2.895291e-11	4.488715e+00	-5.516843e+00
8.800000e-07	7.496141e-07	8.706082e-10	5.357783e+00	5.356486e+01
8.900000e-07	8.709960e-07	1.787532e-09	6.225347e+00	1.138140e+02
9.000000e-07	9.920948e-07	2.724554e-09	7.090887e+00	1.754392e+02
9.100000e-07	1.112878e-06	3.683707e-09	7.954170e+00	2.384841e+02
9.200000e-07	1.233310e-06	4.659674e-09	8.814945e+00	3.027812e+02
9.300000e-07	1.353267e-06	5.648954e-09	9.672328e+00	3.679389e+02
9.400000e-07	1.472628e-06	6.646361e-09	1.052545e+01	4.333672e+02
9.500000e-07	1.591467e-06	7.639457e-09	1.137483e+01	4.983363e+02
9.600000e-07	1.709770e-06	8.612518e-09	1.222039e+01	5.620581e+02
9.700000e-07	1.827446e-06	9.551029e-09	1.306146e+01	6.237753e+02
9.800000e-07	1.944420e-06	1.044610e-08	1.389752e+01	6.828436e+02
9.900000e-07	2.060604e-06	1.129037e-08	1.472794e+01	7.387911e+02
1.000000e-06	2.175922e-06	1.208071e-08	1.555216e+01	7.913491e+02
1.010000e-06	2.290292e-06	1.282061e-08	1.636960e+01	8.404489e+02
1.020000e-06	2.403675e-06	1.351315e-08	1.718000e+01	8.861915e+02
1.030000e-06	2.516073e-06	1.416140e-08	1.798335e+01	9.287975e+02
1.040000e-06	2.627456e-06	1.476813e-08	1.877945e+01	9.685500e+02
1.050000e-06	2.737845e-06	1.533483e-08	1.956844e+01	1.005742e+03
1.060000e-06	2.847333e-06	1.586535e-08	2.035100e+01	1.040637e+03
1.070000e-06	2.955989e-06	1.635985e-08	2.112760e+01	1.073448e+03
1.080000e-06	3.063770e-06	1.682523e-08	2.189796e+01	1.104338e+03
1.090000e-06	3.170390e-06	1.726421e-08	2.266001e+01	1.133426e+03
1.100000e-06	3.275703e-06	1.767851e-08	2.341272e+01	1.160811e+03
1.110000e-06	3.379809e-06	1.806944e-08	2.415681e+01	1.186590e+03
1.120000e-06	3.482697e-06	1.843857e-08	2.489219e+01	1.210868e+03
1.130000e-06	3.584406e-06	1.878663e-08	2.561914e+01	1.233767e+03
1.140000e-06	3.684970e-06	1.911681e-08	2.633791e+01	1.255417e+03
1.150000e-06	3.784273e-06	1.943382e-08	2.704767e+01	1.275946e+03
1.160000e-06	3.882128e-06	1.973517e-08	2.774708e+01	1.295469e+03
1.170000e-06	3.978490e-06	2.001840e-08	2.843582e+01	1.314077e+03
1.180000e-06	4.073375e-06	2.028489e-08	2.911399e+01	1.331828e+03
1.190000e-06	4.166839e-06	2.053854e-08	2.978202e+01	1.348758e+03
1.200000e-06	4.259078e-06	2.078027e-08	3.044129e+01	1.364884e+03
1.210000e-06	4.349990e-06	2.101177e-08	3.109107e+01	1.380219e+03
1.220000e-06	4.439228e-06	2.123326e-08	3.172889e+01	1.394782e+03
1.230000e-06	4.526655e-06	2.144355e-08	3.235376e+01	1.408606e+03
1.240000e-06	4.612427e-06	2.164335e-08	3.296680e+01	1.421740e+03
1.250000e-06	4.696713e-06	2.183478e-08	3.356923e+01	1.434248e+03
1.260000e-06	4.779493e-06	2.201766e-08	3.416089e+01	1.446192e+03
1.270000e-06	4.860541e-06	2.219290e-08	3.474017e+01	1.457632e+03
1.280000e-06	4.939670e-06	2.235989e-08	3.530574e+01	1.468606e+03
1.290000e-06	5.016964e-06	2.251970e-08	3.585819e+01	1.479136e+03
1.300000e-06	5.092405e-06	2.267336e-08	3.639740e+01	1.489219e+03
1.310000e-06	5.165787e-06	2.282216e-08	3.692189e+01	1.498840e+03
1.320000e-06	5.237142e-06	2.296382e-08	3.743189e+01	1.507980e+03
1.330000e-06	5.306624e-06	2.309692e-08	3.792850e+01	1.516621e+03
1.340000e-06	5.374341e-06	2.322156e-08	3.841250e+01	1.524763e+03
1.350000e-06	5.440103e-06	2.333976e-08	3.888253e+01	1.532418e+03
1.360000e-06	5.503764e-06	2.345253e-08	3.933754e+01	1.539619e+03
1.370000e-06	5.565561e-06	2.355833e-08	3.977923e+01	1.546408e+03
1.380000e-06	5.625611e-06	2.365673e-08	4.020842e+01	1.552831e+03
1.390000e-06	5.683731e-06	2.374844e-08	4.062383e+01	1.558932e+03
1.400000e-06	5.739722e-06	2.383506e-08	4.102402e+01	1.564743e+03
1.410000e-06	5.793597e-06	2.391917e-08	4.140909e+01	1.570286e+03
1.420000e-06	5.845184e-06	2.400090e-08	4.177780e+01	1.575568e+03
1.430000e-06	5.894251e-06	2.407826e-08	4.212850e+01	1.580591e+03
1.440000e-06	5.941031e-06	2.415120e-08	4.246285e+01	1.585351e+03
1.450000e-06	5.985906e-06	2.421930e-08	4.278359e+01	1.589844e+03
1.460000e-06	6.028871e-06	2.428313e-08	4.309068e+01	1.594072e+03
1.470000e-06	6.069547e-06	2.434298e-08	4.338141e+01	1.598036e+03
1.480000e-06	6.107954e-06	2.440079e-08	4.365592e+01	1.601744e+03
1.490000e-06	6.144418e-06	2.445574e-08	4.391654e+01	1.605197e+03
1.500000e-06	6.178785e-06	2.450479e-08	4.416218e+01	1.608396e+03
1.510000e-06	6.210813e-06	2.454828e-08	4.439109e+01	1.611335e+03
1.520000e-06	6.240610e-06	2.458744e-08	4.460407e+01	1.614005e+03
1.530000e-06	6.268412e-06	2.462240e-08	4.480278e+01	1.616396e+03
1.540000e-06	6.293935e-06	2.465290e-08	4.498520e+01	1.618502e+03
1.550000e-06	6.316975e-06	2.468023e-08	4.514987e+01	1.620325e+03
1.560000e-06	6.337833e-06	2.470558e-08	4.529895e+01	1.621875e+03
1.570000e-06	6.356628e-06	2.472720e-08	4.543329e+01	1.623174e+03
1.580000e-06	6.373133e-06	2.474364e-08	4.555126e+01	1.624249e+03
1.590000e-06	6.387193e-06	2.475674e-08	4.565175e+01	1.625128e+03
1.600000e-06	6.398763e-06	2.476778e-08	4.573444e+01	1.625833e+03
1.610000e-06	6.407735e-06	2.477788e-08	4.579857e+01	1.626380e+03
1.620000e-06	6.414298e-06	2.478562e-08	4.584548e+01	1.626770e+03
1.630000e-06	6.418713e-06	2.479047e-08	4.587703e+01	1.626991e+03
1.640000e-06	6.420891e-06	2.479238e-08	4.589260e+01	1.627026e+03
1.650000e-06	6.420777e-06	2.479265e-08	4.589179e+01	1.626855e+03
1.660000e-06	6.418528e-06	2.478135e-08	4.587571e+01	1.626460e+03
1.670000e-06	6.414298e-06	2.476914e-08	4.584548e+01	1.625836e+03
1.680000e-06	6.407861e-06	2.475892e-08	4.579947e+01	1.624988e+03
1.690000e-06	6.399228e-06	2.474587e-08	4.573776e+01	1.623933e+03
1.700000e-06	6.388571e-06	2.473345e-08	4.566160e+01	1.622699e+03
1.710000e-06	6.375795e-06	2.472052e-08	4.557028e+01	1.621312e+03
1.720000e-06	6.360780e-06	2.471616e-08	4.546297e+01	1.619798e+03
1.730000e-06	6.343679e-06	2.467627e-08	4.534074e+01	1.618171e+03
1.740000e-06	6.324562e-06	2.454606e-08	4.520410e+01	1.616433e+03
1.750000e-06	6.302608e-06	2.454519e-08	4.504719e+01	1.614573e+03
1.760000e-06	6.277455e-06	2.456840e-08	4.486741e+01	1.612567e+03
1.770000e-06	6.249917e-06	2.450854e-08	4.467058e+01	1.610387e+03
1.780000e-06	6.220633e-06	2.456245e-08	4.446128e+01	1.608002e+03
1.790000e-06	6.189759e-06	2.454576e-08	4.424061e+01	1.605386e+03
1.800000e-06	6.157392e-06	2.435217e-08	4.400927e+01	1.602520e+03
1.810000e-06	6.122968e-06	2.444906e-08	4.376323e+01	1.599393e+03
1.820000e-06	6.086537e-06	2.431262e-08	4.350284e+01	1.596003e+03
1.830000e-06	6.048140e-06	2.411799e-08	4.322841e+01	1.592355e+03
1.840000e-06	6.007272e-06	2.430077e-08	4.293631e+01	1.588459e+03
1.850000e-06	5.964331e-06	2.408053e-08	4.262939e+01	1.584328e+03
1.860000e-06	5.919427e-06	2.404137e-08	4.230845e+01	1.579975e+03
1.870000e-06	5.872303e-06	2.409453e-08	4.197163e+01	1.575412e+03
1.880000e-06	5.823119e-06	2.389045e-08	4.162009e+01	1.570650e+03
1.890000e-06	5.771511e-06	2.393537e-08	4.125123e+01	1.565695e+03
1.900000e-06	5.717289e-06	2.376560e-08	4.086369e+01	1.560549e+03
1.910000e-06	5.660827e-06	2.365795e-08	4.046013e+01	1.555205e+03
1.920000e-06	5.602293e-06	2.368061e-08	4.004177e+01	1.549652e+03
1.930000e-06	5.541938e-06	2.353504e-08	3.961039e+01	1.543870e+03
1.940000e-06	5.479442e-06	2.353059e-08	3.916370e+01	1.537835e+03
1.950000e-06	5.414762e-06	2.331664e-08	3.870140e+01	1.531517e+03
1.960000e-06	5.348135e-06	2.324711e-08	3.822520e+01	1.524890e+03
1.970000e-06	5.279534e-06	2.316003e-08	3.773488e+01	1.517932e+03
1.980000e-06	5.208850e-06	2.297954e-08	3.722968e+01	1.510630e+03
1.990000e-06	5.136091e-06	2.297196e-08	3.670964e+01	1.502980e+03
2.000000e-06	5.061571e-06	2.280333e-08	3.617701e+01	1.494989e+03
2.010000e-06	4.985068e-06	2.269948e-08	3.563021e+01	1.486670e+03
2.020000e-06	4.906412e-06	2.252258e-08	3.506803e+01	1.478038e+03
2.030000e-06	4.825975e-06	2.238297e-08	3.449312e+01	1.469104e+03
2.040000e-06	4.743957e-06	2.231176e-08	3.390690e+01	1.459870e+03
2.050000e-06	4.660391e-06	2.213064e-08	3.330963e+01	1.450323e+03
2.060000e-06	4.575240e-06	2.199521e-08	3.270102e+01	1.440444e+03
2.070000e-06	4.488399e-06	2.180303e-08	3.208033e+01	1.430199e+03
2.080000e-06	4.399875e-06	2.165550e-08	3.144762e+01	1.419556e+03
2.090000e-06	4.309822e-06	2.148166e-08	3.080397e+01	1.408483e+03
2.100000e-06	4.218409e-06	2.132014e-08	3.015061e+01	1.396957e+03
2.110000e-06	4.125632e-06	2.115779e-08	2.948749e+01	1.384965e+03
2.120000e-06	4.031408e-06	2.094210e-08	2.881404e+01	1.372504e+03
2.130000e-06	3.935602e-06	2.074936e-08	2.812928e+01	1.359575e+03
2.140000e-06	3.838416e-06	2.053613e-08	2.743465e+01	1.346181e+03
2.150000e-06	3.739957e-06	2.034300e-08	2.673092e+01	1.332315e+03
2.160000e-06	3.640142e-06	2.012304e-08	2.601751e+01	1.317961e+03
2.170000e-06	3.538985e-06	1.990942e-08	2.529450e+01	1.303086e+03
2.180000e-06	3.436427e-06	1.966636e-08	2.456148e+01	1.287648e+03
2.190000e-06	3.332484e-06	1.941175e-08	2.381856e+01	1.271596e+03
2.200000e-06	3.227357e-06	1.916091e-08	2.306717e+01	1.254878e+03
2.210000e-06	3.121171e-06	1.890274e-08	2.230822e+01	1.237447e+03
2.220000e-06	3.013881e-06	1.863334e-08	2.154138e+01	1.219265e+03
2.230000e-06	2.905570e-06	1.833685e-08	2.076723e+01	1.200299e+03
2.240000e-06	2.796345e-06	1.804042e-08	1.998657e+01	1.180523e+03
2.250000e-06	2.686137e-06	1.773248e-08	1.919886e+01	1.159905e+03
2.260000e-06	2.574803e-06	1.741173e-08	1.840312e+01	1.138405e+03
2.270000e-06	2.462374e-06	1.706632e-08	1.759954e+01	1.115967e+03
2.280000e-06	2.348996e-06	1.670945e-08	1.678919e+01	1.092517e+03
2.290000e-06	2.234672e-06	1.633238e-08	1.597207e+01	1.067963e+03
2.300000e-06	2.119435e-06	1.593879e-08	1.514843e+01	1.042203e+03
2.310000e-06	2.003434e-06	1.552833e-08	1.431932e+01	1.015130e+03
2.320000e-06	1.886643e-06	1.509943e-08	1.348457e+01	9.866350e+02
2.330000e-06	1.769118e-06	1.464398e-08	1.264457e+01	9.566140e+02
2.340000e-06	1.650961e-06	1.415563e-08	1.180006e+01	9.249652e+02
2.350000e-06	1.532170e-06	1.364510e-08	1.095101e+01	8.915848e+02
2.360000e-06	1.412782e-06	1.311137e-08	1.009770e+01	8.563631e+02
2.370000e-06	1.292849e-06	1.255273e-08	9.240494e+00	8.191811e+02
2.380000e-06	1.172450e-06	1.195601e-08	8.379955e+00	7.799139e+02
2.390000e-06	1.051711e-06	1.132003e-08	7.516990e+00	7.384425e+02
2.400000e-06	9.306793e-07	1.064648e-08	6.651927e+00	6.946729e+02
2.410000e-06	8.093972e-07	9.942838e-09	5.785076e+00	6.485615e+02
2.420000e-06	6.879161e-07	9.208708e-09	4.916803e+00	6.001409e+02
2.430000e-06	5.662666e-07	8.441720e-09	4.047327e+00	5.495393e+02
2.440000e-06	4.443793e-07	7.644515e-09	3.176151e+00	4.969863e+02
2.450000e-06	3.223099e-07	6.818170e-09	2.303674e+00	4.428017e+02
2.460000e-06	2.001778e-07	5.967067e-09	1.430749e+00	3.873637e+02
2.470000e-06	7.794176e-08	5.101739e-09	5.570800e-01	3.310614e+02
2.480000e-06	-4.437322e-08	4.234711e-09	-3.171526e-01	2.742389e+02
2.490000e-06	-1.666818e-07	3.365252e-09	-1.191339e+00	2.171407e+02
2.500000e-06	-2.889088e-07	2.489082e-09	-2.064944e+00	1.598715e+02
2.510000e-06	-4.110126e-07	1.608197e-09	-2.937667e+00	1.023801e+02
2.520000e-06	-5.329450e-07	7.219904e-10	-3.809165e+00	4.447393e+01
2.530000e-06	-6.547557e-07	-1.716678e-10	-4.679793e+00	-1.413707e+01
2.540000e-06	-7.764142e-07	-1.080669e-09	-5.549334e+00	-7.377105e+01
2.550000e-06	-8.977890e-07	-2.010533e-09	-6.416846e+00	-1.346933e+02
2.560000e-06	-1.018887e-06	-2.960250e-09	-7.282382e+00	-1.970378e+02
2.570000e-06	-1.139686e-06	-3.932599e-09	-8.145775e+00	-2.607463e+02
2.580000e-06	-1.260096e-06	-4.922733e-09	-9.006397e+00	-3.255384e+02
2.590000e-06	-1.380050e-06	-5.923861e-09	-9.863754e+00	-3.909180e+02
2.600000e-06	-1.499414e-06	-6.927251e-09	-1.071690e+01	-4.562160e+02
2.610000e-06	-1.618120e-06	-7.916866e-09	-1.156533e+01	-5.206625e+02
2.620000e-06	-1.736171e-06	-8.878427e-09	-1.240909e+01	-5.834736e+02
2.630000e-06	-1.853491e-06	-9.801952e-09	-1.324762e+01	-6.439396e+02
2.640000e-06	-1.969956e-06	-1.068266e-08	-1.408004e+01	-7.014965e+02
2.650000e-06	-2.085496e-06	-1.151389e-08	-1.490585e+01	-7.557723e+02
2.660000e-06	-2.200120e-06	-1.229110e-08	-1.572511e+01	-8.066005e+02
2.670000e-06	-2.313727e-06	-1.301885e-08	-1.653711e+01	-8.540027e+02
2.680000e-06	-2.426236e-06	-1.369863e-08	-1.734125e+01	-8.981465e+02
2.690000e-06	-2.537763e-06	-1.433086e-08	-1.813838e+01	-9.392910e+02
2.700000e-06	-2.648324e-06	-1.492226e-08	-1.892860e+01	-9.777300e+02
2.710000e-06	-2.757891e-06	-1.548056e-08	-1.971172e+01	-1.013746e+03
2.720000e-06	-2.866586e-06	-1.600385e-08	-2.048860e+01	-1.047578e+03
2.730000e-06	-2.974390e-06	-1.649008e-08	-2.125912e+01	-1.079414e+03
2.740000e-06	-3.081273e-06	-1.694472e-08	-2.202305e+01	-1.109392e+03
2.750000e-06	-3.187163e-06	-1.737200e-08	-2.277989e+01	-1.137619e+03
2.760000e-06	-3.291918e-06	-1.777534e-08	-2.352862e+01	-1.164191e+03
2.770000e-06	-3.395409e-06	-1.815809e-08	-2.426830e+01	-1.189208e+03
2.780000e-06	-3.497556e-06	-1.852237e-08	-2.499839e+01	-1.212783e+03
2.790000e-06	-3.598404e-06	-1.886754e-08	-2.571919e+01	-1.235043e+03
2.800000e-06	-3.697989e-06	-1.919191e-08	-2.643097e+01	-1.256119e+03
2.810000e-06	-3.796356e-06	-1.949746e-08	-2.713403e+01	-1.276135e+03
2.820000e-06	-3.893518e-06	-1.978737e-08	-2.782848e+01	-1.295193e+03
2.830000e-06	-3.989429e-06	-2.006199e-08	-2.851400e+01	-1.313369e+03
2.840000e-06	-4.083885e-06	-2.032491e-08	-2.918911e+01	-1.330709e+03
2.850000e-06	-4.176747e-06	-2.057733e-08	-2.985283e+01	-1.347238e+03
2.860000e-06	-4.268126e-06	-2.081771e-08	-3.050596e+01	-1.362969e+03
2.870000e-06	-4.357991e-06	-2.104719e-08	-3.114825e+01	-1.377917e+03
2.880000e-06	-4.446354e-06	-2.126758e-08	-3.177982e+01	-1.392107e+03
2.890000e-06	-4.533045e-06	-2.147691e-08	-3.239943e+01	-1.405582e+03
2.900000e-06	-4.617925e-06	-2.167412e-08	-3.300610e+01	-1.418397e+03
2.910000e-06	-4.701179e-06	-2.186275e-08	-3.360115e+01	-1.430618e+03
2.920000e-06	-4.782895e-06	-2.204239e-08	-3.418521e+01	-1.442306e+03
2.930000e-06	-4.862977e-06	-2.221179e-08	-3.475759e+01	-1.453511e+03
2.940000e-06	-4.941047e-06	-2.237118e-08	-3.531558e+01	-1.464264e+03
