# Temperatura_=_90.61
# Concentracion g/m^3_=_28200.0
# C_Vs_to_Am_M_A/Vsm_=_65563218390.804596
# pendiente_HvsI_1/m_=_3716.3
# ordenada_HvsI_A/m_=_1297.0
# frecuencia_Hz_=_302093.3190639538

Tiempo_(s)	Campo_(V.s)	Magnetizacion_(V.s)	Campo_(kA/m)	Magnetizacion_(A/m)
0.000000e+00	-6.379458e-06	-2.665662e-08	-4.557787e+01	-1.742662e+03
1.000000e-08	-6.375902e-06	-2.665038e-08	-4.555246e+01	-1.742068e+03
2.000000e-08	-6.370352e-06	-2.664024e-08	-4.551281e+01	-1.741337e+03
3.000000e-08	-6.362892e-06	-2.662709e-08	-4.545952e+01	-1.740457e+03
4.000000e-08	-6.353233e-06	-2.660801e-08	-4.539051e+01	-1.739398e+03
5.000000e-08	-6.341123e-06	-2.658483e-08	-4.530399e+01	-1.738114e+03
6.000000e-08	-6.326638e-06	-2.655673e-08	-4.520050e+01	-1.736560e+03
7.000000e-08	-6.309908e-06	-2.651769e-08	-4.508097e+01	-1.734702e+03
8.000000e-08	-6.291153e-06	-2.650011e-08	-4.494698e+01	-1.732537e+03
9.000000e-08	-6.270271e-06	-2.653139e-08	-4.479779e+01	-1.730101e+03
1.000000e-07	-6.246918e-06	-2.645313e-08	-4.463094e+01	-1.727468e+03
1.100000e-07	-6.220874e-06	-2.637220e-08	-4.444487e+01	-1.724739e+03
1.200000e-07	-6.192523e-06	-2.635813e-08	-4.424232e+01	-1.722026e+03
1.300000e-07	-6.162427e-06	-2.629096e-08	-4.402730e+01	-1.719425e+03
1.400000e-07	-6.130854e-06	-2.618378e-08	-4.380173e+01	-1.716988e+03
1.500000e-07	-6.097383e-06	-2.628117e-08	-4.356260e+01	-1.714711e+03
1.600000e-07	-6.061801e-06	-2.618796e-08	-4.330838e+01	-1.712525e+03
1.700000e-07	-6.024398e-06	-2.601698e-08	-4.304115e+01	-1.710304e+03
1.800000e-07	-5.984916e-06	-2.611833e-08	-4.275908e+01	-1.707886e+03
1.900000e-07	-5.942964e-06	-2.594926e-08	-4.245935e+01	-1.705102e+03
2.000000e-07	-5.898855e-06	-2.591830e-08	-4.214422e+01	-1.701808e+03
2.100000e-07	-5.852756e-06	-2.592644e-08	-4.181487e+01	-1.697915e+03
2.200000e-07	-5.804281e-06	-2.569876e-08	-4.146854e+01	-1.693395e+03
2.300000e-07	-5.753274e-06	-2.564632e-08	-4.110412e+01	-1.688290e+03
2.400000e-07	-5.699785e-06	-2.559509e-08	-4.072196e+01	-1.682692e+03
2.500000e-07	-5.644170e-06	-2.550379e-08	-4.032462e+01	-1.676720e+03
2.600000e-07	-5.586390e-06	-2.544730e-08	-3.991182e+01	-1.670489e+03
2.700000e-07	-5.526445e-06	-2.533735e-08	-3.948355e+01	-1.664083e+03
2.800000e-07	-5.464624e-06	-2.522359e-08	-3.904187e+01	-1.657539e+03
2.900000e-07	-5.400822e-06	-2.506242e-08	-3.858603e+01	-1.650841e+03
3.000000e-07	-5.334883e-06	-2.499786e-08	-3.811493e+01	-1.643931e+03
3.100000e-07	-5.266899e-06	-2.493202e-08	-3.762922e+01	-1.636728e+03
3.200000e-07	-5.196975e-06	-2.480629e-08	-3.712966e+01	-1.629151e+03
3.300000e-07	-5.125267e-06	-2.467742e-08	-3.661734e+01	-1.621139e+03
3.400000e-07	-5.051650e-06	-2.450358e-08	-3.609138e+01	-1.612668e+03
3.500000e-07	-4.975888e-06	-2.439066e-08	-3.555010e+01	-1.603753e+03
3.600000e-07	-4.897968e-06	-2.424843e-08	-3.499341e+01	-1.594434e+03
3.700000e-07	-4.817970e-06	-2.411851e-08	-3.442187e+01	-1.584768e+03
3.800000e-07	-4.736295e-06	-2.399509e-08	-3.383834e+01	-1.574801e+03
3.900000e-07	-4.653131e-06	-2.380629e-08	-3.324417e+01	-1.564558e+03
4.000000e-07	-4.568533e-06	-2.362155e-08	-3.263977e+01	-1.554028e+03
4.100000e-07	-4.482520e-06	-2.346135e-08	-3.202525e+01	-1.543171e+03
4.200000e-07	-4.395110e-06	-2.331300e-08	-3.140075e+01	-1.531924e+03
4.300000e-07	-4.306262e-06	-2.312702e-08	-3.076598e+01	-1.520218e+03
4.400000e-07	-4.215732e-06	-2.293371e-08	-3.011919e+01	-1.507994e+03
4.500000e-07	-4.123556e-06	-2.274215e-08	-2.946064e+01	-1.495218e+03
4.600000e-07	-4.029876e-06	-2.252687e-08	-2.879135e+01	-1.481883e+03
4.700000e-07	-3.934869e-06	-2.232588e-08	-2.811257e+01	-1.468007e+03
4.800000e-07	-3.838569e-06	-2.212000e-08	-2.742456e+01	-1.453618e+03
4.900000e-07	-3.740776e-06	-2.189474e-08	-2.672588e+01	-1.438740e+03
5.000000e-07	-3.641443e-06	-2.164619e-08	-2.601620e+01	-1.423382e+03
5.100000e-07	-3.540739e-06	-2.139593e-08	-2.529672e+01	-1.407522e+03
5.200000e-07	-3.438833e-06	-2.114827e-08	-2.456866e+01	-1.391113e+03
5.300000e-07	-3.335792e-06	-2.088607e-08	-2.383248e+01	-1.374086e+03
5.400000e-07	-3.231556e-06	-2.061641e-08	-2.308777e+01	-1.356364e+03
5.500000e-07	-3.125974e-06	-2.033218e-08	-2.233344e+01	-1.337873e+03
5.600000e-07	-3.019014e-06	-2.003568e-08	-2.156927e+01	-1.318561e+03
5.700000e-07	-2.910893e-06	-1.972550e-08	-2.079680e+01	-1.298391e+03
5.800000e-07	-2.801800e-06	-1.941137e-08	-2.001739e+01	-1.277347e+03
5.900000e-07	-2.691792e-06	-1.908279e-08	-1.923144e+01	-1.255416e+03
6.000000e-07	-2.580843e-06	-1.872872e-08	-1.843876e+01	-1.232578e+03
6.100000e-07	-2.468956e-06	-1.835558e-08	-1.763939e+01	-1.208791e+03
6.200000e-07	-2.356100e-06	-1.797033e-08	-1.683309e+01	-1.183982e+03
6.300000e-07	-2.242084e-06	-1.757754e-08	-1.601851e+01	-1.158047e+03
6.400000e-07	-2.126983e-06	-1.716767e-08	-1.519618e+01	-1.130859e+03
6.500000e-07	-2.011020e-06	-1.673469e-08	-1.436768e+01	-1.102280e+03
6.600000e-07	-1.894363e-06	-1.626872e-08	-1.353423e+01	-1.072174e+03
6.700000e-07	-1.777080e-06	-1.577778e-08	-1.269630e+01	-1.040415e+03
6.800000e-07	-1.659225e-06	-1.526934e-08	-1.185429e+01	-1.006897e+03
6.900000e-07	-1.540863e-06	-1.473647e-08	-1.100865e+01	-9.715231e+02
7.000000e-07	-1.421917e-06	-1.417296e-08	-1.015885e+01	-9.341986e+02
7.100000e-07	-1.302490e-06	-1.357267e-08	-9.305605e+00	-8.948209e+02
7.200000e-07	-1.182684e-06	-1.293596e-08	-8.449654e+00	-8.532725e+02
7.300000e-07	-1.062507e-06	-1.225911e-08	-7.591056e+00	-8.094256e+02
7.400000e-07	-9.419840e-07	-1.155029e-08	-6.729980e+00	-7.631579e+02
7.500000e-07	-8.210656e-07	-1.081156e-08	-5.866082e+00	-7.143805e+02
7.600000e-07	-6.998577e-07	-1.003416e-08	-5.000115e+00	-6.630703e+02
7.700000e-07	-5.784356e-07	-9.213657e-09	-4.132618e+00	-6.093005e+02
7.800000e-07	-4.568038e-07	-8.356779e-09	-3.263623e+00	-5.532588e+02
7.900000e-07	-3.349929e-07	-7.473125e-09	-2.393348e+00	-4.952446e+02
8.000000e-07	-2.129880e-07	-6.566303e-09	-1.521687e+00	-4.356440e+02
8.100000e-07	-9.082556e-08	-5.642242e-09	-6.489009e-01	-3.748806e+02
8.200000e-07	3.139439e-08	-4.707748e-09	2.242964e-01	-3.133533e+02
8.300000e-07	1.536683e-07	-3.766818e-09	1.097879e+00	-2.513708e+02
8.400000e-07	2.759329e-07	-2.817804e-09	1.971396e+00	-1.890992e+02
8.500000e-07	3.980970e-07	-1.863812e-09	2.844194e+00	-1.265340e+02
8.600000e-07	5.201427e-07	-9.009767e-10	3.716146e+00	-6.350701e+01
8.700000e-07	6.420261e-07	7.414261e-11	4.586939e+00	2.715163e-01
8.800000e-07	7.636729e-07	1.062940e-09	5.456042e+00	6.514016e+01
8.900000e-07	8.850690e-07	2.068839e-09	6.323352e+00	1.313971e+02
9.000000e-07	1.006179e-06	3.096322e-09	7.188620e+00	1.992105e+02
9.100000e-07	1.126941e-06	4.146988e-09	8.051397e+00	2.685469e+02
9.200000e-07	1.247300e-06	5.217660e-09	8.911303e+00	3.391318e+02
9.300000e-07	1.367133e-06	6.302843e-09	9.767444e+00	4.104513e+02
9.400000e-07	1.486414e-06	7.391546e-09	1.061965e+01	4.817943e+02
9.500000e-07	1.605169e-06	8.468193e-09	1.146809e+01	5.523278e+02
9.600000e-07	1.723410e-06	9.514972e-09	1.231286e+01	6.211913e+02
9.700000e-07	1.841050e-06	1.052084e-08	1.315333e+01	6.875925e+02
9.800000e-07	1.957998e-06	1.147704e-08	1.398887e+01	7.508885e+02
9.900000e-07	2.074208e-06	1.237828e-08	1.481913e+01	8.106388e+02
1.000000e-06	2.189547e-06	1.322078e-08	1.564316e+01	8.666243e+02
1.010000e-06	2.303827e-06	1.400491e-08	1.645963e+01	9.188328e+02
1.020000e-06	2.417020e-06	1.473893e-08	1.726834e+01	9.674186e+02
1.030000e-06	2.529206e-06	1.542629e-08	1.806985e+01	1.012645e+03
1.040000e-06	2.640435e-06	1.607160e-08	1.886452e+01	1.054828e+03
1.050000e-06	2.750798e-06	1.667260e-08	1.965300e+01	1.094281e+03
1.060000e-06	2.860208e-06	1.723450e-08	2.043468e+01	1.131284e+03
1.070000e-06	2.968706e-06	1.775763e-08	2.120984e+01	1.166066e+03
1.080000e-06	3.076328e-06	1.824679e-08	2.197875e+01	1.198804e+03
1.090000e-06	3.182913e-06	1.870842e-08	2.274024e+01	1.229635e+03
1.100000e-06	3.288278e-06	1.914825e-08	2.349302e+01	1.258677e+03
1.110000e-06	3.392304e-06	1.956681e-08	2.423623e+01	1.286039e+03
1.120000e-06	3.495079e-06	1.996113e-08	2.497050e+01	1.311836e+03
1.130000e-06	3.596686e-06	2.033222e-08	2.569643e+01	1.336186e+03
1.140000e-06	3.697145e-06	2.068141e-08	2.641416e+01	1.359216e+03
1.150000e-06	3.796339e-06	2.101407e-08	2.712285e+01	1.381044e+03
1.160000e-06	3.894049e-06	2.132888e-08	2.782093e+01	1.401776e+03
1.170000e-06	3.990179e-06	2.162643e-08	2.850773e+01	1.421502e+03
1.180000e-06	4.084877e-06	2.190842e-08	2.918430e+01	1.440289e+03
1.190000e-06	4.178254e-06	2.217810e-08	2.985143e+01	1.458190e+03
1.200000e-06	4.270332e-06	2.243358e-08	3.050928e+01	1.475244e+03
1.210000e-06	4.361036e-06	2.267942e-08	3.115731e+01	1.491487e+03
1.220000e-06	4.450122e-06	2.291490e-08	3.179379e+01	1.506955e+03
1.230000e-06	4.537456e-06	2.313903e-08	3.241774e+01	1.521688e+03
1.240000e-06	4.623102e-06	2.335152e-08	3.302963e+01	1.535729e+03
1.250000e-06	4.707231e-06	2.355401e-08	3.363069e+01	1.549125e+03
1.260000e-06	4.789827e-06	2.374683e-08	3.422079e+01	1.561917e+03
1.270000e-06	4.870693e-06	2.392956e-08	3.479854e+01	1.574143e+03
1.280000e-06	4.949709e-06	2.410470e-08	3.536307e+01	1.585831e+03
1.290000e-06	5.026879e-06	2.427404e-08	3.591440e+01	1.597000e+03
1.300000e-06	5.102161e-06	2.443864e-08	3.645226e+01	1.607665e+03
1.310000e-06	5.175370e-06	2.459675e-08	3.697530e+01	1.617833e+03
1.320000e-06	5.246551e-06	2.474557e-08	3.748385e+01	1.627514e+03
1.330000e-06	5.315876e-06	2.488527e-08	3.797914e+01	1.636714e+03
1.340000e-06	5.383392e-06	2.501722e-08	3.846150e+01	1.645444e+03
1.350000e-06	5.448922e-06	2.514270e-08	3.892969e+01	1.653714e+03
1.360000e-06	5.512339e-06	2.526288e-08	3.938277e+01	1.661539e+03
1.370000e-06	5.573875e-06	2.537666e-08	3.982241e+01	1.668932e+03
1.380000e-06	5.633699e-06	2.548299e-08	4.024982e+01	1.675908e+03
1.390000e-06	5.691570e-06	2.558151e-08	4.066328e+01	1.682486e+03
1.400000e-06	5.747293e-06	2.567461e-08	4.106139e+01	1.688688e+03
1.410000e-06	5.800931e-06	2.576364e-08	4.144460e+01	1.694539e+03
1.420000e-06	5.852299e-06	2.584765e-08	4.181160e+01	1.700068e+03
1.430000e-06	5.901180e-06	2.592808e-08	4.216083e+01	1.705304e+03
1.440000e-06	5.947817e-06	2.600621e-08	4.249402e+01	1.710273e+03
1.450000e-06	5.992493e-06	2.608058e-08	4.281321e+01	1.714994e+03
1.460000e-06	6.035113e-06	2.614963e-08	4.311771e+01	1.719477e+03
1.470000e-06	6.075474e-06	2.621258e-08	4.340607e+01	1.723717e+03
1.480000e-06	6.113700e-06	2.627197e-08	4.367917e+01	1.727703e+03
1.490000e-06	6.149974e-06	2.632781e-08	4.393833e+01	1.731413e+03
1.500000e-06	6.184028e-06	2.637784e-08	4.418163e+01	1.734829e+03
1.510000e-06	6.215782e-06	2.642344e-08	4.440849e+01	1.737934e+03
1.520000e-06	6.245429e-06	2.646554e-08	4.462030e+01	1.740724e+03
1.530000e-06	6.273047e-06	2.650427e-08	4.481762e+01	1.743204e+03
1.540000e-06	6.298357e-06	2.653783e-08	4.499845e+01	1.745394e+03
1.550000e-06	6.321212e-06	2.656679e-08	4.516173e+01	1.747314e+03
1.560000e-06	6.341918e-06	2.659188e-08	4.530967e+01	1.748988e+03
1.570000e-06	6.360578e-06	2.661422e-08	4.544299e+01	1.750432e+03
1.580000e-06	6.376902e-06	2.663202e-08	4.555961e+01	1.751653e+03
1.590000e-06	6.390741e-06	2.664560e-08	4.565848e+01	1.752649e+03
1.600000e-06	6.402116e-06	2.665626e-08	4.573975e+01	1.753411e+03
1.610000e-06	6.410908e-06	2.666422e-08	4.580257e+01	1.753930e+03
1.620000e-06	6.417291e-06	2.667125e-08	4.584817e+01	1.754205e+03
1.630000e-06	6.421557e-06	2.667606e-08	4.587865e+01	1.754242e+03
1.640000e-06	6.423510e-06	2.667824e-08	4.589260e+01	1.754065e+03
1.650000e-06	6.423100e-06	2.667771e-08	4.588967e+01	1.753699e+03
1.660000e-06	6.420612e-06	2.666410e-08	4.587190e+01	1.753174e+03
1.670000e-06	6.416181e-06	2.665233e-08	4.584024e+01	1.752509e+03
1.680000e-06	6.409490e-06	2.663721e-08	4.579243e+01	1.751702e+03
1.690000e-06	6.400589e-06	2.662067e-08	4.572884e+01	1.750734e+03
1.700000e-06	6.389761e-06	2.660737e-08	4.565148e+01	1.749566e+03
1.710000e-06	6.376718e-06	2.659271e-08	4.555830e+01	1.748149e+03
1.720000e-06	6.361438e-06	2.658880e-08	4.544913e+01	1.746443e+03
1.730000e-06	6.344154e-06	2.653519e-08	4.532564e+01	1.744426e+03
1.740000e-06	6.324708e-06	2.642470e-08	4.518672e+01	1.742116e+03
1.750000e-06	6.302294e-06	2.643069e-08	4.502658e+01	1.739566e+03
1.760000e-06	6.276744e-06	2.641714e-08	4.484404e+01	1.736868e+03
1.770000e-06	6.249014e-06	2.635133e-08	4.464592e+01	1.734131e+03
1.780000e-06	6.219475e-06	2.642225e-08	4.443488e+01	1.731461e+03
1.790000e-06	6.188336e-06	2.633328e-08	4.421241e+01	1.728935e+03
1.800000e-06	6.155797e-06	2.616674e-08	4.397993e+01	1.726580e+03
1.810000e-06	6.121142e-06	2.627805e-08	4.373234e+01	1.724358e+03
1.820000e-06	6.084456e-06	2.616565e-08	4.347024e+01	1.722170e+03
1.830000e-06	6.045683e-06	2.622802e-08	4.319322e+01	1.719868e+03
1.840000e-06	6.004417e-06	2.636161e-08	4.289840e+01	1.717284e+03
1.850000e-06	5.961156e-06	2.608718e-08	4.258932e+01	1.714257e+03
1.860000e-06	5.915860e-06	2.616765e-08	4.226571e+01	1.710668e+03
1.870000e-06	5.868405e-06	2.612424e-08	4.192667e+01	1.706457e+03
1.880000e-06	5.818897e-06	2.598102e-08	4.157296e+01	1.701633e+03
1.890000e-06	5.766816e-06	2.601509e-08	4.120087e+01	1.696264e+03
1.900000e-06	5.712214e-06	2.577086e-08	4.081077e+01	1.690461e+03
1.910000e-06	5.655486e-06	2.572913e-08	4.040547e+01	1.684344e+03
1.920000e-06	5.596707e-06	2.568528e-08	3.998553e+01	1.678014e+03
1.930000e-06	5.536086e-06	2.557783e-08	3.955243e+01	1.671534e+03
1.940000e-06	5.473318e-06	2.555054e-08	3.910398e+01	1.664915e+03
1.950000e-06	5.408424e-06	2.530785e-08	3.864035e+01	1.658117e+03
1.960000e-06	5.341624e-06	2.526064e-08	3.816309e+01	1.651069e+03
1.970000e-06	5.272808e-06	2.510049e-08	3.767144e+01	1.643684e+03
1.980000e-06	5.201933e-06	2.497859e-08	3.716508e+01	1.635892e+03
1.990000e-06	5.129040e-06	2.494110e-08	3.664430e+01	1.627648e+03
2.000000e-06	5.054369e-06	2.476544e-08	3.611081e+01	1.618948e+03
2.010000e-06	4.977685e-06	2.466491e-08	3.556294e+01	1.609822e+03
2.020000e-06	4.898872e-06	2.442452e-08	3.499986e+01	1.600319e+03
2.030000e-06	4.818277e-06	2.431055e-08	3.442406e+01	1.590495e+03
2.040000e-06	4.736082e-06	2.419678e-08	3.383682e+01	1.580385e+03
2.050000e-06	4.652385e-06	2.402201e-08	3.323884e+01	1.569999e+03
2.060000e-06	4.566990e-06	2.387133e-08	3.262874e+01	1.559309e+03
2.070000e-06	4.479800e-06	2.366741e-08	3.200582e+01	1.548263e+03
2.080000e-06	4.391032e-06	2.351886e-08	3.137161e+01	1.536791e+03
2.090000e-06	4.300880e-06	2.331188e-08	3.072753e+01	1.524829e+03
2.100000e-06	4.209391e-06	2.315221e-08	3.007388e+01	1.512328e+03
2.110000e-06	4.116499e-06	2.295438e-08	2.941022e+01	1.499269e+03
2.120000e-06	4.022107e-06	2.272855e-08	2.873584e+01	1.485657e+03
2.130000e-06	3.926160e-06	2.250720e-08	2.805035e+01	1.471518e+03
2.140000e-06	3.828781e-06	2.227695e-08	2.735463e+01	1.456879e+03
2.150000e-06	3.730121e-06	2.206868e-08	2.664975e+01	1.441758e+03
2.160000e-06	3.630189e-06	2.182493e-08	2.593579e+01	1.426151e+03
2.170000e-06	3.528856e-06	2.159463e-08	2.521182e+01	1.410021e+03
2.180000e-06	3.426102e-06	2.132805e-08	2.447770e+01	1.393309e+03
2.190000e-06	3.322042e-06	2.106178e-08	2.373424e+01	1.375941e+03
2.200000e-06	3.216823e-06	2.078422e-08	2.298251e+01	1.357839e+03
2.210000e-06	3.110510e-06	2.050543e-08	2.222296e+01	1.338940e+03
2.220000e-06	3.003112e-06	2.020327e-08	2.145566e+01	1.319199e+03
2.230000e-06	2.894709e-06	1.987754e-08	2.068117e+01	1.298590e+03
2.240000e-06	2.785305e-06	1.955278e-08	1.989954e+01	1.277101e+03
2.250000e-06	2.674781e-06	1.921884e-08	1.910990e+01	1.254717e+03
2.260000e-06	2.563174e-06	1.887467e-08	1.831253e+01	1.231409e+03
2.270000e-06	2.450569e-06	1.850301e-08	1.750802e+01	1.207118e+03
2.280000e-06	2.336981e-06	1.811756e-08	1.669650e+01	1.181758e+03
2.290000e-06	2.222569e-06	1.770527e-08	1.587909e+01	1.155210e+03
2.300000e-06	2.107390e-06	1.727862e-08	1.505620e+01	1.127342e+03
2.310000e-06	1.991389e-06	1.683296e-08	1.422743e+01	1.098012e+03
2.320000e-06	1.874572e-06	1.636913e-08	1.339283e+01	1.067091e+03
2.330000e-06	1.757039e-06	1.587340e-08	1.255312e+01	1.034462e+03
2.340000e-06	1.638806e-06	1.533814e-08	1.170840e+01	1.000024e+03
2.350000e-06	1.519865e-06	1.477379e-08	1.085864e+01	9.636840e+02
2.360000e-06	1.400334e-06	1.418994e-08	1.000465e+01	9.253435e+02
2.370000e-06	1.280327e-06	1.358473e-08	9.147260e+00	8.848928e+02
2.380000e-06	1.159967e-06	1.294024e-08	8.287355e+00	8.422081e+02
2.390000e-06	1.039252e-06	1.225306e-08	7.424906e+00	7.971616e+02
2.400000e-06	9.181754e-07	1.152150e-08	6.559881e+00	7.496437e+02
2.410000e-06	7.968041e-07	1.075255e-08	5.692746e+00	6.995942e+02
2.420000e-06	6.751648e-07	9.946233e-09	4.823698e+00	6.470350e+02
2.430000e-06	5.533233e-07	9.106261e-09	3.953204e+00	5.920953e+02
2.440000e-06	4.313338e-07	8.238723e-09	3.081653e+00	5.350204e+02
2.450000e-06	3.092461e-07	7.341463e-09	2.209401e+00	4.761579e+02
2.460000e-06	1.870522e-07	6.418588e-09	1.336390e+00	4.159197e+02
2.470000e-06	6.477630e-08	5.481571e-09	4.627926e-01	3.547255e+02
2.480000e-06	-5.754750e-08	4.542459e-09	-4.111466e-01	2.929368e+02
2.490000e-06	-1.798726e-07	3.597732e-09	-1.285095e+00	2.307962e+02
2.500000e-06	-3.021097e-07	2.642523e-09	-2.158415e+00	1.683861e+02
2.510000e-06	-4.242583e-07	1.679184e-09	-3.031102e+00	1.056168e+02
2.520000e-06	-5.463439e-07	7.055312e-10	-3.903340e+00	4.225209e+01
2.530000e-06	-6.682649e-07	-2.805246e-10	-4.774402e+00	-2.203268e+01
2.540000e-06	-7.899353e-07	-1.283958e-09	-5.643673e+00	-8.756751e+01
2.550000e-06	-9.113581e-07	-2.306257e-09	-6.511175e+00	-1.545961e+02
2.560000e-06	-1.032426e-06	-3.349655e-09	-7.376142e+00	-2.231929e+02
2.570000e-06	-1.153168e-06	-4.415899e-09	-8.238782e+00	-2.932065e+02
2.580000e-06	-1.273554e-06	-5.499036e-09	-9.098876e+00	-3.642399e+02
2.590000e-06	-1.393466e-06	-6.591919e-09	-9.955580e+00	-4.356730e+02
2.600000e-06	-1.512832e-06	-7.684840e-09	-1.080839e+01	-5.067225e+02
2.610000e-06	-1.631473e-06	-8.761962e-09	-1.165602e+01	-5.765296e+02
2.620000e-06	-1.749360e-06	-9.805410e-09	-1.249826e+01	-6.442564e+02
2.630000e-06	-1.866560e-06	-1.080233e-08	-1.333559e+01	-7.091768e+02
2.640000e-06	-1.982939e-06	-1.174515e-08	-1.416706e+01	-7.707444e+02
2.650000e-06	-2.098387e-06	-1.263107e-08	-1.499187e+01	-8.286292e+02
2.660000e-06	-2.212991e-06	-1.345975e-08	-1.581066e+01	-8.827193e+02
2.670000e-06	-2.326607e-06	-1.423246e-08	-1.662238e+01	-9.330921e+02
2.680000e-06	-2.439084e-06	-1.495183e-08	-1.742597e+01	-9.799640e+02
2.690000e-06	-2.550562e-06	-1.562021e-08	-1.822242e+01	-1.023631e+03
2.700000e-06	-2.660984e-06	-1.624716e-08	-1.901133e+01	-1.064415e+03
2.710000e-06	-2.770398e-06	-1.683965e-08	-1.979304e+01	-1.102614e+03
2.720000e-06	-2.879029e-06	-1.739717e-08	-2.056915e+01	-1.138484e+03
2.730000e-06	-2.986834e-06	-1.791861e-08	-2.133936e+01	-1.172228e+03
2.740000e-06	-3.093683e-06	-1.840485e-08	-2.210274e+01	-1.204000e+03
2.750000e-06	-3.199422e-06	-1.885927e-08	-2.285818e+01	-1.233927e+03
2.760000e-06	-3.304070e-06	-1.928528e-08	-2.360585e+01	-1.262118e+03
2.770000e-06	-3.407475e-06	-1.968896e-08	-2.434462e+01	-1.288686e+03
2.780000e-06	-3.509502e-06	-2.007429e-08	-2.507355e+01	-1.313747e+03
2.790000e-06	-3.610262e-06	-2.044085e-08	-2.579342e+01	-1.337425e+03
2.800000e-06	-3.709744e-06	-2.078642e-08	-2.650417e+01	-1.359842e+03
2.810000e-06	-3.807975e-06	-2.111371e-08	-2.720598e+01	-1.381113e+03
2.820000e-06	-3.905022e-06	-2.142522e-08	-2.789933e+01	-1.401336e+03
2.830000e-06	-4.000806e-06	-2.172103e-08	-2.858366e+01	-1.420588e+03
2.840000e-06	-4.095132e-06	-2.200227e-08	-2.925757e+01	-1.438930e+03
2.850000e-06	-4.187950e-06	-2.226815e-08	-2.992070e+01	-1.456406e+03
2.860000e-06	-4.279226e-06	-2.252117e-08	-3.057282e+01	-1.473053e+03
2.870000e-06	-4.368909e-06	-2.276344e-08	-3.121355e+01	-1.488907e+03
2.880000e-06	-4.457036e-06	-2.299698e-08	-3.184318e+01	-1.504005e+03
2.890000e-06	-4.543504e-06	-2.322164e-08	-3.246094e+01	-1.518390e+03
2.900000e-06	-4.628255e-06	-2.343545e-08	-3.306645e+01	-1.532106e+03
2.910000e-06	-4.711417e-06	-2.363983e-08	-3.366059e+01	-1.545198e+03
2.920000e-06	-4.792985e-06	-2.383390e-08	-3.424336e+01	-1.557706e+03
2.930000e-06	-4.872824e-06	-2.401815e-08	-3.481377e+01	-1.569663e+03
2.940000e-06	-4.950715e-06	-2.419151e-08	-3.537026e+01	-1.581093e+03
