# Temperatura_=_48.26
# Concentracion g/m^3_=_28200.0
# C_Vs_to_Am_M_A/Vsm_=_65563218390.804596
# pendiente_HvsI_1/m_=_3716.3
# ordenada_HvsI_A/m_=_1297.0
# frecuencia_Hz_=_302098.5230296287

Tiempo_(s)	Campo_(V.s)	Magnetizacion_(V.s)	Campo_(kA/m)	Magnetizacion_(A/m)
0.000000e+00	-6.391932e-06	-2.008101e-08	-4.557406e+01	-1.313977e+03
1.000000e-08	-6.388312e-06	-2.007525e-08	-4.554824e+01	-1.313605e+03
2.000000e-08	-6.382616e-06	-2.006737e-08	-4.550763e+01	-1.313095e+03
3.000000e-08	-6.374964e-06	-2.005764e-08	-4.545307e+01	-1.312443e+03
4.000000e-08	-6.365141e-06	-2.004389e-08	-4.538303e+01	-1.311641e+03
5.000000e-08	-6.352939e-06	-2.003028e-08	-4.529604e+01	-1.310683e+03
6.000000e-08	-6.338401e-06	-2.000931e-08	-4.519238e+01	-1.309569e+03
7.000000e-08	-6.321577e-06	-1.998240e-08	-4.507243e+01	-1.308301e+03
8.000000e-08	-6.302670e-06	-1.998908e-08	-4.493762e+01	-1.306890e+03
9.000000e-08	-6.281560e-06	-2.001631e-08	-4.478711e+01	-1.305351e+03
1.000000e-07	-6.258003e-06	-1.994836e-08	-4.461915e+01	-1.303706e+03
1.100000e-07	-6.231926e-06	-1.989098e-08	-4.443322e+01	-1.301972e+03
1.200000e-07	-6.203538e-06	-1.988255e-08	-4.423082e+01	-1.300164e+03
1.300000e-07	-6.173283e-06	-1.980238e-08	-4.401510e+01	-1.298285e+03
1.400000e-07	-6.141529e-06	-1.971255e-08	-4.378870e+01	-1.296323e+03
1.500000e-07	-6.107970e-06	-1.984424e-08	-4.354943e+01	-1.294254e+03
1.600000e-07	-6.072304e-06	-1.974155e-08	-4.329513e+01	-1.292043e+03
1.700000e-07	-6.034794e-06	-1.963354e-08	-4.302769e+01	-1.289647e+03
1.800000e-07	-5.995185e-06	-1.973642e-08	-4.274528e+01	-1.287028e+03
1.900000e-07	-5.953145e-06	-1.956625e-08	-4.244554e+01	-1.284155e+03
2.000000e-07	-5.908960e-06	-1.956533e-08	-4.213050e+01	-1.281013e+03
2.100000e-07	-5.862673e-06	-1.955254e-08	-4.180047e+01	-1.277607e+03
2.200000e-07	-5.814048e-06	-1.937933e-08	-4.145378e+01	-1.273959e+03
2.300000e-07	-5.762934e-06	-1.934325e-08	-4.108934e+01	-1.270104e+03
2.400000e-07	-5.709309e-06	-1.929188e-08	-4.070700e+01	-1.266079e+03
2.500000e-07	-5.653528e-06	-1.924849e-08	-4.030928e+01	-1.261919e+03
2.600000e-07	-5.595602e-06	-1.921144e-08	-3.989627e+01	-1.257640e+03
2.700000e-07	-5.535531e-06	-1.913132e-08	-3.946797e+01	-1.253241e+03
2.800000e-07	-5.473595e-06	-1.904740e-08	-3.902637e+01	-1.248702e+03
2.900000e-07	-5.409684e-06	-1.892097e-08	-3.857069e+01	-1.243982e+03
3.000000e-07	-5.343636e-06	-1.889107e-08	-3.809978e+01	-1.239036e+03
3.100000e-07	-5.275504e-06	-1.884452e-08	-3.761400e+01	-1.233818e+03
3.200000e-07	-5.205434e-06	-1.875909e-08	-3.711440e+01	-1.228291e+03
3.300000e-07	-5.133523e-06	-1.864934e-08	-3.660168e+01	-1.222440e+03
3.400000e-07	-5.059588e-06	-1.851661e-08	-3.607453e+01	-1.216267e+03
3.500000e-07	-4.983599e-06	-1.844311e-08	-3.553274e+01	-1.209791e+03
3.600000e-07	-4.905553e-06	-1.833032e-08	-3.497627e+01	-1.203040e+03
3.700000e-07	-4.825493e-06	-1.824547e-08	-3.440545e+01	-1.196046e+03
3.800000e-07	-4.743715e-06	-1.815327e-08	-3.382238e+01	-1.188828e+03
3.900000e-07	-4.660394e-06	-1.801509e-08	-3.322830e+01	-1.181390e+03
4.000000e-07	-4.575614e-06	-1.787404e-08	-3.262383e+01	-1.173720e+03
4.100000e-07	-4.489437e-06	-1.775310e-08	-3.200939e+01	-1.165785e+03
4.200000e-07	-4.401819e-06	-1.764643e-08	-3.138468e+01	-1.157544e+03
4.300000e-07	-4.312579e-06	-1.750955e-08	-3.074841e+01	-1.148954e+03
4.400000e-07	-4.221754e-06	-1.737126e-08	-3.010083e+01	-1.139976e+03
4.500000e-07	-4.129360e-06	-1.722786e-08	-2.944207e+01	-1.130586e+03
4.600000e-07	-4.035493e-06	-1.707072e-08	-2.877280e+01	-1.120772e+03
4.700000e-07	-3.940344e-06	-1.691911e-08	-2.809440e+01	-1.110538e+03
4.800000e-07	-3.843787e-06	-1.676547e-08	-2.740595e+01	-1.099892e+03
4.900000e-07	-3.745736e-06	-1.659390e-08	-2.670685e+01	-1.088842e+03
5.000000e-07	-3.646260e-06	-1.640289e-08	-2.599759e+01	-1.077389e+03
5.100000e-07	-3.545424e-06	-1.621492e-08	-2.527864e+01	-1.065518e+03
5.200000e-07	-3.443321e-06	-1.602927e-08	-2.455065e+01	-1.053200e+03
5.300000e-07	-3.340026e-06	-1.583387e-08	-2.381417e+01	-1.040393e+03
5.400000e-07	-3.235472e-06	-1.563154e-08	-2.306870e+01	-1.027048e+03
5.500000e-07	-3.129611e-06	-1.541940e-08	-2.231392e+01	-1.013113e+03
5.600000e-07	-3.022531e-06	-1.519402e-08	-2.155045e+01	-9.985417e+02
5.700000e-07	-2.914287e-06	-1.495901e-08	-2.077867e+01	-9.832960e+02
5.800000e-07	-2.804938e-06	-1.471802e-08	-1.999902e+01	-9.673448e+02
5.900000e-07	-2.694686e-06	-1.446388e-08	-1.921293e+01	-9.506617e+02
6.000000e-07	-2.583601e-06	-1.419137e-08	-1.842091e+01	-9.332195e+02
6.100000e-07	-2.471492e-06	-1.390699e-08	-1.762158e+01	-9.149839e+02
6.200000e-07	-2.358247e-06	-1.361450e-08	-1.681415e+01	-8.959092e+02
6.300000e-07	-2.243914e-06	-1.331458e-08	-1.599896e+01	-8.759357e+02
6.400000e-07	-2.128637e-06	-1.299907e-08	-1.517704e+01	-8.549911e+02
6.500000e-07	-2.012546e-06	-1.266285e-08	-1.434932e+01	-8.329929e+02
6.600000e-07	-1.895640e-06	-1.230134e-08	-1.351579e+01	-8.098535e+02
6.700000e-07	-1.778070e-06	-1.192027e-08	-1.267752e+01	-7.854834e+02
6.800000e-07	-1.659983e-06	-1.152736e-08	-1.183557e+01	-7.597943e+02
6.900000e-07	-1.541369e-06	-1.111663e-08	-1.098986e+01	-7.326989e+02
7.000000e-07	-1.422285e-06	-1.068548e-08	-1.014080e+01	-7.041110e+02
7.100000e-07	-1.302780e-06	-1.022522e-08	-9.288738e+00	-6.739453e+02
7.200000e-07	-1.182852e-06	-9.735500e-09	-8.433655e+00	-6.421199e+02
7.300000e-07	-1.062447e-06	-9.216306e-09	-7.575180e+00	-6.085639e+02
7.400000e-07	-9.416207e-07	-8.673315e-09	-6.713694e+00	-5.732284e+02
7.500000e-07	-8.204623e-07	-8.111390e-09	-5.849842e+00	-5.361030e+02
7.600000e-07	-6.989127e-07	-7.523360e-09	-4.983202e+00	-4.972314e+02
7.700000e-07	-5.770334e-07	-6.904768e-09	-4.114210e+00	-4.567252e+02
7.800000e-07	-4.549840e-07	-6.260264e-09	-3.244006e+00	-4.147689e+02
7.900000e-07	-3.327712e-07	-5.599659e-09	-2.372637e+00	-3.716136e+02
8.000000e-07	-2.104754e-07	-4.926439e-09	-1.500676e+00	-3.275580e+02
8.100000e-07	-8.806461e-08	-4.249090e-09	-6.278949e-01	-2.829165e+02
8.200000e-07	3.451366e-08	-3.571112e-09	2.460801e-01	-2.379793e+02
8.300000e-07	1.571199e-07	-2.893023e-09	1.120255e+00	-1.929719e+02
8.400000e-07	2.796887e-07	-2.212243e-09	1.994162e+00	-1.480207e+02
8.500000e-07	4.021608e-07	-1.530207e-09	2.867380e+00	-1.031324e+02
8.600000e-07	5.244868e-07	-8.447371e-10	3.739556e+00	-5.819405e+01
8.700000e-07	6.466774e-07	-1.532123e-10	4.610767e+00	-1.299466e+01
8.800000e-07	7.687008e-07	5.452467e-10	5.480786e+00	3.273379e+01
8.900000e-07	8.904940e-07	1.253499e-09	6.349164e+00	7.926135e+01
9.000000e-07	1.011894e-06	1.973324e-09	7.214739e+00	1.268010e+02
9.100000e-07	1.132787e-06	2.710161e-09	8.076695e+00	1.754553e+02
9.200000e-07	1.253197e-06	3.462050e-09	8.935215e+00	2.251794e+02
9.300000e-07	1.373056e-06	4.230439e-09	9.789797e+00	2.757652e+02
9.400000e-07	1.492417e-06	5.012637e-09	1.064084e+01	3.268524e+02
9.500000e-07	1.611377e-06	5.797222e-09	1.148901e+01	3.779613e+02
9.600000e-07	1.729860e-06	6.568696e-09	1.233379e+01	4.285435e+02
9.700000e-07	1.847742e-06	7.318922e-09	1.317428e+01	4.780411e+02
9.800000e-07	1.964907e-06	8.044721e-09	1.400966e+01	5.259436e+02
9.900000e-07	2.081322e-06	8.738111e-09	1.483969e+01	5.718344e+02
1.000000e-06	2.196895e-06	9.397277e-09	1.566372e+01	6.154206e+02
1.010000e-06	2.311505e-06	1.001690e-08	1.648088e+01	6.565424e+02
1.020000e-06	2.425016e-06	1.060101e-08	1.729020e+01	6.951644e+02
1.030000e-06	2.537403e-06	1.115067e-08	1.809152e+01	7.313523e+02
1.040000e-06	2.648822e-06	1.166828e-08	1.888593e+01	7.652413e+02
1.050000e-06	2.759439e-06	1.215254e-08	1.967462e+01	7.970038e+02
1.060000e-06	2.869174e-06	1.260497e-08	2.045702e+01	8.268202e+02
1.070000e-06	2.977922e-06	1.302987e-08	2.123239e+01	8.548595e+02
1.080000e-06	3.085729e-06	1.342932e-08	2.200105e+01	8.812684e+02
1.090000e-06	3.192499e-06	1.380804e-08	2.276231e+01	9.061693e+02
1.100000e-06	3.297982e-06	1.416636e-08	2.351440e+01	9.296645e+02
1.110000e-06	3.402059e-06	1.450674e-08	2.425646e+01	9.518431e+02
1.120000e-06	3.504965e-06	1.482604e-08	2.499017e+01	9.727880e+02
1.130000e-06	3.606778e-06	1.512535e-08	2.571609e+01	9.925801e+02
1.140000e-06	3.707407e-06	1.540783e-08	2.643357e+01	1.011300e+03
1.150000e-06	3.806862e-06	1.567733e-08	2.714268e+01	1.029026e+03
1.160000e-06	3.904872e-06	1.593340e-08	2.784148e+01	1.045831e+03
1.170000e-06	4.001185e-06	1.617535e-08	2.852818e+01	1.061783e+03
1.180000e-06	4.096022e-06	1.640381e-08	2.920437e+01	1.076937e+03
1.190000e-06	4.189555e-06	1.662176e-08	2.987125e+01	1.091341e+03
1.200000e-06	4.281767e-06	1.682735e-08	3.052872e+01	1.105035e+03
1.210000e-06	4.372616e-06	1.702282e-08	3.117646e+01	1.118056e+03
1.220000e-06	4.461783e-06	1.721008e-08	3.181222e+01	1.130436e+03
1.230000e-06	4.549231e-06	1.738902e-08	3.243572e+01	1.142211e+03
1.240000e-06	4.635094e-06	1.755872e-08	3.304791e+01	1.153415e+03
1.250000e-06	4.719417e-06	1.772167e-08	3.364914e+01	1.164082e+03
1.260000e-06	4.802149e-06	1.787909e-08	3.423900e+01	1.174240e+03
1.270000e-06	4.883045e-06	1.802778e-08	3.481579e+01	1.183915e+03
1.280000e-06	4.962152e-06	1.816813e-08	3.537982e+01	1.193122e+03
1.290000e-06	5.039464e-06	1.830128e-08	3.593105e+01	1.201872e+03
1.300000e-06	5.114806e-06	1.842876e-08	3.646823e+01	1.210171e+03
1.310000e-06	5.188009e-06	1.854926e-08	3.699017e+01	1.218021e+03
1.320000e-06	5.259240e-06	1.866373e-08	3.749804e+01	1.225431e+03
1.330000e-06	5.328670e-06	1.877131e-08	3.799307e+01	1.232414e+03
1.340000e-06	5.396317e-06	1.886946e-08	3.847538e+01	1.238992e+03
1.350000e-06	5.461959e-06	1.896065e-08	3.894341e+01	1.245194e+03
1.360000e-06	5.525498e-06	1.904997e-08	3.939644e+01	1.251057e+03
1.370000e-06	5.587169e-06	1.913691e-08	3.983615e+01	1.256620e+03
1.380000e-06	5.647036e-06	1.921870e-08	4.026299e+01	1.261919e+03
1.390000e-06	5.704889e-06	1.929523e-08	4.067548e+01	1.266983e+03
1.400000e-06	5.760606e-06	1.936865e-08	4.107274e+01	1.271834e+03
1.410000e-06	5.814294e-06	1.943992e-08	4.145553e+01	1.276479e+03
1.420000e-06	5.865735e-06	1.950711e-08	4.182230e+01	1.280918e+03
1.430000e-06	5.914675e-06	1.956919e-08	4.217124e+01	1.285143e+03
1.440000e-06	5.961336e-06	1.962759e-08	4.250393e+01	1.289141e+03
1.450000e-06	6.006063e-06	1.968354e-08	4.282283e+01	1.292898e+03
1.460000e-06	6.048719e-06	1.973876e-08	4.312697e+01	1.296403e+03
1.470000e-06	6.089095e-06	1.978967e-08	4.341485e+01	1.299650e+03
1.480000e-06	6.127291e-06	1.983581e-08	4.368718e+01	1.302639e+03
1.490000e-06	6.163534e-06	1.987664e-08	4.394559e+01	1.305374e+03
1.500000e-06	6.197635e-06	1.991278e-08	4.418873e+01	1.307865e+03
1.510000e-06	6.229410e-06	1.994656e-08	4.441528e+01	1.310123e+03
1.520000e-06	6.259077e-06	1.997650e-08	4.462681e+01	1.312162e+03
1.530000e-06	6.286715e-06	2.000204e-08	4.482386e+01	1.313993e+03
1.540000e-06	6.311987e-06	2.002395e-08	4.500405e+01	1.315627e+03
1.550000e-06	6.334784e-06	2.004548e-08	4.516659e+01	1.317072e+03
1.560000e-06	6.355423e-06	2.006533e-08	4.531375e+01	1.318334e+03
1.570000e-06	6.373958e-06	2.008287e-08	4.544590e+01	1.319418e+03
1.580000e-06	6.390136e-06	2.009800e-08	4.556125e+01	1.320327e+03
1.590000e-06	6.403873e-06	2.010971e-08	4.565919e+01	1.321066e+03
1.600000e-06	6.415117e-06	2.011679e-08	4.573936e+01	1.321639e+03
1.610000e-06	6.423893e-06	2.012091e-08	4.580194e+01	1.322050e+03
1.620000e-06	6.430323e-06	2.012482e-08	4.584778e+01	1.322305e+03
1.630000e-06	6.434611e-06	2.013005e-08	4.587835e+01	1.322413e+03
1.640000e-06	6.436609e-06	2.013408e-08	4.589260e+01	1.322378e+03
1.650000e-06	6.436180e-06	2.013420e-08	4.588954e+01	1.322207e+03
1.660000e-06	6.433626e-06	2.012513e-08	4.587133e+01	1.321900e+03
1.670000e-06	6.429029e-06	2.011929e-08	4.583856e+01	1.321458e+03
1.680000e-06	6.422283e-06	2.010962e-08	4.579046e+01	1.320875e+03
1.690000e-06	6.413406e-06	2.009673e-08	4.572716e+01	1.320147e+03
1.700000e-06	6.402497e-06	2.008563e-08	4.564938e+01	1.319266e+03
1.710000e-06	6.389258e-06	2.007614e-08	4.555499e+01	1.318228e+03
1.720000e-06	6.373741e-06	2.007534e-08	4.544436e+01	1.317034e+03
1.730000e-06	6.356319e-06	2.001094e-08	4.532014e+01	1.315691e+03
1.740000e-06	6.336778e-06	1.994410e-08	4.518081e+01	1.314212e+03
1.750000e-06	6.314267e-06	1.996994e-08	4.502031e+01	1.312616e+03
1.760000e-06	6.288662e-06	1.995264e-08	4.483775e+01	1.310922e+03
1.770000e-06	6.260889e-06	1.990608e-08	4.463973e+01	1.309149e+03
1.780000e-06	6.231291e-06	1.999938e-08	4.442869e+01	1.307303e+03
1.790000e-06	6.200087e-06	1.990098e-08	4.420621e+01	1.305383e+03
1.800000e-06	6.167433e-06	1.980060e-08	4.397339e+01	1.303370e+03
1.810000e-06	6.132751e-06	1.987336e-08	4.372611e+01	1.301233e+03
1.820000e-06	6.095986e-06	1.969989e-08	4.346398e+01	1.298933e+03
1.830000e-06	6.057094e-06	1.978305e-08	4.318668e+01	1.296428e+03
1.840000e-06	6.015806e-06	1.979979e-08	4.289230e+01	1.293683e+03
1.850000e-06	5.972526e-06	1.956263e-08	4.258372e+01	1.290674e+03
1.860000e-06	5.927161e-06	1.966665e-08	4.226027e+01	1.287397e+03
1.870000e-06	5.879545e-06	1.958530e-08	4.192077e+01	1.283864e+03
1.880000e-06	5.829851e-06	1.953985e-08	4.156645e+01	1.280106e+03
1.890000e-06	5.777570e-06	1.952827e-08	4.119369e+01	1.276160e+03
1.900000e-06	5.722808e-06	1.930175e-08	4.080324e+01	1.272062e+03
1.910000e-06	5.665903e-06	1.933807e-08	4.039752e+01	1.267839e+03
1.920000e-06	5.607011e-06	1.926857e-08	3.997762e+01	1.263500e+03
1.930000e-06	5.546235e-06	1.923236e-08	3.954429e+01	1.259033e+03
1.940000e-06	5.483311e-06	1.920393e-08	3.909565e+01	1.254408e+03
1.950000e-06	5.418296e-06	1.902093e-08	3.863209e+01	1.249579e+03
1.960000e-06	5.351295e-06	1.899829e-08	3.815438e+01	1.244500e+03
1.970000e-06	5.282296e-06	1.883794e-08	3.766242e+01	1.239129e+03
1.980000e-06	5.211173e-06	1.878745e-08	3.715532e+01	1.233440e+03
1.990000e-06	5.138052e-06	1.874686e-08	3.663397e+01	1.227424e+03
2.000000e-06	5.063161e-06	1.864307e-08	3.610001e+01	1.221094e+03
2.010000e-06	4.986169e-06	1.856860e-08	3.555106e+01	1.214475e+03
2.020000e-06	4.907108e-06	1.836790e-08	3.498736e+01	1.207597e+03
2.030000e-06	4.826299e-06	1.830858e-08	3.441119e+01	1.200488e+03
2.040000e-06	4.743859e-06	1.821024e-08	3.382340e+01	1.193159e+03
2.050000e-06	4.659928e-06	1.810746e-08	3.322498e+01	1.185606e+03
2.060000e-06	4.574260e-06	1.798697e-08	3.261418e+01	1.177806e+03
2.070000e-06	4.486888e-06	1.783998e-08	3.199122e+01	1.169722e+03
2.080000e-06	4.397955e-06	1.772768e-08	3.135713e+01	1.161310e+03
2.090000e-06	4.307559e-06	1.756877e-08	3.071261e+01	1.152528e+03
2.100000e-06	4.215856e-06	1.746227e-08	3.005877e+01	1.143344e+03
2.110000e-06	4.122667e-06	1.730924e-08	2.939435e+01	1.133741e+03
2.120000e-06	4.027945e-06	1.715749e-08	2.871898e+01	1.123714e+03
2.130000e-06	3.931764e-06	1.698979e-08	2.803322e+01	1.113271e+03
2.140000e-06	3.834161e-06	1.682762e-08	2.733732e+01	1.102421e+03
2.150000e-06	3.735301e-06	1.666800e-08	2.663245e+01	1.091168e+03
2.160000e-06	3.635128e-06	1.648706e-08	2.591822e+01	1.079507e+03
2.170000e-06	3.533468e-06	1.631565e-08	2.519339e+01	1.067415e+03
2.180000e-06	3.430453e-06	1.611276e-08	2.445891e+01	1.054856e+03
2.190000e-06	3.326145e-06	1.591490e-08	2.371519e+01	1.041785e+03
2.200000e-06	3.220596e-06	1.570620e-08	2.296264e+01	1.028149e+03
2.210000e-06	3.114031e-06	1.550314e-08	2.220284e+01	1.013900e+03
2.220000e-06	3.006476e-06	1.527287e-08	2.143597e+01	9.989939e+02
2.230000e-06	2.897796e-06	1.503047e-08	2.066109e+01	9.833971e+02
2.240000e-06	2.788032e-06	1.478330e-08	1.987848e+01	9.670813e+02
2.250000e-06	2.677308e-06	1.452918e-08	1.908903e+01	9.500206e+02
2.260000e-06	2.565512e-06	1.426121e-08	1.829193e+01	9.321847e+02
2.270000e-06	2.452657e-06	1.397339e-08	1.748728e+01	9.135343e+02
2.280000e-06	2.338868e-06	1.367679e-08	1.667598e+01	8.940167e+02
2.290000e-06	2.224160e-06	1.336246e-08	1.585811e+01	8.735656e+02
2.300000e-06	2.108594e-06	1.304018e-08	1.503414e+01	8.521031e+02
2.310000e-06	1.992189e-06	1.270108e-08	1.420418e+01	8.295436e+02
2.320000e-06	1.874983e-06	1.234716e-08	1.336851e+01	8.057981e+02
2.330000e-06	1.756972e-06	1.196654e-08	1.252709e+01	7.807776e+02
2.340000e-06	1.638222e-06	1.155790e-08	1.168042e+01	7.543944e+02
2.350000e-06	1.518927e-06	1.112765e-08	1.082985e+01	7.265616e+02
2.360000e-06	1.399122e-06	1.068173e-08	9.975650e+00	6.971935e+02
2.370000e-06	1.278884e-06	1.021857e-08	9.118361e+00	6.662059e+02
2.380000e-06	1.158312e-06	9.729236e-09	8.258687e+00	6.335212e+02
2.390000e-06	1.037377e-06	9.204634e-09	7.396426e+00	5.990777e+02
2.400000e-06	9.160515e-07	8.646355e-09	6.531387e+00	5.628437e+02
2.410000e-06	7.943934e-07	8.063374e-09	5.663972e+00	5.248339e+02
2.420000e-06	6.725145e-07	7.457695e-09	4.794984e+00	4.851247e+02
2.430000e-06	5.504717e-07	6.832741e-09	3.924827e+00	4.438640e+02
2.440000e-06	4.283020e-07	6.186938e-09	3.053765e+00	4.012714e+02
2.450000e-06	3.060097e-07	5.519921e-09	2.181829e+00	3.576250e+02
2.460000e-06	1.835398e-07	4.836600e-09	1.308626e+00	3.132358e+02
2.470000e-06	6.099983e-08	4.146168e-09	4.349248e-01	2.684114e+02
2.480000e-06	-6.153677e-08	3.459303e-09	-4.387531e-01	2.234146e+02
2.490000e-06	-1.840854e-07	2.773557e-09	-1.312517e+00	1.784249e+02
2.500000e-06	-3.065854e-07	2.086110e-09	-2.185934e+00	1.335102e+02
2.510000e-06	-4.289891e-07	1.398687e-09	-3.058664e+00	8.861604e+01
2.520000e-06	-5.512623e-07	7.069737e-10	-3.930464e+00	4.357646e+01
2.530000e-06	-6.733702e-07	8.588759e-12	-4.801085e+00	-1.854289e+00
2.540000e-06	-7.952381e-07	-6.998065e-10	-5.669995e+00	-4.795258e+01
2.550000e-06	-9.168272e-07	-1.418972e-09	-6.536918e+00	-9.496718e+01
2.560000e-06	-1.038116e-06	-2.153023e-09	-7.401695e+00	-1.430618e+02
2.570000e-06	-1.159008e-06	-2.903159e-09	-8.263650e+00	-1.922686e+02
2.580000e-06	-1.279499e-06	-3.666262e-09	-9.122747e+00	-2.424614e+02
2.590000e-06	-1.399609e-06	-4.440446e-09	-9.979119e+00	-2.933533e+02
2.600000e-06	-1.519225e-06	-5.222587e-09	-1.083197e+01	-3.445188e+02
2.610000e-06	-1.638272e-06	-6.006259e-09	-1.168077e+01	-3.954367e+02
2.620000e-06	-1.756577e-06	-6.777283e-09	-1.252428e+01	-4.455465e+02
2.630000e-06	-1.873948e-06	-7.524100e-09	-1.336112e+01	-4.943072e+02
2.640000e-06	-1.990398e-06	-8.242806e-09	-1.419140e+01	-5.412505e+02
2.650000e-06	-2.106003e-06	-8.929394e-09	-1.501566e+01	-5.860192e+02
2.660000e-06	-2.220798e-06	-9.579039e-09	-1.583414e+01	-6.283868e+02
2.670000e-06	-2.334703e-06	-1.019139e-08	-1.664628e+01	-6.682579e+02
2.680000e-06	-2.447594e-06	-1.076710e-08	-1.745118e+01	-7.056514e+02
2.690000e-06	-2.559307e-06	-1.130371e-08	-1.824769e+01	-7.406717e+02
2.700000e-06	-2.669888e-06	-1.180281e-08	-1.903612e+01	-7.734767e+02
2.710000e-06	-2.779540e-06	-1.227197e-08	-1.981794e+01	-8.042457e+02
2.720000e-06	-2.888306e-06	-1.271620e-08	-2.059343e+01	-8.331556e+02
2.730000e-06	-2.996223e-06	-1.313580e-08	-2.136288e+01	-8.603648e+02
2.740000e-06	-3.103297e-06	-1.353116e-08	-2.212630e+01	-8.860076e+02
2.750000e-06	-3.209269e-06	-1.390025e-08	-2.288188e+01	-9.101957e+02
2.760000e-06	-3.314053e-06	-1.424447e-08	-2.362898e+01	-9.330239e+02
2.770000e-06	-3.417742e-06	-1.457060e-08	-2.436827e+01	-9.545773e+02
2.780000e-06	-3.520094e-06	-1.488185e-08	-2.509804e+01	-9.749375e+02
2.790000e-06	-3.620966e-06	-1.517776e-08	-2.581725e+01	-9.941852e+02
2.800000e-06	-3.720570e-06	-1.545764e-08	-2.652742e+01	-1.012400e+03
2.810000e-06	-3.818983e-06	-1.572174e-08	-2.722910e+01	-1.029659e+03
2.820000e-06	-3.916090e-06	-1.597108e-08	-2.792146e+01	-1.046032e+03
2.830000e-06	-4.012021e-06	-1.620861e-08	-2.860545e+01	-1.061580e+03
2.840000e-06	-4.106588e-06	-1.643706e-08	-2.927970e+01	-1.076356e+03
2.850000e-06	-4.199434e-06	-1.665685e-08	-2.994169e+01	-1.090402e+03
2.860000e-06	-4.290800e-06	-1.686561e-08	-3.059312e+01	-1.103757e+03
2.870000e-06	-4.380714e-06	-1.706090e-08	-3.123420e+01	-1.116455e+03
2.880000e-06	-4.469003e-06	-1.724353e-08	-3.186370e+01	-1.128530e+03
2.890000e-06	-4.555606e-06	-1.741593e-08	-3.248117e+01	-1.140017e+03
2.900000e-06	-4.640397e-06	-1.757977e-08	-3.308573e+01	-1.150950e+03
2.910000e-06	-4.723650e-06	-1.773798e-08	-3.367931e+01	-1.161361e+03
2.920000e-06	-4.805327e-06	-1.789098e-08	-3.426166e+01	-1.171277e+03
2.930000e-06	-4.885191e-06	-1.803653e-08	-3.483109e+01	-1.180718e+03
2.940000e-06	-4.963082e-06	-1.817383e-08	-3.538645e+01	-1.189698e+03
