# Temperatura_=_86.65
# Concentracion g/m^3_=_28200.0
# C_Vs_to_Am_M_A/Vsm_=_65563218390.804596
# pendiente_HvsI_1/m_=_3716.3
# ordenada_HvsI_A/m_=_1297.0
# frecuencia_Hz_=_302093.79387309396

Tiempo_(s)	Campo_(V.s)	Magnetizacion_(V.s)	Campo_(kA/m)	Magnetizacion_(A/m)
0.000000e+00	-6.403585e-06	-2.476093e-08	-4.558476e+01	-1.623389e+03
1.000000e-08	-6.400319e-06	-2.475684e-08	-4.556151e+01	-1.622865e+03
2.000000e-08	-6.394929e-06	-2.474643e-08	-4.552315e+01	-1.622098e+03
3.000000e-08	-6.387514e-06	-2.473417e-08	-4.547036e+01	-1.621110e+03
4.000000e-08	-6.377958e-06	-2.471744e-08	-4.540234e+01	-1.619938e+03
5.000000e-08	-6.366140e-06	-2.469812e-08	-4.531821e+01	-1.618623e+03
6.000000e-08	-6.351947e-06	-2.467694e-08	-4.521718e+01	-1.617202e+03
7.000000e-08	-6.335412e-06	-2.464682e-08	-4.509946e+01	-1.615695e+03
8.000000e-08	-6.316821e-06	-2.462597e-08	-4.496712e+01	-1.614105e+03
9.000000e-08	-6.296179e-06	-2.462923e-08	-4.482018e+01	-1.612408e+03
1.000000e-07	-6.273054e-06	-2.460459e-08	-4.465556e+01	-1.610563e+03
1.100000e-07	-6.247277e-06	-2.454341e-08	-4.447207e+01	-1.608519e+03
1.200000e-07	-6.219191e-06	-2.450626e-08	-4.427214e+01	-1.606225e+03
1.300000e-07	-6.189302e-06	-2.447173e-08	-4.405937e+01	-1.603640e+03
1.400000e-07	-6.157742e-06	-2.438747e-08	-4.383470e+01	-1.600741e+03
1.500000e-07	-6.124337e-06	-2.435470e-08	-4.359690e+01	-1.597525e+03
1.600000e-07	-6.088920e-06	-2.437395e-08	-4.334478e+01	-1.594009e+03
1.700000e-07	-6.051632e-06	-2.423960e-08	-4.307934e+01	-1.590225e+03
1.800000e-07	-6.012362e-06	-2.420625e-08	-4.279979e+01	-1.586210e+03
1.900000e-07	-5.970629e-06	-2.418533e-08	-4.250271e+01	-1.581998e+03
2.000000e-07	-5.926668e-06	-2.406818e-08	-4.218977e+01	-1.577615e+03
2.100000e-07	-5.880622e-06	-2.407580e-08	-4.186198e+01	-1.573075e+03
2.200000e-07	-5.832166e-06	-2.398505e-08	-4.151705e+01	-1.568377e+03
2.300000e-07	-5.781200e-06	-2.385946e-08	-4.115424e+01	-1.563511e+03
2.400000e-07	-5.727812e-06	-2.379597e-08	-4.077419e+01	-1.558462e+03
2.500000e-07	-5.672240e-06	-2.369475e-08	-4.037859e+01	-1.553208e+03
2.600000e-07	-5.614512e-06	-2.360583e-08	-3.996764e+01	-1.547732e+03
2.700000e-07	-5.554699e-06	-2.353282e-08	-3.954186e+01	-1.542016e+03
2.800000e-07	-5.492983e-06	-2.344089e-08	-3.910253e+01	-1.536047e+03
2.900000e-07	-5.429240e-06	-2.331357e-08	-3.864876e+01	-1.529811e+03
3.000000e-07	-5.363350e-06	-2.320435e-08	-3.817971e+01	-1.523297e+03
3.100000e-07	-5.295375e-06	-2.314978e-08	-3.769582e+01	-1.516491e+03
3.200000e-07	-5.225422e-06	-2.304259e-08	-3.719786e+01	-1.509380e+03
3.300000e-07	-5.153677e-06	-2.292178e-08	-3.668713e+01	-1.501951e+03
3.400000e-07	-5.080020e-06	-2.279404e-08	-3.616279e+01	-1.494196e+03
3.500000e-07	-5.004246e-06	-2.266466e-08	-3.562339e+01	-1.486107e+03
3.600000e-07	-4.926395e-06	-2.254367e-08	-3.506920e+01	-1.477682e+03
3.700000e-07	-4.846470e-06	-2.240785e-08	-3.450024e+01	-1.468919e+03
3.800000e-07	-4.764716e-06	-2.228474e-08	-3.391826e+01	-1.459820e+03
3.900000e-07	-4.681469e-06	-2.213304e-08	-3.332566e+01	-1.450383e+03
4.000000e-07	-4.596812e-06	-2.197024e-08	-3.272301e+01	-1.440601e+03
4.100000e-07	-4.510686e-06	-2.181437e-08	-3.210992e+01	-1.430465e+03
4.200000e-07	-4.423070e-06	-2.165968e-08	-3.148621e+01	-1.419957e+03
4.300000e-07	-4.334002e-06	-2.149207e-08	-3.085217e+01	-1.409061e+03
4.400000e-07	-4.243338e-06	-2.131457e-08	-3.020676e+01	-1.397754e+03
4.500000e-07	-4.151034e-06	-2.113566e-08	-2.954968e+01	-1.386019e+03
4.600000e-07	-4.057267e-06	-2.094109e-08	-2.888219e+01	-1.373840e+03
4.700000e-07	-3.962098e-06	-2.074776e-08	-2.820472e+01	-1.361202e+03
4.800000e-07	-3.865502e-06	-2.055923e-08	-2.751709e+01	-1.348094e+03
4.900000e-07	-3.767476e-06	-2.035748e-08	-2.681927e+01	-1.334499e+03
5.000000e-07	-3.667984e-06	-2.013209e-08	-2.611103e+01	-1.320400e+03
5.100000e-07	-3.567141e-06	-1.989903e-08	-2.539316e+01	-1.305770e+03
5.200000e-07	-3.465091e-06	-1.966552e-08	-2.466671e+01	-1.290577e+03
5.300000e-07	-3.361844e-06	-1.942404e-08	-2.393173e+01	-1.274783e+03
5.400000e-07	-3.257342e-06	-1.917379e-08	-2.318782e+01	-1.258348e+03
5.500000e-07	-3.151534e-06	-1.891239e-08	-2.243461e+01	-1.241233e+03
5.600000e-07	-3.044502e-06	-1.863675e-08	-2.167269e+01	-1.223399e+03
5.700000e-07	-2.936277e-06	-1.834752e-08	-2.090228e+01	-1.204813e+03
5.800000e-07	-2.826945e-06	-1.805289e-08	-2.012398e+01	-1.185442e+03
5.900000e-07	-2.716648e-06	-1.775009e-08	-1.933882e+01	-1.165249e+03
6.000000e-07	-2.605403e-06	-1.743055e-08	-1.854691e+01	-1.144191e+03
6.100000e-07	-2.493133e-06	-1.708937e-08	-1.774770e+01	-1.122211e+03
6.200000e-07	-2.379788e-06	-1.672931e-08	-1.694083e+01	-1.099241e+03
6.300000e-07	-2.265402e-06	-1.635551e-08	-1.612656e+01	-1.075196e+03
6.400000e-07	-2.150069e-06	-1.597134e-08	-1.530555e+01	-1.049982e+03
6.500000e-07	-2.033845e-06	-1.556910e-08	-1.447820e+01	-1.023498e+03
6.600000e-07	-1.916831e-06	-1.514272e-08	-1.364522e+01	-9.956412e+02
6.700000e-07	-1.799201e-06	-1.469279e-08	-1.280785e+01	-9.663090e+02
6.800000e-07	-1.681039e-06	-1.421958e-08	-1.196670e+01	-9.353994e+02
6.900000e-07	-1.562383e-06	-1.372228e-08	-1.112203e+01	-9.028081e+02
7.000000e-07	-1.443256e-06	-1.319744e-08	-1.027401e+01	-8.684237e+02
7.100000e-07	-1.323630e-06	-1.264439e-08	-9.422434e+00	-8.321252e+02
7.200000e-07	-1.203457e-06	-1.205926e-08	-8.566964e+00	-7.937833e+02
7.300000e-07	-1.082749e-06	-1.143754e-08	-7.707694e+00	-7.532693e+02
7.400000e-07	-9.616813e-07	-1.078085e-08	-6.845856e+00	-7.104715e+02
7.500000e-07	-8.402906e-07	-1.009397e-08	-5.981720e+00	-6.653184e+02
7.600000e-07	-7.185498e-07	-9.371691e-09	-5.115091e+00	-6.178043e+02
7.700000e-07	-5.965989e-07	-8.610857e-09	-4.246968e+00	-5.680118e+02
7.800000e-07	-4.744699e-07	-7.817017e-09	-3.377577e+00	-5.161241e+02
7.900000e-07	-3.521590e-07	-6.997232e-09	-2.506891e+00	-4.624214e+02
8.000000e-07	-2.296872e-07	-6.156614e-09	-1.635058e+00	-4.072586e+02
8.100000e-07	-1.071062e-07	-5.298566e-09	-7.624494e-01	-3.510250e+02
8.200000e-07	1.550423e-08	-4.432000e-09	1.103689e-01	-2.940918e+02
8.300000e-07	1.382063e-07	-3.559324e-09	9.838395e-01	-2.367564e+02
8.400000e-07	2.609401e-07	-2.681808e-09	1.857537e+00	-1.791942e+02
8.500000e-07	3.836035e-07	-1.801911e-09	2.730732e+00	-1.214307e+02
8.600000e-07	5.061900e-07	-9.154774e-10	3.603380e+00	-6.334048e+01
8.700000e-07	6.286547e-07	-2.074756e-11	4.475162e+00	-4.677060e+00
8.800000e-07	7.509628e-07	8.863697e-10	5.345828e+00	5.486896e+01
8.900000e-07	8.730443e-07	1.811273e-09	6.214881e+00	1.155936e+02
9.000000e-07	9.947976e-07	2.758538e-09	7.081598e+00	1.776981e+02
9.100000e-07	1.116142e-06	3.726624e-09	7.945408e+00	2.412176e+02
9.200000e-07	1.237007e-06	4.710429e-09	8.805796e+00	3.059754e+02
9.300000e-07	1.357316e-06	5.706478e-09	9.662234e+00	3.715706e+02
9.400000e-07	1.477012e-06	6.709969e-09	1.051431e+01	4.374044e+02
9.500000e-07	1.596163e-06	7.706589e-09	1.136249e+01	5.027391e+02
9.600000e-07	1.714862e-06	8.680804e-09	1.220747e+01	5.667805e+02
9.700000e-07	1.833026e-06	9.621701e-09	1.304864e+01	6.287680e+02
9.800000e-07	1.950514e-06	1.051833e-08	1.388499e+01	6.880569e+02
9.900000e-07	2.067222e-06	1.136404e-08	1.471579e+01	7.441788e+02
1.000000e-06	2.183101e-06	1.215811e-08	1.554069e+01	7.968710e+02
1.010000e-06	2.298119e-06	1.290415e-08	1.635946e+01	8.460739e+02
1.020000e-06	2.412131e-06	1.360101e-08	1.717108e+01	8.918982e+02
1.030000e-06	2.524954e-06	1.425114e-08	1.797422e+01	9.345742e+02
1.040000e-06	2.636668e-06	1.485604e-08	1.876947e+01	9.743931e+02
1.050000e-06	2.747489e-06	1.542044e-08	1.955837e+01	1.011653e+03
1.060000e-06	2.857402e-06	1.594984e-08	2.034079e+01	1.046621e+03
1.070000e-06	2.966368e-06	1.644706e-08	2.111648e+01	1.079509e+03
1.080000e-06	3.074409e-06	1.691747e-08	2.188559e+01	1.110477e+03
1.090000e-06	3.181518e-06	1.736060e-08	2.264806e+01	1.139642e+03
1.100000e-06	3.287497e-06	1.777566e-08	2.340248e+01	1.167100e+03
1.110000e-06	3.392088e-06	1.816621e-08	2.414703e+01	1.192945e+03
1.120000e-06	3.495396e-06	1.853747e-08	2.488244e+01	1.217284e+03
1.130000e-06	3.597533e-06	1.888938e-08	2.560951e+01	1.240237e+03
1.140000e-06	3.698467e-06	1.922258e-08	2.632802e+01	1.261936e+03
1.150000e-06	3.798160e-06	1.953959e-08	2.703770e+01	1.282509e+03
1.160000e-06	3.896495e-06	1.983963e-08	2.773771e+01	1.302072e+03
1.170000e-06	3.993246e-06	2.012044e-08	2.842645e+01	1.320711e+03
1.180000e-06	4.088428e-06	2.038560e-08	2.910402e+01	1.338485e+03
1.190000e-06	4.182304e-06	2.064111e-08	2.977228e+01	1.355426e+03
1.200000e-06	4.274868e-06	2.088679e-08	3.043121e+01	1.371548e+03
1.210000e-06	4.366083e-06	2.112053e-08	3.108054e+01	1.386864e+03
1.220000e-06	4.455704e-06	2.134258e-08	3.171852e+01	1.401397e+03
1.230000e-06	4.543502e-06	2.155105e-08	3.234352e+01	1.415183e+03
1.240000e-06	4.629653e-06	2.174861e-08	3.295679e+01	1.428279e+03
1.250000e-06	4.714282e-06	2.193909e-08	3.355924e+01	1.440753e+03
1.260000e-06	4.797415e-06	2.212252e-08	3.415103e+01	1.452673e+03
1.270000e-06	4.878837e-06	2.229870e-08	3.473065e+01	1.464099e+03
1.280000e-06	4.958370e-06	2.246705e-08	3.529681e+01	1.475072e+03
1.290000e-06	5.036030e-06	2.262654e-08	3.584964e+01	1.485607e+03
1.300000e-06	5.111772e-06	2.277989e-08	3.638882e+01	1.495698e+03
1.310000e-06	5.185435e-06	2.292887e-08	3.691321e+01	1.505325e+03
1.320000e-06	5.257077e-06	2.307085e-08	3.742320e+01	1.514462e+03
1.330000e-06	5.326818e-06	2.320432e-08	3.791966e+01	1.523094e+03
1.340000e-06	5.394707e-06	2.332840e-08	3.840293e+01	1.531219e+03
1.350000e-06	5.460696e-06	2.344621e-08	3.887268e+01	1.538856e+03
1.360000e-06	5.524610e-06	2.355791e-08	3.932767e+01	1.546041e+03
1.370000e-06	5.586620e-06	2.366319e-08	3.976909e+01	1.552820e+03
1.380000e-06	5.646861e-06	2.376240e-08	4.019792e+01	1.559244e+03
1.390000e-06	5.705169e-06	2.385581e-08	4.061300e+01	1.565355e+03
1.400000e-06	5.761331e-06	2.394381e-08	4.101280e+01	1.571182e+03
1.410000e-06	5.815385e-06	2.402696e-08	4.139759e+01	1.576740e+03
1.420000e-06	5.867308e-06	2.410676e-08	4.176720e+01	1.582032e+03
1.430000e-06	5.916750e-06	2.418338e-08	4.211917e+01	1.587052e+03
1.440000e-06	5.963817e-06	2.425611e-08	4.245422e+01	1.591796e+03
1.450000e-06	6.008901e-06	2.432570e-08	4.277515e+01	1.596262e+03
1.460000e-06	6.052050e-06	2.439227e-08	4.308232e+01	1.600456e+03
1.470000e-06	6.092880e-06	2.445392e-08	4.337297e+01	1.604388e+03
1.480000e-06	6.131399e-06	2.451062e-08	4.364718e+01	1.608072e+03
1.490000e-06	6.168005e-06	2.456249e-08	4.390776e+01	1.611518e+03
1.500000e-06	6.202632e-06	2.460941e-08	4.415425e+01	1.614727e+03
1.510000e-06	6.234902e-06	2.465360e-08	4.438397e+01	1.617693e+03
1.520000e-06	6.264838e-06	2.469560e-08	4.459707e+01	1.620401e+03
1.530000e-06	6.292763e-06	2.473237e-08	4.479586e+01	1.622835e+03
1.540000e-06	6.318513e-06	2.476353e-08	4.497917e+01	1.624981e+03
1.550000e-06	6.341838e-06	2.479118e-08	4.514521e+01	1.626836e+03
1.560000e-06	6.362857e-06	2.481716e-08	4.529484e+01	1.628407e+03
1.570000e-06	6.381798e-06	2.483972e-08	4.542967e+01	1.629719e+03
1.580000e-06	6.398456e-06	2.485786e-08	4.554826e+01	1.630803e+03
1.590000e-06	6.412613e-06	2.487201e-08	4.564904e+01	1.631693e+03
1.600000e-06	6.424292e-06	2.488259e-08	4.573217e+01	1.632417e+03
1.610000e-06	6.433335e-06	2.489209e-08	4.579654e+01	1.632991e+03
1.620000e-06	6.439948e-06	2.490036e-08	4.584362e+01	1.633414e+03
1.630000e-06	6.444470e-06	2.490627e-08	4.587581e+01	1.633669e+03
1.640000e-06	6.446828e-06	2.490844e-08	4.589259e+01	1.633730e+03
1.650000e-06	6.446828e-06	2.490648e-08	4.589260e+01	1.633570e+03
1.660000e-06	6.444579e-06	2.489847e-08	4.587658e+01	1.633167e+03
1.670000e-06	6.440335e-06	2.488540e-08	4.584638e+01	1.632517e+03
1.680000e-06	6.433938e-06	2.487557e-08	4.580084e+01	1.631633e+03
1.690000e-06	6.425385e-06	2.486481e-08	4.573995e+01	1.630546e+03
1.700000e-06	6.414817e-06	2.485339e-08	4.566472e+01	1.629295e+03
1.710000e-06	6.402093e-06	2.483773e-08	4.557415e+01	1.627921e+03
1.720000e-06	6.387031e-06	2.481732e-08	4.546692e+01	1.626453e+03
1.730000e-06	6.369877e-06	2.478140e-08	4.534481e+01	1.624903e+03
1.740000e-06	6.350688e-06	2.470549e-08	4.520821e+01	1.623261e+03
1.750000e-06	6.328663e-06	2.467516e-08	4.505143e+01	1.621494e+03
1.760000e-06	6.303494e-06	2.468411e-08	4.487226e+01	1.619554e+03
1.770000e-06	6.275858e-06	2.464897e-08	4.467553e+01	1.617389e+03
1.780000e-06	6.246420e-06	2.462111e-08	4.446596e+01	1.614951e+03
1.790000e-06	6.215372e-06	2.463888e-08	4.424494e+01	1.612208e+03
1.800000e-06	6.182802e-06	2.454751e-08	4.401309e+01	1.609147e+03
1.810000e-06	6.148296e-06	2.451249e-08	4.376746e+01	1.605775e+03
1.820000e-06	6.111713e-06	2.445520e-08	4.350704e+01	1.602118e+03
1.830000e-06	6.073101e-06	2.427762e-08	4.323217e+01	1.598212e+03
1.840000e-06	6.032079e-06	2.431314e-08	4.294015e+01	1.594092e+03
1.850000e-06	5.988923e-06	2.420877e-08	4.263294e+01	1.589790e+03
1.860000e-06	5.943891e-06	2.406213e-08	4.231238e+01	1.585325e+03
1.870000e-06	5.896684e-06	2.409025e-08	4.197632e+01	1.580704e+03
1.880000e-06	5.847292e-06	2.398048e-08	4.162472e+01	1.575922e+03
1.890000e-06	5.795443e-06	2.397530e-08	4.125563e+01	1.570964e+03
1.900000e-06	5.740934e-06	2.391036e-08	4.086760e+01	1.565812e+03
1.910000e-06	5.684241e-06	2.374590e-08	4.046402e+01	1.560447e+03
1.920000e-06	5.625571e-06	2.370769e-08	4.004637e+01	1.554851e+03
1.930000e-06	5.565012e-06	2.360228e-08	3.961527e+01	1.549008e+03
1.940000e-06	5.502273e-06	2.355443e-08	3.916866e+01	1.542904e+03
1.950000e-06	5.437339e-06	2.344315e-08	3.870641e+01	1.536529e+03
1.960000e-06	5.370521e-06	2.332073e-08	3.823076e+01	1.529868e+03
1.970000e-06	5.301703e-06	2.324328e-08	3.774087e+01	1.522908e+03
1.980000e-06	5.230779e-06	2.307112e-08	3.723599e+01	1.515637e+03
1.990000e-06	5.157789e-06	2.298937e-08	3.671640e+01	1.508044e+03
2.000000e-06	5.082995e-06	2.287748e-08	3.618397e+01	1.500120e+03
2.010000e-06	5.006285e-06	2.276304e-08	3.563790e+01	1.491861e+03
2.020000e-06	4.927445e-06	2.263653e-08	3.507667e+01	1.483264e+03
2.030000e-06	4.846741e-06	2.246005e-08	3.450217e+01	1.474331e+03
2.040000e-06	4.764407e-06	2.234150e-08	3.391606e+01	1.465061e+03
2.050000e-06	4.680546e-06	2.217852e-08	3.331909e+01	1.455450e+03
2.060000e-06	4.595099e-06	2.203663e-08	3.271082e+01	1.445490e+03
2.070000e-06	4.507945e-06	2.187869e-08	3.209040e+01	1.435168e+03
2.080000e-06	4.419097e-06	2.171732e-08	3.145793e+01	1.424466e+03
2.090000e-06	4.328734e-06	2.156572e-08	3.081466e+01	1.413365e+03
2.100000e-06	4.237025e-06	2.139422e-08	3.016182e+01	1.401844e+03
2.110000e-06	4.143920e-06	2.122246e-08	2.949904e+01	1.389886e+03
2.120000e-06	4.049326e-06	2.101171e-08	2.882566e+01	1.377477e+03
2.130000e-06	3.953142e-06	2.080941e-08	2.814096e+01	1.364603e+03
2.140000e-06	3.855537e-06	2.060253e-08	2.744615e+01	1.351251e+03
2.150000e-06	3.756727e-06	2.039749e-08	2.674276e+01	1.337405e+03
2.160000e-06	3.656643e-06	2.018448e-08	2.603029e+01	1.323041e+03
2.170000e-06	3.555127e-06	1.996617e-08	2.530764e+01	1.308132e+03
2.180000e-06	3.452158e-06	1.973524e-08	2.457465e+01	1.292641e+03
2.190000e-06	3.347854e-06	1.948138e-08	2.383214e+01	1.276529e+03
2.200000e-06	3.242320e-06	1.922821e-08	2.308089e+01	1.259756e+03
2.210000e-06	3.135707e-06	1.896868e-08	2.232195e+01	1.242284e+03
2.220000e-06	3.028024e-06	1.869921e-08	2.155539e+01	1.224076e+03
2.230000e-06	2.919293e-06	1.840262e-08	2.078137e+01	1.205099e+03
2.240000e-06	2.809575e-06	1.809496e-08	2.000033e+01	1.185320e+03
2.250000e-06	2.698813e-06	1.778010e-08	1.921186e+01	1.164697e+03
2.260000e-06	2.587000e-06	1.745671e-08	1.841590e+01	1.143184e+03
2.270000e-06	2.474138e-06	1.712091e-08	1.761248e+01	1.120716e+03
2.280000e-06	2.360257e-06	1.676991e-08	1.680180e+01	1.097217e+03
2.290000e-06	2.245505e-06	1.640051e-08	1.598493e+01	1.072598e+03
2.300000e-06	2.129982e-06	1.600478e-08	1.516256e+01	1.046759e+03
2.310000e-06	2.013610e-06	1.558843e-08	1.433415e+01	1.019600e+03
2.320000e-06	1.896321e-06	1.515639e-08	1.349921e+01	9.910153e+02
2.330000e-06	1.778245e-06	1.470439e-08	1.265867e+01	9.609048e+02
2.340000e-06	1.659556e-06	1.422117e-08	1.181377e+01	9.291654e+02
2.350000e-06	1.540288e-06	1.370676e-08	1.096474e+01	8.956896e+02
2.360000e-06	1.420467e-06	1.316335e-08	1.011178e+01	8.603615e+02
2.370000e-06	1.300171e-06	1.259425e-08	9.255442e+00	8.230553e+02
2.380000e-06	1.179475e-06	1.199549e-08	8.396251e+00	7.836404e+02
2.390000e-06	1.058388e-06	1.136263e-08	7.534275e+00	7.419941e+02
2.400000e-06	9.369282e-07	1.069656e-08	6.669647e+00	6.980217e+02
2.410000e-06	8.151705e-07	9.992329e-09	5.802899e+00	6.516813e+02
2.420000e-06	6.931691e-07	9.249909e-09	4.934416e+00	6.030091e+02
2.430000e-06	5.709923e-07	8.472272e-09	4.064684e+00	5.521374e+02
2.440000e-06	4.485875e-07	7.665663e-09	3.193329e+00	4.992993e+02
2.450000e-06	3.260000e-07	6.834376e-09	2.320674e+00	4.448165e+02
2.460000e-06	2.033407e-07	5.981416e-09	1.447508e+00	3.890670e+02
2.470000e-06	8.059693e-08	5.116932e-09	5.737399e-01	3.324381e+02
2.480000e-06	-4.220897e-08	4.248571e-09	-3.004701e-01	2.752709e+02
2.490000e-06	-1.650239e-07	3.375979e-09	-1.174745e+00	2.178068e+02
2.500000e-06	-2.877775e-07	2.494896e-09	-2.048582e+00	1.601481e+02
2.510000e-06	-4.104554e-07	1.606779e-09	-2.921881e+00	1.022431e+02
2.520000e-06	-5.330043e-07	7.106004e-10	-3.794262e+00	4.390026e+01
2.530000e-06	-6.553279e-07	-1.929105e-10	-4.665038e+00	-1.516711e+01
2.540000e-06	-7.774392e-07	-1.108832e-09	-5.534303e+00	-7.527192e+01
2.550000e-06	-8.993291e-07	-2.043680e-09	-6.401993e+00	-1.366727e+02
2.560000e-06	-1.020910e-06	-2.999360e-09	-7.267482e+00	-1.994952e+02
2.570000e-06	-1.142065e-06	-3.977984e-09	-8.129938e+00	-2.636726e+02
2.580000e-06	-1.262776e-06	-4.973639e-09	-8.989240e+00	-3.289150e+02
2.590000e-06	-1.383056e-06	-5.980892e-09	-9.845464e+00	-3.947172e+02
2.600000e-06	-1.502897e-06	-6.989997e-09	-1.069857e+01	-4.604017e+02
2.610000e-06	-1.622220e-06	-7.986825e-09	-1.154799e+01	-5.251914e+02
2.620000e-06	-1.740841e-06	-8.956091e-09	-1.239241e+01	-5.882978e+02
2.630000e-06	-1.858636e-06	-9.886881e-09	-1.323094e+01	-6.490091e+02
2.640000e-06	-1.975464e-06	-1.077114e-08	-1.406260e+01	-7.067629e+02
2.650000e-06	-2.091412e-06	-1.160348e-08	-1.488799e+01	-7.611921e+02
2.660000e-06	-2.206594e-06	-1.238249e-08	-1.570793e+01	-8.121378e+02
2.670000e-06	-2.320862e-06	-1.311093e-08	-1.652136e+01	-8.596312e+02
2.680000e-06	-2.434104e-06	-1.379143e-08	-1.732749e+01	-9.038498e+02
2.690000e-06	-2.546105e-06	-1.442425e-08	-1.812479e+01	-9.450617e+02
2.700000e-06	-2.656952e-06	-1.501632e-08	-1.891387e+01	-9.835676e+02
2.710000e-06	-2.766917e-06	-1.557336e-08	-1.969666e+01	-1.019654e+03
2.720000e-06	-2.875982e-06	-1.609668e-08	-2.047305e+01	-1.053561e+03
2.730000e-06	-2.984157e-06	-1.658547e-08	-2.124311e+01	-1.085474e+03
2.740000e-06	-3.091452e-06	-1.704214e-08	-2.200691e+01	-1.115530e+03
2.750000e-06	-3.197714e-06	-1.747065e-08	-2.276335e+01	-1.143833e+03
2.760000e-06	-3.302809e-06	-1.787429e-08	-2.351148e+01	-1.170475e+03
2.770000e-06	-3.406699e-06	-1.825759e-08	-2.425104e+01	-1.195555e+03
2.780000e-06	-3.509312e-06	-1.862019e-08	-2.498150e+01	-1.219187e+03
2.790000e-06	-3.610571e-06	-1.896196e-08	-2.570232e+01	-1.241499e+03
2.800000e-06	-3.710543e-06	-1.928606e-08	-2.641399e+01	-1.262622e+03
2.810000e-06	-3.809352e-06	-1.959500e-08	-2.711738e+01	-1.282680e+03
2.820000e-06	-3.906919e-06	-1.988919e-08	-2.781192e+01	-1.301774e+03
2.830000e-06	-4.003191e-06	-2.016778e-08	-2.849724e+01	-1.319978e+03
2.840000e-06	-4.098062e-06	-2.043006e-08	-2.917259e+01	-1.337335e+03
2.850000e-06	-4.191271e-06	-2.067719e-08	-2.983612e+01	-1.353867e+03
2.860000e-06	-4.282986e-06	-2.091333e-08	-3.048900e+01	-1.369587e+03
2.870000e-06	-4.373334e-06	-2.114165e-08	-3.113216e+01	-1.384510e+03
2.880000e-06	-4.462037e-06	-2.136212e-08	-3.176360e+01	-1.398666e+03
2.890000e-06	-4.549049e-06	-2.157314e-08	-3.238300e+01	-1.412102e+03
2.900000e-06	-4.634308e-06	-2.177224e-08	-3.298993e+01	-1.424880e+03
2.910000e-06	-4.717981e-06	-2.195938e-08	-3.358557e+01	-1.437071e+03
2.920000e-06	-4.800150e-06	-2.213600e-08	-3.417050e+01	-1.448740e+03
2.930000e-06	-4.880566e-06	-2.230339e-08	-3.474296e+01	-1.459939e+03
2.940000e-06	-4.958969e-06	-2.246308e-08	-3.530108e+01	-1.470694e+03
