# Temperatura_=_58.12
# Concentracion g/m^3_=_28200.0
# C_Vs_to_Am_M_A/Vsm_=_65563218390.804596
# pendiente_HvsI_1/m_=_3716.3
# ordenada_HvsI_A/m_=_1297.0
# frecuencia_Hz_=_302098.01818961767

Tiempo_(s)	Campo_(V.s)	Magnetizacion_(V.s)	Campo_(kA/m)	Magnetizacion_(A/m)
0.000000e+00	-6.399504e-06	-2.058055e-08	-4.557220e+01	-1.347692e+03
1.000000e-08	-6.395734e-06	-2.057338e-08	-4.554535e+01	-1.347290e+03
2.000000e-08	-6.389984e-06	-2.056533e-08	-4.550441e+01	-1.346723e+03
3.000000e-08	-6.382323e-06	-2.055712e-08	-4.544985e+01	-1.345991e+03
4.000000e-08	-6.372402e-06	-2.054232e-08	-4.537920e+01	-1.345101e+03
5.000000e-08	-6.360006e-06	-2.052377e-08	-4.529092e+01	-1.344063e+03
6.000000e-08	-6.345362e-06	-2.049857e-08	-4.518664e+01	-1.342887e+03
7.000000e-08	-6.328568e-06	-2.046842e-08	-4.506705e+01	-1.341581e+03
8.000000e-08	-6.309724e-06	-2.048068e-08	-4.493286e+01	-1.340152e+03
9.000000e-08	-6.288652e-06	-2.054429e-08	-4.478280e+01	-1.338601e+03
1.000000e-07	-6.265136e-06	-2.045028e-08	-4.461533e+01	-1.336927e+03
1.100000e-07	-6.238965e-06	-2.036442e-08	-4.442897e+01	-1.335126e+03
1.200000e-07	-6.210411e-06	-2.036519e-08	-4.422563e+01	-1.333190e+03
1.300000e-07	-6.180040e-06	-2.026992e-08	-4.400935e+01	-1.331109e+03
1.400000e-07	-6.148184e-06	-2.014005e-08	-4.378250e+01	-1.328872e+03
1.500000e-07	-6.114477e-06	-2.035130e-08	-4.354247e+01	-1.326465e+03
1.600000e-07	-6.078648e-06	-2.024371e-08	-4.328732e+01	-1.323877e+03
1.700000e-07	-6.041027e-06	-2.006115e-08	-4.301941e+01	-1.321095e+03
1.800000e-07	-6.001330e-06	-2.024591e-08	-4.273672e+01	-1.318109e+03
1.900000e-07	-5.959127e-06	-2.001087e-08	-4.243619e+01	-1.314914e+03
2.000000e-07	-5.914690e-06	-2.001339e-08	-4.211974e+01	-1.311510e+03
2.100000e-07	-5.868259e-06	-2.005896e-08	-4.178909e+01	-1.307901e+03
2.200000e-07	-5.819442e-06	-1.982549e-08	-4.144146e+01	-1.304100e+03
2.300000e-07	-5.768066e-06	-1.981632e-08	-4.107560e+01	-1.300122e+03
2.400000e-07	-5.714272e-06	-1.976732e-08	-4.069252e+01	-1.295981e+03
2.500000e-07	-5.658406e-06	-1.969639e-08	-4.029469e+01	-1.291691e+03
2.600000e-07	-5.600375e-06	-1.967703e-08	-3.988144e+01	-1.287254e+03
2.700000e-07	-5.540137e-06	-1.959047e-08	-3.945247e+01	-1.282664e+03
2.800000e-07	-5.477968e-06	-1.950691e-08	-3.900975e+01	-1.277904e+03
2.900000e-07	-5.413804e-06	-1.936847e-08	-3.855282e+01	-1.272946e+03
3.000000e-07	-5.347545e-06	-1.934938e-08	-3.808098e+01	-1.267758e+03
3.100000e-07	-5.279187e-06	-1.928446e-08	-3.759419e+01	-1.262308e+03
3.200000e-07	-5.208909e-06	-1.918403e-08	-3.709372e+01	-1.256569e+03
3.300000e-07	-5.136952e-06	-1.909869e-08	-3.658131e+01	-1.250525e+03
3.400000e-07	-5.063021e-06	-1.894800e-08	-3.605483e+01	-1.244175e+03
3.500000e-07	-4.986847e-06	-1.888168e-08	-3.551238e+01	-1.237527e+03
3.600000e-07	-4.908568e-06	-1.876747e-08	-3.495493e+01	-1.230599e+03
3.700000e-07	-4.828326e-06	-1.867270e-08	-3.438351e+01	-1.223410e+03
3.800000e-07	-4.746324e-06	-1.857936e-08	-3.379956e+01	-1.215973e+03
3.900000e-07	-4.662805e-06	-1.843066e-08	-3.320480e+01	-1.208293e+03
4.000000e-07	-4.577869e-06	-1.828833e-08	-3.259996e+01	-1.200361e+03
4.100000e-07	-4.491455e-06	-1.816688e-08	-3.198458e+01	-1.192152e+03
4.200000e-07	-4.403716e-06	-1.806468e-08	-3.135978e+01	-1.183633e+03
4.300000e-07	-4.314396e-06	-1.792075e-08	-3.072371e+01	-1.174769e+03
4.400000e-07	-4.223405e-06	-1.777427e-08	-3.007575e+01	-1.165524e+03
4.500000e-07	-4.130866e-06	-1.762926e-08	-2.941676e+01	-1.155872e+03
4.600000e-07	-4.036799e-06	-1.746077e-08	-2.874688e+01	-1.145796e+03
4.700000e-07	-3.941443e-06	-1.730792e-08	-2.806784e+01	-1.135291e+03
4.800000e-07	-3.844697e-06	-1.714993e-08	-2.737889e+01	-1.124360e+03
4.900000e-07	-3.746436e-06	-1.697485e-08	-2.667915e+01	-1.113004e+03
5.000000e-07	-3.646697e-06	-1.677935e-08	-2.596889e+01	-1.101223e+03
5.100000e-07	-3.545609e-06	-1.658475e-08	-2.524902e+01	-1.089006e+03
5.200000e-07	-3.443389e-06	-1.639506e-08	-2.452109e+01	-1.076329e+03
5.300000e-07	-3.339970e-06	-1.619579e-08	-2.378462e+01	-1.063157e+03
5.400000e-07	-3.235202e-06	-1.599059e-08	-2.303855e+01	-1.049447e+03
5.500000e-07	-3.129175e-06	-1.577020e-08	-2.228351e+01	-1.035149e+03
5.600000e-07	-3.021959e-06	-1.553732e-08	-2.152000e+01	-1.020216e+03
5.700000e-07	-2.913515e-06	-1.529279e-08	-2.074774e+01	-1.004604e+03
5.800000e-07	-2.804032e-06	-1.504517e-08	-1.996809e+01	-9.882749e+02
5.900000e-07	-2.693634e-06	-1.478686e-08	-1.918193e+01	-9.711944e+02
6.000000e-07	-2.582282e-06	-1.450807e-08	-1.838897e+01	-9.533280e+02
6.100000e-07	-2.469924e-06	-1.421481e-08	-1.758884e+01	-9.346378e+02
6.200000e-07	-2.356417e-06	-1.391414e-08	-1.678054e+01	-9.150777e+02
6.300000e-07	-2.241878e-06	-1.360626e-08	-1.596488e+01	-8.945911e+02
6.400000e-07	-2.126470e-06	-1.328167e-08	-1.514303e+01	-8.731107e+02
6.500000e-07	-2.010169e-06	-1.293908e-08	-1.431483e+01	-8.505596e+02
6.600000e-07	-1.893108e-06	-1.256869e-08	-1.348122e+01	-8.268536e+02
6.700000e-07	-1.775463e-06	-1.217907e-08	-1.264344e+01	-8.019038e+02
6.800000e-07	-1.657218e-06	-1.177662e-08	-1.180140e+01	-7.756183e+02
6.900000e-07	-1.538432e-06	-1.135567e-08	-1.095550e+01	-7.479027e+02
7.000000e-07	-1.419157e-06	-1.091455e-08	-1.010611e+01	-7.186609e+02
7.100000e-07	-1.299420e-06	-1.044129e-08	-9.253442e+00	-6.877964e+02
7.200000e-07	-1.179244e-06	-9.940836e-09	-8.397641e+00	-6.552168e+02
7.300000e-07	-1.058624e-06	-9.409320e-09	-7.538679e+00	-6.208422e+02
7.400000e-07	-9.375565e-07	-8.852872e-09	-6.676535e+00	-5.846182e+02
7.500000e-07	-8.160959e-07	-8.275673e-09	-5.811589e+00	-5.465314e+02
7.600000e-07	-6.943691e-07	-7.671323e-09	-4.944747e+00	-5.066264e+02
7.700000e-07	-5.724290e-07	-7.036266e-09	-4.076386e+00	-4.650176e+02
7.800000e-07	-4.503232e-07	-6.375687e-09	-3.206845e+00	-4.218945e+02
7.900000e-07	-3.280510e-07	-5.699146e-09	-2.336119e+00	-3.775142e+02
8.000000e-07	-2.056153e-07	-5.008270e-09	-1.464229e+00	-3.321811e+02
8.100000e-07	-8.303796e-08	-4.311276e-09	-5.913306e-01	-2.862144e+02
8.200000e-07	3.957015e-08	-3.610894e-09	2.817872e-01	-2.399075e+02
8.300000e-07	1.621607e-07	-2.909314e-09	1.154780e+00	-1.934868e+02
8.400000e-07	2.847517e-07	-2.202561e-09	2.027776e+00	-1.470761e+02
8.500000e-07	4.072534e-07	-1.496223e-09	2.900136e+00	-1.006774e+02
8.600000e-07	5.296260e-07	-7.878566e-10	3.771577e+00	-5.417053e+01
8.700000e-07	6.518777e-07	-7.157989e-11	4.642157e+00	-7.336690e+00
8.800000e-07	7.739804e-07	6.539603e-10	5.511675e+00	4.009819e+01
8.900000e-07	8.958488e-07	1.390966e-09	6.379526e+00	8.840574e+01
9.000000e-07	1.017432e-06	2.141201e-09	7.245346e+00	1.377931e+02
9.100000e-07	1.138631e-06	2.910410e-09	8.108428e+00	1.883473e+02
9.200000e-07	1.259281e-06	3.694423e-09	8.967600e+00	2.399970e+02
9.300000e-07	1.379362e-06	4.492650e-09	9.822721e+00	2.924976e+02
9.400000e-07	1.498886e-06	5.301584e-09	1.067388e+01	3.454444e+02
9.500000e-07	1.617896e-06	6.111943e-09	1.152137e+01	3.983100e+02
9.600000e-07	1.736441e-06	6.909603e-09	1.236556e+01	4.505010e+02
9.700000e-07	1.854367e-06	7.683544e-09	1.320533e+01	5.014221e+02
9.800000e-07	1.971616e-06	8.428122e-09	1.404029e+01	5.505387e+02
9.900000e-07	2.088122e-06	9.138429e-09	1.486995e+01	5.974265e+02
1.000000e-06	2.203733e-06	9.809785e-09	1.569324e+01	6.418019e+02
1.010000e-06	2.318445e-06	1.043721e-08	1.651013e+01	6.835295e+02
1.020000e-06	2.432227e-06	1.102624e-08	1.732040e+01	7.226090e+02
1.030000e-06	2.544905e-06	1.157762e-08	1.812280e+01	7.591463e+02
1.040000e-06	2.656458e-06	1.209985e-08	1.891719e+01	7.933161e+02
1.050000e-06	2.767120e-06	1.259000e-08	1.970524e+01	8.253236e+02
1.060000e-06	2.876916e-06	1.304817e-08	2.048711e+01	8.553726e+02
1.070000e-06	2.985785e-06	1.347604e-08	2.126240e+01	8.836447e+02
1.080000e-06	3.093695e-06	1.387832e-08	2.203085e+01	9.102892e+02
1.090000e-06	3.200523e-06	1.425904e-08	2.279159e+01	9.354242e+02
1.100000e-06	3.306101e-06	1.461987e-08	2.354344e+01	9.591449e+02
1.110000e-06	3.410316e-06	1.496249e-08	2.428557e+01	9.815334e+02
1.120000e-06	3.513287e-06	1.528469e-08	2.501885e+01	1.002669e+03
1.130000e-06	3.615085e-06	1.558771e-08	2.574378e+01	1.022633e+03
1.140000e-06	3.715696e-06	1.587276e-08	2.646024e+01	1.041511e+03
1.150000e-06	3.815117e-06	1.614491e-08	2.716824e+01	1.059388e+03
1.160000e-06	3.913201e-06	1.640156e-08	2.786672e+01	1.076346e+03
1.170000e-06	4.009682e-06	1.664657e-08	2.855378e+01	1.092455e+03
1.180000e-06	4.104644e-06	1.687991e-08	2.923002e+01	1.107774e+03
1.190000e-06	4.198269e-06	1.709993e-08	2.989675e+01	1.122348e+03
1.200000e-06	4.290526e-06	1.730663e-08	3.055373e+01	1.136213e+03
1.210000e-06	4.381434e-06	1.750479e-08	3.120110e+01	1.149399e+03
1.220000e-06	4.470617e-06	1.769329e-08	3.183619e+01	1.161934e+03
1.230000e-06	4.558004e-06	1.787257e-08	3.245849e+01	1.173849e+03
1.240000e-06	4.643835e-06	1.804347e-08	3.306971e+01	1.185176e+03
1.250000e-06	4.728123e-06	1.820928e-08	3.366995e+01	1.195951e+03
1.260000e-06	4.810918e-06	1.836900e-08	3.425955e+01	1.206209e+03
1.270000e-06	4.891921e-06	1.852067e-08	3.483639e+01	1.215977e+03
1.280000e-06	4.971034e-06	1.866418e-08	3.539976e+01	1.225278e+03
1.290000e-06	5.048352e-06	1.879803e-08	3.595037e+01	1.234124e+03
1.300000e-06	5.123750e-06	1.892448e-08	3.648729e+01	1.242524e+03
1.310000e-06	5.197030e-06	1.904582e-08	3.700913e+01	1.250481e+03
1.320000e-06	5.268296e-06	1.916116e-08	3.751663e+01	1.258002e+03
1.330000e-06	5.337737e-06	1.926902e-08	3.801113e+01	1.265100e+03
1.340000e-06	5.405392e-06	1.936940e-08	3.849292e+01	1.271794e+03
1.350000e-06	5.471043e-06	1.946474e-08	3.896044e+01	1.278114e+03
1.360000e-06	5.534608e-06	1.955616e-08	3.941310e+01	1.284095e+03
1.370000e-06	5.596329e-06	1.964220e-08	3.985263e+01	1.289774e+03
1.380000e-06	5.656253e-06	1.972403e-08	4.027935e+01	1.295182e+03
1.390000e-06	5.714053e-06	1.980213e-08	4.069096e+01	1.300345e+03
1.400000e-06	5.769743e-06	1.987660e-08	4.108754e+01	1.305278e+03
1.410000e-06	5.823449e-06	1.994792e-08	4.146999e+01	1.309985e+03
1.420000e-06	5.874866e-06	2.001719e-08	4.183615e+01	1.314463e+03
1.430000e-06	5.923828e-06	2.008268e-08	4.218481e+01	1.318704e+03
1.440000e-06	5.970493e-06	2.014336e-08	4.251713e+01	1.322698e+03
1.450000e-06	6.015164e-06	2.019956e-08	4.283524e+01	1.326440e+03
1.460000e-06	6.057782e-06	2.025283e-08	4.313873e+01	1.329930e+03
1.470000e-06	6.098181e-06	2.030279e-08	4.342642e+01	1.333172e+03
1.480000e-06	6.136404e-06	2.034929e-08	4.369861e+01	1.336174e+03
1.490000e-06	6.172677e-06	2.039154e-08	4.395692e+01	1.338944e+03
1.500000e-06	6.206721e-06	2.042873e-08	4.419935e+01	1.341490e+03
1.510000e-06	6.238372e-06	2.046223e-08	4.442474e+01	1.343818e+03
1.520000e-06	6.267917e-06	2.049334e-08	4.463514e+01	1.345930e+03
1.530000e-06	6.295477e-06	2.052224e-08	4.483140e+01	1.347825e+03
1.540000e-06	6.320710e-06	2.054758e-08	4.501109e+01	1.349504e+03
1.550000e-06	6.343436e-06	2.056924e-08	4.517293e+01	1.350970e+03
1.560000e-06	6.364076e-06	2.058883e-08	4.531991e+01	1.352230e+03
1.570000e-06	6.382600e-06	2.060602e-08	4.545182e+01	1.353294e+03
1.580000e-06	6.398706e-06	2.061963e-08	4.556652e+01	1.354176e+03
1.590000e-06	6.412394e-06	2.063063e-08	4.566399e+01	1.354892e+03
1.600000e-06	6.423599e-06	2.063868e-08	4.574379e+01	1.355456e+03
1.610000e-06	6.432240e-06	2.064495e-08	4.580532e+01	1.355876e+03
1.620000e-06	6.438508e-06	2.065133e-08	4.584996e+01	1.356158e+03
1.630000e-06	6.442653e-06	2.065749e-08	4.587947e+01	1.356299e+03
1.640000e-06	6.444496e-06	2.066163e-08	4.589260e+01	1.356294e+03
1.650000e-06	6.443928e-06	2.066262e-08	4.588855e+01	1.356135e+03
1.660000e-06	6.441229e-06	2.064822e-08	4.586934e+01	1.355814e+03
1.670000e-06	6.436553e-06	2.064302e-08	4.583603e+01	1.355328e+03
1.680000e-06	6.429761e-06	2.063390e-08	4.578767e+01	1.354675e+03
1.690000e-06	6.420790e-06	2.062027e-08	4.572378e+01	1.353862e+03
1.700000e-06	6.409790e-06	2.061076e-08	4.564545e+01	1.352895e+03
1.710000e-06	6.396506e-06	2.060452e-08	4.555085e+01	1.351785e+03
1.720000e-06	6.380956e-06	2.061465e-08	4.544012e+01	1.350541e+03
1.730000e-06	6.363513e-06	2.054000e-08	4.531590e+01	1.349170e+03
1.740000e-06	6.343934e-06	2.043073e-08	4.517647e+01	1.347678e+03
1.750000e-06	6.321307e-06	2.048460e-08	4.501535e+01	1.346065e+03
1.760000e-06	6.295493e-06	2.047320e-08	4.483151e+01	1.344326e+03
1.770000e-06	6.267544e-06	2.039968e-08	4.463249e+01	1.342457e+03
1.780000e-06	6.237763e-06	2.056486e-08	4.442041e+01	1.340448e+03
1.790000e-06	6.206447e-06	2.043489e-08	4.419740e+01	1.338288e+03
1.800000e-06	6.173722e-06	2.026845e-08	4.396436e+01	1.335966e+03
1.810000e-06	6.138859e-06	2.046008e-08	4.371610e+01	1.333468e+03
1.820000e-06	6.102026e-06	2.018197e-08	4.345379e+01	1.330782e+03
1.830000e-06	6.063102e-06	2.022787e-08	4.317661e+01	1.327898e+03
1.840000e-06	6.021704e-06	2.032169e-08	4.288181e+01	1.324806e+03
1.850000e-06	5.978273e-06	1.994924e-08	4.257253e+01	1.321504e+03
1.860000e-06	5.932728e-06	2.014318e-08	4.224819e+01	1.317994e+03
1.870000e-06	5.884985e-06	2.006153e-08	4.190820e+01	1.314286e+03
1.880000e-06	5.835187e-06	1.996646e-08	4.155358e+01	1.310392e+03
1.890000e-06	5.782757e-06	2.003514e-08	4.118021e+01	1.306329e+03
1.900000e-06	5.727828e-06	1.971704e-08	4.078906e+01	1.302110e+03
1.910000e-06	5.670772e-06	1.978390e-08	4.038275e+01	1.297745e+03
1.920000e-06	5.611738e-06	1.971933e-08	3.996236e+01	1.293231e+03
1.930000e-06	5.550806e-06	1.964559e-08	3.952844e+01	1.288557e+03
1.940000e-06	5.487699e-06	1.966472e-08	3.907905e+01	1.283700e+03
1.950000e-06	5.422471e-06	1.942872e-08	3.861455e+01	1.278630e+03
1.960000e-06	5.355206e-06	1.946296e-08	3.813554e+01	1.273312e+03
1.970000e-06	5.285887e-06	1.925603e-08	3.764190e+01	1.267718e+03
1.980000e-06	5.214543e-06	1.919502e-08	3.713385e+01	1.261826e+03
1.990000e-06	5.141301e-06	1.919258e-08	3.661228e+01	1.255627e+03
2.000000e-06	5.066260e-06	1.904152e-08	3.607789e+01	1.249124e+03
2.010000e-06	4.989125e-06	1.900236e-08	3.552859e+01	1.242332e+03
2.020000e-06	4.909952e-06	1.875928e-08	3.496479e+01	1.235269e+03
2.030000e-06	4.829013e-06	1.871972e-08	3.438840e+01	1.227953e+03
2.040000e-06	4.746442e-06	1.862521e-08	3.380040e+01	1.220393e+03
2.050000e-06	4.662388e-06	1.850055e-08	3.320183e+01	1.212587e+03
2.060000e-06	4.576540e-06	1.838801e-08	3.259050e+01	1.204518e+03
2.070000e-06	4.489005e-06	1.822029e-08	3.196714e+01	1.196157e+03
2.080000e-06	4.399899e-06	1.812588e-08	3.133260e+01	1.187468e+03
2.090000e-06	4.309297e-06	1.794436e-08	3.068740e+01	1.178416e+03
2.100000e-06	4.217377e-06	1.784542e-08	3.003282e+01	1.168968e+03
2.110000e-06	4.123918e-06	1.768748e-08	2.936728e+01	1.159103e+03
2.120000e-06	4.029000e-06	1.752700e-08	2.869135e+01	1.148811e+03
2.130000e-06	3.932638e-06	1.735722e-08	2.800513e+01	1.138091e+03
2.140000e-06	3.834813e-06	1.718284e-08	2.730850e+01	1.126945e+03
2.150000e-06	3.735755e-06	1.702919e-08	2.660309e+01	1.115375e+03
2.160000e-06	3.635370e-06	1.683849e-08	2.588823e+01	1.103377e+03
2.170000e-06	3.533493e-06	1.666605e-08	2.516274e+01	1.090931e+03
2.180000e-06	3.430313e-06	1.644942e-08	2.442798e+01	1.078010e+03
2.190000e-06	3.325853e-06	1.624951e-08	2.368409e+01	1.064573e+03
2.200000e-06	3.220138e-06	1.603252e-08	2.293128e+01	1.050572e+03
2.210000e-06	3.113388e-06	1.582500e-08	2.217108e+01	1.035961e+03
2.220000e-06	3.005602e-06	1.559092e-08	2.140352e+01	1.020692e+03
2.230000e-06	2.896692e-06	1.534138e-08	2.062795e+01	1.004724e+03
2.240000e-06	2.786779e-06	1.509042e-08	1.984523e+01	9.880214e+02
2.250000e-06	2.675935e-06	1.483279e-08	1.905589e+01	9.705505e+02
2.260000e-06	2.563961e-06	1.456448e-08	1.825850e+01	9.522754e+02
2.270000e-06	2.450913e-06	1.426890e-08	1.745346e+01	9.331547e+02
2.280000e-06	2.336921e-06	1.396444e-08	1.664170e+01	9.131372e+02
2.290000e-06	2.222016e-06	1.363549e-08	1.582344e+01	8.921609e+02
2.300000e-06	2.106251e-06	1.330195e-08	1.499905e+01	8.701534e+02
2.310000e-06	1.989604e-06	1.295488e-08	1.416839e+01	8.470337e+02
2.320000e-06	1.872081e-06	1.259681e-08	1.333148e+01	8.227152e+02
2.330000e-06	1.753828e-06	1.221069e-08	1.248938e+01	7.971073e+02
2.340000e-06	1.634987e-06	1.179416e-08	1.164308e+01	7.701167e+02
2.350000e-06	1.515666e-06	1.135348e-08	1.079337e+01	7.416482e+02
2.360000e-06	1.395863e-06	1.089544e-08	9.940229e+00	7.116051e+02
2.370000e-06	1.275561e-06	1.042160e-08	9.083534e+00	6.798921e+02
2.380000e-06	1.154810e-06	9.918615e-09	8.223642e+00	6.464219e+02
2.390000e-06	1.033667e-06	9.381783e-09	7.360957e+00	6.111253e+02
2.400000e-06	9.121969e-07	8.809140e-09	6.495944e+00	5.739664e+02
2.410000e-06	7.904064e-07	8.211249e-09	5.628648e+00	5.349588e+02
2.420000e-06	6.683884e-07	7.590182e-09	4.759733e+00	4.941810e+02
2.430000e-06	5.462142e-07	6.948178e-09	3.889705e+00	4.517849e+02
2.440000e-06	4.238786e-07	6.283384e-09	3.018528e+00	4.079956e+02
2.450000e-06	3.014143e-07	5.594167e-09	2.146434e+00	3.630971e+02
2.460000e-06	1.788240e-07	4.889516e-09	1.273443e+00	3.174059e+02
2.470000e-06	5.622333e-08	4.179350e-09	4.003781e-01	2.712338e+02
2.480000e-06	-6.639994e-08	3.472874e-09	-4.728478e-01	2.248455e+02
2.490000e-06	-1.890686e-07	2.766533e-09	-1.346397e+00	1.784198e+02
2.500000e-06	-3.116536e-07	2.056914e-09	-2.219350e+00	1.320208e+02
2.510000e-06	-4.341072e-07	1.345436e-09	-3.091368e+00	8.558809e+01
2.520000e-06	-5.564405e-07	6.302184e-10	-3.962528e+00	3.894785e+01
2.530000e-06	-6.786843e-07	-8.940774e-11	-4.833052e+00	-8.152870e+00
2.540000e-06	-8.007698e-07	-8.200934e-10	-5.702448e+00	-5.599465e+01
2.550000e-06	-9.225583e-07	-1.565872e-09	-6.569729e+00	-1.048245e+02
2.560000e-06	-1.044020e-06	-2.329517e-09	-7.434686e+00	-1.547956e+02
2.570000e-06	-1.165094e-06	-3.110735e-09	-8.296878e+00	-2.059192e+02
2.580000e-06	-1.285735e-06	-3.902358e-09	-9.155985e+00	-2.580375e+02
2.590000e-06	-1.405921e-06	-4.703265e-09	-1.001185e+01	-3.108225e+02
2.600000e-06	-1.525587e-06	-5.511243e-09	-1.086402e+01	-3.638021e+02
2.610000e-06	-1.644612e-06	-6.317662e-09	-1.171162e+01	-4.164082e+02
2.620000e-06	-1.762937e-06	-7.109989e-09	-1.255424e+01	-4.680381e+02
2.630000e-06	-1.880549e-06	-7.876995e-09	-1.339178e+01	-5.181197e+02
2.640000e-06	-1.997249e-06	-8.611253e-09	-1.422283e+01	-5.661686e+02
2.650000e-06	-2.112995e-06	-9.312554e-09	-1.504708e+01	-6.118283e+02
2.660000e-06	-2.227877e-06	-9.976110e-09	-1.586518e+01	-6.548896e+02
2.670000e-06	-2.341827e-06	-1.059860e-08	-1.667664e+01	-6.952876e+02
2.680000e-06	-2.454723e-06	-1.118070e-08	-1.748059e+01	-7.330795e+02
2.690000e-06	-2.566570e-06	-1.172067e-08	-1.827708e+01	-7.684104e+02
2.700000e-06	-2.677334e-06	-1.222309e-08	-1.906585e+01	-8.014748e+02
2.710000e-06	-2.787085e-06	-1.269485e-08	-1.984741e+01	-8.324805e+02
2.720000e-06	-2.895987e-06	-1.314302e-08	-2.062292e+01	-8.616222e+02
2.730000e-06	-3.003993e-06	-1.356584e-08	-2.139206e+01	-8.890658e+02
2.740000e-06	-3.111040e-06	-1.396572e-08	-2.215436e+01	-9.149444e+02
2.750000e-06	-3.217074e-06	-1.434107e-08	-2.290946e+01	-9.393633e+02
2.760000e-06	-3.321950e-06	-1.468973e-08	-2.365629e+01	-9.624099e+02
2.770000e-06	-3.425579e-06	-1.501944e-08	-2.439426e+01	-9.841639e+02
2.780000e-06	-3.527912e-06	-1.533291e-08	-2.512299e+01	-1.004705e+03
2.790000e-06	-3.628861e-06	-1.563075e-08	-2.584187e+01	-1.024117e+03
2.800000e-06	-3.728507e-06	-1.591251e-08	-2.655148e+01	-1.042487e+03
2.810000e-06	-3.826972e-06	-1.617795e-08	-2.725267e+01	-1.059896e+03
2.820000e-06	-3.924215e-06	-1.642913e-08	-2.794515e+01	-1.076423e+03
2.830000e-06	-4.020161e-06	-1.666918e-08	-2.862840e+01	-1.092133e+03
2.840000e-06	-4.114723e-06	-1.690126e-08	-2.930180e+01	-1.107076e+03
2.850000e-06	-4.207667e-06	-1.712391e-08	-2.996368e+01	-1.121294e+03
2.860000e-06	-4.299091e-06	-1.733522e-08	-3.061472e+01	-1.134818e+03
2.870000e-06	-4.389096e-06	-1.753298e-08	-3.125567e+01	-1.147677e+03
2.880000e-06	-4.477433e-06	-1.771722e-08	-3.188473e+01	-1.159899e+03
2.890000e-06	-4.564087e-06	-1.789264e-08	-3.250181e+01	-1.171518e+03
2.900000e-06	-4.648999e-06	-1.805882e-08	-3.310649e+01	-1.182567e+03
2.910000e-06	-4.732322e-06	-1.821749e-08	-3.369985e+01	-1.193081e+03
2.920000e-06	-4.814120e-06	-1.836972e-08	-3.428235e+01	-1.203092e+03
2.930000e-06	-4.894150e-06	-1.851773e-08	-3.485226e+01	-1.212627e+03
2.940000e-06	-4.972142e-06	-1.865876e-08	-3.540766e+01	-1.221701e+03
