# Temperatura_=_60.21
# Concentracion g/m^3_=_28200.0
# C_Vs_to_Am_M_A/Vsm_=_65563218390.804596
# pendiente_HvsI_1/m_=_3716.3
# ordenada_HvsI_A/m_=_1297.0
# frecuencia_Hz_=_302097.17258865776

Tiempo_(s)	Campo_(V.s)	Magnetizacion_(V.s)	Campo_(kA/m)	Magnetizacion_(A/m)
0.000000e+00	-6.366042e-06	-2.073762e-08	-4.557873e+01	-1.355875e+03
1.000000e-08	-6.362636e-06	-2.073319e-08	-4.555434e+01	-1.355501e+03
2.000000e-08	-6.357234e-06	-2.072336e-08	-4.551567e+01	-1.355020e+03
3.000000e-08	-6.349887e-06	-2.071387e-08	-4.546307e+01	-1.354409e+03
4.000000e-08	-6.340303e-06	-2.069940e-08	-4.539445e+01	-1.353636e+03
5.000000e-08	-6.328318e-06	-2.068072e-08	-4.530864e+01	-1.352662e+03
6.000000e-08	-6.314056e-06	-2.066085e-08	-4.520653e+01	-1.351460e+03
7.000000e-08	-6.297513e-06	-2.063091e-08	-4.508808e+01	-1.350019e+03
8.000000e-08	-6.278890e-06	-2.061814e-08	-4.495475e+01	-1.348354e+03
9.000000e-08	-6.258197e-06	-2.067072e-08	-4.480660e+01	-1.346512e+03
1.000000e-07	-6.235049e-06	-2.060980e-08	-4.464086e+01	-1.344560e+03
1.100000e-07	-6.209184e-06	-2.052590e-08	-4.445568e+01	-1.342577e+03
1.200000e-07	-6.181019e-06	-2.051435e-08	-4.425403e+01	-1.340637e+03
1.300000e-07	-6.151118e-06	-2.045851e-08	-4.403995e+01	-1.338792e+03
1.400000e-07	-6.119661e-06	-2.034380e-08	-4.381473e+01	-1.337058e+03
1.500000e-07	-6.086394e-06	-2.046547e-08	-4.357655e+01	-1.335403e+03
1.600000e-07	-6.051016e-06	-2.044791e-08	-4.332325e+01	-1.333756e+03
1.700000e-07	-6.013805e-06	-2.025591e-08	-4.305684e+01	-1.332012e+03
1.800000e-07	-5.974596e-06	-2.039351e-08	-4.277611e+01	-1.330054e+03
1.900000e-07	-5.932910e-06	-2.025304e-08	-4.247765e+01	-1.327773e+03
2.000000e-07	-5.889071e-06	-2.016180e-08	-4.216378e+01	-1.325090e+03
2.100000e-07	-5.843188e-06	-2.020481e-08	-4.183527e+01	-1.321968e+03
2.200000e-07	-5.794999e-06	-1.999251e-08	-4.149026e+01	-1.318418e+03
2.300000e-07	-5.744338e-06	-1.996724e-08	-4.112754e+01	-1.314494e+03
2.400000e-07	-5.691134e-06	-1.997653e-08	-4.074662e+01	-1.310276e+03
2.500000e-07	-5.635806e-06	-1.989814e-08	-4.035049e+01	-1.305852e+03
2.600000e-07	-5.578314e-06	-1.986898e-08	-3.993886e+01	-1.301293e+03
2.700000e-07	-5.518631e-06	-1.978020e-08	-3.951155e+01	-1.296639e+03
2.800000e-07	-5.457053e-06	-1.968622e-08	-3.907068e+01	-1.291891e+03
2.900000e-07	-5.393553e-06	-1.956490e-08	-3.861603e+01	-1.287014e+03
3.000000e-07	-5.327926e-06	-1.953033e-08	-3.814617e+01	-1.281945e+03
3.100000e-07	-5.260228e-06	-1.949137e-08	-3.766148e+01	-1.276611e+03
3.200000e-07	-5.190601e-06	-1.937858e-08	-3.716297e+01	-1.270952e+03
3.300000e-07	-5.119164e-06	-1.928386e-08	-3.665150e+01	-1.264928e+03
3.400000e-07	-5.045868e-06	-1.913549e-08	-3.612673e+01	-1.258534e+03
3.500000e-07	-4.970460e-06	-1.905595e-08	-3.558684e+01	-1.251793e+03
3.600000e-07	-4.892895e-06	-1.896775e-08	-3.503149e+01	-1.244749e+03
3.700000e-07	-4.813256e-06	-1.886182e-08	-3.446130e+01	-1.237453e+03
3.800000e-07	-4.731863e-06	-1.876770e-08	-3.387856e+01	-1.229944e+03
3.900000e-07	-4.648949e-06	-1.861083e-08	-3.328492e+01	-1.222238e+03
4.000000e-07	-4.564605e-06	-1.846709e-08	-3.268105e+01	-1.214320e+03
4.100000e-07	-4.478831e-06	-1.835208e-08	-3.206693e+01	-1.206149e+03
4.200000e-07	-4.391649e-06	-1.824792e-08	-3.144274e+01	-1.197666e+03
4.300000e-07	-4.303037e-06	-1.811130e-08	-3.080831e+01	-1.188808e+03
4.400000e-07	-4.212749e-06	-1.796062e-08	-3.016187e+01	-1.179520e+03
4.500000e-07	-4.120805e-06	-1.781822e-08	-2.950359e+01	-1.169770e+03
4.600000e-07	-4.027362e-06	-1.764644e-08	-2.883457e+01	-1.159552e+03
4.700000e-07	-3.932609e-06	-1.749110e-08	-2.815616e+01	-1.148881e+03
4.800000e-07	-3.836596e-06	-1.733310e-08	-2.746875e+01	-1.137783e+03
4.900000e-07	-3.739047e-06	-1.715732e-08	-2.677033e+01	-1.126285e+03
5.000000e-07	-3.639968e-06	-1.696007e-08	-2.606095e+01	-1.114403e+03
5.100000e-07	-3.539573e-06	-1.676332e-08	-2.534216e+01	-1.102128e+03
5.200000e-07	-3.437969e-06	-1.657712e-08	-2.461471e+01	-1.089426e+03
5.300000e-07	-3.335237e-06	-1.637609e-08	-2.387918e+01	-1.076244e+03
5.400000e-07	-3.231230e-06	-1.616814e-08	-2.313453e+01	-1.062514e+03
5.500000e-07	-3.125879e-06	-1.594761e-08	-2.238025e+01	-1.048169e+03
5.600000e-07	-3.019274e-06	-1.571972e-08	-2.161699e+01	-1.033153e+03
5.700000e-07	-2.911490e-06	-1.547596e-08	-2.084530e+01	-1.017424e+03
5.800000e-07	-2.802668e-06	-1.522504e-08	-2.006616e+01	-1.000957e+03
5.900000e-07	-2.692898e-06	-1.496061e-08	-1.928025e+01	-9.837388e+02
6.000000e-07	-2.582248e-06	-1.467714e-08	-1.848803e+01	-9.657569e+02
6.100000e-07	-2.470619e-06	-1.438417e-08	-1.768881e+01	-9.469900e+02
6.200000e-07	-2.357985e-06	-1.408560e-08	-1.688239e+01	-9.273998e+02
6.300000e-07	-2.244359e-06	-1.377999e-08	-1.606886e+01	-9.069257e+02
6.400000e-07	-2.129661e-06	-1.345714e-08	-1.524766e+01	-8.854867e+02
6.500000e-07	-2.014040e-06	-1.311438e-08	-1.441985e+01	-8.629869e+02
6.600000e-07	-1.897665e-06	-1.274278e-08	-1.358665e+01	-8.393233e+02
6.700000e-07	-1.780618e-06	-1.235436e-08	-1.274863e+01	-8.143939e+02
6.800000e-07	-1.663036e-06	-1.195529e-08	-1.190678e+01	-7.881028e+02
6.900000e-07	-1.544950e-06	-1.153634e-08	-1.106132e+01	-7.603615e+02
7.000000e-07	-1.426390e-06	-1.109359e-08	-1.021247e+01	-7.310870e+02
7.100000e-07	-1.307409e-06	-1.061995e-08	-9.360615e+00	-7.001989e+02
7.200000e-07	-1.187972e-06	-1.011827e-08	-8.505484e+00	-6.676180e+02
7.300000e-07	-1.068044e-06	-9.588030e-09	-7.646839e+00	-6.332699e+02
7.400000e-07	-9.477210e-07	-9.034585e-09	-6.785366e+00	-5.970952e+02
7.500000e-07	-8.270870e-07	-8.460454e-09	-5.921666e+00	-5.590656e+02
7.600000e-07	-7.061212e-07	-7.857917e-09	-5.055591e+00	-5.192032e+02
7.700000e-07	-5.849206e-07	-7.220124e-09	-4.187836e+00	-4.775983e+02
7.800000e-07	-4.635529e-07	-6.556669e-09	-3.318884e+00	-4.344199e+02
7.900000e-07	-3.420091e-07	-5.878431e-09	-2.448671e+00	-3.899132e+02
8.000000e-07	-2.203217e-07	-5.187053e-09	-1.577429e+00	-3.443824e+02
8.100000e-07	-9.852246e-08	-4.488370e-09	-7.053879e-01	-2.981579e+02
8.200000e-07	2.339393e-08	-3.785003e-09	1.674927e-01	-2.515532e+02
8.300000e-07	1.453219e-07	-3.078189e-09	1.040456e+00	-2.048189e+02
8.400000e-07	2.671842e-07	-2.366381e-09	1.912950e+00	-1.581019e+02
8.500000e-07	3.889954e-07	-1.654512e-09	2.785077e+00	-1.114211e+02
8.600000e-07	5.106951e-07	-9.401024e-10	3.656406e+00	-6.466428e+01
8.700000e-07	6.322624e-07	-2.192205e-10	4.526788e+00	-1.761045e+01
8.800000e-07	7.537007e-07	5.094040e-10	5.396245e+00	3.002527e+01
8.900000e-07	8.749308e-07	1.247860e-09	6.264212e+00	7.853114e+01
9.000000e-07	9.958637e-07	1.998783e-09	7.130051e+00	1.281331e+02
9.100000e-07	1.116378e-06	2.770283e-09	7.992894e+00	1.789359e+02
9.200000e-07	1.236445e-06	3.560346e-09	8.852533e+00	2.308822e+02
9.300000e-07	1.356010e-06	4.364514e-09	9.708579e+00	2.837370e+02
9.400000e-07	1.475039e-06	5.178556e-09	1.056079e+01	3.371003e+02
9.500000e-07	1.593628e-06	5.993239e-09	1.140985e+01	3.904456e+02
9.600000e-07	1.711689e-06	6.798523e-09	1.225512e+01	4.431773e+02
9.700000e-07	1.829117e-06	7.585189e-09	1.309586e+01	4.946960e+02
9.800000e-07	1.945865e-06	8.342306e-09	1.393174e+01	5.444604e+02
9.900000e-07	2.061842e-06	9.061123e-09	1.476210e+01	5.920378e+02
1.000000e-06	2.176898e-06	9.737538e-09	1.558586e+01	6.371327e+02
1.010000e-06	2.290932e-06	1.037286e-08	1.640231e+01	6.795955e+02
1.020000e-06	2.403989e-06	1.097253e-08	1.721176e+01	7.194097e+02
1.030000e-06	2.516044e-06	1.153903e-08	1.801403e+01	7.566639e+02
1.040000e-06	2.627107e-06	1.207340e-08	1.880921e+01	7.915166e+02
1.050000e-06	2.737324e-06	1.257114e-08	1.959833e+01	8.241602e+02
1.060000e-06	2.846643e-06	1.303393e-08	2.038101e+01	8.547911e+02
1.070000e-06	2.955074e-06	1.346688e-08	2.115734e+01	8.835888e+02
1.080000e-06	3.062614e-06	1.387669e-08	2.192729e+01	9.107065e+02
1.090000e-06	3.169004e-06	1.426497e-08	2.268901e+01	9.362704e+02
1.100000e-06	3.274142e-06	1.463385e-08	2.344176e+01	9.603855e+02
1.110000e-06	3.377991e-06	1.498289e-08	2.418529e+01	9.831433e+02
1.120000e-06	3.480600e-06	1.531001e-08	2.491993e+01	1.004630e+03
1.130000e-06	3.582087e-06	1.561542e-08	2.564654e+01	1.024932e+03
1.140000e-06	3.682448e-06	1.590384e-08	2.636510e+01	1.044133e+03
1.150000e-06	3.781539e-06	1.617967e-08	2.707456e+01	1.062319e+03
1.160000e-06	3.879149e-06	1.644214e-08	2.777341e+01	1.079567e+03
1.170000e-06	3.975211e-06	1.669177e-08	2.846118e+01	1.095949e+03
1.180000e-06	4.069879e-06	1.692782e-08	2.913897e+01	1.111523e+03
1.190000e-06	4.163218e-06	1.715096e-08	2.980725e+01	1.126340e+03
1.200000e-06	4.255244e-06	1.736261e-08	3.046612e+01	1.140440e+03
1.210000e-06	4.345850e-06	1.756360e-08	3.111483e+01	1.153858e+03
1.220000e-06	4.434751e-06	1.775417e-08	3.175133e+01	1.166624e+03
1.230000e-06	4.521928e-06	1.793698e-08	3.237549e+01	1.178771e+03
1.240000e-06	4.607516e-06	1.811252e-08	3.298827e+01	1.190330e+03
1.250000e-06	4.691651e-06	1.828233e-08	3.359065e+01	1.201330e+03
1.260000e-06	4.774300e-06	1.844347e-08	3.418239e+01	1.211801e+03
1.270000e-06	4.855143e-06	1.859507e-08	3.476120e+01	1.221767e+03
1.280000e-06	4.934023e-06	1.873864e-08	3.532595e+01	1.231248e+03
1.290000e-06	5.011088e-06	1.887570e-08	3.587771e+01	1.240259e+03
1.300000e-06	5.086266e-06	1.900640e-08	3.641596e+01	1.248811e+03
1.310000e-06	5.159320e-06	1.913106e-08	3.693901e+01	1.256913e+03
1.320000e-06	5.230454e-06	1.924849e-08	3.744830e+01	1.264575e+03
1.330000e-06	5.299836e-06	1.935779e-08	3.794505e+01	1.271811e+03
1.340000e-06	5.367423e-06	1.945854e-08	3.842895e+01	1.278642e+03
1.350000e-06	5.433024e-06	1.955411e-08	3.889863e+01	1.285090e+03
1.360000e-06	5.496552e-06	1.964724e-08	3.935348e+01	1.291185e+03
1.370000e-06	5.558193e-06	1.973657e-08	3.979480e+01	1.296958e+03
1.380000e-06	5.618021e-06	1.982083e-08	4.022315e+01	1.302440e+03
1.390000e-06	5.675833e-06	1.989928e-08	4.063706e+01	1.307659e+03
1.400000e-06	5.731543e-06	1.997277e-08	4.103593e+01	1.312638e+03
1.410000e-06	5.785193e-06	2.004304e-08	4.142005e+01	1.317392e+03
1.420000e-06	5.836570e-06	2.011237e-08	4.178789e+01	1.321928e+03
1.430000e-06	5.885494e-06	2.017951e-08	4.213817e+01	1.326247e+03
1.440000e-06	5.932166e-06	2.024270e-08	4.247233e+01	1.330341e+03
1.450000e-06	5.976890e-06	2.030100e-08	4.279254e+01	1.334200e+03
1.460000e-06	6.019624e-06	2.035557e-08	4.309850e+01	1.337812e+03
1.470000e-06	6.060116e-06	2.040605e-08	4.338841e+01	1.341168e+03
1.480000e-06	6.098401e-06	2.045136e-08	4.366251e+01	1.344260e+03
1.490000e-06	6.134737e-06	2.049260e-08	4.392267e+01	1.347089e+03
1.500000e-06	6.168951e-06	2.052904e-08	4.416763e+01	1.349660e+03
1.510000e-06	6.200839e-06	2.056238e-08	4.439593e+01	1.351988e+03
1.520000e-06	6.230562e-06	2.059368e-08	4.460874e+01	1.354089e+03
1.530000e-06	6.258333e-06	2.062192e-08	4.480757e+01	1.355981e+03
1.540000e-06	6.283736e-06	2.064860e-08	4.498945e+01	1.357683e+03
1.550000e-06	6.306599e-06	2.067299e-08	4.515314e+01	1.359204e+03
1.560000e-06	6.327323e-06	2.069309e-08	4.530152e+01	1.360550e+03
1.570000e-06	6.346026e-06	2.070834e-08	4.543542e+01	1.361718e+03
1.580000e-06	6.362423e-06	2.072048e-08	4.555282e+01	1.362699e+03
1.590000e-06	6.376344e-06	2.073105e-08	4.565249e+01	1.363487e+03
1.600000e-06	6.387875e-06	2.073860e-08	4.573505e+01	1.364075e+03
1.610000e-06	6.396841e-06	2.074481e-08	4.579924e+01	1.364466e+03
1.620000e-06	6.403340e-06	2.075067e-08	4.584577e+01	1.364670e+03
1.630000e-06	6.407737e-06	2.075609e-08	4.587725e+01	1.364708e+03
1.640000e-06	6.409880e-06	2.075894e-08	4.589260e+01	1.364604e+03
1.650000e-06	6.409639e-06	2.076051e-08	4.589088e+01	1.364382e+03
1.660000e-06	6.407237e-06	2.075005e-08	4.587367e+01	1.364056e+03
1.670000e-06	6.402903e-06	2.074071e-08	4.584265e+01	1.363628e+03
1.680000e-06	6.396400e-06	2.072902e-08	4.579609e+01	1.363084e+03
1.690000e-06	6.387657e-06	2.071558e-08	4.573349e+01	1.362394e+03
1.700000e-06	6.376921e-06	2.070624e-08	4.565663e+01	1.361523e+03
1.710000e-06	6.364068e-06	2.069782e-08	4.556460e+01	1.360436e+03
1.720000e-06	6.348900e-06	2.070064e-08	4.545600e+01	1.359112e+03
1.730000e-06	6.331653e-06	2.065851e-08	4.533252e+01	1.357553e+03
1.740000e-06	6.312361e-06	2.053661e-08	4.519440e+01	1.355791e+03
1.750000e-06	6.290179e-06	2.055394e-08	4.503558e+01	1.353882e+03
1.760000e-06	6.264918e-06	2.057089e-08	4.485472e+01	1.351903e+03
1.770000e-06	6.237362e-06	2.052058e-08	4.465743e+01	1.349931e+03
1.780000e-06	6.208032e-06	2.061042e-08	4.444743e+01	1.348032e+03
1.790000e-06	6.177167e-06	2.054123e-08	4.422645e+01	1.346241e+03
1.800000e-06	6.144800e-06	2.031729e-08	4.399472e+01	1.344551e+03
1.810000e-06	6.110285e-06	2.043847e-08	4.374759e+01	1.342909e+03
1.820000e-06	6.073785e-06	2.037210e-08	4.348627e+01	1.341226e+03
1.830000e-06	6.035357e-06	2.038108e-08	4.321114e+01	1.339388e+03
1.840000e-06	5.994413e-06	2.055692e-08	4.291800e+01	1.337279e+03
1.850000e-06	5.951375e-06	2.028454e-08	4.260985e+01	1.334803e+03
1.860000e-06	5.906446e-06	2.035379e-08	4.228818e+01	1.331900e+03
1.870000e-06	5.859342e-06	2.036752e-08	4.195093e+01	1.328557e+03
1.880000e-06	5.810144e-06	2.017266e-08	4.159869e+01	1.324810e+03
1.890000e-06	5.758498e-06	2.023058e-08	4.122892e+01	1.320726e+03
1.900000e-06	5.704269e-06	2.001765e-08	4.084066e+01	1.316393e+03
1.910000e-06	5.647815e-06	1.998375e-08	4.043647e+01	1.311892e+03
1.920000e-06	5.589253e-06	2.001911e-08	4.001718e+01	1.307280e+03
1.930000e-06	5.528903e-06	1.989199e-08	3.958509e+01	1.302580e+03
1.940000e-06	5.466453e-06	1.989735e-08	3.913797e+01	1.297772e+03
1.950000e-06	5.401813e-06	1.968197e-08	3.867518e+01	1.292806e+03
1.960000e-06	5.335258e-06	1.965458e-08	3.819866e+01	1.287611e+03
1.970000e-06	5.266737e-06	1.955038e-08	3.770808e+01	1.282120e+03
1.980000e-06	5.196124e-06	1.943629e-08	3.720251e+01	1.276279e+03
1.990000e-06	5.123441e-06	1.945796e-08	3.668213e+01	1.270067e+03
2.000000e-06	5.049036e-06	1.929003e-08	3.614941e+01	1.263493e+03
2.010000e-06	4.972705e-06	1.921479e-08	3.560290e+01	1.256592e+03
2.020000e-06	4.894266e-06	1.903326e-08	3.504131e+01	1.249414e+03
2.030000e-06	4.813950e-06	1.895154e-08	3.446627e+01	1.242006e+03
2.040000e-06	4.731932e-06	1.890394e-08	3.387905e+01	1.234396e+03
2.050000e-06	4.648394e-06	1.875069e-08	3.328095e+01	1.226585e+03
2.060000e-06	4.563278e-06	1.864182e-08	3.267155e+01	1.218546e+03
2.070000e-06	4.476483e-06	1.846909e-08	3.205012e+01	1.210225e+03
2.080000e-06	4.388077e-06	1.835409e-08	3.141716e+01	1.201560e+03
2.090000e-06	4.298179e-06	1.819785e-08	3.077352e+01	1.192490e+03
2.100000e-06	4.206880e-06	1.807819e-08	3.011985e+01	1.182972e+03
2.110000e-06	4.114184e-06	1.794063e-08	2.945618e+01	1.172986e+03
2.120000e-06	4.020045e-06	1.775968e-08	2.878218e+01	1.162536e+03
2.130000e-06	3.924381e-06	1.759779e-08	2.809726e+01	1.151646e+03
2.140000e-06	3.827267e-06	1.741676e-08	2.740195e+01	1.140343e+03
2.150000e-06	3.728827e-06	1.726181e-08	2.669716e+01	1.128651e+03
2.160000e-06	3.629155e-06	1.707093e-08	2.598354e+01	1.116573e+03
2.170000e-06	3.528179e-06	1.689243e-08	2.526058e+01	1.104088e+03
2.180000e-06	3.425770e-06	1.668340e-08	2.452736e+01	1.091152e+03
2.190000e-06	3.321942e-06	1.647210e-08	2.378400e+01	1.077702e+03
2.200000e-06	3.216914e-06	1.625774e-08	2.303203e+01	1.063671e+03
2.210000e-06	3.110838e-06	1.604114e-08	2.227256e+01	1.048995e+03
2.220000e-06	3.003670e-06	1.581087e-08	2.150528e+01	1.033625e+03
2.230000e-06	2.895450e-06	1.555841e-08	2.073045e+01	1.017527e+03
2.240000e-06	2.786268e-06	1.531326e-08	1.994875e+01	1.000684e+03
2.250000e-06	2.676105e-06	1.505484e-08	1.916002e+01	9.830834e+02
2.260000e-06	2.564889e-06	1.478120e-08	1.836375e+01	9.647107e+02
2.270000e-06	2.452687e-06	1.447908e-08	1.756042e+01	9.455363e+02
2.280000e-06	2.339511e-06	1.417092e-08	1.675012e+01	9.255111e+02
2.290000e-06	2.225331e-06	1.384779e-08	1.593262e+01	9.045638e+02
2.300000e-06	2.110311e-06	1.351562e-08	1.510912e+01	8.826051e+02
2.310000e-06	1.994579e-06	1.316868e-08	1.428052e+01	8.595344e+02
2.320000e-06	1.878061e-06	1.280418e-08	1.344629e+01	8.352484e+02
2.330000e-06	1.760765e-06	1.241471e-08	1.260649e+01	8.096477e+02
2.340000e-06	1.642762e-06	1.199571e-08	1.176163e+01	7.826402e+02
2.350000e-06	1.524136e-06	1.155904e-08	1.091231e+01	7.541405e+02
2.360000e-06	1.404932e-06	1.110681e-08	1.005885e+01	7.240672e+02
2.370000e-06	1.285215e-06	1.063494e-08	9.201710e+00	6.923405e+02
2.380000e-06	1.165041e-06	1.012732e-08	8.341301e+00	6.588827e+02
2.390000e-06	1.044504e-06	9.584327e-09	7.478299e+00	6.236253e+02
2.400000e-06	9.236454e-07	9.008848e-09	6.612992e+00	5.865221e+02
2.410000e-06	8.024922e-07	8.411958e-09	5.745576e+00	5.475674e+02
2.420000e-06	6.811442e-07	7.793004e-09	4.876765e+00	5.068157e+02
2.430000e-06	5.596247e-07	7.151081e-09	4.006726e+00	4.643960e+02
2.440000e-06	4.379395e-07	6.486177e-09	3.135500e+00	4.205166e+02
2.450000e-06	3.161278e-07	5.795514e-09	2.263369e+00	3.754553e+02
2.460000e-06	1.941831e-07	5.087453e-09	1.390286e+00	3.295343e+02
2.470000e-06	7.212751e-08	4.372133e-09	5.164089e-01	2.830814e+02
2.480000e-06	-4.999947e-08	3.659809e-09	-3.579795e-01	2.363843e+02
2.490000e-06	-1.721383e-07	2.947865e-09	-1.232453e+00	1.896460e+02
2.500000e-06	-2.941584e-07	2.231480e-09	-2.106076e+00	1.429512e+02
2.510000e-06	-4.160483e-07	1.514251e-09	-2.978766e+00	9.625208e+01
2.520000e-06	-5.378621e-07	7.963911e-10	-3.850912e+00	4.937769e+01
2.530000e-06	-6.595060e-07	7.516554e-11	-4.721842e+00	2.068307e+00
2.540000e-06	-7.808978e-07	-6.574566e-10	-5.590967e+00	-4.597079e+01
2.550000e-06	-9.020281e-07	-1.405283e-09	-6.458220e+00	-9.500477e+01
2.560000e-06	-1.022893e-06	-2.169800e-09	-7.323573e+00	-1.452055e+02
2.570000e-06	-1.143468e-06	-2.954317e-09	-8.186846e+00	-1.966002e+02
2.580000e-06	-1.263590e-06	-3.753828e-09	-9.046884e+00	-2.490431e+02
2.590000e-06	-1.383173e-06	-4.564444e-09	-9.903055e+00	-3.022131e+02
2.600000e-06	-1.502184e-06	-5.382255e-09	-1.075513e+01	-3.556410e+02
2.610000e-06	-1.620593e-06	-6.196112e-09	-1.160290e+01	-4.087577e+02
2.620000e-06	-1.738329e-06	-6.995760e-09	-1.244586e+01	-4.609575e+02
2.630000e-06	-1.855237e-06	-7.773175e-09	-1.328288e+01	-5.116628e+02
2.640000e-06	-1.971278e-06	-8.520438e-09	-1.411369e+01	-5.603817e+02
2.650000e-06	-2.086542e-06	-9.232045e-09	-1.493894e+01	-6.067475e+02
2.660000e-06	-2.200915e-06	-9.903425e-09	-1.575781e+01	-6.505382e+02
2.670000e-06	-2.314226e-06	-1.053593e-08	-1.656908e+01	-6.916734e+02
2.680000e-06	-2.426529e-06	-1.112962e-08	-1.737313e+01	-7.301932e+02
2.690000e-06	-2.537820e-06	-1.168487e-08	-1.816994e+01	-7.662259e+02
2.700000e-06	-2.648060e-06	-1.220266e-08	-1.895923e+01	-7.999511e+02
2.710000e-06	-2.757394e-06	-1.268748e-08	-1.974202e+01	-8.315665e+02
2.720000e-06	-2.865883e-06	-1.314449e-08	-2.051876e+01	-8.612618e+02
2.730000e-06	-2.973484e-06	-1.357261e-08	-2.128915e+01	-8.892041e+02
2.740000e-06	-3.080151e-06	-1.397541e-08	-2.205285e+01	-9.155326e+02
2.750000e-06	-3.185776e-06	-1.435550e-08	-2.280909e+01	-9.403620e+02
2.760000e-06	-3.290265e-06	-1.471170e-08	-2.355720e+01	-9.637894e+02
2.770000e-06	-3.393514e-06	-1.504650e-08	-2.429643e+01	-9.859031e+02
2.780000e-06	-3.495476e-06	-1.536629e-08	-2.502644e+01	-1.006789e+03
2.790000e-06	-3.596171e-06	-1.567112e-08	-2.574738e+01	-1.026531e+03
2.800000e-06	-3.695605e-06	-1.595865e-08	-2.645930e+01	-1.045217e+03
2.810000e-06	-3.793761e-06	-1.622910e-08	-2.716206e+01	-1.062926e+03
2.820000e-06	-3.890690e-06	-1.648499e-08	-2.785604e+01	-1.079735e+03
2.830000e-06	-3.986309e-06	-1.672979e-08	-2.854064e+01	-1.095708e+03
2.840000e-06	-4.080436e-06	-1.696383e-08	-2.921456e+01	-1.110900e+03
2.850000e-06	-4.173055e-06	-1.718808e-08	-2.987768e+01	-1.125356e+03
2.860000e-06	-4.264206e-06	-1.740379e-08	-3.053029e+01	-1.139113e+03
2.870000e-06	-4.353816e-06	-1.760739e-08	-3.117187e+01	-1.152203e+03
2.880000e-06	-4.441864e-06	-1.779880e-08	-3.180226e+01	-1.164658e+03
2.890000e-06	-4.528261e-06	-1.797897e-08	-3.242083e+01	-1.176508e+03
2.900000e-06	-4.612901e-06	-1.814740e-08	-3.302683e+01	-1.187786e+03
2.910000e-06	-4.695993e-06	-1.830996e-08	-3.362174e+01	-1.198520e+03
2.920000e-06	-4.777568e-06	-1.846695e-08	-3.420579e+01	-1.208738e+03
2.930000e-06	-4.857340e-06	-1.861799e-08	-3.477693e+01	-1.218462e+03
2.940000e-06	-4.935092e-06	-1.876052e-08	-3.533361e+01	-1.227708e+03
