# Temperatura_=_75.92
# Concentracion g/m^3_=_28200.0
# C_Vs_to_Am_M_A/Vsm_=_65563218390.804596
# pendiente_HvsI_1/m_=_3716.3
# ordenada_HvsI_A/m_=_1297.0
# frecuencia_Hz_=_302097.1225942511

Tiempo_(s)	Campo_(V.s)	Magnetizacion_(V.s)	Campo_(kA/m)	Magnetizacion_(A/m)
0.000000e+00	-6.402951e-06	-2.181104e-08	-4.558685e+01	-1.427744e+03
1.000000e-08	-6.401120e-06	-2.181309e-08	-4.557381e+01	-1.427417e+03
2.000000e-08	-6.397060e-06	-2.180555e-08	-4.554491e+01	-1.426966e+03
3.000000e-08	-6.391041e-06	-2.179485e-08	-4.550206e+01	-1.426381e+03
4.000000e-08	-6.383074e-06	-2.178535e-08	-4.544533e+01	-1.425636e+03
5.000000e-08	-6.372806e-06	-2.176963e-08	-4.537223e+01	-1.424705e+03
6.000000e-08	-6.360108e-06	-2.174794e-08	-4.528182e+01	-1.423562e+03
7.000000e-08	-6.345127e-06	-2.171663e-08	-4.517516e+01	-1.422193e+03
8.000000e-08	-6.327892e-06	-2.168033e-08	-4.505245e+01	-1.420600e+03
9.000000e-08	-6.308631e-06	-2.170126e-08	-4.491532e+01	-1.418812e+03
1.000000e-07	-6.287072e-06	-2.178188e-08	-4.476183e+01	-1.416873e+03
1.100000e-07	-6.263002e-06	-2.166308e-08	-4.459046e+01	-1.414845e+03
1.200000e-07	-6.236400e-06	-2.156318e-08	-4.440106e+01	-1.412787e+03
1.300000e-07	-6.207522e-06	-2.157468e-08	-4.419546e+01	-1.410750e+03
1.400000e-07	-6.176898e-06	-2.146225e-08	-4.397743e+01	-1.408757e+03
1.500000e-07	-6.144753e-06	-2.132192e-08	-4.374856e+01	-1.406799e+03
1.600000e-07	-6.110717e-06	-2.159556e-08	-4.350624e+01	-1.404829e+03
1.700000e-07	-6.074606e-06	-2.145316e-08	-4.324914e+01	-1.402772e+03
1.800000e-07	-6.036661e-06	-2.123206e-08	-4.297899e+01	-1.400535e+03
1.900000e-07	-5.996497e-06	-2.146212e-08	-4.269303e+01	-1.398021e+03
2.000000e-07	-5.953865e-06	-2.116459e-08	-4.238951e+01	-1.395153e+03
2.100000e-07	-5.909146e-06	-2.116327e-08	-4.207112e+01	-1.391883e+03
2.200000e-07	-5.862317e-06	-2.122408e-08	-4.173771e+01	-1.388199e+03
2.300000e-07	-5.813095e-06	-2.096972e-08	-4.138727e+01	-1.384130e+03
2.400000e-07	-5.761387e-06	-2.099727e-08	-4.101913e+01	-1.379733e+03
2.500000e-07	-5.707184e-06	-2.093733e-08	-4.063322e+01	-1.375077e+03
2.600000e-07	-5.650850e-06	-2.084167e-08	-4.023214e+01	-1.370229e+03
2.700000e-07	-5.592363e-06	-2.081891e-08	-3.981573e+01	-1.365236e+03
2.800000e-07	-5.531788e-06	-2.071107e-08	-3.938446e+01	-1.360114e+03
2.900000e-07	-5.469373e-06	-2.063233e-08	-3.894009e+01	-1.354848e+03
3.000000e-07	-5.404953e-06	-2.049840e-08	-3.848144e+01	-1.349397e+03
3.100000e-07	-5.338379e-06	-2.048275e-08	-3.800745e+01	-1.343704e+03
3.200000e-07	-5.269703e-06	-2.039214e-08	-3.751851e+01	-1.337713e+03
3.300000e-07	-5.199105e-06	-2.026970e-08	-3.701587e+01	-1.331381e+03
3.400000e-07	-5.126724e-06	-2.018017e-08	-3.650054e+01	-1.324689e+03
3.500000e-07	-5.052384e-06	-2.001492e-08	-3.597127e+01	-1.317644e+03
3.600000e-07	-4.975858e-06	-1.995530e-08	-3.542643e+01	-1.310275e+03
3.700000e-07	-4.897280e-06	-1.983232e-08	-3.486698e+01	-1.302620e+03
3.800000e-07	-4.816737e-06	-1.972221e-08	-3.429354e+01	-1.294714e+03
3.900000e-07	-4.734459e-06	-1.961479e-08	-3.370775e+01	-1.286577e+03
4.000000e-07	-4.650710e-06	-1.945040e-08	-3.311148e+01	-1.278210e+03
4.100000e-07	-4.565473e-06	-1.930597e-08	-3.250462e+01	-1.269585e+03
4.200000e-07	-4.478795e-06	-1.917958e-08	-3.188750e+01	-1.260659e+03
4.300000e-07	-4.390760e-06	-1.906699e-08	-3.126073e+01	-1.251379e+03
4.400000e-07	-4.301181e-06	-1.890778e-08	-3.062295e+01	-1.241696e+03
4.500000e-07	-4.209901e-06	-1.874566e-08	-2.997307e+01	-1.231574e+03
4.600000e-07	-4.117021e-06	-1.858756e-08	-2.931180e+01	-1.220996e+03
4.700000e-07	-4.022754e-06	-1.840594e-08	-2.864065e+01	-1.209966e+03
4.800000e-07	-3.927200e-06	-1.824356e-08	-2.796034e+01	-1.198499e+03
4.900000e-07	-3.830211e-06	-1.807149e-08	-2.726981e+01	-1.186614e+03
5.000000e-07	-3.731713e-06	-1.788145e-08	-2.656854e+01	-1.174324e+03
5.100000e-07	-3.631825e-06	-1.767319e-08	-2.585737e+01	-1.161622e+03
5.200000e-07	-3.530581e-06	-1.746630e-08	-2.513655e+01	-1.148483e+03
5.300000e-07	-3.428072e-06	-1.726256e-08	-2.440671e+01	-1.134861e+03
5.400000e-07	-3.324397e-06	-1.704623e-08	-2.366858e+01	-1.120698e+03
5.500000e-07	-3.219484e-06	-1.682617e-08	-2.292164e+01	-1.105933e+03
5.600000e-07	-3.113229e-06	-1.658868e-08	-2.216514e+01	-1.090510e+03
5.700000e-07	-3.005638e-06	-1.633932e-08	-2.139913e+01	-1.074387e+03
5.800000e-07	-2.896919e-06	-1.607770e-08	-2.062509e+01	-1.057535e+03
5.900000e-07	-2.787194e-06	-1.581056e-08	-1.984388e+01	-1.039938e+03
6.000000e-07	-2.676561e-06	-1.553123e-08	-1.905621e+01	-1.021582e+03
6.100000e-07	-2.565056e-06	-1.523420e-08	-1.826233e+01	-1.002447e+03
6.200000e-07	-2.452558e-06	-1.492861e-08	-1.746138e+01	-9.824958e+02
6.300000e-07	-2.339015e-06	-1.461127e-08	-1.665300e+01	-9.616746e+02
6.400000e-07	-2.224420e-06	-1.428183e-08	-1.583712e+01	-9.399073e+02
6.500000e-07	-2.108838e-06	-1.393355e-08	-1.501421e+01	-9.171021e+02
6.600000e-07	-1.992369e-06	-1.356902e-08	-1.418500e+01	-8.931578e+02
6.700000e-07	-1.875147e-06	-1.317858e-08	-1.335041e+01	-8.679721e+02
6.800000e-07	-1.757320e-06	-1.276914e-08	-1.251153e+01	-8.414459e+02
6.900000e-07	-1.638988e-06	-1.234682e-08	-1.166904e+01	-8.134859e+02
7.000000e-07	-1.520125e-06	-1.190205e-08	-1.082277e+01	-7.840017e+02
7.100000e-07	-1.400670e-06	-1.143087e-08	-9.972294e+00	-7.529026e+02
7.200000e-07	-1.280756e-06	-1.092583e-08	-9.118549e+00	-7.200942e+02
7.300000e-07	-1.160480e-06	-1.039634e-08	-8.262223e+00	-6.854801e+02
7.400000e-07	-1.039806e-06	-9.835329e-09	-7.403067e+00	-6.489694e+02
7.500000e-07	-9.187182e-07	-9.249769e-09	-6.540963e+00	-6.104922e+02
7.600000e-07	-7.972759e-07	-8.638685e-09	-5.676335e+00	-5.700196e+02
7.700000e-07	-6.755126e-07	-7.992816e-09	-4.809421e+00	-5.275856e+02
7.800000e-07	-5.535173e-07	-7.313725e-09	-3.940856e+00	-4.833028e+02
7.900000e-07	-4.313561e-07	-6.611681e-09	-3.071110e+00	-4.373689e+02
8.000000e-07	-3.090188e-07	-5.893892e-09	-2.200110e+00	-3.900564e+02
8.100000e-07	-1.865295e-07	-5.159062e-09	-1.328027e+00	-3.416878e+02
8.200000e-07	-6.387913e-08	-4.417900e-09	-4.547978e-01	-2.925952e+02
8.300000e-07	5.885080e-08	-3.670507e-09	4.189978e-01	-2.430735e+02
8.400000e-07	1.815709e-07	-2.917702e-09	1.292723e+00	-1.933345e+02
8.500000e-07	3.042630e-07	-2.156502e-09	2.166250e+00	-1.434726e+02
8.600000e-07	4.268545e-07	-1.393375e-09	3.039060e+00	-9.345010e+01
8.700000e-07	5.492522e-07	-6.248120e-10	3.910490e+00	-4.310791e+01
8.800000e-07	6.715159e-07	1.539448e-10	4.780966e+00	7.798867e+00
8.900000e-07	7.936434e-07	9.440180e-10	5.650473e+00	5.954489e+01
9.000000e-07	9.154656e-07	1.748783e-09	6.517806e+00	1.123679e+02
9.100000e-07	1.036918e-06	2.566122e-09	7.382505e+00	1.664036e+02
9.200000e-07	1.158002e-06	3.401348e-09	8.244580e+00	2.216336e+02
9.300000e-07	1.278636e-06	4.251296e-09	9.103459e+00	2.778586e+02
9.400000e-07	1.398725e-06	5.114167e-09	9.958449e+00	3.346989e+02
9.500000e-07	1.518280e-06	5.984899e-09	1.080964e+01	3.916260e+02
9.600000e-07	1.637327e-06	6.850611e-09	1.165722e+01	4.480163e+02
9.700000e-07	1.755823e-06	7.693381e-09	1.250087e+01	5.032195e+02
9.800000e-07	1.873703e-06	8.504667e-09	1.334013e+01	5.566286e+02
9.900000e-07	1.990874e-06	9.280801e-09	1.417435e+01	6.077395e+02
1.000000e-06	2.107259e-06	1.001208e-08	1.500297e+01	6.561921e+02
1.010000e-06	2.222728e-06	1.069916e-08	1.582507e+01	7.017871e+02
1.020000e-06	2.337218e-06	1.134013e-08	1.664020e+01	7.444795e+02
1.030000e-06	2.450695e-06	1.194236e-08	1.744812e+01	7.843518e+02
1.040000e-06	2.563117e-06	1.250689e-08	1.824853e+01	8.215757e+02
1.050000e-06	2.674520e-06	1.303995e-08	1.904168e+01	8.563705e+02
1.060000e-06	2.785012e-06	1.353825e-08	1.982834e+01	8.889654e+02
1.070000e-06	2.894674e-06	1.400534e-08	2.060910e+01	9.195720e+02
1.080000e-06	3.003464e-06	1.444242e-08	2.138365e+01	9.483703e+02
1.090000e-06	3.111236e-06	1.485174e-08	2.215095e+01	9.755052e+02
1.100000e-06	3.217929e-06	1.523826e-08	2.291057e+01	1.001093e+03
1.110000e-06	3.323352e-06	1.560366e-08	2.366114e+01	1.025232e+03
1.120000e-06	3.427382e-06	1.595186e-08	2.440180e+01	1.048014e+03
1.130000e-06	3.530221e-06	1.628014e-08	2.513398e+01	1.069530e+03
1.140000e-06	3.631915e-06	1.659102e-08	2.585800e+01	1.089874e+03
1.150000e-06	3.732432e-06	1.688394e-08	2.657365e+01	1.109142e+03
1.160000e-06	3.831705e-06	1.716338e-08	2.728044e+01	1.127425e+03
1.170000e-06	3.929498e-06	1.742777e-08	2.797670e+01	1.144805e+03
1.180000e-06	4.025692e-06	1.767888e-08	2.866157e+01	1.161349e+03
1.190000e-06	4.120451e-06	1.791738e-08	2.933622e+01	1.177110e+03
1.200000e-06	4.213910e-06	1.814439e-08	3.000162e+01	1.192126e+03
1.210000e-06	4.306012e-06	1.835870e-08	3.065735e+01	1.206428e+03
1.220000e-06	4.396617e-06	1.856367e-08	3.130243e+01	1.220041e+03
1.230000e-06	4.485493e-06	1.875739e-08	3.193520e+01	1.232994e+03
1.240000e-06	4.572654e-06	1.894144e-08	3.255575e+01	1.245318e+03
1.250000e-06	4.658284e-06	1.911775e-08	3.316541e+01	1.257051e+03
1.260000e-06	4.742378e-06	1.928983e-08	3.376413e+01	1.268232e+03
1.270000e-06	4.824842e-06	1.945638e-08	3.435125e+01	1.278895e+03
1.280000e-06	4.905457e-06	1.961503e-08	3.492519e+01	1.289073e+03
1.290000e-06	4.984213e-06	1.976392e-08	3.548591e+01	1.298787e+03
1.300000e-06	5.061189e-06	1.990335e-08	3.603395e+01	1.308049e+03
1.310000e-06	5.136244e-06	2.003553e-08	3.656832e+01	1.316862e+03
1.320000e-06	5.209190e-06	2.016148e-08	3.708767e+01	1.325228e+03
1.330000e-06	5.280131e-06	2.028419e-08	3.759275e+01	1.333145e+03
1.340000e-06	5.349278e-06	2.040022e-08	3.808505e+01	1.340621e+03
1.350000e-06	5.416637e-06	2.050810e-08	3.856462e+01	1.347667e+03
1.360000e-06	5.481966e-06	2.060993e-08	3.902974e+01	1.354309e+03
1.370000e-06	5.545230e-06	2.070671e-08	3.948016e+01	1.360576e+03
1.380000e-06	5.606648e-06	2.079699e-08	3.991744e+01	1.366507e+03
1.390000e-06	5.666295e-06	2.088167e-08	4.034211e+01	1.372140e+03
1.400000e-06	5.723915e-06	2.096212e-08	4.075234e+01	1.377507e+03
1.410000e-06	5.779360e-06	2.103969e-08	4.114709e+01	1.382637e+03
1.420000e-06	5.832726e-06	2.111417e-08	4.152704e+01	1.387545e+03
1.430000e-06	5.883691e-06	2.118600e-08	4.188990e+01	1.392236e+03
1.440000e-06	5.932164e-06	2.125503e-08	4.223500e+01	1.396707e+03
1.450000e-06	5.978515e-06	2.132076e-08	4.256501e+01	1.400946e+03
1.460000e-06	6.022968e-06	2.138236e-08	4.288149e+01	1.404938e+03
1.470000e-06	6.065288e-06	2.143886e-08	4.318280e+01	1.408669e+03
1.480000e-06	6.105338e-06	2.149073e-08	4.346794e+01	1.412130e+03
1.490000e-06	6.143282e-06	2.153920e-08	4.373809e+01	1.415316e+03
1.500000e-06	6.179249e-06	2.158348e-08	4.399417e+01	1.418231e+03
1.510000e-06	6.212939e-06	2.162287e-08	4.423403e+01	1.420884e+03
1.520000e-06	6.244294e-06	2.165961e-08	4.445726e+01	1.423291e+03
1.530000e-06	6.273618e-06	2.169235e-08	4.466604e+01	1.425468e+03
1.540000e-06	6.300916e-06	2.172006e-08	4.486039e+01	1.427431e+03
1.550000e-06	6.325783e-06	2.174530e-08	4.503744e+01	1.429191e+03
1.560000e-06	6.348156e-06	2.176991e-08	4.519672e+01	1.430757e+03
1.570000e-06	6.368465e-06	2.179199e-08	4.534132e+01	1.432128e+03
1.580000e-06	6.386597e-06	2.180943e-08	4.547041e+01	1.433302e+03
1.590000e-06	6.402294e-06	2.182118e-08	4.558217e+01	1.434272e+03
1.600000e-06	6.415592e-06	2.182953e-08	4.567685e+01	1.435035e+03
1.610000e-06	6.426314e-06	2.183872e-08	4.575318e+01	1.435592e+03
1.620000e-06	6.434477e-06	2.184774e-08	4.581131e+01	1.435951e+03
1.630000e-06	6.440434e-06	2.185392e-08	4.585371e+01	1.436126e+03
1.640000e-06	6.444357e-06	2.185735e-08	4.588164e+01	1.436135e+03
1.650000e-06	6.445896e-06	2.185967e-08	4.589260e+01	1.436001e+03
1.660000e-06	6.445013e-06	2.186053e-08	4.588631e+01	1.435738e+03
1.670000e-06	6.442088e-06	2.184164e-08	4.586549e+01	1.435353e+03
1.680000e-06	6.437023e-06	2.183422e-08	4.582943e+01	1.434840e+03
1.690000e-06	6.429749e-06	2.182331e-08	4.577764e+01	1.434183e+03
1.700000e-06	6.420390e-06	2.180906e-08	4.571100e+01	1.433354e+03
1.710000e-06	6.408988e-06	2.179992e-08	4.562983e+01	1.432326e+03
1.720000e-06	6.395263e-06	2.179472e-08	4.553211e+01	1.431077e+03
1.730000e-06	6.379359e-06	2.181015e-08	4.541888e+01	1.429601e+03
1.740000e-06	6.361628e-06	2.171245e-08	4.529264e+01	1.427911e+03
1.750000e-06	6.341610e-06	2.156939e-08	4.515012e+01	1.426045e+03
1.760000e-06	6.318475e-06	2.164884e-08	4.498540e+01	1.424055e+03
1.770000e-06	6.292264e-06	2.164540e-08	4.479879e+01	1.422004e+03
1.780000e-06	6.264017e-06	2.156714e-08	4.459768e+01	1.419950e+03
1.790000e-06	6.234046e-06	2.177603e-08	4.438430e+01	1.417931e+03
1.800000e-06	6.202564e-06	2.158727e-08	4.416016e+01	1.415956e+03
1.810000e-06	6.169584e-06	2.134692e-08	4.392535e+01	1.413998e+03
1.820000e-06	6.134358e-06	2.161860e-08	4.367456e+01	1.411998e+03
1.830000e-06	6.097027e-06	2.135163e-08	4.340877e+01	1.409868e+03
1.840000e-06	6.057526e-06	2.148599e-08	4.312754e+01	1.407512e+03
1.850000e-06	6.015676e-06	2.166173e-08	4.282958e+01	1.404841e+03
1.860000e-06	5.971935e-06	2.120478e-08	4.251816e+01	1.401788e+03
1.870000e-06	5.925997e-06	2.144364e-08	4.219109e+01	1.398323e+03
1.880000e-06	5.877841e-06	2.131749e-08	4.184825e+01	1.394453e+03
1.890000e-06	5.827579e-06	2.117035e-08	4.149039e+01	1.390223e+03
1.900000e-06	5.774617e-06	2.129177e-08	4.111332e+01	1.385695e+03
1.910000e-06	5.719256e-06	2.094447e-08	4.071917e+01	1.380941e+03
1.920000e-06	5.661837e-06	2.105879e-08	4.031036e+01	1.376020e+03
1.930000e-06	5.602493e-06	2.097753e-08	3.988786e+01	1.370965e+03
1.940000e-06	5.541218e-06	2.084685e-08	3.945160e+01	1.365779e+03
1.950000e-06	5.477715e-06	2.087041e-08	3.899948e+01	1.360432e+03
1.960000e-06	5.412217e-06	2.059083e-08	3.853316e+01	1.354874e+03
1.970000e-06	5.344740e-06	2.066660e-08	3.805274e+01	1.349048e+03
1.980000e-06	5.275205e-06	2.044360e-08	3.755768e+01	1.342901e+03
1.990000e-06	5.203564e-06	2.037795e-08	3.704762e+01	1.336401e+03
2.000000e-06	5.129950e-06	2.037843e-08	3.652351e+01	1.329541e+03
2.010000e-06	5.054520e-06	2.017022e-08	3.598648e+01	1.322340e+03
2.020000e-06	4.976973e-06	2.013892e-08	3.543436e+01	1.314832e+03
2.030000e-06	4.897426e-06	1.988028e-08	3.486802e+01	1.307055e+03
2.040000e-06	4.816167e-06	1.985874e-08	3.428948e+01	1.299039e+03
2.050000e-06	4.733363e-06	1.975069e-08	3.369995e+01	1.290796e+03
2.060000e-06	4.648991e-06	1.959113e-08	3.309925e+01	1.282312e+03
2.070000e-06	4.562838e-06	1.947170e-08	3.248587e+01	1.273552e+03
2.080000e-06	4.475034e-06	1.928038e-08	3.186073e+01	1.264467e+03
2.090000e-06	4.385704e-06	1.918833e-08	3.122473e+01	1.255004e+03
2.100000e-06	4.295009e-06	1.898961e-08	3.057902e+01	1.245118e+03
2.110000e-06	4.202860e-06	1.888449e-08	2.992295e+01	1.234784e+03
2.120000e-06	4.109146e-06	1.871119e-08	2.925573e+01	1.223993e+03
2.130000e-06	4.013965e-06	1.853111e-08	2.857808e+01	1.212756e+03
2.140000e-06	3.917345e-06	1.834909e-08	2.789017e+01	1.201092e+03
2.150000e-06	3.819384e-06	1.815456e-08	2.719273e+01	1.189017e+03
2.160000e-06	3.720188e-06	1.799141e-08	2.648648e+01	1.176536e+03
2.170000e-06	3.619647e-06	1.778279e-08	2.577067e+01	1.163634e+03
2.180000e-06	3.517625e-06	1.759895e-08	2.504430e+01	1.150276e+03
2.190000e-06	3.414210e-06	1.736627e-08	2.430802e+01	1.136409e+03
2.200000e-06	3.309484e-06	1.715643e-08	2.356241e+01	1.121973e+03
2.210000e-06	3.203635e-06	1.692238e-08	2.280880e+01	1.106907e+03
2.220000e-06	3.096781e-06	1.669227e-08	2.204804e+01	1.091162e+03
2.230000e-06	2.988751e-06	1.643943e-08	2.127890e+01	1.074701e+03
2.240000e-06	2.879635e-06	1.617500e-08	2.050203e+01	1.057504e+03
2.250000e-06	2.769612e-06	1.590835e-08	1.971870e+01	1.039555e+03
2.260000e-06	2.658502e-06	1.562485e-08	1.892763e+01	1.020839e+03
2.270000e-06	2.546318e-06	1.533347e-08	1.812892e+01	1.001329e+03
2.280000e-06	2.433126e-06	1.501800e-08	1.732303e+01	9.809807e+02
2.290000e-06	2.318930e-06	1.469838e-08	1.651000e+01	9.597294e+02
2.300000e-06	2.203840e-06	1.435206e-08	1.569060e+01	9.374908e+02
2.310000e-06	2.087947e-06	1.399994e-08	1.486548e+01	9.141681e+02
2.320000e-06	1.971213e-06	1.362814e-08	1.403437e+01	8.896586e+02
2.330000e-06	1.853632e-06	1.323999e-08	1.319723e+01	8.638610e+02
2.340000e-06	1.735280e-06	1.282226e-08	1.235461e+01	8.366790e+02
2.350000e-06	1.616285e-06	1.238002e-08	1.150740e+01	8.080210e+02
2.360000e-06	1.496752e-06	1.192020e-08	1.065637e+01	7.777970e+02
2.370000e-06	1.376659e-06	1.144060e-08	9.801347e+00	7.459148e+02
2.380000e-06	1.256109e-06	1.093414e-08	8.943073e+00	7.122785e+02
2.390000e-06	1.135276e-06	1.038927e-08	8.082781e+00	6.767928e+02
2.400000e-06	1.014164e-06	9.816255e-09	7.220507e+00	6.393743e+02
2.410000e-06	8.927217e-07	9.211836e-09	6.355877e+00	5.999695e+02
2.420000e-06	7.709728e-07	8.581405e-09	5.489066e+00	5.585760e+02
2.430000e-06	6.489868e-07	7.920826e-09	4.620567e+00	5.152630e+02
2.440000e-06	5.268560e-07	7.232411e-09	3.751037e+00	4.701826e+02
2.450000e-06	4.046158e-07	6.520974e-09	2.880728e+00	4.235695e+02
2.460000e-06	2.822376e-07	5.786182e-09	2.009436e+00	3.757235e+02
2.470000e-06	1.596873e-07	5.036546e-09	1.136919e+00	3.269771e+02
2.480000e-06	3.702128e-08	4.280361e-09	2.635790e-01	2.776511e+02
2.490000e-06	-8.566065e-08	3.526028e-09	-6.098749e-01	2.280073e+02
2.500000e-06	-2.082539e-07	2.766898e-09	-1.482697e+00	1.782059e+02
2.510000e-06	-3.307658e-07	2.000881e-09	-2.354941e+00	1.282806e+02
2.520000e-06	-4.532311e-07	1.231782e-09	-3.226852e+00	7.813429e+01
2.530000e-06	-5.755350e-07	4.550876e-10	-4.097614e+00	2.756224e+01
2.540000e-06	-6.976740e-07	-3.306166e-10	-4.967203e+00	-2.370214e+01
2.550000e-06	-8.196388e-07	-1.129903e-09	-5.835551e+00	-7.592490e+01
2.560000e-06	-9.413213e-07	-1.942252e-09	-6.701889e+00	-1.293039e+02
2.570000e-06	-1.062712e-06	-2.772977e-09	-7.566151e+00	-1.839085e+02
2.580000e-06	-1.183763e-06	-3.623516e-09	-8.427995e+00	-2.396381e+02
2.590000e-06	-1.304385e-06	-4.486218e-09	-9.286781e+00	-2.962075e+02
2.600000e-06	-1.424525e-06	-5.356728e-09	-1.014214e+01	-3.531626e+02
2.610000e-06	-1.544094e-06	-6.228706e-09	-1.099343e+01	-4.099227e+02
2.620000e-06	-1.663030e-06	-7.090379e-09	-1.184021e+01	-4.658432e+02
2.630000e-06	-1.781326e-06	-7.927137e-09	-1.268244e+01	-5.202854e+02
2.640000e-06	-1.898860e-06	-8.730171e-09	-1.351924e+01	-5.726835e+02
2.650000e-06	-2.015498e-06	-9.494951e-09	-1.434967e+01	-6.225968e+02
2.660000e-06	-2.131265e-06	-1.021743e-08	-1.517388e+01	-6.697392e+02
2.670000e-06	-2.246114e-06	-1.089381e-08	-1.599157e+01	-7.139851e+02
2.680000e-06	-2.359985e-06	-1.152645e-08	-1.680230e+01	-7.553529e+02
2.690000e-06	-2.472833e-06	-1.211834e-08	-1.760573e+01	-7.939719e+02
2.700000e-06	-2.584553e-06	-1.267360e-08	-1.840114e+01	-8.300408e+02
2.710000e-06	-2.695160e-06	-1.319464e-08	-1.918863e+01	-8.637878e+02
2.720000e-06	-2.804716e-06	-1.368139e-08	-1.996863e+01	-8.954364e+02
2.730000e-06	-2.913403e-06	-1.413842e-08	-2.074245e+01	-9.251847e+02
2.740000e-06	-3.021198e-06	-1.456740e-08	-2.150991e+01	-9.531961e+02
2.750000e-06	-3.127995e-06	-1.496889e-08	-2.227027e+01	-9.796011e+02
2.760000e-06	-3.233819e-06	-1.534703e-08	-2.302370e+01	-1.004506e+03
2.770000e-06	-3.338530e-06	-1.570355e-08	-2.376920e+01	-1.028005e+03
2.780000e-06	-3.442028e-06	-1.604081e-08	-2.450608e+01	-1.050189e+03
2.790000e-06	-3.544269e-06	-1.636156e-08	-2.523400e+01	-1.071151e+03
2.800000e-06	-3.645102e-06	-1.666605e-08	-2.595190e+01	-1.090985e+03
2.810000e-06	-3.744558e-06	-1.695618e-08	-2.665999e+01	-1.109786e+03
2.820000e-06	-3.842803e-06	-1.723032e-08	-2.735946e+01	-1.127642e+03
2.830000e-06	-3.939819e-06	-1.748771e-08	-2.805018e+01	-1.144628e+03
2.840000e-06	-4.035475e-06	-1.773231e-08	-2.873122e+01	-1.160805e+03
2.850000e-06	-4.129736e-06	-1.796806e-08	-2.940233e+01	-1.176217e+03
2.860000e-06	-4.222452e-06	-1.819566e-08	-3.006243e+01	-1.190899e+03
2.870000e-06	-4.313655e-06	-1.841445e-08	-3.071176e+01	-1.204879e+03
2.880000e-06	-4.403415e-06	-1.862300e-08	-3.135082e+01	-1.218184e+03
2.890000e-06	-4.491527e-06	-1.881736e-08	-3.197815e+01	-1.230842e+03
2.900000e-06	-4.577958e-06	-1.899914e-08	-3.259351e+01	-1.242889e+03
2.910000e-06	-4.662579e-06	-1.917231e-08	-3.319599e+01	-1.254362e+03
2.920000e-06	-4.745572e-06	-1.933856e-08	-3.378687e+01	-1.265300e+03
2.930000e-06	-4.827035e-06	-1.949839e-08	-3.436686e+01	-1.275736e+03
2.940000e-06	-4.906705e-06	-1.965062e-08	-3.493408e+01	-1.285698e+03
