# Temperatura_=_28.43
# Concentracion g/m^3_=_28200.0
# C_Vs_to_Am_M_A/Vsm_=_65563218390.804596
# pendiente_HvsI_1/m_=_3716.3
# ordenada_HvsI_A/m_=_1297.0
# frecuencia_Hz_=_302101.6543597318

Tiempo_(s)	Campo_(V.s)	Magnetizacion_(V.s)	Campo_(kA/m)	Magnetizacion_(A/m)
0.000000e+00	-6.406799e-06	-1.890980e-08	-4.557907e+01	-1.236763e+03
1.000000e-08	-6.403635e-06	-1.890789e-08	-4.555656e+01	-1.236374e+03
2.000000e-08	-6.398308e-06	-1.889939e-08	-4.551867e+01	-1.235874e+03
3.000000e-08	-6.391061e-06	-1.889224e-08	-4.546711e+01	-1.235263e+03
4.000000e-08	-6.381646e-06	-1.887955e-08	-4.540013e+01	-1.234534e+03
5.000000e-08	-6.369834e-06	-1.886110e-08	-4.531610e+01	-1.233668e+03
6.000000e-08	-6.355783e-06	-1.884510e-08	-4.521614e+01	-1.232647e+03
7.000000e-08	-6.339423e-06	-1.881555e-08	-4.509975e+01	-1.231454e+03
8.000000e-08	-6.320887e-06	-1.879034e-08	-4.496788e+01	-1.230085e+03
9.000000e-08	-6.300306e-06	-1.885436e-08	-4.482146e+01	-1.228548e+03
1.000000e-07	-6.277323e-06	-1.880580e-08	-4.465795e+01	-1.226870e+03
1.100000e-07	-6.251596e-06	-1.871260e-08	-4.447493e+01	-1.225088e+03
1.200000e-07	-6.223447e-06	-1.870514e-08	-4.427468e+01	-1.223248e+03
1.300000e-07	-6.193476e-06	-1.868485e-08	-4.406146e+01	-1.221388e+03
1.400000e-07	-6.161997e-06	-1.855498e-08	-4.383751e+01	-1.219536e+03
1.500000e-07	-6.128765e-06	-1.861856e-08	-4.360109e+01	-1.217695e+03
1.600000e-07	-6.093416e-06	-1.869744e-08	-4.334961e+01	-1.215842e+03
1.700000e-07	-6.056169e-06	-1.846912e-08	-4.308463e+01	-1.213933e+03
1.800000e-07	-6.016940e-06	-1.858346e-08	-4.280554e+01	-1.211904e+03
1.900000e-07	-5.975214e-06	-1.851812e-08	-4.250870e+01	-1.209687e+03
2.000000e-07	-5.931296e-06	-1.834851e-08	-4.219626e+01	-1.207220e+03
2.100000e-07	-5.885321e-06	-1.841381e-08	-4.186919e+01	-1.204456e+03
2.200000e-07	-5.836996e-06	-1.825400e-08	-4.152540e+01	-1.201374e+03
2.300000e-07	-5.786265e-06	-1.822120e-08	-4.116449e+01	-1.197980e+03
2.400000e-07	-5.732964e-06	-1.821054e-08	-4.078529e+01	-1.194299e+03
2.500000e-07	-5.677532e-06	-1.811775e-08	-4.039094e+01	-1.190371e+03
2.600000e-07	-5.619943e-06	-1.811091e-08	-3.998124e+01	-1.186237e+03
2.700000e-07	-5.560101e-06	-1.801927e-08	-3.955552e+01	-1.181928e+03
2.800000e-07	-5.498343e-06	-1.793865e-08	-3.911616e+01	-1.177462e+03
2.900000e-07	-5.434701e-06	-1.784699e-08	-3.866340e+01	-1.172834e+03
3.000000e-07	-5.368916e-06	-1.777729e-08	-3.819540e+01	-1.168025e+03
3.100000e-07	-5.300914e-06	-1.772757e-08	-3.771162e+01	-1.163001e+03
3.200000e-07	-5.230978e-06	-1.763439e-08	-3.721408e+01	-1.157729e+03
3.300000e-07	-5.159238e-06	-1.758359e-08	-3.670371e+01	-1.152180e+03
3.400000e-07	-5.085546e-06	-1.743583e-08	-3.617945e+01	-1.146339e+03
3.500000e-07	-5.009730e-06	-1.734047e-08	-3.564009e+01	-1.140201e+03
3.600000e-07	-4.931846e-06	-1.726947e-08	-3.508600e+01	-1.133779e+03
3.700000e-07	-4.851917e-06	-1.715353e-08	-3.451737e+01	-1.127088e+03
3.800000e-07	-4.770178e-06	-1.707461e-08	-3.393587e+01	-1.120144e+03
3.900000e-07	-4.686914e-06	-1.694793e-08	-3.334351e+01	-1.112957e+03
4.000000e-07	-4.602183e-06	-1.682456e-08	-3.274072e+01	-1.105522e+03
4.100000e-07	-4.515986e-06	-1.669356e-08	-3.212750e+01	-1.097824e+03
4.200000e-07	-4.428456e-06	-1.658330e-08	-3.150480e+01	-1.089834e+03
4.300000e-07	-4.339453e-06	-1.646734e-08	-3.087162e+01	-1.081522e+03
4.400000e-07	-4.248720e-06	-1.632568e-08	-3.022613e+01	-1.072854e+03
4.500000e-07	-4.156359e-06	-1.619655e-08	-2.956905e+01	-1.063807e+03
4.600000e-07	-4.062515e-06	-1.603866e-08	-2.890143e+01	-1.054365e+03
4.700000e-07	-3.967353e-06	-1.589006e-08	-2.822443e+01	-1.044523e+03
4.800000e-07	-3.870843e-06	-1.573182e-08	-2.753784e+01	-1.034283e+03
4.900000e-07	-3.772853e-06	-1.557334e-08	-2.684073e+01	-1.023647e+03
5.000000e-07	-3.673375e-06	-1.540235e-08	-2.613302e+01	-1.012614e+03
5.100000e-07	-3.572490e-06	-1.521940e-08	-2.541531e+01	-1.001174e+03
5.200000e-07	-3.470389e-06	-1.503861e-08	-2.468895e+01	-9.893043e+02
5.300000e-07	-3.367123e-06	-1.484933e-08	-2.395429e+01	-9.769716e+02
5.400000e-07	-3.262592e-06	-1.465672e-08	-2.321064e+01	-9.641346e+02
5.500000e-07	-3.156741e-06	-1.444838e-08	-2.245760e+01	-9.507484e+02
5.600000e-07	-3.049553e-06	-1.423733e-08	-2.169504e+01	-9.367691e+02
5.700000e-07	-2.941200e-06	-1.401057e-08	-2.092420e+01	-9.221576e+02
5.800000e-07	-2.831839e-06	-1.377782e-08	-2.014619e+01	-9.068800e+02
5.900000e-07	-2.721543e-06	-1.353216e-08	-1.936152e+01	-8.909068e+02
6.000000e-07	-2.610336e-06	-1.327425e-08	-1.857038e+01	-8.742097e+02
6.100000e-07	-2.498044e-06	-1.300286e-08	-1.777151e+01	-8.567570e+02
6.200000e-07	-2.384722e-06	-1.272154e-08	-1.696532e+01	-8.385102e+02
6.300000e-07	-2.270384e-06	-1.243315e-08	-1.615190e+01	-8.194215e+02
6.400000e-07	-2.154941e-06	-1.212906e-08	-1.533062e+01	-7.994334e+02
6.500000e-07	-2.038604e-06	-1.181135e-08	-1.450298e+01	-7.784798e+02
6.600000e-07	-1.921595e-06	-1.147127e-08	-1.367056e+01	-7.564887e+02
6.700000e-07	-1.803941e-06	-1.111644e-08	-1.283354e+01	-7.333842e+02
6.800000e-07	-1.685728e-06	-1.074466e-08	-1.199256e+01	-7.090892e+02
6.900000e-07	-1.567035e-06	-1.035555e-08	-1.114816e+01	-6.835261e+02
7.000000e-07	-1.447829e-06	-9.945952e-09	-1.030010e+01	-6.566185e+02
7.100000e-07	-1.328056e-06	-9.510175e-09	-9.448019e+00	-6.282928e+02
7.200000e-07	-1.207705e-06	-9.050593e-09	-8.591824e+00	-5.984825e+02
7.300000e-07	-1.086931e-06	-8.569094e-09	-7.732614e+00	-5.671353e+02
7.400000e-07	-9.657989e-07	-8.069511e-09	-6.870860e+00	-5.342233e+02
7.500000e-07	-8.443305e-07	-7.548698e-09	-6.006713e+00	-4.997560e+02
7.600000e-07	-7.226351e-07	-7.003822e-09	-5.140950e+00	-4.637927e+02
7.700000e-07	-6.007586e-07	-6.433992e-09	-4.273900e+00	-4.264518e+02
7.800000e-07	-4.786801e-07	-5.846135e-09	-3.405413e+00	-3.879141e+02
7.900000e-07	-3.563778e-07	-5.242503e-09	-2.535333e+00	-3.484165e+02
8.000000e-07	-2.339811e-07	-4.629367e-09	-1.664582e+00	-3.082350e+02
8.100000e-07	-1.114803e-07	-4.012601e-09	-7.930902e-01	-2.676586e+02
8.200000e-07	1.117409e-08	-3.395975e-09	7.949444e-02	-2.269557e+02
8.300000e-07	1.338611e-07	-2.783458e-09	9.523112e-01	-1.863402e+02
8.400000e-07	2.565244e-07	-2.173352e-09	1.824959e+00	-1.459412e+02
8.500000e-07	3.791272e-07	-1.566669e-09	2.697177e+00	-1.057832e+02
8.600000e-07	5.016361e-07	-9.565286e-10	3.568726e+00	-6.578257e+01
8.700000e-07	6.240519e-07	-3.449161e-10	4.439612e+00	-2.576025e+01
8.800000e-07	7.462410e-07	2.700688e-10	5.308887e+00	1.452866e+01
8.900000e-07	8.681467e-07	8.923835e-10	6.176145e+00	5.535271e+01
9.000000e-07	9.898410e-07	1.525720e-09	7.041899e+00	9.695598e+01
9.100000e-07	1.111273e-06	2.172939e-09	7.905784e+00	1.395115e+02
9.200000e-07	1.232328e-06	2.832374e-09	8.766991e+00	1.830841e+02
9.300000e-07	1.352949e-06	3.505059e-09	9.625113e+00	2.276079e+02
9.400000e-07	1.473007e-06	4.191006e-09	1.047922e+01	2.728828e+02
9.500000e-07	1.592383e-06	4.886486e-09	1.132849e+01	3.185899e+02
9.600000e-07	1.711113e-06	5.581162e-09	1.217315e+01	3.643221e+02
9.700000e-07	1.829244e-06	6.269196e-09	1.301356e+01	4.096253e+02
9.800000e-07	1.946796e-06	6.945207e-09	1.384984e+01	4.540438e+02
9.900000e-07	2.063677e-06	7.601787e-09	1.468135e+01	4.971619e+02
1.000000e-06	2.179710e-06	8.226521e-09	1.550684e+01	5.386372e+02
1.010000e-06	2.294746e-06	8.818342e-09	1.632522e+01	5.782212e+02
1.020000e-06	2.408749e-06	9.384962e-09	1.713625e+01	6.157667e+02
1.030000e-06	2.521782e-06	9.926946e-09	1.794039e+01	6.512216e+02
1.040000e-06	2.633842e-06	1.043870e-08	1.873760e+01	6.846143e+02
1.050000e-06	2.744881e-06	1.091339e-08	1.952756e+01	7.160320e+02
1.060000e-06	2.854929e-06	1.135912e-08	2.031046e+01	7.455983e+02
1.070000e-06	2.964052e-06	1.177717e-08	2.108677e+01	7.734522e+02
1.080000e-06	3.072264e-06	1.217603e-08	2.185662e+01	7.997313e+02
1.090000e-06	3.179430e-06	1.255340e-08	2.261901e+01	8.245615e+02
1.100000e-06	3.285384e-06	1.291284e-08	2.337279e+01	8.480513e+02
1.110000e-06	3.390107e-06	1.325493e-08	2.411781e+01	8.702915e+02
1.120000e-06	3.493519e-06	1.357763e-08	2.485350e+01	8.913579e+02
1.130000e-06	3.595651e-06	1.387967e-08	2.558008e+01	9.113158e+02
1.140000e-06	3.696640e-06	1.416263e-08	2.629853e+01	9.302247e+02
1.150000e-06	3.796442e-06	1.443308e-08	2.700854e+01	9.481418e+02
1.160000e-06	3.894874e-06	1.468867e-08	2.770881e+01	9.651249e+02
1.170000e-06	3.991747e-06	1.493338e-08	2.839798e+01	9.812327e+02
1.180000e-06	4.087103e-06	1.516656e-08	2.907635e+01	9.965243e+02
1.190000e-06	4.181081e-06	1.538653e-08	2.974493e+01	1.011057e+03
1.200000e-06	4.273749e-06	1.559516e-08	3.040418e+01	1.024886e+03
1.210000e-06	4.365019e-06	1.579419e-08	3.105350e+01	1.038059e+03
1.220000e-06	4.454731e-06	1.598134e-08	3.169172e+01	1.050616e+03
1.230000e-06	4.542696e-06	1.616036e-08	3.231752e+01	1.062591e+03
1.240000e-06	4.628938e-06	1.633109e-08	3.293106e+01	1.074006e+03
1.250000e-06	4.713668e-06	1.649791e-08	3.353385e+01	1.084880e+03
1.260000e-06	4.796913e-06	1.665808e-08	3.412606e+01	1.095223e+03
1.270000e-06	4.878445e-06	1.680998e-08	3.470610e+01	1.105047e+03
1.280000e-06	4.958030e-06	1.695144e-08	3.527228e+01	1.114360e+03
1.290000e-06	5.035701e-06	1.708408e-08	3.582485e+01	1.123176e+03
1.300000e-06	5.111538e-06	1.721028e-08	3.636436e+01	1.131511e+03
1.310000e-06	5.185386e-06	1.733134e-08	3.688973e+01	1.139387e+03
1.320000e-06	5.257245e-06	1.744743e-08	3.740095e+01	1.146829e+03
1.330000e-06	5.327236e-06	1.755705e-08	3.789887e+01	1.153865e+03
1.340000e-06	5.395387e-06	1.765931e-08	3.838371e+01	1.160523e+03
1.350000e-06	5.461584e-06	1.775393e-08	3.885465e+01	1.166832e+03
1.360000e-06	5.525706e-06	1.784402e-08	3.931083e+01	1.172816e+03
1.370000e-06	5.587859e-06	1.793015e-08	3.975299e+01	1.178498e+03
1.380000e-06	5.648213e-06	1.801077e-08	4.018236e+01	1.183898e+03
1.390000e-06	5.706599e-06	1.808674e-08	4.059773e+01	1.189032e+03
1.400000e-06	5.762852e-06	1.815974e-08	4.099792e+01	1.193917e+03
1.410000e-06	5.817110e-06	1.823130e-08	4.138392e+01	1.198565e+03
1.420000e-06	5.869189e-06	1.830146e-08	4.175442e+01	1.202986e+03
1.430000e-06	5.918776e-06	1.836719e-08	4.210719e+01	1.207187e+03
1.440000e-06	5.966009e-06	1.842897e-08	4.244322e+01	1.211173e+03
1.450000e-06	6.011210e-06	1.848517e-08	4.276479e+01	1.214941e+03
1.460000e-06	6.054485e-06	1.853665e-08	4.307265e+01	1.218484e+03
1.470000e-06	6.095542e-06	1.858384e-08	4.336474e+01	1.221793e+03
1.480000e-06	6.134301e-06	1.862808e-08	4.364047e+01	1.224856e+03
1.490000e-06	6.171011e-06	1.867079e-08	4.390163e+01	1.227665e+03
1.500000e-06	6.205591e-06	1.870898e-08	4.414765e+01	1.230213e+03
1.510000e-06	6.237872e-06	1.874198e-08	4.437730e+01	1.232503e+03
1.520000e-06	6.267949e-06	1.877280e-08	4.459127e+01	1.234545e+03
1.530000e-06	6.296034e-06	1.880114e-08	4.479107e+01	1.236356e+03
1.540000e-06	6.321850e-06	1.882541e-08	4.497473e+01	1.237955e+03
1.550000e-06	6.345162e-06	1.884695e-08	4.514058e+01	1.239366e+03
1.560000e-06	6.366226e-06	1.886581e-08	4.529043e+01	1.240606e+03
1.570000e-06	6.385243e-06	1.888096e-08	4.542572e+01	1.241688e+03
1.580000e-06	6.401939e-06	1.889259e-08	4.554450e+01	1.242617e+03
1.590000e-06	6.416178e-06	1.890303e-08	4.564579e+01	1.243390e+03
1.600000e-06	6.428010e-06	1.891128e-08	4.572997e+01	1.244002e+03
1.610000e-06	6.437182e-06	1.891886e-08	4.579522e+01	1.244445e+03
1.620000e-06	6.443892e-06	1.892630e-08	4.584296e+01	1.244715e+03
1.630000e-06	6.448502e-06	1.893182e-08	4.587575e+01	1.244816e+03
1.640000e-06	6.450863e-06	1.893370e-08	4.589255e+01	1.244757e+03
1.650000e-06	6.450870e-06	1.893569e-08	4.589260e+01	1.244554e+03
1.660000e-06	6.448695e-06	1.892567e-08	4.587713e+01	1.244222e+03
1.670000e-06	6.444600e-06	1.891626e-08	4.584799e+01	1.243774e+03
1.680000e-06	6.438266e-06	1.890811e-08	4.580293e+01	1.243217e+03
1.690000e-06	6.429676e-06	1.889778e-08	4.574182e+01	1.242547e+03
1.700000e-06	6.419089e-06	1.888975e-08	4.566650e+01	1.241750e+03
1.710000e-06	6.406356e-06	1.888226e-08	4.557592e+01	1.240807e+03
1.720000e-06	6.391351e-06	1.888662e-08	4.546917e+01	1.239699e+03
1.730000e-06	6.374245e-06	1.886340e-08	4.534748e+01	1.238416e+03
1.740000e-06	6.355166e-06	1.872435e-08	4.521174e+01	1.236959e+03
1.750000e-06	6.333221e-06	1.874156e-08	4.505562e+01	1.235345e+03
1.760000e-06	6.307987e-06	1.878311e-08	4.487611e+01	1.233608e+03
1.770000e-06	6.280443e-06	1.872310e-08	4.468015e+01	1.231790e+03
1.780000e-06	6.251100e-06	1.878581e-08	4.447141e+01	1.229933e+03
1.790000e-06	6.220047e-06	1.878507e-08	4.425048e+01	1.228073e+03
1.800000e-06	6.187638e-06	1.854453e-08	4.401992e+01	1.226225e+03
1.810000e-06	6.153223e-06	1.864828e-08	4.377509e+01	1.224381e+03
1.820000e-06	6.116739e-06	1.857117e-08	4.351554e+01	1.222505e+03
1.830000e-06	6.078187e-06	1.843023e-08	4.324127e+01	1.220543e+03
1.840000e-06	6.037089e-06	1.869971e-08	4.294889e+01	1.218426e+03
1.850000e-06	5.994016e-06	1.851002e-08	4.264246e+01	1.216089e+03
1.860000e-06	5.949035e-06	1.853624e-08	4.232246e+01	1.213475e+03
1.870000e-06	5.901769e-06	1.857640e-08	4.198620e+01	1.210552e+03
1.880000e-06	5.852435e-06	1.833291e-08	4.163523e+01	1.207310e+03
1.890000e-06	5.800650e-06	1.844332e-08	4.126682e+01	1.203766e+03
1.900000e-06	5.746176e-06	1.826474e-08	4.087929e+01	1.199954e+03
1.910000e-06	5.689560e-06	1.819882e-08	4.047651e+01	1.195916e+03
1.920000e-06	5.630869e-06	1.827231e-08	4.005897e+01	1.191690e+03
1.930000e-06	5.570334e-06	1.808746e-08	3.962831e+01	1.187299e+03
1.940000e-06	5.507633e-06	1.814248e-08	3.918225e+01	1.182752e+03
1.950000e-06	5.442717e-06	1.796178e-08	3.872043e+01	1.178035e+03
1.960000e-06	5.375934e-06	1.791643e-08	3.824532e+01	1.173120e+03
1.970000e-06	5.307156e-06	1.783649e-08	3.775602e+01	1.167975e+03
1.980000e-06	5.236302e-06	1.769706e-08	3.725196e+01	1.162565e+03
1.990000e-06	5.163354e-06	1.773372e-08	3.673299e+01	1.156869e+03
2.000000e-06	5.088645e-06	1.755120e-08	3.620150e+01	1.150877e+03
2.010000e-06	5.011883e-06	1.751736e-08	3.565540e+01	1.144594e+03
2.020000e-06	4.932910e-06	1.737377e-08	3.509357e+01	1.138033e+03
2.030000e-06	4.852174e-06	1.726380e-08	3.451920e+01	1.131212e+03
2.040000e-06	4.769818e-06	1.721088e-08	3.393331e+01	1.124144e+03
2.050000e-06	4.685975e-06	1.705654e-08	3.333684e+01	1.116832e+03
2.060000e-06	4.600448e-06	1.698815e-08	3.272838e+01	1.109266e+03
2.070000e-06	4.513158e-06	1.681686e-08	3.210738e+01	1.101424e+03
2.080000e-06	4.424307e-06	1.671615e-08	3.147528e+01	1.093275e+03
2.090000e-06	4.333967e-06	1.656751e-08	3.083259e+01	1.084787e+03
2.100000e-06	4.242277e-06	1.644016e-08	3.018029e+01	1.075930e+03
2.110000e-06	4.149188e-06	1.632246e-08	2.951804e+01	1.066685e+03
2.120000e-06	4.054558e-06	1.615777e-08	2.884483e+01	1.057041e+03
2.130000e-06	3.958349e-06	1.602040e-08	2.816038e+01	1.046997e+03
2.140000e-06	3.860772e-06	1.583823e-08	2.746620e+01	1.036557e+03
2.150000e-06	3.761981e-06	1.569546e-08	2.676338e+01	1.025721e+03
2.160000e-06	3.661907e-06	1.551643e-08	2.605144e+01	1.014485e+03
2.170000e-06	3.560365e-06	1.534999e-08	2.532905e+01	1.002831e+03
2.180000e-06	3.457334e-06	1.516167e-08	2.459607e+01	9.907328e+02
2.190000e-06	3.352970e-06	1.497054e-08	2.385361e+01	9.781515e+02
2.200000e-06	3.247415e-06	1.476840e-08	2.310267e+01	9.650435e+02
2.210000e-06	3.140827e-06	1.455748e-08	2.234439e+01	9.513640e+02
2.220000e-06	3.033152e-06	1.434617e-08	2.157837e+01	9.370712e+02
2.230000e-06	2.924415e-06	1.411718e-08	2.080479e+01	9.221285e+02
2.240000e-06	2.814690e-06	1.388798e-08	2.002419e+01	9.065046e+02
2.250000e-06	2.703870e-06	1.363857e-08	1.923580e+01	8.901712e+02
2.260000e-06	2.591971e-06	1.338563e-08	1.843973e+01	8.730986e+02
2.270000e-06	2.479117e-06	1.310598e-08	1.763687e+01	8.552521e+02
2.280000e-06	2.365260e-06	1.282096e-08	1.682687e+01	8.365890e+02
2.290000e-06	2.250455e-06	1.252123e-08	1.601012e+01	8.170563e+02
2.300000e-06	2.134833e-06	1.221455e-08	1.518757e+01	7.965922e+02
2.310000e-06	2.018273e-06	1.189053e-08	1.435834e+01	7.751271e+02
2.320000e-06	1.900845e-06	1.154930e-08	1.352294e+01	7.525869e+02
2.330000e-06	1.782810e-06	1.119083e-08	1.268322e+01	7.288948e+02
2.340000e-06	1.664170e-06	1.080548e-08	1.183919e+01	7.039734e+02
2.350000e-06	1.544805e-06	1.040092e-08	1.099001e+01	6.777455e+02
2.360000e-06	1.424807e-06	9.980020e-09	1.013632e+01	6.501357e+02
2.370000e-06	1.304330e-06	9.545028e-09	9.279231e+00	6.210734e+02
2.380000e-06	1.183476e-06	9.082300e-09	8.419454e+00	5.904979e+02
2.390000e-06	1.062317e-06	8.595166e-09	7.557503e+00	5.583678e+02
2.400000e-06	9.408999e-07	8.077672e-09	6.693724e+00	5.246721e+02
2.410000e-06	8.191713e-07	7.537150e-09	5.827726e+00	4.894439e+02
2.420000e-06	6.971357e-07	6.975767e-09	4.959543e+00	4.527710e+02
2.430000e-06	5.749151e-07	6.395755e-09	4.090045e+00	4.148033e+02
2.440000e-06	4.524787e-07	5.800440e-09	3.219012e+00	3.757511e+02
2.450000e-06	3.299002e-07	5.188480e-09	2.346967e+00	3.358735e+02
2.460000e-06	2.072177e-07	4.566893e-09	1.474183e+00	2.954569e+02
2.470000e-06	8.446969e-08	3.941542e-09	6.009319e-01	2.547843e+02
2.480000e-06	-3.826461e-08	3.318680e-09	-2.722210e-01	2.141011e+02
2.490000e-06	-1.609820e-07	2.699442e-09	-1.145254e+00	1.735819e+02
2.500000e-06	-2.836482e-07	2.084139e-09	-2.017922e+00	1.333052e+02
2.510000e-06	-4.062893e-07	1.471896e-09	-2.890412e+00	9.324081e+01
2.520000e-06	-5.288289e-07	8.590653e-10	-3.762180e+00	5.325471e+01
2.530000e-06	-6.511653e-07	2.435543e-10	-4.632502e+00	1.313026e+01
2.540000e-06	-7.732998e-07	-3.787985e-10	-5.501388e+00	-2.739503e+01
2.550000e-06	-8.951864e-07	-1.011812e-09	-6.368510e+00	-6.858361e+01
2.560000e-06	-1.016796e-06	-1.655607e-09	-7.233665e+00	-1.106494e+02
2.570000e-06	-1.138096e-06	-2.314758e-09	-8.096611e+00	-1.537153e+02
2.580000e-06	-1.259012e-06	-2.986776e-09	-8.956829e+00	-1.977822e+02
2.590000e-06	-1.379510e-06	-3.671081e-09	-9.814070e+00	-2.427165e+02
2.600000e-06	-1.499505e-06	-4.367364e-09	-1.066774e+01	-2.882558e+02
2.610000e-06	-1.618837e-06	-5.069543e-09	-1.151668e+01	-3.340324e+02
2.620000e-06	-1.737361e-06	-5.769758e-09	-1.235988e+01	-3.796100e+02
2.630000e-06	-1.855145e-06	-6.460532e-09	-1.319782e+01	-4.245282e+02
2.640000e-06	-1.972206e-06	-7.134465e-09	-1.403061e+01	-4.683465e+02
2.650000e-06	-2.088377e-06	-7.784171e-09	-1.485707e+01	-5.106824e+02
2.660000e-06	-2.203641e-06	-8.408134e-09	-1.567708e+01	-5.512389e+02
2.670000e-06	-2.318028e-06	-9.002081e-09	-1.649085e+01	-5.898178e+02
2.680000e-06	-2.431398e-06	-9.563059e-09	-1.729739e+01	-6.263211e+02
2.690000e-06	-2.543675e-06	-1.008858e-08	-1.809614e+01	-6.607391e+02
2.700000e-06	-2.654872e-06	-1.057969e-08	-1.888721e+01	-6.931326e+02
2.710000e-06	-2.764927e-06	-1.104364e-08	-1.967016e+01	-7.236098e+02
2.720000e-06	-2.874101e-06	-1.148394e-08	-2.044685e+01	-7.523042e+02
2.730000e-06	-2.982461e-06	-1.190131e-08	-2.121774e+01	-7.793561e+02
2.740000e-06	-3.089813e-06	-1.229787e-08	-2.198146e+01	-8.048981e+02
2.750000e-06	-3.196152e-06	-1.267182e-08	-2.273797e+01	-8.290477e+02
2.760000e-06	-3.301389e-06	-1.302049e-08	-2.348665e+01	-8.519043e+02
2.770000e-06	-3.405416e-06	-1.334746e-08	-2.422672e+01	-8.735509e+02
2.780000e-06	-3.508150e-06	-1.365807e-08	-2.495758e+01	-8.940574e+02
2.790000e-06	-3.609637e-06	-1.395417e-08	-2.567958e+01	-9.134856e+02
2.800000e-06	-3.709768e-06	-1.423537e-08	-2.639193e+01	-9.318934e+02
2.810000e-06	-3.808576e-06	-1.450209e-08	-2.709487e+01	-9.493383e+02
2.820000e-06	-3.906186e-06	-1.475556e-08	-2.778928e+01	-9.658783e+02
2.830000e-06	-4.002430e-06	-1.499786e-08	-2.847398e+01	-9.815727e+02
2.840000e-06	-4.097254e-06	-1.523022e-08	-2.914857e+01	-9.964799e+02
2.850000e-06	-4.190614e-06	-1.545222e-08	-2.981275e+01	-1.010656e+03
2.860000e-06	-4.282449e-06	-1.566369e-08	-3.046608e+01	-1.024153e+03
2.870000e-06	-4.372768e-06	-1.586237e-08	-3.110862e+01	-1.037016e+03
2.880000e-06	-4.461560e-06	-1.604923e-08	-3.174031e+01	-1.049280e+03
2.890000e-06	-4.548673e-06	-1.622590e-08	-3.236004e+01	-1.060975e+03
2.900000e-06	-4.634039e-06	-1.639324e-08	-3.296735e+01	-1.072120e+03
2.910000e-06	-4.717774e-06	-1.655394e-08	-3.356306e+01	-1.082729e+03
2.920000e-06	-4.799937e-06	-1.670834e-08	-3.414758e+01	-1.092813e+03
2.930000e-06	-4.880455e-06	-1.685676e-08	-3.472040e+01	-1.102382e+03
2.940000e-06	-4.959057e-06	-1.699610e-08	-3.527959e+01	-1.111447e+03
