# Temperatura_=_76.84
# Concentracion g/m^3_=_28200.0
# C_Vs_to_Am_M_A/Vsm_=_65563218390.804596
# pendiente_HvsI_1/m_=_3716.3
# ordenada_HvsI_A/m_=_1297.0
# frecuencia_Hz_=_302096.9616619514

Tiempo_(s)	Campo_(V.s)	Magnetizacion_(V.s)	Campo_(kA/m)	Magnetizacion_(A/m)
0.000000e+00	-6.384510e-06	-2.449837e-08	-4.557794e+01	-1.603856e+03
1.000000e-08	-6.380950e-06	-2.449270e-08	-4.555253e+01	-1.603298e+03
2.000000e-08	-6.375382e-06	-2.448168e-08	-4.551278e+01	-1.602553e+03
3.000000e-08	-6.367891e-06	-2.447059e-08	-4.545931e+01	-1.601630e+03
4.000000e-08	-6.358185e-06	-2.445388e-08	-4.539002e+01	-1.600539e+03
5.000000e-08	-6.346059e-06	-2.443340e-08	-4.530345e+01	-1.599285e+03
6.000000e-08	-6.331565e-06	-2.440858e-08	-4.519998e+01	-1.597867e+03
7.000000e-08	-6.314780e-06	-2.437170e-08	-4.508015e+01	-1.596284e+03
8.000000e-08	-6.296041e-06	-2.436105e-08	-4.494638e+01	-1.594536e+03
9.000000e-08	-6.275183e-06	-2.441851e-08	-4.479748e+01	-1.592626e+03
1.000000e-07	-6.251815e-06	-2.434179e-08	-4.463066e+01	-1.590561e+03
1.100000e-07	-6.225781e-06	-2.425065e-08	-4.444480e+01	-1.588357e+03
1.200000e-07	-6.197442e-06	-2.424328e-08	-4.424250e+01	-1.586029e+03
1.300000e-07	-6.167288e-06	-2.417670e-08	-4.402723e+01	-1.583592e+03
1.400000e-07	-6.135597e-06	-2.405137e-08	-4.380100e+01	-1.581054e+03
1.500000e-07	-6.102127e-06	-2.418100e-08	-4.356206e+01	-1.578408e+03
1.600000e-07	-6.066587e-06	-2.412885e-08	-4.330835e+01	-1.575634e+03
1.700000e-07	-6.029210e-06	-2.391608e-08	-4.304152e+01	-1.572695e+03
1.800000e-07	-5.989813e-06	-2.404909e-08	-4.276027e+01	-1.569546e+03
1.900000e-07	-5.947953e-06	-2.387545e-08	-4.246144e+01	-1.566138e+03
2.000000e-07	-5.903884e-06	-2.380792e-08	-4.214684e+01	-1.562430e+03
2.100000e-07	-5.857721e-06	-2.387325e-08	-4.181729e+01	-1.558396e+03
2.200000e-07	-5.809182e-06	-2.365955e-08	-4.147078e+01	-1.554029e+03
2.300000e-07	-5.758131e-06	-2.360854e-08	-4.110633e+01	-1.549342e+03
2.400000e-07	-5.704562e-06	-2.355594e-08	-4.072391e+01	-1.544364e+03
2.500000e-07	-5.648900e-06	-2.344650e-08	-4.032655e+01	-1.539132e+03
2.600000e-07	-5.591106e-06	-2.339921e-08	-3.991397e+01	-1.533678e+03
2.700000e-07	-5.531152e-06	-2.330232e-08	-3.948597e+01	-1.528023e+03
2.800000e-07	-5.469295e-06	-2.321367e-08	-3.904438e+01	-1.522168e+03
2.900000e-07	-5.405535e-06	-2.306917e-08	-3.858921e+01	-1.516096e+03
3.000000e-07	-5.339676e-06	-2.300653e-08	-3.811905e+01	-1.509773e+03
3.100000e-07	-5.271683e-06	-2.293916e-08	-3.763366e+01	-1.503160e+03
3.200000e-07	-5.201725e-06	-2.281478e-08	-3.713424e+01	-1.496218e+03
3.300000e-07	-5.129996e-06	-2.271606e-08	-3.662218e+01	-1.488920e+03
3.400000e-07	-5.056368e-06	-2.255224e-08	-3.609657e+01	-1.481256e+03
3.500000e-07	-4.980582e-06	-2.245055e-08	-3.555554e+01	-1.473232e+03
3.600000e-07	-4.902705e-06	-2.232678e-08	-3.499959e+01	-1.464868e+03
3.700000e-07	-4.822735e-06	-2.219843e-08	-3.442870e+01	-1.456188e+03
3.800000e-07	-4.740963e-06	-2.208661e-08	-3.384494e+01	-1.447210e+03
3.900000e-07	-4.657724e-06	-2.191539e-08	-3.325071e+01	-1.437940e+03
4.000000e-07	-4.573067e-06	-2.175226e-08	-3.264636e+01	-1.428368e+03
4.100000e-07	-4.486942e-06	-2.160347e-08	-3.203152e+01	-1.418466e+03
4.200000e-07	-4.399406e-06	-2.146934e-08	-3.140662e+01	-1.408195e+03
4.300000e-07	-4.310400e-06	-2.130026e-08	-3.077122e+01	-1.397513e+03
4.400000e-07	-4.219730e-06	-2.112056e-08	-3.012394e+01	-1.386383e+03
4.500000e-07	-4.127471e-06	-2.094978e-08	-2.946532e+01	-1.374781e+03
4.600000e-07	-4.033796e-06	-2.075172e-08	-2.879659e+01	-1.362696e+03
4.700000e-07	-3.938764e-06	-2.056801e-08	-2.811817e+01	-1.350130e+03
4.800000e-07	-3.842319e-06	-2.037947e-08	-2.742967e+01	-1.337090e+03
4.900000e-07	-3.744407e-06	-2.017483e-08	-2.673069e+01	-1.323580e+03
5.000000e-07	-3.645038e-06	-1.994491e-08	-2.602131e+01	-1.309595e+03
5.100000e-07	-3.544281e-06	-1.971209e-08	-2.530203e+01	-1.295112e+03
5.200000e-07	-3.442305e-06	-1.948526e-08	-2.457404e+01	-1.280094e+03
5.300000e-07	-3.339197e-06	-1.924826e-08	-2.383797e+01	-1.264489e+03
5.400000e-07	-3.234865e-06	-1.900513e-08	-2.309316e+01	-1.248242e+03
5.500000e-07	-3.129277e-06	-1.874352e-08	-2.233938e+01	-1.231298e+03
5.600000e-07	-3.022383e-06	-1.847026e-08	-2.157629e+01	-1.213609e+03
5.700000e-07	-2.914257e-06	-1.818098e-08	-2.080440e+01	-1.195141e+03
5.800000e-07	-2.805065e-06	-1.788864e-08	-2.002489e+01	-1.175865e+03
5.900000e-07	-2.694932e-06	-1.758719e-08	-1.923867e+01	-1.155757e+03
6.000000e-07	-2.583912e-06	-1.726651e-08	-1.844611e+01	-1.134784e+03
6.100000e-07	-2.471900e-06	-1.692768e-08	-1.764648e+01	-1.112900e+03
6.200000e-07	-2.358888e-06	-1.657234e-08	-1.683971e+01	-1.090042e+03
6.300000e-07	-2.244892e-06	-1.620525e-08	-1.602591e+01	-1.066124e+03
6.400000e-07	-2.129796e-06	-1.582220e-08	-1.520426e+01	-1.041044e+03
6.500000e-07	-2.013731e-06	-1.542183e-08	-1.437569e+01	-1.014693e+03
6.600000e-07	-1.896964e-06	-1.499430e-08	-1.354211e+01	-9.869558e+02
6.700000e-07	-1.779547e-06	-1.454483e-08	-1.270389e+01	-9.577242e+02
6.800000e-07	-1.661560e-06	-1.407472e-08	-1.186160e+01	-9.268929e+02
6.900000e-07	-1.543078e-06	-1.357964e-08	-1.101578e+01	-8.943598e+02
7.000000e-07	-1.424093e-06	-1.305697e-08	-1.016636e+01	-8.600203e+02
7.100000e-07	-1.304626e-06	-1.250179e-08	-9.313505e+00	-8.237630e+02
7.200000e-07	-1.184690e-06	-1.191800e-08	-8.457305e+00	-7.854694e+02
7.300000e-07	-1.064316e-06	-1.129859e-08	-7.597972e+00	-7.450213e+02
7.400000e-07	-9.435708e-07	-1.064582e-08	-6.735994e+00	-7.023167e+02
7.500000e-07	-8.224930e-07	-9.962166e-09	-5.871639e+00	-6.572934e+02
7.600000e-07	-7.011687e-07	-9.242669e-09	-5.005526e+00	-6.099556e+02
7.700000e-07	-5.795872e-07	-8.482208e-09	-4.137576e+00	-5.603966e+02
7.800000e-07	-4.577994e-07	-7.690285e-09	-3.268153e+00	-5.088119e+02
7.900000e-07	-3.359121e-07	-6.877708e-09	-2.398020e+00	-4.554947e+02
8.000000e-07	-2.139105e-07	-6.046145e-09	-1.527071e+00	-4.008117e+02
8.100000e-07	-9.176915e-08	-5.202437e-09	-6.551245e-01	-3.451612e+02
8.200000e-07	3.050434e-08	-4.350881e-09	2.177654e-01	-2.889179e+02
8.300000e-07	1.528336e-07	-3.493863e-09	1.091053e+00	-2.323759e+02
8.400000e-07	2.750930e-07	-2.629282e-09	1.963843e+00	-1.757008e+02
8.500000e-07	3.972480e-07	-1.762876e-09	2.835887e+00	-1.189026e+02
8.600000e-07	5.192658e-07	-8.918310e-10	3.706951e+00	-6.183759e+01
8.700000e-07	6.411138e-07	-1.169338e-11	4.576804e+00	-4.240689e+00
8.800000e-07	7.627871e-07	8.801517e-10	5.445409e+00	5.421377e+01
8.900000e-07	8.842498e-07	1.787391e-09	6.312511e+00	1.138344e+02
9.000000e-07	1.005479e-06	2.714035e-09	7.177945e+00	1.748314e+02
9.100000e-07	1.126370e-06	3.663306e-09	8.040965e+00	2.372472e+02
9.200000e-07	1.246865e-06	4.630384e-09	8.901160e+00	3.009127e+02
9.300000e-07	1.366808e-06	5.611447e-09	9.757415e+00	3.654380e+02
9.400000e-07	1.486202e-06	6.598798e-09	1.060974e+01	4.302395e+02
9.500000e-07	1.605108e-06	7.582310e-09	1.145860e+01	4.945996e+02
9.600000e-07	1.723451e-06	8.546040e-09	1.230343e+01	5.577466e+02
9.700000e-07	1.841196e-06	9.475024e-09	1.314399e+01	6.189411e+02
9.800000e-07	1.958267e-06	1.036235e-08	1.397974e+01	6.775542e+02
9.900000e-07	2.074592e-06	1.120348e-08	1.481016e+01	7.331239e+02
1.000000e-06	2.190019e-06	1.199423e-08	1.563418e+01	7.853826e+02
1.010000e-06	2.304433e-06	1.273192e-08	1.645096e+01	8.342537e+02
1.020000e-06	2.417894e-06	1.342188e-08	1.726094e+01	8.798228e+02
1.030000e-06	2.530410e-06	1.406573e-08	1.806417e+01	9.222904e+02
1.040000e-06	2.641908e-06	1.466966e-08	1.886014e+01	9.619194e+02
1.050000e-06	2.752388e-06	1.523387e-08	1.964883e+01	9.989862e+02
1.060000e-06	2.861919e-06	1.576361e-08	2.043076e+01	1.033745e+03
1.070000e-06	2.970594e-06	1.625698e-08	2.120658e+01	1.066407e+03
1.080000e-06	3.078346e-06	1.671892e-08	2.197579e+01	1.097139e+03
1.090000e-06	3.184939e-06	1.715450e-08	2.273674e+01	1.126071e+03
1.100000e-06	3.290309e-06	1.756621e-08	2.348897e+01	1.153311e+03
1.110000e-06	3.394450e-06	1.795514e-08	2.423241e+01	1.178963e+03
1.120000e-06	3.497339e-06	1.832453e-08	2.496692e+01	1.203135e+03
1.130000e-06	3.599076e-06	1.867583e-08	2.569320e+01	1.225943e+03
1.140000e-06	3.699673e-06	1.900640e-08	2.641134e+01	1.247509e+03
1.150000e-06	3.798955e-06	1.932005e-08	2.712010e+01	1.267951e+03
1.160000e-06	3.896758e-06	1.961513e-08	2.781830e+01	1.287375e+03
1.170000e-06	3.993082e-06	1.989311e-08	2.850594e+01	1.305864e+03
1.180000e-06	4.088009e-06	2.015516e-08	2.918361e+01	1.323482e+03
1.190000e-06	4.181593e-06	2.040774e-08	2.985169e+01	1.340268e+03
1.200000e-06	4.273841e-06	2.064941e-08	3.051023e+01	1.356250e+03
1.210000e-06	4.364590e-06	2.088090e-08	3.115807e+01	1.371452e+03
1.220000e-06	4.453682e-06	2.110093e-08	3.179409e+01	1.385902e+03
1.230000e-06	4.541063e-06	2.130892e-08	3.241789e+01	1.399635e+03
1.240000e-06	4.626826e-06	2.150466e-08	3.303014e+01	1.412698e+03
1.250000e-06	4.711135e-06	2.169212e-08	3.363200e+01	1.425142e+03
1.260000e-06	4.793846e-06	2.187295e-08	3.422246e+01	1.437021e+03
1.270000e-06	4.874721e-06	2.204629e-08	3.479981e+01	1.448377e+03
1.280000e-06	4.953686e-06	2.221117e-08	3.536353e+01	1.459242e+03
1.290000e-06	5.030849e-06	2.236911e-08	3.591439e+01	1.469632e+03
1.300000e-06	5.106142e-06	2.252134e-08	3.645189e+01	1.479548e+03
1.310000e-06	5.179393e-06	2.266799e-08	3.697481e+01	1.488986e+03
1.320000e-06	5.250623e-06	2.280631e-08	3.748332e+01	1.497935e+03
1.330000e-06	5.319928e-06	2.293566e-08	3.797807e+01	1.506394e+03
1.340000e-06	5.387412e-06	2.305715e-08	3.845983e+01	1.514368e+03
1.350000e-06	5.452999e-06	2.317076e-08	3.892805e+01	1.521877e+03
1.360000e-06	5.516522e-06	2.327888e-08	3.938152e+01	1.528951e+03
1.370000e-06	5.578087e-06	2.338206e-08	3.982103e+01	1.535629e+03
1.380000e-06	5.637947e-06	2.347994e-08	4.024836e+01	1.541948e+03
1.390000e-06	5.695915e-06	2.357263e-08	4.066218e+01	1.547947e+03
1.400000e-06	5.751675e-06	2.365968e-08	4.106024e+01	1.553655e+03
1.410000e-06	5.805309e-06	2.374109e-08	4.144313e+01	1.559092e+03
1.420000e-06	5.856756e-06	2.381865e-08	4.181040e+01	1.564269e+03
1.430000e-06	5.905733e-06	2.389219e-08	4.216004e+01	1.569193e+03
1.440000e-06	5.952397e-06	2.396343e-08	4.249316e+01	1.573862e+03
1.450000e-06	5.997129e-06	2.403190e-08	4.281250e+01	1.578275e+03
1.460000e-06	6.039914e-06	2.409733e-08	4.311793e+01	1.582429e+03
1.470000e-06	6.080406e-06	2.415769e-08	4.340700e+01	1.586319e+03
1.480000e-06	6.118635e-06	2.421298e-08	4.367991e+01	1.589943e+03
1.490000e-06	6.154888e-06	2.426348e-08	4.393871e+01	1.593297e+03
1.500000e-06	6.189012e-06	2.430728e-08	4.418232e+01	1.596376e+03
1.510000e-06	6.220875e-06	2.434877e-08	4.440978e+01	1.599181e+03
1.520000e-06	6.250582e-06	2.438757e-08	4.462186e+01	1.601709e+03
1.530000e-06	6.278261e-06	2.442100e-08	4.481945e+01	1.603966e+03
1.540000e-06	6.303606e-06	2.445056e-08	4.500038e+01	1.605962e+03
1.550000e-06	6.326442e-06	2.447838e-08	4.516341e+01	1.607709e+03
1.560000e-06	6.347128e-06	2.450223e-08	4.531109e+01	1.609224e+03
1.570000e-06	6.365763e-06	2.452286e-08	4.544411e+01	1.610524e+03
1.580000e-06	6.382032e-06	2.453997e-08	4.556026e+01	1.611626e+03
1.590000e-06	6.395821e-06	2.455355e-08	4.565870e+01	1.612538e+03
1.600000e-06	6.407196e-06	2.456477e-08	4.573990e+01	1.613265e+03
1.610000e-06	6.415973e-06	2.457221e-08	4.580256e+01	1.613806e+03
1.620000e-06	6.422320e-06	2.457841e-08	4.584787e+01	1.614154e+03
1.630000e-06	6.426592e-06	2.458369e-08	4.587836e+01	1.614303e+03
1.640000e-06	6.428586e-06	2.458704e-08	4.589260e+01	1.614247e+03
1.650000e-06	6.428205e-06	2.458856e-08	4.588988e+01	1.613985e+03
1.660000e-06	6.425720e-06	2.457451e-08	4.587214e+01	1.613522e+03
1.670000e-06	6.421324e-06	2.456481e-08	4.584075e+01	1.612867e+03
1.680000e-06	6.414708e-06	2.455356e-08	4.579353e+01	1.612029e+03
1.690000e-06	6.405838e-06	2.453846e-08	4.573020e+01	1.611019e+03
1.700000e-06	6.395016e-06	2.452492e-08	4.565295e+01	1.609843e+03
1.710000e-06	6.381986e-06	2.451124e-08	4.555993e+01	1.608504e+03
1.720000e-06	6.366690e-06	2.451199e-08	4.545073e+01	1.607001e+03
1.730000e-06	6.349410e-06	2.445346e-08	4.532737e+01	1.605333e+03
1.740000e-06	6.330048e-06	2.432334e-08	4.518915e+01	1.603500e+03
1.750000e-06	6.307713e-06	2.435070e-08	4.502971e+01	1.601509e+03
1.760000e-06	6.282131e-06	2.435679e-08	4.484708e+01	1.599369e+03
1.770000e-06	6.254322e-06	2.428636e-08	4.464856e+01	1.597098e+03
1.780000e-06	6.224700e-06	2.438558e-08	4.443709e+01	1.594711e+03
1.790000e-06	6.193467e-06	2.430660e-08	4.421413e+01	1.592221e+03
1.800000e-06	6.160880e-06	2.411970e-08	4.398149e+01	1.589628e+03
1.810000e-06	6.126206e-06	2.425496e-08	4.373395e+01	1.586919e+03
1.820000e-06	6.089537e-06	2.406446e-08	4.347218e+01	1.584065e+03
1.830000e-06	6.050836e-06	2.403789e-08	4.319590e+01	1.581024e+03
1.840000e-06	6.009662e-06	2.420400e-08	4.290197e+01	1.577748e+03
1.850000e-06	5.966509e-06	2.388053e-08	4.259391e+01	1.574192e+03
1.860000e-06	5.921320e-06	2.395710e-08	4.227131e+01	1.570320e+03
1.870000e-06	5.873901e-06	2.393081e-08	4.193279e+01	1.566116e+03
1.880000e-06	5.824401e-06	2.376139e-08	4.157942e+01	1.561584e+03
1.890000e-06	5.772404e-06	2.385052e-08	4.120823e+01	1.556745e+03
1.900000e-06	5.717824e-06	2.360353e-08	4.081859e+01	1.551633e+03
1.910000e-06	5.661006e-06	2.357650e-08	4.041297e+01	1.546283e+03
1.920000e-06	5.602142e-06	2.354513e-08	3.999275e+01	1.540724e+03
1.930000e-06	5.541519e-06	2.340528e-08	3.955998e+01	1.534967e+03
1.940000e-06	5.478755e-06	2.342331e-08	3.911191e+01	1.529004e+03
1.950000e-06	5.413768e-06	2.318805e-08	3.864798e+01	1.522809e+03
1.960000e-06	5.346886e-06	2.317091e-08	3.817052e+01	1.516343e+03
1.970000e-06	5.278010e-06	2.301217e-08	3.767883e+01	1.509567e+03
1.980000e-06	5.207062e-06	2.288095e-08	3.717234e+01	1.502447e+03
1.990000e-06	5.134101e-06	2.287076e-08	3.665149e+01	1.494963e+03
2.000000e-06	5.059360e-06	2.267921e-08	3.611792e+01	1.487115e+03
2.010000e-06	4.982566e-06	2.261547e-08	3.556970e+01	1.478915e+03
2.020000e-06	4.903628e-06	2.239932e-08	3.500618e+01	1.470388e+03
2.030000e-06	4.822924e-06	2.229977e-08	3.443004e+01	1.461554e+03
2.040000e-06	4.740663e-06	2.219746e-08	3.384279e+01	1.452428e+03
2.050000e-06	4.656971e-06	2.202151e-08	3.324533e+01	1.443006e+03
2.060000e-06	4.571593e-06	2.189781e-08	3.263583e+01	1.433271e+03
2.070000e-06	4.484405e-06	2.170264e-08	3.201341e+01	1.423186e+03
2.080000e-06	4.395559e-06	2.157725e-08	3.137916e+01	1.412712e+03
2.090000e-06	4.305277e-06	2.138551e-08	3.073465e+01	1.401807e+03
2.100000e-06	4.213668e-06	2.124429e-08	3.008067e+01	1.390441e+03
2.110000e-06	4.120600e-06	2.106921e-08	2.941627e+01	1.378595e+03
2.120000e-06	4.026033e-06	2.086193e-08	2.874117e+01	1.366266e+03
2.130000e-06	3.929997e-06	2.066492e-08	2.805559e+01	1.353459e+03
2.140000e-06	3.832539e-06	2.045000e-08	2.735985e+01	1.340182e+03
2.150000e-06	3.733801e-06	2.026414e-08	2.665498e+01	1.326433e+03
2.160000e-06	3.633826e-06	2.003928e-08	2.594127e+01	1.312200e+03
2.170000e-06	3.532421e-06	1.983292e-08	2.521736e+01	1.297452e+03
2.180000e-06	3.429507e-06	1.958934e-08	2.448268e+01	1.282145e+03
2.190000e-06	3.325260e-06	1.935005e-08	2.373847e+01	1.266224e+03
2.200000e-06	3.219911e-06	1.909713e-08	2.298640e+01	1.249631e+03
2.210000e-06	3.113514e-06	1.884243e-08	2.222686e+01	1.232317e+03
2.220000e-06	3.006002e-06	1.856792e-08	2.145934e+01	1.214240e+03
2.230000e-06	2.897412e-06	1.826779e-08	2.068414e+01	1.195369e+03
2.240000e-06	2.787828e-06	1.796800e-08	1.990184e+01	1.175677e+03
2.250000e-06	2.677231e-06	1.765709e-08	1.911230e+01	1.155138e+03
2.260000e-06	2.565643e-06	1.734100e-08	1.831570e+01	1.133714e+03
2.270000e-06	2.453031e-06	1.700001e-08	1.751178e+01	1.111349e+03
2.280000e-06	2.339417e-06	1.664983e-08	1.670070e+01	1.087970e+03
2.290000e-06	2.224866e-06	1.627366e-08	1.588294e+01	1.063482e+03
2.300000e-06	2.109487e-06	1.588211e-08	1.505927e+01	1.037778e+03
2.310000e-06	1.993342e-06	1.546956e-08	1.423013e+01	1.010745e+03
2.320000e-06	1.876331e-06	1.504054e-08	1.339481e+01	9.822712e+02
2.330000e-06	1.758574e-06	1.458403e-08	1.255417e+01	9.522497e+02
2.340000e-06	1.640201e-06	1.409709e-08	1.170912e+01	9.205775e+02
2.350000e-06	1.521227e-06	1.358523e-08	1.085978e+01	8.871519e+02
2.360000e-06	1.401665e-06	1.304727e-08	1.000625e+01	8.518651e+02
2.370000e-06	1.281593e-06	1.248545e-08	9.149076e+00	8.146020e+02
2.380000e-06	1.161107e-06	1.188765e-08	8.288949e+00	7.752426e+02
2.390000e-06	1.040236e-06	1.125428e-08	7.426071e+00	7.336743e+02
2.400000e-06	9.190302e-07	1.058199e-08	6.560803e+00	6.898119e+02
2.410000e-06	7.975765e-07	9.877561e-09	5.693765e+00	6.436229e+02
2.420000e-06	6.758815e-07	9.139196e-09	4.825005e+00	5.951537e+02
2.430000e-06	5.540241e-07	8.367875e-09	3.955085e+00	5.445482e+02
2.440000e-06	4.320373e-07	7.568448e-09	3.084242e+00	4.920525e+02
2.450000e-06	3.099162e-07	6.741943e-09	2.212439e+00	4.380006e+02
2.460000e-06	1.876672e-07	5.895473e-09	1.339725e+00	3.827814e+02
2.470000e-06	6.528659e-08	5.038853e-09	4.660700e-01	3.267886e+02
2.480000e-06	-5.707357e-08	4.179806e-09	-4.074387e-01	2.703635e+02
2.490000e-06	-1.793986e-07	3.316228e-09	-1.280696e+00	2.137409e+02
2.500000e-06	-3.016786e-07	2.446403e-09	-2.153633e+00	1.570102e+02
2.510000e-06	-4.238510e-07	1.571971e-09	-3.025801e+00	1.001025e+02
2.520000e-06	-5.459121e-07	6.921340e-10	-3.897175e+00	4.280733e+01
2.530000e-06	-6.678347e-07	-1.938744e-10	-4.767560e+00	-1.517955e+01
2.540000e-06	-7.895655e-07	-1.093000e-09	-5.636575e+00	-7.418561e+01
2.550000e-06	-9.110379e-07	-2.011816e-09	-6.503747e+00	-1.344800e+02
2.560000e-06	-1.032232e-06	-2.952122e-09	-7.368929e+00	-1.961965e+02
2.570000e-06	-1.153063e-06	-3.913930e-09	-8.231521e+00	-2.592751e+02
2.580000e-06	-1.273430e-06	-4.892164e-09	-9.090806e+00	-3.234352e+02
2.590000e-06	-1.393341e-06	-5.881302e-09	-9.946826e+00	-3.881843e+02
2.600000e-06	-1.512729e-06	-6.873953e-09	-1.079912e+01	-4.528631e+02
2.610000e-06	-1.631479e-06	-7.855856e-09	-1.164685e+01	-5.167158e+02
2.620000e-06	-1.749581e-06	-8.811494e-09	-1.248997e+01	-5.789765e+02
2.630000e-06	-1.866947e-06	-9.729019e-09	-1.332782e+01	-6.389523e+02
2.640000e-06	-1.983474e-06	-1.060230e-08	-1.415969e+01	-6.960924e+02
2.650000e-06	-2.099145e-06	-1.142643e-08	-1.498545e+01	-7.500305e+02
2.660000e-06	-2.213891e-06	-1.219884e-08	-1.580459e+01	-8.005967e+02
2.670000e-06	-2.327587e-06	-1.292298e-08	-1.661626e+01	-8.478004e+02
2.680000e-06	-2.440221e-06	-1.359880e-08	-1.742033e+01	-8.917914e+02
2.690000e-06	-2.551815e-06	-1.422912e-08	-1.821698e+01	-9.328077e+02
2.700000e-06	-2.662352e-06	-1.481925e-08	-1.900609e+01	-9.711246e+02
2.710000e-06	-2.771946e-06	-1.537430e-08	-1.978846e+01	-1.007011e+03
2.720000e-06	-2.880719e-06	-1.589430e-08	-2.056497e+01	-1.040700e+03
2.730000e-06	-2.988550e-06	-1.637964e-08	-2.133476e+01	-1.072382e+03
2.740000e-06	-3.095362e-06	-1.683438e-08	-2.209727e+01	-1.102202e+03
2.750000e-06	-3.201174e-06	-1.725968e-08	-2.285265e+01	-1.130278e+03
2.760000e-06	-3.305946e-06	-1.766082e-08	-2.360059e+01	-1.156714e+03
2.770000e-06	-3.409488e-06	-1.804234e-08	-2.433976e+01	-1.181615e+03
2.780000e-06	-3.511680e-06	-1.840433e-08	-2.506930e+01	-1.205092e+03
2.790000e-06	-3.612606e-06	-1.874422e-08	-2.578979e+01	-1.227267e+03
2.800000e-06	-3.712206e-06	-1.906454e-08	-2.650082e+01	-1.248260e+03
2.810000e-06	-3.810538e-06	-1.937086e-08	-2.720279e+01	-1.268183e+03
2.820000e-06	-3.907641e-06	-1.966303e-08	-2.789600e+01	-1.287133e+03
2.830000e-06	-4.003400e-06	-1.993910e-08	-2.857960e+01	-1.305183e+03
2.840000e-06	-4.097721e-06	-2.019909e-08	-2.925294e+01	-1.322384e+03
2.850000e-06	-4.190548e-06	-2.044647e-08	-2.991562e+01	-1.338768e+03
2.860000e-06	-4.281892e-06	-2.068524e-08	-3.056771e+01	-1.354360e+03
2.870000e-06	-4.371749e-06	-2.091567e-08	-3.120918e+01	-1.369185e+03
2.880000e-06	-4.460056e-06	-2.113627e-08	-3.183959e+01	-1.383274e+03
2.890000e-06	-4.546643e-06	-2.134470e-08	-3.245772e+01	-1.396668e+03
2.900000e-06	-4.631439e-06	-2.154095e-08	-3.306306e+01	-1.409418e+03
2.910000e-06	-4.714640e-06	-2.172734e-08	-3.365703e+01	-1.421576e+03
2.920000e-06	-4.796329e-06	-2.190380e-08	-3.424019e+01	-1.433191e+03
2.930000e-06	-4.876323e-06	-2.207118e-08	-3.481125e+01	-1.444301e+03
2.940000e-06	-4.954350e-06	-2.222997e-08	-3.536828e+01	-1.454931e+03
