# Temperatura_=_77.23
# Concentracion g/m^3_=_28200.0
# C_Vs_to_Am_M_A/Vsm_=_65563218390.804596
# pendiente_HvsI_1/m_=_3716.3
# ordenada_HvsI_A/m_=_1297.0
# frecuencia_Hz_=_302096.13503331336

Tiempo_(s)	Campo_(V.s)	Magnetizacion_(V.s)	Campo_(kA/m)	Magnetizacion_(A/m)
0.000000e+00	-6.390617e-06	-2.441313e-08	-4.557105e+01	-1.597919e+03
1.000000e-08	-6.386868e-06	-2.440591e-08	-4.554432e+01	-1.597450e+03
2.000000e-08	-6.381102e-06	-2.439509e-08	-4.550320e+01	-1.596814e+03
3.000000e-08	-6.373426e-06	-2.438407e-08	-4.544847e+01	-1.595992e+03
4.000000e-08	-6.363572e-06	-2.436670e-08	-4.537820e+01	-1.594958e+03
5.000000e-08	-6.351217e-06	-2.434424e-08	-4.529009e+01	-1.593698e+03
6.000000e-08	-6.336549e-06	-2.431819e-08	-4.518550e+01	-1.592209e+03
7.000000e-08	-6.319621e-06	-2.428432e-08	-4.506479e+01	-1.590504e+03
8.000000e-08	-6.300545e-06	-2.428262e-08	-4.492875e+01	-1.588616e+03
9.000000e-08	-6.279356e-06	-2.434085e-08	-4.477765e+01	-1.586591e+03
1.000000e-07	-6.255777e-06	-2.424921e-08	-4.460952e+01	-1.584481e+03
1.100000e-07	-6.229556e-06	-2.415365e-08	-4.442254e+01	-1.582328e+03
1.200000e-07	-6.200948e-06	-2.414347e-08	-4.421854e+01	-1.580159e+03
1.300000e-07	-6.170564e-06	-2.405707e-08	-4.400187e+01	-1.577974e+03
1.400000e-07	-6.138709e-06	-2.393002e-08	-4.377471e+01	-1.575741e+03
1.500000e-07	-6.104968e-06	-2.409764e-08	-4.353411e+01	-1.573400e+03
1.600000e-07	-6.069059e-06	-2.401905e-08	-4.327805e+01	-1.570873e+03
1.700000e-07	-6.031390e-06	-2.381028e-08	-4.300943e+01	-1.568075e+03
1.800000e-07	-5.991723e-06	-2.396681e-08	-4.272657e+01	-1.564931e+03
1.900000e-07	-5.949606e-06	-2.376128e-08	-4.242623e+01	-1.561393e+03
2.000000e-07	-5.905305e-06	-2.370415e-08	-4.211032e+01	-1.557443e+03
2.100000e-07	-5.858895e-06	-2.375508e-08	-4.177938e+01	-1.553103e+03
2.200000e-07	-5.810137e-06	-2.353051e-08	-4.143169e+01	-1.548423e+03
2.300000e-07	-5.758897e-06	-2.349787e-08	-4.106630e+01	-1.543472e+03
2.400000e-07	-5.705190e-06	-2.345903e-08	-4.068332e+01	-1.538322e+03
2.500000e-07	-5.649371e-06	-2.336820e-08	-4.028528e+01	-1.533026e+03
2.600000e-07	-5.591352e-06	-2.331559e-08	-3.987155e+01	-1.527615e+03
2.700000e-07	-5.531194e-06	-2.321225e-08	-3.944256e+01	-1.522082e+03
2.800000e-07	-5.469129e-06	-2.312885e-08	-3.899998e+01	-1.516391e+03
2.900000e-07	-5.405069e-06	-2.298188e-08	-3.854318e+01	-1.510483e+03
3.000000e-07	-5.338911e-06	-2.293317e-08	-3.807141e+01	-1.504293e+03
3.100000e-07	-5.270700e-06	-2.286261e-08	-3.758500e+01	-1.497762e+03
3.200000e-07	-5.200547e-06	-2.273030e-08	-3.708474e+01	-1.490853e+03
3.300000e-07	-5.128586e-06	-2.262641e-08	-3.657159e+01	-1.483555e+03
3.400000e-07	-5.054728e-06	-2.246351e-08	-3.604492e+01	-1.475886e+03
3.500000e-07	-4.978667e-06	-2.236757e-08	-3.550253e+01	-1.467880e+03
3.600000e-07	-4.900466e-06	-2.224274e-08	-3.494489e+01	-1.459578e+03
3.700000e-07	-4.820208e-06	-2.212248e-08	-3.437258e+01	-1.451014e+03
3.800000e-07	-4.738168e-06	-2.200556e-08	-3.378755e+01	-1.442200e+03
3.900000e-07	-4.654673e-06	-2.183316e-08	-3.319215e+01	-1.433126e+03
4.000000e-07	-4.569761e-06	-2.167688e-08	-3.258665e+01	-1.423755e+03
4.100000e-07	-4.483398e-06	-2.153333e-08	-3.197080e+01	-1.414034e+03
4.200000e-07	-4.395679e-06	-2.140033e-08	-3.134528e+01	-1.403906e+03
4.300000e-07	-4.306482e-06	-2.123078e-08	-3.070923e+01	-1.393319e+03
4.400000e-07	-4.215562e-06	-2.105367e-08	-3.006089e+01	-1.382242e+03
4.500000e-07	-4.123045e-06	-2.088366e-08	-2.940115e+01	-1.370663e+03
4.600000e-07	-4.029080e-06	-2.068824e-08	-2.873110e+01	-1.358592e+03
4.700000e-07	-3.933794e-06	-2.050573e-08	-2.805161e+01	-1.346049e+03
4.800000e-07	-3.837227e-06	-2.031518e-08	-2.736300e+01	-1.333057e+03
4.900000e-07	-3.739105e-06	-2.010714e-08	-2.666330e+01	-1.319625e+03
5.000000e-07	-3.639466e-06	-1.987978e-08	-2.595278e+01	-1.305745e+03
5.100000e-07	-3.538505e-06	-1.965366e-08	-2.523284e+01	-1.291384e+03
5.200000e-07	-3.436283e-06	-1.943043e-08	-2.450390e+01	-1.276488e+03
5.300000e-07	-3.332905e-06	-1.919453e-08	-2.376672e+01	-1.260994e+03
5.400000e-07	-3.228351e-06	-1.895214e-08	-2.302115e+01	-1.244835e+03
5.500000e-07	-3.122517e-06	-1.869270e-08	-2.226646e+01	-1.227951e+03
5.600000e-07	-3.015304e-06	-1.842218e-08	-2.150193e+01	-1.210300e+03
5.700000e-07	-2.906928e-06	-1.813556e-08	-2.072910e+01	-1.191850e+03
5.800000e-07	-2.797585e-06	-1.784251e-08	-1.994939e+01	-1.172582e+03
5.900000e-07	-2.687274e-06	-1.753648e-08	-1.916277e+01	-1.152478e+03
6.000000e-07	-2.576045e-06	-1.721052e-08	-1.836960e+01	-1.131507e+03
6.100000e-07	-2.463861e-06	-1.687119e-08	-1.756962e+01	-1.109623e+03
6.200000e-07	-2.350679e-06	-1.652036e-08	-1.676253e+01	-1.086756e+03
6.300000e-07	-2.236442e-06	-1.615879e-08	-1.594791e+01	-1.062815e+03
6.400000e-07	-2.121205e-06	-1.577580e-08	-1.512617e+01	-1.037695e+03
6.500000e-07	-2.005059e-06	-1.537185e-08	-1.429794e+01	-1.011281e+03
6.600000e-07	-1.888098e-06	-1.494204e-08	-1.346389e+01	-9.834614e+02
6.700000e-07	-1.770541e-06	-1.449230e-08	-1.262560e+01	-9.541317e+02
6.800000e-07	-1.652488e-06	-1.402346e-08	-1.178378e+01	-9.231922e+02
6.900000e-07	-1.533883e-06	-1.352865e-08	-1.093801e+01	-8.905456e+02
7.000000e-07	-1.414733e-06	-1.300633e-08	-1.008836e+01	-8.560898e+02
7.100000e-07	-1.295141e-06	-1.244848e-08	-9.235563e+00	-8.197132e+02
7.200000e-07	-1.175153e-06	-1.185968e-08	-8.379935e+00	-7.812949e+02
7.300000e-07	-1.054804e-06	-1.123530e-08	-7.521734e+00	-7.407138e+02
7.400000e-07	-9.340901e-07	-1.058011e-08	-6.660933e+00	-6.978673e+02
7.500000e-07	-8.129481e-07	-9.894733e-09	-5.797077e+00	-6.526968e+02
7.600000e-07	-6.914756e-07	-9.173274e-09	-4.930865e+00	-6.052150e+02
7.700000e-07	-5.697555e-07	-8.413478e-09	-4.062887e+00	-5.555289e+02
7.800000e-07	-4.478566e-07	-7.622029e-09	-3.193635e+00	-5.038498e+02
7.900000e-07	-3.258183e-07	-6.808221e-09	-2.323388e+00	-4.504860e+02
8.000000e-07	-2.035866e-07	-5.975210e-09	-1.451762e+00	-3.958150e+02
8.100000e-07	-8.120602e-08	-5.132906e-09	-5.790745e-01	-3.402385e+02
8.200000e-07	4.127673e-08	-4.283781e-09	2.943416e-01	-2.841263e+02
8.300000e-07	1.637840e-07	-3.429426e-09	1.167933e+00	-2.277598e+02
8.400000e-07	2.862506e-07	-2.568240e-09	2.041234e+00	-1.712874e+02
8.500000e-07	4.086220e-07	-1.705653e-09	2.913855e+00	-1.147007e+02
8.600000e-07	5.308098e-07	-8.366123e-10	3.785168e+00	-5.784095e+01
8.700000e-07	6.528493e-07	4.252371e-11	4.655424e+00	-4.349979e-01
8.800000e-07	7.747127e-07	9.312732e-10	5.524423e+00	5.784276e+01
8.900000e-07	8.962601e-07	1.834388e-09	6.391170e+00	1.172932e+02
9.000000e-07	1.017473e-06	2.757164e-09	7.255530e+00	1.781137e+02
9.100000e-07	1.138330e-06	3.702628e-09	8.117355e+00	2.403327e+02
9.200000e-07	1.258772e-06	4.665271e-09	8.976220e+00	3.037701e+02
9.300000e-07	1.378760e-06	5.642339e-09	9.831842e+00	3.680308e+02
9.400000e-07	1.498272e-06	6.627247e-09	1.068407e+01	4.325337e+02
9.500000e-07	1.617230e-06	7.607064e-09	1.153236e+01	4.965704e+02
9.600000e-07	1.735591e-06	8.563426e-09	1.237638e+01	5.593827e+02
9.700000e-07	1.853406e-06	9.485634e-09	1.321651e+01	6.202460e+02
9.800000e-07	1.970541e-06	1.036963e-08	1.405180e+01	6.785434e+02
9.900000e-07	2.086855e-06	1.120751e-08	1.488122e+01	7.338202e+02
1.000000e-06	2.202310e-06	1.199284e-08	1.570452e+01	7.858098e+02
1.010000e-06	2.316807e-06	1.272395e-08	1.652099e+01	8.344324e+02
1.020000e-06	2.430250e-06	1.340789e-08	1.732995e+01	8.797666e+02
1.030000e-06	2.542653e-06	1.404872e-08	1.813148e+01	9.220067e+02
1.040000e-06	2.654088e-06	1.465169e-08	1.892612e+01	9.614114e+02
1.050000e-06	2.764595e-06	1.521354e-08	1.971414e+01	9.982572e+02
1.060000e-06	2.874198e-06	1.573868e-08	2.049571e+01	1.032802e+03
1.070000e-06	2.982889e-06	1.622623e-08	2.127077e+01	1.065264e+03
1.080000e-06	3.090652e-06	1.668430e-08	2.203923e+01	1.095816e+03
1.090000e-06	3.197359e-06	1.711868e-08	2.280015e+01	1.124592e+03
1.100000e-06	3.302750e-06	1.752906e-08	2.355168e+01	1.151702e+03
1.110000e-06	3.406811e-06	1.791846e-08	2.429373e+01	1.177243e+03
1.120000e-06	3.509636e-06	1.828519e-08	2.502698e+01	1.201316e+03
1.130000e-06	3.611299e-06	1.863173e-08	2.575193e+01	1.224027e+03
1.140000e-06	3.711853e-06	1.895845e-08	2.646897e+01	1.245489e+03
1.150000e-06	3.811176e-06	1.926910e-08	2.717723e+01	1.265814e+03
1.160000e-06	3.909048e-06	1.956378e-08	2.787515e+01	1.285105e+03
1.170000e-06	4.005306e-06	1.984268e-08	2.856156e+01	1.303451e+03
1.180000e-06	4.100055e-06	2.010611e-08	2.923721e+01	1.320918e+03
1.190000e-06	4.193486e-06	2.035829e-08	2.990346e+01	1.337555e+03
1.200000e-06	4.285703e-06	2.059708e-08	3.056105e+01	1.353396e+03
1.210000e-06	4.376511e-06	2.082517e-08	3.120860e+01	1.368465e+03
1.220000e-06	4.465564e-06	2.104194e-08	3.184363e+01	1.382791e+03
1.230000e-06	4.552842e-06	2.124631e-08	3.246600e+01	1.396405e+03
1.240000e-06	4.638568e-06	2.143991e-08	3.307731e+01	1.409349e+03
1.250000e-06	4.722868e-06	2.162838e-08	3.367845e+01	1.421673e+03
1.260000e-06	4.805589e-06	2.181001e-08	3.426833e+01	1.433426e+03
1.270000e-06	4.886496e-06	2.198183e-08	3.484527e+01	1.444657e+03
1.280000e-06	4.965467e-06	2.214534e-08	3.540841e+01	1.455403e+03
1.290000e-06	5.042555e-06	2.230231e-08	3.595811e+01	1.465688e+03
1.300000e-06	5.117765e-06	2.245373e-08	3.649443e+01	1.475518e+03
1.310000e-06	5.190878e-06	2.259830e-08	3.701579e+01	1.484891e+03
1.320000e-06	5.261971e-06	2.273604e-08	3.752276e+01	1.493795e+03
1.330000e-06	5.331281e-06	2.286520e-08	3.801700e+01	1.502219e+03
1.340000e-06	5.398791e-06	2.298537e-08	3.849841e+01	1.510160e+03
1.350000e-06	5.464223e-06	2.309865e-08	3.896500e+01	1.517625e+03
1.360000e-06	5.527573e-06	2.320756e-08	3.941674e+01	1.524636e+03
1.370000e-06	5.589171e-06	2.331111e-08	3.985599e+01	1.531226e+03
1.380000e-06	5.649040e-06	2.340663e-08	4.028291e+01	1.537439e+03
1.390000e-06	5.706830e-06	2.349467e-08	4.069502e+01	1.543318e+03
1.400000e-06	5.762402e-06	2.357911e-08	4.109130e+01	1.548905e+03
1.410000e-06	5.815903e-06	2.366055e-08	4.147281e+01	1.554233e+03
1.420000e-06	5.867120e-06	2.373773e-08	4.183803e+01	1.559322e+03
1.430000e-06	5.915892e-06	2.381067e-08	4.218582e+01	1.564180e+03
1.440000e-06	5.962485e-06	2.388140e-08	4.251807e+01	1.568802e+03
1.450000e-06	6.007132e-06	2.395008e-08	4.283645e+01	1.573178e+03
1.460000e-06	6.049714e-06	2.401466e-08	4.314009e+01	1.577292e+03
1.470000e-06	6.090082e-06	2.407415e-08	4.342795e+01	1.581133e+03
1.480000e-06	6.128316e-06	2.412952e-08	4.370060e+01	1.584692e+03
1.490000e-06	6.164535e-06	2.418047e-08	4.395888e+01	1.587969e+03
1.500000e-06	6.198548e-06	2.422510e-08	4.420142e+01	1.590967e+03
1.510000e-06	6.230219e-06	2.426482e-08	4.442727e+01	1.593699e+03
1.520000e-06	6.259740e-06	2.430117e-08	4.463778e+01	1.596176e+03
1.530000e-06	6.287249e-06	2.433474e-08	4.483394e+01	1.598412e+03
1.540000e-06	6.312436e-06	2.436612e-08	4.501355e+01	1.600413e+03
1.550000e-06	6.335184e-06	2.439498e-08	4.517576e+01	1.602186e+03
1.560000e-06	6.355830e-06	2.441956e-08	4.532299e+01	1.603730e+03
1.570000e-06	6.374261e-06	2.444002e-08	4.545442e+01	1.605044e+03
1.580000e-06	6.390220e-06	2.445617e-08	4.556822e+01	1.606125e+03
1.590000e-06	6.403741e-06	2.446794e-08	4.566464e+01	1.606977e+03
1.600000e-06	6.414816e-06	2.447700e-08	4.574361e+01	1.607606e+03
1.610000e-06	6.423408e-06	2.448467e-08	4.580488e+01	1.608024e+03
1.620000e-06	6.429688e-06	2.449019e-08	4.584966e+01	1.608250e+03
1.630000e-06	6.433870e-06	2.449246e-08	4.587948e+01	1.608303e+03
1.640000e-06	6.435709e-06	2.449309e-08	4.589260e+01	1.608200e+03
1.650000e-06	6.435135e-06	2.449377e-08	4.588850e+01	1.607950e+03
1.660000e-06	6.432453e-06	2.448086e-08	4.586938e+01	1.607555e+03
1.670000e-06	6.427744e-06	2.447415e-08	4.583581e+01	1.607003e+03
1.680000e-06	6.420793e-06	2.446347e-08	4.578624e+01	1.606274e+03
1.690000e-06	6.411690e-06	2.444797e-08	4.572132e+01	1.605346e+03
1.700000e-06	6.400656e-06	2.443462e-08	4.564264e+01	1.604199e+03
1.710000e-06	6.387326e-06	2.442159e-08	4.554758e+01	1.602821e+03
1.720000e-06	6.371758e-06	2.442254e-08	4.543657e+01	1.601218e+03
1.730000e-06	6.354256e-06	2.435581e-08	4.531176e+01	1.599414e+03
1.740000e-06	6.334597e-06	2.423061e-08	4.517158e+01	1.597450e+03
1.750000e-06	6.311929e-06	2.426930e-08	4.500993e+01	1.595373e+03
1.760000e-06	6.286144e-06	2.426836e-08	4.482606e+01	1.593235e+03
1.770000e-06	6.258206e-06	2.420018e-08	4.462684e+01	1.591070e+03
1.780000e-06	6.228379e-06	2.433104e-08	4.441415e+01	1.588892e+03
1.790000e-06	6.197024e-06	2.421469e-08	4.419055e+01	1.586687e+03
1.800000e-06	6.164302e-06	2.401528e-08	4.395721e+01	1.584406e+03
1.810000e-06	6.129449e-06	2.422905e-08	4.370868e+01	1.581981e+03
1.820000e-06	6.092562e-06	2.407046e-08	4.344564e+01	1.579326e+03
1.830000e-06	6.053585e-06	2.404785e-08	4.316770e+01	1.576361e+03
1.840000e-06	6.012172e-06	2.415152e-08	4.287239e+01	1.573022e+03
1.850000e-06	5.968786e-06	2.380242e-08	4.256301e+01	1.569275e+03
1.860000e-06	5.923331e-06	2.392389e-08	4.223887e+01	1.565123e+03
1.870000e-06	5.875678e-06	2.387242e-08	4.189906e+01	1.560602e+03
1.880000e-06	5.825946e-06	2.370926e-08	4.154442e+01	1.555776e+03
1.890000e-06	5.773681e-06	2.376554e-08	4.117173e+01	1.550715e+03
1.900000e-06	5.718852e-06	2.349085e-08	4.078074e+01	1.545484e+03
1.910000e-06	5.661802e-06	2.350994e-08	4.037392e+01	1.540126e+03
1.920000e-06	5.602811e-06	2.345402e-08	3.995326e+01	1.534655e+03
1.930000e-06	5.542023e-06	2.332059e-08	3.951979e+01	1.529046e+03
1.940000e-06	5.479013e-06	2.333425e-08	3.907046e+01	1.523253e+03
1.950000e-06	5.413780e-06	2.308795e-08	3.860530e+01	1.517209e+03
1.960000e-06	5.346628e-06	2.309181e-08	3.812644e+01	1.510853e+03
1.970000e-06	5.277469e-06	2.291929e-08	3.763327e+01	1.504133e+03
1.980000e-06	5.206189e-06	2.280916e-08	3.712497e+01	1.497027e+03
1.990000e-06	5.132953e-06	2.279931e-08	3.660274e+01	1.489538e+03
2.000000e-06	5.057973e-06	2.260704e-08	3.606806e+01	1.481693e+03
2.010000e-06	4.980880e-06	2.253756e-08	3.551831e+01	1.473532e+03
2.020000e-06	4.901672e-06	2.231001e-08	3.495349e+01	1.465093e+03
2.030000e-06	4.820718e-06	2.223784e-08	3.437621e+01	1.456402e+03
2.040000e-06	4.738184e-06	2.213365e-08	3.378767e+01	1.447459e+03
2.050000e-06	4.654225e-06	2.196392e-08	3.318896e+01	1.438239e+03
2.060000e-06	4.568589e-06	2.183702e-08	3.257830e+01	1.428698e+03
2.070000e-06	4.481182e-06	2.164064e-08	3.195500e+01	1.418778e+03
2.080000e-06	4.392167e-06	2.151717e-08	3.132024e+01	1.408424e+03
2.090000e-06	4.301702e-06	2.131936e-08	3.067514e+01	1.397592e+03
2.100000e-06	4.209876e-06	2.118348e-08	3.002034e+01	1.386262e+03
2.110000e-06	4.116608e-06	2.100476e-08	2.935525e+01	1.374432e+03
2.120000e-06	4.021770e-06	2.080434e-08	2.867897e+01	1.362120e+03
2.130000e-06	3.925494e-06	2.060997e-08	2.799243e+01	1.349348e+03
2.140000e-06	3.827909e-06	2.039892e-08	2.729656e+01	1.336134e+03
2.150000e-06	3.728899e-06	2.021249e-08	2.659052e+01	1.322478e+03
2.160000e-06	3.628561e-06	1.998727e-08	2.587502e+01	1.308360e+03
2.170000e-06	3.526762e-06	1.978205e-08	2.514910e+01	1.293737e+03
2.180000e-06	3.423541e-06	1.953410e-08	2.441304e+01	1.278548e+03
2.190000e-06	3.319143e-06	1.929544e-08	2.366858e+01	1.262727e+03
2.200000e-06	3.213636e-06	1.904231e-08	2.291622e+01	1.246210e+03
2.210000e-06	3.107040e-06	1.878786e-08	2.215609e+01	1.228944e+03
2.220000e-06	2.999336e-06	1.851283e-08	2.138806e+01	1.210894e+03
2.230000e-06	2.890627e-06	1.821978e-08	2.061286e+01	1.192036e+03
2.240000e-06	2.780880e-06	1.792635e-08	1.983026e+01	1.172350e+03
2.250000e-06	2.670079e-06	1.761830e-08	1.904015e+01	1.151814e+03
2.260000e-06	2.558279e-06	1.729990e-08	1.824292e+01	1.130392e+03
2.270000e-06	2.445423e-06	1.695459e-08	1.743814e+01	1.108024e+03
2.280000e-06	2.331558e-06	1.660083e-08	1.662618e+01	1.084631e+03
2.290000e-06	2.216744e-06	1.622146e-08	1.580745e+01	1.060111e+03
2.300000e-06	2.101086e-06	1.582873e-08	1.498270e+01	1.034356e+03
2.310000e-06	1.984701e-06	1.541668e-08	1.415276e+01	1.007250e+03
2.320000e-06	1.867568e-06	1.498867e-08	1.331750e+01	9.786865e+02
2.330000e-06	1.749653e-06	1.453066e-08	1.247666e+01	9.485616e+02
2.340000e-06	1.630990e-06	1.404257e-08	1.163048e+01	9.167785e+02
2.350000e-06	1.511718e-06	1.352858e-08	1.077996e+01	8.832382e+02
2.360000e-06	1.391958e-06	1.298867e-08	9.925960e+00	8.478343e+02
2.370000e-06	1.271789e-06	1.242481e-08	9.069037e+00	8.104499e+02
2.380000e-06	1.151242e-06	1.182330e-08	8.209426e+00	7.709624e+02
2.390000e-06	1.030313e-06	1.118727e-08	7.347089e+00	7.292569e+02
2.400000e-06	9.090284e-07	1.051368e-08	6.482219e+00	6.852495e+02
2.410000e-06	7.874644e-07	9.807510e-09	5.615355e+00	6.389140e+02
2.420000e-06	6.656925e-07	9.066932e-09	4.747008e+00	5.903078e+02
2.430000e-06	5.437223e-07	8.294161e-09	3.877246e+00	5.395900e+02
2.440000e-06	4.215956e-07	7.495586e-09	3.006370e+00	4.870224e+02
2.450000e-06	2.993866e-07	6.669628e-09	2.134905e+00	4.329527e+02
2.460000e-06	1.770420e-07	5.822184e-09	1.262474e+00	3.777770e+02
2.470000e-06	5.460117e-08	4.964624e-09	3.893572e-01	3.218883e+02
2.480000e-06	-6.784349e-08	4.107781e-09	-4.837873e-01	2.656189e+02
2.490000e-06	-1.903212e-07	3.247718e-09	-1.357167e+00	2.091882e+02
2.500000e-06	-3.127675e-07	2.381555e-09	-2.230324e+00	1.526672e+02
2.510000e-06	-4.350661e-07	1.512265e-09	-3.102426e+00	9.596975e+01
2.520000e-06	-5.572016e-07	6.354236e-10	-3.973366e+00	3.887364e+01
2.530000e-06	-6.792089e-07	-2.501369e-10	-4.843392e+00	-1.892953e+01
2.540000e-06	-8.010625e-07	-1.148895e-09	-5.712322e+00	-7.776309e+01
2.550000e-06	-9.226224e-07	-2.064371e-09	-6.579157e+00	-1.378855e+02
2.560000e-06	-1.043818e-06	-2.999045e-09	-7.443398e+00	-1.994166e+02
2.570000e-06	-1.164660e-06	-3.956504e-09	-8.305109e+00	-2.622834e+02
2.580000e-06	-1.285132e-06	-4.930169e-09	-9.164190e+00	-3.261968e+02
2.590000e-06	-1.405212e-06	-5.916626e-09	-1.002047e+01	-3.906632e+02
2.600000e-06	-1.524780e-06	-6.907362e-09	-1.087310e+01	-4.550291e+02
2.610000e-06	-1.643695e-06	-7.884481e-09	-1.172108e+01	-5.185505e+02
2.620000e-06	-1.761796e-06	-8.835197e-09	-1.256325e+01	-5.804761e+02
2.630000e-06	-1.879093e-06	-9.748566e-09	-1.339968e+01	-6.401268e+02
2.640000e-06	-1.995664e-06	-1.061851e-08	-1.423095e+01	-6.969616e+02
2.650000e-06	-2.111412e-06	-1.143856e-08	-1.505634e+01	-7.506184e+02
2.660000e-06	-2.226196e-06	-1.220652e-08	-1.587485e+01	-8.009261e+02
2.670000e-06	-2.339964e-06	-1.292576e-08	-1.668612e+01	-8.478886e+02
2.680000e-06	-2.452691e-06	-1.359619e-08	-1.748997e+01	-8.916486e+02
2.690000e-06	-2.564318e-06	-1.422321e-08	-1.828598e+01	-9.324390e+02
2.700000e-06	-2.674975e-06	-1.481204e-08	-1.907507e+01	-9.705325e+02
2.710000e-06	-2.784640e-06	-1.536650e-08	-1.985708e+01	-1.006200e+03
2.720000e-06	-2.893301e-06	-1.588550e-08	-2.063193e+01	-1.039681e+03
2.730000e-06	-3.001129e-06	-1.636936e-08	-2.140084e+01	-1.071172e+03
2.740000e-06	-3.108056e-06	-1.682222e-08	-2.216333e+01	-1.100824e+03
2.750000e-06	-3.213922e-06	-1.724467e-08	-2.291826e+01	-1.128756e+03
2.760000e-06	-3.318692e-06	-1.764262e-08	-2.366536e+01	-1.155072e+03
2.770000e-06	-3.422294e-06	-1.802152e-08	-2.440415e+01	-1.179868e+03
2.780000e-06	-3.524540e-06	-1.838106e-08	-2.513325e+01	-1.203249e+03
2.790000e-06	-3.625401e-06	-1.871993e-08	-2.585248e+01	-1.225323e+03
2.800000e-06	-3.724966e-06	-1.904026e-08	-2.656248e+01	-1.246205e+03
2.810000e-06	-3.823315e-06	-1.934580e-08	-2.726379e+01	-1.266004e+03
2.820000e-06	-3.920449e-06	-1.963600e-08	-2.795645e+01	-1.284815e+03
2.830000e-06	-4.016258e-06	-1.990899e-08	-2.863966e+01	-1.302717e+03
2.840000e-06	-4.110555e-06	-2.016663e-08	-2.931209e+01	-1.319766e+03
2.850000e-06	-4.203259e-06	-2.041274e-08	-2.997315e+01	-1.336004e+03
2.860000e-06	-4.294538e-06	-2.064904e-08	-3.062406e+01	-1.351458e+03
2.870000e-06	-4.384392e-06	-2.087490e-08	-3.126480e+01	-1.366155e+03
2.880000e-06	-4.472661e-06	-2.109055e-08	-3.189424e+01	-1.380122e+03
2.890000e-06	-4.559231e-06	-2.129629e-08	-3.251156e+01	-1.393398e+03
2.900000e-06	-4.644040e-06	-2.149160e-08	-3.311633e+01	-1.406028e+03
2.910000e-06	-4.727169e-06	-2.167743e-08	-3.370912e+01	-1.418062e+03
2.920000e-06	-4.808712e-06	-2.185440e-08	-3.429059e+01	-1.429552e+03
2.930000e-06	-4.888586e-06	-2.202173e-08	-3.486017e+01	-1.440539e+03
2.940000e-06	-4.966462e-06	-2.217905e-08	-3.541550e+01	-1.451054e+03
