# Temperatura_=_69.6
# Concentracion g/m^3_=_28200.0
# C_Vs_to_Am_M_A/Vsm_=_65563218390.804596
# pendiente_HvsI_1/m_=_3716.3
# ordenada_HvsI_A/m_=_1297.0
# frecuencia_Hz_=_302101.20146284875

Tiempo_(s)	Campo_(V.s)	Magnetizacion_(V.s)	Campo_(kA/m)	Magnetizacion_(A/m)
0.000000e+00	-6.440119e-06	-2.118066e-08	-4.556913e+01	-1.387947e+03
1.000000e-08	-6.436276e-06	-2.117369e-08	-4.554194e+01	-1.387443e+03
2.000000e-08	-6.430441e-06	-2.116270e-08	-4.550066e+01	-1.386749e+03
3.000000e-08	-6.422669e-06	-2.115195e-08	-4.544566e+01	-1.385889e+03
4.000000e-08	-6.412684e-06	-2.113620e-08	-4.537501e+01	-1.384894e+03
5.000000e-08	-6.400228e-06	-2.111882e-08	-4.528688e+01	-1.383793e+03
6.000000e-08	-6.385458e-06	-2.109378e-08	-4.518236e+01	-1.382608e+03
7.000000e-08	-6.368478e-06	-2.106151e-08	-4.506222e+01	-1.381347e+03
8.000000e-08	-6.349443e-06	-2.108152e-08	-4.492753e+01	-1.379998e+03
9.000000e-08	-6.328124e-06	-2.113841e-08	-4.477668e+01	-1.378536e+03
1.000000e-07	-6.304260e-06	-2.104169e-08	-4.460782e+01	-1.376924e+03
1.100000e-07	-6.277776e-06	-2.096148e-08	-4.442042e+01	-1.375123e+03
1.200000e-07	-6.249041e-06	-2.097146e-08	-4.421710e+01	-1.373099e+03
1.300000e-07	-6.218537e-06	-2.087995e-08	-4.400126e+01	-1.370832e+03
1.400000e-07	-6.186480e-06	-2.075273e-08	-4.377443e+01	-1.368319e+03
1.500000e-07	-6.152534e-06	-2.095345e-08	-4.353423e+01	-1.365570e+03
1.600000e-07	-6.116507e-06	-2.084129e-08	-4.327932e+01	-1.362609e+03
1.700000e-07	-6.078615e-06	-2.067179e-08	-4.301120e+01	-1.359463e+03
1.800000e-07	-6.038529e-06	-2.084123e-08	-4.272756e+01	-1.356158e+03
1.900000e-07	-5.996005e-06	-2.061255e-08	-4.242666e+01	-1.352713e+03
2.000000e-07	-5.951293e-06	-2.061038e-08	-4.211029e+01	-1.349133e+03
2.100000e-07	-5.904491e-06	-2.064187e-08	-4.177913e+01	-1.345416e+03
2.200000e-07	-5.855308e-06	-2.041892e-08	-4.143112e+01	-1.341547e+03
2.300000e-07	-5.803565e-06	-2.040128e-08	-4.106499e+01	-1.337512e+03
2.400000e-07	-5.749346e-06	-2.033881e-08	-4.068135e+01	-1.333292e+03
2.500000e-07	-5.693019e-06	-2.026754e-08	-4.028279e+01	-1.328874e+03
2.600000e-07	-5.634517e-06	-2.023724e-08	-3.986884e+01	-1.324248e+03
2.700000e-07	-5.573908e-06	-2.014578e-08	-3.943998e+01	-1.319406e+03
2.800000e-07	-5.511467e-06	-2.006237e-08	-3.899816e+01	-1.314342e+03
2.900000e-07	-5.446965e-06	-1.991447e-08	-3.854176e+01	-1.309047e+03
3.000000e-07	-5.380204e-06	-1.988148e-08	-3.806937e+01	-1.303510e+03
3.100000e-07	-5.311328e-06	-1.981960e-08	-3.758201e+01	-1.297717e+03
3.200000e-07	-5.240562e-06	-1.972582e-08	-3.708128e+01	-1.291651e+03
3.300000e-07	-5.168012e-06	-1.963114e-08	-3.656794e+01	-1.285298e+03
3.400000e-07	-5.093456e-06	-1.947764e-08	-3.604039e+01	-1.278648e+03
3.500000e-07	-5.016747e-06	-1.940525e-08	-3.549761e+01	-1.271697e+03
3.600000e-07	-4.937915e-06	-1.927963e-08	-3.493981e+01	-1.264446e+03
3.700000e-07	-4.857059e-06	-1.917978e-08	-3.436768e+01	-1.256903e+03
3.800000e-07	-4.774539e-06	-1.908222e-08	-3.378379e+01	-1.249075e+03
3.900000e-07	-4.690580e-06	-1.893076e-08	-3.318971e+01	-1.240967e+03
4.000000e-07	-4.605186e-06	-1.878483e-08	-3.258547e+01	-1.232576e+03
4.100000e-07	-4.518254e-06	-1.865408e-08	-3.197036e+01	-1.223889e+03
4.200000e-07	-4.429919e-06	-1.854068e-08	-3.134532e+01	-1.214888e+03
4.300000e-07	-4.340004e-06	-1.838772e-08	-3.070910e+01	-1.205546e+03
4.400000e-07	-4.248349e-06	-1.823681e-08	-3.006056e+01	-1.195836e+03
4.500000e-07	-4.155139e-06	-1.808514e-08	-2.940103e+01	-1.185733e+03
4.600000e-07	-4.060489e-06	-1.791245e-08	-2.873130e+01	-1.175220e+03
4.700000e-07	-3.964544e-06	-1.775080e-08	-2.805241e+01	-1.164284e+03
4.800000e-07	-3.867151e-06	-1.758461e-08	-2.736327e+01	-1.152919e+03
4.900000e-07	-3.768186e-06	-1.740416e-08	-2.666301e+01	-1.141120e+03
5.000000e-07	-3.667787e-06	-1.720226e-08	-2.595261e+01	-1.128880e+03
5.100000e-07	-3.566088e-06	-1.700214e-08	-2.523300e+01	-1.116185e+03
5.200000e-07	-3.463224e-06	-1.680495e-08	-2.450516e+01	-1.103011e+03
5.300000e-07	-3.359218e-06	-1.659658e-08	-2.376923e+01	-1.089323e+03
5.400000e-07	-3.253798e-06	-1.638078e-08	-2.302330e+01	-1.075081e+03
5.500000e-07	-3.146918e-06	-1.615198e-08	-2.226703e+01	-1.060238e+03
5.600000e-07	-3.038845e-06	-1.591147e-08	-2.150233e+01	-1.044751e+03
5.700000e-07	-2.929691e-06	-1.566098e-08	-2.072997e+01	-1.028577e+03
5.800000e-07	-2.819467e-06	-1.540612e-08	-1.995005e+01	-1.011681e+03
5.900000e-07	-2.708325e-06	-1.513954e-08	-1.916362e+01	-9.940284e+02
6.000000e-07	-2.596281e-06	-1.485367e-08	-1.837082e+01	-9.755859e+02
6.100000e-07	-2.483127e-06	-1.455362e-08	-1.757016e+01	-9.563151e+02
6.200000e-07	-2.368816e-06	-1.424158e-08	-1.676132e+01	-9.361688e+02
6.300000e-07	-2.253446e-06	-1.392033e-08	-1.594498e+01	-9.150887e+02
6.400000e-07	-2.137138e-06	-1.358538e-08	-1.512201e+01	-8.930046e+02
6.500000e-07	-2.020057e-06	-1.323389e-08	-1.429357e+01	-8.698359e+02
6.600000e-07	-1.902273e-06	-1.285583e-08	-1.346015e+01	-8.454944e+02
6.700000e-07	-1.783819e-06	-1.245613e-08	-1.262199e+01	-8.198871e+02
6.800000e-07	-1.664858e-06	-1.204419e-08	-1.178024e+01	-7.929175e+02
6.900000e-07	-1.545489e-06	-1.161261e-08	-1.093561e+01	-7.644866e+02
7.000000e-07	-1.425654e-06	-1.115837e-08	-1.008767e+01	-7.344927e+02
7.100000e-07	-1.305261e-06	-1.067310e-08	-9.235796e+00	-7.028329e+02
7.200000e-07	-1.184302e-06	-1.016075e-08	-8.379907e+00	-6.694065e+02
7.300000e-07	-1.062838e-06	-9.616823e-09	-7.520454e+00	-6.341237e+02
7.400000e-07	-9.409594e-07	-9.045551e-09	-6.658061e+00	-5.969188e+02
7.500000e-07	-8.186677e-07	-8.452077e-09	-5.792747e+00	-5.577677e+02
7.600000e-07	-6.959960e-07	-7.829201e-09	-4.924744e+00	-5.167052e+02
7.700000e-07	-5.731310e-07	-7.176121e-09	-4.055373e+00	-4.738398e+02
7.800000e-07	-4.501277e-07	-6.498178e-09	-3.185023e+00	-4.293589e+02
7.900000e-07	-3.270214e-07	-5.801215e-09	-2.313945e+00	-3.835223e+02
8.000000e-07	-2.038415e-07	-5.085648e-09	-1.442346e+00	-3.366405e+02
8.100000e-07	-8.045969e-08	-4.360599e-09	-5.693185e-01	-2.890399e+02
8.200000e-07	4.299478e-08	-3.630351e-09	3.042234e-01	-2.410191e+02
8.300000e-07	1.663922e-07	-2.897622e-09	1.177362e+00	-1.928050e+02
8.400000e-07	2.898246e-07	-2.161810e-09	2.050747e+00	-1.445152e+02
8.500000e-07	4.132135e-07	-1.424460e-09	2.923825e+00	-9.613916e+01
8.600000e-07	5.364067e-07	-6.826479e-10	3.795518e+00	-4.754050e+01
8.700000e-07	6.594254e-07	6.672090e-11	4.665977e+00	1.514313e+00
8.800000e-07	7.823139e-07	8.260539e-10	5.535514e+00	5.130599e+01
8.900000e-07	9.049990e-07	1.599692e-09	6.403612e+00	1.020979e+02
9.000000e-07	1.027399e-06	2.389551e-09	7.269693e+00	1.540687e+02
9.100000e-07	1.149431e-06	3.198593e-09	8.133167e+00	2.072549e+02
9.200000e-07	1.271046e-06	4.021802e-09	8.993697e+00	2.615144e+02
9.300000e-07	1.392127e-06	4.856674e-09	9.850443e+00	3.165188e+02
9.400000e-07	1.512536e-06	5.699208e-09	1.070243e+01	3.717760e+02
9.500000e-07	1.632264e-06	6.537694e-09	1.154961e+01	4.266808e+02
9.600000e-07	1.751387e-06	7.358265e-09	1.239250e+01	4.805819e+02
9.700000e-07	1.870022e-06	8.151758e-09	1.323195e+01	5.328563e+02
9.800000e-07	1.987999e-06	8.909366e-09	1.406673e+01	5.829745e+02
9.900000e-07	2.105174e-06	9.625233e-09	1.489583e+01	6.305495e+02
1.000000e-06	2.221579e-06	1.029957e-08	1.571950e+01	6.753591e+02
1.010000e-06	2.337123e-06	1.093213e-08	1.653707e+01	7.173429e+02
1.020000e-06	2.451686e-06	1.152851e-08	1.734769e+01	7.565763e+02
1.030000e-06	2.565100e-06	1.208731e-08	1.815019e+01	7.932291e+02
1.040000e-06	2.677297e-06	1.261131e-08	1.894407e+01	8.275201e+02
1.050000e-06	2.788509e-06	1.309915e-08	1.973099e+01	8.596754e+02
1.060000e-06	2.898896e-06	1.355732e-08	2.051207e+01	8.898977e+02
1.070000e-06	3.008336e-06	1.398866e-08	2.128645e+01	9.183521e+02
1.080000e-06	3.116785e-06	1.439418e-08	2.205381e+01	9.451645e+02
1.090000e-06	3.224258e-06	1.477846e-08	2.281427e+01	9.704321e+02
1.100000e-06	3.330607e-06	1.514317e-08	2.356678e+01	9.942384e+02
1.110000e-06	3.435592e-06	1.548858e-08	2.430964e+01	1.016667e+03
1.120000e-06	3.539203e-06	1.581230e-08	2.504277e+01	1.037812e+03
1.130000e-06	3.641609e-06	1.611559e-08	2.576738e+01	1.057776e+03
1.140000e-06	3.742820e-06	1.640030e-08	2.648353e+01	1.076669e+03
1.150000e-06	3.842802e-06	1.667243e-08	2.719098e+01	1.094597e+03
1.160000e-06	3.941457e-06	1.693051e-08	2.788905e+01	1.111651e+03
1.170000e-06	4.038526e-06	1.717739e-08	2.857589e+01	1.127901e+03
1.180000e-06	4.134023e-06	1.741284e-08	2.925161e+01	1.143394e+03
1.190000e-06	4.228140e-06	1.763783e-08	2.991757e+01	1.158159e+03
1.200000e-06	4.320896e-06	1.784990e-08	3.057389e+01	1.172213e+03
1.210000e-06	4.412250e-06	1.804885e-08	3.122030e+01	1.185573e+03
1.220000e-06	4.501990e-06	1.823790e-08	3.185528e+01	1.198261e+03
1.230000e-06	4.589960e-06	1.841976e-08	3.247774e+01	1.210314e+03
1.240000e-06	4.676252e-06	1.859485e-08	3.308833e+01	1.221775e+03
1.250000e-06	4.760999e-06	1.876449e-08	3.368798e+01	1.232696e+03
1.260000e-06	4.844218e-06	1.892700e-08	3.427683e+01	1.243124e+03
1.270000e-06	4.925648e-06	1.908113e-08	3.485300e+01	1.253094e+03
1.280000e-06	5.005117e-06	1.922797e-08	3.541531e+01	1.262628e+03
1.290000e-06	5.082718e-06	1.936513e-08	3.596441e+01	1.271728e+03
1.300000e-06	5.158502e-06	1.949542e-08	3.650064e+01	1.280384e+03
1.310000e-06	5.232222e-06	1.962163e-08	3.702227e+01	1.288581e+03
1.320000e-06	5.303842e-06	1.974158e-08	3.752904e+01	1.296311e+03
1.330000e-06	5.373612e-06	1.985333e-08	3.802272e+01	1.303575e+03
1.340000e-06	5.441627e-06	1.995621e-08	3.850398e+01	1.310394e+03
1.350000e-06	5.507621e-06	2.005375e-08	3.897094e+01	1.316806e+03
1.360000e-06	5.571497e-06	2.014810e-08	3.942292e+01	1.322860e+03
1.370000e-06	5.633481e-06	2.023755e-08	3.986151e+01	1.328608e+03
1.380000e-06	5.693683e-06	2.032258e-08	4.028749e+01	1.334097e+03
1.390000e-06	5.751899e-06	2.040406e-08	4.069941e+01	1.339361e+03
1.400000e-06	5.808006e-06	2.048108e-08	4.109641e+01	1.344417e+03
1.410000e-06	5.862059e-06	2.055337e-08	4.147889e+01	1.349262e+03
1.420000e-06	5.913822e-06	2.062255e-08	4.184515e+01	1.353884e+03
1.430000e-06	5.963067e-06	2.068898e-08	4.219360e+01	1.358263e+03
1.440000e-06	6.009930e-06	2.075260e-08	4.252519e+01	1.362382e+03
1.450000e-06	6.054812e-06	2.081332e-08	4.284277e+01	1.366231e+03
1.460000e-06	6.097685e-06	2.087058e-08	4.314613e+01	1.369811e+03
1.470000e-06	6.138234e-06	2.092227e-08	4.343305e+01	1.373131e+03
1.480000e-06	6.176639e-06	2.097122e-08	4.370480e+01	1.376205e+03
1.490000e-06	6.213146e-06	2.101565e-08	4.396311e+01	1.379048e+03
1.500000e-06	6.247408e-06	2.105414e-08	4.420555e+01	1.381671e+03
1.510000e-06	6.279273e-06	2.108960e-08	4.443102e+01	1.384075e+03
1.520000e-06	6.308958e-06	2.112184e-08	4.464106e+01	1.386260e+03
1.530000e-06	6.336592e-06	2.115056e-08	4.483660e+01	1.388217e+03
1.540000e-06	6.361932e-06	2.117578e-08	4.501590e+01	1.389944e+03
1.550000e-06	6.384791e-06	2.119928e-08	4.517765e+01	1.391440e+03
1.560000e-06	6.405509e-06	2.122087e-08	4.532424e+01	1.392715e+03
1.570000e-06	6.424108e-06	2.123813e-08	4.545584e+01	1.393787e+03
1.580000e-06	6.440259e-06	2.125179e-08	4.557012e+01	1.394678e+03
1.590000e-06	6.453963e-06	2.126398e-08	4.566710e+01	1.395412e+03
1.600000e-06	6.465104e-06	2.127392e-08	4.574593e+01	1.396003e+03
1.610000e-06	6.473645e-06	2.128233e-08	4.580636e+01	1.396460e+03
1.620000e-06	6.479887e-06	2.128868e-08	4.585053e+01	1.396776e+03
1.630000e-06	6.484013e-06	2.129406e-08	4.587972e+01	1.396936e+03
1.640000e-06	6.485833e-06	2.129740e-08	4.589260e+01	1.396922e+03
1.650000e-06	6.485238e-06	2.129757e-08	4.588839e+01	1.396716e+03
1.660000e-06	6.482540e-06	2.128365e-08	4.586930e+01	1.396309e+03
1.670000e-06	6.477843e-06	2.127606e-08	4.583607e+01	1.395705e+03
1.680000e-06	6.470868e-06	2.126647e-08	4.578671e+01	1.394922e+03
1.690000e-06	6.461682e-06	2.125350e-08	4.572171e+01	1.393988e+03
1.700000e-06	6.450526e-06	2.124431e-08	4.564277e+01	1.392934e+03
1.710000e-06	6.437068e-06	2.123709e-08	4.554754e+01	1.391787e+03
1.720000e-06	6.421275e-06	2.124235e-08	4.543580e+01	1.390562e+03
1.730000e-06	6.403562e-06	2.115579e-08	4.531047e+01	1.389256e+03
1.740000e-06	6.383684e-06	2.104811e-08	4.516981e+01	1.387853e+03
1.750000e-06	6.360730e-06	2.110918e-08	4.500739e+01	1.386318e+03
1.760000e-06	6.334717e-06	2.110622e-08	4.482333e+01	1.384614e+03
1.770000e-06	6.306608e-06	2.103145e-08	4.462444e+01	1.382702e+03
1.780000e-06	6.276653e-06	2.117647e-08	4.441248e+01	1.380556e+03
1.790000e-06	6.245125e-06	2.106262e-08	4.418939e+01	1.378163e+03
1.800000e-06	6.212138e-06	2.089321e-08	4.395598e+01	1.375527e+03
1.810000e-06	6.176996e-06	2.102479e-08	4.370733e+01	1.372667e+03
1.820000e-06	6.139840e-06	2.073486e-08	4.344442e+01	1.369607e+03
1.830000e-06	6.100544e-06	2.078221e-08	4.316636e+01	1.366377e+03
1.840000e-06	6.058739e-06	2.088939e-08	4.287056e+01	1.362997e+03
1.850000e-06	6.014973e-06	2.053640e-08	4.256088e+01	1.359482e+03
1.860000e-06	5.969103e-06	2.069749e-08	4.223631e+01	1.355832e+03
1.870000e-06	5.921016e-06	2.061420e-08	4.189605e+01	1.352039e+03
1.880000e-06	5.870808e-06	2.052066e-08	4.154079e+01	1.348087e+03
1.890000e-06	5.817894e-06	2.060408e-08	4.116638e+01	1.343959e+03
1.900000e-06	5.762479e-06	2.031614e-08	4.077427e+01	1.339639e+03
1.910000e-06	5.704981e-06	2.035493e-08	4.036743e+01	1.335115e+03
1.920000e-06	5.645535e-06	2.027749e-08	3.994680e+01	1.330380e+03
1.930000e-06	5.584182e-06	2.020545e-08	3.951268e+01	1.325425e+03
1.940000e-06	5.520639e-06	2.021843e-08	3.906306e+01	1.320244e+03
1.950000e-06	5.454969e-06	1.999015e-08	3.859839e+01	1.314828e+03
1.960000e-06	5.387269e-06	2.001308e-08	3.811935e+01	1.309162e+03
1.970000e-06	5.317476e-06	1.981082e-08	3.762551e+01	1.303232e+03
1.980000e-06	5.245602e-06	1.973738e-08	3.711695e+01	1.297022e+03
1.990000e-06	5.171808e-06	1.971757e-08	3.659479e+01	1.290519e+03
2.000000e-06	5.096172e-06	1.956603e-08	3.605961e+01	1.283716e+03
2.010000e-06	5.018398e-06	1.952657e-08	3.550929e+01	1.276612e+03
2.020000e-06	4.938588e-06	1.929480e-08	3.494457e+01	1.269212e+03
2.030000e-06	4.857043e-06	1.923529e-08	3.436757e+01	1.261523e+03
2.040000e-06	4.773901e-06	1.912305e-08	3.377927e+01	1.253552e+03
2.050000e-06	4.689276e-06	1.899288e-08	3.318048e+01	1.245301e+03
2.060000e-06	4.602831e-06	1.887917e-08	3.256882e+01	1.236761e+03
2.070000e-06	4.514678e-06	1.871210e-08	3.194506e+01	1.227918e+03
2.080000e-06	4.425037e-06	1.860966e-08	3.131078e+01	1.218747e+03
2.090000e-06	4.333964e-06	1.842477e-08	3.066635e+01	1.209222e+03
2.100000e-06	4.241455e-06	1.831125e-08	3.001178e+01	1.199316e+03
2.110000e-06	4.147341e-06	1.814319e-08	2.934584e+01	1.189008e+03
2.120000e-06	4.051678e-06	1.797613e-08	2.866895e+01	1.178282e+03
2.130000e-06	3.954640e-06	1.780255e-08	2.798233e+01	1.167129e+03
2.140000e-06	3.856343e-06	1.762350e-08	2.728680e+01	1.155545e+03
2.150000e-06	3.756752e-06	1.745959e-08	2.658211e+01	1.143525e+03
2.160000e-06	3.655733e-06	1.726165e-08	2.586732e+01	1.131057e+03
2.170000e-06	3.553120e-06	1.708201e-08	2.514125e+01	1.118124e+03
2.180000e-06	3.449132e-06	1.686182e-08	2.440544e+01	1.104695e+03
2.190000e-06	3.343901e-06	1.665533e-08	2.366085e+01	1.090733e+03
2.200000e-06	3.237537e-06	1.643249e-08	2.290824e+01	1.076194e+03
2.210000e-06	3.130157e-06	1.621428e-08	2.214843e+01	1.061032e+03
2.220000e-06	3.021699e-06	1.596764e-08	2.138101e+01	1.045204e+03
2.230000e-06	2.912164e-06	1.570774e-08	2.060595e+01	1.028671e+03
2.240000e-06	2.801491e-06	1.544762e-08	1.982285e+01	1.011398e+03
2.250000e-06	2.689738e-06	1.518030e-08	1.903211e+01	9.933527e+02
2.260000e-06	2.576964e-06	1.490170e-08	1.823414e+01	9.744988e+02
2.270000e-06	2.463138e-06	1.459922e-08	1.742873e+01	9.547944e+02
2.280000e-06	2.348307e-06	1.428848e-08	1.661620e+01	9.341868e+02
2.290000e-06	2.232563e-06	1.395307e-08	1.579722e+01	9.126117e+02
2.300000e-06	2.115944e-06	1.361022e-08	1.497204e+01	8.899935e+02
2.310000e-06	1.998453e-06	1.325027e-08	1.414070e+01	8.662473e+02
2.320000e-06	1.880112e-06	1.287880e-08	1.330333e+01	8.412824e+02
2.330000e-06	1.761012e-06	1.248048e-08	1.246061e+01	8.150037e+02
2.340000e-06	1.641260e-06	1.205444e-08	1.161326e+01	7.873135e+02
2.350000e-06	1.521005e-06	1.160598e-08	1.076236e+01	7.581115e+02
2.360000e-06	1.400288e-06	1.113810e-08	9.908188e+00	7.272951e+02
2.370000e-06	1.279174e-06	1.064967e-08	9.051209e+00	6.947617e+02
2.380000e-06	1.157770e-06	1.013021e-08	8.192173e+00	6.604147e+02
2.390000e-06	1.036020e-06	9.578061e-09	7.330693e+00	6.241745e+02
2.400000e-06	9.139184e-07	8.990983e-09	6.466724e+00	5.859938e+02
2.410000e-06	7.914950e-07	8.376109e-09	5.600478e+00	5.458758e+02
2.420000e-06	6.688078e-07	7.734318e-09	4.732365e+00	5.038909e+02
2.430000e-06	5.458963e-07	7.068651e-09	3.862665e+00	4.601870e+02
2.440000e-06	4.228596e-07	6.380993e-09	2.992079e+00	4.149895e+02
2.450000e-06	2.997705e-07	5.673130e-09	2.121123e+00	3.685871e+02
2.460000e-06	1.765640e-07	4.949328e-09	1.249336e+00	3.213033e+02
2.470000e-06	5.326098e-08	4.215993e-09	3.768652e-01	2.734563e+02
2.480000e-06	-7.010047e-08	3.482842e-09	-4.960184e-01	2.253142e+02
2.490000e-06	-1.934315e-07	2.748402e-09	-1.368687e+00	1.770529e+02
2.500000e-06	-3.166588e-07	2.010596e-09	-2.240621e+00	1.287271e+02
2.510000e-06	-4.398092e-07	1.268794e-09	-3.112011e+00	8.026135e+01
2.520000e-06	-5.628507e-07	5.205956e-10	-3.982631e+00	3.146570e+01
2.530000e-06	-6.858179e-07	-2.342282e-10	-4.852726e+00	-1.792439e+01
2.540000e-06	-8.086419e-07	-1.003456e-09	-5.721806e+00	-6.818947e+01
2.550000e-06	-9.311604e-07	-1.788648e-09	-6.588726e+00	-1.195587e+02
2.560000e-06	-1.053303e-06	-2.589411e-09	-7.452983e+00	-1.721457e+02
2.570000e-06	-1.174999e-06	-3.407590e-09	-8.314083e+00	-2.259006e+02
2.580000e-06	-1.296255e-06	-4.241059e-09	-9.172070e+00	-2.805871e+02
2.590000e-06	-1.417092e-06	-5.085663e-09	-1.002709e+01	-3.357904e+02
2.600000e-06	-1.537485e-06	-5.932701e-09	-1.087897e+01	-3.909541e+02
2.610000e-06	-1.657273e-06	-6.771382e-09	-1.172657e+01	-4.454408e+02
2.620000e-06	-1.776441e-06	-7.588067e-09	-1.256978e+01	-4.986045e+02
2.630000e-06	-1.894993e-06	-8.374201e-09	-1.340863e+01	-5.498613e+02
2.640000e-06	-2.012682e-06	-9.123241e-09	-1.424138e+01	-5.987487e+02
2.650000e-06	-2.129272e-06	-9.830271e-09	-1.506635e+01	-6.449607e+02
2.660000e-06	-2.244808e-06	-1.049370e-08	-1.588386e+01	-6.883581e+02
2.670000e-06	-2.359538e-06	-1.111688e-08	-1.669567e+01	-7.289528e+02
2.680000e-06	-2.473348e-06	-1.170244e-08	-1.750097e+01	-7.668729e+02
2.690000e-06	-2.586091e-06	-1.224852e-08	-1.829872e+01	-8.023186e+02
2.700000e-06	-2.697725e-06	-1.275655e-08	-1.908862e+01	-8.355169e+02
2.710000e-06	-2.808113e-06	-1.323310e-08	-1.986971e+01	-8.666850e+02
2.720000e-06	-2.917495e-06	-1.368336e-08	-2.064368e+01	-8.960077e+02
2.730000e-06	-3.026025e-06	-1.410534e-08	-2.141162e+01	-9.236299e+02
2.740000e-06	-3.133614e-06	-1.450209e-08	-2.217290e+01	-9.496614e+02
2.750000e-06	-3.240219e-06	-1.487566e-08	-2.292721e+01	-9.741907e+02
2.760000e-06	-3.345744e-06	-1.522450e-08	-2.367389e+01	-9.972998e+02
2.770000e-06	-3.450123e-06	-1.555259e-08	-2.441245e+01	-1.019077e+03
2.780000e-06	-3.553255e-06	-1.586582e-08	-2.514220e+01	-1.039620e+03
2.790000e-06	-3.655006e-06	-1.616594e-08	-2.586217e+01	-1.059037e+03
2.800000e-06	-3.755253e-06	-1.645181e-08	-2.657150e+01	-1.077438e+03
2.810000e-06	-3.854175e-06	-1.672068e-08	-2.727145e+01	-1.094921e+03
2.820000e-06	-3.951852e-06	-1.697390e-08	-2.796260e+01	-1.111568e+03
2.830000e-06	-4.048234e-06	-1.721536e-08	-2.864458e+01	-1.127437e+03
2.840000e-06	-4.143271e-06	-1.744664e-08	-2.931705e+01	-1.142566e+03
2.850000e-06	-4.236716e-06	-1.766883e-08	-2.997825e+01	-1.156976e+03
2.860000e-06	-4.328599e-06	-1.788167e-08	-3.062840e+01	-1.170683e+03
2.870000e-06	-4.418984e-06	-1.808394e-08	-3.126794e+01	-1.183706e+03
2.880000e-06	-4.507770e-06	-1.827334e-08	-3.189618e+01	-1.196074e+03
2.890000e-06	-4.594959e-06	-1.845106e-08	-3.251311e+01	-1.207827e+03
2.900000e-06	-4.680382e-06	-1.862098e-08	-3.311755e+01	-1.219014e+03
2.910000e-06	-4.764090e-06	-1.878390e-08	-3.370985e+01	-1.229686e+03
2.920000e-06	-4.846246e-06	-1.893916e-08	-3.429118e+01	-1.239884e+03
2.930000e-06	-4.926701e-06	-1.908728e-08	-3.486046e+01	-1.249637e+03
2.940000e-06	-5.005242e-06	-1.922807e-08	-3.541620e+01	-1.258957e+03
