# Temperatura_=_64.51
# Concentracion g/m^3_=_28200.0
# C_Vs_to_Am_M_A/Vsm_=_65563218390.804596
# pendiente_HvsI_1/m_=_3716.3
# ordenada_HvsI_A/m_=_1297.0
# frecuencia_Hz_=_302098.67275096604

Tiempo_(s)	Campo_(V.s)	Magnetizacion_(V.s)	Campo_(kA/m)	Magnetizacion_(A/m)
0.000000e+00	-6.341147e-06	-2.082650e-08	-4.557779e+01	-1.362750e+03
1.000000e-08	-6.337590e-06	-2.082149e-08	-4.555223e+01	-1.362334e+03
2.000000e-08	-6.332017e-06	-2.081170e-08	-4.551217e+01	-1.361771e+03
3.000000e-08	-6.324551e-06	-2.080325e-08	-4.545851e+01	-1.361055e+03
4.000000e-08	-6.314952e-06	-2.079014e-08	-4.538951e+01	-1.360178e+03
5.000000e-08	-6.302945e-06	-2.077183e-08	-4.530321e+01	-1.359131e+03
6.000000e-08	-6.288697e-06	-2.075081e-08	-4.520080e+01	-1.357908e+03
7.000000e-08	-6.272176e-06	-2.071529e-08	-4.508206e+01	-1.356510e+03
8.000000e-08	-6.253521e-06	-2.070248e-08	-4.494797e+01	-1.354945e+03
9.000000e-08	-6.232751e-06	-2.077697e-08	-4.479869e+01	-1.353232e+03
1.000000e-07	-6.209608e-06	-2.070028e-08	-4.463234e+01	-1.351398e+03
1.100000e-07	-6.183798e-06	-2.060223e-08	-4.444683e+01	-1.349474e+03
1.200000e-07	-6.155638e-06	-2.060153e-08	-4.424443e+01	-1.347492e+03
1.300000e-07	-6.125700e-06	-2.053726e-08	-4.402924e+01	-1.345474e+03
1.400000e-07	-6.094213e-06	-2.040444e-08	-4.380292e+01	-1.343430e+03
1.500000e-07	-6.060985e-06	-2.059123e-08	-4.356409e+01	-1.341349e+03
1.600000e-07	-6.025681e-06	-2.054639e-08	-4.331034e+01	-1.339201e+03
1.700000e-07	-5.988588e-06	-2.030771e-08	-4.304373e+01	-1.336940e+03
1.800000e-07	-5.949485e-06	-2.050197e-08	-4.276267e+01	-1.334510e+03
1.900000e-07	-5.907827e-06	-2.030071e-08	-4.246325e+01	-1.331856e+03
2.000000e-07	-5.864042e-06	-2.021826e-08	-4.214854e+01	-1.328929e+03
2.100000e-07	-5.818263e-06	-2.031397e-08	-4.181950e+01	-1.325700e+03
2.200000e-07	-5.770180e-06	-2.008977e-08	-4.147390e+01	-1.322160e+03
2.300000e-07	-5.719586e-06	-2.007744e-08	-4.111024e+01	-1.318323e+03
2.400000e-07	-5.666423e-06	-2.005957e-08	-4.072813e+01	-1.314216e+03
2.500000e-07	-5.611162e-06	-1.995691e-08	-4.033093e+01	-1.309875e+03
2.600000e-07	-5.553785e-06	-1.992876e-08	-3.991853e+01	-1.305331e+03
2.700000e-07	-5.494313e-06	-1.982618e-08	-3.949106e+01	-1.300608e+03
2.800000e-07	-5.432963e-06	-1.975575e-08	-3.905011e+01	-1.295708e+03
2.900000e-07	-5.369670e-06	-1.963878e-08	-3.859518e+01	-1.290619e+03
3.000000e-07	-5.304266e-06	-1.960372e-08	-3.812508e+01	-1.285312e+03
3.100000e-07	-5.236777e-06	-1.954772e-08	-3.764000e+01	-1.279754e+03
3.200000e-07	-5.167312e-06	-1.942068e-08	-3.714070e+01	-1.273913e+03
3.300000e-07	-5.095956e-06	-1.933730e-08	-3.662783e+01	-1.267766e+03
3.400000e-07	-5.022840e-06	-1.918621e-08	-3.610229e+01	-1.261307e+03
3.500000e-07	-4.947661e-06	-1.911687e-08	-3.556194e+01	-1.254542e+03
3.600000e-07	-4.870335e-06	-1.902104e-08	-3.500615e+01	-1.247490e+03
3.700000e-07	-4.790905e-06	-1.891074e-08	-3.443524e+01	-1.240172e+03
3.800000e-07	-4.709565e-06	-1.881854e-08	-3.385059e+01	-1.232602e+03
3.900000e-07	-4.626715e-06	-1.865437e-08	-3.325510e+01	-1.224786e+03
4.000000e-07	-4.542525e-06	-1.851271e-08	-3.264997e+01	-1.216711e+03
4.100000e-07	-4.456986e-06	-1.839933e-08	-3.203515e+01	-1.208348e+03
4.200000e-07	-4.370024e-06	-1.829551e-08	-3.141010e+01	-1.199660e+03
4.300000e-07	-4.281671e-06	-1.815185e-08	-3.077505e+01	-1.190607e+03
4.400000e-07	-4.191724e-06	-1.799270e-08	-3.012855e+01	-1.181153e+03
4.500000e-07	-4.100114e-06	-1.784964e-08	-2.947009e+01	-1.171275e+03
4.600000e-07	-4.006997e-06	-1.767528e-08	-2.880080e+01	-1.160966e+03
4.700000e-07	-3.912554e-06	-1.752071e-08	-2.812198e+01	-1.150229e+03
4.800000e-07	-3.816850e-06	-1.736210e-08	-2.743409e+01	-1.139077e+03
4.900000e-07	-3.719651e-06	-1.718526e-08	-2.673546e+01	-1.127521e+03
5.000000e-07	-3.620804e-06	-1.698705e-08	-2.602498e+01	-1.115562e+03
5.100000e-07	-3.520640e-06	-1.678784e-08	-2.530504e+01	-1.103188e+03
5.200000e-07	-3.419360e-06	-1.659783e-08	-2.457708e+01	-1.090369e+03
5.300000e-07	-3.316841e-06	-1.639301e-08	-2.384021e+01	-1.077060e+03
5.400000e-07	-3.213151e-06	-1.618747e-08	-2.309493e+01	-1.063207e+03
5.500000e-07	-3.108372e-06	-1.596644e-08	-2.234181e+01	-1.048754e+03
5.600000e-07	-3.002229e-06	-1.573271e-08	-2.157890e+01	-1.033649e+03
5.700000e-07	-2.894716e-06	-1.548275e-08	-2.080614e+01	-1.017849e+03
5.800000e-07	-2.786229e-06	-1.522933e-08	-2.002637e+01	-1.001323e+03
5.900000e-07	-2.676797e-06	-1.496793e-08	-1.923981e+01	-9.840448e+02
6.000000e-07	-2.566422e-06	-1.469230e-08	-1.844648e+01	-9.659889e+02
6.100000e-07	-2.455153e-06	-1.440382e-08	-1.764672e+01	-9.471241e+02
6.200000e-07	-2.343059e-06	-1.410208e-08	-1.684103e+01	-9.274072e+02
6.300000e-07	-2.230060e-06	-1.378989e-08	-1.602884e+01	-9.067799e+02
6.400000e-07	-2.115940e-06	-1.345949e-08	-1.520859e+01	-8.851694e+02
6.500000e-07	-2.000735e-06	-1.311286e-08	-1.438053e+01	-8.624915e+02
6.600000e-07	-1.884728e-06	-1.274062e-08	-1.354672e+01	-8.386555e+02
6.700000e-07	-1.768094e-06	-1.235253e-08	-1.270840e+01	-8.135686e+02
6.800000e-07	-1.650828e-06	-1.195124e-08	-1.186553e+01	-7.871392e+02
6.900000e-07	-1.532966e-06	-1.152778e-08	-1.101839e+01	-7.592774e+02
7.000000e-07	-1.414584e-06	-1.108060e-08	-1.016750e+01	-7.298938e+02
7.100000e-07	-1.295751e-06	-1.060419e-08	-9.313375e+00	-6.988991e+02
7.200000e-07	-1.176494e-06	-1.010303e-08	-8.456201e+00	-6.662053e+02
7.300000e-07	-1.056918e-06	-9.572901e-09	-7.596732e+00	-6.317319e+02
7.400000e-07	-9.370949e-07	-9.017238e-09	-6.735488e+00	-5.954176e+02
7.500000e-07	-8.170183e-07	-8.440306e-09	-5.872422e+00	-5.572368e+02
7.600000e-07	-6.967384e-07	-7.834261e-09	-5.007895e+00	-5.172173e+02
7.700000e-07	-5.762051e-07	-7.192387e-09	-4.141547e+00	-4.754562e+02
7.800000e-07	-4.554626e-07	-6.527385e-09	-3.273695e+00	-4.321275e+02
7.900000e-07	-3.346210e-07	-5.849231e-09	-2.405131e+00	-3.874781e+02
8.000000e-07	-2.136044e-07	-5.157246e-09	-1.535308e+00	-3.418092e+02
8.100000e-07	-9.240198e-08	-4.454342e-09	-6.641509e-01	-2.954439e+02
8.200000e-07	2.891978e-08	-3.745278e-09	2.078646e-01	-2.486855e+02
8.300000e-07	1.502299e-07	-3.034332e-09	1.079796e+00	-2.017731e+02
8.400000e-07	2.714635e-07	-2.317537e-09	1.951178e+00	-1.548441e+02
8.500000e-07	3.926360e-07	-1.602038e-09	2.822121e+00	-1.079112e+02
8.600000e-07	5.137175e-07	-8.855500e-10	3.692409e+00	-6.086064e+01
8.700000e-07	6.346708e-07	-1.624183e-10	4.561777e+00	-1.347502e+01
8.800000e-07	7.554021e-07	5.709696e-10	5.429548e+00	3.452270e+01
8.900000e-07	8.758686e-07	1.316375e-09	6.295416e+00	8.340970e+01
9.000000e-07	9.960688e-07	2.076309e-09	7.159370e+00	1.333990e+02
9.100000e-07	1.116006e-06	2.856161e-09	8.021437e+00	1.845819e+02
9.200000e-07	1.235649e-06	3.651943e-09	8.881380e+00	2.368878e+02
9.300000e-07	1.354892e-06	4.461340e-09	9.738456e+00	2.900692e+02
9.400000e-07	1.473598e-06	5.278287e-09	1.059167e+01	3.437150e+02
9.500000e-07	1.591735e-06	6.096241e-09	1.144079e+01	3.972895e+02
9.600000e-07	1.709325e-06	6.904501e-09	1.228599e+01	4.501902e+02
9.700000e-07	1.826297e-06	7.691615e-09	1.312674e+01	5.018137e+02
9.800000e-07	1.942600e-06	8.447813e-09	1.396268e+01	5.516190e+02
9.900000e-07	2.058139e-06	9.166387e-09	1.479314e+01	5.991774e+02
1.000000e-06	2.172704e-06	9.843644e-09	1.561658e+01	6.442026e+02
1.010000e-06	2.286174e-06	1.048039e-08	1.643216e+01	6.865577e+02
1.020000e-06	2.398650e-06	1.107965e-08	1.724060e+01	7.262409e+02
1.030000e-06	2.510247e-06	1.164395e-08	1.804272e+01	7.633560e+02
1.040000e-06	2.620953e-06	1.217597e-08	1.883843e+01	7.980750e+02
1.050000e-06	2.730766e-06	1.266980e-08	1.962773e+01	8.306000e+02
1.060000e-06	2.839695e-06	1.313315e-08	2.041067e+01	8.611320e+02
1.070000e-06	2.947746e-06	1.356686e-08	2.118729e+01	8.898508e+02
1.080000e-06	3.054898e-06	1.397539e-08	2.195746e+01	9.169055e+02
1.090000e-06	3.160796e-06	1.436225e-08	2.271862e+01	9.424164e+02
1.100000e-06	3.265345e-06	1.473171e-08	2.347008e+01	9.664819e+02
1.110000e-06	3.368747e-06	1.508141e-08	2.421329e+01	9.891894e+02
1.120000e-06	3.470997e-06	1.540715e-08	2.494823e+01	1.010623e+03
1.130000e-06	3.572076e-06	1.571127e-08	2.567475e+01	1.030870e+03
1.140000e-06	3.672039e-06	1.599971e-08	2.639324e+01	1.050018e+03
1.150000e-06	3.770746e-06	1.627668e-08	2.710271e+01	1.068155e+03
1.160000e-06	3.867871e-06	1.654034e-08	2.780081e+01	1.085365e+03
1.170000e-06	3.963495e-06	1.679105e-08	2.848812e+01	1.101718e+03
1.180000e-06	4.057864e-06	1.702745e-08	2.916641e+01	1.117276e+03
1.190000e-06	4.150890e-06	1.724960e-08	2.983505e+01	1.132084e+03
1.200000e-06	4.242587e-06	1.745903e-08	3.049413e+01	1.146182e+03
1.210000e-06	4.332763e-06	1.765960e-08	3.114228e+01	1.159601e+03
1.220000e-06	4.421146e-06	1.785067e-08	3.177754e+01	1.172373e+03
1.230000e-06	4.507929e-06	1.803433e-08	3.240131e+01	1.184530e+03
1.240000e-06	4.593191e-06	1.821009e-08	3.301414e+01	1.196107e+03
1.250000e-06	4.677011e-06	1.838082e-08	3.361661e+01	1.207138e+03
1.260000e-06	4.759258e-06	1.854333e-08	3.420777e+01	1.217653e+03
1.270000e-06	4.839645e-06	1.869684e-08	3.478556e+01	1.227676e+03
1.280000e-06	4.918200e-06	1.884156e-08	3.535019e+01	1.237224e+03
1.290000e-06	4.994994e-06	1.897964e-08	3.590215e+01	1.246304e+03
1.300000e-06	5.069814e-06	1.911086e-08	3.643992e+01	1.254920e+03
1.310000e-06	5.142542e-06	1.923617e-08	3.696267e+01	1.263071e+03
1.320000e-06	5.213390e-06	1.935416e-08	3.747189e+01	1.270764e+03
1.330000e-06	5.282438e-06	1.946490e-08	3.796819e+01	1.278009e+03
1.340000e-06	5.349719e-06	1.956725e-08	3.845178e+01	1.284830e+03
1.350000e-06	5.414950e-06	1.966273e-08	3.892064e+01	1.291258e+03
1.360000e-06	5.478131e-06	1.975684e-08	3.937475e+01	1.297332e+03
1.370000e-06	5.539513e-06	1.984617e-08	3.981595e+01	1.303093e+03
1.380000e-06	5.599081e-06	1.992965e-08	4.024410e+01	1.308579e+03
1.390000e-06	5.656617e-06	2.000842e-08	4.065765e+01	1.313820e+03
1.400000e-06	5.712025e-06	2.008334e-08	4.105590e+01	1.318835e+03
1.410000e-06	5.765369e-06	2.015553e-08	4.143931e+01	1.323634e+03
1.420000e-06	5.816408e-06	2.022486e-08	4.180617e+01	1.328213e+03
1.430000e-06	5.865023e-06	2.029071e-08	4.215559e+01	1.332565e+03
1.440000e-06	5.911441e-06	2.035539e-08	4.248923e+01	1.336680e+03
1.450000e-06	5.955963e-06	2.041544e-08	4.280923e+01	1.340548e+03
1.460000e-06	5.998447e-06	2.047018e-08	4.311459e+01	1.344163e+03
1.470000e-06	6.038638e-06	2.052081e-08	4.340347e+01	1.347523e+03
1.480000e-06	6.076661e-06	2.056665e-08	4.367677e+01	1.350633e+03
1.490000e-06	6.112769e-06	2.060844e-08	4.393630e+01	1.353499e+03
1.500000e-06	6.146709e-06	2.064517e-08	4.418025e+01	1.356129e+03
1.510000e-06	6.178362e-06	2.067987e-08	4.440775e+01	1.358531e+03
1.520000e-06	6.207946e-06	2.071382e-08	4.462040e+01	1.360713e+03
1.530000e-06	6.235547e-06	2.074430e-08	4.481878e+01	1.362679e+03
1.540000e-06	6.260753e-06	2.076994e-08	4.499995e+01	1.364435e+03
1.550000e-06	6.283450e-06	2.079218e-08	4.516309e+01	1.365984e+03
1.560000e-06	6.304042e-06	2.081251e-08	4.531110e+01	1.367331e+03
1.570000e-06	6.322552e-06	2.082991e-08	4.544414e+01	1.368481e+03
1.580000e-06	6.338732e-06	2.084269e-08	4.556044e+01	1.369437e+03
1.590000e-06	6.352477e-06	2.085308e-08	4.565923e+01	1.370208e+03
1.600000e-06	6.363733e-06	2.086152e-08	4.574013e+01	1.370799e+03
1.610000e-06	6.372392e-06	2.086937e-08	4.580237e+01	1.371218e+03
1.620000e-06	6.378727e-06	2.087553e-08	4.584790e+01	1.371473e+03
1.630000e-06	6.382972e-06	2.087905e-08	4.587842e+01	1.371569e+03
1.640000e-06	6.384945e-06	2.088052e-08	4.589260e+01	1.371514e+03
1.650000e-06	6.384599e-06	2.088297e-08	4.589011e+01	1.371312e+03
1.660000e-06	6.382161e-06	2.087110e-08	4.587259e+01	1.370966e+03
1.670000e-06	6.377829e-06	2.086276e-08	4.584145e+01	1.370475e+03
1.680000e-06	6.371280e-06	2.085101e-08	4.579438e+01	1.369835e+03
1.690000e-06	6.362474e-06	2.083755e-08	4.573109e+01	1.369037e+03
1.700000e-06	6.351730e-06	2.082879e-08	4.565386e+01	1.368074e+03
1.710000e-06	6.338799e-06	2.082021e-08	4.556092e+01	1.366937e+03
1.720000e-06	6.323581e-06	2.082911e-08	4.545153e+01	1.365624e+03
1.730000e-06	6.306390e-06	2.078251e-08	4.532798e+01	1.364139e+03
1.740000e-06	6.287160e-06	2.063702e-08	4.518975e+01	1.362495e+03
1.750000e-06	6.264994e-06	2.067289e-08	4.503044e+01	1.360715e+03
1.760000e-06	6.239639e-06	2.069543e-08	4.484819e+01	1.358830e+03
1.770000e-06	6.212043e-06	2.062797e-08	4.464984e+01	1.356872e+03
1.780000e-06	6.182813e-06	2.075721e-08	4.443975e+01	1.354868e+03
1.790000e-06	6.151995e-06	2.066057e-08	4.421824e+01	1.352835e+03
1.800000e-06	6.119651e-06	2.041735e-08	4.398576e+01	1.350772e+03
1.810000e-06	6.085211e-06	2.061459e-08	4.373822e+01	1.348660e+03
1.820000e-06	6.048840e-06	2.042815e-08	4.347680e+01	1.346460e+03
1.830000e-06	6.010459e-06	2.039146e-08	4.320093e+01	1.344120e+03
1.840000e-06	5.969558e-06	2.064169e-08	4.290695e+01	1.341583e+03
1.850000e-06	5.926701e-06	2.030311e-08	4.259891e+01	1.338795e+03
1.860000e-06	5.881893e-06	2.040587e-08	4.227685e+01	1.335718e+03
1.870000e-06	5.834878e-06	2.039465e-08	4.193892e+01	1.332331e+03
1.880000e-06	5.785823e-06	2.017921e-08	4.158633e+01	1.328638e+03
1.890000e-06	5.734325e-06	2.030522e-08	4.121618e+01	1.324659e+03
1.900000e-06	5.680202e-06	2.005982e-08	4.082717e+01	1.320428e+03
1.910000e-06	5.623830e-06	2.007113e-08	4.042199e+01	1.315981e+03
1.920000e-06	5.565411e-06	2.009063e-08	4.000210e+01	1.311344e+03
1.930000e-06	5.505222e-06	1.990952e-08	3.956948e+01	1.306531e+03
1.940000e-06	5.442900e-06	1.994941e-08	3.912153e+01	1.301537e+03
1.950000e-06	5.378443e-06	1.970296e-08	3.865824e+01	1.296341e+03
1.960000e-06	5.312068e-06	1.971592e-08	3.818116e+01	1.290911e+03
1.970000e-06	5.243795e-06	1.960006e-08	3.769044e+01	1.285212e+03
1.980000e-06	5.173485e-06	1.947387e-08	3.718507e+01	1.279218e+03
1.990000e-06	5.101014e-06	1.950768e-08	3.666418e+01	1.272913e+03
2.000000e-06	5.026801e-06	1.930253e-08	3.613077e+01	1.266297e+03
2.010000e-06	4.950657e-06	1.925293e-08	3.558347e+01	1.259384e+03
2.020000e-06	4.872367e-06	1.905882e-08	3.502075e+01	1.252194e+03
2.030000e-06	4.792238e-06	1.899260e-08	3.444481e+01	1.244747e+03
2.040000e-06	4.710512e-06	1.893954e-08	3.385740e+01	1.237053e+03
2.050000e-06	4.627266e-06	1.876299e-08	3.325905e+01	1.229107e+03
2.060000e-06	4.542468e-06	1.866098e-08	3.264956e+01	1.220890e+03
2.070000e-06	4.455962e-06	1.847601e-08	3.202779e+01	1.212368e+03
2.080000e-06	4.367750e-06	1.837951e-08	3.139375e+01	1.203500e+03
2.090000e-06	4.277991e-06	1.821586e-08	3.074860e+01	1.194248e+03
2.100000e-06	4.186914e-06	1.810015e-08	3.009397e+01	1.184582e+03
2.110000e-06	4.094595e-06	1.796017e-08	2.943042e+01	1.174487e+03
2.120000e-06	4.000822e-06	1.776929e-08	2.875641e+01	1.163960e+03
2.130000e-06	3.905419e-06	1.760293e-08	2.807069e+01	1.153012e+03
2.140000e-06	3.808540e-06	1.741297e-08	2.737436e+01	1.141655e+03
2.150000e-06	3.710363e-06	1.726627e-08	2.666870e+01	1.129896e+03
2.160000e-06	3.610928e-06	1.707382e-08	2.595400e+01	1.117731e+03
2.170000e-06	3.510288e-06	1.689963e-08	2.523064e+01	1.105137e+03
2.180000e-06	3.408299e-06	1.668714e-08	2.449758e+01	1.092077e+03
2.190000e-06	3.304791e-06	1.647870e-08	2.375361e+01	1.078502e+03
2.200000e-06	3.200022e-06	1.626247e-08	2.300056e+01	1.064353e+03
2.210000e-06	3.094222e-06	1.604340e-08	2.224011e+01	1.049578e+03
2.220000e-06	2.987366e-06	1.581392e-08	2.147207e+01	1.034128e+03
2.230000e-06	2.879488e-06	1.556013e-08	2.069668e+01	1.017966e+03
2.240000e-06	2.770749e-06	1.530950e-08	1.991511e+01	1.001065e+03
2.250000e-06	2.661073e-06	1.503974e-08	1.912680e+01	9.833992e+02
2.260000e-06	2.550262e-06	1.476124e-08	1.833033e+01	9.649414e+02
2.270000e-06	2.438432e-06	1.446174e-08	1.752654e+01	9.456548e+02
2.280000e-06	2.325642e-06	1.416034e-08	1.671584e+01	9.254888e+02
2.290000e-06	2.211900e-06	1.383733e-08	1.589831e+01	9.043778e+02
2.300000e-06	2.097352e-06	1.350244e-08	1.507498e+01	8.822426e+02
2.310000e-06	1.982024e-06	1.314878e-08	1.424605e+01	8.589951e+02
2.320000e-06	1.865912e-06	1.277816e-08	1.341148e+01	8.345431e+02
2.330000e-06	1.749180e-06	1.238441e-08	1.257245e+01	8.087942e+02
2.340000e-06	1.631819e-06	1.196723e-08	1.172890e+01	7.816577e+02
2.350000e-06	1.513687e-06	1.153420e-08	1.087982e+01	7.530441e+02
2.360000e-06	1.394865e-06	1.107983e-08	1.002577e+01	7.228641e+02
2.370000e-06	1.275507e-06	1.060245e-08	9.167869e+00	6.910285e+02
2.380000e-06	1.155695e-06	1.008947e-08	8.306702e+00	6.574519e+02
2.390000e-06	1.035560e-06	9.545950e-09	7.443216e+00	6.220619e+02
2.400000e-06	9.151168e-07	8.971447e-09	6.577518e+00	5.848126e+02
2.410000e-06	7.943949e-07	8.374532e-09	5.709813e+00	5.457029e+02
2.420000e-06	6.734819e-07	7.752928e-09	4.840736e+00	5.047936e+02
2.430000e-06	5.524304e-07	7.107088e-09	3.970663e+00	4.622200e+02
2.440000e-06	4.311957e-07	6.436978e-09	3.099273e+00	4.181940e+02
2.450000e-06	3.098078e-07	5.741041e-09	2.226783e+00	3.729929e+02
2.460000e-06	1.883106e-07	5.031462e-09	1.353506e+00	3.269335e+02
2.470000e-06	6.666852e-08	4.317256e-09	4.791884e-01	2.803347e+02
2.480000e-06	-5.505890e-08	3.605262e-09	-3.957428e-01	2.334729e+02
2.490000e-06	-1.767434e-07	2.890888e-09	-1.270366e+00	1.865405e+02
2.500000e-06	-2.982497e-07	2.171659e-09	-2.143707e+00	1.396140e+02
2.510000e-06	-4.196272e-07	1.450929e-09	-3.016123e+00	9.264166e+01
2.520000e-06	-5.409470e-07	7.271463e-10	-3.888125e+00	4.545367e+01
2.530000e-06	-6.622098e-07	-1.292179e-12	-4.759716e+00	-2.203935e+00
2.540000e-06	-7.832684e-07	-7.400839e-10	-5.629840e+00	-5.061625e+01
2.550000e-06	-9.039727e-07	-1.493119e-09	-6.497418e+00	-1.000363e+02
2.560000e-06	-1.024389e-06	-2.263324e-09	-7.362926e+00	-1.506225e+02
2.570000e-06	-1.144527e-06	-3.052658e-09	-8.226429e+00	-2.023888e+02
2.580000e-06	-1.264300e-06	-3.856223e-09	-9.087317e+00	-2.551763e+02
2.590000e-06	-1.383626e-06	-4.672053e-09	-9.944989e+00	-3.086523e+02
2.600000e-06	-1.502266e-06	-5.494193e-09	-1.079772e+01	-3.623372e+02
2.610000e-06	-1.620038e-06	-6.311012e-09	-1.164423e+01	-4.156539e+02
2.620000e-06	-1.737062e-06	-7.112832e-09	-1.248535e+01	-4.679910e+02
2.630000e-06	-1.853441e-06	-7.891711e-09	-1.332184e+01	-5.187690e+02
2.640000e-06	-1.969022e-06	-8.638647e-09	-1.415260e+01	-5.674980e+02
2.650000e-06	-2.083764e-06	-9.349282e-09	-1.497732e+01	-6.138182e+02
2.660000e-06	-2.197667e-06	-1.002039e-08	-1.579601e+01	-6.575186e+02
2.670000e-06	-2.310483e-06	-1.065049e-08	-1.660689e+01	-6.985326e+02
2.680000e-06	-2.422179e-06	-1.123957e-08	-1.740972e+01	-7.369157e+02
2.690000e-06	-2.532993e-06	-1.178988e-08	-1.820621e+01	-7.728106e+02
2.700000e-06	-2.642889e-06	-1.230572e-08	-1.899610e+01	-8.064089e+02
2.710000e-06	-2.751802e-06	-1.278935e-08	-1.977892e+01	-8.379153e+02
2.720000e-06	-2.859901e-06	-1.324501e-08	-2.055590e+01	-8.675222e+02
2.730000e-06	-2.967119e-06	-1.367234e-08	-2.132654e+01	-8.953943e+02
2.740000e-06	-3.073312e-06	-1.407390e-08	-2.208982e+01	-9.216657e+02
2.750000e-06	-3.178482e-06	-1.445284e-08	-2.284574e+01	-9.464446e+02
2.760000e-06	-3.282595e-06	-1.480750e-08	-2.359407e+01	-9.698226e+02
2.770000e-06	-3.385450e-06	-1.514145e-08	-2.433335e+01	-9.918848e+02
2.780000e-06	-3.486829e-06	-1.545894e-08	-2.506202e+01	-1.012716e+03
2.790000e-06	-3.586931e-06	-1.576106e-08	-2.578152e+01	-1.032404e+03
2.800000e-06	-3.685877e-06	-1.604814e-08	-2.649271e+01	-1.051038e+03
2.810000e-06	-3.783629e-06	-1.631899e-08	-2.719531e+01	-1.068704e+03
2.820000e-06	-3.880250e-06	-1.657557e-08	-2.788979e+01	-1.085479e+03
2.830000e-06	-3.975496e-06	-1.681945e-08	-2.857438e+01	-1.101430e+03
2.840000e-06	-4.069136e-06	-1.705224e-08	-2.924743e+01	-1.116610e+03
2.850000e-06	-4.161380e-06	-1.727632e-08	-2.991044e+01	-1.131061e+03
2.860000e-06	-4.252247e-06	-1.749032e-08	-3.056356e+01	-1.144818e+03
2.870000e-06	-4.341530e-06	-1.769253e-08	-3.120529e+01	-1.157911e+03
2.880000e-06	-4.429255e-06	-1.788434e-08	-3.183583e+01	-1.170374e+03
2.890000e-06	-4.515246e-06	-1.806637e-08	-3.245390e+01	-1.182239e+03
2.900000e-06	-4.599552e-06	-1.823854e-08	-3.305986e+01	-1.193540e+03
2.910000e-06	-4.682387e-06	-1.840255e-08	-3.365525e+01	-1.204312e+03
2.920000e-06	-4.763621e-06	-1.855835e-08	-3.423913e+01	-1.214580e+03
2.930000e-06	-4.843023e-06	-1.870733e-08	-3.480984e+01	-1.224366e+03
2.940000e-06	-4.920361e-06	-1.884873e-08	-3.536572e+01	-1.233682e+03
