# Temperatura_=_52.53
# Concentracion g/m^3_=_28200.0
# C_Vs_to_Am_M_A/Vsm_=_65563218390.804596
# pendiente_HvsI_1/m_=_3716.3
# ordenada_HvsI_A/m_=_1297.0
# frecuencia_Hz_=_302098.84197867935

Tiempo_(s)	Campo_(V.s)	Magnetizacion_(V.s)	Campo_(kA/m)	Magnetizacion_(A/m)
0.000000e+00	-6.401722e-06	-2.034054e-08	-4.559163e+01	-1.329618e+03
1.000000e-08	-6.400072e-06	-2.034155e-08	-4.557988e+01	-1.329329e+03
2.000000e-08	-6.396169e-06	-2.033717e-08	-4.555208e+01	-1.328952e+03
3.000000e-08	-6.390235e-06	-2.033003e-08	-4.550982e+01	-1.328476e+03
4.000000e-08	-6.382352e-06	-2.032389e-08	-4.545368e+01	-1.327870e+03
5.000000e-08	-6.372289e-06	-2.031183e-08	-4.538201e+01	-1.327091e+03
6.000000e-08	-6.359800e-06	-2.029475e-08	-4.529307e+01	-1.326096e+03
7.000000e-08	-6.345006e-06	-2.026935e-08	-4.518771e+01	-1.324852e+03
8.000000e-08	-6.327918e-06	-2.023090e-08	-4.506602e+01	-1.323353e+03
9.000000e-08	-6.308759e-06	-2.023565e-08	-4.492957e+01	-1.321625e+03
1.000000e-07	-6.287468e-06	-2.032148e-08	-4.477794e+01	-1.319728e+03
1.100000e-07	-6.263720e-06	-2.021596e-08	-4.460881e+01	-1.317750e+03
1.200000e-07	-6.237302e-06	-2.011297e-08	-4.442067e+01	-1.315791e+03
1.300000e-07	-6.208575e-06	-2.012975e-08	-4.421608e+01	-1.313944e+03
1.400000e-07	-6.178089e-06	-2.005394e-08	-4.399897e+01	-1.312269e+03
1.500000e-07	-6.146112e-06	-1.991731e-08	-4.377123e+01	-1.310784e+03
1.600000e-07	-6.112234e-06	-2.014632e-08	-4.352996e+01	-1.309450e+03
1.700000e-07	-6.076254e-06	-2.005793e-08	-4.327372e+01	-1.308179e+03
1.800000e-07	-6.038442e-06	-1.980833e-08	-4.300443e+01	-1.306840e+03
1.900000e-07	-5.998497e-06	-2.003024e-08	-4.271995e+01	-1.305291e+03
2.000000e-07	-5.956102e-06	-1.979238e-08	-4.241803e+01	-1.303396e+03
2.100000e-07	-5.911535e-06	-1.976087e-08	-4.210063e+01	-1.301055e+03
2.200000e-07	-5.864883e-06	-1.986417e-08	-4.176838e+01	-1.298217e+03
2.300000e-07	-5.815874e-06	-1.963494e-08	-4.141935e+01	-1.294890e+03
2.400000e-07	-5.764337e-06	-1.964383e-08	-4.105231e+01	-1.291129e+03
2.500000e-07	-5.710270e-06	-1.959349e-08	-4.066726e+01	-1.287024e+03
2.600000e-07	-5.654245e-06	-1.949546e-08	-4.026826e+01	-1.282676e+03
2.700000e-07	-5.596040e-06	-1.947344e-08	-3.985374e+01	-1.278172e+03
2.800000e-07	-5.535597e-06	-1.938450e-08	-3.942328e+01	-1.273568e+03
2.900000e-07	-5.473302e-06	-1.933293e-08	-3.897963e+01	-1.268876e+03
3.000000e-07	-5.409005e-06	-1.920493e-08	-3.852173e+01	-1.264070e+03
3.100000e-07	-5.342604e-06	-1.916795e-08	-3.804883e+01	-1.259091e+03
3.200000e-07	-5.274080e-06	-1.909324e-08	-3.756082e+01	-1.253871e+03
3.300000e-07	-5.203564e-06	-1.898784e-08	-3.705862e+01	-1.248346e+03
3.400000e-07	-5.131350e-06	-1.892485e-08	-3.654432e+01	-1.242476e+03
3.500000e-07	-5.057173e-06	-1.877166e-08	-3.601605e+01	-1.236252e+03
3.600000e-07	-4.980783e-06	-1.871321e-08	-3.547202e+01	-1.229692e+03
3.700000e-07	-4.902330e-06	-1.860344e-08	-3.491329e+01	-1.222836e+03
3.800000e-07	-4.821834e-06	-1.849267e-08	-3.434002e+01	-1.215729e+03
3.900000e-07	-4.739585e-06	-1.840575e-08	-3.375426e+01	-1.208409e+03
4.000000e-07	-4.655913e-06	-1.826610e-08	-3.315837e+01	-1.200887e+03
4.100000e-07	-4.570872e-06	-1.813955e-08	-3.255273e+01	-1.193151e+03
4.200000e-07	-4.484388e-06	-1.801646e-08	-3.193680e+01	-1.185162e+03
4.300000e-07	-4.396587e-06	-1.791348e-08	-3.131150e+01	-1.176863e+03
4.400000e-07	-4.307172e-06	-1.776965e-08	-3.067471e+01	-1.168198e+03
4.500000e-07	-4.215981e-06	-1.761982e-08	-3.002527e+01	-1.159118e+03
4.600000e-07	-4.123255e-06	-1.748133e-08	-2.936490e+01	-1.149593e+03
4.700000e-07	-4.029012e-06	-1.731487e-08	-2.869372e+01	-1.139619e+03
4.800000e-07	-3.933499e-06	-1.716780e-08	-2.801350e+01	-1.129209e+03
4.900000e-07	-3.836699e-06	-1.701131e-08	-2.732411e+01	-1.118383e+03
5.000000e-07	-3.738304e-06	-1.684342e-08	-2.662336e+01	-1.107164e+03
5.100000e-07	-3.638421e-06	-1.665343e-08	-2.591202e+01	-1.095555e+03
5.200000e-07	-3.537235e-06	-1.646009e-08	-2.519140e+01	-1.083542e+03
5.300000e-07	-3.434865e-06	-1.627109e-08	-2.446234e+01	-1.071087e+03
5.400000e-07	-3.331383e-06	-1.607400e-08	-2.372537e+01	-1.058134e+03
5.500000e-07	-3.226601e-06	-1.587611e-08	-2.297913e+01	-1.044620e+03
5.600000e-07	-3.120430e-06	-1.565836e-08	-2.222301e+01	-1.030482e+03
5.700000e-07	-3.013024e-06	-1.543090e-08	-2.145808e+01	-1.015669e+03
5.800000e-07	-2.904483e-06	-1.518762e-08	-2.068508e+01	-1.000146e+03
5.900000e-07	-2.794874e-06	-1.494143e-08	-1.990447e+01	-9.838896e+02
6.000000e-07	-2.684294e-06	-1.468695e-08	-1.911694e+01	-9.668849e+02
6.100000e-07	-2.572869e-06	-1.441755e-08	-1.832339e+01	-9.491148e+02
6.200000e-07	-2.460529e-06	-1.413418e-08	-1.752333e+01	-9.305510e+02
6.300000e-07	-2.347078e-06	-1.383399e-08	-1.671536e+01	-9.111464e+02
6.400000e-07	-2.232480e-06	-1.352217e-08	-1.589922e+01	-8.908340e+02
6.500000e-07	-2.116887e-06	-1.319498e-08	-1.507600e+01	-8.695287e+02
6.600000e-07	-2.000469e-06	-1.285523e-08	-1.424689e+01	-8.471344e+02
6.700000e-07	-1.883387e-06	-1.249172e-08	-1.341306e+01	-8.235516e+02
6.800000e-07	-1.765692e-06	-1.210943e-08	-1.257487e+01	-7.986840e+02
6.900000e-07	-1.647356e-06	-1.170976e-08	-1.173210e+01	-7.724424e+02
7.000000e-07	-1.528517e-06	-1.128723e-08	-1.088575e+01	-7.447437e+02
7.100000e-07	-1.409252e-06	-1.084418e-08	-1.003638e+01	-7.155088e+02
7.200000e-07	-1.289477e-06	-1.037338e-08	-9.183369e+00	-6.846589e+02
7.300000e-07	-1.169245e-06	-9.879016e-09	-8.327099e+00	-6.521159e+02
7.400000e-07	-1.048641e-06	-9.353624e-09	-7.468185e+00	-6.178076e+02
7.500000e-07	-9.275861e-07	-8.800655e-09	-6.606061e+00	-5.816808e+02
7.600000e-07	-8.061226e-07	-8.224391e-09	-5.741025e+00	-5.437181e+02
7.700000e-07	-6.843459e-07	-7.621885e-09	-4.873758e+00	-5.039587e+02
7.800000e-07	-5.622940e-07	-6.988262e-09	-4.004532e+00	-4.625142e+02
7.900000e-07	-4.400736e-07	-6.331938e-09	-3.134106e+00	-4.195763e+02
8.000000e-07	-3.177053e-07	-5.662773e-09	-2.262626e+00	-3.754104e+02
8.100000e-07	-1.951824e-07	-4.979509e-09	-1.390046e+00	-3.303337e+02
8.200000e-07	-7.257458e-08	-4.288606e-09	-5.168599e-01	-2.846791e+02
8.300000e-07	5.003635e-08	-3.594076e-09	3.563477e-01	-2.387507e+02
8.400000e-07	1.726810e-07	-2.899086e-09	1.229795e+00	-1.927778e+02
8.500000e-07	2.953376e-07	-2.199107e-09	2.103328e+00	-1.468784e+02
8.600000e-07	4.179031e-07	-1.502251e-09	2.976212e+00	-1.010393e+02
8.700000e-07	5.403644e-07	-8.043344e-10	3.848354e+00	-5.511998e+01
8.800000e-07	6.626682e-07	-9.924327e-11	4.719374e+00	-8.880026e+00
8.900000e-07	7.847882e-07	6.165912e-10	5.589085e+00	3.797169e+01
9.000000e-07	9.066848e-07	1.344582e-09	6.457206e+00	8.571546e+01
9.100000e-07	1.028260e-06	2.084553e-09	7.323036e+00	1.345569e+02
9.200000e-07	1.149404e-06	2.842441e-09	8.185795e+00	1.845728e+02
9.300000e-07	1.270020e-06	3.615822e-09	9.044797e+00	2.356760e+02
9.400000e-07	1.390069e-06	4.404909e-09	9.899758e+00	2.876069e+02
9.500000e-07	1.509578e-06	5.206055e-09	1.075088e+01	3.399513e+02
9.600000e-07	1.628621e-06	6.009794e-09	1.159867e+01	3.921825e+02
9.700000e-07	1.747134e-06	6.798822e-09	1.244270e+01	4.437181e+02
9.800000e-07	1.865009e-06	7.561785e-09	1.328218e+01	4.939837e+02
9.900000e-07	1.982193e-06	8.295431e-09	1.411673e+01	5.424697e+02
1.000000e-06	2.098588e-06	8.995635e-09	1.494567e+01	5.887760e+02
1.010000e-06	2.214129e-06	9.658488e-09	1.576853e+01	6.326361e+02
1.020000e-06	2.328773e-06	1.027863e-08	1.658500e+01	6.739210e+02
1.030000e-06	2.442394e-06	1.086370e-08	1.739418e+01	7.126252e+02
1.040000e-06	2.554853e-06	1.141333e-08	1.819509e+01	7.488392e+02
1.050000e-06	2.666235e-06	1.193275e-08	1.898833e+01	7.827168e+02
1.060000e-06	2.776788e-06	1.241627e-08	1.977566e+01	8.144420e+02
1.070000e-06	2.886531e-06	1.286905e-08	2.055723e+01	8.442026e+02
1.080000e-06	2.995335e-06	1.329173e-08	2.133210e+01	8.721721e+02
1.090000e-06	3.103083e-06	1.368950e-08	2.209946e+01	8.985009e+02
1.100000e-06	3.209732e-06	1.406550e-08	2.285899e+01	9.233157e+02
1.110000e-06	3.315252e-06	1.442138e-08	2.361048e+01	9.467236e+02
1.120000e-06	3.419460e-06	1.476053e-08	2.435262e+01	9.688181e+02
1.130000e-06	3.522384e-06	1.507968e-08	2.508563e+01	9.896856e+02
1.140000e-06	3.624138e-06	1.537886e-08	2.581030e+01	1.009408e+03
1.150000e-06	3.724671e-06	1.565784e-08	2.652627e+01	1.028066e+03
1.160000e-06	3.823861e-06	1.592510e-08	2.723268e+01	1.045735e+03
1.170000e-06	3.921670e-06	1.617750e-08	2.792925e+01	1.062487e+03
1.180000e-06	4.017981e-06	1.641803e-08	2.861516e+01	1.078386e+03
1.190000e-06	4.112771e-06	1.664662e-08	2.929023e+01	1.093490e+03
1.200000e-06	4.206229e-06	1.686546e-08	2.995582e+01	1.107849e+03
1.210000e-06	4.298350e-06	1.707059e-08	3.061188e+01	1.121505e+03
1.220000e-06	4.389023e-06	1.726506e-08	3.125764e+01	1.134498e+03
1.230000e-06	4.477969e-06	1.744843e-08	3.189109e+01	1.146861e+03
1.240000e-06	4.565176e-06	1.762391e-08	3.251216e+01	1.158627e+03
1.250000e-06	4.650860e-06	1.779249e-08	3.312239e+01	1.169823e+03
1.260000e-06	4.735032e-06	1.795490e-08	3.372184e+01	1.180477e+03
1.270000e-06	4.817639e-06	1.811055e-08	3.431015e+01	1.190608e+03
1.280000e-06	4.898474e-06	1.825762e-08	3.488583e+01	1.200236e+03
1.290000e-06	4.977383e-06	1.839658e-08	3.544780e+01	1.209375e+03
1.300000e-06	5.054428e-06	1.852820e-08	3.599650e+01	1.218040e+03
1.310000e-06	5.129574e-06	1.865256e-08	3.653168e+01	1.226245e+03
1.320000e-06	5.202686e-06	1.877072e-08	3.705237e+01	1.234006e+03
1.330000e-06	5.273875e-06	1.888324e-08	3.755936e+01	1.241345e+03
1.340000e-06	5.343207e-06	1.898857e-08	3.805312e+01	1.248283e+03
1.350000e-06	5.410643e-06	1.908508e-08	3.853339e+01	1.254846e+03
1.360000e-06	5.476042e-06	1.917623e-08	3.899915e+01	1.261063e+03
1.370000e-06	5.539428e-06	1.926692e-08	3.945056e+01	1.266958e+03
1.380000e-06	5.601027e-06	1.935300e-08	3.988926e+01	1.272558e+03
1.390000e-06	5.660828e-06	1.943299e-08	4.031515e+01	1.277884e+03
1.400000e-06	5.718542e-06	1.950841e-08	4.072617e+01	1.282952e+03
1.410000e-06	5.774107e-06	1.958167e-08	4.112190e+01	1.287775e+03
1.420000e-06	5.827609e-06	1.965121e-08	4.150293e+01	1.292364e+03
1.430000e-06	5.878785e-06	1.971682e-08	4.186739e+01	1.296721e+03
1.440000e-06	5.927465e-06	1.978018e-08	4.221407e+01	1.300851e+03
1.450000e-06	5.973885e-06	1.984231e-08	4.254467e+01	1.304750e+03
1.460000e-06	6.018390e-06	1.989937e-08	4.286162e+01	1.308416e+03
1.470000e-06	6.060893e-06	1.995177e-08	4.316432e+01	1.311844e+03
1.480000e-06	6.101107e-06	1.999881e-08	4.345072e+01	1.315031e+03
1.490000e-06	6.139170e-06	2.004106e-08	4.372179e+01	1.317974e+03
1.500000e-06	6.175284e-06	2.008060e-08	4.397899e+01	1.320676e+03
1.510000e-06	6.209108e-06	2.011549e-08	4.421988e+01	1.323141e+03
1.520000e-06	6.240626e-06	2.014986e-08	4.444434e+01	1.325382e+03
1.530000e-06	6.270080e-06	2.018272e-08	4.465411e+01	1.327412e+03
1.540000e-06	6.297484e-06	2.021033e-08	4.484927e+01	1.329245e+03
1.550000e-06	6.322443e-06	2.023269e-08	4.502702e+01	1.330895e+03
1.560000e-06	6.344925e-06	2.025291e-08	4.518713e+01	1.332369e+03
1.570000e-06	6.365339e-06	2.027077e-08	4.533252e+01	1.333668e+03
1.580000e-06	6.383589e-06	2.028584e-08	4.546249e+01	1.334787e+03
1.590000e-06	6.399439e-06	2.029793e-08	4.557537e+01	1.335717e+03
1.600000e-06	6.412871e-06	2.030748e-08	4.567103e+01	1.336448e+03
1.610000e-06	6.423830e-06	2.031567e-08	4.574908e+01	1.336977e+03
1.620000e-06	6.432211e-06	2.032400e-08	4.580876e+01	1.337308e+03
1.630000e-06	6.438304e-06	2.033109e-08	4.585216e+01	1.337457e+03
1.640000e-06	6.442339e-06	2.033505e-08	4.588089e+01	1.337447e+03
1.650000e-06	6.443983e-06	2.033664e-08	4.589260e+01	1.337309e+03
1.660000e-06	6.443278e-06	2.033705e-08	4.588759e+01	1.337066e+03
1.670000e-06	6.440568e-06	2.031952e-08	4.586828e+01	1.336735e+03
1.680000e-06	6.435805e-06	2.031074e-08	4.583436e+01	1.336314e+03
1.690000e-06	6.428739e-06	2.029918e-08	4.578404e+01	1.335781e+03
1.700000e-06	6.419496e-06	2.028611e-08	4.571821e+01	1.335099e+03
1.710000e-06	6.408295e-06	2.027873e-08	4.563844e+01	1.334223e+03
1.720000e-06	6.394855e-06	2.027336e-08	4.554273e+01	1.333114e+03
1.730000e-06	6.379232e-06	2.028906e-08	4.543146e+01	1.331749e+03
1.740000e-06	6.361651e-06	2.021034e-08	4.530625e+01	1.330137e+03
1.750000e-06	6.341863e-06	2.006006e-08	4.516533e+01	1.328319e+03
1.760000e-06	6.318986e-06	2.013193e-08	4.500240e+01	1.326371e+03
1.770000e-06	6.292974e-06	2.014390e-08	4.481715e+01	1.324389e+03
1.780000e-06	6.264935e-06	2.006793e-08	4.461746e+01	1.322470e+03
1.790000e-06	6.235043e-06	2.024413e-08	4.440458e+01	1.320696e+03
1.800000e-06	6.203559e-06	2.008782e-08	4.418036e+01	1.319109e+03
1.810000e-06	6.170668e-06	1.981922e-08	4.394611e+01	1.317701e+03
1.820000e-06	6.135649e-06	2.009038e-08	4.369672e+01	1.316409e+03
1.830000e-06	6.098561e-06	1.993516e-08	4.343258e+01	1.315122e+03
1.840000e-06	6.059237e-06	2.005294e-08	4.315253e+01	1.313703e+03
1.850000e-06	6.017426e-06	2.027096e-08	4.285476e+01	1.312007e+03
1.860000e-06	5.973774e-06	1.983443e-08	4.254388e+01	1.309913e+03
1.870000e-06	5.928029e-06	2.002797e-08	4.221810e+01	1.307343e+03
1.880000e-06	5.880062e-06	1.994830e-08	4.187648e+01	1.304272e+03
1.890000e-06	5.830044e-06	1.978111e-08	4.152026e+01	1.300732e+03
1.900000e-06	5.777337e-06	1.994639e-08	4.114490e+01	1.296798e+03
1.910000e-06	5.722175e-06	1.965119e-08	4.075205e+01	1.292567e+03
1.920000e-06	5.664938e-06	1.972324e-08	4.034442e+01	1.288136e+03
1.930000e-06	5.605748e-06	1.965882e-08	3.992288e+01	1.283580e+03
1.940000e-06	5.544676e-06	1.951387e-08	3.948794e+01	1.278935e+03
1.950000e-06	5.481410e-06	1.957170e-08	3.903738e+01	1.274194e+03
1.960000e-06	5.416055e-06	1.931240e-08	3.857193e+01	1.269314e+03
1.970000e-06	5.348776e-06	1.938981e-08	3.809278e+01	1.264230e+03
1.980000e-06	5.279426e-06	1.920118e-08	3.759889e+01	1.258874e+03
1.990000e-06	5.207910e-06	1.911903e-08	3.708957e+01	1.253191e+03
2.000000e-06	5.134493e-06	1.913259e-08	3.656671e+01	1.247155e+03
2.010000e-06	5.059314e-06	1.892712e-08	3.603130e+01	1.240769e+03
2.020000e-06	4.981960e-06	1.892473e-08	3.548040e+01	1.234065e+03
2.030000e-06	4.902571e-06	1.869874e-08	3.491501e+01	1.227086e+03
2.040000e-06	4.821510e-06	1.866482e-08	3.433772e+01	1.219875e+03
2.050000e-06	4.738817e-06	1.856830e-08	3.374879e+01	1.212460e+03
2.060000e-06	4.654668e-06	1.841842e-08	3.314950e+01	1.204841e+03
2.070000e-06	4.568725e-06	1.832404e-08	3.253743e+01	1.196992e+03
2.080000e-06	4.481011e-06	1.814512e-08	3.191275e+01	1.188865e+03
2.090000e-06	4.391800e-06	1.806916e-08	3.127742e+01	1.180402e+03
2.100000e-06	4.301146e-06	1.788945e-08	3.063180e+01	1.171547e+03
2.110000e-06	4.209193e-06	1.779468e-08	2.997693e+01	1.162262e+03
2.120000e-06	4.115718e-06	1.764062e-08	2.931122e+01	1.152527e+03
2.130000e-06	4.020657e-06	1.747417e-08	2.863422e+01	1.142346e+03
2.140000e-06	3.924190e-06	1.730883e-08	2.794720e+01	1.131739e+03
2.150000e-06	3.826370e-06	1.712679e-08	2.725055e+01	1.120727e+03
2.160000e-06	3.727271e-06	1.698223e-08	2.654479e+01	1.109326e+03
2.170000e-06	3.626857e-06	1.679008e-08	2.582967e+01	1.097532e+03
2.180000e-06	3.524828e-06	1.662396e-08	2.510304e+01	1.085318e+03
2.190000e-06	3.421407e-06	1.640990e-08	2.436650e+01	1.072638e+03
2.200000e-06	3.316799e-06	1.621684e-08	2.362150e+01	1.059431e+03
2.210000e-06	3.211033e-06	1.599882e-08	2.286826e+01	1.045633e+03
2.220000e-06	3.104226e-06	1.578752e-08	2.210760e+01	1.031186e+03
2.230000e-06	2.996432e-06	1.555876e-08	2.133992e+01	1.016046e+03
2.240000e-06	2.887603e-06	1.531225e-08	2.056486e+01	1.000183e+03
2.250000e-06	2.777604e-06	1.505984e-08	1.978147e+01	9.835794e+02
2.260000e-06	2.666548e-06	1.479264e-08	1.899056e+01	9.662206e+02
2.270000e-06	2.554488e-06	1.452417e-08	1.819249e+01	9.480852e+02
2.280000e-06	2.441471e-06	1.423283e-08	1.738761e+01	9.291367e+02
2.290000e-06	2.327436e-06	1.393846e-08	1.657548e+01	9.093188e+02
2.300000e-06	2.212481e-06	1.361753e-08	1.575679e+01	8.885554e+02
2.310000e-06	2.096762e-06	1.328789e-08	1.493267e+01	8.667555e+02
2.320000e-06	1.980171e-06	1.293693e-08	1.410233e+01	8.438203e+02
2.330000e-06	1.862633e-06	1.257288e-08	1.326526e+01	8.196513e+02
2.340000e-06	1.744270e-06	1.218363e-08	1.242230e+01	7.941551e+02
2.350000e-06	1.625293e-06	1.177146e-08	1.157497e+01	7.672456e+02
2.360000e-06	1.505840e-06	1.133824e-08	1.072426e+01	7.388421e+02
2.370000e-06	1.385889e-06	1.088266e-08	9.869990e+00	7.088658e+02
2.380000e-06	1.265408e-06	1.040643e-08	9.011954e+00	6.772380e+02
2.390000e-06	1.144606e-06	9.898921e-09	8.151628e+00	6.438822e+02
2.400000e-06	1.023535e-06	9.364614e-09	7.289388e+00	6.087332e+02
2.410000e-06	9.021203e-07	8.795526e-09	6.424699e+00	5.717518e+02
2.420000e-06	7.804232e-07	8.200783e-09	5.557999e+00	5.329446e+02
2.430000e-06	6.584710e-07	7.578950e-09	4.689483e+00	4.923828e+02
2.440000e-06	5.362758e-07	6.933391e-09	3.819236e+00	4.502149e+02
2.450000e-06	4.139393e-07	6.268476e-09	2.947983e+00	4.066687e+02
2.460000e-06	2.914904e-07	5.583414e-09	2.075929e+00	3.620371e+02
2.470000e-06	1.688223e-07	4.886894e-09	1.202315e+00	3.166500e+02
2.480000e-06	4.607360e-08	4.185960e-09	3.281258e-01	2.708327e+02
2.490000e-06	-7.664970e-08	3.486317e-09	-5.458820e-01	2.248598e+02
2.500000e-06	-1.993497e-07	2.784429e-09	-1.419724e+00	1.789127e+02
2.510000e-06	-3.219625e-07	2.080007e-09	-2.292944e+00	1.330497e+02
2.520000e-06	-4.444324e-07	1.374024e-09	-3.165148e+00	8.719644e+01
2.530000e-06	-5.667608e-07	6.644053e-10	-4.036343e+00	4.116117e+01
2.540000e-06	-6.890100e-07	-4.933046e-11	-4.906975e+00	-5.327102e+00
2.550000e-06	-8.110456e-07	-7.733828e-10	-5.776085e+00	-5.256259e+01
2.560000e-06	-9.327095e-07	-1.509468e-09	-6.642548e+00	-1.007985e+02
2.570000e-06	-1.054036e-06	-2.261727e-09	-7.506611e+00	-1.501865e+02
2.580000e-06	-1.175078e-06	-3.031793e-09	-8.368640e+00	-2.007300e+02
2.590000e-06	-1.295729e-06	-3.814222e-09	-9.227892e+00	-2.522612e+02
2.600000e-06	-1.415874e-06	-4.608335e-09	-1.008354e+01	-3.044450e+02
2.610000e-06	-1.535415e-06	-5.410052e-09	-1.093488e+01	-3.568085e+02
2.620000e-06	-1.654367e-06	-6.209105e-09	-1.178203e+01	-4.087915e+02
2.630000e-06	-1.772733e-06	-6.994048e-09	-1.262500e+01	-4.598076e+02
2.640000e-06	-1.890337e-06	-7.753634e-09	-1.346256e+01	-5.093058e+02
2.650000e-06	-2.007035e-06	-8.481691e-09	-1.429366e+01	-5.568232e+02
2.660000e-06	-2.122777e-06	-9.174505e-09	-1.511794e+01	-6.020198e+02
2.670000e-06	-2.237616e-06	-9.828895e-09	-1.593580e+01	-6.446936e+02
2.680000e-06	-2.351487e-06	-1.044538e-08	-1.674677e+01	-6.847758e+02
2.690000e-06	-2.464306e-06	-1.102219e-08	-1.755023e+01	-7.223094e+02
2.700000e-06	-2.576050e-06	-1.155993e-08	-1.834605e+01	-7.574183e+02
2.710000e-06	-2.686721e-06	-1.206105e-08	-1.913423e+01	-7.902743e+02
2.720000e-06	-2.796383e-06	-1.253057e-08	-1.991521e+01	-8.210659e+02
2.730000e-06	-2.905113e-06	-1.297448e-08	-2.068957e+01	-8.499760e+02
2.740000e-06	-3.012911e-06	-1.339281e-08	-2.145727e+01	-8.771679e+02
2.750000e-06	-3.119791e-06	-1.378949e-08	-2.221845e+01	-9.027807e+02
2.760000e-06	-3.225711e-06	-1.416333e-08	-2.297279e+01	-9.269314e+02
2.770000e-06	-3.330506e-06	-1.450951e-08	-2.371912e+01	-9.497198e+02
2.780000e-06	-3.434069e-06	-1.483400e-08	-2.445667e+01	-9.712355e+02
2.790000e-06	-3.536346e-06	-1.514174e-08	-2.518507e+01	-9.915627e+02
2.800000e-06	-3.637265e-06	-1.543517e-08	-2.590378e+01	-1.010782e+03
2.810000e-06	-3.736824e-06	-1.571550e-08	-2.661282e+01	-1.028973e+03
2.820000e-06	-3.835134e-06	-1.598136e-08	-2.731296e+01	-1.046209e+03
2.830000e-06	-3.932211e-06	-1.623267e-08	-2.800433e+01	-1.062559e+03
2.840000e-06	-4.028015e-06	-1.647130e-08	-2.868662e+01	-1.078084e+03
2.850000e-06	-4.122393e-06	-1.669923e-08	-2.935876e+01	-1.092838e+03
2.860000e-06	-4.215136e-06	-1.691794e-08	-3.001925e+01	-1.106867e+03
2.870000e-06	-4.306361e-06	-1.712792e-08	-3.066893e+01	-1.120211e+03
2.880000e-06	-4.396136e-06	-1.732558e-08	-3.130829e+01	-1.132909e+03
2.890000e-06	-4.484311e-06	-1.750868e-08	-3.193626e+01	-1.144992e+03
2.900000e-06	-4.570885e-06	-1.768074e-08	-3.255282e+01	-1.156492e+03
2.910000e-06	-4.655676e-06	-1.784627e-08	-3.315668e+01	-1.167435e+03
2.920000e-06	-4.738773e-06	-1.800592e-08	-3.374848e+01	-1.177845e+03
2.930000e-06	-4.820332e-06	-1.815797e-08	-3.432932e+01	-1.187742e+03
2.940000e-06	-4.900096e-06	-1.830260e-08	-3.489738e+01	-1.197142e+03
