# Temperatura_=_70.98
# Concentracion g/m^3_=_28200.0
# C_Vs_to_Am_M_A/Vsm_=_65563218390.804596
# pendiente_HvsI_1/m_=_3716.3
# ordenada_HvsI_A/m_=_1297.0
# frecuencia_Hz_=_302099.9723534621

Tiempo_(s)	Campo_(V.s)	Magnetizacion_(V.s)	Campo_(kA/m)	Magnetizacion_(A/m)
0.000000e+00	-6.407325e-06	-2.121508e-08	-4.557682e+01	-1.388768e+03
1.000000e-08	-6.403721e-06	-2.120954e-08	-4.555118e+01	-1.388344e+03
2.000000e-08	-6.398062e-06	-2.119868e-08	-4.551093e+01	-1.387771e+03
3.000000e-08	-6.390453e-06	-2.118808e-08	-4.545680e+01	-1.387038e+03
4.000000e-08	-6.380635e-06	-2.117332e-08	-4.538697e+01	-1.386133e+03
5.000000e-08	-6.368400e-06	-2.115549e-08	-4.529994e+01	-1.385048e+03
6.000000e-08	-6.353831e-06	-2.113334e-08	-4.519630e+01	-1.383785e+03
7.000000e-08	-6.336958e-06	-2.110457e-08	-4.507628e+01	-1.382357e+03
8.000000e-08	-6.318045e-06	-2.110987e-08	-4.494175e+01	-1.380786e+03
9.000000e-08	-6.297024e-06	-2.116316e-08	-4.479222e+01	-1.379100e+03
1.000000e-07	-6.273532e-06	-2.108224e-08	-4.462512e+01	-1.377329e+03
1.100000e-07	-6.247405e-06	-2.099622e-08	-4.443927e+01	-1.375495e+03
1.200000e-07	-6.218957e-06	-2.098756e-08	-4.423691e+01	-1.373606e+03
1.300000e-07	-6.188645e-06	-2.091569e-08	-4.402130e+01	-1.371654e+03
1.400000e-07	-6.156794e-06	-2.080176e-08	-4.379474e+01	-1.369610e+03
1.500000e-07	-6.123163e-06	-2.095103e-08	-4.355551e+01	-1.367430e+03
1.600000e-07	-6.087365e-06	-2.090001e-08	-4.330086e+01	-1.365059e+03
1.700000e-07	-6.049686e-06	-2.071711e-08	-4.303284e+01	-1.362445e+03
1.800000e-07	-6.010012e-06	-2.085331e-08	-4.275064e+01	-1.359545e+03
1.900000e-07	-5.967904e-06	-2.067815e-08	-4.245112e+01	-1.356333e+03
2.000000e-07	-5.923547e-06	-2.060972e-08	-4.213560e+01	-1.352811e+03
2.100000e-07	-5.877123e-06	-2.063553e-08	-4.180537e+01	-1.348998e+03
2.200000e-07	-5.828333e-06	-2.043974e-08	-4.145831e+01	-1.344936e+03
2.300000e-07	-5.777060e-06	-2.041888e-08	-4.109359e+01	-1.340672e+03
2.400000e-07	-5.723336e-06	-2.038494e-08	-4.071144e+01	-1.336251e+03
2.500000e-07	-5.667458e-06	-2.031404e-08	-4.031397e+01	-1.331703e+03
2.600000e-07	-5.609419e-06	-2.026583e-08	-3.990112e+01	-1.327038e+03
2.700000e-07	-5.549181e-06	-2.016771e-08	-3.947264e+01	-1.322240e+03
2.800000e-07	-5.487015e-06	-2.009353e-08	-3.903044e+01	-1.317275e+03
2.900000e-07	-5.422904e-06	-1.996489e-08	-3.857440e+01	-1.312092e+03
3.000000e-07	-5.356721e-06	-1.992542e-08	-3.810362e+01	-1.306642e+03
3.100000e-07	-5.288411e-06	-1.987192e-08	-3.761772e+01	-1.300882e+03
3.200000e-07	-5.218083e-06	-1.975569e-08	-3.711746e+01	-1.294786e+03
3.300000e-07	-5.146063e-06	-1.964793e-08	-3.660517e+01	-1.288352e+03
3.400000e-07	-5.072110e-06	-1.950318e-08	-3.607912e+01	-1.281594e+03
3.500000e-07	-4.995856e-06	-1.943057e-08	-3.553671e+01	-1.274541e+03
3.600000e-07	-4.917499e-06	-1.932226e-08	-3.497933e+01	-1.267224e+03
3.700000e-07	-4.837180e-06	-1.921614e-08	-3.440801e+01	-1.259667e+03
3.800000e-07	-4.755119e-06	-1.911209e-08	-3.382429e+01	-1.251880e+03
3.900000e-07	-4.671558e-06	-1.895342e-08	-3.322990e+01	-1.243852e+03
4.000000e-07	-4.586613e-06	-1.881204e-08	-3.262566e+01	-1.235553e+03
4.100000e-07	-4.500203e-06	-1.868894e-08	-3.201101e+01	-1.226944e+03
4.200000e-07	-4.412396e-06	-1.857571e-08	-3.138641e+01	-1.217978e+03
4.300000e-07	-4.323070e-06	-1.842678e-08	-3.075102e+01	-1.208618e+03
4.400000e-07	-4.232017e-06	-1.827174e-08	-3.010334e+01	-1.198837e+03
4.500000e-07	-4.139409e-06	-1.811877e-08	-2.944460e+01	-1.188626e+03
4.600000e-07	-4.045365e-06	-1.794413e-08	-2.877564e+01	-1.177990e+03
4.700000e-07	-3.949904e-06	-1.778275e-08	-2.809660e+01	-1.166943e+03
4.800000e-07	-3.852976e-06	-1.761570e-08	-2.740713e+01	-1.155499e+03
4.900000e-07	-3.754597e-06	-1.743261e-08	-2.670734e+01	-1.143664e+03
5.000000e-07	-3.654809e-06	-1.722999e-08	-2.599752e+01	-1.131427e+03
5.100000e-07	-3.553663e-06	-1.703024e-08	-2.527805e+01	-1.118762e+03
5.200000e-07	-3.451302e-06	-1.683376e-08	-2.454993e+01	-1.105625e+03
5.300000e-07	-3.347768e-06	-1.662549e-08	-2.381347e+01	-1.091965e+03
5.400000e-07	-3.242979e-06	-1.641256e-08	-2.306808e+01	-1.077726e+03
5.500000e-07	-3.136910e-06	-1.618591e-08	-2.231358e+01	-1.062860e+03
5.600000e-07	-3.029526e-06	-1.594644e-08	-2.154973e+01	-1.047327e+03
5.700000e-07	-2.920952e-06	-1.569417e-08	-2.077742e+01	-1.031100e+03
5.800000e-07	-2.811371e-06	-1.543586e-08	-1.999795e+01	-1.014158e+03
5.900000e-07	-2.700893e-06	-1.516410e-08	-1.921209e+01	-9.964828e+02
6.000000e-07	-2.589521e-06	-1.487807e-08	-1.841988e+01	-9.780495e+02
6.100000e-07	-2.477120e-06	-1.458137e-08	-1.762034e+01	-9.588202e+02
6.200000e-07	-2.363663e-06	-1.427434e-08	-1.681329e+01	-9.387406e+02
6.300000e-07	-2.249120e-06	-1.395639e-08	-1.599852e+01	-9.177397e+02
6.400000e-07	-2.133563e-06	-1.362028e-08	-1.517654e+01	-8.957336e+02
6.500000e-07	-2.017166e-06	-1.326685e-08	-1.434858e+01	-8.726310e+02
6.600000e-07	-1.900026e-06	-1.288885e-08	-1.351533e+01	-8.483387e+02
6.700000e-07	-1.782235e-06	-1.249258e-08	-1.267746e+01	-8.227652e+02
6.800000e-07	-1.663908e-06	-1.208256e-08	-1.183577e+01	-7.958220e+02
6.900000e-07	-1.545053e-06	-1.165256e-08	-1.099033e+01	-7.674208e+02
7.000000e-07	-1.425719e-06	-1.119701e-08	-1.014148e+01	-7.374709e+02
7.100000e-07	-1.305891e-06	-1.071083e-08	-9.289112e+00	-7.058771e+02
7.200000e-07	-1.185511e-06	-1.019848e-08	-8.432819e+00	-6.725421e+02
7.300000e-07	-1.064611e-06	-9.656612e-09	-7.572830e+00	-6.373745e+02
7.400000e-07	-9.433224e-07	-9.089986e-09	-6.710075e+00	-6.003039e+02
7.500000e-07	-8.218200e-07	-8.499468e-09	-5.845800e+00	-5.612996e+02
7.600000e-07	-7.001215e-07	-7.879540e-09	-4.980130e+00	-5.203914e+02
7.700000e-07	-5.781798e-07	-7.226618e-09	-4.112729e+00	-4.776842e+02
7.800000e-07	-4.560436e-07	-6.549646e-09	-3.243946e+00	-4.333647e+02
7.900000e-07	-3.337306e-07	-5.855100e-09	-2.373905e+00	-3.876928e+02
8.000000e-07	-2.112424e-07	-5.141054e-09	-1.502617e+00	-3.409788e+02
8.100000e-07	-8.859254e-08	-4.419173e-09	-6.301797e-01	-2.935470e+02
8.200000e-07	3.413414e-08	-3.693552e-09	2.428042e-01	-2.456917e+02
8.300000e-07	1.567793e-07	-2.965221e-09	1.115209e+00	-1.976329e+02
8.400000e-07	2.793621e-07	-2.230111e-09	1.987169e+00	-1.494821e+02
8.500000e-07	4.019476e-07	-1.491792e-09	2.859148e+00	-1.012244e+02
8.600000e-07	5.244728e-07	-7.507004e-10	3.730699e+00	-5.272394e+01
8.700000e-07	6.468213e-07	-3.376607e-12	4.600993e+00	-3.753284e+00
8.800000e-07	7.689644e-07	7.529338e-10	5.469826e+00	4.595752e+01
8.900000e-07	8.908995e-07	1.523858e-09	6.337179e+00	9.665915e+01
9.000000e-07	1.012574e-06	2.312654e-09	7.202676e+00	1.485198e+02
9.100000e-07	1.133866e-06	3.120438e-09	8.065459e+00	2.015720e+02
9.200000e-07	1.254746e-06	3.942277e-09	8.925308e+00	2.556794e+02
9.300000e-07	1.375246e-06	4.774947e-09	9.782447e+00	3.105302e+02
9.400000e-07	1.495143e-06	5.612909e-09	1.063531e+01	3.656576e+02
9.500000e-07	1.614344e-06	6.449070e-09	1.148321e+01	4.204856e+02
9.600000e-07	1.733012e-06	7.270463e-09	1.232733e+01	4.743903e+02
9.700000e-07	1.851082e-06	8.067063e-09	1.316719e+01	5.267664e+02
9.800000e-07	1.968470e-06	8.829841e-09	1.400219e+01	5.770889e+02
9.900000e-07	2.085118e-06	9.553449e-09	1.483194e+01	6.249584e+02
1.000000e-06	2.200960e-06	1.023648e-08	1.565595e+01	6.701265e+02
1.010000e-06	2.315850e-06	1.087466e-08	1.647319e+01	7.124969e+02
1.020000e-06	2.429733e-06	1.147291e-08	1.728327e+01	7.521074e+02
1.030000e-06	2.542608e-06	1.203353e-08	1.808617e+01	7.890961e+02
1.040000e-06	2.654335e-06	1.256280e-08	1.888091e+01	8.236625e+02
1.050000e-06	2.765079e-06	1.305624e-08	1.966866e+01	8.560284e+02
1.060000e-06	2.875015e-06	1.351746e-08	2.045066e+01	8.864080e+02
1.070000e-06	2.984065e-06	1.394958e-08	2.122636e+01	9.149878e+02
1.080000e-06	3.092140e-06	1.435579e-08	2.199513e+01	9.419195e+02
1.090000e-06	3.199096e-06	1.474010e-08	2.275592e+01	9.673227e+02
1.100000e-06	3.304832e-06	1.510457e-08	2.350805e+01	9.912944e+02
1.110000e-06	3.409339e-06	1.545044e-08	2.425144e+01	1.013920e+03
1.120000e-06	3.512610e-06	1.577588e-08	2.498603e+01	1.035281e+03
1.130000e-06	3.614678e-06	1.608213e-08	2.571206e+01	1.055466e+03
1.140000e-06	3.715535e-06	1.637109e-08	2.642948e+01	1.074563e+03
1.150000e-06	3.815186e-06	1.664748e-08	2.713832e+01	1.092663e+03
1.160000e-06	3.913420e-06	1.690726e-08	2.783708e+01	1.109849e+03
1.170000e-06	4.010039e-06	1.715438e-08	2.852435e+01	1.126197e+03
1.180000e-06	4.105175e-06	1.739030e-08	2.920108e+01	1.141766e+03
1.190000e-06	4.198938e-06	1.761537e-08	2.986804e+01	1.156601e+03
1.200000e-06	4.291324e-06	1.782806e-08	3.052520e+01	1.170735e+03
1.210000e-06	4.382289e-06	1.802953e-08	3.117226e+01	1.184197e+03
1.220000e-06	4.471633e-06	1.822240e-08	3.180778e+01	1.197011e+03
1.230000e-06	4.559255e-06	1.840782e-08	3.243106e+01	1.209205e+03
1.240000e-06	4.645241e-06	1.858390e-08	3.304270e+01	1.220811e+03
1.250000e-06	4.729694e-06	1.875354e-08	3.364343e+01	1.231864e+03
1.260000e-06	4.812609e-06	1.891626e-08	3.423322e+01	1.242398e+03
1.270000e-06	4.893708e-06	1.906993e-08	3.481011e+01	1.252446e+03
1.280000e-06	4.972916e-06	1.921583e-08	3.537353e+01	1.262031e+03
1.290000e-06	5.050329e-06	1.935523e-08	3.592418e+01	1.271168e+03
1.300000e-06	5.125837e-06	1.948946e-08	3.646129e+01	1.279864e+03
1.310000e-06	5.199261e-06	1.961783e-08	3.698358e+01	1.288120e+03
1.320000e-06	5.270716e-06	1.973903e-08	3.749185e+01	1.295935e+03
1.330000e-06	5.340362e-06	1.985057e-08	3.798726e+01	1.303314e+03
1.340000e-06	5.408193e-06	1.995370e-08	3.846976e+01	1.310266e+03
1.350000e-06	5.473983e-06	2.005264e-08	3.893773e+01	1.316815e+03
1.360000e-06	5.537712e-06	2.014864e-08	3.939106e+01	1.322990e+03
1.370000e-06	5.599646e-06	2.023946e-08	3.983161e+01	1.328830e+03
1.380000e-06	5.659760e-06	2.032420e-08	4.025921e+01	1.334375e+03
1.390000e-06	5.717821e-06	2.040497e-08	4.067221e+01	1.339661e+03
1.400000e-06	5.773741e-06	2.048231e-08	4.106999e+01	1.344718e+03
1.410000e-06	5.827580e-06	2.055549e-08	4.145295e+01	1.349562e+03
1.420000e-06	5.879183e-06	2.062582e-08	4.182002e+01	1.354198e+03
1.430000e-06	5.928271e-06	2.069235e-08	4.216919e+01	1.358619e+03
1.440000e-06	5.975030e-06	2.075575e-08	4.250180e+01	1.362813e+03
1.450000e-06	6.019840e-06	2.081619e-08	4.282054e+01	1.366761e+03
1.460000e-06	6.062688e-06	2.087346e-08	4.312534e+01	1.370449e+03
1.470000e-06	6.103331e-06	2.092556e-08	4.341443e+01	1.373865e+03
1.480000e-06	6.141753e-06	2.097296e-08	4.368774e+01	1.377009e+03
1.490000e-06	6.178149e-06	2.101561e-08	4.394664e+01	1.379886e+03
1.500000e-06	6.212308e-06	2.105297e-08	4.418962e+01	1.382507e+03
1.510000e-06	6.244126e-06	2.108791e-08	4.441595e+01	1.384889e+03
1.520000e-06	6.273821e-06	2.112048e-08	4.462718e+01	1.387048e+03
1.530000e-06	6.301548e-06	2.114989e-08	4.482440e+01	1.388998e+03
1.540000e-06	6.326877e-06	2.117507e-08	4.500457e+01	1.390749e+03
1.550000e-06	6.349738e-06	2.119711e-08	4.516719e+01	1.392304e+03
1.560000e-06	6.370490e-06	2.121734e-08	4.531480e+01	1.393664e+03
1.570000e-06	6.389057e-06	2.123541e-08	4.544688e+01	1.394827e+03
1.580000e-06	6.405247e-06	2.125041e-08	4.556204e+01	1.395791e+03
1.590000e-06	6.418985e-06	2.126146e-08	4.565976e+01	1.396557e+03
1.600000e-06	6.430330e-06	2.127102e-08	4.574046e+01	1.397129e+03
1.610000e-06	6.439122e-06	2.127911e-08	4.580300e+01	1.397519e+03
1.620000e-06	6.445477e-06	2.128459e-08	4.584820e+01	1.397738e+03
1.630000e-06	6.449748e-06	2.128865e-08	4.587858e+01	1.397800e+03
1.640000e-06	6.451718e-06	2.128984e-08	4.589260e+01	1.397718e+03
1.650000e-06	6.451324e-06	2.128814e-08	4.588979e+01	1.397498e+03
1.660000e-06	6.448828e-06	2.127327e-08	4.587204e+01	1.397142e+03
1.670000e-06	6.444267e-06	2.126385e-08	4.583960e+01	1.396643e+03
1.680000e-06	6.437435e-06	2.125508e-08	4.579100e+01	1.395990e+03
1.690000e-06	6.428464e-06	2.124514e-08	4.572719e+01	1.395169e+03
1.700000e-06	6.417550e-06	2.123665e-08	4.564955e+01	1.394172e+03
1.710000e-06	6.404364e-06	2.122617e-08	4.555576e+01	1.392995e+03
1.720000e-06	6.388921e-06	2.122512e-08	4.544591e+01	1.391646e+03
1.730000e-06	6.371511e-06	2.116333e-08	4.532207e+01	1.390140e+03
1.740000e-06	6.351949e-06	2.105138e-08	4.518292e+01	1.388506e+03
1.750000e-06	6.329415e-06	2.108637e-08	4.502263e+01	1.386772e+03
1.760000e-06	6.303761e-06	2.109353e-08	4.484014e+01	1.384965e+03
1.770000e-06	6.275850e-06	2.103171e-08	4.464161e+01	1.383102e+03
1.780000e-06	6.246075e-06	2.113139e-08	4.442981e+01	1.381182e+03
1.790000e-06	6.214793e-06	2.105180e-08	4.420729e+01	1.379186e+03
1.800000e-06	6.182168e-06	2.086499e-08	4.397522e+01	1.377078e+03
1.810000e-06	6.147464e-06	2.101956e-08	4.372837e+01	1.374808e+03
1.820000e-06	6.110625e-06	2.087575e-08	4.346632e+01	1.372319e+03
1.830000e-06	6.071644e-06	2.082553e-08	4.318904e+01	1.369564e+03
1.840000e-06	6.030208e-06	2.094707e-08	4.289430e+01	1.366508e+03
1.850000e-06	5.986846e-06	2.067820e-08	4.258585e+01	1.363138e+03
1.860000e-06	5.941426e-06	2.076326e-08	4.226277e+01	1.359464e+03
1.870000e-06	5.893633e-06	2.071503e-08	4.192280e+01	1.355519e+03
1.880000e-06	5.843792e-06	2.056294e-08	4.156828e+01	1.351347e+03
1.890000e-06	5.791409e-06	2.061803e-08	4.119566e+01	1.346997e+03
1.900000e-06	5.736527e-06	2.039558e-08	4.080528e+01	1.342508e+03
1.910000e-06	5.679563e-06	2.041004e-08	4.040008e+01	1.337900e+03
1.920000e-06	5.620582e-06	2.037100e-08	3.998053e+01	1.333170e+03
1.930000e-06	5.559683e-06	2.025449e-08	3.954734e+01	1.328292e+03
1.940000e-06	5.496624e-06	2.025920e-08	3.909879e+01	1.323222e+03
1.950000e-06	5.431534e-06	2.003719e-08	3.863579e+01	1.317910e+03
1.960000e-06	5.364497e-06	2.003284e-08	3.815893e+01	1.312307e+03
1.970000e-06	5.295274e-06	1.989466e-08	3.766654e+01	1.306379e+03
1.980000e-06	5.223919e-06	1.979800e-08	3.715898e+01	1.300111e+03
1.990000e-06	5.150606e-06	1.977991e-08	3.663748e+01	1.293509e+03
2.000000e-06	5.075499e-06	1.961603e-08	3.610322e+01	1.286598e+03
2.010000e-06	4.998304e-06	1.955526e-08	3.555412e+01	1.279407e+03
2.020000e-06	4.919038e-06	1.936104e-08	3.499029e+01	1.271965e+03
2.030000e-06	4.838069e-06	1.929461e-08	3.441433e+01	1.264292e+03
2.040000e-06	4.755482e-06	1.920029e-08	3.382687e+01	1.256384e+03
2.050000e-06	4.671345e-06	1.905203e-08	3.322838e+01	1.248223e+03
2.060000e-06	4.585500e-06	1.893303e-08	3.261774e+01	1.239773e+03
2.070000e-06	4.497999e-06	1.876065e-08	3.199533e+01	1.230989e+03
2.080000e-06	4.408875e-06	1.864903e-08	3.136137e+01	1.221828e+03
2.090000e-06	4.318278e-06	1.847911e-08	3.071693e+01	1.212257e+03
2.100000e-06	4.226301e-06	1.836143e-08	3.006268e+01	1.202259e+03
2.110000e-06	4.132806e-06	1.820242e-08	2.939763e+01	1.191832e+03
2.120000e-06	4.037812e-06	1.802653e-08	2.872191e+01	1.180987e+03
2.130000e-06	3.941372e-06	1.785350e-08	2.803591e+01	1.169738e+03
2.140000e-06	3.843617e-06	1.767188e-08	2.734056e+01	1.158096e+03
2.150000e-06	3.744615e-06	1.750667e-08	2.663633e+01	1.146060e+03
2.160000e-06	3.644191e-06	1.730795e-08	2.592199e+01	1.133612e+03
2.170000e-06	3.542324e-06	1.712466e-08	2.519739e+01	1.120715e+03
2.180000e-06	3.439083e-06	1.690659e-08	2.446301e+01	1.107321e+03
2.190000e-06	3.334491e-06	1.669689e-08	2.371902e+01	1.093376e+03
2.200000e-06	3.228787e-06	1.647439e-08	2.296712e+01	1.078827e+03
2.210000e-06	3.122055e-06	1.625267e-08	2.220791e+01	1.063630e+03
2.220000e-06	3.014235e-06	1.601111e-08	2.144096e+01	1.047750e+03
2.230000e-06	2.905304e-06	1.575643e-08	2.066611e+01	1.031166e+03
2.240000e-06	2.795294e-06	1.549901e-08	1.988359e+01	1.013858e+03
2.250000e-06	2.684208e-06	1.522749e-08	1.909341e+01	9.958050e+02
2.260000e-06	2.572037e-06	1.494399e-08	1.829551e+01	9.769773e+02
2.270000e-06	2.458876e-06	1.463787e-08	1.749057e+01	9.573285e+02
2.280000e-06	2.344783e-06	1.432564e-08	1.667900e+01	9.367959e+02
2.290000e-06	2.229734e-06	1.399564e-08	1.586063e+01	9.153014e+02
2.300000e-06	2.113770e-06	1.365767e-08	1.503574e+01	8.927566e+02
2.310000e-06	1.996935e-06	1.329879e-08	1.420467e+01	8.690686e+02
2.320000e-06	1.879365e-06	1.292232e-08	1.336837e+01	8.441448e+02
2.330000e-06	1.761164e-06	1.252168e-08	1.252757e+01	8.178953e+02
2.340000e-06	1.642198e-06	1.209756e-08	1.168134e+01	7.902320e+02
2.350000e-06	1.522571e-06	1.165412e-08	1.083041e+01	7.610660e+02
2.360000e-06	1.402460e-06	1.119105e-08	9.976027e+00	7.303041e+02
2.370000e-06	1.281978e-06	1.070306e-08	9.119016e+00	6.978497e+02
2.380000e-06	1.161177e-06	1.017960e-08	8.259725e+00	6.636068e+02
2.390000e-06	1.039989e-06	9.624294e-09	7.397686e+00	6.274923e+02
2.400000e-06	9.184284e-07	9.039513e-09	6.532999e+00	5.894533e+02
2.410000e-06	7.965671e-07	8.429875e-09	5.666170e+00	5.494867e+02
2.420000e-06	6.744967e-07	7.793806e-09	4.797855e+00	5.076586e+02
2.430000e-06	5.522519e-07	7.133275e-09	3.928299e+00	4.641149e+02
2.440000e-06	4.298704e-07	6.448141e-09	3.057770e+00	4.190807e+02
2.450000e-06	3.074231e-07	5.738791e-09	2.186773e+00	3.728449e+02
2.460000e-06	1.848619e-07	5.014211e-09	1.314966e+00	3.257302e+02
2.470000e-06	6.212054e-08	4.282855e-09	4.418781e-01	2.780514e+02
2.480000e-06	-6.070733e-08	3.552942e-09	-4.318256e-01	2.300709e+02
2.490000e-06	-1.834360e-07	2.821811e-09	-1.304824e+00	1.819578e+02
2.500000e-06	-3.060707e-07	2.086246e-09	-2.177153e+00	1.337612e+02
2.510000e-06	-4.286615e-07	1.347138e-09	-3.049171e+00	8.540361e+01
2.520000e-06	-5.511723e-07	5.989841e-10	-3.920619e+00	3.669837e+01
2.530000e-06	-6.735289e-07	-1.567016e-10	-4.790971e+00	-1.261044e+01
2.540000e-06	-7.957001e-07	-9.223199e-10	-5.660003e+00	-6.279120e+01
2.550000e-06	-9.176141e-07	-1.703268e-09	-6.527206e+00	-1.140609e+02
2.560000e-06	-1.039165e-06	-2.502005e-09	-7.391825e+00	-1.665254e+02
2.570000e-06	-1.160333e-06	-3.319764e-09	-8.253723e+00	-2.201356e+02
2.580000e-06	-1.281089e-06	-4.152069e-09	-9.112688e+00	-2.746663e+02
2.590000e-06	-1.401413e-06	-4.994675e-09	-9.968579e+00	-3.297239e+02
2.600000e-06	-1.521286e-06	-5.840796e-09	-1.082127e+01	-3.847803e+02
2.610000e-06	-1.640550e-06	-6.678744e-09	-1.166962e+01	-4.392272e+02
2.620000e-06	-1.759095e-06	-7.495631e-09	-1.251286e+01	-4.924417e+02
2.630000e-06	-1.876911e-06	-8.282454e-09	-1.335091e+01	-5.438517e+02
2.640000e-06	-1.993892e-06	-9.033471e-09	-1.418303e+01	-5.929906e+02
2.650000e-06	-2.109968e-06	-9.744647e-09	-1.500870e+01	-6.395329e+02
2.660000e-06	-2.225077e-06	-1.041441e-08	-1.582750e+01	-6.833073e+02
2.670000e-06	-2.339244e-06	-1.104234e-08	-1.663960e+01	-7.242880e+02
2.680000e-06	-2.452479e-06	-1.163040e-08	-1.744506e+01	-7.625677e+02
2.690000e-06	-2.564583e-06	-1.218056e-08	-1.824249e+01	-7.983202e+02
2.700000e-06	-2.675629e-06	-1.269462e-08	-1.903238e+01	-8.317607e+02
2.710000e-06	-2.785607e-06	-1.317689e-08	-1.981468e+01	-8.631102e+02
2.720000e-06	-2.894556e-06	-1.362983e-08	-2.058966e+01	-8.925709e+02
2.730000e-06	-3.002687e-06	-1.405288e-08	-2.135882e+01	-9.203119e+02
2.740000e-06	-3.109881e-06	-1.445167e-08	-2.212132e+01	-9.464682e+02
2.750000e-06	-3.216085e-06	-1.482982e-08	-2.287678e+01	-9.711468e+02
2.760000e-06	-3.321207e-06	-1.518389e-08	-2.362453e+01	-9.944370e+02
2.770000e-06	-3.425072e-06	-1.551739e-08	-2.436335e+01	-1.016422e+03
2.780000e-06	-3.527643e-06	-1.583552e-08	-2.509296e+01	-1.037186e+03
2.790000e-06	-3.628850e-06	-1.613748e-08	-2.581287e+01	-1.056818e+03
2.800000e-06	-3.728701e-06	-1.642344e-08	-2.652313e+01	-1.075407e+03
2.810000e-06	-3.827296e-06	-1.669380e-08	-2.722446e+01	-1.093043e+03
2.820000e-06	-3.924605e-06	-1.694972e-08	-2.791664e+01	-1.109804e+03
2.830000e-06	-4.020608e-06	-1.719367e-08	-2.859953e+01	-1.125758e+03
2.840000e-06	-4.115327e-06	-1.742683e-08	-2.927329e+01	-1.140957e+03
2.850000e-06	-4.208475e-06	-1.764984e-08	-2.993588e+01	-1.155440e+03
2.860000e-06	-4.300067e-06	-1.786360e-08	-3.058740e+01	-1.169237e+03
2.870000e-06	-4.390205e-06	-1.806762e-08	-3.122857e+01	-1.182374e+03
2.880000e-06	-4.478626e-06	-1.825975e-08	-3.185753e+01	-1.194876e+03
2.890000e-06	-4.565426e-06	-1.843908e-08	-3.247496e+01	-1.206774e+03
2.900000e-06	-4.650552e-06	-1.860851e-08	-3.308048e+01	-1.218101e+03
2.910000e-06	-4.733978e-06	-1.877289e-08	-3.367391e+01	-1.228893e+03
2.920000e-06	-4.815831e-06	-1.893056e-08	-3.425614e+01	-1.239182e+03
2.930000e-06	-4.895967e-06	-1.908083e-08	-3.482617e+01	-1.248998e+03
2.940000e-06	-4.974187e-06	-1.922481e-08	-3.538257e+01	-1.258360e+03
