# Temperatura_=_51.34
# Concentracion g/m^3_=_28200.0
# C_Vs_to_Am_M_A/Vsm_=_65563218390.804596
# pendiente_HvsI_1/m_=_3716.3
# ordenada_HvsI_A/m_=_1297.0
# frecuencia_Hz_=_302097.1085127019

Tiempo_(s)	Campo_(V.s)	Magnetizacion_(V.s)	Campo_(kA/m)	Magnetizacion_(A/m)
0.000000e+00	-6.352083e-06	-2.009052e-08	-4.557529e+01	-1.313489e+03
1.000000e-08	-6.348331e-06	-2.008588e-08	-4.554837e+01	-1.313075e+03
2.000000e-08	-6.342534e-06	-2.007548e-08	-4.550678e+01	-1.312536e+03
3.000000e-08	-6.334799e-06	-2.006512e-08	-4.545128e+01	-1.311869e+03
4.000000e-08	-6.324892e-06	-2.005179e-08	-4.538020e+01	-1.311062e+03
5.000000e-08	-6.312644e-06	-2.003487e-08	-4.529232e+01	-1.310103e+03
6.000000e-08	-6.298074e-06	-2.001085e-08	-4.518779e+01	-1.308979e+03
7.000000e-08	-6.281229e-06	-1.997658e-08	-4.506692e+01	-1.307688e+03
8.000000e-08	-6.262344e-06	-1.998264e-08	-4.493142e+01	-1.306238e+03
9.000000e-08	-6.241301e-06	-2.004738e-08	-4.478044e+01	-1.304648e+03
1.000000e-07	-6.217793e-06	-1.996871e-08	-4.461178e+01	-1.302950e+03
1.100000e-07	-6.191671e-06	-1.988812e-08	-4.442435e+01	-1.301179e+03
1.200000e-07	-6.163267e-06	-1.988909e-08	-4.422057e+01	-1.299371e+03
1.300000e-07	-6.133096e-06	-1.980361e-08	-4.400409e+01	-1.297548e+03
1.400000e-07	-6.101369e-06	-1.968893e-08	-4.377645e+01	-1.295715e+03
1.500000e-07	-6.067849e-06	-1.988342e-08	-4.353595e+01	-1.293855e+03
1.600000e-07	-6.032297e-06	-1.979794e-08	-4.328087e+01	-1.291927e+03
1.700000e-07	-5.994863e-06	-1.962775e-08	-4.301229e+01	-1.289875e+03
1.800000e-07	-5.955269e-06	-1.979925e-08	-4.272821e+01	-1.287635e+03
1.900000e-07	-5.913265e-06	-1.957209e-08	-4.242683e+01	-1.285146e+03
2.000000e-07	-5.869155e-06	-1.953050e-08	-4.211035e+01	-1.282365e+03
2.100000e-07	-5.822928e-06	-1.957729e-08	-4.177868e+01	-1.279268e+03
2.200000e-07	-5.774403e-06	-1.936977e-08	-4.143052e+01	-1.275856e+03
2.300000e-07	-5.723396e-06	-1.937290e-08	-4.106455e+01	-1.272155e+03
2.400000e-07	-5.669849e-06	-1.934317e-08	-4.068036e+01	-1.268203e+03
2.500000e-07	-5.614248e-06	-1.926106e-08	-4.028143e+01	-1.264042e+03
2.600000e-07	-5.556538e-06	-1.923077e-08	-3.986737e+01	-1.259707e+03
2.700000e-07	-5.496647e-06	-1.913703e-08	-3.943766e+01	-1.255216e+03
2.800000e-07	-5.434813e-06	-1.906021e-08	-3.899401e+01	-1.250566e+03
2.900000e-07	-5.371034e-06	-1.894230e-08	-3.853640e+01	-1.245735e+03
3.000000e-07	-5.305224e-06	-1.892045e-08	-3.806422e+01	-1.240687e+03
3.100000e-07	-5.237302e-06	-1.885812e-08	-3.757690e+01	-1.235382e+03
3.200000e-07	-5.167402e-06	-1.874459e-08	-3.707537e+01	-1.229786e+03
3.300000e-07	-5.095798e-06	-1.865822e-08	-3.656163e+01	-1.223880e+03
3.400000e-07	-5.022356e-06	-1.851465e-08	-3.603469e+01	-1.217660e+03
3.500000e-07	-4.946752e-06	-1.845030e-08	-3.549224e+01	-1.211141e+03
3.600000e-07	-4.869078e-06	-1.835137e-08	-3.493494e+01	-1.204347e+03
3.700000e-07	-4.789437e-06	-1.825355e-08	-3.436353e+01	-1.197303e+03
3.800000e-07	-4.707917e-06	-1.815727e-08	-3.377863e+01	-1.190030e+03
3.900000e-07	-4.624876e-06	-1.800542e-08	-3.318282e+01	-1.182529e+03
4.000000e-07	-4.540478e-06	-1.787183e-08	-3.257728e+01	-1.174786e+03
4.100000e-07	-4.454602e-06	-1.775955e-08	-3.196114e+01	-1.166771e+03
4.200000e-07	-4.367388e-06	-1.765989e-08	-3.133539e+01	-1.158443e+03
4.300000e-07	-4.278759e-06	-1.751997e-08	-3.069949e+01	-1.149759e+03
4.400000e-07	-4.188371e-06	-1.737197e-08	-3.005097e+01	-1.140681e+03
4.500000e-07	-4.096299e-06	-1.722677e-08	-2.939036e+01	-1.131185e+03
4.600000e-07	-4.002807e-06	-1.705956e-08	-2.871957e+01	-1.121261e+03
4.700000e-07	-3.908023e-06	-1.691178e-08	-2.803951e+01	-1.110913e+03
4.800000e-07	-3.811987e-06	-1.675882e-08	-2.735046e+01	-1.100152e+03
4.900000e-07	-3.714477e-06	-1.658962e-08	-2.665084e+01	-1.088985e+03
5.000000e-07	-3.615413e-06	-1.640035e-08	-2.594008e+01	-1.077413e+03
5.100000e-07	-3.515017e-06	-1.620928e-08	-2.521975e+01	-1.065425e+03
5.200000e-07	-3.413361e-06	-1.601877e-08	-2.449038e+01	-1.052989e+03
5.300000e-07	-3.310564e-06	-1.581810e-08	-2.375283e+01	-1.040065e+03
5.400000e-07	-3.206677e-06	-1.561760e-08	-2.300745e+01	-1.026602e+03
5.500000e-07	-3.101518e-06	-1.540457e-08	-2.225295e+01	-1.012549e+03
5.600000e-07	-2.995021e-06	-1.517986e-08	-2.148885e+01	-9.978585e+02
5.700000e-07	-2.887283e-06	-1.493896e-08	-2.071584e+01	-9.824929e+02
5.800000e-07	-2.778467e-06	-1.469101e-08	-1.993510e+01	-9.664209e+02
5.900000e-07	-2.668721e-06	-1.443304e-08	-1.914769e+01	-9.496161e+02
6.000000e-07	-2.558138e-06	-1.416019e-08	-1.835427e+01	-9.320514e+02
6.100000e-07	-2.446623e-06	-1.387774e-08	-1.755417e+01	-9.136928e+02
6.200000e-07	-2.334130e-06	-1.358493e-08	-1.674705e+01	-8.944947e+02
6.300000e-07	-2.220706e-06	-1.328122e-08	-1.593325e+01	-8.743981e+02
6.400000e-07	-2.106223e-06	-1.295974e-08	-1.511185e+01	-8.533313e+02
6.500000e-07	-1.990754e-06	-1.262133e-08	-1.428338e+01	-8.312136e+02
6.600000e-07	-1.874524e-06	-1.225951e-08	-1.344944e+01	-8.079590e+02
6.700000e-07	-1.757588e-06	-1.188141e-08	-1.261044e+01	-7.834804e+02
6.800000e-07	-1.640016e-06	-1.148967e-08	-1.176688e+01	-7.576915e+02
6.900000e-07	-1.521932e-06	-1.107560e-08	-1.091965e+01	-7.305073e+02
7.000000e-07	-1.403409e-06	-1.063897e-08	-1.006926e+01	-7.018434e+02
7.100000e-07	-1.284510e-06	-1.017368e-08	-9.216174e+00	-6.716156e+02
7.200000e-07	-1.165231e-06	-9.684200e-09	-8.360368e+00	-6.397429e+02
7.300000e-07	-1.045568e-06	-9.167858e-09	-7.501798e+00	-6.061547e+02
7.400000e-07	-9.255342e-07	-8.627224e-09	-6.640576e+00	-5.708024e+02
7.500000e-07	-8.051570e-07	-8.065420e-09	-5.776887e+00	-5.336756e+02
7.600000e-07	-6.844395e-07	-7.476049e-09	-4.910756e+00	-4.948182e+02
7.700000e-07	-5.634837e-07	-6.855083e-09	-4.042915e+00	-4.543416e+02
7.800000e-07	-4.423667e-07	-6.212239e-09	-3.173918e+00	-4.124299e+02
7.900000e-07	-3.210564e-07	-5.556175e-09	-2.303534e+00	-3.693328e+02
8.000000e-07	-1.996167e-07	-4.887699e-09	-1.432222e+00	-3.253465e+02
8.100000e-07	-7.804579e-08	-4.213542e-09	-5.599674e-01	-2.807813e+02
8.200000e-07	4.361990e-08	-3.535906e-09	3.129666e-01	-2.359228e+02
8.300000e-07	1.652752e-07	-2.856489e-09	1.185826e+00	-1.909906e+02
8.400000e-07	2.868736e-07	-2.173219e-09	2.058277e+00	-1.461054e+02
8.500000e-07	4.083818e-07	-1.491784e-09	2.930081e+00	-1.012695e+02
8.600000e-07	5.297602e-07	-8.099446e-10	3.800954e+00	-5.636760e+01
8.700000e-07	6.510046e-07	-1.222041e-10	4.670865e+00	-1.118852e+01
8.800000e-07	7.721043e-07	5.748391e-10	5.539739e+00	3.453292e+01
8.900000e-07	8.929675e-07	1.284505e-09	6.406915e+00	8.106164e+01
9.000000e-07	1.013503e-06	2.006013e-09	7.271742e+00	1.286039e+02
9.100000e-07	1.133711e-06	2.743415e-09	8.134215e+00	1.772554e+02
9.200000e-07	1.253464e-06	3.496217e-09	8.993425e+00	2.269649e+02
9.300000e-07	1.372657e-06	4.263593e-09	9.848620e+00	2.775203e+02
9.400000e-07	1.491397e-06	5.042629e-09	1.070056e+01	3.285594e+02
9.500000e-07	1.609692e-06	5.825601e-09	1.154931e+01	3.796032e+02
9.600000e-07	1.727414e-06	6.597124e-09	1.239395e+01	4.301064e+02
9.700000e-07	1.844492e-06	7.346320e-09	1.323397e+01	4.795152e+02
9.800000e-07	1.960919e-06	8.070181e-09	1.406931e+01	5.273236e+02
9.900000e-07	2.076533e-06	8.762159e-09	1.489883e+01	5.731193e+02
1.000000e-06	2.191163e-06	9.419633e-09	1.572128e+01	6.166122e+02
1.010000e-06	2.304788e-06	1.003950e-08	1.653652e+01	6.576444e+02
1.020000e-06	2.417437e-06	1.062376e-08	1.734477e+01	6.961814e+02
1.030000e-06	2.529118e-06	1.117171e-08	1.814606e+01	7.322893e+02
1.040000e-06	2.639882e-06	1.168606e-08	1.894078e+01	7.661038e+02
1.050000e-06	2.749794e-06	1.216615e-08	1.972938e+01	7.977976e+02
1.060000e-06	2.858842e-06	1.261767e-08	2.051179e+01	8.275524e+02
1.070000e-06	2.967067e-06	1.304267e-08	2.128829e+01	8.555378e+02
1.080000e-06	3.074218e-06	1.344331e-08	2.205708e+01	8.819010e+02
1.090000e-06	3.180090e-06	1.382230e-08	2.281669e+01	9.067639e+02
1.100000e-06	3.284754e-06	1.418066e-08	2.356764e+01	9.302272e+02
1.110000e-06	3.388154e-06	1.451863e-08	2.430952e+01	9.523773e+02
1.120000e-06	3.490361e-06	1.483572e-08	2.504285e+01	9.732942e+02
1.130000e-06	3.591449e-06	1.513468e-08	2.576813e+01	9.930562e+02
1.140000e-06	3.691399e-06	1.541685e-08	2.648526e+01	1.011743e+03
1.150000e-06	3.790047e-06	1.568589e-08	2.719305e+01	1.029433e+03
1.160000e-06	3.887154e-06	1.593912e-08	2.788977e+01	1.046203e+03
1.170000e-06	3.982770e-06	1.617999e-08	2.857581e+01	1.062124e+03
1.180000e-06	4.077047e-06	1.640901e-08	2.925223e+01	1.077259e+03
1.190000e-06	4.170015e-06	1.662554e-08	2.991927e+01	1.091659e+03
1.200000e-06	4.261655e-06	1.682980e-08	3.057677e+01	1.105368e+03
1.210000e-06	4.351754e-06	1.702493e-08	3.122322e+01	1.118420e+03
1.220000e-06	4.440166e-06	1.721161e-08	3.185756e+01	1.130846e+03
1.230000e-06	4.526957e-06	1.738962e-08	3.248027e+01	1.142673e+03
1.240000e-06	4.612170e-06	1.755901e-08	3.309166e+01	1.153927e+03
1.250000e-06	4.695874e-06	1.772365e-08	3.369223e+01	1.164631e+03
1.260000e-06	4.777932e-06	1.788090e-08	3.428098e+01	1.174810e+03
1.270000e-06	4.858170e-06	1.802864e-08	3.485668e+01	1.184486e+03
1.280000e-06	4.936613e-06	1.816782e-08	3.541950e+01	1.193675e+03
1.290000e-06	5.013261e-06	1.829992e-08	3.596943e+01	1.202396e+03
1.300000e-06	5.087938e-06	1.842560e-08	3.650523e+01	1.210662e+03
1.310000e-06	5.160540e-06	1.854496e-08	3.702614e+01	1.218487e+03
1.320000e-06	5.231224e-06	1.865820e-08	3.753329e+01	1.225886e+03
1.330000e-06	5.300125e-06	1.876599e-08	3.802764e+01	1.232876e+03
1.340000e-06	5.367190e-06	1.886733e-08	3.850882e+01	1.239478e+03
1.350000e-06	5.432226e-06	1.895996e-08	3.897545e+01	1.245718e+03
1.360000e-06	5.495296e-06	1.904768e-08	3.942797e+01	1.251621e+03
1.370000e-06	5.556555e-06	1.913295e-08	3.986749e+01	1.257217e+03
1.380000e-06	5.615975e-06	1.921379e-08	4.029382e+01	1.262534e+03
1.390000e-06	5.673351e-06	1.928957e-08	4.070548e+01	1.267594e+03
1.400000e-06	5.728579e-06	1.936209e-08	4.110174e+01	1.272417e+03
1.410000e-06	5.781729e-06	1.943252e-08	4.148308e+01	1.277015e+03
1.420000e-06	5.832555e-06	1.950076e-08	4.184775e+01	1.281394e+03
1.430000e-06	5.880973e-06	1.956351e-08	4.219515e+01	1.285555e+03
1.440000e-06	5.927266e-06	1.962159e-08	4.252729e+01	1.289493e+03
1.450000e-06	5.971635e-06	1.967630e-08	4.284563e+01	1.293198e+03
1.460000e-06	6.013896e-06	1.972850e-08	4.314885e+01	1.296663e+03
1.470000e-06	6.053895e-06	1.977684e-08	4.343583e+01	1.299879e+03
1.480000e-06	6.091796e-06	1.982091e-08	4.370777e+01	1.302840e+03
1.490000e-06	6.127742e-06	1.986213e-08	4.396568e+01	1.305546e+03
1.500000e-06	6.161474e-06	1.989873e-08	4.420770e+01	1.308001e+03
1.510000e-06	6.192851e-06	1.993121e-08	4.443282e+01	1.310214e+03
1.520000e-06	6.222190e-06	1.996100e-08	4.464333e+01	1.312199e+03
1.530000e-06	6.249497e-06	1.998817e-08	4.483925e+01	1.313971e+03
1.540000e-06	6.274392e-06	2.001117e-08	4.501787e+01	1.315547e+03
1.550000e-06	6.296875e-06	2.002906e-08	4.517918e+01	1.316941e+03
1.560000e-06	6.317306e-06	2.004587e-08	4.532577e+01	1.318164e+03
1.570000e-06	6.335581e-06	2.006254e-08	4.545689e+01	1.319221e+03
1.580000e-06	6.351497e-06	2.007537e-08	4.557109e+01	1.320113e+03
1.590000e-06	6.365028e-06	2.008515e-08	4.566817e+01	1.320840e+03
1.600000e-06	6.376024e-06	2.009349e-08	4.574706e+01	1.321399e+03
1.610000e-06	6.384427e-06	2.010020e-08	4.580735e+01	1.321789e+03
1.620000e-06	6.390491e-06	2.010579e-08	4.585086e+01	1.322013e+03
1.630000e-06	6.394521e-06	2.010978e-08	4.587978e+01	1.322076e+03
1.640000e-06	6.396308e-06	2.011190e-08	4.589260e+01	1.321989e+03
1.650000e-06	6.395753e-06	2.011203e-08	4.588861e+01	1.321764e+03
1.660000e-06	6.393104e-06	2.009828e-08	4.586961e+01	1.321410e+03
1.670000e-06	6.388393e-06	2.009188e-08	4.583581e+01	1.320932e+03
1.680000e-06	6.381471e-06	2.008273e-08	4.578614e+01	1.320328e+03
1.690000e-06	6.372458e-06	2.007055e-08	4.572148e+01	1.319590e+03
1.700000e-06	6.361510e-06	2.006325e-08	4.564293e+01	1.318707e+03
1.710000e-06	6.348299e-06	2.005818e-08	4.554814e+01	1.317664e+03
1.720000e-06	6.332814e-06	2.006843e-08	4.543704e+01	1.316455e+03
1.730000e-06	6.315375e-06	1.999890e-08	4.531192e+01	1.315080e+03
1.740000e-06	6.295798e-06	1.988118e-08	4.517145e+01	1.313555e+03
1.750000e-06	6.273196e-06	1.992872e-08	4.500929e+01	1.311904e+03
1.760000e-06	6.247448e-06	1.993354e-08	4.482455e+01	1.310163e+03
1.770000e-06	6.219606e-06	1.987689e-08	4.462479e+01	1.308367e+03
1.780000e-06	6.190065e-06	2.001397e-08	4.441283e+01	1.306548e+03
1.790000e-06	6.158945e-06	1.988745e-08	4.418955e+01	1.304719e+03
1.800000e-06	6.126365e-06	1.970947e-08	4.395579e+01	1.302874e+03
1.810000e-06	6.091697e-06	1.986276e-08	4.370706e+01	1.300983e+03
1.820000e-06	6.055033e-06	1.964040e-08	4.344400e+01	1.298999e+03
1.830000e-06	6.016258e-06	1.972428e-08	4.316579e+01	1.296859e+03
1.840000e-06	5.975008e-06	1.990177e-08	4.286983e+01	1.294499e+03
1.850000e-06	5.931839e-06	1.957979e-08	4.256010e+01	1.291867e+03
1.860000e-06	5.886648e-06	1.971906e-08	4.223586e+01	1.288927e+03
1.870000e-06	5.839235e-06	1.964783e-08	4.189568e+01	1.285668e+03
1.880000e-06	5.789730e-06	1.950555e-08	4.154049e+01	1.282106e+03
1.890000e-06	5.737694e-06	1.959162e-08	4.116714e+01	1.278272e+03
1.900000e-06	5.683161e-06	1.933549e-08	4.077587e+01	1.274208e+03
1.910000e-06	5.626487e-06	1.938496e-08	4.036924e+01	1.269955e+03
1.920000e-06	5.567784e-06	1.935583e-08	3.994806e+01	1.265539e+03
1.930000e-06	5.507234e-06	1.924164e-08	3.951362e+01	1.260967e+03
1.940000e-06	5.444559e-06	1.924735e-08	3.906393e+01	1.256229e+03
1.950000e-06	5.379787e-06	1.902602e-08	3.859920e+01	1.251292e+03
1.960000e-06	5.313088e-06	1.906048e-08	3.812065e+01	1.246118e+03
1.970000e-06	5.244439e-06	1.890126e-08	3.762810e+01	1.240669e+03
1.980000e-06	5.173718e-06	1.881407e-08	3.712069e+01	1.234917e+03
1.990000e-06	5.100917e-06	1.881663e-08	3.659835e+01	1.228851e+03
2.000000e-06	5.026361e-06	1.864321e-08	3.606342e+01	1.222477e+03
2.010000e-06	4.949755e-06	1.859803e-08	3.551378e+01	1.215815e+03
2.020000e-06	4.871042e-06	1.839621e-08	3.494903e+01	1.208891e+03
2.030000e-06	4.790565e-06	1.835346e-08	3.437162e+01	1.201729e+03
2.040000e-06	4.708458e-06	1.827922e-08	3.378251e+01	1.194340e+03
2.050000e-06	4.624880e-06	1.813278e-08	3.318286e+01	1.186719e+03
2.060000e-06	4.539688e-06	1.802282e-08	3.257162e+01	1.178843e+03
2.070000e-06	4.452769e-06	1.784927e-08	3.194798e+01	1.170675e+03
2.080000e-06	4.364261e-06	1.775441e-08	3.131295e+01	1.162172e+03
2.090000e-06	4.274279e-06	1.759123e-08	3.066734e+01	1.153292e+03
2.100000e-06	4.182979e-06	1.748939e-08	3.001228e+01	1.144005e+03
2.110000e-06	4.090309e-06	1.734500e-08	2.934739e+01	1.134293e+03
2.120000e-06	3.996105e-06	1.717728e-08	2.867149e+01	1.124155e+03
2.130000e-06	3.900363e-06	1.701455e-08	2.798455e+01	1.113596e+03
2.140000e-06	3.803241e-06	1.683542e-08	2.728771e+01	1.102629e+03
2.150000e-06	3.704845e-06	1.668461e-08	2.658173e+01	1.091259e+03
2.160000e-06	3.605248e-06	1.649815e-08	2.586714e+01	1.079479e+03
2.170000e-06	3.504256e-06	1.632850e-08	2.514254e+01	1.067269e+03
2.180000e-06	3.401732e-06	1.611958e-08	2.440694e+01	1.054593e+03
2.190000e-06	3.297861e-06	1.592114e-08	2.366168e+01	1.041404e+03
2.200000e-06	3.192863e-06	1.571033e-08	2.290834e+01	1.027650e+03
2.210000e-06	3.086823e-06	1.550050e-08	2.214751e+01	1.013281e+03
2.220000e-06	2.979697e-06	1.527389e-08	2.137890e+01	9.982558e+02
2.230000e-06	2.871605e-06	1.503157e-08	2.060335e+01	9.825383e+02
2.240000e-06	2.762576e-06	1.478863e-08	1.982109e+01	9.661009e+02
2.250000e-06	2.652537e-06	1.452936e-08	1.903157e+01	9.489178e+02
2.260000e-06	2.541341e-06	1.425900e-08	1.823376e+01	9.309589e+02
2.270000e-06	2.429156e-06	1.396574e-08	1.742885e+01	9.121849e+02
2.280000e-06	2.316055e-06	1.366927e-08	1.661736e+01	8.925436e+02
2.290000e-06	2.202037e-06	1.335328e-08	1.579930e+01	8.719694e+02
2.300000e-06	2.087257e-06	1.302930e-08	1.497577e+01	8.503856e+02
2.310000e-06	1.971653e-06	1.268696e-08	1.414633e+01	8.277082e+02
2.320000e-06	1.855238e-06	1.232788e-08	1.331107e+01	8.038503e+02
2.330000e-06	1.738018e-06	1.194329e-08	1.247003e+01	7.787251e+02
2.340000e-06	1.620058e-06	1.153493e-08	1.162368e+01	7.522470e+02
2.350000e-06	1.501462e-06	1.110964e-08	1.077278e+01	7.243314e+02
2.360000e-06	1.382327e-06	1.066686e-08	9.917996e+00	6.948938e+02
2.370000e-06	1.262730e-06	1.020321e-08	9.059907e+00	6.638512e+02
2.380000e-06	1.142706e-06	9.705583e-09	8.198755e+00	6.311264e+02
2.390000e-06	1.022349e-06	9.177701e-09	7.335211e+00	5.966581e+02
2.400000e-06	9.017318e-07	8.620302e-09	6.469797e+00	5.604147e+02
2.410000e-06	7.809052e-07	8.041436e-09	5.602883e+00	5.224109e+02
2.420000e-06	6.598486e-07	7.437093e-09	4.734319e+00	4.827234e+02
2.430000e-06	5.385623e-07	6.809238e-09	3.864108e+00	4.414997e+02
2.440000e-06	4.170783e-07	6.160540e-09	2.992478e+00	3.989584e+02
2.450000e-06	2.954667e-07	5.490903e-09	2.119931e+00	3.553758e+02
2.460000e-06	1.737952e-07	4.809007e-09	1.246956e+00	3.110597e+02
2.470000e-06	5.202932e-08	4.122588e-09	3.733029e-01	2.663132e+02
2.480000e-06	-6.982636e-08	3.440766e-09	-5.009942e-01	2.213938e+02
2.490000e-06	-1.916740e-07	2.756193e-09	-1.375234e+00	1.764750e+02
2.500000e-06	-3.134519e-07	2.065895e-09	-2.248973e+00	1.316197e+02
2.510000e-06	-4.351077e-07	1.375598e-09	-3.121836e+00	8.676987e+01
2.520000e-06	-5.566576e-07	6.824540e-10	-3.993939e+00	4.175816e+01
2.530000e-06	-6.780614e-07	-1.542439e-11	-4.864994e+00	-3.659722e+00
2.540000e-06	-7.991633e-07	-7.229009e-10	-5.733883e+00	-4.975614e+01
2.550000e-06	-9.199541e-07	-1.441058e-09	-6.600539e+00	-9.677382e+01
2.560000e-06	-1.040474e-06	-2.172965e-09	-7.465253e+00	-1.448695e+02
2.570000e-06	-1.160716e-06	-2.922599e-09	-8.327972e+00	-1.940685e+02
2.580000e-06	-1.280621e-06	-3.686889e-09	-9.188277e+00	-2.442395e+02
2.590000e-06	-1.400056e-06	-4.462550e-09	-1.004520e+01	-2.950925e+02
2.600000e-06	-1.518864e-06	-5.246453e-09	-1.089764e+01	-3.462014e+02
2.610000e-06	-1.636947e-06	-6.029339e-09	-1.174486e+01	-3.970471e+02
2.620000e-06	-1.754334e-06	-6.796643e-09	-1.258709e+01	-4.470727e+02
2.630000e-06	-1.870915e-06	-7.540422e-09	-1.342355e+01	-4.957417e+02
2.640000e-06	-1.986579e-06	-8.256826e-09	-1.425342e+01	-5.425903e+02
2.650000e-06	-2.101474e-06	-8.942016e-09	-1.507778e+01	-5.872647e+02
2.660000e-06	-2.215489e-06	-9.590997e-09	-1.589582e+01	-6.295410e+02
2.670000e-06	-2.328414e-06	-1.020240e-08	-1.670604e+01	-6.693251e+02
2.680000e-06	-2.440320e-06	-1.077567e-08	-1.750895e+01	-7.066363e+02
2.690000e-06	-2.551180e-06	-1.131039e-08	-1.830435e+01	-7.415796e+02
2.700000e-06	-2.661008e-06	-1.181045e-08	-1.909236e+01	-7.743132e+02
2.710000e-06	-2.769977e-06	-1.228233e-08	-1.987419e+01	-8.050173e+02
2.720000e-06	-2.878119e-06	-1.272726e-08	-2.065010e+01	-8.338695e+02
2.730000e-06	-2.985358e-06	-1.314419e-08	-2.141952e+01	-8.610292e+02
2.740000e-06	-3.091620e-06	-1.353617e-08	-2.218193e+01	-8.866307e+02
2.750000e-06	-3.196831e-06	-1.390439e-08	-2.293681e+01	-9.107843e+02
2.760000e-06	-3.300961e-06	-1.425034e-08	-2.368393e+01	-9.335829e+02
2.770000e-06	-3.403846e-06	-1.457789e-08	-2.442211e+01	-9.551088e+02
2.780000e-06	-3.505368e-06	-1.488956e-08	-2.515052e+01	-9.754405e+02
2.790000e-06	-3.605640e-06	-1.518467e-08	-2.586995e+01	-9.946568e+02
2.800000e-06	-3.704662e-06	-1.546346e-08	-2.658042e+01	-1.012837e+03
2.810000e-06	-3.802395e-06	-1.572750e-08	-2.728164e+01	-1.030060e+03
2.820000e-06	-3.898927e-06	-1.597823e-08	-2.797424e+01	-1.046400e+03
2.830000e-06	-3.994139e-06	-1.621717e-08	-2.865738e+01	-1.061923e+03
2.840000e-06	-4.087826e-06	-1.644506e-08	-2.932957e+01	-1.076687e+03
2.850000e-06	-4.180019e-06	-1.666298e-08	-2.999104e+01	-1.090739e+03
2.860000e-06	-4.270742e-06	-1.687226e-08	-3.064196e+01	-1.104117e+03
2.870000e-06	-4.359953e-06	-1.707075e-08	-3.128204e+01	-1.116855e+03
2.880000e-06	-4.447581e-06	-1.725682e-08	-3.191076e+01	-1.128980e+03
2.890000e-06	-4.533519e-06	-1.743186e-08	-3.252735e+01	-1.140520e+03
2.900000e-06	-4.617781e-06	-1.759744e-08	-3.313192e+01	-1.151498e+03
2.910000e-06	-4.700498e-06	-1.775592e-08	-3.372540e+01	-1.161939e+03
2.920000e-06	-4.781578e-06	-1.790699e-08	-3.430714e+01	-1.171865e+03
2.930000e-06	-4.860893e-06	-1.805140e-08	-3.487621e+01	-1.181298e+03
2.940000e-06	-4.938193e-06	-1.818888e-08	-3.543083e+01	-1.190254e+03
