# Temperatura_=_90.26
# Concentracion g/m^3_=_28200.0
# C_Vs_to_Am_M_A/Vsm_=_65563218390.804596
# pendiente_HvsI_1/m_=_3716.3
# ordenada_HvsI_A/m_=_1297.0
# frecuencia_Hz_=_302092.8383683913

Tiempo_(s)	Campo_(V.s)	Magnetizacion_(V.s)	Campo_(kA/m)	Magnetizacion_(A/m)
0.000000e+00	-6.385525e-06	-2.710081e-08	-4.557724e+01	-1.773608e+03
1.000000e-08	-6.381868e-06	-2.709125e-08	-4.555114e+01	-1.773019e+03
2.000000e-08	-6.376183e-06	-2.707790e-08	-4.551056e+01	-1.772241e+03
3.000000e-08	-6.368566e-06	-2.706205e-08	-4.545619e+01	-1.771270e+03
4.000000e-08	-6.358758e-06	-2.704232e-08	-4.538619e+01	-1.770099e+03
5.000000e-08	-6.346513e-06	-2.702051e-08	-4.529878e+01	-1.768713e+03
6.000000e-08	-6.331914e-06	-2.699403e-08	-4.519458e+01	-1.767103e+03
7.000000e-08	-6.315018e-06	-2.695869e-08	-4.507399e+01	-1.765263e+03
8.000000e-08	-6.296098e-06	-2.694440e-08	-4.493894e+01	-1.763202e+03
9.000000e-08	-6.275100e-06	-2.695353e-08	-4.478907e+01	-1.760939e+03
1.000000e-07	-6.251612e-06	-2.689017e-08	-4.462142e+01	-1.758507e+03
1.100000e-07	-6.225443e-06	-2.682476e-08	-4.443464e+01	-1.755944e+03
1.200000e-07	-6.196951e-06	-2.679620e-08	-4.423127e+01	-1.753288e+03
1.300000e-07	-6.166700e-06	-2.672397e-08	-4.401536e+01	-1.750562e+03
1.400000e-07	-6.134926e-06	-2.663847e-08	-4.378857e+01	-1.747770e+03
1.500000e-07	-6.101333e-06	-2.669990e-08	-4.354879e+01	-1.744887e+03
1.600000e-07	-6.065647e-06	-2.661453e-08	-4.329408e+01	-1.741866e+03
1.700000e-07	-6.028079e-06	-2.650161e-08	-4.302594e+01	-1.738639e+03
1.800000e-07	-5.988387e-06	-2.654198e-08	-4.274263e+01	-1.735131e+03
1.900000e-07	-5.946256e-06	-2.638080e-08	-4.244192e+01	-1.731274e+03
2.000000e-07	-5.901972e-06	-2.632571e-08	-4.212584e+01	-1.727019e+03
2.100000e-07	-5.855646e-06	-2.629061e-08	-4.179518e+01	-1.722347e+03
2.200000e-07	-5.806947e-06	-2.610832e-08	-4.144759e+01	-1.717272e+03
2.300000e-07	-5.755682e-06	-2.605152e-08	-4.108168e+01	-1.711834e+03
2.400000e-07	-5.702017e-06	-2.600494e-08	-4.069864e+01	-1.706088e+03
2.500000e-07	-5.646249e-06	-2.591396e-08	-4.030059e+01	-1.700093e+03
2.600000e-07	-5.588327e-06	-2.582954e-08	-3.988717e+01	-1.693890e+03
2.700000e-07	-5.528291e-06	-2.572292e-08	-3.945865e+01	-1.687499e+03
2.800000e-07	-5.466313e-06	-2.560791e-08	-3.901629e+01	-1.680908e+03
2.900000e-07	-5.402313e-06	-2.545884e-08	-3.855948e+01	-1.674082e+03
3.000000e-07	-5.336231e-06	-2.539430e-08	-3.808781e+01	-1.666965e+03
3.100000e-07	-5.268090e-06	-2.532028e-08	-3.760145e+01	-1.659502e+03
3.200000e-07	-5.197977e-06	-2.517602e-08	-3.710101e+01	-1.651646e+03
3.300000e-07	-5.126074e-06	-2.502842e-08	-3.658780e+01	-1.643373e+03
3.400000e-07	-5.052290e-06	-2.487293e-08	-3.606115e+01	-1.634681e+03
3.500000e-07	-4.976373e-06	-2.475432e-08	-3.551929e+01	-1.625593e+03
3.600000e-07	-4.898303e-06	-2.461430e-08	-3.496206e+01	-1.616143e+03
3.700000e-07	-4.818181e-06	-2.448302e-08	-3.439019e+01	-1.606365e+03
3.800000e-07	-4.736319e-06	-2.433892e-08	-3.380588e+01	-1.596282e+03
3.900000e-07	-4.653006e-06	-2.414852e-08	-3.321123e+01	-1.585894e+03
4.000000e-07	-4.568269e-06	-2.396912e-08	-3.260642e+01	-1.575178e+03
4.100000e-07	-4.482094e-06	-2.380998e-08	-3.199133e+01	-1.564092e+03
4.200000e-07	-4.394557e-06	-2.365183e-08	-3.136653e+01	-1.552583e+03
4.300000e-07	-4.305536e-06	-2.346361e-08	-3.073114e+01	-1.540602e+03
4.400000e-07	-4.214840e-06	-2.326790e-08	-3.008379e+01	-1.528110e+03
4.500000e-07	-4.122516e-06	-2.306814e-08	-2.942482e+01	-1.515089e+03
4.600000e-07	-4.028736e-06	-2.285405e-08	-2.875545e+01	-1.501539e+03
4.700000e-07	-3.933612e-06	-2.264874e-08	-2.807649e+01	-1.487474e+03
4.800000e-07	-3.837096e-06	-2.243683e-08	-2.738761e+01	-1.472908e+03
4.900000e-07	-3.739058e-06	-2.220115e-08	-2.668785e+01	-1.457850e+03
5.000000e-07	-3.639528e-06	-2.194902e-08	-2.597745e+01	-1.442290e+03
5.100000e-07	-3.538711e-06	-2.169851e-08	-2.525785e+01	-1.426195e+03
5.200000e-07	-3.436640e-06	-2.144595e-08	-2.452932e+01	-1.409512e+03
5.300000e-07	-3.333416e-06	-2.118068e-08	-2.379254e+01	-1.392178e+03
5.400000e-07	-3.229019e-06	-2.090854e-08	-2.304740e+01	-1.374124e+03
5.500000e-07	-3.123281e-06	-2.062343e-08	-2.229269e+01	-1.355293e+03
5.600000e-07	-3.016252e-06	-2.032173e-08	-2.152876e+01	-1.335639e+03
5.700000e-07	-2.908029e-06	-2.000676e-08	-2.075631e+01	-1.315134e+03
5.800000e-07	-2.798813e-06	-1.968190e-08	-1.997677e+01	-1.293757e+03
5.900000e-07	-2.688697e-06	-1.934082e-08	-1.919081e+01	-1.271488e+03
6.000000e-07	-2.577664e-06	-1.897978e-08	-1.839830e+01	-1.248296e+03
6.100000e-07	-2.465591e-06	-1.860440e-08	-1.759837e+01	-1.224124e+03
6.200000e-07	-2.352442e-06	-1.821624e-08	-1.679076e+01	-1.198891e+03
6.300000e-07	-2.238271e-06	-1.781526e-08	-1.597585e+01	-1.172489e+03
6.400000e-07	-2.123100e-06	-1.739591e-08	-1.515381e+01	-1.144793e+03
6.500000e-07	-2.007012e-06	-1.695295e-08	-1.432522e+01	-1.115671e+03
6.600000e-07	-1.890153e-06	-1.648104e-08	-1.349113e+01	-1.084992e+03
6.700000e-07	-1.772717e-06	-1.598509e-08	-1.265292e+01	-1.052637e+03
6.800000e-07	-1.654721e-06	-1.546857e-08	-1.181071e+01	-1.018498e+03
6.900000e-07	-1.536203e-06	-1.492254e-08	-1.096478e+01	-9.824726e+02
7.000000e-07	-1.417215e-06	-1.434426e-08	-1.011549e+01	-9.444557e+02
7.100000e-07	-1.297736e-06	-1.373019e-08	-9.262704e+00	-9.043318e+02
7.200000e-07	-1.177778e-06	-1.307906e-08	-8.406496e+00	-8.619725e+02
7.300000e-07	-1.057359e-06	-1.239133e-08	-7.546992e+00	-8.172447e+02
7.400000e-07	-9.365324e-07	-1.167097e-08	-6.684581e+00	-7.700287e+02
7.500000e-07	-8.153827e-07	-1.091593e-08	-5.819864e+00	-7.202458e+02
7.600000e-07	-6.939658e-07	-1.011678e-08	-4.953241e+00	-6.678900e+02
7.700000e-07	-5.723153e-07	-9.275913e-09	-4.084950e+00	-6.130544e+02
7.800000e-07	-4.505231e-07	-8.403423e-09	-3.215648e+00	-5.559452e+02
7.900000e-07	-3.286609e-07	-7.506031e-09	-2.345846e+00	-4.968760e+02
8.000000e-07	-2.066231e-07	-6.584502e-09	-1.474790e+00	-4.362392e+02
8.100000e-07	-8.440856e-08	-5.643837e-09	-6.024734e-01	-3.744573e+02
8.200000e-07	3.790396e-08	-4.692469e-09	2.705428e-01	-3.119216e+02
8.300000e-07	1.603003e-07	-3.734106e-09	1.144158e+00	-2.489298e+02
8.400000e-07	2.826339e-07	-2.768472e-09	2.017324e+00	-1.856369e+02
8.500000e-07	4.048316e-07	-1.797695e-09	2.889521e+00	-1.220301e+02
8.600000e-07	5.268829e-07	-8.196334e-10	3.760673e+00	-5.793765e+01
8.700000e-07	6.487597e-07	1.699528e-10	4.630578e+00	6.928707e+00
8.800000e-07	7.704777e-07	1.173759e-09	5.499352e+00	7.290236e+01
8.900000e-07	8.919627e-07	2.197045e-09	6.366461e+00	1.402743e+02
9.000000e-07	1.013167e-06	3.243224e-09	7.231567e+00	2.092058e+02
9.100000e-07	1.134046e-06	4.312034e-09	8.094349e+00	2.796578e+02
9.200000e-07	1.254485e-06	5.400733e-09	8.953996e+00	3.513520e+02
9.300000e-07	1.374435e-06	6.504962e-09	9.810151e+00	4.237718e+02
9.400000e-07	1.493893e-06	7.613646e-09	1.066279e+01	4.962026e+02
9.500000e-07	1.612758e-06	8.707930e-09	1.151120e+01	5.678061e+02
9.600000e-07	1.731037e-06	9.771604e-09	1.235542e+01	6.377133e+02
9.700000e-07	1.848721e-06	1.079452e-08	1.319541e+01	7.051207e+02
9.800000e-07	1.965733e-06	1.176617e-08	1.403059e+01	7.693725e+02
9.900000e-07	2.082048e-06	1.267882e-08	1.486079e+01	8.300164e+02
1.000000e-06	2.197481e-06	1.353393e-08	1.568471e+01	8.868245e+02
1.010000e-06	2.311878e-06	1.433445e-08	1.650123e+01	9.397816e+02
1.020000e-06	2.425204e-06	1.508186e-08	1.731010e+01	9.890442e+02
1.030000e-06	2.537561e-06	1.577958e-08	1.811206e+01	1.034884e+03
1.040000e-06	2.649030e-06	1.643246e-08	1.890768e+01	1.077627e+03
1.050000e-06	2.759482e-06	1.704153e-08	1.969604e+01	1.117598e+03
1.060000e-06	2.868941e-06	1.760991e-08	2.047732e+01	1.155087e+03
1.070000e-06	2.977544e-06	1.814005e-08	2.125248e+01	1.190325e+03
1.080000e-06	3.085266e-06	1.863635e-08	2.202135e+01	1.223488e+03
1.090000e-06	3.191866e-06	1.910561e-08	2.278222e+01	1.254712e+03
1.100000e-06	3.297155e-06	1.955252e-08	2.353373e+01	1.284106e+03
1.110000e-06	3.401161e-06	1.997549e-08	2.427608e+01	1.311777e+03
1.120000e-06	3.503920e-06	2.037267e-08	2.500954e+01	1.337841e+03
1.130000e-06	3.605485e-06	2.074629e-08	2.573446e+01	1.362424e+03
1.140000e-06	3.705939e-06	2.109991e-08	2.645146e+01	1.385663e+03
1.150000e-06	3.805237e-06	2.143703e-08	2.716021e+01	1.407692e+03
1.160000e-06	3.903019e-06	2.175715e-08	2.785813e+01	1.428631e+03
1.170000e-06	3.999210e-06	2.206003e-08	2.854471e+01	1.448577e+03
1.180000e-06	4.093953e-06	2.234697e-08	2.922095e+01	1.467600e+03
1.190000e-06	4.187333e-06	2.261832e-08	2.988745e+01	1.485746e+03
1.200000e-06	4.279479e-06	2.287570e-08	3.054515e+01	1.503042e+03
1.210000e-06	4.370168e-06	2.312357e-08	3.119246e+01	1.519510e+03
1.220000e-06	4.459137e-06	2.336126e-08	3.182748e+01	1.535172e+03
1.230000e-06	4.546445e-06	2.358926e-08	3.245065e+01	1.550058e+03
1.240000e-06	4.632209e-06	2.380643e-08	3.306280e+01	1.564214e+03
1.250000e-06	4.716420e-06	2.401259e-08	3.366385e+01	1.577691e+03
1.260000e-06	4.798954e-06	2.420739e-08	3.425295e+01	1.590549e+03
1.270000e-06	4.879745e-06	2.439196e-08	3.482960e+01	1.602840e+03
1.280000e-06	4.958698e-06	2.456894e-08	3.539314e+01	1.614609e+03
1.290000e-06	5.035771e-06	2.473888e-08	3.594325e+01	1.625887e+03
1.300000e-06	5.110930e-06	2.490344e-08	3.647970e+01	1.636689e+03
1.310000e-06	5.184006e-06	2.506189e-08	3.700130e+01	1.647015e+03
1.320000e-06	5.255082e-06	2.521363e-08	3.750861e+01	1.656861e+03
1.330000e-06	5.324343e-06	2.535841e-08	3.800296e+01	1.666219e+03
1.340000e-06	5.391861e-06	2.549422e-08	3.848488e+01	1.675083e+03
1.350000e-06	5.457384e-06	2.562248e-08	3.895255e+01	1.683458e+03
1.360000e-06	5.520815e-06	2.574505e-08	3.940530e+01	1.691356e+03
1.370000e-06	5.582399e-06	2.586030e-08	3.984486e+01	1.698797e+03
1.380000e-06	5.642241e-06	2.596733e-08	4.027199e+01	1.705812e+03
1.390000e-06	5.700066e-06	2.606745e-08	4.068472e+01	1.712432e+03
1.400000e-06	5.755711e-06	2.616185e-08	4.108189e+01	1.718691e+03
1.410000e-06	5.809278e-06	2.625141e-08	4.146422e+01	1.724620e+03
1.420000e-06	5.860554e-06	2.633720e-08	4.183021e+01	1.730246e+03
1.430000e-06	5.909389e-06	2.641947e-08	4.217878e+01	1.735590e+03
1.440000e-06	5.956007e-06	2.649756e-08	4.251152e+01	1.740667e+03
1.450000e-06	6.000636e-06	2.657044e-08	4.283006e+01	1.745485e+03
1.460000e-06	6.043175e-06	2.663912e-08	4.313368e+01	1.750044e+03
1.470000e-06	6.083523e-06	2.670356e-08	4.342167e+01	1.754340e+03
1.480000e-06	6.121744e-06	2.676389e-08	4.369448e+01	1.758362e+03
1.490000e-06	6.157951e-06	2.682010e-08	4.395291e+01	1.762099e+03
1.500000e-06	6.192006e-06	2.687193e-08	4.419598e+01	1.765539e+03
1.510000e-06	6.223720e-06	2.692089e-08	4.442234e+01	1.768674e+03
1.520000e-06	6.253265e-06	2.696559e-08	4.463322e+01	1.771501e+03
1.530000e-06	6.280776e-06	2.700397e-08	4.482959e+01	1.774023e+03
1.540000e-06	6.305993e-06	2.703694e-08	4.500957e+01	1.776250e+03
1.550000e-06	6.328768e-06	2.706666e-08	4.517213e+01	1.778196e+03
1.560000e-06	6.349367e-06	2.709236e-08	4.531915e+01	1.779880e+03
1.570000e-06	6.367863e-06	2.711357e-08	4.545117e+01	1.781315e+03
1.580000e-06	6.384043e-06	2.713166e-08	4.556666e+01	1.782516e+03
1.590000e-06	6.397762e-06	2.714676e-08	4.566458e+01	1.783491e+03
1.600000e-06	6.408941e-06	2.715788e-08	4.574437e+01	1.784246e+03
1.610000e-06	6.417541e-06	2.716620e-08	4.580575e+01	1.784782e+03
1.620000e-06	6.423765e-06	2.717247e-08	4.585018e+01	1.785100e+03
1.630000e-06	6.427857e-06	2.717704e-08	4.587939e+01	1.785205e+03
1.640000e-06	6.429708e-06	2.718077e-08	4.589260e+01	1.785102e+03
1.650000e-06	6.429193e-06	2.718035e-08	4.588892e+01	1.784799e+03
1.660000e-06	6.426584e-06	2.716793e-08	4.587030e+01	1.784301e+03
1.670000e-06	6.421973e-06	2.715474e-08	4.583739e+01	1.783615e+03
1.680000e-06	6.415099e-06	2.714089e-08	4.578832e+01	1.782738e+03
1.690000e-06	6.406097e-06	2.712476e-08	4.572407e+01	1.781666e+03
1.700000e-06	6.395141e-06	2.710982e-08	4.564587e+01	1.780386e+03
1.710000e-06	6.382009e-06	2.709458e-08	4.555214e+01	1.778886e+03
1.720000e-06	6.366577e-06	2.708432e-08	4.544199e+01	1.777158e+03
1.730000e-06	6.349118e-06	2.703266e-08	4.531738e+01	1.775203e+03
1.740000e-06	6.329536e-06	2.695149e-08	4.517761e+01	1.773034e+03
1.750000e-06	6.307062e-06	2.694210e-08	4.501720e+01	1.770679e+03
1.760000e-06	6.281490e-06	2.692098e-08	4.483468e+01	1.768174e+03
1.770000e-06	6.253626e-06	2.686647e-08	4.463580e+01	1.765557e+03
1.780000e-06	6.223957e-06	2.689918e-08	4.442403e+01	1.762861e+03
1.790000e-06	6.192709e-06	2.681558e-08	4.420100e+01	1.760100e+03
1.800000e-06	6.159956e-06	2.669992e-08	4.396722e+01	1.757264e+03
1.810000e-06	6.125144e-06	2.676018e-08	4.371875e+01	1.754317e+03
1.820000e-06	6.088296e-06	2.664627e-08	4.345574e+01	1.751200e+03
1.830000e-06	6.049323e-06	2.663114e-08	4.317756e+01	1.747838e+03
1.840000e-06	6.007988e-06	2.667141e-08	4.288254e+01	1.744160e+03
1.850000e-06	5.964653e-06	2.648868e-08	4.257323e+01	1.740105e+03
1.860000e-06	5.919308e-06	2.650920e-08	4.224957e+01	1.735639e+03
1.870000e-06	5.871751e-06	2.643843e-08	4.191013e+01	1.730760e+03
1.880000e-06	5.822053e-06	2.631412e-08	4.155541e+01	1.725494e+03
1.890000e-06	5.769884e-06	2.628949e-08	4.118305e+01	1.719891e+03
1.900000e-06	5.715154e-06	2.610541e-08	4.079241e+01	1.714011e+03
1.910000e-06	5.658204e-06	2.605791e-08	4.038592e+01	1.707905e+03
1.920000e-06	5.599302e-06	2.600184e-08	3.996551e+01	1.701604e+03
1.930000e-06	5.538599e-06	2.590676e-08	3.953223e+01	1.695114e+03
1.940000e-06	5.475702e-06	2.582745e-08	3.908330e+01	1.688408e+03
1.950000e-06	5.410612e-06	2.562130e-08	3.861871e+01	1.681441e+03
1.960000e-06	5.343573e-06	2.555483e-08	3.814022e+01	1.674155e+03
1.970000e-06	5.274575e-06	2.542001e-08	3.764774e+01	1.666497e+03
1.980000e-06	5.203534e-06	2.529623e-08	3.714068e+01	1.658431e+03
1.990000e-06	5.130483e-06	2.522199e-08	3.661926e+01	1.649943e+03
2.000000e-06	5.055583e-06	2.506552e-08	3.608467e+01	1.641047e+03
2.010000e-06	4.978644e-06	2.493992e-08	3.553550e+01	1.631770e+03
2.020000e-06	4.899648e-06	2.473603e-08	3.497167e+01	1.622150e+03
2.030000e-06	4.818880e-06	2.461648e-08	3.439518e+01	1.612215e+03
2.040000e-06	4.736496e-06	2.449182e-08	3.380715e+01	1.601978e+03
2.050000e-06	4.652560e-06	2.431392e-08	3.320805e+01	1.591427e+03
2.060000e-06	4.566966e-06	2.414510e-08	3.259711e+01	1.580529e+03
2.070000e-06	4.479668e-06	2.394871e-08	3.197402e+01	1.569235e+03
2.080000e-06	4.390774e-06	2.378499e-08	3.133953e+01	1.557493e+03
2.090000e-06	4.300414e-06	2.358969e-08	3.069458e+01	1.545257e+03
2.100000e-06	4.208661e-06	2.341971e-08	3.003968e+01	1.532499e+03
2.110000e-06	4.115476e-06	2.321915e-08	2.937457e+01	1.519209e+03
2.120000e-06	4.020826e-06	2.299592e-08	2.869900e+01	1.505396e+03
2.130000e-06	3.924676e-06	2.277737e-08	2.801271e+01	1.491076e+03
2.140000e-06	3.827150e-06	2.254883e-08	2.731661e+01	1.476262e+03
2.150000e-06	3.728345e-06	2.232664e-08	2.661139e+01	1.460952e+03
2.160000e-06	3.628236e-06	2.208265e-08	2.589685e+01	1.445127e+03
2.170000e-06	3.526729e-06	2.184238e-08	2.517233e+01	1.428743e+03
2.180000e-06	3.423833e-06	2.157461e-08	2.443791e+01	1.411740e+03
2.190000e-06	3.319600e-06	2.130285e-08	2.369393e+01	1.394051e+03
2.200000e-06	3.214163e-06	2.102374e-08	2.294137e+01	1.375612e+03
2.210000e-06	3.107675e-06	2.073652e-08	2.218130e+01	1.356371e+03
2.220000e-06	3.000136e-06	2.042989e-08	2.141373e+01	1.336291e+03
2.230000e-06	2.891535e-06	2.010740e-08	2.063858e+01	1.315349e+03
2.240000e-06	2.781908e-06	1.978275e-08	1.985611e+01	1.293526e+03
2.250000e-06	2.671324e-06	1.944259e-08	1.906681e+01	1.270798e+03
2.260000e-06	2.559698e-06	1.908489e-08	1.827007e+01	1.247121e+03
2.270000e-06	2.446945e-06	1.870400e-08	1.746528e+01	1.222428e+03
2.280000e-06	2.333217e-06	1.831011e-08	1.665354e+01	1.196622e+03
2.290000e-06	2.218651e-06	1.789583e-08	1.583582e+01	1.169587e+03
2.300000e-06	2.103212e-06	1.746455e-08	1.501186e+01	1.141191e+03
2.310000e-06	1.986941e-06	1.701206e-08	1.418196e+01	1.111303e+03
2.320000e-06	1.869871e-06	1.653595e-08	1.334636e+01	1.079797e+03
2.330000e-06	1.752085e-06	1.602838e-08	1.250566e+01	1.046561e+03
2.340000e-06	1.633726e-06	1.548605e-08	1.166086e+01	1.011488e+03
2.350000e-06	1.514732e-06	1.491704e-08	1.081153e+01	9.744778e+02
2.360000e-06	1.395111e-06	1.432410e-08	9.957727e+00	9.354197e+02
2.370000e-06	1.275029e-06	1.370312e-08	9.100626e+00	8.941917e+02
2.380000e-06	1.154530e-06	1.304153e-08	8.240559e+00	8.506616e+02
2.390000e-06	1.033639e-06	1.233837e-08	7.377689e+00	8.046998e+02
2.400000e-06	9.123854e-07	1.159621e-08	6.512230e+00	7.562034e+02
2.410000e-06	7.908290e-07	1.081799e-08	5.644611e+00	7.051261e+02
2.420000e-06	6.690639e-07	1.000202e-08	4.775501e+00	6.515088e+02
2.430000e-06	5.471053e-07	9.149345e-09	3.905011e+00	5.955005e+02
2.440000e-06	4.250128e-07	8.264760e-09	3.033566e+00	5.373633e+02
2.450000e-06	3.028820e-07	7.349404e-09	2.161846e+00	4.774550e+02
2.460000e-06	1.806334e-07	6.409895e-09	1.289287e+00	4.161903e+02
2.470000e-06	5.826925e-08	5.458487e-09	4.159018e-01	3.539841e+02
2.480000e-06	-6.410204e-08	4.503070e-09	-4.575339e-01	2.911882e+02
2.490000e-06	-1.864491e-07	3.542254e-09	-1.330797e+00	2.280337e+02
2.500000e-06	-3.088029e-07	2.571713e-09	-2.204107e+00	1.645930e+02
2.510000e-06	-4.310947e-07	1.591715e-09	-3.076976e+00	1.007705e+02
2.520000e-06	-5.532365e-07	6.031193e-10	-3.948773e+00	3.632891e+01
2.530000e-06	-6.752050e-07	-3.961383e-10	-4.819335e+00	-2.905292e+01
2.540000e-06	-7.969582e-07	-1.413013e-09	-5.688358e+00	-9.569853e+01
2.550000e-06	-9.184867e-07	-2.452814e-09	-6.555778e+00	-1.638443e+02
2.560000e-06	-1.039734e-06	-3.515038e-09	-7.421189e+00	-2.335583e+02
2.570000e-06	-1.160610e-06	-4.599651e-09	-8.283951e+00	-3.046846e+02
2.580000e-06	-1.281015e-06	-5.701990e-09	-9.143352e+00	-3.768230e+02
2.590000e-06	-1.400989e-06	-6.812692e-09	-9.999683e+00	-4.493504e+02
2.600000e-06	-1.520417e-06	-7.918746e-09	-1.085211e+01	-5.214795e+02
2.610000e-06	-1.639091e-06	-9.005784e-09	-1.169915e+01	-5.923446e+02
2.620000e-06	-1.757025e-06	-1.005994e-08	-1.254092e+01	-6.610977e+02
2.630000e-06	-1.874262e-06	-1.106993e-08	-1.337771e+01	-7.270005e+02
2.640000e-06	-1.990751e-06	-1.202630e-08	-1.420916e+01	-7.894939e+02
2.650000e-06	-2.106371e-06	-1.292515e-08	-1.503440e+01	-8.482374e+02
2.660000e-06	-2.221032e-06	-1.376650e-08	-1.585281e+01	-9.031130e+02
2.670000e-06	-2.334664e-06	-1.455002e-08	-1.666387e+01	-9.541976e+02
2.680000e-06	-2.447187e-06	-1.527890e-08	-1.746701e+01	-1.001713e+03
2.690000e-06	-2.558725e-06	-1.595844e-08	-1.826312e+01	-1.045966e+03
2.700000e-06	-2.669304e-06	-1.659529e-08	-1.905239e+01	-1.087287e+03
2.710000e-06	-2.778850e-06	-1.719380e-08	-1.983429e+01	-1.125987e+03
2.720000e-06	-2.887492e-06	-1.775617e-08	-2.060973e+01	-1.162328e+03
2.730000e-06	-2.995293e-06	-1.828150e-08	-2.137916e+01	-1.196513e+03
2.740000e-06	-3.102142e-06	-1.877058e-08	-2.214181e+01	-1.228694e+03
2.750000e-06	-3.207963e-06	-1.922883e-08	-2.289711e+01	-1.258993e+03
2.760000e-06	-3.312688e-06	-1.966150e-08	-2.364459e+01	-1.287515e+03
2.770000e-06	-3.416172e-06	-2.007183e-08	-2.438322e+01	-1.314370e+03
2.780000e-06	-3.518291e-06	-2.046228e-08	-2.511211e+01	-1.339680e+03
2.790000e-06	-3.619088e-06	-2.083273e-08	-2.583155e+01	-1.363577e+03
2.800000e-06	-3.718617e-06	-2.118182e-08	-2.654195e+01	-1.386198e+03
2.810000e-06	-3.816889e-06	-2.150965e-08	-2.724338e+01	-1.407671e+03
2.820000e-06	-3.913967e-06	-2.182061e-08	-2.793628e+01	-1.428106e+03
2.830000e-06	-4.009795e-06	-2.211939e-08	-2.862026e+01	-1.447586e+03
2.840000e-06	-4.104112e-06	-2.240432e-08	-2.929345e+01	-1.466169e+03
2.850000e-06	-4.196909e-06	-2.267512e-08	-2.995580e+01	-1.483891e+03
2.860000e-06	-4.288221e-06	-2.293275e-08	-3.060755e+01	-1.500773e+03
2.870000e-06	-4.377902e-06	-2.317825e-08	-3.124766e+01	-1.516838e+03
2.880000e-06	-4.466030e-06	-2.341296e-08	-3.187668e+01	-1.532110e+03
2.890000e-06	-4.552435e-06	-2.363752e-08	-3.249340e+01	-1.546628e+03
2.900000e-06	-4.637148e-06	-2.385182e-08	-3.309805e+01	-1.560441e+03
2.910000e-06	-4.720321e-06	-2.405646e-08	-3.369170e+01	-1.573604e+03
2.920000e-06	-4.801870e-06	-2.425174e-08	-3.427377e+01	-1.586175e+03
2.930000e-06	-4.881711e-06	-2.443613e-08	-3.484363e+01	-1.598203e+03
2.940000e-06	-4.959555e-06	-2.460934e-08	-3.539925e+01	-1.609727e+03
