# Temperatura_=_46.87
# Concentracion g/m^3_=_28200.0
# C_Vs_to_Am_M_A/Vsm_=_65563218390.804596
# pendiente_HvsI_1/m_=_3716.3
# ordenada_HvsI_A/m_=_1297.0
# frecuencia_Hz_=_302096.55871498137

Tiempo_(s)	Campo_(V.s)	Magnetizacion_(V.s)	Campo_(kA/m)	Magnetizacion_(A/m)
0.000000e+00	-6.351139e-06	-2.002421e-08	-4.559393e+01	-1.313177e+03
1.000000e-08	-6.349334e-06	-2.002598e-08	-4.558097e+01	-1.312926e+03
2.000000e-08	-6.345184e-06	-2.001737e-08	-4.555118e+01	-1.312475e+03
3.000000e-08	-6.339123e-06	-2.000581e-08	-4.550767e+01	-1.311822e+03
4.000000e-08	-6.331225e-06	-1.999599e-08	-4.545097e+01	-1.310982e+03
5.000000e-08	-6.321147e-06	-1.998284e-08	-4.537862e+01	-1.309991e+03
6.000000e-08	-6.308606e-06	-1.996533e-08	-4.528859e+01	-1.308894e+03
7.000000e-08	-6.293670e-06	-1.993540e-08	-4.518137e+01	-1.307735e+03
8.000000e-08	-6.276495e-06	-1.989713e-08	-4.505807e+01	-1.306548e+03
9.000000e-08	-6.257386e-06	-1.991690e-08	-4.492089e+01	-1.305344e+03
1.000000e-07	-6.236063e-06	-1.999474e-08	-4.476781e+01	-1.304106e+03
1.100000e-07	-6.212175e-06	-1.990360e-08	-4.459633e+01	-1.302786e+03
1.200000e-07	-6.185783e-06	-1.982005e-08	-4.440686e+01	-1.301320e+03
1.300000e-07	-6.157232e-06	-1.983233e-08	-4.420190e+01	-1.299630e+03
1.400000e-07	-6.126898e-06	-1.971751e-08	-4.398414e+01	-1.297647e+03
1.500000e-07	-6.094995e-06	-1.958006e-08	-4.375511e+01	-1.295321e+03
1.600000e-07	-6.061246e-06	-1.984065e-08	-4.351283e+01	-1.292631e+03
1.700000e-07	-6.025440e-06	-1.970395e-08	-4.325579e+01	-1.289592e+03
1.800000e-07	-5.987783e-06	-1.952851e-08	-4.298545e+01	-1.286249e+03
1.900000e-07	-5.947937e-06	-1.974151e-08	-4.269940e+01	-1.282668e+03
2.000000e-07	-5.905724e-06	-1.946202e-08	-4.239636e+01	-1.278927e+03
2.100000e-07	-5.861468e-06	-1.945570e-08	-4.207865e+01	-1.275095e+03
2.200000e-07	-5.815103e-06	-1.949942e-08	-4.174580e+01	-1.271224e+03
2.300000e-07	-5.766367e-06	-1.927608e-08	-4.139593e+01	-1.267342e+03
2.400000e-07	-5.715056e-06	-1.928985e-08	-4.102758e+01	-1.263446e+03
2.500000e-07	-5.661294e-06	-1.924150e-08	-4.064163e+01	-1.259508e+03
2.600000e-07	-5.605514e-06	-1.916548e-08	-4.024119e+01	-1.255482e+03
2.700000e-07	-5.547595e-06	-1.913021e-08	-3.982540e+01	-1.251316e+03
2.800000e-07	-5.487524e-06	-1.902459e-08	-3.939416e+01	-1.246957e+03
2.900000e-07	-5.425542e-06	-1.895315e-08	-3.894920e+01	-1.242364e+03
3.000000e-07	-5.361590e-06	-1.883003e-08	-3.849009e+01	-1.237509e+03
3.100000e-07	-5.295594e-06	-1.882830e-08	-3.801632e+01	-1.232377e+03
3.200000e-07	-5.227582e-06	-1.876774e-08	-3.752808e+01	-1.226967e+03
3.300000e-07	-5.157610e-06	-1.865185e-08	-3.702575e+01	-1.221285e+03
3.400000e-07	-5.085780e-06	-1.855418e-08	-3.651009e+01	-1.215340e+03
3.500000e-07	-5.012119e-06	-1.841070e-08	-3.598130e+01	-1.209137e+03
3.600000e-07	-4.936424e-06	-1.835947e-08	-3.543789e+01	-1.202680e+03
3.700000e-07	-4.858534e-06	-1.825055e-08	-3.487873e+01	-1.195966e+03
3.800000e-07	-4.778606e-06	-1.815766e-08	-3.430494e+01	-1.188989e+03
3.900000e-07	-4.696919e-06	-1.805416e-08	-3.371851e+01	-1.181738e+03
4.000000e-07	-4.613718e-06	-1.789634e-08	-3.312123e+01	-1.174204e+03
4.100000e-07	-4.529112e-06	-1.776294e-08	-3.251385e+01	-1.166376e+03
4.200000e-07	-4.443065e-06	-1.765299e-08	-3.189613e+01	-1.158242e+03
4.300000e-07	-4.355661e-06	-1.755555e-08	-3.126868e+01	-1.149793e+03
4.400000e-07	-4.266860e-06	-1.741285e-08	-3.063119e+01	-1.141016e+03
4.500000e-07	-4.176421e-06	-1.726564e-08	-2.998193e+01	-1.131898e+03
4.600000e-07	-4.084305e-06	-1.712011e-08	-2.932065e+01	-1.122422e+03
4.700000e-07	-3.990728e-06	-1.695625e-08	-2.864887e+01	-1.112572e+03
4.800000e-07	-3.895865e-06	-1.680940e-08	-2.796787e+01	-1.102327e+03
4.900000e-07	-3.799613e-06	-1.665727e-08	-2.727689e+01	-1.091670e+03
5.000000e-07	-3.701918e-06	-1.648480e-08	-2.657555e+01	-1.080582e+03
5.100000e-07	-3.602732e-06	-1.629234e-08	-2.586350e+01	-1.069044e+03
5.200000e-07	-3.502179e-06	-1.610267e-08	-2.514165e+01	-1.057039e+03
5.300000e-07	-3.400500e-06	-1.591334e-08	-2.441171e+01	-1.044545e+03
5.400000e-07	-3.297657e-06	-1.571306e-08	-2.367341e+01	-1.031543e+03
5.500000e-07	-3.193525e-06	-1.551217e-08	-2.292586e+01	-1.018005e+03
5.600000e-07	-3.088146e-06	-1.529810e-08	-2.216936e+01	-1.003901e+03
5.700000e-07	-2.981510e-06	-1.506886e-08	-2.140384e+01	-9.891931e+02
5.800000e-07	-2.873632e-06	-1.482729e-08	-2.062939e+01	-9.738411e+02
5.900000e-07	-2.764761e-06	-1.458190e-08	-1.984783e+01	-9.577999e+02
6.000000e-07	-2.655009e-06	-1.432737e-08	-1.905993e+01	-9.410218e+02
6.100000e-07	-2.544378e-06	-1.405414e-08	-1.826573e+01	-9.234581e+02
6.200000e-07	-2.432752e-06	-1.377045e-08	-1.746439e+01	-9.050597e+02
6.300000e-07	-2.320143e-06	-1.347766e-08	-1.665598e+01	-8.857765e+02
6.400000e-07	-2.206612e-06	-1.317370e-08	-1.584095e+01	-8.655571e+02
6.500000e-07	-2.092086e-06	-1.285029e-08	-1.501879e+01	-8.443468e+02
6.600000e-07	-1.976589e-06	-1.250821e-08	-1.418965e+01	-8.220855e+02
6.700000e-07	-1.860314e-06	-1.214391e-08	-1.335493e+01	-7.987052e+02
6.800000e-07	-1.743434e-06	-1.176431e-08	-1.251586e+01	-7.741283e+02
6.900000e-07	-1.625970e-06	-1.137248e-08	-1.167261e+01	-7.482665e+02
7.000000e-07	-1.507965e-06	-1.096003e-08	-1.082547e+01	-7.210223e+02
7.100000e-07	-1.389504e-06	-1.052493e-08	-9.975056e+00	-6.922917e+02
7.200000e-07	-1.270589e-06	-1.005694e-08	-9.121382e+00	-6.619714e+02
7.300000e-07	-1.151249e-06	-9.564212e-09	-8.264653e+00	-6.299678e+02
7.400000e-07	-1.031512e-06	-9.043564e-09	-7.405082e+00	-5.962096e+02
7.500000e-07	-9.114120e-07	-8.500436e-09	-6.542898e+00	-5.606615e+02
7.600000e-07	-7.910196e-07	-7.936624e-09	-5.678618e+00	-5.233386e+02
7.700000e-07	-6.703822e-07	-7.345405e-09	-4.812579e+00	-4.843168e+02
7.800000e-07	-5.495314e-07	-6.724026e-09	-3.945008e+00	-4.437387e+02
7.900000e-07	-4.285066e-07	-6.077984e-09	-3.076189e+00	-4.018114e+02
8.000000e-07	-3.073254e-07	-5.420919e-09	-2.206246e+00	-3.587944e+02
8.100000e-07	-1.859655e-07	-4.753729e-09	-1.335020e+00	-3.149778e+02
8.200000e-07	-6.446851e-08	-4.084284e-09	-4.628103e-01	-2.706528e+02
8.300000e-07	5.706666e-08	-3.411608e-09	4.096735e-01	-2.260774e+02
8.400000e-07	1.785837e-07	-2.735248e-09	1.282027e+00	-1.814428e+02
8.500000e-07	3.000805e-07	-2.056053e-09	2.154235e+00	-1.368470e+02
8.600000e-07	4.215197e-07	-1.377619e-09	3.026030e+00	-9.228035e+01
8.700000e-07	5.427785e-07	-6.996509e-10	3.896530e+00	-4.762824e+01
8.800000e-07	6.638407e-07	-1.708453e-11	4.765619e+00	-2.691229e+00
8.900000e-07	7.847308e-07	6.740597e-10	5.633472e+00	4.277785e+01
9.000000e-07	9.053787e-07	1.377959e-09	6.499585e+00	8.902540e+01
9.100000e-07	1.025722e-06	2.096666e-09	7.363513e+00	1.362443e+02
9.200000e-07	1.145712e-06	2.831041e-09	8.224907e+00	1.845258e+02
9.300000e-07	1.265334e-06	3.577989e-09	9.083654e+00	2.338242e+02
9.400000e-07	1.384546e-06	4.339412e-09	9.939459e+00	2.839413e+02
9.500000e-07	1.503217e-06	5.111627e-09	1.079138e+01	3.345332e+02
9.600000e-07	1.621361e-06	5.886395e-09	1.163952e+01	3.851391e+02
9.700000e-07	1.738937e-06	6.650511e-09	1.248358e+01	4.352278e+02
9.800000e-07	1.855888e-06	7.393416e-09	1.332316e+01	4.842527e+02
9.900000e-07	1.972185e-06	8.111742e-09	1.415804e+01	5.317084e+02
1.000000e-06	2.087684e-06	8.800236e-09	1.498719e+01	5.771776e+02
1.010000e-06	2.202294e-06	9.457640e-09	1.580996e+01	6.203638e+02
1.020000e-06	2.315820e-06	1.007645e-08	1.662494e+01	6.611034e+02
1.030000e-06	2.428288e-06	1.065800e-08	1.743233e+01	6.993594e+02
1.040000e-06	2.539840e-06	1.120267e-08	1.823316e+01	7.351996e+02
1.050000e-06	2.650429e-06	1.171633e-08	1.902706e+01	7.687643e+02
1.060000e-06	2.760150e-06	1.219668e-08	1.981473e+01	8.002321e+02
1.070000e-06	2.869027e-06	1.264611e-08	2.059634e+01	8.297885e+02
1.080000e-06	2.977021e-06	1.306659e-08	2.137161e+01	8.576038e+02
1.090000e-06	3.084110e-06	1.346303e-08	2.214039e+01	8.838215e+02
1.100000e-06	3.189862e-06	1.383952e-08	2.289957e+01	9.085562e+02
1.110000e-06	3.294222e-06	1.419634e-08	2.364875e+01	9.318999e+02
1.120000e-06	3.397461e-06	1.453386e-08	2.438989e+01	9.539318e+02
1.130000e-06	3.499547e-06	1.485123e-08	2.512276e+01	9.747274e+02
1.140000e-06	3.600418e-06	1.515105e-08	2.584689e+01	9.943651e+02
1.150000e-06	3.700218e-06	1.543372e-08	2.656334e+01	1.012928e+03
1.160000e-06	3.798759e-06	1.570383e-08	2.727075e+01	1.030502e+03
1.170000e-06	3.895636e-06	1.595753e-08	2.796622e+01	1.047169e+03
1.180000e-06	3.991033e-06	1.619748e-08	2.865106e+01	1.063004e+03
1.190000e-06	4.085117e-06	1.642500e-08	2.932648e+01	1.078068e+03
1.200000e-06	4.177836e-06	1.664144e-08	2.999209e+01	1.092408e+03
1.210000e-06	4.269314e-06	1.684504e-08	3.064880e+01	1.106059e+03
1.220000e-06	4.359308e-06	1.704069e-08	3.129486e+01	1.119050e+03
1.230000e-06	4.447492e-06	1.722877e-08	3.192792e+01	1.131405e+03
1.240000e-06	4.534026e-06	1.740936e-08	3.254913e+01	1.143152e+03
1.250000e-06	4.618975e-06	1.758092e-08	3.315897e+01	1.154319e+03
1.260000e-06	4.702485e-06	1.774538e-08	3.375848e+01	1.164939e+03
1.270000e-06	4.784425e-06	1.790247e-08	3.434671e+01	1.175045e+03
1.280000e-06	4.864457e-06	1.804955e-08	3.492125e+01	1.184663e+03
1.290000e-06	4.942631e-06	1.818854e-08	3.548245e+01	1.193814e+03
1.300000e-06	5.019021e-06	1.832130e-08	3.603085e+01	1.202510e+03
1.310000e-06	5.093462e-06	1.844803e-08	3.656525e+01	1.210756e+03
1.320000e-06	5.165854e-06	1.856720e-08	3.708494e+01	1.218552e+03
1.330000e-06	5.236321e-06	1.867995e-08	3.759081e+01	1.225902e+03
1.340000e-06	5.304939e-06	1.878646e-08	3.808341e+01	1.232820e+03
1.350000e-06	5.371742e-06	1.888592e-08	3.856298e+01	1.239326e+03
1.360000e-06	5.436548e-06	1.897944e-08	3.902821e+01	1.245457e+03
1.370000e-06	5.499331e-06	1.906909e-08	3.947892e+01	1.251254e+03
1.380000e-06	5.560269e-06	1.915495e-08	3.991639e+01	1.256762e+03
1.390000e-06	5.619393e-06	1.923602e-08	4.034083e+01	1.262022e+03
1.400000e-06	5.676508e-06	1.931156e-08	4.075085e+01	1.267064e+03
1.410000e-06	5.731578e-06	1.938411e-08	4.114619e+01	1.271901e+03
1.420000e-06	5.784556e-06	1.945519e-08	4.152651e+01	1.276532e+03
1.430000e-06	5.835099e-06	1.952415e-08	4.188935e+01	1.280946e+03
1.440000e-06	5.883222e-06	1.958882e-08	4.223482e+01	1.285121e+03
1.450000e-06	5.929250e-06	1.964845e-08	4.256525e+01	1.289039e+03
1.460000e-06	5.973369e-06	1.970410e-08	4.288197e+01	1.292687e+03
1.470000e-06	6.015318e-06	1.975620e-08	4.318312e+01	1.296062e+03
1.480000e-06	6.055040e-06	1.980330e-08	4.346828e+01	1.299173e+03
1.490000e-06	6.092726e-06	1.984573e-08	4.373882e+01	1.302036e+03
1.500000e-06	6.128422e-06	1.988478e-08	4.399508e+01	1.304667e+03
1.510000e-06	6.161834e-06	1.992226e-08	4.423493e+01	1.307082e+03
1.520000e-06	6.192926e-06	1.995869e-08	4.445814e+01	1.309291e+03
1.530000e-06	6.222023e-06	1.999095e-08	4.466702e+01	1.311292e+03
1.540000e-06	6.249084e-06	2.001753e-08	4.486129e+01	1.313082e+03
1.550000e-06	6.273710e-06	2.004088e-08	4.503808e+01	1.314653e+03
1.560000e-06	6.295896e-06	2.006148e-08	4.519735e+01	1.316002e+03
1.570000e-06	6.316054e-06	2.007842e-08	4.534206e+01	1.317132e+03
1.580000e-06	6.334027e-06	2.009275e-08	4.547109e+01	1.318060e+03
1.590000e-06	6.349587e-06	2.010535e-08	4.558279e+01	1.318808e+03
1.600000e-06	6.362777e-06	2.011555e-08	4.567748e+01	1.319405e+03
1.610000e-06	6.373423e-06	2.012287e-08	4.575390e+01	1.319878e+03
1.620000e-06	6.381543e-06	2.012987e-08	4.581219e+01	1.320245e+03
1.630000e-06	6.387469e-06	2.013751e-08	4.585474e+01	1.320509e+03
1.640000e-06	6.391285e-06	2.014337e-08	4.588213e+01	1.320659e+03
1.650000e-06	6.392743e-06	2.014619e-08	4.589260e+01	1.320672e+03
1.660000e-06	6.391906e-06	2.014482e-08	4.588659e+01	1.320519e+03
1.670000e-06	6.389024e-06	2.012783e-08	4.586590e+01	1.320176e+03
1.680000e-06	6.384062e-06	2.012378e-08	4.583028e+01	1.319630e+03
1.690000e-06	6.376907e-06	2.011666e-08	4.577891e+01	1.318886e+03
1.700000e-06	6.367673e-06	2.010600e-08	4.571262e+01	1.317970e+03
1.710000e-06	6.356521e-06	2.009851e-08	4.563257e+01	1.316923e+03
1.720000e-06	6.343105e-06	2.009407e-08	4.553625e+01	1.315791e+03
1.730000e-06	6.327411e-06	2.011008e-08	4.542359e+01	1.314615e+03
1.740000e-06	6.309814e-06	2.002127e-08	4.529727e+01	1.313420e+03
1.750000e-06	6.290046e-06	1.990476e-08	4.515535e+01	1.312203e+03
1.760000e-06	6.267187e-06	1.997773e-08	4.499125e+01	1.310934e+03
1.770000e-06	6.241196e-06	1.997287e-08	4.480466e+01	1.309554e+03
1.780000e-06	6.213162e-06	1.990259e-08	4.460341e+01	1.307993e+03
1.790000e-06	6.183465e-06	2.009742e-08	4.439022e+01	1.306174e+03
1.800000e-06	6.152224e-06	1.992763e-08	4.416595e+01	1.304035e+03
1.810000e-06	6.119406e-06	1.977695e-08	4.393035e+01	1.301540e+03
1.820000e-06	6.084419e-06	1.998949e-08	4.367918e+01	1.298683e+03
1.830000e-06	6.047549e-06	1.959347e-08	4.341450e+01	1.295495e+03
1.840000e-06	6.008642e-06	1.963864e-08	4.313519e+01	1.292031e+03
1.850000e-06	5.967262e-06	1.976845e-08	4.283813e+01	1.288366e+03
1.860000e-06	5.923891e-06	1.937826e-08	4.252678e+01	1.284574e+03
1.870000e-06	5.878475e-06	1.958626e-08	4.220074e+01	1.280718e+03
1.880000e-06	5.830938e-06	1.946213e-08	4.185948e+01	1.276840e+03
1.890000e-06	5.781331e-06	1.936084e-08	4.150336e+01	1.272952e+03
1.900000e-06	5.729122e-06	1.944908e-08	4.112856e+01	1.269040e+03
1.910000e-06	5.674383e-06	1.912235e-08	4.073559e+01	1.265067e+03
1.920000e-06	5.617452e-06	1.924446e-08	4.032689e+01	1.260982e+03
1.930000e-06	5.558545e-06	1.918405e-08	3.990401e+01	1.256732e+03
1.940000e-06	5.497715e-06	1.908526e-08	3.946732e+01	1.252268e+03
1.950000e-06	5.434670e-06	1.909335e-08	3.901473e+01	1.247555e+03
1.960000e-06	5.369608e-06	1.884223e-08	3.854766e+01	1.242571e+03
1.970000e-06	5.302628e-06	1.890816e-08	3.806682e+01	1.237309e+03
1.980000e-06	5.233684e-06	1.871047e-08	3.757188e+01	1.231771e+03
1.990000e-06	5.162665e-06	1.865024e-08	3.706205e+01	1.225965e+03
2.000000e-06	5.089702e-06	1.865224e-08	3.653825e+01	1.219898e+03
2.010000e-06	5.015043e-06	1.848579e-08	3.600228e+01	1.213577e+03
2.020000e-06	4.938326e-06	1.845297e-08	3.545154e+01	1.207000e+03
2.030000e-06	4.859554e-06	1.821567e-08	3.488605e+01	1.200164e+03
2.040000e-06	4.778960e-06	1.819467e-08	3.430748e+01	1.193061e+03
2.050000e-06	4.696702e-06	1.810492e-08	3.371696e+01	1.185679e+03
2.060000e-06	4.612996e-06	1.796739e-08	3.311604e+01	1.178009e+03
2.070000e-06	4.527724e-06	1.785540e-08	3.250389e+01	1.170039e+03
2.080000e-06	4.440693e-06	1.768512e-08	3.187911e+01	1.161760e+03
2.090000e-06	4.351982e-06	1.760399e-08	3.124226e+01	1.153159e+03
2.100000e-06	4.261850e-06	1.742892e-08	3.059522e+01	1.144225e+03
2.110000e-06	4.170378e-06	1.733191e-08	2.993856e+01	1.134941e+03
2.120000e-06	4.077496e-06	1.717596e-08	2.927177e+01	1.125293e+03
2.130000e-06	3.983202e-06	1.701211e-08	2.859484e+01	1.115261e+03
2.140000e-06	3.887386e-06	1.684637e-08	2.790699e+01	1.104827e+03
2.150000e-06	3.790044e-06	1.667247e-08	2.720819e+01	1.093971e+03
2.160000e-06	3.691463e-06	1.652734e-08	2.650049e+01	1.082676e+03
2.170000e-06	3.591674e-06	1.634264e-08	2.578412e+01	1.070922e+03
2.180000e-06	3.490511e-06	1.617540e-08	2.505789e+01	1.058692e+03
2.190000e-06	3.388039e-06	1.596146e-08	2.432225e+01	1.045964e+03
2.200000e-06	3.284177e-06	1.576520e-08	2.357664e+01	1.032716e+03
2.210000e-06	3.179123e-06	1.555548e-08	2.282247e+01	1.018919e+03
2.220000e-06	3.073017e-06	1.534954e-08	2.206075e+01	1.004538e+03
2.230000e-06	2.965820e-06	1.511867e-08	2.129120e+01	9.895359e+02
2.240000e-06	2.857600e-06	1.487469e-08	2.051431e+01	9.738688e+02
2.250000e-06	2.748422e-06	1.463011e-08	1.973053e+01	9.574906e+02
2.260000e-06	2.638284e-06	1.437040e-08	1.893987e+01	9.403531e+02
2.270000e-06	2.527079e-06	1.410157e-08	1.814154e+01	9.224072e+02
2.280000e-06	2.414902e-06	1.381057e-08	1.733624e+01	9.036034e+02
2.290000e-06	2.301765e-06	1.351561e-08	1.652404e+01	8.838912e+02
2.300000e-06	2.187667e-06	1.319663e-08	1.570495e+01	8.632181e+02
2.310000e-06	2.072799e-06	1.286983e-08	1.488033e+01	8.415269e+02
2.320000e-06	1.957230e-06	1.252573e-08	1.405068e+01	8.187542e+02
2.330000e-06	1.840877e-06	1.216695e-08	1.321540e+01	7.948278e+02
2.340000e-06	1.723736e-06	1.178146e-08	1.237445e+01	7.696651e+02
2.350000e-06	1.605900e-06	1.137166e-08	1.152853e+01	7.431733e+02
2.360000e-06	1.487478e-06	1.094365e-08	1.067840e+01	7.152512e+02
2.370000e-06	1.368490e-06	1.049896e-08	9.824194e+00	6.857943e+02
2.380000e-06	1.248970e-06	1.003407e-08	8.966181e+00	6.547022e+02
2.390000e-06	1.128971e-06	9.534633e-09	8.104723e+00	6.218901e+02
2.400000e-06	1.008609e-06	9.006258e-09	7.240659e+00	5.873017e+02
2.410000e-06	8.879412e-07	8.448398e-09	6.374404e+00	5.509234e+02
2.420000e-06	7.670217e-07	7.869268e-09	5.506340e+00	5.127974e+02
2.430000e-06	6.459395e-07	7.264580e-09	4.637108e+00	4.730304e+02
2.440000e-06	5.246940e-07	6.636153e-09	3.766704e+00	4.317958e+02
2.450000e-06	4.033301e-07	5.988901e-09	2.895450e+00	3.893269e+02
2.460000e-06	2.818803e-07	5.321218e-09	2.023579e+00	3.459009e+02
2.470000e-06	1.603046e-07	4.640880e-09	1.150804e+00	3.018125e+02
2.480000e-06	3.862689e-08	3.958536e-09	2.772970e-01	2.573416e+02
2.490000e-06	-8.315746e-08	3.283889e-09	-5.969757e-01	2.127193e+02
2.500000e-06	-2.049551e-07	2.605715e-09	-1.471343e+00	1.680960e+02
2.510000e-06	-3.266402e-07	1.919268e-09	-2.344904e+00	1.235208e+02
2.520000e-06	-4.482234e-07	1.231374e-09	-3.217732e+00	7.893370e+01
2.530000e-06	-5.697032e-07	5.413587e-10	-4.089819e+00	3.417721e+01
2.540000e-06	-6.910090e-07	-1.519398e-10	-4.960656e+00	-1.097575e+01
2.550000e-06	-8.121139e-07	-8.539639e-10	-5.830051e+00	-5.677848e+01
2.560000e-06	-9.329769e-07	-1.565549e-09	-6.697709e+00	-1.034590e+02
2.570000e-06	-1.053539e-06	-2.291073e-09	-7.563208e+00	-1.511685e+02
2.580000e-06	-1.173746e-06	-3.034708e-09	-8.426155e+00	-1.999378e+02
2.590000e-06	-1.293550e-06	-3.792026e-09	-9.286215e+00	-2.496510e+02
2.600000e-06	-1.412875e-06	-4.561625e-09	-1.014283e+01	-3.000401e+02
2.610000e-06	-1.531527e-06	-5.340635e-09	-1.099462e+01	-3.507022e+02
2.620000e-06	-1.649368e-06	-6.118726e-09	-1.184058e+01	-4.011371e+02
2.630000e-06	-1.766402e-06	-6.881990e-09	-1.268075e+01	-4.507995e+02
2.640000e-06	-1.882720e-06	-7.621824e-09	-1.351578e+01	-4.991551e+02
2.650000e-06	-1.998300e-06	-8.332952e-09	-1.434551e+01	-5.457344e+02
2.660000e-06	-2.113055e-06	-9.010059e-09	-1.516932e+01	-5.901734e+02
2.670000e-06	-2.226896e-06	-9.650318e-09	-1.598657e+01	-6.322368e+02
2.680000e-06	-2.339613e-06	-1.025654e-08	-1.679575e+01	-6.718217e+02
2.690000e-06	-2.451161e-06	-1.082712e-08	-1.759654e+01	-7.089432e+02
2.700000e-06	-2.561803e-06	-1.136010e-08	-1.839082e+01	-7.437072e+02
2.710000e-06	-2.671572e-06	-1.185850e-08	-1.917884e+01	-7.762760e+02
2.720000e-06	-2.780409e-06	-1.232846e-08	-1.996016e+01	-8.068346e+02
2.730000e-06	-2.888455e-06	-1.277034e-08	-2.073581e+01	-8.355638e+02
2.740000e-06	-2.995594e-06	-1.318174e-08	-2.150495e+01	-8.626221e+02
2.750000e-06	-3.101749e-06	-1.356967e-08	-2.226701e+01	-8.881394e+02
2.760000e-06	-3.206816e-06	-1.393521e-08	-2.302128e+01	-9.122187e+02
2.770000e-06	-3.310732e-06	-1.427955e-08	-2.376728e+01	-9.349448e+02
2.780000e-06	-3.413311e-06	-1.460503e-08	-2.450368e+01	-9.563940e+02
2.790000e-06	-3.514477e-06	-1.491493e-08	-2.522993e+01	-9.766428e+02
2.800000e-06	-3.614531e-06	-1.520879e-08	-2.594821e+01	-9.957718e+02
2.810000e-06	-3.713348e-06	-1.548690e-08	-2.665760e+01	-1.013866e+03
2.820000e-06	-3.810854e-06	-1.574840e-08	-2.735758e+01	-1.031010e+03
2.830000e-06	-3.907217e-06	-1.599511e-08	-2.804936e+01	-1.047283e+03
2.840000e-06	-4.002252e-06	-1.623168e-08	-2.873160e+01	-1.062754e+03
2.850000e-06	-4.095617e-06	-1.645724e-08	-2.940186e+01	-1.077477e+03
2.860000e-06	-4.187541e-06	-1.667335e-08	-3.006176e+01	-1.091494e+03
2.870000e-06	-4.278044e-06	-1.687904e-08	-3.071147e+01	-1.104837e+03
2.880000e-06	-4.366937e-06	-1.707412e-08	-3.134963e+01	-1.117530e+03
2.890000e-06	-4.454383e-06	-1.725871e-08	-3.197739e+01	-1.129600e+03
2.900000e-06	-4.540098e-06	-1.743292e-08	-3.259272e+01	-1.141075e+03
2.910000e-06	-4.624092e-06	-1.759755e-08	-3.319571e+01	-1.151985e+03
2.920000e-06	-4.706590e-06	-1.775498e-08	-3.378795e+01	-1.162363e+03
2.930000e-06	-4.787411e-06	-1.790452e-08	-3.436815e+01	-1.172240e+03
2.940000e-06	-4.866436e-06	-1.804658e-08	-3.493545e+01	-1.181640e+03
