# Temperatura_=_87.93
# Concentracion g/m^3_=_28200.0
# C_Vs_to_Am_M_A/Vsm_=_65563218390.804596
# pendiente_HvsI_1/m_=_3716.3
# ordenada_HvsI_A/m_=_1297.0
# frecuencia_Hz_=_302555.9332207965

Tiempo_(s)	Campo_(V.s)	Magnetizacion_(V.s)	Campo_(kA/m)	Magnetizacion_(A/m)
0.000000e+00	-7.891249e-06	-3.053868e-08	-5.683719e+01	-1.999536e+03
1.000000e-08	-7.888102e-06	-3.053647e-08	-5.681452e+01	-1.998865e+03
2.000000e-08	-7.882342e-06	-3.052594e-08	-5.677303e+01	-1.998056e+03
3.000000e-08	-7.874058e-06	-3.051172e-08	-5.671337e+01	-1.997158e+03
4.000000e-08	-7.863003e-06	-3.049789e-08	-5.663374e+01	-1.996193e+03
5.000000e-08	-7.849025e-06	-3.048094e-08	-5.653307e+01	-1.995141e+03
6.000000e-08	-7.832219e-06	-3.045651e-08	-5.641202e+01	-1.993951e+03
7.000000e-08	-7.812966e-06	-3.042990e-08	-5.627335e+01	-1.992553e+03
8.000000e-08	-7.791491e-06	-3.040794e-08	-5.611868e+01	-1.990887e+03
9.000000e-08	-7.767359e-06	-3.042971e-08	-5.594486e+01	-1.988921e+03
1.000000e-07	-7.740102e-06	-3.040947e-08	-5.574854e+01	-1.986671e+03
1.100000e-07	-7.709753e-06	-3.032232e-08	-5.552995e+01	-1.984204e+03
1.200000e-07	-7.676506e-06	-3.026764e-08	-5.529049e+01	-1.981619e+03
1.300000e-07	-7.640564e-06	-3.023516e-08	-5.503161e+01	-1.979023e+03
1.400000e-07	-7.602271e-06	-3.017548e-08	-5.475581e+01	-1.976503e+03
1.500000e-07	-7.561813e-06	-3.009204e-08	-5.446440e+01	-1.974092e+03
1.600000e-07	-7.519007e-06	-3.009773e-08	-5.415609e+01	-1.971760e+03
1.700000e-07	-7.473604e-06	-3.007581e-08	-5.382907e+01	-1.969411e+03
1.800000e-07	-7.425549e-06	-2.992890e-08	-5.348295e+01	-1.966904e+03
1.900000e-07	-7.374631e-06	-2.992661e-08	-5.311622e+01	-1.964086e+03
2.000000e-07	-7.320722e-06	-2.988017e-08	-5.272793e+01	-1.960821e+03
2.100000e-07	-7.264026e-06	-2.980114e-08	-5.231957e+01	-1.957030e+03
2.200000e-07	-7.204720e-06	-2.977443e-08	-5.189242e+01	-1.952695e+03
2.300000e-07	-7.142900e-06	-2.966891e-08	-5.144716e+01	-1.947869e+03
2.400000e-07	-7.078436e-06	-2.959921e-08	-5.098286e+01	-1.942644e+03
2.500000e-07	-7.011266e-06	-2.948963e-08	-5.049905e+01	-1.937133e+03
2.600000e-07	-6.941466e-06	-2.941013e-08	-4.999632e+01	-1.931427e+03
2.700000e-07	-6.868908e-06	-2.931709e-08	-4.947372e+01	-1.925578e+03
2.800000e-07	-6.793578e-06	-2.922140e-08	-4.893114e+01	-1.919581e+03
2.900000e-07	-6.715543e-06	-2.913043e-08	-4.836910e+01	-1.913385e+03
3.000000e-07	-6.634748e-06	-2.901085e-08	-4.778716e+01	-1.906908e+03
3.100000e-07	-6.551493e-06	-2.891433e-08	-4.718751e+01	-1.900070e+03
3.200000e-07	-6.466099e-06	-2.879968e-08	-4.657246e+01	-1.892813e+03
3.300000e-07	-6.378461e-06	-2.870343e-08	-4.594124e+01	-1.885122e+03
3.400000e-07	-6.288423e-06	-2.858461e-08	-4.529274e+01	-1.877023e+03
3.500000e-07	-6.196111e-06	-2.844317e-08	-4.462786e+01	-1.868573e+03
3.600000e-07	-6.101689e-06	-2.831966e-08	-4.394777e+01	-1.859834e+03
3.700000e-07	-6.005046e-06	-2.818401e-08	-4.325170e+01	-1.850850e+03
3.800000e-07	-5.906076e-06	-2.803963e-08	-4.253886e+01	-1.841624e+03
3.900000e-07	-5.804976e-06	-2.789433e-08	-4.181068e+01	-1.832114e+03
4.000000e-07	-5.701896e-06	-2.774672e-08	-4.106824e+01	-1.822242e+03
4.100000e-07	-5.596809e-06	-2.757733e-08	-4.031134e+01	-1.811911e+03
4.200000e-07	-5.489751e-06	-2.740432e-08	-3.954026e+01	-1.801036e+03
4.300000e-07	-5.380774e-06	-2.723648e-08	-3.875534e+01	-1.789565e+03
4.400000e-07	-5.269834e-06	-2.705537e-08	-3.795629e+01	-1.777493e+03
4.500000e-07	-5.156906e-06	-2.686466e-08	-3.714292e+01	-1.764860e+03
4.600000e-07	-5.042018e-06	-2.667144e-08	-3.631543e+01	-1.751729e+03
4.700000e-07	-4.925203e-06	-2.646928e-08	-3.547407e+01	-1.738161e+03
4.800000e-07	-4.806522e-06	-2.625404e-08	-3.461926e+01	-1.724186e+03
4.900000e-07	-4.686060e-06	-2.603382e-08	-3.375163e+01	-1.709780e+03
5.000000e-07	-4.563889e-06	-2.580727e-08	-3.287168e+01	-1.694862e+03
5.100000e-07	-4.440028e-06	-2.556376e-08	-3.197957e+01	-1.679308e+03
5.200000e-07	-4.314631e-06	-2.530321e-08	-3.107639e+01	-1.662978e+03
5.300000e-07	-4.187704e-06	-2.503590e-08	-3.016218e+01	-1.645750e+03
5.400000e-07	-4.059213e-06	-2.476058e-08	-2.923672e+01	-1.627550e+03
5.500000e-07	-3.929212e-06	-2.446903e-08	-2.830038e+01	-1.608363e+03
5.600000e-07	-3.797639e-06	-2.416091e-08	-2.735272e+01	-1.588230e+03
5.700000e-07	-3.664585e-06	-2.384469e-08	-2.639439e+01	-1.567221e+03
5.800000e-07	-3.530195e-06	-2.351657e-08	-2.542644e+01	-1.545390e+03
5.900000e-07	-3.394452e-06	-2.317430e-08	-2.444874e+01	-1.522743e+03
6.000000e-07	-3.257414e-06	-2.281336e-08	-2.346171e+01	-1.499203e+03
6.100000e-07	-3.119041e-06	-2.243238e-08	-2.246508e+01	-1.474606e+03
6.200000e-07	-2.979337e-06	-2.202697e-08	-2.145885e+01	-1.448718e+03
6.300000e-07	-2.838356e-06	-2.159674e-08	-2.044343e+01	-1.421276e+03
6.400000e-07	-2.696169e-06	-2.114560e-08	-1.941932e+01	-1.392035e+03
6.500000e-07	-2.552970e-06	-2.067068e-08	-1.838791e+01	-1.360805e+03
6.600000e-07	-2.408815e-06	-2.016932e-08	-1.734963e+01	-1.327477e+03
6.700000e-07	-2.263817e-06	-1.963558e-08	-1.630527e+01	-1.292008e+03
6.800000e-07	-2.118120e-06	-1.906808e-08	-1.525588e+01	-1.254380e+03
6.900000e-07	-1.971765e-06	-1.846257e-08	-1.420176e+01	-1.214539e+03
7.000000e-07	-1.824730e-06	-1.781588e-08	-1.314273e+01	-1.172332e+03
7.100000e-07	-1.677026e-06	-1.712447e-08	-1.207888e+01	-1.127463e+03
7.200000e-07	-1.528816e-06	-1.638339e-08	-1.101139e+01	-1.079490e+03
7.300000e-07	-1.380191e-06	-1.558606e-08	-9.940905e+00	-1.027866e+03
7.400000e-07	-1.231150e-06	-1.472622e-08	-8.867428e+00	-9.720269e+02
7.500000e-07	-1.081725e-06	-1.380238e-08	-7.791187e+00	-9.115072e+02
7.600000e-07	-9.318937e-07	-1.281164e-08	-6.712020e+00	-8.460563e+02
7.700000e-07	-7.817548e-07	-1.175207e-08	-5.630635e+00	-7.757252e+02
7.800000e-07	-6.314257e-07	-1.062155e-08	-4.547881e+00	-7.008967e+02
7.900000e-07	-4.808124e-07	-9.426890e-09	-3.463080e+00	-6.222461e+02
8.000000e-07	-3.299812e-07	-8.179995e-09	-2.376709e+00	-5.406337e+02
8.100000e-07	-1.790516e-07	-6.896212e-09	-1.289629e+00	-4.569500e+02
8.200000e-07	-2.804325e-08	-5.588932e-09	-2.019832e-01	-3.719475e+02
8.300000e-07	1.229560e-07	-4.270324e-09	8.855981e-01	-2.860995e+02
8.400000e-07	2.739918e-07	-2.947210e-09	1.973442e+00	-1.995222e+02
8.500000e-07	4.250469e-07	-1.614622e-09	3.061425e+00	-1.119833e+02
8.600000e-07	5.759523e-07	-2.691221e-10	4.148331e+00	-2.300026e+01
8.700000e-07	7.266662e-07	1.100982e-09	5.233856e+00	6.798852e+01
8.800000e-07	8.771501e-07	2.507127e-09	6.317725e+00	1.614175e+02
8.900000e-07	1.027321e-06	3.959289e-09	7.399339e+00	2.573978e+02
9.000000e-07	1.177149e-06	5.456351e-09	8.478483e+00	3.555773e+02
9.100000e-07	1.326606e-06	6.982208e-09	9.554955e+00	4.550905e+02
9.200000e-07	1.475560e-06	8.513318e-09	1.062781e+01	5.546138e+02
9.300000e-07	1.623959e-06	1.001765e-08	1.169666e+01	6.525151e+02
9.400000e-07	1.771861e-06	1.146160e-08	1.276193e+01	7.470697e+02
9.500000e-07	1.919237e-06	1.281580e-08	1.382342e+01	8.366972e+02
9.600000e-07	2.065916e-06	1.406451e-08	1.487988e+01	9.201712e+02
9.700000e-07	2.211734e-06	1.520375e-08	1.593015e+01	9.967608e+02
9.800000e-07	2.356732e-06	1.623929e-08	1.697450e+01	1.066280e+03
9.900000e-07	2.500881e-06	1.718273e-08	1.801274e+01	1.129041e+03
1.000000e-06	2.644092e-06	1.804708e-08	1.904423e+01	1.185727e+03
1.010000e-06	2.786264e-06	1.884109e-08	2.006823e+01	1.237225e+03
1.020000e-06	2.927235e-06	1.957047e-08	2.108358e+01	1.284443e+03
1.030000e-06	3.066976e-06	2.024337e-08	2.209007e+01	1.328171e+03
1.040000e-06	3.205501e-06	2.086520e-08	2.308781e+01	1.368986e+03
1.050000e-06	3.342747e-06	2.144253e-08	2.407633e+01	1.407238e+03
1.060000e-06	3.478665e-06	2.197731e-08	2.505529e+01	1.443081e+03
1.070000e-06	3.613265e-06	2.247261e-08	2.602476e+01	1.476557e+03
1.080000e-06	3.746606e-06	2.293327e-08	2.698515e+01	1.507680e+03
1.090000e-06	3.878685e-06	2.336515e-08	2.793646e+01	1.536514e+03
1.100000e-06	4.009361e-06	2.377447e-08	2.887766e+01	1.563210e+03
1.110000e-06	4.138580e-06	2.416065e-08	2.980837e+01	1.588012e+03
1.120000e-06	4.266309e-06	2.452404e-08	3.072835e+01	1.611219e+03
1.130000e-06	4.392555e-06	2.486681e-08	3.163763e+01	1.633133e+03
1.140000e-06	4.517368e-06	2.519027e-08	3.253661e+01	1.654004e+03
1.150000e-06	4.640602e-06	2.549487e-08	3.342421e+01	1.673993e+03
1.160000e-06	4.762147e-06	2.577968e-08	3.429965e+01	1.693157e+03
1.170000e-06	4.882005e-06	2.604475e-08	3.516293e+01	1.711471e+03
1.180000e-06	5.000089e-06	2.629554e-08	3.601343e+01	1.728861e+03
1.190000e-06	5.116281e-06	2.653706e-08	3.685032e+01	1.745258e+03
1.200000e-06	5.230515e-06	2.677338e-08	3.767309e+01	1.760634e+03
1.210000e-06	5.342741e-06	2.700076e-08	3.848141e+01	1.775027e+03
1.220000e-06	5.453024e-06	2.721369e-08	3.927573e+01	1.788543e+03
1.230000e-06	5.561480e-06	2.741146e-08	4.005689e+01	1.801329e+03
1.240000e-06	5.668041e-06	2.759676e-08	4.082440e+01	1.813542e+03
1.250000e-06	5.772481e-06	2.777334e-08	4.157663e+01	1.825310e+03
1.260000e-06	5.874713e-06	2.794161e-08	4.231297e+01	1.836705e+03
1.270000e-06	5.974739e-06	2.810388e-08	4.303341e+01	1.847734e+03
1.280000e-06	6.072517e-06	2.826142e-08	4.373766e+01	1.858349e+03
1.290000e-06	6.168028e-06	2.841335e-08	4.442559e+01	1.868472e+03
1.300000e-06	6.261330e-06	2.856065e-08	4.509760e+01	1.878027e+03
1.310000e-06	6.352412e-06	2.870083e-08	4.575362e+01	1.886974e+03
1.320000e-06	6.441170e-06	2.883269e-08	4.639290e+01	1.895319e+03
1.330000e-06	6.527641e-06	2.895723e-08	4.701572e+01	1.903119e+03
1.340000e-06	6.611886e-06	2.907545e-08	4.762250e+01	1.910462e+03
1.350000e-06	6.693813e-06	2.918569e-08	4.821258e+01	1.917449e+03
1.360000e-06	6.773263e-06	2.928840e-08	4.878483e+01	1.924159e+03
1.370000e-06	6.850188e-06	2.938684e-08	4.933888e+01	1.930635e+03
1.380000e-06	6.924492e-06	2.948023e-08	4.987406e+01	1.936877e+03
1.390000e-06	6.996207e-06	2.956824e-08	5.039059e+01	1.942847e+03
1.400000e-06	7.065492e-06	2.964957e-08	5.088962e+01	1.948495e+03
1.410000e-06	7.132264e-06	2.972698e-08	5.137055e+01	1.953774e+03
1.420000e-06	7.196415e-06	2.980267e-08	5.183260e+01	1.958669e+03
1.430000e-06	7.258096e-06	2.987499e-08	5.227687e+01	1.963199e+03
1.440000e-06	7.317322e-06	2.994284e-08	5.270344e+01	1.967420e+03
1.450000e-06	7.373927e-06	3.000657e-08	5.311114e+01	1.971408e+03
1.460000e-06	7.427863e-06	3.006861e-08	5.349962e+01	1.975231e+03
1.470000e-06	7.478878e-06	3.012846e-08	5.386706e+01	1.978937e+03
1.480000e-06	7.526842e-06	3.018265e-08	5.421252e+01	1.982530e+03
1.490000e-06	7.572083e-06	3.023303e-08	5.453837e+01	1.985974e+03
1.500000e-06	7.614678e-06	3.027988e-08	5.484517e+01	1.989203e+03
1.510000e-06	7.654488e-06	3.032209e-08	5.513190e+01	1.992140e+03
1.520000e-06	7.691667e-06	3.035970e-08	5.539968e+01	1.994721e+03
1.530000e-06	7.726208e-06	3.039453e-08	5.564847e+01	1.996919e+03
1.540000e-06	7.757953e-06	3.042686e-08	5.587712e+01	1.998745e+03
1.550000e-06	7.787011e-06	3.045473e-08	5.608640e+01	2.000253e+03
1.560000e-06	7.813281e-06	3.047857e-08	5.627562e+01	2.001517e+03
1.570000e-06	7.836615e-06	3.049727e-08	5.644368e+01	2.002612e+03
1.580000e-06	7.857217e-06	3.051341e-08	5.659207e+01	2.003595e+03
1.590000e-06	7.875057e-06	3.052649e-08	5.672056e+01	2.004485e+03
1.600000e-06	7.889959e-06	3.053534e-08	5.682790e+01	2.005262e+03
1.610000e-06	7.901776e-06	3.054238e-08	5.691301e+01	2.005880e+03
1.620000e-06	7.910435e-06	3.054720e-08	5.697537e+01	2.006280e+03
1.630000e-06	7.916233e-06	3.055022e-08	5.701714e+01	2.006416e+03
1.640000e-06	7.919329e-06	3.055037e-08	5.703943e+01	2.006270e+03
1.650000e-06	7.919616e-06	3.054733e-08	5.704150e+01	2.005859e+03
1.660000e-06	7.917201e-06	3.053617e-08	5.702411e+01	2.005231e+03
1.670000e-06	7.912170e-06	3.052483e-08	5.698787e+01	2.004449e+03
1.680000e-06	7.904456e-06	3.051643e-08	5.693231e+01	2.003569e+03
1.690000e-06	7.894052e-06	3.050455e-08	5.685738e+01	2.002619e+03
1.700000e-06	7.880835e-06	3.048876e-08	5.676218e+01	2.001591e+03
1.710000e-06	7.864915e-06	3.047131e-08	5.664751e+01	2.000440e+03
1.720000e-06	7.846686e-06	3.045319e-08	5.651622e+01	1.999099e+03
1.730000e-06	7.826181e-06	3.041295e-08	5.636853e+01	1.997503e+03
1.740000e-06	7.802869e-06	3.031568e-08	5.620062e+01	1.995610e+03
1.750000e-06	7.776142e-06	3.030090e-08	5.600812e+01	1.993426e+03
1.760000e-06	7.745787e-06	3.031350e-08	5.578949e+01	1.991003e+03
1.770000e-06	7.712415e-06	3.026746e-08	5.554912e+01	1.988435e+03
1.780000e-06	7.676769e-06	3.022804e-08	5.529238e+01	1.985831e+03
1.790000e-06	7.638863e-06	3.025075e-08	5.501936e+01	1.983285e+03
1.800000e-06	7.598907e-06	3.020087e-08	5.473158e+01	1.980845e+03
1.810000e-06	7.556918e-06	3.010566e-08	5.442915e+01	1.978498e+03
1.820000e-06	7.512277e-06	3.019152e-08	5.410762e+01	1.976164e+03
1.830000e-06	7.465018e-06	3.011909e-08	5.376723e+01	1.973710e+03
1.840000e-06	7.415074e-06	3.009215e-08	5.340751e+01	1.970981e+03
1.850000e-06	7.362020e-06	3.006538e-08	5.302538e+01	1.967837e+03
1.860000e-06	7.306105e-06	2.993143e-08	5.262265e+01	1.964180e+03
1.870000e-06	7.247565e-06	2.994294e-08	5.220101e+01	1.959977e+03
1.880000e-06	7.186458e-06	2.983106e-08	5.176089e+01	1.955264e+03
1.890000e-06	7.122587e-06	2.979135e-08	5.130085e+01	1.950127e+03
1.900000e-06	7.055903e-06	2.973921e-08	5.082056e+01	1.944676e+03
1.910000e-06	6.986581e-06	2.961988e-08	5.032126e+01	1.939011e+03
1.920000e-06	6.914483e-06	2.955620e-08	4.980197e+01	1.933194e+03
1.930000e-06	6.839716e-06	2.942285e-08	4.926346e+01	1.927236e+03
1.940000e-06	6.762204e-06	2.937569e-08	4.870517e+01	1.921094e+03
1.950000e-06	6.681990e-06	2.926549e-08	4.812742e+01	1.914694e+03
1.960000e-06	6.599362e-06	2.915442e-08	4.753229e+01	1.907951e+03
1.970000e-06	6.514322e-06	2.904798e-08	4.691979e+01	1.900801e+03
1.980000e-06	6.426857e-06	2.890280e-08	4.628982e+01	1.893216e+03
1.990000e-06	6.337070e-06	2.881111e-08	4.564312e+01	1.885213e+03
2.000000e-06	6.245126e-06	2.866773e-08	4.498089e+01	1.876843e+03
2.010000e-06	6.150903e-06	2.856115e-08	4.430224e+01	1.868169e+03
2.020000e-06	6.054456e-06	2.842184e-08	4.360758e+01	1.859242e+03
2.030000e-06	5.955899e-06	2.827565e-08	4.289771e+01	1.850077e+03
2.040000e-06	5.855196e-06	2.811602e-08	4.217239e+01	1.840643e+03
2.050000e-06	5.752355e-06	2.796025e-08	4.143167e+01	1.830869e+03
2.060000e-06	5.647470e-06	2.781477e-08	4.067624e+01	1.820660e+03
2.070000e-06	5.540701e-06	2.763973e-08	3.990722e+01	1.809926e+03
2.080000e-06	5.432035e-06	2.747412e-08	3.912455e+01	1.798605e+03
2.090000e-06	5.321417e-06	2.729271e-08	3.832782e+01	1.786679e+03
2.100000e-06	5.208805e-06	2.711550e-08	3.751672e+01	1.774179e+03
2.110000e-06	5.094299e-06	2.691579e-08	3.669199e+01	1.761165e+03
2.120000e-06	4.977880e-06	2.671675e-08	3.585348e+01	1.747700e+03
2.130000e-06	4.859493e-06	2.650069e-08	3.500078e+01	1.733825e+03
2.140000e-06	4.739239e-06	2.627080e-08	3.413465e+01	1.719530e+03
2.150000e-06	4.617236e-06	2.603411e-08	3.325591e+01	1.704749e+03
2.160000e-06	4.493558e-06	2.579926e-08	3.236511e+01	1.689366e+03
2.170000e-06	4.368223e-06	2.555909e-08	3.146238e+01	1.673241e+03
2.180000e-06	4.241257e-06	2.530174e-08	3.054791e+01	1.656245e+03
2.190000e-06	4.112717e-06	2.503656e-08	2.962209e+01	1.638290e+03
2.200000e-06	3.982758e-06	2.475579e-08	2.868605e+01	1.619346e+03
2.210000e-06	3.851307e-06	2.446002e-08	2.773927e+01	1.599443e+03
2.220000e-06	3.718382e-06	2.414393e-08	2.678186e+01	1.578644e+03
2.230000e-06	3.584107e-06	2.381736e-08	2.581474e+01	1.557014e+03
2.240000e-06	3.448461e-06	2.347088e-08	2.483774e+01	1.534573e+03
2.250000e-06	3.311514e-06	2.310823e-08	2.385137e+01	1.511267e+03
2.260000e-06	3.173288e-06	2.273282e-08	2.285580e+01	1.486952e+03
2.270000e-06	3.033837e-06	2.234446e-08	2.185139e+01	1.461409e+03
2.280000e-06	2.893204e-06	2.193480e-08	2.083847e+01	1.434379e+03
2.290000e-06	2.751490e-06	2.149832e-08	1.981777e+01	1.405606e+03
2.300000e-06	2.608765e-06	2.103411e-08	1.878978e+01	1.374885e+03
2.310000e-06	2.465026e-06	2.053852e-08	1.775449e+01	1.342087e+03
2.320000e-06	2.320456e-06	2.001366e-08	1.671322e+01	1.307153e+03
2.330000e-06	2.175165e-06	1.945353e-08	1.566675e+01	1.270066e+03
2.340000e-06	2.029075e-06	1.885866e-08	1.461453e+01	1.230786e+03
2.350000e-06	1.882236e-06	1.822591e-08	1.355692e+01	1.189190e+03
2.360000e-06	1.734813e-06	1.754711e-08	1.249509e+01	1.145021e+03
2.370000e-06	1.586856e-06	1.681960e-08	1.142943e+01	1.097871e+03
2.380000e-06	1.438311e-06	1.603907e-08	1.035952e+01	1.047212e+03
2.390000e-06	1.289250e-06	1.520123e-08	9.285896e+00	9.924750e+02
2.400000e-06	1.139820e-06	1.429772e-08	8.209621e+00	9.331575e+02
2.410000e-06	9.901121e-07	1.332330e-08	7.131341e+00	8.689458e+02
2.420000e-06	8.401590e-07	1.227901e-08	6.051295e+00	7.998101e+02
2.430000e-06	6.899190e-07	1.116558e-08	4.969182e+00	7.260511e+02
2.440000e-06	5.394555e-07	9.986871e-09	3.885460e+00	6.482786e+02
2.450000e-06	3.887713e-07	8.751778e-09	2.800148e+00	5.673198e+02
2.460000e-06	2.379006e-07	7.474791e-09	1.713493e+00	4.840736e+02
2.470000e-06	8.689020e-08	6.169224e-09	6.258318e-01	3.993420e+02
2.480000e-06	-6.423323e-08	4.847281e-09	-4.626436e-01	3.136783e+02
2.490000e-06	-2.153415e-07	3.518223e-09	-1.551010e+00	2.272909e+02
2.500000e-06	-3.663338e-07	2.181898e-09	-2.638540e+00	1.400287e+02
2.510000e-06	-5.171787e-07	8.346765e-10	-3.725010e+00	5.145808e+01
2.520000e-06	-6.678388e-07	-5.347629e-10	-4.810148e+00	-3.898159e+01
2.530000e-06	-8.183074e-07	-1.937638e-09	-5.893907e+00	-1.317761e+02
2.540000e-06	-9.685848e-07	-3.382668e-09	-6.976289e+00	-2.271335e+02
2.550000e-06	-1.118550e-06	-4.874439e-09	-8.056421e+00	-3.248260e+02
2.560000e-06	-1.268154e-06	-6.401398e-09	-9.133952e+00	-4.241155e+02
2.570000e-06	-1.417297e-06	-7.941079e-09	-1.020817e+01	-5.237822e+02
2.580000e-06	-1.565890e-06	-9.465920e-09	-1.127841e+01	-6.222527e+02
2.590000e-06	-1.713902e-06	-1.094181e-08	-1.234448e+01	-7.178034e+02
2.600000e-06	-1.861231e-06	-1.233626e-08	-1.340563e+01	-8.087962e+02
2.610000e-06	-2.007832e-06	-1.363217e-08	-1.446153e+01	-8.938996e+02
2.620000e-06	-2.153753e-06	-1.482080e-08	-1.551254e+01	-9.722506e+02
2.630000e-06	-2.298965e-06	-1.590232e-08	-1.655843e+01	-1.043528e+03
2.640000e-06	-2.443347e-06	-1.688631e-08	-1.759835e+01	-1.107927e+03
2.650000e-06	-2.586717e-06	-1.778372e-08	-1.863098e+01	-1.166055e+03
2.660000e-06	-2.728932e-06	-1.860557e-08	-1.965529e+01	-1.218765e+03
2.670000e-06	-2.870066e-06	-1.935901e-08	-2.067182e+01	-1.266974e+03
2.680000e-06	-3.010104e-06	-2.005211e-08	-2.168045e+01	-1.311512e+03
2.690000e-06	-3.148872e-06	-2.069194e-08	-2.267993e+01	-1.353016e+03
2.700000e-06	-3.286369e-06	-2.128498e-08	-2.367027e+01	-1.391889e+03
2.710000e-06	-3.422607e-06	-2.183693e-08	-2.465153e+01	-1.428330e+03
2.720000e-06	-3.557555e-06	-2.234942e-08	-2.562350e+01	-1.462398e+03
2.730000e-06	-3.691239e-06	-2.282606e-08	-2.658637e+01	-1.494108e+03
2.740000e-06	-3.823627e-06	-2.327219e-08	-2.753990e+01	-1.523505e+03
2.750000e-06	-3.954636e-06	-2.369066e-08	-2.848350e+01	-1.550718e+03
2.760000e-06	-4.084304e-06	-2.408291e-08	-2.941744e+01	-1.575968e+03
2.770000e-06	-4.212588e-06	-2.445105e-08	-3.034142e+01	-1.599546e+03
2.780000e-06	-4.339369e-06	-2.479629e-08	-3.125456e+01	-1.621759e+03
2.790000e-06	-4.464674e-06	-2.512144e-08	-3.215708e+01	-1.642873e+03
2.800000e-06	-4.588405e-06	-2.542986e-08	-3.304825e+01	-1.663075e+03
2.810000e-06	-4.710537e-06	-2.572408e-08	-3.392792e+01	-1.682447e+03
2.820000e-06	-4.831001e-06	-2.600448e-08	-3.479557e+01	-1.700980e+03
2.830000e-06	-4.949636e-06	-2.626910e-08	-3.565004e+01	-1.718611e+03
2.840000e-06	-5.066341e-06	-2.651820e-08	-3.649062e+01	-1.735263e+03
2.850000e-06	-5.180961e-06	-2.675425e-08	-3.731618e+01	-1.750894e+03
2.860000e-06	-5.293476e-06	-2.698148e-08	-3.812657e+01	-1.765528e+03
2.870000e-06	-5.403923e-06	-2.720033e-08	-3.892207e+01	-1.779251e+03
2.880000e-06	-5.512371e-06	-2.740738e-08	-3.970318e+01	-1.792206e+03
2.890000e-06	-5.618988e-06	-2.760262e-08	-4.047109e+01	-1.804550e+03
2.900000e-06	-5.723676e-06	-2.778710e-08	-4.122511e+01	-1.816422e+03
2.910000e-06	-5.826194e-06	-2.796106e-08	-4.196351e+01	-1.827909e+03
2.920000e-06	-5.926495e-06	-2.812714e-08	-4.268593e+01	-1.839034e+03
2.930000e-06	-6.024697e-06	-2.828707e-08	-4.339324e+01	-1.849761e+03
2.940000e-06	-6.120800e-06	-2.844146e-08	-4.408542e+01	-1.860016e+03
