# Temperatura_=_36.67
# Concentracion g/m^3_=_28200.0
# C_Vs_to_Am_M_A/Vsm_=_65563218390.804596
# pendiente_HvsI_1/m_=_3716.3
# ordenada_HvsI_A/m_=_1297.0
# frecuencia_Hz_=_302551.86857817014

Tiempo_(s)	Campo_(V.s)	Magnetizacion_(V.s)	Campo_(kA/m)	Magnetizacion_(A/m)
0.000000e+00	-7.919492e-06	-2.397129e-08	-5.683684e+01	-1.569706e+03
1.000000e-08	-7.915736e-06	-2.397123e-08	-5.680988e+01	-1.569257e+03
2.000000e-08	-7.909374e-06	-2.396028e-08	-5.676422e+01	-1.568674e+03
3.000000e-08	-7.900335e-06	-2.395162e-08	-5.669935e+01	-1.567998e+03
4.000000e-08	-7.888463e-06	-2.394352e-08	-5.661415e+01	-1.567259e+03
5.000000e-08	-7.873687e-06	-2.392944e-08	-5.650810e+01	-1.566466e+03
6.000000e-08	-7.856185e-06	-2.390762e-08	-5.638250e+01	-1.565608e+03
7.000000e-08	-7.836403e-06	-2.388054e-08	-5.624052e+01	-1.564653e+03
8.000000e-08	-7.814335e-06	-2.387693e-08	-5.608214e+01	-1.563566e+03
9.000000e-08	-7.789393e-06	-2.393972e-08	-5.590314e+01	-1.562317e+03
1.000000e-07	-7.761227e-06	-2.389037e-08	-5.570099e+01	-1.560892e+03
1.100000e-07	-7.730118e-06	-2.379630e-08	-5.547773e+01	-1.559304e+03
1.200000e-07	-7.696223e-06	-2.377757e-08	-5.523447e+01	-1.557583e+03
1.300000e-07	-7.659630e-06	-2.376100e-08	-5.497185e+01	-1.555769e+03
1.400000e-07	-7.620700e-06	-2.369743e-08	-5.469246e+01	-1.553898e+03
1.500000e-07	-7.579560e-06	-2.362242e-08	-5.439721e+01	-1.551987e+03
1.600000e-07	-7.536085e-06	-2.371020e-08	-5.408519e+01	-1.550027e+03
1.700000e-07	-7.489987e-06	-2.365892e-08	-5.375435e+01	-1.547982e+03
1.800000e-07	-7.441090e-06	-2.350705e-08	-5.340343e+01	-1.545796e+03
1.900000e-07	-7.389278e-06	-2.356664e-08	-5.303158e+01	-1.543408e+03
2.000000e-07	-7.334580e-06	-2.349518e-08	-5.263902e+01	-1.540768e+03
2.100000e-07	-7.277194e-06	-2.344469e-08	-5.222718e+01	-1.537849e+03
2.200000e-07	-7.217166e-06	-2.342918e-08	-5.179636e+01	-1.534655e+03
2.300000e-07	-7.154541e-06	-2.334716e-08	-5.134691e+01	-1.531218e+03
2.400000e-07	-7.089188e-06	-2.332100e-08	-5.087788e+01	-1.527586e+03
2.500000e-07	-7.021075e-06	-2.321924e-08	-5.038905e+01	-1.523806e+03
2.600000e-07	-6.950330e-06	-2.318822e-08	-4.988132e+01	-1.519909e+03
2.700000e-07	-6.876868e-06	-2.311142e-08	-4.935410e+01	-1.515898e+03
2.800000e-07	-6.800727e-06	-2.305135e-08	-4.880765e+01	-1.511747e+03
2.900000e-07	-6.721808e-06	-2.298708e-08	-4.824127e+01	-1.507405e+03
3.000000e-07	-6.640169e-06	-2.289257e-08	-4.765535e+01	-1.502815e+03
3.100000e-07	-6.556230e-06	-2.283246e-08	-4.705294e+01	-1.497925e+03
3.200000e-07	-6.470091e-06	-2.273262e-08	-4.643474e+01	-1.492708e+03
3.300000e-07	-6.381634e-06	-2.267907e-08	-4.579990e+01	-1.487166e+03
3.400000e-07	-6.290784e-06	-2.257954e-08	-4.514788e+01	-1.481330e+03
3.500000e-07	-6.197654e-06	-2.248495e-08	-4.447950e+01	-1.475243e+03
3.600000e-07	-6.102351e-06	-2.240218e-08	-4.379553e+01	-1.468950e+03
3.700000e-07	-6.004798e-06	-2.229931e-08	-4.309540e+01	-1.462473e+03
3.800000e-07	-5.905001e-06	-2.219121e-08	-4.237918e+01	-1.455804e+03
3.900000e-07	-5.803103e-06	-2.207992e-08	-4.164788e+01	-1.448902e+03
4.000000e-07	-5.699147e-06	-2.197755e-08	-4.090180e+01	-1.441699e+03
4.100000e-07	-5.593171e-06	-2.184400e-08	-4.014123e+01	-1.434117e+03
4.200000e-07	-5.485276e-06	-2.172446e-08	-3.936689e+01	-1.426093e+03
4.300000e-07	-5.375508e-06	-2.160026e-08	-3.857910e+01	-1.417588e+03
4.400000e-07	-5.263721e-06	-2.146621e-08	-3.777682e+01	-1.408600e+03
4.500000e-07	-5.149833e-06	-2.131883e-08	-3.695947e+01	-1.399161e+03
4.600000e-07	-5.033939e-06	-2.117516e-08	-3.612772e+01	-1.389320e+03
4.700000e-07	-4.916224e-06	-2.102123e-08	-3.528290e+01	-1.379120e+03
4.800000e-07	-4.796735e-06	-2.085473e-08	-3.442535e+01	-1.368584e+03
4.900000e-07	-4.675463e-06	-2.068786e-08	-3.355500e+01	-1.357690e+03
5.000000e-07	-4.552497e-06	-2.051258e-08	-3.267249e+01	-1.346373e+03
5.100000e-07	-4.427845e-06	-2.032720e-08	-3.177789e+01	-1.334536e+03
5.200000e-07	-4.301609e-06	-2.012473e-08	-3.087191e+01	-1.322066e+03
5.300000e-07	-4.173747e-06	-1.992337e-08	-2.995427e+01	-1.308864e+03
5.400000e-07	-4.044324e-06	-1.970850e-08	-2.902542e+01	-1.294862e+03
5.500000e-07	-3.913428e-06	-1.948266e-08	-2.808600e+01	-1.280038e+03
5.600000e-07	-3.781066e-06	-1.924021e-08	-2.713606e+01	-1.264411e+03
5.700000e-07	-3.647350e-06	-1.898981e-08	-2.617641e+01	-1.248022e+03
5.800000e-07	-3.512219e-06	-1.872889e-08	-2.520660e+01	-1.230907e+03
5.900000e-07	-3.375607e-06	-1.845666e-08	-2.422615e+01	-1.213067e+03
6.000000e-07	-3.237657e-06	-1.817161e-08	-2.323611e+01	-1.194448e+03
6.100000e-07	-3.098485e-06	-1.786961e-08	-2.223730e+01	-1.174933e+03
6.200000e-07	-2.958032e-06	-1.755070e-08	-2.122929e+01	-1.154351e+03
6.300000e-07	-2.816216e-06	-1.720747e-08	-2.021150e+01	-1.132505e+03
6.400000e-07	-2.673219e-06	-1.684565e-08	-1.918523e+01	-1.109204e+03
6.500000e-07	-2.529261e-06	-1.646262e-08	-1.815207e+01	-1.084286e+03
6.600000e-07	-2.384441e-06	-1.606010e-08	-1.711272e+01	-1.057640e+03
6.700000e-07	-2.238919e-06	-1.562990e-08	-1.606834e+01	-1.029191e+03
6.800000e-07	-2.092660e-06	-1.517134e-08	-1.501866e+01	-9.988828e+02
6.900000e-07	-1.945638e-06	-1.468258e-08	-1.396351e+01	-9.666291e+02
7.000000e-07	-1.797985e-06	-1.415570e-08	-1.290383e+01	-9.322799e+02
7.100000e-07	-1.649767e-06	-1.358991e-08	-1.184009e+01	-8.955935e+02
7.200000e-07	-1.501012e-06	-1.298294e-08	-1.077251e+01	-8.562383e+02
7.300000e-07	-1.351800e-06	-1.233162e-08	-9.701634e+00	-8.138291e+02
7.400000e-07	-1.202139e-06	-1.162761e-08	-8.627544e+00	-7.679925e+02
7.500000e-07	-1.052080e-06	-1.087057e-08	-7.550601e+00	-7.184529e+02
7.600000e-07	-9.016474e-07	-1.006041e-08	-6.470969e+00	-6.651150e+02
7.700000e-07	-7.508484e-07	-9.198065e-09	-5.388710e+00	-6.081248e+02
7.800000e-07	-5.997785e-07	-8.284602e-09	-4.304507e+00	-5.478859e+02
7.900000e-07	-4.484748e-07	-7.327728e-09	-3.218627e+00	-4.850234e+02
8.000000e-07	-2.969654e-07	-6.341409e-09	-2.131270e+00	-4.202960e+02
8.100000e-07	-1.453093e-07	-5.335170e-09	-1.042860e+00	-3.544715e+02
8.200000e-07	6.425222e-09	-4.319859e-09	4.611271e-02	-2.881919e+02
8.300000e-07	1.581307e-07	-3.304382e-09	1.134877e+00	-2.218575e+02
8.400000e-07	3.097687e-07	-2.291365e-09	2.223157e+00	-1.555595e+02
8.500000e-07	4.613161e-07	-1.277907e-09	3.310787e+00	-8.907952e+01
8.600000e-07	6.127043e-07	-2.629751e-10	4.397274e+00	-2.195971e+01
8.700000e-07	7.639539e-07	7.649412e-10	5.482766e+00	4.636667e+01
8.800000e-07	9.149615e-07	1.820048e-09	6.566522e+00	1.164119e+02
8.900000e-07	1.065654e-06	2.913186e-09	7.648013e+00	1.884711e+02
9.000000e-07	1.215994e-06	4.043567e-09	8.726979e+00	2.624963e+02
9.100000e-07	1.365883e-06	5.202102e-09	9.802710e+00	3.380347e+02
9.200000e-07	1.515231e-06	6.376882e-09	1.087455e+01	4.142456e+02
9.300000e-07	1.663953e-06	7.540498e-09	1.194190e+01	4.899935e+02
9.400000e-07	1.812098e-06	8.667135e-09	1.300512e+01	5.639979e+02
9.500000e-07	1.959662e-06	9.738540e-09	1.406416e+01	6.350087e+02
9.600000e-07	2.106544e-06	1.074384e-08	1.511830e+01	7.019723e+02
9.700000e-07	2.252684e-06	1.167437e-08	1.616712e+01	7.641564e+02
9.800000e-07	2.398010e-06	1.252833e-08	1.721011e+01	8.212120e+02
9.900000e-07	2.542422e-06	1.331257e-08	1.824652e+01	8.731655e+02
1.000000e-06	2.685796e-06	1.403005e-08	1.927550e+01	9.203500e+02
1.010000e-06	2.828119e-06	1.468877e-08	2.029692e+01	9.632956e+02
1.020000e-06	2.969334e-06	1.529362e-08	2.131040e+01	1.002607e+03
1.030000e-06	3.109305e-06	1.585086e-08	2.231495e+01	1.038855e+03
1.040000e-06	3.248014e-06	1.636098e-08	2.331044e+01	1.072501e+03
1.050000e-06	3.385474e-06	1.683117e-08	2.429697e+01	1.103865e+03
1.060000e-06	3.521700e-06	1.726842e-08	2.527464e+01	1.133139e+03
1.070000e-06	3.656622e-06	1.767472e-08	2.624295e+01	1.160427e+03
1.080000e-06	3.790151e-06	1.805433e-08	2.720126e+01	1.185796e+03
1.090000e-06	3.922284e-06	1.840932e-08	2.814956e+01	1.209331e+03
1.100000e-06	4.053066e-06	1.874580e-08	2.908816e+01	1.231159e+03
1.110000e-06	4.182459e-06	1.906110e-08	3.001679e+01	1.251457e+03
1.120000e-06	4.310338e-06	1.935575e-08	3.093456e+01	1.270435e+03
1.130000e-06	4.436683e-06	1.963184e-08	3.184131e+01	1.288302e+03
1.140000e-06	4.561512e-06	1.989039e-08	3.273719e+01	1.305236e+03
1.150000e-06	4.684812e-06	2.013259e-08	3.362209e+01	1.321358e+03
1.160000e-06	4.806510e-06	2.036144e-08	3.449550e+01	1.336721e+03
1.170000e-06	4.926481e-06	2.057750e-08	3.535651e+01	1.351326e+03
1.180000e-06	5.044614e-06	2.078160e-08	3.620433e+01	1.365144e+03
1.190000e-06	5.160871e-06	2.097474e-08	3.703869e+01	1.378147e+03
1.200000e-06	5.275191e-06	2.115887e-08	3.785914e+01	1.390331e+03
1.210000e-06	5.387488e-06	2.133445e-08	3.866508e+01	1.401739e+03
1.220000e-06	5.497809e-06	2.150110e-08	3.945683e+01	1.412449e+03
1.230000e-06	5.606206e-06	2.165889e-08	4.023478e+01	1.422566e+03
1.240000e-06	5.712600e-06	2.180798e-08	4.099835e+01	1.432198e+03
1.250000e-06	5.816813e-06	2.194929e-08	4.174627e+01	1.441426e+03
1.260000e-06	5.918887e-06	2.208278e-08	4.247884e+01	1.450292e+03
1.270000e-06	6.018874e-06	2.220966e-08	4.319643e+01	1.458790e+03
1.280000e-06	6.116571e-06	2.233103e-08	4.389758e+01	1.466882e+03
1.290000e-06	6.211914e-06	2.244543e-08	4.458184e+01	1.474512e+03
1.300000e-06	6.305018e-06	2.255260e-08	4.525003e+01	1.481635e+03
1.310000e-06	6.395935e-06	2.265318e-08	4.590253e+01	1.488233e+03
1.320000e-06	6.484566e-06	2.274726e-08	4.653862e+01	1.494334e+03
1.330000e-06	6.570838e-06	2.283569e-08	4.715778e+01	1.500004e+03
1.340000e-06	6.654793e-06	2.292051e-08	4.776031e+01	1.505336e+03
1.350000e-06	6.736399e-06	2.300009e-08	4.834598e+01	1.510425e+03
1.360000e-06	6.815556e-06	2.307318e-08	4.891408e+01	1.515350e+03
1.370000e-06	6.892224e-06	2.314363e-08	4.946431e+01	1.520154e+03
1.380000e-06	6.966223e-06	2.321240e-08	4.999539e+01	1.524835e+03
1.390000e-06	7.037566e-06	2.327770e-08	5.050740e+01	1.529358e+03
1.400000e-06	7.106484e-06	2.333997e-08	5.100202e+01	1.533665e+03
1.410000e-06	7.172924e-06	2.340121e-08	5.147885e+01	1.537699e+03
1.420000e-06	7.236742e-06	2.345902e-08	5.193686e+01	1.541425e+03
1.430000e-06	7.298033e-06	2.351215e-08	5.237673e+01	1.544836e+03
1.440000e-06	7.356851e-06	2.356155e-08	5.279886e+01	1.547961e+03
1.450000e-06	7.413088e-06	2.360793e-08	5.320246e+01	1.550853e+03
1.460000e-06	7.466640e-06	2.365129e-08	5.358679e+01	1.553572e+03
1.470000e-06	7.517194e-06	2.369161e-08	5.394961e+01	1.556165e+03
1.480000e-06	7.564697e-06	2.372896e-08	5.429053e+01	1.558658e+03
1.490000e-06	7.609515e-06	2.376375e-08	5.461218e+01	1.561040e+03
1.500000e-06	7.651723e-06	2.379611e-08	5.491511e+01	1.563277e+03
1.510000e-06	7.691134e-06	2.382579e-08	5.519795e+01	1.565318e+03
1.520000e-06	7.727840e-06	2.385375e-08	5.546138e+01	1.567113e+03
1.530000e-06	7.761829e-06	2.387874e-08	5.570532e+01	1.568633e+03
1.540000e-06	7.792968e-06	2.389762e-08	5.592880e+01	1.569878e+03
1.550000e-06	7.821402e-06	2.391133e-08	5.613286e+01	1.570877e+03
1.560000e-06	7.847038e-06	2.392328e-08	5.631684e+01	1.571685e+03
1.570000e-06	7.869747e-06	2.393366e-08	5.647983e+01	1.572361e+03
1.580000e-06	7.889762e-06	2.394437e-08	5.662347e+01	1.572957e+03
1.590000e-06	7.906999e-06	2.395562e-08	5.674717e+01	1.573505e+03
1.600000e-06	7.921214e-06	2.396440e-08	5.684919e+01	1.574004e+03
1.610000e-06	7.932345e-06	2.397114e-08	5.692908e+01	1.574430e+03
1.620000e-06	7.940393e-06	2.397615e-08	5.698684e+01	1.574740e+03
1.630000e-06	7.945580e-06	2.397876e-08	5.702407e+01	1.574892e+03
1.640000e-06	7.948009e-06	2.397905e-08	5.704150e+01	1.574857e+03
1.650000e-06	7.947653e-06	2.397784e-08	5.703895e+01	1.574625e+03
1.660000e-06	7.944621e-06	2.396548e-08	5.701718e+01	1.574215e+03
1.670000e-06	7.938900e-06	2.395982e-08	5.697613e+01	1.573660e+03
1.680000e-06	7.930505e-06	2.395501e-08	5.691588e+01	1.573003e+03
1.690000e-06	7.919545e-06	2.394661e-08	5.683722e+01	1.572277e+03
1.700000e-06	7.905773e-06	2.393996e-08	5.673838e+01	1.571497e+03
1.710000e-06	7.889255e-06	2.393686e-08	5.661983e+01	1.570656e+03
1.720000e-06	7.870451e-06	2.393654e-08	5.648487e+01	1.569728e+03
1.730000e-06	7.849338e-06	2.387014e-08	5.633335e+01	1.568676e+03
1.740000e-06	7.825258e-06	2.377348e-08	5.616053e+01	1.567468e+03
1.750000e-06	7.797557e-06	2.382507e-08	5.596173e+01	1.566087e+03
1.760000e-06	7.766258e-06	2.383819e-08	5.573710e+01	1.564536e+03
1.770000e-06	7.732177e-06	2.377988e-08	5.549251e+01	1.562844e+03
1.780000e-06	7.695957e-06	2.378002e-08	5.523257e+01	1.561048e+03
1.790000e-06	7.657445e-06	2.384630e-08	5.495617e+01	1.559188e+03
1.800000e-06	7.616835e-06	2.369194e-08	5.466472e+01	1.557285e+03
1.810000e-06	7.574090e-06	2.363750e-08	5.435794e+01	1.555339e+03
1.820000e-06	7.528581e-06	2.376059e-08	5.403133e+01	1.553319e+03
1.830000e-06	7.480472e-06	2.361121e-08	5.368606e+01	1.551174e+03
1.840000e-06	7.429613e-06	2.366337e-08	5.332106e+01	1.548841e+03
1.850000e-06	7.375621e-06	2.355902e-08	5.293357e+01	1.546266e+03
1.860000e-06	7.318840e-06	2.349386e-08	5.252606e+01	1.543416e+03
1.870000e-06	7.259509e-06	2.352117e-08	5.210025e+01	1.540288e+03
1.880000e-06	7.197561e-06	2.335308e-08	5.165566e+01	1.536907e+03
1.890000e-06	7.132771e-06	2.341784e-08	5.119068e+01	1.533318e+03
1.900000e-06	7.065256e-06	2.332737e-08	5.070613e+01	1.529570e+03
1.910000e-06	6.995025e-06	2.327943e-08	5.020209e+01	1.525699e+03
1.920000e-06	6.921983e-06	2.323392e-08	4.967788e+01	1.521717e+03
1.930000e-06	6.846297e-06	2.312283e-08	4.913470e+01	1.517604e+03
1.940000e-06	6.767886e-06	2.311821e-08	4.857196e+01	1.513315e+03
1.950000e-06	6.686905e-06	2.298711e-08	4.799077e+01	1.508791e+03
1.960000e-06	6.603487e-06	2.295867e-08	4.739210e+01	1.503979e+03
1.970000e-06	6.517575e-06	2.285243e-08	4.677552e+01	1.498843e+03
1.980000e-06	6.429279e-06	2.277956e-08	4.614183e+01	1.493380e+03
1.990000e-06	6.338733e-06	2.271200e-08	4.549200e+01	1.487612e+03
2.000000e-06	6.246004e-06	2.259034e-08	4.482650e+01	1.481583e+03
2.010000e-06	6.150970e-06	2.252871e-08	4.414446e+01	1.475337e+03
2.020000e-06	6.053741e-06	2.241462e-08	4.344666e+01	1.468904e+03
2.030000e-06	5.954364e-06	2.233280e-08	4.273345e+01	1.462286e+03
2.040000e-06	5.852768e-06	2.219784e-08	4.200431e+01	1.455446e+03
2.050000e-06	5.749079e-06	2.210524e-08	4.126015e+01	1.448324e+03
2.060000e-06	5.643506e-06	2.198339e-08	4.050248e+01	1.440843e+03
2.070000e-06	5.536065e-06	2.185610e-08	3.973139e+01	1.432933e+03
2.080000e-06	5.426649e-06	2.173291e-08	3.894613e+01	1.424549e+03
2.090000e-06	5.315267e-06	2.160200e-08	3.814676e+01	1.415679e+03
2.100000e-06	5.201910e-06	2.147135e-08	3.733322e+01	1.406348e+03
2.110000e-06	5.086547e-06	2.131451e-08	3.650527e+01	1.396601e+03
2.120000e-06	4.969197e-06	2.117198e-08	3.566308e+01	1.386487e+03
2.130000e-06	4.849959e-06	2.100644e-08	3.480733e+01	1.376034e+03
2.140000e-06	4.728884e-06	2.084372e-08	3.393839e+01	1.365233e+03
2.150000e-06	4.606171e-06	2.066479e-08	3.305770e+01	1.354029e+03
2.160000e-06	4.481773e-06	2.049475e-08	3.216492e+01	1.342331e+03
2.170000e-06	4.355619e-06	2.030521e-08	3.125953e+01	1.330029e+03
2.180000e-06	4.227944e-06	2.010992e-08	3.034323e+01	1.317017e+03
2.190000e-06	4.098765e-06	1.990296e-08	2.941613e+01	1.303218e+03
2.200000e-06	3.968069e-06	1.968676e-08	2.847815e+01	1.288598e+03
2.210000e-06	3.835817e-06	1.945685e-08	2.752900e+01	1.273167e+03
2.220000e-06	3.702097e-06	1.921567e-08	2.656932e+01	1.256964e+03
2.230000e-06	3.567053e-06	1.896611e-08	2.560013e+01	1.240027e+03
2.240000e-06	3.430695e-06	1.869543e-08	2.462151e+01	1.222370e+03
2.250000e-06	3.293051e-06	1.841244e-08	2.363366e+01	1.203954e+03
2.260000e-06	3.154077e-06	1.811344e-08	2.263627e+01	1.184676e+03
2.270000e-06	3.013762e-06	1.780290e-08	2.162925e+01	1.164378e+03
2.280000e-06	2.872271e-06	1.747238e-08	2.061379e+01	1.142866e+03
2.290000e-06	2.729745e-06	1.712687e-08	1.959091e+01	1.119944e+03
2.300000e-06	2.586231e-06	1.675795e-08	1.856094e+01	1.095442e+03
2.310000e-06	2.441840e-06	1.636661e-08	1.752467e+01	1.069234e+03
2.320000e-06	2.296653e-06	1.594806e-08	1.648269e+01	1.041241e+03
2.330000e-06	2.150693e-06	1.550048e-08	1.543516e+01	1.011403e+03
2.340000e-06	2.003997e-06	1.501983e-08	1.438234e+01	9.796452e+02
2.350000e-06	1.856555e-06	1.450146e-08	1.332418e+01	9.458378e+02
2.360000e-06	1.708424e-06	1.394524e-08	1.226106e+01	9.097626e+02
2.370000e-06	1.559716e-06	1.334837e-08	1.119381e+01	8.711086e+02
2.380000e-06	1.410482e-06	1.270775e-08	1.012279e+01	8.294987e+02
2.390000e-06	1.260874e-06	1.202055e-08	9.049074e+00	7.845491e+02
2.400000e-06	1.110917e-06	1.128311e-08	7.972861e+00	7.359515e+02
2.410000e-06	9.605104e-07	1.049224e-08	6.893419e+00	6.835586e+02
2.420000e-06	8.097239e-07	9.646279e-09	5.811250e+00	6.274525e+02
2.430000e-06	6.586806e-07	8.746619e-09	4.727238e+00	5.679737e+02
2.440000e-06	5.074114e-07	7.799903e-09	3.641605e+00	5.056983e+02
2.450000e-06	3.560075e-07	6.815718e-09	2.555005e+00	4.413622e+02
2.460000e-06	2.045199e-07	5.808093e-09	1.467805e+00	3.757437e+02
2.470000e-06	5.290067e-08	4.788872e-09	3.796590e-01	3.095283e+02
2.480000e-06	-9.879373e-08	3.766802e-09	-7.090256e-01	2.431854e+02
2.490000e-06	-2.504460e-07	2.746679e-09	-1.797408e+00	1.768863e+02
2.500000e-06	-4.019807e-07	1.729922e-09	-2.884947e+00	1.104863e+02
2.510000e-06	-5.534049e-07	7.119056e-10	-3.971692e+00	4.357693e+01
2.520000e-06	-7.046599e-07	-3.202050e-10	-5.057224e+00	-2.439574e+01
2.530000e-06	-8.557203e-07	-1.374158e-09	-6.141358e+00	-9.397353e+01
2.540000e-06	-1.006537e-06	-2.459251e-09	-7.223744e+00	-1.655197e+02
2.550000e-06	-1.156976e-06	-3.581578e-09	-8.303421e+00	-2.390807e+02
2.560000e-06	-1.306990e-06	-4.734957e-09	-9.380042e+00	-3.143065e+02
2.570000e-06	-1.456520e-06	-5.906748e-09	-1.045319e+01	-3.904474e+02
2.580000e-06	-1.605489e-06	-7.078613e-09	-1.152232e+01	-4.664294e+02
2.590000e-06	-1.753861e-06	-8.227504e-09	-1.258716e+01	-5.409921e+02
2.600000e-06	-1.901616e-06	-9.329116e-09	-1.364757e+01	-6.128613e+02
2.610000e-06	-2.048652e-06	-1.036780e-08	-1.470282e+01	-6.809204e+02
2.620000e-06	-2.194852e-06	-1.133307e-08	-1.575208e+01	-7.443485e+02
2.630000e-06	-2.340180e-06	-1.222005e-08	-1.679507e+01	-8.026986e+02
2.640000e-06	-2.484612e-06	-1.303232e-08	-1.783163e+01	-8.559078e+02
2.650000e-06	-2.628161e-06	-1.377563e-08	-1.886186e+01	-9.042414e+02
2.660000e-06	-2.770764e-06	-1.445669e-08	-1.988530e+01	-9.481919e+02
2.670000e-06	-2.912246e-06	-1.508149e-08	-2.090069e+01	-9.883565e+02
2.680000e-06	-3.052475e-06	-1.565623e-08	-2.190709e+01	-1.025323e+03
2.690000e-06	-3.191435e-06	-1.618578e-08	-2.290438e+01	-1.059585e+03
2.700000e-06	-3.329159e-06	-1.667299e-08	-2.389280e+01	-1.091498e+03
2.710000e-06	-3.465601e-06	-1.712272e-08	-2.487202e+01	-1.121283e+03
2.720000e-06	-3.600788e-06	-1.754148e-08	-2.584224e+01	-1.149061e+03
2.730000e-06	-3.734722e-06	-1.793275e-08	-2.680346e+01	-1.174905e+03
2.740000e-06	-3.867305e-06	-1.829914e-08	-2.775498e+01	-1.198890e+03
2.750000e-06	-3.998477e-06	-1.863999e-08	-2.869638e+01	-1.221131e+03
2.760000e-06	-4.128225e-06	-1.895741e-08	-2.962756e+01	-1.241793e+03
2.770000e-06	-4.256588e-06	-1.925663e-08	-3.054880e+01	-1.261081e+03
2.780000e-06	-4.383531e-06	-1.953836e-08	-3.145985e+01	-1.279209e+03
2.790000e-06	-4.508944e-06	-1.980267e-08	-3.235992e+01	-1.296364e+03
2.800000e-06	-4.632736e-06	-2.005064e-08	-3.324836e+01	-1.312682e+03
2.810000e-06	-4.754874e-06	-2.028800e-08	-3.412492e+01	-1.328233e+03
2.820000e-06	-4.875313e-06	-2.051659e-08	-3.498929e+01	-1.343031e+03
2.830000e-06	-4.993947e-06	-2.073227e-08	-3.584070e+01	-1.357051e+03
2.840000e-06	-5.110603e-06	-2.093304e-08	-3.667792e+01	-1.370259e+03
2.850000e-06	-5.225193e-06	-2.112050e-08	-3.750031e+01	-1.382647e+03
2.860000e-06	-5.337695e-06	-2.129810e-08	-3.830772e+01	-1.394244e+03
2.870000e-06	-5.448070e-06	-2.146622e-08	-3.909987e+01	-1.405120e+03
2.880000e-06	-5.556506e-06	-2.162448e-08	-3.987809e+01	-1.415376e+03
2.890000e-06	-5.663066e-06	-2.177553e-08	-4.064285e+01	-1.425122e+03
2.900000e-06	-5.767625e-06	-2.192048e-08	-4.139326e+01	-1.434446e+03
2.910000e-06	-5.870046e-06	-2.205789e-08	-4.212831e+01	-1.443402e+03
2.920000e-06	-5.970229e-06	-2.218836e-08	-4.284731e+01	-1.451996e+03
2.930000e-06	-6.068260e-06	-2.231201e-08	-4.355086e+01	-1.460195e+03
2.940000e-06	-6.164204e-06	-2.242749e-08	-4.423944e+01	-1.467947e+03
