# Temperatura_=_69.75
# Concentracion g/m^3_=_28200.0
# C_Vs_to_Am_M_A/Vsm_=_65563218390.804596
# pendiente_HvsI_1/m_=_3716.3
# ordenada_HvsI_A/m_=_1297.0
# frecuencia_Hz_=_302555.0557971224

Tiempo_(s)	Campo_(V.s)	Magnetizacion_(V.s)	Campo_(kA/m)	Magnetizacion_(A/m)
0.000000e+00	-7.940802e-06	-2.748278e-08	-5.683345e+01	-1.799464e+03
1.000000e-08	-7.937789e-06	-2.747776e-08	-5.681188e+01	-1.798877e+03
2.000000e-08	-7.932167e-06	-2.746980e-08	-5.677164e+01	-1.798150e+03
3.000000e-08	-7.924015e-06	-2.745945e-08	-5.671330e+01	-1.797344e+03
4.000000e-08	-7.913051e-06	-2.744985e-08	-5.663483e+01	-1.796494e+03
5.000000e-08	-7.899151e-06	-2.743695e-08	-5.653535e+01	-1.795600e+03
6.000000e-08	-7.882425e-06	-2.741691e-08	-5.641563e+01	-1.794625e+03
7.000000e-08	-7.863232e-06	-2.739429e-08	-5.627827e+01	-1.793504e+03
8.000000e-08	-7.841793e-06	-2.737917e-08	-5.612483e+01	-1.792171e+03
9.000000e-08	-7.817722e-06	-2.737545e-08	-5.595255e+01	-1.790575e+03
1.000000e-07	-7.790550e-06	-2.736088e-08	-5.575808e+01	-1.788705e+03
1.100000e-07	-7.760228e-06	-2.730212e-08	-5.554105e+01	-1.786597e+03
1.200000e-07	-7.726974e-06	-2.725142e-08	-5.530305e+01	-1.784324e+03
1.300000e-07	-7.690999e-06	-2.722331e-08	-5.504557e+01	-1.781982e+03
1.400000e-07	-7.652574e-06	-2.718197e-08	-5.477056e+01	-1.779660e+03
1.500000e-07	-7.611949e-06	-2.711854e-08	-5.447980e+01	-1.777415e+03
1.600000e-07	-7.569019e-06	-2.707345e-08	-5.417254e+01	-1.775248e+03
1.700000e-07	-7.523519e-06	-2.706383e-08	-5.384689e+01	-1.773107e+03
1.800000e-07	-7.475393e-06	-2.697856e-08	-5.350245e+01	-1.770887e+03
1.900000e-07	-7.424399e-06	-2.692572e-08	-5.313748e+01	-1.768462e+03
2.000000e-07	-7.370347e-06	-2.692508e-08	-5.275062e+01	-1.765710e+03
2.100000e-07	-7.313501e-06	-2.687568e-08	-5.234377e+01	-1.762542e+03
2.200000e-07	-7.254035e-06	-2.682889e-08	-5.191816e+01	-1.758922e+03
2.300000e-07	-7.191994e-06	-2.674943e-08	-5.147412e+01	-1.754870e+03
2.400000e-07	-7.127278e-06	-2.666543e-08	-5.101094e+01	-1.750452e+03
2.500000e-07	-7.059799e-06	-2.659415e-08	-5.052799e+01	-1.745754e+03
2.600000e-07	-6.989717e-06	-2.651687e-08	-5.002640e+01	-1.740862e+03
2.700000e-07	-6.916915e-06	-2.645198e-08	-4.950534e+01	-1.735829e+03
2.800000e-07	-6.841335e-06	-2.636434e-08	-4.896441e+01	-1.730667e+03
2.900000e-07	-6.763030e-06	-2.626843e-08	-4.840396e+01	-1.725344e+03
3.000000e-07	-6.681933e-06	-2.617089e-08	-4.782354e+01	-1.719800e+03
3.100000e-07	-6.598404e-06	-2.607689e-08	-4.722571e+01	-1.713964e+03
3.200000e-07	-6.512711e-06	-2.598932e-08	-4.661239e+01	-1.707782e+03
3.300000e-07	-6.424696e-06	-2.590798e-08	-4.598246e+01	-1.701226e+03
3.400000e-07	-6.334286e-06	-2.582500e-08	-4.533538e+01	-1.694307e+03
3.500000e-07	-6.241558e-06	-2.569749e-08	-4.467172e+01	-1.687061e+03
3.600000e-07	-6.146556e-06	-2.557637e-08	-4.399178e+01	-1.679535e+03
3.700000e-07	-6.049199e-06	-2.546713e-08	-4.329498e+01	-1.671764e+03
3.800000e-07	-5.949643e-06	-2.534772e-08	-4.258244e+01	-1.663757e+03
3.900000e-07	-5.848106e-06	-2.522294e-08	-4.185572e+01	-1.655483e+03
4.000000e-07	-5.744503e-06	-2.509465e-08	-4.111422e+01	-1.646881e+03
4.100000e-07	-5.638769e-06	-2.495184e-08	-4.035747e+01	-1.637873e+03
4.200000e-07	-5.531117e-06	-2.478998e-08	-3.958699e+01	-1.628385e+03
4.300000e-07	-5.421584e-06	-2.463608e-08	-3.880305e+01	-1.618369e+03
4.400000e-07	-5.310035e-06	-2.447775e-08	-3.800467e+01	-1.607816e+03
4.500000e-07	-5.196430e-06	-2.431383e-08	-3.719158e+01	-1.596753e+03
4.600000e-07	-5.080822e-06	-2.414362e-08	-3.636416e+01	-1.585234e+03
4.700000e-07	-4.963318e-06	-2.396906e-08	-3.552317e+01	-1.573312e+03
4.800000e-07	-4.844004e-06	-2.378007e-08	-3.466923e+01	-1.561015e+03
4.900000e-07	-4.722906e-06	-2.358031e-08	-3.380251e+01	-1.548328e+03
5.000000e-07	-4.600081e-06	-2.338069e-08	-3.292343e+01	-1.535184e+03
5.100000e-07	-4.475599e-06	-2.316910e-08	-3.203250e+01	-1.521477e+03
5.200000e-07	-4.349520e-06	-2.294100e-08	-3.113014e+01	-1.507081e+03
5.300000e-07	-4.221902e-06	-2.270310e-08	-3.021675e+01	-1.491880e+03
5.400000e-07	-4.092662e-06	-2.246210e-08	-2.929177e+01	-1.475796e+03
5.500000e-07	-3.961841e-06	-2.220345e-08	-2.835546e+01	-1.458806e+03
5.600000e-07	-3.829521e-06	-2.192781e-08	-2.740843e+01	-1.440936e+03
5.700000e-07	-3.695740e-06	-2.164422e-08	-2.645093e+01	-1.422240e+03
5.800000e-07	-3.560634e-06	-2.135321e-08	-2.548396e+01	-1.402772e+03
5.900000e-07	-3.424190e-06	-2.104825e-08	-2.450742e+01	-1.382545e+03
6.000000e-07	-3.286319e-06	-2.072546e-08	-2.352065e+01	-1.361503e+03
6.100000e-07	-3.147081e-06	-2.038541e-08	-2.252411e+01	-1.339514e+03
6.200000e-07	-3.006571e-06	-2.002311e-08	-2.151846e+01	-1.316379e+03
6.300000e-07	-2.864741e-06	-1.963790e-08	-2.050336e+01	-1.291864e+03
6.400000e-07	-2.721629e-06	-1.923208e-08	-1.947909e+01	-1.265740e+03
6.500000e-07	-2.577449e-06	-1.880697e-08	-1.844717e+01	-1.237820e+03
6.600000e-07	-2.432394e-06	-1.835776e-08	-1.740899e+01	-1.207982e+03
6.700000e-07	-2.286561e-06	-1.787874e-08	-1.636524e+01	-1.176164e+03
6.800000e-07	-2.139972e-06	-1.736425e-08	-1.531609e+01	-1.142332e+03
6.900000e-07	-1.992667e-06	-1.681671e-08	-1.426180e+01	-1.106428e+03
7.000000e-07	-1.844750e-06	-1.623573e-08	-1.320314e+01	-1.068319e+03
7.100000e-07	-1.696298e-06	-1.561471e-08	-1.214064e+01	-1.027753e+03
7.200000e-07	-1.547297e-06	-1.494817e-08	-1.107423e+01	-9.843511e+02
7.300000e-07	-1.397844e-06	-1.422744e-08	-1.000457e+01	-9.376415e+02
7.400000e-07	-1.248011e-06	-1.344905e-08	-8.932192e+00	-8.871308e+02
7.500000e-07	-1.097776e-06	-1.261088e-08	-7.856940e+00	-8.324054e+02
7.600000e-07	-9.471396e-07	-1.171255e-08	-6.778813e+00	-7.732356e+02
7.700000e-07	-7.961590e-07	-1.075330e-08	-5.698223e+00	-7.096574e+02
7.800000e-07	-6.448190e-07	-9.734057e-09	-4.615061e+00	-6.420066e+02
7.900000e-07	-4.932190e-07	-8.657407e-09	-3.530038e+00	-5.708914e+02
8.000000e-07	-3.414991e-07	-7.531445e-09	-2.444158e+00	-4.971016e+02
8.100000e-07	-1.896373e-07	-6.369343e-09	-1.357261e+00	-4.214719e+02
8.200000e-07	-3.763489e-08	-5.188035e-09	-2.693582e-01	-3.447285e+02
8.300000e-07	1.144825e-07	-4.000497e-09	8.193674e-01	-2.673533e+02
8.400000e-07	2.666163e-07	-2.809777e-09	1.908211e+00	-1.895018e+02
8.500000e-07	4.186589e-07	-1.615595e-09	2.996401e+00	-1.109968e+02
8.600000e-07	5.705336e-07	-4.114909e-10	4.083390e+00	-3.140555e+01
8.700000e-07	7.222275e-07	8.120630e-10	5.169085e+00	4.981376e+01
8.800000e-07	8.736754e-07	2.067389e-09	6.253019e+00	1.331258e+02
8.900000e-07	1.024743e-06	3.363686e-09	7.334234e+00	2.187336e+02
9.000000e-07	1.175407e-06	4.699874e-09	8.412557e+00	3.064376e+02
9.100000e-07	1.325640e-06	6.065423e-09	9.487794e+00	3.955722e+02
9.200000e-07	1.475421e-06	7.442556e-09	1.055980e+01	4.850358e+02
9.300000e-07	1.624788e-06	8.803270e-09	1.162884e+01	5.734117e+02
9.400000e-07	1.773590e-06	1.011252e-08	1.269383e+01	6.591531e+02
9.500000e-07	1.921762e-06	1.134557e-08	1.375432e+01	7.407972e+02
9.600000e-07	2.069305e-06	1.248972e-08	1.481031e+01	8.171624e+02
9.700000e-07	2.216041e-06	1.353927e-08	1.586052e+01	8.874900e+02
9.800000e-07	2.362002e-06	1.449534e-08	1.690518e+01	9.515065e+02
9.900000e-07	2.507189e-06	1.536729e-08	1.794431e+01	1.009398e+03
1.000000e-06	2.651393e-06	1.616601e-08	1.897640e+01	1.061709e+03
1.010000e-06	2.794487e-06	1.689599e-08	2.000054e+01	1.109196e+03
1.020000e-06	2.936440e-06	1.756529e-08	2.101652e+01	1.152666e+03
1.030000e-06	3.077240e-06	1.818274e-08	2.202424e+01	1.192843e+03
1.040000e-06	3.216801e-06	1.875508e-08	2.302310e+01	1.230273e+03
1.050000e-06	3.355043e-06	1.928477e-08	2.401252e+01	1.265302e+03
1.060000e-06	3.491967e-06	1.977368e-08	2.499250e+01	1.298097e+03
1.070000e-06	3.627518e-06	2.022612e-08	2.596266e+01	1.328711e+03
1.080000e-06	3.761776e-06	2.064855e-08	2.692356e+01	1.357163e+03
1.090000e-06	3.894787e-06	2.104376e-08	2.787554e+01	1.383510e+03
1.100000e-06	4.026413e-06	2.141534e-08	2.881761e+01	1.407881e+03
1.110000e-06	4.156627e-06	2.176637e-08	2.974957e+01	1.430493e+03
1.120000e-06	4.285330e-06	2.209656e-08	3.067072e+01	1.451613e+03
1.130000e-06	4.412466e-06	2.240757e-08	3.158065e+01	1.471520e+03
1.140000e-06	4.538090e-06	2.269890e-08	3.247975e+01	1.490451e+03
1.150000e-06	4.662176e-06	2.297270e-08	3.336786e+01	1.508562e+03
1.160000e-06	4.784654e-06	2.322937e-08	3.424445e+01	1.525917e+03
1.170000e-06	4.905404e-06	2.347024e-08	3.510868e+01	1.542501e+03
1.180000e-06	5.024370e-06	2.370030e-08	3.596013e+01	1.558252e+03
1.190000e-06	5.141512e-06	2.392234e-08	3.679853e+01	1.573105e+03
1.200000e-06	5.256759e-06	2.413669e-08	3.762337e+01	1.587029e+03
1.210000e-06	5.369997e-06	2.433980e-08	3.843383e+01	1.600056e+03
1.220000e-06	5.481123e-06	2.452804e-08	3.922917e+01	1.612274e+03
1.230000e-06	5.590281e-06	2.470456e-08	4.001044e+01	1.623818e+03
1.240000e-06	5.697542e-06	2.487303e-08	4.077811e+01	1.634828e+03
1.250000e-06	5.802693e-06	2.503444e-08	4.153070e+01	1.645423e+03
1.260000e-06	5.905688e-06	2.518951e-08	4.226785e+01	1.655668e+03
1.270000e-06	6.006566e-06	2.533835e-08	4.298985e+01	1.665567e+03
1.280000e-06	6.105209e-06	2.548022e-08	4.369585e+01	1.675069e+03
1.290000e-06	6.201492e-06	2.561502e-08	4.438496e+01	1.684096e+03
1.300000e-06	6.295507e-06	2.574363e-08	4.505784e+01	1.692573e+03
1.310000e-06	6.387391e-06	2.586510e-08	4.571546e+01	1.700456e+03
1.320000e-06	6.476955e-06	2.597853e-08	4.635648e+01	1.707754e+03
1.330000e-06	6.564121e-06	2.608518e-08	4.698035e+01	1.714524e+03
1.340000e-06	6.649002e-06	2.618631e-08	4.758785e+01	1.720865e+03
1.350000e-06	6.731560e-06	2.628274e-08	4.817873e+01	1.726886e+03
1.360000e-06	6.811656e-06	2.637415e-08	4.875199e+01	1.732684e+03
1.370000e-06	6.889254e-06	2.646080e-08	4.930737e+01	1.738316e+03
1.380000e-06	6.964253e-06	2.654289e-08	4.984415e+01	1.743792e+03
1.390000e-06	7.036589e-06	2.662038e-08	5.036187e+01	1.749079e+03
1.400000e-06	7.106435e-06	2.669196e-08	5.086176e+01	1.754122e+03
1.410000e-06	7.173784e-06	2.675827e-08	5.134379e+01	1.758863e+03
1.420000e-06	7.238532e-06	2.682270e-08	5.180720e+01	1.763265e+03
1.430000e-06	7.300765e-06	2.688678e-08	5.225261e+01	1.767328e+03
1.440000e-06	7.360547e-06	2.694914e-08	5.268048e+01	1.771090e+03
1.450000e-06	7.417709e-06	2.700735e-08	5.308960e+01	1.774612e+03
1.460000e-06	7.472186e-06	2.706308e-08	5.347950e+01	1.777962e+03
1.470000e-06	7.523776e-06	2.711719e-08	5.384873e+01	1.781192e+03
1.480000e-06	7.572327e-06	2.716694e-08	5.419622e+01	1.784318e+03
1.490000e-06	7.618108e-06	2.721125e-08	5.452388e+01	1.787322e+03
1.500000e-06	7.661212e-06	2.724956e-08	5.483238e+01	1.790149e+03
1.510000e-06	7.701513e-06	2.728389e-08	5.512082e+01	1.792733e+03
1.520000e-06	7.739075e-06	2.731468e-08	5.538966e+01	1.795012e+03
1.530000e-06	7.773939e-06	2.734371e-08	5.563918e+01	1.796953e+03
1.540000e-06	7.806019e-06	2.737183e-08	5.586879e+01	1.798562e+03
1.550000e-06	7.835339e-06	2.739659e-08	5.607863e+01	1.799880e+03
1.560000e-06	7.861801e-06	2.741924e-08	5.626802e+01	1.800977e+03
1.570000e-06	7.885352e-06	2.743743e-08	5.643659e+01	1.801927e+03
1.580000e-06	7.906154e-06	2.745132e-08	5.658547e+01	1.802789e+03
1.590000e-06	7.924242e-06	2.746318e-08	5.671492e+01	1.803587e+03
1.600000e-06	7.939434e-06	2.747255e-08	5.682366e+01	1.804311e+03
1.610000e-06	7.951497e-06	2.747908e-08	5.691000e+01	1.804915e+03
1.620000e-06	7.960375e-06	2.748171e-08	5.697354e+01	1.805341e+03
1.630000e-06	7.966329e-06	2.748382e-08	5.701615e+01	1.805534e+03
1.640000e-06	7.969517e-06	2.748402e-08	5.703896e+01	1.805465e+03
1.650000e-06	7.969871e-06	2.748053e-08	5.704150e+01	1.805138e+03
1.660000e-06	7.967589e-06	2.747407e-08	5.702517e+01	1.804595e+03
1.670000e-06	7.962720e-06	2.746436e-08	5.699032e+01	1.803896e+03
1.680000e-06	7.955108e-06	2.745882e-08	5.693584e+01	1.803104e+03
1.690000e-06	7.944821e-06	2.744918e-08	5.686221e+01	1.802262e+03
1.700000e-06	7.931726e-06	2.743454e-08	5.676849e+01	1.801380e+03
1.710000e-06	7.915881e-06	2.741776e-08	5.665508e+01	1.800429e+03
1.720000e-06	7.897705e-06	2.739786e-08	5.652500e+01	1.799350e+03
1.730000e-06	7.877226e-06	2.736007e-08	5.637843e+01	1.798074e+03
1.740000e-06	7.853932e-06	2.730246e-08	5.621171e+01	1.796545e+03
1.750000e-06	7.827200e-06	2.727758e-08	5.602038e+01	1.794741e+03
1.760000e-06	7.796877e-06	2.728825e-08	5.580336e+01	1.792685e+03
1.770000e-06	7.763502e-06	2.725789e-08	5.556449e+01	1.790444e+03
1.780000e-06	7.727760e-06	2.721448e-08	5.530868e+01	1.788109e+03
1.790000e-06	7.689710e-06	2.721004e-08	5.503635e+01	1.785774e+03
1.800000e-06	7.649584e-06	2.719755e-08	5.474916e+01	1.783505e+03
1.810000e-06	7.607470e-06	2.713678e-08	5.444775e+01	1.781321e+03
1.820000e-06	7.562768e-06	2.716671e-08	5.412781e+01	1.779179e+03
1.830000e-06	7.515352e-06	2.715836e-08	5.378845e+01	1.776989e+03
1.840000e-06	7.465125e-06	2.706668e-08	5.342896e+01	1.774627e+03
1.850000e-06	7.411820e-06	2.703701e-08	5.304745e+01	1.771965e+03
1.860000e-06	7.355684e-06	2.695941e-08	5.264568e+01	1.768905e+03
1.870000e-06	7.296951e-06	2.694387e-08	5.222531e+01	1.765397e+03
1.880000e-06	7.235626e-06	2.690190e-08	5.178640e+01	1.761447e+03
1.890000e-06	7.171564e-06	2.682935e-08	5.132790e+01	1.757111e+03
1.900000e-06	7.104693e-06	2.679963e-08	5.084930e+01	1.752474e+03
1.910000e-06	7.035085e-06	2.668707e-08	5.035110e+01	1.747622e+03
1.920000e-06	6.962667e-06	2.660090e-08	4.983279e+01	1.742620e+03
1.930000e-06	6.887511e-06	2.652813e-08	4.929489e+01	1.737490e+03
1.940000e-06	6.809605e-06	2.646982e-08	4.873731e+01	1.732211e+03
1.950000e-06	6.729060e-06	2.640895e-08	4.816084e+01	1.726727e+03
1.960000e-06	6.646088e-06	2.630887e-08	4.756699e+01	1.720969e+03
1.970000e-06	6.560627e-06	2.621036e-08	4.695534e+01	1.714876e+03
1.980000e-06	6.472737e-06	2.607822e-08	4.632630e+01	1.708413e+03
1.990000e-06	6.382587e-06	2.598661e-08	4.568108e+01	1.701581e+03
2.000000e-06	6.290226e-06	2.589305e-08	4.502004e+01	1.694411e+03
2.010000e-06	6.195621e-06	2.578592e-08	4.434294e+01	1.686949e+03
2.020000e-06	6.098805e-06	2.567485e-08	4.365002e+01	1.679236e+03
2.030000e-06	5.999827e-06	2.553466e-08	4.294161e+01	1.671288e+03
2.040000e-06	5.898636e-06	2.539101e-08	4.221738e+01	1.663084e+03
2.050000e-06	5.795260e-06	2.525135e-08	4.147750e+01	1.654570e+03
2.060000e-06	5.689879e-06	2.513516e-08	4.072327e+01	1.645670e+03
2.070000e-06	5.582658e-06	2.500409e-08	3.995587e+01	1.636306e+03
2.080000e-06	5.473488e-06	2.485704e-08	3.917453e+01	1.626423e+03
2.090000e-06	5.362318e-06	2.469676e-08	3.837887e+01	1.616001e+03
2.100000e-06	5.249156e-06	2.452940e-08	3.756896e+01	1.605060e+03
2.110000e-06	5.134002e-06	2.435411e-08	3.674478e+01	1.593649e+03
2.120000e-06	5.016853e-06	2.417623e-08	3.590633e+01	1.581822e+03
2.130000e-06	4.897738e-06	2.399804e-08	3.505380e+01	1.569617e+03
2.140000e-06	4.776838e-06	2.380019e-08	3.418851e+01	1.557030e+03
2.150000e-06	4.654280e-06	2.359225e-08	3.331134e+01	1.544008e+03
2.160000e-06	4.530052e-06	2.338210e-08	3.242223e+01	1.530452e+03
2.170000e-06	4.404028e-06	2.316948e-08	3.152025e+01	1.516238e+03
2.180000e-06	4.276367e-06	2.294188e-08	3.060657e+01	1.501246e+03
2.190000e-06	4.147221e-06	2.270695e-08	2.968225e+01	1.485386e+03
2.200000e-06	4.016564e-06	2.245863e-08	2.874712e+01	1.468621e+03
2.210000e-06	3.884397e-06	2.219249e-08	2.780118e+01	1.450965e+03
2.220000e-06	3.750655e-06	2.191169e-08	2.684397e+01	1.432468e+03
2.230000e-06	3.615478e-06	2.161954e-08	2.587649e+01	1.413189e+03
2.240000e-06	3.479062e-06	2.131292e-08	2.490014e+01	1.393152e+03
2.250000e-06	3.341383e-06	2.098946e-08	2.391476e+01	1.372322e+03
2.260000e-06	3.202434e-06	2.065715e-08	2.292027e+01	1.350585e+03
2.270000e-06	3.062112e-06	2.031213e-08	2.191597e+01	1.327756e+03
2.280000e-06	2.920443e-06	1.994490e-08	2.090203e+01	1.303607e+03
2.290000e-06	2.777708e-06	1.955053e-08	1.988045e+01	1.277903e+03
2.300000e-06	2.634038e-06	1.913396e-08	1.885218e+01	1.250445e+03
2.310000e-06	2.489427e-06	1.869152e-08	1.781718e+01	1.221093e+03
2.320000e-06	2.343944e-06	1.822275e-08	1.677594e+01	1.189773e+03
2.330000e-06	2.197749e-06	1.772349e-08	1.572960e+01	1.156446e+03
2.340000e-06	2.050910e-06	1.718934e-08	1.467865e+01	1.121068e+03
2.350000e-06	1.903397e-06	1.661498e-08	1.362288e+01	1.083527e+03
2.360000e-06	1.755165e-06	1.599725e-08	1.256196e+01	1.043605e+03
2.370000e-06	1.606261e-06	1.533895e-08	1.149624e+01	1.000952e+03
2.380000e-06	1.456846e-06	1.463476e-08	1.042685e+01	9.551150e+02
2.390000e-06	1.306973e-06	1.387672e-08	9.354189e+00	9.055969e+02
2.400000e-06	1.156595e-06	1.305867e-08	8.277916e+00	8.519543e+02
2.410000e-06	1.005781e-06	1.217658e-08	7.198515e+00	7.939022e+02
2.420000e-06	8.547265e-07	1.122877e-08	6.117399e+00	7.314050e+02
2.430000e-06	7.034422e-07	1.021867e-08	5.034636e+00	6.647235e+02
2.440000e-06	5.518247e-07	9.155056e-09	3.949488e+00	5.944041e+02
2.450000e-06	4.000291e-07	8.044608e-09	2.863065e+00	5.212024e+02
2.460000e-06	2.481210e-07	6.893991e-09	1.775838e+00	4.459564e+02
2.470000e-06	9.607217e-08	5.714249e-09	6.876021e-01	3.694335e+02
2.480000e-06	-5.601178e-08	4.518925e-09	-4.008843e-01	2.921868e+02
2.490000e-06	-2.080899e-07	3.320282e-09	-1.489329e+00	2.144573e+02
2.500000e-06	-3.600997e-07	2.120395e-09	-2.577285e+00	1.361469e+02
2.510000e-06	-5.119889e-07	9.148140e-10	-3.664377e+00	5.687545e+01
2.520000e-06	-6.637519e-07	-3.077649e-10	-4.750567e+00	-2.388830e+01
2.530000e-06	-8.153203e-07	-1.558113e-09	-5.835363e+00	-1.066464e+02
2.540000e-06	-9.666193e-07	-2.844514e-09	-6.918232e+00	-1.916828e+02
2.550000e-06	-1.117539e-06	-4.174336e-09	-7.998383e+00	-2.789081e+02
2.560000e-06	-1.268058e-06	-5.540495e-09	-9.075674e+00	-3.677740e+02
2.570000e-06	-1.418147e-06	-6.922388e-09	-1.014988e+01	-4.572801e+02
2.580000e-06	-1.567728e-06	-8.295433e-09	-1.122045e+01	-5.460727e+02
2.590000e-06	-1.716841e-06	-9.632018e-09	-1.228768e+01	-6.326182e+02
2.600000e-06	-1.865265e-06	-1.090271e-08	-1.334996e+01	-7.154127e+02
2.610000e-06	-2.012767e-06	-1.208720e-08	-1.440566e+01	-7.931884e+02
2.620000e-06	-2.159452e-06	-1.317842e-08	-1.545550e+01	-8.650715e+02
2.630000e-06	-2.305395e-06	-1.417410e-08	-1.650004e+01	-9.306665e+02
2.640000e-06	-2.450530e-06	-1.508023e-08	-1.753879e+01	-9.900511e+02
2.650000e-06	-2.594771e-06	-1.590529e-08	-1.857115e+01	-1.043693e+03
2.660000e-06	-2.738034e-06	-1.665995e-08	-1.959650e+01	-1.092311e+03
2.670000e-06	-2.880245e-06	-1.735397e-08	-2.061432e+01	-1.136714e+03
2.680000e-06	-3.021312e-06	-1.799214e-08	-2.162396e+01	-1.177656e+03
2.690000e-06	-3.161056e-06	-1.858123e-08	-2.262413e+01	-1.215734e+03
2.700000e-06	-3.299434e-06	-1.912646e-08	-2.361452e+01	-1.251344e+03
2.710000e-06	-3.436558e-06	-1.962991e-08	-2.459593e+01	-1.284690e+03
2.720000e-06	-3.572497e-06	-2.009627e-08	-2.556887e+01	-1.315849e+03
2.730000e-06	-3.707161e-06	-2.053166e-08	-2.653268e+01	-1.344840e+03
2.740000e-06	-3.840498e-06	-2.094096e-08	-2.748699e+01	-1.371705e+03
2.750000e-06	-3.972414e-06	-2.132678e-08	-2.843113e+01	-1.396555e+03
2.760000e-06	-4.102848e-06	-2.168522e-08	-2.936467e+01	-1.419584e+03
2.770000e-06	-4.231934e-06	-2.201729e-08	-3.028855e+01	-1.441052e+03
2.780000e-06	-4.359630e-06	-2.232891e-08	-3.120249e+01	-1.461239e+03
2.790000e-06	-4.485801e-06	-2.262500e-08	-3.210552e+01	-1.480397e+03
2.800000e-06	-4.610377e-06	-2.290792e-08	-3.299712e+01	-1.498704e+03
2.810000e-06	-4.733298e-06	-2.317719e-08	-3.387689e+01	-1.516249e+03
2.820000e-06	-4.854559e-06	-2.343081e-08	-3.474477e+01	-1.533032e+03
2.830000e-06	-4.974099e-06	-2.366967e-08	-3.560034e+01	-1.548999e+03
2.840000e-06	-5.091719e-06	-2.389576e-08	-3.644216e+01	-1.564082e+03
2.850000e-06	-5.207247e-06	-2.411010e-08	-3.726900e+01	-1.578240e+03
2.860000e-06	-5.320643e-06	-2.431496e-08	-3.808060e+01	-1.591486e+03
2.870000e-06	-5.431910e-06	-2.451170e-08	-3.887695e+01	-1.603897e+03
2.880000e-06	-5.541112e-06	-2.469784e-08	-3.965853e+01	-1.615597e+03
2.890000e-06	-5.648442e-06	-2.487298e-08	-4.042670e+01	-1.626729e+03
2.900000e-06	-5.753894e-06	-2.503796e-08	-4.118144e+01	-1.637421e+03
2.910000e-06	-5.857230e-06	-2.519344e-08	-4.192102e+01	-1.647752e+03
2.920000e-06	-5.958300e-06	-2.534339e-08	-4.264440e+01	-1.657741e+03
2.930000e-06	-6.057184e-06	-2.548821e-08	-4.335213e+01	-1.667351e+03
2.940000e-06	-6.154018e-06	-2.562702e-08	-4.404518e+01	-1.676506e+03
