# Temperatura_=_83.49
# Concentracion g/m^3_=_28200.0
# C_Vs_to_Am_M_A/Vsm_=_65563218390.804596
# pendiente_HvsI_1/m_=_3716.3
# ordenada_HvsI_A/m_=_1297.0
# frecuencia_Hz_=_302555.01026043936

Tiempo_(s)	Campo_(V.s)	Magnetizacion_(V.s)	Campo_(kA/m)	Magnetizacion_(A/m)
0.000000e+00	-7.912243e-06	-2.967174e-08	-5.683260e+01	-1.942572e+03
1.000000e-08	-7.908828e-06	-2.966785e-08	-5.680807e+01	-1.941925e+03
2.000000e-08	-7.902839e-06	-2.965594e-08	-5.676505e+01	-1.941156e+03
3.000000e-08	-7.894242e-06	-2.964386e-08	-5.670330e+01	-1.940312e+03
4.000000e-08	-7.882807e-06	-2.963105e-08	-5.662116e+01	-1.939406e+03
5.000000e-08	-7.868435e-06	-2.961404e-08	-5.651793e+01	-1.938411e+03
6.000000e-08	-7.851301e-06	-2.959025e-08	-5.639486e+01	-1.937269e+03
7.000000e-08	-7.831835e-06	-2.956306e-08	-5.625503e+01	-1.935910e+03
8.000000e-08	-7.810114e-06	-2.955216e-08	-5.609902e+01	-1.934276e+03
9.000000e-08	-7.785602e-06	-2.958164e-08	-5.592295e+01	-1.932347e+03
1.000000e-07	-7.757939e-06	-2.953769e-08	-5.572425e+01	-1.930151e+03
1.100000e-07	-7.727279e-06	-2.945788e-08	-5.550402e+01	-1.927770e+03
1.200000e-07	-7.693767e-06	-2.941745e-08	-5.526331e+01	-1.925312e+03
1.300000e-07	-7.657581e-06	-2.937855e-08	-5.500339e+01	-1.922890e+03
1.400000e-07	-7.619052e-06	-2.931299e-08	-5.472665e+01	-1.920585e+03
1.500000e-07	-7.578302e-06	-2.924649e-08	-5.443394e+01	-1.918417e+03
1.600000e-07	-7.535146e-06	-2.928288e-08	-5.412396e+01	-1.916338e+03
1.700000e-07	-7.489350e-06	-2.922705e-08	-5.379501e+01	-1.914230e+03
1.800000e-07	-7.440837e-06	-2.911672e-08	-5.344655e+01	-1.911934e+03
1.900000e-07	-7.389457e-06	-2.911806e-08	-5.307749e+01	-1.909285e+03
2.000000e-07	-7.335144e-06	-2.902878e-08	-5.268737e+01	-1.906149e+03
2.100000e-07	-7.278124e-06	-2.896111e-08	-5.227780e+01	-1.902454e+03
2.200000e-07	-7.218486e-06	-2.890391e-08	-5.184943e+01	-1.898205e+03
2.300000e-07	-7.156258e-06	-2.881765e-08	-5.140246e+01	-1.893474e+03
2.400000e-07	-7.091387e-06	-2.877581e-08	-5.093650e+01	-1.888378e+03
2.500000e-07	-7.023797e-06	-2.867026e-08	-5.045101e+01	-1.883045e+03
2.600000e-07	-6.953526e-06	-2.859209e-08	-4.994626e+01	-1.877574e+03
2.700000e-07	-6.880455e-06	-2.850563e-08	-4.942140e+01	-1.872011e+03
2.800000e-07	-6.804670e-06	-2.842719e-08	-4.887705e+01	-1.866339e+03
2.900000e-07	-6.726187e-06	-2.832583e-08	-4.831331e+01	-1.860485e+03
3.000000e-07	-6.644951e-06	-2.822432e-08	-4.772980e+01	-1.854351e+03
3.100000e-07	-6.561339e-06	-2.814613e-08	-4.712923e+01	-1.847837e+03
3.200000e-07	-6.475510e-06	-2.801745e-08	-4.651273e+01	-1.840879e+03
3.300000e-07	-6.387380e-06	-2.791197e-08	-4.587971e+01	-1.833462e+03
3.400000e-07	-6.296915e-06	-2.778593e-08	-4.522991e+01	-1.825624e+03
3.500000e-07	-6.204182e-06	-2.766496e-08	-4.456382e+01	-1.817436e+03
3.600000e-07	-6.109293e-06	-2.755041e-08	-4.388225e+01	-1.808978e+03
3.700000e-07	-6.012104e-06	-2.742072e-08	-4.318415e+01	-1.800307e+03
3.800000e-07	-5.912626e-06	-2.728320e-08	-4.246961e+01	-1.791434e+03
3.900000e-07	-5.811089e-06	-2.713921e-08	-4.174028e+01	-1.782315e+03
4.000000e-07	-5.707519e-06	-2.699644e-08	-4.099636e+01	-1.772862e+03
4.100000e-07	-5.601905e-06	-2.682907e-08	-4.023775e+01	-1.762967e+03
4.200000e-07	-5.494327e-06	-2.667135e-08	-3.946502e+01	-1.752528e+03
4.300000e-07	-5.384842e-06	-2.650775e-08	-3.867861e+01	-1.741483e+03
4.400000e-07	-5.273409e-06	-2.633515e-08	-3.787820e+01	-1.729819e+03
4.500000e-07	-5.159940e-06	-2.615189e-08	-3.706317e+01	-1.717577e+03
4.600000e-07	-5.044458e-06	-2.596487e-08	-3.623368e+01	-1.704830e+03
4.700000e-07	-4.927112e-06	-2.576722e-08	-3.539079e+01	-1.691652e+03
4.800000e-07	-4.808023e-06	-2.555776e-08	-3.453539e+01	-1.678085e+03
4.900000e-07	-4.687138e-06	-2.534361e-08	-3.366709e+01	-1.664118e+03
5.000000e-07	-4.564510e-06	-2.511715e-08	-3.278627e+01	-1.649677e+03
5.100000e-07	-4.440185e-06	-2.488034e-08	-3.189326e+01	-1.634638e+03
5.200000e-07	-4.314250e-06	-2.462876e-08	-3.098869e+01	-1.618855e+03
5.300000e-07	-4.186833e-06	-2.437472e-08	-3.007347e+01	-1.602197e+03
5.400000e-07	-4.057848e-06	-2.410868e-08	-2.914698e+01	-1.584577e+03
5.500000e-07	-3.927341e-06	-2.382815e-08	-2.820957e+01	-1.565972e+03
5.600000e-07	-3.795315e-06	-2.353230e-08	-2.726125e+01	-1.546416e+03
5.700000e-07	-3.661769e-06	-2.322492e-08	-2.630200e+01	-1.525979e+03
5.800000e-07	-3.526887e-06	-2.290131e-08	-2.533316e+01	-1.504722e+03
5.900000e-07	-3.390708e-06	-2.256023e-08	-2.435501e+01	-1.482660e+03
6.000000e-07	-3.253166e-06	-2.220523e-08	-2.336706e+01	-1.459729e+03
6.100000e-07	-3.114227e-06	-2.183434e-08	-2.236908e+01	-1.435775e+03
6.200000e-07	-2.973901e-06	-2.144463e-08	-2.136114e+01	-1.410574e+03
6.300000e-07	-2.832355e-06	-2.103076e-08	-2.034443e+01	-1.383866e+03
6.400000e-07	-2.689726e-06	-2.059322e-08	-1.931994e+01	-1.355403e+03
6.500000e-07	-2.546084e-06	-2.013012e-08	-1.828818e+01	-1.324988e+03
6.600000e-07	-2.401528e-06	-1.964041e-08	-1.724986e+01	-1.292501e+03
6.700000e-07	-2.256096e-06	-1.911869e-08	-1.620524e+01	-1.257886e+03
6.800000e-07	-2.109897e-06	-1.856341e-08	-1.515511e+01	-1.221113e+03
6.900000e-07	-1.963066e-06	-1.797254e-08	-1.410044e+01	-1.182120e+03
7.000000e-07	-1.815593e-06	-1.733872e-08	-1.304117e+01	-1.140753e+03
7.100000e-07	-1.667500e-06	-1.665743e-08	-1.197743e+01	-1.096722e+03
7.200000e-07	-1.518931e-06	-1.592687e-08	-1.091028e+01	-1.049599e+03
7.300000e-07	-1.369939e-06	-1.514221e-08	-9.840088e+00	-9.988590e+02
7.400000e-07	-1.220549e-06	-1.429793e-08	-8.767039e+00	-9.439654e+02
7.500000e-07	-1.070727e-06	-1.339233e-08	-7.690893e+00	-8.844837e+02
7.600000e-07	-9.204395e-07	-1.241896e-08	-6.611396e+00	-8.201933e+02
7.700000e-07	-7.698379e-07	-1.137701e-08	-5.529644e+00	-7.511711e+02
7.800000e-07	-6.189950e-07	-1.026784e-08	-4.446159e+00	-6.778183e+02
7.900000e-07	-4.679222e-07	-9.097892e-09	-3.361023e+00	-6.008181e+02
8.000000e-07	-3.166899e-07	-7.880261e-09	-2.274742e+00	-5.210278e+02
8.100000e-07	-1.653595e-07	-6.627335e-09	-1.187756e+00	-4.393246e+02
8.200000e-07	-1.390085e-08	-5.352898e-09	-9.984799e-02	-3.564397e+02
8.300000e-07	1.376312e-07	-4.066355e-09	9.885870e-01	-2.728216e+02
8.400000e-07	2.891086e-07	-2.777342e-09	2.076629e+00	-1.885619e+02
8.500000e-07	4.405512e-07	-1.481528e-09	3.164421e+00	-1.034088e+02
8.600000e-07	5.919791e-07	-1.722328e-10	4.252107e+00	-1.686745e+01
8.700000e-07	7.432700e-07	1.158655e-09	5.338810e+00	7.162762e+01
8.800000e-07	8.942986e-07	2.525647e-09	6.423629e+00	1.625082e+02
8.900000e-07	1.045014e-06	3.939152e-09	7.506196e+00	2.558800e+02
9.000000e-07	1.195332e-06	5.397308e-09	8.585911e+00	3.513873e+02
9.100000e-07	1.345160e-06	6.882315e-09	9.662108e+00	4.481690e+02
9.200000e-07	1.494445e-06	8.371922e-09	1.073440e+01	5.449165e+02
9.300000e-07	1.643191e-06	9.833959e-09	1.180282e+01	6.400266e+02
9.400000e-07	1.791412e-06	1.123319e-08	1.286748e+01	7.318153e+02
9.500000e-07	1.939043e-06	1.254386e-08	1.392789e+01	8.187506e+02
9.600000e-07	2.085944e-06	1.375299e-08	1.498306e+01	8.996564e+02
9.700000e-07	2.231986e-06	1.485736e-08	1.603206e+01	9.738462e+02
9.800000e-07	2.377226e-06	1.586269e-08	1.707530e+01	1.041166e+03
9.900000e-07	2.521693e-06	1.678114e-08	1.811298e+01	1.101944e+03
1.000000e-06	2.665246e-06	1.762167e-08	1.914411e+01	1.156860e+03
1.010000e-06	2.807701e-06	1.839083e-08	2.016734e+01	1.206779e+03
1.020000e-06	2.948906e-06	1.909670e-08	2.118161e+01	1.252578e+03
1.030000e-06	3.088953e-06	1.974749e-08	2.218755e+01	1.295008e+03
1.040000e-06	3.227814e-06	2.034818e-08	2.318496e+01	1.334613e+03
1.050000e-06	3.365343e-06	2.090650e-08	2.417281e+01	1.371710e+03
1.060000e-06	3.501570e-06	2.142415e-08	2.515132e+01	1.406439e+03
1.070000e-06	3.636453e-06	2.190402e-08	2.612017e+01	1.438837e+03
1.080000e-06	3.769986e-06	2.235093e-08	2.707931e+01	1.468921e+03
1.090000e-06	3.902228e-06	2.276872e-08	2.802919e+01	1.496766e+03
1.100000e-06	4.033113e-06	2.316414e-08	2.896932e+01	1.522536e+03
1.110000e-06	4.162546e-06	2.353667e-08	2.989902e+01	1.546481e+03
1.120000e-06	4.290485e-06	2.388750e-08	3.081799e+01	1.568900e+03
1.130000e-06	4.416902e-06	2.421791e-08	3.172602e+01	1.590089e+03
1.140000e-06	4.541827e-06	2.452910e-08	3.262335e+01	1.610287e+03
1.150000e-06	4.665266e-06	2.482178e-08	3.350999e+01	1.629639e+03
1.160000e-06	4.787071e-06	2.509715e-08	3.438490e+01	1.648188e+03
1.170000e-06	4.907157e-06	2.535579e-08	3.524746e+01	1.665899e+03
1.180000e-06	5.025419e-06	2.560003e-08	3.609692e+01	1.682697e+03
1.190000e-06	5.141796e-06	2.583408e-08	3.693284e+01	1.698514e+03
1.200000e-06	5.256242e-06	2.606050e-08	3.775489e+01	1.713331e+03
1.210000e-06	5.368636e-06	2.627656e-08	3.856220e+01	1.727195e+03
1.220000e-06	5.479068e-06	2.647873e-08	3.935542e+01	1.740218e+03
1.230000e-06	5.587617e-06	2.667026e-08	4.013511e+01	1.752551e+03
1.240000e-06	5.694168e-06	2.685217e-08	4.090045e+01	1.764349e+03
1.250000e-06	5.798598e-06	2.702436e-08	4.165056e+01	1.775731e+03
1.260000e-06	5.900864e-06	2.718760e-08	4.238513e+01	1.786757e+03
1.270000e-06	6.000973e-06	2.734409e-08	4.310420e+01	1.797422e+03
1.280000e-06	6.098839e-06	2.749597e-08	4.380715e+01	1.807666e+03
1.290000e-06	6.194374e-06	2.764210e-08	4.449337e+01	1.817407e+03
1.300000e-06	6.287681e-06	2.778256e-08	4.516358e+01	1.826570e+03
1.310000e-06	6.378831e-06	2.791551e-08	4.581830e+01	1.835116e+03
1.320000e-06	6.467687e-06	2.804040e-08	4.645654e+01	1.843060e+03
1.330000e-06	6.554194e-06	2.815828e-08	4.707791e+01	1.850469e+03
1.340000e-06	6.638415e-06	2.826970e-08	4.768286e+01	1.857440e+03
1.350000e-06	6.720239e-06	2.837443e-08	4.827059e+01	1.864078e+03
1.360000e-06	6.799578e-06	2.847291e-08	4.884047e+01	1.870466e+03
1.370000e-06	6.876478e-06	2.856598e-08	4.939283e+01	1.876647e+03
1.380000e-06	6.950854e-06	2.865366e-08	4.992706e+01	1.882619e+03
1.390000e-06	7.022586e-06	2.873710e-08	5.044231e+01	1.888342e+03
1.400000e-06	7.091762e-06	2.881585e-08	5.093919e+01	1.893763e+03
1.410000e-06	7.158481e-06	2.889038e-08	5.141843e+01	1.898836e+03
1.420000e-06	7.222603e-06	2.896038e-08	5.187900e+01	1.903543e+03
1.430000e-06	7.284177e-06	2.902784e-08	5.232129e+01	1.907906e+03
1.440000e-06	7.343328e-06	2.909273e-08	5.274616e+01	1.911978e+03
1.450000e-06	7.399941e-06	2.915493e-08	5.315280e+01	1.915830e+03
1.460000e-06	7.453825e-06	2.921487e-08	5.353984e+01	1.919528e+03
1.470000e-06	7.504680e-06	2.927102e-08	5.390512e+01	1.923112e+03
1.480000e-06	7.552508e-06	2.932263e-08	5.424867e+01	1.926580e+03
1.490000e-06	7.597598e-06	2.936938e-08	5.457255e+01	1.929893e+03
1.500000e-06	7.640017e-06	2.941238e-08	5.487724e+01	1.932982e+03
1.510000e-06	7.679656e-06	2.945362e-08	5.516195e+01	1.935772e+03
1.520000e-06	7.716592e-06	2.949163e-08	5.542726e+01	1.938207e+03
1.530000e-06	7.750869e-06	2.952510e-08	5.567347e+01	1.940265e+03
1.540000e-06	7.782360e-06	2.955328e-08	5.589967e+01	1.941968e+03
1.550000e-06	7.811127e-06	2.957817e-08	5.610630e+01	1.943373e+03
1.560000e-06	7.837155e-06	2.959992e-08	5.629325e+01	1.944560e+03
1.570000e-06	7.860301e-06	2.961709e-08	5.645950e+01	1.945601e+03
1.580000e-06	7.880689e-06	2.963298e-08	5.660595e+01	1.946549e+03
1.590000e-06	7.898290e-06	2.964631e-08	5.673238e+01	1.947416e+03
1.600000e-06	7.912963e-06	2.965659e-08	5.683777e+01	1.948175e+03
1.610000e-06	7.924539e-06	2.966271e-08	5.692092e+01	1.948776e+03
1.620000e-06	7.932977e-06	2.966612e-08	5.698152e+01	1.949159e+03
1.630000e-06	7.938536e-06	2.966977e-08	5.702146e+01	1.949280e+03
1.640000e-06	7.941326e-06	2.967063e-08	5.704150e+01	1.949124e+03
1.650000e-06	7.941270e-06	2.966691e-08	5.704110e+01	1.948717e+03
1.660000e-06	7.938530e-06	2.965558e-08	5.702141e+01	1.948108e+03
1.670000e-06	7.933172e-06	2.964666e-08	5.698293e+01	1.947363e+03
1.680000e-06	7.925124e-06	2.963699e-08	5.692512e+01	1.946533e+03
1.690000e-06	7.914434e-06	2.962334e-08	5.684834e+01	1.945642e+03
1.700000e-06	7.900898e-06	2.960918e-08	5.675111e+01	1.944672e+03
1.710000e-06	7.884673e-06	2.959518e-08	5.663456e+01	1.943572e+03
1.720000e-06	7.866136e-06	2.957831e-08	5.650142e+01	1.942272e+03
1.730000e-06	7.845274e-06	2.951933e-08	5.635157e+01	1.940709e+03
1.740000e-06	7.821551e-06	2.943415e-08	5.618117e+01	1.938851e+03
1.750000e-06	7.794338e-06	2.944166e-08	5.598570e+01	1.936715e+03
1.760000e-06	7.763556e-06	2.943900e-08	5.576460e+01	1.934369e+03
1.770000e-06	7.729853e-06	2.939460e-08	5.552251e+01	1.931917e+03
1.780000e-06	7.693888e-06	2.937975e-08	5.526418e+01	1.929476e+03
1.790000e-06	7.655609e-06	2.939668e-08	5.498923e+01	1.927135e+03
1.800000e-06	7.615274e-06	2.929697e-08	5.469951e+01	1.924934e+03
1.810000e-06	7.572949e-06	2.925775e-08	5.439549e+01	1.922839e+03
1.820000e-06	7.528017e-06	2.932934e-08	5.407276e+01	1.920751e+03
1.830000e-06	7.480397e-06	2.924506e-08	5.373070e+01	1.918516e+03
1.840000e-06	7.429900e-06	2.927095e-08	5.336799e+01	1.915968e+03
1.850000e-06	7.376328e-06	2.920534e-08	5.298319e+01	1.912961e+03
1.860000e-06	7.320023e-06	2.914822e-08	5.257876e+01	1.909407e+03
1.870000e-06	7.261115e-06	2.913710e-08	5.215563e+01	1.905291e+03
1.880000e-06	7.199555e-06	2.898053e-08	5.171345e+01	1.900669e+03
1.890000e-06	7.135169e-06	2.895878e-08	5.125098e+01	1.895651e+03
1.900000e-06	7.068087e-06	2.887064e-08	5.076914e+01	1.890364e+03
1.910000e-06	6.998373e-06	2.878980e-08	5.026839e+01	1.884920e+03
1.920000e-06	6.925821e-06	2.871441e-08	4.974726e+01	1.879377e+03
1.930000e-06	6.850566e-06	2.861479e-08	4.920671e+01	1.873736e+03
1.940000e-06	6.772560e-06	2.856369e-08	4.864640e+01	1.867935e+03
1.950000e-06	6.691951e-06	2.841664e-08	4.806740e+01	1.861878e+03
1.960000e-06	6.608941e-06	2.833754e-08	4.747115e+01	1.855465e+03
1.970000e-06	6.523462e-06	2.822171e-08	4.685717e+01	1.848620e+03
1.980000e-06	6.435515e-06	2.811714e-08	4.622545e+01	1.841315e+03
1.990000e-06	6.345240e-06	2.801653e-08	4.557702e+01	1.833575e+03
2.000000e-06	6.252808e-06	2.787691e-08	4.491309e+01	1.825465e+03
2.010000e-06	6.158132e-06	2.776775e-08	4.423305e+01	1.817067e+03
2.020000e-06	6.061244e-06	2.762352e-08	4.353712e+01	1.808444e+03
2.030000e-06	5.962229e-06	2.750172e-08	4.282590e+01	1.799622e+03
2.040000e-06	5.861084e-06	2.734943e-08	4.209939e+01	1.790569e+03
2.050000e-06	5.757790e-06	2.721491e-08	4.135744e+01	1.781209e+03
2.060000e-06	5.652517e-06	2.705699e-08	4.060128e+01	1.771433e+03
2.070000e-06	5.545394e-06	2.688995e-08	3.983183e+01	1.761136e+03
2.080000e-06	5.436296e-06	2.672177e-08	3.904820e+01	1.750244e+03
2.090000e-06	5.325175e-06	2.654625e-08	3.825003e+01	1.738731e+03
2.100000e-06	5.212058e-06	2.637384e-08	3.743752e+01	1.726626e+03
2.110000e-06	5.097038e-06	2.618238e-08	3.661135e+01	1.713997e+03
2.120000e-06	4.980071e-06	2.599367e-08	3.577119e+01	1.700919e+03
2.130000e-06	4.861165e-06	2.578567e-08	3.491711e+01	1.687446e+03
2.140000e-06	4.740385e-06	2.557316e-08	3.404956e+01	1.673582e+03
2.150000e-06	4.617868e-06	2.534678e-08	3.316954e+01	1.659268e+03
2.160000e-06	4.493687e-06	2.512122e-08	3.227756e+01	1.644390e+03
2.170000e-06	4.367823e-06	2.487919e-08	3.137349e+01	1.628805e+03
2.180000e-06	4.240419e-06	2.462834e-08	3.045837e+01	1.612375e+03
2.190000e-06	4.111495e-06	2.436759e-08	2.953232e+01	1.594998e+03
2.200000e-06	3.981070e-06	2.409525e-08	2.859550e+01	1.576636e+03
2.210000e-06	3.849110e-06	2.380593e-08	2.764765e+01	1.557311e+03
2.220000e-06	3.715640e-06	2.350338e-08	2.668895e+01	1.537086e+03
2.230000e-06	3.580864e-06	2.319079e-08	2.572087e+01	1.516029e+03
2.240000e-06	3.444818e-06	2.285833e-08	2.474367e+01	1.494169e+03
2.250000e-06	3.307470e-06	2.251031e-08	2.375712e+01	1.471464e+03
2.260000e-06	3.168841e-06	2.214269e-08	2.276137e+01	1.447783e+03
2.270000e-06	3.028932e-06	2.175892e-08	2.175642e+01	1.422916e+03
2.280000e-06	2.887769e-06	2.135240e-08	2.074246e+01	1.396608e+03
2.290000e-06	2.745475e-06	2.092505e-08	1.972039e+01	1.368603e+03
2.300000e-06	2.602201e-06	2.047366e-08	1.869126e+01	1.338689e+03
2.310000e-06	2.458016e-06	1.999430e-08	1.765561e+01	1.306726e+03
2.320000e-06	2.312943e-06	1.948303e-08	1.661356e+01	1.272644e+03
2.330000e-06	2.167067e-06	1.893817e-08	1.556576e+01	1.236412e+03
2.340000e-06	2.020484e-06	1.835744e-08	1.451287e+01	1.197983e+03
2.350000e-06	1.873256e-06	1.773729e-08	1.345535e+01	1.157229e+03
2.360000e-06	1.725411e-06	1.707300e-08	1.239340e+01	1.113897e+03
2.370000e-06	1.577005e-06	1.635906e-08	1.132742e+01	1.067593e+03
2.380000e-06	1.428154e-06	1.559005e-08	1.025824e+01	1.017807e+03
2.390000e-06	1.278849e-06	1.476245e-08	9.185803e+00	9.639970e+02
2.400000e-06	1.129031e-06	1.387207e-08	8.109681e+00	9.056915e+02
2.410000e-06	9.788050e-07	1.291777e-08	7.030627e+00	8.426071e+02
2.420000e-06	8.282506e-07	1.189748e-08	5.949214e+00	7.747411e+02
2.430000e-06	6.774196e-07	1.081052e-08	4.865815e+00	7.024149e+02
2.440000e-06	5.263702e-07	9.657708e-09	3.780848e+00	6.262491e+02
2.450000e-06	3.751671e-07	8.447146e-09	2.694776e+00	5.470704e+02
2.460000e-06	2.238288e-07	7.196005e-09	1.607733e+00	4.657669e+02
2.470000e-06	7.231180e-08	5.918429e-09	5.194061e-01	3.831209e+02
2.480000e-06	-7.924930e-08	4.628717e-09	-5.692373e-01	2.996614e+02
2.490000e-06	-2.307949e-07	3.334964e-09	-1.657769e+00	2.155719e+02
2.500000e-06	-3.823223e-07	2.037076e-09	-2.746171e+00	1.306799e+02
2.510000e-06	-5.337542e-07	7.300112e-10	-3.833886e+00	4.453768e+01
2.520000e-06	-6.850097e-07	-5.974291e-10	-4.920334e+00	-4.342128e+01
2.530000e-06	-8.360641e-07	-1.957521e-09	-6.005338e+00	-1.336816e+02
2.540000e-06	-9.868866e-07	-3.362868e-09	-7.088676e+00	-2.264459e+02
2.550000e-06	-1.137292e-06	-4.818298e-09	-8.169020e+00	-3.214821e+02
2.560000e-06	-1.287174e-06	-6.308869e-09	-9.245602e+00	-4.180539e+02
2.570000e-06	-1.436537e-06	-7.808616e-09	-1.031846e+01	-5.149537e+02
2.580000e-06	-1.585400e-06	-9.288458e-09	-1.138772e+01	-6.106335e+02
2.590000e-06	-1.733769e-06	-1.071811e-08	-1.245344e+01	-7.034075e+02
2.600000e-06	-1.881501e-06	-1.206924e-08	-1.351457e+01	-7.916849e+02
2.610000e-06	-2.028490e-06	-1.332279e-08	-1.457038e+01	-8.741846e+02
2.620000e-06	-2.174717e-06	-1.447158e-08	-1.562070e+01	-9.500900e+02
2.630000e-06	-2.320067e-06	-1.551860e-08	-1.666473e+01	-1.019116e+03
2.640000e-06	-2.464543e-06	-1.647144e-08	-1.770248e+01	-1.081478e+03
2.650000e-06	-2.608180e-06	-1.734182e-08	-1.873421e+01	-1.137784e+03
2.660000e-06	-2.750747e-06	-1.813975e-08	-1.975826e+01	-1.188869e+03
2.670000e-06	-2.892103e-06	-1.887116e-08	-2.077359e+01	-1.235622e+03
2.680000e-06	-3.032279e-06	-1.954290e-08	-2.178046e+01	-1.278837e+03
2.690000e-06	-3.171211e-06	-2.016199e-08	-2.277839e+01	-1.319111e+03
2.700000e-06	-3.308859e-06	-2.073746e-08	-2.376710e+01	-1.356818e+03
2.710000e-06	-3.445329e-06	-2.127292e-08	-2.474734e+01	-1.392135e+03
2.720000e-06	-3.580644e-06	-2.176854e-08	-2.571930e+01	-1.425116e+03
2.730000e-06	-3.714603e-06	-2.222991e-08	-2.668150e+01	-1.455776e+03
2.740000e-06	-3.847170e-06	-2.266091e-08	-2.763372e+01	-1.484171e+03
2.750000e-06	-3.978378e-06	-2.306480e-08	-2.857617e+01	-1.510441e+03
2.760000e-06	-4.108208e-06	-2.344421e-08	-2.950872e+01	-1.534816e+03
2.770000e-06	-4.236647e-06	-2.380032e-08	-3.043128e+01	-1.557589e+03
2.780000e-06	-4.363641e-06	-2.413562e-08	-3.134346e+01	-1.579063e+03
2.790000e-06	-4.489153e-06	-2.445128e-08	-3.224499e+01	-1.599492e+03
2.800000e-06	-4.613108e-06	-2.474937e-08	-3.313534e+01	-1.619049e+03
2.810000e-06	-4.735447e-06	-2.503354e-08	-3.401409e+01	-1.637801e+03
2.820000e-06	-4.856048e-06	-2.530312e-08	-3.488035e+01	-1.655729e+03
2.830000e-06	-4.974765e-06	-2.555675e-08	-3.573308e+01	-1.672765e+03
2.840000e-06	-5.091501e-06	-2.579697e-08	-3.657158e+01	-1.688833e+03
2.850000e-06	-5.206198e-06	-2.602690e-08	-3.739543e+01	-1.703900e+03
2.860000e-06	-5.318862e-06	-2.624871e-08	-3.820468e+01	-1.717996e+03
2.870000e-06	-5.429499e-06	-2.646004e-08	-3.899937e+01	-1.731217e+03
2.880000e-06	-5.538110e-06	-2.665878e-08	-3.977951e+01	-1.743710e+03
2.890000e-06	-5.644815e-06	-2.684644e-08	-4.054596e+01	-1.755630e+03
2.900000e-06	-5.749564e-06	-2.702285e-08	-4.129836e+01	-1.767109e+03
2.910000e-06	-5.852141e-06	-2.718907e-08	-4.203516e+01	-1.778223e+03
2.920000e-06	-5.952488e-06	-2.734920e-08	-4.275593e+01	-1.788984e+03
2.930000e-06	-6.050706e-06	-2.750447e-08	-4.346142e+01	-1.799342e+03
2.940000e-06	-6.146796e-06	-2.765389e-08	-4.415162e+01	-1.809219e+03
