# Temperatura_=_84.68
# Concentracion g/m^3_=_28200.0
# C_Vs_to_Am_M_A/Vsm_=_65563218390.804596
# pendiente_HvsI_1/m_=_3716.3
# ordenada_HvsI_A/m_=_1297.0
# frecuencia_Hz_=_302555.51491623855

Tiempo_(s)	Campo_(V.s)	Magnetizacion_(V.s)	Campo_(kA/m)	Magnetizacion_(A/m)
0.000000e+00	-7.882309e-06	-2.841500e-08	-5.683912e+01	-1.859501e+03
1.000000e-08	-7.879206e-06	-2.841169e-08	-5.681674e+01	-1.858923e+03
2.000000e-08	-7.873465e-06	-2.840193e-08	-5.677535e+01	-1.858189e+03
3.000000e-08	-7.865196e-06	-2.838724e-08	-5.671571e+01	-1.857348e+03
4.000000e-08	-7.854168e-06	-2.837275e-08	-5.663619e+01	-1.856425e+03
5.000000e-08	-7.840317e-06	-2.835735e-08	-5.653632e+01	-1.855416e+03
6.000000e-08	-7.823624e-06	-2.833725e-08	-5.641594e+01	-1.854289e+03
7.000000e-08	-7.804482e-06	-2.831392e-08	-5.627791e+01	-1.852992e+03
8.000000e-08	-7.783132e-06	-2.829515e-08	-5.612395e+01	-1.851479e+03
9.000000e-08	-7.759038e-06	-2.829489e-08	-5.595021e+01	-1.849721e+03
1.000000e-07	-7.731773e-06	-2.829102e-08	-5.575361e+01	-1.847732e+03
1.100000e-07	-7.701490e-06	-2.822717e-08	-5.553524e+01	-1.845562e+03
1.200000e-07	-7.668398e-06	-2.816600e-08	-5.529661e+01	-1.843295e+03
1.300000e-07	-7.632562e-06	-2.813485e-08	-5.503820e+01	-1.841024e+03
1.400000e-07	-7.594339e-06	-2.809311e-08	-5.476257e+01	-1.838825e+03
1.500000e-07	-7.553939e-06	-2.802315e-08	-5.447125e+01	-1.836729e+03
1.600000e-07	-7.511245e-06	-2.799033e-08	-5.416338e+01	-1.834711e+03
1.700000e-07	-7.466063e-06	-2.798903e-08	-5.383758e+01	-1.832688e+03
1.800000e-07	-7.418230e-06	-2.786829e-08	-5.349266e+01	-1.830533e+03
1.900000e-07	-7.367454e-06	-2.782620e-08	-5.312651e+01	-1.828102e+03
2.000000e-07	-7.313671e-06	-2.781168e-08	-5.273868e+01	-1.825265e+03
2.100000e-07	-7.257227e-06	-2.774699e-08	-5.233167e+01	-1.821938e+03
2.200000e-07	-7.198162e-06	-2.772331e-08	-5.190575e+01	-1.818098e+03
2.300000e-07	-7.136470e-06	-2.764197e-08	-5.146089e+01	-1.813779e+03
2.400000e-07	-7.072197e-06	-2.756479e-08	-5.099742e+01	-1.809066e+03
2.500000e-07	-7.005193e-06	-2.747373e-08	-5.051426e+01	-1.804061e+03
2.600000e-07	-6.935458e-06	-2.738036e-08	-5.001140e+01	-1.798856e+03
2.700000e-07	-6.863011e-06	-2.731029e-08	-4.948898e+01	-1.793508e+03
2.800000e-07	-6.787776e-06	-2.722129e-08	-4.894647e+01	-1.788026e+03
2.900000e-07	-6.709846e-06	-2.712713e-08	-4.838451e+01	-1.782374e+03
3.000000e-07	-6.629208e-06	-2.702899e-08	-4.780304e+01	-1.776485e+03
3.100000e-07	-6.546090e-06	-2.693159e-08	-4.720367e+01	-1.770285e+03
3.200000e-07	-6.460895e-06	-2.682672e-08	-4.658934e+01	-1.763718e+03
3.300000e-07	-6.373483e-06	-2.673235e-08	-4.595901e+01	-1.756761e+03
3.400000e-07	-6.283677e-06	-2.664506e-08	-4.531142e+01	-1.749430e+03
3.500000e-07	-6.191585e-06	-2.651367e-08	-4.464735e+01	-1.741767e+03
3.600000e-07	-6.097311e-06	-2.639708e-08	-4.396754e+01	-1.733825e+03
3.700000e-07	-6.000789e-06	-2.628064e-08	-4.327153e+01	-1.725641e+03
3.800000e-07	-5.901981e-06	-2.614707e-08	-4.255903e+01	-1.717222e+03
3.900000e-07	-5.801075e-06	-2.601438e-08	-4.183140e+01	-1.708530e+03
4.000000e-07	-5.698149e-06	-2.587663e-08	-4.108920e+01	-1.699498e+03
4.100000e-07	-5.593178e-06	-2.572721e-08	-4.033226e+01	-1.690038e+03
4.200000e-07	-5.486232e-06	-2.556212e-08	-3.956107e+01	-1.680070e+03
4.300000e-07	-5.377380e-06	-2.540861e-08	-3.877614e+01	-1.669544e+03
4.400000e-07	-5.266589e-06	-2.524232e-08	-3.797723e+01	-1.658453e+03
4.500000e-07	-5.153794e-06	-2.506614e-08	-3.716387e+01	-1.646830e+03
4.600000e-07	-5.039027e-06	-2.488501e-08	-3.633628e+01	-1.634734e+03
4.700000e-07	-4.922339e-06	-2.470129e-08	-3.549486e+01	-1.622228e+03
4.800000e-07	-4.803868e-06	-2.450738e-08	-3.464056e+01	-1.609343e+03
4.900000e-07	-4.683649e-06	-2.430227e-08	-3.377367e+01	-1.596067e+03
5.000000e-07	-4.561682e-06	-2.409430e-08	-3.289417e+01	-1.582332e+03
5.100000e-07	-4.437960e-06	-2.386989e-08	-3.200201e+01	-1.568024e+03
5.200000e-07	-4.312633e-06	-2.362865e-08	-3.109828e+01	-1.553011e+03
5.300000e-07	-4.185863e-06	-2.337832e-08	-3.018414e+01	-1.537171e+03
5.400000e-07	-4.057565e-06	-2.312561e-08	-2.925899e+01	-1.520422e+03
5.500000e-07	-3.927725e-06	-2.285604e-08	-2.832272e+01	-1.502738e+03
5.600000e-07	-3.796352e-06	-2.257168e-08	-2.737539e+01	-1.484144e+03
5.700000e-07	-3.663471e-06	-2.227789e-08	-2.641719e+01	-1.464700e+03
5.800000e-07	-3.529244e-06	-2.197307e-08	-2.544928e+01	-1.444463e+03
5.900000e-07	-3.393765e-06	-2.165580e-08	-2.447235e+01	-1.423448e+03
6.000000e-07	-3.256891e-06	-2.132203e-08	-2.348536e+01	-1.401601e+03
6.100000e-07	-3.118686e-06	-2.097108e-08	-2.248876e+01	-1.378786e+03
6.200000e-07	-2.979316e-06	-2.059682e-08	-2.148377e+01	-1.354802e+03
6.300000e-07	-2.838687e-06	-2.019954e-08	-2.046970e+01	-1.329407e+03
6.400000e-07	-2.696837e-06	-1.977870e-08	-1.944682e+01	-1.302367e+03
6.500000e-07	-2.553855e-06	-1.933717e-08	-1.841578e+01	-1.273491e+03
6.600000e-07	-2.409864e-06	-1.887399e-08	-1.737747e+01	-1.242653e+03
6.700000e-07	-2.265086e-06	-1.838169e-08	-1.633348e+01	-1.209790e+03
6.800000e-07	-2.119525e-06	-1.785507e-08	-1.528383e+01	-1.174866e+03
6.900000e-07	-1.973224e-06	-1.729212e-08	-1.422887e+01	-1.137821e+03
7.000000e-07	-1.826344e-06	-1.669256e-08	-1.316972e+01	-1.098517e+03
7.100000e-07	-1.678980e-06	-1.605030e-08	-1.210708e+01	-1.056693e+03
7.200000e-07	-1.531122e-06	-1.536027e-08	-1.104088e+01	-1.011960e+03
7.300000e-07	-1.382713e-06	-1.461632e-08	-9.970708e+00	-9.638320e+02
7.400000e-07	-1.233759e-06	-1.381483e-08	-8.896605e+00	-9.118034e+02
7.500000e-07	-1.084394e-06	-1.295455e-08	-7.819535e+00	-8.554513e+02
7.600000e-07	-9.347455e-07	-1.203221e-08	-6.740424e+00	-7.945419e+02
7.700000e-07	-7.848195e-07	-1.104613e-08	-5.659312e+00	-7.291130e+02
7.800000e-07	-6.346593e-07	-9.997362e-09	-4.576511e+00	-6.595085e+02
7.900000e-07	-4.843364e-07	-8.889476e-09	-3.492536e+00	-5.863476e+02
8.000000e-07	-3.339172e-07	-7.730769e-09	-2.407868e+00	-5.104321e+02
8.100000e-07	-1.833662e-07	-6.535713e-09	-1.322249e+00	-4.326061e+02
8.200000e-07	-3.270734e-08	-5.317983e-09	-2.358518e-01	-3.535991e+02
8.300000e-07	1.179911e-07	-4.091151e-09	8.508307e-01	-2.738902e+02
8.400000e-07	2.687132e-07	-2.862764e-09	1.937684e+00	-1.936265e+02
8.500000e-07	4.193675e-07	-1.631424e-09	3.024048e+00	-1.126200e+02
8.600000e-07	5.699150e-07	-3.903868e-10	4.109642e+00	-3.042923e+01
8.700000e-07	7.203120e-07	8.710712e-10	5.194150e+00	5.348918e+01
8.800000e-07	8.704821e-07	2.165745e-09	6.277023e+00	1.395897e+02
8.900000e-07	1.020437e-06	3.505573e-09	7.358346e+00	2.280512e+02
9.000000e-07	1.170135e-06	4.888326e-09	8.437810e+00	3.186362e+02
9.100000e-07	1.319496e-06	6.300602e-09	9.514853e+00	4.106304e+02
9.200000e-07	1.468377e-06	7.722681e-09	1.058842e+01	5.028792e+02
9.300000e-07	1.616683e-06	9.124495e-09	1.165785e+01	5.939143e+02
9.400000e-07	1.764430e-06	1.047189e-08	1.272325e+01	6.821469e+02
9.500000e-07	1.911520e-06	1.173933e-08	1.378392e+01	7.660864e+02
9.600000e-07	2.057982e-06	1.291257e-08	1.484005e+01	8.445410e+02
9.700000e-07	2.203781e-06	1.398735e-08	1.589140e+01	9.167591e+02
9.800000e-07	2.348724e-06	1.496745e-08	1.693658e+01	9.824880e+02
9.900000e-07	2.492717e-06	1.586263e-08	1.797491e+01	1.041943e+03
1.000000e-06	2.635735e-06	1.668381e-08	1.900621e+01	1.095701e+03
1.010000e-06	2.777717e-06	1.743542e-08	2.003004e+01	1.144546e+03
1.020000e-06	2.918568e-06	1.812650e-08	2.104571e+01	1.189305e+03
1.030000e-06	3.058193e-06	1.876538e-08	2.205254e+01	1.230711e+03
1.040000e-06	3.196639e-06	1.935532e-08	2.305088e+01	1.269313e+03
1.050000e-06	3.333837e-06	1.990096e-08	2.404021e+01	1.305451e+03
1.060000e-06	3.469585e-06	2.040330e-08	2.501908e+01	1.339283e+03
1.070000e-06	3.604037e-06	2.086829e-08	2.598861e+01	1.370859e+03
1.080000e-06	3.737330e-06	2.130322e-08	2.694978e+01	1.400196e+03
1.090000e-06	3.869306e-06	2.171109e-08	2.790146e+01	1.427357e+03
1.100000e-06	3.999914e-06	2.209580e-08	2.884327e+01	1.452484e+03
1.110000e-06	4.129105e-06	2.245974e-08	2.977486e+01	1.475806e+03
1.120000e-06	4.256713e-06	2.280234e-08	3.069505e+01	1.497608e+03
1.130000e-06	4.382877e-06	2.312399e-08	3.160481e+01	1.518180e+03
1.140000e-06	4.507629e-06	2.342561e-08	3.250439e+01	1.537764e+03
1.150000e-06	4.630796e-06	2.370845e-08	3.339255e+01	1.556517e+03
1.160000e-06	4.752361e-06	2.397235e-08	3.426915e+01	1.574500e+03
1.170000e-06	4.872185e-06	2.422044e-08	3.513319e+01	1.591686e+03
1.180000e-06	4.990199e-06	2.445803e-08	3.598419e+01	1.608006e+03
1.190000e-06	5.106428e-06	2.468717e-08	3.682232e+01	1.623387e+03
1.200000e-06	5.220724e-06	2.490985e-08	3.764650e+01	1.637796e+03
1.210000e-06	5.332900e-06	2.512213e-08	3.845539e+01	1.651268e+03
1.220000e-06	5.443093e-06	2.531863e-08	3.925000e+01	1.663901e+03
1.230000e-06	5.551503e-06	2.550211e-08	4.003174e+01	1.675840e+03
1.240000e-06	5.657927e-06	2.567673e-08	4.079916e+01	1.687240e+03
1.250000e-06	5.762143e-06	2.584197e-08	4.155066e+01	1.698229e+03
1.260000e-06	5.864252e-06	2.599923e-08	4.228696e+01	1.708880e+03
1.270000e-06	5.964323e-06	2.615168e-08	4.300857e+01	1.719198e+03
1.280000e-06	6.062158e-06	2.630027e-08	4.371406e+01	1.729130e+03
1.290000e-06	6.157651e-06	2.644420e-08	4.440265e+01	1.738590e+03
1.300000e-06	6.250924e-06	2.658151e-08	4.507524e+01	1.747493e+03
1.310000e-06	6.342032e-06	2.671065e-08	4.573222e+01	1.755786e+03
1.320000e-06	6.430766e-06	2.683082e-08	4.637208e+01	1.763468e+03
1.330000e-06	6.517166e-06	2.694188e-08	4.699511e+01	1.770592e+03
1.340000e-06	6.601390e-06	2.704746e-08	4.760245e+01	1.777257e+03
1.350000e-06	6.683309e-06	2.714794e-08	4.819316e+01	1.783574e+03
1.360000e-06	6.762733e-06	2.724207e-08	4.876588e+01	1.789645e+03
1.370000e-06	6.839632e-06	2.732961e-08	4.932040e+01	1.795532e+03
1.380000e-06	6.913901e-06	2.741163e-08	4.985595e+01	1.801251e+03
1.390000e-06	6.985596e-06	2.749190e-08	5.037295e+01	1.806775e+03
1.400000e-06	7.054873e-06	2.757076e-08	5.087250e+01	1.812047e+03
1.410000e-06	7.121651e-06	2.764564e-08	5.135403e+01	1.817011e+03
1.420000e-06	7.185852e-06	2.771526e-08	5.181698e+01	1.821628e+03
1.430000e-06	7.247609e-06	2.778084e-08	5.226231e+01	1.825895e+03
1.440000e-06	7.306991e-06	2.784317e-08	5.269052e+01	1.829848e+03
1.450000e-06	7.363736e-06	2.790134e-08	5.309970e+01	1.833546e+03
1.460000e-06	7.417735e-06	2.795740e-08	5.348909e+01	1.837059e+03
1.470000e-06	7.468729e-06	2.801261e-08	5.385680e+01	1.840439e+03
1.480000e-06	7.516679e-06	2.806407e-08	5.420257e+01	1.843707e+03
1.490000e-06	7.561973e-06	2.811209e-08	5.452918e+01	1.846846e+03
1.500000e-06	7.604627e-06	2.815470e-08	5.483676e+01	1.849805e+03
1.510000e-06	7.644484e-06	2.819403e-08	5.512417e+01	1.852516e+03
1.520000e-06	7.681649e-06	2.823026e-08	5.539216e+01	1.854918e+03
1.530000e-06	7.716170e-06	2.826154e-08	5.564109e+01	1.856972e+03
1.540000e-06	7.747934e-06	2.828871e-08	5.587014e+01	1.858680e+03
1.550000e-06	7.777033e-06	2.831155e-08	5.607998e+01	1.860078e+03
1.560000e-06	7.803398e-06	2.833297e-08	5.627009e+01	1.861231e+03
1.570000e-06	7.826796e-06	2.835140e-08	5.643881e+01	1.862211e+03
1.580000e-06	7.847378e-06	2.836719e-08	5.658723e+01	1.863079e+03
1.590000e-06	7.865297e-06	2.838078e-08	5.671644e+01	1.863865e+03
1.600000e-06	7.880270e-06	2.839077e-08	5.682441e+01	1.864565e+03
1.610000e-06	7.892122e-06	2.839700e-08	5.690988e+01	1.865143e+03
1.620000e-06	7.900896e-06	2.839963e-08	5.697315e+01	1.865548e+03
1.630000e-06	7.906819e-06	2.840138e-08	5.701586e+01	1.865732e+03
1.640000e-06	7.910019e-06	2.840122e-08	5.703893e+01	1.865665e+03
1.650000e-06	7.910375e-06	2.839725e-08	5.704150e+01	1.865351e+03
1.660000e-06	7.908011e-06	2.838964e-08	5.702445e+01	1.864818e+03
1.670000e-06	7.903054e-06	2.837851e-08	5.698870e+01	1.864118e+03
1.680000e-06	7.895392e-06	2.837092e-08	5.693346e+01	1.863298e+03
1.690000e-06	7.885079e-06	2.836086e-08	5.685909e+01	1.862393e+03
1.700000e-06	7.872061e-06	2.834603e-08	5.676522e+01	1.861407e+03
1.710000e-06	7.856296e-06	2.832862e-08	5.665154e+01	1.860312e+03
1.720000e-06	7.838101e-06	2.830864e-08	5.652033e+01	1.859062e+03
1.730000e-06	7.817630e-06	2.827546e-08	5.637272e+01	1.857605e+03
1.740000e-06	7.794434e-06	2.820416e-08	5.620546e+01	1.855907e+03
1.750000e-06	7.767861e-06	2.816523e-08	5.601384e+01	1.853971e+03
1.760000e-06	7.737638e-06	2.817718e-08	5.579590e+01	1.851838e+03
1.770000e-06	7.704346e-06	2.815083e-08	5.555583e+01	1.849586e+03
1.780000e-06	7.668758e-06	2.810516e-08	5.529921e+01	1.847306e+03
1.790000e-06	7.630956e-06	2.810464e-08	5.502662e+01	1.845083e+03
1.800000e-06	7.591110e-06	2.810024e-08	5.473929e+01	1.842959e+03
1.810000e-06	7.549223e-06	2.802469e-08	5.443724e+01	1.840926e+03
1.820000e-06	7.504754e-06	2.808028e-08	5.411658e+01	1.838914e+03
1.830000e-06	7.457626e-06	2.806186e-08	5.377674e+01	1.836804e+03
1.840000e-06	7.407790e-06	2.799131e-08	5.341737e+01	1.834454e+03
1.850000e-06	7.354908e-06	2.799466e-08	5.303604e+01	1.831727e+03
1.860000e-06	7.299129e-06	2.786856e-08	5.263382e+01	1.828526e+03
1.870000e-06	7.240698e-06	2.785138e-08	5.221248e+01	1.824812e+03
1.880000e-06	7.179749e-06	2.778656e-08	5.177298e+01	1.820605e+03
1.890000e-06	7.116038e-06	2.771298e-08	5.131356e+01	1.815980e+03
1.900000e-06	7.049454e-06	2.771233e-08	5.083342e+01	1.811037e+03
1.910000e-06	6.980316e-06	2.759200e-08	5.033487e+01	1.805873e+03
1.920000e-06	6.908413e-06	2.752175e-08	4.981638e+01	1.800557e+03
1.930000e-06	6.833753e-06	2.742731e-08	4.927801e+01	1.795109e+03
1.940000e-06	6.756416e-06	2.734802e-08	4.872033e+01	1.789504e+03
1.950000e-06	6.676368e-06	2.727544e-08	4.814311e+01	1.783680e+03
1.960000e-06	6.593889e-06	2.716477e-08	4.754835e+01	1.777562e+03
1.970000e-06	6.509052e-06	2.708419e-08	4.693660e+01	1.771089e+03
1.980000e-06	6.421827e-06	2.694163e-08	4.630762e+01	1.764229e+03
1.990000e-06	6.332208e-06	2.685018e-08	4.566138e+01	1.756987e+03
2.000000e-06	6.240371e-06	2.673569e-08	4.499914e+01	1.749400e+03
2.010000e-06	6.146355e-06	2.661802e-08	4.432120e+01	1.741522e+03
2.020000e-06	6.050126e-06	2.650874e-08	4.362729e+01	1.733396e+03
2.030000e-06	5.951784e-06	2.636701e-08	4.291815e+01	1.725036e+03
2.040000e-06	5.851328e-06	2.622841e-08	4.219377e+01	1.716416e+03
2.050000e-06	5.748762e-06	2.607128e-08	4.145416e+01	1.707476e+03
2.060000e-06	5.644149e-06	2.594136e-08	4.069981e+01	1.698129e+03
2.070000e-06	5.537584e-06	2.578781e-08	3.993137e+01	1.688293e+03
2.080000e-06	5.429058e-06	2.563447e-08	3.914879e+01	1.677908e+03
2.090000e-06	5.318618e-06	2.547331e-08	3.835241e+01	1.666955e+03
2.100000e-06	5.206271e-06	2.530815e-08	3.754228e+01	1.655459e+03
2.110000e-06	5.091998e-06	2.513018e-08	3.671826e+01	1.643474e+03
2.120000e-06	4.975769e-06	2.493723e-08	3.588014e+01	1.631064e+03
2.130000e-06	4.857578e-06	2.474317e-08	3.502787e+01	1.618272e+03
2.140000e-06	4.737556e-06	2.452811e-08	3.416238e+01	1.605097e+03
2.150000e-06	4.615825e-06	2.431148e-08	3.328459e+01	1.591484e+03
2.160000e-06	4.492406e-06	2.409239e-08	3.239462e+01	1.577330e+03
2.170000e-06	4.367259e-06	2.387570e-08	3.149218e+01	1.562505e+03
2.180000e-06	4.240536e-06	2.364087e-08	3.057839e+01	1.546880e+03
2.190000e-06	4.112242e-06	2.339853e-08	2.965327e+01	1.530362e+03
2.200000e-06	3.982425e-06	2.314169e-08	2.871716e+01	1.512909e+03
2.210000e-06	3.851159e-06	2.286726e-08	2.777060e+01	1.494537e+03
2.220000e-06	3.718421e-06	2.257675e-08	2.681343e+01	1.475298e+03
2.230000e-06	3.584329e-06	2.227325e-08	2.584650e+01	1.455255e+03
2.240000e-06	3.448957e-06	2.195186e-08	2.487034e+01	1.434434e+03
2.250000e-06	3.312238e-06	2.161026e-08	2.388446e+01	1.412803e+03
2.260000e-06	3.174236e-06	2.125940e-08	2.288933e+01	1.390246e+03
2.270000e-06	3.035048e-06	2.089769e-08	2.188565e+01	1.366575e+03
2.280000e-06	2.894624e-06	2.052078e-08	2.087305e+01	1.341554e+03
2.290000e-06	2.753098e-06	2.011888e-08	1.985251e+01	1.314944e+03
2.300000e-06	2.610574e-06	1.969272e-08	1.882478e+01	1.286540e+03
2.310000e-06	2.467105e-06	1.923484e-08	1.779023e+01	1.256199e+03
2.320000e-06	2.322733e-06	1.874584e-08	1.674916e+01	1.223845e+03
2.330000e-06	2.177445e-06	1.822460e-08	1.570150e+01	1.189438e+03
2.340000e-06	2.031449e-06	1.767216e-08	1.464872e+01	1.152932e+03
2.350000e-06	1.884911e-06	1.708180e-08	1.359204e+01	1.114210e+03
2.360000e-06	1.737840e-06	1.644734e-08	1.253152e+01	1.073047e+03
2.370000e-06	1.590171e-06	1.576811e-08	1.146668e+01	1.029083e+03
2.380000e-06	1.441917e-06	1.504028e-08	1.039763e+01	9.818502e+02
2.390000e-06	1.293133e-06	1.425830e-08	9.324747e+00	9.308402e+02
2.400000e-06	1.143826e-06	1.341728e-08	8.248095e+00	8.755987e+02
2.410000e-06	9.940876e-07	1.251338e-08	7.168339e+00	8.158353e+02
2.420000e-06	8.440233e-07	1.154293e-08	6.086229e+00	7.515147e+02
2.430000e-06	6.937422e-07	1.050556e-08	5.002557e+00	6.829044e+02
2.440000e-06	5.432914e-07	9.406212e-09	3.917659e+00	6.105611e+02
2.450000e-06	3.926843e-07	8.254970e-09	2.831636e+00	5.352528e+02
2.460000e-06	2.419325e-07	7.062938e-09	1.744569e+00	4.578276e+02
2.470000e-06	9.109128e-08	5.846907e-09	6.568567e-01	3.790579e+02
2.480000e-06	-5.977859e-08	4.621445e-09	-4.310618e-01	2.994957e+02
2.490000e-06	-2.106747e-07	3.392975e-09	-1.519170e+00	2.193747e+02
2.500000e-06	-3.614839e-07	2.160902e-09	-2.606651e+00	1.385862e+02
2.510000e-06	-5.121512e-07	9.188619e-10	-3.693108e+00	5.674025e+01
2.520000e-06	-6.627113e-07	-3.467043e-10	-4.778793e+00	-2.669811e+01
2.530000e-06	-8.131231e-07	-1.643717e-09	-5.863408e+00	-1.122240e+02
2.540000e-06	-9.633099e-07	-2.977969e-09	-6.946402e+00	-2.001009e+02
2.550000e-06	-1.113177e-06	-4.354725e-09	-8.027089e+00	-2.902044e+02
2.560000e-06	-1.262671e-06	-5.764994e-09	-9.105085e+00	-3.819403e+02
2.570000e-06	-1.411683e-06	-7.189173e-09	-1.017961e+01	-4.742551e+02
2.580000e-06	-1.560091e-06	-8.601842e-09	-1.124977e+01	-5.657428e+02
2.590000e-06	-1.707807e-06	-9.973051e-09	-1.231495e+01	-6.548246e+02
2.600000e-06	-1.854817e-06	-1.127496e-08	-1.337504e+01	-7.399651e+02
2.610000e-06	-2.001230e-06	-1.248990e-08	-1.443082e+01	-8.198816e+02
2.620000e-06	-2.147090e-06	-1.361114e-08	-1.548261e+01	-8.937034e+02
2.630000e-06	-2.292191e-06	-1.463728e-08	-1.652893e+01	-9.610527e+02
2.640000e-06	-2.436331e-06	-1.557221e-08	-1.756832e+01	-1.022035e+03
2.650000e-06	-2.579473e-06	-1.642411e-08	-1.860051e+01	-1.077151e+03
2.660000e-06	-2.721624e-06	-1.720263e-08	-1.962556e+01	-1.127146e+03
2.670000e-06	-2.862648e-06	-1.791554e-08	-2.064248e+01	-1.172854e+03
2.680000e-06	-3.002355e-06	-1.856939e-08	-2.164990e+01	-1.215040e+03
2.690000e-06	-3.140854e-06	-1.917301e-08	-2.264861e+01	-1.254305e+03
2.700000e-06	-3.278232e-06	-1.973468e-08	-2.363924e+01	-1.291039e+03
2.710000e-06	-3.414324e-06	-2.025525e-08	-2.462060e+01	-1.325441e+03
2.720000e-06	-3.549161e-06	-2.073722e-08	-2.559290e+01	-1.357581e+03
2.730000e-06	-3.682837e-06	-2.118794e-08	-2.655684e+01	-1.387476e+03
2.740000e-06	-3.815138e-06	-2.161075e-08	-2.751086e+01	-1.415172e+03
2.750000e-06	-3.946010e-06	-2.200784e-08	-2.845457e+01	-1.440791e+03
2.760000e-06	-4.075590e-06	-2.237880e-08	-2.938897e+01	-1.464540e+03
2.770000e-06	-4.203712e-06	-2.272393e-08	-3.031285e+01	-1.486696e+03
2.780000e-06	-4.330366e-06	-2.304676e-08	-3.122615e+01	-1.507551e+03
2.790000e-06	-4.455625e-06	-2.335214e-08	-3.212939e+01	-1.527364e+03
2.800000e-06	-4.579282e-06	-2.364089e-08	-3.302108e+01	-1.546317e+03
2.810000e-06	-4.701363e-06	-2.391668e-08	-3.390140e+01	-1.564493e+03
2.820000e-06	-4.821736e-06	-2.418074e-08	-3.476940e+01	-1.581886e+03
2.830000e-06	-4.940209e-06	-2.443085e-08	-3.562371e+01	-1.598431e+03
2.840000e-06	-5.056756e-06	-2.466869e-08	-3.646413e+01	-1.614053e+03
2.850000e-06	-5.171257e-06	-2.489366e-08	-3.728979e+01	-1.628707e+03
2.860000e-06	-5.283669e-06	-2.510655e-08	-3.810040e+01	-1.642407e+03
2.870000e-06	-5.394020e-06	-2.530737e-08	-3.889613e+01	-1.655239e+03
2.880000e-06	-5.502447e-06	-2.549750e-08	-3.967800e+01	-1.667338e+03
2.890000e-06	-5.609069e-06	-2.567781e-08	-4.044685e+01	-1.678860e+03
2.900000e-06	-5.713735e-06	-2.584925e-08	-4.120159e+01	-1.689944e+03
2.910000e-06	-5.816183e-06	-2.601330e-08	-4.194034e+01	-1.700677e+03
2.920000e-06	-5.916388e-06	-2.616972e-08	-4.266291e+01	-1.711083e+03
2.930000e-06	-6.014525e-06	-2.631957e-08	-4.337057e+01	-1.721120e+03
2.940000e-06	-6.110603e-06	-2.646384e-08	-4.406339e+01	-1.730708e+03
