# Temperatura_=_38.97
# Concentracion g/m^3_=_28200.0
# C_Vs_to_Am_M_A/Vsm_=_65563218390.804596
# pendiente_HvsI_1/m_=_3716.3
# ordenada_HvsI_A/m_=_1297.0
# frecuencia_Hz_=_302551.0844624346

Tiempo_(s)	Campo_(V.s)	Magnetizacion_(V.s)	Campo_(kA/m)	Magnetizacion_(A/m)
0.000000e+00	-7.889865e-06	-2.397596e-08	-5.683940e+01	-1.568984e+03
1.000000e-08	-7.886686e-06	-2.397512e-08	-5.681649e+01	-1.568562e+03
2.000000e-08	-7.880937e-06	-2.396790e-08	-5.677508e+01	-1.568019e+03
3.000000e-08	-7.872607e-06	-2.395942e-08	-5.671507e+01	-1.567390e+03
4.000000e-08	-7.861475e-06	-2.395085e-08	-5.663487e+01	-1.566693e+03
5.000000e-08	-7.847458e-06	-2.393857e-08	-5.653389e+01	-1.565925e+03
6.000000e-08	-7.830634e-06	-2.391963e-08	-5.641269e+01	-1.565061e+03
7.000000e-08	-7.811422e-06	-2.389702e-08	-5.627429e+01	-1.564069e+03
8.000000e-08	-7.789979e-06	-2.388035e-08	-5.611981e+01	-1.562918e+03
9.000000e-08	-7.765775e-06	-2.389583e-08	-5.594544e+01	-1.561595e+03
1.000000e-07	-7.738402e-06	-2.388994e-08	-5.574824e+01	-1.560117e+03
1.100000e-07	-7.707999e-06	-2.382947e-08	-5.552921e+01	-1.558529e+03
1.200000e-07	-7.674774e-06	-2.378863e-08	-5.528986e+01	-1.556897e+03
1.300000e-07	-7.638889e-06	-2.377048e-08	-5.503134e+01	-1.555286e+03
1.400000e-07	-7.600581e-06	-2.372928e-08	-5.475536e+01	-1.553747e+03
1.500000e-07	-7.560040e-06	-2.365653e-08	-5.446330e+01	-1.552291e+03
1.600000e-07	-7.517242e-06	-2.365996e-08	-5.415498e+01	-1.550883e+03
1.700000e-07	-7.471840e-06	-2.367824e-08	-5.382790e+01	-1.549442e+03
1.800000e-07	-7.423754e-06	-2.356306e-08	-5.348148e+01	-1.547857e+03
1.900000e-07	-7.372897e-06	-2.356018e-08	-5.311511e+01	-1.546010e+03
2.000000e-07	-7.319043e-06	-2.354471e-08	-5.272714e+01	-1.543801e+03
2.100000e-07	-7.262419e-06	-2.346416e-08	-5.231921e+01	-1.541174e+03
2.200000e-07	-7.203179e-06	-2.343729e-08	-5.189244e+01	-1.538124e+03
2.300000e-07	-7.141290e-06	-2.336693e-08	-5.144658e+01	-1.534700e+03
2.400000e-07	-7.076781e-06	-2.333077e-08	-5.098186e+01	-1.530985e+03
2.500000e-07	-7.009610e-06	-2.326528e-08	-5.049795e+01	-1.527076e+03
2.600000e-07	-6.939782e-06	-2.320152e-08	-4.999490e+01	-1.523053e+03
2.700000e-07	-6.867196e-06	-2.313924e-08	-4.947198e+01	-1.518961e+03
2.800000e-07	-6.791846e-06	-2.307184e-08	-4.892915e+01	-1.514800e+03
2.900000e-07	-6.713782e-06	-2.300646e-08	-4.836677e+01	-1.510523e+03
3.000000e-07	-6.632993e-06	-2.292769e-08	-4.778476e+01	-1.506059e+03
3.100000e-07	-6.549744e-06	-2.286583e-08	-4.718503e+01	-1.501329e+03
3.200000e-07	-6.464302e-06	-2.278442e-08	-4.656949e+01	-1.496271e+03
3.300000e-07	-6.376660e-06	-2.270469e-08	-4.593811e+01	-1.490860e+03
3.400000e-07	-6.286667e-06	-2.262066e-08	-4.528979e+01	-1.485106e+03
3.500000e-07	-6.194358e-06	-2.251472e-08	-4.462479e+01	-1.479051e+03
3.600000e-07	-6.099864e-06	-2.242983e-08	-4.394405e+01	-1.472750e+03
3.700000e-07	-6.003137e-06	-2.234161e-08	-4.324721e+01	-1.466249e+03
3.800000e-07	-5.904194e-06	-2.223580e-08	-4.253442e+01	-1.459566e+03
3.900000e-07	-5.803120e-06	-2.212669e-08	-4.180627e+01	-1.452684e+03
4.000000e-07	-5.699985e-06	-2.201678e-08	-4.106327e+01	-1.445546e+03
4.100000e-07	-5.594869e-06	-2.189590e-08	-4.030601e+01	-1.438078e+03
4.200000e-07	-5.487826e-06	-2.176791e-08	-3.953486e+01	-1.430201e+03
4.300000e-07	-5.378872e-06	-2.164851e-08	-3.874994e+01	-1.421858e+03
4.400000e-07	-5.267925e-06	-2.151643e-08	-3.795067e+01	-1.413025e+03
4.500000e-07	-5.154946e-06	-2.137299e-08	-3.713676e+01	-1.403716e+03
4.600000e-07	-5.040069e-06	-2.122784e-08	-3.630917e+01	-1.393972e+03
4.700000e-07	-4.923278e-06	-2.107661e-08	-3.546780e+01	-1.383843e+03
4.800000e-07	-4.804584e-06	-2.091576e-08	-3.461272e+01	-1.373363e+03
4.900000e-07	-4.684124e-06	-2.075024e-08	-3.374491e+01	-1.362531e+03
5.000000e-07	-4.562003e-06	-2.058100e-08	-3.286514e+01	-1.351302e+03
5.100000e-07	-4.438186e-06	-2.039720e-08	-3.197315e+01	-1.339588e+03
5.200000e-07	-4.312701e-06	-2.020030e-08	-3.106914e+01	-1.327281e+03
5.300000e-07	-4.185666e-06	-1.999761e-08	-3.015397e+01	-1.314270e+03
5.400000e-07	-4.057104e-06	-1.978798e-08	-2.922779e+01	-1.300471e+03
5.500000e-07	-3.927065e-06	-1.956255e-08	-2.829098e+01	-1.285842e+03
5.600000e-07	-3.795542e-06	-1.932413e-08	-2.734347e+01	-1.270387e+03
5.700000e-07	-3.662603e-06	-1.908019e-08	-2.638577e+01	-1.254139e+03
5.800000e-07	-3.528238e-06	-1.882442e-08	-2.541779e+01	-1.237140e+03
5.900000e-07	-3.392503e-06	-1.855352e-08	-2.443994e+01	-1.219408e+03
6.000000e-07	-3.255457e-06	-1.826720e-08	-2.345265e+01	-1.200914e+03
6.100000e-07	-3.117145e-06	-1.796728e-08	-2.245623e+01	-1.181565e+03
6.200000e-07	-2.977512e-06	-1.764934e-08	-2.145030e+01	-1.161210e+03
6.300000e-07	-2.836525e-06	-1.731138e-08	-2.043462e+01	-1.139659e+03
6.400000e-07	-2.694420e-06	-1.695449e-08	-1.941087e+01	-1.116716e+03
6.500000e-07	-2.551280e-06	-1.657906e-08	-1.837968e+01	-1.092204e+03
6.600000e-07	-2.407219e-06	-1.618233e-08	-1.734185e+01	-1.065990e+03
6.700000e-07	-2.262356e-06	-1.575907e-08	-1.629825e+01	-1.037983e+03
6.800000e-07	-2.116695e-06	-1.530989e-08	-1.524889e+01	-1.008116e+03
6.900000e-07	-1.970286e-06	-1.482945e-08	-1.419414e+01	-9.763075e+02
7.000000e-07	-1.823250e-06	-1.431219e-08	-1.313488e+01	-9.424263e+02
7.100000e-07	-1.675656e-06	-1.375497e-08	-1.207160e+01	-9.062572e+02
7.200000e-07	-1.527527e-06	-1.315564e-08	-1.100446e+01	-8.674961e+02
7.300000e-07	-1.378927e-06	-1.251242e-08	-9.933932e+00	-8.257751e+02
7.400000e-07	-1.229905e-06	-1.182157e-08	-8.860361e+00	-7.807206e+02
7.500000e-07	-1.080551e-06	-1.107992e-08	-7.784402e+00	-7.320328e+02
7.600000e-07	-9.307858e-07	-1.028456e-08	-6.705476e+00	-6.795706e+02
7.700000e-07	-7.806283e-07	-9.433673e-09	-5.623726e+00	-6.234185e+02
7.800000e-07	-6.302493e-07	-8.531260e-09	-4.540380e+00	-5.639158e+02
7.900000e-07	-4.796333e-07	-7.584079e-09	-3.455327e+00	-5.016340e+02
8.000000e-07	-3.288166e-07	-6.601488e-09	-2.368829e+00	-4.373021e+02
8.100000e-07	-1.778226e-07	-5.597798e-09	-1.281052e+00	-3.716901e+02
8.200000e-07	-2.669213e-08	-4.583593e-09	-1.922928e-01	-3.054758e+02
8.300000e-07	1.244508e-07	-3.569630e-09	8.965561e-01	-2.391220e+02
8.400000e-07	2.755338e-07	-2.559692e-09	1.984974e+00	-1.727961e+02
8.500000e-07	4.265104e-07	-1.549889e-09	3.072625e+00	-1.063526e+02
8.600000e-07	5.773516e-07	-5.354071e-10	4.159300e+00	-3.938589e+01
8.700000e-07	7.280221e-07	4.931008e-10	5.244746e+00	2.865234e+01
8.800000e-07	8.784518e-07	1.545157e-09	6.328457e+00	9.829573e+01
8.900000e-07	1.028618e-06	2.630467e-09	7.410271e+00	1.698982e+02
9.000000e-07	1.178457e-06	3.751656e-09	8.489725e+00	2.434970e+02
9.100000e-07	1.327877e-06	4.902839e-09	9.566165e+00	3.187345e+02
9.200000e-07	1.476826e-06	6.070365e-09	1.063921e+01	3.948566e+02
9.300000e-07	1.625232e-06	7.233918e-09	1.170834e+01	4.707884e+02
9.400000e-07	1.773039e-06	8.370525e-09	1.277316e+01	5.452728e+02
9.500000e-07	1.920260e-06	9.458606e-09	1.383375e+01	6.170421e+02
9.600000e-07	2.066847e-06	1.048154e-08	1.488978e+01	6.849891e+02
9.700000e-07	2.212609e-06	1.143014e-08	1.593986e+01	7.483030e+02
9.800000e-07	2.357513e-06	1.230344e-08	1.698376e+01	8.065464e+02
9.900000e-07	2.501584e-06	1.310330e-08	1.802166e+01	8.596642e+02
1.000000e-06	2.644654e-06	1.383514e-08	1.905236e+01	9.079264e+02
1.010000e-06	2.786710e-06	1.450577e-08	2.007575e+01	9.518272e+02
1.020000e-06	2.927698e-06	1.512198e-08	2.109144e+01	9.919625e+02
1.030000e-06	3.067449e-06	1.568946e-08	2.209821e+01	1.028917e+03
1.040000e-06	3.205951e-06	1.621272e-08	2.309600e+01	1.063178e+03
1.050000e-06	3.343144e-06	1.669599e-08	2.408435e+01	1.095098e+03
1.060000e-06	3.479028e-06	1.714218e-08	2.506328e+01	1.124894e+03
1.070000e-06	3.613645e-06	1.755569e-08	2.603307e+01	1.152684e+03
1.080000e-06	3.747032e-06	1.794182e-08	2.699400e+01	1.178537e+03
1.090000e-06	3.879137e-06	1.830320e-08	2.794570e+01	1.202528e+03
1.100000e-06	4.009799e-06	1.864250e-08	2.888700e+01	1.224771e+03
1.110000e-06	4.138985e-06	1.896140e-08	2.981767e+01	1.245432e+03
1.120000e-06	4.266690e-06	1.926059e-08	3.073767e+01	1.264713e+03
1.130000e-06	4.392936e-06	1.953939e-08	3.164716e+01	1.282830e+03
1.140000e-06	4.517742e-06	1.979995e-08	3.254628e+01	1.299970e+03
1.150000e-06	4.640990e-06	2.004608e-08	3.343417e+01	1.316273e+03
1.160000e-06	4.762557e-06	2.027936e-08	3.430995e+01	1.331811e+03
1.170000e-06	4.882423e-06	2.049967e-08	3.517347e+01	1.346601e+03
1.180000e-06	5.000558e-06	2.070655e-08	3.602453e+01	1.360622e+03
1.190000e-06	5.116835e-06	2.090184e-08	3.686220e+01	1.373844e+03
1.200000e-06	5.231073e-06	2.108746e-08	3.768518e+01	1.386256e+03
1.210000e-06	5.343213e-06	2.126473e-08	3.849306e+01	1.397885e+03
1.220000e-06	5.453424e-06	2.143322e-08	3.928703e+01	1.408797e+03
1.230000e-06	5.561844e-06	2.159309e-08	4.006809e+01	1.419086e+03
1.240000e-06	5.668252e-06	2.174519e-08	4.083467e+01	1.428855e+03
1.250000e-06	5.772524e-06	2.188955e-08	4.158585e+01	1.438188e+03
1.260000e-06	5.874707e-06	2.202461e-08	4.232199e+01	1.447135e+03
1.270000e-06	5.974777e-06	2.215180e-08	4.304290e+01	1.455705e+03
1.280000e-06	6.072544e-06	2.227441e-08	4.374723e+01	1.463871e+03
1.290000e-06	6.167946e-06	2.239242e-08	4.443452e+01	1.471587e+03
1.300000e-06	6.261193e-06	2.250322e-08	4.510627e+01	1.478812e+03
1.310000e-06	6.352264e-06	2.260506e-08	4.576236e+01	1.485529e+03
1.320000e-06	6.441033e-06	2.269922e-08	4.640186e+01	1.491755e+03
1.330000e-06	6.527539e-06	2.278844e-08	4.702506e+01	1.497549e+03
1.340000e-06	6.611813e-06	2.287384e-08	4.763217e+01	1.502993e+03
1.350000e-06	6.693663e-06	2.295461e-08	4.822183e+01	1.508176e+03
1.360000e-06	6.772983e-06	2.303122e-08	4.879326e+01	1.513174e+03
1.370000e-06	6.849864e-06	2.310468e-08	4.934713e+01	1.518032e+03
1.380000e-06	6.924201e-06	2.317547e-08	4.988265e+01	1.522755e+03
1.390000e-06	6.995914e-06	2.324292e-08	5.039928e+01	1.527318e+03
1.400000e-06	7.065177e-06	2.330577e-08	5.089826e+01	1.531671e+03
1.410000e-06	7.131928e-06	2.336414e-08	5.137914e+01	1.535766e+03
1.420000e-06	7.196046e-06	2.341995e-08	5.184105e+01	1.539569e+03
1.430000e-06	7.257726e-06	2.347411e-08	5.228540e+01	1.543074e+03
1.440000e-06	7.317008e-06	2.352545e-08	5.271248e+01	1.546303e+03
1.450000e-06	7.373697e-06	2.357395e-08	5.312087e+01	1.549303e+03
1.460000e-06	7.427716e-06	2.362000e-08	5.351003e+01	1.552125e+03
1.470000e-06	7.478741e-06	2.366242e-08	5.387762e+01	1.554812e+03
1.480000e-06	7.526696e-06	2.370082e-08	5.422309e+01	1.557381e+03
1.490000e-06	7.571931e-06	2.373673e-08	5.454896e+01	1.559825e+03
1.500000e-06	7.614506e-06	2.376927e-08	5.485568e+01	1.562109e+03
1.510000e-06	7.654295e-06	2.379850e-08	5.514232e+01	1.564189e+03
1.520000e-06	7.691371e-06	2.382497e-08	5.540942e+01	1.566020e+03
1.530000e-06	7.725749e-06	2.384928e-08	5.565709e+01	1.567580e+03
1.540000e-06	7.757329e-06	2.387049e-08	5.588459e+01	1.568871e+03
1.550000e-06	7.786233e-06	2.388696e-08	5.609282e+01	1.569923e+03
1.560000e-06	7.812338e-06	2.390098e-08	5.628088e+01	1.570788e+03
1.570000e-06	7.835508e-06	2.391245e-08	5.644780e+01	1.571520e+03
1.580000e-06	7.855955e-06	2.392359e-08	5.659511e+01	1.572167e+03
1.590000e-06	7.873651e-06	2.393471e-08	5.672259e+01	1.572752e+03
1.600000e-06	7.888392e-06	2.394289e-08	5.682878e+01	1.573274e+03
1.610000e-06	7.900108e-06	2.394766e-08	5.691319e+01	1.573708e+03
1.620000e-06	7.908794e-06	2.395030e-08	5.697576e+01	1.574014e+03
1.630000e-06	7.914632e-06	2.395253e-08	5.701782e+01	1.574158e+03
1.640000e-06	7.917711e-06	2.395262e-08	5.704000e+01	1.574118e+03
1.650000e-06	7.917919e-06	2.395084e-08	5.704150e+01	1.573893e+03
1.660000e-06	7.915418e-06	2.394348e-08	5.702348e+01	1.573505e+03
1.670000e-06	7.910362e-06	2.393497e-08	5.698706e+01	1.572988e+03
1.680000e-06	7.902649e-06	2.392930e-08	5.693149e+01	1.572378e+03
1.690000e-06	7.892263e-06	2.392111e-08	5.685667e+01	1.571696e+03
1.700000e-06	7.879049e-06	2.391103e-08	5.676147e+01	1.570946e+03
1.710000e-06	7.863096e-06	2.390036e-08	5.664655e+01	1.570108e+03
1.720000e-06	7.844840e-06	2.389002e-08	5.651503e+01	1.569151e+03
1.730000e-06	7.824266e-06	2.385996e-08	5.636681e+01	1.568040e+03
1.740000e-06	7.800903e-06	2.378874e-08	5.619850e+01	1.566759e+03
1.750000e-06	7.774148e-06	2.377767e-08	5.600576e+01	1.565316e+03
1.760000e-06	7.743775e-06	2.379747e-08	5.578695e+01	1.563749e+03
1.770000e-06	7.710404e-06	2.376765e-08	5.554654e+01	1.562120e+03
1.780000e-06	7.674770e-06	2.373969e-08	5.528983e+01	1.560498e+03
1.790000e-06	7.636919e-06	2.377433e-08	5.501715e+01	1.558937e+03
1.800000e-06	7.596946e-06	2.374048e-08	5.472918e+01	1.557461e+03
1.810000e-06	7.554913e-06	2.365825e-08	5.442636e+01	1.556046e+03
1.820000e-06	7.510290e-06	2.375043e-08	5.410490e+01	1.554622e+03
1.830000e-06	7.462976e-06	2.371064e-08	5.376404e+01	1.553083e+03
1.840000e-06	7.412902e-06	2.367005e-08	5.340331e+01	1.551310e+03
1.850000e-06	7.359841e-06	2.367153e-08	5.302105e+01	1.549198e+03
1.860000e-06	7.303993e-06	2.358512e-08	5.261872e+01	1.546677e+03
1.870000e-06	7.245445e-06	2.359803e-08	5.219693e+01	1.543729e+03
1.880000e-06	7.184279e-06	2.350234e-08	5.175628e+01	1.540391e+03
1.890000e-06	7.120373e-06	2.345156e-08	5.129590e+01	1.536739e+03
1.900000e-06	7.053648e-06	2.342788e-08	5.081520e+01	1.532869e+03
1.910000e-06	6.984222e-06	2.333716e-08	5.031505e+01	1.528867e+03
1.920000e-06	6.912065e-06	2.330469e-08	4.979523e+01	1.524790e+03
1.930000e-06	6.837245e-06	2.322699e-08	4.925622e+01	1.520648e+03
1.940000e-06	6.759744e-06	2.318344e-08	4.869789e+01	1.516406e+03
1.950000e-06	6.679589e-06	2.309929e-08	4.812044e+01	1.511995e+03
1.960000e-06	6.596981e-06	2.300568e-08	4.752533e+01	1.507337e+03
1.970000e-06	6.511958e-06	2.294306e-08	4.691281e+01	1.502364e+03
1.980000e-06	6.424564e-06	2.285054e-08	4.628321e+01	1.497041e+03
1.990000e-06	6.334835e-06	2.279254e-08	4.563680e+01	1.491368e+03
2.000000e-06	6.242829e-06	2.269220e-08	4.497398e+01	1.485383e+03
2.010000e-06	6.148631e-06	2.260166e-08	4.429537e+01	1.479137e+03
2.020000e-06	6.052236e-06	2.250277e-08	4.360093e+01	1.472682e+03
2.030000e-06	5.953699e-06	2.239174e-08	4.289105e+01	1.466045e+03
2.040000e-06	5.853020e-06	2.228428e-08	4.216576e+01	1.459215e+03
2.050000e-06	5.750233e-06	2.217789e-08	4.142526e+01	1.452147e+03
2.060000e-06	5.645417e-06	2.207610e-08	4.067017e+01	1.444768e+03
2.070000e-06	5.538673e-06	2.194671e-08	3.990117e+01	1.436998e+03
2.080000e-06	5.429975e-06	2.182008e-08	3.911810e+01	1.428774e+03
2.090000e-06	5.319357e-06	2.168736e-08	3.832119e+01	1.420063e+03
2.100000e-06	5.206841e-06	2.155203e-08	3.751062e+01	1.410869e+03
2.110000e-06	5.092379e-06	2.140626e-08	3.668602e+01	1.401229e+03
2.120000e-06	4.975948e-06	2.125894e-08	3.584724e+01	1.391191e+03
2.130000e-06	4.857601e-06	2.110244e-08	3.499466e+01	1.380796e+03
2.140000e-06	4.737413e-06	2.093124e-08	3.412881e+01	1.370054e+03
2.150000e-06	4.615478e-06	2.075739e-08	3.325037e+01	1.358929e+03
2.160000e-06	4.491862e-06	2.058308e-08	3.235983e+01	1.347346e+03
2.170000e-06	4.366519e-06	2.040185e-08	3.145685e+01	1.335196e+03
2.180000e-06	4.239612e-06	2.020450e-08	3.054260e+01	1.322370e+03
2.190000e-06	4.111160e-06	2.000045e-08	2.961722e+01	1.308773e+03
2.200000e-06	3.981187e-06	1.978412e-08	2.868088e+01	1.294352e+03
2.210000e-06	3.849718e-06	1.955399e-08	2.773376e+01	1.279100e+03
2.220000e-06	3.716743e-06	1.931163e-08	2.677580e+01	1.263045e+03
2.230000e-06	3.582437e-06	1.906246e-08	2.580824e+01	1.246229e+03
2.240000e-06	3.446887e-06	1.879957e-08	2.483173e+01	1.228681e+03
2.250000e-06	3.310065e-06	1.852029e-08	2.384605e+01	1.210383e+03
2.260000e-06	3.171897e-06	1.822939e-08	2.285067e+01	1.191259e+03
2.270000e-06	3.032445e-06	1.792248e-08	2.184604e+01	1.171171e+03
2.280000e-06	2.891836e-06	1.759460e-08	2.083308e+01	1.149936e+03
2.290000e-06	2.750145e-06	1.724670e-08	1.981233e+01	1.127358e+03
2.300000e-06	2.607498e-06	1.688254e-08	1.878468e+01	1.103251e+03
2.310000e-06	2.463858e-06	1.649626e-08	1.774988e+01	1.077472e+03
2.320000e-06	2.319218e-06	1.608450e-08	1.670788e+01	1.049919e+03
2.330000e-06	2.173791e-06	1.564319e-08	1.566021e+01	1.020523e+03
2.340000e-06	2.027688e-06	1.516983e-08	1.460768e+01	9.892083e+02
2.350000e-06	1.880924e-06	1.465941e-08	1.355037e+01	9.558610e+02
2.360000e-06	1.733511e-06	1.411117e-08	1.248839e+01	9.202881e+02
2.370000e-06	1.585511e-06	1.352493e-08	1.142218e+01	8.822067e+02
2.380000e-06	1.437025e-06	1.289638e-08	1.035248e+01	8.412608e+02
2.390000e-06	1.288072e-06	1.221958e-08	9.279405e+00	7.970713e+02
2.400000e-06	1.138693e-06	1.148984e-08	8.203264e+00	7.493116e+02
2.410000e-06	9.889448e-07	1.070755e-08	7.124459e+00	6.977938e+02
2.420000e-06	8.388586e-07	9.872316e-09	6.043223e+00	6.425414e+02
2.430000e-06	6.884971e-07	8.986130e-09	4.960004e+00	5.838300e+02
2.440000e-06	5.378995e-07	8.053827e-09	3.875083e+00	5.221781e+02
2.450000e-06	3.871477e-07	7.081441e-09	2.789051e+00	4.582849e+02
2.460000e-06	2.362503e-07	6.078112e-09	1.701971e+00	3.929226e+02
2.470000e-06	8.523219e-08	5.057727e-09	6.140214e-01	3.268043e+02
2.480000e-06	-6.582434e-08	4.033678e-09	-4.742053e-01	2.604563e+02
2.490000e-06	-2.168461e-07	3.013388e-09	-1.562182e+00	1.941243e+02
2.500000e-06	-3.677817e-07	1.995669e-09	-2.649537e+00	1.277387e+02
2.510000e-06	-5.186353e-07	9.764143e-10	-3.736302e+00	6.095017e+01
2.520000e-06	-6.693556e-07	-5.328734e-11	-4.822106e+00	-6.767647e+00
2.530000e-06	-8.199170e-07	-1.102255e-09	-5.906766e+00	-7.596783e+01
2.540000e-06	-9.702157e-07	-2.178870e-09	-6.989533e+00	-1.470637e+02
2.550000e-06	-1.120104e-06	-3.292517e-09	-8.069344e+00	-2.201818e+02
2.560000e-06	-1.269564e-06	-4.439234e-09	-9.146068e+00	-2.950665e+02
2.570000e-06	-1.418603e-06	-5.607486e-09	-1.021976e+01	-3.710587e+02
2.580000e-06	-1.567166e-06	-6.781563e-09	-1.129003e+01	-4.471525e+02
2.590000e-06	-1.715161e-06	-7.938544e-09	-1.235620e+01	-5.221212e+02
2.600000e-06	-1.862492e-06	-9.054067e-09	-1.341759e+01	-5.946830e+02
2.610000e-06	-2.009105e-06	-1.010999e-08	-1.447380e+01	-6.636760e+02
2.620000e-06	-2.155031e-06	-1.109346e-08	-1.552507e+01	-7.282053e+02
2.630000e-06	-2.300155e-06	-1.199825e-08	-1.657056e+01	-7.877369e+02
2.640000e-06	-2.444333e-06	-1.282618e-08	-1.760923e+01	-8.421230e+02
2.650000e-06	-2.587543e-06	-1.358425e-08	-1.864092e+01	-8.915605e+02
2.660000e-06	-2.729724e-06	-1.428093e-08	-1.966521e+01	-9.364986e+02
2.670000e-06	-2.870763e-06	-1.492005e-08	-2.068127e+01	-9.775192e+02
2.680000e-06	-3.010588e-06	-1.550806e-08	-2.168858e+01	-1.015219e+03
2.690000e-06	-3.149230e-06	-1.604783e-08	-2.268738e+01	-1.050116e+03
2.700000e-06	-3.286669e-06	-1.654258e-08	-2.367750e+01	-1.082597e+03
2.710000e-06	-3.422902e-06	-1.699973e-08	-2.465894e+01	-1.112911e+03
2.720000e-06	-3.557857e-06	-1.742450e-08	-2.563116e+01	-1.141196e+03
2.730000e-06	-3.691496e-06	-1.782311e-08	-2.659391e+01	-1.167528e+03
2.740000e-06	-3.823860e-06	-1.819932e-08	-2.754748e+01	-1.191976e+03
2.750000e-06	-3.954839e-06	-1.855062e-08	-2.849107e+01	-1.214644e+03
2.760000e-06	-4.084483e-06	-1.887581e-08	-2.942503e+01	-1.235683e+03
2.770000e-06	-4.212740e-06	-1.917829e-08	-3.034901e+01	-1.255290e+03
2.780000e-06	-4.339497e-06	-1.946309e-08	-3.126218e+01	-1.273680e+03
2.790000e-06	-4.464812e-06	-1.973026e-08	-3.216496e+01	-1.291050e+03
2.800000e-06	-4.588566e-06	-1.998131e-08	-3.305650e+01	-1.307553e+03
2.810000e-06	-4.710703e-06	-2.022013e-08	-3.393639e+01	-1.323280e+03
2.820000e-06	-4.831179e-06	-2.044942e-08	-3.480431e+01	-1.338260e+03
2.830000e-06	-4.949777e-06	-2.066942e-08	-3.565870e+01	-1.352477e+03
2.840000e-06	-5.066367e-06	-2.087745e-08	-3.649863e+01	-1.365901e+03
2.850000e-06	-5.180915e-06	-2.107250e-08	-3.732384e+01	-1.378515e+03
2.860000e-06	-5.293373e-06	-2.125365e-08	-3.813400e+01	-1.390337e+03
2.870000e-06	-5.403790e-06	-2.142193e-08	-3.892946e+01	-1.401421e+03
2.880000e-06	-5.512291e-06	-2.158010e-08	-3.971111e+01	-1.411857e+03
2.890000e-06	-5.618924e-06	-2.173116e-08	-4.047931e+01	-1.421748e+03
2.900000e-06	-5.723574e-06	-2.187815e-08	-4.123322e+01	-1.431184e+03
2.910000e-06	-5.826034e-06	-2.201941e-08	-4.197135e+01	-1.440226e+03
2.920000e-06	-5.926327e-06	-2.215272e-08	-4.269386e+01	-1.448893e+03
2.930000e-06	-6.024566e-06	-2.227936e-08	-4.340159e+01	-1.457165e+03
2.940000e-06	-6.120648e-06	-2.239855e-08	-4.409377e+01	-1.464999e+03
