# Temperatura_=_44.5
# Concentracion g/m^3_=_28200.0
# C_Vs_to_Am_M_A/Vsm_=_65563218390.804596
# pendiente_HvsI_1/m_=_3716.3
# ordenada_HvsI_A/m_=_1297.0
# frecuencia_Hz_=_302549.1886348728

Tiempo_(s)	Campo_(V.s)	Magnetizacion_(V.s)	Campo_(kA/m)	Magnetizacion_(A/m)
0.000000e+00	-7.914609e-06	-2.504536e-08	-5.684133e+01	-1.638765e+03
1.000000e-08	-7.911406e-06	-2.504537e-08	-5.681833e+01	-1.638310e+03
2.000000e-08	-7.905614e-06	-2.504037e-08	-5.677673e+01	-1.637730e+03
3.000000e-08	-7.897197e-06	-2.503211e-08	-5.671628e+01	-1.637068e+03
4.000000e-08	-7.886023e-06	-2.502342e-08	-5.663603e+01	-1.636348e+03
5.000000e-08	-7.871963e-06	-2.500998e-08	-5.653505e+01	-1.635571e+03
6.000000e-08	-7.855054e-06	-2.499041e-08	-5.641362e+01	-1.634712e+03
7.000000e-08	-7.835761e-06	-2.496929e-08	-5.627506e+01	-1.633728e+03
8.000000e-08	-7.814212e-06	-2.495522e-08	-5.612029e+01	-1.632574e+03
9.000000e-08	-7.789925e-06	-2.496692e-08	-5.594587e+01	-1.631224e+03
1.000000e-07	-7.762464e-06	-2.495648e-08	-5.574865e+01	-1.629678e+03
1.100000e-07	-7.731981e-06	-2.489646e-08	-5.552972e+01	-1.627974e+03
1.200000e-07	-7.698689e-06	-2.485241e-08	-5.529063e+01	-1.626175e+03
1.300000e-07	-7.662645e-06	-2.482826e-08	-5.503177e+01	-1.624359e+03
1.400000e-07	-7.624180e-06	-2.478889e-08	-5.475552e+01	-1.622593e+03
1.500000e-07	-7.583447e-06	-2.472852e-08	-5.446298e+01	-1.620911e+03
1.600000e-07	-7.540360e-06	-2.471251e-08	-5.415354e+01	-1.619301e+03
1.700000e-07	-7.494789e-06	-2.471424e-08	-5.382626e+01	-1.617702e+03
1.800000e-07	-7.446551e-06	-2.461472e-08	-5.347982e+01	-1.616014e+03
1.900000e-07	-7.395393e-06	-2.458733e-08	-5.311241e+01	-1.614119e+03
2.000000e-07	-7.341295e-06	-2.457890e-08	-5.272389e+01	-1.611907e+03
2.100000e-07	-7.284490e-06	-2.451942e-08	-5.231593e+01	-1.609303e+03
2.200000e-07	-7.225027e-06	-2.449303e-08	-5.188887e+01	-1.606278e+03
2.300000e-07	-7.162920e-06	-2.443077e-08	-5.144283e+01	-1.602856e+03
2.400000e-07	-7.098123e-06	-2.437251e-08	-5.097747e+01	-1.599103e+03
2.500000e-07	-7.030631e-06	-2.429457e-08	-5.049276e+01	-1.595104e+03
2.600000e-07	-6.960523e-06	-2.422818e-08	-4.998925e+01	-1.590937e+03
2.700000e-07	-6.887630e-06	-2.417156e-08	-4.946575e+01	-1.586653e+03
2.800000e-07	-6.811974e-06	-2.410045e-08	-4.892240e+01	-1.582265e+03
2.900000e-07	-6.733632e-06	-2.402872e-08	-4.835976e+01	-1.577740e+03
3.000000e-07	-6.652605e-06	-2.394813e-08	-4.777784e+01	-1.573021e+03
3.100000e-07	-6.569137e-06	-2.387135e-08	-4.717839e+01	-1.568039e+03
3.200000e-07	-6.483461e-06	-2.378254e-08	-4.656308e+01	-1.562738e+03
3.300000e-07	-6.395490e-06	-2.370599e-08	-4.593128e+01	-1.557091e+03
3.400000e-07	-6.305125e-06	-2.363062e-08	-4.528230e+01	-1.551105e+03
3.500000e-07	-6.212518e-06	-2.352514e-08	-4.461721e+01	-1.544813e+03
3.600000e-07	-6.117763e-06	-2.342616e-08	-4.393670e+01	-1.538263e+03
3.700000e-07	-6.020769e-06	-2.332633e-08	-4.324010e+01	-1.531496e+03
3.800000e-07	-5.921517e-06	-2.321838e-08	-4.252730e+01	-1.524528e+03
3.900000e-07	-5.820150e-06	-2.310775e-08	-4.179929e+01	-1.517338e+03
4.000000e-07	-5.716732e-06	-2.299579e-08	-4.105657e+01	-1.509874e+03
4.100000e-07	-5.611283e-06	-2.287373e-08	-4.029925e+01	-1.502062e+03
4.200000e-07	-5.503867e-06	-2.274003e-08	-3.952781e+01	-1.493829e+03
4.300000e-07	-5.394522e-06	-2.260830e-08	-3.874251e+01	-1.485116e+03
4.400000e-07	-5.283119e-06	-2.246680e-08	-3.794243e+01	-1.475900e+03
4.500000e-07	-5.169661e-06	-2.231939e-08	-3.712759e+01	-1.466191e+03
4.600000e-07	-5.054296e-06	-2.216879e-08	-3.629906e+01	-1.456029e+03
4.700000e-07	-4.937073e-06	-2.201267e-08	-3.545719e+01	-1.445458e+03
4.800000e-07	-4.817998e-06	-2.184440e-08	-3.460202e+01	-1.434510e+03
4.900000e-07	-4.697191e-06	-2.166808e-08	-3.373440e+01	-1.423182e+03
5.000000e-07	-4.574734e-06	-2.148929e-08	-3.285494e+01	-1.411430e+03
5.100000e-07	-4.450560e-06	-2.129831e-08	-3.196314e+01	-1.399171e+03
5.200000e-07	-4.324751e-06	-2.109311e-08	-3.105960e+01	-1.386297e+03
5.300000e-07	-4.197382e-06	-2.088050e-08	-3.014486e+01	-1.372705e+03
5.400000e-07	-4.068472e-06	-2.066230e-08	-2.921905e+01	-1.358315e+03
5.500000e-07	-3.937998e-06	-2.042834e-08	-2.828201e+01	-1.343087e+03
5.600000e-07	-3.805994e-06	-2.018100e-08	-2.733398e+01	-1.327023e+03
5.700000e-07	-3.672567e-06	-1.992675e-08	-2.637573e+01	-1.310155e+03
5.800000e-07	-3.537776e-06	-1.966325e-08	-2.540768e+01	-1.292520e+03
5.900000e-07	-3.401599e-06	-1.938613e-08	-2.442968e+01	-1.274126e+03
6.000000e-07	-3.264090e-06	-1.909148e-08	-2.344212e+01	-1.254932e+03
6.100000e-07	-3.125333e-06	-1.878074e-08	-2.244559e+01	-1.234836e+03
6.200000e-07	-2.985245e-06	-1.844965e-08	-2.143950e+01	-1.213674e+03
6.300000e-07	-2.843848e-06	-1.809681e-08	-2.042402e+01	-1.191250e+03
6.400000e-07	-2.701263e-06	-1.772422e-08	-1.940000e+01	-1.167359e+03
6.500000e-07	-2.557651e-06	-1.733385e-08	-1.836860e+01	-1.141823e+03
6.600000e-07	-2.413133e-06	-1.692159e-08	-1.733070e+01	-1.114508e+03
6.700000e-07	-2.267788e-06	-1.648147e-08	-1.628685e+01	-1.085321e+03
6.800000e-07	-2.121717e-06	-1.601161e-08	-1.523780e+01	-1.054193e+03
6.900000e-07	-1.974964e-06	-1.550832e-08	-1.418384e+01	-1.021038e+03
7.000000e-07	-1.827562e-06	-1.496853e-08	-1.312523e+01	-9.857126e+02
7.100000e-07	-1.679565e-06	-1.438770e-08	-1.206234e+01	-9.479849e+02
7.200000e-07	-1.531032e-06	-1.376228e-08	-1.099560e+01	-9.075297e+02
7.300000e-07	-1.382015e-06	-1.308892e-08	-9.925388e+00	-8.639557e+02
7.400000e-07	-1.232605e-06	-1.236467e-08	-8.852352e+00	-8.168674e+02
7.500000e-07	-1.082756e-06	-1.158685e-08	-7.776162e+00	-7.659493e+02
7.600000e-07	-9.324420e-07	-1.075488e-08	-6.696635e+00	-7.110537e+02
7.700000e-07	-7.817704e-07	-9.868668e-09	-5.614538e+00	-6.522705e+02
7.800000e-07	-6.307994e-07	-8.928440e-09	-4.530290e+00	-5.899555e+02
7.900000e-07	-4.796393e-07	-7.939566e-09	-3.444685e+00	-5.247058e+02
8.000000e-07	-3.283752e-07	-6.911086e-09	-2.358333e+00	-4.572798e+02
8.100000e-07	-1.769983e-07	-5.856574e-09	-1.271171e+00	-3.884754e+02
8.200000e-07	-2.548510e-08	-4.789151e-09	-1.830295e-01	-3.189903e+02
8.300000e-07	1.260819e-07	-3.720829e-09	9.054978e-01	-2.492954e+02
8.400000e-07	2.775758e-07	-2.655868e-09	1.993500e+00	-1.795534e+02
8.500000e-07	4.289747e-07	-1.592019e-09	3.080821e+00	-1.096026e+02
8.600000e-07	5.802576e-07	-5.256062e-10	4.167308e+00	-3.901651e+01
8.700000e-07	7.314007e-07	5.548887e-10	5.252791e+00	3.277129e+01
8.800000e-07	8.823764e-07	1.663078e-09	6.337072e+00	1.063009e+02
8.900000e-07	1.033106e-06	2.810293e-09	7.419586e+00	1.819134e+02
9.000000e-07	1.183466e-06	3.996088e-09	8.499448e+00	2.596094e+02
9.100000e-07	1.333296e-06	5.211860e-09	9.575499e+00	3.389712e+02
9.200000e-07	1.482596e-06	6.445066e-09	1.064775e+01	4.191655e+02
9.300000e-07	1.631404e-06	7.672857e-09	1.171646e+01	4.990288e+02
9.400000e-07	1.779685e-06	8.867633e-09	1.278138e+01	5.772166e+02
9.500000e-07	1.927359e-06	1.000499e-08	1.384195e+01	6.523882e+02
9.600000e-07	2.074257e-06	1.106953e-08	1.489695e+01	7.233862e+02
9.700000e-07	2.220413e-06	1.205469e-08	1.594662e+01	7.893792e+02
9.800000e-07	2.365818e-06	1.295922e-08	1.699089e+01	8.499395e+02
9.900000e-07	2.510308e-06	1.378983e-08	1.802859e+01	9.050473e+02
1.000000e-06	2.653792e-06	1.455200e-08	1.905907e+01	9.550258e+02
1.010000e-06	2.796179e-06	1.524813e-08	2.008167e+01	1.000430e+03
1.020000e-06	2.937504e-06	1.588576e-08	2.109664e+01	1.041912e+03
1.030000e-06	3.077678e-06	1.647096e-08	2.210334e+01	1.080104e+03
1.040000e-06	3.216556e-06	1.700876e-08	2.310074e+01	1.115525e+03
1.050000e-06	3.354224e-06	1.750577e-08	2.408945e+01	1.148542e+03
1.060000e-06	3.490595e-06	1.796614e-08	2.506884e+01	1.179373e+03
1.070000e-06	3.625589e-06	1.839354e-08	2.603834e+01	1.208130e+03
1.080000e-06	3.759324e-06	1.879323e-08	2.699880e+01	1.234876e+03
1.090000e-06	3.891728e-06	1.916796e-08	2.794971e+01	1.259683e+03
1.100000e-06	4.022734e-06	1.952034e-08	2.889057e+01	1.282668e+03
1.110000e-06	4.152347e-06	1.985137e-08	2.982143e+01	1.304004e+03
1.120000e-06	4.280417e-06	2.016025e-08	3.074120e+01	1.323910e+03
1.130000e-06	4.406935e-06	2.044815e-08	3.164983e+01	1.342614e+03
1.140000e-06	4.532053e-06	2.071685e-08	3.254840e+01	1.360318e+03
1.150000e-06	4.655610e-06	2.096930e-08	3.343577e+01	1.377167e+03
1.160000e-06	4.777530e-06	2.120784e-08	3.431138e+01	1.393235e+03
1.170000e-06	4.897745e-06	2.143363e-08	3.517474e+01	1.408533e+03
1.180000e-06	5.016128e-06	2.164791e-08	3.602495e+01	1.423031e+03
1.190000e-06	5.132710e-06	2.185180e-08	3.686222e+01	1.436693e+03
1.200000e-06	5.247367e-06	2.204708e-08	3.768567e+01	1.449507e+03
1.210000e-06	5.359958e-06	2.223261e-08	3.849428e+01	1.461501e+03
1.220000e-06	5.470560e-06	2.240695e-08	3.928860e+01	1.472750e+03
1.230000e-06	5.579287e-06	2.257019e-08	4.006946e+01	1.483359e+03
1.240000e-06	5.686026e-06	2.272351e-08	4.083604e+01	1.493442e+03
1.250000e-06	5.790673e-06	2.287031e-08	4.158760e+01	1.503095e+03
1.260000e-06	5.893181e-06	2.301106e-08	4.232379e+01	1.512371e+03
1.270000e-06	5.993516e-06	2.314658e-08	4.304438e+01	1.521278e+03
1.280000e-06	6.091654e-06	2.327593e-08	4.374919e+01	1.529780e+03
1.290000e-06	6.187481e-06	2.339764e-08	4.443740e+01	1.537820e+03
1.300000e-06	6.281003e-06	2.351244e-08	4.510906e+01	1.545344e+03
1.310000e-06	6.372318e-06	2.361865e-08	4.576486e+01	1.552327e+03
1.320000e-06	6.461378e-06	2.371588e-08	4.640448e+01	1.558784e+03
1.330000e-06	6.548126e-06	2.380721e-08	4.702749e+01	1.564774e+03
1.340000e-06	6.632557e-06	2.389547e-08	4.763385e+01	1.570387e+03
1.350000e-06	6.714660e-06	2.397869e-08	4.822351e+01	1.575725e+03
1.360000e-06	6.794337e-06	2.405785e-08	4.879574e+01	1.580872e+03
1.370000e-06	6.871511e-06	2.413335e-08	4.934998e+01	1.585882e+03
1.380000e-06	6.946074e-06	2.420523e-08	4.988548e+01	1.590764e+03
1.390000e-06	7.017973e-06	2.427448e-08	5.040185e+01	1.595489e+03
1.400000e-06	7.087406e-06	2.433902e-08	5.090050e+01	1.600003e+03
1.410000e-06	7.154340e-06	2.440030e-08	5.138121e+01	1.604248e+03
1.420000e-06	7.218649e-06	2.445818e-08	5.184307e+01	1.608186e+03
1.430000e-06	7.280474e-06	2.451327e-08	5.228708e+01	1.611806e+03
1.440000e-06	7.339863e-06	2.456685e-08	5.271360e+01	1.615135e+03
1.450000e-06	7.396645e-06	2.461771e-08	5.312141e+01	1.618222e+03
1.460000e-06	7.450742e-06	2.466596e-08	5.350992e+01	1.621128e+03
1.470000e-06	7.501884e-06	2.471141e-08	5.387721e+01	1.623903e+03
1.480000e-06	7.549923e-06	2.475295e-08	5.422222e+01	1.626571e+03
1.490000e-06	7.595198e-06	2.479042e-08	5.454738e+01	1.629126e+03
1.500000e-06	7.637867e-06	2.482360e-08	5.485381e+01	1.631531e+03
1.510000e-06	7.677761e-06	2.485363e-08	5.514033e+01	1.633732e+03
1.520000e-06	7.714952e-06	2.488068e-08	5.540743e+01	1.635678e+03
1.530000e-06	7.749498e-06	2.490518e-08	5.565553e+01	1.637336e+03
1.540000e-06	7.781252e-06	2.492722e-08	5.588358e+01	1.638703e+03
1.550000e-06	7.810283e-06	2.494588e-08	5.609208e+01	1.639809e+03
1.560000e-06	7.836516e-06	2.496216e-08	5.628048e+01	1.640707e+03
1.570000e-06	7.859824e-06	2.497558e-08	5.644787e+01	1.641459e+03
1.580000e-06	7.880376e-06	2.498762e-08	5.659548e+01	1.642119e+03
1.590000e-06	7.898134e-06	2.499888e-08	5.672301e+01	1.642718e+03
1.600000e-06	7.912896e-06	2.500739e-08	5.682903e+01	1.643256e+03
1.610000e-06	7.924619e-06	2.501286e-08	5.691322e+01	1.643707e+03
1.620000e-06	7.933309e-06	2.501502e-08	5.697563e+01	1.644030e+03
1.630000e-06	7.939162e-06	2.501576e-08	5.701766e+01	1.644183e+03
1.640000e-06	7.942249e-06	2.501481e-08	5.703984e+01	1.644140e+03
1.650000e-06	7.942481e-06	2.501151e-08	5.704150e+01	1.643897e+03
1.660000e-06	7.940015e-06	2.500539e-08	5.702379e+01	1.643479e+03
1.670000e-06	7.934894e-06	2.499780e-08	5.698701e+01	1.642926e+03
1.680000e-06	7.927040e-06	2.499295e-08	5.693061e+01	1.642280e+03
1.690000e-06	7.916575e-06	2.498485e-08	5.685545e+01	1.641572e+03
1.700000e-06	7.903394e-06	2.497233e-08	5.676079e+01	1.640810e+03
1.710000e-06	7.887479e-06	2.496076e-08	5.664649e+01	1.639974e+03
1.720000e-06	7.869146e-06	2.494802e-08	5.651482e+01	1.639024e+03
1.730000e-06	7.848472e-06	2.491419e-08	5.636634e+01	1.637916e+03
1.740000e-06	7.824988e-06	2.484922e-08	5.619769e+01	1.636615e+03
1.750000e-06	7.798068e-06	2.483684e-08	5.600435e+01	1.635115e+03
1.760000e-06	7.767548e-06	2.485391e-08	5.578516e+01	1.633444e+03
1.770000e-06	7.734046e-06	2.482712e-08	5.554456e+01	1.631661e+03
1.780000e-06	7.698236e-06	2.479552e-08	5.528737e+01	1.629841e+03
1.790000e-06	7.660167e-06	2.480730e-08	5.501397e+01	1.628057e+03
1.800000e-06	7.620044e-06	2.478285e-08	5.472582e+01	1.626351e+03
1.810000e-06	7.577889e-06	2.471237e-08	5.442307e+01	1.624726e+03
1.820000e-06	7.533095e-06	2.477872e-08	5.410136e+01	1.623132e+03
1.830000e-06	7.485572e-06	2.476370e-08	5.376006e+01	1.621476e+03
1.840000e-06	7.435293e-06	2.471209e-08	5.339896e+01	1.619643e+03
1.850000e-06	7.382018e-06	2.470147e-08	5.301636e+01	1.617518e+03
1.860000e-06	7.325958e-06	2.461945e-08	5.261374e+01	1.615015e+03
1.870000e-06	7.267276e-06	2.460966e-08	5.219229e+01	1.612094e+03
1.880000e-06	7.205971e-06	2.453948e-08	5.175202e+01	1.608766e+03
1.890000e-06	7.141867e-06	2.449972e-08	5.129163e+01	1.605087e+03
1.900000e-06	7.074951e-06	2.448068e-08	5.081106e+01	1.601140e+03
1.910000e-06	7.005335e-06	2.438935e-08	5.031108e+01	1.597008e+03
1.920000e-06	6.932944e-06	2.433594e-08	4.979119e+01	1.592750e+03
1.930000e-06	6.857893e-06	2.425463e-08	4.925218e+01	1.588388e+03
1.940000e-06	6.780157e-06	2.420086e-08	4.869389e+01	1.583901e+03
1.950000e-06	6.699767e-06	2.413102e-08	4.811655e+01	1.579236e+03
1.960000e-06	6.616928e-06	2.404968e-08	4.752162e+01	1.574324e+03
1.970000e-06	6.531616e-06	2.397668e-08	4.690892e+01	1.569106e+03
1.980000e-06	6.443875e-06	2.387278e-08	4.627878e+01	1.563546e+03
1.990000e-06	6.353809e-06	2.379740e-08	4.563194e+01	1.557640e+03
2.000000e-06	6.261527e-06	2.369928e-08	4.496918e+01	1.551420e+03
2.010000e-06	6.167021e-06	2.360908e-08	4.429046e+01	1.544929e+03
2.020000e-06	6.070320e-06	2.351273e-08	4.359597e+01	1.538213e+03
2.030000e-06	5.971474e-06	2.340137e-08	4.288608e+01	1.531294e+03
2.040000e-06	5.870456e-06	2.328156e-08	4.216058e+01	1.524162e+03
2.050000e-06	5.767353e-06	2.316263e-08	4.142012e+01	1.516772e+03
2.060000e-06	5.662240e-06	2.305363e-08	4.066521e+01	1.509054e+03
2.070000e-06	5.555197e-06	2.292820e-08	3.989644e+01	1.500931e+03
2.080000e-06	5.446179e-06	2.279864e-08	3.911350e+01	1.492341e+03
2.090000e-06	5.335174e-06	2.266096e-08	3.831628e+01	1.483249e+03
2.100000e-06	5.222265e-06	2.251964e-08	3.750539e+01	1.473660e+03
2.110000e-06	5.107370e-06	2.236680e-08	3.668023e+01	1.463606e+03
2.120000e-06	4.990464e-06	2.221332e-08	3.584064e+01	1.453132e+03
2.130000e-06	4.871663e-06	2.205293e-08	3.498742e+01	1.442276e+03
2.140000e-06	4.751052e-06	2.187847e-08	3.412122e+01	1.431045e+03
2.150000e-06	4.628735e-06	2.169503e-08	3.324276e+01	1.419404e+03
2.160000e-06	4.504726e-06	2.150763e-08	3.235215e+01	1.407280e+03
2.170000e-06	4.379057e-06	2.131451e-08	3.144962e+01	1.394570e+03
2.180000e-06	4.251801e-06	2.110906e-08	3.053568e+01	1.381165e+03
2.190000e-06	4.122939e-06	2.089752e-08	2.961023e+01	1.366979e+03
2.200000e-06	3.992583e-06	2.067547e-08	2.867403e+01	1.351960e+03
2.210000e-06	3.860704e-06	2.044070e-08	2.772690e+01	1.336102e+03
2.220000e-06	3.727321e-06	2.019203e-08	2.676896e+01	1.319430e+03
2.230000e-06	3.592605e-06	1.992985e-08	2.580146e+01	1.301983e+03
2.240000e-06	3.456586e-06	1.965101e-08	2.482459e+01	1.283780e+03
2.250000e-06	3.319286e-06	1.935618e-08	2.383853e+01	1.264792e+03
2.260000e-06	3.180684e-06	1.905022e-08	2.284311e+01	1.244934e+03
2.270000e-06	3.040789e-06	1.873171e-08	2.183841e+01	1.224055e+03
2.280000e-06	2.899692e-06	1.839483e-08	2.082508e+01	1.201965e+03
2.290000e-06	2.757456e-06	1.803710e-08	1.980357e+01	1.178458e+03
2.300000e-06	2.614209e-06	1.765900e-08	1.877479e+01	1.153346e+03
2.310000e-06	2.470048e-06	1.725527e-08	1.773945e+01	1.126485e+03
2.320000e-06	2.325049e-06	1.682420e-08	1.669810e+01	1.097772e+03
2.330000e-06	2.179293e-06	1.636439e-08	1.565130e+01	1.067135e+03
2.340000e-06	2.032847e-06	1.587238e-08	1.459955e+01	1.034496e+03
2.350000e-06	1.885724e-06	1.534167e-08	1.354294e+01	9.997304e+02
2.360000e-06	1.737863e-06	1.476964e-08	1.248103e+01	9.626293e+02
2.370000e-06	1.589388e-06	1.415678e-08	1.141471e+01	9.228899e+02
2.380000e-06	1.440397e-06	1.350053e-08	1.034468e+01	8.801328e+02
2.390000e-06	1.290944e-06	1.279528e-08	9.271331e+00	8.339563e+02
2.400000e-06	1.141105e-06	1.203402e-08	8.195217e+00	7.840164e+02
2.410000e-06	9.908361e-07	1.121542e-08	7.116010e+00	7.301158e+02
2.420000e-06	8.401847e-07	1.033943e-08	6.034059e+00	6.722806e+02
2.430000e-06	6.893088e-07	9.408897e-09	4.950495e+00	6.108000e+02
2.440000e-06	5.382136e-07	8.429212e-09	3.865356e+00	5.462163e+02
2.450000e-06	3.869498e-07	7.407324e-09	2.779006e+00	4.792577e+02
2.460000e-06	2.356161e-07	6.354712e-09	1.692153e+00	4.107252e+02
2.470000e-06	8.419553e-08	5.285158e-09	6.046775e-01	3.413544e+02
2.480000e-06	-6.726526e-08	4.210705e-09	-4.830873e-01	2.716828e+02
2.490000e-06	-2.187106e-07	3.137802e-09	-1.570741e+00	2.019545e+02
2.500000e-06	-3.700949e-07	2.066629e-09	-2.657956e+00	1.320862e+02
2.510000e-06	-5.213716e-07	9.942479e-10	-3.744399e+00	6.170817e+01
2.520000e-06	-6.725262e-07	-8.927273e-11	-4.829965e+00	-9.725522e+00
2.530000e-06	-8.235033e-07	-1.195536e-09	-5.914256e+00	-8.277818e+01
2.540000e-06	-9.741862e-07	-2.332972e-09	-6.996434e+00	-1.578557e+02
2.550000e-06	-1.124540e-06	-3.510157e-09	-8.076247e+00	-2.350541e+02
2.560000e-06	-1.274538e-06	-4.722258e-09	-9.153506e+00	-3.140632e+02
2.570000e-06	-1.424038e-06	-5.955615e-09	-1.022719e+01	-3.941487e+02
2.580000e-06	-1.573005e-06	-7.191174e-09	-1.129704e+01	-4.742177e+02
2.590000e-06	-1.721396e-06	-8.405454e-09	-1.236276e+01	-5.529546e+02
2.600000e-06	-1.869109e-06	-9.573697e-09	-1.342361e+01	-6.289997e+02
2.610000e-06	-2.016131e-06	-1.067482e-08	-1.447950e+01	-7.011347e+02
2.620000e-06	-2.162422e-06	-1.169897e-08	-1.553013e+01	-7.684365e+02
2.630000e-06	-2.307933e-06	-1.263990e-08	-1.657517e+01	-8.303732e+02
2.640000e-06	-2.452540e-06	-1.350115e-08	-1.761371e+01	-8.868266e+02
2.650000e-06	-2.596153e-06	-1.428993e-08	-1.864512e+01	-9.380432e+02
2.660000e-06	-2.738758e-06	-1.501121e-08	-1.966928e+01	-9.845320e+02
2.670000e-06	-2.880290e-06	-1.567159e-08	-2.068574e+01	-1.026934e+03
2.680000e-06	-3.020647e-06	-1.627904e-08	-2.169376e+01	-1.065896e+03
2.690000e-06	-3.159803e-06	-1.683878e-08	-2.269315e+01	-1.101970e+03
2.700000e-06	-3.297775e-06	-1.735395e-08	-2.368404e+01	-1.135563e+03
2.710000e-06	-3.434442e-06	-1.782861e-08	-2.466556e+01	-1.166927e+03
2.720000e-06	-3.569777e-06	-1.826902e-08	-2.563751e+01	-1.196197e+03
2.730000e-06	-3.703870e-06	-1.868033e-08	-2.660054e+01	-1.223442e+03
2.740000e-06	-3.836656e-06	-1.906508e-08	-2.755419e+01	-1.248726e+03
2.750000e-06	-3.967989e-06	-1.942585e-08	-2.849740e+01	-1.272153e+03
2.760000e-06	-4.097926e-06	-1.976034e-08	-2.943058e+01	-1.293883e+03
2.770000e-06	-4.226494e-06	-2.007355e-08	-3.035394e+01	-1.314126e+03
2.780000e-06	-4.353587e-06	-2.037127e-08	-3.126670e+01	-1.333111e+03
2.790000e-06	-4.479278e-06	-2.065136e-08	-3.216939e+01	-1.351050e+03
2.800000e-06	-4.603410e-06	-2.091343e-08	-3.306088e+01	-1.368104e+03
2.810000e-06	-4.725826e-06	-2.115982e-08	-3.394005e+01	-1.384365e+03
2.820000e-06	-4.846560e-06	-2.139475e-08	-3.480714e+01	-1.399858e+03
2.830000e-06	-4.965466e-06	-2.161797e-08	-3.566110e+01	-1.414560e+03
2.840000e-06	-5.082471e-06	-2.182918e-08	-3.650141e+01	-1.428436e+03
2.850000e-06	-5.197446e-06	-2.202898e-08	-3.732714e+01	-1.441462e+03
2.860000e-06	-5.310295e-06	-2.221801e-08	-3.813761e+01	-1.453656e+03
2.870000e-06	-5.421054e-06	-2.239580e-08	-3.893305e+01	-1.465083e+03
2.880000e-06	-5.529804e-06	-2.256303e-08	-3.971408e+01	-1.475842e+03
2.890000e-06	-5.636684e-06	-2.272116e-08	-4.048168e+01	-1.486048e+03
2.900000e-06	-5.741601e-06	-2.287023e-08	-4.123517e+01	-1.495803e+03
2.910000e-06	-5.844377e-06	-2.301096e-08	-4.197329e+01	-1.505172e+03
2.920000e-06	-5.944948e-06	-2.314694e-08	-4.269557e+01	-1.514174e+03
2.930000e-06	-6.043375e-06	-2.327847e-08	-4.340246e+01	-1.522783e+03
2.940000e-06	-6.139720e-06	-2.340336e-08	-4.409439e+01	-1.530945e+03
