# Temperatura_=_26.28
# Concentracion g/m^3_=_28200.0
# C_Vs_to_Am_M_A/Vsm_=_65563218390.804596
# pendiente_HvsI_1/m_=_3716.3
# ordenada_HvsI_A/m_=_1297.0
# frecuencia_Hz_=_302543.4287198138

Tiempo_(s)	Campo_(V.s)	Magnetizacion_(V.s)	Campo_(kA/m)	Magnetizacion_(A/m)
0.000000e+00	-7.892914e-06	-2.007904e-08	-5.684118e+01	-1.313579e+03
1.000000e-08	-7.889418e-06	-2.007891e-08	-5.681600e+01	-1.313218e+03
2.000000e-08	-7.883344e-06	-2.006983e-08	-5.677226e+01	-1.312745e+03
3.000000e-08	-7.874671e-06	-2.006114e-08	-5.670980e+01	-1.312180e+03
4.000000e-08	-7.863239e-06	-2.005403e-08	-5.662747e+01	-1.311538e+03
5.000000e-08	-7.848956e-06	-2.004372e-08	-5.652461e+01	-1.310825e+03
6.000000e-08	-7.831891e-06	-2.002502e-08	-5.640172e+01	-1.310032e+03
7.000000e-08	-7.812468e-06	-2.000317e-08	-5.626184e+01	-1.309143e+03
8.000000e-08	-7.790825e-06	-1.998525e-08	-5.610598e+01	-1.308138e+03
9.000000e-08	-7.766380e-06	-2.002472e-08	-5.592993e+01	-1.307005e+03
1.000000e-07	-7.738690e-06	-2.002000e-08	-5.573052e+01	-1.305740e+03
1.100000e-07	-7.708030e-06	-1.994490e-08	-5.550973e+01	-1.304358e+03
1.200000e-07	-7.674602e-06	-1.990839e-08	-5.526899e+01	-1.302884e+03
1.300000e-07	-7.638439e-06	-1.989520e-08	-5.500856e+01	-1.301351e+03
1.400000e-07	-7.599904e-06	-1.985714e-08	-5.473105e+01	-1.299787e+03
1.500000e-07	-7.559137e-06	-1.978520e-08	-5.443747e+01	-1.298207e+03
1.600000e-07	-7.516023e-06	-1.979749e-08	-5.412698e+01	-1.296604e+03
1.700000e-07	-7.470412e-06	-1.981291e-08	-5.379851e+01	-1.294950e+03
1.800000e-07	-7.422047e-06	-1.968905e-08	-5.345021e+01	-1.293193e+03
1.900000e-07	-7.370765e-06	-1.969004e-08	-5.308090e+01	-1.291277e+03
2.000000e-07	-7.316593e-06	-1.967106e-08	-5.269077e+01	-1.289143e+03
2.100000e-07	-7.259693e-06	-1.961014e-08	-5.228101e+01	-1.286749e+03
2.200000e-07	-7.200152e-06	-1.959653e-08	-5.185222e+01	-1.284074e+03
2.300000e-07	-7.137989e-06	-1.951454e-08	-5.140455e+01	-1.281123e+03
2.400000e-07	-7.073177e-06	-1.949535e-08	-5.093780e+01	-1.277920e+03
2.500000e-07	-7.005723e-06	-1.942888e-08	-5.045203e+01	-1.274504e+03
2.600000e-07	-6.935629e-06	-1.937745e-08	-4.994725e+01	-1.270913e+03
2.700000e-07	-6.862760e-06	-1.932017e-08	-4.942247e+01	-1.267176e+03
2.800000e-07	-6.787161e-06	-1.925130e-08	-4.887805e+01	-1.263306e+03
2.900000e-07	-6.708838e-06	-1.919005e-08	-4.831400e+01	-1.259295e+03
3.000000e-07	-6.627786e-06	-1.911075e-08	-4.773030e+01	-1.255121e+03
3.100000e-07	-6.544368e-06	-1.905708e-08	-4.712956e+01	-1.250756e+03
3.200000e-07	-6.458758e-06	-1.898163e-08	-4.651304e+01	-1.246170e+03
3.300000e-07	-6.370862e-06	-1.892733e-08	-4.588005e+01	-1.241345e+03
3.400000e-07	-6.280614e-06	-1.885277e-08	-4.523012e+01	-1.236273e+03
3.500000e-07	-6.188075e-06	-1.875083e-08	-4.456370e+01	-1.230957e+03
3.600000e-07	-6.093307e-06	-1.867685e-08	-4.388123e+01	-1.225406e+03
3.700000e-07	-5.996250e-06	-1.859165e-08	-4.318226e+01	-1.219626e+03
3.800000e-07	-5.897026e-06	-1.849164e-08	-4.246770e+01	-1.213616e+03
3.900000e-07	-5.795778e-06	-1.839239e-08	-4.173856e+01	-1.207361e+03
4.000000e-07	-5.692455e-06	-1.829977e-08	-4.099447e+01	-1.200834e+03
4.100000e-07	-5.587042e-06	-1.819017e-08	-4.023534e+01	-1.194002e+03
4.200000e-07	-5.479685e-06	-1.807633e-08	-3.946220e+01	-1.186834e+03
4.300000e-07	-5.370456e-06	-1.797013e-08	-3.867558e+01	-1.179304e+03
4.400000e-07	-5.259282e-06	-1.785065e-08	-3.787496e+01	-1.171402e+03
4.500000e-07	-5.146111e-06	-1.772170e-08	-3.705995e+01	-1.163131e+03
4.600000e-07	-5.030944e-06	-1.758996e-08	-3.623057e+01	-1.154499e+03
4.700000e-07	-4.913841e-06	-1.745597e-08	-3.538725e+01	-1.145518e+03
4.800000e-07	-4.794979e-06	-1.731256e-08	-3.453126e+01	-1.136186e+03
4.900000e-07	-4.674420e-06	-1.716328e-08	-3.366305e+01	-1.126488e+03
5.000000e-07	-4.552105e-06	-1.700994e-08	-3.278219e+01	-1.116387e+03
5.100000e-07	-4.428047e-06	-1.684611e-08	-3.188878e+01	-1.105828e+03
5.200000e-07	-4.302390e-06	-1.666954e-08	-3.098385e+01	-1.094752e+03
5.300000e-07	-4.175245e-06	-1.648806e-08	-3.006822e+01	-1.083100e+03
5.400000e-07	-4.046580e-06	-1.630149e-08	-2.914163e+01	-1.070828e+03
5.500000e-07	-3.916374e-06	-1.610121e-08	-2.820394e+01	-1.057912e+03
5.600000e-07	-3.784636e-06	-1.588877e-08	-2.725523e+01	-1.044343e+03
5.700000e-07	-3.651469e-06	-1.567028e-08	-2.629622e+01	-1.030123e+03
5.800000e-07	-3.516929e-06	-1.544313e-08	-2.532732e+01	-1.015251e+03
5.900000e-07	-3.381041e-06	-1.520763e-08	-2.434872e+01	-9.997052e+02
6.000000e-07	-3.243866e-06	-1.496010e-08	-2.336085e+01	-9.834360e+02
6.100000e-07	-3.105395e-06	-1.469984e-08	-2.236364e+01	-9.663596e+02
6.200000e-07	-2.965619e-06	-1.442310e-08	-2.135704e+01	-9.483637e+02
6.300000e-07	-2.824564e-06	-1.412662e-08	-2.034122e+01	-9.293199e+02
6.400000e-07	-2.682316e-06	-1.381193e-08	-1.931682e+01	-9.090999e+02
6.500000e-07	-2.539008e-06	-1.348000e-08	-1.828478e+01	-8.875905e+02
6.600000e-07	-2.394775e-06	-1.313154e-08	-1.724608e+01	-8.647006e+02
6.700000e-07	-2.249736e-06	-1.276046e-08	-1.620157e+01	-8.403590e+02
6.800000e-07	-2.103919e-06	-1.236574e-08	-1.515147e+01	-8.145004e+02
6.900000e-07	-1.957383e-06	-1.194771e-08	-1.409618e+01	-7.870449e+02
7.000000e-07	-1.810176e-06	-1.150463e-08	-1.303607e+01	-7.578773e+02
7.100000e-07	-1.662351e-06	-1.102850e-08	-1.197150e+01	-7.268341e+02
7.200000e-07	-1.514078e-06	-1.051778e-08	-1.090370e+01	-6.937062e+02
7.300000e-07	-1.365439e-06	-9.972615e-09	-9.833268e+00	-6.582619e+02
7.400000e-07	-1.216399e-06	-9.389894e-09	-8.759952e+00	-6.202866e+02
7.500000e-07	-1.066923e-06	-8.768930e-09	-7.683491e+00	-5.796357e+02
7.600000e-07	-9.170131e-07	-8.108940e-09	-6.603911e+00	-5.362865e+02
7.700000e-07	-7.667569e-07	-7.412300e-09	-5.521835e+00	-4.903768e+02
7.800000e-07	-6.162509e-07	-6.679693e-09	-4.437959e+00	-4.422178e+02
7.900000e-07	-4.655669e-07	-5.919111e-09	-3.352801e+00	-3.922731e+02
8.000000e-07	-3.147416e-07	-5.139317e-09	-2.266626e+00	-3.411041e+02
8.100000e-07	-1.637862e-07	-4.348467e-09	-1.179513e+00	-2.892889e+02
8.200000e-07	-1.272174e-08	-3.554210e-09	-9.161617e-02	-2.373301e+02
8.300000e-07	1.384234e-07	-2.762836e-09	9.968625e-01	-1.855704e+02
8.400000e-07	2.895655e-07	-1.977916e-09	2.085319e+00	-1.341349e+02
8.500000e-07	4.406224e-07	-1.196106e-09	3.173162e+00	-8.291467e+01
8.600000e-07	5.915643e-07	-4.154069e-10	4.260177e+00	-3.159836e+01
8.700000e-07	7.423414e-07	3.700573e-10	5.346005e+00	2.025268e+01
8.800000e-07	8.929247e-07	1.170216e-09	6.430437e+00	7.309846e+01
8.900000e-07	1.043253e-06	1.993807e-09	7.513037e+00	1.273046e+02
9.000000e-07	1.193177e-06	2.842043e-09	8.592721e+00	1.830400e+02
9.100000e-07	1.342629e-06	3.712240e-09	9.669004e+00	2.402080e+02
9.200000e-07	1.491572e-06	4.601123e-09	1.074162e+01	2.984266e+02
9.300000e-07	1.640023e-06	5.499035e-09	1.181070e+01	3.570595e+02
9.400000e-07	1.787974e-06	6.389933e-09	1.287617e+01	4.152937e+02
9.500000e-07	1.935272e-06	7.256757e-09	1.393695e+01	4.722454e+02
9.600000e-07	2.081762e-06	8.086403e-09	1.499191e+01	5.270750e+02
9.700000e-07	2.227418e-06	8.868917e-09	1.604085e+01	5.790892e+02
9.800000e-07	2.372282e-06	9.598633e-09	1.708410e+01	6.278111e+02
9.900000e-07	2.516285e-06	1.027685e-08	1.812114e+01	6.730102e+02
1.000000e-06	2.659330e-06	1.090686e-08	1.915128e+01	7.146892e+02
1.010000e-06	2.801324e-06	1.149052e-08	2.017386e+01	7.530371e+02
1.020000e-06	2.942170e-06	1.203004e-08	2.118817e+01	7.883614e+02
1.030000e-06	3.081847e-06	1.252997e-08	2.219406e+01	8.210161e+02
1.040000e-06	3.220280e-06	1.299148e-08	2.319099e+01	8.513396e+02
1.050000e-06	3.357459e-06	1.342055e-08	2.417889e+01	8.796142e+02
1.060000e-06	3.493398e-06	1.381832e-08	2.515787e+01	9.060502e+02
1.070000e-06	3.628037e-06	1.418896e-08	2.612747e+01	9.307922e+02
1.080000e-06	3.761329e-06	1.453711e-08	2.708738e+01	9.539403e+02
1.090000e-06	3.893267e-06	1.486398e-08	2.803754e+01	9.755767e+02
1.100000e-06	4.023778e-06	1.517150e-08	2.897742e+01	9.957892e+02
1.110000e-06	4.152818e-06	1.545971e-08	2.990671e+01	1.014683e+03
1.120000e-06	4.280468e-06	1.573020e-08	3.082599e+01	1.032384e+03
1.130000e-06	4.406614e-06	1.598434e-08	3.173443e+01	1.049025e+03
1.140000e-06	4.531249e-06	1.622535e-08	3.263199e+01	1.064735e+03
1.150000e-06	4.654328e-06	1.645164e-08	3.351835e+01	1.079620e+03
1.160000e-06	4.775768e-06	1.666441e-08	3.439291e+01	1.093758e+03
1.170000e-06	4.895526e-06	1.686434e-08	3.525535e+01	1.107194e+03
1.180000e-06	5.013472e-06	1.705261e-08	3.610474e+01	1.119951e+03
1.190000e-06	5.129518e-06	1.723162e-08	3.694045e+01	1.132037e+03
1.200000e-06	5.243591e-06	1.740462e-08	3.776196e+01	1.143463e+03
1.210000e-06	5.355699e-06	1.757058e-08	3.856931e+01	1.154249e+03
1.220000e-06	5.465874e-06	1.772740e-08	3.936274e+01	1.164433e+03
1.230000e-06	5.574142e-06	1.787538e-08	4.014244e+01	1.174063e+03
1.240000e-06	5.680415e-06	1.801541e-08	4.090777e+01	1.183192e+03
1.250000e-06	5.784579e-06	1.814787e-08	4.165790e+01	1.191866e+03
1.260000e-06	5.886601e-06	1.827237e-08	4.239262e+01	1.200118e+03
1.270000e-06	5.986439e-06	1.839116e-08	4.311161e+01	1.207963e+03
1.280000e-06	6.084046e-06	1.850387e-08	4.381453e+01	1.215400e+03
1.290000e-06	6.179389e-06	1.860979e-08	4.450115e+01	1.222421e+03
1.300000e-06	6.272531e-06	1.870981e-08	4.517191e+01	1.229019e+03
1.310000e-06	6.363407e-06	1.880307e-08	4.582636e+01	1.235198e+03
1.320000e-06	6.451965e-06	1.889096e-08	4.646412e+01	1.240985e+03
1.330000e-06	6.538242e-06	1.897484e-08	4.708545e+01	1.246420e+03
1.340000e-06	6.622223e-06	1.905510e-08	4.769023e+01	1.251560e+03
1.350000e-06	6.703780e-06	1.912912e-08	4.827758e+01	1.256462e+03
1.360000e-06	6.782863e-06	1.919828e-08	4.884709e+01	1.261174e+03
1.370000e-06	6.859532e-06	1.926596e-08	4.939923e+01	1.265728e+03
1.380000e-06	6.933635e-06	1.933125e-08	4.993289e+01	1.270130e+03
1.390000e-06	7.005126e-06	1.939362e-08	5.044773e+01	1.274368e+03
1.400000e-06	7.074130e-06	1.945231e-08	5.094467e+01	1.278413e+03
1.410000e-06	7.140615e-06	1.950876e-08	5.142346e+01	1.282236e+03
1.420000e-06	7.204522e-06	1.956151e-08	5.188369e+01	1.285812e+03
1.430000e-06	7.265944e-06	1.960985e-08	5.232602e+01	1.289134e+03
1.440000e-06	7.324886e-06	1.965634e-08	5.275050e+01	1.292209e+03
1.450000e-06	7.381225e-06	1.970191e-08	5.315623e+01	1.295062e+03
1.460000e-06	7.434832e-06	1.974618e-08	5.354228e+01	1.297723e+03
1.470000e-06	7.485436e-06	1.978786e-08	5.390671e+01	1.300219e+03
1.480000e-06	7.533013e-06	1.982468e-08	5.424933e+01	1.302568e+03
1.490000e-06	7.577944e-06	1.985645e-08	5.457291e+01	1.304774e+03
1.500000e-06	7.620291e-06	1.988232e-08	5.487787e+01	1.306823e+03
1.510000e-06	7.659849e-06	1.990551e-08	5.516275e+01	1.308696e+03
1.520000e-06	7.696706e-06	1.992943e-08	5.542818e+01	1.310370e+03
1.530000e-06	7.730957e-06	1.995236e-08	5.567484e+01	1.311829e+03
1.540000e-06	7.762435e-06	1.997270e-08	5.590153e+01	1.313074e+03
1.550000e-06	7.791171e-06	1.999031e-08	5.610847e+01	1.314118e+03
1.560000e-06	7.817127e-06	2.000663e-08	5.629539e+01	1.314986e+03
1.570000e-06	7.840151e-06	2.001875e-08	5.646120e+01	1.315712e+03
1.580000e-06	7.860410e-06	2.002803e-08	5.660710e+01	1.316325e+03
1.590000e-06	7.877904e-06	2.003532e-08	5.673308e+01	1.316844e+03
1.600000e-06	7.892492e-06	2.004073e-08	5.683814e+01	1.317276e+03
1.610000e-06	7.904027e-06	2.004422e-08	5.692120e+01	1.317613e+03
1.620000e-06	7.912439e-06	2.004542e-08	5.698179e+01	1.317838e+03
1.630000e-06	7.917978e-06	2.004737e-08	5.702167e+01	1.317933e+03
1.640000e-06	7.920731e-06	2.004870e-08	5.704150e+01	1.317885e+03
1.650000e-06	7.920641e-06	2.004901e-08	5.704086e+01	1.317691e+03
1.660000e-06	7.917936e-06	2.003995e-08	5.702137e+01	1.317361e+03
1.670000e-06	7.912653e-06	2.003290e-08	5.698333e+01	1.316912e+03
1.680000e-06	7.904654e-06	2.003044e-08	5.692572e+01	1.316367e+03
1.690000e-06	7.894025e-06	2.002179e-08	5.684918e+01	1.315743e+03
1.700000e-06	7.880611e-06	2.000853e-08	5.675258e+01	1.315047e+03
1.710000e-06	7.864496e-06	1.999968e-08	5.663652e+01	1.314275e+03
1.720000e-06	7.846050e-06	1.999757e-08	5.650368e+01	1.313411e+03
1.730000e-06	7.825288e-06	1.996858e-08	5.635417e+01	1.312436e+03
1.740000e-06	7.801675e-06	1.987546e-08	5.618411e+01	1.311335e+03
1.750000e-06	7.774551e-06	1.988462e-08	5.598878e+01	1.310101e+03
1.760000e-06	7.743795e-06	1.991603e-08	5.576729e+01	1.308746e+03
1.770000e-06	7.710081e-06	1.988127e-08	5.552450e+01	1.307291e+03
1.780000e-06	7.674167e-06	1.985604e-08	5.526586e+01	1.305769e+03
1.790000e-06	7.636021e-06	1.989894e-08	5.499115e+01	1.304210e+03
1.800000e-06	7.595823e-06	1.984438e-08	5.470166e+01	1.302633e+03
1.810000e-06	7.553575e-06	1.973311e-08	5.439741e+01	1.301037e+03
1.820000e-06	7.508646e-06	1.984138e-08	5.407385e+01	1.299398e+03
1.830000e-06	7.461050e-06	1.976636e-08	5.373109e+01	1.297672e+03
1.840000e-06	7.410727e-06	1.975864e-08	5.336869e+01	1.295800e+03
1.850000e-06	7.357343e-06	1.975282e-08	5.298424e+01	1.293725e+03
1.860000e-06	7.301134e-06	1.964489e-08	5.257945e+01	1.291398e+03
1.870000e-06	7.242342e-06	1.970592e-08	5.215605e+01	1.288793e+03
1.880000e-06	7.181048e-06	1.959047e-08	5.171464e+01	1.285908e+03
1.890000e-06	7.116995e-06	1.956129e-08	5.125336e+01	1.282764e+03
1.900000e-06	7.050084e-06	1.953494e-08	5.077150e+01	1.279397e+03
1.910000e-06	6.980484e-06	1.944965e-08	5.027027e+01	1.275846e+03
1.920000e-06	6.908096e-06	1.942932e-08	4.974896e+01	1.272143e+03
1.930000e-06	6.833026e-06	1.933143e-08	4.920835e+01	1.268305e+03
1.940000e-06	6.755230e-06	1.932551e-08	4.864809e+01	1.264330e+03
1.950000e-06	6.674792e-06	1.923859e-08	4.806882e+01	1.260199e+03
1.960000e-06	6.591975e-06	1.916798e-08	4.747241e+01	1.255883e+03
1.970000e-06	6.506693e-06	1.909891e-08	4.685825e+01	1.251354e+03
1.980000e-06	6.418946e-06	1.900203e-08	4.622633e+01	1.246589e+03
1.990000e-06	6.328902e-06	1.896578e-08	4.557787e+01	1.241578e+03
2.000000e-06	6.236745e-06	1.885650e-08	4.491420e+01	1.236321e+03
2.010000e-06	6.142340e-06	1.879241e-08	4.423434e+01	1.230827e+03
2.020000e-06	6.045670e-06	1.870171e-08	4.353817e+01	1.225104e+03
2.030000e-06	5.946967e-06	1.861846e-08	4.282736e+01	1.219152e+03
2.040000e-06	5.846197e-06	1.851122e-08	4.210165e+01	1.212959e+03
2.050000e-06	5.743226e-06	1.841099e-08	4.136010e+01	1.206502e+03
2.060000e-06	5.638162e-06	1.832083e-08	4.060348e+01	1.199749e+03
2.070000e-06	5.531224e-06	1.820198e-08	3.983336e+01	1.192666e+03
2.080000e-06	5.422350e-06	1.809443e-08	3.904930e+01	1.185228e+03
2.090000e-06	5.311490e-06	1.797088e-08	3.825094e+01	1.177419e+03
2.100000e-06	5.198663e-06	1.785809e-08	3.743841e+01	1.169238e+03
2.110000e-06	5.083937e-06	1.771891e-08	3.661220e+01	1.160694e+03
2.120000e-06	4.967262e-06	1.758685e-08	3.577196e+01	1.151799e+03
2.130000e-06	4.848576e-06	1.744543e-08	3.491724e+01	1.142555e+03
2.140000e-06	4.728013e-06	1.730107e-08	3.404900e+01	1.132951e+03
2.150000e-06	4.605803e-06	1.714606e-08	3.316890e+01	1.122954e+03
2.160000e-06	4.481979e-06	1.698983e-08	3.227718e+01	1.112514e+03
2.170000e-06	4.356479e-06	1.682626e-08	3.137338e+01	1.101572e+03
2.180000e-06	4.229359e-06	1.665032e-08	3.045792e+01	1.090068e+03
2.190000e-06	4.100653e-06	1.647285e-08	2.953104e+01	1.077954e+03
2.200000e-06	3.970464e-06	1.628381e-08	2.859347e+01	1.065199e+03
2.210000e-06	3.838788e-06	1.608594e-08	2.764520e+01	1.051792e+03
2.220000e-06	3.705690e-06	1.587226e-08	2.668669e+01	1.037735e+03
2.230000e-06	3.571223e-06	1.565138e-08	2.571832e+01	1.023026e+03
2.240000e-06	3.435453e-06	1.541471e-08	2.474057e+01	1.007651e+03
2.250000e-06	3.298428e-06	1.516947e-08	2.375378e+01	9.915683e+02
2.260000e-06	3.160128e-06	1.491324e-08	2.275780e+01	9.747025e+02
2.270000e-06	3.020582e-06	1.464484e-08	2.175286e+01	9.569473e+02
2.280000e-06	2.879843e-06	1.435757e-08	2.073932e+01	9.381770e+02
2.290000e-06	2.738000e-06	1.405346e-08	1.971783e+01	9.182617e+02
2.300000e-06	2.595083e-06	1.373168e-08	1.868861e+01	8.970832e+02
2.310000e-06	2.451181e-06	1.339050e-08	1.765229e+01	8.745449e+02
2.320000e-06	2.306455e-06	1.303130e-08	1.661004e+01	8.505715e+02
2.330000e-06	2.160967e-06	1.265000e-08	1.556230e+01	8.250979e+02
2.340000e-06	2.014717e-06	1.224236e-08	1.450908e+01	7.980500e+02
2.350000e-06	1.867809e-06	1.180329e-08	1.345111e+01	7.693229e+02
2.360000e-06	1.720300e-06	1.133385e-08	1.238882e+01	7.387658e+02
2.370000e-06	1.572226e-06	1.083389e-08	1.132245e+01	7.061797e+02
2.380000e-06	1.423682e-06	1.030081e-08	1.025271e+01	6.713353e+02
2.390000e-06	1.274711e-06	9.732025e-09	9.179892e+00	6.340092e+02
2.400000e-06	1.125392e-06	9.123678e-09	8.104564e+00	5.940341e+02
2.410000e-06	9.757400e-07	8.473049e-09	7.026835e+00	5.513525e+02
2.420000e-06	8.257456e-07	7.783724e-09	5.946644e+00	5.060596e+02
2.430000e-06	6.754155e-07	7.060357e-09	4.864035e+00	4.584240e+02
2.440000e-06	5.248248e-07	6.306887e-09	3.779549e+00	4.088748e+02
2.450000e-06	3.740059e-07	5.529665e-09	2.693420e+00	3.579560e+02
2.460000e-06	2.229875e-07	4.740074e-09	1.605855e+00	3.062499e+02
2.470000e-06	7.189164e-08	3.944828e-09	5.177309e-01	2.542865e+02
2.480000e-06	-7.924741e-08	3.149122e-09	-5.707038e-01	2.024554e+02
2.490000e-06	-2.304001e-07	2.357897e-09	-1.659236e+00	1.509393e+02
2.500000e-06	-3.815143e-07	1.573003e-09	-2.747492e+00	9.968672e+01
2.510000e-06	-5.324549e-07	7.925179e-10	-3.834498e+00	4.843142e+01
2.520000e-06	-6.831507e-07	6.364288e-12	-4.919741e+00	-3.242467e+00
2.530000e-06	-8.336039e-07	-7.921409e-10	-6.003236e+00	-5.580047e+01
2.540000e-06	-9.837732e-07	-1.612372e-09	-7.084687e+00	-1.096423e+02
2.550000e-06	-1.133598e-06	-2.459847e-09	-8.163658e+00	-1.649941e+02
2.560000e-06	-1.282996e-06	-3.330128e-09	-9.239557e+00	-2.218296e+02
2.570000e-06	-1.432043e-06	-4.217813e-09	-1.031292e+01	-2.798371e+02
2.580000e-06	-1.580685e-06	-5.115246e-09	-1.138337e+01	-3.384382e+02
2.590000e-06	-1.728727e-06	-6.011421e-09	-1.244950e+01	-3.968550e+02
2.600000e-06	-1.876110e-06	-6.892453e-09	-1.351089e+01	-4.542104e+02
2.610000e-06	-2.022754e-06	-7.745199e-09	-1.456696e+01	-5.096435e+02
2.620000e-06	-2.168612e-06	-8.553868e-09	-1.561736e+01	-5.624164e+02
2.630000e-06	-2.313702e-06	-9.310500e-09	-1.666223e+01	-6.119935e+02
2.640000e-06	-2.457986e-06	-1.001474e-08	-1.770130e+01	-6.580824e+02
2.650000e-06	-2.601205e-06	-1.066631e-08	-1.873269e+01	-7.006307e+02
2.660000e-06	-2.743284e-06	-1.126898e-08	-1.975588e+01	-7.397867e+02
2.670000e-06	-2.884322e-06	-1.182678e-08	-2.077158e+01	-7.758352e+02
2.680000e-06	-3.024284e-06	-1.234128e-08	-2.177952e+01	-8.091249e+02
2.690000e-06	-3.163063e-06	-1.281571e-08	-2.277894e+01	-8.400029e+02
2.700000e-06	-3.300566e-06	-1.325630e-08	-2.376918e+01	-8.687679e+02
2.710000e-06	-3.436854e-06	-1.366608e-08	-2.475066e+01	-8.956486e+02
2.720000e-06	-3.571835e-06	-1.404976e-08	-2.572273e+01	-9.208042e+02
2.730000e-06	-3.705449e-06	-1.440929e-08	-2.668496e+01	-9.443436e+02
2.740000e-06	-3.837754e-06	-1.474536e-08	-2.763776e+01	-9.663510e+02
2.750000e-06	-3.968712e-06	-1.506051e-08	-2.858086e+01	-9.869112e+02
2.760000e-06	-4.098296e-06	-1.535532e-08	-2.951407e+01	-1.006125e+03
2.770000e-06	-4.226473e-06	-1.563116e-08	-3.043714e+01	-1.024112e+03
2.780000e-06	-4.353177e-06	-1.589030e-08	-3.134960e+01	-1.041007e+03
2.790000e-06	-4.478372e-06	-1.613492e-08	-3.225120e+01	-1.056939e+03
2.800000e-06	-4.602037e-06	-1.636656e-08	-3.314178e+01	-1.072022e+03
2.810000e-06	-4.724031e-06	-1.658883e-08	-3.402032e+01	-1.086342e+03
2.820000e-06	-4.844306e-06	-1.680191e-08	-3.488649e+01	-1.099952e+03
2.830000e-06	-4.962788e-06	-1.700165e-08	-3.573974e+01	-1.112878e+03
2.840000e-06	-5.079301e-06	-1.718665e-08	-3.657882e+01	-1.125132e+03
2.850000e-06	-5.193771e-06	-1.736042e-08	-3.740317e+01	-1.136722e+03
2.860000e-06	-5.306212e-06	-1.752573e-08	-3.821293e+01	-1.147667e+03
2.870000e-06	-5.416620e-06	-1.768252e-08	-3.900803e+01	-1.157998e+03
2.880000e-06	-5.525001e-06	-1.783232e-08	-3.978855e+01	-1.167762e+03
2.890000e-06	-5.631464e-06	-1.797668e-08	-4.055524e+01	-1.177012e+03
2.900000e-06	-5.735964e-06	-1.811427e-08	-4.130780e+01	-1.185797e+03
2.910000e-06	-5.838288e-06	-1.824385e-08	-4.204470e+01	-1.194153e+03
2.920000e-06	-5.938413e-06	-1.836647e-08	-4.276575e+01	-1.202100e+03
2.930000e-06	-6.036441e-06	-1.848170e-08	-4.347170e+01	-1.209641e+03
2.940000e-06	-6.132318e-06	-1.858972e-08	-4.416217e+01	-1.216768e+03
