# Temperatura_=_50.2
# Concentracion g/m^3_=_28200.0
# C_Vs_to_Am_M_A/Vsm_=_65563218390.804596
# pendiente_HvsI_1/m_=_3716.3
# ordenada_HvsI_A/m_=_1297.0
# frecuencia_Hz_=_302549.9100427408

Tiempo_(s)	Campo_(V.s)	Magnetizacion_(V.s)	Campo_(kA/m)	Magnetizacion_(A/m)
0.000000e+00	-7.874888e-06	-2.545246e-08	-5.683488e+01	-1.665247e+03
1.000000e-08	-7.871382e-06	-2.545269e-08	-5.680957e+01	-1.664804e+03
2.000000e-08	-7.865347e-06	-2.544127e-08	-5.676602e+01	-1.664238e+03
3.000000e-08	-7.856714e-06	-2.543094e-08	-5.670371e+01	-1.663582e+03
4.000000e-08	-7.845244e-06	-2.542230e-08	-5.662093e+01	-1.662851e+03
5.000000e-08	-7.830716e-06	-2.540889e-08	-5.651608e+01	-1.662036e+03
6.000000e-08	-7.813406e-06	-2.538645e-08	-5.639114e+01	-1.661113e+03
7.000000e-08	-7.793898e-06	-2.535968e-08	-5.625035e+01	-1.660043e+03
8.000000e-08	-7.772139e-06	-2.534356e-08	-5.609331e+01	-1.658797e+03
9.000000e-08	-7.747618e-06	-2.539714e-08	-5.591634e+01	-1.657362e+03
1.000000e-07	-7.719968e-06	-2.536764e-08	-5.571678e+01	-1.655756e+03
1.100000e-07	-7.689290e-06	-2.527260e-08	-5.549537e+01	-1.654024e+03
1.200000e-07	-7.655744e-06	-2.524263e-08	-5.525326e+01	-1.652232e+03
1.300000e-07	-7.619510e-06	-2.522515e-08	-5.499175e+01	-1.650444e+03
1.400000e-07	-7.580935e-06	-2.516399e-08	-5.471335e+01	-1.648707e+03
1.500000e-07	-7.540226e-06	-2.508253e-08	-5.441955e+01	-1.647032e+03
1.600000e-07	-7.497189e-06	-2.515635e-08	-5.410894e+01	-1.645381e+03
1.700000e-07	-7.451534e-06	-2.513041e-08	-5.377943e+01	-1.643676e+03
1.800000e-07	-7.403231e-06	-2.497131e-08	-5.343082e+01	-1.641812e+03
1.900000e-07	-7.352008e-06	-2.501986e-08	-5.306113e+01	-1.639678e+03
2.000000e-07	-7.297768e-06	-2.495317e-08	-5.266967e+01	-1.637184e+03
2.100000e-07	-7.240846e-06	-2.488951e-08	-5.225885e+01	-1.634282e+03
2.200000e-07	-7.181309e-06	-2.487735e-08	-5.182916e+01	-1.630972e+03
2.300000e-07	-7.119162e-06	-2.478232e-08	-5.138063e+01	-1.627301e+03
2.400000e-07	-7.054411e-06	-2.476012e-08	-5.091331e+01	-1.623347e+03
2.500000e-07	-6.986953e-06	-2.465440e-08	-5.042644e+01	-1.619195e+03
2.600000e-07	-6.916755e-06	-2.460495e-08	-4.991981e+01	-1.614911e+03
2.700000e-07	-6.843842e-06	-2.453733e-08	-4.939358e+01	-1.610528e+03
2.800000e-07	-6.768276e-06	-2.447055e-08	-4.884820e+01	-1.606035e+03
2.900000e-07	-6.689999e-06	-2.439932e-08	-4.828326e+01	-1.601384e+03
3.000000e-07	-6.608951e-06	-2.430446e-08	-4.769832e+01	-1.596507e+03
3.100000e-07	-6.525534e-06	-2.424102e-08	-4.709628e+01	-1.591339e+03
3.200000e-07	-6.440037e-06	-2.412863e-08	-4.647922e+01	-1.585834e+03
3.300000e-07	-6.352273e-06	-2.406362e-08	-4.584581e+01	-1.579978e+03
3.400000e-07	-6.262113e-06	-2.396864e-08	-4.519511e+01	-1.573795e+03
3.500000e-07	-6.169693e-06	-2.386158e-08	-4.452809e+01	-1.567327e+03
3.600000e-07	-6.075076e-06	-2.377725e-08	-4.384522e+01	-1.560623e+03
3.700000e-07	-5.978216e-06	-2.367421e-08	-4.314616e+01	-1.553716e+03
3.800000e-07	-5.879146e-06	-2.356048e-08	-4.243115e+01	-1.546606e+03
3.900000e-07	-5.778002e-06	-2.344174e-08	-4.170117e+01	-1.539257e+03
4.000000e-07	-5.674817e-06	-2.332936e-08	-4.095646e+01	-1.531602e+03
4.100000e-07	-5.569595e-06	-2.318886e-08	-4.019705e+01	-1.523560e+03
4.200000e-07	-5.462409e-06	-2.305753e-08	-3.942346e+01	-1.515061e+03
4.300000e-07	-5.353290e-06	-2.292905e-08	-3.863592e+01	-1.506059e+03
4.400000e-07	-5.242246e-06	-2.278837e-08	-3.783449e+01	-1.496546e+03
4.500000e-07	-5.129212e-06	-2.263418e-08	-3.701870e+01	-1.486551e+03
4.600000e-07	-5.014202e-06	-2.248104e-08	-3.618865e+01	-1.476123e+03
4.700000e-07	-4.897319e-06	-2.231896e-08	-3.534508e+01	-1.465311e+03
4.800000e-07	-4.778665e-06	-2.214276e-08	-3.448872e+01	-1.454138e+03
4.900000e-07	-4.658198e-06	-2.196486e-08	-3.361928e+01	-1.442587e+03
5.000000e-07	-4.536007e-06	-2.178042e-08	-3.273740e+01	-1.430594e+03
5.100000e-07	-4.412128e-06	-2.158343e-08	-3.184334e+01	-1.418058e+03
5.200000e-07	-4.286639e-06	-2.136890e-08	-3.093766e+01	-1.404861e+03
5.300000e-07	-4.159687e-06	-2.115346e-08	-3.002141e+01	-1.390900e+03
5.400000e-07	-4.031187e-06	-2.092840e-08	-2.909400e+01	-1.376103e+03
5.500000e-07	-3.901204e-06	-2.069078e-08	-2.815589e+01	-1.360449e+03
5.600000e-07	-3.769684e-06	-2.043751e-08	-2.720667e+01	-1.343961e+03
5.700000e-07	-3.636667e-06	-2.017596e-08	-2.624666e+01	-1.326683e+03
5.800000e-07	-3.502331e-06	-1.990087e-08	-2.527713e+01	-1.308658e+03
5.900000e-07	-3.366612e-06	-1.961145e-08	-2.429761e+01	-1.289889e+03
6.000000e-07	-3.229568e-06	-1.930919e-08	-2.330854e+01	-1.270318e+03
6.100000e-07	-3.091399e-06	-1.899261e-08	-2.231133e+01	-1.249817e+03
6.200000e-07	-2.951956e-06	-1.865725e-08	-2.130494e+01	-1.228202e+03
6.300000e-07	-2.811119e-06	-1.829786e-08	-2.028849e+01	-1.205257e+03
6.400000e-07	-2.669088e-06	-1.791943e-08	-1.926342e+01	-1.180772e+03
6.500000e-07	-2.526052e-06	-1.751789e-08	-1.823110e+01	-1.154575e+03
6.600000e-07	-2.382123e-06	-1.709504e-08	-1.719233e+01	-1.126548e+03
6.700000e-07	-2.237344e-06	-1.664374e-08	-1.614742e+01	-1.096621e+03
6.800000e-07	-2.091750e-06	-1.616096e-08	-1.509664e+01	-1.064742e+03
6.900000e-07	-1.945437e-06	-1.564496e-08	-1.404066e+01	-1.030834e+03
7.000000e-07	-1.798574e-06	-1.509281e-08	-1.298072e+01	-9.947501e+02
7.100000e-07	-1.651216e-06	-1.449989e-08	-1.191720e+01	-9.562407e+02
7.200000e-07	-1.503344e-06	-1.386222e-08	-1.084998e+01	-9.149534e+02
7.300000e-07	-1.354926e-06	-1.317802e-08	-9.778810e+00	-8.704686e+02
7.400000e-07	-1.206042e-06	-1.243865e-08	-8.704284e+00	-8.223694e+02
7.500000e-07	-1.056793e-06	-1.164310e-08	-7.627117e+00	-7.703335e+02
7.600000e-07	-9.071782e-07	-1.079094e-08	-6.547314e+00	-7.142247e+02
7.700000e-07	-7.573138e-07	-9.884508e-09	-5.465708e+00	-6.541615e+02
7.800000e-07	-6.072912e-07	-8.921981e-09	-4.382960e+00	-5.905389e+02
7.900000e-07	-4.570809e-07	-7.911105e-09	-3.298858e+00	-5.239935e+02
8.000000e-07	-3.066788e-07	-6.864335e-09	-2.213371e+00	-4.553123e+02
8.100000e-07	-1.561528e-07	-5.794153e-09	-1.126991e+00	-3.853016e+02
8.200000e-07	-5.468946e-09	-4.711304e-09	-3.947064e-02	-3.146420e+02
8.300000e-07	1.452892e-07	-3.623915e-09	1.048586e+00	-2.437647e+02
8.400000e-07	2.959510e-07	-2.540231e-09	2.135946e+00	-1.727772e+02
8.500000e-07	4.465422e-07	-1.454135e-09	3.222797e+00	-1.014615e+02
8.600000e-07	5.970569e-07	-3.620746e-10	4.309097e+00	-2.934875e+01
8.700000e-07	7.473991e-07	7.458418e-10	5.394151e+00	4.414247e+01
8.800000e-07	8.975077e-07	1.882745e-09	6.477519e+00	1.195308e+02
8.900000e-07	1.047322e-06	3.058509e-09	7.558763e+00	1.970984e+02
9.000000e-07	1.196780e-06	4.272766e-09	8.637434e+00	2.767568e+02
9.100000e-07	1.345835e-06	5.516436e-09	9.713203e+00	3.579820e+02
9.200000e-07	1.494466e-06	6.775812e-09	1.078590e+01	4.398358e+02
9.300000e-07	1.642582e-06	8.024093e-09	1.185489e+01	5.210685e+02
9.400000e-07	1.790091e-06	9.233350e-09	1.291950e+01	6.002833e+02
9.500000e-07	1.936959e-06	1.038089e-08	1.397948e+01	6.761280e+02
9.600000e-07	2.083117e-06	1.145214e-08	1.503433e+01	7.474751e+02
9.700000e-07	2.228584e-06	1.243842e-08	1.608420e+01	8.135561e+02
9.800000e-07	2.373242e-06	1.334043e-08	1.712823e+01	8.740265e+02
9.900000e-07	2.516921e-06	1.416701e-08	1.816520e+01	9.289532e+02
1.000000e-06	2.659600e-06	1.492489e-08	1.919494e+01	9.787361e+02
1.010000e-06	2.801148e-06	1.561867e-08	2.021653e+01	1.023984e+03
1.020000e-06	2.941553e-06	1.625398e-08	2.122986e+01	1.065380e+03
1.030000e-06	3.080826e-06	1.684004e-08	2.223503e+01	1.103556e+03
1.040000e-06	3.218902e-06	1.737878e-08	2.323155e+01	1.139016e+03
1.050000e-06	3.355744e-06	1.787785e-08	2.421918e+01	1.172100e+03
1.060000e-06	3.491217e-06	1.833966e-08	2.519692e+01	1.203002e+03
1.070000e-06	3.625379e-06	1.876809e-08	2.616519e+01	1.231811e+03
1.080000e-06	3.758314e-06	1.916805e-08	2.712462e+01	1.258584e+03
1.090000e-06	3.889907e-06	1.954012e-08	2.807435e+01	1.283395e+03
1.100000e-06	4.020084e-06	1.989058e-08	2.901387e+01	1.306373e+03
1.110000e-06	4.148840e-06	2.021966e-08	2.994313e+01	1.327707e+03
1.120000e-06	4.276126e-06	2.053023e-08	3.086178e+01	1.347631e+03
1.130000e-06	4.401948e-06	2.082296e-08	3.176987e+01	1.366382e+03
1.140000e-06	4.526276e-06	2.109441e-08	3.266717e+01	1.384161e+03
1.150000e-06	4.648997e-06	2.134768e-08	3.355288e+01	1.401109e+03
1.160000e-06	4.770102e-06	2.158802e-08	3.442692e+01	1.417289e+03
1.170000e-06	4.889492e-06	2.181477e-08	3.528859e+01	1.432699e+03
1.180000e-06	5.007070e-06	2.202931e-08	3.613718e+01	1.447302e+03
1.190000e-06	5.122728e-06	2.223261e-08	3.697190e+01	1.461056e+03
1.200000e-06	5.236427e-06	2.242786e-08	3.779250e+01	1.473946e+03
1.210000e-06	5.348183e-06	2.261331e-08	3.859907e+01	1.486007e+03
1.220000e-06	5.458017e-06	2.278707e-08	3.939176e+01	1.497317e+03
1.230000e-06	5.565975e-06	2.295177e-08	4.017092e+01	1.507991e+03
1.240000e-06	5.671932e-06	2.310840e-08	4.093564e+01	1.518147e+03
1.250000e-06	5.775754e-06	2.325746e-08	4.168494e+01	1.527883e+03
1.260000e-06	5.877450e-06	2.339882e-08	4.241891e+01	1.537253e+03
1.270000e-06	5.977009e-06	2.353340e-08	4.313745e+01	1.546261e+03
1.280000e-06	6.074328e-06	2.366274e-08	4.383982e+01	1.554867e+03
1.290000e-06	6.169374e-06	2.378576e-08	4.452579e+01	1.563010e+03
1.300000e-06	6.262231e-06	2.390172e-08	4.519596e+01	1.570634e+03
1.310000e-06	6.352876e-06	2.400888e-08	4.585017e+01	1.577709e+03
1.320000e-06	6.441158e-06	2.410811e-08	4.648732e+01	1.584249e+03
1.330000e-06	6.527148e-06	2.420201e-08	4.710793e+01	1.590313e+03
1.340000e-06	6.610915e-06	2.429153e-08	4.771249e+01	1.595991e+03
1.350000e-06	6.692305e-06	2.437586e-08	4.829990e+01	1.601384e+03
1.360000e-06	6.771209e-06	2.445520e-08	4.886937e+01	1.606580e+03
1.370000e-06	6.847564e-06	2.453173e-08	4.942044e+01	1.611635e+03
1.380000e-06	6.921301e-06	2.460526e-08	4.995262e+01	1.616562e+03
1.390000e-06	6.992501e-06	2.467426e-08	5.046649e+01	1.621337e+03
1.400000e-06	7.061246e-06	2.473910e-08	5.096263e+01	1.625911e+03
1.410000e-06	7.127487e-06	2.480093e-08	5.144071e+01	1.630232e+03
1.420000e-06	7.191198e-06	2.485976e-08	5.190053e+01	1.634258e+03
1.430000e-06	7.252441e-06	2.491580e-08	5.234253e+01	1.637980e+03
1.440000e-06	7.311218e-06	2.496985e-08	5.276674e+01	1.641414e+03
1.450000e-06	7.367355e-06	2.502226e-08	5.317189e+01	1.644602e+03
1.460000e-06	7.420771e-06	2.507180e-08	5.355741e+01	1.647594e+03
1.470000e-06	7.471229e-06	2.511694e-08	5.392157e+01	1.650431e+03
1.480000e-06	7.518648e-06	2.515795e-08	5.426381e+01	1.653132e+03
1.490000e-06	7.563400e-06	2.519557e-08	5.458679e+01	1.655690e+03
1.500000e-06	7.605515e-06	2.522718e-08	5.489075e+01	1.658075e+03
1.510000e-06	7.644823e-06	2.525553e-08	5.517445e+01	1.660242e+03
1.520000e-06	7.681495e-06	2.528359e-08	5.543911e+01	1.662154e+03
1.530000e-06	7.715555e-06	2.530964e-08	5.568493e+01	1.663787e+03
1.540000e-06	7.746774e-06	2.533075e-08	5.591025e+01	1.665148e+03
1.550000e-06	7.775302e-06	2.534850e-08	5.611614e+01	1.666268e+03
1.560000e-06	7.801112e-06	2.536529e-08	5.630242e+01	1.667196e+03
1.570000e-06	7.823980e-06	2.537927e-08	5.646746e+01	1.667987e+03
1.580000e-06	7.844091e-06	2.539091e-08	5.661261e+01	1.668684e+03
1.590000e-06	7.861467e-06	2.540120e-08	5.673802e+01	1.669310e+03
1.600000e-06	7.875905e-06	2.540988e-08	5.684222e+01	1.669861e+03
1.610000e-06	7.887264e-06	2.541424e-08	5.692419e+01	1.670309e+03
1.620000e-06	7.895527e-06	2.541561e-08	5.698383e+01	1.670619e+03
1.630000e-06	7.900920e-06	2.541786e-08	5.702276e+01	1.670755e+03
1.640000e-06	7.903517e-06	2.542039e-08	5.704150e+01	1.670701e+03
1.650000e-06	7.903274e-06	2.542215e-08	5.703975e+01	1.670457e+03
1.660000e-06	7.900353e-06	2.541209e-08	5.701866e+01	1.670049e+03
1.670000e-06	7.894883e-06	2.540515e-08	5.697918e+01	1.669510e+03
1.680000e-06	7.886780e-06	2.540019e-08	5.692071e+01	1.668873e+03
1.690000e-06	7.876002e-06	2.539092e-08	5.684291e+01	1.668159e+03
1.700000e-06	7.862403e-06	2.537958e-08	5.674477e+01	1.667366e+03
1.710000e-06	7.846112e-06	2.537149e-08	5.662719e+01	1.666472e+03
1.720000e-06	7.827518e-06	2.536867e-08	5.649299e+01	1.665442e+03
1.730000e-06	7.806686e-06	2.532204e-08	5.634265e+01	1.664241e+03
1.740000e-06	7.783048e-06	2.521385e-08	5.617205e+01	1.662852e+03
1.750000e-06	7.755836e-06	2.524471e-08	5.597565e+01	1.661284e+03
1.760000e-06	7.724968e-06	2.527075e-08	5.575287e+01	1.659577e+03
1.770000e-06	7.691231e-06	2.521756e-08	5.550938e+01	1.657792e+03
1.780000e-06	7.655329e-06	2.520349e-08	5.525027e+01	1.655997e+03
1.790000e-06	7.617123e-06	2.526926e-08	5.497453e+01	1.654244e+03
1.800000e-06	7.576875e-06	2.515435e-08	5.468405e+01	1.652553e+03
1.810000e-06	7.534601e-06	2.507048e-08	5.437895e+01	1.650901e+03
1.820000e-06	7.489657e-06	2.521361e-08	5.405457e+01	1.649218e+03
1.830000e-06	7.442090e-06	2.508665e-08	5.371127e+01	1.647403e+03
1.840000e-06	7.391768e-06	2.513139e-08	5.334809e+01	1.645345e+03
1.850000e-06	7.338376e-06	2.507142e-08	5.296275e+01	1.642947e+03
1.860000e-06	7.282194e-06	2.496505e-08	5.255727e+01	1.640148e+03
1.870000e-06	7.223433e-06	2.502196e-08	5.213318e+01	1.636936e+03
1.880000e-06	7.162088e-06	2.485652e-08	5.169044e+01	1.633348e+03
1.890000e-06	7.097921e-06	2.488980e-08	5.122733e+01	1.629456e+03
1.900000e-06	7.030991e-06	2.482543e-08	5.074428e+01	1.625345e+03
1.910000e-06	6.961391e-06	2.472942e-08	5.024195e+01	1.621088e+03
1.920000e-06	6.888990e-06	2.469947e-08	4.971942e+01	1.616728e+03
1.930000e-06	6.813995e-06	2.458202e-08	4.917817e+01	1.612265e+03
1.940000e-06	6.736285e-06	2.457594e-08	4.861732e+01	1.607658e+03
1.950000e-06	6.655903e-06	2.445161e-08	4.803718e+01	1.602844e+03
1.960000e-06	6.573093e-06	2.440139e-08	4.743952e+01	1.597753e+03
1.970000e-06	6.487825e-06	2.430902e-08	4.682412e+01	1.592333e+03
1.980000e-06	6.400171e-06	2.419946e-08	4.619150e+01	1.586563e+03
1.990000e-06	6.310237e-06	2.414593e-08	4.554243e+01	1.580457e+03
2.000000e-06	6.218190e-06	2.401474e-08	4.487810e+01	1.574055e+03
2.010000e-06	6.123933e-06	2.394486e-08	4.419783e+01	1.567405e+03
2.020000e-06	6.027373e-06	2.382248e-08	4.350093e+01	1.560547e+03
2.030000e-06	5.928694e-06	2.372728e-08	4.278875e+01	1.553488e+03
2.040000e-06	5.827967e-06	2.360049e-08	4.206178e+01	1.546203e+03
2.050000e-06	5.725096e-06	2.349367e-08	4.131933e+01	1.538631e+03
2.060000e-06	5.620127e-06	2.337627e-08	4.056175e+01	1.530692e+03
2.070000e-06	5.513312e-06	2.322979e-08	3.979084e+01	1.522312e+03
2.080000e-06	5.404642e-06	2.310006e-08	3.900655e+01	1.513437e+03
2.090000e-06	5.294042e-06	2.295408e-08	3.820832e+01	1.504049e+03
2.100000e-06	5.181466e-06	2.282109e-08	3.739583e+01	1.494169e+03
2.110000e-06	5.066980e-06	2.265932e-08	3.656956e+01	1.483844e+03
2.120000e-06	4.950550e-06	2.250882e-08	3.572926e+01	1.473123e+03
2.130000e-06	4.832217e-06	2.233365e-08	3.487522e+01	1.462039e+03
2.140000e-06	4.712039e-06	2.215334e-08	3.400787e+01	1.450586e+03
2.150000e-06	4.590058e-06	2.196440e-08	3.312750e+01	1.438711e+03
2.160000e-06	4.466421e-06	2.178219e-08	3.223519e+01	1.426320e+03
2.170000e-06	4.341125e-06	2.158678e-08	3.133090e+01	1.413298e+03
2.180000e-06	4.214267e-06	2.137546e-08	3.041534e+01	1.399535e+03
2.190000e-06	4.085786e-06	2.115848e-08	2.948806e+01	1.384950e+03
2.200000e-06	3.955807e-06	2.092873e-08	2.854997e+01	1.369510e+03
2.210000e-06	3.824415e-06	2.068844e-08	2.760168e+01	1.353225e+03
2.220000e-06	3.691508e-06	2.043204e-08	2.664246e+01	1.336139e+03
2.230000e-06	3.557261e-06	2.016867e-08	2.567357e+01	1.318297e+03
2.240000e-06	3.421740e-06	1.988361e-08	2.469548e+01	1.299716e+03
2.250000e-06	3.284897e-06	1.958575e-08	2.370786e+01	1.280354e+03
2.260000e-06	3.146834e-06	1.927278e-08	2.271142e+01	1.260100e+03
2.270000e-06	3.007582e-06	1.894771e-08	2.170641e+01	1.238782e+03
2.280000e-06	2.867081e-06	1.860263e-08	2.069238e+01	1.216188e+03
2.290000e-06	2.725424e-06	1.823914e-08	1.967001e+01	1.192105e+03
2.300000e-06	2.582811e-06	1.785102e-08	1.864074e+01	1.166349e+03
2.310000e-06	2.439312e-06	1.743613e-08	1.760507e+01	1.138787e+03
2.320000e-06	2.294867e-06	1.699310e-08	1.656258e+01	1.109339e+03
2.330000e-06	2.149574e-06	1.651941e-08	1.551397e+01	1.077952e+03
2.340000e-06	2.003607e-06	1.601385e-08	1.446050e+01	1.044561e+03
2.350000e-06	1.857072e-06	1.547215e-08	1.340291e+01	1.009039e+03
2.360000e-06	1.709952e-06	1.489283e-08	1.234112e+01	9.711640e+02
2.370000e-06	1.562256e-06	1.427078e-08	1.127516e+01	9.306078e+02
2.380000e-06	1.414051e-06	1.360119e-08	1.020553e+01	8.869621e+02
2.390000e-06	1.265357e-06	1.287850e-08	9.132372e+00	8.398011e+02
2.400000e-06	1.116126e-06	1.209833e-08	8.055335e+00	7.887697e+02
2.410000e-06	9.664122e-07	1.126123e-08	6.974819e+00	7.336778e+02
2.420000e-06	8.164082e-07	1.036984e-08	5.892205e+00	6.745758e+02
2.430000e-06	6.662114e-07	9.422237e-09	4.808201e+00	6.117907e+02
2.440000e-06	5.158796e-07	8.421999e-09	3.723221e+00	5.459050e+02
2.450000e-06	3.654197e-07	7.379563e-09	2.637318e+00	4.776795e+02
2.460000e-06	2.148099e-07	6.308727e-09	1.550332e+00	4.079290e+02
2.470000e-06	6.407338e-08	5.221482e-09	4.624323e-01	3.373787e+02
2.480000e-06	-8.670913e-08	4.129543e-09	-6.257997e-01	2.665315e+02
2.490000e-06	-2.374487e-07	3.039456e-09	-1.713722e+00	1.955789e+02
2.500000e-06	-3.880900e-07	1.949451e-09	-2.800935e+00	1.243804e+02
2.510000e-06	-5.386267e-07	8.543886e-10	-3.887393e+00	5.251882e+01
2.520000e-06	-6.890593e-07	-2.555863e-10	-4.973099e+00	-2.057460e+01
2.530000e-06	-8.393423e-07	-1.389063e-09	-6.057726e+00	-9.545125e+01
2.540000e-06	-9.893744e-07	-2.555592e-09	-7.140543e+00	-1.724672e+02
2.550000e-06	-1.139053e-06	-3.762433e-09	-8.220808e+00	-2.516357e+02
2.560000e-06	-1.288309e-06	-5.003156e-09	-9.298021e+00	-3.325431e+02
2.570000e-06	-1.437090e-06	-6.262458e-09	-1.037181e+01	-4.143482e+02
2.580000e-06	-1.585285e-06	-7.520286e-09	-1.144137e+01	-4.958656e+02
2.590000e-06	-1.732800e-06	-8.751770e-09	-1.250601e+01	-5.757177e+02
2.600000e-06	-1.879655e-06	-9.929857e-09	-1.356590e+01	-6.525232e+02
2.610000e-06	-2.025872e-06	-1.103669e-08	-1.462119e+01	-7.250834e+02
2.620000e-06	-2.171417e-06	-1.206354e-08	-1.567162e+01	-7.925312e+02
2.630000e-06	-2.316123e-06	-1.300576e-08	-1.671599e+01	-8.544141e+02
2.640000e-06	-2.459830e-06	-1.386539e-08	-1.775316e+01	-9.107015e+02
2.650000e-06	-2.602580e-06	-1.465021e-08	-1.878342e+01	-9.617200e+02
2.660000e-06	-2.744393e-06	-1.536882e-08	-1.980692e+01	-1.008039e+03
2.670000e-06	-2.885123e-06	-1.602732e-08	-2.082259e+01	-1.050336e+03
2.680000e-06	-3.024610e-06	-1.663285e-08	-2.182930e+01	-1.089265e+03
2.690000e-06	-3.162837e-06	-1.719247e-08	-2.282692e+01	-1.125367e+03
2.700000e-06	-3.299867e-06	-1.770985e-08	-2.381589e+01	-1.159023e+03
2.710000e-06	-3.435639e-06	-1.818613e-08	-2.479579e+01	-1.190459e+03
2.720000e-06	-3.570176e-06	-1.862775e-08	-2.576678e+01	-1.219787e+03
2.730000e-06	-3.703503e-06	-1.903936e-08	-2.672903e+01	-1.247065e+03
2.740000e-06	-3.835459e-06	-1.942540e-08	-2.768139e+01	-1.272358e+03
2.750000e-06	-3.966023e-06	-1.978737e-08	-2.862370e+01	-1.295779e+03
2.760000e-06	-4.095244e-06	-2.012205e-08	-2.955632e+01	-1.317505e+03
2.770000e-06	-4.223042e-06	-2.043518e-08	-3.047866e+01	-1.337760e+03
2.780000e-06	-4.349446e-06	-2.073200e-08	-3.139095e+01	-1.356784e+03
2.790000e-06	-4.474385e-06	-2.101254e-08	-3.229266e+01	-1.374791e+03
2.800000e-06	-4.597703e-06	-2.127513e-08	-3.318268e+01	-1.391939e+03
2.810000e-06	-4.719434e-06	-2.152301e-08	-3.406124e+01	-1.408310e+03
2.820000e-06	-4.839384e-06	-2.175929e-08	-3.492694e+01	-1.423916e+03
2.830000e-06	-4.957399e-06	-2.198458e-08	-3.577869e+01	-1.438726e+03
2.840000e-06	-5.073443e-06	-2.219886e-08	-3.661621e+01	-1.452696e+03
2.850000e-06	-5.187395e-06	-2.240066e-08	-3.743862e+01	-1.465802e+03
2.860000e-06	-5.299286e-06	-2.259139e-08	-3.824617e+01	-1.478065e+03
2.870000e-06	-5.409190e-06	-2.277098e-08	-3.903937e+01	-1.489555e+03
2.880000e-06	-5.517207e-06	-2.293983e-08	-3.981895e+01	-1.500377e+03
2.890000e-06	-5.623357e-06	-2.309975e-08	-4.058506e+01	-1.510654e+03
2.900000e-06	-5.727492e-06	-2.325044e-08	-4.133663e+01	-1.520489e+03
2.910000e-06	-5.829463e-06	-2.339313e-08	-4.207257e+01	-1.529949e+03
2.920000e-06	-5.929230e-06	-2.353144e-08	-4.279261e+01	-1.539050e+03
2.930000e-06	-6.026912e-06	-2.366477e-08	-4.349761e+01	-1.547763e+03
2.940000e-06	-6.122472e-06	-2.379012e-08	-4.418729e+01	-1.556029e+03
