# Temperatura_=_50.2
# Concentracion g/m^3_=_28200.0
# C_Vs_to_Am_M_A/Vsm_=_65563218390.804596
# pendiente_HvsI_1/m_=_3716.3
# ordenada_HvsI_A/m_=_1297.0
# frecuencia_Hz_=_302548.47322238254

Tiempo_(s)	Campo_(V.s)	Magnetizacion_(V.s)	Campo_(kA/m)	Magnetizacion_(A/m)
0.000000e+00	-7.848083e-06	-2.524332e-08	-5.684184e+01	-1.652199e+03
1.000000e-08	-7.844727e-06	-2.524228e-08	-5.681753e+01	-1.651738e+03
2.000000e-08	-7.838829e-06	-2.523319e-08	-5.677482e+01	-1.651138e+03
3.000000e-08	-7.830351e-06	-2.522346e-08	-5.671341e+01	-1.650437e+03
4.000000e-08	-7.819047e-06	-2.521467e-08	-5.663153e+01	-1.649658e+03
5.000000e-08	-7.804865e-06	-2.520115e-08	-5.652882e+01	-1.648807e+03
6.000000e-08	-7.787924e-06	-2.517852e-08	-5.640612e+01	-1.647867e+03
7.000000e-08	-7.768650e-06	-2.515391e-08	-5.626652e+01	-1.646809e+03
8.000000e-08	-7.747169e-06	-2.513186e-08	-5.611094e+01	-1.645602e+03
9.000000e-08	-7.722988e-06	-2.516552e-08	-5.593580e+01	-1.644228e+03
1.000000e-07	-7.695588e-06	-2.516361e-08	-5.573735e+01	-1.642690e+03
1.100000e-07	-7.665117e-06	-2.508180e-08	-5.551665e+01	-1.641019e+03
1.200000e-07	-7.631845e-06	-2.503850e-08	-5.527568e+01	-1.639262e+03
1.300000e-07	-7.595886e-06	-2.501997e-08	-5.501523e+01	-1.637471e+03
1.400000e-07	-7.557586e-06	-2.496403e-08	-5.473784e+01	-1.635685e+03
1.500000e-07	-7.517137e-06	-2.488294e-08	-5.444487e+01	-1.633915e+03
1.600000e-07	-7.474367e-06	-2.491918e-08	-5.413510e+01	-1.632131e+03
1.700000e-07	-7.429027e-06	-2.494101e-08	-5.380671e+01	-1.630270e+03
1.800000e-07	-7.381070e-06	-2.478173e-08	-5.345937e+01	-1.628242e+03
1.900000e-07	-7.330271e-06	-2.479659e-08	-5.309145e+01	-1.625951e+03
2.000000e-07	-7.276515e-06	-2.476178e-08	-5.270210e+01	-1.623322e+03
2.100000e-07	-7.220024e-06	-2.466979e-08	-5.229295e+01	-1.620314e+03
2.200000e-07	-7.160868e-06	-2.467646e-08	-5.186450e+01	-1.616930e+03
2.300000e-07	-7.099137e-06	-2.460324e-08	-5.141740e+01	-1.613217e+03
2.400000e-07	-7.034824e-06	-2.456642e-08	-5.095159e+01	-1.609251e+03
2.500000e-07	-6.967754e-06	-2.446737e-08	-5.046582e+01	-1.605110e+03
2.600000e-07	-6.898064e-06	-2.440921e-08	-4.996107e+01	-1.600860e+03
2.700000e-07	-6.825745e-06	-2.433783e-08	-4.943728e+01	-1.596529e+03
2.800000e-07	-6.750656e-06	-2.425114e-08	-4.889343e+01	-1.592105e+03
2.900000e-07	-6.672862e-06	-2.419406e-08	-4.832998e+01	-1.587540e+03
3.000000e-07	-6.592345e-06	-2.411423e-08	-4.774682e+01	-1.582763e+03
3.100000e-07	-6.509360e-06	-2.404326e-08	-4.714578e+01	-1.577702e+03
3.200000e-07	-6.424263e-06	-2.394029e-08	-4.652944e+01	-1.572305e+03
3.300000e-07	-6.336951e-06	-2.386936e-08	-4.589706e+01	-1.566555e+03
3.400000e-07	-6.247261e-06	-2.379056e-08	-4.524745e+01	-1.560465e+03
3.500000e-07	-6.155273e-06	-2.367529e-08	-4.458121e+01	-1.554077e+03
3.600000e-07	-6.061143e-06	-2.358698e-08	-4.389945e+01	-1.547440e+03
3.700000e-07	-5.964801e-06	-2.349416e-08	-4.320166e+01	-1.540590e+03
3.800000e-07	-5.866195e-06	-2.338339e-08	-4.248748e+01	-1.533537e+03
3.900000e-07	-5.765527e-06	-2.326009e-08	-4.175837e+01	-1.526252e+03
4.000000e-07	-5.662861e-06	-2.314096e-08	-4.101478e+01	-1.518677e+03
4.100000e-07	-5.558207e-06	-2.301165e-08	-4.025680e+01	-1.510737e+03
4.200000e-07	-5.451574e-06	-2.287356e-08	-3.948448e+01	-1.502361e+03
4.300000e-07	-5.342969e-06	-2.274695e-08	-3.869788e+01	-1.493499e+03
4.400000e-07	-5.232441e-06	-2.261117e-08	-3.789735e+01	-1.484135e+03
4.500000e-07	-5.119975e-06	-2.246437e-08	-3.708279e+01	-1.474289e+03
4.600000e-07	-5.005557e-06	-2.230916e-08	-3.625408e+01	-1.464000e+03
4.700000e-07	-4.889199e-06	-2.214740e-08	-3.541133e+01	-1.453312e+03
4.800000e-07	-4.771031e-06	-2.197695e-08	-3.455547e+01	-1.442249e+03
4.900000e-07	-4.651170e-06	-2.179959e-08	-3.368734e+01	-1.430799e+03
5.000000e-07	-4.529626e-06	-2.161745e-08	-3.280703e+01	-1.418906e+03
5.100000e-07	-4.406329e-06	-2.142106e-08	-3.191401e+01	-1.406479e+03
5.200000e-07	-4.281368e-06	-2.121082e-08	-3.100895e+01	-1.393411e+03
5.300000e-07	-4.154863e-06	-2.099304e-08	-3.009270e+01	-1.379602e+03
5.400000e-07	-4.026904e-06	-2.077068e-08	-2.916593e+01	-1.364984e+03
5.500000e-07	-3.897471e-06	-2.053907e-08	-2.822847e+01	-1.349528e+03
5.600000e-07	-3.766478e-06	-2.029286e-08	-2.727972e+01	-1.333251e+03
5.700000e-07	-3.634035e-06	-2.003520e-08	-2.632047e+01	-1.316191e+03
5.800000e-07	-3.500231e-06	-1.976156e-08	-2.535136e+01	-1.298384e+03
5.900000e-07	-3.365077e-06	-1.947400e-08	-2.437247e+01	-1.279831e+03
6.000000e-07	-3.228637e-06	-1.917264e-08	-2.338427e+01	-1.260478e+03
6.100000e-07	-3.090972e-06	-1.886002e-08	-2.238719e+01	-1.240204e+03
6.200000e-07	-2.952053e-06	-1.852953e-08	-2.138104e+01	-1.218834e+03
6.300000e-07	-2.811836e-06	-1.817730e-08	-2.036547e+01	-1.196160e+03
6.400000e-07	-2.670418e-06	-1.780225e-08	-1.934122e+01	-1.171978e+03
6.500000e-07	-2.527973e-06	-1.740261e-08	-1.830952e+01	-1.146117e+03
6.600000e-07	-2.384549e-06	-1.698185e-08	-1.727074e+01	-1.118456e+03
6.700000e-07	-2.240218e-06	-1.653591e-08	-1.622538e+01	-1.088918e+03
6.800000e-07	-2.095050e-06	-1.606066e-08	-1.517396e+01	-1.057448e+03
6.900000e-07	-1.949193e-06	-1.554994e-08	-1.411755e+01	-1.023967e+03
7.000000e-07	-1.802787e-06	-1.500541e-08	-1.305717e+01	-9.883305e+02
7.100000e-07	-1.655812e-06	-1.441951e-08	-1.199266e+01	-9.502988e+02
7.200000e-07	-1.508325e-06	-1.379016e-08	-1.092444e+01	-9.095321e+02
7.300000e-07	-1.360432e-06	-1.311502e-08	-9.853293e+00	-8.656243e+02
7.400000e-07	-1.212174e-06	-1.238861e-08	-8.779491e+00	-8.181685e+02
7.500000e-07	-1.063530e-06	-1.160732e-08	-7.702902e+00	-7.668454e+02
7.600000e-07	-9.145294e-07	-1.076434e-08	-6.623723e+00	-7.115124e+02
7.700000e-07	-7.652330e-07	-9.865431e-09	-5.542405e+00	-6.522723e+02
7.800000e-07	-6.156292e-07	-8.911278e-09	-4.458859e+00	-5.894982e+02
7.900000e-07	-4.657940e-07	-7.911920e-09	-3.373637e+00	-5.238032e+02
8.000000e-07	-3.158396e-07	-6.878263e-09	-2.287553e+00	-4.559552e+02
8.100000e-07	-1.657307e-07	-5.821646e-09	-1.200349e+00	-3.867506e+02
8.200000e-07	-1.552311e-08	-4.754012e-09	-1.124303e-01	-3.168733e+02
8.300000e-07	1.346833e-07	-3.681643e-09	9.754801e-01	-2.467699e+02
8.400000e-07	2.848729e-07	-2.609783e-09	2.063268e+00	-1.765729e+02
8.500000e-07	4.349699e-07	-1.535464e-09	3.150386e+00	-1.060919e+02
8.600000e-07	5.849222e-07	-4.545746e-10	4.236455e+00	-3.488022e+01
8.700000e-07	7.347034e-07	6.421777e-10	5.321285e+00	3.763389e+01
8.800000e-07	8.842476e-07	1.764102e-09	6.404399e+00	1.119776e+02
8.900000e-07	1.033552e-06	2.922920e-09	7.485780e+00	1.884615e+02
9.000000e-07	1.182582e-06	4.119921e-09	8.565165e+00	2.670421e+02
9.100000e-07	1.331233e-06	5.346247e-09	9.641813e+00	3.472513e+02
9.200000e-07	1.479453e-06	6.588949e-09	1.071534e+01	4.282077e+02
9.300000e-07	1.627151e-06	7.826540e-09	1.178508e+01	5.087098e+02
9.400000e-07	1.774180e-06	9.031166e-09	1.284997e+01	5.873919e+02
9.500000e-07	1.920557e-06	1.017494e-08	1.391015e+01	6.629106e+02
9.600000e-07	2.066336e-06	1.124301e-08	1.496599e+01	7.341238e+02
9.700000e-07	2.211349e-06	1.223120e-08	1.601628e+01	8.002294e+02
9.800000e-07	2.355476e-06	1.314101e-08	1.706016e+01	8.608359e+02
9.900000e-07	2.498694e-06	1.397297e-08	1.809746e+01	9.159598e+02
1.000000e-06	2.640918e-06	1.473242e-08	1.912755e+01	9.659547e+02
1.010000e-06	2.782113e-06	1.542572e-08	2.015020e+01	1.011395e+03
1.020000e-06	2.922174e-06	1.606146e-08	2.116462e+01	1.052943e+03
1.030000e-06	3.060972e-06	1.664840e-08	2.216991e+01	1.091227e+03
1.040000e-06	3.198547e-06	1.719130e-08	2.316633e+01	1.126756e+03
1.050000e-06	3.334912e-06	1.769467e-08	2.415399e+01	1.159886e+03
1.060000e-06	3.470010e-06	1.815704e-08	2.513247e+01	1.190821e+03
1.070000e-06	3.603890e-06	1.858545e-08	2.610214e+01	1.219667e+03
1.080000e-06	3.736531e-06	1.898472e-08	2.706282e+01	1.246484e+03
1.090000e-06	3.867717e-06	1.935863e-08	2.801297e+01	1.271345e+03
1.100000e-06	3.997493e-06	1.971094e-08	2.895291e+01	1.294374e+03
1.110000e-06	4.125936e-06	2.004046e-08	2.988319e+01	1.315753e+03
1.120000e-06	4.252914e-06	2.034842e-08	3.080286e+01	1.335708e+03
1.130000e-06	4.378446e-06	2.063776e-08	3.171207e+01	1.354471e+03
1.140000e-06	4.502516e-06	2.091065e-08	3.261068e+01	1.372248e+03
1.150000e-06	4.624974e-06	2.116775e-08	3.349761e+01	1.389180e+03
1.160000e-06	4.745815e-06	2.141165e-08	3.437283e+01	1.405339e+03
1.170000e-06	4.864969e-06	2.164086e-08	3.523584e+01	1.420730e+03
1.180000e-06	4.982348e-06	2.185376e-08	3.608599e+01	1.435320e+03
1.190000e-06	5.097849e-06	2.205335e-08	3.692253e+01	1.449070e+03
1.200000e-06	5.211317e-06	2.224562e-08	3.774435e+01	1.461963e+03
1.210000e-06	5.322740e-06	2.243232e-08	3.855137e+01	1.474028e+03
1.220000e-06	5.432278e-06	2.261105e-08	3.934473e+01	1.485340e+03
1.230000e-06	5.539968e-06	2.277934e-08	4.012470e+01	1.496008e+03
1.240000e-06	5.645732e-06	2.293662e-08	4.089072e+01	1.506147e+03
1.250000e-06	5.749406e-06	2.308480e-08	4.164161e+01	1.515855e+03
1.260000e-06	5.850902e-06	2.322482e-08	4.237672e+01	1.525187e+03
1.270000e-06	5.950231e-06	2.335799e-08	4.309614e+01	1.534151e+03
1.280000e-06	6.047272e-06	2.348466e-08	4.379898e+01	1.542711e+03
1.290000e-06	6.142048e-06	2.360444e-08	4.448542e+01	1.550809e+03
1.300000e-06	6.234670e-06	2.371975e-08	4.515626e+01	1.558390e+03
1.310000e-06	6.325132e-06	2.382947e-08	4.581146e+01	1.565425e+03
1.320000e-06	6.413243e-06	2.393214e-08	4.644963e+01	1.571926e+03
1.330000e-06	6.499100e-06	2.402637e-08	4.707147e+01	1.577951e+03
1.340000e-06	6.582784e-06	2.411307e-08	4.767757e+01	1.583590e+03
1.350000e-06	6.664092e-06	2.419457e-08	4.826647e+01	1.588943e+03
1.360000e-06	6.742917e-06	2.427245e-08	4.883738e+01	1.594099e+03
1.370000e-06	6.819198e-06	2.434765e-08	4.938986e+01	1.599116e+03
1.380000e-06	6.892853e-06	2.441995e-08	4.992333e+01	1.604009e+03
1.390000e-06	6.963971e-06	2.448985e-08	5.043842e+01	1.608752e+03
1.400000e-06	7.032653e-06	2.455563e-08	5.093587e+01	1.613295e+03
1.410000e-06	7.098818e-06	2.461789e-08	5.141509e+01	1.617583e+03
1.420000e-06	7.162453e-06	2.467692e-08	5.187598e+01	1.621573e+03
1.430000e-06	7.223647e-06	2.473257e-08	5.231919e+01	1.625253e+03
1.440000e-06	7.282409e-06	2.478532e-08	5.274479e+01	1.628639e+03
1.450000e-06	7.338579e-06	2.483525e-08	5.315162e+01	1.631774e+03
1.460000e-06	7.391956e-06	2.488248e-08	5.353822e+01	1.634714e+03
1.470000e-06	7.442324e-06	2.492708e-08	5.390302e+01	1.637503e+03
1.480000e-06	7.489730e-06	2.496866e-08	5.424637e+01	1.640168e+03
1.490000e-06	7.534504e-06	2.500733e-08	5.457066e+01	1.642704e+03
1.500000e-06	7.576643e-06	2.504138e-08	5.487586e+01	1.645080e+03
1.510000e-06	7.616058e-06	2.507106e-08	5.516133e+01	1.647252e+03
1.520000e-06	7.652851e-06	2.509835e-08	5.542782e+01	1.649174e+03
1.530000e-06	7.686904e-06	2.512255e-08	5.567445e+01	1.650817e+03
1.540000e-06	7.718152e-06	2.514401e-08	5.590078e+01	1.652181e+03
1.550000e-06	7.746737e-06	2.516349e-08	5.610781e+01	1.653292e+03
1.560000e-06	7.772521e-06	2.518158e-08	5.629456e+01	1.654200e+03
1.570000e-06	7.795424e-06	2.519618e-08	5.646044e+01	1.654961e+03
1.580000e-06	7.815616e-06	2.520786e-08	5.660669e+01	1.655626e+03
1.590000e-06	7.833049e-06	2.521779e-08	5.673295e+01	1.656223e+03
1.600000e-06	7.847549e-06	2.522547e-08	5.683797e+01	1.656755e+03
1.610000e-06	7.858944e-06	2.523005e-08	5.692050e+01	1.657197e+03
1.620000e-06	7.867266e-06	2.523294e-08	5.698078e+01	1.657511e+03
1.630000e-06	7.872805e-06	2.523585e-08	5.702090e+01	1.657659e+03
1.640000e-06	7.875637e-06	2.523581e-08	5.704140e+01	1.657615e+03
1.650000e-06	7.875650e-06	2.523403e-08	5.704150e+01	1.657373e+03
1.660000e-06	7.872961e-06	2.522529e-08	5.702202e+01	1.656951e+03
1.670000e-06	7.867701e-06	2.521707e-08	5.698393e+01	1.656381e+03
1.680000e-06	7.859815e-06	2.521310e-08	5.692681e+01	1.655701e+03
1.690000e-06	7.849306e-06	2.520438e-08	5.685070e+01	1.654940e+03
1.700000e-06	7.835987e-06	2.519193e-08	5.675423e+01	1.654107e+03
1.710000e-06	7.819951e-06	2.518275e-08	5.663809e+01	1.653190e+03
1.720000e-06	7.801585e-06	2.517740e-08	5.650507e+01	1.652164e+03
1.730000e-06	7.780966e-06	2.515011e-08	5.635573e+01	1.650995e+03
1.740000e-06	7.757573e-06	2.504827e-08	5.618630e+01	1.649662e+03
1.750000e-06	7.730662e-06	2.504627e-08	5.599139e+01	1.648163e+03
1.760000e-06	7.700192e-06	2.507450e-08	5.577070e+01	1.646520e+03
1.770000e-06	7.666818e-06	2.503104e-08	5.552897e+01	1.644778e+03
1.780000e-06	7.631171e-06	2.500662e-08	5.527080e+01	1.642990e+03
1.790000e-06	7.593276e-06	2.506336e-08	5.499633e+01	1.641200e+03
1.800000e-06	7.553339e-06	2.500934e-08	5.470708e+01	1.639426e+03
1.810000e-06	7.511380e-06	2.487721e-08	5.440318e+01	1.637649e+03
1.820000e-06	7.466772e-06	2.499039e-08	5.408009e+01	1.635814e+03
1.830000e-06	7.419542e-06	2.490152e-08	5.373802e+01	1.633836e+03
1.840000e-06	7.369615e-06	2.487879e-08	5.337641e+01	1.631618e+03
1.850000e-06	7.316654e-06	2.488871e-08	5.299282e+01	1.629078e+03
1.860000e-06	7.260840e-06	2.475557e-08	5.258858e+01	1.626165e+03
1.870000e-06	7.202384e-06	2.478074e-08	5.216519e+01	1.622871e+03
1.880000e-06	7.141426e-06	2.464254e-08	5.172368e+01	1.619233e+03
1.890000e-06	7.077700e-06	2.462610e-08	5.126213e+01	1.615321e+03
1.900000e-06	7.011187e-06	2.460480e-08	5.078039e+01	1.611216e+03
1.910000e-06	6.942044e-06	2.450274e-08	5.027961e+01	1.606988e+03
1.920000e-06	6.870125e-06	2.450212e-08	4.975872e+01	1.602676e+03
1.930000e-06	6.795583e-06	2.438187e-08	4.921883e+01	1.598278e+03
1.940000e-06	6.718315e-06	2.434280e-08	4.865919e+01	1.593753e+03
1.950000e-06	6.638340e-06	2.424369e-08	4.807995e+01	1.589035e+03
1.960000e-06	6.555969e-06	2.416870e-08	4.748336e+01	1.584049e+03
1.970000e-06	6.471245e-06	2.410652e-08	4.686972e+01	1.578739e+03
1.980000e-06	6.384095e-06	2.397970e-08	4.623852e+01	1.573076e+03
1.990000e-06	6.294600e-06	2.393469e-08	4.559032e+01	1.567067e+03
2.000000e-06	6.202961e-06	2.381367e-08	4.492661e+01	1.560748e+03
2.010000e-06	6.109118e-06	2.373117e-08	4.424692e+01	1.554168e+03
2.020000e-06	6.013056e-06	2.361598e-08	4.355117e+01	1.547368e+03
2.030000e-06	5.914911e-06	2.351296e-08	4.284032e+01	1.540366e+03
2.040000e-06	5.814723e-06	2.339937e-08	4.211469e+01	1.533142e+03
2.050000e-06	5.712386e-06	2.327611e-08	4.137348e+01	1.525645e+03
2.060000e-06	5.607930e-06	2.317516e-08	4.061693e+01	1.517803e+03
2.070000e-06	5.501585e-06	2.303599e-08	3.984670e+01	1.509540e+03
2.080000e-06	5.393393e-06	2.290830e-08	3.906309e+01	1.500802e+03
2.090000e-06	5.283319e-06	2.275575e-08	3.826585e+01	1.491562e+03
2.100000e-06	5.171237e-06	2.262434e-08	3.745406e+01	1.481832e+03
2.110000e-06	5.057270e-06	2.247179e-08	3.662863e+01	1.471648e+03
2.120000e-06	4.941463e-06	2.232066e-08	3.578987e+01	1.461056e+03
2.130000e-06	4.823611e-06	2.215310e-08	3.493629e+01	1.450085e+03
2.140000e-06	4.703818e-06	2.197172e-08	3.406865e+01	1.438734e+03
2.150000e-06	4.582292e-06	2.178322e-08	3.318848e+01	1.426958e+03
2.160000e-06	4.459159e-06	2.159237e-08	3.229665e+01	1.414674e+03
2.170000e-06	4.334443e-06	2.140556e-08	3.139336e+01	1.401775e+03
2.180000e-06	4.208152e-06	2.120190e-08	3.047867e+01	1.388159e+03
2.190000e-06	4.080215e-06	2.099135e-08	2.955205e+01	1.373746e+03
2.200000e-06	3.950753e-06	2.075924e-08	2.861438e+01	1.358498e+03
2.210000e-06	3.819882e-06	2.051741e-08	2.766652e+01	1.342422e+03
2.220000e-06	3.687648e-06	2.026197e-08	2.670878e+01	1.325553e+03
2.230000e-06	3.554073e-06	2.000272e-08	2.574133e+01	1.307930e+03
2.240000e-06	3.419126e-06	1.972728e-08	2.476393e+01	1.289565e+03
2.250000e-06	3.282848e-06	1.943419e-08	2.377691e+01	1.270420e+03
2.260000e-06	3.145335e-06	1.912410e-08	2.278093e+01	1.250390e+03
2.270000e-06	3.006670e-06	1.879794e-08	2.177661e+01	1.229311e+03
2.280000e-06	2.866845e-06	1.845548e-08	2.076389e+01	1.206982e+03
2.290000e-06	2.725897e-06	1.809724e-08	1.974303e+01	1.183194e+03
2.300000e-06	2.583874e-06	1.771955e-08	1.871440e+01	1.157765e+03
2.310000e-06	2.440850e-06	1.731222e-08	1.767851e+01	1.130561e+03
2.320000e-06	2.296896e-06	1.687633e-08	1.663588e+01	1.101497e+03
2.330000e-06	2.152168e-06	1.640900e-08	1.558765e+01	1.070515e+03
2.340000e-06	2.006775e-06	1.590935e-08	1.453461e+01	1.037546e+03
2.350000e-06	1.860748e-06	1.537264e-08	1.347696e+01	1.002466e+03
2.360000e-06	1.714130e-06	1.479859e-08	1.241505e+01	9.650599e+02
2.370000e-06	1.566930e-06	1.418411e-08	1.134891e+01	9.250123e+02
2.380000e-06	1.419216e-06	1.352126e-08	1.027905e+01	8.819282e+02
2.390000e-06	1.271080e-06	1.280711e-08	9.206135e+00	8.353934e+02
2.400000e-06	1.122575e-06	1.203972e-08	8.130553e+00	7.850578e+02
2.410000e-06	9.737138e-07	1.121548e-08	7.052383e+00	7.307270e+02
2.420000e-06	8.244267e-07	1.033440e-08	5.971131e+00	6.724382e+02
2.430000e-06	6.748193e-07	9.400374e-09	4.887559e+00	6.104974e+02
2.440000e-06	5.250257e-07	8.416054e-09	3.802639e+00	5.454637e+02
2.450000e-06	3.750188e-07	7.386336e-09	2.716174e+00	4.780769e+02
2.460000e-06	2.248772e-07	6.325650e-09	1.628734e+00	4.091396e+02
2.470000e-06	7.462741e-08	5.249075e-09	5.405089e-01	3.393765e+02
2.480000e-06	-7.568766e-08	4.168998e-09	-5.481881e-01	2.693032e+02
2.490000e-06	-2.259248e-07	3.090784e-09	-1.636320e+00	1.991344e+02
2.500000e-06	-3.760504e-07	2.013654e-09	-2.723645e+00	1.287571e+02
2.510000e-06	-5.260844e-07	9.324257e-10	-3.810307e+00	5.777847e+01
2.520000e-06	-6.760083e-07	-1.635070e-10	-4.896171e+00	-1.435684e+01
2.530000e-06	-8.257662e-07	-1.282460e-09	-5.980833e+00	-8.820389e+01
2.540000e-06	-9.752694e-07	-2.434058e-09	-7.063649e+00	-1.641422e+02
2.550000e-06	-1.124454e-06	-3.624400e-09	-8.144161e+00	-2.422264e+02
2.560000e-06	-1.273198e-06	-4.846971e-09	-9.221477e+00	-3.220970e+02
2.570000e-06	-1.421374e-06	-6.089080e-09	-1.029468e+01	-4.029700e+02
2.580000e-06	-1.569025e-06	-7.334310e-09	-1.136408e+01	-4.837115e+02
2.590000e-06	-1.716136e-06	-8.558642e-09	-1.242957e+01	-5.629797e+02
2.600000e-06	-1.862657e-06	-9.734706e-09	-1.349079e+01	-6.394079e+02
2.610000e-06	-2.008483e-06	-1.084108e-08	-1.454697e+01	-7.117888e+02
2.620000e-06	-2.153581e-06	-1.186680e-08	-1.559788e+01	-7.792256e+02
2.630000e-06	-2.297938e-06	-1.280832e-08	-1.664343e+01	-8.412215e+02
2.640000e-06	-2.441301e-06	-1.366816e-08	-1.768177e+01	-8.976954e+02
2.650000e-06	-2.583649e-06	-1.445466e-08	-1.871277e+01	-9.489261e+02
2.660000e-06	-2.724978e-06	-1.517639e-08	-1.973638e+01	-9.954453e+02
2.670000e-06	-2.865165e-06	-1.583896e-08	-2.075172e+01	-1.037905e+03
2.680000e-06	-3.004187e-06	-1.644722e-08	-2.175862e+01	-1.076953e+03
2.690000e-06	-3.142033e-06	-1.700656e-08	-2.275701e+01	-1.113132e+03
2.700000e-06	-3.278699e-06	-1.752245e-08	-2.374685e+01	-1.146838e+03
2.710000e-06	-3.414087e-06	-1.799840e-08	-2.472744e+01	-1.178311e+03
2.720000e-06	-3.548240e-06	-1.844117e-08	-2.569908e+01	-1.207674e+03
2.730000e-06	-3.681159e-06	-1.885441e-08	-2.666178e+01	-1.234993e+03
2.740000e-06	-3.812705e-06	-1.924163e-08	-2.761453e+01	-1.260335e+03
2.750000e-06	-3.942936e-06	-1.960275e-08	-2.855777e+01	-1.283808e+03
2.760000e-06	-4.071917e-06	-1.993590e-08	-2.949195e+01	-1.305581e+03
2.770000e-06	-4.199466e-06	-2.024797e-08	-3.041576e+01	-1.325870e+03
2.780000e-06	-4.325522e-06	-2.054451e-08	-3.132875e+01	-1.344912e+03
2.790000e-06	-4.450118e-06	-2.082597e-08	-3.223117e+01	-1.362920e+03
2.800000e-06	-4.573143e-06	-2.108989e-08	-3.312221e+01	-1.380054e+03
2.810000e-06	-4.694522e-06	-2.133853e-08	-3.400133e+01	-1.396405e+03
2.820000e-06	-4.814112e-06	-2.157554e-08	-3.486749e+01	-1.411991e+03
2.830000e-06	-4.931770e-06	-2.180095e-08	-3.571966e+01	-1.426787e+03
2.840000e-06	-5.047507e-06	-2.201362e-08	-3.655792e+01	-1.440750e+03
2.850000e-06	-5.161244e-06	-2.221339e-08	-3.738169e+01	-1.453858e+03
2.860000e-06	-5.272911e-06	-2.240196e-08	-3.819046e+01	-1.466125e+03
2.870000e-06	-5.382624e-06	-2.257991e-08	-3.898509e+01	-1.477618e+03
2.880000e-06	-5.490479e-06	-2.274664e-08	-3.976626e+01	-1.488437e+03
2.890000e-06	-5.596509e-06	-2.290465e-08	-4.053421e+01	-1.498699e+03
2.900000e-06	-5.700521e-06	-2.305566e-08	-4.128754e+01	-1.508508e+03
2.910000e-06	-5.802299e-06	-2.320055e-08	-4.202470e+01	-1.517933e+03
2.920000e-06	-5.901866e-06	-2.334014e-08	-4.274584e+01	-1.526991e+03
2.930000e-06	-5.999341e-06	-2.347322e-08	-4.345183e+01	-1.535658e+03
2.940000e-06	-6.094748e-06	-2.359824e-08	-4.414284e+01	-1.543879e+03
