# Temperatura_=_56.55
# Concentracion g/m^3_=_26700.0
# C_Vs_to_Am_M_A/Vsm_=_65563218390.804596
# pendiente_HvsI_1/m_=_3716.3
# ordenada_HvsI_A/m_=_1297.0
# frecuencia_Hz_=_301770.57281943585

Tiempo_(s)	Campo_(V.s)	Magnetizacion_(V.s)	Campo_(kA/m)	Magnetizacion_(A/m)
0.000000e+00	-5.238817e-06	-2.030181e-08	-3.830353e+01	-1.326216e+03
1.000000e-08	-5.236896e-06	-2.031008e-08	-3.828949e+01	-1.326317e+03
2.000000e-08	-5.233151e-06	-2.030887e-08	-3.826211e+01	-1.326220e+03
3.000000e-08	-5.227808e-06	-2.030419e-08	-3.822304e+01	-1.325930e+03
4.000000e-08	-5.220884e-06	-2.029470e-08	-3.817242e+01	-1.325440e+03
5.000000e-08	-5.212347e-06	-2.027904e-08	-3.811000e+01	-1.324737e+03
6.000000e-08	-5.201889e-06	-2.026062e-08	-3.803353e+01	-1.323807e+03
7.000000e-08	-5.189502e-06	-2.023354e-08	-3.794297e+01	-1.322643e+03
8.000000e-08	-5.175226e-06	-2.020268e-08	-3.783859e+01	-1.321243e+03
9.000000e-08	-5.158746e-06	-2.023716e-08	-3.771809e+01	-1.319623e+03
1.000000e-07	-5.140099e-06	-2.023308e-08	-3.758176e+01	-1.317810e+03
1.100000e-07	-5.119584e-06	-2.015284e-08	-3.743177e+01	-1.315842e+03
1.200000e-07	-5.097290e-06	-2.011835e-08	-3.726876e+01	-1.313762e+03
1.300000e-07	-5.073503e-06	-2.002811e-08	-3.709485e+01	-1.311610e+03
1.400000e-07	-5.048309e-06	-1.993633e-08	-3.691064e+01	-1.309417e+03
1.500000e-07	-5.021449e-06	-2.007514e-08	-3.671425e+01	-1.307194e+03
1.600000e-07	-4.992970e-06	-1.996743e-08	-3.650603e+01	-1.304935e+03
1.700000e-07	-4.963122e-06	-1.983804e-08	-3.628779e+01	-1.302614e+03
1.800000e-07	-4.931708e-06	-1.996172e-08	-3.605811e+01	-1.300188e+03
1.900000e-07	-4.898144e-06	-1.976527e-08	-3.581271e+01	-1.297611e+03
2.000000e-07	-4.862792e-06	-1.969053e-08	-3.555423e+01	-1.294831e+03
2.100000e-07	-4.826017e-06	-1.980897e-08	-3.528536e+01	-1.291811e+03
2.200000e-07	-4.787481e-06	-1.965131e-08	-3.500360e+01	-1.288522e+03
2.300000e-07	-4.747280e-06	-1.959371e-08	-3.470967e+01	-1.284957e+03
2.400000e-07	-4.705131e-06	-1.957774e-08	-3.440150e+01	-1.281123e+03
2.500000e-07	-4.661020e-06	-1.942977e-08	-3.407898e+01	-1.277039e+03
2.600000e-07	-4.615284e-06	-1.943820e-08	-3.374458e+01	-1.272734e+03
2.700000e-07	-4.567830e-06	-1.934845e-08	-3.339762e+01	-1.268234e+03
2.800000e-07	-4.518407e-06	-1.922044e-08	-3.303627e+01	-1.263567e+03
2.900000e-07	-4.466840e-06	-1.918798e-08	-3.265924e+01	-1.258748e+03
3.000000e-07	-4.413448e-06	-1.912282e-08	-3.226886e+01	-1.253786e+03
3.100000e-07	-4.358486e-06	-1.902594e-08	-3.186700e+01	-1.248684e+03
3.200000e-07	-4.301932e-06	-1.894472e-08	-3.145352e+01	-1.243437e+03
3.300000e-07	-4.243641e-06	-1.888912e-08	-3.102732e+01	-1.238039e+03
3.400000e-07	-4.183771e-06	-1.877415e-08	-3.058958e+01	-1.232483e+03
3.500000e-07	-4.122524e-06	-1.867392e-08	-3.014178e+01	-1.226765e+03
3.600000e-07	-4.059895e-06	-1.860704e-08	-2.968386e+01	-1.220882e+03
3.700000e-07	-3.995990e-06	-1.850441e-08	-2.921662e+01	-1.214834e+03
3.800000e-07	-3.930577e-06	-1.842441e-08	-2.873836e+01	-1.208621e+03
3.900000e-07	-3.863463e-06	-1.831830e-08	-2.824765e+01	-1.202242e+03
4.000000e-07	-3.794950e-06	-1.819184e-08	-2.774672e+01	-1.195695e+03
4.100000e-07	-3.725237e-06	-1.811344e-08	-2.723701e+01	-1.188976e+03
4.200000e-07	-3.654350e-06	-1.800819e-08	-2.671873e+01	-1.182081e+03
4.300000e-07	-3.582325e-06	-1.789497e-08	-2.619212e+01	-1.175004e+03
4.400000e-07	-3.508909e-06	-1.778215e-08	-2.565534e+01	-1.167743e+03
4.500000e-07	-3.433828e-06	-1.767153e-08	-2.510638e+01	-1.160295e+03
4.600000e-07	-3.357345e-06	-1.754802e-08	-2.454718e+01	-1.152660e+03
4.700000e-07	-3.279619e-06	-1.741820e-08	-2.397889e+01	-1.144838e+03
4.800000e-07	-3.200483e-06	-1.730640e-08	-2.340028e+01	-1.136830e+03
4.900000e-07	-3.119992e-06	-1.718181e-08	-2.281177e+01	-1.128635e+03
5.000000e-07	-3.038420e-06	-1.705700e-08	-2.221536e+01	-1.120250e+03
5.100000e-07	-2.955868e-06	-1.691798e-08	-2.161179e+01	-1.111672e+03
5.200000e-07	-2.872415e-06	-1.678063e-08	-2.100162e+01	-1.102893e+03
5.300000e-07	-2.788210e-06	-1.664766e-08	-2.038596e+01	-1.093907e+03
5.400000e-07	-2.703147e-06	-1.650471e-08	-1.976402e+01	-1.084709e+03
5.500000e-07	-2.617130e-06	-1.635955e-08	-1.913511e+01	-1.075294e+03
5.600000e-07	-2.530224e-06	-1.620944e-08	-1.849969e+01	-1.065658e+03
5.700000e-07	-2.442454e-06	-1.605568e-08	-1.785797e+01	-1.055801e+03
5.800000e-07	-2.353727e-06	-1.589388e-08	-1.720924e+01	-1.045720e+03
5.900000e-07	-2.263893e-06	-1.573402e-08	-1.655242e+01	-1.035414e+03
6.000000e-07	-2.173020e-06	-1.557527e-08	-1.588800e+01	-1.024878e+03
6.100000e-07	-2.081366e-06	-1.541680e-08	-1.521788e+01	-1.014105e+03
6.200000e-07	-1.989066e-06	-1.525307e-08	-1.454303e+01	-1.003086e+03
6.300000e-07	-1.896051e-06	-1.507731e-08	-1.386295e+01	-9.918100e+02
6.400000e-07	-1.802318e-06	-1.489560e-08	-1.317762e+01	-9.802666e+02
6.500000e-07	-1.708023e-06	-1.471144e-08	-1.248819e+01	-9.684469e+02
6.600000e-07	-1.613250e-06	-1.452434e-08	-1.179525e+01	-9.563448e+02
6.700000e-07	-1.517954e-06	-1.433389e-08	-1.109850e+01	-9.439578e+02
6.800000e-07	-1.422134e-06	-1.414095e-08	-1.039791e+01	-9.312858e+02
6.900000e-07	-1.325776e-06	-1.394339e-08	-9.693389e+00	-9.183301e+02
7.000000e-07	-1.228836e-06	-1.374204e-08	-8.984614e+00	-9.050910e+02
7.100000e-07	-1.131352e-06	-1.353461e-08	-8.271865e+00	-8.915660e+02
7.200000e-07	-1.033435e-06	-1.332462e-08	-7.555944e+00	-8.777484e+02
7.300000e-07	-9.351151e-07	-1.311322e-08	-6.837080e+00	-8.636265e+02
7.400000e-07	-8.364651e-07	-1.289500e-08	-6.115802e+00	-8.491848e+02
7.500000e-07	-7.375265e-07	-1.266862e-08	-5.392414e+00	-8.344048e+02
7.600000e-07	-6.382716e-07	-1.243536e-08	-4.666713e+00	-8.192672e+02
7.700000e-07	-5.387641e-07	-1.219713e-08	-3.939166e+00	-8.037533e+02
7.800000e-07	-4.390909e-07	-1.195321e-08	-3.210407e+00	-7.878461e+02
7.900000e-07	-3.393542e-07	-1.170542e-08	-2.481184e+00	-7.715302e+02
8.000000e-07	-2.395151e-07	-1.145318e-08	-1.751211e+00	-7.547903e+02
8.100000e-07	-1.395511e-07	-1.119445e-08	-1.020326e+00	-7.376097e+02
8.200000e-07	-3.956021e-08	-1.092642e-08	-2.892439e-01	-7.199680e+02
8.300000e-07	6.045054e-08	-1.064924e-08	4.419832e-01	-7.018395e+02
8.400000e-07	1.604689e-07	-1.036528e-08	1.173266e+00	-6.831924e+02
8.500000e-07	2.604233e-07	-1.007352e-08	1.904081e+00	-6.639892e+02
8.600000e-07	3.603038e-07	-9.771943e-09	2.634356e+00	-6.441880e+02
8.700000e-07	4.601188e-07	-9.459601e-09	3.364152e+00	-6.237444e+02
8.800000e-07	5.598821e-07	-9.137370e-09	4.093570e+00	-6.026135e+02
8.900000e-07	6.595426e-07	-8.804184e-09	4.822236e+00	-5.807506e+02
9.000000e-07	7.589719e-07	-8.459636e-09	5.549212e+00	-5.581122e+02
9.100000e-07	8.581113e-07	-8.101576e-09	6.274068e+00	-5.346538e+02
9.200000e-07	9.569007e-07	-7.730826e-09	6.996366e+00	-5.103287e+02
9.300000e-07	1.055290e-06	-7.346947e-09	7.715735e+00	-4.850852e+02
9.400000e-07	1.153232e-06	-6.946594e-09	8.431842e+00	-4.588647e+02
9.500000e-07	1.250649e-06	-6.531370e-09	9.144102e+00	-4.316001e+02
9.600000e-07	1.347471e-06	-6.101630e-09	9.852018e+00	-4.032164e+02
9.700000e-07	1.443677e-06	-5.653640e-09	1.055542e+01	-3.736321e+02
9.800000e-07	1.539299e-06	-5.181907e-09	1.125457e+01	-3.427614e+02
9.900000e-07	1.634370e-06	-4.689107e-09	1.194967e+01	-3.105183e+02
1.000000e-06	1.728883e-06	-4.175781e-09	1.264071e+01	-2.768191e+02
1.010000e-06	1.822819e-06	-3.637922e-09	1.332751e+01	-2.415859e+02
1.020000e-06	1.916135e-06	-3.075405e-09	1.400979e+01	-2.047490e+02
1.030000e-06	2.008784e-06	-2.489616e-09	1.468720e+01	-1.662495e+02
1.040000e-06	2.100780e-06	-1.879140e-09	1.535982e+01	-1.260416e+02
1.050000e-06	2.192100e-06	-1.239522e-09	1.602751e+01	-8.409717e+01
1.060000e-06	2.282656e-06	-5.711593e-10	1.668961e+01	-4.041003e+01
1.070000e-06	2.372245e-06	1.227099e-10	1.734464e+01	4.996694e+00
1.080000e-06	2.460756e-06	8.407249e-10	1.799178e+01	5.206316e+01
1.090000e-06	2.548312e-06	1.582799e-09	1.863194e+01	1.006851e+02
1.100000e-06	2.635028e-06	2.346665e-09	1.926597e+01	1.507074e+02
1.110000e-06	2.720904e-06	3.128014e-09	1.989385e+01	2.019213e+02
1.120000e-06	2.805913e-06	3.923250e-09	2.051539e+01	2.540648e+02
1.130000e-06	2.890109e-06	4.727258e-09	2.113099e+01	3.068292e+02
1.140000e-06	2.973482e-06	5.536584e-09	2.174057e+01	3.598694e+02
1.150000e-06	3.055838e-06	6.343753e-09	2.234272e+01	4.128192e+02
1.160000e-06	3.136959e-06	7.143505e-09	2.293583e+01	4.653078e+02
1.170000e-06	3.216910e-06	7.930121e-09	2.352039e+01	5.169776e+02
1.180000e-06	3.295782e-06	8.699435e-09	2.409707e+01	5.674991e+02
1.190000e-06	3.373452e-06	9.445465e-09	2.466495e+01	6.165830e+02
1.200000e-06	3.449926e-06	1.016390e-08	2.522408e+01	6.639874e+02
1.210000e-06	3.525182e-06	1.085317e-08	2.577432e+01	7.095208e+02
1.220000e-06	3.598967e-06	1.151180e-08	2.631380e+01	7.530403e+02
1.230000e-06	3.671144e-06	1.213833e-08	2.684151e+01	7.944480e+02
1.240000e-06	3.741953e-06	1.273131e-08	2.735924e+01	8.336854e+02
1.250000e-06	3.811544e-06	1.329402e-08	2.786805e+01	8.707275e+02
1.260000e-06	3.879913e-06	1.382282e-08	2.836793e+01	9.055782e+02
1.270000e-06	3.947018e-06	1.431448e-08	2.885856e+01	9.382668e+02
1.280000e-06	4.012524e-06	1.477139e-08	2.933751e+01	9.688446e+02
1.290000e-06	4.076353e-06	1.519936e-08	2.980419e+01	9.973829e+02
1.300000e-06	4.138736e-06	1.560119e-08	3.026031e+01	1.023970e+03
1.310000e-06	4.199756e-06	1.597569e-08	3.070646e+01	1.048709e+03
1.320000e-06	4.259504e-06	1.632354e-08	3.114330e+01	1.071712e+03
1.330000e-06	4.317819e-06	1.664984e-08	3.156967e+01	1.093093e+03
1.340000e-06	4.374370e-06	1.695290e-08	3.198314e+01	1.112970e+03
1.350000e-06	4.429254e-06	1.723062e-08	3.238443e+01	1.131452e+03
1.360000e-06	4.482560e-06	1.748584e-08	3.277417e+01	1.148640e+03
1.370000e-06	4.534023e-06	1.772329e-08	3.315045e+01	1.164624e+03
1.380000e-06	4.583409e-06	1.794498e-08	3.351153e+01	1.179483e+03
1.390000e-06	4.630956e-06	1.815027e-08	3.385917e+01	1.193287e+03
1.400000e-06	4.676975e-06	1.834112e-08	3.419563e+01	1.206099e+03
1.410000e-06	4.721546e-06	1.852102e-08	3.452152e+01	1.217978e+03
1.420000e-06	4.764575e-06	1.869034e-08	3.483612e+01	1.228978e+03
1.430000e-06	4.805695e-06	1.884620e-08	3.513677e+01	1.239154e+03
1.440000e-06	4.845037e-06	1.898762e-08	3.542442e+01	1.248557e+03
1.450000e-06	4.882806e-06	1.911790e-08	3.570057e+01	1.257238e+03
1.460000e-06	4.919023e-06	1.923918e-08	3.596536e+01	1.265244e+03
1.470000e-06	4.953536e-06	1.935068e-08	3.621771e+01	1.272620e+03
1.480000e-06	4.986069e-06	1.945250e-08	3.645557e+01	1.279406e+03
1.490000e-06	5.016844e-06	1.954673e-08	3.668058e+01	1.285641e+03
1.500000e-06	5.046031e-06	1.963379e-08	3.689398e+01	1.291358e+03
1.510000e-06	5.073593e-06	1.971390e-08	3.709550e+01	1.296593e+03
1.520000e-06	5.099169e-06	1.978747e-08	3.728250e+01	1.301376e+03
1.530000e-06	5.122664e-06	1.985392e-08	3.745428e+01	1.305736e+03
1.540000e-06	5.144407e-06	1.991399e-08	3.761326e+01	1.309702e+03
1.550000e-06	5.164542e-06	1.996847e-08	3.776047e+01	1.313294e+03
1.560000e-06	5.182936e-06	2.001773e-08	3.789496e+01	1.316531e+03
1.570000e-06	5.199354e-06	2.006078e-08	3.801500e+01	1.319425e+03
1.580000e-06	5.213846e-06	2.009826e-08	3.812096e+01	1.321982e+03
1.590000e-06	5.226433e-06	2.013087e-08	3.821299e+01	1.324208e+03
1.600000e-06	5.236861e-06	2.015964e-08	3.828924e+01	1.326106e+03
1.610000e-06	5.245133e-06	2.018368e-08	3.834971e+01	1.327683e+03
1.620000e-06	5.251573e-06	2.020238e-08	3.839680e+01	1.328951e+03
1.630000e-06	5.256347e-06	2.021627e-08	3.843171e+01	1.329928e+03
1.640000e-06	5.259300e-06	2.022618e-08	3.845329e+01	1.330636e+03
1.650000e-06	5.260217e-06	2.023548e-08	3.846000e+01	1.331099e+03
1.660000e-06	5.259295e-06	2.023956e-08	3.845326e+01	1.331340e+03
1.670000e-06	5.256760e-06	2.023949e-08	3.843473e+01	1.331377e+03
1.680000e-06	5.252672e-06	2.024029e-08	3.840484e+01	1.331220e+03
1.690000e-06	5.246744e-06	2.023440e-08	3.836149e+01	1.330867e+03
1.700000e-06	5.238924e-06	2.022511e-08	3.830432e+01	1.330311e+03
1.710000e-06	5.229578e-06	2.021593e-08	3.823598e+01	1.329538e+03
1.720000e-06	5.218709e-06	2.020845e-08	3.815652e+01	1.328534e+03
1.730000e-06	5.206070e-06	2.021378e-08	3.806411e+01	1.327294e+03
1.740000e-06	5.191437e-06	2.012379e-08	3.795712e+01	1.325822e+03
1.750000e-06	5.174637e-06	2.005925e-08	3.783428e+01	1.324138e+03
1.760000e-06	5.155461e-06	2.008484e-08	3.769408e+01	1.322271e+03
1.770000e-06	5.133760e-06	2.005617e-08	3.753541e+01	1.320263e+03
1.780000e-06	5.110073e-06	2.013813e-08	3.736222e+01	1.318157e+03
1.790000e-06	5.085449e-06	2.008900e-08	3.718219e+01	1.315990e+03
1.800000e-06	5.060023e-06	1.987072e-08	3.699629e+01	1.313788e+03
1.810000e-06	5.032902e-06	2.001743e-08	3.679799e+01	1.311556e+03
1.820000e-06	5.003856e-06	1.995276e-08	3.658562e+01	1.309282e+03
1.830000e-06	4.973155e-06	1.978177e-08	3.636115e+01	1.306933e+03
1.840000e-06	4.940511e-06	2.000860e-08	3.612248e+01	1.304465e+03
1.850000e-06	4.906105e-06	1.984981e-08	3.587092e+01	1.301828e+03
1.860000e-06	4.870223e-06	1.968109e-08	3.560856e+01	1.298976e+03
1.870000e-06	4.832332e-06	1.982131e-08	3.533152e+01	1.295872e+03
1.880000e-06	4.792612e-06	1.964099e-08	3.504111e+01	1.292496e+03
1.890000e-06	4.751283e-06	1.965811e-08	3.473893e+01	1.288844e+03
1.900000e-06	4.708131e-06	1.964076e-08	3.442343e+01	1.284928e+03
1.910000e-06	4.663433e-06	1.940520e-08	3.409662e+01	1.280771e+03
1.920000e-06	4.616960e-06	1.955310e-08	3.375683e+01	1.276401e+03
1.930000e-06	4.568794e-06	1.943353e-08	3.340467e+01	1.271846e+03
1.940000e-06	4.519073e-06	1.925047e-08	3.304114e+01	1.267129e+03
1.950000e-06	4.467414e-06	1.926915e-08	3.266343e+01	1.262265e+03
1.960000e-06	4.413860e-06	1.916392e-08	3.227187e+01	1.257259e+03
1.970000e-06	4.358457e-06	1.912255e-08	3.186679e+01	1.252112e+03
1.980000e-06	4.301389e-06	1.898100e-08	3.144955e+01	1.246818e+03
1.990000e-06	4.242890e-06	1.893617e-08	3.102183e+01	1.241371e+03
2.000000e-06	4.183062e-06	1.891536e-08	3.058440e+01	1.235764e+03
2.010000e-06	4.121796e-06	1.873191e-08	3.013645e+01	1.229994e+03
2.020000e-06	4.058728e-06	1.868008e-08	2.967533e+01	1.224059e+03
2.030000e-06	3.994072e-06	1.855704e-08	2.920260e+01	1.217959e+03
2.040000e-06	3.928095e-06	1.849954e-08	2.872021e+01	1.211694e+03
2.050000e-06	3.860808e-06	1.841412e-08	2.822824e+01	1.205262e+03
2.060000e-06	3.792259e-06	1.823914e-08	2.772704e+01	1.198661e+03
2.070000e-06	3.722143e-06	1.820668e-08	2.721439e+01	1.191887e+03
2.080000e-06	3.650516e-06	1.808678e-08	2.669069e+01	1.184934e+03
2.090000e-06	3.577693e-06	1.797833e-08	2.615825e+01	1.177800e+03
2.100000e-06	3.503695e-06	1.786112e-08	2.561721e+01	1.170480e+03
2.110000e-06	3.428509e-06	1.775011e-08	2.506750e+01	1.162973e+03
2.120000e-06	3.351923e-06	1.766362e-08	2.450754e+01	1.155279e+03
2.130000e-06	3.273860e-06	1.750335e-08	2.393678e+01	1.147398e+03
2.140000e-06	3.194396e-06	1.738547e-08	2.335578e+01	1.139330e+03
2.150000e-06	3.113756e-06	1.725654e-08	2.276618e+01	1.131076e+03
2.160000e-06	3.032078e-06	1.714421e-08	2.216899e+01	1.122630e+03
2.170000e-06	2.949369e-06	1.701298e-08	2.156427e+01	1.113989e+03
2.180000e-06	2.865770e-06	1.687200e-08	2.095303e+01	1.105145e+03
2.190000e-06	2.781234e-06	1.675448e-08	2.033495e+01	1.096093e+03
2.200000e-06	2.695534e-06	1.660362e-08	1.970836e+01	1.086826e+03
2.210000e-06	2.608551e-06	1.645719e-08	1.907238e+01	1.077341e+03
2.220000e-06	2.520548e-06	1.630608e-08	1.842895e+01	1.067635e+03
2.230000e-06	2.431751e-06	1.616740e-08	1.777971e+01	1.057707e+03
2.240000e-06	2.342157e-06	1.601413e-08	1.712465e+01	1.047555e+03
2.250000e-06	2.251807e-06	1.585073e-08	1.646405e+01	1.037177e+03
2.260000e-06	2.160727e-06	1.568532e-08	1.579813e+01	1.026566e+03
2.270000e-06	2.068943e-06	1.551904e-08	1.512705e+01	1.015716e+03
2.280000e-06	1.976488e-06	1.536165e-08	1.445106e+01	1.004617e+03
2.290000e-06	1.883296e-06	1.519064e-08	1.376969e+01	9.932570e+02
2.300000e-06	1.789277e-06	1.501367e-08	1.308227e+01	9.816265e+02
2.310000e-06	1.694495e-06	1.483177e-08	1.238928e+01	9.697174e+02
2.320000e-06	1.599080e-06	1.464857e-08	1.169165e+01	9.575248e+02
2.330000e-06	1.503135e-06	1.445750e-08	1.099015e+01	9.450470e+02
2.340000e-06	1.406726e-06	1.426232e-08	1.028526e+01	9.322846e+02
2.350000e-06	1.309930e-06	1.406579e-08	9.577535e+00	9.192388e+02
2.360000e-06	1.212788e-06	1.386362e-08	8.867278e+00	9.059092e+02
2.370000e-06	1.115218e-06	1.365329e-08	8.153900e+00	8.922920e+02
2.380000e-06	1.017283e-06	1.343761e-08	7.437853e+00	8.783790e+02
2.390000e-06	9.190921e-07	1.322244e-08	6.719928e+00	8.641572e+02
2.400000e-06	8.206311e-07	1.300223e-08	6.000032e+00	8.496097e+02
2.410000e-06	7.219034e-07	1.277510e-08	5.278186e+00	8.347178e+02
2.420000e-06	6.229416e-07	1.254313e-08	4.554629e+00	8.194621e+02
2.430000e-06	5.238087e-07	1.230708e-08	3.829820e+00	8.038245e+02
2.440000e-06	4.245560e-07	1.206278e-08	3.104135e+00	7.877885e+02
2.450000e-06	3.252074e-07	1.180935e-08	2.377749e+00	7.713389e+02
2.460000e-06	2.257435e-07	1.154719e-08	1.650520e+00	7.544603e+02
2.470000e-06	1.261617e-07	1.128095e-08	9.224294e-01	7.371348e+02
2.480000e-06	2.653788e-08	1.101204e-08	1.940313e-01	7.193407e+02
2.490000e-06	-7.308550e-08	1.073390e-08	-5.343636e-01	7.010502e+02
2.500000e-06	-1.727024e-07	1.044562e-08	-1.262711e+00	6.822296e+02
2.510000e-06	-2.722823e-07	1.014955e-08	-1.990788e+00	6.628398e+02
2.520000e-06	-3.718078e-07	9.844886e-09	-2.718468e+00	6.428379e+02
2.530000e-06	-4.712144e-07	9.529126e-09	-3.445278e+00	6.221792e+02
2.540000e-06	-5.704759e-07	9.203258e-09	-4.171026e+00	6.008187e+02
2.550000e-06	-6.695844e-07	8.865731e-09	-4.895657e+00	5.787123e+02
2.560000e-06	-7.684712e-07	8.513862e-09	-5.618666e+00	5.558161e+02
2.570000e-06	-8.671137e-07	8.147417e-09	-6.339890e+00	5.320853e+02
2.580000e-06	-9.655393e-07	7.770104e-09	-7.059527e+00	5.074719e+02
2.590000e-06	-1.063660e-06	7.383391e-09	-7.776936e+00	4.819221e+02
2.600000e-06	-1.161336e-06	6.981991e-09	-8.491090e+00	4.553746e+02
2.610000e-06	-1.258567e-06	6.560708e-09	-9.201996e+00	4.277598e+02
2.620000e-06	-1.355361e-06	6.118293e-09	-9.909702e+00	3.990003e+02
2.630000e-06	-1.451740e-06	5.657963e-09	-1.061437e+01	3.690128e+02
2.640000e-06	-1.547698e-06	5.180723e-09	-1.131597e+01	3.377113e+02
2.650000e-06	-1.643113e-06	4.681606e-09	-1.201360e+01	3.050099e+02
2.660000e-06	-1.737886e-06	4.158115e-09	-1.270653e+01	2.708267e+02
2.670000e-06	-1.831883e-06	3.611590e-09	-1.339379e+01	2.350861e+02
2.680000e-06	-1.925022e-06	3.040778e-09	-1.407477e+01	1.977216e+02
2.690000e-06	-2.017339e-06	2.445399e-09	-1.474975e+01	1.586781e+02
2.700000e-06	-2.108880e-06	1.825735e-09	-1.541904e+01	1.179151e+02
2.710000e-06	-2.199695e-06	1.179659e-09	-1.608303e+01	7.541084e+01
2.720000e-06	-2.289692e-06	5.057927e-10	-1.674105e+01	3.116777e+01
2.730000e-06	-2.378899e-06	-1.955375e-10	-1.739328e+01	-1.478003e+01
2.740000e-06	-2.467453e-06	-9.215887e-10	-1.804074e+01	-6.235924e+01
2.750000e-06	-2.555251e-06	-1.670671e-09	-1.868268e+01	-1.114498e+02
2.760000e-06	-2.642151e-06	-2.440869e-09	-1.931805e+01	-1.618796e+02
2.770000e-06	-2.727921e-06	-3.227932e-09	-1.994515e+01	-2.134224e+02
2.780000e-06	-2.812511e-06	-4.026281e-09	-2.056363e+01	-2.658002e+02
2.790000e-06	-2.896187e-06	-4.829980e-09	-2.117543e+01	-3.186913e+02
2.800000e-06	-2.979006e-06	-5.636497e-09	-2.178096e+01	-3.717421e+02
2.810000e-06	-3.060819e-06	-6.443031e-09	-2.237914e+01	-4.245828e+02
2.820000e-06	-3.141606e-06	-7.242661e-09	-2.296981e+01	-4.768453e+02
2.830000e-06	-3.221357e-06	-8.028652e-09	-2.355290e+01	-5.281793e+02
2.840000e-06	-3.299874e-06	-8.796054e-09	-2.412698e+01	-5.782671e+02
2.850000e-06	-3.376942e-06	-9.539913e-09	-2.469047e+01	-6.268343e+02
2.860000e-06	-3.452615e-06	-1.025712e-08	-2.524375e+01	-6.736548e+02
2.870000e-06	-3.527005e-06	-1.094492e-08	-2.578765e+01	-7.185532e+02
2.880000e-06	-3.600164e-06	-1.160192e-08	-2.632255e+01	-7.614017e+02
2.890000e-06	-3.672150e-06	-1.222775e-08	-2.684887e+01	-8.021156e+02
2.900000e-06	-3.742764e-06	-1.282036e-08	-2.736517e+01	-8.406476e+02
2.910000e-06	-3.811794e-06	-1.338043e-08	-2.786988e+01	-8.769828e+02
2.920000e-06	-3.879434e-06	-1.390799e-08	-2.836443e+01	-9.111333e+02
2.930000e-06	-3.945824e-06	-1.440057e-08	-2.884984e+01	-9.431359e+02
2.940000e-06	-4.010840e-06	-1.486108e-08	-2.932520e+01	-9.730485e+02
