# Temperatura_=_43.75
# Concentracion g/m^3_=_26700.0
# C_Vs_to_Am_M_A/Vsm_=_65563218390.804596
# pendiente_HvsI_1/m_=_3716.3
# ordenada_HvsI_A/m_=_1297.0
# frecuencia_Hz_=_301769.864673398

Tiempo_(s)	Campo_(V.s)	Magnetizacion_(V.s)	Campo_(kA/m)	Magnetizacion_(A/m)
0.000000e+00	-5.232524e-06	-1.942566e-08	-3.830700e+01	-1.269424e+03
1.000000e-08	-5.230594e-06	-1.943378e-08	-3.829287e+01	-1.269527e+03
2.000000e-08	-5.226779e-06	-1.943106e-08	-3.826494e+01	-1.269436e+03
3.000000e-08	-5.221394e-06	-1.942543e-08	-3.822552e+01	-1.269153e+03
4.000000e-08	-5.214484e-06	-1.941714e-08	-3.817492e+01	-1.268669e+03
5.000000e-08	-5.205996e-06	-1.940222e-08	-3.811279e+01	-1.267971e+03
6.000000e-08	-5.195541e-06	-1.938210e-08	-3.803624e+01	-1.267040e+03
7.000000e-08	-5.183147e-06	-1.935573e-08	-3.794551e+01	-1.265863e+03
8.000000e-08	-5.168939e-06	-1.932446e-08	-3.784149e+01	-1.264439e+03
9.000000e-08	-5.152508e-06	-1.934964e-08	-3.772121e+01	-1.262775e+03
1.000000e-07	-5.133904e-06	-1.935437e-08	-3.758500e+01	-1.260898e+03
1.100000e-07	-5.113457e-06	-1.928120e-08	-3.743531e+01	-1.258843e+03
1.200000e-07	-5.091211e-06	-1.923775e-08	-3.727245e+01	-1.256655e+03
1.300000e-07	-5.067428e-06	-1.916058e-08	-3.709834e+01	-1.254378e+03
1.400000e-07	-5.042266e-06	-1.906095e-08	-3.691413e+01	-1.252049e+03
1.500000e-07	-5.015501e-06	-1.917134e-08	-3.671818e+01	-1.249690e+03
1.600000e-07	-4.987102e-06	-1.909674e-08	-3.651027e+01	-1.247305e+03
1.700000e-07	-4.957310e-06	-1.894149e-08	-3.629217e+01	-1.244878e+03
1.800000e-07	-4.925967e-06	-1.904378e-08	-3.606271e+01	-1.242376e+03
1.900000e-07	-4.892515e-06	-1.890645e-08	-3.581781e+01	-1.239754e+03
2.000000e-07	-4.857244e-06	-1.882636e-08	-3.555960e+01	-1.236962e+03
2.100000e-07	-4.820505e-06	-1.895683e-08	-3.529063e+01	-1.233954e+03
2.200000e-07	-4.782055e-06	-1.881561e-08	-3.500914e+01	-1.230696e+03
2.300000e-07	-4.741955e-06	-1.870197e-08	-3.471557e+01	-1.227164e+03
2.400000e-07	-4.699914e-06	-1.866498e-08	-3.440779e+01	-1.223353e+03
2.500000e-07	-4.655915e-06	-1.853574e-08	-3.408567e+01	-1.219270e+03
2.600000e-07	-4.610241e-06	-1.856041e-08	-3.375130e+01	-1.214936e+03
2.700000e-07	-4.562795e-06	-1.849496e-08	-3.340395e+01	-1.210375e+03
2.800000e-07	-4.513377e-06	-1.834192e-08	-3.304216e+01	-1.205615e+03
2.900000e-07	-4.461893e-06	-1.827808e-08	-3.266525e+01	-1.200680e+03
3.000000e-07	-4.408656e-06	-1.822127e-08	-3.227551e+01	-1.195588e+03
3.100000e-07	-4.353839e-06	-1.814932e-08	-3.187420e+01	-1.190352e+03
3.200000e-07	-4.297430e-06	-1.806655e-08	-3.146123e+01	-1.184979e+03
3.300000e-07	-4.239286e-06	-1.799616e-08	-3.103556e+01	-1.179471e+03
3.400000e-07	-4.179505e-06	-1.789015e-08	-3.059791e+01	-1.173825e+03
3.500000e-07	-4.118301e-06	-1.777213e-08	-3.014983e+01	-1.168037e+03
3.600000e-07	-4.055753e-06	-1.769526e-08	-2.969192e+01	-1.162102e+03
3.700000e-07	-3.991964e-06	-1.761362e-08	-2.922493e+01	-1.156013e+03
3.800000e-07	-3.926653e-06	-1.754197e-08	-2.874679e+01	-1.149766e+03
3.900000e-07	-3.859648e-06	-1.743347e-08	-2.825625e+01	-1.143353e+03
4.000000e-07	-3.791250e-06	-1.730003e-08	-2.775551e+01	-1.136771e+03
4.100000e-07	-3.721618e-06	-1.722143e-08	-2.724574e+01	-1.130013e+03
4.200000e-07	-3.650775e-06	-1.711669e-08	-2.672710e+01	-1.123079e+03
4.300000e-07	-3.578802e-06	-1.699980e-08	-2.620020e+01	-1.115965e+03
4.400000e-07	-3.505389e-06	-1.688647e-08	-2.566274e+01	-1.108674e+03
4.500000e-07	-3.430333e-06	-1.677104e-08	-2.511326e+01	-1.101207e+03
4.600000e-07	-3.353949e-06	-1.664900e-08	-2.455406e+01	-1.093565e+03
4.700000e-07	-3.276342e-06	-1.652768e-08	-2.398590e+01	-1.085751e+03
4.800000e-07	-3.197395e-06	-1.641846e-08	-2.340794e+01	-1.077763e+03
4.900000e-07	-3.117088e-06	-1.628913e-08	-2.282001e+01	-1.069598e+03
5.000000e-07	-3.035611e-06	-1.616052e-08	-2.222353e+01	-1.061249e+03
5.100000e-07	-2.953108e-06	-1.602962e-08	-2.161953e+01	-1.052708e+03
5.200000e-07	-2.869733e-06	-1.589483e-08	-2.100914e+01	-1.043967e+03
5.300000e-07	-2.785641e-06	-1.575713e-08	-2.039351e+01	-1.035018e+03
5.400000e-07	-2.700672e-06	-1.561383e-08	-1.977146e+01	-1.025856e+03
5.500000e-07	-2.614733e-06	-1.546722e-08	-1.914230e+01	-1.016479e+03
5.600000e-07	-2.527890e-06	-1.531528e-08	-1.850653e+01	-1.006888e+03
5.700000e-07	-2.440236e-06	-1.516458e-08	-1.786482e+01	-9.970846e+02
5.800000e-07	-2.351703e-06	-1.501343e-08	-1.721667e+01	-9.870713e+02
5.900000e-07	-2.262034e-06	-1.485995e-08	-1.656022e+01	-9.768474e+02
6.000000e-07	-2.171298e-06	-1.469880e-08	-1.589594e+01	-9.664080e+02
6.100000e-07	-2.079791e-06	-1.453443e-08	-1.522603e+01	-9.557441e+02
6.200000e-07	-1.987638e-06	-1.436878e-08	-1.455138e+01	-9.448425e+02
6.300000e-07	-1.894794e-06	-1.419689e-08	-1.387167e+01	-9.336882e+02
6.400000e-07	-1.801260e-06	-1.402082e-08	-1.318691e+01	-9.222671e+02
6.500000e-07	-1.707094e-06	-1.384144e-08	-1.249753e+01	-9.105682e+02
6.600000e-07	-1.612378e-06	-1.365555e-08	-1.180412e+01	-8.985860e+02
6.700000e-07	-1.517194e-06	-1.346459e-08	-1.110729e+01	-8.863207e+02
6.800000e-07	-1.421544e-06	-1.327114e-08	-1.040704e+01	-8.737773e+02
6.900000e-07	-1.325371e-06	-1.307560e-08	-9.702959e+00	-8.609630e+02
7.000000e-07	-1.228641e-06	-1.287891e-08	-8.994804e+00	-8.478842e+02
7.100000e-07	-1.131372e-06	-1.267708e-08	-8.282705e+00	-8.345429e+02
7.200000e-07	-1.033572e-06	-1.246995e-08	-7.566718e+00	-8.209345e+02
7.300000e-07	-9.353005e-07	-1.225844e-08	-6.847279e+00	-8.070469e+02
7.400000e-07	-8.366429e-07	-1.204196e-08	-6.125012e+00	-7.928615e+02
7.500000e-07	-7.376674e-07	-1.182197e-08	-5.400419e+00	-7.783555e+02
7.600000e-07	-6.384536e-07	-1.159737e-08	-4.674080e+00	-7.635053e+02
7.700000e-07	-5.390501e-07	-1.136752e-08	-3.946354e+00	-7.482900e+02
7.800000e-07	-4.394716e-07	-1.113082e-08	-3.217345e+00	-7.326931e+02
7.900000e-07	-3.397873e-07	-1.088675e-08	-2.487562e+00	-7.167039e+02
8.000000e-07	-2.400449e-07	-1.063632e-08	-1.757355e+00	-7.003152e+02
8.100000e-07	-1.402620e-07	-1.038151e-08	-1.026850e+00	-6.835209e+02
8.200000e-07	-4.043946e-08	-1.012087e-08	-2.960548e-01	-6.663117e+02
8.300000e-07	5.943263e-08	-9.852222e-09	4.351027e-01	-6.486715e+02
8.400000e-07	1.593235e-07	-9.576346e-09	1.166398e+00	-6.305746e+02
8.500000e-07	2.591965e-07	-9.293417e-09	1.897562e+00	-6.119850e+02
8.600000e-07	3.590283e-07	-9.004263e-09	2.628425e+00	-5.928579e+02
8.700000e-07	4.587935e-07	-8.706461e-09	3.358800e+00	-5.731424e+02
8.800000e-07	5.584413e-07	-8.397835e-09	4.088316e+00	-5.527866e+02
8.900000e-07	6.579240e-07	-8.077277e-09	4.816622e+00	-5.317407e+02
9.000000e-07	7.572088e-07	-7.744080e-09	5.543480e+00	-5.099607e+02
9.100000e-07	8.562443e-07	-7.398337e-09	6.268513e+00	-4.874089e+02
9.200000e-07	9.549603e-07	-7.041720e-09	6.991207e+00	-4.640529e+02
9.300000e-07	1.053233e-06	-6.673568e-09	7.710654e+00	-4.398623e+02
9.400000e-07	1.150977e-06	-6.291310e-09	8.426234e+00	-4.148039e+02
9.500000e-07	1.248219e-06	-5.894737e-09	9.138137e+00	-3.888383e+02
9.600000e-07	1.344930e-06	-5.485714e-09	9.846155e+00	-3.619153e+02
9.700000e-07	1.441031e-06	-5.062995e-09	1.054970e+01	-3.339736e+02
9.800000e-07	1.536487e-06	-4.620918e-09	1.124853e+01	-3.049414e+02
9.900000e-07	1.631398e-06	-4.159984e-09	1.194336e+01	-2.747394e+02
1.000000e-06	1.725815e-06	-3.680368e-09	1.263459e+01	-2.432862e+02
1.010000e-06	1.819651e-06	-3.180398e-09	1.332156e+01	-2.105038e+02
1.020000e-06	1.912823e-06	-2.657826e-09	1.400366e+01	-1.763237e+02
1.030000e-06	2.005352e-06	-2.112383e-09	1.468106e+01	-1.406916e+02
1.040000e-06	2.097276e-06	-1.546847e-09	1.535403e+01	-1.035715e+02
1.050000e-06	2.188527e-06	-9.594420e-10	1.602208e+01	-6.494864e+01
1.060000e-06	2.278927e-06	-3.485900e-10	1.668388e+01	-2.483210e+01
1.070000e-06	2.368304e-06	2.859715e-10	1.733821e+01	1.674352e+01
1.080000e-06	2.456674e-06	9.412340e-10	1.798517e+01	5.971558e+01
1.090000e-06	2.544167e-06	1.616758e-09	1.862569e+01	1.039909e+02
1.100000e-06	2.630892e-06	2.310407e-09	1.926060e+01	1.494434e+02
1.110000e-06	2.716765e-06	3.018336e-09	1.988928e+01	1.959119e+02
1.120000e-06	2.801681e-06	3.739403e-09	2.051094e+01	2.432000e+02
1.130000e-06	2.885734e-06	4.470545e-09	2.112629e+01	2.910776e+02
1.140000e-06	2.968994e-06	5.208322e-09	2.173583e+01	3.392856e+02
1.150000e-06	3.051272e-06	5.945803e-09	2.233818e+01	3.875430e+02
1.160000e-06	3.132301e-06	6.676810e-09	2.293139e+01	4.355568e+02
1.170000e-06	3.212099e-06	7.396782e-09	2.351558e+01	4.830332e+02
1.180000e-06	3.290760e-06	8.105466e-09	2.409146e+01	5.296890e+02
1.190000e-06	3.368252e-06	8.797190e-09	2.465877e+01	5.752621e+02
1.200000e-06	3.444603e-06	9.467106e-09	2.521774e+01	6.195203e+02
1.210000e-06	3.519742e-06	1.011425e-08	2.576782e+01	6.622666e+02
1.220000e-06	3.593348e-06	1.073737e-08	2.630669e+01	7.033426e+02
1.230000e-06	3.665369e-06	1.133414e-08	2.683394e+01	7.426282e+02
1.240000e-06	3.736110e-06	1.190356e-08	2.735184e+01	7.800403e+02
1.250000e-06	3.805659e-06	1.244297e-08	2.786100e+01	8.155293e+02
1.260000e-06	3.873973e-06	1.294801e-08	2.836112e+01	8.490758e+02
1.270000e-06	3.941002e-06	1.342087e-08	2.885184e+01	8.806870e+02
1.280000e-06	4.006413e-06	1.386463e-08	2.933071e+01	9.103932e+02
1.290000e-06	4.070127e-06	1.428296e-08	2.979715e+01	9.382450e+02
1.300000e-06	4.132434e-06	1.467822e-08	3.025330e+01	9.643098e+02
1.310000e-06	4.193459e-06	1.504938e-08	3.070006e+01	9.886685e+02
1.320000e-06	4.253252e-06	1.539597e-08	3.113780e+01	1.011412e+03
1.330000e-06	4.311501e-06	1.572068e-08	3.156424e+01	1.032635e+03
1.340000e-06	4.367904e-06	1.602133e-08	3.197717e+01	1.052437e+03
1.350000e-06	4.422687e-06	1.629720e-08	3.237823e+01	1.070910e+03
1.360000e-06	4.475929e-06	1.655220e-08	3.276801e+01	1.088144e+03
1.370000e-06	4.527388e-06	1.679061e-08	3.314473e+01	1.104219e+03
1.380000e-06	4.576803e-06	1.701408e-08	3.350650e+01	1.119207e+03
1.390000e-06	4.624353e-06	1.722272e-08	3.385461e+01	1.133170e+03
1.400000e-06	4.670319e-06	1.741781e-08	3.419112e+01	1.146166e+03
1.410000e-06	4.714805e-06	1.760096e-08	3.451681e+01	1.158243e+03
1.420000e-06	4.757795e-06	1.777367e-08	3.483153e+01	1.169450e+03
1.430000e-06	4.798921e-06	1.793363e-08	3.513261e+01	1.179834e+03
1.440000e-06	4.838178e-06	1.807949e-08	3.542001e+01	1.189438e+03
1.450000e-06	4.875851e-06	1.821276e-08	3.569582e+01	1.198309e+03
1.460000e-06	4.912031e-06	1.833502e-08	3.596068e+01	1.206491e+03
1.470000e-06	4.946500e-06	1.844685e-08	3.621303e+01	1.214029e+03
1.480000e-06	4.979024e-06	1.854996e-08	3.645114e+01	1.220966e+03
1.490000e-06	5.009784e-06	1.864621e-08	3.667633e+01	1.227344e+03
1.500000e-06	5.038919e-06	1.873437e-08	3.688962e+01	1.233203e+03
1.510000e-06	5.066478e-06	1.881546e-08	3.709138e+01	1.238579e+03
1.520000e-06	5.092115e-06	1.889196e-08	3.727907e+01	1.243505e+03
1.530000e-06	5.115639e-06	1.896279e-08	3.745129e+01	1.248010e+03
1.540000e-06	5.137381e-06	1.902619e-08	3.761046e+01	1.252117e+03
1.550000e-06	5.157536e-06	1.908332e-08	3.775801e+01	1.255844e+03
1.560000e-06	5.175948e-06	1.913471e-08	3.789280e+01	1.259202e+03
1.570000e-06	5.192336e-06	1.917896e-08	3.801278e+01	1.262199e+03
1.580000e-06	5.206795e-06	1.921783e-08	3.811864e+01	1.264838e+03
1.590000e-06	5.219436e-06	1.925218e-08	3.821118e+01	1.267124e+03
1.600000e-06	5.229984e-06	1.928106e-08	3.828840e+01	1.269062e+03
1.610000e-06	5.238365e-06	1.930480e-08	3.834976e+01	1.270662e+03
1.620000e-06	5.244854e-06	1.932331e-08	3.839726e+01	1.271940e+03
1.630000e-06	5.249582e-06	1.933727e-08	3.843188e+01	1.272919e+03
1.640000e-06	5.252506e-06	1.934844e-08	3.845328e+01	1.273625e+03
1.650000e-06	5.253424e-06	1.935921e-08	3.846000e+01	1.274087e+03
1.660000e-06	5.252470e-06	1.936441e-08	3.845302e+01	1.274328e+03
1.670000e-06	5.249901e-06	1.936229e-08	3.843421e+01	1.274369e+03
1.680000e-06	5.245805e-06	1.936132e-08	3.840423e+01	1.274217e+03
1.690000e-06	5.239925e-06	1.935603e-08	3.836118e+01	1.273872e+03
1.700000e-06	5.232140e-06	1.934680e-08	3.830418e+01	1.273322e+03
1.710000e-06	5.222785e-06	1.933688e-08	3.823570e+01	1.272551e+03
1.720000e-06	5.211910e-06	1.932832e-08	3.815608e+01	1.271543e+03
1.730000e-06	5.199291e-06	1.933220e-08	3.806369e+01	1.270288e+03
1.740000e-06	5.184652e-06	1.925842e-08	3.795653e+01	1.268786e+03
1.750000e-06	5.167885e-06	1.918278e-08	3.783378e+01	1.267051e+03
1.760000e-06	5.148753e-06	1.919822e-08	3.769371e+01	1.265113e+03
1.770000e-06	5.127074e-06	1.917355e-08	3.753500e+01	1.263011e+03
1.780000e-06	5.103441e-06	1.922826e-08	3.736198e+01	1.260791e+03
1.790000e-06	5.078923e-06	1.920410e-08	3.718249e+01	1.258495e+03
1.800000e-06	5.053649e-06	1.899066e-08	3.699746e+01	1.256156e+03
1.810000e-06	5.026641e-06	1.910648e-08	3.679974e+01	1.253790e+03
1.820000e-06	4.997670e-06	1.909805e-08	3.658765e+01	1.251395e+03
1.830000e-06	4.967006e-06	1.891751e-08	3.636315e+01	1.248949e+03
1.840000e-06	4.934379e-06	1.910116e-08	3.612429e+01	1.246414e+03
1.850000e-06	4.899986e-06	1.898658e-08	3.587250e+01	1.243744e+03
1.860000e-06	4.864142e-06	1.877660e-08	3.561009e+01	1.240888e+03
1.870000e-06	4.826343e-06	1.891181e-08	3.533337e+01	1.237804e+03
1.880000e-06	4.786703e-06	1.880383e-08	3.504317e+01	1.234460e+03
1.890000e-06	4.745474e-06	1.880426e-08	3.474133e+01	1.230840e+03
1.900000e-06	4.702449e-06	1.879170e-08	3.442635e+01	1.226941e+03
1.910000e-06	4.657867e-06	1.851499e-08	3.409997e+01	1.222776e+03
1.920000e-06	4.611514e-06	1.862746e-08	3.376062e+01	1.218367e+03
1.930000e-06	4.563427e-06	1.859581e-08	3.340858e+01	1.213740e+03
1.940000e-06	4.513794e-06	1.841221e-08	3.304521e+01	1.208922e+03
1.950000e-06	4.462281e-06	1.840113e-08	3.266809e+01	1.203935e+03
1.960000e-06	4.408915e-06	1.829156e-08	3.227740e+01	1.198797e+03
1.970000e-06	4.353666e-06	1.824735e-08	3.187293e+01	1.193518e+03
1.980000e-06	4.296700e-06	1.810588e-08	3.145588e+01	1.188102e+03
1.990000e-06	4.238297e-06	1.802819e-08	3.102832e+01	1.182551e+03
2.000000e-06	4.178524e-06	1.804585e-08	3.059073e+01	1.176861e+03
2.010000e-06	4.117362e-06	1.786845e-08	3.014296e+01	1.171027e+03
2.020000e-06	4.054473e-06	1.778219e-08	2.968256e+01	1.165044e+03
2.030000e-06	3.989990e-06	1.766948e-08	2.921047e+01	1.158906e+03
2.040000e-06	3.924189e-06	1.760285e-08	2.872875e+01	1.152607e+03
2.050000e-06	3.857030e-06	1.753520e-08	2.823708e+01	1.146141e+03
2.060000e-06	3.788643e-06	1.735395e-08	2.773643e+01	1.139504e+03
2.070000e-06	3.718796e-06	1.731395e-08	2.722508e+01	1.132691e+03
2.080000e-06	3.647345e-06	1.720405e-08	2.670199e+01	1.125700e+03
2.090000e-06	3.574563e-06	1.708228e-08	2.616916e+01	1.118530e+03
2.100000e-06	3.500574e-06	1.697514e-08	2.562749e+01	1.111183e+03
2.110000e-06	3.425400e-06	1.685120e-08	2.507714e+01	1.103660e+03
2.120000e-06	3.348940e-06	1.676407e-08	2.451739e+01	1.095964e+03
2.130000e-06	3.271065e-06	1.661729e-08	2.394727e+01	1.088095e+03
2.140000e-06	3.191752e-06	1.650304e-08	2.336663e+01	1.080051e+03
2.150000e-06	3.111257e-06	1.637135e-08	2.277733e+01	1.071829e+03
2.160000e-06	3.029697e-06	1.624348e-08	2.218023e+01	1.063420e+03
2.170000e-06	2.947080e-06	1.612419e-08	2.157540e+01	1.054817e+03
2.180000e-06	2.863578e-06	1.598546e-08	2.096408e+01	1.046011e+03
2.190000e-06	2.779208e-06	1.586077e-08	2.034642e+01	1.036995e+03
2.200000e-06	2.693720e-06	1.571454e-08	1.972056e+01	1.027765e+03
2.210000e-06	2.606869e-06	1.557477e-08	1.908473e+01	1.018319e+03
2.220000e-06	2.518955e-06	1.542330e-08	1.844112e+01	1.008661e+03
2.230000e-06	2.430289e-06	1.527296e-08	1.779200e+01	9.987907e+02
2.240000e-06	2.340875e-06	1.512101e-08	1.713741e+01	9.887108e+02
2.250000e-06	2.250697e-06	1.496539e-08	1.647722e+01	9.784193e+02
2.260000e-06	2.159715e-06	1.480446e-08	1.581115e+01	9.679099e+02
2.270000e-06	2.068035e-06	1.463825e-08	1.513996e+01	9.571721e+02
2.280000e-06	1.975799e-06	1.448191e-08	1.446471e+01	9.461918e+02
2.290000e-06	1.882949e-06	1.431247e-08	1.378496e+01	9.349541e+02
2.300000e-06	1.789247e-06	1.413544e-08	1.309897e+01	9.234456e+02
2.310000e-06	1.694637e-06	1.395399e-08	1.240634e+01	9.116569e+02
2.320000e-06	1.599331e-06	1.377459e-08	1.170861e+01	8.995844e+02
2.330000e-06	1.503484e-06	1.359174e-08	1.100692e+01	8.872299e+02
2.340000e-06	1.407186e-06	1.339798e-08	1.030192e+01	8.745995e+02
2.350000e-06	1.310490e-06	1.319905e-08	9.594017e+00	8.617006e+02
2.360000e-06	1.213429e-06	1.299766e-08	8.883443e+00	8.485383e+02
2.370000e-06	1.115981e-06	1.279290e-08	8.170033e+00	8.351129e+02
2.380000e-06	1.018164e-06	1.258243e-08	7.453917e+00	8.214174e+02
2.390000e-06	9.200212e-07	1.236943e-08	6.735420e+00	8.074373e+02
2.400000e-06	8.215717e-07	1.215239e-08	6.014677e+00	7.931524e+02
2.410000e-06	7.228718e-07	1.192882e-08	5.292101e+00	7.785392e+02
2.420000e-06	6.239772e-07	1.169915e-08	4.568100e+00	7.635747e+02
2.430000e-06	5.249242e-07	1.146549e-08	3.842938e+00	7.482391e+02
2.440000e-06	4.257651e-07	1.122661e-08	3.117001e+00	7.325180e+02
2.450000e-06	3.265270e-07	1.097906e-08	2.390485e+00	7.164020e+02
2.460000e-06	2.271310e-07	1.072089e-08	1.662812e+00	6.998846e+02
2.470000e-06	1.276098e-07	1.045954e-08	9.342240e-01	6.829591e+02
2.480000e-06	2.804945e-08	1.019955e-08	2.053483e-01	6.656145e+02
2.490000e-06	-7.153608e-08	9.932295e-09	-5.237114e-01	6.478317e+02
2.500000e-06	-1.711081e-07	9.652152e-09	-1.252672e+00	6.295818e+02
2.510000e-06	-2.706496e-07	9.361748e-09	-1.981410e+00	6.108256e+02
2.520000e-06	-3.700992e-07	9.064600e-09	-2.709474e+00	5.915159e+02
2.530000e-06	-4.694194e-07	8.758797e-09	-3.436592e+00	5.716012e+02
2.540000e-06	-5.686004e-07	8.444633e-09	-4.162690e+00	5.510296e+02
2.550000e-06	-6.676598e-07	8.121217e-09	-4.887897e+00	5.297532e+02
2.560000e-06	-7.665208e-07	7.785554e-09	-5.611653e+00	5.077299e+02
2.570000e-06	-8.650992e-07	7.434750e-09	-6.333339e+00	4.849239e+02
2.580000e-06	-9.633826e-07	7.071207e-09	-7.052866e+00	4.613039e+02
2.590000e-06	-1.061295e-06	6.698731e-09	-7.769676e+00	4.368391e+02
2.600000e-06	-1.158818e-06	6.313427e-09	-8.483634e+00	4.114948e+02
2.610000e-06	-1.255962e-06	5.914285e-09	-9.194822e+00	3.852284e+02
2.620000e-06	-1.352704e-06	5.499567e-09	-9.903067e+00	3.579861e+02
2.630000e-06	-1.449031e-06	5.067250e-09	-1.060827e+01	3.297031e+02
2.640000e-06	-1.544908e-06	4.617100e-09	-1.131018e+01	3.003047e+02
2.650000e-06	-1.640242e-06	4.149171e-09	-1.200811e+01	2.697102e+02
2.660000e-06	-1.734869e-06	3.662149e-09	-1.270087e+01	2.378389e+02
2.670000e-06	-1.828618e-06	3.152947e-09	-1.338720e+01	2.046151e+02
2.680000e-06	-1.921496e-06	2.621560e-09	-1.406716e+01	1.699743e+02
2.690000e-06	-2.013622e-06	2.070718e-09	-1.474160e+01	1.338677e+02
2.700000e-06	-2.105086e-06	1.499996e-09	-1.541121e+01	9.626602e+01
2.710000e-06	-2.195841e-06	9.059076e-10	-1.607562e+01	5.716184e+01
2.720000e-06	-2.285762e-06	2.883043e-10	-1.673393e+01	1.657215e+01
2.730000e-06	-2.374883e-06	-3.514617e-10	-1.738638e+01	-2.545965e+01
2.740000e-06	-2.463280e-06	-1.012608e-09	-1.803352e+01	-6.886140e+01
2.750000e-06	-2.550967e-06	-1.696225e-09	-1.867548e+01	-1.135296e+02
2.760000e-06	-2.637776e-06	-2.398175e-09	-1.931100e+01	-1.593270e+02
2.770000e-06	-2.723475e-06	-3.112627e-09	-1.993840e+01	-2.060811e+02
2.780000e-06	-2.808068e-06	-3.836281e-09	-2.055770e+01	-2.535844e+02
2.790000e-06	-2.891712e-06	-4.566612e-09	-2.117005e+01	-3.015967e+02
2.800000e-06	-2.974458e-06	-5.301849e-09	-2.177583e+01	-3.498511e+02
2.810000e-06	-3.056193e-06	-6.037697e-09	-2.237420e+01	-3.980615e+02
2.820000e-06	-3.136897e-06	-6.768826e-09	-2.296503e+01	-4.459335e+02
2.830000e-06	-3.216602e-06	-7.489666e-09	-2.354855e+01	-4.931752e+02
2.840000e-06	-3.295063e-06	-8.198148e-09	-2.412296e+01	-5.395094e+02
2.850000e-06	-3.372024e-06	-8.891029e-09	-2.468638e+01	-5.846826e+02
2.860000e-06	-3.447651e-06	-9.563150e-09	-2.524005e+01	-6.284736e+02
2.870000e-06	-3.522009e-06	-1.021033e-08	-2.578442e+01	-6.706975e+02
2.880000e-06	-3.595059e-06	-1.083369e-08	-2.631921e+01	-7.112084e+02
2.890000e-06	-3.666971e-06	-1.143038e-08	-2.684568e+01	-7.498983e+02
2.900000e-06	-3.737511e-06	-1.199589e-08	-2.736209e+01	-7.866952e+02
2.910000e-06	-3.806419e-06	-1.253255e-08	-2.786657e+01	-8.215597e+02
2.920000e-06	-3.873965e-06	-1.303744e-08	-2.836106e+01	-8.544812e+02
2.930000e-06	-3.940276e-06	-1.351112e-08	-2.884652e+01	-8.854748e+02
2.940000e-06	-4.005262e-06	-1.395782e-08	-2.932228e+01	-9.145777e+02
