# Temperatura_=_38.32
# Concentracion g/m^3_=_26700.0
# C_Vs_to_Am_M_A/Vsm_=_65563218390.804596
# pendiente_HvsI_1/m_=_3716.3
# ordenada_HvsI_A/m_=_1297.0
# frecuencia_Hz_=_301766.5247864843

Tiempo_(s)	Campo_(V.s)	Magnetizacion_(V.s)	Campo_(kA/m)	Magnetizacion_(A/m)
0.000000e+00	-5.244077e-06	-1.927663e-08	-3.830645e+01	-1.259730e+03
1.000000e-08	-5.242346e-06	-1.928204e-08	-3.829381e+01	-1.259830e+03
2.000000e-08	-5.238764e-06	-1.927866e-08	-3.826764e+01	-1.259731e+03
3.000000e-08	-5.233540e-06	-1.927275e-08	-3.822949e+01	-1.259433e+03
4.000000e-08	-5.226655e-06	-1.926413e-08	-3.817919e+01	-1.258927e+03
5.000000e-08	-5.218143e-06	-1.924981e-08	-3.811701e+01	-1.258201e+03
6.000000e-08	-5.207716e-06	-1.923101e-08	-3.804085e+01	-1.257241e+03
7.000000e-08	-5.195360e-06	-1.920693e-08	-3.795059e+01	-1.256041e+03
8.000000e-08	-5.181158e-06	-1.917994e-08	-3.784685e+01	-1.254603e+03
9.000000e-08	-5.164776e-06	-1.918855e-08	-3.772718e+01	-1.252944e+03
1.000000e-07	-5.146230e-06	-1.918580e-08	-3.759171e+01	-1.251089e+03
1.100000e-07	-5.125768e-06	-1.912753e-08	-3.744224e+01	-1.249075e+03
1.200000e-07	-5.103556e-06	-1.908271e-08	-3.727999e+01	-1.246938e+03
1.300000e-07	-5.079863e-06	-1.901508e-08	-3.710692e+01	-1.244713e+03
1.400000e-07	-5.054730e-06	-1.893118e-08	-3.692333e+01	-1.242422e+03
1.500000e-07	-5.027945e-06	-1.899278e-08	-3.672767e+01	-1.240073e+03
1.600000e-07	-4.999532e-06	-1.894705e-08	-3.652012e+01	-1.237658e+03
1.700000e-07	-4.969729e-06	-1.882611e-08	-3.630242e+01	-1.235153e+03
1.800000e-07	-4.938372e-06	-1.887156e-08	-3.607337e+01	-1.232523e+03
1.900000e-07	-4.904958e-06	-1.876827e-08	-3.582929e+01	-1.229732e+03
2.000000e-07	-4.869716e-06	-1.868154e-08	-3.557186e+01	-1.226742e+03
2.100000e-07	-4.832981e-06	-1.873424e-08	-3.530351e+01	-1.223525e+03
2.200000e-07	-4.794541e-06	-1.862247e-08	-3.502273e+01	-1.220064e+03
2.300000e-07	-4.754326e-06	-1.854232e-08	-3.472897e+01	-1.216355e+03
2.400000e-07	-4.712199e-06	-1.851146e-08	-3.442124e+01	-1.212404e+03
2.500000e-07	-4.668215e-06	-1.839996e-08	-3.409995e+01	-1.208228e+03
2.600000e-07	-4.622559e-06	-1.838882e-08	-3.376644e+01	-1.203844e+03
2.700000e-07	-4.575111e-06	-1.831701e-08	-3.341985e+01	-1.199274e+03
2.800000e-07	-4.525680e-06	-1.817536e-08	-3.305877e+01	-1.194532e+03
2.900000e-07	-4.474168e-06	-1.812870e-08	-3.268249e+01	-1.189630e+03
3.000000e-07	-4.420771e-06	-1.807553e-08	-3.229244e+01	-1.184575e+03
3.100000e-07	-4.365827e-06	-1.798046e-08	-3.189109e+01	-1.179369e+03
3.200000e-07	-4.309340e-06	-1.790494e-08	-3.147847e+01	-1.174012e+03
3.300000e-07	-4.251111e-06	-1.783253e-08	-3.105312e+01	-1.168502e+03
3.400000e-07	-4.191295e-06	-1.772006e-08	-3.061619e+01	-1.162838e+03
3.500000e-07	-4.130044e-06	-1.762050e-08	-3.016877e+01	-1.157020e+03
3.600000e-07	-4.067407e-06	-1.754817e-08	-2.971122e+01	-1.151047e+03
3.700000e-07	-4.003497e-06	-1.745449e-08	-2.924438e+01	-1.144918e+03
3.800000e-07	-3.938080e-06	-1.736908e-08	-2.876652e+01	-1.138631e+03
3.900000e-07	-3.870959e-06	-1.726282e-08	-2.827623e+01	-1.132182e+03
4.000000e-07	-3.802410e-06	-1.713580e-08	-2.777550e+01	-1.125567e+03
4.100000e-07	-3.732682e-06	-1.704856e-08	-2.726615e+01	-1.118780e+03
4.200000e-07	-3.661827e-06	-1.694711e-08	-2.674858e+01	-1.111817e+03
4.300000e-07	-3.589807e-06	-1.682827e-08	-2.622249e+01	-1.104674e+03
4.400000e-07	-3.516267e-06	-1.671463e-08	-2.568531e+01	-1.097352e+03
4.500000e-07	-3.441077e-06	-1.660212e-08	-2.513606e+01	-1.089851e+03
4.600000e-07	-3.364590e-06	-1.648155e-08	-2.457735e+01	-1.082173e+03
4.700000e-07	-3.286893e-06	-1.636055e-08	-2.400979e+01	-1.074320e+03
4.800000e-07	-3.207804e-06	-1.624466e-08	-2.343207e+01	-1.066292e+03
4.900000e-07	-3.127361e-06	-1.611930e-08	-2.284446e+01	-1.058087e+03
5.000000e-07	-3.045777e-06	-1.598994e-08	-2.224851e+01	-1.049700e+03
5.100000e-07	-2.963190e-06	-1.585210e-08	-2.164524e+01	-1.041124e+03
5.200000e-07	-2.879739e-06	-1.571340e-08	-2.103565e+01	-1.032352e+03
5.300000e-07	-2.795473e-06	-1.557651e-08	-2.042011e+01	-1.023378e+03
5.400000e-07	-2.710273e-06	-1.543548e-08	-1.979775e+01	-1.014196e+03
5.500000e-07	-2.624145e-06	-1.529076e-08	-1.916862e+01	-1.004804e+03
5.600000e-07	-2.537190e-06	-1.514198e-08	-1.853343e+01	-9.952006e+02
5.700000e-07	-2.449387e-06	-1.499022e-08	-1.789206e+01	-9.853867e+02
5.800000e-07	-2.360549e-06	-1.483535e-08	-1.724312e+01	-9.753610e+02
5.900000e-07	-2.270567e-06	-1.467805e-08	-1.658583e+01	-9.651206e+02
6.000000e-07	-2.179660e-06	-1.451614e-08	-1.592178e+01	-9.546589e+02
6.100000e-07	-2.088033e-06	-1.435258e-08	-1.525247e+01	-9.439663e+02
6.200000e-07	-1.995726e-06	-1.418709e-08	-1.457820e+01	-9.330309e+02
6.300000e-07	-1.902670e-06	-1.401417e-08	-1.389845e+01	-9.218404e+02
6.400000e-07	-1.808884e-06	-1.383658e-08	-1.321337e+01	-9.103844e+02
6.500000e-07	-1.714508e-06	-1.365586e-08	-1.252398e+01	-8.986561e+02
6.600000e-07	-1.619612e-06	-1.346989e-08	-1.183079e+01	-8.866532e+02
6.700000e-07	-1.524252e-06	-1.327979e-08	-1.113422e+01	-8.743776e+02
6.800000e-07	-1.428401e-06	-1.308691e-08	-1.043405e+01	-8.618338e+02
6.900000e-07	-1.331963e-06	-1.289231e-08	-9.729601e+00	-8.490262e+02
7.000000e-07	-1.234872e-06	-1.269517e-08	-9.020376e+00	-8.359565e+02
7.100000e-07	-1.137187e-06	-1.249239e-08	-8.306817e+00	-8.226213e+02
7.200000e-07	-1.039015e-06	-1.228537e-08	-7.589701e+00	-8.090108e+02
7.300000e-07	-9.404546e-07	-1.207575e-08	-6.869746e+00	-7.951099e+02
7.400000e-07	-8.416085e-07	-1.186075e-08	-6.147704e+00	-7.808993e+02
7.500000e-07	-7.425452e-07	-1.163885e-08	-5.424076e+00	-7.663590e+02
7.600000e-07	-6.432909e-07	-1.141098e-08	-4.699052e+00	-7.514711e+02
7.700000e-07	-5.438440e-07	-1.117761e-08	-3.972621e+00	-7.362217e+02
7.800000e-07	-4.441940e-07	-1.093899e-08	-3.244707e+00	-7.206022e+02
7.900000e-07	-3.444008e-07	-1.069600e-08	-2.515747e+00	-7.046079e+02
8.000000e-07	-2.445623e-07	-1.044826e-08	-1.786456e+00	-6.882353e+02
8.100000e-07	-1.446446e-07	-1.019373e-08	-1.056586e+00	-6.714784e+02
8.200000e-07	-4.462717e-08	-9.931603e-09	-3.259885e-01	-6.543247e+02
8.300000e-07	5.542677e-08	-9.663563e-09	4.048764e-01	-6.367523e+02
8.400000e-07	1.554628e-07	-9.389478e-09	1.135611e+00	-6.187287e+02
8.500000e-07	2.554663e-07	-9.109770e-09	1.866107e+00	-6.002119e+02
8.600000e-07	3.554136e-07	-8.823544e-09	2.596193e+00	-5.811531e+02
8.700000e-07	4.552634e-07	-8.526789e-09	3.325566e+00	-5.615008e+02
8.800000e-07	5.549712e-07	-8.217419e-09	4.053903e+00	-5.412059e+02
8.900000e-07	6.545294e-07	-7.895944e-09	4.781146e+00	-5.202246e+02
9.000000e-07	7.539601e-07	-7.563909e-09	5.507459e+00	-4.985207e+02
9.100000e-07	8.532174e-07	-7.221440e-09	6.232504e+00	-4.760649e+02
9.200000e-07	9.522242e-07	-6.869104e-09	6.955719e+00	-4.528319e+02
9.300000e-07	1.050872e-06	-6.505193e-09	7.676314e+00	-4.287964e+02
9.400000e-07	1.149095e-06	-6.125429e-09	8.393805e+00	-4.039281e+02
9.500000e-07	1.246799e-06	-5.730834e-09	9.107504e+00	-3.781873e+02
9.600000e-07	1.343829e-06	-5.324308e-09	9.816277e+00	-3.515226e+02
9.700000e-07	1.440165e-06	-4.905431e-09	1.051999e+01	-3.238702e+02
9.800000e-07	1.535880e-06	-4.469630e-09	1.121915e+01	-2.951566e+02
9.900000e-07	1.631048e-06	-4.014147e-09	1.191433e+01	-2.653020e+02
1.000000e-06	1.725696e-06	-3.540161e-09	1.260571e+01	-2.342265e+02
1.010000e-06	1.819787e-06	-3.046721e-09	1.329301e+01	-2.018550e+02
1.020000e-06	1.913229e-06	-2.531225e-09	1.397558e+01	-1.681233e+02
1.030000e-06	2.005977e-06	-1.994459e-09	1.465308e+01	-1.329815e+02
1.040000e-06	2.098094e-06	-1.437394e-09	1.532596e+01	-9.639815e+01
1.050000e-06	2.189584e-06	-8.596494e-10	1.599428e+01	-5.836165e+01
1.060000e-06	2.280305e-06	-2.599869e-10	1.665696e+01	-1.888269e+01
1.070000e-06	2.369991e-06	3.625800e-10	1.731209e+01	2.200401e+01
1.080000e-06	2.458573e-06	1.006478e-09	1.795916e+01	6.423733e+01
1.090000e-06	2.546234e-06	1.670187e-09	1.859949e+01	1.077271e+02
1.100000e-06	2.633108e-06	2.350926e-09	1.923409e+01	1.523512e+02
1.110000e-06	2.719161e-06	3.045665e-09	1.986268e+01	1.979542e+02
1.120000e-06	2.804254e-06	3.752361e-09	2.048426e+01	2.443463e+02
1.130000e-06	2.888474e-06	4.468619e-09	2.109946e+01	2.913058e+02
1.140000e-06	2.971914e-06	5.191221e-09	2.170896e+01	3.385830e+02
1.150000e-06	3.054384e-06	5.914118e-09	2.231139e+01	3.859080e+02
1.160000e-06	3.135639e-06	6.630964e-09	2.290492e+01	4.329999e+02
1.170000e-06	3.215702e-06	7.337483e-09	2.348976e+01	4.795770e+02
1.180000e-06	3.294629e-06	8.031651e-09	2.406630e+01	5.253680e+02
1.190000e-06	3.372374e-06	8.710207e-09	2.463421e+01	5.701215e+02
1.200000e-06	3.448981e-06	9.370819e-09	2.519380e+01	6.136134e+02
1.210000e-06	3.524353e-06	1.000991e-08	2.574437e+01	6.556529e+02
1.220000e-06	3.598195e-06	1.062447e-08	2.628376e+01	6.960850e+02
1.230000e-06	3.670495e-06	1.121269e-08	2.681189e+01	7.347909e+02
1.240000e-06	3.741492e-06	1.177254e-08	2.733050e+01	7.716867e+02
1.250000e-06	3.811210e-06	1.230237e-08	2.783977e+01	8.067211e+02
1.260000e-06	3.879717e-06	1.280257e-08	2.834020e+01	8.398725e+02
1.270000e-06	3.946987e-06	1.327359e-08	2.883159e+01	8.711451e+02
1.280000e-06	4.012655e-06	1.371620e-08	2.931127e+01	9.005662e+02
1.290000e-06	4.076672e-06	1.413353e-08	2.977890e+01	9.281825e+02
1.300000e-06	4.139240e-06	1.452562e-08	3.023594e+01	9.540568e+02
1.310000e-06	4.200370e-06	1.489251e-08	3.068248e+01	9.782644e+02
1.320000e-06	4.260214e-06	1.523588e-08	3.111962e+01	1.000889e+03
1.330000e-06	4.318635e-06	1.555877e-08	3.154636e+01	1.022020e+03
1.340000e-06	4.375258e-06	1.585846e-08	3.195998e+01	1.041748e+03
1.350000e-06	4.430231e-06	1.613348e-08	3.236155e+01	1.060161e+03
1.360000e-06	4.483673e-06	1.638907e-08	3.275192e+01	1.077343e+03
1.370000e-06	4.535367e-06	1.662910e-08	3.312954e+01	1.093375e+03
1.380000e-06	4.585053e-06	1.685448e-08	3.349247e+01	1.108326e+03
1.390000e-06	4.632805e-06	1.706469e-08	3.384128e+01	1.122265e+03
1.400000e-06	4.678938e-06	1.725957e-08	3.417828e+01	1.135249e+03
1.410000e-06	4.723593e-06	1.744100e-08	3.450446e+01	1.147332e+03
1.420000e-06	4.766709e-06	1.761141e-08	3.481942e+01	1.158566e+03
1.430000e-06	4.807963e-06	1.777072e-08	3.512076e+01	1.168993e+03
1.440000e-06	4.847407e-06	1.791872e-08	3.540889e+01	1.178657e+03
1.450000e-06	4.885268e-06	1.805668e-08	3.568546e+01	1.187597e+03
1.460000e-06	4.921579e-06	1.818342e-08	3.595070e+01	1.195852e+03
1.470000e-06	4.956185e-06	1.829875e-08	3.620348e+01	1.203459e+03
1.480000e-06	4.988852e-06	1.840289e-08	3.644211e+01	1.210455e+03
1.490000e-06	5.019730e-06	1.849827e-08	3.666766e+01	1.216879e+03
1.500000e-06	5.048968e-06	1.858630e-08	3.688124e+01	1.222769e+03
1.510000e-06	5.076597e-06	1.866752e-08	3.708306e+01	1.228163e+03
1.520000e-06	5.102295e-06	1.874345e-08	3.727078e+01	1.233097e+03
1.530000e-06	5.125976e-06	1.881349e-08	3.744376e+01	1.237605e+03
1.540000e-06	5.147879e-06	1.887722e-08	3.760376e+01	1.241714e+03
1.550000e-06	5.168122e-06	1.893512e-08	3.775162e+01	1.245443e+03
1.560000e-06	5.186631e-06	1.898742e-08	3.788683e+01	1.248808e+03
1.570000e-06	5.203150e-06	1.903249e-08	3.800750e+01	1.251815e+03
1.580000e-06	5.217728e-06	1.907078e-08	3.811398e+01	1.254468e+03
1.590000e-06	5.230422e-06	1.910452e-08	3.820670e+01	1.256768e+03
1.600000e-06	5.241068e-06	1.913483e-08	3.828447e+01	1.258721e+03
1.610000e-06	5.249569e-06	1.915931e-08	3.834657e+01	1.260334e+03
1.620000e-06	5.256111e-06	1.917791e-08	3.839436e+01	1.261626e+03
1.630000e-06	5.260933e-06	1.919254e-08	3.842958e+01	1.262616e+03
1.640000e-06	5.264037e-06	1.920415e-08	3.845225e+01	1.263334e+03
1.650000e-06	5.265097e-06	1.921488e-08	3.846000e+01	1.263805e+03
1.660000e-06	5.264186e-06	1.922082e-08	3.845334e+01	1.264054e+03
1.670000e-06	5.261631e-06	1.922064e-08	3.843468e+01	1.264097e+03
1.680000e-06	5.257540e-06	1.921900e-08	3.840480e+01	1.263942e+03
1.690000e-06	5.251684e-06	1.921280e-08	3.836202e+01	1.263587e+03
1.700000e-06	5.243941e-06	1.920344e-08	3.830546e+01	1.263020e+03
1.710000e-06	5.234646e-06	1.919286e-08	3.823756e+01	1.262229e+03
1.720000e-06	5.223845e-06	1.918381e-08	3.815866e+01	1.261202e+03
1.730000e-06	5.211335e-06	1.918040e-08	3.806728e+01	1.259934e+03
1.740000e-06	5.196859e-06	1.912377e-08	3.796154e+01	1.258431e+03
1.750000e-06	5.180200e-06	1.905882e-08	3.783985e+01	1.256714e+03
1.760000e-06	5.161168e-06	1.905950e-08	3.770082e+01	1.254810e+03
1.770000e-06	5.139629e-06	1.903887e-08	3.754349e+01	1.252758e+03
1.780000e-06	5.116097e-06	1.907064e-08	3.737160e+01	1.250594e+03
1.790000e-06	5.091538e-06	1.905609e-08	3.719220e+01	1.248350e+03
1.800000e-06	5.066187e-06	1.888927e-08	3.700702e+01	1.246043e+03
1.810000e-06	5.039221e-06	1.893101e-08	3.681004e+01	1.243677e+03
1.820000e-06	5.010315e-06	1.892276e-08	3.659889e+01	1.241240e+03
1.830000e-06	4.979677e-06	1.878422e-08	3.637509e+01	1.238704e+03
1.840000e-06	4.947092e-06	1.889226e-08	3.613707e+01	1.236033e+03
1.850000e-06	4.912751e-06	1.882549e-08	3.588621e+01	1.233189e+03
1.860000e-06	4.876884e-06	1.866967e-08	3.562422e+01	1.230138e+03
1.870000e-06	4.839050e-06	1.873955e-08	3.534785e+01	1.226853e+03
1.880000e-06	4.799374e-06	1.863802e-08	3.505802e+01	1.223322e+03
1.890000e-06	4.758094e-06	1.859593e-08	3.475649e+01	1.219544e+03
1.900000e-06	4.715045e-06	1.857332e-08	3.444203e+01	1.215527e+03
1.910000e-06	4.670414e-06	1.837794e-08	3.411601e+01	1.211290e+03
1.920000e-06	4.624055e-06	1.844216e-08	3.377737e+01	1.206852e+03
1.930000e-06	4.575971e-06	1.840599e-08	3.342613e+01	1.202232e+03
1.940000e-06	4.526269e-06	1.822394e-08	3.306307e+01	1.197445e+03
1.950000e-06	4.474680e-06	1.820234e-08	3.268623e+01	1.192500e+03
1.960000e-06	4.421227e-06	1.812475e-08	3.229578e+01	1.187403e+03
1.970000e-06	4.365932e-06	1.804143e-08	3.189186e+01	1.182154e+03
1.980000e-06	4.308910e-06	1.793699e-08	3.147533e+01	1.176754e+03
1.990000e-06	4.250392e-06	1.786543e-08	3.104787e+01	1.171201e+03
2.000000e-06	4.190512e-06	1.782981e-08	3.061047e+01	1.165494e+03
2.010000e-06	4.129241e-06	1.768433e-08	3.016290e+01	1.159632e+03
2.020000e-06	4.066272e-06	1.759557e-08	2.970293e+01	1.153616e+03
2.030000e-06	4.001695e-06	1.749992e-08	2.923122e+01	1.147443e+03
2.040000e-06	3.935743e-06	1.742518e-08	2.874946e+01	1.141111e+03
2.050000e-06	3.868474e-06	1.734762e-08	2.825808e+01	1.134616e+03
2.060000e-06	3.799906e-06	1.719280e-08	2.775720e+01	1.127953e+03
2.070000e-06	3.729801e-06	1.712265e-08	2.724511e+01	1.121117e+03
2.080000e-06	3.658212e-06	1.702198e-08	2.672217e+01	1.114104e+03
2.090000e-06	3.585390e-06	1.689974e-08	2.619023e+01	1.106911e+03
2.100000e-06	3.511381e-06	1.679069e-08	2.564962e+01	1.099538e+03
2.110000e-06	3.436187e-06	1.667502e-08	2.510034e+01	1.091988e+03
2.120000e-06	3.359622e-06	1.657933e-08	2.454106e+01	1.084260e+03
2.130000e-06	3.281537e-06	1.644066e-08	2.397067e+01	1.076358e+03
2.140000e-06	3.202046e-06	1.631018e-08	2.339001e+01	1.068280e+03
2.150000e-06	3.121430e-06	1.618479e-08	2.280113e+01	1.060025e+03
2.160000e-06	3.039763e-06	1.606295e-08	2.220458e+01	1.051585e+03
2.170000e-06	2.957053e-06	1.593977e-08	2.160041e+01	1.042955e+03
2.180000e-06	2.873447e-06	1.580316e-08	2.098969e+01	1.034127e+03
2.190000e-06	2.788841e-06	1.567478e-08	2.037167e+01	1.025094e+03
2.200000e-06	2.703054e-06	1.553159e-08	1.974502e+01	1.015853e+03
2.210000e-06	2.616082e-06	1.538761e-08	1.910972e+01	1.006402e+03
2.220000e-06	2.528061e-06	1.524130e-08	1.846675e+01	9.967394e+02
2.230000e-06	2.439170e-06	1.509368e-08	1.781743e+01	9.868659e+02
2.240000e-06	2.349531e-06	1.494270e-08	1.716264e+01	9.767802e+02
2.250000e-06	2.259182e-06	1.478602e-08	1.650267e+01	9.664782e+02
2.260000e-06	2.168107e-06	1.462320e-08	1.583739e+01	9.559525e+02
2.270000e-06	2.076344e-06	1.445745e-08	1.516709e+01	9.451927e+02
2.280000e-06	1.983896e-06	1.429710e-08	1.449178e+01	9.341865e+02
2.290000e-06	1.890686e-06	1.412758e-08	1.381091e+01	9.229219e+02
2.300000e-06	1.796641e-06	1.395213e-08	1.312393e+01	9.113894e+02
2.310000e-06	1.701782e-06	1.377487e-08	1.243102e+01	8.995835e+02
2.320000e-06	1.606274e-06	1.359512e-08	1.173336e+01	8.875032e+02
2.330000e-06	1.510237e-06	1.340838e-08	1.103184e+01	8.751513e+02
2.340000e-06	1.413762e-06	1.321319e-08	1.032712e+01	8.625326e+02
2.350000e-06	1.316877e-06	1.301596e-08	9.619405e+00	8.496510e+02
2.360000e-06	1.219568e-06	1.281532e-08	8.908592e+00	8.365069e+02
2.370000e-06	1.121870e-06	1.260845e-08	8.194934e+00	8.230951e+02
2.380000e-06	1.023796e-06	1.239747e-08	7.478528e+00	8.094043e+02
2.390000e-06	9.254590e-07	1.218485e-08	6.760208e+00	7.954178e+02
2.400000e-06	8.268939e-07	1.196772e-08	6.040219e+00	7.811159e+02
2.410000e-06	7.280249e-07	1.174315e-08	5.318009e+00	7.664788e+02
2.420000e-06	6.289266e-07	1.151486e-08	4.594125e+00	7.514896e+02
2.430000e-06	5.296692e-07	1.128217e-08	3.869079e+00	7.361360e+02
2.440000e-06	4.302978e-07	1.104268e-08	3.143200e+00	7.204106e+02
2.450000e-06	3.308540e-07	1.079554e-08	2.416792e+00	7.043095e+02
2.460000e-06	2.312892e-07	1.054043e-08	1.689500e+00	6.878288e+02
2.470000e-06	1.316138e-07	1.028078e-08	9.614003e-01	6.709609e+02
2.480000e-06	3.193880e-08	1.001812e-08	2.333036e-01	6.536911e+02
2.490000e-06	-6.774053e-08	9.750225e-09	-4.948248e-01	6.359945e+02
2.500000e-06	-1.674456e-07	9.472789e-09	-1.223142e+00	6.178355e+02
2.510000e-06	-2.671249e-07	9.185549e-09	-1.951269e+00	5.991699e+02
2.520000e-06	-3.667242e-07	8.889997e-09	-2.678813e+00	5.799475e+02
2.530000e-06	-4.662113e-07	8.584911e-09	-3.405537e+00	5.601173e+02
2.540000e-06	-5.656086e-07	8.270911e-09	-4.131606e+00	5.396313e+02
2.550000e-06	-6.648993e-07	7.948791e-09	-4.856895e+00	5.184478e+02
2.560000e-06	-7.639741e-07	7.615118e-09	-5.580608e+00	4.965326e+02
2.570000e-06	-8.627802e-07	7.267161e-09	-6.302358e+00	4.738581e+02
2.580000e-06	-9.612883e-07	6.907077e-09	-7.021930e+00	4.503994e+02
2.590000e-06	-1.059442e-06	6.537464e-09	-7.738917e+00	4.261302e+02
2.600000e-06	-1.157255e-06	6.155835e-09	-8.453407e+00	4.010180e+02
2.610000e-06	-1.254702e-06	5.758909e-09	-9.165232e+00	3.750199e+02
2.620000e-06	-1.351665e-06	5.347446e-09	-9.873515e+00	3.480808e+02
2.630000e-06	-1.448085e-06	4.921514e-09	-1.057784e+01	3.201339e+02
2.640000e-06	-1.544082e-06	4.478579e-09	-1.127907e+01	2.911034e+02
2.650000e-06	-1.639689e-06	4.017067e-09	-1.197745e+01	2.609089e+02
2.660000e-06	-1.734699e-06	3.536916e-09	-1.267147e+01	2.294712e+02
2.670000e-06	-1.828878e-06	3.036402e-09	-1.335942e+01	1.967179e+02
2.680000e-06	-1.922084e-06	2.513112e-09	-1.404026e+01	1.625885e+02
2.690000e-06	-2.014400e-06	1.969458e-09	-1.471460e+01	1.270381e+02
2.700000e-06	-2.106022e-06	1.406086e-09	-1.538388e+01	9.004064e+01
2.710000e-06	-2.196974e-06	8.196458e-10	-1.604825e+01	5.159075e+01
2.720000e-06	-2.287194e-06	2.113174e-10	-1.670728e+01	1.170577e+01
2.730000e-06	-2.376570e-06	-4.173811e-10	-1.736015e+01	-2.957229e+01
2.740000e-06	-2.465125e-06	-1.066710e-09	-1.800702e+01	-7.217428e+01
2.750000e-06	-2.553017e-06	-1.737174e-09	-1.864904e+01	-1.160012e+02
2.760000e-06	-2.640138e-06	-2.426166e-09	-1.928544e+01	-1.609215e+02
2.770000e-06	-2.726162e-06	-3.128380e-09	-1.991381e+01	-2.067700e+02
2.780000e-06	-2.810967e-06	-3.839309e-09	-2.053330e+01	-2.533473e+02
2.790000e-06	-2.894774e-06	-4.555252e-09	-2.114548e+01	-3.004232e+02
2.800000e-06	-2.977698e-06	-5.275107e-09	-2.175121e+01	-3.477414e+02
2.810000e-06	-3.059668e-06	-5.997153e-09	-2.234998e+01	-3.950279e+02
2.820000e-06	-3.140602e-06	-6.716549e-09	-2.294118e+01	-4.420003e+02
2.830000e-06	-3.220510e-06	-7.426668e-09	-2.352488e+01	-4.883790e+02
2.840000e-06	-3.299172e-06	-8.123136e-09	-2.409949e+01	-5.338973e+02
2.850000e-06	-3.376364e-06	-8.803973e-09	-2.466335e+01	-5.783109e+02
2.860000e-06	-3.452171e-06	-9.465301e-09	-2.521710e+01	-6.214050e+02
2.870000e-06	-3.526689e-06	-1.010310e-08	-2.576144e+01	-6.629986e+02
2.880000e-06	-3.599935e-06	-1.071651e-08	-2.629647e+01	-7.029472e+02
2.890000e-06	-3.671984e-06	-1.130336e-08	-2.682277e+01	-7.411421e+02
2.900000e-06	-3.742751e-06	-1.186201e-08	-2.733971e+01	-7.775092e+02
2.910000e-06	-3.811939e-06	-1.239254e-08	-2.784510e+01	-8.120058e+02
2.920000e-06	-3.879681e-06	-1.289247e-08	-2.833994e+01	-8.446180e+02
2.930000e-06	-3.946140e-06	-1.336371e-08	-2.882540e+01	-8.753571e+02
2.940000e-06	-4.011248e-06	-1.380939e-08	-2.930100e+01	-9.042562e+02
