# Temperatura_=_87.36
# Concentracion g/m^3_=_26700.0
# C_Vs_to_Am_M_A/Vsm_=_65563218390.804596
# pendiente_HvsI_1/m_=_3716.3
# ordenada_HvsI_A/m_=_1297.0
# frecuencia_Hz_=_301766.29154027114

Tiempo_(s)	Campo_(V.s)	Magnetizacion_(V.s)	Campo_(kA/m)	Magnetizacion_(A/m)
0.000000e+00	-5.241104e-06	-2.245237e-08	-3.830093e+01	-1.467021e+03
1.000000e-08	-5.239125e-06	-2.245731e-08	-3.828647e+01	-1.467094e+03
2.000000e-08	-5.235282e-06	-2.245389e-08	-3.825839e+01	-1.466997e+03
3.000000e-08	-5.229833e-06	-2.244747e-08	-3.821857e+01	-1.466719e+03
4.000000e-08	-5.222817e-06	-2.243862e-08	-3.816730e+01	-1.466238e+03
5.000000e-08	-5.214154e-06	-2.242462e-08	-3.810399e+01	-1.465527e+03
6.000000e-08	-5.203522e-06	-2.240564e-08	-3.802629e+01	-1.464567e+03
7.000000e-08	-5.190993e-06	-2.237676e-08	-3.793473e+01	-1.463347e+03
8.000000e-08	-5.176627e-06	-2.234981e-08	-3.782975e+01	-1.461877e+03
9.000000e-08	-5.160047e-06	-2.237040e-08	-3.770859e+01	-1.460185e+03
1.000000e-07	-5.141280e-06	-2.235123e-08	-3.757144e+01	-1.458318e+03
1.100000e-07	-5.120601e-06	-2.228733e-08	-3.742033e+01	-1.456329e+03
1.200000e-07	-5.098156e-06	-2.225810e-08	-3.725630e+01	-1.454271e+03
1.300000e-07	-5.074275e-06	-2.217352e-08	-3.708178e+01	-1.452186e+03
1.400000e-07	-5.048992e-06	-2.212109e-08	-3.689702e+01	-1.450094e+03
1.500000e-07	-5.022042e-06	-2.220794e-08	-3.670008e+01	-1.447989e+03
1.600000e-07	-4.993469e-06	-2.208478e-08	-3.649127e+01	-1.445842e+03
1.700000e-07	-4.963446e-06	-2.202181e-08	-3.627187e+01	-1.443605e+03
1.800000e-07	-4.931749e-06	-2.209700e-08	-3.604023e+01	-1.441220e+03
1.900000e-07	-4.897970e-06	-2.192478e-08	-3.579338e+01	-1.438632e+03
2.000000e-07	-4.862507e-06	-2.189934e-08	-3.553422e+01	-1.435796e+03
2.100000e-07	-4.825610e-06	-2.192799e-08	-3.526458e+01	-1.432687e+03
2.200000e-07	-4.786980e-06	-2.176848e-08	-3.498229e+01	-1.429300e+03
2.300000e-07	-4.746606e-06	-2.174207e-08	-3.468724e+01	-1.425651e+03
2.400000e-07	-4.704257e-06	-2.170008e-08	-3.437777e+01	-1.421767e+03
2.500000e-07	-4.660029e-06	-2.158974e-08	-3.405456e+01	-1.417680e+03
2.600000e-07	-4.614124e-06	-2.160853e-08	-3.371909e+01	-1.413419e+03
2.700000e-07	-4.566402e-06	-2.150469e-08	-3.337035e+01	-1.409005e+03
2.800000e-07	-4.516716e-06	-2.136978e-08	-3.300726e+01	-1.404445e+03
2.900000e-07	-4.465006e-06	-2.133350e-08	-3.262937e+01	-1.399735e+03
3.000000e-07	-4.411513e-06	-2.129044e-08	-3.223845e+01	-1.394865e+03
3.100000e-07	-4.356507e-06	-2.120336e-08	-3.183648e+01	-1.389820e+03
3.200000e-07	-4.299903e-06	-2.111129e-08	-3.142283e+01	-1.384592e+03
3.300000e-07	-4.241489e-06	-2.103873e-08	-3.099595e+01	-1.379177e+03
3.400000e-07	-4.181467e-06	-2.092590e-08	-3.055732e+01	-1.373582e+03
3.500000e-07	-4.120060e-06	-2.083420e-08	-3.010857e+01	-1.367818e+03
3.600000e-07	-4.057342e-06	-2.076148e-08	-2.965024e+01	-1.361900e+03
3.700000e-07	-3.993321e-06	-2.066859e-08	-2.918238e+01	-1.355843e+03
3.800000e-07	-3.927767e-06	-2.058724e-08	-2.870333e+01	-1.349653e+03
3.900000e-07	-3.860522e-06	-2.047038e-08	-2.821192e+01	-1.343328e+03
4.000000e-07	-3.791838e-06	-2.035194e-08	-2.770999e+01	-1.336860e+03
4.100000e-07	-3.721946e-06	-2.027372e-08	-2.719923e+01	-1.330231e+03
4.200000e-07	-3.650909e-06	-2.017167e-08	-2.668011e+01	-1.323423e+03
4.300000e-07	-3.578693e-06	-2.005795e-08	-2.615237e+01	-1.316421e+03
4.400000e-07	-3.504990e-06	-1.994603e-08	-2.561376e+01	-1.309213e+03
4.500000e-07	-3.429703e-06	-1.983727e-08	-2.506358e+01	-1.301797e+03
4.600000e-07	-3.353113e-06	-1.971811e-08	-2.450388e+01	-1.294178e+03
4.700000e-07	-3.275282e-06	-1.959434e-08	-2.393510e+01	-1.286364e+03
4.800000e-07	-3.196105e-06	-1.947513e-08	-2.335649e+01	-1.278367e+03
4.900000e-07	-3.115602e-06	-1.934592e-08	-2.276820e+01	-1.270193e+03
5.000000e-07	-3.033926e-06	-1.921961e-08	-2.217133e+01	-1.261845e+03
5.100000e-07	-2.951274e-06	-1.908223e-08	-2.156732e+01	-1.253318e+03
5.200000e-07	-2.867752e-06	-1.894664e-08	-2.095696e+01	-1.244599e+03
5.300000e-07	-2.783436e-06	-1.881516e-08	-2.034079e+01	-1.235672e+03
5.400000e-07	-2.698216e-06	-1.867385e-08	-1.971802e+01	-1.226520e+03
5.500000e-07	-2.612028e-06	-1.852996e-08	-1.908818e+01	-1.217131e+03
5.600000e-07	-2.524947e-06	-1.838343e-08	-1.845181e+01	-1.207494e+03
5.700000e-07	-2.436963e-06	-1.823276e-08	-1.780883e+01	-1.197607e+03
5.800000e-07	-2.348014e-06	-1.807097e-08	-1.715881e+01	-1.187472e+03
5.900000e-07	-2.258054e-06	-1.790509e-08	-1.650140e+01	-1.177095e+03
6.000000e-07	-2.167121e-06	-1.773843e-08	-1.583688e+01	-1.166478e+03
6.100000e-07	-2.075388e-06	-1.757420e-08	-1.516652e+01	-1.155623e+03
6.200000e-07	-1.983009e-06	-1.740914e-08	-1.449143e+01	-1.144525e+03
6.300000e-07	-1.889937e-06	-1.723660e-08	-1.381128e+01	-1.133174e+03
6.400000e-07	-1.796120e-06	-1.705995e-08	-1.312569e+01	-1.121555e+03
6.500000e-07	-1.701741e-06	-1.687801e-08	-1.243598e+01	-1.109651e+03
6.600000e-07	-1.606893e-06	-1.668868e-08	-1.174285e+01	-1.097444e+03
6.700000e-07	-1.511532e-06	-1.649395e-08	-1.104597e+01	-1.084920e+03
6.800000e-07	-1.415613e-06	-1.629737e-08	-1.034502e+01	-1.072072e+03
6.900000e-07	-1.319118e-06	-1.609680e-08	-9.639850e+00	-1.058896e+03
7.000000e-07	-1.222085e-06	-1.589147e-08	-8.930751e+00	-1.045391e+03
7.100000e-07	-1.124543e-06	-1.567899e-08	-8.217934e+00	-1.031560e+03
7.200000e-07	-1.026581e-06	-1.546200e-08	-7.502047e+00	-1.017405e+03
7.300000e-07	-9.282743e-07	-1.524367e-08	-6.783642e+00	-1.002922e+03
7.400000e-07	-8.296187e-07	-1.502087e-08	-6.062687e+00	-9.881047e+02
7.500000e-07	-7.306118e-07	-1.479189e-08	-5.339164e+00	-9.729380e+02
7.600000e-07	-6.313040e-07	-1.455557e-08	-4.613443e+00	-9.574013e+02
7.700000e-07	-5.317636e-07	-1.431176e-08	-3.886022e+00	-9.414685e+02
7.800000e-07	-4.320520e-07	-1.405918e-08	-3.157350e+00	-9.251094e+02
7.900000e-07	-3.322120e-07	-1.380084e-08	-2.427738e+00	-9.082915e+02
8.000000e-07	-2.322682e-07	-1.353836e-08	-1.697369e+00	-8.909813e+02
8.100000e-07	-1.322065e-07	-1.327000e-08	-9.661382e-01	-8.731450e+02
8.200000e-07	-3.209545e-08	-1.299422e-08	-2.345471e-01	-8.547492e+02
8.300000e-07	6.799355e-08	-1.270810e-08	4.968832e-01	-8.357606e+02
8.400000e-07	1.680770e-07	-1.241008e-08	1.228273e+00	-8.161451e+02
8.500000e-07	2.681171e-07	-1.209958e-08	1.959346e+00	-7.958673e+02
8.600000e-07	3.680854e-07	-1.177786e-08	2.689894e+00	-7.748886e+02
8.700000e-07	4.680222e-07	-1.144558e-08	3.420212e+00	-7.531665e+02
8.800000e-07	5.678937e-07	-1.110286e-08	4.150053e+00	-7.306526e+02
8.900000e-07	6.676247e-07	-1.074755e-08	4.878867e+00	-7.072910e+02
9.000000e-07	7.670930e-07	-1.037605e-08	5.605761e+00	-6.830174e+02
9.100000e-07	8.661884e-07	-9.987990e-09	6.329931e+00	-6.577575e+02
9.200000e-07	9.649472e-07	-9.584965e-09	7.051640e+00	-6.314272e+02
9.300000e-07	1.063308e-06	-9.167355e-09	7.770442e+00	-6.039320e+02
9.400000e-07	1.161237e-06	-8.731346e-09	8.486085e+00	-5.751686e+02
9.500000e-07	1.258671e-06	-8.273017e-09	9.198111e+00	-5.450252e+02
9.600000e-07	1.355493e-06	-7.790829e-09	9.905671e+00	-5.133836e+02
9.700000e-07	1.451692e-06	-7.283246e-09	1.060868e+01	-4.801198e+02
9.800000e-07	1.547245e-06	-6.745492e-09	1.130696e+01	-4.451055e+02
9.900000e-07	1.642212e-06	-6.178835e-09	1.200096e+01	-4.082082e+02
1.000000e-06	1.736675e-06	-5.584344e-09	1.269127e+01	-3.692930e+02
1.010000e-06	1.830608e-06	-4.958265e-09	1.337772e+01	-3.282240e+02
1.020000e-06	1.923883e-06	-4.297643e-09	1.405935e+01	-2.848685e+02
1.030000e-06	2.016536e-06	-3.599662e-09	1.473644e+01	-2.391039e+02
1.040000e-06	2.108615e-06	-2.862642e-09	1.540934e+01	-1.908273e+02
1.050000e-06	2.200007e-06	-2.083560e-09	1.607721e+01	-1.399694e+02
1.060000e-06	2.290556e-06	-1.263821e-09	1.673892e+01	-8.650958e+01
1.070000e-06	2.380076e-06	-4.068095e-10	1.739312e+01	-3.049213e+01
1.080000e-06	2.468551e-06	4.857240e-10	1.803968e+01	2.795906e+01
1.090000e-06	2.556111e-06	1.411744e-09	1.867954e+01	8.863032e+01
1.100000e-06	2.642854e-06	2.367107e-09	1.931344e+01	1.512143e+02
1.110000e-06	2.728772e-06	3.343829e-09	1.994132e+01	2.153139e+02
1.120000e-06	2.813806e-06	4.336426e-09	2.056273e+01	2.804556e+02
1.130000e-06	2.897959e-06	5.336014e-09	2.117771e+01	3.461088e+02
1.140000e-06	2.981283e-06	6.335301e-09	2.178662e+01	4.117125e+02
1.150000e-06	3.063618e-06	7.325389e-09	2.238830e+01	4.767036e+02
1.160000e-06	3.144720e-06	8.297882e-09	2.298098e+01	5.405450e+02
1.170000e-06	3.224614e-06	9.243854e-09	2.356483e+01	6.027495e+02
1.180000e-06	3.303361e-06	1.015633e-08	2.414030e+01	6.628983e+02
1.190000e-06	3.380929e-06	1.103133e-08	2.470715e+01	7.206517e+02
1.200000e-06	3.457372e-06	1.186561e-08	2.526578e+01	7.757523e+02
1.210000e-06	3.532645e-06	1.265583e-08	2.581586e+01	8.280221e+02
1.220000e-06	3.606370e-06	1.340082e-08	2.635463e+01	8.773551e+02
1.230000e-06	3.678497e-06	1.410275e-08	2.688172e+01	9.237074e+02
1.240000e-06	3.749321e-06	1.476019e-08	2.739928e+01	9.670868e+02
1.250000e-06	3.818872e-06	1.537268e-08	2.790755e+01	1.007543e+03
1.260000e-06	3.887142e-06	1.594106e-08	2.840646e+01	1.045160e+03
1.270000e-06	3.954086e-06	1.646657e-08	2.889566e+01	1.080049e+03
1.280000e-06	4.019444e-06	1.695049e-08	2.937329e+01	1.112344e+03
1.290000e-06	4.083251e-06	1.739794e-08	2.983958e+01	1.142193e+03
1.300000e-06	4.145641e-06	1.781289e-08	3.029551e+01	1.169758e+03
1.310000e-06	4.206592e-06	1.819829e-08	3.074093e+01	1.195203e+03
1.320000e-06	4.266216e-06	1.855412e-08	3.117665e+01	1.218694e+03
1.330000e-06	4.324354e-06	1.888341e-08	3.160151e+01	1.240389e+03
1.340000e-06	4.380696e-06	1.918724e-08	3.201325e+01	1.260434e+03
1.350000e-06	4.435368e-06	1.946518e-08	3.241278e+01	1.278965e+03
1.360000e-06	4.488501e-06	1.972027e-08	3.280107e+01	1.296101e+03
1.370000e-06	4.539894e-06	1.995598e-08	3.317664e+01	1.311947e+03
1.380000e-06	4.589317e-06	2.017481e-08	3.353781e+01	1.326600e+03
1.390000e-06	4.636883e-06	2.037650e-08	3.388541e+01	1.340144e+03
1.400000e-06	4.682816e-06	2.056199e-08	3.422108e+01	1.352662e+03
1.410000e-06	4.727228e-06	2.073658e-08	3.454563e+01	1.364229e+03
1.420000e-06	4.770084e-06	2.090218e-08	3.485882e+01	1.374914e+03
1.430000e-06	4.811110e-06	2.105535e-08	3.515863e+01	1.384783e+03
1.440000e-06	4.850358e-06	2.119323e-08	3.544544e+01	1.393896e+03
1.450000e-06	4.888010e-06	2.131878e-08	3.572060e+01	1.402303e+03
1.460000e-06	4.924150e-06	2.143506e-08	3.598470e+01	1.410051e+03
1.470000e-06	4.958561e-06	2.154130e-08	3.623617e+01	1.417179e+03
1.480000e-06	4.991011e-06	2.163888e-08	3.647331e+01	1.423723e+03
1.490000e-06	5.021671e-06	2.172846e-08	3.669736e+01	1.429718e+03
1.500000e-06	5.050713e-06	2.181036e-08	3.690959e+01	1.435199e+03
1.510000e-06	5.078135e-06	2.188643e-08	3.710999e+01	1.440203e+03
1.520000e-06	5.103592e-06	2.195800e-08	3.729602e+01	1.444766e+03
1.530000e-06	5.127032e-06	2.202384e-08	3.746732e+01	1.448922e+03
1.540000e-06	5.148702e-06	2.208330e-08	3.762568e+01	1.452701e+03
1.550000e-06	5.168742e-06	2.213619e-08	3.777213e+01	1.456125e+03
1.560000e-06	5.187026e-06	2.218151e-08	3.790574e+01	1.459208e+03
1.570000e-06	5.203271e-06	2.222031e-08	3.802446e+01	1.461955e+03
1.580000e-06	5.217580e-06	2.225482e-08	3.812903e+01	1.464366e+03
1.590000e-06	5.230010e-06	2.228554e-08	3.821986e+01	1.466440e+03
1.600000e-06	5.240274e-06	2.231205e-08	3.829487e+01	1.468180e+03
1.610000e-06	5.248391e-06	2.233345e-08	3.835418e+01	1.469596e+03
1.620000e-06	5.254701e-06	2.235091e-08	3.840030e+01	1.470705e+03
1.630000e-06	5.259311e-06	2.236480e-08	3.843398e+01	1.471538e+03
1.640000e-06	5.262094e-06	2.237528e-08	3.845433e+01	1.472126e+03
1.650000e-06	5.262871e-06	2.238486e-08	3.846000e+01	1.472503e+03
1.660000e-06	5.261761e-06	2.238840e-08	3.845189e+01	1.472694e+03
1.670000e-06	5.259027e-06	2.238748e-08	3.843191e+01	1.472714e+03
1.680000e-06	5.254766e-06	2.238483e-08	3.840078e+01	1.472562e+03
1.690000e-06	5.248741e-06	2.237779e-08	3.835675e+01	1.472221e+03
1.700000e-06	5.240860e-06	2.236931e-08	3.829915e+01	1.471670e+03
1.710000e-06	5.231416e-06	2.235981e-08	3.823013e+01	1.470882e+03
1.720000e-06	5.220440e-06	2.235421e-08	3.814992e+01	1.469839e+03
1.730000e-06	5.207690e-06	2.235520e-08	3.805675e+01	1.468537e+03
1.740000e-06	5.192911e-06	2.228457e-08	3.794875e+01	1.466993e+03
1.750000e-06	5.175945e-06	2.224105e-08	3.782476e+01	1.465240e+03
1.760000e-06	5.156564e-06	2.224310e-08	3.768314e+01	1.463328e+03
1.770000e-06	5.134649e-06	2.221030e-08	3.752298e+01	1.461313e+03
1.780000e-06	5.110880e-06	2.226462e-08	3.734928e+01	1.459243e+03
1.790000e-06	5.086245e-06	2.218757e-08	3.716926e+01	1.457155e+03
1.800000e-06	5.060747e-06	2.205748e-08	3.698293e+01	1.455061e+03
1.810000e-06	5.033490e-06	2.218327e-08	3.678373e+01	1.452948e+03
1.820000e-06	5.004262e-06	2.207475e-08	3.657014e+01	1.450779e+03
1.830000e-06	4.973310e-06	2.196982e-08	3.634395e+01	1.448501e+03
1.840000e-06	4.940446e-06	2.213962e-08	3.610379e+01	1.446058e+03
1.850000e-06	4.905873e-06	2.200245e-08	3.585113e+01	1.443395e+03
1.860000e-06	4.869761e-06	2.192380e-08	3.558723e+01	1.440474e+03
1.870000e-06	4.831698e-06	2.197523e-08	3.530908e+01	1.437275e+03
1.880000e-06	4.791850e-06	2.181923e-08	3.501788e+01	1.433803e+03
1.890000e-06	4.750380e-06	2.185587e-08	3.471482e+01	1.430075e+03
1.900000e-06	4.707141e-06	2.176192e-08	3.439884e+01	1.426123e+03
1.910000e-06	4.662303e-06	2.157558e-08	3.407118e+01	1.421978e+03
1.920000e-06	4.615676e-06	2.170180e-08	3.373043e+01	1.417667e+03
1.930000e-06	4.567358e-06	2.161068e-08	3.337733e+01	1.413207e+03
1.940000e-06	4.517453e-06	2.146729e-08	3.301264e+01	1.408600e+03
1.950000e-06	4.465675e-06	2.141206e-08	3.263426e+01	1.403841e+03
1.960000e-06	4.411979e-06	2.132804e-08	3.224185e+01	1.398917e+03
1.970000e-06	4.356402e-06	2.129157e-08	3.183571e+01	1.393814e+03
1.980000e-06	4.299176e-06	2.114887e-08	3.141751e+01	1.388527e+03
1.990000e-06	4.240511e-06	2.111003e-08	3.098880e+01	1.383054e+03
2.000000e-06	4.180499e-06	2.106921e-08	3.055024e+01	1.377403e+03
2.010000e-06	4.119036e-06	2.091935e-08	3.010109e+01	1.371589e+03
2.020000e-06	4.055831e-06	2.083586e-08	2.963920e+01	1.365626e+03
2.030000e-06	3.991062e-06	2.072046e-08	2.916588e+01	1.359526e+03
2.040000e-06	3.924980e-06	2.068444e-08	2.868297e+01	1.353294e+03
2.050000e-06	3.857593e-06	2.058272e-08	2.819052e+01	1.346926e+03
2.060000e-06	3.788850e-06	2.042893e-08	2.768816e+01	1.340408e+03
2.070000e-06	3.718545e-06	2.037282e-08	2.717438e+01	1.333725e+03
2.080000e-06	3.646799e-06	2.025891e-08	2.665007e+01	1.326857e+03
2.090000e-06	3.573812e-06	2.014878e-08	2.611670e+01	1.319790e+03
2.100000e-06	3.499629e-06	2.001968e-08	2.557458e+01	1.312516e+03
2.110000e-06	3.424204e-06	1.992025e-08	2.502339e+01	1.305035e+03
2.120000e-06	3.347330e-06	1.982993e-08	2.446161e+01	1.297352e+03
2.130000e-06	3.269042e-06	1.968676e-08	2.388950e+01	1.289479e+03
2.140000e-06	3.189470e-06	1.956451e-08	2.330800e+01	1.281425e+03
2.150000e-06	3.108782e-06	1.943596e-08	2.271835e+01	1.273196e+03
2.160000e-06	3.027024e-06	1.932581e-08	2.212088e+01	1.264793e+03
2.170000e-06	2.944239e-06	1.918984e-08	2.151591e+01	1.256206e+03
2.180000e-06	2.860520e-06	1.904935e-08	2.090410e+01	1.247422e+03
2.190000e-06	2.775806e-06	1.892643e-08	2.028503e+01	1.238426e+03
2.200000e-06	2.689993e-06	1.878375e-08	1.965793e+01	1.229200e+03
2.210000e-06	2.602947e-06	1.863765e-08	1.902181e+01	1.219732e+03
2.220000e-06	2.514846e-06	1.848347e-08	1.837799e+01	1.210016e+03
2.230000e-06	2.425940e-06	1.834224e-08	1.772828e+01	1.200050e+03
2.240000e-06	2.336262e-06	1.819194e-08	1.707294e+01	1.189837e+03
2.250000e-06	2.245811e-06	1.803219e-08	1.641194e+01	1.179383e+03
2.260000e-06	2.154642e-06	1.786776e-08	1.574569e+01	1.168690e+03
2.270000e-06	2.062816e-06	1.770407e-08	1.507465e+01	1.157759e+03
2.280000e-06	1.970282e-06	1.754091e-08	1.439843e+01	1.146582e+03
2.290000e-06	1.876985e-06	1.736196e-08	1.371663e+01	1.135147e+03
2.300000e-06	1.782901e-06	1.718107e-08	1.302908e+01	1.123439e+03
2.310000e-06	1.688052e-06	1.700167e-08	1.233595e+01	1.111440e+03
2.320000e-06	1.592567e-06	1.681935e-08	1.163816e+01	1.099133e+03
2.330000e-06	1.496532e-06	1.662594e-08	1.093636e+01	1.086507e+03
2.340000e-06	1.400035e-06	1.642635e-08	1.023117e+01	1.073554e+03
2.350000e-06	1.303154e-06	1.622442e-08	9.523187e+00	1.060273e+03
2.360000e-06	1.205876e-06	1.601721e-08	8.812299e+00	1.046664e+03
2.370000e-06	1.108199e-06	1.580430e-08	8.098493e+00	1.032730e+03
2.380000e-06	1.010213e-06	1.558785e-08	7.382435e+00	1.018470e+03
2.390000e-06	9.119412e-07	1.536813e-08	6.664283e+00	1.003882e+03
2.400000e-06	8.133522e-07	1.513992e-08	5.943814e+00	9.889545e+02
2.410000e-06	7.145268e-07	1.490399e-08	5.221618e+00	9.736721e+02
2.420000e-06	6.155318e-07	1.466535e-08	4.498183e+00	9.580119e+02
2.430000e-06	5.164035e-07	1.442283e-08	3.773773e+00	9.419462e+02
2.440000e-06	4.171699e-07	1.417176e-08	3.048594e+00	9.254440e+02
2.450000e-06	3.178373e-07	1.390999e-08	2.322691e+00	9.084723e+02
2.460000e-06	2.183973e-07	1.363698e-08	1.596004e+00	8.909973e+02
2.470000e-06	1.188433e-07	1.335850e-08	8.684830e-01	8.729856e+02
2.480000e-06	1.917164e-08	1.307611e-08	1.401025e-01	8.544037e+02
2.490000e-06	-8.051329e-08	1.278525e-08	-5.883750e-01	8.352180e+02
2.500000e-06	-1.801202e-07	1.248423e-08	-1.316282e+00	8.153944e+02
2.510000e-06	-2.797149e-07	1.217152e-08	-2.044100e+00	7.948964e+02
2.520000e-06	-3.792498e-07	1.184714e-08	-2.771481e+00	7.736844e+02
2.530000e-06	-4.786949e-07	1.151005e-08	-3.498206e+00	7.517141e+02
2.540000e-06	-5.780342e-07	1.115966e-08	-4.224158e+00	7.289349e+02
2.550000e-06	-6.771882e-07	1.079652e-08	-4.948755e+00	7.052884e+02
2.560000e-06	-7.761612e-07	1.042094e-08	-5.672030e+00	6.807070e+02
2.570000e-06	-8.749302e-07	1.003215e-08	-6.393814e+00	6.551135e+02
2.580000e-06	-9.733751e-07	9.628646e-09	-7.113230e+00	6.284203e+02
2.590000e-06	-1.071419e-06	9.206247e-09	-7.829712e+00	6.005299e+02
2.600000e-06	-1.169057e-06	8.760077e-09	-8.543234e+00	5.713362e+02
2.610000e-06	-1.266279e-06	8.291228e-09	-9.253714e+00	5.407251e+02
2.620000e-06	-1.363146e-06	7.799317e-09	-9.961595e+00	5.085766e+02
2.630000e-06	-1.459612e-06	7.282555e-09	-1.066655e+01	4.747650e+02
2.640000e-06	-1.555580e-06	6.738586e-09	-1.136787e+01	4.391608e+02
2.650000e-06	-1.650994e-06	6.164495e-09	-1.206513e+01	4.016305e+02
2.660000e-06	-1.745773e-06	5.559790e-09	-1.275776e+01	3.620385e+02
2.670000e-06	-1.839813e-06	4.923419e-09	-1.344498e+01	3.202494e+02
2.680000e-06	-1.932928e-06	4.253154e-09	-1.412545e+01	2.761329e+02
2.690000e-06	-2.025160e-06	3.546467e-09	-1.479947e+01	2.295715e+02
2.700000e-06	-2.116712e-06	2.802066e-09	-1.546851e+01	1.804715e+02
2.710000e-06	-2.207619e-06	2.016172e-09	-1.613284e+01	1.287775e+02
2.720000e-06	-2.297763e-06	1.186976e-09	-1.679159e+01	7.448790e+01
2.730000e-06	-2.387005e-06	3.191698e-10	-1.744375e+01	1.767124e+01
2.740000e-06	-2.475460e-06	-5.824474e-10	-1.809016e+01	-4.152061e+01
2.750000e-06	-2.563261e-06	-1.516225e-09	-1.873179e+01	-1.028439e+02
2.760000e-06	-2.650207e-06	-2.479773e-09	-1.936718e+01	-1.659616e+02
2.770000e-06	-2.735996e-06	-3.464738e-09	-1.999411e+01	-2.304504e+02
2.780000e-06	-2.820597e-06	-4.461096e-09	-2.061236e+01	-2.958156e+02
2.790000e-06	-2.904240e-06	-5.461349e-09	-2.122360e+01	-3.615140e+02
2.800000e-06	-2.987012e-06	-6.461113e-09	-2.182848e+01	-4.269808e+02
2.810000e-06	-3.068774e-06	-7.451440e-09	-2.242599e+01	-4.916582e+02
2.820000e-06	-3.149508e-06	-8.420536e-09	-2.301597e+01	-5.550229e+02
2.830000e-06	-3.229265e-06	-9.362496e-09	-2.359882e+01	-6.166079e+02
2.840000e-06	-3.307794e-06	-1.027275e-08	-2.417269e+01	-6.760192e+02
2.850000e-06	-3.384875e-06	-1.114731e-08	-2.473598e+01	-7.329433e+02
2.860000e-06	-3.460542e-06	-1.198127e-08	-2.528895e+01	-7.871490e+02
2.870000e-06	-3.534856e-06	-1.276960e-08	-2.583201e+01	-8.384825e+02
2.880000e-06	-3.607920e-06	-1.351306e-08	-2.636595e+01	-8.868588e+02
2.890000e-06	-3.679758e-06	-1.421039e-08	-2.689093e+01	-9.322517e+02
2.900000e-06	-3.750200e-06	-1.485971e-08	-2.740571e+01	-9.746836e+02
2.910000e-06	-3.819065e-06	-1.546708e-08	-2.790896e+01	-1.014216e+03
2.920000e-06	-3.886547e-06	-1.603690e-08	-2.840211e+01	-1.050942e+03
2.930000e-06	-3.952762e-06	-1.656498e-08	-2.888599e+01	-1.084981e+03
2.940000e-06	-4.017627e-06	-1.704997e-08	-2.936001e+01	-1.116472e+03
