# Temperatura_=_79.32
# Concentracion g/m^3_=_26700.0
# C_Vs_to_Am_M_A/Vsm_=_65563218390.804596
# pendiente_HvsI_1/m_=_3716.3
# ordenada_HvsI_A/m_=_1297.0
# frecuencia_Hz_=_301766.9613577563

Tiempo_(s)	Campo_(V.s)	Magnetizacion_(V.s)	Campo_(kA/m)	Magnetizacion_(A/m)
0.000000e+00	-5.234363e-06	-2.169204e-08	-3.830750e+01	-1.416109e+03
1.000000e-08	-5.232393e-06	-2.169556e-08	-3.829309e+01	-1.416200e+03
2.000000e-08	-5.228583e-06	-2.169016e-08	-3.826521e+01	-1.416110e+03
3.000000e-08	-5.223207e-06	-2.168311e-08	-3.822586e+01	-1.415833e+03
4.000000e-08	-5.216289e-06	-2.167453e-08	-3.817523e+01	-1.415354e+03
5.000000e-08	-5.207771e-06	-2.166086e-08	-3.811289e+01	-1.414655e+03
6.000000e-08	-5.197278e-06	-2.164192e-08	-3.803610e+01	-1.413721e+03
7.000000e-08	-5.184828e-06	-2.161324e-08	-3.794499e+01	-1.412545e+03
8.000000e-08	-5.170462e-06	-2.157988e-08	-3.783985e+01	-1.411134e+03
9.000000e-08	-5.153858e-06	-2.160068e-08	-3.771833e+01	-1.409513e+03
1.000000e-07	-5.135109e-06	-2.159356e-08	-3.758112e+01	-1.407720e+03
1.100000e-07	-5.114483e-06	-2.152782e-08	-3.743017e+01	-1.405802e+03
1.200000e-07	-5.092149e-06	-2.149885e-08	-3.726672e+01	-1.403805e+03
1.300000e-07	-5.068363e-06	-2.142161e-08	-3.709264e+01	-1.401772e+03
1.400000e-07	-5.043137e-06	-2.134326e-08	-3.690803e+01	-1.399724e+03
1.500000e-07	-5.016237e-06	-2.144609e-08	-3.671116e+01	-1.397664e+03
1.600000e-07	-4.987720e-06	-2.134089e-08	-3.650246e+01	-1.395571e+03
1.700000e-07	-4.957876e-06	-2.123506e-08	-3.628405e+01	-1.393405e+03
1.800000e-07	-4.926416e-06	-2.133180e-08	-3.605381e+01	-1.391110e+03
1.900000e-07	-4.892794e-06	-2.116685e-08	-3.580775e+01	-1.388631e+03
2.000000e-07	-4.857423e-06	-2.110903e-08	-3.554889e+01	-1.385913e+03
2.100000e-07	-4.820628e-06	-2.117665e-08	-3.527960e+01	-1.382922e+03
2.200000e-07	-4.782108e-06	-2.102941e-08	-3.499769e+01	-1.379636e+03
2.300000e-07	-4.741837e-06	-2.098865e-08	-3.470297e+01	-1.376060e+03
2.400000e-07	-4.699653e-06	-2.094978e-08	-3.439425e+01	-1.372211e+03
2.500000e-07	-4.655577e-06	-2.081340e-08	-3.407168e+01	-1.368118e+03
2.600000e-07	-4.609814e-06	-2.083497e-08	-3.373676e+01	-1.363815e+03
2.700000e-07	-4.562287e-06	-2.074486e-08	-3.338894e+01	-1.359331e+03
2.800000e-07	-4.512773e-06	-2.060882e-08	-3.302657e+01	-1.354686e+03
2.900000e-07	-4.461185e-06	-2.057005e-08	-3.264903e+01	-1.349890e+03
3.000000e-07	-4.407827e-06	-2.051242e-08	-3.225853e+01	-1.344942e+03
3.100000e-07	-4.352925e-06	-2.042248e-08	-3.185673e+01	-1.339833e+03
3.200000e-07	-4.296417e-06	-2.033308e-08	-3.144318e+01	-1.334554e+03
3.300000e-07	-4.238149e-06	-2.026232e-08	-3.101675e+01	-1.329096e+03
3.400000e-07	-4.178296e-06	-2.015555e-08	-3.057871e+01	-1.323456e+03
3.500000e-07	-4.117060e-06	-2.005964e-08	-3.013056e+01	-1.317638e+03
3.600000e-07	-4.054442e-06	-1.998103e-08	-2.967230e+01	-1.311648e+03
3.700000e-07	-3.990534e-06	-1.988077e-08	-2.920458e+01	-1.305496e+03
3.800000e-07	-3.925171e-06	-1.980149e-08	-2.872623e+01	-1.299190e+03
3.900000e-07	-3.858158e-06	-1.969173e-08	-2.823579e+01	-1.292733e+03
4.000000e-07	-3.789691e-06	-1.956778e-08	-2.773473e+01	-1.286120e+03
4.100000e-07	-3.719995e-06	-1.948851e-08	-2.722466e+01	-1.279341e+03
4.200000e-07	-3.649115e-06	-1.938193e-08	-2.670592e+01	-1.272382e+03
4.300000e-07	-3.577130e-06	-1.926532e-08	-2.617911e+01	-1.265228e+03
4.400000e-07	-3.503686e-06	-1.915072e-08	-2.564160e+01	-1.257866e+03
4.500000e-07	-3.428509e-06	-1.903871e-08	-2.509142e+01	-1.250289e+03
4.600000e-07	-3.351961e-06	-1.891728e-08	-2.453121e+01	-1.242496e+03
4.700000e-07	-3.274271e-06	-1.878781e-08	-2.396264e+01	-1.234493e+03
4.800000e-07	-3.195322e-06	-1.866765e-08	-2.338485e+01	-1.226290e+03
4.900000e-07	-3.114977e-06	-1.853734e-08	-2.279685e+01	-1.217897e+03
5.000000e-07	-3.033491e-06	-1.840888e-08	-2.220050e+01	-1.209319e+03
5.100000e-07	-2.951022e-06	-1.826842e-08	-2.159695e+01	-1.200559e+03
5.200000e-07	-2.867600e-06	-1.813039e-08	-2.098643e+01	-1.191608e+03
5.300000e-07	-2.783403e-06	-1.799538e-08	-2.037024e+01	-1.182457e+03
5.400000e-07	-2.698344e-06	-1.784835e-08	-1.974774e+01	-1.173090e+03
5.500000e-07	-2.612340e-06	-1.769655e-08	-1.911832e+01	-1.163490e+03
5.600000e-07	-2.525478e-06	-1.754271e-08	-1.848262e+01	-1.153645e+03
5.700000e-07	-2.437774e-06	-1.738921e-08	-1.784076e+01	-1.143547e+03
5.800000e-07	-2.349150e-06	-1.722799e-08	-1.719218e+01	-1.133193e+03
5.900000e-07	-2.259452e-06	-1.706320e-08	-1.653572e+01	-1.122587e+03
6.000000e-07	-2.168714e-06	-1.689545e-08	-1.587166e+01	-1.111731e+03
6.100000e-07	-2.077174e-06	-1.672843e-08	-1.520173e+01	-1.100631e+03
6.200000e-07	-1.984965e-06	-1.655728e-08	-1.452690e+01	-1.089287e+03
6.300000e-07	-1.892033e-06	-1.637786e-08	-1.384678e+01	-1.077694e+03
6.400000e-07	-1.798376e-06	-1.619566e-08	-1.316135e+01	-1.065841e+03
6.500000e-07	-1.704095e-06	-1.600930e-08	-1.247136e+01	-1.053713e+03
6.600000e-07	-1.609286e-06	-1.581649e-08	-1.177751e+01	-1.041292e+03
6.700000e-07	-1.513996e-06	-1.561794e-08	-1.108013e+01	-1.028562e+03
6.800000e-07	-1.418245e-06	-1.541770e-08	-1.037938e+01	-1.015509e+03
6.900000e-07	-1.322032e-06	-1.521471e-08	-9.675248e+00	-1.002125e+03
7.000000e-07	-1.225290e-06	-1.500757e-08	-8.967241e+00	-9.884072e+02
7.100000e-07	-1.127972e-06	-1.479355e-08	-8.255024e+00	-9.743548e+02
7.200000e-07	-1.030149e-06	-1.457475e-08	-7.539110e+00	-9.599695e+02
7.300000e-07	-9.319461e-07	-1.435175e-08	-6.820416e+00	-9.452509e+02
7.400000e-07	-8.333724e-07	-1.412245e-08	-6.099007e+00	-9.301935e+02
7.500000e-07	-7.344327e-07	-1.388669e-08	-5.374920e+00	-9.147848e+02
7.600000e-07	-6.352011e-07	-1.364407e-08	-4.648698e+00	-8.990048e+02
7.700000e-07	-5.357405e-07	-1.339663e-08	-3.920799e+00	-8.828263e+02
7.800000e-07	-4.361133e-07	-1.314298e-08	-3.191680e+00	-8.662166e+02
7.900000e-07	-3.363866e-07	-1.288366e-08	-2.461834e+00	-8.491405e+02
8.000000e-07	-2.365811e-07	-1.261788e-08	-1.731410e+00	-8.315621e+02
8.100000e-07	-1.367113e-07	-1.234521e-08	-1.000517e+00	-8.134468e+02
8.200000e-07	-3.681529e-08	-1.206432e-08	-2.694315e-01	-7.947621e+02
8.300000e-07	6.311436e-08	-1.177239e-08	4.619003e-01	-7.754777e+02
8.400000e-07	1.630543e-07	-1.146843e-08	1.193307e+00	-7.555631e+02
8.500000e-07	2.629727e-07	-1.115342e-08	1.924557e+00	-7.349868e+02
8.600000e-07	3.628445e-07	-1.082807e-08	2.655465e+00	-7.137129e+02
8.700000e-07	4.626443e-07	-1.049156e-08	3.385847e+00	-6.916997e+02
8.800000e-07	5.623675e-07	-1.014531e-08	4.115667e+00	-6.688976e+02
8.900000e-07	6.619527e-07	-9.786810e-09	4.844478e+00	-6.452487e+02
9.000000e-07	7.613074e-07	-9.412211e-09	5.571602e+00	-6.206868e+02
9.100000e-07	8.604149e-07	-9.019378e-09	6.296917e+00	-5.951373e+02
9.200000e-07	9.592236e-07	-8.612621e-09	7.020045e+00	-5.685188e+02
9.300000e-07	1.057562e-06	-8.192803e-09	7.739732e+00	-5.407436e+02
9.400000e-07	1.155379e-06	-7.753014e-09	8.455603e+00	-5.117184e+02
9.500000e-07	1.252640e-06	-7.290119e-09	9.167402e+00	-4.813456e+02
9.600000e-07	1.349265e-06	-6.805585e-09	9.874548e+00	-4.495227e+02
9.700000e-07	1.445316e-06	-6.298190e-09	1.057749e+01	-4.161438e+02
9.800000e-07	1.540765e-06	-5.761173e-09	1.127603e+01	-3.810991e+02
9.900000e-07	1.635628e-06	-5.196001e-09	1.197029e+01	-3.442773e+02
1.000000e-06	1.730018e-06	-4.604515e-09	1.266108e+01	-3.055673e+02
1.010000e-06	1.823858e-06	-3.983865e-09	1.334784e+01	-2.648625e+02
1.020000e-06	1.917027e-06	-3.332070e-09	1.402970e+01	-2.220665e+02
1.030000e-06	2.009547e-06	-2.648288e-09	1.470680e+01	-1.771008e+02
1.040000e-06	2.101520e-06	-1.931986e-09	1.537990e+01	-1.299141e+02
1.050000e-06	2.192907e-06	-1.178581e-09	1.604871e+01	-8.049322e+01
1.060000e-06	2.283388e-06	-3.880203e-10	1.671090e+01	-2.887368e+01
1.070000e-06	2.372722e-06	4.346217e-10	1.736468e+01	2.484986e+01
1.080000e-06	2.461025e-06	1.285806e-09	1.801093e+01	8.051597e+01
1.090000e-06	2.548488e-06	2.163196e-09	1.865102e+01	1.378922e+02
1.100000e-06	2.635160e-06	3.061067e-09	1.928533e+01	1.966758e+02
1.110000e-06	2.720944e-06	3.972354e-09	1.991314e+01	2.564998e+02
1.120000e-06	2.805834e-06	4.892950e-09	2.053440e+01	3.169447e+02
1.130000e-06	2.889940e-06	5.816111e-09	2.114993e+01	3.775554e+02
1.140000e-06	2.973278e-06	6.734669e-09	2.175983e+01	4.378608e+02
1.150000e-06	3.055610e-06	7.640551e-09	2.236237e+01	4.973954e+02
1.160000e-06	3.136696e-06	8.526809e-09	2.295581e+01	5.557205e+02
1.170000e-06	3.216621e-06	9.386906e-09	2.354073e+01	6.124416e+02
1.180000e-06	3.295420e-06	1.021936e-08	2.411742e+01	6.672224e+02
1.190000e-06	3.373008e-06	1.101943e-08	2.468525e+01	7.197926e+02
1.200000e-06	3.449389e-06	1.178067e-08	2.524423e+01	7.699501e+02
1.210000e-06	3.524496e-06	1.250044e-08	2.579390e+01	8.175584e+02
1.220000e-06	3.598057e-06	1.317915e-08	2.633226e+01	8.625405e+02
1.230000e-06	3.670089e-06	1.381808e-08	2.685942e+01	9.048697e+02
1.240000e-06	3.740839e-06	1.441804e-08	2.737720e+01	9.445609e+02
1.250000e-06	3.810266e-06	1.497980e-08	2.788530e+01	9.816619e+02
1.260000e-06	3.878467e-06	1.550141e-08	2.838442e+01	1.016247e+03
1.270000e-06	3.945477e-06	1.598377e-08	2.887483e+01	1.048409e+03
1.280000e-06	4.010881e-06	1.642990e-08	2.935349e+01	1.078261e+03
1.290000e-06	4.074568e-06	1.684582e-08	2.981958e+01	1.105927e+03
1.300000e-06	4.136821e-06	1.723396e-08	3.027518e+01	1.131541e+03
1.310000e-06	4.197752e-06	1.759419e-08	3.072110e+01	1.155246e+03
1.320000e-06	4.257436e-06	1.792799e-08	3.115790e+01	1.177185e+03
1.330000e-06	4.315609e-06	1.823850e-08	3.158364e+01	1.197502e+03
1.340000e-06	4.371965e-06	1.852301e-08	3.199608e+01	1.216331e+03
1.350000e-06	4.426709e-06	1.878192e-08	3.239672e+01	1.233798e+03
1.360000e-06	4.479928e-06	1.902177e-08	3.278620e+01	1.250014e+03
1.370000e-06	4.531307e-06	1.924561e-08	3.316221e+01	1.265075e+03
1.380000e-06	4.580644e-06	1.945327e-08	3.352329e+01	1.279063e+03
1.390000e-06	4.628224e-06	1.964554e-08	3.387150e+01	1.292049e+03
1.400000e-06	4.674210e-06	1.982581e-08	3.420805e+01	1.304094e+03
1.410000e-06	4.718643e-06	1.999631e-08	3.453323e+01	1.315250e+03
1.420000e-06	4.761493e-06	2.015673e-08	3.484683e+01	1.325570e+03
1.430000e-06	4.802443e-06	2.030460e-08	3.514652e+01	1.335104e+03
1.440000e-06	4.841628e-06	2.043766e-08	3.543329e+01	1.343900e+03
1.450000e-06	4.879286e-06	2.055755e-08	3.570888e+01	1.352008e+03
1.460000e-06	4.915402e-06	2.066656e-08	3.597320e+01	1.359478e+03
1.470000e-06	4.949773e-06	2.076564e-08	3.622474e+01	1.366358e+03
1.480000e-06	4.982201e-06	2.085895e-08	3.646207e+01	1.372693e+03
1.490000e-06	5.012885e-06	2.094866e-08	3.668663e+01	1.378525e+03
1.500000e-06	5.041975e-06	2.103244e-08	3.689952e+01	1.383893e+03
1.510000e-06	5.069437e-06	2.110923e-08	3.710050e+01	1.388830e+03
1.520000e-06	5.094950e-06	2.117928e-08	3.728722e+01	1.393367e+03
1.530000e-06	5.118437e-06	2.124360e-08	3.745911e+01	1.397525e+03
1.540000e-06	5.140137e-06	2.130130e-08	3.761792e+01	1.401322e+03
1.550000e-06	5.160225e-06	2.135241e-08	3.776493e+01	1.404768e+03
1.560000e-06	5.178590e-06	2.139751e-08	3.789933e+01	1.407871e+03
1.570000e-06	5.194951e-06	2.143674e-08	3.801907e+01	1.410631e+03
1.580000e-06	5.209374e-06	2.147102e-08	3.812462e+01	1.413052e+03
1.590000e-06	5.221901e-06	2.150133e-08	3.821630e+01	1.415135e+03
1.600000e-06	5.232253e-06	2.152895e-08	3.829207e+01	1.416888e+03
1.610000e-06	5.240471e-06	2.155249e-08	3.835220e+01	1.418324e+03
1.620000e-06	5.246862e-06	2.157102e-08	3.839898e+01	1.419464e+03
1.630000e-06	5.251513e-06	2.158322e-08	3.843302e+01	1.420333e+03
1.640000e-06	5.254374e-06	2.159138e-08	3.845396e+01	1.420959e+03
1.650000e-06	5.255200e-06	2.159960e-08	3.846000e+01	1.421369e+03
1.660000e-06	5.254144e-06	2.160317e-08	3.845227e+01	1.421585e+03
1.670000e-06	5.251541e-06	2.160258e-08	3.843322e+01	1.421618e+03
1.680000e-06	5.247392e-06	2.160188e-08	3.840286e+01	1.421470e+03
1.690000e-06	5.241392e-06	2.159679e-08	3.835895e+01	1.421131e+03
1.700000e-06	5.233529e-06	2.158938e-08	3.830140e+01	1.420584e+03
1.710000e-06	5.224104e-06	2.158157e-08	3.823242e+01	1.419812e+03
1.720000e-06	5.213112e-06	2.157667e-08	3.815198e+01	1.418800e+03
1.730000e-06	5.200392e-06	2.158471e-08	3.805889e+01	1.417548e+03
1.740000e-06	5.185725e-06	2.151463e-08	3.795155e+01	1.416067e+03
1.750000e-06	5.168906e-06	2.145646e-08	3.782846e+01	1.414387e+03
1.760000e-06	5.149719e-06	2.146335e-08	3.768804e+01	1.412549e+03
1.770000e-06	5.127969e-06	2.142947e-08	3.752887e+01	1.410602e+03
1.780000e-06	5.104262e-06	2.148696e-08	3.735536e+01	1.408591e+03
1.790000e-06	5.079681e-06	2.143704e-08	3.717547e+01	1.406551e+03
1.800000e-06	5.054268e-06	2.126822e-08	3.698948e+01	1.404502e+03
1.810000e-06	5.027100e-06	2.140876e-08	3.679066e+01	1.402435e+03
1.820000e-06	4.998045e-06	2.134099e-08	3.657802e+01	1.400325e+03
1.830000e-06	4.967368e-06	2.118284e-08	3.635351e+01	1.398124e+03
1.840000e-06	4.934725e-06	2.137854e-08	3.611461e+01	1.395777e+03
1.850000e-06	4.900313e-06	2.126245e-08	3.586278e+01	1.393227e+03
1.860000e-06	4.864357e-06	2.112558e-08	3.559963e+01	1.390426e+03
1.870000e-06	4.826431e-06	2.119905e-08	3.532207e+01	1.387342e+03
1.880000e-06	4.786752e-06	2.103651e-08	3.503168e+01	1.383962e+03
1.890000e-06	4.745473e-06	2.107202e-08	3.472958e+01	1.380296e+03
1.900000e-06	4.702392e-06	2.102703e-08	3.441430e+01	1.376366e+03
1.910000e-06	4.657779e-06	2.080167e-08	3.408779e+01	1.372203e+03
1.920000e-06	4.611423e-06	2.093189e-08	3.374854e+01	1.367840e+03
1.930000e-06	4.563349e-06	2.084679e-08	3.339671e+01	1.363304e+03
1.940000e-06	4.513670e-06	2.068205e-08	3.303314e+01	1.358611e+03
1.950000e-06	4.462079e-06	2.065736e-08	3.265557e+01	1.353767e+03
1.960000e-06	4.408605e-06	2.055611e-08	3.226423e+01	1.348769e+03
1.970000e-06	4.353271e-06	2.052656e-08	3.185927e+01	1.343607e+03
1.980000e-06	4.296243e-06	2.038965e-08	3.144191e+01	1.338272e+03
1.990000e-06	4.237740e-06	2.032398e-08	3.101376e+01	1.332757e+03
2.000000e-06	4.177933e-06	2.030422e-08	3.057606e+01	1.327060e+03
2.010000e-06	4.116714e-06	2.015062e-08	3.012803e+01	1.321186e+03
2.020000e-06	4.053694e-06	2.007431e-08	2.966682e+01	1.315144e+03
2.030000e-06	3.989101e-06	1.995097e-08	2.919410e+01	1.308943e+03
2.040000e-06	3.923164e-06	1.989871e-08	2.871154e+01	1.302589e+03
2.050000e-06	3.855883e-06	1.981033e-08	2.821915e+01	1.296083e+03
2.060000e-06	3.787317e-06	1.964011e-08	2.771735e+01	1.289419e+03
2.070000e-06	3.717164e-06	1.958968e-08	2.720394e+01	1.282585e+03
2.080000e-06	3.645501e-06	1.947825e-08	2.667947e+01	1.275566e+03
2.090000e-06	3.572674e-06	1.936860e-08	2.614649e+01	1.268347e+03
2.100000e-06	3.498698e-06	1.924376e-08	2.560510e+01	1.260917e+03
2.110000e-06	3.423457e-06	1.913210e-08	2.505446e+01	1.253271e+03
2.120000e-06	3.346839e-06	1.904355e-08	2.449373e+01	1.245410e+03
2.130000e-06	3.268815e-06	1.889064e-08	2.392271e+01	1.237343e+03
2.140000e-06	3.189421e-06	1.876490e-08	2.334167e+01	1.229079e+03
2.150000e-06	3.108901e-06	1.863305e-08	2.275239e+01	1.220627e+03
2.160000e-06	3.027331e-06	1.851849e-08	2.215542e+01	1.211991e+03
2.170000e-06	2.944716e-06	1.838241e-08	2.155080e+01	1.203171e+03
2.180000e-06	2.861154e-06	1.823649e-08	2.093926e+01	1.194159e+03
2.190000e-06	2.776686e-06	1.811501e-08	2.032108e+01	1.184941e+03
2.200000e-06	2.691107e-06	1.796968e-08	1.969478e+01	1.175501e+03
2.210000e-06	2.604212e-06	1.782099e-08	1.905884e+01	1.165824e+03
2.220000e-06	2.516299e-06	1.766193e-08	1.841545e+01	1.155900e+03
2.230000e-06	2.427551e-06	1.751615e-08	1.776595e+01	1.145720e+03
2.240000e-06	2.338038e-06	1.736035e-08	1.711085e+01	1.135286e+03
2.250000e-06	2.247812e-06	1.719163e-08	1.645054e+01	1.124599e+03
2.260000e-06	2.156805e-06	1.702262e-08	1.578450e+01	1.113666e+03
2.270000e-06	2.065043e-06	1.685661e-08	1.511294e+01	1.102489e+03
2.280000e-06	1.972667e-06	1.669317e-08	1.443689e+01	1.091066e+03
2.290000e-06	1.879714e-06	1.651398e-08	1.375662e+01	1.079391e+03
2.300000e-06	1.785971e-06	1.633284e-08	1.307056e+01	1.067452e+03
2.310000e-06	1.691341e-06	1.614985e-08	1.237802e+01	1.055233e+03
2.320000e-06	1.595958e-06	1.596006e-08	1.167996e+01	1.042715e+03
2.330000e-06	1.500025e-06	1.575935e-08	1.097788e+01	1.029884e+03
2.340000e-06	1.403663e-06	1.555604e-08	1.027266e+01	1.016726e+03
2.350000e-06	1.306911e-06	1.535284e-08	9.564580e+00	1.003236e+03
2.360000e-06	1.209807e-06	1.514309e-08	8.853929e+00	9.894109e+02
2.370000e-06	1.112333e-06	1.492636e-08	8.140574e+00	9.752521e+02
2.380000e-06	1.014469e-06	1.470605e-08	7.424354e+00	9.607608e+02
2.390000e-06	9.162570e-07	1.448285e-08	6.705595e+00	9.459350e+02
2.400000e-06	8.177600e-07	1.425124e-08	5.984749e+00	9.307672e+02
2.410000e-06	7.190424e-07	1.401261e-08	5.262287e+00	9.152426e+02
2.420000e-06	6.201206e-07	1.377042e-08	4.538331e+00	8.993386e+02
2.430000e-06	5.210564e-07	1.352314e-08	3.813333e+00	8.830260e+02
2.440000e-06	4.219111e-07	1.326649e-08	3.087742e+00	8.662712e+02
2.450000e-06	3.226444e-07	1.300062e-08	2.361262e+00	8.490384e+02
2.460000e-06	2.232381e-07	1.272601e-08	1.633761e+00	8.312919e+02
2.470000e-06	1.237086e-07	1.244372e-08	9.053573e-01	8.129978e+02
2.480000e-06	2.411604e-08	1.215489e-08	1.764924e-01	7.941245e+02
2.490000e-06	-7.548162e-08	1.185732e-08	-5.524097e-01	7.746416e+02
2.500000e-06	-1.750471e-07	1.155202e-08	-1.281076e+00	7.545188e+02
2.510000e-06	-2.745779e-07	1.123658e-08	-2.009489e+00	7.337233e+02
2.520000e-06	-3.740391e-07	1.090815e-08	-2.737392e+00	7.122174e+02
2.530000e-06	-4.733875e-07	1.056603e-08	-3.464470e+00	6.899572e+02
2.540000e-06	-5.726060e-07	1.021156e-08	-4.190597e+00	6.668905e+02
2.550000e-06	-6.716903e-07	9.844717e-09	-4.915742e+00	6.429567e+02
2.560000e-06	-7.705677e-07	9.463278e-09	-5.639373e+00	6.180866e+02
2.570000e-06	-8.691616e-07	9.067281e-09	-6.360929e+00	5.922036e+02
2.580000e-06	-9.674743e-07	8.656073e-09	-7.080428e+00	5.652239e+02
2.590000e-06	-1.065433e-06	8.229191e-09	-7.797331e+00	5.370581e+02
2.600000e-06	-1.162918e-06	7.781209e-09	-8.510779e+00	5.076115e+02
2.610000e-06	-1.259955e-06	7.311004e-09	-9.220940e+00	4.767847e+02
2.620000e-06	-1.356649e-06	6.818401e-09	-9.928588e+00	4.444743e+02
2.630000e-06	-1.453003e-06	6.298925e-09	-1.063375e+01	4.105728e+02
2.640000e-06	-1.548926e-06	5.753022e-09	-1.133576e+01	3.749700e+02
2.650000e-06	-1.644294e-06	5.180866e-09	-1.203371e+01	3.375541e+02
2.660000e-06	-1.738969e-06	4.580749e-09	-1.272658e+01	2.982150e+02
2.670000e-06	-1.832830e-06	3.951087e-09	-1.341350e+01	2.568487e+02
2.680000e-06	-1.925816e-06	3.288628e-09	-1.409402e+01	2.133636e+02
2.690000e-06	-2.017958e-06	2.591980e-09	-1.476836e+01	1.676888e+02
2.700000e-06	-2.109381e-06	1.863043e-09	-1.543743e+01	1.197841e+02
2.710000e-06	-2.200144e-06	1.100955e-09	-1.610168e+01	6.965079e+01
2.720000e-06	-2.290144e-06	3.050235e-10	-1.676034e+01	1.734239e+01
2.730000e-06	-2.379318e-06	-5.232333e-10	-1.741296e+01	-3.702569e+01
2.740000e-06	-2.467761e-06	-1.381275e-09	-1.806022e+01	-9.326945e+01
2.750000e-06	-2.555509e-06	-2.264160e-09	-1.870241e+01	-1.511335e+02
2.760000e-06	-2.642349e-06	-3.166683e-09	-1.933794e+01	-2.102935e+02
2.770000e-06	-2.727999e-06	-4.083981e-09	-1.996477e+01	-2.703641e+02
2.780000e-06	-2.812514e-06	-5.008510e-09	-2.058328e+01	-3.309123e+02
2.790000e-06	-2.896109e-06	-5.932153e-09	-2.119507e+01	-3.914756e+02
2.800000e-06	-2.978802e-06	-6.849210e-09	-2.180026e+01	-4.515823e+02
2.810000e-06	-3.060547e-06	-7.753439e-09	-2.239851e+01	-5.107733e+02
2.820000e-06	-3.141308e-06	-8.638303e-09	-2.298955e+01	-5.686225e+02
2.830000e-06	-3.221029e-06	-9.498387e-09	-2.357299e+01	-6.247527e+02
2.840000e-06	-3.299461e-06	-1.032738e-08	-2.414699e+01	-6.788483e+02
2.850000e-06	-3.376447e-06	-1.112203e-08	-2.471041e+01	-7.306610e+02
2.860000e-06	-3.452086e-06	-1.188135e-08	-2.526397e+01	-7.800101e+02
2.870000e-06	-3.526371e-06	-1.260165e-08	-2.580763e+01	-8.267793e+02
2.880000e-06	-3.599376e-06	-1.328112e-08	-2.634191e+01	-8.709085e+02
2.890000e-06	-3.671225e-06	-1.391819e-08	-2.686773e+01	-9.123856e+02
2.900000e-06	-3.741679e-06	-1.451451e-08	-2.738335e+01	-9.512368e+02
2.910000e-06	-3.810500e-06	-1.507434e-08	-2.788701e+01	-9.875190e+02
2.920000e-06	-3.877935e-06	-1.559603e-08	-2.838053e+01	-1.021313e+03
2.930000e-06	-3.944118e-06	-1.608033e-08	-2.886489e+01	-1.052719e+03
2.940000e-06	-4.009025e-06	-1.653091e-08	-2.933991e+01	-1.081854e+03
