# Temperatura_=_85.85
# Concentracion g/m^3_=_26700.0
# C_Vs_to_Am_M_A/Vsm_=_65563218390.804596
# pendiente_HvsI_1/m_=_3716.3
# ordenada_HvsI_A/m_=_1297.0
# frecuencia_Hz_=_301763.7504581782

Tiempo_(s)	Campo_(V.s)	Magnetizacion_(V.s)	Campo_(kA/m)	Magnetizacion_(A/m)
0.000000e+00	-5.228098e-06	-2.164687e-08	-3.830388e+01	-1.414093e+03
1.000000e-08	-5.226298e-06	-2.164880e-08	-3.829068e+01	-1.414182e+03
2.000000e-08	-5.222647e-06	-2.164421e-08	-3.826394e+01	-1.414098e+03
3.000000e-08	-5.217403e-06	-2.163688e-08	-3.822552e+01	-1.413830e+03
4.000000e-08	-5.210563e-06	-2.162710e-08	-3.817541e+01	-1.413358e+03
5.000000e-08	-5.202055e-06	-2.161407e-08	-3.811307e+01	-1.412661e+03
6.000000e-08	-5.191555e-06	-2.159741e-08	-3.803614e+01	-1.411725e+03
7.000000e-08	-5.179108e-06	-2.157292e-08	-3.794495e+01	-1.410550e+03
8.000000e-08	-5.164841e-06	-2.154131e-08	-3.784042e+01	-1.409150e+03
9.000000e-08	-5.148461e-06	-2.154636e-08	-3.772041e+01	-1.407556e+03
1.000000e-07	-5.129907e-06	-2.154353e-08	-3.758447e+01	-1.405814e+03
1.100000e-07	-5.109410e-06	-2.148919e-08	-3.743430e+01	-1.403971e+03
1.200000e-07	-5.087202e-06	-2.145055e-08	-3.727160e+01	-1.402072e+03
1.300000e-07	-5.063573e-06	-2.138890e-08	-3.709847e+01	-1.400149e+03
1.400000e-07	-5.038515e-06	-2.131234e-08	-3.691488e+01	-1.398212e+03
1.500000e-07	-5.011756e-06	-2.137988e-08	-3.671884e+01	-1.396253e+03
1.600000e-07	-4.983358e-06	-2.132556e-08	-3.651077e+01	-1.394239e+03
1.700000e-07	-4.953609e-06	-2.121837e-08	-3.629282e+01	-1.392124e+03
1.800000e-07	-4.922252e-06	-2.128009e-08	-3.606308e+01	-1.389859e+03
1.900000e-07	-4.888783e-06	-2.117286e-08	-3.581787e+01	-1.387393e+03
2.000000e-07	-4.853519e-06	-2.107971e-08	-3.555951e+01	-1.384690e+03
2.100000e-07	-4.816811e-06	-2.111491e-08	-3.529057e+01	-1.381729e+03
2.200000e-07	-4.778398e-06	-2.100836e-08	-3.500913e+01	-1.378508e+03
2.300000e-07	-4.738252e-06	-2.095130e-08	-3.471500e+01	-1.375039e+03
2.400000e-07	-4.696166e-06	-2.092836e-08	-3.440665e+01	-1.371345e+03
2.500000e-07	-4.652177e-06	-2.082796e-08	-3.408437e+01	-1.367452e+03
2.600000e-07	-4.606553e-06	-2.082207e-08	-3.375010e+01	-1.363385e+03
2.700000e-07	-4.559152e-06	-2.074097e-08	-3.340281e+01	-1.359161e+03
2.800000e-07	-4.509807e-06	-2.061111e-08	-3.304129e+01	-1.354787e+03
2.900000e-07	-4.458381e-06	-2.056497e-08	-3.266451e+01	-1.350263e+03
3.000000e-07	-4.405122e-06	-2.051822e-08	-3.227431e+01	-1.345583e+03
3.100000e-07	-4.350353e-06	-2.044533e-08	-3.187304e+01	-1.340740e+03
3.200000e-07	-4.293941e-06	-2.035821e-08	-3.145974e+01	-1.335727e+03
3.300000e-07	-4.235731e-06	-2.027703e-08	-3.103326e+01	-1.330544e+03
3.400000e-07	-4.175968e-06	-2.018380e-08	-3.059540e+01	-1.325193e+03
3.500000e-07	-4.114820e-06	-2.009105e-08	-3.014740e+01	-1.319682e+03
3.600000e-07	-4.052319e-06	-2.001832e-08	-2.968948e+01	-1.314019e+03
3.700000e-07	-3.988534e-06	-1.993483e-08	-2.922216e+01	-1.308209e+03
3.800000e-07	-3.923253e-06	-1.985288e-08	-2.874387e+01	-1.302254e+03
3.900000e-07	-3.856286e-06	-1.974627e-08	-2.825324e+01	-1.296149e+03
4.000000e-07	-3.787881e-06	-1.962708e-08	-2.775207e+01	-1.289887e+03
4.100000e-07	-3.718288e-06	-1.954728e-08	-2.724219e+01	-1.283457e+03
4.200000e-07	-3.647505e-06	-1.944994e-08	-2.672359e+01	-1.276847e+03
4.300000e-07	-3.575539e-06	-1.934109e-08	-2.619633e+01	-1.270051e+03
4.400000e-07	-3.502196e-06	-1.923351e-08	-2.565898e+01	-1.263064e+03
4.500000e-07	-3.427234e-06	-1.912739e-08	-2.510977e+01	-1.255888e+03
4.600000e-07	-3.350901e-06	-1.901545e-08	-2.455052e+01	-1.248527e+03
4.700000e-07	-3.273379e-06	-1.889426e-08	-2.398255e+01	-1.240988e+03
4.800000e-07	-3.194526e-06	-1.877846e-08	-2.340482e+01	-1.233275e+03
4.900000e-07	-3.114318e-06	-1.865569e-08	-2.281718e+01	-1.225390e+03
5.000000e-07	-3.032902e-06	-1.853242e-08	-2.222068e+01	-1.217328e+03
5.100000e-07	-2.950468e-06	-1.840188e-08	-2.161673e+01	-1.209082e+03
5.200000e-07	-2.867161e-06	-1.827074e-08	-2.100637e+01	-1.200640e+03
5.300000e-07	-2.783037e-06	-1.814240e-08	-2.039004e+01	-1.191990e+03
5.400000e-07	-2.698012e-06	-1.800686e-08	-1.976710e+01	-1.183121e+03
5.500000e-07	-2.612068e-06	-1.786576e-08	-1.913742e+01	-1.174026e+03
5.600000e-07	-2.525286e-06	-1.772310e-08	-1.850161e+01	-1.164699e+03
5.700000e-07	-2.437630e-06	-1.757819e-08	-1.785940e+01	-1.155140e+03
5.800000e-07	-2.349046e-06	-1.742422e-08	-1.721038e+01	-1.145348e+03
5.900000e-07	-2.259461e-06	-1.726436e-08	-1.655403e+01	-1.135325e+03
6.000000e-07	-2.168834e-06	-1.710417e-08	-1.589005e+01	-1.125067e+03
6.100000e-07	-2.077339e-06	-1.694583e-08	-1.521971e+01	-1.114570e+03
6.200000e-07	-1.985194e-06	-1.678419e-08	-1.454461e+01	-1.103825e+03
6.300000e-07	-1.892392e-06	-1.661558e-08	-1.386469e+01	-1.092821e+03
6.400000e-07	-1.798900e-06	-1.644276e-08	-1.317971e+01	-1.081548e+03
6.500000e-07	-1.704778e-06	-1.626651e-08	-1.249012e+01	-1.069996e+03
6.600000e-07	-1.610116e-06	-1.608351e-08	-1.179658e+01	-1.058159e+03
6.700000e-07	-1.514953e-06	-1.589475e-08	-1.109936e+01	-1.046034e+03
6.800000e-07	-1.419265e-06	-1.570404e-08	-1.039830e+01	-1.033619e+03
6.900000e-07	-1.323085e-06	-1.551092e-08	-9.693635e+00	-1.020916e+03
7.000000e-07	-1.226403e-06	-1.531409e-08	-8.985292e+00	-1.007924e+03
7.100000e-07	-1.129194e-06	-1.511043e-08	-8.273089e+00	-9.946387e+02
7.200000e-07	-1.031529e-06	-1.490339e-08	-7.557540e+00	-9.810511e+02
7.300000e-07	-9.335119e-07	-1.469436e-08	-6.839413e+00	-9.671474e+02
7.400000e-07	-8.351503e-07	-1.448022e-08	-6.118763e+00	-9.529092e+02
7.500000e-07	-7.364057e-07	-1.426013e-08	-5.395306e+00	-9.383154e+02
7.600000e-07	-6.373511e-07	-1.403251e-08	-4.669579e+00	-9.233435e+02
7.700000e-07	-5.380174e-07	-1.379716e-08	-3.941807e+00	-9.079721e+02
7.800000e-07	-4.384960e-07	-1.355336e-08	-3.212659e+00	-8.921807e+02
7.900000e-07	-3.389075e-07	-1.330330e-08	-2.483019e+00	-8.759505e+02
8.000000e-07	-2.392206e-07	-1.304857e-08	-1.752660e+00	-8.592627e+02
8.100000e-07	-1.394257e-07	-1.278968e-08	-1.021508e+00	-8.420970e+02
8.200000e-07	-3.957832e-08	-1.252576e-08	-2.899722e-01	-8.244293e+02
8.300000e-07	6.031156e-08	-1.225267e-08	4.418751e-01	-8.062301e+02
8.400000e-07	1.602052e-07	-1.196775e-08	1.173750e+00	-7.874637e+02
8.500000e-07	2.600404e-07	-1.167175e-08	1.905197e+00	-7.680883e+02
8.600000e-07	3.598162e-07	-1.136575e-08	2.636208e+00	-7.480562e+02
8.700000e-07	4.595036e-07	-1.104864e-08	3.366572e+00	-7.273158e+02
8.800000e-07	5.590941e-07	-1.072088e-08	4.096226e+00	-7.058119e+02
8.900000e-07	6.585505e-07	-1.038173e-08	4.824897e+00	-6.834873e+02
9.000000e-07	7.577993e-07	-1.002846e-08	5.552048e+00	-6.602820e+02
9.100000e-07	8.567589e-07	-9.657918e-09	6.277080e+00	-6.361328e+02
9.200000e-07	9.553510e-07	-9.271923e-09	6.999419e+00	-6.109718e+02
9.300000e-07	1.053476e-06	-8.872402e-09	7.718333e+00	-5.847243e+02
9.400000e-07	1.151143e-06	-8.456880e-09	8.433896e+00	-5.573077e+02
9.500000e-07	1.248364e-06	-8.022471e-09	9.146192e+00	-5.286300e+02
9.600000e-07	1.344991e-06	-7.567081e-09	9.854135e+00	-4.985894e+02
9.700000e-07	1.440984e-06	-7.087276e-09	1.055742e+01	-4.670747e+02
9.800000e-07	1.536383e-06	-6.580317e-09	1.125637e+01	-4.339658e+02
9.900000e-07	1.631253e-06	-6.046860e-09	1.195144e+01	-3.991360e+02
1.000000e-06	1.725599e-06	-5.486563e-09	1.264267e+01	-3.624537e+02
1.010000e-06	1.819302e-06	-4.898229e-09	1.332919e+01	-3.237867e+02
1.020000e-06	1.912360e-06	-4.278241e-09	1.401099e+01	-2.830063e+02
1.030000e-06	2.004837e-06	-3.624751e-09	1.468852e+01	-2.399950e+02
1.040000e-06	2.096740e-06	-2.936491e-09	1.536185e+01	-1.946546e+02
1.050000e-06	2.188020e-06	-2.209937e-09	1.603062e+01	-1.469179e+02
1.060000e-06	2.278428e-06	-1.444474e-09	1.669300e+01	-9.676077e+01
1.070000e-06	2.367738e-06	-6.416426e-10	1.734733e+01	-4.421548e+01
1.080000e-06	2.455997e-06	1.954672e-10	1.799396e+01	1.061784e+01
1.090000e-06	2.543391e-06	1.065903e-09	1.863426e+01	6.756242e+01
1.100000e-06	2.629975e-06	1.965150e-09	1.926862e+01	1.263610e+02
1.110000e-06	2.715655e-06	2.885318e-09	1.989636e+01	1.866781e+02
1.120000e-06	2.800454e-06	3.821175e-09	2.051764e+01	2.481089e+02
1.130000e-06	2.884472e-06	4.767227e-09	2.113321e+01	3.101942e+02
1.140000e-06	2.967726e-06	5.716481e-09	2.174316e+01	3.724410e+02
1.150000e-06	3.049964e-06	6.659051e-09	2.234569e+01	4.343446e+02
1.160000e-06	3.130953e-06	7.585979e-09	2.293905e+01	4.954128e+02
1.170000e-06	3.210817e-06	8.492410e-09	2.352418e+01	5.551865e+02
1.180000e-06	3.289547e-06	9.375789e-09	2.410100e+01	6.132570e+02
1.190000e-06	3.367064e-06	1.022872e-08	2.466893e+01	6.692781e+02
1.200000e-06	3.443444e-06	1.104615e-08	2.522853e+01	7.229720e+02
1.210000e-06	3.518586e-06	1.182379e-08	2.577906e+01	7.741304e+02
1.220000e-06	3.592152e-06	1.255810e-08	2.631805e+01	8.226113e+02
1.230000e-06	3.664115e-06	1.324987e-08	2.684529e+01	8.683331e+02
1.240000e-06	3.734781e-06	1.389944e-08	2.736302e+01	9.112675e+02
1.250000e-06	3.804155e-06	1.450675e-08	2.787130e+01	9.514316e+02
1.260000e-06	3.872295e-06	1.507276e-08	2.837053e+01	9.888812e+02
1.270000e-06	3.939182e-06	1.559767e-08	2.886058e+01	1.023704e+03
1.280000e-06	4.004471e-06	1.608321e-08	2.933892e+01	1.056012e+03
1.290000e-06	4.068193e-06	1.653457e-08	2.980579e+01	1.085937e+03
1.300000e-06	4.130529e-06	1.695451e-08	3.026249e+01	1.113626e+03
1.310000e-06	4.191476e-06	1.734468e-08	3.070902e+01	1.139231e+03
1.320000e-06	4.251128e-06	1.770454e-08	3.114606e+01	1.162904e+03
1.330000e-06	4.309248e-06	1.803683e-08	3.157188e+01	1.184795e+03
1.340000e-06	4.365576e-06	1.834282e-08	3.198457e+01	1.205045e+03
1.350000e-06	4.420276e-06	1.862207e-08	3.238533e+01	1.223782e+03
1.360000e-06	4.473397e-06	1.887860e-08	3.277452e+01	1.241123e+03
1.370000e-06	4.524751e-06	1.911800e-08	3.315078e+01	1.257172e+03
1.380000e-06	4.574097e-06	1.934196e-08	3.351231e+01	1.272023e+03
1.390000e-06	4.621588e-06	1.954864e-08	3.386026e+01	1.285759e+03
1.400000e-06	4.667524e-06	1.973900e-08	3.419680e+01	1.298456e+03
1.410000e-06	4.711983e-06	1.991694e-08	3.452253e+01	1.310186e+03
1.420000e-06	4.754850e-06	2.008346e-08	3.483660e+01	1.321013e+03
1.430000e-06	4.795871e-06	2.023605e-08	3.513715e+01	1.330998e+03
1.440000e-06	4.835155e-06	2.037562e-08	3.542496e+01	1.340196e+03
1.450000e-06	4.872850e-06	2.050355e-08	3.570113e+01	1.348658e+03
1.460000e-06	4.908999e-06	2.062098e-08	3.596598e+01	1.356432e+03
1.470000e-06	4.943476e-06	2.072722e-08	3.621858e+01	1.363563e+03
1.480000e-06	4.976006e-06	2.082402e-08	3.645691e+01	1.370094e+03
1.490000e-06	5.006742e-06	2.091437e-08	3.668210e+01	1.376070e+03
1.500000e-06	5.035859e-06	2.099801e-08	3.689543e+01	1.381532e+03
1.510000e-06	5.063378e-06	2.107513e-08	3.709705e+01	1.386522e+03
1.520000e-06	5.089015e-06	2.114538e-08	3.728488e+01	1.391078e+03
1.530000e-06	5.112573e-06	2.120918e-08	3.745747e+01	1.395235e+03
1.540000e-06	5.134307e-06	2.126674e-08	3.761671e+01	1.399017e+03
1.550000e-06	5.154412e-06	2.131815e-08	3.776401e+01	1.402443e+03
1.560000e-06	5.172765e-06	2.136414e-08	3.789848e+01	1.405522e+03
1.570000e-06	5.189161e-06	2.140428e-08	3.801860e+01	1.408258e+03
1.580000e-06	5.203623e-06	2.143886e-08	3.812456e+01	1.410651e+03
1.590000e-06	5.216156e-06	2.146875e-08	3.821638e+01	1.412702e+03
1.600000e-06	5.226540e-06	2.149527e-08	3.829246e+01	1.414418e+03
1.610000e-06	5.234803e-06	2.151832e-08	3.835300e+01	1.415814e+03
1.620000e-06	5.241177e-06	2.153695e-08	3.839970e+01	1.416913e+03
1.630000e-06	5.245751e-06	2.155055e-08	3.843321e+01	1.417745e+03
1.640000e-06	5.248541e-06	2.156007e-08	3.845365e+01	1.418344e+03
1.650000e-06	5.249408e-06	2.156729e-08	3.846000e+01	1.418738e+03
1.660000e-06	5.248474e-06	2.156981e-08	3.845316e+01	1.418952e+03
1.670000e-06	5.245902e-06	2.156849e-08	3.843432e+01	1.418993e+03
1.680000e-06	5.241756e-06	2.156764e-08	3.840394e+01	1.418859e+03
1.690000e-06	5.235854e-06	2.156327e-08	3.836070e+01	1.418535e+03
1.700000e-06	5.228075e-06	2.155539e-08	3.830370e+01	1.418001e+03
1.710000e-06	5.218704e-06	2.154666e-08	3.823505e+01	1.417238e+03
1.720000e-06	5.207765e-06	2.154022e-08	3.815491e+01	1.416234e+03
1.730000e-06	5.195102e-06	2.154326e-08	3.806213e+01	1.414993e+03
1.740000e-06	5.180505e-06	2.149367e-08	3.795518e+01	1.413534e+03
1.750000e-06	5.163764e-06	2.143262e-08	3.783253e+01	1.411894e+03
1.760000e-06	5.144653e-06	2.142801e-08	3.769251e+01	1.410119e+03
1.770000e-06	5.122995e-06	2.140540e-08	3.753383e+01	1.408257e+03
1.780000e-06	5.099363e-06	2.143769e-08	3.736069e+01	1.406349e+03
1.790000e-06	5.074804e-06	2.141360e-08	3.718076e+01	1.404422e+03
1.800000e-06	5.049455e-06	2.126736e-08	3.699504e+01	1.402482e+03
1.810000e-06	5.022431e-06	2.134381e-08	3.679705e+01	1.400511e+03
1.820000e-06	4.993485e-06	2.131748e-08	3.658497e+01	1.398475e+03
1.830000e-06	4.962832e-06	2.116973e-08	3.636039e+01	1.396323e+03
1.840000e-06	4.930218e-06	2.130593e-08	3.612144e+01	1.394006e+03
1.850000e-06	4.895859e-06	2.126884e-08	3.586971e+01	1.391476e+03
1.860000e-06	4.860002e-06	2.113193e-08	3.560701e+01	1.388701e+03
1.870000e-06	4.822216e-06	2.117070e-08	3.533016e+01	1.385667e+03
1.880000e-06	4.782587e-06	2.105648e-08	3.503982e+01	1.382373e+03
1.890000e-06	4.741356e-06	2.103699e-08	3.473774e+01	1.378838e+03
1.900000e-06	4.698363e-06	2.100619e-08	3.442275e+01	1.375085e+03
1.910000e-06	4.653777e-06	2.081899e-08	3.409609e+01	1.371141e+03
1.920000e-06	4.607449e-06	2.090208e-08	3.375666e+01	1.367029e+03
1.930000e-06	4.559399e-06	2.087004e-08	3.340462e+01	1.362762e+03
1.940000e-06	4.509763e-06	2.070134e-08	3.304096e+01	1.358347e+03
1.950000e-06	4.458257e-06	2.065594e-08	3.266360e+01	1.353780e+03
1.960000e-06	4.404907e-06	2.056928e-08	3.227273e+01	1.349054e+03
1.970000e-06	4.349709e-06	2.052664e-08	3.186832e+01	1.344163e+03
1.980000e-06	4.292788e-06	2.042422e-08	3.145129e+01	1.339103e+03
1.990000e-06	4.234363e-06	2.034601e-08	3.102324e+01	1.333872e+03
2.000000e-06	4.174572e-06	2.033410e-08	3.058517e+01	1.328475e+03
2.010000e-06	4.113427e-06	2.019728e-08	3.013719e+01	1.322921e+03
2.020000e-06	4.050531e-06	2.009946e-08	2.967638e+01	1.317216e+03
2.030000e-06	3.986014e-06	2.000368e-08	2.920369e+01	1.311366e+03
2.040000e-06	3.920169e-06	1.994318e-08	2.872128e+01	1.305369e+03
2.050000e-06	3.852943e-06	1.987119e-08	2.822874e+01	1.299221e+03
2.060000e-06	3.784450e-06	1.971625e-08	2.772693e+01	1.292913e+03
2.070000e-06	3.714538e-06	1.965163e-08	2.721471e+01	1.286433e+03
2.080000e-06	3.643121e-06	1.955727e-08	2.669147e+01	1.279771e+03
2.090000e-06	3.570404e-06	1.944018e-08	2.615871e+01	1.272921e+03
2.100000e-06	3.496507e-06	1.932572e-08	2.561730e+01	1.265881e+03
2.110000e-06	3.421430e-06	1.921670e-08	2.506725e+01	1.258652e+03
2.120000e-06	3.345018e-06	1.913544e-08	2.450741e+01	1.251241e+03
2.130000e-06	3.267182e-06	1.899940e-08	2.393714e+01	1.243652e+03
2.140000e-06	3.187914e-06	1.887488e-08	2.335638e+01	1.235891e+03
2.150000e-06	3.107418e-06	1.875758e-08	2.276663e+01	1.227956e+03
2.160000e-06	3.025904e-06	1.864468e-08	2.216941e+01	1.219843e+03
2.170000e-06	2.943407e-06	1.851880e-08	2.156499e+01	1.211543e+03
2.180000e-06	2.859984e-06	1.837651e-08	2.095379e+01	1.203044e+03
2.190000e-06	2.775609e-06	1.825670e-08	2.033561e+01	1.194333e+03
2.200000e-06	2.690187e-06	1.812204e-08	1.970977e+01	1.185401e+03
2.210000e-06	2.603540e-06	1.797955e-08	1.907494e+01	1.176241e+03
2.220000e-06	2.515717e-06	1.783324e-08	1.843150e+01	1.166848e+03
2.230000e-06	2.427067e-06	1.769696e-08	1.778201e+01	1.157223e+03
2.240000e-06	2.337685e-06	1.755532e-08	1.712715e+01	1.147366e+03
2.250000e-06	2.247544e-06	1.739540e-08	1.646672e+01	1.137277e+03
2.260000e-06	2.156673e-06	1.723237e-08	1.580095e+01	1.126952e+03
2.270000e-06	2.065028e-06	1.707118e-08	1.512951e+01	1.116386e+03
2.280000e-06	1.972656e-06	1.691269e-08	1.445275e+01	1.105569e+03
2.290000e-06	1.879644e-06	1.674408e-08	1.377129e+01	1.094490e+03
2.300000e-06	1.785957e-06	1.657359e-08	1.308489e+01	1.083139e+03
2.310000e-06	1.691537e-06	1.640408e-08	1.239312e+01	1.071507e+03
2.320000e-06	1.596412e-06	1.622727e-08	1.169618e+01	1.059588e+03
2.330000e-06	1.500661e-06	1.603645e-08	1.099465e+01	1.047381e+03
2.340000e-06	1.404413e-06	1.583852e-08	1.028949e+01	1.034885e+03
2.350000e-06	1.307774e-06	1.564318e-08	9.581463e+00	1.022100e+03
2.360000e-06	1.210777e-06	1.544490e-08	8.870811e+00	1.009025e+03
2.370000e-06	1.113414e-06	1.524109e-08	8.157475e+00	9.956555e+02
2.380000e-06	1.015700e-06	1.503368e-08	7.441567e+00	9.819799e+02
2.390000e-06	9.176473e-07	1.482215e-08	6.723181e+00	9.679834e+02
2.400000e-06	8.192931e-07	1.460221e-08	6.002584e+00	9.536466e+02
2.410000e-06	7.207086e-07	1.437504e-08	5.280301e+00	9.389477e+02
2.420000e-06	6.219108e-07	1.414515e-08	4.556455e+00	9.238646e+02
2.430000e-06	5.229248e-07	1.391141e-08	3.831230e+00	9.083759e+02
2.440000e-06	4.238598e-07	1.366949e-08	3.105426e+00	8.924617e+02
2.450000e-06	3.247452e-07	1.341649e-08	2.379259e+00	8.761035e+02
2.460000e-06	2.254999e-07	1.315316e-08	1.652134e+00	8.592821e+02
2.470000e-06	1.261611e-07	1.288397e-08	9.243248e-01	8.419764e+02
2.480000e-06	2.675175e-08	1.261211e-08	1.959978e-01	8.241608e+02
2.490000e-06	-7.274613e-08	1.233388e-08	-5.329775e-01	8.058042e+02
2.500000e-06	-1.722724e-07	1.204696e-08	-1.262161e+00	7.868691e+02
2.510000e-06	-2.717500e-07	1.174965e-08	-1.990988e+00	7.673118e+02
2.520000e-06	-3.710925e-07	1.144095e-08	-2.718825e+00	7.470835e+02
2.530000e-06	-4.703106e-07	1.111952e-08	-3.445750e+00	7.261314e+02
2.540000e-06	-5.694239e-07	1.078563e-08	-4.171907e+00	7.043997e+02
2.550000e-06	-6.683612e-07	1.043940e-08	-4.896776e+00	6.818304e+02
2.560000e-06	-7.670886e-07	1.007889e-08	-5.620106e+00	6.583628e+02
2.570000e-06	-8.656001e-07	9.704181e-09	-6.341855e+00	6.339325e+02
2.580000e-06	-9.638296e-07	9.317138e-09	-7.061537e+00	6.084696e+02
2.590000e-06	-1.061666e-06	8.916952e-09	-7.778341e+00	5.818977e+02
2.600000e-06	-1.159090e-06	8.495069e-09	-8.492119e+00	5.541313e+02
2.610000e-06	-1.256124e-06	8.049341e-09	-9.203041e+00	5.250758e+02
2.620000e-06	-1.352783e-06	7.584209e-09	-9.911221e+00	4.946265e+02
2.630000e-06	-1.449048e-06	7.098034e-09	-1.061651e+01	4.626696e+02
2.640000e-06	-1.544851e-06	6.584492e-09	-1.131842e+01	4.290829e+02
2.650000e-06	-1.640090e-06	6.041016e-09	-1.201618e+01	3.937381e+02
2.660000e-06	-1.734569e-06	5.469147e-09	-1.270839e+01	3.565029e+02
2.670000e-06	-1.828197e-06	4.868465e-09	-1.339436e+01	3.172456e+02
2.680000e-06	-1.920991e-06	4.236974e-09	-1.407422e+01	2.758399e+02
2.690000e-06	-2.013009e-06	3.573040e-09	-1.474839e+01	2.321728e+02
2.700000e-06	-2.104352e-06	2.874696e-09	-1.541762e+01	1.861537e+02
2.710000e-06	-2.195016e-06	2.138924e-09	-1.608188e+01	1.377263e+02
2.720000e-06	-2.284977e-06	1.363688e-09	-1.674098e+01	8.688154e+01
2.730000e-06	-2.374163e-06	5.512386e-10	-1.739441e+01	3.366981e+01
2.740000e-06	-2.462572e-06	-2.957822e-10	-1.804213e+01	-2.178753e+01
2.750000e-06	-2.550229e-06	-1.174639e-09	-1.868436e+01	-7.929087e+01
2.760000e-06	-2.636958e-06	-2.079960e-09	-1.931978e+01	-1.385601e+02
2.770000e-06	-2.722542e-06	-3.005358e-09	-1.994682e+01	-1.992387e+02
2.780000e-06	-2.806996e-06	-3.944480e-09	-2.056557e+01	-2.609045e+02
2.790000e-06	-2.890517e-06	-4.891964e-09	-2.117749e+01	-3.230865e+02
2.800000e-06	-2.973148e-06	-5.841701e-09	-2.178289e+01	-3.852858e+02
2.810000e-06	-3.054781e-06	-6.785302e-09	-2.238098e+01	-4.469992e+02
2.820000e-06	-3.135394e-06	-7.714393e-09	-2.297159e+01	-5.077418e+02
2.830000e-06	-3.214975e-06	-8.621537e-09	-2.355465e+01	-5.670672e+02
2.840000e-06	-3.293292e-06	-9.501786e-09	-2.412844e+01	-6.245839e+02
2.850000e-06	-3.370171e-06	-1.035274e-08	-2.469170e+01	-6.799646e+02
2.860000e-06	-3.445674e-06	-1.116878e-08	-2.524487e+01	-7.329516e+02
2.870000e-06	-3.519878e-06	-1.194323e-08	-2.578853e+01	-7.833560e+02
2.880000e-06	-3.592892e-06	-1.267411e-08	-2.632347e+01	-8.310537e+02
2.890000e-06	-3.664765e-06	-1.336165e-08	-2.685005e+01	-8.759791e+02
2.900000e-06	-3.735226e-06	-1.400649e-08	-2.736629e+01	-9.181177e+02
2.910000e-06	-3.804107e-06	-1.461145e-08	-2.787094e+01	-9.574984e+02
2.920000e-06	-3.871593e-06	-1.517857e-08	-2.836538e+01	-9.941864e+02
2.930000e-06	-3.937755e-06	-1.570584e-08	-2.885012e+01	-1.028277e+03
2.940000e-06	-4.002570e-06	-1.619282e-08	-2.932499e+01	-1.059890e+03
