# Temperatura_=_29.8
# Concentracion g/m^3_=_26700.0
# C_Vs_to_Am_M_A/Vsm_=_65563218390.804596
# pendiente_HvsI_1/m_=_3716.3
# ordenada_HvsI_A/m_=_1297.0
# frecuencia_Hz_=_301772.6081963285

Tiempo_(s)	Campo_(V.s)	Magnetizacion_(V.s)	Campo_(kA/m)	Magnetizacion_(A/m)
0.000000e+00	-5.234261e-06	-1.838920e-08	-3.830557e+01	-1.200451e+03
1.000000e-08	-5.232233e-06	-1.839600e-08	-3.829073e+01	-1.200554e+03
2.000000e-08	-5.228391e-06	-1.839393e-08	-3.826261e+01	-1.200463e+03
3.000000e-08	-5.222972e-06	-1.838955e-08	-3.822296e+01	-1.200174e+03
4.000000e-08	-5.215963e-06	-1.838031e-08	-3.817166e+01	-1.199673e+03
5.000000e-08	-5.207307e-06	-1.836410e-08	-3.810831e+01	-1.198939e+03
6.000000e-08	-5.196680e-06	-1.834354e-08	-3.803055e+01	-1.197953e+03
7.000000e-08	-5.184167e-06	-1.831431e-08	-3.793897e+01	-1.196705e+03
8.000000e-08	-5.169780e-06	-1.828919e-08	-3.783368e+01	-1.195199e+03
9.000000e-08	-5.153139e-06	-1.832160e-08	-3.771190e+01	-1.193457e+03
1.000000e-07	-5.134360e-06	-1.830016e-08	-3.757447e+01	-1.191517e+03
1.100000e-07	-5.113717e-06	-1.822388e-08	-3.742340e+01	-1.189428e+03
1.200000e-07	-5.091334e-06	-1.819356e-08	-3.725960e+01	-1.187239e+03
1.300000e-07	-5.067480e-06	-1.808936e-08	-3.708503e+01	-1.184995e+03
1.400000e-07	-5.042200e-06	-1.803361e-08	-3.690002e+01	-1.182721e+03
1.500000e-07	-5.015261e-06	-1.815314e-08	-3.670288e+01	-1.180423e+03
1.600000e-07	-4.986752e-06	-1.799901e-08	-3.649424e+01	-1.178084e+03
1.700000e-07	-4.956842e-06	-1.792823e-08	-3.627535e+01	-1.175666e+03
1.800000e-07	-4.925294e-06	-1.802587e-08	-3.604447e+01	-1.173120e+03
1.900000e-07	-4.891664e-06	-1.781163e-08	-3.579836e+01	-1.170392e+03
2.000000e-07	-4.856289e-06	-1.779421e-08	-3.553948e+01	-1.167434e+03
2.100000e-07	-4.819437e-06	-1.785687e-08	-3.526979e+01	-1.164214e+03
2.200000e-07	-4.780799e-06	-1.768377e-08	-3.498703e+01	-1.160713e+03
2.300000e-07	-4.740480e-06	-1.765123e-08	-3.469196e+01	-1.156936e+03
2.400000e-07	-4.698239e-06	-1.759827e-08	-3.438283e+01	-1.152899e+03
2.500000e-07	-4.654092e-06	-1.746962e-08	-3.405975e+01	-1.148628e+03
2.600000e-07	-4.608316e-06	-1.748813e-08	-3.372475e+01	-1.144153e+03
2.700000e-07	-4.560781e-06	-1.738302e-08	-3.337688e+01	-1.139499e+03
2.800000e-07	-4.511274e-06	-1.726761e-08	-3.301458e+01	-1.134684e+03
2.900000e-07	-4.459652e-06	-1.722185e-08	-3.263679e+01	-1.129717e+03
3.000000e-07	-4.406206e-06	-1.714492e-08	-3.224567e+01	-1.124600e+03
3.100000e-07	-4.351247e-06	-1.706014e-08	-3.184347e+01	-1.119328e+03
3.200000e-07	-4.294669e-06	-1.698277e-08	-3.142941e+01	-1.113895e+03
3.300000e-07	-4.236310e-06	-1.690585e-08	-3.100233e+01	-1.108300e+03
3.400000e-07	-4.176385e-06	-1.678428e-08	-3.056378e+01	-1.102541e+03
3.500000e-07	-4.115073e-06	-1.669798e-08	-3.011509e+01	-1.096621e+03
3.600000e-07	-4.052400e-06	-1.661581e-08	-2.965643e+01	-1.090547e+03
3.700000e-07	-3.988436e-06	-1.650967e-08	-2.918833e+01	-1.084321e+03
3.800000e-07	-3.922964e-06	-1.643866e-08	-2.870918e+01	-1.077946e+03
3.900000e-07	-3.855795e-06	-1.632728e-08	-2.821763e+01	-1.071420e+03
4.000000e-07	-3.787205e-06	-1.619852e-08	-2.771567e+01	-1.064733e+03
4.100000e-07	-3.717457e-06	-1.610841e-08	-2.720523e+01	-1.057878e+03
4.200000e-07	-3.646592e-06	-1.600159e-08	-2.668663e+01	-1.050841e+03
4.300000e-07	-3.574553e-06	-1.589022e-08	-2.615943e+01	-1.043616e+03
4.400000e-07	-3.501066e-06	-1.577387e-08	-2.562164e+01	-1.036197e+03
4.500000e-07	-3.425913e-06	-1.565855e-08	-2.507165e+01	-1.028583e+03
4.600000e-07	-3.349373e-06	-1.553515e-08	-2.451151e+01	-1.020780e+03
4.700000e-07	-3.271614e-06	-1.540916e-08	-2.394245e+01	-1.012793e+03
4.800000e-07	-3.192524e-06	-1.528979e-08	-2.336365e+01	-1.004629e+03
4.900000e-07	-3.112071e-06	-1.515763e-08	-2.277488e+01	-9.962917e+02
5.000000e-07	-3.030397e-06	-1.503116e-08	-2.217717e+01	-9.877796e+02
5.100000e-07	-2.947800e-06	-1.489535e-08	-2.157270e+01	-9.790880e+02
5.200000e-07	-2.864363e-06	-1.475897e-08	-2.096209e+01	-9.702079e+02
5.300000e-07	-2.780102e-06	-1.462008e-08	-2.034545e+01	-9.611297e+02
5.400000e-07	-2.694962e-06	-1.447171e-08	-1.972237e+01	-9.518444e+02
5.500000e-07	-2.608897e-06	-1.432616e-08	-1.909253e+01	-9.423464e+02
5.600000e-07	-2.521998e-06	-1.417662e-08	-1.845658e+01	-9.326338e+02
5.700000e-07	-2.434254e-06	-1.402382e-08	-1.781445e+01	-9.227078e+02
5.800000e-07	-2.345530e-06	-1.386493e-08	-1.716515e+01	-9.125712e+02
5.900000e-07	-2.255762e-06	-1.370626e-08	-1.650820e+01	-9.022256e+02
6.000000e-07	-2.164985e-06	-1.354304e-08	-1.584387e+01	-8.916691e+02
6.100000e-07	-2.073382e-06	-1.337872e-08	-1.517351e+01	-8.808952e+02
6.200000e-07	-1.981145e-06	-1.321375e-08	-1.449849e+01	-8.698926e+02
6.300000e-07	-1.888172e-06	-1.304180e-08	-1.381809e+01	-8.586470e+02
6.400000e-07	-1.794449e-06	-1.286490e-08	-1.313220e+01	-8.471437e+02
6.500000e-07	-1.700162e-06	-1.268220e-08	-1.244219e+01	-8.353714e+02
6.600000e-07	-1.605424e-06	-1.249494e-08	-1.174887e+01	-8.233239e+02
6.700000e-07	-1.510195e-06	-1.230371e-08	-1.105197e+01	-8.110020e+02
6.800000e-07	-1.414425e-06	-1.211061e-08	-1.035110e+01	-7.984126e+02
6.900000e-07	-1.318117e-06	-1.191402e-08	-9.646295e+00	-7.855660e+02
7.000000e-07	-1.221287e-06	-1.171554e-08	-8.937669e+00	-7.724722e+02
7.100000e-07	-1.123988e-06	-1.151315e-08	-8.225609e+00	-7.591371e+02
7.200000e-07	-1.026220e-06	-1.130798e-08	-7.510119e+00	-7.455588e+02
7.300000e-07	-9.280117e-07	-1.109942e-08	-6.791410e+00	-7.317268e+02
7.400000e-07	-8.294125e-07	-1.088418e-08	-6.069838e+00	-7.176218e+02
7.500000e-07	-7.304810e-07	-1.066584e-08	-5.345834e+00	-7.032192e+02
7.600000e-07	-6.312890e-07	-1.044257e-08	-4.619924e+00	-6.884927e+02
7.700000e-07	-5.318090e-07	-1.021327e-08	-3.891905e+00	-6.734187e+02
7.800000e-07	-4.321764e-07	-9.976986e-09	-3.162770e+00	-6.579797e+02
7.900000e-07	-3.325063e-07	-9.734787e-09	-2.433361e+00	-6.421659e+02
8.000000e-07	-2.327186e-07	-9.487717e-09	-1.703090e+00	-6.259737e+02
8.100000e-07	-1.328176e-07	-9.235026e-09	-9.719908e-01	-6.094032e+02
8.200000e-07	-3.287615e-08	-8.978161e-09	-2.405955e-01	-5.924534e+02
8.300000e-07	6.707363e-08	-8.716149e-09	4.908608e-01	-5.751172e+02
8.400000e-07	1.670573e-07	-8.448352e-09	1.222565e+00	-5.573776e+02
8.500000e-07	2.670210e-07	-8.173975e-09	1.954123e+00	-5.392064e+02
8.600000e-07	3.669348e-07	-7.892586e-09	2.685316e+00	-5.205639e+02
8.700000e-07	4.667894e-07	-7.602331e-09	3.416076e+00	-5.014030e+02
8.800000e-07	5.665053e-07	-7.302079e-09	4.145821e+00	-4.816731e+02
8.900000e-07	6.660185e-07	-6.990865e-09	4.874082e+00	-4.613259e+02
9.000000e-07	7.653262e-07	-6.668144e-09	5.600839e+00	-4.403192e+02
9.100000e-07	8.643588e-07	-6.335217e-09	6.325583e+00	-4.186195e+02
9.200000e-07	9.630215e-07	-5.994334e-09	7.047621e+00	-3.962019e+02
9.300000e-07	1.061263e-06	-5.645271e-09	7.766578e+00	-3.730474e+02
9.400000e-07	1.158957e-06	-5.283602e-09	8.481527e+00	-3.491391e+02
9.500000e-07	1.256132e-06	-4.907995e-09	9.192674e+00	-3.244565e+02
9.600000e-07	1.352827e-06	-4.520055e-09	9.900312e+00	-2.989719e+02
9.700000e-07	1.448931e-06	-4.119567e-09	1.060362e+01	-2.726469e+02
9.800000e-07	1.544387e-06	-3.703652e-09	1.130219e+01	-2.454327e+02
9.900000e-07	1.639265e-06	-3.273930e-09	1.199653e+01	-2.172713e+02
1.000000e-06	1.733609e-06	-2.828497e-09	1.268697e+01	-1.881005e+02
1.010000e-06	1.827361e-06	-2.365214e-09	1.337307e+01	-1.578587e+02
1.020000e-06	1.920494e-06	-1.885272e-09	1.405464e+01	-1.264912e+02
1.030000e-06	2.013049e-06	-1.388449e-09	1.473197e+01	-9.395514e+01
1.040000e-06	2.105040e-06	-8.756507e-10	1.540519e+01	-6.022383e+01
1.050000e-06	2.196341e-06	-3.443477e-10	1.607335e+01	-2.528982e+01
1.060000e-06	2.286733e-06	2.062924e-10	1.673485e+01	1.083353e+01
1.070000e-06	2.376079e-06	7.734984e-10	1.738871e+01	4.811112e+01
1.080000e-06	2.464431e-06	1.357623e-09	1.803529e+01	8.648556e+01
1.090000e-06	2.551907e-06	1.958040e-09	1.867546e+01	1.258767e+02
1.100000e-06	2.638511e-06	2.573663e-09	1.930925e+01	1.661811e+02
1.110000e-06	2.724215e-06	3.200979e-09	1.993646e+01	2.072714e+02
1.120000e-06	2.809048e-06	3.838264e-09	2.055728e+01	2.489966e+02
1.130000e-06	2.893112e-06	4.481601e-09	2.117248e+01	2.911827e+02
1.140000e-06	2.976385e-06	5.128551e-09	2.178189e+01	3.336357e+02
1.150000e-06	3.058578e-06	5.775455e-09	2.238340e+01	3.761448e+02
1.160000e-06	3.139641e-06	6.419764e-09	2.297664e+01	4.184890e+02
1.170000e-06	3.219553e-06	7.057527e-09	2.356146e+01	4.604434e+02
1.180000e-06	3.298234e-06	7.685888e-09	2.413726e+01	5.017870e+02
1.190000e-06	3.375752e-06	8.300572e-09	2.470456e+01	5.423102e+02
1.200000e-06	3.452127e-06	8.898232e-09	2.526349e+01	5.818218e+02
1.210000e-06	3.527224e-06	9.478479e-09	2.581307e+01	6.201539e+02
1.220000e-06	3.600820e-06	1.003887e-08	2.635166e+01	6.571664e+02
1.230000e-06	3.672948e-06	1.057864e-08	2.687951e+01	6.927482e+02
1.240000e-06	3.743712e-06	1.109487e-08	2.739737e+01	7.268179e+02
1.250000e-06	3.813117e-06	1.158768e-08	2.790530e+01	7.593225e+02
1.260000e-06	3.881291e-06	1.205427e-08	2.840421e+01	7.902351e+02
1.270000e-06	3.948103e-06	1.249312e-08	2.889316e+01	8.195519e+02
1.280000e-06	4.013296e-06	1.290877e-08	2.937025e+01	8.472883e+02
1.290000e-06	4.076947e-06	1.330596e-08	2.983607e+01	8.734759e+02
1.300000e-06	4.139256e-06	1.368109e-08	3.029206e+01	8.981582e+02
1.310000e-06	4.200228e-06	1.403332e-08	3.073827e+01	9.213875e+02
1.320000e-06	4.259842e-06	1.436495e-08	3.117454e+01	9.432218e+02
1.330000e-06	4.317912e-06	1.467776e-08	3.159951e+01	9.637222e+02
1.340000e-06	4.374226e-06	1.496943e-08	3.201163e+01	9.829517e+02
1.350000e-06	4.428910e-06	1.523861e-08	3.241182e+01	1.000973e+03
1.360000e-06	4.482004e-06	1.548920e-08	3.280037e+01	1.017849e+03
1.370000e-06	4.533289e-06	1.572471e-08	3.317569e+01	1.033641e+03
1.380000e-06	4.582550e-06	1.594625e-08	3.353619e+01	1.048409e+03
1.390000e-06	4.629995e-06	1.615268e-08	3.388341e+01	1.062212e+03
1.400000e-06	4.675883e-06	1.634548e-08	3.421923e+01	1.075104e+03
1.410000e-06	4.720305e-06	1.652802e-08	3.454431e+01	1.087139e+03
1.420000e-06	4.763077e-06	1.670116e-08	3.485733e+01	1.098363e+03
1.430000e-06	4.803949e-06	1.686204e-08	3.515644e+01	1.108817e+03
1.440000e-06	4.843130e-06	1.700987e-08	3.544318e+01	1.118538e+03
1.450000e-06	4.880759e-06	1.714672e-08	3.571856e+01	1.127558e+03
1.460000e-06	4.916837e-06	1.727201e-08	3.598259e+01	1.135906e+03
1.470000e-06	4.951202e-06	1.738593e-08	3.623408e+01	1.143609e+03
1.480000e-06	4.983645e-06	1.749084e-08	3.647150e+01	1.150698e+03
1.490000e-06	5.014274e-06	1.758858e-08	3.669565e+01	1.157205e+03
1.500000e-06	5.043282e-06	1.767900e-08	3.690794e+01	1.163167e+03
1.510000e-06	5.070687e-06	1.776206e-08	3.710849e+01	1.168624e+03
1.520000e-06	5.096096e-06	1.783910e-08	3.729445e+01	1.173615e+03
1.530000e-06	5.119429e-06	1.791106e-08	3.746520e+01	1.178179e+03
1.540000e-06	5.141017e-06	1.797654e-08	3.762319e+01	1.182347e+03
1.550000e-06	5.161031e-06	1.803491e-08	3.776966e+01	1.186143e+03
1.560000e-06	5.179335e-06	1.808560e-08	3.790361e+01	1.189578e+03
1.570000e-06	5.195672e-06	1.812867e-08	3.802317e+01	1.192659e+03
1.580000e-06	5.210060e-06	1.816775e-08	3.812846e+01	1.195381e+03
1.590000e-06	5.222486e-06	1.820366e-08	3.821939e+01	1.197742e+03
1.600000e-06	5.232735e-06	1.823407e-08	3.829440e+01	1.199741e+03
1.610000e-06	5.240867e-06	1.825885e-08	3.835392e+01	1.201384e+03
1.620000e-06	5.247146e-06	1.827990e-08	3.839986e+01	1.202688e+03
1.630000e-06	5.251753e-06	1.829587e-08	3.843358e+01	1.203678e+03
1.640000e-06	5.254555e-06	1.830774e-08	3.845409e+01	1.204386e+03
1.650000e-06	5.255363e-06	1.831787e-08	3.846000e+01	1.204846e+03
1.660000e-06	5.254366e-06	1.831977e-08	3.845270e+01	1.205087e+03
1.670000e-06	5.251683e-06	1.831850e-08	3.843307e+01	1.205128e+03
1.680000e-06	5.247378e-06	1.831730e-08	3.840156e+01	1.204975e+03
1.690000e-06	5.241300e-06	1.831073e-08	3.835708e+01	1.204621e+03
1.700000e-06	5.233411e-06	1.830158e-08	3.829935e+01	1.204049e+03
1.710000e-06	5.223954e-06	1.829171e-08	3.823014e+01	1.203236e+03
1.720000e-06	5.212927e-06	1.828723e-08	3.814944e+01	1.202167e+03
1.730000e-06	5.200118e-06	1.828770e-08	3.805570e+01	1.200836e+03
1.740000e-06	5.185309e-06	1.819778e-08	3.794733e+01	1.199252e+03
1.750000e-06	5.168423e-06	1.815422e-08	3.782375e+01	1.197443e+03
1.760000e-06	5.149206e-06	1.816612e-08	3.768312e+01	1.195450e+03
1.770000e-06	5.127456e-06	1.812978e-08	3.752394e+01	1.193325e+03
1.780000e-06	5.103770e-06	1.820706e-08	3.735060e+01	1.191115e+03
1.790000e-06	5.079185e-06	1.811101e-08	3.717068e+01	1.188860e+03
1.800000e-06	5.053745e-06	1.795371e-08	3.698451e+01	1.186580e+03
1.810000e-06	5.026580e-06	1.810896e-08	3.678571e+01	1.184272e+03
1.820000e-06	4.997559e-06	1.798169e-08	3.657333e+01	1.181914e+03
1.830000e-06	4.966783e-06	1.787200e-08	3.634810e+01	1.179461e+03
1.840000e-06	4.934002e-06	1.805862e-08	3.610820e+01	1.176863e+03
1.850000e-06	4.899521e-06	1.785729e-08	3.585586e+01	1.174067e+03
1.860000e-06	4.863522e-06	1.777571e-08	3.559241e+01	1.171029e+03
1.870000e-06	4.825517e-06	1.787540e-08	3.531428e+01	1.167720e+03
1.880000e-06	4.785693e-06	1.769463e-08	3.502284e+01	1.164131e+03
1.890000e-06	4.744229e-06	1.773245e-08	3.471940e+01	1.160269e+03
1.900000e-06	4.701004e-06	1.764218e-08	3.440307e+01	1.156154e+03
1.910000e-06	4.656284e-06	1.745493e-08	3.407580e+01	1.151815e+03
1.920000e-06	4.609797e-06	1.758074e-08	3.373559e+01	1.147281e+03
1.930000e-06	4.561593e-06	1.744010e-08	3.338283e+01	1.142575e+03
1.940000e-06	4.511819e-06	1.733362e-08	3.301857e+01	1.137712e+03
1.950000e-06	4.460177e-06	1.730375e-08	3.264064e+01	1.132697e+03
1.960000e-06	4.406597e-06	1.717651e-08	3.224853e+01	1.127532e+03
1.970000e-06	4.351162e-06	1.714809e-08	3.184284e+01	1.122209e+03
1.980000e-06	4.294098e-06	1.700541e-08	3.142523e+01	1.116726e+03
1.990000e-06	4.235532e-06	1.695907e-08	3.099663e+01	1.111078e+03
2.000000e-06	4.175608e-06	1.690387e-08	3.055810e+01	1.105268e+03
2.010000e-06	4.114277e-06	1.675503e-08	3.010926e+01	1.099299e+03
2.020000e-06	4.051198e-06	1.669684e-08	2.964763e+01	1.093177e+03
2.030000e-06	3.986573e-06	1.655324e-08	2.917469e+01	1.086904e+03
2.040000e-06	3.920597e-06	1.650432e-08	2.869186e+01	1.080482e+03
2.050000e-06	3.853268e-06	1.641073e-08	2.819913e+01	1.073906e+03
2.060000e-06	3.784686e-06	1.626024e-08	2.769724e+01	1.067167e+03
2.070000e-06	3.714577e-06	1.620245e-08	2.718416e+01	1.060256e+03
2.080000e-06	3.642920e-06	1.607307e-08	2.665976e+01	1.053160e+03
2.090000e-06	3.570018e-06	1.597615e-08	2.612624e+01	1.045874e+03
2.100000e-06	3.495909e-06	1.584755e-08	2.558390e+01	1.038393e+03
2.110000e-06	3.420566e-06	1.573555e-08	2.503252e+01	1.030719e+03
2.120000e-06	3.343894e-06	1.563873e-08	2.447141e+01	1.022856e+03
2.130000e-06	3.265775e-06	1.549485e-08	2.389972e+01	1.014813e+03
2.140000e-06	3.186279e-06	1.537836e-08	2.331795e+01	1.006594e+03
2.150000e-06	3.105655e-06	1.523858e-08	2.272793e+01	9.982016e+02
2.160000e-06	3.023967e-06	1.512126e-08	2.213011e+01	9.896336e+02
2.170000e-06	2.941269e-06	1.498719e-08	2.152491e+01	9.808833e+02
2.180000e-06	2.857694e-06	1.485134e-08	2.091329e+01	9.719416e+02
2.190000e-06	2.773138e-06	1.472406e-08	2.029448e+01	9.627985e+02
2.200000e-06	2.687406e-06	1.457352e-08	1.966708e+01	9.534463e+02
2.210000e-06	2.600444e-06	1.443208e-08	1.903067e+01	9.438802e+02
2.220000e-06	2.512474e-06	1.428011e-08	1.838688e+01	9.340997e+02
2.230000e-06	2.423692e-06	1.413428e-08	1.773716e+01	9.241066e+02
2.240000e-06	2.334195e-06	1.397797e-08	1.708220e+01	9.139037e+02
2.250000e-06	2.243949e-06	1.382076e-08	1.642175e+01	9.034916e+02
2.260000e-06	2.152950e-06	1.365885e-08	1.575580e+01	8.928672e+02
2.270000e-06	2.061270e-06	1.349203e-08	1.508486e+01	8.820221e+02
2.280000e-06	1.968909e-06	1.332964e-08	1.440894e+01	8.709439e+02
2.290000e-06	1.875844e-06	1.315870e-08	1.372787e+01	8.596179e+02
2.300000e-06	1.781986e-06	1.298345e-08	1.304100e+01	8.480301e+02
2.310000e-06	1.687343e-06	1.280235e-08	1.234838e+01	8.361706e+02
2.320000e-06	1.592004e-06	1.262082e-08	1.165066e+01	8.240354e+02
2.330000e-06	1.496043e-06	1.243416e-08	1.094840e+01	8.116275e+02
2.340000e-06	1.399580e-06	1.224217e-08	1.024246e+01	7.989552e+02
2.350000e-06	1.302769e-06	1.204328e-08	9.533972e+00	7.860291e+02
2.360000e-06	1.205639e-06	1.183982e-08	8.823152e+00	7.728583e+02
2.370000e-06	1.108082e-06	1.163479e-08	8.109205e+00	7.594465e+02
2.380000e-06	1.010172e-06	1.142747e-08	7.392683e+00	7.457892e+02
2.390000e-06	9.119767e-07	1.121578e-08	6.674063e+00	7.318728e+02
2.400000e-06	8.134544e-07	1.099751e-08	5.953053e+00	7.176759e+02
2.410000e-06	7.146846e-07	1.077599e-08	5.230232e+00	7.031729e+02
2.420000e-06	6.157335e-07	1.055034e-08	4.506085e+00	6.883380e+02
2.430000e-06	5.166814e-07	1.031855e-08	3.781197e+00	6.731492e+02
2.440000e-06	4.175749e-07	1.007983e-08	3.055913e+00	6.575914e+02
2.450000e-06	3.183865e-07	9.834998e-09	2.330029e+00	6.416570e+02
2.460000e-06	2.190676e-07	9.582551e-09	1.603189e+00	6.253440e+02
2.470000e-06	1.196090e-07	9.326039e-09	8.753274e-01	6.086529e+02
2.480000e-06	2.005611e-08	9.067825e-09	1.467754e-01	5.915809e+02
2.490000e-06	-7.950635e-08	8.803511e-09	-5.818464e-01	5.741184e+02
2.500000e-06	-1.790355e-07	8.531153e-09	-1.310224e+00	5.562447e+02
2.510000e-06	-2.785459e-07	8.248838e-09	-2.038465e+00	5.379276e+02
2.520000e-06	-3.779759e-07	7.957742e-09	-2.766117e+00	5.191248e+02
2.530000e-06	-4.772595e-07	7.659307e-09	-3.492699e+00	4.997875e+02
2.540000e-06	-5.764135e-07	7.354242e-09	-4.218331e+00	4.798652e+02
2.550000e-06	-6.754058e-07	7.039942e-09	-4.942780e+00	4.593111e+02
2.560000e-06	-7.741981e-07	6.715152e-09	-5.665766e+00	4.380858e+02
2.570000e-06	-8.727671e-07	6.379763e-09	-6.387118e+00	4.161586e+02
2.580000e-06	-9.710431e-07	6.035000e-09	-7.106325e+00	3.935069e+02
2.590000e-06	-1.068931e-06	5.680556e-09	-7.822690e+00	3.701130e+02
2.600000e-06	-1.166466e-06	5.310837e-09	-8.536475e+00	3.459592e+02
2.610000e-06	-1.263656e-06	4.928415e-09	-9.247738e+00	3.210233e+02
2.620000e-06	-1.360394e-06	4.534045e-09	-9.955687e+00	2.952742e+02
2.630000e-06	-1.456717e-06	4.127392e-09	-1.066060e+01	2.686701e+02
2.640000e-06	-1.552609e-06	3.707924e-09	-1.136237e+01	2.411589e+02
2.650000e-06	-1.647935e-06	3.272079e-09	-1.205998e+01	2.126809e+02
2.660000e-06	-1.742539e-06	2.820407e-09	-1.275232e+01	1.831733e+02
2.670000e-06	-1.836340e-06	2.351862e-09	-1.343877e+01	1.525761e+02
2.680000e-06	-1.929303e-06	1.867669e-09	-1.411910e+01	1.208379e+02
2.690000e-06	-2.021437e-06	1.368777e-09	-1.479336e+01	8.792056e+01
2.700000e-06	-2.112849e-06	8.499092e-10	-1.546233e+01	5.380343e+01
2.710000e-06	-2.203560e-06	3.093869e-10	-1.612618e+01	1.848557e+01
2.720000e-06	-2.293497e-06	-2.502261e-10	-1.678436e+01	-1.801276e+01
2.730000e-06	-2.382640e-06	-8.258591e-10	-1.743673e+01	-5.564933e+01
2.740000e-06	-2.471058e-06	-1.416071e-09	-1.808379e+01	-9.435950e+01
2.750000e-06	-2.558733e-06	-2.022525e-09	-1.872542e+01	-1.340557e+02
2.760000e-06	-2.645460e-06	-2.642960e-09	-1.936011e+01	-1.746268e+02
2.770000e-06	-2.731015e-06	-3.274294e-09	-1.998622e+01	-2.159378e+02
2.780000e-06	-2.815519e-06	-3.914264e-09	-2.060464e+01	-2.578303e+02
2.790000e-06	-2.899138e-06	-4.558996e-09	-2.121658e+01	-3.001233e+02
2.800000e-06	-2.981848e-06	-5.206465e-09	-2.182187e+01	-3.426170e+02
2.810000e-06	-3.063528e-06	-5.854129e-09	-2.241963e+01	-3.850967e+02
2.820000e-06	-3.144196e-06	-6.498698e-09	-2.300997e+01	-4.273392e+02
2.830000e-06	-3.223903e-06	-7.136169e-09	-2.359329e+01	-4.691200e+02
2.840000e-06	-3.302382e-06	-7.763217e-09	-2.416762e+01	-5.102211e+02
2.850000e-06	-3.379361e-06	-8.381439e-09	-2.473097e+01	-5.504380e+02
2.860000e-06	-3.454881e-06	-8.987550e-09	-2.528364e+01	-5.895866e+02
2.870000e-06	-3.529129e-06	-9.572279e-09	-2.582700e+01	-6.275076e+02
2.880000e-06	-3.602190e-06	-1.013524e-08	-2.636168e+01	-6.640699e+02
2.890000e-06	-3.674059e-06	-1.067482e-08	-2.688764e+01	-6.991722e+02
2.900000e-06	-3.744440e-06	-1.118779e-08	-2.740270e+01	-7.327425e+02
2.910000e-06	-3.813271e-06	-1.167549e-08	-2.790643e+01	-7.647362e+02
2.920000e-06	-3.880789e-06	-1.214129e-08	-2.840054e+01	-7.951343e+02
2.930000e-06	-3.946961e-06	-1.258564e-08	-2.888480e+01	-8.239396e+02
2.940000e-06	-4.011791e-06	-1.300540e-08	-2.935924e+01	-8.511732e+02
