# Temperatura_=_70.49
# Concentracion g/m^3_=_26700.0
# C_Vs_to_Am_M_A/Vsm_=_65563218390.804596
# pendiente_HvsI_1/m_=_3716.3
# ordenada_HvsI_A/m_=_1297.0
# frecuencia_Hz_=_301766.4034035504

Tiempo_(s)	Campo_(V.s)	Magnetizacion_(V.s)	Campo_(kA/m)	Magnetizacion_(A/m)
0.000000e+00	-5.231847e-06	-2.140475e-08	-3.830147e+01	-1.397183e+03
1.000000e-08	-5.229978e-06	-2.140795e-08	-3.828779e+01	-1.397299e+03
2.000000e-08	-5.226260e-06	-2.140499e-08	-3.826056e+01	-1.397248e+03
3.000000e-08	-5.220944e-06	-2.139932e-08	-3.822165e+01	-1.397016e+03
4.000000e-08	-5.214082e-06	-2.139144e-08	-3.817141e+01	-1.396578e+03
5.000000e-08	-5.205634e-06	-2.137895e-08	-3.810957e+01	-1.395900e+03
6.000000e-08	-5.195268e-06	-2.136116e-08	-3.803368e+01	-1.394960e+03
7.000000e-08	-5.182940e-06	-2.133531e-08	-3.794343e+01	-1.393746e+03
8.000000e-08	-5.168665e-06	-2.130509e-08	-3.783892e+01	-1.392272e+03
9.000000e-08	-5.152193e-06	-2.130023e-08	-3.771833e+01	-1.390574e+03
1.000000e-07	-5.133621e-06	-2.128340e-08	-3.758237e+01	-1.388708e+03
1.100000e-07	-5.113169e-06	-2.123876e-08	-3.743264e+01	-1.386738e+03
1.200000e-07	-5.090959e-06	-2.120902e-08	-3.727005e+01	-1.384726e+03
1.300000e-07	-5.067308e-06	-2.115226e-08	-3.709691e+01	-1.382718e+03
1.400000e-07	-5.042238e-06	-2.109510e-08	-3.691337e+01	-1.380735e+03
1.500000e-07	-5.015481e-06	-2.112345e-08	-3.671749e+01	-1.378768e+03
1.600000e-07	-4.987086e-06	-2.104534e-08	-3.650961e+01	-1.376777e+03
1.700000e-07	-4.957326e-06	-2.097778e-08	-3.629174e+01	-1.374702e+03
1.800000e-07	-4.925981e-06	-2.100631e-08	-3.606227e+01	-1.372472e+03
1.900000e-07	-4.892562e-06	-2.090077e-08	-3.581762e+01	-1.370018e+03
2.000000e-07	-4.857328e-06	-2.085197e-08	-3.555968e+01	-1.367287e+03
2.100000e-07	-4.820604e-06	-2.084805e-08	-3.529083e+01	-1.364247e+03
2.200000e-07	-4.782162e-06	-2.074050e-08	-3.500940e+01	-1.360889e+03
2.300000e-07	-4.741953e-06	-2.069816e-08	-3.471504e+01	-1.357230e+03
2.400000e-07	-4.699859e-06	-2.064281e-08	-3.440687e+01	-1.353300e+03
2.500000e-07	-4.655871e-06	-2.054573e-08	-3.408484e+01	-1.349137e+03
2.600000e-07	-4.610204e-06	-2.054301e-08	-3.375053e+01	-1.344776e+03
2.700000e-07	-4.562741e-06	-2.045380e-08	-3.340306e+01	-1.340241e+03
2.800000e-07	-4.513313e-06	-2.031647e-08	-3.304120e+01	-1.335548e+03
2.900000e-07	-4.461848e-06	-2.025855e-08	-3.266444e+01	-1.330698e+03
3.000000e-07	-4.408518e-06	-2.021897e-08	-3.227401e+01	-1.325687e+03
3.100000e-07	-4.353655e-06	-2.014521e-08	-3.187237e+01	-1.320506e+03
3.200000e-07	-4.297242e-06	-2.004762e-08	-3.145938e+01	-1.315149e+03
3.300000e-07	-4.239067e-06	-1.996050e-08	-3.103349e+01	-1.309616e+03
3.400000e-07	-4.179301e-06	-1.986292e-08	-3.059596e+01	-1.303912e+03
3.500000e-07	-4.118144e-06	-1.976433e-08	-3.014824e+01	-1.298045e+03
3.600000e-07	-4.055617e-06	-1.967749e-08	-2.969049e+01	-1.292027e+03
3.700000e-07	-3.991759e-06	-1.959446e-08	-2.922299e+01	-1.285863e+03
3.800000e-07	-3.926396e-06	-1.951047e-08	-2.874448e+01	-1.279555e+03
3.900000e-07	-3.859355e-06	-1.939344e-08	-2.825369e+01	-1.273095e+03
4.000000e-07	-3.790902e-06	-1.927363e-08	-2.775255e+01	-1.266472e+03
4.100000e-07	-3.721242e-06	-1.918754e-08	-2.724259e+01	-1.259670e+03
4.200000e-07	-3.650429e-06	-1.908468e-08	-2.672418e+01	-1.252675e+03
4.300000e-07	-3.578490e-06	-1.896736e-08	-2.619752e+01	-1.245477e+03
4.400000e-07	-3.505140e-06	-1.885141e-08	-2.566054e+01	-1.238075e+03
4.500000e-07	-3.430153e-06	-1.873616e-08	-2.511157e+01	-1.230473e+03
4.600000e-07	-3.353795e-06	-1.861469e-08	-2.455257e+01	-1.222679e+03
4.700000e-07	-3.276237e-06	-1.849107e-08	-2.398477e+01	-1.214704e+03
4.800000e-07	-3.197349e-06	-1.837113e-08	-2.340725e+01	-1.206556e+03
4.900000e-07	-3.117064e-06	-1.824355e-08	-2.281950e+01	-1.198236e+03
5.000000e-07	-3.035593e-06	-1.811278e-08	-2.222306e+01	-1.189738e+03
5.100000e-07	-2.953134e-06	-1.797333e-08	-2.161939e+01	-1.181049e+03
5.200000e-07	-2.869761e-06	-1.783346e-08	-2.100903e+01	-1.172153e+03
5.300000e-07	-2.785632e-06	-1.769494e-08	-2.039314e+01	-1.163031e+03
5.400000e-07	-2.700663e-06	-1.755024e-08	-1.977110e+01	-1.153671e+03
5.500000e-07	-2.614699e-06	-1.740086e-08	-1.914177e+01	-1.144064e+03
5.600000e-07	-2.527808e-06	-1.724996e-08	-1.850566e+01	-1.134209e+03
5.700000e-07	-2.440092e-06	-1.709875e-08	-1.786350e+01	-1.124111e+03
5.800000e-07	-2.351464e-06	-1.693875e-08	-1.721467e+01	-1.113778e+03
5.900000e-07	-2.261821e-06	-1.677254e-08	-1.655841e+01	-1.103218e+03
6.000000e-07	-2.171139e-06	-1.660366e-08	-1.589454e+01	-1.092432e+03
6.100000e-07	-2.079591e-06	-1.643423e-08	-1.522433e+01	-1.081416e+03
6.200000e-07	-1.987387e-06	-1.626204e-08	-1.454933e+01	-1.070159e+03
6.300000e-07	-1.894510e-06	-1.608396e-08	-1.386939e+01	-1.058642e+03
6.400000e-07	-1.800944e-06	-1.590436e-08	-1.318441e+01	-1.046847e+03
6.500000e-07	-1.706781e-06	-1.572069e-08	-1.249505e+01	-1.034754e+03
6.600000e-07	-1.612097e-06	-1.552940e-08	-1.180189e+01	-1.022351e+03
6.700000e-07	-1.516914e-06	-1.533323e-08	-1.110507e+01	-1.009629e+03
6.800000e-07	-1.421174e-06	-1.513436e-08	-1.040417e+01	-9.965875e+02
6.900000e-07	-1.324884e-06	-1.493223e-08	-9.699255e+00	-9.832310e+02
7.000000e-07	-1.228063e-06	-1.472515e-08	-8.990444e+00	-9.695650e+02
7.100000e-07	-1.130778e-06	-1.451118e-08	-8.278235e+00	-9.555936e+02
7.200000e-07	-1.033095e-06	-1.429190e-08	-7.563113e+00	-9.413160e+02
7.300000e-07	-9.349676e-07	-1.406907e-08	-6.844739e+00	-9.267245e+02
7.400000e-07	-8.364651e-07	-1.384363e-08	-6.123619e+00	-9.118048e+02
7.500000e-07	-7.376301e-07	-1.361326e-08	-5.400065e+00	-8.965362e+02
7.600000e-07	-6.384717e-07	-1.337580e-08	-4.674144e+00	-8.808945e+02
7.700000e-07	-5.390716e-07	-1.313010e-08	-3.946452e+00	-8.648535e+02
7.800000e-07	-4.395240e-07	-1.287641e-08	-3.217681e+00	-8.483874e+02
7.900000e-07	-3.398444e-07	-1.261830e-08	-2.487944e+00	-8.314715e+02
8.000000e-07	-2.400250e-07	-1.235455e-08	-1.757183e+00	-8.140818e+02
8.100000e-07	-1.401412e-07	-1.208381e-08	-1.025950e+00	-7.961940e+02
8.200000e-07	-4.024477e-08	-1.180574e-08	-2.946252e-01	-7.777824e+02
8.300000e-07	5.968272e-08	-1.151955e-08	4.369271e-01	-7.588179e+02
8.400000e-07	1.596069e-07	-1.122308e-08	1.168455e+00	-7.392675e+02
8.500000e-07	2.594763e-07	-1.091520e-08	1.899582e+00	-7.190942e+02
8.600000e-07	3.592753e-07	-1.059663e-08	2.630193e+00	-6.982576e+02
8.700000e-07	4.589962e-07	-1.026662e-08	3.360234e+00	-6.767143e+02
8.800000e-07	5.586226e-07	-9.926632e-09	4.089581e+00	-6.544185e+02
8.900000e-07	6.581142e-07	-9.576369e-09	4.817943e+00	-6.313221e+02
9.000000e-07	7.574526e-07	-9.213231e-09	5.545182e+00	-6.073737e+02
9.100000e-07	8.565284e-07	-8.834173e-09	6.270500e+00	-5.825170e+02
9.200000e-07	9.551942e-07	-8.439178e-09	6.992815e+00	-5.566893e+02
9.300000e-07	1.053368e-06	-8.029749e-09	7.711532e+00	-5.298199e+02
9.400000e-07	1.151068e-06	-7.604076e-09	8.426775e+00	-5.018296e+02
9.500000e-07	1.248246e-06	-7.160711e-09	9.138196e+00	-4.726309e+02
9.600000e-07	1.344822e-06	-6.697873e-09	9.845211e+00	-4.421296e+02
9.700000e-07	1.440858e-06	-6.212709e-09	1.054827e+01	-4.102269e+02
9.800000e-07	1.536297e-06	-5.702033e-09	1.124697e+01	-3.768221e+02
9.900000e-07	1.631126e-06	-5.166045e-09	1.194120e+01	-3.418147e+02
1.000000e-06	1.725481e-06	-4.605858e-09	1.263196e+01	-3.051070e+02
1.010000e-06	1.819358e-06	-4.019401e-09	1.331921e+01	-2.666058e+02
1.020000e-06	1.912593e-06	-3.405142e-09	1.400177e+01	-2.262254e+02
1.030000e-06	2.005128e-06	-2.762250e-09	1.467920e+01	-1.838907e+02
1.040000e-06	2.097051e-06	-2.089774e-09	1.535216e+01	-1.395429e+02
1.050000e-06	2.188340e-06	-1.385316e-09	1.602047e+01	-9.314740e+01
1.060000e-06	2.278723e-06	-6.464902e-10	1.668214e+01	-4.470340e+01
1.070000e-06	2.368011e-06	1.262726e-10	1.733580e+01	5.745223e+00
1.080000e-06	2.456352e-06	9.281009e-10	1.798253e+01	5.809925e+01
1.090000e-06	2.543862e-06	1.755185e-09	1.862319e+01	1.121958e+02
1.100000e-06	2.630516e-06	2.604223e-09	1.925756e+01	1.678040e+02
1.110000e-06	2.716324e-06	3.471077e-09	1.988575e+01	2.246267e+02
1.120000e-06	2.801251e-06	4.348595e-09	2.050748e+01	2.823081e+02
1.130000e-06	2.885333e-06	5.231736e-09	2.112303e+01	3.404475e+02
1.140000e-06	2.968646e-06	6.115877e-09	2.173295e+01	3.986174e+02
1.150000e-06	3.050916e-06	6.993325e-09	2.233524e+01	4.563842e+02
1.160000e-06	3.131947e-06	7.859814e-09	2.292845e+01	5.133288e+02
1.170000e-06	3.211817e-06	8.709586e-09	2.351317e+01	5.690639e+02
1.180000e-06	3.290564e-06	9.536769e-09	2.408967e+01	6.232480e+02
1.190000e-06	3.368172e-06	1.033397e-08	2.465782e+01	6.755930e+02
1.200000e-06	3.444577e-06	1.109570e-08	2.521717e+01	7.258671e+02
1.210000e-06	3.519701e-06	1.182147e-08	2.576713e+01	7.738939e+02
1.220000e-06	3.593258e-06	1.251050e-08	2.630563e+01	8.195479e+02
1.230000e-06	3.665306e-06	1.316415e-08	2.683308e+01	8.627497e+02
1.240000e-06	3.736115e-06	1.378193e-08	2.735147e+01	9.034606e+02
1.250000e-06	3.805603e-06	1.436188e-08	2.786018e+01	9.416784e+02
1.260000e-06	3.873859e-06	1.490329e-08	2.835986e+01	9.774342e+02
1.270000e-06	3.940921e-06	1.540511e-08	2.885082e+01	1.010789e+03
1.280000e-06	4.006379e-06	1.587033e-08	2.933002e+01	1.041831e+03
1.290000e-06	4.070190e-06	1.630370e-08	2.979717e+01	1.070669e+03
1.300000e-06	4.132605e-06	1.670868e-08	3.025410e+01	1.097431e+03
1.310000e-06	4.193611e-06	1.708574e-08	3.070072e+01	1.122253e+03
1.320000e-06	4.253341e-06	1.743625e-08	3.113799e+01	1.145274e+03
1.330000e-06	4.311538e-06	1.776168e-08	3.156404e+01	1.166630e+03
1.340000e-06	4.367937e-06	1.805992e-08	3.197693e+01	1.186448e+03
1.350000e-06	4.422729e-06	1.833256e-08	3.237805e+01	1.204840e+03
1.360000e-06	4.475964e-06	1.858567e-08	3.276778e+01	1.221910e+03
1.370000e-06	4.527406e-06	1.882190e-08	3.314437e+01	1.237748e+03
1.380000e-06	4.576750e-06	1.904043e-08	3.350561e+01	1.252437e+03
1.390000e-06	4.624263e-06	1.924369e-08	3.385344e+01	1.266052e+03
1.400000e-06	4.670271e-06	1.943333e-08	3.419026e+01	1.278667e+03
1.410000e-06	4.714771e-06	1.961090e-08	3.451604e+01	1.290351e+03
1.420000e-06	4.757692e-06	1.977720e-08	3.483026e+01	1.301170e+03
1.430000e-06	4.798741e-06	1.993025e-08	3.513077e+01	1.311185e+03
1.440000e-06	4.838018e-06	2.007098e-08	3.541831e+01	1.320451e+03
1.450000e-06	4.875762e-06	2.019998e-08	3.569463e+01	1.329014e+03
1.460000e-06	4.911986e-06	2.031722e-08	3.595982e+01	1.336916e+03
1.470000e-06	4.946496e-06	2.042399e-08	3.621246e+01	1.344193e+03
1.480000e-06	4.979051e-06	2.052266e-08	3.645079e+01	1.350880e+03
1.490000e-06	5.009844e-06	2.061390e-08	3.667622e+01	1.357010e+03
1.500000e-06	5.039004e-06	2.069784e-08	3.688969e+01	1.362622e+03
1.510000e-06	5.066533e-06	2.077650e-08	3.709123e+01	1.367757e+03
1.520000e-06	5.092159e-06	2.084902e-08	3.727883e+01	1.372454e+03
1.530000e-06	5.115748e-06	2.091549e-08	3.745153e+01	1.376752e+03
1.540000e-06	5.137509e-06	2.097591e-08	3.761084e+01	1.380684e+03
1.550000e-06	5.157634e-06	2.103000e-08	3.775816e+01	1.384270e+03
1.560000e-06	5.176044e-06	2.107798e-08	3.789294e+01	1.387521e+03
1.570000e-06	5.192481e-06	2.111949e-08	3.801327e+01	1.390436e+03
1.580000e-06	5.206954e-06	2.115595e-08	3.811923e+01	1.393008e+03
1.590000e-06	5.219540e-06	2.118801e-08	3.821137e+01	1.395227e+03
1.600000e-06	5.230044e-06	2.121651e-08	3.828826e+01	1.397091e+03
1.610000e-06	5.238397e-06	2.123971e-08	3.834942e+01	1.398607e+03
1.620000e-06	5.244884e-06	2.125651e-08	3.839691e+01	1.399795e+03
1.630000e-06	5.249618e-06	2.126845e-08	3.843156e+01	1.400688e+03
1.640000e-06	5.252551e-06	2.127749e-08	3.845304e+01	1.401325e+03
1.650000e-06	5.253502e-06	2.128561e-08	3.846000e+01	1.401747e+03
1.660000e-06	5.252572e-06	2.129094e-08	3.845319e+01	1.401984e+03
1.670000e-06	5.250019e-06	2.129237e-08	3.843450e+01	1.402053e+03
1.680000e-06	5.245907e-06	2.129160e-08	3.840440e+01	1.401954e+03
1.690000e-06	5.240009e-06	2.128715e-08	3.836122e+01	1.401667e+03
1.700000e-06	5.232217e-06	2.127932e-08	3.830418e+01	1.401164e+03
1.710000e-06	5.222810e-06	2.126871e-08	3.823531e+01	1.400414e+03
1.720000e-06	5.211883e-06	2.125985e-08	3.815532e+01	1.399397e+03
1.730000e-06	5.199215e-06	2.125827e-08	3.806258e+01	1.398107e+03
1.740000e-06	5.184565e-06	2.121818e-08	3.795532e+01	1.396565e+03
1.750000e-06	5.167783e-06	2.117386e-08	3.783246e+01	1.394814e+03
1.760000e-06	5.148654e-06	2.115718e-08	3.769243e+01	1.392912e+03
1.770000e-06	5.127040e-06	2.112528e-08	3.753419e+01	1.390925e+03
1.780000e-06	5.103475e-06	2.113799e-08	3.736168e+01	1.388911e+03
1.790000e-06	5.078947e-06	2.109823e-08	3.718211e+01	1.386911e+03
1.800000e-06	5.053589e-06	2.100543e-08	3.699647e+01	1.384935e+03
1.810000e-06	5.026580e-06	2.106951e-08	3.679874e+01	1.382967e+03
1.820000e-06	4.997668e-06	2.101654e-08	3.658708e+01	1.380960e+03
1.830000e-06	4.967049e-06	2.091773e-08	3.636293e+01	1.378849e+03
1.840000e-06	4.934468e-06	2.101894e-08	3.612440e+01	1.376562e+03
1.850000e-06	4.900146e-06	2.097473e-08	3.587314e+01	1.374035e+03
1.860000e-06	4.864291e-06	2.088883e-08	3.561065e+01	1.371218e+03
1.870000e-06	4.826436e-06	2.087694e-08	3.533352e+01	1.368087e+03
1.880000e-06	4.786735e-06	2.077283e-08	3.504288e+01	1.364642e+03
1.890000e-06	4.745441e-06	2.078231e-08	3.474057e+01	1.360903e+03
1.900000e-06	4.702420e-06	2.071140e-08	3.442562e+01	1.356904e+03
1.910000e-06	4.657806e-06	2.054120e-08	3.409901e+01	1.352681e+03
1.920000e-06	4.611475e-06	2.060973e-08	3.375983e+01	1.348269e+03
1.930000e-06	4.563452e-06	2.058285e-08	3.340826e+01	1.343689e+03
1.940000e-06	4.513779e-06	2.043243e-08	3.304461e+01	1.338952e+03
1.950000e-06	4.462227e-06	2.034088e-08	3.266721e+01	1.334058e+03
1.960000e-06	4.408830e-06	2.026434e-08	3.227630e+01	1.329000e+03
1.970000e-06	4.353530e-06	2.021797e-08	3.187146e+01	1.323770e+03
1.980000e-06	4.296549e-06	2.010266e-08	3.145431e+01	1.318363e+03
1.990000e-06	4.238160e-06	2.003230e-08	3.102685e+01	1.312781e+03
2.000000e-06	4.178386e-06	2.000043e-08	3.058925e+01	1.307030e+03
2.010000e-06	4.117146e-06	1.987387e-08	3.014093e+01	1.301120e+03
2.020000e-06	4.054166e-06	1.975763e-08	2.967987e+01	1.295061e+03
2.030000e-06	3.989595e-06	1.965503e-08	2.920715e+01	1.288857e+03
2.040000e-06	3.923699e-06	1.960261e-08	2.872473e+01	1.282507e+03
2.050000e-06	3.856545e-06	1.951281e-08	2.823311e+01	1.276003e+03
2.060000e-06	3.788111e-06	1.936412e-08	2.773212e+01	1.269331e+03
2.070000e-06	3.718168e-06	1.928326e-08	2.722008e+01	1.262476e+03
2.080000e-06	3.646727e-06	1.918614e-08	2.669707e+01	1.255424e+03
2.090000e-06	3.573980e-06	1.907016e-08	2.616450e+01	1.248169e+03
2.100000e-06	3.500004e-06	1.894529e-08	2.562294e+01	1.240710e+03
2.110000e-06	3.424809e-06	1.883473e-08	2.507245e+01	1.233052e+03
2.120000e-06	3.348277e-06	1.873755e-08	2.451217e+01	1.225207e+03
2.130000e-06	3.270367e-06	1.859996e-08	2.394181e+01	1.217183e+03
2.140000e-06	3.191093e-06	1.846677e-08	2.336145e+01	1.208986e+03
2.150000e-06	3.110588e-06	1.834164e-08	2.277209e+01	1.200617e+03
2.160000e-06	3.029009e-06	1.822499e-08	2.217486e+01	1.192067e+03
2.170000e-06	2.946393e-06	1.809226e-08	2.157004e+01	1.183322e+03
2.180000e-06	2.862887e-06	1.794833e-08	2.095871e+01	1.174363e+03
2.190000e-06	2.778474e-06	1.781862e-08	2.034074e+01	1.165176e+03
2.200000e-06	2.692972e-06	1.767987e-08	1.971479e+01	1.155746e+03
2.210000e-06	2.606247e-06	1.753046e-08	1.907989e+01	1.146068e+03
2.220000e-06	2.518423e-06	1.737338e-08	1.843695e+01	1.136144e+03
2.230000e-06	2.429736e-06	1.722404e-08	1.778768e+01	1.125979e+03
2.240000e-06	2.340254e-06	1.707193e-08	1.713260e+01	1.115582e+03
2.250000e-06	2.250039e-06	1.690833e-08	1.647215e+01	1.104958e+03
2.260000e-06	2.159119e-06	1.674023e-08	1.580655e+01	1.094108e+03
2.270000e-06	2.067533e-06	1.657565e-08	1.513606e+01	1.083025e+03
2.280000e-06	1.975226e-06	1.641038e-08	1.446030e+01	1.071696e+03
2.290000e-06	1.882144e-06	1.623206e-08	1.377886e+01	1.060103e+03
2.300000e-06	1.788326e-06	1.605012e-08	1.309203e+01	1.048225e+03
2.310000e-06	1.693777e-06	1.586912e-08	1.239985e+01	1.036046e+03
2.320000e-06	1.598534e-06	1.568158e-08	1.170259e+01	1.023553e+03
2.330000e-06	1.502689e-06	1.548263e-08	1.100093e+01	1.010740e+03
2.340000e-06	1.406374e-06	1.527804e-08	1.029583e+01	9.976092e+02
2.350000e-06	1.309690e-06	1.507327e-08	9.588022e+00	9.841645e+02
2.360000e-06	1.212648e-06	1.486501e-08	8.877592e+00	9.704118e+02
2.370000e-06	1.115217e-06	1.465045e-08	8.164311e+00	9.563541e+02
2.380000e-06	1.017435e-06	1.443195e-08	7.448466e+00	9.419887e+02
2.390000e-06	9.193029e-07	1.420982e-08	6.730061e+00	9.273060e+02
2.400000e-06	8.208428e-07	1.397960e-08	6.009251e+00	9.122897e+02
2.410000e-06	7.221509e-07	1.374189e-08	5.286744e+00	8.969179e+02
2.420000e-06	6.232476e-07	1.350213e-08	4.562691e+00	8.811656e+02
2.430000e-06	5.241991e-07	1.325887e-08	3.837573e+00	8.650066e+02
2.440000e-06	4.250671e-07	1.300716e-08	3.111844e+00	8.484152e+02
2.450000e-06	3.258244e-07	1.274474e-08	2.385305e+00	8.313672e+02
2.460000e-06	2.264774e-07	1.247211e-08	1.658003e+00	8.138385e+02
2.470000e-06	1.270462e-07	1.219183e-08	9.300841e-01	7.958046e+02
2.480000e-06	2.756801e-08	1.190708e-08	2.018208e-01	7.772390e+02
2.490000e-06	-7.194030e-08	1.161681e-08	-5.266627e-01	7.581114e+02
2.500000e-06	-1.714464e-07	1.131864e-08	-1.255130e+00	7.383878e+02
2.510000e-06	-2.709060e-07	1.101052e-08	-1.983257e+00	7.180301e+02
2.520000e-06	-3.702857e-07	1.069094e-08	-2.710799e+00	6.969969e+02
2.530000e-06	-4.695677e-07	1.035739e-08	-3.437626e+00	6.752441e+02
2.540000e-06	-5.687432e-07	1.001013e-08	-4.163673e+00	6.527254e+02
2.550000e-06	-6.677645e-07	9.651541e-09	-4.888591e+00	6.293919e+02
2.560000e-06	-7.666176e-07	9.279691e-09	-5.612278e+00	6.051908e+02
2.570000e-06	-8.652528e-07	8.894865e-09	-6.334369e+00	5.800642e+02
2.580000e-06	-9.635801e-07	8.497758e-09	-7.054207e+00	5.539472e+02
2.590000e-06	-1.061537e-06	8.086507e-09	-7.771331e+00	5.267668e+02
2.600000e-06	-1.159086e-06	7.655482e-09	-8.485471e+00	4.984413e+02
2.610000e-06	-1.256224e-06	7.203698e-09	-9.196602e+00	4.688811e+02
2.620000e-06	-1.352937e-06	6.732799e-09	-9.904622e+00	4.379904e+02
2.630000e-06	-1.449237e-06	6.240599e-09	-1.060962e+01	4.056697e+02
2.640000e-06	-1.545097e-06	5.722609e-09	-1.131139e+01	3.718179e+02
2.650000e-06	-1.640402e-06	5.177104e-09	-1.200910e+01	3.363354e+02
2.660000e-06	-1.735006e-06	4.605299e-09	-1.270169e+01	2.991253e+02
2.670000e-06	-1.828769e-06	4.007621e-09	-1.338811e+01	2.600964e+02
2.680000e-06	-1.921683e-06	3.384242e-09	-1.406831e+01	2.191654e+02
2.690000e-06	-2.013859e-06	2.732419e-09	-1.474312e+01	1.762614e+02
2.700000e-06	-2.105330e-06	2.048498e-09	-1.541276e+01	1.313317e+02
2.710000e-06	-2.196060e-06	1.331804e-09	-1.607698e+01	8.435005e+01
2.720000e-06	-2.285985e-06	5.842857e-10	-1.673531e+01	3.532739e+01
2.730000e-06	-2.375112e-06	-1.942808e-10	-1.738779e+01	-1.567761e+01
2.740000e-06	-2.463519e-06	-1.001635e-09	-1.803501e+01	-6.854823e+01
2.750000e-06	-2.551193e-06	-1.836062e-09	-1.867686e+01	-1.231024e+02
2.760000e-06	-2.637972e-06	-2.692586e-09	-1.931215e+01	-1.790899e+02
2.770000e-06	-2.723574e-06	-3.563677e-09	-1.993882e+01	-2.361957e+02
2.780000e-06	-2.808074e-06	-4.444433e-09	-2.055743e+01	-2.940496e+02
2.790000e-06	-2.891700e-06	-5.330577e-09	-2.116965e+01	-3.522412e+02
2.800000e-06	-2.974408e-06	-6.218216e-09	-2.177514e+01	-4.103391e+02
2.810000e-06	-3.056120e-06	-7.099736e-09	-2.237334e+01	-4.679118e+02
2.820000e-06	-3.136807e-06	-7.968688e-09	-2.296403e+01	-5.245478e+02
2.830000e-06	-3.216511e-06	-8.817218e-09	-2.354754e+01	-5.798716e+02
2.840000e-06	-3.294964e-06	-9.637781e-09	-2.412188e+01	-6.335564e+02
2.850000e-06	-3.371910e-06	-1.043030e-08	-2.468518e+01	-6.853300e+02
2.860000e-06	-3.447481e-06	-1.119298e-08	-2.523843e+01	-7.349769e+02
2.870000e-06	-3.521783e-06	-1.192015e-08	-2.578238e+01	-7.823357e+02
2.880000e-06	-3.594841e-06	-1.261018e-08	-2.631722e+01	-8.272945e+02
2.890000e-06	-3.666736e-06	-1.326191e-08	-2.684355e+01	-8.697861e+02
2.900000e-06	-3.737272e-06	-1.387546e-08	-2.735993e+01	-9.097826e+02
2.910000e-06	-3.806215e-06	-1.445344e-08	-2.786466e+01	-9.472916e+02
2.920000e-06	-3.873755e-06	-1.499586e-08	-2.835910e+01	-9.823531e+02
2.930000e-06	-3.940035e-06	-1.550021e-08	-2.884433e+01	-1.015036e+03
2.940000e-06	-4.004993e-06	-1.596778e-08	-2.931988e+01	-1.045435e+03
