# Temperatura_=_66.26
# Concentracion g/m^3_=_26700.0
# C_Vs_to_Am_M_A/Vsm_=_65563218390.804596
# pendiente_HvsI_1/m_=_3716.3
# ordenada_HvsI_A/m_=_1297.0
# frecuencia_Hz_=_302210.2803761141

Tiempo_(s)	Campo_(V.s)	Magnetizacion_(V.s)	Campo_(kA/m)	Magnetizacion_(A/m)
0.000000e+00	-6.646879e-06	-2.545476e-08	-4.769820e+01	-1.666823e+03
1.000000e-08	-6.645247e-06	-2.545628e-08	-4.768648e+01	-1.666715e+03
2.000000e-08	-6.641226e-06	-2.545257e-08	-4.765763e+01	-1.666431e+03
3.000000e-08	-6.635072e-06	-2.544430e-08	-4.761347e+01	-1.665965e+03
4.000000e-08	-6.626887e-06	-2.543532e-08	-4.755473e+01	-1.665321e+03
5.000000e-08	-6.616401e-06	-2.542214e-08	-4.747948e+01	-1.664507e+03
6.000000e-08	-6.603434e-06	-2.540715e-08	-4.738644e+01	-1.663539e+03
7.000000e-08	-6.588009e-06	-2.538537e-08	-4.727574e+01	-1.662434e+03
8.000000e-08	-6.570279e-06	-2.535530e-08	-4.714852e+01	-1.661212e+03
9.000000e-08	-6.550487e-06	-2.536629e-08	-4.700649e+01	-1.659890e+03
1.000000e-07	-6.528368e-06	-2.540546e-08	-4.684776e+01	-1.658482e+03
1.100000e-07	-6.503557e-06	-2.535092e-08	-4.666972e+01	-1.656996e+03
1.200000e-07	-6.476146e-06	-2.528397e-08	-4.647301e+01	-1.655436e+03
1.300000e-07	-6.446588e-06	-2.526487e-08	-4.626090e+01	-1.653795e+03
1.400000e-07	-6.415171e-06	-2.518047e-08	-4.603545e+01	-1.652063e+03
1.500000e-07	-6.381964e-06	-2.507765e-08	-4.579716e+01	-1.650220e+03
1.600000e-07	-6.346827e-06	-2.519401e-08	-4.554501e+01	-1.648245e+03
1.700000e-07	-6.309648e-06	-2.513322e-08	-4.527822e+01	-1.646111e+03
1.800000e-07	-6.270521e-06	-2.501886e-08	-4.499744e+01	-1.643794e+03
1.900000e-07	-6.229096e-06	-2.511475e-08	-4.470017e+01	-1.641271e+03
2.000000e-07	-6.185174e-06	-2.497175e-08	-4.438499e+01	-1.638528e+03
2.100000e-07	-6.139066e-06	-2.492133e-08	-4.405412e+01	-1.635561e+03
2.200000e-07	-6.090523e-06	-2.493654e-08	-4.370577e+01	-1.632375e+03
2.300000e-07	-6.039307e-06	-2.482944e-08	-4.333824e+01	-1.628987e+03
2.400000e-07	-5.985646e-06	-2.479922e-08	-4.295317e+01	-1.625422e+03
2.500000e-07	-5.929709e-06	-2.472854e-08	-4.255177e+01	-1.621707e+03
2.600000e-07	-5.871503e-06	-2.466617e-08	-4.213408e+01	-1.617867e+03
2.700000e-07	-5.811083e-06	-2.462725e-08	-4.170050e+01	-1.613920e+03
2.800000e-07	-5.748647e-06	-2.454432e-08	-4.125246e+01	-1.609872e+03
2.900000e-07	-5.684147e-06	-2.448035e-08	-4.078961e+01	-1.605718e+03
3.000000e-07	-5.617401e-06	-2.440932e-08	-4.031064e+01	-1.601439e+03
3.100000e-07	-5.548525e-06	-2.436016e-08	-3.981638e+01	-1.597009e+03
3.200000e-07	-5.477668e-06	-2.427702e-08	-3.930790e+01	-1.592401e+03
3.300000e-07	-5.404796e-06	-2.421969e-08	-3.878497e+01	-1.587591e+03
3.400000e-07	-5.329760e-06	-2.415227e-08	-3.824651e+01	-1.582565e+03
3.500000e-07	-5.252487e-06	-2.402941e-08	-3.769200e+01	-1.577318e+03
3.600000e-07	-5.173044e-06	-2.396837e-08	-3.712191e+01	-1.571859e+03
3.700000e-07	-5.091587e-06	-2.388898e-08	-3.653738e+01	-1.566205e+03
3.800000e-07	-5.008420e-06	-2.379837e-08	-3.594056e+01	-1.560376e+03
3.900000e-07	-4.923678e-06	-2.371233e-08	-3.533246e+01	-1.554388e+03
4.000000e-07	-4.837363e-06	-2.361701e-08	-3.471306e+01	-1.548252e+03
4.100000e-07	-4.749458e-06	-2.350791e-08	-3.408225e+01	-1.541970e+03
4.200000e-07	-4.659899e-06	-2.339868e-08	-3.343957e+01	-1.535532e+03
4.300000e-07	-4.568713e-06	-2.331228e-08	-3.278522e+01	-1.528924e+03
4.400000e-07	-4.475939e-06	-2.321254e-08	-3.211947e+01	-1.522125e+03
4.500000e-07	-4.381662e-06	-2.310482e-08	-3.144294e+01	-1.515119e+03
4.600000e-07	-4.285753e-06	-2.299278e-08	-3.075469e+01	-1.507895e+03
4.700000e-07	-4.188175e-06	-2.287578e-08	-3.005446e+01	-1.500448e+03
4.800000e-07	-4.089090e-06	-2.275913e-08	-2.934343e+01	-1.492778e+03
4.900000e-07	-3.988561e-06	-2.263853e-08	-2.862203e+01	-1.484889e+03
5.000000e-07	-3.886678e-06	-2.251940e-08	-2.789091e+01	-1.476786e+03
5.100000e-07	-3.783429e-06	-2.239242e-08	-2.715000e+01	-1.468465e+03
5.200000e-07	-3.678682e-06	-2.225499e-08	-2.639833e+01	-1.459919e+03
5.300000e-07	-3.572576e-06	-2.211512e-08	-2.563691e+01	-1.451132e+03
5.400000e-07	-3.465167e-06	-2.197627e-08	-2.486614e+01	-1.442083e+03
5.500000e-07	-3.356434e-06	-2.183260e-08	-2.408587e+01	-1.432751e+03
5.600000e-07	-3.246568e-06	-2.168440e-08	-2.329747e+01	-1.423117e+03
5.700000e-07	-3.135616e-06	-2.153429e-08	-2.250127e+01	-1.413170e+03
5.800000e-07	-3.023390e-06	-2.137624e-08	-2.169593e+01	-1.402906e+03
5.900000e-07	-2.909796e-06	-2.121153e-08	-2.088078e+01	-1.392328e+03
6.000000e-07	-2.795025e-06	-2.104435e-08	-2.005718e+01	-1.381443e+03
6.100000e-07	-2.679090e-06	-2.087387e-08	-1.922523e+01	-1.370257e+03
6.200000e-07	-2.562058e-06	-2.069818e-08	-1.838540e+01	-1.358769e+03
6.300000e-07	-2.444095e-06	-2.051665e-08	-1.753889e+01	-1.346973e+03
6.400000e-07	-2.325329e-06	-2.033016e-08	-1.668663e+01	-1.334849e+03
6.500000e-07	-2.205772e-06	-2.013526e-08	-1.582868e+01	-1.322376e+03
6.600000e-07	-2.085241e-06	-1.993572e-08	-1.496375e+01	-1.309525e+03
6.700000e-07	-1.963882e-06	-1.973263e-08	-1.409287e+01	-1.296273e+03
6.800000e-07	-1.841970e-06	-1.952340e-08	-1.321803e+01	-1.282601e+03
6.900000e-07	-1.719491e-06	-1.931085e-08	-1.233912e+01	-1.268496e+03
7.000000e-07	-1.596362e-06	-1.909233e-08	-1.145554e+01	-1.253954e+03
7.100000e-07	-1.472546e-06	-1.886722e-08	-1.056703e+01	-1.238970e+03
7.200000e-07	-1.348152e-06	-1.863323e-08	-9.674377e+00	-1.223538e+03
7.300000e-07	-1.223341e-06	-1.839161e-08	-8.778731e+00	-1.207641e+03
7.400000e-07	-1.098242e-06	-1.814093e-08	-7.881019e+00	-1.191252e+03
7.500000e-07	-9.729177e-07	-1.788184e-08	-6.981686e+00	-1.174328e+03
7.600000e-07	-8.473475e-07	-1.761639e-08	-6.080590e+00	-1.156817e+03
7.700000e-07	-7.214841e-07	-1.734129e-08	-5.177391e+00	-1.138664e+03
7.800000e-07	-5.953327e-07	-1.705219e-08	-4.272125e+00	-1.119811e+03
7.900000e-07	-4.689907e-07	-1.675038e-08	-3.365491e+00	-1.100212e+03
8.000000e-07	-3.425004e-07	-1.643969e-08	-2.457793e+00	-1.079829e+03
8.100000e-07	-2.158644e-07	-1.611782e-08	-1.549049e+00	-1.058628e+03
8.200000e-07	-8.906609e-08	-1.578355e-08	-6.391409e-01	-1.036582e+03
8.300000e-07	3.776883e-08	-1.543387e-08	2.710302e-01	-1.013652e+03
8.400000e-07	1.645314e-07	-1.506821e-08	1.180682e+00	-9.897828e+02
8.500000e-07	2.913027e-07	-1.468499e-08	2.090397e+00	-9.648924e+02
8.600000e-07	4.180413e-07	-1.428523e-08	2.999876e+00	-9.388695e+02
8.700000e-07	5.445956e-07	-1.386960e-08	3.908034e+00	-9.115729e+02
8.800000e-07	6.709743e-07	-1.343334e-08	4.814931e+00	-8.828374e+02
8.900000e-07	7.971663e-07	-1.297114e-08	5.720489e+00	-8.524812e+02
9.000000e-07	9.230493e-07	-1.247948e-08	6.623829e+00	-8.203131e+02
9.100000e-07	1.048640e-06	-1.195759e-08	7.525074e+00	-7.861364e+02
9.200000e-07	1.173948e-06	-1.140179e-08	8.424287e+00	-7.497465e+02
9.300000e-07	1.298958e-06	-1.081015e-08	9.321363e+00	-7.109239e+02
9.400000e-07	1.423590e-06	-1.017881e-08	1.021572e+01	-6.694224e+02
9.500000e-07	1.547683e-06	-9.501341e-09	1.110622e+01	-6.249578e+02
9.600000e-07	1.671143e-06	-8.769773e-09	1.199217e+01	-5.772025e+02
9.700000e-07	1.793938e-06	-7.981431e-09	1.287335e+01	-5.257900e+02
9.800000e-07	1.916048e-06	-7.132382e-09	1.374962e+01	-4.703346e+02
9.900000e-07	2.037432e-06	-6.217895e-09	1.462067e+01	-4.104661e+02
1.000000e-06	2.158064e-06	-5.234468e-09	1.548633e+01	-3.458781e+02
1.010000e-06	2.277866e-06	-4.174701e-09	1.634603e+01	-2.763836e+02
1.020000e-06	2.396764e-06	-3.038514e-09	1.719925e+01	-2.019693e+02
1.030000e-06	2.514749e-06	-1.826848e-09	1.804591e+01	-1.228397e+02
1.040000e-06	2.631815e-06	-5.490732e-10	1.888598e+01	-3.944227e+01
1.050000e-06	2.747831e-06	7.805054e-10	1.971852e+01	4.753338e+01
1.060000e-06	2.862631e-06	2.147830e-09	2.054232e+01	1.371829e+02
1.070000e-06	2.976219e-06	3.537644e-09	2.135744e+01	2.284400e+02
1.080000e-06	3.088635e-06	4.934745e-09	2.216413e+01	3.201477e+02
1.090000e-06	3.199901e-06	6.319570e-09	2.296258e+01	4.111380e+02
1.100000e-06	3.310059e-06	7.677058e-09	2.375308e+01	5.003100e+02
1.110000e-06	3.419190e-06	8.992060e-09	2.453621e+01	5.866953e+02
1.120000e-06	3.527276e-06	1.025277e-08	2.531183e+01	6.695048e+02
1.130000e-06	3.634050e-06	1.144742e-08	2.607805e+01	7.481517e+02
1.140000e-06	3.739439e-06	1.256954e-08	2.683432e+01	8.222518e+02
1.150000e-06	3.843415e-06	1.361898e-08	2.758046e+01	8.916047e+02
1.160000e-06	3.945954e-06	1.459796e-08	2.831628e+01	9.561626e+02
1.170000e-06	4.047248e-06	1.550765e-08	2.904317e+01	1.015993e+03
1.180000e-06	4.147208e-06	1.634816e-08	2.976049e+01	1.071244e+03
1.190000e-06	4.245543e-06	1.711938e-08	3.046614e+01	1.122112e+03
1.200000e-06	4.342224e-06	1.782465e-08	3.115992e+01	1.168826e+03
1.210000e-06	4.437320e-06	1.847042e-08	3.184233e+01	1.211626e+03
1.220000e-06	4.530875e-06	1.906223e-08	3.251369e+01	1.250765e+03
1.230000e-06	4.623010e-06	1.960545e-08	3.317485e+01	1.286501e+03
1.240000e-06	4.713511e-06	2.010049e-08	3.382429e+01	1.319100e+03
1.250000e-06	4.802183e-06	2.054819e-08	3.446060e+01	1.348826e+03
1.260000e-06	4.889103e-06	2.095532e-08	3.508435e+01	1.375944e+03
1.270000e-06	4.974346e-06	2.133004e-08	3.569605e+01	1.400711e+03
1.280000e-06	5.057943e-06	2.167487e-08	3.629595e+01	1.423364e+03
1.290000e-06	5.139726e-06	2.199278e-08	3.688282e+01	1.444124e+03
1.300000e-06	5.219525e-06	2.228395e-08	3.745546e+01	1.463182e+03
1.310000e-06	5.297408e-06	2.254889e-08	3.801436e+01	1.480705e+03
1.320000e-06	5.373309e-06	2.279151e-08	3.855902e+01	1.496838e+03
1.330000e-06	5.447039e-06	2.301541e-08	3.908811e+01	1.511703e+03
1.340000e-06	5.518682e-06	2.322240e-08	3.960223e+01	1.525409e+03
1.350000e-06	5.588410e-06	2.341185e-08	4.010260e+01	1.538051e+03
1.360000e-06	5.656142e-06	2.358597e-08	4.058864e+01	1.549718e+03
1.370000e-06	5.721666e-06	2.374899e-08	4.105885e+01	1.560490e+03
1.380000e-06	5.785072e-06	2.390256e-08	4.151385e+01	1.570440e+03
1.390000e-06	5.846564e-06	2.404712e-08	4.195511e+01	1.579631e+03
1.400000e-06	5.906126e-06	2.418042e-08	4.238253e+01	1.588121e+03
1.410000e-06	5.963543e-06	2.430230e-08	4.279456e+01	1.595957e+03
1.420000e-06	6.018804e-06	2.441248e-08	4.319111e+01	1.603182e+03
1.430000e-06	6.071909e-06	2.451150e-08	4.357220e+01	1.609837e+03
1.440000e-06	6.122469e-06	2.460267e-08	4.393501e+01	1.615961e+03
1.450000e-06	6.170468e-06	2.468834e-08	4.427946e+01	1.621594e+03
1.460000e-06	6.216312e-06	2.476782e-08	4.460843e+01	1.626777e+03
1.470000e-06	6.260158e-06	2.484096e-08	4.492308e+01	1.631553e+03
1.480000e-06	6.301750e-06	2.490932e-08	4.522154e+01	1.635959e+03
1.490000e-06	6.340951e-06	2.497391e-08	4.550285e+01	1.640028e+03
1.500000e-06	6.378046e-06	2.503262e-08	4.576905e+01	1.643785e+03
1.510000e-06	6.413006e-06	2.508398e-08	4.601992e+01	1.647242e+03
1.520000e-06	6.445538e-06	2.513162e-08	4.625337e+01	1.650405e+03
1.530000e-06	6.475764e-06	2.517515e-08	4.647027e+01	1.653273e+03
1.540000e-06	6.503944e-06	2.521280e-08	4.667249e+01	1.655839e+03
1.550000e-06	6.529728e-06	2.524636e-08	4.685752e+01	1.658103e+03
1.560000e-06	6.552936e-06	2.527711e-08	4.702406e+01	1.660068e+03
1.570000e-06	6.573947e-06	2.530359e-08	4.717484e+01	1.661746e+03
1.580000e-06	6.592740e-06	2.532590e-08	4.730970e+01	1.663156e+03
1.590000e-06	6.609042e-06	2.534496e-08	4.742667e+01	1.664326e+03
1.600000e-06	6.622834e-06	2.536016e-08	4.752565e+01	1.665282e+03
1.610000e-06	6.634036e-06	2.537191e-08	4.760604e+01	1.666051e+03
1.620000e-06	6.642620e-06	2.538075e-08	4.766764e+01	1.666653e+03
1.630000e-06	6.648784e-06	2.538752e-08	4.771187e+01	1.667099e+03
1.640000e-06	6.652675e-06	2.539244e-08	4.773979e+01	1.667394e+03
1.650000e-06	6.654202e-06	2.539778e-08	4.775075e+01	1.667532e+03
1.660000e-06	6.653335e-06	2.540109e-08	4.774453e+01	1.667504e+03
1.670000e-06	6.650323e-06	2.539442e-08	4.772291e+01	1.667303e+03
1.680000e-06	6.645145e-06	2.538936e-08	4.768575e+01	1.666921e+03
1.690000e-06	6.637719e-06	2.538081e-08	4.763246e+01	1.666360e+03
1.700000e-06	6.628156e-06	2.536861e-08	4.756384e+01	1.665623e+03
1.710000e-06	6.616457e-06	2.535782e-08	4.747989e+01	1.664724e+03
1.720000e-06	6.602364e-06	2.535082e-08	4.737876e+01	1.663680e+03
1.730000e-06	6.586002e-06	2.535414e-08	4.726134e+01	1.662510e+03
1.740000e-06	6.567700e-06	2.527844e-08	4.713001e+01	1.661232e+03
1.750000e-06	6.546947e-06	2.519591e-08	4.698108e+01	1.659863e+03
1.760000e-06	6.523026e-06	2.522899e-08	4.680943e+01	1.658413e+03
1.770000e-06	6.496176e-06	2.522736e-08	4.661675e+01	1.656888e+03
1.780000e-06	6.466977e-06	2.519508e-08	4.640722e+01	1.655285e+03
1.790000e-06	6.435835e-06	2.529562e-08	4.618374e+01	1.653597e+03
1.800000e-06	6.403316e-06	2.519922e-08	4.595038e+01	1.651809e+03
1.810000e-06	6.369162e-06	2.508780e-08	4.570530e+01	1.649898e+03
1.820000e-06	6.332570e-06	2.520302e-08	4.544271e+01	1.647841e+03
1.830000e-06	6.293736e-06	2.503601e-08	4.516404e+01	1.645612e+03
1.840000e-06	6.252806e-06	2.505420e-08	4.487032e+01	1.643187e+03
1.850000e-06	6.209713e-06	2.510382e-08	4.456108e+01	1.640548e+03
1.860000e-06	6.164594e-06	2.489564e-08	4.423731e+01	1.637684e+03
1.870000e-06	6.117054e-06	2.496619e-08	4.389616e+01	1.634598e+03
1.880000e-06	6.067200e-06	2.486320e-08	4.353840e+01	1.631302e+03
1.890000e-06	6.015001e-06	2.480148e-08	4.316382e+01	1.627816e+03
1.900000e-06	5.960132e-06	2.482886e-08	4.277008e+01	1.624167e+03
1.910000e-06	5.902960e-06	2.465485e-08	4.235981e+01	1.620382e+03
1.920000e-06	5.843685e-06	2.468860e-08	4.193446e+01	1.616483e+03
1.930000e-06	5.782300e-06	2.460525e-08	4.149395e+01	1.612482e+03
1.940000e-06	5.718767e-06	2.453053e-08	4.103804e+01	1.608379e+03
1.950000e-06	5.653060e-06	2.449916e-08	4.056652e+01	1.604161e+03
1.960000e-06	5.585274e-06	2.437320e-08	4.008009e+01	1.599805e+03
1.970000e-06	5.515267e-06	2.437192e-08	3.957772e+01	1.595283e+03
1.980000e-06	5.443105e-06	2.423528e-08	3.905988e+01	1.590569e+03
1.990000e-06	5.368946e-06	2.419140e-08	3.852772e+01	1.585644e+03
2.000000e-06	5.292707e-06	2.412815e-08	3.798062e+01	1.580499e+03
2.010000e-06	5.214365e-06	2.401310e-08	3.741843e+01	1.575137e+03
2.020000e-06	5.134015e-06	2.396561e-08	3.684184e+01	1.569572e+03
2.030000e-06	5.051911e-06	2.382592e-08	3.625266e+01	1.563821e+03
2.040000e-06	4.968065e-06	2.376637e-08	3.565098e+01	1.557905e+03
2.050000e-06	4.882435e-06	2.366942e-08	3.503650e+01	1.551837e+03
2.060000e-06	4.795001e-06	2.358994e-08	3.440907e+01	1.545624e+03
2.070000e-06	4.705868e-06	2.349474e-08	3.376945e+01	1.539260e+03
2.080000e-06	4.615266e-06	2.338153e-08	3.311928e+01	1.532733e+03
2.090000e-06	4.523081e-06	2.329503e-08	3.245776e+01	1.526025e+03
2.100000e-06	4.429245e-06	2.316537e-08	3.178439e+01	1.519117e+03
2.110000e-06	4.333722e-06	2.306803e-08	3.109892e+01	1.511996e+03
2.120000e-06	4.236677e-06	2.294989e-08	3.040252e+01	1.504652e+03
2.130000e-06	4.138384e-06	2.284640e-08	2.969717e+01	1.497085e+03
2.140000e-06	4.038667e-06	2.272304e-08	2.898159e+01	1.489298e+03
2.150000e-06	3.937320e-06	2.259666e-08	2.825433e+01	1.481294e+03
2.160000e-06	3.834373e-06	2.247952e-08	2.751557e+01	1.473075e+03
2.170000e-06	3.729965e-06	2.235118e-08	2.676634e+01	1.464635e+03
2.180000e-06	3.624319e-06	2.222380e-08	2.600822e+01	1.455962e+03
2.190000e-06	3.517564e-06	2.208706e-08	2.524214e+01	1.447037e+03
2.200000e-06	3.409548e-06	2.195406e-08	2.446702e+01	1.437839e+03
2.210000e-06	3.300230e-06	2.180391e-08	2.368255e+01	1.428348e+03
2.220000e-06	3.189607e-06	2.165349e-08	2.288871e+01	1.418547e+03
2.230000e-06	3.077701e-06	2.149921e-08	2.208567e+01	1.408430e+03
2.240000e-06	2.964599e-06	2.134572e-08	2.127405e+01	1.397997e+03
2.250000e-06	2.850354e-06	2.118295e-08	2.045422e+01	1.387254e+03
2.260000e-06	2.735003e-06	2.101765e-08	1.962646e+01	1.376207e+03
2.270000e-06	2.618426e-06	2.084590e-08	1.878990e+01	1.364860e+03
2.280000e-06	2.500716e-06	2.066807e-08	1.794521e+01	1.353208e+03
2.290000e-06	2.382088e-06	2.048916e-08	1.709393e+01	1.341239e+03
2.300000e-06	2.262486e-06	2.030284e-08	1.623567e+01	1.328931e+03
2.310000e-06	2.141961e-06	2.011239e-08	1.537077e+01	1.316259e+03
2.320000e-06	2.020786e-06	1.991131e-08	1.450122e+01	1.303197e+03
2.330000e-06	1.899042e-06	1.970570e-08	1.362758e+01	1.289721e+03
2.340000e-06	1.776729e-06	1.949375e-08	1.274986e+01	1.275818e+03
2.350000e-06	1.653848e-06	1.927536e-08	1.186806e+01	1.261479e+03
2.360000e-06	1.530452e-06	1.904840e-08	1.098257e+01	1.246701e+03
2.370000e-06	1.406551e-06	1.881520e-08	1.009345e+01	1.231478e+03
2.380000e-06	1.282094e-06	1.857446e-08	9.200342e+00	1.215800e+03
2.390000e-06	1.157103e-06	1.832700e-08	8.303404e+00	1.199644e+03
2.400000e-06	1.031689e-06	1.807344e-08	7.403430e+00	1.182974e+03
2.410000e-06	9.059620e-07	1.780896e-08	6.501210e+00	1.165743e+03
2.420000e-06	7.799205e-07	1.753549e-08	5.596732e+00	1.147895e+03
2.430000e-06	6.536393e-07	1.725133e-08	4.690535e+00	1.129374e+03
2.440000e-06	5.271966e-07	1.695668e-08	3.783178e+00	1.110127e+03
2.450000e-06	4.006282e-07	1.665233e-08	2.874920e+00	1.090112e+03
2.460000e-06	2.739322e-07	1.633846e-08	1.965745e+00	1.069294e+03
2.470000e-06	1.470740e-07	1.601089e-08	1.055407e+00	1.047645e+03
2.480000e-06	2.009621e-08	1.566634e-08	1.442110e-01	1.025131e+03
2.490000e-06	-1.069430e-07	1.530902e-08	-7.674264e-01	1.001706e+03
2.500000e-06	-2.339521e-07	1.493812e-08	-1.678847e+00	9.773016e+02
2.510000e-06	-3.608891e-07	1.455152e-08	-2.589751e+00	9.518204e+02
2.520000e-06	-4.877525e-07	1.414505e-08	-3.500126e+00	9.251344e+02
2.530000e-06	-6.145131e-07	1.371462e-08	-4.409764e+00	8.970888e+02
2.540000e-06	-7.410642e-07	1.326306e-08	-5.317898e+00	8.675084e+02
2.550000e-06	-8.673423e-07	1.278587e-08	-6.224074e+00	8.362057e+02
2.560000e-06	-9.933293e-07	1.227734e-08	-7.128160e+00	8.029865e+02
2.570000e-06	-1.118929e-06	1.173921e-08	-8.029469e+00	7.676503e+02
2.580000e-06	-1.244144e-06	1.116825e-08	-8.928017e+00	7.299859e+02
2.590000e-06	-1.368911e-06	1.055751e-08	-9.823343e+00	6.897610e+02
2.600000e-06	-1.493106e-06	9.902834e-09	-1.071457e+01	6.467102e+02
2.610000e-06	-1.616720e-06	9.199543e-09	-1.160163e+01	6.005263e+02
2.620000e-06	-1.739693e-06	8.441623e-09	-1.248409e+01	5.508592e+02
2.630000e-06	-1.861956e-06	7.623411e-09	-1.336145e+01	4.973289e+02
2.640000e-06	-1.983601e-06	6.742147e-09	-1.423438e+01	4.395525e+02
2.650000e-06	-2.104633e-06	5.792261e-09	-1.510291e+01	3.771876e+02
2.660000e-06	-2.224899e-06	4.768421e-09	-1.596594e+01	3.099846e+02
2.670000e-06	-2.344248e-06	3.672116e-09	-1.682239e+01	2.378431e+02
2.680000e-06	-2.462602e-06	2.503042e-09	-1.767170e+01	1.608622e+02
2.690000e-06	-2.579948e-06	1.265017e-09	-1.851378e+01	7.937490e+01
2.700000e-06	-2.696179e-06	-3.421145e-11	-1.934786e+01	-6.039824e+00
2.710000e-06	-2.811215e-06	-1.384519e-09	-2.017336e+01	-9.457212e+01
2.720000e-06	-2.925080e-06	-2.769078e-09	-2.099046e+01	-1.852230e+02
2.730000e-06	-3.037801e-06	-4.170143e-09	-2.179935e+01	-2.768680e+02
2.740000e-06	-3.149340e-06	-5.569705e-09	-2.259976e+01	-3.683340e+02
2.750000e-06	-3.259616e-06	-6.948984e-09	-2.339110e+01	-4.584800e+02
2.760000e-06	-3.368704e-06	-8.292470e-09	-2.417392e+01	-5.462689e+02
2.770000e-06	-3.476695e-06	-9.586264e-09	-2.494886e+01	-6.308241e+02
2.780000e-06	-3.583621e-06	-1.081948e-08	-2.571617e+01	-7.114635e+02
2.790000e-06	-3.689483e-06	-1.198419e-08	-2.647584e+01	-7.877100e+02
2.800000e-06	-3.794100e-06	-1.307712e-08	-2.722657e+01	-8.592813e+02
2.810000e-06	-3.897239e-06	-1.410093e-08	-2.796670e+01	-9.260632e+02
2.820000e-06	-3.998881e-06	-1.505632e-08	-2.869609e+01	-9.880742e+02
2.830000e-06	-4.099092e-06	-1.594127e-08	-2.941520e+01	-1.045429e+03
2.840000e-06	-4.197891e-06	-1.675518e-08	-3.012419e+01	-1.098305e+03
2.850000e-06	-4.295306e-06	-1.750087e-08	-3.082324e+01	-1.146919e+03
2.860000e-06	-4.391288e-06	-1.818359e-08	-3.151201e+01	-1.191505e+03
2.870000e-06	-4.485663e-06	-1.880876e-08	-3.218925e+01	-1.232312e+03
2.880000e-06	-4.578392e-06	-1.938175e-08	-3.285468e+01	-1.269595e+03
2.890000e-06	-4.669533e-06	-1.990502e-08	-3.350871e+01	-1.303617e+03
2.900000e-06	-4.759070e-06	-2.038055e-08	-3.415122e+01	-1.334644e+03
2.910000e-06	-4.846827e-06	-2.081378e-08	-3.478097e+01	-1.362941e+03
2.920000e-06	-4.932693e-06	-2.121046e-08	-3.539715e+01	-1.388768e+03
2.930000e-06	-5.016795e-06	-2.157480e-08	-3.600067e+01	-1.412374e+03
2.940000e-06	-5.099162e-06	-2.190803e-08	-3.659173e+01	-1.433987e+03
