# Temperatura_=_57.42
# Concentracion g/m^3_=_26700.0
# C_Vs_to_Am_M_A/Vsm_=_65563218390.804596
# pendiente_HvsI_1/m_=_3716.3
# ordenada_HvsI_A/m_=_1297.0
# frecuencia_Hz_=_302555.3323506287

Tiempo_(s)	Campo_(V.s)	Magnetizacion_(V.s)	Campo_(kA/m)	Magnetizacion_(A/m)
0.000000e+00	-7.993588e-06	-2.835281e-08	-5.684279e+01	-1.853022e+03
1.000000e-08	-7.990077e-06	-2.834850e-08	-5.681783e+01	-1.852644e+03
2.000000e-08	-7.983948e-06	-2.833754e-08	-5.677424e+01	-1.852145e+03
3.000000e-08	-7.975175e-06	-2.832638e-08	-5.671186e+01	-1.851549e+03
4.000000e-08	-7.963553e-06	-2.831297e-08	-5.662921e+01	-1.850863e+03
5.000000e-08	-7.948965e-06	-2.829840e-08	-5.652548e+01	-1.850079e+03
6.000000e-08	-7.931569e-06	-2.828383e-08	-5.640178e+01	-1.849172e+03
7.000000e-08	-7.911773e-06	-2.826467e-08	-5.626100e+01	-1.848110e+03
8.000000e-08	-7.889619e-06	-2.826763e-08	-5.610346e+01	-1.846870e+03
9.000000e-08	-7.864539e-06	-2.828688e-08	-5.592512e+01	-1.845442e+03
1.000000e-07	-7.836204e-06	-2.823740e-08	-5.572363e+01	-1.843846e+03
1.100000e-07	-7.804839e-06	-2.818431e-08	-5.550059e+01	-1.842124e+03
1.200000e-07	-7.770684e-06	-2.815842e-08	-5.525771e+01	-1.840341e+03
1.300000e-07	-7.733932e-06	-2.811736e-08	-5.499637e+01	-1.838565e+03
1.400000e-07	-7.694881e-06	-2.805008e-08	-5.471867e+01	-1.836853e+03
1.500000e-07	-7.653657e-06	-2.801502e-08	-5.442553e+01	-1.835234e+03
1.600000e-07	-7.609972e-06	-2.805634e-08	-5.411488e+01	-1.833698e+03
1.700000e-07	-7.563603e-06	-2.796593e-08	-5.378515e+01	-1.832196e+03
1.800000e-07	-7.514491e-06	-2.792561e-08	-5.343591e+01	-1.830641e+03
1.900000e-07	-7.462332e-06	-2.791641e-08	-5.306500e+01	-1.828929e+03
2.000000e-07	-7.407201e-06	-2.782094e-08	-5.267297e+01	-1.826958e+03
2.100000e-07	-7.349395e-06	-2.780057e-08	-5.226191e+01	-1.824642e+03
2.200000e-07	-7.288913e-06	-2.776545e-08	-5.183182e+01	-1.821934e+03
2.300000e-07	-7.225810e-06	-2.772996e-08	-5.138309e+01	-1.818826e+03
2.400000e-07	-7.160019e-06	-2.764888e-08	-5.091525e+01	-1.815349e+03
2.500000e-07	-7.091487e-06	-2.757458e-08	-5.042791e+01	-1.811561e+03
2.600000e-07	-7.020207e-06	-2.753920e-08	-4.992104e+01	-1.807533e+03
2.700000e-07	-6.946094e-06	-2.746154e-08	-4.939401e+01	-1.803331e+03
2.800000e-07	-6.869228e-06	-2.739498e-08	-4.884741e+01	-1.799001e+03
2.900000e-07	-6.789632e-06	-2.732800e-08	-4.828140e+01	-1.794565e+03
3.000000e-07	-6.707390e-06	-2.725909e-08	-4.769658e+01	-1.790019e+03
3.100000e-07	-6.622852e-06	-2.717047e-08	-4.709542e+01	-1.785341e+03
3.200000e-07	-6.536097e-06	-2.708721e-08	-4.647851e+01	-1.780501e+03
3.300000e-07	-6.446949e-06	-2.704085e-08	-4.584456e+01	-1.775470e+03
3.400000e-07	-6.355389e-06	-2.696227e-08	-4.519348e+01	-1.770231e+03
3.500000e-07	-6.261602e-06	-2.687454e-08	-4.452656e+01	-1.764779e+03
3.600000e-07	-6.165575e-06	-2.678167e-08	-4.384370e+01	-1.759123e+03
3.700000e-07	-6.067164e-06	-2.669932e-08	-4.314390e+01	-1.753274e+03
3.800000e-07	-5.966585e-06	-2.661255e-08	-4.242867e+01	-1.747246e+03
3.900000e-07	-5.863962e-06	-2.651661e-08	-4.169892e+01	-1.741042e+03
4.000000e-07	-5.759205e-06	-2.642702e-08	-4.095399e+01	-1.734659e+03
4.100000e-07	-5.652358e-06	-2.631915e-08	-4.019419e+01	-1.728079e+03
4.200000e-07	-5.543566e-06	-2.620625e-08	-3.942057e+01	-1.721283e+03
4.300000e-07	-5.432815e-06	-2.608944e-08	-3.863301e+01	-1.714250e+03
4.400000e-07	-5.320006e-06	-2.598505e-08	-3.783082e+01	-1.706967e+03
4.500000e-07	-5.205158e-06	-2.587428e-08	-3.701413e+01	-1.699428e+03
4.600000e-07	-5.088347e-06	-2.575629e-08	-3.618348e+01	-1.691636e+03
4.700000e-07	-4.969666e-06	-2.563390e-08	-3.533954e+01	-1.683599e+03
4.800000e-07	-4.849174e-06	-2.550669e-08	-3.448271e+01	-1.675324e+03
4.900000e-07	-4.726911e-06	-2.537744e-08	-3.361330e+01	-1.666810e+03
5.000000e-07	-4.602870e-06	-2.524399e-08	-3.273123e+01	-1.658047e+03
5.100000e-07	-4.477111e-06	-2.510974e-08	-3.183695e+01	-1.649015e+03
5.200000e-07	-4.349726e-06	-2.496503e-08	-3.093111e+01	-1.639686e+03
5.300000e-07	-4.220808e-06	-2.481313e-08	-3.001437e+01	-1.630033e+03
5.400000e-07	-4.090345e-06	-2.465689e-08	-2.908665e+01	-1.620035e+03
5.500000e-07	-3.958303e-06	-2.450069e-08	-2.814768e+01	-1.609680e+03
5.600000e-07	-3.824753e-06	-2.433661e-08	-2.719801e+01	-1.598971e+03
5.700000e-07	-3.689790e-06	-2.416610e-08	-2.623828e+01	-1.587918e+03
5.800000e-07	-3.553438e-06	-2.399409e-08	-2.526867e+01	-1.576533e+03
5.900000e-07	-3.415702e-06	-2.381626e-08	-2.428922e+01	-1.564823e+03
6.000000e-07	-3.276564e-06	-2.363254e-08	-2.329981e+01	-1.552783e+03
6.100000e-07	-3.135932e-06	-2.344103e-08	-2.229977e+01	-1.540392e+03
6.200000e-07	-2.993986e-06	-2.324496e-08	-2.129038e+01	-1.527614e+03
6.300000e-07	-2.850833e-06	-2.304080e-08	-2.027241e+01	-1.514406e+03
6.400000e-07	-2.706636e-06	-2.282869e-08	-1.924702e+01	-1.500724e+03
6.500000e-07	-2.561532e-06	-2.261021e-08	-1.821518e+01	-1.486532e+03
6.600000e-07	-2.415431e-06	-2.238432e-08	-1.717625e+01	-1.471811e+03
6.700000e-07	-2.268558e-06	-2.215221e-08	-1.613183e+01	-1.456556e+03
6.800000e-07	-2.121009e-06	-2.191030e-08	-1.508260e+01	-1.440773e+03
6.900000e-07	-1.972704e-06	-2.166030e-08	-1.402799e+01	-1.424471e+03
7.000000e-07	-1.823820e-06	-2.140434e-08	-1.296927e+01	-1.407652e+03
7.100000e-07	-1.674427e-06	-2.114175e-08	-1.190693e+01	-1.390300e+03
7.200000e-07	-1.524456e-06	-2.086922e-08	-1.084048e+01	-1.372376e+03
7.300000e-07	-1.373905e-06	-2.058657e-08	-9.769904e+00	-1.353822e+03
7.400000e-07	-1.222884e-06	-2.029063e-08	-8.695990e+00	-1.334567e+03
7.500000e-07	-1.071531e-06	-1.998307e-08	-7.619709e+00	-1.314539e+03
7.600000e-07	-9.198510e-07	-1.966507e-08	-6.541105e+00	-1.293671e+03
7.700000e-07	-7.678407e-07	-1.933329e-08	-5.460153e+00	-1.271915e+03
7.800000e-07	-6.155254e-07	-1.899033e-08	-4.377031e+00	-1.249237e+03
7.900000e-07	-4.629846e-07	-1.863120e-08	-3.292306e+00	-1.225611e+03
8.000000e-07	-3.102202e-07	-1.825520e-08	-2.205991e+00	-1.201006e+03
8.100000e-07	-1.572592e-07	-1.786238e-08	-1.118278e+00	-1.175370e+03
8.200000e-07	-4.170581e-09	-1.745164e-08	-2.965721e-02	-1.148615e+03
8.300000e-07	1.489556e-07	-1.702248e-08	1.059230e+00	-1.120613e+03
8.400000e-07	3.020419e-07	-1.657291e-08	2.147834e+00	-1.091195e+03
8.500000e-07	4.550371e-07	-1.610098e-08	3.235791e+00	-1.060161e+03
8.600000e-07	6.078458e-07	-1.560102e-08	4.322421e+00	-1.027294e+03
8.700000e-07	7.604444e-07	-1.506957e-08	5.407557e+00	-9.923759e+02
8.800000e-07	9.127769e-07	-1.450311e-08	6.490801e+00	-9.551850e+02
8.900000e-07	1.064774e-06	-1.389993e-08	7.571660e+00	-9.154947e+02
9.000000e-07	1.216426e-06	-1.325571e-08	8.650066e+00	-8.730502e+02
9.100000e-07	1.367621e-06	-1.256399e-08	9.725216e+00	-8.275381e+02
9.200000e-07	1.518308e-06	-1.181673e-08	1.079676e+01	-7.785548e+02
9.300000e-07	1.668495e-06	-1.100467e-08	1.186475e+01	-7.255846e+02
9.400000e-07	1.818090e-06	-1.012193e-08	1.292852e+01	-6.679993e+02
9.500000e-07	1.967084e-06	-9.159035e-09	1.398803e+01	-6.050875e+02
9.600000e-07	2.115389e-06	-8.104561e-09	1.504264e+01	-5.361188e+02
9.700000e-07	2.262878e-06	-6.949328e-09	1.609144e+01	-4.604362e+02
9.800000e-07	2.409507e-06	-5.683801e-09	1.713412e+01	-3.775680e+02
9.900000e-07	2.555276e-06	-4.304832e-09	1.817069e+01	-2.873389e+02
1.000000e-06	2.700063e-06	-2.818421e-09	1.920028e+01	-1.899627e+02
1.010000e-06	2.843804e-06	-1.232973e-09	2.022243e+01	-8.609599e+01
1.020000e-06	2.986472e-06	4.362599e-10	2.123695e+01	2.315980e+01
1.030000e-06	3.127958e-06	2.165682e-09	2.224306e+01	1.363123e+02
1.040000e-06	3.268223e-06	3.926885e-09	2.324049e+01	2.515840e+02
1.050000e-06	3.407122e-06	5.687852e-09	2.422821e+01	3.670543e+02
1.060000e-06	3.544660e-06	7.418027e-09	2.520625e+01	4.808178e+02
1.070000e-06	3.680827e-06	9.093191e-09	2.617454e+01	5.911353e+02
1.080000e-06	3.815568e-06	1.069195e-08	2.713269e+01	6.965561e+02
1.090000e-06	3.949022e-06	1.219662e-08	2.808169e+01	7.959957e+02
1.100000e-06	4.081127e-06	1.359938e-08	2.902110e+01	8.887634e+02
1.110000e-06	4.211729e-06	1.489687e-08	2.994981e+01	9.745416e+02
1.120000e-06	4.340786e-06	1.608984e-08	3.086754e+01	1.053327e+03
1.130000e-06	4.468311e-06	1.718333e-08	3.177438e+01	1.125351e+03
1.140000e-06	4.594363e-06	1.817929e-08	3.267074e+01	1.190990e+03
1.150000e-06	4.718984e-06	1.908514e-08	3.355693e+01	1.250696e+03
1.160000e-06	4.842017e-06	1.990497e-08	3.443182e+01	1.304933e+03
1.170000e-06	4.963189e-06	2.064498e-08	3.529348e+01	1.354147e+03
1.180000e-06	5.082502e-06	2.131377e-08	3.614192e+01	1.398752e+03
1.190000e-06	5.200043e-06	2.191937e-08	3.697776e+01	1.439135e+03
1.200000e-06	5.315601e-06	2.246926e-08	3.779950e+01	1.475665e+03
1.210000e-06	5.428991e-06	2.296820e-08	3.860582e+01	1.508701e+03
1.220000e-06	5.540290e-06	2.342131e-08	3.939727e+01	1.538597e+03
1.230000e-06	5.649692e-06	2.383215e-08	4.017523e+01	1.565700e+03
1.240000e-06	5.757214e-06	2.420442e-08	4.093983e+01	1.590336e+03
1.250000e-06	5.862581e-06	2.454414e-08	4.168910e+01	1.612803e+03
1.260000e-06	5.965720e-06	2.485676e-08	4.242253e+01	1.633358e+03
1.270000e-06	6.066737e-06	2.514171e-08	4.314086e+01	1.652216e+03
1.280000e-06	6.165523e-06	2.540113e-08	4.384333e+01	1.669549e+03
1.290000e-06	6.261927e-06	2.563965e-08	4.452887e+01	1.685494e+03
1.300000e-06	6.356067e-06	2.586207e-08	4.519830e+01	1.700168e+03
1.310000e-06	6.448023e-06	2.606628e-08	4.585220e+01	1.713675e+03
1.320000e-06	6.537590e-06	2.625318e-08	4.648912e+01	1.726113e+03
1.330000e-06	6.624786e-06	2.642479e-08	4.710917e+01	1.737582e+03
1.340000e-06	6.709705e-06	2.658352e-08	4.771303e+01	1.748176e+03
1.350000e-06	6.792242e-06	2.673406e-08	4.829996e+01	1.757981e+03
1.360000e-06	6.872338e-06	2.687548e-08	4.886953e+01	1.767071e+03
1.370000e-06	6.949921e-06	2.700725e-08	4.942123e+01	1.775501e+03
1.380000e-06	7.024885e-06	2.712662e-08	4.995430e+01	1.783310e+03
1.390000e-06	7.097176e-06	2.723444e-08	5.046836e+01	1.790527e+03
1.400000e-06	7.166957e-06	2.733310e-08	5.096458e+01	1.797175e+03
1.410000e-06	7.234232e-06	2.742382e-08	5.144297e+01	1.803283e+03
1.420000e-06	7.298840e-06	2.750737e-08	5.190241e+01	1.808888e+03
1.430000e-06	7.360908e-06	2.758410e-08	5.234377e+01	1.814041e+03
1.440000e-06	7.420557e-06	2.765640e-08	5.276794e+01	1.818798e+03
1.450000e-06	7.477622e-06	2.772306e-08	5.317373e+01	1.823216e+03
1.460000e-06	7.531905e-06	2.778611e-08	5.355974e+01	1.827344e+03
1.470000e-06	7.583177e-06	2.784761e-08	5.392434e+01	1.831214e+03
1.480000e-06	7.631381e-06	2.790507e-08	5.426712e+01	1.834839e+03
1.490000e-06	7.676806e-06	2.795791e-08	5.459014e+01	1.838211e+03
1.500000e-06	7.719560e-06	2.800339e-08	5.489417e+01	1.841313e+03
1.510000e-06	7.759510e-06	2.804175e-08	5.517826e+01	1.844120e+03
1.520000e-06	7.796722e-06	2.807705e-08	5.544287e+01	1.846618e+03
1.530000e-06	7.831206e-06	2.810848e-08	5.568809e+01	1.848807e+03
1.540000e-06	7.862852e-06	2.813747e-08	5.591312e+01	1.850702e+03
1.550000e-06	7.891760e-06	2.816357e-08	5.611869e+01	1.852336e+03
1.560000e-06	7.917850e-06	2.818558e-08	5.630422e+01	1.853747e+03
1.570000e-06	7.940983e-06	2.820404e-08	5.646872e+01	1.854972e+03
1.580000e-06	7.961349e-06	2.821913e-08	5.661354e+01	1.856040e+03
1.590000e-06	7.978937e-06	2.823325e-08	5.673861e+01	1.856961e+03
1.600000e-06	7.993548e-06	2.824588e-08	5.684251e+01	1.857728e+03
1.610000e-06	8.005080e-06	2.825415e-08	5.692451e+01	1.858327e+03
1.620000e-06	8.013461e-06	2.825832e-08	5.698411e+01	1.858737e+03
1.630000e-06	8.018908e-06	2.826009e-08	5.702284e+01	1.858945e+03
1.640000e-06	8.021531e-06	2.826146e-08	5.704150e+01	1.858951e+03
1.650000e-06	8.021286e-06	2.826039e-08	5.703976e+01	1.858768e+03
1.660000e-06	8.018385e-06	2.825142e-08	5.701913e+01	1.858425e+03
1.670000e-06	8.012821e-06	2.824686e-08	5.697956e+01	1.857953e+03
1.680000e-06	8.004537e-06	2.824060e-08	5.692065e+01	1.857379e+03
1.690000e-06	7.993614e-06	2.823010e-08	5.684297e+01	1.856715e+03
1.700000e-06	7.979876e-06	2.821910e-08	5.674529e+01	1.855956e+03
1.710000e-06	7.963461e-06	2.821176e-08	5.662856e+01	1.855082e+03
1.720000e-06	7.944741e-06	2.820464e-08	5.649544e+01	1.854061e+03
1.730000e-06	7.923642e-06	2.814088e-08	5.634541e+01	1.852866e+03
1.740000e-06	7.899564e-06	2.809674e-08	5.617418e+01	1.851483e+03
1.750000e-06	7.871851e-06	2.811150e-08	5.597711e+01	1.849925e+03
1.760000e-06	7.840541e-06	2.809010e-08	5.575447e+01	1.848229e+03
1.770000e-06	7.806428e-06	2.805557e-08	5.551189e+01	1.846454e+03
1.780000e-06	7.770010e-06	2.807358e-08	5.525292e+01	1.844669e+03
1.790000e-06	7.731327e-06	2.807968e-08	5.497784e+01	1.842936e+03
1.800000e-06	7.690628e-06	2.798287e-08	5.468843e+01	1.841292e+03
1.810000e-06	7.647663e-06	2.802005e-08	5.438290e+01	1.839738e+03
1.820000e-06	7.601973e-06	2.799572e-08	5.405800e+01	1.838233e+03
1.830000e-06	7.553601e-06	2.794367e-08	5.371402e+01	1.836700e+03
1.840000e-06	7.502318e-06	2.801621e-08	5.334935e+01	1.835037e+03
1.850000e-06	7.448050e-06	2.795702e-08	5.296345e+01	1.833138e+03
1.860000e-06	7.391000e-06	2.796914e-08	5.255776e+01	1.830914e+03
1.870000e-06	7.331297e-06	2.788602e-08	5.213321e+01	1.828306e+03
1.880000e-06	7.268967e-06	2.782499e-08	5.168998e+01	1.825295e+03
1.890000e-06	7.203771e-06	2.783925e-08	5.122637e+01	1.821905e+03
1.900000e-06	7.135781e-06	2.773998e-08	5.074288e+01	1.818187e+03
1.910000e-06	7.064988e-06	2.773167e-08	5.023947e+01	1.814212e+03
1.920000e-06	6.991408e-06	2.764235e-08	4.971624e+01	1.810047e+03
1.930000e-06	6.915169e-06	2.757644e-08	4.917411e+01	1.805745e+03
1.940000e-06	6.836138e-06	2.751231e-08	4.861211e+01	1.801334e+03
1.950000e-06	6.754541e-06	2.744018e-08	4.803187e+01	1.796817e+03
1.960000e-06	6.670493e-06	2.741589e-08	4.743420e+01	1.792174e+03
1.970000e-06	6.583974e-06	2.729036e-08	4.681896e+01	1.787377e+03
1.980000e-06	6.495094e-06	2.722491e-08	4.618693e+01	1.782395e+03
1.990000e-06	6.403935e-06	2.713805e-08	4.553869e+01	1.777208e+03
2.000000e-06	6.310532e-06	2.706890e-08	4.487450e+01	1.771808e+03
2.010000e-06	6.214744e-06	2.698383e-08	4.419335e+01	1.766201e+03
2.020000e-06	6.116721e-06	2.688897e-08	4.349630e+01	1.760398e+03
2.030000e-06	6.016599e-06	2.680392e-08	4.278433e+01	1.754413e+03
2.040000e-06	5.914281e-06	2.668430e-08	4.205674e+01	1.748253e+03
2.050000e-06	5.809812e-06	2.659598e-08	4.131386e+01	1.741914e+03
2.060000e-06	5.703394e-06	2.650023e-08	4.055711e+01	1.735385e+03
2.070000e-06	5.595064e-06	2.641973e-08	3.978677e+01	1.728644e+03
2.080000e-06	5.484723e-06	2.630552e-08	3.900213e+01	1.721671e+03
2.090000e-06	5.372379e-06	2.619564e-08	3.820325e+01	1.714450e+03
2.100000e-06	5.257986e-06	2.608030e-08	3.738980e+01	1.706974e+03
2.110000e-06	5.141593e-06	2.596329e-08	3.656212e+01	1.699244e+03
2.120000e-06	5.023185e-06	2.584071e-08	3.572011e+01	1.691267e+03
2.130000e-06	4.902879e-06	2.571567e-08	3.486461e+01	1.683050e+03
2.140000e-06	4.780855e-06	2.559033e-08	3.399690e+01	1.674596e+03
2.150000e-06	4.657139e-06	2.544939e-08	3.311714e+01	1.665896e+03
2.160000e-06	4.531718e-06	2.531148e-08	3.222526e+01	1.656933e+03
2.170000e-06	4.404551e-06	2.517091e-08	3.132098e+01	1.647680e+03
2.180000e-06	4.275766e-06	2.503316e-08	3.040518e+01	1.638109e+03
2.190000e-06	4.145484e-06	2.487964e-08	2.947874e+01	1.628198e+03
2.200000e-06	4.013695e-06	2.472560e-08	2.854158e+01	1.617932e+03
2.210000e-06	3.880349e-06	2.456373e-08	2.759335e+01	1.607310e+03
2.220000e-06	3.745496e-06	2.439721e-08	2.663441e+01	1.596341e+03
2.230000e-06	3.609184e-06	2.422228e-08	2.566508e+01	1.585037e+03
2.240000e-06	3.471482e-06	2.404673e-08	2.468588e+01	1.573407e+03
2.250000e-06	3.332500e-06	2.386656e-08	2.369757e+01	1.561450e+03
2.260000e-06	3.192332e-06	2.367735e-08	2.270083e+01	1.549149e+03
2.270000e-06	3.050912e-06	2.348432e-08	2.169519e+01	1.536471e+03
2.280000e-06	2.908255e-06	2.328698e-08	2.068074e+01	1.523374e+03
2.290000e-06	2.764458e-06	2.308470e-08	1.965819e+01	1.509813e+03
2.300000e-06	2.619627e-06	2.287012e-08	1.862830e+01	1.495751e+03
2.310000e-06	2.473974e-06	2.264769e-08	1.759255e+01	1.481163e+03
2.320000e-06	2.327482e-06	2.241923e-08	1.655084e+01	1.466040e+03
2.330000e-06	2.180175e-06	2.218302e-08	1.550333e+01	1.450387e+03
2.340000e-06	2.032211e-06	2.193787e-08	1.445115e+01	1.434213e+03
2.350000e-06	1.883603e-06	2.168557e-08	1.339439e+01	1.417524e+03
2.360000e-06	1.734371e-06	2.142338e-08	1.233319e+01	1.400306e+03
2.370000e-06	1.584551e-06	2.114950e-08	1.126782e+01	1.382529e+03
2.380000e-06	1.434217e-06	2.086396e-08	1.019878e+01	1.364138e+03
2.390000e-06	1.283439e-06	2.057017e-08	9.126597e+00	1.345065e+03
2.400000e-06	1.132151e-06	2.026898e-08	8.050783e+00	1.325236e+03
2.410000e-06	9.804141e-07	1.995586e-08	6.971772e+00	1.304582e+03
2.420000e-06	8.282850e-07	1.962874e-08	5.889975e+00	1.283051e+03
2.430000e-06	6.758390e-07	1.928883e-08	4.805924e+00	1.260605e+03
2.440000e-06	5.231704e-07	1.893219e-08	3.720290e+00	1.237218e+03
2.450000e-06	3.703372e-07	1.855958e-08	2.633485e+00	1.212861e+03
2.460000e-06	2.173698e-07	1.817339e-08	1.545727e+00	1.187488e+03
2.470000e-06	6.427117e-08	1.777037e-08	4.570354e-01	1.161022e+03
2.480000e-06	-8.886886e-08	1.734889e-08	-6.319508e-01	1.133346e+03
2.490000e-06	-2.419255e-07	1.690490e-08	-1.720344e+00	1.104299e+03
2.500000e-06	-3.948598e-07	1.643779e-08	-2.807867e+00	1.073687e+03
2.510000e-06	-5.477106e-07	1.594541e-08	-3.894797e+00	1.041299e+03
2.520000e-06	-7.004103e-07	1.542063e-08	-4.980652e+00	1.006914e+03
2.530000e-06	-8.528934e-07	1.486002e-08	-6.064966e+00	9.703106e+02
2.540000e-06	-1.005102e-06	1.426193e-08	-7.147326e+00	9.312667e+02
2.550000e-06	-1.156880e-06	1.362423e-08	-8.226629e+00	8.895365e+02
2.560000e-06	-1.308136e-06	1.294175e-08	-9.302220e+00	8.448243e+02
2.570000e-06	-1.458844e-06	1.220945e-08	-1.037391e+01	7.967517e+02
2.580000e-06	-1.609052e-06	1.141861e-08	-1.144205e+01	7.448322e+02
2.590000e-06	-1.758794e-06	1.055838e-08	-1.250687e+01	6.884641e+02
2.600000e-06	-1.907937e-06	9.620699e-09	-1.356743e+01	6.269522e+02
2.610000e-06	-2.056298e-06	8.595988e-09	-1.462243e+01	5.595632e+02
2.620000e-06	-2.203856e-06	7.471643e-09	-1.567172e+01	4.856117e+02
2.630000e-06	-2.350614e-06	6.239205e-09	-1.671533e+01	4.045689e+02
2.640000e-06	-2.496483e-06	4.894034e-09	-1.775261e+01	3.161756e+02
2.650000e-06	-2.641475e-06	3.438067e-09	-1.878366e+01	2.205416e+02
2.660000e-06	-2.785543e-06	1.881308e-09	-1.980813e+01	1.182103e+02
2.670000e-06	-2.928490e-06	2.359136e-10	-2.082464e+01	1.017489e+01
2.680000e-06	-3.070207e-06	-1.477634e-09	-2.183239e+01	-1.021620e+02
2.690000e-06	-3.210606e-06	-3.231337e-09	-2.283078e+01	-2.170819e+02
2.700000e-06	-3.349682e-06	-4.996434e-09	-2.381975e+01	-3.326852e+02
2.710000e-06	-3.487513e-06	-6.744811e-09	-2.479987e+01	-4.470481e+02
2.720000e-06	-3.624070e-06	-8.449078e-09	-2.577093e+01	-5.583770e+02
2.730000e-06	-3.759277e-06	-1.008598e-08	-2.673240e+01	-6.651396e+02
2.740000e-06	-3.893105e-06	-1.163772e-08	-2.768406e+01	-7.661554e+02
2.750000e-06	-4.025544e-06	-1.308912e-08	-2.862584e+01	-8.606355e+02
2.760000e-06	-4.156519e-06	-1.443195e-08	-2.955721e+01	-9.481733e+02
2.770000e-06	-4.286138e-06	-1.566695e-08	-3.047894e+01	-1.028694e+03
2.780000e-06	-4.414410e-06	-1.679748e-08	-3.139108e+01	-1.102378e+03
2.790000e-06	-4.541110e-06	-1.782813e-08	-3.229205e+01	-1.169573e+03
2.800000e-06	-4.666179e-06	-1.876750e-08	-3.318142e+01	-1.230720e+03
2.810000e-06	-4.789605e-06	-1.962433e-08	-3.405911e+01	-1.286282e+03
2.820000e-06	-4.911331e-06	-2.040494e-08	-3.492471e+01	-1.336712e+03
2.830000e-06	-5.031264e-06	-2.111184e-08	-3.577756e+01	-1.382433e+03
2.840000e-06	-5.149246e-06	-2.174862e-08	-3.661654e+01	-1.423837e+03
2.850000e-06	-5.265155e-06	-2.232347e-08	-3.744077e+01	-1.461297e+03
2.860000e-06	-5.378917e-06	-2.284284e-08	-3.824974e+01	-1.495174e+03
2.870000e-06	-5.490462e-06	-2.331346e-08	-3.904294e+01	-1.525823e+03
2.880000e-06	-5.599928e-06	-2.374080e-08	-3.982136e+01	-1.553594e+03
2.890000e-06	-5.707524e-06	-2.412972e-08	-4.058648e+01	-1.578818e+03
2.900000e-06	-5.813195e-06	-2.448470e-08	-4.133791e+01	-1.601802e+03
2.910000e-06	-5.916724e-06	-2.480869e-08	-4.207411e+01	-1.622815e+03
2.920000e-06	-6.017980e-06	-2.510694e-08	-4.279415e+01	-1.642080e+03
2.930000e-06	-6.117037e-06	-2.538173e-08	-4.349855e+01	-1.659781e+03
2.940000e-06	-6.213995e-06	-2.563252e-08	-4.418802e+01	-1.676062e+03
