# Temperatura_=_36.32
# Concentracion g/m^3_=_26700.0
# C_Vs_to_Am_M_A/Vsm_=_65563218390.804596
# pendiente_HvsI_1/m_=_3716.3
# ordenada_HvsI_A/m_=_1297.0
# frecuencia_Hz_=_302557.6307953538

Tiempo_(s)	Campo_(V.s)	Magnetizacion_(V.s)	Campo_(kA/m)	Magnetizacion_(A/m)
0.000000e+00	-8.005416e-06	-2.758531e-08	-5.684524e+01	-1.802884e+03
1.000000e-08	-8.002566e-06	-2.758608e-08	-5.682501e+01	-1.802574e+03
2.000000e-08	-7.997034e-06	-2.757723e-08	-5.678572e+01	-1.802107e+03
3.000000e-08	-7.988986e-06	-2.756342e-08	-5.672857e+01	-1.801509e+03
4.000000e-08	-7.978128e-06	-2.755126e-08	-5.665147e+01	-1.800796e+03
5.000000e-08	-7.964239e-06	-2.753730e-08	-5.655285e+01	-1.799974e+03
6.000000e-08	-7.947446e-06	-2.751950e-08	-5.643361e+01	-1.799032e+03
7.000000e-08	-7.928246e-06	-2.749738e-08	-5.629727e+01	-1.797949e+03
8.000000e-08	-7.906821e-06	-2.747852e-08	-5.614514e+01	-1.796704e+03
9.000000e-08	-7.882547e-06	-2.751908e-08	-5.597277e+01	-1.795287e+03
1.000000e-07	-7.854977e-06	-2.750596e-08	-5.577700e+01	-1.793704e+03
1.100000e-07	-7.824314e-06	-2.740879e-08	-5.555927e+01	-1.791985e+03
1.200000e-07	-7.790816e-06	-2.736651e-08	-5.532140e+01	-1.790181e+03
1.300000e-07	-7.754650e-06	-2.735273e-08	-5.506459e+01	-1.788352e+03
1.400000e-07	-7.716133e-06	-2.730716e-08	-5.479109e+01	-1.786558e+03
1.500000e-07	-7.675371e-06	-2.723525e-08	-5.450164e+01	-1.784838e+03
1.600000e-07	-7.632184e-06	-2.727304e-08	-5.419498e+01	-1.783199e+03
1.700000e-07	-7.586356e-06	-2.727493e-08	-5.386956e+01	-1.781610e+03
1.800000e-07	-7.537756e-06	-2.711593e-08	-5.352446e+01	-1.780003e+03
1.900000e-07	-7.486178e-06	-2.713774e-08	-5.315821e+01	-1.778283e+03
2.000000e-07	-7.431667e-06	-2.708188e-08	-5.277114e+01	-1.776346e+03
2.100000e-07	-7.374429e-06	-2.700575e-08	-5.236470e+01	-1.774099e+03
2.200000e-07	-7.314501e-06	-2.701352e-08	-5.193916e+01	-1.771475e+03
2.300000e-07	-7.252010e-06	-2.692317e-08	-5.149542e+01	-1.768447e+03
2.400000e-07	-7.186831e-06	-2.690184e-08	-5.103259e+01	-1.765027e+03
2.500000e-07	-7.118860e-06	-2.681614e-08	-5.054994e+01	-1.761266e+03
2.600000e-07	-7.048210e-06	-2.675797e-08	-5.004827e+01	-1.757234e+03
2.700000e-07	-6.974741e-06	-2.668997e-08	-4.952657e+01	-1.753005e+03
2.800000e-07	-6.898448e-06	-2.663825e-08	-4.898483e+01	-1.748642e+03
2.900000e-07	-6.819375e-06	-2.658341e-08	-4.842334e+01	-1.744184e+03
3.000000e-07	-6.737606e-06	-2.648526e-08	-4.784271e+01	-1.739640e+03
3.100000e-07	-6.653478e-06	-2.642613e-08	-4.724534e+01	-1.734995e+03
3.200000e-07	-6.567152e-06	-2.633389e-08	-4.663235e+01	-1.730217e+03
3.300000e-07	-6.478480e-06	-2.626520e-08	-4.600270e+01	-1.725267e+03
3.400000e-07	-6.387381e-06	-2.618880e-08	-4.535582e+01	-1.720114e+03
3.500000e-07	-6.294071e-06	-2.610294e-08	-4.469324e+01	-1.714738e+03
3.600000e-07	-6.198420e-06	-2.602902e-08	-4.401403e+01	-1.709138e+03
3.700000e-07	-6.100354e-06	-2.593811e-08	-4.331769e+01	-1.703322e+03
3.800000e-07	-6.000147e-06	-2.584126e-08	-4.260613e+01	-1.697309e+03
3.900000e-07	-5.897855e-06	-2.574584e-08	-4.187977e+01	-1.691112e+03
4.000000e-07	-5.793452e-06	-2.565960e-08	-4.113842e+01	-1.684740e+03
4.100000e-07	-5.686987e-06	-2.555500e-08	-4.038243e+01	-1.678190e+03
4.200000e-07	-5.578554e-06	-2.544627e-08	-3.961246e+01	-1.671445e+03
4.300000e-07	-5.468185e-06	-2.534121e-08	-3.882875e+01	-1.664487e+03
4.400000e-07	-5.355721e-06	-2.522860e-08	-3.803016e+01	-1.657294e+03
4.500000e-07	-5.241165e-06	-2.511086e-08	-3.721672e+01	-1.649851e+03
4.600000e-07	-5.124667e-06	-2.499654e-08	-3.638948e+01	-1.642149e+03
4.700000e-07	-5.006293e-06	-2.488240e-08	-3.554893e+01	-1.634189e+03
4.800000e-07	-4.886119e-06	-2.475945e-08	-3.469559e+01	-1.625977e+03
4.900000e-07	-4.764145e-06	-2.462863e-08	-3.382947e+01	-1.617517e+03
5.000000e-07	-4.640387e-06	-2.449475e-08	-3.295068e+01	-1.608809e+03
5.100000e-07	-4.514958e-06	-2.435704e-08	-3.206003e+01	-1.599846e+03
5.200000e-07	-4.387877e-06	-2.421116e-08	-3.115765e+01	-1.590613e+03
5.300000e-07	-4.259204e-06	-2.406201e-08	-3.024396e+01	-1.581088e+03
5.400000e-07	-4.128963e-06	-2.391042e-08	-2.931914e+01	-1.571249e+03
5.500000e-07	-3.997149e-06	-2.375815e-08	-2.838315e+01	-1.561079e+03
5.600000e-07	-3.863890e-06	-2.359596e-08	-2.743690e+01	-1.550571e+03
5.700000e-07	-3.729169e-06	-2.342956e-08	-2.648026e+01	-1.539723e+03
5.800000e-07	-3.592999e-06	-2.325810e-08	-2.551334e+01	-1.528541e+03
5.900000e-07	-3.455458e-06	-2.308176e-08	-2.453668e+01	-1.517029e+03
6.000000e-07	-3.316507e-06	-2.290002e-08	-2.355001e+01	-1.505187e+03
6.100000e-07	-3.176088e-06	-2.271305e-08	-2.255292e+01	-1.493003e+03
6.200000e-07	-3.034274e-06	-2.252096e-08	-2.154592e+01	-1.480450e+03
6.300000e-07	-2.891215e-06	-2.232017e-08	-2.053008e+01	-1.467495e+03
6.400000e-07	-2.747088e-06	-2.211294e-08	-1.950665e+01	-1.454096e+03
6.500000e-07	-2.602047e-06	-2.189912e-08	-1.847674e+01	-1.440219e+03
6.600000e-07	-2.456073e-06	-2.168173e-08	-1.744020e+01	-1.425836e+03
6.700000e-07	-2.309206e-06	-2.145577e-08	-1.639732e+01	-1.410938e+03
6.800000e-07	-2.161602e-06	-2.121992e-08	-1.534921e+01	-1.395526e+03
6.900000e-07	-2.013362e-06	-2.097273e-08	-1.429657e+01	-1.379610e+03
7.000000e-07	-1.864498e-06	-2.071964e-08	-1.323952e+01	-1.363201e+03
7.100000e-07	-1.715002e-06	-2.046198e-08	-1.217797e+01	-1.346295e+03
7.200000e-07	-1.564911e-06	-2.019821e-08	-1.111219e+01	-1.328872e+03
7.300000e-07	-1.414295e-06	-1.992692e-08	-1.004269e+01	-1.310889e+03
7.400000e-07	-1.263192e-06	-1.964233e-08	-8.969732e+00	-1.292283e+03
7.500000e-07	-1.111633e-06	-1.934659e-08	-7.893534e+00	-1.272981e+03
7.600000e-07	-9.597168e-07	-1.903896e-08	-6.814803e+00	-1.252909e+03
7.700000e-07	-8.074860e-07	-1.871920e-08	-5.733835e+00	-1.232002e+03
7.800000e-07	-6.549749e-07	-1.838595e-08	-4.650877e+00	-1.210212e+03
7.900000e-07	-5.022785e-07	-1.803959e-08	-3.566603e+00	-1.187507e+03
8.000000e-07	-3.493944e-07	-1.767946e-08	-2.480997e+00	-1.163863e+03
8.100000e-07	-1.963050e-07	-1.730527e-08	-1.393932e+00	-1.139249e+03
8.200000e-07	-4.312455e-08	-1.691464e-08	-3.062209e-01	-1.113618e+03
8.300000e-07	1.100451e-07	-1.650582e-08	7.814138e-01	-1.086888e+03
8.400000e-07	2.632195e-07	-1.607934e-08	1.869082e+00	-1.058940e+03
8.500000e-07	4.163431e-07	-1.563254e-08	2.956389e+00	-1.029616e+03
8.600000e-07	5.693373e-07	-1.516209e-08	4.042777e+00	-9.987301e+02
8.700000e-07	7.221737e-07	-1.466495e-08	5.128046e+00	-9.660793e+02
8.800000e-07	8.748226e-07	-1.413942e-08	6.211982e+00	-9.314530e+02
8.900000e-07	1.027254e-06	-1.357938e-08	7.294373e+00	-8.946375e+02
9.000000e-07	1.179340e-06	-1.298285e-08	8.374315e+00	-8.554092e+02
9.100000e-07	1.331026e-06	-1.234545e-08	9.451411e+00	-8.135166e+02
9.200000e-07	1.482221e-06	-1.166430e-08	1.052502e+01	-7.686556e+02
9.300000e-07	1.632830e-06	-1.092984e-08	1.159447e+01	-7.204446e+02
9.400000e-07	1.782858e-06	-1.013213e-08	1.265981e+01	-6.684099e+02
9.500000e-07	1.932276e-06	-9.268866e-09	1.372080e+01	-6.119900e+02
9.600000e-07	2.080971e-06	-8.328610e-09	1.477666e+01	-5.505671e+02
9.700000e-07	2.228873e-06	-7.304376e-09	1.582689e+01	-4.835257e+02
9.800000e-07	2.375971e-06	-6.187204e-09	1.687141e+01	-4.103360e+02
9.900000e-07	2.522179e-06	-4.970800e-09	1.790961e+01	-3.306494e+02
1.000000e-06	2.667387e-06	-3.653136e-09	1.894071e+01	-2.443917e+02
1.010000e-06	2.811580e-06	-2.238296e-09	1.996460e+01	-1.518361e+02
1.020000e-06	2.954780e-06	-7.367141e-10	2.098145e+01	-5.364184e+01
1.030000e-06	3.096855e-06	8.333024e-10	2.199030e+01	4.915345e+01
1.040000e-06	3.237691e-06	2.450592e-09	2.299035e+01	1.551883e+02
1.050000e-06	3.377183e-06	4.092349e-09	2.398086e+01	2.628745e+02
1.060000e-06	3.515249e-06	5.732075e-09	2.496125e+01	3.705218e+02
1.070000e-06	3.651929e-06	7.344078e-09	2.593179e+01	4.764739e+02
1.080000e-06	3.787275e-06	8.904816e-09	2.689286e+01	5.792334e+02
1.090000e-06	3.921316e-06	1.039751e-08	2.784467e+01	6.775608e+02
1.100000e-06	4.054002e-06	1.180816e-08	2.878685e+01	7.705344e+02
1.110000e-06	4.185172e-06	1.312500e-08	2.971827e+01	8.575672e+02
1.120000e-06	4.314787e-06	1.434792e-08	3.063864e+01	9.383848e+02
1.130000e-06	4.442890e-06	1.547861e-08	3.154829e+01	1.012973e+03
1.140000e-06	4.569439e-06	1.651714e-08	3.244689e+01	1.081511e+03
1.150000e-06	4.694541e-06	1.746857e-08	3.333522e+01	1.144299e+03
1.160000e-06	4.818134e-06	1.833852e-08	3.421284e+01	1.201699e+03
1.170000e-06	4.939953e-06	1.913164e-08	3.507786e+01	1.254092e+03
1.180000e-06	5.059967e-06	1.985114e-08	3.593006e+01	1.301848e+03
1.190000e-06	5.178157e-06	2.050608e-08	3.676931e+01	1.345323e+03
1.200000e-06	5.294405e-06	2.110298e-08	3.759477e+01	1.384857e+03
1.210000e-06	5.408535e-06	2.164531e-08	3.840518e+01	1.420782e+03
1.220000e-06	5.520499e-06	2.213730e-08	3.920022e+01	1.453427e+03
1.230000e-06	5.630476e-06	2.258517e-08	3.998115e+01	1.483115e+03
1.240000e-06	5.738589e-06	2.299320e-08	4.074885e+01	1.510161e+03
1.250000e-06	5.844661e-06	2.336695e-08	4.150205e+01	1.534860e+03
1.260000e-06	5.948520e-06	2.371017e-08	4.223954e+01	1.557478e+03
1.270000e-06	6.050233e-06	2.402636e-08	4.296179e+01	1.578244e+03
1.280000e-06	6.149753e-06	2.431608e-08	4.366846e+01	1.597348e+03
1.290000e-06	6.246920e-06	2.457994e-08	4.435843e+01	1.614949e+03
1.300000e-06	6.341739e-06	2.482368e-08	4.503172e+01	1.631175e+03
1.310000e-06	6.434367e-06	2.504959e-08	4.568946e+01	1.646140e+03
1.320000e-06	6.524746e-06	2.525850e-08	4.633123e+01	1.659945e+03
1.330000e-06	6.612736e-06	2.545057e-08	4.695603e+01	1.672692e+03
1.340000e-06	6.698392e-06	2.562815e-08	4.756426e+01	1.684477e+03
1.350000e-06	6.781752e-06	2.579357e-08	4.815619e+01	1.695389e+03
1.360000e-06	6.862615e-06	2.594744e-08	4.873039e+01	1.705510e+03
1.370000e-06	6.940869e-06	2.609089e-08	4.928606e+01	1.714904e+03
1.380000e-06	7.016550e-06	2.622419e-08	4.982345e+01	1.723621e+03
1.390000e-06	7.089606e-06	2.634790e-08	5.034221e+01	1.731694e+03
1.400000e-06	7.160108e-06	2.646282e-08	5.084284e+01	1.739153e+03
1.410000e-06	7.228137e-06	2.656812e-08	5.132590e+01	1.746022e+03
1.420000e-06	7.293559e-06	2.666209e-08	5.179045e+01	1.752335e+03
1.430000e-06	7.356325e-06	2.674754e-08	5.223614e+01	1.758133e+03
1.440000e-06	7.416605e-06	2.682806e-08	5.266418e+01	1.763468e+03
1.450000e-06	7.474370e-06	2.690451e-08	5.307436e+01	1.768397e+03
1.460000e-06	7.529466e-06	2.697629e-08	5.346559e+01	1.772973e+03
1.470000e-06	7.581610e-06	2.704192e-08	5.383586e+01	1.777239e+03
1.480000e-06	7.630596e-06	2.710067e-08	5.418370e+01	1.781224e+03
1.490000e-06	7.676715e-06	2.715411e-08	5.451118e+01	1.784933e+03
1.500000e-06	7.720194e-06	2.720371e-08	5.481992e+01	1.788360e+03
1.510000e-06	7.760875e-06	2.724978e-08	5.510879e+01	1.791486e+03
1.520000e-06	7.798761e-06	2.729289e-08	5.537782e+01	1.794294e+03
1.530000e-06	7.834008e-06	2.733234e-08	5.562810e+01	1.796776e+03
1.540000e-06	7.866431e-06	2.736706e-08	5.585833e+01	1.798937e+03
1.550000e-06	7.896032e-06	2.739557e-08	5.606852e+01	1.800800e+03
1.560000e-06	7.922871e-06	2.742041e-08	5.625910e+01	1.802399e+03
1.570000e-06	7.946773e-06	2.744143e-08	5.642883e+01	1.803774e+03
1.580000e-06	7.967869e-06	2.745820e-08	5.657862e+01	1.804960e+03
1.590000e-06	7.986247e-06	2.747128e-08	5.670912e+01	1.805980e+03
1.600000e-06	8.001650e-06	2.748136e-08	5.681850e+01	1.806843e+03
1.610000e-06	8.013923e-06	2.749119e-08	5.690565e+01	1.807543e+03
1.620000e-06	8.023031e-06	2.749944e-08	5.697032e+01	1.808065e+03
1.630000e-06	8.029160e-06	2.750617e-08	5.701385e+01	1.808392e+03
1.640000e-06	8.032529e-06	2.751111e-08	5.703777e+01	1.808514e+03
1.650000e-06	8.033055e-06	2.751377e-08	5.704150e+01	1.808434e+03
1.660000e-06	8.030848e-06	2.750644e-08	5.702583e+01	1.808167e+03
1.670000e-06	8.026013e-06	2.749441e-08	5.699150e+01	1.807736e+03
1.680000e-06	8.018443e-06	2.748814e-08	5.693774e+01	1.807168e+03
1.690000e-06	8.008193e-06	2.747811e-08	5.686496e+01	1.806483e+03
1.700000e-06	7.995174e-06	2.746499e-08	5.677251e+01	1.805688e+03
1.710000e-06	7.979409e-06	2.745759e-08	5.666057e+01	1.804776e+03
1.720000e-06	7.961227e-06	2.745619e-08	5.653146e+01	1.803730e+03
1.730000e-06	7.940721e-06	2.742488e-08	5.638585e+01	1.802527e+03
1.740000e-06	7.917416e-06	2.731836e-08	5.622037e+01	1.801153e+03
1.750000e-06	7.890570e-06	2.733679e-08	5.602974e+01	1.799609e+03
1.760000e-06	7.860028e-06	2.737288e-08	5.581287e+01	1.797919e+03
1.770000e-06	7.826482e-06	2.732292e-08	5.557465e+01	1.796130e+03
1.780000e-06	7.790599e-06	2.729361e-08	5.531986e+01	1.794301e+03
1.790000e-06	7.752405e-06	2.734377e-08	5.504865e+01	1.792493e+03
1.800000e-06	7.712144e-06	2.724670e-08	5.476276e+01	1.790752e+03
1.810000e-06	7.669802e-06	2.712286e-08	5.446209e+01	1.789093e+03
1.820000e-06	7.624755e-06	2.724528e-08	5.414222e+01	1.787496e+03
1.830000e-06	7.576981e-06	2.715979e-08	5.380299e+01	1.785901e+03
1.840000e-06	7.526348e-06	2.722872e-08	5.344345e+01	1.784219e+03
1.850000e-06	7.472622e-06	2.723020e-08	5.306195e+01	1.782346e+03
1.860000e-06	7.416134e-06	2.712104e-08	5.266084e+01	1.780183e+03
1.870000e-06	7.357024e-06	2.718394e-08	5.224111e+01	1.777657e+03
1.880000e-06	7.295261e-06	2.703267e-08	5.180254e+01	1.774729e+03
1.890000e-06	7.230632e-06	2.703987e-08	5.134362e+01	1.771404e+03
1.900000e-06	7.163185e-06	2.698689e-08	5.086469e+01	1.767722e+03
1.910000e-06	7.093001e-06	2.691443e-08	5.036632e+01	1.763749e+03
1.920000e-06	7.019935e-06	2.689222e-08	4.984749e+01	1.759563e+03
1.930000e-06	6.944141e-06	2.675743e-08	4.930929e+01	1.755228e+03
1.940000e-06	6.865597e-06	2.676117e-08	4.875156e+01	1.750791e+03
1.950000e-06	6.784473e-06	2.665107e-08	4.817551e+01	1.746268e+03
1.960000e-06	6.700923e-06	2.660179e-08	4.758224e+01	1.741651e+03
1.970000e-06	6.614845e-06	2.653120e-08	4.697101e+01	1.736909e+03
1.980000e-06	6.526322e-06	2.643046e-08	4.634242e+01	1.732005e+03
1.990000e-06	6.435492e-06	2.638650e-08	4.569745e+01	1.726904e+03
2.000000e-06	6.342457e-06	2.626666e-08	4.503682e+01	1.721584e+03
2.010000e-06	6.247122e-06	2.621393e-08	4.435986e+01	1.716039e+03
2.020000e-06	6.149520e-06	2.611318e-08	4.366681e+01	1.710275e+03
2.030000e-06	6.049694e-06	2.603960e-08	4.295796e+01	1.704309e+03
2.040000e-06	5.947706e-06	2.592982e-08	4.223376e+01	1.698157e+03
2.050000e-06	5.843593e-06	2.583378e-08	4.149446e+01	1.691828e+03
2.060000e-06	5.737511e-06	2.573988e-08	4.074119e+01	1.685323e+03
2.070000e-06	5.629550e-06	2.562777e-08	3.997458e+01	1.678628e+03
2.080000e-06	5.519615e-06	2.553215e-08	3.919395e+01	1.671725e+03
2.090000e-06	5.407694e-06	2.541512e-08	3.839921e+01	1.664592e+03
2.100000e-06	5.293728e-06	2.531362e-08	3.758996e+01	1.657211e+03
2.110000e-06	5.177684e-06	2.518758e-08	3.676595e+01	1.649574e+03
2.120000e-06	5.059613e-06	2.507440e-08	3.592754e+01	1.641678e+03
2.130000e-06	4.939640e-06	2.494498e-08	3.507563e+01	1.633527e+03
2.140000e-06	4.817828e-06	2.482600e-08	3.421067e+01	1.625128e+03
2.150000e-06	4.694299e-06	2.469018e-08	3.333350e+01	1.616482e+03
2.160000e-06	4.569074e-06	2.455391e-08	3.244430e+01	1.607584e+03
2.170000e-06	4.442151e-06	2.441468e-08	3.154304e+01	1.598420e+03
2.180000e-06	4.313562e-06	2.427099e-08	3.062995e+01	1.588969e+03
2.190000e-06	4.183414e-06	2.412179e-08	2.970579e+01	1.579210e+03
2.200000e-06	4.051776e-06	2.396541e-08	2.877104e+01	1.569124e+03
2.210000e-06	3.918628e-06	2.381310e-08	2.782558e+01	1.558700e+03
2.220000e-06	3.784014e-06	2.364952e-08	2.686971e+01	1.547936e+03
2.230000e-06	3.647957e-06	2.348409e-08	2.590359e+01	1.536836e+03
2.240000e-06	3.510533e-06	2.331053e-08	2.492776e+01	1.525406e+03
2.250000e-06	3.371762e-06	2.313552e-08	2.394237e+01	1.513647e+03
2.260000e-06	3.231653e-06	2.294853e-08	2.294748e+01	1.501549e+03
2.270000e-06	3.090297e-06	2.275792e-08	2.194373e+01	1.489091e+03
2.280000e-06	2.947705e-06	2.256170e-08	2.093121e+01	1.476239e+03
2.290000e-06	2.803988e-06	2.236027e-08	1.991069e+01	1.462955e+03
2.300000e-06	2.659282e-06	2.214970e-08	1.888316e+01	1.449200e+03
2.310000e-06	2.513683e-06	2.193276e-08	1.784928e+01	1.434945e+03
2.320000e-06	2.367255e-06	2.171196e-08	1.680952e+01	1.420175e+03
2.330000e-06	2.219959e-06	2.148175e-08	1.576359e+01	1.404890e+03
2.340000e-06	2.071864e-06	2.124264e-08	1.471199e+01	1.389098e+03
2.350000e-06	1.923125e-06	2.099522e-08	1.365581e+01	1.372811e+03
2.360000e-06	1.773774e-06	2.074010e-08	1.259530e+01	1.356030e+03
2.370000e-06	1.623816e-06	2.047532e-08	1.153047e+01	1.338739e+03
2.380000e-06	1.473283e-06	2.019886e-08	1.046156e+01	1.320901e+03
2.390000e-06	1.322284e-06	1.991520e-08	9.389336e+00	1.302457e+03
2.400000e-06	1.170867e-06	1.962415e-08	8.314150e+00	1.283335e+03
2.410000e-06	1.019052e-06	1.932164e-08	7.236134e+00	1.263462e+03
2.420000e-06	8.668943e-07	1.900879e-08	6.155685e+00	1.242768e+03
2.430000e-06	7.144318e-07	1.868288e-08	5.073072e+00	1.221202e+03
2.440000e-06	5.617528e-07	1.834182e-08	3.988921e+00	1.198728e+03
2.450000e-06	4.089138e-07	1.798392e-08	2.903635e+00	1.175320e+03
2.460000e-06	2.558921e-07	1.761096e-08	1.817051e+00	1.150952e+03
2.470000e-06	1.027203e-07	1.722195e-08	7.294009e-01	1.125581e+03
2.480000e-06	-5.051800e-08	1.681727e-08	-3.587206e-01	1.099134e+03
2.490000e-06	-2.037565e-07	1.639672e-08	-1.446844e+00	1.071503e+03
2.500000e-06	-3.569076e-07	1.595374e-08	-2.534346e+00	1.042539e+03
2.510000e-06	-5.099142e-07	1.548681e-08	-3.620823e+00	1.012062e+03
2.520000e-06	-6.628020e-07	1.499427e-08	-4.706456e+00	9.798719e+02
2.530000e-06	-8.154911e-07	1.447213e-08	-5.790678e+00	9.457588e+02
2.540000e-06	-9.678964e-07	1.391771e-08	-6.872885e+00	9.095104e+02
2.550000e-06	-1.119991e-06	1.332660e-08	-7.952883e+00	8.709068e+02
2.560000e-06	-1.271661e-06	1.269813e-08	-9.029872e+00	8.297058e+02
2.570000e-06	-1.422838e-06	1.202846e-08	-1.010335e+01	7.856187e+02
2.580000e-06	-1.573473e-06	1.130686e-08	-1.117299e+01	7.382854e+02
2.590000e-06	-1.723550e-06	1.052605e-08	-1.223867e+01	6.872556e+02
2.600000e-06	-1.872992e-06	9.681207e-09	-1.329983e+01	6.319880e+02
2.610000e-06	-2.021717e-06	8.764623e-09	-1.435590e+01	5.718743e+02
2.620000e-06	-2.169709e-06	7.765873e-09	-1.540677e+01	5.062916e+02
2.630000e-06	-2.316910e-06	6.677408e-09	-1.645203e+01	4.346799e+02
2.640000e-06	-2.463273e-06	5.493061e-09	-1.749133e+01	3.566361e+02
2.650000e-06	-2.608704e-06	4.207956e-09	-1.852401e+01	2.720095e+02
2.660000e-06	-2.753087e-06	2.823337e-09	-1.954925e+01	1.809814e+02
2.670000e-06	-2.896373e-06	1.346979e-09	-2.056670e+01	8.411324e+01
2.680000e-06	-3.038528e-06	-2.049877e-10	-2.157612e+01	-1.764870e+01
2.690000e-06	-3.179508e-06	-1.812064e-09	-2.257720e+01	-1.230163e+02
2.700000e-06	-3.319208e-06	-3.453360e-09	-2.356919e+01	-2.304469e+02
2.710000e-06	-3.457599e-06	-5.102338e-09	-2.455188e+01	-3.382634e+02
2.720000e-06	-3.594691e-06	-6.732562e-09	-2.552536e+01	-4.447883e+02
2.730000e-06	-3.730447e-06	-8.318942e-09	-2.648934e+01	-5.484741e+02
2.740000e-06	-3.864819e-06	-9.842984e-09	-2.744349e+01	-6.480096e+02
2.750000e-06	-3.997790e-06	-1.128958e-08	-2.838770e+01	-7.423902e+02
2.760000e-06	-4.129393e-06	-1.264622e-08	-2.932219e+01	-8.309459e+02
2.770000e-06	-4.259573e-06	-1.390995e-08	-3.024658e+01	-9.133282e+02
2.780000e-06	-4.388293e-06	-1.508034e-08	-3.116060e+01	-9.894640e+02
2.790000e-06	-4.515503e-06	-1.615649e-08	-3.206390e+01	-1.059490e+03
2.800000e-06	-4.641144e-06	-1.714215e-08	-3.295606e+01	-1.123684e+03
2.810000e-06	-4.765185e-06	-1.804523e-08	-3.383685e+01	-1.182396e+03
2.820000e-06	-4.887533e-06	-1.887179e-08	-3.470563e+01	-1.236006e+03
2.830000e-06	-5.008137e-06	-1.962461e-08	-3.556202e+01	-1.284888e+03
2.840000e-06	-5.126809e-06	-2.030751e-08	-3.640469e+01	-1.329401e+03
2.850000e-06	-5.243430e-06	-2.092849e-08	-3.723280e+01	-1.369889e+03
2.860000e-06	-5.357894e-06	-2.149415e-08	-3.804559e+01	-1.406687e+03
2.870000e-06	-5.470125e-06	-2.200784e-08	-3.884253e+01	-1.440121e+03
2.880000e-06	-5.580310e-06	-2.247376e-08	-3.962493e+01	-1.470519e+03
2.890000e-06	-5.688541e-06	-2.290052e-08	-4.039347e+01	-1.498198e+03
2.900000e-06	-5.794816e-06	-2.329298e-08	-4.114811e+01	-1.523458e+03
2.910000e-06	-5.898989e-06	-2.365069e-08	-4.188782e+01	-1.546574e+03
2.920000e-06	-6.000914e-06	-2.397610e-08	-4.261158e+01	-1.567783e+03
2.930000e-06	-6.100675e-06	-2.427496e-08	-4.331996e+01	-1.587288e+03
2.940000e-06	-6.198336e-06	-2.454847e-08	-4.401344e+01	-1.605252e+03
