# Temperatura_=_97.82
# Concentracion g/m^3_=_26700.0
# C_Vs_to_Am_M_A/Vsm_=_65563218390.804596
# pendiente_HvsI_1/m_=_3716.3
# ordenada_HvsI_A/m_=_1297.0
# frecuencia_Hz_=_302552.8136236376

Tiempo_(s)	Campo_(V.s)	Magnetizacion_(V.s)	Campo_(kA/m)	Magnetizacion_(A/m)
0.000000e+00	-8.012719e-06	-2.678542e-08	-5.684472e+01	-1.749111e+03
1.000000e-08	-8.009209e-06	-2.677684e-08	-5.681982e+01	-1.748527e+03
2.000000e-08	-8.003073e-06	-2.676432e-08	-5.677629e+01	-1.747897e+03
3.000000e-08	-7.994335e-06	-2.675110e-08	-5.671430e+01	-1.747280e+03
4.000000e-08	-7.982734e-06	-2.674037e-08	-5.663200e+01	-1.746688e+03
5.000000e-08	-7.968145e-06	-2.673051e-08	-5.652850e+01	-1.746085e+03
6.000000e-08	-7.950717e-06	-2.671356e-08	-5.640486e+01	-1.745397e+03
7.000000e-08	-7.930941e-06	-2.668102e-08	-5.626457e+01	-1.744525e+03
8.000000e-08	-7.908860e-06	-2.665974e-08	-5.610792e+01	-1.743381e+03
9.000000e-08	-7.883859e-06	-2.665555e-08	-5.593055e+01	-1.741912e+03
1.000000e-07	-7.855562e-06	-2.662116e-08	-5.572981e+01	-1.740120e+03
1.100000e-07	-7.824187e-06	-2.658735e-08	-5.550722e+01	-1.738068e+03
1.200000e-07	-7.790025e-06	-2.657377e-08	-5.526486e+01	-1.735864e+03
1.300000e-07	-7.753182e-06	-2.657106e-08	-5.500348e+01	-1.733644e+03
1.400000e-07	-7.713942e-06	-2.653464e-08	-5.472511e+01	-1.731532e+03
1.500000e-07	-7.672550e-06	-2.644982e-08	-5.443146e+01	-1.729613e+03
1.600000e-07	-7.628810e-06	-2.642207e-08	-5.412116e+01	-1.727912e+03
1.700000e-07	-7.582410e-06	-2.638126e-08	-5.379198e+01	-1.726384e+03
1.800000e-07	-7.533184e-06	-2.632447e-08	-5.344275e+01	-1.724926e+03
1.900000e-07	-7.480920e-06	-2.627341e-08	-5.307197e+01	-1.723396e+03
2.000000e-07	-7.425725e-06	-2.626730e-08	-5.268040e+01	-1.721649e+03
2.100000e-07	-7.367863e-06	-2.629952e-08	-5.226991e+01	-1.719559e+03
2.200000e-07	-7.307313e-06	-2.620530e-08	-5.184036e+01	-1.717050e+03
2.300000e-07	-7.244048e-06	-2.609770e-08	-5.139154e+01	-1.714100e+03
2.400000e-07	-7.178068e-06	-2.606070e-08	-5.092345e+01	-1.710742e+03
2.500000e-07	-7.109371e-06	-2.602669e-08	-5.043609e+01	-1.707045e+03
2.600000e-07	-7.037945e-06	-2.593546e-08	-4.992937e+01	-1.703097e+03
2.700000e-07	-6.963704e-06	-2.584252e-08	-4.940268e+01	-1.698980e+03
2.800000e-07	-6.886672e-06	-2.582147e-08	-4.885619e+01	-1.694752e+03
2.900000e-07	-6.806879e-06	-2.576382e-08	-4.829012e+01	-1.690443e+03
3.000000e-07	-6.724460e-06	-2.565345e-08	-4.770541e+01	-1.686053e+03
3.100000e-07	-6.639706e-06	-2.557579e-08	-4.710414e+01	-1.681563e+03
3.200000e-07	-6.552713e-06	-2.554289e-08	-4.648699e+01	-1.676942e+03
3.300000e-07	-6.463378e-06	-2.548454e-08	-4.585322e+01	-1.672164e+03
3.400000e-07	-6.371620e-06	-2.538204e-08	-4.520225e+01	-1.667209e+03
3.500000e-07	-6.277592e-06	-2.530168e-08	-4.453519e+01	-1.662070e+03
3.600000e-07	-6.181358e-06	-2.522521e-08	-4.385248e+01	-1.656746e+03
3.700000e-07	-6.082865e-06	-2.513925e-08	-4.315374e+01	-1.651240e+03
3.800000e-07	-5.982157e-06	-2.504851e-08	-4.243928e+01	-1.645548e+03
3.900000e-07	-5.879293e-06	-2.496212e-08	-4.170954e+01	-1.639663e+03
4.000000e-07	-5.774327e-06	-2.487805e-08	-4.096487e+01	-1.633573e+03
4.100000e-07	-5.667314e-06	-2.478006e-08	-4.020569e+01	-1.627266e+03
4.200000e-07	-5.558332e-06	-2.467390e-08	-3.943254e+01	-1.620735e+03
4.300000e-07	-5.447380e-06	-2.456022e-08	-3.864541e+01	-1.613982e+03
4.400000e-07	-5.334305e-06	-2.445178e-08	-3.784322e+01	-1.607019e+03
4.500000e-07	-5.219136e-06	-2.434372e-08	-3.702618e+01	-1.599864e+03
4.600000e-07	-5.102045e-06	-2.423698e-08	-3.619549e+01	-1.592532e+03
4.700000e-07	-4.983106e-06	-2.412979e-08	-3.535170e+01	-1.585032e+03
4.800000e-07	-4.862347e-06	-2.401640e-08	-3.449500e+01	-1.577353e+03
4.900000e-07	-4.739782e-06	-2.389366e-08	-3.362549e+01	-1.569468e+03
5.000000e-07	-4.615443e-06	-2.376308e-08	-3.274339e+01	-1.561338e+03
5.100000e-07	-4.489430e-06	-2.363084e-08	-3.184941e+01	-1.552918e+03
5.200000e-07	-4.361853e-06	-2.349458e-08	-3.094434e+01	-1.544171e+03
5.300000e-07	-4.232707e-06	-2.335339e-08	-3.002814e+01	-1.535080e+03
5.400000e-07	-4.102007e-06	-2.320900e-08	-2.910091e+01	-1.525650e+03
5.500000e-07	-3.969769e-06	-2.306212e-08	-2.816278e+01	-1.515910e+03
5.600000e-07	-3.836030e-06	-2.290520e-08	-2.721399e+01	-1.505898e+03
5.700000e-07	-3.700823e-06	-2.274503e-08	-2.625479e+01	-1.495652e+03
5.800000e-07	-3.564155e-06	-2.259032e-08	-2.528523e+01	-1.485193e+03
5.900000e-07	-3.426076e-06	-2.243164e-08	-2.430565e+01	-1.474511e+03
6.000000e-07	-3.286645e-06	-2.226142e-08	-2.331648e+01	-1.463567e+03
6.100000e-07	-3.145864e-06	-2.208293e-08	-2.231774e+01	-1.452294e+03
6.200000e-07	-3.003711e-06	-2.190289e-08	-2.130926e+01	-1.440616e+03
6.300000e-07	-2.860287e-06	-2.171544e-08	-2.029177e+01	-1.428463e+03
6.400000e-07	-2.715832e-06	-2.151665e-08	-1.926696e+01	-1.415790e+03
6.500000e-07	-2.570438e-06	-2.131336e-08	-1.823549e+01	-1.402590e+03
6.600000e-07	-2.424067e-06	-2.110599e-08	-1.719708e+01	-1.388889e+03
6.700000e-07	-2.276929e-06	-2.089019e-08	-1.615325e+01	-1.374734e+03
6.800000e-07	-2.129122e-06	-2.066418e-08	-1.510466e+01	-1.360180e+03
6.900000e-07	-1.980606e-06	-2.043398e-08	-1.405103e+01	-1.345258e+03
7.000000e-07	-1.831394e-06	-2.020128e-08	-1.299248e+01	-1.329966e+03
7.100000e-07	-1.681561e-06	-1.996226e-08	-1.192952e+01	-1.314252e+03
7.200000e-07	-1.531170e-06	-1.971423e-08	-1.086260e+01	-1.298029e+03
7.300000e-07	-1.380263e-06	-1.945679e-08	-9.792019e+00	-1.281183e+03
7.400000e-07	-1.228950e-06	-1.918688e-08	-8.718550e+00	-1.263605e+03
7.500000e-07	-1.077205e-06	-1.890410e-08	-7.642029e+00	-1.245209e+03
7.600000e-07	-9.250929e-07	-1.861228e-08	-6.562897e+00	-1.225948e+03
7.700000e-07	-7.726888e-07	-1.831008e-08	-5.481695e+00	-1.205816e+03
7.800000e-07	-6.200240e-07	-1.799626e-08	-4.398643e+00	-1.184833e+03
7.900000e-07	-4.671268e-07	-1.766669e-08	-3.313943e+00	-1.163013e+03
8.000000e-07	-3.140237e-07	-1.732073e-08	-2.227782e+00	-1.140339e+03
8.100000e-07	-1.607777e-07	-1.695761e-08	-1.140607e+00	-1.116735e+03
8.200000e-07	-7.418122e-09	-1.657323e-08	-5.262646e-02	-1.092053e+03
8.300000e-07	1.460599e-07	-1.616944e-08	1.036194e+00	-1.066078e+03
8.400000e-07	2.994881e-07	-1.574676e-08	2.124662e+00	-1.038555e+03
8.500000e-07	4.527833e-07	-1.530207e-08	3.212186e+00	-1.009219e+03
8.600000e-07	6.059599e-07	-1.482977e-08	4.298868e+00	-9.778239e+02
8.700000e-07	7.589305e-07	-1.432354e-08	5.384089e+00	-9.441518e+02
8.800000e-07	9.116670e-07	-1.377874e-08	6.467649e+00	-9.080028e+02
8.900000e-07	1.064141e-06	-1.319119e-08	7.549350e+00	-8.691499e+02
9.000000e-07	1.216246e-06	-1.255374e-08	8.628431e+00	-8.272756e+02
9.100000e-07	1.367872e-06	-1.185585e-08	9.704110e+00	-7.819019e+02
9.200000e-07	1.518953e-06	-1.108857e-08	1.077593e+01	-7.323370e+02
9.300000e-07	1.669500e-06	-1.024273e-08	1.184395e+01	-6.776619e+02
9.400000e-07	1.819496e-06	-9.305539e-09	1.290807e+01	-6.167726e+02
9.500000e-07	1.968823e-06	-8.260713e-09	1.396744e+01	-5.484870e+02
9.600000e-07	2.117445e-06	-7.091578e-09	1.502182e+01	-4.717062e+02
9.700000e-07	2.265275e-06	-5.783795e-09	1.607057e+01	-3.856089e+02
9.800000e-07	2.412258e-06	-4.327887e-09	1.711331e+01	-2.898465e+02
9.900000e-07	2.558323e-06	-2.725952e-09	1.814954e+01	-1.846995e+02
1.000000e-06	2.703474e-06	-9.913062e-10	1.917929e+01	-7.116197e+01
1.010000e-06	2.847648e-06	8.518993e-10	2.020210e+01	4.906958e+01
1.020000e-06	2.990708e-06	2.765447e-09	2.121702e+01	1.737076e+02
1.030000e-06	3.132629e-06	4.701264e-09	2.222385e+01	3.000735e+02
1.040000e-06	3.273267e-06	6.611254e-09	2.322157e+01	4.253546e+02
1.050000e-06	3.412563e-06	8.454219e-09	2.420979e+01	5.468772e+02
1.060000e-06	3.550537e-06	1.019817e-08	2.518861e+01	6.623525e+02
1.070000e-06	3.687133e-06	1.182099e-08	2.615767e+01	7.700552e+02
1.080000e-06	3.822271e-06	1.331095e-08	2.711638e+01	8.689135e+02
1.090000e-06	3.956069e-06	1.466388e-08	2.806558e+01	9.585025e+02
1.100000e-06	4.088575e-06	1.588143e-08	2.900562e+01	1.038953e+03
1.110000e-06	4.219577e-06	1.697022e-08	2.993499e+01	1.110805e+03
1.120000e-06	4.349055e-06	1.794285e-08	3.085355e+01	1.174834e+03
1.130000e-06	4.477017e-06	1.881286e-08	3.176135e+01	1.231895e+03
1.140000e-06	4.603402e-06	1.958568e-08	3.265797e+01	1.282799e+03
1.150000e-06	4.728244e-06	2.026900e-08	3.354364e+01	1.328241e+03
1.160000e-06	4.851460e-06	2.087312e-08	3.441777e+01	1.368788e+03
1.170000e-06	4.972950e-06	2.140871e-08	3.527966e+01	1.404899e+03
1.180000e-06	5.092634e-06	2.188469e-08	3.612873e+01	1.436973e+03
1.190000e-06	5.210426e-06	2.230946e-08	3.696438e+01	1.465398e+03
1.200000e-06	5.326294e-06	2.269101e-08	3.778639e+01	1.490581e+03
1.210000e-06	5.440112e-06	2.303288e-08	3.859385e+01	1.512953e+03
1.220000e-06	5.551803e-06	2.333980e-08	3.938622e+01	1.532960e+03
1.230000e-06	5.661506e-06	2.361649e-08	4.016448e+01	1.551019e+03
1.240000e-06	5.769241e-06	2.386629e-08	4.092879e+01	1.567493e+03
1.250000e-06	5.874886e-06	2.409301e-08	4.167827e+01	1.582652e+03
1.260000e-06	5.978352e-06	2.430050e-08	4.241229e+01	1.596670e+03
1.270000e-06	6.079645e-06	2.448993e-08	4.313089e+01	1.609635e+03
1.280000e-06	6.178786e-06	2.466329e-08	4.383423e+01	1.621578e+03
1.290000e-06	6.275505e-06	2.482297e-08	4.452038e+01	1.632505e+03
1.300000e-06	6.369816e-06	2.497323e-08	4.518946e+01	1.642441e+03
1.310000e-06	6.461939e-06	2.511434e-08	4.584301e+01	1.651446e+03
1.320000e-06	6.551776e-06	2.524505e-08	4.648034e+01	1.659624e+03
1.330000e-06	6.639201e-06	2.536433e-08	4.710056e+01	1.667111e+03
1.340000e-06	6.724283e-06	2.547187e-08	4.770415e+01	1.674051e+03
1.350000e-06	6.807068e-06	2.557138e-08	4.829146e+01	1.680571e+03
1.360000e-06	6.887386e-06	2.566402e-08	4.886126e+01	1.686758e+03
1.370000e-06	6.965176e-06	2.574919e-08	4.941313e+01	1.692651e+03
1.380000e-06	7.040352e-06	2.582748e-08	4.994645e+01	1.698243e+03
1.390000e-06	7.112811e-06	2.590127e-08	5.046050e+01	1.703500e+03
1.400000e-06	7.182737e-06	2.597195e-08	5.095657e+01	1.708385e+03
1.410000e-06	7.250175e-06	2.603923e-08	5.143500e+01	1.712879e+03
1.420000e-06	7.314935e-06	2.610256e-08	5.189443e+01	1.716997e+03
1.430000e-06	7.377101e-06	2.616251e-08	5.233545e+01	1.720786e+03
1.440000e-06	7.436848e-06	2.621946e-08	5.275931e+01	1.724315e+03
1.450000e-06	7.494017e-06	2.627228e-08	5.316489e+01	1.727656e+03
1.460000e-06	7.548464e-06	2.632123e-08	5.355116e+01	1.730863e+03
1.470000e-06	7.599965e-06	2.636614e-08	5.391652e+01	1.733956e+03
1.480000e-06	7.648365e-06	2.640735e-08	5.425988e+01	1.736914e+03
1.490000e-06	7.693960e-06	2.644563e-08	5.458334e+01	1.739683e+03
1.500000e-06	7.736857e-06	2.647842e-08	5.488768e+01	1.742199e+03
1.510000e-06	7.776899e-06	2.650760e-08	5.517174e+01	1.744403e+03
1.520000e-06	7.814200e-06	2.653537e-08	5.543637e+01	1.746266e+03
1.530000e-06	7.848812e-06	2.656098e-08	5.568192e+01	1.747799e+03
1.540000e-06	7.880580e-06	2.658271e-08	5.590728e+01	1.749054e+03
1.550000e-06	7.909626e-06	2.659958e-08	5.611335e+01	1.750108e+03
1.560000e-06	7.935882e-06	2.661380e-08	5.629962e+01	1.751043e+03
1.570000e-06	7.959202e-06	2.662737e-08	5.646506e+01	1.751924e+03
1.580000e-06	7.979758e-06	2.663863e-08	5.661089e+01	1.752779e+03
1.590000e-06	7.997507e-06	2.664787e-08	5.673681e+01	1.753594e+03
1.600000e-06	8.012221e-06	2.665655e-08	5.684119e+01	1.754317e+03
1.610000e-06	8.023778e-06	2.666338e-08	5.692318e+01	1.754877e+03
1.620000e-06	8.032185e-06	2.666766e-08	5.698282e+01	1.755210e+03
1.630000e-06	8.037713e-06	2.666845e-08	5.702204e+01	1.755277e+03
1.640000e-06	8.040456e-06	2.666841e-08	5.704150e+01	1.755080e+03
1.650000e-06	8.040349e-06	2.666727e-08	5.704074e+01	1.754662e+03
1.660000e-06	8.037557e-06	2.665998e-08	5.702093e+01	1.754100e+03
1.670000e-06	8.032093e-06	2.665372e-08	5.698217e+01	1.753473e+03
1.680000e-06	8.023905e-06	2.664692e-08	5.692408e+01	1.752848e+03
1.690000e-06	8.013026e-06	2.663651e-08	5.684690e+01	1.752249e+03
1.700000e-06	7.999302e-06	2.662320e-08	5.674954e+01	1.751654e+03
1.710000e-06	7.982857e-06	2.661514e-08	5.663288e+01	1.750994e+03
1.720000e-06	7.964096e-06	2.662378e-08	5.649978e+01	1.750176e+03
1.730000e-06	7.942957e-06	2.660146e-08	5.634981e+01	1.749105e+03
1.740000e-06	7.918806e-06	2.657357e-08	5.617847e+01	1.747718e+03
1.750000e-06	7.891103e-06	2.655695e-08	5.598195e+01	1.746002e+03
1.760000e-06	7.859871e-06	2.652262e-08	5.576037e+01	1.744004e+03
1.770000e-06	7.825764e-06	2.646327e-08	5.551840e+01	1.741825e+03
1.780000e-06	7.789353e-06	2.641827e-08	5.526010e+01	1.739594e+03
1.790000e-06	7.750659e-06	2.642586e-08	5.498559e+01	1.737443e+03
1.800000e-06	7.709951e-06	2.636743e-08	5.469679e+01	1.735470e+03
1.810000e-06	7.666925e-06	2.636100e-08	5.439155e+01	1.733714e+03
1.820000e-06	7.621125e-06	2.634798e-08	5.406663e+01	1.732149e+03
1.830000e-06	7.572686e-06	2.633234e-08	5.372300e+01	1.730684e+03
1.840000e-06	7.521268e-06	2.636340e-08	5.335822e+01	1.729185e+03
1.850000e-06	7.466845e-06	2.627699e-08	5.297212e+01	1.727504e+03
1.860000e-06	7.409713e-06	2.627882e-08	5.256681e+01	1.725507e+03
1.870000e-06	7.349965e-06	2.628730e-08	5.214294e+01	1.723105e+03
1.880000e-06	7.287551e-06	2.624295e-08	5.170016e+01	1.720263e+03
1.890000e-06	7.222245e-06	2.619198e-08	5.123685e+01	1.717000e+03
1.900000e-06	7.154137e-06	2.613502e-08	5.075367e+01	1.713379e+03
1.910000e-06	7.083220e-06	2.611813e-08	5.025057e+01	1.709484e+03
1.920000e-06	7.009491e-06	2.601325e-08	4.972751e+01	1.705401e+03
1.930000e-06	6.933040e-06	2.595458e-08	4.918515e+01	1.701195e+03
1.940000e-06	6.853832e-06	2.592923e-08	4.862322e+01	1.696903e+03
1.950000e-06	6.772079e-06	2.586728e-08	4.804324e+01	1.692534e+03
1.960000e-06	6.687839e-06	2.577673e-08	4.744561e+01	1.688069e+03
1.970000e-06	6.601133e-06	2.567919e-08	4.683049e+01	1.683483e+03
1.980000e-06	6.512068e-06	2.564142e-08	4.619864e+01	1.678744e+03
1.990000e-06	6.420734e-06	2.555900e-08	4.555069e+01	1.673833e+03
2.000000e-06	6.327149e-06	2.548523e-08	4.488677e+01	1.668739e+03
2.010000e-06	6.231172e-06	2.540978e-08	4.420587e+01	1.663460e+03
2.020000e-06	6.132984e-06	2.533394e-08	4.350930e+01	1.657997e+03
2.030000e-06	6.032683e-06	2.523730e-08	4.279773e+01	1.652351e+03
2.040000e-06	5.930163e-06	2.512455e-08	4.207042e+01	1.646513e+03
2.050000e-06	5.825536e-06	2.503681e-08	4.132816e+01	1.640475e+03
2.060000e-06	5.718956e-06	2.494442e-08	4.057206e+01	1.634221e+03
2.070000e-06	5.610395e-06	2.486072e-08	3.980189e+01	1.627745e+03
2.080000e-06	5.499847e-06	2.476041e-08	3.901763e+01	1.621045e+03
2.090000e-06	5.387332e-06	2.466715e-08	3.821941e+01	1.614131e+03
2.100000e-06	5.272747e-06	2.456022e-08	3.740651e+01	1.607021e+03
2.110000e-06	5.156094e-06	2.444721e-08	3.657894e+01	1.599731e+03
2.120000e-06	5.037430e-06	2.432133e-08	3.573710e+01	1.592272e+03
2.130000e-06	4.916799e-06	2.419989e-08	3.488130e+01	1.584638e+03
2.140000e-06	4.794414e-06	2.408321e-08	3.401307e+01	1.576806e+03
2.150000e-06	4.670338e-06	2.395753e-08	3.313283e+01	1.568740e+03
2.160000e-06	4.544493e-06	2.382980e-08	3.224005e+01	1.560394e+03
2.170000e-06	4.417018e-06	2.370142e-08	3.133570e+01	1.551730e+03
2.180000e-06	4.287977e-06	2.357537e-08	3.042024e+01	1.542724e+03
2.190000e-06	4.157363e-06	2.343493e-08	2.949363e+01	1.533376e+03
2.200000e-06	4.025212e-06	2.329325e-08	2.855610e+01	1.523708e+03
2.210000e-06	3.891557e-06	2.314596e-08	2.760792e+01	1.513758e+03
2.220000e-06	3.756519e-06	2.298958e-08	2.664991e+01	1.503567e+03
2.230000e-06	3.620056e-06	2.282124e-08	2.568180e+01	1.493159e+03
2.240000e-06	3.482154e-06	2.265591e-08	2.470348e+01	1.482534e+03
2.250000e-06	3.342926e-06	2.249122e-08	2.371576e+01	1.471659e+03
2.260000e-06	3.202432e-06	2.232295e-08	2.271905e+01	1.460474e+03
2.270000e-06	3.060646e-06	2.215170e-08	2.171317e+01	1.448903e+03
2.280000e-06	2.917617e-06	2.197565e-08	2.069848e+01	1.436872e+03
2.290000e-06	2.773491e-06	2.178741e-08	1.967601e+01	1.424330e+03
2.300000e-06	2.628340e-06	2.158463e-08	1.864626e+01	1.411259e+03
2.310000e-06	2.482335e-06	2.137880e-08	1.761046e+01	1.397678e+03
2.320000e-06	2.335564e-06	2.117152e-08	1.656922e+01	1.383630e+03
2.330000e-06	2.187941e-06	2.095688e-08	1.552193e+01	1.369169e+03
2.340000e-06	2.039534e-06	2.073266e-08	1.446909e+01	1.354337e+03
2.350000e-06	1.890453e-06	2.049982e-08	1.341146e+01	1.339138e+03
2.360000e-06	1.740720e-06	2.025828e-08	1.234921e+01	1.323535e+03
2.370000e-06	1.590428e-06	2.000870e-08	1.128299e+01	1.307448e+03
2.380000e-06	1.439721e-06	1.975151e-08	1.021383e+01	1.290767e+03
2.390000e-06	1.288657e-06	1.948834e-08	9.142137e+00	1.273380e+03
2.400000e-06	1.137143e-06	1.921298e-08	8.067245e+00	1.255193e+03
2.410000e-06	9.851124e-07	1.892128e-08	6.988694e+00	1.236149e+03
2.420000e-06	8.327323e-07	1.861661e-08	5.907662e+00	1.216232e+03
2.430000e-06	6.800702e-07	1.830324e-08	4.824630e+00	1.195457e+03
2.440000e-06	5.271228e-07	1.797904e-08	3.739573e+00	1.173845e+03
2.450000e-06	3.739753e-07	1.763884e-08	2.653097e+00	1.151388e+03
2.460000e-06	2.207408e-07	1.728109e-08	1.566004e+00	1.128026e+03
2.470000e-06	6.741247e-08	1.690527e-08	4.782450e-01	1.103629e+03
2.480000e-06	-8.603997e-08	1.651096e-08	-6.103943e-01	1.077999e+03
2.490000e-06	-2.394717e-07	1.609445e-08	-1.698887e+00	1.050886e+03
2.500000e-06	-3.927827e-07	1.565171e-08	-2.786523e+00	1.022027e+03
2.510000e-06	-5.459509e-07	1.518088e-08	-3.873146e+00	9.911661e+02
2.520000e-06	-6.989650e-07	1.467841e-08	-4.958675e+00	9.580805e+02
2.530000e-06	-8.517549e-07	1.414069e-08	-6.042614e+00	9.225684e+02
2.540000e-06	-1.004250e-06	1.356291e-08	-7.124460e+00	8.844150e+02
2.550000e-06	-1.156390e-06	1.293832e-08	-8.203790e+00	8.433319e+02
2.560000e-06	-1.308102e-06	1.225946e-08	-9.280080e+00	7.988874e+02
2.570000e-06	-1.459299e-06	1.151688e-08	-1.035272e+01	7.504463e+02
2.580000e-06	-1.609949e-06	1.069949e-08	-1.142148e+01	6.971448e+02
2.590000e-06	-1.760071e-06	9.793565e-09	-1.248649e+01	6.379176e+02
2.600000e-06	-1.909569e-06	8.783952e-09	-1.354708e+01	5.715891e+02
2.610000e-06	-2.058357e-06	7.653423e-09	-1.460263e+01	4.970218e+02
2.620000e-06	-2.206357e-06	6.385573e-09	-1.565258e+01	4.133063e+02
2.630000e-06	-2.353448e-06	4.973442e-09	-1.669609e+01	3.199590e+02
2.640000e-06	-2.499641e-06	3.415401e-09	-1.773323e+01	2.170919e+02
2.650000e-06	-2.644990e-06	1.719514e-09	-1.876438e+01	1.055177e+02
2.660000e-06	-2.789375e-06	-9.308497e-11	-1.978869e+01	-1.323611e+01
2.670000e-06	-2.932637e-06	-1.990760e-09	-2.080504e+01	-1.370140e+02
2.680000e-06	-3.074705e-06	-3.928545e-09	-2.181291e+01	-2.632127e+02
2.690000e-06	-3.215538e-06	-5.856423e-09	-2.281203e+01	-3.890271e+02
2.700000e-06	-3.355031e-06	-7.731294e-09	-2.380163e+01	-5.117242e+02
2.710000e-06	-3.493171e-06	-9.519257e-09	-2.478165e+01	-6.288989e+02
2.720000e-06	-3.630050e-06	-1.119680e-08	-2.575271e+01	-7.386729e+02
2.730000e-06	-3.765593e-06	-1.274532e-08	-2.671429e+01	-8.398080e+02
2.740000e-06	-3.899826e-06	-1.415674e-08	-2.766658e+01	-9.317231e+02
2.750000e-06	-4.032737e-06	-1.543117e-08	-2.860949e+01	-1.014422e+03
2.760000e-06	-4.164136e-06	-1.657282e-08	-2.954167e+01	-1.088359e+03
2.770000e-06	-4.294089e-06	-1.759274e-08	-3.046361e+01	-1.154266e+03
2.780000e-06	-4.422625e-06	-1.850145e-08	-3.137548e+01	-1.212991e+03
2.790000e-06	-4.549567e-06	-1.931034e-08	-3.227605e+01	-1.265365e+03
2.800000e-06	-4.674907e-06	-2.003099e-08	-3.316525e+01	-1.312117e+03
2.810000e-06	-4.798558e-06	-2.067341e-08	-3.404246e+01	-1.353842e+03
2.820000e-06	-4.920522e-06	-2.124489e-08	-3.490771e+01	-1.391025e+03
2.830000e-06	-5.040817e-06	-2.175141e-08	-3.576112e+01	-1.424074e+03
2.840000e-06	-5.159222e-06	-2.219807e-08	-3.660113e+01	-1.453376e+03
2.850000e-06	-5.275506e-06	-2.259379e-08	-3.742608e+01	-1.479331e+03
2.860000e-06	-5.389535e-06	-2.294911e-08	-3.823504e+01	-1.502366e+03
2.870000e-06	-5.501406e-06	-2.327075e-08	-3.902869e+01	-1.522924e+03
2.880000e-06	-5.611244e-06	-2.356296e-08	-3.980791e+01	-1.541435e+03
2.890000e-06	-5.719104e-06	-2.382784e-08	-4.057311e+01	-1.558278e+03
2.900000e-06	-5.825024e-06	-2.406961e-08	-4.132453e+01	-1.573747e+03
2.910000e-06	-5.928877e-06	-2.429097e-08	-4.206130e+01	-1.588040e+03
2.920000e-06	-6.030425e-06	-2.449261e-08	-4.278172e+01	-1.601266e+03
2.930000e-06	-6.129741e-06	-2.467681e-08	-4.348629e+01	-1.613465e+03
2.940000e-06	-6.226985e-06	-2.484464e-08	-4.417617e+01	-1.624646e+03
