# Temperatura_=_60.84
# Concentracion g/m^3_=_41000.0
# C_Vs_to_Am_M_A/Vsm_=_65563218390.804596
# pendiente_HvsI_1/m_=_3716.3
# ordenada_HvsI_A/m_=_1297.0
# frecuencia_Hz_=_301590.9926134499

Tiempo_(s)	Campo_(V.s)	Magnetizacion_(V.s)	Campo_(kA/m)	Magnetizacion_(A/m)
0.000000e+00	-5.333836e-06	-2.356582e-08	-3.834795e+01	-1.540876e+03
1.000000e-08	-5.331321e-06	-2.356197e-08	-3.832987e+01	-1.540536e+03
2.000000e-08	-5.326993e-06	-2.355328e-08	-3.829876e+01	-1.540298e+03
3.000000e-08	-5.321018e-06	-2.354528e-08	-3.825579e+01	-1.540119e+03
4.000000e-08	-5.313490e-06	-2.353657e-08	-3.820167e+01	-1.539902e+03
5.000000e-08	-5.304216e-06	-2.352379e-08	-3.813500e+01	-1.539531e+03
6.000000e-08	-5.292825e-06	-2.350641e-08	-3.805310e+01	-1.538905e+03
7.000000e-08	-5.279500e-06	-2.347858e-08	-3.795730e+01	-1.537972e+03
8.000000e-08	-5.264094e-06	-2.348633e-08	-3.784654e+01	-1.536738e+03
9.000000e-08	-5.246400e-06	-2.352586e-08	-3.771933e+01	-1.535275e+03
1.000000e-07	-5.226657e-06	-2.348476e-08	-3.757738e+01	-1.533691e+03
1.100000e-07	-5.205067e-06	-2.343006e-08	-3.742216e+01	-1.532101e+03
1.200000e-07	-5.181865e-06	-2.338152e-08	-3.725535e+01	-1.530592e+03
1.300000e-07	-5.157368e-06	-2.326865e-08	-3.707923e+01	-1.529200e+03
1.400000e-07	-5.131263e-06	-2.334553e-08	-3.689154e+01	-1.527899e+03
1.500000e-07	-5.103307e-06	-2.338882e-08	-3.669055e+01	-1.526613e+03
1.600000e-07	-5.073848e-06	-2.323280e-08	-3.647875e+01	-1.525240e+03
1.700000e-07	-5.042937e-06	-2.330815e-08	-3.625652e+01	-1.523684e+03
1.800000e-07	-5.010058e-06	-2.327500e-08	-3.602013e+01	-1.521880e+03
1.900000e-07	-4.975148e-06	-2.309891e-08	-3.576914e+01	-1.519816e+03
2.000000e-07	-4.938709e-06	-2.318807e-08	-3.550716e+01	-1.517526e+03
2.100000e-07	-4.900638e-06	-2.315693e-08	-3.523345e+01	-1.515079e+03
2.200000e-07	-4.860844e-06	-2.304217e-08	-3.494734e+01	-1.512549e+03
2.300000e-07	-4.819175e-06	-2.305546e-08	-3.464776e+01	-1.509989e+03
2.400000e-07	-4.775479e-06	-2.299258e-08	-3.433361e+01	-1.507410e+03
2.500000e-07	-4.730014e-06	-2.296239e-08	-3.400674e+01	-1.504776e+03
2.600000e-07	-4.682781e-06	-2.292112e-08	-3.366716e+01	-1.502015e+03
2.700000e-07	-4.633603e-06	-2.282726e-08	-3.331359e+01	-1.499042e+03
2.800000e-07	-4.582302e-06	-2.279487e-08	-3.294475e+01	-1.495791e+03
2.900000e-07	-4.529022e-06	-2.274380e-08	-3.256169e+01	-1.492232e+03
3.000000e-07	-4.474137e-06	-2.269089e-08	-3.216709e+01	-1.488388e+03
3.100000e-07	-4.417670e-06	-2.263697e-08	-3.176112e+01	-1.484328e+03
3.200000e-07	-4.359376e-06	-2.257125e-08	-3.134201e+01	-1.480145e+03
3.300000e-07	-4.299428e-06	-2.251228e-08	-3.091101e+01	-1.475928e+03
3.400000e-07	-4.238068e-06	-2.243618e-08	-3.046986e+01	-1.471731e+03
3.500000e-07	-4.175246e-06	-2.237674e-08	-3.001820e+01	-1.467557e+03
3.600000e-07	-4.111062e-06	-2.230869e-08	-2.955674e+01	-1.463348e+03
3.700000e-07	-4.045333e-06	-2.224138e-08	-2.908418e+01	-1.459010e+03
3.800000e-07	-3.977977e-06	-2.216462e-08	-2.859992e+01	-1.454433e+03
3.900000e-07	-3.909195e-06	-2.206455e-08	-2.810541e+01	-1.449530e+03
4.000000e-07	-3.839148e-06	-2.200087e-08	-2.760180e+01	-1.444262e+03
4.100000e-07	-3.767935e-06	-2.192437e-08	-2.708981e+01	-1.438650e+03
4.200000e-07	-3.695552e-06	-2.183671e-08	-2.656941e+01	-1.432770e+03
4.300000e-07	-3.621632e-06	-2.175003e-08	-2.603795e+01	-1.426731e+03
4.400000e-07	-3.545958e-06	-2.165856e-08	-2.549389e+01	-1.420634e+03
4.500000e-07	-3.468949e-06	-2.156519e-08	-2.494023e+01	-1.414542e+03
4.600000e-07	-3.390651e-06	-2.146547e-08	-2.437730e+01	-1.408458e+03
4.700000e-07	-3.310905e-06	-2.137191e-08	-2.380396e+01	-1.402316e+03
4.800000e-07	-3.229872e-06	-2.126917e-08	-2.322137e+01	-1.396000e+03
4.900000e-07	-3.147707e-06	-2.116063e-08	-2.263064e+01	-1.389377e+03
5.000000e-07	-3.064522e-06	-2.104908e-08	-2.203258e+01	-1.382335e+03
5.100000e-07	-2.980507e-06	-2.092987e-08	-2.142855e+01	-1.374821e+03
5.200000e-07	-2.895629e-06	-2.080660e-08	-2.081831e+01	-1.366849e+03
5.300000e-07	-2.809758e-06	-2.068397e-08	-2.020093e+01	-1.358500e+03
5.400000e-07	-2.722915e-06	-2.056393e-08	-1.957657e+01	-1.349896e+03
5.500000e-07	-2.635200e-06	-2.043933e-08	-1.894594e+01	-1.341152e+03
5.600000e-07	-2.546562e-06	-2.030422e-08	-1.830867e+01	-1.332341e+03
5.700000e-07	-2.456676e-06	-2.016178e-08	-1.766243e+01	-1.323463e+03
5.800000e-07	-2.365604e-06	-2.001282e-08	-1.700766e+01	-1.314436e+03
5.900000e-07	-2.273737e-06	-1.985955e-08	-1.634718e+01	-1.305117e+03
6.000000e-07	-2.181184e-06	-1.970283e-08	-1.568176e+01	-1.295339e+03
6.100000e-07	-2.087911e-06	-1.954115e-08	-1.501117e+01	-1.284959e+03
6.200000e-07	-1.993891e-06	-1.937190e-08	-1.433521e+01	-1.273901e+03
6.300000e-07	-1.899150e-06	-1.919550e-08	-1.365406e+01	-1.262177e+03
6.400000e-07	-1.803803e-06	-1.901515e-08	-1.296856e+01	-1.249880e+03
6.500000e-07	-1.707872e-06	-1.882922e-08	-1.227886e+01	-1.237153e+03
6.600000e-07	-1.611331e-06	-1.863679e-08	-1.158477e+01	-1.224140e+03
6.700000e-07	-1.514131e-06	-1.843582e-08	-1.088594e+01	-1.210925e+03
6.800000e-07	-1.416204e-06	-1.822480e-08	-1.018189e+01	-1.197501e+03
6.900000e-07	-1.317624e-06	-1.800279e-08	-9.473139e+00	-1.183751e+03
7.000000e-07	-1.218499e-06	-1.777065e-08	-8.760479e+00	-1.169477e+03
7.100000e-07	-1.118987e-06	-1.753146e-08	-8.045028e+00	-1.154441e+03
7.200000e-07	-1.019224e-06	-1.728537e-08	-7.327773e+00	-1.138433e+03
7.300000e-07	-9.191880e-07	-1.703302e-08	-6.608561e+00	-1.121325e+03
7.400000e-07	-8.189085e-07	-1.676919e-08	-5.887595e+00	-1.103104e+03
7.500000e-07	-7.184323e-07	-1.649110e-08	-5.165215e+00	-1.083865e+03
7.600000e-07	-6.177055e-07	-1.619481e-08	-4.441033e+00	-1.063768e+03
7.700000e-07	-5.167639e-07	-1.587766e-08	-3.715307e+00	-1.042965e+03
7.800000e-07	-4.156833e-07	-1.554449e-08	-2.988581e+00	-1.021523e+03
7.900000e-07	-3.144672e-07	-1.519484e-08	-2.260882e+00	-9.993626e+02
8.000000e-07	-2.131336e-07	-1.482806e-08	-1.532338e+00	-9.762395e+02
8.100000e-07	-1.116987e-07	-1.444115e-08	-8.030646e-01	-9.517695e+02
8.200000e-07	-1.020184e-08	-1.403196e-08	-7.334678e-02	-9.255019e+02
8.300000e-07	9.133848e-08	-1.359838e-08	6.566838e-01	-8.970154e+02
8.400000e-07	1.929080e-07	-1.313503e-08	1.386925e+00	-8.660079e+02
8.500000e-07	2.944030e-07	-1.263696e-08	2.116629e+00	-8.323459e+02
8.600000e-07	3.957808e-07	-1.209925e-08	2.845491e+00	-7.960523e+02
8.700000e-07	4.970586e-07	-1.152000e-08	3.573635e+00	-7.572198e+02
8.800000e-07	5.981689e-07	-1.089495e-08	4.300574e+00	-7.158681e+02
8.900000e-07	6.990982e-07	-1.021461e-08	5.026211e+00	-6.717742e+02
9.000000e-07	7.998222e-07	-9.469872e-09	5.750372e+00	-6.243267e+02
9.100000e-07	9.002831e-07	-8.653706e-09	6.472643e+00	-5.724521e+02
9.200000e-07	1.000483e-06	-7.752860e-09	7.193035e+00	-5.146520e+02
9.300000e-07	1.100382e-06	-6.746492e-09	7.911266e+00	-4.491676e+02
9.400000e-07	1.199949e-06	-5.610347e-09	8.627108e+00	-3.742573e+02
9.500000e-07	1.299152e-06	-4.321165e-09	9.340336e+00	-2.885432e+02
9.600000e-07	1.397847e-06	-2.860648e-09	1.004991e+01	-1.913615e+02
9.700000e-07	1.495854e-06	-1.222349e-09	1.075454e+01	-8.304251e+01
9.800000e-07	1.593059e-06	5.795817e-10	1.145340e+01	3.494634e+01
9.900000e-07	1.689505e-06	2.510216e-09	1.214681e+01	1.600350e+02
1.000000e-06	1.785303e-06	4.506599e-09	1.283555e+01	2.887709e+02
1.010000e-06	1.880515e-06	6.490922e-09	1.352008e+01	4.171936e+02
1.020000e-06	1.975129e-06	8.388648e-09	1.420031e+01	5.413003e+02
1.030000e-06	2.069026e-06	1.014002e-08	1.487539e+01	6.575199e+02
1.040000e-06	2.162147e-06	1.171002e-08	1.554489e+01	7.631113e+02
1.050000e-06	2.254595e-06	1.308718e-08	1.620956e+01	8.564185e+02
1.060000e-06	2.346454e-06	1.427943e-08	1.686998e+01	9.369429e+02
1.070000e-06	2.437546e-06	1.530301e-08	1.752489e+01	1.005235e+03
1.080000e-06	2.527561e-06	1.617852e-08	1.817206e+01	1.062640e+03
1.090000e-06	2.616457e-06	1.692813e-08	1.881119e+01	1.110955e+03
1.100000e-06	2.704405e-06	1.757180e-08	1.944350e+01	1.152083e+03
1.110000e-06	2.791435e-06	1.812561e-08	2.006920e+01	1.187731e+03
1.120000e-06	2.877463e-06	1.860367e-08	2.068770e+01	1.219228e+03
1.130000e-06	2.962534e-06	1.902151e-08	2.129933e+01	1.247450e+03
1.140000e-06	3.046769e-06	1.939139e-08	2.190494e+01	1.272870e+03
1.150000e-06	3.130117e-06	1.972208e-08	2.250417e+01	1.295685e+03
1.160000e-06	3.212366e-06	2.001780e-08	2.309551e+01	1.315970e+03
1.170000e-06	3.293365e-06	2.028313e-08	2.367786e+01	1.333823e+03
1.180000e-06	3.373155e-06	2.052260e-08	2.425151e+01	1.349450e+03
1.190000e-06	3.451780e-06	2.074141e-08	2.481679e+01	1.363193e+03
1.200000e-06	3.529197e-06	2.093954e-08	2.537339e+01	1.375486e+03
1.210000e-06	3.605379e-06	2.111988e-08	2.592111e+01	1.386778e+03
1.220000e-06	3.680123e-06	2.128853e-08	2.645848e+01	1.397443e+03
1.230000e-06	3.753257e-06	2.144618e-08	2.698428e+01	1.407711e+03
1.240000e-06	3.824971e-06	2.159304e-08	2.749987e+01	1.417645e+03
1.250000e-06	3.895346e-06	2.172842e-08	2.800584e+01	1.427159e+03
1.260000e-06	3.964351e-06	2.185314e-08	2.850195e+01	1.436085e+03
1.270000e-06	4.032073e-06	2.196851e-08	2.898885e+01	1.444245e+03
1.280000e-06	4.098324e-06	2.207611e-08	2.946516e+01	1.451533e+03
1.290000e-06	4.162870e-06	2.217684e-08	2.992922e+01	1.457956e+03
1.300000e-06	4.225856e-06	2.227200e-08	3.038206e+01	1.463641e+03
1.310000e-06	4.287434e-06	2.235942e-08	3.082478e+01	1.468808e+03
1.320000e-06	4.347687e-06	2.244046e-08	3.125797e+01	1.473706e+03
1.330000e-06	4.406474e-06	2.251718e-08	3.168063e+01	1.478551e+03
1.340000e-06	4.463525e-06	2.259106e-08	3.209080e+01	1.483467e+03
1.350000e-06	4.518850e-06	2.266177e-08	3.248856e+01	1.488465e+03
1.360000e-06	4.572492e-06	2.272889e-08	3.287422e+01	1.493449e+03
1.370000e-06	4.624365e-06	2.279241e-08	3.324717e+01	1.498260e+03
1.380000e-06	4.674264e-06	2.285217e-08	3.360592e+01	1.502727e+03
1.390000e-06	4.722256e-06	2.290992e-08	3.395096e+01	1.506726e+03
1.400000e-06	4.768590e-06	2.296562e-08	3.428408e+01	1.510216e+03
1.410000e-06	4.813386e-06	2.301776e-08	3.460614e+01	1.513251e+03
1.420000e-06	4.856587e-06	2.306597e-08	3.491674e+01	1.515962e+03
1.430000e-06	4.897940e-06	2.311059e-08	3.521405e+01	1.518509e+03
1.440000e-06	4.937489e-06	2.315227e-08	3.549839e+01	1.521036e+03
1.450000e-06	4.975385e-06	2.319074e-08	3.577085e+01	1.523630e+03
1.460000e-06	5.011712e-06	2.322499e-08	3.603202e+01	1.526290e+03
1.470000e-06	5.046297e-06	2.325694e-08	3.628068e+01	1.528940e+03
1.480000e-06	5.078934e-06	2.328789e-08	3.651532e+01	1.531453e+03
1.490000e-06	5.109791e-06	2.331593e-08	3.673717e+01	1.533696e+03
1.500000e-06	5.139010e-06	2.334128e-08	3.694724e+01	1.535570e+03
1.510000e-06	5.166537e-06	2.336603e-08	3.714515e+01	1.537046e+03
1.520000e-06	5.192056e-06	2.338948e-08	3.732862e+01	1.538175e+03
1.530000e-06	5.215516e-06	2.341103e-08	3.749729e+01	1.539066e+03
1.540000e-06	5.237201e-06	2.342932e-08	3.765319e+01	1.539861e+03
1.550000e-06	5.257196e-06	2.344520e-08	3.779695e+01	1.540685e+03
1.560000e-06	5.275404e-06	2.345914e-08	3.792786e+01	1.541612e+03
1.570000e-06	5.291593e-06	2.347041e-08	3.804424e+01	1.542646e+03
1.580000e-06	5.305777e-06	2.348020e-08	3.814622e+01	1.543720e+03
1.590000e-06	5.318006e-06	2.348915e-08	3.823414e+01	1.544718e+03
1.600000e-06	5.328070e-06	2.349813e-08	3.830650e+01	1.545516e+03
1.610000e-06	5.336021e-06	2.350786e-08	3.836367e+01	1.546018e+03
1.620000e-06	5.342070e-06	2.351698e-08	3.840716e+01	1.546187e+03
1.630000e-06	5.346437e-06	2.352294e-08	3.843855e+01	1.546054e+03
1.640000e-06	5.348957e-06	2.352561e-08	3.845666e+01	1.545712e+03
1.650000e-06	5.349421e-06	2.352627e-08	3.846000e+01	1.545279e+03
1.660000e-06	5.348044e-06	2.351944e-08	3.845010e+01	1.544868e+03
1.670000e-06	5.345038e-06	2.351272e-08	3.842849e+01	1.544549e+03
1.680000e-06	5.340366e-06	2.350752e-08	3.839491e+01	1.544329e+03
1.690000e-06	5.333772e-06	2.350098e-08	3.834749e+01	1.544150e+03
1.700000e-06	5.325407e-06	2.349566e-08	3.828735e+01	1.543909e+03
1.710000e-06	5.315540e-06	2.349071e-08	3.821642e+01	1.543489e+03
1.720000e-06	5.304020e-06	2.349859e-08	3.813359e+01	1.542799e+03
1.730000e-06	5.290635e-06	2.348202e-08	3.803736e+01	1.541797e+03
1.740000e-06	5.275196e-06	2.338981e-08	3.792636e+01	1.540506e+03
1.750000e-06	5.257358e-06	2.337603e-08	3.779811e+01	1.539006e+03
1.760000e-06	5.236903e-06	2.338934e-08	3.765105e+01	1.537410e+03
1.770000e-06	5.214129e-06	2.341595e-08	3.748731e+01	1.535830e+03
1.780000e-06	5.189968e-06	2.348666e-08	3.731361e+01	1.534344e+03
1.790000e-06	5.165127e-06	2.331156e-08	3.713501e+01	1.532975e+03
1.800000e-06	5.138995e-06	2.327509e-08	3.694713e+01	1.531684e+03
1.810000e-06	5.110750e-06	2.337650e-08	3.674406e+01	1.530387e+03
1.820000e-06	5.080674e-06	2.319819e-08	3.652783e+01	1.528981e+03
1.830000e-06	5.048876e-06	2.326268e-08	3.629921e+01	1.527375e+03
1.840000e-06	5.015137e-06	2.336351e-08	3.605664e+01	1.525514e+03
1.850000e-06	4.979793e-06	2.314814e-08	3.580254e+01	1.523395e+03
1.860000e-06	4.942662e-06	2.319957e-08	3.553558e+01	1.521064e+03
1.870000e-06	4.903537e-06	2.321427e-08	3.525429e+01	1.518592e+03
1.880000e-06	4.862766e-06	2.309656e-08	3.496117e+01	1.516051e+03
1.890000e-06	4.820249e-06	2.314730e-08	3.465548e+01	1.513487e+03
1.900000e-06	4.776118e-06	2.301112e-08	3.433821e+01	1.510899e+03
1.910000e-06	4.730266e-06	2.301116e-08	3.400855e+01	1.508244e+03
1.920000e-06	4.682446e-06	2.305856e-08	3.366474e+01	1.505444e+03
1.930000e-06	4.632979e-06	2.288507e-08	3.330910e+01	1.502415e+03
1.940000e-06	4.581744e-06	2.288650e-08	3.294074e+01	1.499097e+03
1.950000e-06	4.528546e-06	2.282036e-08	3.255827e+01	1.495472e+03
1.960000e-06	4.473440e-06	2.275924e-08	3.216209e+01	1.491574e+03
1.970000e-06	4.416574e-06	2.273592e-08	3.175324e+01	1.487478e+03
1.980000e-06	4.358209e-06	2.261066e-08	3.133362e+01	1.483280e+03
1.990000e-06	4.298459e-06	2.262371e-08	3.090404e+01	1.479064e+03
2.000000e-06	4.237217e-06	2.253296e-08	3.046374e+01	1.474873e+03
2.010000e-06	4.174220e-06	2.244388e-08	3.001082e+01	1.470696e+03
2.020000e-06	4.109569e-06	2.240339e-08	2.954601e+01	1.466468e+03
2.030000e-06	4.043577e-06	2.231426e-08	2.907155e+01	1.462086e+03
2.040000e-06	3.976237e-06	2.228815e-08	2.858741e+01	1.457445e+03
2.050000e-06	3.907499e-06	2.215889e-08	2.809321e+01	1.452464e+03
2.060000e-06	3.837123e-06	2.208491e-08	2.758724e+01	1.447116e+03
2.070000e-06	3.765332e-06	2.202659e-08	2.707110e+01	1.441438e+03
2.080000e-06	3.692408e-06	2.191780e-08	2.654680e+01	1.435514e+03
2.090000e-06	3.618134e-06	2.184857e-08	2.601281e+01	1.429453e+03
2.100000e-06	3.542463e-06	2.173883e-08	2.546877e+01	1.423352e+03
2.110000e-06	3.465241e-06	2.166722e-08	2.491357e+01	1.417264e+03
2.120000e-06	3.386454e-06	2.156455e-08	2.434713e+01	1.411174e+03
2.130000e-06	3.306475e-06	2.145867e-08	2.377211e+01	1.405004e+03
2.140000e-06	3.225438e-06	2.136392e-08	2.318949e+01	1.398632e+03
2.150000e-06	3.143291e-06	2.124914e-08	2.259889e+01	1.391926e+03
2.160000e-06	3.060146e-06	2.115323e-08	2.200112e+01	1.384785e+03
2.170000e-06	2.976053e-06	2.103230e-08	2.139653e+01	1.377167e+03
2.180000e-06	2.890756e-06	2.091911e-08	2.078328e+01	1.369105e+03
2.190000e-06	2.804084e-06	2.079534e-08	2.016014e+01	1.360690e+03
2.200000e-06	2.716273e-06	2.066814e-08	1.952882e+01	1.352045e+03
2.210000e-06	2.627597e-06	2.054147e-08	1.889128e+01	1.343282e+03
2.220000e-06	2.538077e-06	2.040794e-08	1.824766e+01	1.334459e+03
2.230000e-06	2.447694e-06	2.027649e-08	1.759786e+01	1.325557e+03
2.240000e-06	2.356591e-06	2.012827e-08	1.694286e+01	1.316480e+03
2.250000e-06	2.264822e-06	1.997574e-08	1.628308e+01	1.307076e+03
2.260000e-06	2.172271e-06	1.981667e-08	1.561768e+01	1.297178e+03
2.270000e-06	2.078723e-06	1.966046e-08	1.494511e+01	1.286655e+03
2.280000e-06	1.984177e-06	1.949895e-08	1.426537e+01	1.275449e+03
2.290000e-06	1.888830e-06	1.932596e-08	1.357986e+01	1.263590e+03
2.300000e-06	1.792893e-06	1.914558e-08	1.289012e+01	1.251187e+03
2.310000e-06	1.696444e-06	1.895796e-08	1.219669e+01	1.238388e+03
2.320000e-06	1.599478e-06	1.876539e-08	1.149955e+01	1.225325e+03
2.330000e-06	1.502004e-06	1.856166e-08	1.079875e+01	1.212069e+03
2.340000e-06	1.403999e-06	1.835078e-08	1.009414e+01	1.198587e+03
2.350000e-06	1.305533e-06	1.813007e-08	9.386212e+00	1.184743e+03
2.360000e-06	1.206682e-06	1.790109e-08	8.675517e+00	1.170325e+03
2.370000e-06	1.107556e-06	1.766307e-08	7.962846e+00	1.155095e+03
2.380000e-06	1.008198e-06	1.741380e-08	7.248503e+00	1.138857e+03
2.390000e-06	9.085813e-07	1.715237e-08	6.532303e+00	1.121506e+03
2.400000e-06	8.086919e-07	1.687777e-08	5.814142e+00	1.103055e+03
2.410000e-06	7.085396e-07	1.659218e-08	5.094090e+00	1.083617e+03
2.420000e-06	6.081151e-07	1.629278e-08	4.372082e+00	1.063356e+03
2.430000e-06	5.074557e-07	1.597919e-08	3.648385e+00	1.042414e+03
2.440000e-06	4.066056e-07	1.564951e-08	2.923317e+00	1.020829e+03
2.450000e-06	3.055149e-07	1.529945e-08	2.196519e+00	9.984876e+02
2.460000e-06	2.042400e-07	1.492866e-08	1.468397e+00	9.751108e+02
2.470000e-06	1.028587e-07	1.453841e-08	7.395094e-01	9.502929e+02
2.480000e-06	1.431611e-09	1.412543e-08	1.029266e-02	9.235813e+02
2.490000e-06	-1.000411e-07	1.368328e-08	-7.192520e-01	8.945736e+02
2.500000e-06	-2.014887e-07	1.320963e-08	-1.448616e+00	8.630014e+02
2.510000e-06	-3.027801e-07	1.270278e-08	-2.176857e+00	8.287683e+02
2.520000e-06	-4.039502e-07	1.215839e-08	-2.904226e+00	7.919217e+02
2.530000e-06	-5.049974e-07	1.156990e-08	-3.630711e+00	7.525524e+02
2.540000e-06	-6.058013e-07	1.093281e-08	-4.355447e+00	7.106421e+02
2.550000e-06	-7.063178e-07	1.024133e-08	-5.078117e+00	6.658953e+02
2.560000e-06	-8.065549e-07	9.484560e-09	-5.798778e+00	6.176043e+02
2.570000e-06	-9.065170e-07	8.651397e-09	-6.517462e+00	5.645972e+02
2.580000e-06	-1.006238e-06	7.728950e-09	-7.234413e+00	5.053017e+02
2.590000e-06	-1.105699e-06	6.700200e-09	-7.949494e+00	4.379361e+02
2.600000e-06	-1.204794e-06	5.541946e-09	-8.661945e+00	3.608064e+02
2.610000e-06	-1.303489e-06	4.232525e-09	-9.371516e+00	2.726594e+02
2.620000e-06	-1.401768e-06	2.753210e-09	-1.007810e+01	1.730246e+02
2.630000e-06	-1.499507e-06	1.096637e-09	-1.078080e+01	6.246942e+01
2.640000e-06	-1.596681e-06	-7.243031e-10	-1.147944e+01	-5.729286e+01
2.650000e-06	-1.693343e-06	-2.672054e-09	-1.217440e+01	-1.834786e+02
2.660000e-06	-1.789470e-06	-4.682598e-09	-1.286551e+01	-3.124908e+02
2.670000e-06	-1.885070e-06	-6.675951e-09	-1.355283e+01	-4.403190e+02
2.680000e-06	-1.980098e-06	-8.570863e-09	-1.423604e+01	-5.630143e+02
2.690000e-06	-2.074215e-06	-1.031126e-08	-1.491270e+01	-6.771540e+02
2.700000e-06	-2.167265e-06	-1.186773e-08	-1.558169e+01	-7.802140e+02
2.710000e-06	-2.259450e-06	-1.322958e-08	-1.624446e+01	-8.707864e+02
2.720000e-06	-2.350858e-06	-1.440393e-08	-1.690164e+01	-9.486127e+02
2.730000e-06	-2.441483e-06	-1.541242e-08	-1.755320e+01	-1.014439e+03
2.740000e-06	-2.531257e-06	-1.627974e-08	-1.819863e+01	-1.069737e+03
2.750000e-06	-2.620139e-06	-1.702574e-08	-1.883766e+01	-1.116356e+03
2.760000e-06	-2.708193e-06	-1.766861e-08	-1.947073e+01	-1.156177e+03
2.770000e-06	-2.795439e-06	-1.822243e-08	-2.009798e+01	-1.190841e+03
2.780000e-06	-2.881665e-06	-1.869999e-08	-2.071791e+01	-1.221578e+03
2.790000e-06	-2.966693e-06	-1.911322e-08	-2.132923e+01	-1.249172e+03
2.800000e-06	-3.050659e-06	-1.947639e-08	-2.193291e+01	-1.274025e+03
2.810000e-06	-3.133625e-06	-1.979868e-08	-2.252939e+01	-1.296294e+03
2.820000e-06	-3.215500e-06	-2.008575e-08	-2.311804e+01	-1.316048e+03
2.830000e-06	-3.296289e-06	-2.034474e-08	-2.369888e+01	-1.333403e+03
2.840000e-06	-3.376031e-06	-2.058245e-08	-2.427219e+01	-1.348594e+03
2.850000e-06	-3.454438e-06	-2.080438e-08	-2.483590e+01	-1.361989e+03
2.860000e-06	-3.531308e-06	-2.100756e-08	-2.538856e+01	-1.374033e+03
2.870000e-06	-3.606707e-06	-2.119024e-08	-2.593065e+01	-1.385164e+03
2.880000e-06	-3.680777e-06	-2.135545e-08	-2.646318e+01	-1.395731e+03
2.890000e-06	-3.753569e-06	-2.150761e-08	-2.698652e+01	-1.405929e+03
2.900000e-06	-3.825072e-06	-2.165008e-08	-2.750060e+01	-1.415785e+03
2.910000e-06	-3.895135e-06	-2.178490e-08	-2.800432e+01	-1.425190e+03
2.920000e-06	-3.963641e-06	-2.191039e-08	-2.849685e+01	-1.433967e+03
2.930000e-06	-4.030754e-06	-2.202436e-08	-2.897936e+01	-1.441947e+03
2.940000e-06	-4.096458e-06	-2.213024e-08	-2.945175e+01	-1.449046e+03
