# Temperatura_=_84.73
# Concentracion g/m^3_=_41000.0
# C_Vs_to_Am_M_A/Vsm_=_65563218390.804596
# pendiente_HvsI_1/m_=_3716.3
# ordenada_HvsI_A/m_=_1297.0
# frecuencia_Hz_=_301585.96025870106

Tiempo_(s)	Campo_(V.s)	Magnetizacion_(V.s)	Campo_(kA/m)	Magnetizacion_(A/m)
0.000000e+00	-5.308543e-06	-2.219655e-08	-3.834915e+01	-1.450629e+03
1.000000e-08	-5.306205e-06	-2.219141e-08	-3.833226e+01	-1.450425e+03
2.000000e-08	-5.302068e-06	-2.218206e-08	-3.830238e+01	-1.450307e+03
3.000000e-08	-5.296394e-06	-2.217375e-08	-3.826139e+01	-1.450177e+03
4.000000e-08	-5.289152e-06	-2.216461e-08	-3.820907e+01	-1.449903e+03
5.000000e-08	-5.280071e-06	-2.214913e-08	-3.814347e+01	-1.449364e+03
6.000000e-08	-5.268941e-06	-2.212979e-08	-3.806307e+01	-1.448486e+03
7.000000e-08	-5.255980e-06	-2.209932e-08	-3.796944e+01	-1.447266e+03
8.000000e-08	-5.240988e-06	-2.209644e-08	-3.786113e+01	-1.445773e+03
9.000000e-08	-5.223627e-06	-2.214995e-08	-3.773572e+01	-1.444130e+03
1.000000e-07	-5.204157e-06	-2.212262e-08	-3.759507e+01	-1.442476e+03
1.100000e-07	-5.182861e-06	-2.205413e-08	-3.744122e+01	-1.440927e+03
1.200000e-07	-5.159942e-06	-2.200639e-08	-3.727565e+01	-1.439540e+03
1.300000e-07	-5.135631e-06	-2.187008e-08	-3.710003e+01	-1.438301e+03
1.400000e-07	-5.109770e-06	-2.191877e-08	-3.691320e+01	-1.437128e+03
1.500000e-07	-5.082151e-06	-2.202493e-08	-3.671369e+01	-1.435896e+03
1.600000e-07	-5.053011e-06	-2.185308e-08	-3.650317e+01	-1.434478e+03
1.700000e-07	-5.022449e-06	-2.191271e-08	-3.628239e+01	-1.432777e+03
1.800000e-07	-4.989922e-06	-2.193657e-08	-3.604742e+01	-1.430754e+03
1.900000e-07	-4.955336e-06	-2.168188e-08	-3.579757e+01	-1.428435e+03
2.000000e-07	-4.919275e-06	-2.172732e-08	-3.553706e+01	-1.425899e+03
2.100000e-07	-4.881607e-06	-2.171486e-08	-3.526495e+01	-1.423245e+03
2.200000e-07	-4.842203e-06	-2.154879e-08	-3.498029e+01	-1.420560e+03
2.300000e-07	-4.800904e-06	-2.159600e-08	-3.468194e+01	-1.417889e+03
2.400000e-07	-4.757575e-06	-2.159245e-08	-3.436893e+01	-1.415218e+03
2.500000e-07	-4.712550e-06	-2.154288e-08	-3.404367e+01	-1.412484e+03
2.600000e-07	-4.665828e-06	-2.150992e-08	-3.370615e+01	-1.409588e+03
2.700000e-07	-4.617137e-06	-2.139345e-08	-3.335441e+01	-1.406436e+03
2.800000e-07	-4.566270e-06	-2.134537e-08	-3.298694e+01	-1.402966e+03
2.900000e-07	-4.513429e-06	-2.132666e-08	-3.260522e+01	-1.399172e+03
3.000000e-07	-4.459007e-06	-2.129065e-08	-3.221206e+01	-1.395106e+03
3.100000e-07	-4.403044e-06	-2.120991e-08	-3.180779e+01	-1.390863e+03
3.200000e-07	-4.345242e-06	-2.112044e-08	-3.139022e+01	-1.386552e+03
3.300000e-07	-4.285735e-06	-2.107210e-08	-3.096034e+01	-1.382258e+03
3.400000e-07	-4.224853e-06	-2.098436e-08	-3.052053e+01	-1.378017e+03
3.500000e-07	-4.162538e-06	-2.092937e-08	-3.007036e+01	-1.373802e+03
3.600000e-07	-4.098881e-06	-2.088109e-08	-2.961050e+01	-1.369528e+03
3.700000e-07	-4.033732e-06	-2.079637e-08	-2.913986e+01	-1.365079e+03
3.800000e-07	-3.966888e-06	-2.070433e-08	-2.865698e+01	-1.360346e+03
3.900000e-07	-3.898550e-06	-2.059790e-08	-2.816330e+01	-1.355256e+03
4.000000e-07	-3.828947e-06	-2.053250e-08	-2.766048e+01	-1.349800e+03
4.100000e-07	-3.758182e-06	-2.046750e-08	-2.714928e+01	-1.344035e+03
4.200000e-07	-3.686315e-06	-2.038285e-08	-2.663011e+01	-1.338064e+03
4.300000e-07	-3.612998e-06	-2.029681e-08	-2.610046e+01	-1.332004e+03
4.400000e-07	-3.537944e-06	-2.020919e-08	-2.555827e+01	-1.325949e+03
4.500000e-07	-3.461450e-06	-2.012206e-08	-2.500567e+01	-1.319935e+03
4.600000e-07	-3.383684e-06	-2.001876e-08	-2.444388e+01	-1.313924e+03
4.700000e-07	-3.304539e-06	-1.991572e-08	-2.387214e+01	-1.307818e+03
4.800000e-07	-3.224033e-06	-1.980957e-08	-2.329056e+01	-1.301482e+03
4.900000e-07	-3.142364e-06	-1.969820e-08	-2.270058e+01	-1.294784e+03
5.000000e-07	-3.059605e-06	-1.959128e-08	-2.210272e+01	-1.287640e+03
5.100000e-07	-2.975956e-06	-1.947353e-08	-2.149844e+01	-1.280036e+03
5.200000e-07	-2.891510e-06	-1.935111e-08	-2.088839e+01	-1.272032e+03
5.300000e-07	-2.806146e-06	-1.923344e-08	-2.027173e+01	-1.263745e+03
5.400000e-07	-2.719862e-06	-1.911705e-08	-1.964841e+01	-1.255309e+03
5.500000e-07	-2.632659e-06	-1.899880e-08	-1.901845e+01	-1.246826e+03
5.600000e-07	-2.544608e-06	-1.886979e-08	-1.838237e+01	-1.238331e+03
5.700000e-07	-2.455462e-06	-1.872951e-08	-1.773837e+01	-1.229775e+03
5.800000e-07	-2.365022e-06	-1.857530e-08	-1.708503e+01	-1.221031e+03
5.900000e-07	-2.273653e-06	-1.841809e-08	-1.642497e+01	-1.211928e+03
6.000000e-07	-2.181649e-06	-1.826195e-08	-1.576033e+01	-1.202301e+03
6.100000e-07	-2.088959e-06	-1.810902e-08	-1.509073e+01	-1.192041e+03
6.200000e-07	-1.995472e-06	-1.795341e-08	-1.441538e+01	-1.181124e+03
6.300000e-07	-1.901272e-06	-1.778575e-08	-1.373487e+01	-1.169622e+03
6.400000e-07	-1.806412e-06	-1.761140e-08	-1.304960e+01	-1.157676e+03
6.500000e-07	-1.710966e-06	-1.743106e-08	-1.236010e+01	-1.145450e+03
6.600000e-07	-1.615031e-06	-1.724601e-08	-1.166706e+01	-1.133070e+03
6.700000e-07	-1.518520e-06	-1.705328e-08	-1.096986e+01	-1.120573e+03
6.800000e-07	-1.421271e-06	-1.685178e-08	-1.026733e+01	-1.107886e+03
6.900000e-07	-1.323281e-06	-1.664004e-08	-9.559442e+00	-1.094833e+03
7.000000e-07	-1.224611e-06	-1.641822e-08	-8.846646e+00	-1.081174e+03
7.100000e-07	-1.125445e-06	-1.618832e-08	-8.130266e+00	-1.066672e+03
7.200000e-07	-1.026017e-06	-1.595157e-08	-7.411990e+00	-1.051159e+03
7.300000e-07	-9.263745e-07	-1.571012e-08	-6.692171e+00	-1.034576e+03
7.400000e-07	-8.265383e-07	-1.545973e-08	-5.970950e+00	-1.016992e+03
7.500000e-07	-7.265195e-07	-1.519546e-08	-5.248410e+00	-9.985643e+02
7.600000e-07	-6.262974e-07	-1.491099e-08	-4.524401e+00	-9.794758e+02
7.700000e-07	-5.258796e-07	-1.460582e-08	-3.798978e+00	-9.598497e+02
7.800000e-07	-4.253015e-07	-1.428546e-08	-3.072397e+00	-9.396760e+02
7.900000e-07	-3.245853e-07	-1.395121e-08	-2.344819e+00	-9.187704e+02
8.000000e-07	-2.237198e-07	-1.360158e-08	-1.616162e+00	-8.967840e+02
8.100000e-07	-1.227270e-07	-1.323206e-08	-8.865853e-01	-8.732632e+02
8.200000e-07	-2.165994e-08	-1.283825e-08	-1.564724e-01	-8.477448e+02
8.300000e-07	7.944254e-08	-1.241834e-08	5.738965e-01	-8.198586e+02
8.400000e-07	1.805006e-07	-1.196926e-08	1.303944e+00	-7.893998e+02
8.500000e-07	2.814935e-07	-1.148380e-08	2.033522e+00	-7.563435e+02
8.600000e-07	3.824464e-07	-1.095584e-08	2.762810e+00	-7.207836e+02
8.700000e-07	4.832890e-07	-1.038364e-08	3.491301e+00	-6.828020e+02
8.800000e-07	5.839563e-07	-9.762403e-09	4.218526e+00	-6.422968e+02
8.900000e-07	6.844707e-07	-9.082002e-09	4.944647e+00	-5.988138e+02
9.000000e-07	7.847334e-07	-8.332934e-09	5.668949e+00	-5.514364e+02
9.100000e-07	8.847408e-07	-7.504040e-09	6.391407e+00	-4.987791e+02
9.200000e-07	9.845508e-07	-6.577810e-09	7.112439e+00	-4.391114e+02
9.300000e-07	1.084139e-06	-5.533949e-09	7.831868e+00	-3.706093e+02
9.400000e-07	1.183419e-06	-4.348663e-09	8.549074e+00	-2.916975e+02
9.500000e-07	1.282232e-06	-2.999017e-09	9.262899e+00	-2.014214e+02
9.600000e-07	1.380415e-06	-1.471488e-09	9.972180e+00	-9.977068e+01
9.700000e-07	1.477795e-06	2.301377e-10	1.067566e+01	1.211821e+01
9.800000e-07	1.574420e-06	2.075972e-09	1.137368e+01	1.319370e+02
9.900000e-07	1.670509e-06	4.009678e-09	1.206783e+01	2.563760e+02
1.000000e-06	1.766030e-06	5.952808e-09	1.275788e+01	3.814717e+02
1.010000e-06	1.860863e-06	7.823610e-09	1.344296e+01	5.030740e+02
1.020000e-06	1.955072e-06	9.552741e-09	1.412353e+01	6.173505e+02
1.030000e-06	2.048607e-06	1.109664e-08	1.479923e+01	7.212371e+02
1.040000e-06	2.141409e-06	1.244228e-08	1.546964e+01	8.127556e+02
1.050000e-06	2.233594e-06	1.359367e-08	1.613558e+01	8.911468e+02
1.060000e-06	2.325165e-06	1.456837e-08	1.679710e+01	9.568061e+02
1.070000e-06	2.415936e-06	1.539034e-08	1.745283e+01	1.011049e+03
1.080000e-06	2.505625e-06	1.608346e-08	1.810074e+01	1.055764e+03
1.090000e-06	2.594175e-06	1.667003e-08	1.874044e+01	1.093033e+03
1.100000e-06	2.681762e-06	1.716956e-08	1.937317e+01	1.124787e+03
1.110000e-06	2.768452e-06	1.759905e-08	1.999942e+01	1.152569e+03
1.120000e-06	2.854274e-06	1.797133e-08	2.061940e+01	1.177424e+03
1.130000e-06	2.939188e-06	1.829744e-08	2.123283e+01	1.199920e+03
1.140000e-06	3.023204e-06	1.858677e-08	2.183976e+01	1.220267e+03
1.150000e-06	3.106286e-06	1.884478e-08	2.243995e+01	1.238484e+03
1.160000e-06	3.188306e-06	1.907657e-08	2.303246e+01	1.254574e+03
1.170000e-06	3.269148e-06	1.928788e-08	2.361647e+01	1.268637e+03
1.180000e-06	3.348695e-06	1.948346e-08	2.419113e+01	1.280930e+03
1.190000e-06	3.427028e-06	1.966479e-08	2.475700e+01	1.291838e+03
1.200000e-06	3.504213e-06	1.983059e-08	2.531459e+01	1.301801e+03
1.210000e-06	3.580138e-06	1.998261e-08	2.586308e+01	1.311222e+03
1.220000e-06	3.654644e-06	2.012397e-08	2.640131e+01	1.320374e+03
1.230000e-06	3.727579e-06	2.025711e-08	2.692820e+01	1.329362e+03
1.240000e-06	3.799008e-06	2.038194e-08	2.744421e+01	1.338124e+03
1.250000e-06	3.869113e-06	2.049713e-08	2.795064e+01	1.346484e+03
1.260000e-06	3.937890e-06	2.060255e-08	2.844750e+01	1.354235e+03
1.270000e-06	4.005374e-06	2.069942e-08	2.893500e+01	1.361220e+03
1.280000e-06	4.071398e-06	2.079219e-08	2.941196e+01	1.367392e+03
1.290000e-06	4.135763e-06	2.088258e-08	2.987694e+01	1.372837e+03
1.300000e-06	4.198650e-06	2.096979e-08	3.033123e+01	1.377751e+03
1.310000e-06	4.260122e-06	2.105320e-08	3.077531e+01	1.382386e+03
1.320000e-06	4.320217e-06	2.113118e-08	3.120944e+01	1.386975e+03
1.330000e-06	4.378863e-06	2.120314e-08	3.163310e+01	1.391674e+03
1.340000e-06	4.435773e-06	2.127038e-08	3.204422e+01	1.396520e+03
1.350000e-06	4.490963e-06	2.133429e-08	3.244292e+01	1.401432e+03
1.360000e-06	4.544546e-06	2.139543e-08	3.283000e+01	1.406245e+03
1.370000e-06	4.596476e-06	2.145455e-08	3.320515e+01	1.410769e+03
1.380000e-06	4.646450e-06	2.151349e-08	3.356616e+01	1.414845e+03
1.390000e-06	4.694453e-06	2.157076e-08	3.391294e+01	1.418400e+03
1.400000e-06	4.740777e-06	2.162347e-08	3.424758e+01	1.421465e+03
1.410000e-06	4.785539e-06	2.167093e-08	3.457095e+01	1.424158e+03
1.420000e-06	4.828732e-06	2.171444e-08	3.488298e+01	1.426652e+03
1.430000e-06	4.870101e-06	2.175563e-08	3.518183e+01	1.429114e+03
1.440000e-06	4.909657e-06	2.179476e-08	3.546758e+01	1.431659e+03
1.450000e-06	4.947604e-06	2.183079e-08	3.574172e+01	1.434314e+03
1.460000e-06	4.983938e-06	2.186231e-08	3.600419e+01	1.437017e+03
1.470000e-06	5.018542e-06	2.189020e-08	3.625418e+01	1.439641e+03
1.480000e-06	5.051274e-06	2.191704e-08	3.649063e+01	1.442036e+03
1.490000e-06	5.082242e-06	2.194444e-08	3.671434e+01	1.444076e+03
1.500000e-06	5.111511e-06	2.197249e-08	3.692578e+01	1.445707e+03
1.510000e-06	5.139038e-06	2.199930e-08	3.712464e+01	1.446955e+03
1.520000e-06	5.164632e-06	2.202170e-08	3.730953e+01	1.447923e+03
1.530000e-06	5.188172e-06	2.204088e-08	3.747959e+01	1.448757e+03
1.540000e-06	5.209911e-06	2.205724e-08	3.763663e+01	1.449601e+03
1.550000e-06	5.230022e-06	2.207144e-08	3.778192e+01	1.450554e+03
1.560000e-06	5.248319e-06	2.208414e-08	3.791409e+01	1.451638e+03
1.570000e-06	5.264601e-06	2.209569e-08	3.803171e+01	1.452798e+03
1.580000e-06	5.278961e-06	2.210707e-08	3.813545e+01	1.453920e+03
1.590000e-06	5.291416e-06	2.211748e-08	3.822543e+01	1.454865e+03
1.600000e-06	5.301709e-06	2.212662e-08	3.829978e+01	1.455516e+03
1.610000e-06	5.309851e-06	2.213524e-08	3.835860e+01	1.455816e+03
1.620000e-06	5.316094e-06	2.214256e-08	3.840370e+01	1.455780e+03
1.630000e-06	5.320608e-06	2.214789e-08	3.843631e+01	1.455495e+03
1.640000e-06	5.323277e-06	2.215103e-08	3.845559e+01	1.455089e+03
1.650000e-06	5.323887e-06	2.215184e-08	3.846000e+01	1.454691e+03
1.660000e-06	5.322687e-06	2.214410e-08	3.845133e+01	1.454390e+03
1.670000e-06	5.319870e-06	2.213466e-08	3.843098e+01	1.454209e+03
1.680000e-06	5.315484e-06	2.213092e-08	3.839930e+01	1.454098e+03
1.690000e-06	5.309272e-06	2.212663e-08	3.835442e+01	1.453947e+03
1.700000e-06	5.301185e-06	2.212223e-08	3.829600e+01	1.453625e+03
1.710000e-06	5.291511e-06	2.211704e-08	3.822611e+01	1.453017e+03
1.720000e-06	5.280188e-06	2.212100e-08	3.814432e+01	1.452063e+03
1.730000e-06	5.267027e-06	2.211534e-08	3.804924e+01	1.450775e+03
1.740000e-06	5.251877e-06	2.200772e-08	3.793980e+01	1.449238e+03
1.750000e-06	5.234478e-06	2.196901e-08	3.781410e+01	1.447580e+03
1.760000e-06	5.214524e-06	2.199315e-08	3.766996e+01	1.445940e+03
1.770000e-06	5.192076e-06	2.201146e-08	3.750779e+01	1.444422e+03
1.780000e-06	5.168038e-06	2.212433e-08	3.733414e+01	1.443070e+03
1.790000e-06	5.143314e-06	2.196612e-08	3.715553e+01	1.441853e+03
1.800000e-06	5.117393e-06	2.184733e-08	3.696827e+01	1.440678e+03
1.810000e-06	5.089561e-06	2.199217e-08	3.676721e+01	1.439415e+03
1.820000e-06	5.059976e-06	2.180628e-08	3.655349e+01	1.437942e+03
1.830000e-06	5.028554e-06	2.179865e-08	3.632650e+01	1.436172e+03
1.840000e-06	4.995089e-06	2.200447e-08	3.608474e+01	1.434081e+03
1.850000e-06	4.960026e-06	2.179737e-08	3.583145e+01	1.431707e+03
1.860000e-06	4.923268e-06	2.181561e-08	3.556591e+01	1.429136e+03
1.870000e-06	4.884455e-06	2.190661e-08	3.528552e+01	1.426468e+03
1.880000e-06	4.843974e-06	2.170265e-08	3.499309e+01	1.423784e+03
1.890000e-06	4.801812e-06	2.171752e-08	3.468851e+01	1.421115e+03
1.900000e-06	4.757956e-06	2.160791e-08	3.437169e+01	1.418437e+03
1.910000e-06	4.712443e-06	2.155074e-08	3.404290e+01	1.415676e+03
1.920000e-06	4.665114e-06	2.167367e-08	3.370099e+01	1.412732e+03
1.930000e-06	4.616206e-06	2.149135e-08	3.334768e+01	1.409514e+03
1.940000e-06	4.565546e-06	2.142642e-08	3.298171e+01	1.405973e+03
1.950000e-06	4.512920e-06	2.136846e-08	3.260154e+01	1.402113e+03
1.960000e-06	4.458363e-06	2.129856e-08	3.220741e+01	1.398000e+03
1.970000e-06	4.401988e-06	2.130191e-08	3.180016e+01	1.393732e+03
1.980000e-06	4.344055e-06	2.115957e-08	3.138165e+01	1.389418e+03
1.990000e-06	4.284691e-06	2.118618e-08	3.095280e+01	1.385134e+03
2.000000e-06	4.223978e-06	2.110690e-08	3.051420e+01	1.380902e+03
2.010000e-06	4.161641e-06	2.096221e-08	3.006388e+01	1.376682e+03
2.020000e-06	4.097545e-06	2.095013e-08	2.960085e+01	1.372380e+03
2.030000e-06	4.031963e-06	2.086159e-08	2.912708e+01	1.367878e+03
2.040000e-06	3.964985e-06	2.084777e-08	2.864323e+01	1.363072e+03
2.050000e-06	3.896767e-06	2.072980e-08	2.815042e+01	1.357901e+03
2.060000e-06	3.827090e-06	2.062429e-08	2.764707e+01	1.352372e+03
2.070000e-06	3.755787e-06	2.058275e-08	2.713197e+01	1.346552e+03
2.080000e-06	3.683238e-06	2.045703e-08	2.660788e+01	1.340551e+03
2.090000e-06	3.609450e-06	2.038299e-08	2.607483e+01	1.334486e+03
2.100000e-06	3.534359e-06	2.026853e-08	2.553237e+01	1.328438e+03
2.110000e-06	3.457851e-06	2.019702e-08	2.497967e+01	1.322429e+03
2.120000e-06	3.379709e-06	2.011281e-08	2.441517e+01	1.316407e+03
2.130000e-06	3.300194e-06	1.999907e-08	2.384075e+01	1.310263e+03
2.140000e-06	3.219597e-06	1.990847e-08	2.325851e+01	1.303858e+03
2.150000e-06	3.137966e-06	1.978840e-08	2.266881e+01	1.297069e+03
2.160000e-06	3.055236e-06	1.970130e-08	2.207116e+01	1.289824e+03
2.170000e-06	2.971529e-06	1.958372e-08	2.146646e+01	1.282126e+03
2.180000e-06	2.886899e-06	1.946363e-08	2.085509e+01	1.274050e+03
2.190000e-06	2.801052e-06	1.934211e-08	2.023493e+01	1.265719e+03
2.200000e-06	2.713892e-06	1.920864e-08	1.960528e+01	1.257265e+03
2.210000e-06	2.625689e-06	1.908149e-08	1.896809e+01	1.248779e+03
2.220000e-06	2.536616e-06	1.894859e-08	1.832463e+01	1.240277e+03
2.230000e-06	2.446682e-06	1.883024e-08	1.767494e+01	1.231693e+03
2.240000e-06	2.356020e-06	1.869409e-08	1.702000e+01	1.222886e+03
2.250000e-06	2.264581e-06	1.854989e-08	1.635944e+01	1.213683e+03
2.260000e-06	2.172417e-06	1.839328e-08	1.569364e+01	1.203926e+03
2.270000e-06	2.079597e-06	1.823383e-08	1.502310e+01	1.193523e+03
2.280000e-06	1.985936e-06	1.807305e-08	1.434649e+01	1.182470e+03
2.290000e-06	1.891257e-06	1.790198e-08	1.366252e+01	1.170859e+03
2.300000e-06	1.795697e-06	1.772916e-08	1.297219e+01	1.158840e+03
2.310000e-06	1.699626e-06	1.755068e-08	1.227818e+01	1.146571e+03
2.320000e-06	1.603173e-06	1.736816e-08	1.158139e+01	1.134165e+03
2.330000e-06	1.506199e-06	1.717070e-08	1.088085e+01	1.121637e+03
2.340000e-06	1.408616e-06	1.696418e-08	1.017591e+01	1.108889e+03
2.350000e-06	1.310562e-06	1.675178e-08	9.467560e+00	1.095726e+03
2.360000e-06	1.212151e-06	1.653555e-08	8.756636e+00	1.081905e+03
2.370000e-06	1.113433e-06	1.630974e-08	8.043492e+00	1.067196e+03
2.380000e-06	1.014399e-06	1.607006e-08	7.328061e+00	1.051453e+03
2.390000e-06	9.150204e-07	1.581994e-08	6.610148e+00	1.034646e+03
2.400000e-06	8.153189e-07	1.555771e-08	5.889900e+00	1.016865e+03
2.410000e-06	7.154023e-07	1.528522e-08	5.168098e+00	9.982801e+02
2.420000e-06	6.153323e-07	1.500117e-08	4.445188e+00	9.790687e+02
2.430000e-06	5.151167e-07	1.470453e-08	3.721226e+00	9.593310e+02
2.440000e-06	4.148169e-07	1.439121e-08	2.996656e+00	9.390213e+02
2.450000e-06	3.144045e-07	1.405690e-08	2.271272e+00	9.179175e+02
2.460000e-06	2.138750e-07	1.369937e-08	1.545043e+00	8.956416e+02
2.470000e-06	1.132841e-07	1.332072e-08	8.183697e-01	8.717292e+02
2.480000e-06	1.259854e-08	1.292117e-08	9.101240e-02	8.457290e+02
2.490000e-06	-8.816074e-08	1.249389e-08	-6.368771e-01	8.173016e+02
2.500000e-06	-1.888101e-07	1.203686e-08	-1.363973e+00	7.862820e+02
2.510000e-06	-2.893093e-07	1.154675e-08	-2.089984e+00	7.526785e+02
2.520000e-06	-3.897535e-07	1.101517e-08	-2.815597e+00	7.165955e+02
2.530000e-06	-4.901884e-07	1.043437e-08	-3.541143e+00	6.780907e+02
2.540000e-06	-5.905487e-07	9.801121e-09	-4.266150e+00	6.369995e+02
2.550000e-06	-6.907612e-07	9.109318e-09	-4.990090e+00	5.927750e+02
2.560000e-06	-7.907598e-07	8.347814e-09	-5.712484e+00	5.443966e+02
2.570000e-06	-8.904910e-07	7.501921e-09	-6.432947e+00	4.903897e+02
2.580000e-06	-9.899383e-07	6.554492e-09	-7.151359e+00	4.289789e+02
2.590000e-06	-1.089048e-06	5.487529e-09	-7.867334e+00	3.583625e+02
2.600000e-06	-1.187785e-06	4.278357e-09	-8.580611e+00	2.770671e+02
2.610000e-06	-1.286116e-06	2.907759e-09	-9.290962e+00	1.843166e+02
2.620000e-06	-1.384020e-06	1.360485e-09	-9.998219e+00	8.033470e+01
2.630000e-06	-1.481405e-06	-3.587828e-10	-1.070174e+01	-3.348659e+01
2.640000e-06	-1.578271e-06	-2.218878e-09	-1.140150e+01	-1.546034e+02
2.650000e-06	-1.674679e-06	-4.164460e-09	-1.209796e+01	-2.795316e+02
2.660000e-06	-1.770620e-06	-6.115174e-09	-1.279103e+01	-4.042257e+02
2.670000e-06	-1.865953e-06	-7.985581e-09	-1.347973e+01	-5.245616e+02
2.680000e-06	-1.960467e-06	-9.706330e-09	-1.416250e+01	-6.368370e+02
2.690000e-06	-2.054044e-06	-1.124023e-08	-1.483851e+01	-7.381998e+02
2.700000e-06	-2.146719e-06	-1.257367e-08	-1.550800e+01	-8.269284e+02
2.710000e-06	-2.238606e-06	-1.371114e-08	-1.617179e+01	-9.025229e+02
2.720000e-06	-2.329719e-06	-1.467151e-08	-1.682999e+01	-9.656007e+02
2.730000e-06	-2.420015e-06	-1.548093e-08	-1.748230e+01	-1.017631e+03
2.740000e-06	-2.509458e-06	-1.616663e-08	-1.812843e+01	-1.060577e+03
2.750000e-06	-2.598065e-06	-1.674982e-08	-1.876853e+01	-1.096512e+03
2.760000e-06	-2.685932e-06	-1.724779e-08	-1.940329e+01	-1.127302e+03
2.770000e-06	-2.772873e-06	-1.767424e-08	-2.003136e+01	-1.154387e+03
2.780000e-06	-2.858621e-06	-1.804507e-08	-2.065081e+01	-1.178705e+03
2.790000e-06	-2.943266e-06	-1.836835e-08	-2.126229e+01	-1.200733e+03
2.800000e-06	-3.026905e-06	-1.865230e-08	-2.186650e+01	-1.220625e+03
2.810000e-06	-3.109561e-06	-1.890656e-08	-2.246361e+01	-1.238385e+03
2.820000e-06	-3.191178e-06	-1.913686e-08	-2.305321e+01	-1.254028e+03
2.830000e-06	-3.271766e-06	-1.934974e-08	-2.363538e+01	-1.267686e+03
2.840000e-06	-3.351228e-06	-1.954561e-08	-2.420942e+01	-1.279647e+03
2.850000e-06	-3.429274e-06	-1.972561e-08	-2.477323e+01	-1.290316e+03
2.860000e-06	-3.505854e-06	-1.989109e-08	-2.532645e+01	-1.300133e+03
2.870000e-06	-3.581062e-06	-2.004316e-08	-2.586975e+01	-1.309479e+03
2.880000e-06	-3.654885e-06	-2.018272e-08	-2.640305e+01	-1.318594e+03
2.890000e-06	-3.727446e-06	-2.031252e-08	-2.692724e+01	-1.327545e+03
2.900000e-06	-3.798776e-06	-2.043469e-08	-2.744253e+01	-1.336238e+03
2.910000e-06	-3.868613e-06	-2.055051e-08	-2.794703e+01	-1.344486e+03
2.920000e-06	-3.936941e-06	-2.066059e-08	-2.844064e+01	-1.352084e+03
2.930000e-06	-4.003875e-06	-2.076278e-08	-2.892417e+01	-1.358894e+03
2.940000e-06	-4.069422e-06	-2.085721e-08	-2.939769e+01	-1.364900e+03
