# Temperatura_=_59.87
# Concentracion g/m^3_=_41000.0
# C_Vs_to_Am_M_A/Vsm_=_65563218390.804596
# pendiente_HvsI_1/m_=_3716.3
# ordenada_HvsI_A/m_=_1297.0
# frecuencia_Hz_=_301591.41302347643

Tiempo_(s)	Campo_(V.s)	Magnetizacion_(V.s)	Campo_(kA/m)	Magnetizacion_(A/m)
0.000000e+00	-5.329096e-06	-1.981171e-08	-3.834716e+01	-1.295210e+03
1.000000e-08	-5.326601e-06	-1.980953e-08	-3.832920e+01	-1.295084e+03
2.000000e-08	-5.322314e-06	-1.980274e-08	-3.829836e+01	-1.294999e+03
3.000000e-08	-5.316464e-06	-1.979613e-08	-3.825627e+01	-1.294871e+03
4.000000e-08	-5.309083e-06	-1.978846e-08	-3.820315e+01	-1.294598e+03
5.000000e-08	-5.299864e-06	-1.977597e-08	-3.813681e+01	-1.294095e+03
6.000000e-08	-5.288567e-06	-1.975895e-08	-3.805552e+01	-1.293320e+03
7.000000e-08	-5.275433e-06	-1.973009e-08	-3.796101e+01	-1.292283e+03
8.000000e-08	-5.260194e-06	-1.973285e-08	-3.785135e+01	-1.291049e+03
9.000000e-08	-5.242620e-06	-1.978341e-08	-3.772489e+01	-1.289713e+03
1.000000e-07	-5.223061e-06	-1.975262e-08	-3.758415e+01	-1.288374e+03
1.100000e-07	-5.201647e-06	-1.969528e-08	-3.743006e+01	-1.287108e+03
1.200000e-07	-5.178516e-06	-1.965767e-08	-3.726362e+01	-1.285946e+03
1.300000e-07	-5.154029e-06	-1.953358e-08	-3.708741e+01	-1.284866e+03
1.400000e-07	-5.127969e-06	-1.959403e-08	-3.689988e+01	-1.283806e+03
1.500000e-07	-5.100102e-06	-1.967389e-08	-3.669936e+01	-1.282681e+03
1.600000e-07	-5.070752e-06	-1.949321e-08	-3.648816e+01	-1.281411e+03
1.700000e-07	-5.039986e-06	-1.956248e-08	-3.626678e+01	-1.279946e+03
1.800000e-07	-5.007230e-06	-1.957999e-08	-3.603107e+01	-1.278274e+03
1.900000e-07	-4.972429e-06	-1.938063e-08	-3.578065e+01	-1.276424e+03
2.000000e-07	-4.936153e-06	-1.947139e-08	-3.551962e+01	-1.274450e+03
2.100000e-07	-4.898245e-06	-1.946001e-08	-3.524683e+01	-1.272408e+03
2.200000e-07	-4.858575e-06	-1.932272e-08	-3.496138e+01	-1.270331e+03
2.300000e-07	-4.816997e-06	-1.933585e-08	-3.466219e+01	-1.268220e+03
2.400000e-07	-4.773386e-06	-1.928355e-08	-3.434838e+01	-1.266037e+03
2.500000e-07	-4.728031e-06	-1.927206e-08	-3.402201e+01	-1.263716e+03
2.600000e-07	-4.680921e-06	-1.925971e-08	-3.368302e+01	-1.261184e+03
2.700000e-07	-4.631837e-06	-1.914608e-08	-3.332981e+01	-1.258391e+03
2.800000e-07	-4.580635e-06	-1.910645e-08	-3.296138e+01	-1.255319e+03
2.900000e-07	-4.527503e-06	-1.906826e-08	-3.257905e+01	-1.252000e+03
3.000000e-07	-4.472720e-06	-1.903350e-08	-3.218484e+01	-1.248501e+03
3.100000e-07	-4.416351e-06	-1.899823e-08	-3.177922e+01	-1.244911e+03
3.200000e-07	-4.358213e-06	-1.892834e-08	-3.136087e+01	-1.241310e+03
3.300000e-07	-4.298390e-06	-1.886854e-08	-3.093039e+01	-1.237743e+03
3.400000e-07	-4.237126e-06	-1.879526e-08	-3.048955e+01	-1.234206e+03
3.500000e-07	-4.174484e-06	-1.874297e-08	-3.003879e+01	-1.230647e+03
3.600000e-07	-4.110497e-06	-1.868789e-08	-2.957835e+01	-1.226976e+03
3.700000e-07	-4.044959e-06	-1.864087e-08	-2.910676e+01	-1.223095e+03
3.800000e-07	-3.977770e-06	-1.857862e-08	-2.862328e+01	-1.218927e+03
3.900000e-07	-3.909087e-06	-1.847474e-08	-2.812905e+01	-1.214439e+03
4.000000e-07	-3.839142e-06	-1.841621e-08	-2.762574e+01	-1.209654e+03
4.100000e-07	-3.768020e-06	-1.835523e-08	-2.711396e+01	-1.204641e+03
4.200000e-07	-3.695708e-06	-1.827778e-08	-2.659361e+01	-1.199498e+03
4.300000e-07	-3.621929e-06	-1.820210e-08	-2.606271e+01	-1.194317e+03
4.400000e-07	-3.546419e-06	-1.812130e-08	-2.551935e+01	-1.189152e+03
4.500000e-07	-3.469477e-06	-1.804057e-08	-2.496569e+01	-1.184005e+03
4.600000e-07	-3.391209e-06	-1.795491e-08	-2.440249e+01	-1.178815e+03
4.700000e-07	-3.311526e-06	-1.787303e-08	-2.382911e+01	-1.173480e+03
4.800000e-07	-3.230538e-06	-1.778396e-08	-2.324634e+01	-1.167879e+03
4.900000e-07	-3.148408e-06	-1.769058e-08	-2.265535e+01	-1.161917e+03
5.000000e-07	-3.065268e-06	-1.759697e-08	-2.205708e+01	-1.155544e+03
5.100000e-07	-2.981275e-06	-1.749277e-08	-2.145269e+01	-1.148776e+03
5.200000e-07	-2.896435e-06	-1.738204e-08	-2.084219e+01	-1.141686e+03
5.300000e-07	-2.810603e-06	-1.727132e-08	-2.022456e+01	-1.134384e+03
5.400000e-07	-2.723816e-06	-1.716375e-08	-1.960006e+01	-1.126974e+03
5.500000e-07	-2.636230e-06	-1.705588e-08	-1.896981e+01	-1.119524e+03
5.600000e-07	-2.547772e-06	-1.693975e-08	-1.833328e+01	-1.112036e+03
5.700000e-07	-2.458091e-06	-1.681977e-08	-1.768795e+01	-1.104443e+03
5.800000e-07	-2.367204e-06	-1.669118e-08	-1.703395e+01	-1.096619e+03
5.900000e-07	-2.275487e-06	-1.655513e-08	-1.637397e+01	-1.088419e+03
6.000000e-07	-2.183091e-06	-1.641463e-08	-1.570911e+01	-1.079718e+03
6.100000e-07	-2.089953e-06	-1.627459e-08	-1.503891e+01	-1.070445e+03
6.200000e-07	-1.995999e-06	-1.612988e-08	-1.436283e+01	-1.060606e+03
6.300000e-07	-1.901324e-06	-1.597553e-08	-1.368157e+01	-1.050280e+03
6.400000e-07	-1.806080e-06	-1.581720e-08	-1.299621e+01	-1.039587e+03
6.500000e-07	-1.710268e-06	-1.565221e-08	-1.230676e+01	-1.028649e+03
6.600000e-07	-1.613872e-06	-1.548455e-08	-1.161312e+01	-1.017543e+03
6.700000e-07	-1.516771e-06	-1.531118e-08	-1.091440e+01	-1.006265e+03
6.800000e-07	-1.418891e-06	-1.513038e-08	-1.021007e+01	-9.947220e+02
6.900000e-07	-1.320424e-06	-1.493966e-08	-9.501519e+00	-9.827483e+02
7.000000e-07	-1.221482e-06	-1.473648e-08	-8.789549e+00	-9.701471e+02
7.100000e-07	-1.122096e-06	-1.452566e-08	-8.074390e+00	-9.567430e+02
7.200000e-07	-1.022382e-06	-1.430733e-08	-7.356867e+00	-9.424297e+02
7.300000e-07	-9.223996e-07	-1.408426e-08	-6.637412e+00	-9.271964e+02
7.400000e-07	-8.221827e-07	-1.385303e-08	-5.916270e+00	-9.111230e+02
7.500000e-07	-7.217644e-07	-1.361066e-08	-5.193679e+00	-8.943421e+02
7.600000e-07	-6.211501e-07	-1.335179e-08	-4.469678e+00	-8.769793e+02
7.700000e-07	-5.203428e-07	-1.307527e-08	-3.744288e+00	-8.590872e+02
7.800000e-07	-4.193723e-07	-1.278560e-08	-3.017723e+00	-8.405954e+02
7.900000e-07	-3.182976e-07	-1.247863e-08	-2.290409e+00	-8.212936e+02
8.000000e-07	-2.171006e-07	-1.215308e-08	-1.562215e+00	-8.008557e+02
8.100000e-07	-1.157644e-07	-1.180942e-08	-8.330188e-01	-7.789009e+02
8.200000e-07	-1.435257e-08	-1.144485e-08	-1.032783e-01	-7.550744e+02
8.300000e-07	8.712837e-08	-1.105574e-08	6.269591e-01	-7.291215e+02
8.400000e-07	1.886283e-07	-1.064155e-08	1.357333e+00	-7.009287e+02
8.500000e-07	2.899760e-07	-1.019692e-08	2.086612e+00	-6.705101e+02
8.600000e-07	3.912141e-07	-9.712959e-09	2.815102e+00	-6.379338e+02
8.700000e-07	4.924007e-07	-9.186224e-09	3.543221e+00	-6.031995e+02
8.800000e-07	5.934260e-07	-8.612646e-09	4.270180e+00	-5.660966e+02
8.900000e-07	6.942657e-07	-7.983673e-09	4.995804e+00	-5.260833e+02
9.000000e-07	7.949090e-07	-7.291490e-09	5.720014e+00	-4.822281e+02
9.100000e-07	8.953365e-07	-6.525189e-09	6.442671e+00	-4.332464e+02
9.200000e-07	9.954970e-07	-5.667819e-09	7.163407e+00	-3.776449e+02
9.300000e-07	1.095386e-06	-4.702533e-09	7.882192e+00	-3.139601e+02
9.400000e-07	1.194943e-06	-3.610838e-09	8.598583e+00	-2.410530e+02
9.500000e-07	1.294025e-06	-2.374737e-09	9.311557e+00	-1.584059e+02
9.600000e-07	1.392559e-06	-9.840405e-10	1.002059e+01	-6.635453e+01
9.700000e-07	1.490510e-06	5.482639e-10	1.072542e+01	3.379585e+01
9.800000e-07	1.587780e-06	2.184715e-09	1.142536e+01	1.398078e+02
9.900000e-07	1.684217e-06	3.873688e-09	1.211930e+01	2.487057e+02
1.000000e-06	1.779946e-06	5.549900e-09	1.280815e+01	3.570995e+02
1.010000e-06	1.875101e-06	7.148543e-09	1.349287e+01	4.615838e+02
1.020000e-06	1.969613e-06	8.617511e-09	1.417296e+01	5.591406e+02
1.030000e-06	2.063428e-06	9.929443e-09	1.484804e+01	6.474761e+02
1.040000e-06	2.156527e-06	1.107654e-08	1.551796e+01	7.252317e+02
1.050000e-06	2.248937e-06	1.206368e-08	1.618293e+01	7.920408e+02
1.060000e-06	2.340758e-06	1.290760e-08	1.684365e+01	8.484301e+02
1.070000e-06	2.431810e-06	1.362683e-08	1.749884e+01	8.955970e+02
1.080000e-06	2.521824e-06	1.424158e-08	1.814657e+01	9.351169e+02
1.090000e-06	2.610711e-06	1.476851e-08	1.878618e+01	9.686423e+02
1.100000e-06	2.698525e-06	1.522257e-08	1.941807e+01	9.976513e+02
1.110000e-06	2.785477e-06	1.561500e-08	2.004376e+01	1.023286e+03
1.120000e-06	2.871591e-06	1.595548e-08	2.066342e+01	1.046296e+03
1.130000e-06	2.956742e-06	1.625559e-08	2.127615e+01	1.067081e+03
1.140000e-06	3.040950e-06	1.652364e-08	2.188210e+01	1.085798e+03
1.150000e-06	3.124245e-06	1.676568e-08	2.248147e+01	1.102496e+03
1.160000e-06	3.206468e-06	1.698361e-08	2.307313e+01	1.117239e+03
1.170000e-06	3.287452e-06	1.718104e-08	2.365587e+01	1.130181e+03
1.180000e-06	3.367250e-06	1.736256e-08	2.423009e+01	1.141590e+03
1.190000e-06	3.445930e-06	1.753035e-08	2.479625e+01	1.151817e+03
1.200000e-06	3.523366e-06	1.768409e-08	2.535347e+01	1.161224e+03
1.210000e-06	3.599489e-06	1.782642e-08	2.590123e+01	1.170119e+03
1.220000e-06	3.674169e-06	1.795965e-08	2.643862e+01	1.178690e+03
1.230000e-06	3.747255e-06	1.808349e-08	2.696453e+01	1.186992e+03
1.240000e-06	3.818868e-06	1.819548e-08	2.747985e+01	1.194960e+03
1.250000e-06	3.889170e-06	1.829659e-08	2.798573e+01	1.202457e+03
1.260000e-06	3.958150e-06	1.839159e-08	2.848209e+01	1.209346e+03
1.270000e-06	4.025802e-06	1.848087e-08	2.896891e+01	1.215542e+03
1.280000e-06	4.091969e-06	1.856716e-08	2.944503e+01	1.221058e+03
1.290000e-06	4.156454e-06	1.865103e-08	2.990905e+01	1.226000e+03
1.300000e-06	4.219375e-06	1.873156e-08	3.036182e+01	1.230548e+03
1.310000e-06	4.280891e-06	1.880646e-08	3.080448e+01	1.234901e+03
1.320000e-06	4.341094e-06	1.887413e-08	3.123768e+01	1.239227e+03
1.330000e-06	4.399886e-06	1.893816e-08	3.166074e+01	1.243618e+03
1.340000e-06	4.456927e-06	1.900057e-08	3.207120e+01	1.248069e+03
1.350000e-06	4.512241e-06	1.906003e-08	3.246922e+01	1.252491e+03
1.360000e-06	4.565989e-06	1.911581e-08	3.285598e+01	1.256743e+03
1.370000e-06	4.617990e-06	1.916769e-08	3.323017e+01	1.260679e+03
1.380000e-06	4.667977e-06	1.921690e-08	3.358988e+01	1.264199e+03
1.390000e-06	4.716028e-06	1.926456e-08	3.393564e+01	1.267273e+03
1.400000e-06	4.762423e-06	1.931136e-08	3.426949e+01	1.269953e+03
1.410000e-06	4.807247e-06	1.935537e-08	3.459203e+01	1.272350e+03
1.420000e-06	4.850525e-06	1.939513e-08	3.490345e+01	1.274605e+03
1.430000e-06	4.891966e-06	1.943124e-08	3.520165e+01	1.276841e+03
1.440000e-06	4.931529e-06	1.946378e-08	3.548634e+01	1.279129e+03
1.450000e-06	4.969456e-06	1.949304e-08	3.575926e+01	1.281471e+03
1.460000e-06	5.005782e-06	1.951913e-08	3.602066e+01	1.283801e+03
1.470000e-06	5.040397e-06	1.954421e-08	3.626974e+01	1.286015e+03
1.480000e-06	5.073090e-06	1.956924e-08	3.650499e+01	1.288002e+03
1.490000e-06	5.103992e-06	1.959367e-08	3.672735e+01	1.289682e+03
1.500000e-06	5.133260e-06	1.961751e-08	3.693796e+01	1.291035e+03
1.510000e-06	5.160832e-06	1.963986e-08	3.713637e+01	1.292101e+03
1.520000e-06	5.186428e-06	1.966042e-08	3.732054e+01	1.292973e+03
1.530000e-06	5.209993e-06	1.967863e-08	3.749012e+01	1.293765e+03
1.540000e-06	5.231751e-06	1.969388e-08	3.764669e+01	1.294578e+03
1.550000e-06	5.251839e-06	1.970740e-08	3.779123e+01	1.295468e+03
1.560000e-06	5.270159e-06	1.971807e-08	3.792306e+01	1.296433e+03
1.570000e-06	5.286461e-06	1.972588e-08	3.804037e+01	1.297412e+03
1.580000e-06	5.300750e-06	1.973341e-08	3.814318e+01	1.298309e+03
1.590000e-06	5.313052e-06	1.974184e-08	3.823171e+01	1.299024e+03
1.600000e-06	5.323160e-06	1.975002e-08	3.830444e+01	1.299480e+03
1.610000e-06	5.331179e-06	1.975827e-08	3.836215e+01	1.299654e+03
1.620000e-06	5.337355e-06	1.976637e-08	3.840659e+01	1.299581e+03
1.630000e-06	5.341738e-06	1.977094e-08	3.843813e+01	1.299341e+03
1.640000e-06	5.344259e-06	1.977160e-08	3.845627e+01	1.299036e+03
1.650000e-06	5.344777e-06	1.976937e-08	3.846000e+01	1.298760e+03
1.660000e-06	5.343435e-06	1.976095e-08	3.845034e+01	1.298566e+03
1.670000e-06	5.340441e-06	1.975383e-08	3.842880e+01	1.298454e+03
1.680000e-06	5.335875e-06	1.975033e-08	3.839594e+01	1.298368e+03
1.690000e-06	5.329447e-06	1.974705e-08	3.834969e+01	1.298216e+03
1.700000e-06	5.321202e-06	1.974421e-08	3.829036e+01	1.297900e+03
1.710000e-06	5.311418e-06	1.974006e-08	3.821995e+01	1.297340e+03
1.720000e-06	5.299936e-06	1.974731e-08	3.813733e+01	1.296505e+03
1.730000e-06	5.286584e-06	1.973826e-08	3.804125e+01	1.295419e+03
1.740000e-06	5.271180e-06	1.963453e-08	3.793040e+01	1.294154e+03
1.750000e-06	5.253481e-06	1.961007e-08	3.780305e+01	1.292808e+03
1.760000e-06	5.233236e-06	1.962911e-08	3.765737e+01	1.291480e+03
1.770000e-06	5.210571e-06	1.964676e-08	3.749428e+01	1.290235e+03
1.780000e-06	5.186425e-06	1.975321e-08	3.732053e+01	1.289093e+03
1.790000e-06	5.161612e-06	1.959119e-08	3.714197e+01	1.288023e+03
1.800000e-06	5.135542e-06	1.951794e-08	3.695438e+01	1.286956e+03
1.810000e-06	5.107371e-06	1.967241e-08	3.675167e+01	1.285805e+03
1.820000e-06	5.077297e-06	1.949419e-08	3.653526e+01	1.284496e+03
1.830000e-06	5.045482e-06	1.951857e-08	3.630633e+01	1.282986e+03
1.840000e-06	5.011804e-06	1.967689e-08	3.606398e+01	1.281272e+03
1.850000e-06	4.976524e-06	1.944876e-08	3.581012e+01	1.279390e+03
1.860000e-06	4.939449e-06	1.948089e-08	3.554334e+01	1.277396e+03
1.870000e-06	4.900377e-06	1.954076e-08	3.526218e+01	1.275344e+03
1.880000e-06	4.859720e-06	1.940545e-08	3.496962e+01	1.273261e+03
1.890000e-06	4.817326e-06	1.946946e-08	3.466456e+01	1.271139e+03
1.900000e-06	4.773271e-06	1.931947e-08	3.434755e+01	1.268931e+03
1.910000e-06	4.727565e-06	1.928798e-08	3.401866e+01	1.266570e+03
1.920000e-06	4.679917e-06	1.940510e-08	3.367579e+01	1.263986e+03
1.930000e-06	4.630631e-06	1.923073e-08	3.332114e+01	1.261132e+03
1.940000e-06	4.579562e-06	1.921357e-08	3.295365e+01	1.258002e+03
1.950000e-06	4.526503e-06	1.914947e-08	3.257186e+01	1.254637e+03
1.960000e-06	4.471588e-06	1.908020e-08	3.217669e+01	1.251111e+03
1.970000e-06	4.414889e-06	1.908400e-08	3.176870e+01	1.247513e+03
1.980000e-06	4.356645e-06	1.895238e-08	3.134958e+01	1.243916e+03
1.990000e-06	4.297059e-06	1.898805e-08	3.092081e+01	1.240356e+03
2.000000e-06	4.236079e-06	1.892475e-08	3.048202e+01	1.236821e+03
2.010000e-06	4.173331e-06	1.881766e-08	3.003050e+01	1.233245e+03
2.020000e-06	4.108841e-06	1.877899e-08	2.956644e+01	1.229537e+03
2.030000e-06	4.042963e-06	1.869045e-08	2.909239e+01	1.225600e+03
2.040000e-06	3.975704e-06	1.869401e-08	2.860841e+01	1.221363e+03
2.050000e-06	3.907116e-06	1.857741e-08	2.811486e+01	1.216807e+03
2.060000e-06	3.836998e-06	1.850031e-08	2.761031e+01	1.211965e+03
2.070000e-06	3.765324e-06	1.846424e-08	2.709456e+01	1.206916e+03
2.080000e-06	3.692425e-06	1.836059e-08	2.656999e+01	1.201757e+03
2.090000e-06	3.618258e-06	1.830469e-08	2.603630e+01	1.196576e+03
2.100000e-06	3.542741e-06	1.819952e-08	2.549289e+01	1.191417e+03
2.110000e-06	3.465730e-06	1.814032e-08	2.493873e+01	1.186267e+03
2.120000e-06	3.387177e-06	1.805738e-08	2.437348e+01	1.181055e+03
2.130000e-06	3.307363e-06	1.795828e-08	2.379915e+01	1.175672e+03
2.140000e-06	3.226442e-06	1.787510e-08	2.321686e+01	1.170000e+03
2.150000e-06	3.144413e-06	1.776792e-08	2.262659e+01	1.163951e+03
2.160000e-06	3.061346e-06	1.769092e-08	2.202886e+01	1.157490e+03
2.170000e-06	2.977323e-06	1.758872e-08	2.142425e+01	1.150644e+03
2.180000e-06	2.892155e-06	1.749047e-08	2.081139e+01	1.143499e+03
2.190000e-06	2.805649e-06	1.737958e-08	2.018891e+01	1.136165e+03
2.200000e-06	2.718022e-06	1.726299e-08	1.955837e+01	1.128742e+03
2.210000e-06	2.629524e-06	1.715075e-08	1.892156e+01	1.121286e+03
2.220000e-06	2.540143e-06	1.703010e-08	1.827838e+01	1.113783e+03
2.230000e-06	2.449863e-06	1.692004e-08	1.762875e+01	1.106151e+03
2.240000e-06	2.358792e-06	1.679644e-08	1.697342e+01	1.098259e+03
2.250000e-06	2.266993e-06	1.666685e-08	1.631285e+01	1.089960e+03
2.260000e-06	2.174476e-06	1.652516e-08	1.564712e+01	1.081139e+03
2.270000e-06	2.081036e-06	1.638586e-08	1.497474e+01	1.071741e+03
2.280000e-06	1.986598e-06	1.624517e-08	1.429518e+01	1.061789e+03
2.290000e-06	1.891382e-06	1.609608e-08	1.361002e+01	1.051373e+03
2.300000e-06	1.795504e-06	1.594071e-08	1.292010e+01	1.040618e+03
2.310000e-06	1.699101e-06	1.577583e-08	1.222641e+01	1.029639e+03
2.320000e-06	1.602228e-06	1.560748e-08	1.152933e+01	1.018499e+03
2.330000e-06	1.504867e-06	1.542778e-08	1.082873e+01	1.007175e+03
2.340000e-06	1.406996e-06	1.524136e-08	1.012448e+01	9.955547e+02
2.350000e-06	1.308604e-06	1.504713e-08	9.416467e+00	9.834627e+02
2.360000e-06	1.209796e-06	1.484834e-08	8.705460e+00	9.707020e+02
2.370000e-06	1.110665e-06	1.464166e-08	7.992136e+00	9.571084e+02
2.380000e-06	1.011305e-06	1.442466e-08	7.277160e+00	9.425950e+02
2.390000e-06	9.117248e-07	1.419667e-08	6.560598e+00	9.271719e+02
2.400000e-06	8.118850e-07	1.395585e-08	5.842170e+00	9.109345e+02
2.410000e-06	7.117866e-07	1.370441e-08	5.121880e+00	8.940194e+02
2.420000e-06	6.114291e-07	1.344042e-08	4.399727e+00	8.765418e+02
2.430000e-06	5.108850e-07	1.316429e-08	3.676231e+00	8.585314e+02
2.440000e-06	4.101873e-07	1.287428e-08	2.951630e+00	8.398878e+02
2.450000e-06	3.093151e-07	1.256615e-08	2.225773e+00	8.203725e+02
2.460000e-06	2.082189e-07	1.223515e-08	1.498304e+00	7.996415e+02
2.470000e-06	1.070028e-07	1.188489e-08	7.699718e-01	7.773126e+02
2.480000e-06	5.752212e-09	1.151505e-08	4.139182e-02	7.530468e+02
2.490000e-06	-9.558331e-08	1.111952e-08	-6.877993e-01	7.266181e+02
2.500000e-06	-1.969158e-07	1.069544e-08	-1.416969e+00	6.979432e+02
2.510000e-06	-2.981727e-07	1.024134e-08	-2.145594e+00	6.670563e+02
2.520000e-06	-3.993535e-07	9.750243e-09	-2.873672e+00	6.340221e+02
2.530000e-06	-5.004273e-07	9.214836e-09	-3.600979e+00	5.988072e+02
2.540000e-06	-6.012613e-07	8.631664e-09	-4.326562e+00	5.611388e+02
2.550000e-06	-7.018113e-07	7.992288e-09	-5.050101e+00	5.203934e+02
2.560000e-06	-8.020917e-07	7.287554e-09	-5.771699e+00	4.755573e+02
2.570000e-06	-9.020251e-07	6.505616e-09	-6.490801e+00	4.252854e+02
2.580000e-06	-1.001637e-06	5.631749e-09	-7.207590e+00	3.680682e+02
2.590000e-06	-1.100995e-06	4.648292e-09	-7.922552e+00	3.024856e+02
2.600000e-06	-1.200025e-06	3.534982e-09	-8.635150e+00	2.275083e+02
2.610000e-06	-1.298634e-06	2.277504e-09	-9.344726e+00	1.427850e+02
2.620000e-06	-1.396835e-06	8.685708e-10	-1.005136e+01	4.885432e+01
2.630000e-06	-1.494499e-06	-6.798599e-10	-1.075413e+01	-5.277008e+01
2.640000e-06	-1.591616e-06	-2.331155e-09	-1.145297e+01	-1.596712e+02
2.650000e-06	-1.688306e-06	-4.029471e-09	-1.214873e+01	-2.687538e+02
2.660000e-06	-1.784462e-06	-5.708633e-09	-1.284065e+01	-3.765898e+02
2.670000e-06	-1.879966e-06	-7.306299e-09	-1.352788e+01	-4.798239e+02
2.680000e-06	-1.974715e-06	-8.769090e-09	-1.420967e+01	-5.755687e+02
2.690000e-06	-2.068649e-06	-1.006926e-08	-1.488560e+01	-6.617178e+02
2.700000e-06	-2.161765e-06	-1.120330e-08	-1.555565e+01	-7.371262e+02
2.710000e-06	-2.253968e-06	-1.217833e-08	-1.621912e+01	-8.016318e+02
2.720000e-06	-2.345314e-06	-1.301091e-08	-1.687644e+01	-8.559270e+02
2.730000e-06	-2.435875e-06	-1.372141e-08	-1.752809e+01	-9.013161e+02
2.740000e-06	-2.525568e-06	-1.432921e-08	-1.817350e+01	-9.394154e+02
2.750000e-06	-2.614431e-06	-1.485003e-08	-1.881295e+01	-9.718588e+02
2.760000e-06	-2.702496e-06	-1.529898e-08	-1.944665e+01	-1.000062e+03
2.770000e-06	-2.789701e-06	-1.568748e-08	-2.007416e+01	-1.025085e+03
2.780000e-06	-2.875888e-06	-1.602726e-08	-2.069434e+01	-1.047595e+03
2.790000e-06	-2.960871e-06	-1.632649e-08	-2.130587e+01	-1.067931e+03
2.800000e-06	-3.044737e-06	-1.659179e-08	-2.190935e+01	-1.086212e+03
2.810000e-06	-3.127638e-06	-1.683111e-08	-2.250589e+01	-1.102484e+03
2.820000e-06	-3.209483e-06	-1.704636e-08	-2.309483e+01	-1.116824e+03
2.830000e-06	-3.290231e-06	-1.724018e-08	-2.367588e+01	-1.129412e+03
2.840000e-06	-3.369875e-06	-1.741715e-08	-2.424898e+01	-1.140538e+03
2.850000e-06	-3.448217e-06	-1.758211e-08	-2.481271e+01	-1.150560e+03
2.860000e-06	-3.525074e-06	-1.773598e-08	-2.536576e+01	-1.159835e+03
2.870000e-06	-3.600521e-06	-1.787875e-08	-2.590866e+01	-1.168649e+03
2.880000e-06	-3.674642e-06	-1.800986e-08	-2.644202e+01	-1.177164e+03
2.890000e-06	-3.747413e-06	-1.812940e-08	-2.696567e+01	-1.185404e+03
2.900000e-06	-3.818898e-06	-1.823985e-08	-2.748006e+01	-1.193283e+03
2.910000e-06	-3.888957e-06	-1.834373e-08	-2.798419e+01	-1.200661e+03
2.920000e-06	-3.957463e-06	-1.844112e-08	-2.847715e+01	-1.207406e+03
2.930000e-06	-4.024520e-06	-1.853111e-08	-2.895968e+01	-1.213453e+03
2.940000e-06	-4.090211e-06	-1.861610e-08	-2.943238e+01	-1.218834e+03
