# Temperatura_=_68.44
# Concentracion g/m^3_=_41000.0
# C_Vs_to_Am_M_A/Vsm_=_65563218390.804596
# pendiente_HvsI_1/m_=_3716.3
# ordenada_HvsI_A/m_=_1297.0
# frecuencia_Hz_=_301591.5131462435

Tiempo_(s)	Campo_(V.s)	Magnetizacion_(V.s)	Campo_(kA/m)	Magnetizacion_(A/m)
0.000000e+00	-5.322881e-06	-2.120121e-08	-3.834417e+01	-1.386287e+03
1.000000e-08	-5.319924e-06	-2.119445e-08	-3.832286e+01	-1.386106e+03
2.000000e-08	-5.315278e-06	-2.118793e-08	-3.828939e+01	-1.385981e+03
3.000000e-08	-5.309065e-06	-2.118273e-08	-3.824464e+01	-1.385823e+03
4.000000e-08	-5.301278e-06	-2.117318e-08	-3.818854e+01	-1.385524e+03
5.000000e-08	-5.291599e-06	-2.115896e-08	-3.811882e+01	-1.384990e+03
6.000000e-08	-5.279829e-06	-2.113735e-08	-3.803403e+01	-1.384168e+03
7.000000e-08	-5.266176e-06	-2.111152e-08	-3.793568e+01	-1.383068e+03
8.000000e-08	-5.250394e-06	-2.114010e-08	-3.782199e+01	-1.381754e+03
9.000000e-08	-5.232330e-06	-2.116162e-08	-3.769187e+01	-1.380327e+03
1.000000e-07	-5.212293e-06	-2.110660e-08	-3.754753e+01	-1.378895e+03
1.100000e-07	-5.190445e-06	-2.106997e-08	-3.739015e+01	-1.377540e+03
1.200000e-07	-5.167025e-06	-2.098562e-08	-3.722143e+01	-1.376293e+03
1.300000e-07	-5.142219e-06	-2.090360e-08	-3.704274e+01	-1.375128e+03
1.400000e-07	-5.115748e-06	-2.103849e-08	-3.685205e+01	-1.373971e+03
1.500000e-07	-5.087556e-06	-2.098808e-08	-3.664897e+01	-1.372723e+03
1.600000e-07	-5.057949e-06	-2.088571e-08	-3.643569e+01	-1.371291e+03
1.700000e-07	-5.026746e-06	-2.099936e-08	-3.621091e+01	-1.369615e+03
1.800000e-07	-4.993468e-06	-2.085616e-08	-3.597119e+01	-1.367684e+03
1.900000e-07	-4.958337e-06	-2.074781e-08	-3.571812e+01	-1.365538e+03
2.000000e-07	-4.921727e-06	-2.083076e-08	-3.545439e+01	-1.363248e+03
2.100000e-07	-4.883414e-06	-2.072057e-08	-3.517840e+01	-1.360891e+03
2.200000e-07	-4.843317e-06	-2.066671e-08	-3.488956e+01	-1.358526e+03
2.300000e-07	-4.801253e-06	-2.070368e-08	-3.458654e+01	-1.356165e+03
2.400000e-07	-4.757237e-06	-2.064325e-08	-3.426946e+01	-1.353776e+03
2.500000e-07	-4.711537e-06	-2.062640e-08	-3.394026e+01	-1.351285e+03
2.600000e-07	-4.664001e-06	-2.055133e-08	-3.359783e+01	-1.348603e+03
2.700000e-07	-4.614428e-06	-2.047524e-08	-3.324072e+01	-1.345655e+03
2.800000e-07	-4.562823e-06	-2.045441e-08	-3.286898e+01	-1.342403e+03
2.900000e-07	-4.509359e-06	-2.041598e-08	-3.248384e+01	-1.338862e+03
3.000000e-07	-4.454328e-06	-2.036094e-08	-3.208742e+01	-1.335092e+03
3.100000e-07	-4.397680e-06	-2.028323e-08	-3.167934e+01	-1.331188e+03
3.200000e-07	-4.339199e-06	-2.022730e-08	-3.125806e+01	-1.327240e+03
3.300000e-07	-4.279079e-06	-2.016372e-08	-3.082499e+01	-1.323315e+03
3.400000e-07	-4.217553e-06	-2.009940e-08	-3.038177e+01	-1.319426e+03
3.500000e-07	-4.154647e-06	-2.005328e-08	-2.992862e+01	-1.315531e+03
3.600000e-07	-4.090324e-06	-1.998658e-08	-2.946526e+01	-1.311547e+03
3.700000e-07	-4.024478e-06	-1.991416e-08	-2.899093e+01	-1.307370e+03
3.800000e-07	-3.957016e-06	-1.982536e-08	-2.850496e+01	-1.302910e+03
3.900000e-07	-3.888110e-06	-1.974172e-08	-2.800858e+01	-1.298122e+03
4.000000e-07	-3.817978e-06	-1.968811e-08	-2.750338e+01	-1.293016e+03
4.100000e-07	-3.746688e-06	-1.961385e-08	-2.698983e+01	-1.287656e+03
4.200000e-07	-3.674162e-06	-1.953383e-08	-2.646737e+01	-1.282140e+03
4.300000e-07	-3.600051e-06	-1.945209e-08	-2.593350e+01	-1.276567e+03
4.400000e-07	-3.524277e-06	-1.937181e-08	-2.538765e+01	-1.271006e+03
4.500000e-07	-3.447144e-06	-1.928519e-08	-2.483202e+01	-1.265467e+03
4.600000e-07	-3.368680e-06	-1.918916e-08	-2.426679e+01	-1.259896e+03
4.700000e-07	-3.288782e-06	-1.909752e-08	-2.369123e+01	-1.254190e+03
4.800000e-07	-3.207594e-06	-1.899845e-08	-2.310638e+01	-1.248222e+03
4.900000e-07	-3.125325e-06	-1.890164e-08	-2.251375e+01	-1.241884e+03
5.000000e-07	-3.042071e-06	-1.879680e-08	-2.191401e+01	-1.235114e+03
5.100000e-07	-2.957981e-06	-1.868439e-08	-2.130826e+01	-1.227918e+03
5.200000e-07	-2.873023e-06	-1.857170e-08	-2.069625e+01	-1.220367e+03
5.300000e-07	-2.787118e-06	-1.846069e-08	-2.007742e+01	-1.212575e+03
5.400000e-07	-2.700312e-06	-1.835088e-08	-1.945210e+01	-1.204659e+03
5.500000e-07	-2.612594e-06	-1.823319e-08	-1.882021e+01	-1.196699e+03
5.600000e-07	-2.523935e-06	-1.810660e-08	-1.818154e+01	-1.188711e+03
5.700000e-07	-2.434134e-06	-1.797009e-08	-1.753465e+01	-1.180631e+03
5.800000e-07	-2.343210e-06	-1.782990e-08	-1.687966e+01	-1.172333e+03
5.900000e-07	-2.251437e-06	-1.768753e-08	-1.621856e+01	-1.163659e+03
6.000000e-07	-2.158912e-06	-1.754473e-08	-1.555205e+01	-1.154467e+03
6.100000e-07	-2.065640e-06	-1.739929e-08	-1.488015e+01	-1.144669e+03
6.200000e-07	-1.971626e-06	-1.724585e-08	-1.420290e+01	-1.134259e+03
6.300000e-07	-1.876932e-06	-1.708441e-08	-1.352076e+01	-1.123312e+03
6.400000e-07	-1.781612e-06	-1.691658e-08	-1.283411e+01	-1.111956e+03
6.500000e-07	-1.685695e-06	-1.674355e-08	-1.214315e+01	-1.100327e+03
6.600000e-07	-1.589179e-06	-1.656382e-08	-1.144789e+01	-1.088520e+03
6.700000e-07	-1.491987e-06	-1.637682e-08	-1.074775e+01	-1.076548e+03
6.800000e-07	-1.394102e-06	-1.618107e-08	-1.004262e+01	-1.064325e+03
6.900000e-07	-1.295564e-06	-1.597812e-08	-9.332785e+00	-1.051682e+03
7.000000e-07	-1.196520e-06	-1.576595e-08	-8.619313e+00	-1.038405e+03
7.100000e-07	-1.097107e-06	-1.554658e-08	-7.903172e+00	-1.024294e+03
7.200000e-07	-9.974044e-07	-1.532134e-08	-7.184951e+00	-1.009217e+03
7.300000e-07	-8.974750e-07	-1.508805e-08	-6.465095e+00	-9.931424e+02
7.400000e-07	-7.973641e-07	-1.484234e-08	-5.743931e+00	-9.761400e+02
7.500000e-07	-6.970582e-07	-1.458043e-08	-5.021363e+00	-9.583475e+02
7.600000e-07	-5.965064e-07	-1.430179e-08	-4.297023e+00	-9.399069e+02
7.700000e-07	-4.957216e-07	-1.400815e-08	-3.571004e+00	-9.208932e+02
7.800000e-07	-3.947934e-07	-1.370147e-08	-2.843953e+00	-9.012555e+02
7.900000e-07	-2.937631e-07	-1.337731e-08	-2.116166e+00	-8.807910e+02
8.000000e-07	-1.926155e-07	-1.303639e-08	-1.387535e+00	-8.591636e+02
8.100000e-07	-9.136524e-08	-1.267525e-08	-6.581631e-01	-8.359630e+02
8.200000e-07	9.981971e-09	-1.228899e-08	7.190661e-02	-8.107898e+02
8.300000e-07	1.114007e-07	-1.187731e-08	8.024914e-01	-7.833382e+02
8.400000e-07	2.127497e-07	-1.143673e-08	1.532574e+00	-7.534485e+02
8.500000e-07	3.139877e-07	-1.096001e-08	2.261857e+00	-7.211026e+02
8.600000e-07	4.151779e-07	-1.044083e-08	2.990796e+00	-6.863561e+02
8.700000e-07	5.161984e-07	-9.878150e-09	3.718512e+00	-6.492145e+02
8.800000e-07	6.170057e-07	-9.266108e-09	4.444693e+00	-6.094822e+02
8.900000e-07	7.176262e-07	-8.596192e-09	5.169527e+00	-5.666277e+02
9.000000e-07	8.180366e-07	-7.859295e-09	5.892849e+00	-5.197087e+02
9.100000e-07	9.182210e-07	-7.041929e-09	6.614542e+00	-4.673957e+02
9.200000e-07	1.018208e-06	-6.127073e-09	7.334811e+00	-4.081106e+02
9.300000e-07	1.117950e-06	-5.095555e-09	8.053316e+00	-3.402700e+02
9.400000e-07	1.217309e-06	-3.927568e-09	8.769066e+00	-2.625973e+02
9.500000e-07	1.316153e-06	-2.603817e-09	9.481104e+00	-1.744448e+02
9.600000e-07	1.414398e-06	-1.116825e-09	1.018883e+01	-7.605772e+01
9.700000e-07	1.512029e-06	5.214336e-10	1.089212e+01	3.128118e+01
9.800000e-07	1.608929e-06	2.277068e-09	1.159016e+01	1.452677e+02
9.900000e-07	1.705109e-06	4.095622e-09	1.228301e+01	2.627633e+02
1.000000e-06	1.800643e-06	5.909805e-09	1.297120e+01	3.801282e+02
1.010000e-06	1.895504e-06	7.649181e-09	1.365455e+01	4.936457e+02
1.020000e-06	1.989761e-06	9.255557e-09	1.433354e+01	5.999624e+02
1.030000e-06	2.083363e-06	1.069494e-08	1.500782e+01	6.964666e+02
1.040000e-06	2.176214e-06	1.195219e-08	1.567668e+01	7.815394e+02
1.050000e-06	2.268389e-06	1.303104e-08	1.634068e+01	8.546408e+02
1.060000e-06	2.359934e-06	1.394890e-08	1.700014e+01	9.162259e+02
1.070000e-06	2.450674e-06	1.472646e-08	1.765379e+01	9.675204e+02
1.080000e-06	2.540315e-06	1.538583e-08	1.829954e+01	1.010211e+03
1.090000e-06	2.628816e-06	1.594788e-08	1.893707e+01	1.046114e+03
1.100000e-06	2.716373e-06	1.643019e-08	1.956779e+01	1.076897e+03
1.110000e-06	2.803106e-06	1.684553e-08	2.019259e+01	1.103880e+03
1.120000e-06	2.888944e-06	1.720546e-08	2.081094e+01	1.127961e+03
1.130000e-06	2.973768e-06	1.752199e-08	2.142198e+01	1.149644e+03
1.140000e-06	3.057677e-06	1.780316e-08	2.202643e+01	1.169147e+03
1.150000e-06	3.140656e-06	1.805366e-08	2.262419e+01	1.186545e+03
1.160000e-06	3.222455e-06	1.827717e-08	2.321344e+01	1.201906e+03
1.170000e-06	3.303068e-06	1.848102e-08	2.379414e+01	1.215380e+03
1.180000e-06	3.382514e-06	1.866967e-08	2.436644e+01	1.227235e+03
1.190000e-06	3.460772e-06	1.884262e-08	2.493018e+01	1.237831e+03
1.200000e-06	3.537807e-06	1.900082e-08	2.548512e+01	1.247552e+03
1.210000e-06	3.613566e-06	1.914897e-08	2.603086e+01	1.256729e+03
1.220000e-06	3.687878e-06	1.928907e-08	2.656618e+01	1.265574e+03
1.230000e-06	3.760532e-06	1.941833e-08	2.708956e+01	1.274156e+03
1.240000e-06	3.831748e-06	1.953535e-08	2.760257e+01	1.282414e+03
1.250000e-06	3.901633e-06	1.964164e-08	2.810600e+01	1.290204e+03
1.260000e-06	3.970152e-06	1.974123e-08	2.859958e+01	1.297373e+03
1.270000e-06	4.037423e-06	1.983417e-08	2.908418e+01	1.303820e+03
1.280000e-06	4.103144e-06	1.992208e-08	2.955761e+01	1.309543e+03
1.290000e-06	4.167171e-06	2.000661e-08	3.001884e+01	1.314646e+03
1.300000e-06	4.229756e-06	2.008758e-08	3.046968e+01	1.319316e+03
1.310000e-06	4.290917e-06	2.016353e-08	3.091026e+01	1.323769e+03
1.320000e-06	4.350782e-06	2.023445e-08	3.134151e+01	1.328191e+03
1.330000e-06	4.409135e-06	2.030261e-08	3.176186e+01	1.332690e+03
1.340000e-06	4.465642e-06	2.036734e-08	3.216892e+01	1.337275e+03
1.350000e-06	4.520497e-06	2.042802e-08	3.256408e+01	1.341857e+03
1.360000e-06	4.573788e-06	2.048637e-08	3.294796e+01	1.346287e+03
1.370000e-06	4.625248e-06	2.054236e-08	3.331867e+01	1.350407e+03
1.380000e-06	4.674651e-06	2.059551e-08	3.367455e+01	1.354100e+03
1.390000e-06	4.722190e-06	2.064612e-08	3.401700e+01	1.357325e+03
1.400000e-06	4.768117e-06	2.069444e-08	3.434784e+01	1.360126e+03
1.410000e-06	4.812515e-06	2.073956e-08	3.466767e+01	1.362620e+03
1.420000e-06	4.855299e-06	2.078104e-08	3.497587e+01	1.364955e+03
1.430000e-06	4.896194e-06	2.081977e-08	3.527047e+01	1.367267e+03
1.440000e-06	4.935276e-06	2.085383e-08	3.555200e+01	1.369639e+03
1.450000e-06	4.972748e-06	2.088433e-08	3.582193e+01	1.372077e+03
1.460000e-06	5.008694e-06	2.091289e-08	3.608087e+01	1.374517e+03
1.470000e-06	5.042908e-06	2.093958e-08	3.632734e+01	1.376846e+03
1.480000e-06	5.075146e-06	2.096541e-08	3.655957e+01	1.378942e+03
1.490000e-06	5.105621e-06	2.098935e-08	3.677910e+01	1.380715e+03
1.500000e-06	5.134488e-06	2.101340e-08	3.698705e+01	1.382133e+03
1.510000e-06	5.161598e-06	2.103749e-08	3.718234e+01	1.383239e+03
1.520000e-06	5.186644e-06	2.106059e-08	3.736277e+01	1.384130e+03
1.530000e-06	5.209664e-06	2.108051e-08	3.752859e+01	1.384931e+03
1.540000e-06	5.230951e-06	2.109501e-08	3.768193e+01	1.385756e+03
1.550000e-06	5.250596e-06	2.110713e-08	3.782345e+01	1.386674e+03
1.560000e-06	5.268368e-06	2.111766e-08	3.795147e+01	1.387686e+03
1.570000e-06	5.284097e-06	2.112706e-08	3.806478e+01	1.388732e+03
1.580000e-06	5.297913e-06	2.113637e-08	3.816430e+01	1.389705e+03
1.590000e-06	5.309723e-06	2.114602e-08	3.824938e+01	1.390492e+03
1.600000e-06	5.319342e-06	2.115639e-08	3.831867e+01	1.391003e+03
1.610000e-06	5.326917e-06	2.116594e-08	3.837324e+01	1.391204e+03
1.620000e-06	5.332664e-06	2.117398e-08	3.841464e+01	1.391123e+03
1.630000e-06	5.336675e-06	2.117897e-08	3.844354e+01	1.390845e+03
1.640000e-06	5.338824e-06	2.118006e-08	3.845901e+01	1.390482e+03
1.650000e-06	5.338961e-06	2.117480e-08	3.846000e+01	1.390138e+03
1.660000e-06	5.337254e-06	2.116316e-08	3.844771e+01	1.389880e+03
1.670000e-06	5.333951e-06	2.115786e-08	3.842391e+01	1.389715e+03
1.680000e-06	5.328995e-06	2.115477e-08	3.838821e+01	1.389591e+03
1.690000e-06	5.322166e-06	2.115281e-08	3.833902e+01	1.389412e+03
1.700000e-06	5.313570e-06	2.115209e-08	3.827710e+01	1.389068e+03
1.710000e-06	5.303390e-06	2.115047e-08	3.820376e+01	1.388474e+03
1.720000e-06	5.291522e-06	2.115935e-08	3.811827e+01	1.387590e+03
1.730000e-06	5.277741e-06	2.110543e-08	3.801900e+01	1.386436e+03
1.740000e-06	5.261866e-06	2.102599e-08	3.790463e+01	1.385088e+03
1.750000e-06	5.243650e-06	2.103390e-08	3.777342e+01	1.383651e+03
1.760000e-06	5.222824e-06	2.103367e-08	3.762339e+01	1.382229e+03
1.770000e-06	5.199750e-06	2.111029e-08	3.745717e+01	1.380895e+03
1.780000e-06	5.175468e-06	2.112472e-08	3.728226e+01	1.379669e+03
1.790000e-06	5.150405e-06	2.092961e-08	3.710171e+01	1.378513e+03
1.800000e-06	5.123790e-06	2.099531e-08	3.690998e+01	1.377345e+03
1.810000e-06	5.095183e-06	2.099972e-08	3.670391e+01	1.376063e+03
1.820000e-06	5.064887e-06	2.083180e-08	3.648567e+01	1.374582e+03
1.830000e-06	5.032742e-06	2.098194e-08	3.625410e+01	1.372849e+03
1.840000e-06	4.998694e-06	2.095436e-08	3.600884e+01	1.370867e+03
1.850000e-06	4.963093e-06	2.080139e-08	3.575238e+01	1.368683e+03
1.860000e-06	4.925634e-06	2.091307e-08	3.548254e+01	1.366372e+03
1.870000e-06	4.886246e-06	2.082600e-08	3.519880e+01	1.364009e+03
1.880000e-06	4.845248e-06	2.075142e-08	3.490347e+01	1.361644e+03
1.890000e-06	4.802462e-06	2.075461e-08	3.459525e+01	1.359282e+03
1.900000e-06	4.757976e-06	2.062826e-08	3.427479e+01	1.356877e+03
1.910000e-06	4.711760e-06	2.070819e-08	3.394187e+01	1.354351e+03
1.920000e-06	4.663756e-06	2.066341e-08	3.359606e+01	1.351617e+03
1.930000e-06	4.614126e-06	2.052958e-08	3.323854e+01	1.348605e+03
1.940000e-06	4.562623e-06	2.051811e-08	3.286754e+01	1.345288e+03
1.950000e-06	4.509141e-06	2.043607e-08	3.248227e+01	1.341690e+03
1.960000e-06	4.453825e-06	2.042590e-08	3.208379e+01	1.337883e+03
1.970000e-06	4.396787e-06	2.034840e-08	3.167291e+01	1.333961e+03
1.980000e-06	4.338222e-06	2.028361e-08	3.125103e+01	1.330014e+03
1.990000e-06	4.278243e-06	2.028695e-08	3.081896e+01	1.326096e+03
2.000000e-06	4.216772e-06	2.016276e-08	3.037614e+01	1.322210e+03
2.010000e-06	4.153640e-06	2.011110e-08	2.992136e+01	1.318304e+03
2.020000e-06	4.088901e-06	2.005345e-08	2.945501e+01	1.314287e+03
2.030000e-06	4.022722e-06	2.000209e-08	2.897828e+01	1.310055e+03
2.040000e-06	3.955164e-06	1.994841e-08	2.849161e+01	1.305526e+03
2.050000e-06	3.886239e-06	1.982251e-08	2.799510e+01	1.300666e+03
2.060000e-06	3.815810e-06	1.977621e-08	2.748776e+01	1.295498e+03
2.070000e-06	3.743944e-06	1.969809e-08	2.697006e+01	1.290095e+03
2.080000e-06	3.670796e-06	1.961197e-08	2.644313e+01	1.284558e+03
2.090000e-06	3.596354e-06	1.952983e-08	2.590687e+01	1.278984e+03
2.100000e-06	3.520534e-06	1.944053e-08	2.536069e+01	1.273428e+03
2.110000e-06	3.443256e-06	1.937520e-08	2.480401e+01	1.267888e+03
2.120000e-06	3.364560e-06	1.927163e-08	2.423711e+01	1.262297e+03
2.130000e-06	3.284558e-06	1.918051e-08	2.366080e+01	1.256545e+03
2.140000e-06	3.203447e-06	1.908179e-08	2.307651e+01	1.250505e+03
2.150000e-06	3.121301e-06	1.898740e-08	2.248476e+01	1.244077e+03
2.160000e-06	3.038083e-06	1.889291e-08	2.188528e+01	1.237212e+03
2.170000e-06	2.953793e-06	1.878095e-08	2.127809e+01	1.229931e+03
2.180000e-06	2.868405e-06	1.867379e-08	2.066298e+01	1.222318e+03
2.190000e-06	2.781855e-06	1.855396e-08	2.003951e+01	1.214489e+03
2.200000e-06	2.694167e-06	1.843488e-08	1.940784e+01	1.206558e+03
2.210000e-06	2.605550e-06	1.831376e-08	1.876947e+01	1.198593e+03
2.220000e-06	2.516027e-06	1.819920e-08	1.812457e+01	1.190592e+03
2.230000e-06	2.425634e-06	1.807827e-08	1.747342e+01	1.182477e+03
2.240000e-06	2.334512e-06	1.794365e-08	1.681701e+01	1.174112e+03
2.250000e-06	2.242598e-06	1.780116e-08	1.615489e+01	1.165337e+03
2.260000e-06	2.149903e-06	1.765321e-08	1.548715e+01	1.156019e+03
2.270000e-06	2.056438e-06	1.750693e-08	1.481386e+01	1.146087e+03
2.280000e-06	1.962150e-06	1.735518e-08	1.413464e+01	1.135552e+03
2.290000e-06	1.866970e-06	1.719659e-08	1.344900e+01	1.124505e+03
2.300000e-06	1.771005e-06	1.703073e-08	1.275770e+01	1.113079e+03
2.310000e-06	1.674546e-06	1.685793e-08	1.206284e+01	1.101405e+03
2.320000e-06	1.577651e-06	1.667616e-08	1.136485e+01	1.089565e+03
2.330000e-06	1.480256e-06	1.648664e-08	1.066324e+01	1.077549e+03
2.340000e-06	1.382332e-06	1.629374e-08	9.957835e+00	1.065252e+03
2.350000e-06	1.283972e-06	1.609462e-08	9.249286e+00	1.052491e+03
2.360000e-06	1.185289e-06	1.588516e-08	8.538405e+00	1.039050e+03
2.370000e-06	1.086284e-06	1.566292e-08	7.825212e+00	1.024739e+03
2.380000e-06	9.869477e-07	1.542916e-08	7.109625e+00	1.009447e+03
2.390000e-06	8.873097e-07	1.518534e-08	6.391868e+00	9.931633e+02
2.400000e-06	7.873905e-07	1.493181e-08	5.672085e+00	9.759782e+02
2.410000e-06	6.871935e-07	1.466807e-08	4.950301e+00	9.580354e+02
2.420000e-06	5.867447e-07	1.439203e-08	4.226703e+00	9.394686e+02
2.430000e-06	4.860900e-07	1.410119e-08	3.501622e+00	9.203298e+02
2.440000e-06	3.853088e-07	1.379296e-08	2.775630e+00	9.005364e+02
2.450000e-06	2.844249e-07	1.346466e-08	2.048897e+00	8.798541e+02
2.460000e-06	1.834472e-07	1.311595e-08	1.321489e+00	8.579245e+02
2.470000e-06	8.236662e-08	1.274744e-08	5.933403e-01	8.343321e+02
2.480000e-06	-1.879846e-08	1.235412e-08	-1.354175e-01	8.086912e+02
2.490000e-06	-1.199785e-07	1.193324e-08	-8.642827e-01	7.807247e+02
2.500000e-06	-2.211229e-07	1.148324e-08	-1.592891e+00	7.503054e+02
2.510000e-06	-3.221860e-07	1.099945e-08	-2.320915e+00	7.174393e+02
2.520000e-06	-4.231303e-07	1.047555e-08	-3.048082e+00	6.821829e+02
2.530000e-06	-5.239281e-07	9.904562e-09	-3.774194e+00	6.445116e+02
2.540000e-06	-6.245524e-07	9.281750e-09	-4.499056e+00	6.041679e+02
2.550000e-06	-7.249557e-07	8.599826e-09	-5.222326e+00	5.605353e+02
2.560000e-06	-8.250921e-07	7.849130e-09	-5.943674e+00	5.125831e+02
2.570000e-06	-9.249205e-07	7.015247e-09	-6.662803e+00	4.589128e+02
2.580000e-06	-1.024470e-06	6.080431e-09	-7.379920e+00	3.979216e+02
2.590000e-06	-1.123713e-06	5.027854e-09	-8.094833e+00	3.280641e+02
2.600000e-06	-1.222557e-06	3.838125e-09	-8.806872e+00	2.481726e+02
2.610000e-06	-1.321034e-06	2.494224e-09	-9.516266e+00	1.577715e+02
2.620000e-06	-1.419047e-06	9.894498e-10	-1.022232e+01	5.732131e+01
2.630000e-06	-1.516448e-06	-6.646529e-10	-1.092396e+01	-5.166911e+01
2.640000e-06	-1.613367e-06	-2.434065e-09	-1.162213e+01	-1.666954e+02
2.650000e-06	-1.709863e-06	-4.263727e-09	-1.231725e+01	-2.844795e+02
2.660000e-06	-1.805827e-06	-6.082793e-09	-1.300854e+01	-4.013277e+02
2.670000e-06	-1.901119e-06	-7.820154e-09	-1.369499e+01	-5.135649e+02
2.680000e-06	-1.995584e-06	-9.417993e-09	-1.437549e+01	-6.179685e+02
2.690000e-06	-2.089129e-06	-1.084317e-08	-1.504935e+01	-7.121233e+02
2.700000e-06	-2.181790e-06	-1.208601e-08	-1.571685e+01	-7.946407e+02
2.710000e-06	-2.273666e-06	-1.315201e-08	-1.637869e+01	-8.652062e+02
2.720000e-06	-2.364791e-06	-1.405718e-08	-1.703512e+01	-9.244629e+02
2.730000e-06	-2.455084e-06	-1.482610e-08	-1.768556e+01	-9.737630e+02
2.740000e-06	-2.544453e-06	-1.548237e-08	-1.832935e+01	-1.014848e+03
2.750000e-06	-2.632974e-06	-1.604170e-08	-1.896702e+01	-1.049525e+03
2.760000e-06	-2.720759e-06	-1.651853e-08	-1.959939e+01	-1.079397e+03
2.770000e-06	-2.807674e-06	-1.692722e-08	-2.022550e+01	-1.105697e+03
2.780000e-06	-2.893404e-06	-1.728243e-08	-2.084306e+01	-1.129234e+03
2.790000e-06	-2.977941e-06	-1.759366e-08	-2.145204e+01	-1.150439e+03
2.800000e-06	-3.061486e-06	-1.786970e-08	-2.205387e+01	-1.169488e+03
2.810000e-06	-3.144100e-06	-1.811715e-08	-2.264899e+01	-1.186443e+03
2.820000e-06	-3.225665e-06	-1.834098e-08	-2.323656e+01	-1.201383e+03
2.830000e-06	-3.306092e-06	-1.854575e-08	-2.381593e+01	-1.214484e+03
2.840000e-06	-3.385352e-06	-1.873227e-08	-2.438689e+01	-1.226038e+03
2.850000e-06	-3.463209e-06	-1.890353e-08	-2.494775e+01	-1.236416e+03
2.860000e-06	-3.539621e-06	-1.906181e-08	-2.549819e+01	-1.245996e+03
2.870000e-06	-3.614656e-06	-1.920706e-08	-2.603871e+01	-1.255089e+03
2.880000e-06	-3.688287e-06	-1.933981e-08	-2.656913e+01	-1.263878e+03
2.890000e-06	-3.760713e-06	-1.946264e-08	-2.709086e+01	-1.272400e+03
2.900000e-06	-3.831900e-06	-1.957868e-08	-2.760366e+01	-1.280572e+03
2.910000e-06	-3.901513e-06	-1.968741e-08	-2.810513e+01	-1.288242e+03
2.920000e-06	-3.969606e-06	-1.978791e-08	-2.859565e+01	-1.295262e+03
2.930000e-06	-4.036309e-06	-1.988152e-08	-2.907615e+01	-1.301551e+03
2.940000e-06	-4.101608e-06	-1.996985e-08	-2.954654e+01	-1.307129e+03
