# Temperatura_=_72.99
# Concentracion g/m^3_=_41000.0
# C_Vs_to_Am_M_A/Vsm_=_65563218390.804596
# pendiente_HvsI_1/m_=_3716.3
# ordenada_HvsI_A/m_=_1297.0
# frecuencia_Hz_=_301586.7215403344

Tiempo_(s)	Campo_(V.s)	Magnetizacion_(V.s)	Campo_(kA/m)	Magnetizacion_(A/m)
0.000000e+00	-5.327792e-06	-2.123939e-08	-3.834678e+01	-1.389102e+03
1.000000e-08	-5.325168e-06	-2.123564e-08	-3.832789e+01	-1.388934e+03
2.000000e-08	-5.320761e-06	-2.122802e-08	-3.829617e+01	-1.388828e+03
3.000000e-08	-5.314771e-06	-2.122302e-08	-3.825306e+01	-1.388697e+03
4.000000e-08	-5.307262e-06	-2.121579e-08	-3.819902e+01	-1.388430e+03
5.000000e-08	-5.297913e-06	-2.120159e-08	-3.813173e+01	-1.387924e+03
6.000000e-08	-5.286480e-06	-2.118029e-08	-3.804944e+01	-1.387120e+03
7.000000e-08	-5.273205e-06	-2.114207e-08	-3.795389e+01	-1.386016e+03
8.000000e-08	-5.257850e-06	-2.115797e-08	-3.784337e+01	-1.384672e+03
9.000000e-08	-5.240150e-06	-2.121952e-08	-3.771598e+01	-1.383194e+03
1.000000e-07	-5.220416e-06	-2.116891e-08	-3.757394e+01	-1.381696e+03
1.100000e-07	-5.198834e-06	-2.111343e-08	-3.741861e+01	-1.380277e+03
1.200000e-07	-5.175611e-06	-2.106807e-08	-3.725146e+01	-1.378986e+03
1.300000e-07	-5.151078e-06	-2.090684e-08	-3.707488e+01	-1.377812e+03
1.400000e-07	-5.124955e-06	-2.103841e-08	-3.688686e+01	-1.376691e+03
1.500000e-07	-5.096991e-06	-2.110436e-08	-3.668559e+01	-1.375528e+03
1.600000e-07	-5.067570e-06	-2.087217e-08	-3.647383e+01	-1.374223e+03
1.700000e-07	-5.036757e-06	-2.101956e-08	-3.625206e+01	-1.372701e+03
1.800000e-07	-5.003812e-06	-2.098385e-08	-3.601493e+01	-1.370932e+03
1.900000e-07	-4.968860e-06	-2.074794e-08	-3.576337e+01	-1.368934e+03
2.000000e-07	-4.932487e-06	-2.090457e-08	-3.550157e+01	-1.366762e+03
2.100000e-07	-4.894373e-06	-2.084668e-08	-3.522725e+01	-1.364481e+03
2.200000e-07	-4.854516e-06	-2.070289e-08	-3.494038e+01	-1.362144e+03
2.300000e-07	-4.812811e-06	-2.074690e-08	-3.464020e+01	-1.359769e+03
2.400000e-07	-4.769099e-06	-2.065811e-08	-3.432559e+01	-1.357333e+03
2.500000e-07	-4.723632e-06	-2.066741e-08	-3.399834e+01	-1.354773e+03
2.600000e-07	-4.676424e-06	-2.064546e-08	-3.365856e+01	-1.352016e+03
2.700000e-07	-4.627249e-06	-2.051676e-08	-3.330462e+01	-1.348996e+03
2.800000e-07	-4.575905e-06	-2.048437e-08	-3.293507e+01	-1.345683e+03
2.900000e-07	-4.522650e-06	-2.044519e-08	-3.255177e+01	-1.342094e+03
3.000000e-07	-4.467863e-06	-2.041003e-08	-3.215744e+01	-1.338291e+03
3.100000e-07	-4.411484e-06	-2.035997e-08	-3.175165e+01	-1.334364e+03
3.200000e-07	-4.353256e-06	-2.029060e-08	-3.133256e+01	-1.330403e+03
3.300000e-07	-4.293437e-06	-2.022574e-08	-3.090201e+01	-1.326469e+03
3.400000e-07	-4.232201e-06	-2.014045e-08	-3.046127e+01	-1.322574e+03
3.500000e-07	-4.169534e-06	-2.008844e-08	-3.001022e+01	-1.318674e+03
3.600000e-07	-4.105528e-06	-2.002451e-08	-2.954953e+01	-1.314683e+03
3.700000e-07	-4.039891e-06	-1.997608e-08	-2.907711e+01	-1.310495e+03
3.800000e-07	-3.972580e-06	-1.990758e-08	-2.859264e+01	-1.306018e+03
3.900000e-07	-3.903868e-06	-1.978948e-08	-2.809809e+01	-1.301204e+03
4.000000e-07	-3.833906e-06	-1.973391e-08	-2.759454e+01	-1.296062e+03
4.100000e-07	-3.762720e-06	-1.966439e-08	-2.708218e+01	-1.290657e+03
4.200000e-07	-3.690295e-06	-1.958288e-08	-2.656090e+01	-1.285090e+03
4.300000e-07	-3.616345e-06	-1.950019e-08	-2.602864e+01	-1.279465e+03
4.400000e-07	-3.540718e-06	-1.941720e-08	-2.548432e+01	-1.273854e+03
4.500000e-07	-3.463724e-06	-1.933073e-08	-2.493015e+01	-1.268274e+03
4.600000e-07	-3.385417e-06	-1.923304e-08	-2.436653e+01	-1.262677e+03
4.700000e-07	-3.305701e-06	-1.914692e-08	-2.379278e+01	-1.256961e+03
4.800000e-07	-3.224709e-06	-1.904741e-08	-2.320984e+01	-1.251001e+03
4.900000e-07	-3.142624e-06	-1.894710e-08	-2.261903e+01	-1.244684e+03
5.000000e-07	-3.059468e-06	-1.884460e-08	-2.202052e+01	-1.237945e+03
5.100000e-07	-2.975432e-06	-1.873637e-08	-2.141567e+01	-1.230783e+03
5.200000e-07	-2.890570e-06	-1.862148e-08	-2.080488e+01	-1.223268e+03
5.300000e-07	-2.804769e-06	-1.850672e-08	-2.018733e+01	-1.215508e+03
5.400000e-07	-2.718038e-06	-1.839435e-08	-1.956308e+01	-1.207621e+03
5.500000e-07	-2.630406e-06	-1.827976e-08	-1.893235e+01	-1.199688e+03
5.600000e-07	-2.541856e-06	-1.815716e-08	-1.829501e+01	-1.191725e+03
5.700000e-07	-2.452135e-06	-1.802730e-08	-1.764924e+01	-1.183672e+03
5.800000e-07	-2.361252e-06	-1.789010e-08	-1.699511e+01	-1.175400e+03
5.900000e-07	-2.269544e-06	-1.774528e-08	-1.633504e+01	-1.166752e+03
6.000000e-07	-2.177139e-06	-1.759661e-08	-1.566996e+01	-1.157581e+03
6.100000e-07	-2.083900e-06	-1.744593e-08	-1.499887e+01	-1.147800e+03
6.200000e-07	-1.989873e-06	-1.729390e-08	-1.432211e+01	-1.137401e+03
6.300000e-07	-1.895279e-06	-1.713410e-08	-1.364127e+01	-1.126459e+03
6.400000e-07	-1.800111e-06	-1.696934e-08	-1.295630e+01	-1.115107e+03
6.500000e-07	-1.704339e-06	-1.679627e-08	-1.226698e+01	-1.103489e+03
6.600000e-07	-1.607955e-06	-1.661638e-08	-1.157326e+01	-1.091705e+03
6.700000e-07	-1.510894e-06	-1.643118e-08	-1.087466e+01	-1.079775e+03
6.800000e-07	-1.413093e-06	-1.623815e-08	-1.017074e+01	-1.067615e+03
6.900000e-07	-1.314608e-06	-1.603591e-08	-9.461891e+00	-1.055054e+03
7.000000e-07	-1.215595e-06	-1.582388e-08	-8.749244e+00	-1.041872e+03
7.100000e-07	-1.116186e-06	-1.560550e-08	-8.033751e+00	-1.027863e+03
7.200000e-07	-1.016506e-06	-1.537717e-08	-7.316299e+00	-1.012884e+03
7.300000e-07	-9.166065e-07	-1.514248e-08	-6.597275e+00	-9.968990e+02
7.400000e-07	-8.164532e-07	-1.489954e-08	-5.876422e+00	-9.799774e+02
7.500000e-07	-7.160502e-07	-1.464449e-08	-5.153771e+00	-9.622612e+02
7.600000e-07	-6.154221e-07	-1.437128e-08	-4.429500e+00	-9.439013e+02
7.700000e-07	-5.146142e-07	-1.408041e-08	-3.703936e+00	-9.249835e+02
7.800000e-07	-4.136849e-07	-1.377464e-08	-2.977497e+00	-9.054660e+02
7.900000e-07	-3.125710e-07	-1.344901e-08	-2.249730e+00	-8.851502e+02
8.000000e-07	-2.113121e-07	-1.310744e-08	-1.520919e+00	-8.636967e+02
8.100000e-07	-1.099667e-07	-1.274680e-08	-7.914851e-01	-8.406851e+02
8.200000e-07	-8.513496e-09	-1.236316e-08	-6.127588e-02	-8.157013e+02
8.300000e-07	9.294266e-08	-1.195365e-08	6.689548e-01	-7.884259e+02
8.400000e-07	1.943713e-07	-1.151489e-08	1.398987e+00	-7.586909e+02
8.500000e-07	2.957367e-07	-1.104034e-08	2.128565e+00	-7.264811e+02
8.600000e-07	3.969831e-07	-1.052407e-08	2.857286e+00	-6.918681e+02
8.700000e-07	4.981136e-07	-9.965344e-09	3.585173e+00	-6.548844e+02
8.800000e-07	5.990585e-07	-9.357581e-09	4.311724e+00	-6.153670e+02
8.900000e-07	6.998187e-07	-8.691672e-09	5.036945e+00	-5.728132e+02
9.000000e-07	8.003877e-07	-7.958255e-09	5.760790e+00	-5.262956e+02
9.100000e-07	9.007042e-07	-7.145533e-09	6.482818e+00	-4.744764e+02
9.200000e-07	1.000733e-06	-6.236221e-09	7.202777e+00	-4.157399e+02
9.300000e-07	1.100507e-06	-5.211947e-09	7.920902e+00	-3.484371e+02
9.400000e-07	1.199961e-06	-4.051417e-09	8.636715e+00	-2.712047e+02
9.500000e-07	1.299040e-06	-2.733876e-09	9.349840e+00	-1.833001e+02
9.600000e-07	1.397639e-06	-1.249535e-09	1.005951e+01	-8.488268e+01
9.700000e-07	1.495585e-06	3.924294e-10	1.076448e+01	2.282478e+01
9.800000e-07	1.592735e-06	2.158986e-09	1.146371e+01	1.375380e+02
9.900000e-07	1.689049e-06	3.997135e-09	1.215693e+01	2.560913e+02
1.000000e-06	1.784704e-06	5.834433e-09	1.284540e+01	3.747721e+02
1.010000e-06	1.879769e-06	7.597853e-09	1.352964e+01	4.897549e+02
1.020000e-06	1.974226e-06	9.227735e-09	1.420949e+01	5.975590e+02
1.030000e-06	2.068048e-06	1.068678e-08	1.488478e+01	6.954466e+02
1.040000e-06	2.161121e-06	1.196084e-08	1.555467e+01	7.816947e+02
1.050000e-06	2.253448e-06	1.305168e-08	1.621919e+01	8.556959e+02
1.060000e-06	2.345167e-06	1.397673e-08	1.687934e+01	9.178827e+02
1.070000e-06	2.436226e-06	1.475904e-08	1.753473e+01	9.695018e+02
1.080000e-06	2.526222e-06	1.541970e-08	1.818248e+01	1.012295e+03
1.090000e-06	2.614963e-06	1.598137e-08	1.882120e+01	1.048155e+03
1.100000e-06	2.702672e-06	1.646161e-08	1.945248e+01	1.078825e+03
1.110000e-06	2.789551e-06	1.687543e-08	2.007779e+01	1.105690e+03
1.120000e-06	2.875573e-06	1.723447e-08	2.069694e+01	1.129690e+03
1.130000e-06	2.960597e-06	1.755053e-08	2.130890e+01	1.151344e+03
1.140000e-06	3.044726e-06	1.783129e-08	2.191442e+01	1.170860e+03
1.150000e-06	3.128049e-06	1.808168e-08	2.251413e+01	1.188288e+03
1.160000e-06	3.210289e-06	1.830564e-08	2.310605e+01	1.203665e+03
1.170000e-06	3.291253e-06	1.850834e-08	2.368879e+01	1.217119e+03
1.180000e-06	3.371001e-06	1.869467e-08	2.426278e+01	1.228908e+03
1.190000e-06	3.449538e-06	1.886669e-08	2.482805e+01	1.239395e+03
1.200000e-06	3.526805e-06	1.902446e-08	2.538418e+01	1.248984e+03
1.210000e-06	3.602844e-06	1.917057e-08	2.593147e+01	1.258032e+03
1.220000e-06	3.677509e-06	1.930758e-08	2.646887e+01	1.266778e+03
1.230000e-06	3.750519e-06	1.943451e-08	2.699436e+01	1.275309e+03
1.240000e-06	3.822029e-06	1.955122e-08	2.750905e+01	1.283569e+03
1.250000e-06	3.892229e-06	1.965774e-08	2.801432e+01	1.291406e+03
1.260000e-06	3.961104e-06	1.975754e-08	2.851005e+01	1.298648e+03
1.270000e-06	4.028702e-06	1.984989e-08	2.899658e+01	1.305173e+03
1.280000e-06	4.094729e-06	1.993783e-08	2.947181e+01	1.310958e+03
1.290000e-06	4.159020e-06	2.002299e-08	2.993454e+01	1.316093e+03
1.300000e-06	4.221849e-06	2.010601e-08	3.038675e+01	1.320764e+03
1.310000e-06	4.283288e-06	2.018483e-08	3.082896e+01	1.325195e+03
1.320000e-06	4.343401e-06	2.025784e-08	3.126162e+01	1.329588e+03
1.330000e-06	4.402082e-06	2.032574e-08	3.168398e+01	1.334070e+03
1.340000e-06	4.458973e-06	2.039026e-08	3.209346e+01	1.338664e+03
1.350000e-06	4.514141e-06	2.045083e-08	3.249053e+01	1.343286e+03
1.360000e-06	4.567746e-06	2.050792e-08	3.287635e+01	1.347787e+03
1.370000e-06	4.619638e-06	2.056352e-08	3.324984e+01	1.351996e+03
1.380000e-06	4.669550e-06	2.061713e-08	3.360909e+01	1.355779e+03
1.390000e-06	4.717504e-06	2.066920e-08	3.395423e+01	1.359077e+03
1.400000e-06	4.763747e-06	2.071858e-08	3.428706e+01	1.361925e+03
1.410000e-06	4.808458e-06	2.076407e-08	3.460887e+01	1.364435e+03
1.420000e-06	4.851606e-06	2.080525e-08	3.491943e+01	1.366761e+03
1.430000e-06	4.892872e-06	2.084333e-08	3.521645e+01	1.369052e+03
1.440000e-06	4.932311e-06	2.087745e-08	3.550031e+01	1.371406e+03
1.450000e-06	4.970111e-06	2.090884e-08	3.577237e+01	1.373846e+03
1.460000e-06	5.006354e-06	2.093797e-08	3.603323e+01	1.376316e+03
1.470000e-06	5.040897e-06	2.096493e-08	3.628185e+01	1.378705e+03
1.480000e-06	5.073482e-06	2.099113e-08	3.651639e+01	1.380885e+03
1.490000e-06	5.104254e-06	2.101507e-08	3.673786e+01	1.382752e+03
1.500000e-06	5.133400e-06	2.104015e-08	3.694765e+01	1.384262e+03
1.510000e-06	5.160904e-06	2.106675e-08	3.714560e+01	1.385442e+03
1.520000e-06	5.186378e-06	2.109138e-08	3.732895e+01	1.386383e+03
1.530000e-06	5.209764e-06	2.111160e-08	3.749727e+01	1.387212e+03
1.540000e-06	5.231400e-06	2.112640e-08	3.765300e+01	1.388048e+03
1.550000e-06	5.251406e-06	2.113921e-08	3.779699e+01	1.388972e+03
1.560000e-06	5.269650e-06	2.114969e-08	3.792831e+01	1.389999e+03
1.570000e-06	5.285864e-06	2.115920e-08	3.804500e+01	1.391076e+03
1.580000e-06	5.300062e-06	2.117045e-08	3.814719e+01	1.392102e+03
1.590000e-06	5.312273e-06	2.118164e-08	3.823508e+01	1.392959e+03
1.600000e-06	5.322303e-06	2.119121e-08	3.830728e+01	1.393551e+03
1.610000e-06	5.330243e-06	2.120039e-08	3.836442e+01	1.393832e+03
1.620000e-06	5.336313e-06	2.120964e-08	3.840811e+01	1.393822e+03
1.630000e-06	5.340642e-06	2.121531e-08	3.843927e+01	1.393597e+03
1.640000e-06	5.343093e-06	2.121800e-08	3.845691e+01	1.393269e+03
1.650000e-06	5.343522e-06	2.121878e-08	3.846000e+01	1.392946e+03
1.660000e-06	5.342110e-06	2.120982e-08	3.844983e+01	1.392702e+03
1.670000e-06	5.339037e-06	2.120217e-08	3.842772e+01	1.392551e+03
1.680000e-06	5.334393e-06	2.119862e-08	3.839429e+01	1.392448e+03
1.690000e-06	5.327897e-06	2.119569e-08	3.834754e+01	1.392297e+03
1.700000e-06	5.319531e-06	2.119177e-08	3.828732e+01	1.391986e+03
1.710000e-06	5.309621e-06	2.118643e-08	3.821599e+01	1.391419e+03
1.720000e-06	5.298123e-06	2.119852e-08	3.813324e+01	1.390547e+03
1.730000e-06	5.284704e-06	2.118060e-08	3.803666e+01	1.389384e+03
1.740000e-06	5.269167e-06	2.105468e-08	3.792483e+01	1.388001e+03
1.750000e-06	5.251314e-06	2.105080e-08	3.779633e+01	1.386509e+03
1.760000e-06	5.230872e-06	2.107188e-08	3.764920e+01	1.385021e+03
1.770000e-06	5.208061e-06	2.110464e-08	3.748502e+01	1.383626e+03
1.780000e-06	5.183880e-06	2.122746e-08	3.731097e+01	1.382362e+03
1.790000e-06	5.159038e-06	2.097778e-08	3.713218e+01	1.381206e+03
1.800000e-06	5.132809e-06	2.095964e-08	3.694339e+01	1.380084e+03
1.810000e-06	5.104447e-06	2.112311e-08	3.673925e+01	1.378898e+03
1.820000e-06	5.074346e-06	2.083630e-08	3.652260e+01	1.377550e+03
1.830000e-06	5.042474e-06	2.095360e-08	3.629320e+01	1.375976e+03
1.840000e-06	5.008635e-06	2.110783e-08	3.604965e+01	1.374154e+03
1.850000e-06	4.973332e-06	2.080169e-08	3.579556e+01	1.372113e+03
1.860000e-06	4.936280e-06	2.091885e-08	3.552887e+01	1.369911e+03
1.870000e-06	4.897174e-06	2.093103e-08	3.524741e+01	1.367614e+03
1.880000e-06	4.856417e-06	2.079431e-08	3.495406e+01	1.365268e+03
1.890000e-06	4.813904e-06	2.090144e-08	3.464807e+01	1.362883e+03
1.900000e-06	4.769757e-06	2.065720e-08	3.433032e+01	1.360425e+03
1.910000e-06	4.723887e-06	2.068450e-08	3.400017e+01	1.357830e+03
1.920000e-06	4.676103e-06	2.080007e-08	3.365625e+01	1.355020e+03
1.930000e-06	4.626791e-06	2.057729e-08	3.330133e+01	1.351938e+03
1.940000e-06	4.575622e-06	2.059271e-08	3.293304e+01	1.348561e+03
1.950000e-06	4.522391e-06	2.049382e-08	3.254991e+01	1.344919e+03
1.960000e-06	4.467312e-06	2.045117e-08	3.215348e+01	1.341081e+03
1.970000e-06	4.410499e-06	2.044001e-08	3.174456e+01	1.337139e+03
1.980000e-06	4.352132e-06	2.028715e-08	3.132447e+01	1.333180e+03
1.990000e-06	4.292340e-06	2.035150e-08	3.089412e+01	1.329255e+03
2.000000e-06	4.231147e-06	2.024693e-08	3.045368e+01	1.325363e+03
2.010000e-06	4.168239e-06	2.015842e-08	3.000090e+01	1.321452e+03
2.020000e-06	4.103624e-06	2.010282e-08	2.953583e+01	1.317426e+03
2.030000e-06	4.037634e-06	2.000973e-08	2.906087e+01	1.313182e+03
2.040000e-06	3.970298e-06	2.002956e-08	2.857622e+01	1.308635e+03
2.050000e-06	3.901630e-06	1.987462e-08	2.808198e+01	1.303747e+03
2.060000e-06	3.831399e-06	1.981228e-08	2.757650e+01	1.298541e+03
2.070000e-06	3.759623e-06	1.976094e-08	2.705988e+01	1.293092e+03
2.080000e-06	3.686640e-06	1.965369e-08	2.653459e+01	1.287504e+03
2.090000e-06	3.612419e-06	1.959215e-08	2.600039e+01	1.281876e+03
2.100000e-06	3.536844e-06	1.947187e-08	2.545643e+01	1.276272e+03
2.110000e-06	3.459761e-06	1.942042e-08	2.490163e+01	1.270694e+03
2.120000e-06	3.381168e-06	1.932043e-08	2.433595e+01	1.265081e+03
2.130000e-06	3.301292e-06	1.922571e-08	2.376105e+01	1.259323e+03
2.140000e-06	3.220296e-06	1.913230e-08	2.317808e+01	1.253294e+03
2.150000e-06	3.138253e-06	1.901736e-08	2.258758e+01	1.246889e+03
2.160000e-06	3.055177e-06	1.893413e-08	2.198963e+01	1.240056e+03
2.170000e-06	2.971139e-06	1.882183e-08	2.138477e+01	1.232811e+03
2.180000e-06	2.886011e-06	1.872306e-08	2.077206e+01	1.225232e+03
2.190000e-06	2.799550e-06	1.860346e-08	2.014976e+01	1.217435e+03
2.200000e-06	2.711905e-06	1.848488e-08	1.951894e+01	1.209532e+03
2.210000e-06	2.623348e-06	1.836303e-08	1.888154e+01	1.201593e+03
2.220000e-06	2.533865e-06	1.823623e-08	1.823749e+01	1.193619e+03
2.230000e-06	2.443529e-06	1.811847e-08	1.758730e+01	1.185530e+03
2.240000e-06	2.352478e-06	1.798697e-08	1.693196e+01	1.177191e+03
2.250000e-06	2.260662e-06	1.785150e-08	1.627111e+01	1.168441e+03
2.260000e-06	2.168105e-06	1.770100e-08	1.560494e+01	1.159144e+03
2.270000e-06	2.074729e-06	1.755372e-08	1.493286e+01	1.149227e+03
2.280000e-06	1.980455e-06	1.740352e-08	1.425433e+01	1.138702e+03
2.290000e-06	1.885297e-06	1.724499e-08	1.356942e+01	1.127660e+03
2.300000e-06	1.789357e-06	1.707952e-08	1.287889e+01	1.116239e+03
2.310000e-06	1.692905e-06	1.690549e-08	1.218468e+01	1.104578e+03
2.320000e-06	1.596008e-06	1.672721e-08	1.148727e+01	1.092764e+03
2.330000e-06	1.498611e-06	1.653963e-08	1.078625e+01	1.080795e+03
2.340000e-06	1.400683e-06	1.634475e-08	1.008141e+01	1.068565e+03
2.350000e-06	1.302300e-06	1.614067e-08	9.373305e+00	1.055889e+03
2.360000e-06	1.203558e-06	1.593215e-08	8.662606e+00	1.042545e+03
2.370000e-06	1.104499e-06	1.571655e-08	7.949632e+00	1.028336e+03
2.380000e-06	1.005140e-06	1.548962e-08	7.234493e+00	1.013140e+03
2.390000e-06	9.054920e-07	1.524923e-08	6.517278e+00	9.969449e+02
2.400000e-06	8.056101e-07	1.499545e-08	5.798378e+00	9.798391e+02
2.410000e-06	7.054803e-07	1.473054e-08	5.077694e+00	9.619727e+02
2.420000e-06	6.051258e-07	1.445182e-08	4.355393e+00	9.434889e+02
2.430000e-06	5.046213e-07	1.416120e-08	3.632012e+00	9.244507e+02
2.440000e-06	4.039163e-07	1.385895e-08	2.907187e+00	9.047836e+02
2.450000e-06	3.029677e-07	1.353615e-08	2.180610e+00	8.842559e+02
2.460000e-06	2.018972e-07	1.318787e-08	1.453155e+00	8.625045e+02
2.470000e-06	1.007615e-07	1.281997e-08	7.252311e-01	8.391024e+02
2.480000e-06	-4.608740e-10	1.243246e-08	-3.317140e-03	8.136493e+02
2.490000e-06	-1.017154e-07	1.201647e-08	-7.320963e-01	7.858546e+02
2.500000e-06	-2.028831e-07	1.156801e-08	-1.460251e+00	7.555855e+02
2.510000e-06	-3.039304e-07	1.108560e-08	-2.187539e+00	7.228532e+02
2.520000e-06	-4.048717e-07	1.056422e-08	-2.914064e+00	6.877331e+02
2.530000e-06	-5.056929e-07	9.997425e-09	-3.639725e+00	6.502291e+02
2.540000e-06	-6.063764e-07	9.378503e-09	-4.364394e+00	6.101165e+02
2.550000e-06	-7.068712e-07	8.701117e-09	-5.087705e+00	5.668057e+02
2.560000e-06	-8.071139e-07	7.955919e-09	-5.809202e+00	5.192764e+02
2.570000e-06	-9.070757e-07	7.129038e-09	-6.528677e+00	4.661158e+02
2.580000e-06	-1.006758e-06	6.202863e-09	-7.246141e+00	4.056773e+02
2.590000e-06	-1.106120e-06	5.157899e-09	-7.961296e+00	3.363446e+02
2.600000e-06	-1.205095e-06	3.973226e-09	-8.673673e+00	2.568601e+02
2.610000e-06	-1.303703e-06	2.634078e-09	-9.383402e+00	1.666540e+02
2.620000e-06	-1.401858e-06	1.130920e-09	-1.008987e+01	6.610481e+01
2.630000e-06	-1.499458e-06	-5.276470e-10	-1.079235e+01	-4.333075e+01
2.640000e-06	-1.596534e-06	-2.308703e-09	-1.149105e+01	-1.591586e+02
2.650000e-06	-1.693068e-06	-4.158154e-09	-1.218586e+01	-2.780633e+02
2.660000e-06	-1.789138e-06	-6.002580e-09	-1.287732e+01	-3.962694e+02
2.670000e-06	-1.884723e-06	-7.766566e-09	-1.356529e+01	-5.099876e+02
2.680000e-06	-1.979558e-06	-9.387230e-09	-1.424787e+01	-6.158663e+02
2.690000e-06	-2.073418e-06	-1.083081e-08	-1.492342e+01	-7.113677e+02
2.700000e-06	-2.166323e-06	-1.208763e-08	-1.559211e+01	-7.950055e+02
2.710000e-06	-2.258387e-06	-1.316490e-08	-1.625474e+01	-8.664073e+02
2.720000e-06	-2.349724e-06	-1.407971e-08	-1.691213e+01	-9.262032e+02
2.730000e-06	-2.440315e-06	-1.485388e-08	-1.756417e+01	-9.757747e+02
2.740000e-06	-2.529950e-06	-1.551079e-08	-1.820931e+01	-1.016924e+03
2.750000e-06	-2.618659e-06	-1.606901e-08	-1.884780e+01	-1.051536e+03
2.760000e-06	-2.706616e-06	-1.654544e-08	-1.948087e+01	-1.081289e+03
2.770000e-06	-2.793778e-06	-1.695514e-08	-2.010822e+01	-1.107478e+03
2.780000e-06	-2.879847e-06	-1.731169e-08	-2.072770e+01	-1.130945e+03
2.790000e-06	-2.964683e-06	-1.762344e-08	-2.133830e+01	-1.152132e+03
2.800000e-06	-3.048454e-06	-1.789867e-08	-2.194125e+01	-1.171199e+03
2.810000e-06	-3.131229e-06	-1.814528e-08	-2.253702e+01	-1.188183e+03
2.820000e-06	-3.212961e-06	-1.836674e-08	-2.312529e+01	-1.203134e+03
2.830000e-06	-3.293631e-06	-1.856825e-08	-2.370591e+01	-1.216205e+03
2.840000e-06	-3.373235e-06	-1.875235e-08	-2.427886e+01	-1.227682e+03
2.850000e-06	-3.451536e-06	-1.892307e-08	-2.484243e+01	-1.237944e+03
2.860000e-06	-3.528277e-06	-1.908161e-08	-2.539477e+01	-1.247391e+03
2.870000e-06	-3.603575e-06	-1.922740e-08	-2.593673e+01	-1.256360e+03
2.880000e-06	-3.677530e-06	-1.936136e-08	-2.646902e+01	-1.265058e+03
2.890000e-06	-3.750193e-06	-1.948408e-08	-2.699201e+01	-1.273541e+03
2.900000e-06	-3.821670e-06	-1.959942e-08	-2.750647e+01	-1.281725e+03
2.910000e-06	-3.891629e-06	-1.970821e-08	-2.801000e+01	-1.289449e+03
2.920000e-06	-3.959986e-06	-1.980963e-08	-2.850200e+01	-1.296546e+03
2.930000e-06	-4.026992e-06	-1.990287e-08	-2.898428e+01	-1.302911e+03
2.940000e-06	-4.092600e-06	-1.998997e-08	-2.945649e+01	-1.308545e+03
