# Temperatura_=_62.64
# Concentracion g/m^3_=_41000.0
# C_Vs_to_Am_M_A/Vsm_=_65563218390.804596
# pendiente_HvsI_1/m_=_3716.3
# ordenada_HvsI_A/m_=_1297.0
# frecuencia_Hz_=_301591.7396576184

Tiempo_(s)	Campo_(V.s)	Magnetizacion_(V.s)	Campo_(kA/m)	Magnetizacion_(A/m)
0.000000e+00	-5.349623e-06	-2.221330e-08	-3.834000e+01	-1.452919e+03
1.000000e-08	-5.346845e-06	-2.221008e-08	-3.832009e+01	-1.452686e+03
2.000000e-08	-5.342337e-06	-2.220197e-08	-3.828778e+01	-1.452537e+03
3.000000e-08	-5.336223e-06	-2.219441e-08	-3.824396e+01	-1.452398e+03
4.000000e-08	-5.328537e-06	-2.218555e-08	-3.818888e+01	-1.452164e+03
5.000000e-08	-5.319069e-06	-2.217391e-08	-3.812102e+01	-1.451727e+03
6.000000e-08	-5.307498e-06	-2.215648e-08	-3.803809e+01	-1.451014e+03
7.000000e-08	-5.294005e-06	-2.212835e-08	-3.794139e+01	-1.450004e+03
8.000000e-08	-5.278373e-06	-2.215157e-08	-3.782935e+01	-1.448742e+03
9.000000e-08	-5.260372e-06	-2.218797e-08	-3.770035e+01	-1.447315e+03
1.000000e-07	-5.240383e-06	-2.213572e-08	-3.755709e+01	-1.445833e+03
1.100000e-07	-5.218602e-06	-2.209202e-08	-3.740099e+01	-1.444394e+03
1.200000e-07	-5.195215e-06	-2.203135e-08	-3.723338e+01	-1.443051e+03
1.300000e-07	-5.170476e-06	-2.192600e-08	-3.705607e+01	-1.441804e+03
1.400000e-07	-5.144100e-06	-2.203857e-08	-3.686704e+01	-1.440598e+03
1.500000e-07	-5.115936e-06	-2.204045e-08	-3.666520e+01	-1.439343e+03
1.600000e-07	-5.086309e-06	-2.189475e-08	-3.645286e+01	-1.437945e+03
1.700000e-07	-5.055164e-06	-2.199341e-08	-3.622965e+01	-1.436332e+03
1.800000e-07	-5.021972e-06	-2.190378e-08	-3.599177e+01	-1.434478e+03
1.900000e-07	-4.986809e-06	-2.177074e-08	-3.573976e+01	-1.432406e+03
2.000000e-07	-4.950158e-06	-2.189503e-08	-3.547709e+01	-1.430179e+03
2.100000e-07	-4.911836e-06	-2.183015e-08	-3.520244e+01	-1.427875e+03
2.200000e-07	-4.871740e-06	-2.173457e-08	-3.491508e+01	-1.425558e+03
2.300000e-07	-4.829725e-06	-2.173190e-08	-3.461396e+01	-1.423251e+03
2.400000e-07	-4.785746e-06	-2.164287e-08	-3.429877e+01	-1.420932e+03
2.500000e-07	-4.740022e-06	-2.164856e-08	-3.397107e+01	-1.418530e+03
2.600000e-07	-4.692492e-06	-2.161573e-08	-3.363043e+01	-1.415953e+03
2.700000e-07	-4.642946e-06	-2.152601e-08	-3.327534e+01	-1.413114e+03
2.800000e-07	-4.591250e-06	-2.149081e-08	-3.290484e+01	-1.409957e+03
2.900000e-07	-4.537672e-06	-2.142710e-08	-3.252086e+01	-1.406479e+03
3.000000e-07	-4.482487e-06	-2.137196e-08	-3.212536e+01	-1.402732e+03
3.100000e-07	-4.425673e-06	-2.132908e-08	-3.171817e+01	-1.398808e+03
3.200000e-07	-4.367011e-06	-2.128293e-08	-3.129775e+01	-1.394807e+03
3.300000e-07	-4.306734e-06	-2.121961e-08	-3.086575e+01	-1.390812e+03
3.400000e-07	-4.245078e-06	-2.114494e-08	-3.042388e+01	-1.386855e+03
3.500000e-07	-4.181985e-06	-2.108445e-08	-2.997170e+01	-1.382911e+03
3.600000e-07	-4.117534e-06	-2.100974e-08	-2.950979e+01	-1.378901e+03
3.700000e-07	-4.051454e-06	-2.095768e-08	-2.903620e+01	-1.374716e+03
3.800000e-07	-3.983714e-06	-2.088923e-08	-2.855072e+01	-1.370251e+03
3.900000e-07	-3.914589e-06	-2.079293e-08	-2.805531e+01	-1.365438e+03
4.000000e-07	-3.844158e-06	-2.073263e-08	-2.755054e+01	-1.360269e+03
4.100000e-07	-3.772587e-06	-2.065397e-08	-2.703760e+01	-1.354797e+03
4.200000e-07	-3.699791e-06	-2.056875e-08	-2.651588e+01	-1.349120e+03
4.300000e-07	-3.625354e-06	-2.048459e-08	-2.598240e+01	-1.343354e+03
4.400000e-07	-3.549281e-06	-2.039946e-08	-2.543720e+01	-1.337589e+03
4.500000e-07	-3.471878e-06	-2.031076e-08	-2.488246e+01	-1.331863e+03
4.600000e-07	-3.393201e-06	-2.021662e-08	-2.431859e+01	-1.326145e+03
4.700000e-07	-3.313113e-06	-2.012914e-08	-2.374461e+01	-1.320340e+03
4.800000e-07	-3.231736e-06	-2.002930e-08	-2.316140e+01	-1.314316e+03
4.900000e-07	-3.149287e-06	-1.992807e-08	-2.257050e+01	-1.307941e+03
5.000000e-07	-3.065808e-06	-1.982185e-08	-2.197222e+01	-1.301123e+03
5.100000e-07	-2.981407e-06	-1.971000e-08	-2.136733e+01	-1.293839e+03
5.200000e-07	-2.896091e-06	-1.959505e-08	-2.075588e+01	-1.286137e+03
5.300000e-07	-2.809860e-06	-1.947608e-08	-2.013787e+01	-1.278124e+03
5.400000e-07	-2.722729e-06	-1.935771e-08	-1.951341e+01	-1.269929e+03
5.500000e-07	-2.634758e-06	-1.923489e-08	-1.888294e+01	-1.261656e+03
5.600000e-07	-2.545779e-06	-1.910565e-08	-1.824524e+01	-1.253352e+03
5.700000e-07	-2.455456e-06	-1.897190e-08	-1.759791e+01	-1.244982e+03
5.800000e-07	-2.364044e-06	-1.883465e-08	-1.694277e+01	-1.236433e+03
5.900000e-07	-2.271934e-06	-1.869097e-08	-1.628263e+01	-1.227545e+03
6.000000e-07	-2.179073e-06	-1.854198e-08	-1.561711e+01	-1.218154e+03
6.100000e-07	-2.085382e-06	-1.838693e-08	-1.494564e+01	-1.208141e+03
6.200000e-07	-1.990939e-06	-1.822392e-08	-1.426878e+01	-1.197464e+03
6.300000e-07	-1.895831e-06	-1.805452e-08	-1.358716e+01	-1.186172e+03
6.400000e-07	-1.800128e-06	-1.788145e-08	-1.290126e+01	-1.174384e+03
6.500000e-07	-1.703885e-06	-1.770318e-08	-1.221150e+01	-1.162251e+03
6.600000e-07	-1.606974e-06	-1.751844e-08	-1.151695e+01	-1.149897e+03
6.700000e-07	-1.509265e-06	-1.732613e-08	-1.081669e+01	-1.137375e+03
6.800000e-07	-1.410793e-06	-1.712388e-08	-1.011095e+01	-1.124634e+03
6.900000e-07	-1.311743e-06	-1.691298e-08	-9.401078e+00	-1.111523e+03
7.000000e-07	-1.212289e-06	-1.669338e-08	-8.688303e+00	-1.097825e+03
7.100000e-07	-1.112545e-06	-1.646671e-08	-7.973456e+00	-1.083313e+03
7.200000e-07	-1.012524e-06	-1.623116e-08	-7.256617e+00	-1.067812e+03
7.300000e-07	-9.122299e-07	-1.598642e-08	-6.537824e+00	-1.051244e+03
7.400000e-07	-8.117144e-07	-1.573093e-08	-5.817443e+00	-1.033646e+03
7.500000e-07	-7.109343e-07	-1.546430e-08	-5.095166e+00	-1.015143e+03
7.600000e-07	-6.098816e-07	-1.518076e-08	-4.370936e+00	-9.959001e+02
7.700000e-07	-5.086125e-07	-1.487777e-08	-3.645154e+00	-9.760370e+02
7.800000e-07	-4.071555e-07	-1.455922e-08	-2.918026e+00	-9.555638e+02
7.900000e-07	-3.055390e-07	-1.422211e-08	-2.189755e+00	-9.343345e+02
8.000000e-07	-2.037938e-07	-1.386705e-08	-1.460561e+00	-9.120476e+02
8.100000e-07	-1.019941e-07	-1.349194e-08	-7.309770e-01	-8.882945e+02
8.200000e-07	-1.571477e-10	-1.309544e-08	-1.126255e-03	-8.626422e+02
8.300000e-07	1.017559e-07	-1.267458e-08	7.292702e-01	-8.347274e+02
8.400000e-07	2.036099e-07	-1.222459e-08	1.459244e+00	-8.043301e+02
8.500000e-07	3.053690e-07	-1.174140e-08	2.188537e+00	-7.713961e+02
8.600000e-07	4.070816e-07	-1.121662e-08	2.917497e+00	-7.359929e+02
8.700000e-07	5.086618e-07	-1.064750e-08	3.645507e+00	-6.981981e+02
8.800000e-07	6.100381e-07	-1.003068e-08	4.372057e+00	-6.579453e+02
8.900000e-07	7.112273e-07	-9.358589e-09	5.097266e+00	-6.148650e+02
9.000000e-07	8.122283e-07	-8.625078e-09	5.821126e+00	-5.681714e+02
9.100000e-07	9.129493e-07	-7.817302e-09	6.542979e+00	-5.166369e+02
9.200000e-07	1.013358e-06	-6.917782e-09	7.262594e+00	-4.586855e+02
9.300000e-07	1.113418e-06	-5.907693e-09	7.979711e+00	-3.926048e+02
9.400000e-07	1.213121e-06	-4.766190e-09	8.694265e+00	-3.168513e+02
9.500000e-07	1.312516e-06	-3.471647e-09	9.406620e+00	-2.303936e+02
9.600000e-07	1.411529e-06	-2.008187e-09	1.011623e+01	-1.330255e+02
9.700000e-07	1.509959e-06	-3.767145e-10	1.082166e+01	-2.557917e+01
9.800000e-07	1.607575e-06	1.398976e-09	1.152126e+01	9.001613e+01
9.900000e-07	1.704329e-06	3.272113e-09	1.221469e+01	2.108545e+02
1.000000e-06	1.800316e-06	5.172911e-09	1.290261e+01	3.333426e+02
1.010000e-06	1.895676e-06	7.025575e-09	1.358604e+01	4.536106e+02
1.020000e-06	1.990442e-06	8.763099e-09	1.426522e+01	5.679744e+02
1.030000e-06	2.084536e-06	1.033935e-08	1.493957e+01	6.733658e+02
1.040000e-06	2.177985e-06	1.173378e-08	1.560931e+01	7.676545e+02
1.050000e-06	2.270725e-06	1.294477e-08	1.627397e+01	8.498098e+02
1.060000e-06	2.362713e-06	1.398576e-08	1.693323e+01	9.198833e+02
1.070000e-06	2.453976e-06	1.487688e-08	1.758730e+01	9.788283e+02
1.080000e-06	2.544316e-06	1.563690e-08	1.823476e+01	1.028206e+03
1.090000e-06	2.633450e-06	1.628645e-08	1.887356e+01	1.069842e+03
1.100000e-06	2.721440e-06	1.684462e-08	1.950418e+01	1.105511e+03
1.110000e-06	2.808571e-06	1.732739e-08	2.012863e+01	1.136693e+03
1.120000e-06	2.894857e-06	1.774613e-08	2.074703e+01	1.164454e+03
1.130000e-06	2.980200e-06	1.811345e-08	2.135867e+01	1.189432e+03
1.140000e-06	3.064619e-06	1.843645e-08	2.196370e+01	1.211929e+03
1.150000e-06	3.148158e-06	1.872208e-08	2.256241e+01	1.232050e+03
1.160000e-06	3.230639e-06	1.898052e-08	2.315353e+01	1.249857e+03
1.170000e-06	3.311793e-06	1.921655e-08	2.373515e+01	1.265478e+03
1.180000e-06	3.391688e-06	1.943174e-08	2.430775e+01	1.279168e+03
1.190000e-06	3.470403e-06	1.962750e-08	2.487189e+01	1.291298e+03
1.200000e-06	3.547875e-06	1.980567e-08	2.542712e+01	1.302293e+03
1.210000e-06	3.624139e-06	1.997053e-08	2.597370e+01	1.312549e+03
1.220000e-06	3.699006e-06	2.012455e-08	2.651026e+01	1.322357e+03
1.230000e-06	3.772218e-06	2.026761e-08	2.703496e+01	1.331850e+03
1.240000e-06	3.843908e-06	2.040057e-08	2.754875e+01	1.341010e+03
1.250000e-06	3.914277e-06	2.052184e-08	2.805307e+01	1.349704e+03
1.260000e-06	3.983355e-06	2.063325e-08	2.854815e+01	1.357754e+03
1.270000e-06	4.051105e-06	2.073519e-08	2.903370e+01	1.365020e+03
1.280000e-06	4.117298e-06	2.083158e-08	2.950810e+01	1.371451e+03
1.290000e-06	4.181806e-06	2.092331e-08	2.997041e+01	1.377116e+03
1.300000e-06	4.244812e-06	2.100998e-08	3.042197e+01	1.382192e+03
1.310000e-06	4.306439e-06	2.109113e-08	3.086364e+01	1.386910e+03
1.320000e-06	4.366742e-06	2.116738e-08	3.129583e+01	1.391501e+03
1.330000e-06	4.425607e-06	2.123980e-08	3.171770e+01	1.396129e+03
1.340000e-06	4.482693e-06	2.130803e-08	3.212683e+01	1.400856e+03
1.350000e-06	4.537984e-06	2.137178e-08	3.252309e+01	1.405631e+03
1.360000e-06	4.591641e-06	2.143214e-08	3.290765e+01	1.410319e+03
1.370000e-06	4.643584e-06	2.149108e-08	3.327992e+01	1.414749e+03
1.380000e-06	4.693543e-06	2.154815e-08	3.363797e+01	1.418770e+03
1.390000e-06	4.741570e-06	2.160241e-08	3.398217e+01	1.422300e+03
1.400000e-06	4.787983e-06	2.165365e-08	3.431480e+01	1.425345e+03
1.410000e-06	4.832836e-06	2.170075e-08	3.463626e+01	1.428003e+03
1.420000e-06	4.876045e-06	2.174290e-08	3.494593e+01	1.430423e+03
1.430000e-06	4.917379e-06	2.178187e-08	3.524216e+01	1.432764e+03
1.440000e-06	4.956874e-06	2.181832e-08	3.552522e+01	1.435145e+03
1.450000e-06	4.994713e-06	2.185121e-08	3.579640e+01	1.437613e+03
1.460000e-06	5.030972e-06	2.188111e-08	3.605627e+01	1.440132e+03
1.470000e-06	5.065485e-06	2.190911e-08	3.630362e+01	1.442601e+03
1.480000e-06	5.098039e-06	2.193706e-08	3.653693e+01	1.444889e+03
1.490000e-06	5.128811e-06	2.196370e-08	3.675747e+01	1.446877e+03
1.500000e-06	5.157961e-06	2.198915e-08	3.696638e+01	1.448501e+03
1.510000e-06	5.185457e-06	2.201331e-08	3.716344e+01	1.449764e+03
1.520000e-06	5.210945e-06	2.203453e-08	3.734611e+01	1.450745e+03
1.530000e-06	5.234353e-06	2.205344e-08	3.751387e+01	1.451563e+03
1.540000e-06	5.255959e-06	2.206803e-08	3.766872e+01	1.452348e+03
1.550000e-06	5.275868e-06	2.208058e-08	3.781140e+01	1.453196e+03
1.560000e-06	5.293921e-06	2.209199e-08	3.794079e+01	1.454146e+03
1.570000e-06	5.309960e-06	2.210276e-08	3.805574e+01	1.455165e+03
1.580000e-06	5.323989e-06	2.211376e-08	3.815628e+01	1.456163e+03
1.590000e-06	5.336012e-06	2.212461e-08	3.824245e+01	1.457025e+03
1.600000e-06	5.345869e-06	2.213423e-08	3.831309e+01	1.457643e+03
1.610000e-06	5.353637e-06	2.214221e-08	3.836876e+01	1.457958e+03
1.620000e-06	5.359595e-06	2.214922e-08	3.841146e+01	1.457969e+03
1.630000e-06	5.363818e-06	2.215235e-08	3.844173e+01	1.457742e+03
1.640000e-06	5.366122e-06	2.215193e-08	3.845824e+01	1.457380e+03
1.650000e-06	5.366367e-06	2.214874e-08	3.846000e+01	1.456998e+03
1.660000e-06	5.364785e-06	2.213999e-08	3.844866e+01	1.456684e+03
1.670000e-06	5.361587e-06	2.213540e-08	3.842574e+01	1.456472e+03
1.680000e-06	5.356713e-06	2.213230e-08	3.839081e+01	1.456332e+03
1.690000e-06	5.349926e-06	2.212736e-08	3.834217e+01	1.456182e+03
1.700000e-06	5.341372e-06	2.212365e-08	3.828086e+01	1.455912e+03
1.710000e-06	5.331302e-06	2.212056e-08	3.820869e+01	1.455419e+03
1.720000e-06	5.319551e-06	2.213102e-08	3.812448e+01	1.454641e+03
1.730000e-06	5.305804e-06	2.209074e-08	3.802595e+01	1.453571e+03
1.740000e-06	5.289972e-06	2.199475e-08	3.791249e+01	1.452264e+03
1.750000e-06	5.271865e-06	2.199684e-08	3.778272e+01	1.450815e+03
1.760000e-06	5.251151e-06	2.200230e-08	3.763426e+01	1.449334e+03
1.770000e-06	5.228120e-06	2.205613e-08	3.746920e+01	1.447912e+03
1.780000e-06	5.203798e-06	2.210826e-08	3.729489e+01	1.446591e+03
1.790000e-06	5.178742e-06	2.190448e-08	3.711531e+01	1.445358e+03
1.800000e-06	5.152243e-06	2.192617e-08	3.692540e+01	1.444149e+03
1.810000e-06	5.123682e-06	2.200694e-08	3.672071e+01	1.442871e+03
1.820000e-06	5.093350e-06	2.184462e-08	3.650332e+01	1.441430e+03
1.830000e-06	5.061238e-06	2.198930e-08	3.627318e+01	1.439765e+03
1.840000e-06	5.027228e-06	2.202737e-08	3.602944e+01	1.437860e+03
1.850000e-06	4.991645e-06	2.181718e-08	3.577442e+01	1.435748e+03
1.860000e-06	4.954184e-06	2.191994e-08	3.550594e+01	1.433497e+03
1.870000e-06	4.914810e-06	2.187955e-08	3.522375e+01	1.431185e+03
1.880000e-06	4.873826e-06	2.181201e-08	3.493002e+01	1.428869e+03
1.890000e-06	4.831059e-06	2.186664e-08	3.462352e+01	1.426562e+03
1.900000e-06	4.786631e-06	2.168811e-08	3.430511e+01	1.424231e+03
1.910000e-06	4.740365e-06	2.173975e-08	3.397353e+01	1.421800e+03
1.920000e-06	4.692203e-06	2.174872e-08	3.362836e+01	1.419172e+03
1.930000e-06	4.642446e-06	2.159281e-08	3.327176e+01	1.416267e+03
1.940000e-06	4.590799e-06	2.162662e-08	3.290161e+01	1.413038e+03
1.950000e-06	4.537085e-06	2.153667e-08	3.251665e+01	1.409496e+03
1.960000e-06	4.481556e-06	2.148889e-08	3.211868e+01	1.405702e+03
1.970000e-06	4.424376e-06	2.143841e-08	3.170888e+01	1.401752e+03
1.980000e-06	4.365676e-06	2.133888e-08	3.128818e+01	1.397746e+03
1.990000e-06	4.305627e-06	2.136026e-08	3.085782e+01	1.393758e+03
2.000000e-06	4.244035e-06	2.125800e-08	3.041640e+01	1.389807e+03
2.010000e-06	4.180635e-06	2.120136e-08	2.996202e+01	1.385856e+03
2.020000e-06	4.115588e-06	2.112815e-08	2.949584e+01	1.381817e+03
2.030000e-06	4.049183e-06	2.104744e-08	2.901992e+01	1.377579e+03
2.040000e-06	3.981509e-06	2.102165e-08	2.853492e+01	1.373043e+03
2.050000e-06	3.912372e-06	2.088681e-08	2.803942e+01	1.368152e+03
2.060000e-06	3.841647e-06	2.084119e-08	2.753254e+01	1.362910e+03
2.070000e-06	3.769602e-06	2.077162e-08	2.701621e+01	1.357384e+03
2.080000e-06	3.696311e-06	2.067841e-08	2.649094e+01	1.351678e+03
2.090000e-06	3.621594e-06	2.060577e-08	2.595545e+01	1.345905e+03
2.100000e-06	3.545495e-06	2.049924e-08	2.541006e+01	1.340147e+03
2.110000e-06	3.467826e-06	2.043387e-08	2.485342e+01	1.334427e+03
2.120000e-06	3.388606e-06	2.032425e-08	2.428566e+01	1.328699e+03
2.130000e-06	3.308296e-06	2.023165e-08	2.371009e+01	1.322858e+03
2.140000e-06	3.226948e-06	2.013520e-08	2.312709e+01	1.316768e+03
2.150000e-06	3.144456e-06	2.003024e-08	2.253588e+01	1.310303e+03
2.160000e-06	3.061004e-06	1.993395e-08	2.193778e+01	1.303384e+03
2.170000e-06	2.976620e-06	1.981857e-08	2.133302e+01	1.296003e+03
2.180000e-06	2.890939e-06	1.971720e-08	2.071895e+01	1.288223e+03
2.190000e-06	2.803906e-06	1.959537e-08	2.009520e+01	1.280160e+03
2.200000e-06	2.715836e-06	1.947595e-08	1.946402e+01	1.271939e+03
2.210000e-06	2.626894e-06	1.935190e-08	1.882658e+01	1.263658e+03
2.220000e-06	2.537066e-06	1.922524e-08	1.818279e+01	1.255345e+03
2.230000e-06	2.446351e-06	1.909550e-08	1.753265e+01	1.246947e+03
2.240000e-06	2.354882e-06	1.895406e-08	1.687711e+01	1.238339e+03
2.250000e-06	2.262727e-06	1.881150e-08	1.621665e+01	1.229356e+03
2.260000e-06	2.169810e-06	1.866133e-08	1.555072e+01	1.219838e+03
2.270000e-06	2.075861e-06	1.851294e-08	1.487741e+01	1.209682e+03
2.280000e-06	1.980914e-06	1.835560e-08	1.419693e+01	1.198866e+03
2.290000e-06	1.885278e-06	1.819066e-08	1.351152e+01	1.187455e+03
2.300000e-06	1.789059e-06	1.801951e-08	1.282194e+01	1.175580e+03
2.310000e-06	1.692316e-06	1.784165e-08	1.212859e+01	1.163390e+03
2.320000e-06	1.595024e-06	1.765618e-08	1.143131e+01	1.150998e+03
2.330000e-06	1.497209e-06	1.746139e-08	1.073029e+01	1.138436e+03
2.340000e-06	1.398908e-06	1.725820e-08	1.002578e+01	1.125631e+03
2.350000e-06	1.300104e-06	1.704321e-08	9.317664e+00	1.112412e+03
2.360000e-06	1.200922e-06	1.682013e-08	8.606840e+00	1.098557e+03
2.370000e-06	1.101458e-06	1.659148e-08	7.893992e+00	1.083845e+03
2.380000e-06	1.001738e-06	1.635699e-08	7.179318e+00	1.068117e+03
2.390000e-06	9.018098e-07	1.610955e-08	6.463144e+00	1.051321e+03
2.400000e-06	8.016193e-07	1.584622e-08	5.745093e+00	1.033515e+03
2.410000e-06	7.011128e-07	1.556898e-08	5.024777e+00	1.014839e+03
2.420000e-06	6.002899e-07	1.527764e-08	4.302193e+00	9.954550e+02
2.430000e-06	4.992195e-07	1.497354e-08	3.577836e+00	9.754645e+02
2.440000e-06	3.979271e-07	1.465520e-08	2.851888e+00	9.548464e+02
2.450000e-06	2.964388e-07	1.431769e-08	2.124535e+00	9.334196e+02
2.460000e-06	1.947903e-07	1.395950e-08	1.396035e+00	9.108544e+02
2.470000e-06	9.294619e-08	1.357995e-08	6.661323e-01	8.867290e+02
2.480000e-06	-9.028408e-09	1.317732e-08	-6.470533e-02	8.606175e+02
2.490000e-06	-1.110301e-07	1.274746e-08	-7.957372e-01	8.321828e+02
2.500000e-06	-2.129647e-07	1.228795e-08	-1.526288e+00	8.012403e+02
2.510000e-06	-3.147088e-07	1.179643e-08	-2.255474e+00	7.677683e+02
2.520000e-06	-4.162286e-07	1.126496e-08	-2.983052e+00	7.318477e+02
2.530000e-06	-5.176067e-07	1.068801e-08	-3.709614e+00	6.935390e+02
2.540000e-06	-6.188297e-07	1.006193e-08	-4.435066e+00	6.527234e+02
2.550000e-06	-7.197385e-07	9.379933e-09	-5.158265e+00	6.089497e+02
2.560000e-06	-8.202242e-07	8.632125e-09	-5.878431e+00	5.613354e+02
2.570000e-06	-9.203911e-07	7.806091e-09	-6.596314e+00	5.085663e+02
2.580000e-06	-1.020335e-06	6.887764e-09	-7.312597e+00	4.490155e+02
2.590000e-06	-1.119992e-06	5.857284e-09	-8.026822e+00	3.809790e+02
2.600000e-06	-1.219288e-06	4.692873e-09	-8.738467e+00	3.029939e+02
2.610000e-06	-1.318169e-06	3.376442e-09	-9.447131e+00	2.141818e+02
2.620000e-06	-1.416622e-06	1.892083e-09	-1.015273e+01	1.145455e+02
2.630000e-06	-1.514573e-06	2.415869e-10	-1.085473e+01	5.153415e+00
2.640000e-06	-1.611970e-06	-1.550602e-09	-1.155276e+01	-1.118397e+02
2.650000e-06	-1.708856e-06	-3.435472e-09	-1.224713e+01	-2.333512e+02
2.660000e-06	-1.805153e-06	-5.344019e-09	-1.293728e+01	-3.556909e+02
2.670000e-06	-1.900890e-06	-7.198789e-09	-1.362341e+01	-4.749897e+02
2.680000e-06	-1.996099e-06	-8.930331e-09	-1.430576e+01	-5.876619e+02
2.690000e-06	-2.090514e-06	-1.049645e-08	-1.498242e+01	-6.908181e+02
2.700000e-06	-2.183887e-06	-1.187684e-08	-1.565161e+01	-7.825560e+02
2.710000e-06	-2.276248e-06	-1.307107e-08	-1.631355e+01	-8.620845e+02
2.720000e-06	-2.367794e-06	-1.409573e-08	-1.696965e+01	-9.296682e+02
2.730000e-06	-2.458569e-06	-1.497474e-08	-1.762022e+01	-9.864180e+02
2.740000e-06	-2.548473e-06	-1.573081e-08	-1.826455e+01	-1.033981e+03
2.750000e-06	-2.637445e-06	-1.638079e-08	-1.890220e+01	-1.074197e+03
2.760000e-06	-2.725585e-06	-1.693717e-08	-1.953389e+01	-1.108794e+03
2.770000e-06	-2.812995e-06	-1.741288e-08	-2.016034e+01	-1.139170e+03
2.780000e-06	-2.899461e-06	-1.782459e-08	-2.078003e+01	-1.166295e+03
2.790000e-06	-2.984657e-06	-1.818684e-08	-2.139062e+01	-1.190725e+03
2.800000e-06	-3.068653e-06	-1.850814e-08	-2.199260e+01	-1.212709e+03
2.810000e-06	-3.151660e-06	-1.879481e-08	-2.258750e+01	-1.232329e+03
2.820000e-06	-3.233626e-06	-1.905093e-08	-2.317494e+01	-1.249653e+03
2.830000e-06	-3.314477e-06	-1.928258e-08	-2.375439e+01	-1.264835e+03
2.840000e-06	-3.394256e-06	-1.949633e-08	-2.432616e+01	-1.278158e+03
2.850000e-06	-3.472743e-06	-1.969519e-08	-2.488866e+01	-1.290009e+03
2.860000e-06	-3.549701e-06	-1.987572e-08	-2.544021e+01	-1.300815e+03
2.870000e-06	-3.625204e-06	-2.003822e-08	-2.598133e+01	-1.310957e+03
2.880000e-06	-3.699316e-06	-2.018686e-08	-2.651248e+01	-1.320692e+03
2.890000e-06	-3.772122e-06	-2.032371e-08	-2.703427e+01	-1.330122e+03
2.900000e-06	-3.843738e-06	-2.045302e-08	-2.754753e+01	-1.339196e+03
2.910000e-06	-3.913956e-06	-2.057634e-08	-2.805077e+01	-1.347768e+03
2.920000e-06	-3.982547e-06	-2.069090e-08	-2.854236e+01	-1.355660e+03
2.930000e-06	-4.049688e-06	-2.079556e-08	-2.902355e+01	-1.362748e+03
2.940000e-06	-4.115452e-06	-2.089218e-08	-2.949486e+01	-1.369006e+03
