# Temperatura_=_93.8
# Concentracion g/m^3_=_41000.0
# C_Vs_to_Am_M_A/Vsm_=_65563218390.804596
# pendiente_HvsI_1/m_=_3716.3
# ordenada_HvsI_A/m_=_1297.0
# frecuencia_Hz_=_301584.9377219062

Tiempo_(s)	Campo_(V.s)	Magnetizacion_(V.s)	Campo_(kA/m)	Magnetizacion_(A/m)
0.000000e+00	-5.331092e-06	-2.226920e-08	-3.835092e+01	-1.456459e+03
1.000000e-08	-5.328659e-06	-2.226243e-08	-3.833343e+01	-1.456283e+03
2.000000e-08	-5.324452e-06	-2.225437e-08	-3.830316e+01	-1.456177e+03
3.000000e-08	-5.318624e-06	-2.224646e-08	-3.826123e+01	-1.456031e+03
4.000000e-08	-5.311197e-06	-2.223740e-08	-3.820781e+01	-1.455715e+03
5.000000e-08	-5.301961e-06	-2.222600e-08	-3.814136e+01	-1.455117e+03
6.000000e-08	-5.290717e-06	-2.220935e-08	-3.806048e+01	-1.454178e+03
7.000000e-08	-5.277542e-06	-2.218336e-08	-3.796570e+01	-1.452910e+03
8.000000e-08	-5.262299e-06	-2.218763e-08	-3.785604e+01	-1.451392e+03
9.000000e-08	-5.244826e-06	-2.220534e-08	-3.773034e+01	-1.449749e+03
1.000000e-07	-5.225280e-06	-2.217476e-08	-3.758974e+01	-1.448111e+03
1.100000e-07	-5.203821e-06	-2.213942e-08	-3.743536e+01	-1.446576e+03
1.200000e-07	-5.180707e-06	-2.208173e-08	-3.726909e+01	-1.445185e+03
1.300000e-07	-5.156188e-06	-2.198475e-08	-3.709270e+01	-1.443907e+03
1.400000e-07	-5.130128e-06	-2.204018e-08	-3.690522e+01	-1.442655e+03
1.500000e-07	-5.102370e-06	-2.204491e-08	-3.670554e+01	-1.441311e+03
1.600000e-07	-5.073094e-06	-2.195300e-08	-3.649493e+01	-1.439767e+03
1.700000e-07	-5.042268e-06	-2.200560e-08	-3.627317e+01	-1.437952e+03
1.800000e-07	-5.009427e-06	-2.193561e-08	-3.603692e+01	-1.435855e+03
1.900000e-07	-4.974615e-06	-2.182126e-08	-3.578650e+01	-1.433521e+03
2.000000e-07	-4.938238e-06	-2.185709e-08	-3.552480e+01	-1.431035e+03
2.100000e-07	-4.900223e-06	-2.179148e-08	-3.525133e+01	-1.428485e+03
2.200000e-07	-4.860498e-06	-2.171776e-08	-3.496556e+01	-1.425937e+03
2.300000e-07	-4.818893e-06	-2.172129e-08	-3.466625e+01	-1.423400e+03
2.400000e-07	-4.775355e-06	-2.166371e-08	-3.435305e+01	-1.420830e+03
2.500000e-07	-4.730096e-06	-2.163567e-08	-3.402747e+01	-1.418135e+03
2.600000e-07	-4.683040e-06	-2.158050e-08	-3.368896e+01	-1.415209e+03
2.700000e-07	-4.633959e-06	-2.149938e-08	-3.333587e+01	-1.411963e+03
2.800000e-07	-4.582777e-06	-2.145316e-08	-3.296768e+01	-1.408355e+03
2.900000e-07	-4.529724e-06	-2.140356e-08	-3.258603e+01	-1.404407e+03
3.000000e-07	-4.475093e-06	-2.134293e-08	-3.219302e+01	-1.400200e+03
3.100000e-07	-4.418788e-06	-2.127409e-08	-3.178798e+01	-1.395849e+03
3.200000e-07	-4.360647e-06	-2.121758e-08	-3.136972e+01	-1.391472e+03
3.300000e-07	-4.300929e-06	-2.114994e-08	-3.094012e+01	-1.387146e+03
3.400000e-07	-4.239794e-06	-2.107630e-08	-3.050032e+01	-1.382888e+03
3.500000e-07	-4.177223e-06	-2.101930e-08	-3.005020e+01	-1.378648e+03
3.600000e-07	-4.113216e-06	-2.094895e-08	-2.958974e+01	-1.374318e+03
3.700000e-07	-4.047645e-06	-2.087603e-08	-2.911803e+01	-1.369772e+03
3.800000e-07	-3.980453e-06	-2.079253e-08	-2.863467e+01	-1.364900e+03
3.900000e-07	-3.911770e-06	-2.069586e-08	-2.814058e+01	-1.359644e+03
4.000000e-07	-3.841821e-06	-2.062274e-08	-2.763737e+01	-1.354018e+03
4.100000e-07	-3.770670e-06	-2.054235e-08	-2.712553e+01	-1.348103e+03
4.200000e-07	-3.698254e-06	-2.045623e-08	-2.660458e+01	-1.342019e+03
4.300000e-07	-3.624365e-06	-2.036875e-08	-2.607303e+01	-1.335893e+03
4.400000e-07	-3.548873e-06	-2.028111e-08	-2.552996e+01	-1.329809e+03
4.500000e-07	-3.471961e-06	-2.018751e-08	-2.497667e+01	-1.323787e+03
4.600000e-07	-3.393740e-06	-2.008472e-08	-2.441396e+01	-1.317764e+03
4.700000e-07	-3.314182e-06	-1.998441e-08	-2.384163e+01	-1.311618e+03
4.800000e-07	-3.233306e-06	-1.987653e-08	-2.325983e+01	-1.305198e+03
4.900000e-07	-3.151289e-06	-1.976992e-08	-2.266981e+01	-1.298372e+03
5.000000e-07	-3.068245e-06	-1.965800e-08	-2.207241e+01	-1.291063e+03
5.100000e-07	-2.984265e-06	-1.953888e-08	-2.146827e+01	-1.283278e+03
5.200000e-07	-2.899458e-06	-1.941817e-08	-2.085818e+01	-1.275101e+03
5.300000e-07	-2.813773e-06	-1.929783e-08	-2.024178e+01	-1.266668e+03
5.400000e-07	-2.727121e-06	-1.917667e-08	-1.961842e+01	-1.258120e+03
5.500000e-07	-2.639489e-06	-1.904945e-08	-1.898802e+01	-1.249559e+03
5.600000e-07	-2.550868e-06	-1.891540e-08	-1.835049e+01	-1.241005e+03
5.700000e-07	-2.461157e-06	-1.877244e-08	-1.770513e+01	-1.232388e+03
5.800000e-07	-2.370351e-06	-1.862444e-08	-1.705189e+01	-1.223563e+03
5.900000e-07	-2.278601e-06	-1.847105e-08	-1.639185e+01	-1.214345e+03
6.000000e-07	-2.186141e-06	-1.831492e-08	-1.572671e+01	-1.204571e+03
6.100000e-07	-2.092981e-06	-1.815815e-08	-1.505653e+01	-1.194140e+03
6.200000e-07	-1.999031e-06	-1.799700e-08	-1.438067e+01	-1.183051e+03
6.300000e-07	-1.904384e-06	-1.782887e-08	-1.369980e+01	-1.171396e+03
6.400000e-07	-1.809108e-06	-1.765423e-08	-1.301440e+01	-1.159333e+03
6.500000e-07	-1.713188e-06	-1.747157e-08	-1.232437e+01	-1.147029e+03
6.600000e-07	-1.616622e-06	-1.728176e-08	-1.162969e+01	-1.134599e+03
6.700000e-07	-1.519454e-06	-1.708520e-08	-1.093068e+01	-1.122062e+03
6.800000e-07	-1.421651e-06	-1.688011e-08	-1.022711e+01	-1.109317e+03
6.900000e-07	-1.323262e-06	-1.666824e-08	-9.519308e+00	-1.096163e+03
7.000000e-07	-1.224383e-06	-1.644709e-08	-8.807992e+00	-1.082349e+03
7.100000e-07	-1.125013e-06	-1.621867e-08	-8.093144e+00	-1.067641e+03
7.200000e-07	-1.025234e-06	-1.598271e-08	-7.375351e+00	-1.051888e+03
7.300000e-07	-9.252159e-07	-1.573920e-08	-6.655838e+00	-1.035064e+03
7.400000e-07	-8.249800e-07	-1.548445e-08	-5.934759e+00	-1.017266e+03
7.500000e-07	-7.245249e-07	-1.521492e-08	-5.212103e+00	-9.986730e+02
7.600000e-07	-6.238814e-07	-1.492808e-08	-4.488092e+00	-9.794718e+02
7.700000e-07	-5.230618e-07	-1.462209e-08	-3.762814e+00	-9.597693e+02
7.800000e-07	-4.220525e-07	-1.430052e-08	-3.036170e+00	-9.395209e+02
7.900000e-07	-3.208376e-07	-1.396355e-08	-2.308049e+00	-9.184997e+02
8.000000e-07	-2.194833e-07	-1.361104e-08	-1.578924e+00	-8.963173e+02
8.100000e-07	-1.180218e-07	-1.323822e-08	-8.490278e-01	-8.724967e+02
8.200000e-07	-1.646920e-08	-1.284181e-08	-1.184765e-01	-8.465749e+02
8.300000e-07	8.513221e-08	-1.241740e-08	6.124259e-01	-8.182050e+02
8.400000e-07	1.867239e-07	-1.195924e-08	1.343258e+00	-7.872216e+02
8.500000e-07	2.882265e-07	-1.146416e-08	2.073450e+00	-7.536392e+02
8.600000e-07	3.895564e-07	-1.092824e-08	2.802399e+00	-7.175736e+02
8.700000e-07	4.907457e-07	-1.034740e-08	3.530337e+00	-6.790948e+02
8.800000e-07	5.918229e-07	-9.713982e-09	4.257469e+00	-6.380462e+02
8.900000e-07	6.926921e-07	-9.020879e-09	4.983104e+00	-5.938804e+02
9.000000e-07	7.933708e-07	-8.256858e-09	5.707368e+00	-5.455642e+02
9.100000e-07	8.938616e-07	-7.408645e-09	6.430281e+00	-4.915985e+02
9.200000e-07	9.940425e-07	-6.459005e-09	7.150964e+00	-4.301733e+02
9.300000e-07	1.093896e-06	-5.384391e-09	7.869295e+00	-3.594488e+02
9.400000e-07	1.193402e-06	-4.161139e-09	8.585124e+00	-2.779165e+02
9.500000e-07	1.292463e-06	-2.767295e-09	9.297747e+00	-1.847757e+02
9.600000e-07	1.391056e-06	-1.193384e-09	1.000701e+01	-8.024231e+01
9.700000e-07	1.489097e-06	5.515822e-10	1.071230e+01	3.427966e+01
9.800000e-07	1.586391e-06	2.431926e-09	1.141221e+01	1.562150e+02
9.900000e-07	1.682931e-06	4.385713e-09	1.210670e+01	2.820326e+02
1.000000e-06	1.778778e-06	6.332992e-09	1.279621e+01	4.076318e+02
1.010000e-06	1.873955e-06	8.192026e-09	1.348090e+01	5.288326e+02
1.020000e-06	1.968515e-06	9.898484e-09	1.416114e+01	6.418849e+02
1.030000e-06	2.062351e-06	1.141294e-08	1.483619e+01	7.439023e+02
1.040000e-06	2.155461e-06	1.272303e-08	1.550600e+01	8.331468e+02
1.050000e-06	2.247954e-06	1.383964e-08	1.617138e+01	9.091195e+02
1.060000e-06	2.339773e-06	1.478316e-08	1.683191e+01	9.724531e+02
1.070000e-06	2.430842e-06	1.557665e-08	1.748705e+01	1.024643e+03
1.080000e-06	2.520992e-06	1.624493e-08	1.813557e+01	1.067679e+03
1.090000e-06	2.610061e-06	1.681183e-08	1.877631e+01	1.103665e+03
1.100000e-06	2.698010e-06	1.729709e-08	1.940900e+01	1.134486e+03
1.110000e-06	2.784977e-06	1.771518e-08	2.003463e+01	1.161599e+03
1.120000e-06	2.871084e-06	1.807757e-08	2.065407e+01	1.185945e+03
1.130000e-06	2.956276e-06	1.839591e-08	2.126692e+01	1.208005e+03
1.140000e-06	3.040562e-06	1.867811e-08	2.187326e+01	1.227930e+03
1.150000e-06	3.123936e-06	1.893098e-08	2.247304e+01	1.245719e+03
1.160000e-06	3.206238e-06	1.915918e-08	2.306510e+01	1.261385e+03
1.170000e-06	3.287257e-06	1.936592e-08	2.364794e+01	1.275063e+03
1.180000e-06	3.367021e-06	1.955648e-08	2.422175e+01	1.287040e+03
1.190000e-06	3.445625e-06	1.973290e-08	2.478722e+01	1.297727e+03
1.200000e-06	3.523047e-06	1.989514e-08	2.534417e+01	1.307569e+03
1.210000e-06	3.599222e-06	2.004598e-08	2.589216e+01	1.316948e+03
1.220000e-06	3.673982e-06	2.018848e-08	2.642997e+01	1.326108e+03
1.230000e-06	3.747145e-06	2.032201e-08	2.695629e+01	1.335113e+03
1.240000e-06	3.818792e-06	2.044591e-08	2.747171e+01	1.343870e+03
1.250000e-06	3.889102e-06	2.056093e-08	2.797751e+01	1.352186e+03
1.260000e-06	3.958148e-06	2.066746e-08	2.847421e+01	1.359855e+03
1.270000e-06	4.025915e-06	2.076455e-08	2.896172e+01	1.366736e+03
1.280000e-06	4.092167e-06	2.085622e-08	2.943832e+01	1.372809e+03
1.290000e-06	4.156728e-06	2.094505e-08	2.990276e+01	1.378185e+03
1.300000e-06	4.219760e-06	2.103075e-08	3.035620e+01	1.383078e+03
1.310000e-06	4.281370e-06	2.111159e-08	3.079942e+01	1.387740e+03
1.320000e-06	4.341670e-06	2.118755e-08	3.123320e+01	1.392395e+03
1.330000e-06	4.400558e-06	2.126142e-08	3.165683e+01	1.397175e+03
1.340000e-06	4.457653e-06	2.133209e-08	3.206756e+01	1.402094e+03
1.350000e-06	4.512993e-06	2.139910e-08	3.246567e+01	1.407051e+03
1.360000e-06	4.566724e-06	2.146154e-08	3.285220e+01	1.411874e+03
1.370000e-06	4.618693e-06	2.152046e-08	3.322605e+01	1.416375e+03
1.380000e-06	4.668673e-06	2.157576e-08	3.358560e+01	1.420414e+03
1.390000e-06	4.716673e-06	2.162839e-08	3.393090e+01	1.423942e+03
1.400000e-06	4.762992e-06	2.167941e-08	3.426412e+01	1.427007e+03
1.410000e-06	4.807830e-06	2.172777e-08	3.458667e+01	1.429742e+03
1.420000e-06	4.851104e-06	2.177496e-08	3.489798e+01	1.432317e+03
1.430000e-06	4.892517e-06	2.182081e-08	3.519589e+01	1.434886e+03
1.440000e-06	4.932114e-06	2.186334e-08	3.548075e+01	1.437542e+03
1.450000e-06	4.970084e-06	2.190080e-08	3.575390e+01	1.440287e+03
1.460000e-06	5.006473e-06	2.193348e-08	3.601568e+01	1.443042e+03
1.470000e-06	5.041191e-06	2.196206e-08	3.626543e+01	1.445668e+03
1.480000e-06	5.073963e-06	2.198813e-08	3.650119e+01	1.448022e+03
1.490000e-06	5.104883e-06	2.201192e-08	3.672362e+01	1.449997e+03
1.500000e-06	5.134149e-06	2.203604e-08	3.693416e+01	1.451558e+03
1.510000e-06	5.161733e-06	2.206124e-08	3.713258e+01	1.452756e+03
1.520000e-06	5.187415e-06	2.208615e-08	3.731734e+01	1.453711e+03
1.530000e-06	5.211071e-06	2.210881e-08	3.748752e+01	1.454572e+03
1.540000e-06	5.232849e-06	2.212786e-08	3.764419e+01	1.455475e+03
1.550000e-06	5.252958e-06	2.214432e-08	3.778884e+01	1.456500e+03
1.560000e-06	5.271296e-06	2.215682e-08	3.792076e+01	1.457650e+03
1.570000e-06	5.287588e-06	2.216725e-08	3.803796e+01	1.458850e+03
1.580000e-06	5.301841e-06	2.217610e-08	3.814050e+01	1.459973e+03
1.590000e-06	5.314179e-06	2.218377e-08	3.822925e+01	1.460883e+03
1.600000e-06	5.324389e-06	2.219230e-08	3.830271e+01	1.461473e+03
1.610000e-06	5.332400e-06	2.220173e-08	3.836033e+01	1.461703e+03
1.620000e-06	5.338541e-06	2.221061e-08	3.840452e+01	1.461609e+03
1.630000e-06	5.343036e-06	2.221533e-08	3.843685e+01	1.461291e+03
1.640000e-06	5.345672e-06	2.221649e-08	3.845581e+01	1.460881e+03
1.650000e-06	5.346254e-06	2.221443e-08	3.846000e+01	1.460504e+03
1.660000e-06	5.345000e-06	2.220661e-08	3.845097e+01	1.460234e+03
1.670000e-06	5.342138e-06	2.219933e-08	3.843039e+01	1.460080e+03
1.680000e-06	5.337670e-06	2.219218e-08	3.839825e+01	1.459974e+03
1.690000e-06	5.331346e-06	2.218547e-08	3.835275e+01	1.459802e+03
1.700000e-06	5.323182e-06	2.217966e-08	3.829402e+01	1.459433e+03
1.710000e-06	5.313414e-06	2.217190e-08	3.822376e+01	1.458765e+03
1.720000e-06	5.302012e-06	2.217303e-08	3.814173e+01	1.457751e+03
1.730000e-06	5.288735e-06	2.214588e-08	3.804622e+01	1.456419e+03
1.740000e-06	5.273404e-06	2.207404e-08	3.793593e+01	1.454863e+03
1.750000e-06	5.255830e-06	2.205223e-08	3.780950e+01	1.453210e+03
1.760000e-06	5.235717e-06	2.204076e-08	3.766482e+01	1.451586e+03
1.770000e-06	5.213196e-06	2.207188e-08	3.750281e+01	1.450081e+03
1.780000e-06	5.189189e-06	2.211764e-08	3.733010e+01	1.448719e+03
1.790000e-06	5.164379e-06	2.198118e-08	3.715162e+01	1.447454e+03
1.800000e-06	5.138228e-06	2.195459e-08	3.696350e+01	1.446192e+03
1.810000e-06	5.110105e-06	2.198364e-08	3.676119e+01	1.444813e+03
1.820000e-06	5.080193e-06	2.188096e-08	3.654600e+01	1.443214e+03
1.830000e-06	5.048465e-06	2.196939e-08	3.631776e+01	1.441336e+03
1.840000e-06	5.014799e-06	2.201162e-08	3.607557e+01	1.439182e+03
1.850000e-06	4.979557e-06	2.188870e-08	3.582205e+01	1.436807e+03
1.860000e-06	4.942564e-06	2.193612e-08	3.555592e+01	1.434300e+03
1.870000e-06	4.903595e-06	2.189604e-08	3.527559e+01	1.431746e+03
1.880000e-06	4.862954e-06	2.181163e-08	3.498323e+01	1.429200e+03
1.890000e-06	4.820594e-06	2.181520e-08	3.467850e+01	1.426661e+03
1.900000e-06	4.776557e-06	2.170504e-08	3.436170e+01	1.424072e+03
1.910000e-06	4.730776e-06	2.172109e-08	3.403236e+01	1.421337e+03
1.920000e-06	4.683119e-06	2.171576e-08	3.368952e+01	1.418348e+03
1.930000e-06	4.633843e-06	2.159599e-08	3.333504e+01	1.415025e+03
1.940000e-06	4.582770e-06	2.156696e-08	3.296763e+01	1.411339e+03
1.950000e-06	4.529703e-06	2.149634e-08	3.258588e+01	1.407326e+03
1.960000e-06	4.474722e-06	2.144879e-08	3.219036e+01	1.403077e+03
1.970000e-06	4.417969e-06	2.138365e-08	3.178208e+01	1.398711e+03
1.980000e-06	4.359677e-06	2.130102e-08	3.136274e+01	1.394339e+03
1.990000e-06	4.299954e-06	2.128357e-08	3.093311e+01	1.390028e+03
2.000000e-06	4.238804e-06	2.118284e-08	3.049320e+01	1.385780e+03
2.010000e-06	4.175982e-06	2.111256e-08	3.004127e+01	1.381530e+03
2.020000e-06	4.111454e-06	2.104587e-08	2.957707e+01	1.377164e+03
2.030000e-06	4.045551e-06	2.097270e-08	2.910297e+01	1.372555e+03
2.040000e-06	3.978280e-06	2.092227e-08	2.861904e+01	1.367603e+03
2.050000e-06	3.909602e-06	2.080814e-08	2.812498e+01	1.362264e+03
2.060000e-06	3.839439e-06	2.073840e-08	2.762024e+01	1.356566e+03
2.070000e-06	3.767805e-06	2.065540e-08	2.710492e+01	1.350603e+03
2.080000e-06	3.694893e-06	2.055745e-08	2.658040e+01	1.344500e+03
2.090000e-06	3.620675e-06	2.047010e-08	2.604649e+01	1.338377e+03
2.100000e-06	3.545148e-06	2.036992e-08	2.550316e+01	1.332307e+03
2.110000e-06	3.468106e-06	2.029293e-08	2.494894e+01	1.326291e+03
2.120000e-06	3.389505e-06	2.019178e-08	2.438350e+01	1.320253e+03
2.130000e-06	3.309705e-06	2.009098e-08	2.380943e+01	1.314060e+03
2.140000e-06	3.228837e-06	1.998287e-08	2.322768e+01	1.307563e+03
2.150000e-06	3.146872e-06	1.987570e-08	2.263804e+01	1.300636e+03
2.160000e-06	3.063795e-06	1.977307e-08	2.204040e+01	1.293221e+03
2.170000e-06	2.979656e-06	1.965498e-08	2.143511e+01	1.285342e+03
2.180000e-06	2.894455e-06	1.953860e-08	2.082219e+01	1.277097e+03
2.190000e-06	2.808053e-06	1.941341e-08	2.020063e+01	1.268627e+03
2.200000e-06	2.720463e-06	1.928768e-08	1.957052e+01	1.260070e+03
2.210000e-06	2.631894e-06	1.915739e-08	1.893338e+01	1.251510e+03
2.220000e-06	2.542491e-06	1.902835e-08	1.829022e+01	1.242951e+03
2.230000e-06	2.452258e-06	1.889687e-08	1.764111e+01	1.234304e+03
2.240000e-06	2.361248e-06	1.875589e-08	1.698640e+01	1.225409e+03
2.250000e-06	2.269464e-06	1.860751e-08	1.632612e+01	1.216084e+03
2.260000e-06	2.176881e-06	1.845015e-08	1.566009e+01	1.206173e+03
2.270000e-06	2.083458e-06	1.829147e-08	1.498803e+01	1.195598e+03
2.280000e-06	1.989263e-06	1.812880e-08	1.431040e+01	1.184376e+03
2.290000e-06	1.894306e-06	1.795986e-08	1.362730e+01	1.172619e+03
2.300000e-06	1.798460e-06	1.778467e-08	1.293780e+01	1.160490e+03
2.310000e-06	1.701978e-06	1.760380e-08	1.224372e+01	1.148151e+03
2.320000e-06	1.605083e-06	1.741557e-08	1.154668e+01	1.135700e+03
2.330000e-06	1.507722e-06	1.721732e-08	1.084628e+01	1.123130e+03
2.340000e-06	1.409844e-06	1.701098e-08	1.014217e+01	1.110316e+03
2.350000e-06	1.311463e-06	1.679788e-08	9.434428e+00	1.097042e+03
2.360000e-06	1.212666e-06	1.657665e-08	8.723705e+00	1.083053e+03
2.370000e-06	1.113571e-06	1.634489e-08	8.010834e+00	1.068130e+03
2.380000e-06	1.014229e-06	1.610298e-08	7.296182e+00	1.052145e+03
2.390000e-06	9.146709e-07	1.585128e-08	6.579979e+00	1.035099e+03
2.400000e-06	8.147986e-07	1.558804e-08	5.861516e+00	1.017113e+03
2.410000e-06	7.145963e-07	1.531218e-08	5.140679e+00	9.983748e+02
2.420000e-06	6.141445e-07	1.502368e-08	4.418046e+00	9.790608e+02
2.430000e-06	5.134345e-07	1.472185e-08	3.693557e+00	9.592504e+02
2.440000e-06	4.125084e-07	1.440400e-08	2.967512e+00	9.388610e+02
2.450000e-06	3.114681e-07	1.406688e-08	2.240646e+00	9.176274e+02
2.460000e-06	2.102800e-07	1.370846e-08	1.512717e+00	8.951346e+02
2.470000e-06	1.089359e-07	1.332657e-08	7.836653e-01	8.708995e+02
2.480000e-06	7.549019e-09	1.292129e-08	5.430630e-02	8.444760e+02
2.490000e-06	-9.387562e-08	1.248861e-08	-6.753245e-01	8.155526e+02
2.500000e-06	-1.952787e-07	1.202398e-08	-1.404800e+00	7.840052e+02
2.510000e-06	-2.965861e-07	1.152326e-08	-2.133587e+00	7.498793e+02
2.520000e-06	-3.977662e-07	1.098162e-08	-2.861459e+00	7.132949e+02
2.530000e-06	-4.988183e-07	1.039347e-08	-3.588410e+00	6.742889e+02
2.540000e-06	-5.996656e-07	9.751985e-09	-4.313888e+00	6.326336e+02
2.550000e-06	-7.002424e-07	9.048358e-09	-5.037419e+00	5.876818e+02
2.560000e-06	-8.005344e-07	8.270503e-09	-5.758902e+00	5.382943e+02
2.570000e-06	-9.005414e-07	7.404287e-09	-6.478334e+00	4.828878e+02
2.580000e-06	-1.000265e-06	6.431681e-09	-7.195728e+00	4.196187e+02
2.590000e-06	-1.099639e-06	5.332428e-09	-7.910605e+00	3.466859e+02
2.600000e-06	-1.198671e-06	4.085623e-09	-8.623024e+00	2.627021e+02
2.610000e-06	-1.297389e-06	2.671781e-09	-9.333184e+00	1.670621e+02
2.620000e-06	-1.395616e-06	1.077657e-09	-1.003981e+01	6.022792e+01
2.630000e-06	-1.493240e-06	-6.870273e-10	-1.074210e+01	-5.613727e+01
2.640000e-06	-1.590406e-06	-2.584498e-09	-1.144110e+01	-1.792287e+02
2.650000e-06	-1.687105e-06	-4.551183e-09	-1.213673e+01	-3.053560e+02
2.660000e-06	-1.783214e-06	-6.505629e-09	-1.282812e+01	-4.303581e+02
2.670000e-06	-1.878758e-06	-8.364530e-09	-1.351545e+01	-5.501056e+02
2.680000e-06	-1.973685e-06	-1.006110e-08	-1.419834e+01	-6.610009e+02
2.690000e-06	-2.067731e-06	-1.156257e-08	-1.487489e+01	-7.603861e+02
2.700000e-06	-2.160808e-06	-1.286017e-08	-1.554447e+01	-8.467879e+02
2.710000e-06	-2.252984e-06	-1.396196e-08	-1.620756e+01	-9.199652e+02
2.720000e-06	-2.344378e-06	-1.489069e-08	-1.686504e+01	-9.807628e+02
2.730000e-06	-2.435017e-06	-1.567378e-08	-1.751708e+01	-1.030815e+03
2.740000e-06	-2.524753e-06	-1.633799e-08	-1.816262e+01	-1.072167e+03
2.750000e-06	-2.613589e-06	-1.690193e-08	-1.880170e+01	-1.106900e+03
2.760000e-06	-2.701654e-06	-1.738289e-08	-1.943522e+01	-1.136822e+03
2.770000e-06	-2.788951e-06	-1.779607e-08	-2.006321e+01	-1.163280e+03
2.780000e-06	-2.875203e-06	-1.815438e-08	-2.068370e+01	-1.187111e+03
2.790000e-06	-2.960183e-06	-1.846968e-08	-2.129503e+01	-1.208709e+03
2.800000e-06	-3.044080e-06	-1.874980e-08	-2.189857e+01	-1.228179e+03
2.810000e-06	-3.127038e-06	-1.900074e-08	-2.249536e+01	-1.245510e+03
2.820000e-06	-3.208945e-06	-1.922774e-08	-2.308458e+01	-1.260734e+03
2.830000e-06	-3.289779e-06	-1.943524e-08	-2.366608e+01	-1.274019e+03
2.840000e-06	-3.369478e-06	-1.962484e-08	-2.423943e+01	-1.285683e+03
2.850000e-06	-3.447863e-06	-1.980004e-08	-2.480331e+01	-1.296153e+03
2.860000e-06	-3.524719e-06	-1.996273e-08	-2.535620e+01	-1.305868e+03
2.870000e-06	-3.600133e-06	-2.011357e-08	-2.589872e+01	-1.315186e+03
2.880000e-06	-3.674250e-06	-2.025386e-08	-2.643190e+01	-1.324314e+03
2.890000e-06	-3.747080e-06	-2.038379e-08	-2.695583e+01	-1.333279e+03
2.900000e-06	-3.818640e-06	-2.050438e-08	-2.747062e+01	-1.341960e+03
2.910000e-06	-3.888698e-06	-2.061763e-08	-2.797460e+01	-1.350154e+03
2.920000e-06	-3.957178e-06	-2.072474e-08	-2.846723e+01	-1.357663e+03
2.930000e-06	-4.024251e-06	-2.082447e-08	-2.894975e+01	-1.364369e+03
2.940000e-06	-4.089958e-06	-2.091776e-08	-2.942243e+01	-1.370280e+03
