# Temperatura_=_31.88
# Concentracion g/m^3_=_41000.0
# C_Vs_to_Am_M_A/Vsm_=_65563218390.804596
# pendiente_HvsI_1/m_=_3716.3
# ordenada_HvsI_A/m_=_1297.0
# frecuencia_Hz_=_301598.11679421895

Tiempo_(s)	Campo_(V.s)	Magnetizacion_(V.s)	Campo_(kA/m)	Magnetizacion_(A/m)
0.000000e+00	-5.341002e-06	-2.319399e-08	-3.834861e+01	-1.516615e+03
1.000000e-08	-5.338632e-06	-2.319051e-08	-3.833159e+01	-1.516148e+03
2.000000e-08	-5.334478e-06	-2.318211e-08	-3.830177e+01	-1.515726e+03
3.000000e-08	-5.328723e-06	-2.317500e-08	-3.826045e+01	-1.515370e+03
4.000000e-08	-5.321369e-06	-2.316642e-08	-3.820764e+01	-1.515044e+03
5.000000e-08	-5.312199e-06	-2.315430e-08	-3.814181e+01	-1.514666e+03
6.000000e-08	-5.300945e-06	-2.313747e-08	-3.806100e+01	-1.514134e+03
7.000000e-08	-5.287786e-06	-2.310766e-08	-3.796652e+01	-1.513358e+03
8.000000e-08	-5.272596e-06	-2.310866e-08	-3.785745e+01	-1.512294e+03
9.000000e-08	-5.255115e-06	-2.315100e-08	-3.773193e+01	-1.510953e+03
1.000000e-07	-5.235584e-06	-2.311260e-08	-3.759170e+01	-1.509407e+03
1.100000e-07	-5.214210e-06	-2.305595e-08	-3.743824e+01	-1.507766e+03
1.200000e-07	-5.191165e-06	-2.301908e-08	-3.727277e+01	-1.506147e+03
1.300000e-07	-5.166651e-06	-2.289027e-08	-3.709676e+01	-1.504644e+03
1.400000e-07	-5.140531e-06	-2.296077e-08	-3.690922e+01	-1.503292e+03
1.500000e-07	-5.112709e-06	-2.303466e-08	-3.670945e+01	-1.502066e+03
1.600000e-07	-5.083426e-06	-2.285498e-08	-3.649920e+01	-1.500881e+03
1.700000e-07	-5.052699e-06	-2.294249e-08	-3.627858e+01	-1.499618e+03
1.800000e-07	-5.019995e-06	-2.294244e-08	-3.604377e+01	-1.498156e+03
1.900000e-07	-4.985223e-06	-2.273529e-08	-3.579410e+01	-1.496405e+03
2.000000e-07	-4.948913e-06	-2.281990e-08	-3.553339e+01	-1.494328e+03
2.100000e-07	-4.910986e-06	-2.278037e-08	-3.526108e+01	-1.491947e+03
2.200000e-07	-4.871257e-06	-2.264749e-08	-3.497582e+01	-1.489333e+03
2.300000e-07	-4.829568e-06	-2.267778e-08	-3.467649e+01	-1.486575e+03
2.400000e-07	-4.785900e-06	-2.262396e-08	-3.436295e+01	-1.483758e+03
2.500000e-07	-4.740498e-06	-2.261384e-08	-3.403697e+01	-1.480929e+03
2.600000e-07	-4.693275e-06	-2.259137e-08	-3.369790e+01	-1.478086e+03
2.700000e-07	-4.644043e-06	-2.246206e-08	-3.334441e+01	-1.475180e+03
2.800000e-07	-4.592688e-06	-2.241303e-08	-3.297569e+01	-1.472131e+03
2.900000e-07	-4.539451e-06	-2.238700e-08	-3.259344e+01	-1.468856e+03
3.000000e-07	-4.484680e-06	-2.234790e-08	-3.220018e+01	-1.465297e+03
3.100000e-07	-4.428346e-06	-2.228885e-08	-3.179570e+01	-1.461439e+03
3.200000e-07	-4.370179e-06	-2.221891e-08	-3.137806e+01	-1.457318e+03
3.300000e-07	-4.310341e-06	-2.215415e-08	-3.094842e+01	-1.453004e+03
3.400000e-07	-4.249078e-06	-2.206851e-08	-3.050855e+01	-1.448586e+03
3.500000e-07	-4.186394e-06	-2.201333e-08	-3.005847e+01	-1.444136e+03
3.600000e-07	-4.122289e-06	-2.195066e-08	-2.959820e+01	-1.439687e+03
3.700000e-07	-4.056575e-06	-2.188869e-08	-2.912637e+01	-1.435224e+03
3.800000e-07	-3.989254e-06	-2.181253e-08	-2.864300e+01	-1.430685e+03
3.900000e-07	-3.920505e-06	-2.169762e-08	-2.814938e+01	-1.425978e+03
4.000000e-07	-3.850487e-06	-2.163179e-08	-2.764665e+01	-1.421013e+03
4.100000e-07	-3.779295e-06	-2.156430e-08	-2.713549e+01	-1.415729e+03
4.200000e-07	-3.706835e-06	-2.147849e-08	-2.661522e+01	-1.410112e+03
4.300000e-07	-3.632825e-06	-2.138916e-08	-2.608383e+01	-1.404199e+03
4.400000e-07	-3.557148e-06	-2.129960e-08	-2.554046e+01	-1.398067e+03
4.500000e-07	-3.480071e-06	-2.121043e-08	-2.498705e+01	-1.391805e+03
4.600000e-07	-3.401722e-06	-2.111270e-08	-2.442450e+01	-1.385486e+03
4.700000e-07	-3.322028e-06	-2.101705e-08	-2.385230e+01	-1.379137e+03
4.800000e-07	-3.241005e-06	-2.091127e-08	-2.327055e+01	-1.372730e+03
4.900000e-07	-3.158813e-06	-2.080547e-08	-2.268041e+01	-1.366186e+03
5.000000e-07	-3.075594e-06	-2.069938e-08	-2.208289e+01	-1.359396e+03
5.100000e-07	-2.991473e-06	-2.058223e-08	-2.147889e+01	-1.352252e+03
5.200000e-07	-2.906534e-06	-2.046039e-08	-2.086903e+01	-1.344684e+03
5.300000e-07	-2.820673e-06	-2.033975e-08	-2.025255e+01	-1.336673e+03
5.400000e-07	-2.733892e-06	-2.021985e-08	-1.962946e+01	-1.328263e+03
5.500000e-07	-2.646201e-06	-2.009672e-08	-1.899983e+01	-1.319541e+03
5.600000e-07	-2.557492e-06	-1.996515e-08	-1.836290e+01	-1.310610e+03
5.700000e-07	-2.467623e-06	-1.982752e-08	-1.771763e+01	-1.301548e+03
5.800000e-07	-2.376654e-06	-1.967946e-08	-1.706447e+01	-1.292382e+03
5.900000e-07	-2.284818e-06	-1.952340e-08	-1.640509e+01	-1.283072e+03
6.000000e-07	-2.192249e-06	-1.936548e-08	-1.574043e+01	-1.273512e+03
6.100000e-07	-2.098928e-06	-1.920908e-08	-1.507039e+01	-1.263564e+03
6.200000e-07	-2.004819e-06	-1.904942e-08	-1.439468e+01	-1.253093e+03
6.300000e-07	-1.910079e-06	-1.887968e-08	-1.371444e+01	-1.242005e+03
6.400000e-07	-1.814760e-06	-1.870384e-08	-1.303005e+01	-1.230276e+03
6.500000e-07	-1.718771e-06	-1.852109e-08	-1.234085e+01	-1.217957e+03
6.600000e-07	-1.622069e-06	-1.833134e-08	-1.164652e+01	-1.205158e+03
6.700000e-07	-1.524665e-06	-1.813589e-08	-1.094716e+01	-1.192003e+03
6.800000e-07	-1.426577e-06	-1.793507e-08	-1.024288e+01	-1.178592e+03
6.900000e-07	-1.327863e-06	-1.772548e-08	-9.534108e+00	-1.164952e+03
7.000000e-07	-1.228643e-06	-1.750506e-08	-8.821703e+00	-1.151020e+03
7.100000e-07	-1.129086e-06	-1.727583e-08	-8.106883e+00	-1.136649e+03
7.200000e-07	-1.029241e-06	-1.703822e-08	-7.389988e+00	-1.121638e+03
7.300000e-07	-9.291167e-07	-1.679466e-08	-6.671095e+00	-1.105785e+03
7.400000e-07	-8.287588e-07	-1.654193e-08	-5.950522e+00	-1.088939e+03
7.500000e-07	-7.281596e-07	-1.627789e-08	-5.228215e+00	-1.071041e+03
7.600000e-07	-6.273371e-07	-1.599777e-08	-4.504305e+00	-1.052127e+03
7.700000e-07	-5.262827e-07	-1.570056e-08	-3.778731e+00	-1.032311e+03
7.800000e-07	-4.251035e-07	-1.539016e-08	-3.052260e+00	-1.011730e+03
7.900000e-07	-3.238206e-07	-1.506466e-08	-2.325045e+00	-9.904729e+02
8.000000e-07	-2.223767e-07	-1.472525e-08	-1.596673e+00	-9.685270e+02
8.100000e-07	-1.207887e-07	-1.437057e-08	-8.672677e-01	-9.457384e+02
8.200000e-07	-1.907867e-08	-1.399626e-08	-1.369856e-01	-9.218197e+02
8.300000e-07	8.264873e-08	-1.360041e-08	5.934212e-01	-8.963956e+02
8.400000e-07	1.843820e-07	-1.318332e-08	1.323870e+00	-8.690785e+02
8.500000e-07	2.861066e-07	-1.273861e-08	2.054257e+00	-8.395502e+02
8.600000e-07	3.877089e-07	-1.225857e-08	2.783765e+00	-8.076212e+02
8.700000e-07	4.891174e-07	-1.174356e-08	3.511883e+00	-7.732433e+02
8.800000e-07	5.903384e-07	-1.119391e-08	4.238653e+00	-7.364622e+02
8.900000e-07	6.913748e-07	-1.060502e-08	4.964099e+00	-6.973121e+02
9.000000e-07	7.922257e-07	-9.970264e-09	5.688212e+00	-6.556762e+02
9.100000e-07	8.928314e-07	-9.281574e-09	6.410565e+00	-6.111487e+02
9.200000e-07	9.931213e-07	-8.527505e-09	7.130651e+00	-5.629418e+02
9.300000e-07	1.093101e-06	-7.697584e-09	7.848512e+00	-5.098760e+02
9.400000e-07	1.192791e-06	-6.778131e-09	8.564288e+00	-4.504770e+02
9.500000e-07	1.292167e-06	-5.749432e-09	9.277808e+00	-3.831783e+02
9.600000e-07	1.391073e-06	-4.589995e-09	9.987962e+00	-3.066011e+02
9.700000e-07	1.489340e-06	-3.283010e-09	1.069352e+01	-2.198639e+02
9.800000e-07	1.586861e-06	-1.820343e-09	1.139373e+01	-1.228578e+02
9.900000e-07	1.683590e-06	-2.052774e-10	1.208824e+01	-1.642780e+01
1.000000e-06	1.779559e-06	1.542637e-09	1.277731e+01	9.758808e+01
1.010000e-06	1.874872e-06	3.382048e-09	1.346165e+01	2.164792e+02
1.020000e-06	1.969585e-06	5.247118e-09	1.414170e+01	3.369310e+02
1.030000e-06	2.063607e-06	7.068854e-09	1.481678e+01	4.553988e+02
1.040000e-06	2.156923e-06	8.787726e-09	1.548680e+01	5.685209e+02
1.050000e-06	2.249573e-06	1.036097e-08	1.615203e+01	6.734981e+02
1.060000e-06	2.341584e-06	1.176946e-08	1.681267e+01	7.683746e+02
1.070000e-06	2.432927e-06	1.301181e-08	1.746851e+01	8.521739e+02
1.080000e-06	2.523300e-06	1.409741e-08	1.811739e+01	9.248776e+02
1.090000e-06	2.612441e-06	1.504091e-08	1.875743e+01	9.872619e+02
1.100000e-06	2.700504e-06	1.586023e-08	1.938973e+01	1.040638e+03
1.110000e-06	2.787737e-06	1.657244e-08	2.001606e+01	1.086556e+03
1.120000e-06	2.874120e-06	1.719155e-08	2.063630e+01	1.126527e+03
1.130000e-06	2.959507e-06	1.773284e-08	2.124938e+01	1.161821e+03
1.140000e-06	3.043888e-06	1.820843e-08	2.185524e+01	1.193367e+03
1.150000e-06	3.127415e-06	1.862683e-08	2.245497e+01	1.221742e+03
1.160000e-06	3.209943e-06	1.899754e-08	2.304752e+01	1.247256e+03
1.170000e-06	3.291163e-06	1.933123e-08	2.363068e+01	1.270066e+03
1.180000e-06	3.371112e-06	1.963223e-08	2.420472e+01	1.290305e+03
1.190000e-06	3.449872e-06	1.990268e-08	2.477022e+01	1.308167e+03
1.200000e-06	3.527390e-06	2.014546e-08	2.532680e+01	1.323954e+03
1.210000e-06	3.603696e-06	2.036756e-08	2.587468e+01	1.338054e+03
1.220000e-06	3.678686e-06	2.057315e-08	2.641312e+01	1.350888e+03
1.230000e-06	3.752064e-06	2.076324e-08	2.693997e+01	1.362836e+03
1.240000e-06	3.823880e-06	2.093949e-08	2.745562e+01	1.374169e+03
1.250000e-06	3.894373e-06	2.110244e-08	2.796175e+01	1.385016e+03
1.260000e-06	3.963515e-06	2.125347e-08	2.845820e+01	1.395368e+03
1.270000e-06	4.031384e-06	2.139081e-08	2.894550e+01	1.405115e+03
1.280000e-06	4.097788e-06	2.151753e-08	2.942228e+01	1.414116e+03
1.290000e-06	4.162443e-06	2.163702e-08	2.988651e+01	1.422263e+03
1.300000e-06	4.225553e-06	2.174939e-08	3.033964e+01	1.429532e+03
1.310000e-06	4.287292e-06	2.185312e-08	3.078293e+01	1.436000e+03
1.320000e-06	4.347745e-06	2.194836e-08	3.121698e+01	1.441836e+03
1.330000e-06	4.406847e-06	2.203792e-08	3.164134e+01	1.447254e+03
1.340000e-06	4.464158e-06	2.212235e-08	3.205283e+01	1.452461e+03
1.350000e-06	4.519664e-06	2.220072e-08	3.245137e+01	1.457603e+03
1.360000e-06	4.573630e-06	2.227489e-08	3.283885e+01	1.462739e+03
1.370000e-06	4.625922e-06	2.234576e-08	3.321430e+01	1.467829e+03
1.380000e-06	4.676172e-06	2.241421e-08	3.357511e+01	1.472766e+03
1.390000e-06	4.724424e-06	2.248035e-08	3.392155e+01	1.477412e+03
1.400000e-06	4.771041e-06	2.254255e-08	3.425627e+01	1.481650e+03
1.410000e-06	4.816083e-06	2.260009e-08	3.457967e+01	1.485421e+03
1.420000e-06	4.859550e-06	2.265355e-08	3.489176e+01	1.488740e+03
1.430000e-06	4.901136e-06	2.270338e-08	3.519035e+01	1.491694e+03
1.440000e-06	4.940842e-06	2.274990e-08	3.547545e+01	1.494407e+03
1.450000e-06	4.978947e-06	2.279253e-08	3.574904e+01	1.497006e+03
1.460000e-06	5.015418e-06	2.283035e-08	3.601090e+01	1.499581e+03
1.470000e-06	5.050161e-06	2.286460e-08	3.626036e+01	1.502159e+03
1.480000e-06	5.082999e-06	2.289738e-08	3.649613e+01	1.504704e+03
1.490000e-06	5.113997e-06	2.292684e-08	3.671870e+01	1.507129e+03
1.500000e-06	5.143331e-06	2.295454e-08	3.692932e+01	1.509330e+03
1.510000e-06	5.171056e-06	2.298213e-08	3.712839e+01	1.511222e+03
1.520000e-06	5.196809e-06	2.300791e-08	3.731330e+01	1.512769e+03
1.530000e-06	5.220439e-06	2.303240e-08	3.748296e+01	1.513996e+03
1.540000e-06	5.242265e-06	2.305236e-08	3.763967e+01	1.514982e+03
1.550000e-06	5.262454e-06	2.306954e-08	3.778463e+01	1.515835e+03
1.560000e-06	5.280896e-06	2.308326e-08	3.791704e+01	1.516661e+03
1.570000e-06	5.297277e-06	2.309396e-08	3.803466e+01	1.517529e+03
1.580000e-06	5.311615e-06	2.310513e-08	3.813761e+01	1.518454e+03
1.590000e-06	5.324067e-06	2.311615e-08	3.822701e+01	1.519391e+03
1.600000e-06	5.334407e-06	2.312760e-08	3.830126e+01	1.520252e+03
1.610000e-06	5.342584e-06	2.313867e-08	3.835997e+01	1.520936e+03
1.620000e-06	5.348867e-06	2.314778e-08	3.840508e+01	1.521360e+03
1.630000e-06	5.353355e-06	2.315307e-08	3.843730e+01	1.521489e+03
1.640000e-06	5.355958e-06	2.315440e-08	3.845599e+01	1.521342e+03
1.650000e-06	5.356516e-06	2.315414e-08	3.846000e+01	1.520991e+03
1.660000e-06	5.355221e-06	2.314859e-08	3.845070e+01	1.520535e+03
1.670000e-06	5.352330e-06	2.314332e-08	3.842994e+01	1.520072e+03
1.680000e-06	5.347849e-06	2.313980e-08	3.839777e+01	1.519663e+03
1.690000e-06	5.341468e-06	2.313406e-08	3.835195e+01	1.519317e+03
1.700000e-06	5.333215e-06	2.312864e-08	3.829269e+01	1.518987e+03
1.710000e-06	5.323410e-06	2.312327e-08	3.822230e+01	1.518584e+03
1.720000e-06	5.312007e-06	2.312831e-08	3.814043e+01	1.518004e+03
1.730000e-06	5.298745e-06	2.311808e-08	3.804521e+01	1.517168e+03
1.740000e-06	5.283406e-06	2.301908e-08	3.793507e+01	1.516040e+03
1.750000e-06	5.265793e-06	2.300074e-08	3.780860e+01	1.514646e+03
1.760000e-06	5.245635e-06	2.301736e-08	3.766387e+01	1.513068e+03
1.770000e-06	5.223032e-06	2.303096e-08	3.750158e+01	1.511421e+03
1.780000e-06	5.198903e-06	2.312727e-08	3.732833e+01	1.509820e+03
1.790000e-06	5.174126e-06	2.295414e-08	3.715043e+01	1.508347e+03
1.800000e-06	5.148090e-06	2.289630e-08	3.696349e+01	1.507025e+03
1.810000e-06	5.119987e-06	2.302936e-08	3.676171e+01	1.505816e+03
1.820000e-06	5.090104e-06	2.282558e-08	3.654715e+01	1.504624e+03
1.830000e-06	5.058449e-06	2.286498e-08	3.631987e+01	1.503326e+03
1.840000e-06	5.024787e-06	2.300901e-08	3.607817e+01	1.501807e+03
1.850000e-06	4.989514e-06	2.278632e-08	3.582491e+01	1.499986e+03
1.860000e-06	4.952513e-06	2.283841e-08	3.555924e+01	1.497839e+03
1.870000e-06	4.913527e-06	2.287142e-08	3.527932e+01	1.495400e+03
1.880000e-06	4.872931e-06	2.273917e-08	3.498784e+01	1.492745e+03
1.890000e-06	4.830563e-06	2.279240e-08	3.468364e+01	1.489968e+03
1.900000e-06	4.786464e-06	2.261538e-08	3.436700e+01	1.487144e+03
1.910000e-06	4.740641e-06	2.260518e-08	3.403800e+01	1.484313e+03
1.920000e-06	4.692941e-06	2.272327e-08	3.369550e+01	1.481461e+03
1.930000e-06	4.643674e-06	2.254319e-08	3.334177e+01	1.478530e+03
1.940000e-06	4.592609e-06	2.250222e-08	3.297512e+01	1.475438e+03
1.950000e-06	4.539485e-06	2.243085e-08	3.259368e+01	1.472104e+03
1.960000e-06	4.484467e-06	2.237572e-08	3.219865e+01	1.468480e+03
1.970000e-06	4.427738e-06	2.235900e-08	3.179134e+01	1.464560e+03
1.980000e-06	4.369442e-06	2.223309e-08	3.137277e+01	1.460389e+03
1.990000e-06	4.309698e-06	2.226354e-08	3.094380e+01	1.456045e+03
2.000000e-06	4.248454e-06	2.218282e-08	3.050407e+01	1.451613e+03
2.010000e-06	4.185500e-06	2.207529e-08	3.005206e+01	1.447161e+03
2.020000e-06	4.120892e-06	2.201697e-08	2.958817e+01	1.442711e+03
2.030000e-06	4.054912e-06	2.193220e-08	2.911443e+01	1.438237e+03
2.040000e-06	3.987595e-06	2.192973e-08	2.863109e+01	1.433669e+03
2.050000e-06	3.918841e-06	2.180018e-08	2.813744e+01	1.428912e+03
2.060000e-06	3.848537e-06	2.171731e-08	2.763265e+01	1.423882e+03
2.070000e-06	3.776801e-06	2.166762e-08	2.711758e+01	1.418524e+03
2.080000e-06	3.703836e-06	2.156315e-08	2.659369e+01	1.412838e+03
2.090000e-06	3.629494e-06	2.148910e-08	2.605991e+01	1.406869e+03
2.100000e-06	3.553783e-06	2.137294e-08	2.551630e+01	1.400701e+03
2.110000e-06	3.476596e-06	2.130522e-08	2.496210e+01	1.394421e+03
2.120000e-06	3.397862e-06	2.121309e-08	2.439679e+01	1.388093e+03
2.130000e-06	3.317880e-06	2.110786e-08	2.382251e+01	1.381735e+03
2.140000e-06	3.236822e-06	2.100653e-08	2.324051e+01	1.375306e+03
2.150000e-06	3.154667e-06	2.089189e-08	2.265063e+01	1.368717e+03
2.160000e-06	3.071458e-06	2.080238e-08	2.205319e+01	1.361858e+03
2.170000e-06	2.987297e-06	2.068514e-08	2.144891e+01	1.354627e+03
2.180000e-06	2.901973e-06	2.057217e-08	2.083628e+01	1.346962e+03
2.190000e-06	2.815338e-06	2.044866e-08	2.021424e+01	1.338859e+03
2.200000e-06	2.727569e-06	2.032202e-08	1.958406e+01	1.330372e+03
2.210000e-06	2.638937e-06	2.019358e-08	1.894767e+01	1.321596e+03
2.220000e-06	2.549442e-06	2.005931e-08	1.830510e+01	1.312630e+03
2.230000e-06	2.459030e-06	1.993418e-08	1.765594e+01	1.303545e+03
2.240000e-06	2.367873e-06	1.979627e-08	1.700142e+01	1.294353e+03
2.250000e-06	2.275994e-06	1.965114e-08	1.634173e+01	1.284998e+03
2.260000e-06	2.183340e-06	1.949373e-08	1.567647e+01	1.275366e+03
2.270000e-06	2.089782e-06	1.933855e-08	1.500472e+01	1.265316e+03
2.280000e-06	1.995280e-06	1.917949e-08	1.432619e+01	1.254717e+03
2.290000e-06	1.899937e-06	1.900874e-08	1.364162e+01	1.243490e+03
2.300000e-06	1.803829e-06	1.883164e-08	1.295156e+01	1.231626e+03
2.310000e-06	1.707188e-06	1.864868e-08	1.225768e+01	1.219193e+03
2.320000e-06	1.610178e-06	1.846178e-08	1.156114e+01	1.206306e+03
2.330000e-06	1.512663e-06	1.826384e-08	1.086098e+01	1.193089e+03
2.340000e-06	1.414546e-06	1.805652e-08	1.015650e+01	1.179628e+03
2.350000e-06	1.315950e-06	1.784115e-08	9.448572e+00	1.165933e+03
2.360000e-06	1.217003e-06	1.762350e-08	8.738132e+00	1.151920e+03
2.370000e-06	1.117786e-06	1.739971e-08	8.025750e+00	1.137428e+03
2.380000e-06	1.018344e-06	1.716311e-08	7.311749e+00	1.122252e+03
2.390000e-06	9.186704e-07	1.691139e-08	6.596090e+00	1.106195e+03
2.400000e-06	8.186877e-07	1.664676e-08	5.878210e+00	1.089124e+03
2.410000e-06	7.183951e-07	1.637370e-08	5.158106e+00	1.071000e+03
2.420000e-06	6.178144e-07	1.609032e-08	4.435932e+00	1.051881e+03
2.430000e-06	5.169472e-07	1.579717e-08	3.711702e+00	1.031889e+03
2.440000e-06	4.158920e-07	1.549279e-08	2.986121e+00	1.011157e+03
2.450000e-06	3.146882e-07	1.516986e-08	2.259474e+00	9.897566e+02
2.460000e-06	2.132759e-07	1.482380e-08	1.531330e+00	9.676467e+02
2.470000e-06	1.117346e-07	1.445849e-08	8.022591e-01	9.446429e+02
2.480000e-06	1.007678e-08	1.407603e-08	7.235170e-02	9.204336e+02
2.490000e-06	-9.167395e-08	1.367110e-08	-6.582226e-01	8.946341e+02
2.500000e-06	-1.932904e-07	1.324238e-08	-1.387833e+00	8.668651e+02
2.510000e-06	-2.947689e-07	1.279116e-08	-2.116453e+00	8.368321e+02
2.520000e-06	-3.961587e-07	1.231102e-08	-2.844435e+00	8.043768e+02
2.530000e-06	-4.973664e-07	1.179352e-08	-3.571110e+00	7.694774e+02
2.540000e-06	-5.983771e-07	1.123588e-08	-4.296372e+00	7.321874e+02
2.550000e-06	-6.991263e-07	1.063573e-08	-5.019755e+00	6.925211e+02
2.560000e-06	-7.995911e-07	9.988703e-09	-5.741096e+00	6.503106e+02
2.570000e-06	-8.997565e-07	9.285872e-09	-6.460288e+00	6.050737e+02
2.580000e-06	-9.995450e-07	8.516853e-09	-7.176773e+00	5.559359e+02
2.590000e-06	-1.099054e-06	7.670018e-09	-7.891250e+00	5.016427e+02
2.600000e-06	-1.198352e-06	6.731879e-09	-8.604214e+00	4.406799e+02
2.610000e-06	-1.297264e-06	5.687922e-09	-9.314404e+00	3.714955e+02
2.620000e-06	-1.395613e-06	4.515471e-09	-1.002056e+01	2.927916e+02
2.630000e-06	-1.493435e-06	3.193614e-09	-1.072293e+01	2.038312e+02
2.640000e-06	-1.590778e-06	1.711222e-09	-1.142185e+01	1.046991e+02
2.650000e-06	-1.687658e-06	7.418692e-11	-1.211745e+01	-3.545046e+00
2.660000e-06	-1.784035e-06	-1.695302e-09	-1.280944e+01	-1.188606e+02
2.670000e-06	-1.879846e-06	-3.551506e-09	-1.349737e+01	-2.383804e+02
2.680000e-06	-1.975016e-06	-5.423496e-09	-1.418070e+01	-3.587067e+02
2.690000e-06	-2.069352e-06	-7.242542e-09	-1.485803e+01	-4.762994e+02
2.700000e-06	-2.162679e-06	-8.951864e-09	-1.552812e+01	-5.878876e+02
2.710000e-06	-2.254999e-06	-1.051255e-08	-1.619098e+01	-6.908339e+02
2.720000e-06	-2.346523e-06	-1.190628e-08	-1.684813e+01	-7.833861e+02
2.730000e-06	-2.437328e-06	-1.313438e-08	-1.750011e+01	-8.647802e+02
2.740000e-06	-2.527286e-06	-1.421115e-08	-1.814601e+01	-9.351858e+02
2.750000e-06	-2.616343e-06	-1.514985e-08	-1.878545e+01	-9.955180e+02
2.760000e-06	-2.704587e-06	-1.596722e-08	-1.941905e+01	-1.047165e+03
2.770000e-06	-2.792030e-06	-1.667715e-08	-2.004689e+01	-1.091688e+03
2.780000e-06	-2.878457e-06	-1.729390e-08	-2.066743e+01	-1.130561e+03
2.790000e-06	-2.963625e-06	-1.783012e-08	-2.127894e+01	-1.164988e+03
2.800000e-06	-3.047625e-06	-1.829694e-08	-2.188207e+01	-1.195817e+03
2.810000e-06	-3.130685e-06	-1.870895e-08	-2.247844e+01	-1.223562e+03
2.820000e-06	-3.212745e-06	-1.907503e-08	-2.306764e+01	-1.248487e+03
2.830000e-06	-3.293733e-06	-1.940269e-08	-2.364914e+01	-1.270735e+03
2.840000e-06	-3.373638e-06	-1.969952e-08	-2.422286e+01	-1.290446e+03
2.850000e-06	-3.452267e-06	-1.997161e-08	-2.478742e+01	-1.307836e+03
2.860000e-06	-3.529384e-06	-2.021944e-08	-2.534112e+01	-1.323227e+03
2.870000e-06	-3.605049e-06	-2.044417e-08	-2.588440e+01	-1.337022e+03
2.880000e-06	-3.679316e-06	-2.064804e-08	-2.641764e+01	-1.349638e+03
2.890000e-06	-3.752235e-06	-2.083211e-08	-2.694119e+01	-1.361438e+03
2.900000e-06	-3.823916e-06	-2.100065e-08	-2.745587e+01	-1.372662e+03
2.910000e-06	-3.894142e-06	-2.115872e-08	-2.796009e+01	-1.383409e+03
2.920000e-06	-3.962786e-06	-2.130805e-08	-2.845296e+01	-1.393644e+03
2.930000e-06	-4.030049e-06	-2.144869e-08	-2.893592e+01	-1.403244e+03
2.940000e-06	-4.095960e-06	-2.158026e-08	-2.940916e+01	-1.412070e+03
