# Temperatura_=_62.95
# Concentracion g/m^3_=_41000.0
# C_Vs_to_Am_M_A/Vsm_=_65563218390.804596
# pendiente_HvsI_1/m_=_3716.3
# ordenada_HvsI_A/m_=_1297.0
# frecuencia_Hz_=_301591.1293543618

Tiempo_(s)	Campo_(V.s)	Magnetizacion_(V.s)	Campo_(kA/m)	Magnetizacion_(A/m)
0.000000e+00	-5.330527e-06	-2.189065e-08	-3.834355e+01	-1.431808e+03
1.000000e-08	-5.328056e-06	-2.188852e-08	-3.832578e+01	-1.431532e+03
2.000000e-08	-5.323808e-06	-2.188083e-08	-3.829522e+01	-1.431346e+03
3.000000e-08	-5.318007e-06	-2.187592e-08	-3.825349e+01	-1.431191e+03
4.000000e-08	-5.310623e-06	-2.186905e-08	-3.820038e+01	-1.430967e+03
5.000000e-08	-5.301460e-06	-2.185506e-08	-3.813447e+01	-1.430570e+03
6.000000e-08	-5.290275e-06	-2.183546e-08	-3.805401e+01	-1.429920e+03
7.000000e-08	-5.277204e-06	-2.179687e-08	-3.795999e+01	-1.428987e+03
8.000000e-08	-5.262059e-06	-2.179735e-08	-3.785105e+01	-1.427800e+03
9.000000e-08	-5.244623e-06	-2.188728e-08	-3.772563e+01	-1.426435e+03
1.000000e-07	-5.225112e-06	-2.185347e-08	-3.758528e+01	-1.424993e+03
1.100000e-07	-5.203727e-06	-2.177183e-08	-3.743145e+01	-1.423565e+03
1.200000e-07	-5.180703e-06	-2.174638e-08	-3.726584e+01	-1.422209e+03
1.300000e-07	-5.156317e-06	-2.155896e-08	-3.709043e+01	-1.420929e+03
1.400000e-07	-5.130349e-06	-2.164106e-08	-3.690363e+01	-1.419679e+03
1.500000e-07	-5.102589e-06	-2.181665e-08	-3.670395e+01	-1.418378e+03
1.600000e-07	-5.073347e-06	-2.152974e-08	-3.649361e+01	-1.416935e+03
1.700000e-07	-5.042629e-06	-2.163809e-08	-3.627265e+01	-1.415280e+03
1.800000e-07	-5.009828e-06	-2.170767e-08	-3.603670e+01	-1.413386e+03
1.900000e-07	-4.975005e-06	-2.136659e-08	-3.578621e+01	-1.411273e+03
2.000000e-07	-4.938794e-06	-2.152729e-08	-3.552574e+01	-1.409001e+03
2.100000e-07	-4.900912e-06	-2.155006e-08	-3.525324e+01	-1.406646e+03
2.200000e-07	-4.861289e-06	-2.134496e-08	-3.496823e+01	-1.404273e+03
2.300000e-07	-4.819840e-06	-2.141044e-08	-3.467008e+01	-1.401912e+03
2.400000e-07	-4.776338e-06	-2.133706e-08	-3.435716e+01	-1.399546e+03
2.500000e-07	-4.731109e-06	-2.129743e-08	-3.403182e+01	-1.397112e+03
2.600000e-07	-4.684122e-06	-2.132514e-08	-3.369383e+01	-1.394520e+03
2.700000e-07	-4.635140e-06	-2.118697e-08	-3.334150e+01	-1.391684e+03
2.800000e-07	-4.583997e-06	-2.114288e-08	-3.297361e+01	-1.388545e+03
2.900000e-07	-4.530882e-06	-2.110851e-08	-3.259155e+01	-1.385096e+03
3.000000e-07	-4.476210e-06	-2.106864e-08	-3.219828e+01	-1.381382e+03
3.100000e-07	-4.420043e-06	-2.102442e-08	-3.179426e+01	-1.377490e+03
3.200000e-07	-4.362036e-06	-2.094993e-08	-3.137700e+01	-1.373521e+03
3.300000e-07	-4.302325e-06	-2.089885e-08	-3.094749e+01	-1.369559e+03
3.400000e-07	-4.241191e-06	-2.080529e-08	-3.050774e+01	-1.365645e+03
3.500000e-07	-4.178599e-06	-2.076191e-08	-3.005750e+01	-1.361759e+03
3.600000e-07	-4.114687e-06	-2.069795e-08	-2.959777e+01	-1.357829e+03
3.700000e-07	-4.049225e-06	-2.063357e-08	-2.912689e+01	-1.353750e+03
3.800000e-07	-3.982047e-06	-2.057800e-08	-2.864367e+01	-1.349414e+03
3.900000e-07	-3.913391e-06	-2.045487e-08	-2.814981e+01	-1.344747e+03
4.000000e-07	-3.843455e-06	-2.039363e-08	-2.764674e+01	-1.339729e+03
4.100000e-07	-3.772389e-06	-2.033559e-08	-2.713556e+01	-1.334402e+03
4.200000e-07	-3.700188e-06	-2.025592e-08	-2.661620e+01	-1.328855e+03
4.300000e-07	-3.626426e-06	-2.017456e-08	-2.608561e+01	-1.323198e+03
4.400000e-07	-3.550940e-06	-2.008778e-08	-2.554263e+01	-1.317523e+03
4.500000e-07	-3.474077e-06	-2.000042e-08	-2.498974e+01	-1.311875e+03
4.600000e-07	-3.395940e-06	-1.990035e-08	-2.442768e+01	-1.306231e+03
4.700000e-07	-3.316401e-06	-1.981313e-08	-2.385554e+01	-1.300507e+03
4.800000e-07	-3.235530e-06	-1.971854e-08	-2.327382e+01	-1.294579e+03
4.900000e-07	-3.153498e-06	-1.961382e-08	-2.268375e+01	-1.288319e+03
5.000000e-07	-3.070412e-06	-1.951399e-08	-2.208609e+01	-1.281634e+03
5.100000e-07	-2.986472e-06	-1.940316e-08	-2.148229e+01	-1.274495e+03
5.200000e-07	-2.901712e-06	-1.928700e-08	-2.087260e+01	-1.266943e+03
5.300000e-07	-2.816001e-06	-1.917190e-08	-2.025606e+01	-1.259076e+03
5.400000e-07	-2.729288e-06	-1.905638e-08	-1.963232e+01	-1.251020e+03
5.500000e-07	-2.641758e-06	-1.894159e-08	-1.900269e+01	-1.242880e+03
5.600000e-07	-2.553313e-06	-1.881219e-08	-1.836649e+01	-1.234707e+03
5.700000e-07	-2.463574e-06	-1.867951e-08	-1.772098e+01	-1.226472e+03
5.800000e-07	-2.372673e-06	-1.853926e-08	-1.706712e+01	-1.218069e+03
5.900000e-07	-2.281000e-06	-1.839532e-08	-1.640769e+01	-1.209344e+03
6.000000e-07	-2.188613e-06	-1.824843e-08	-1.574314e+01	-1.200131e+03
6.100000e-07	-2.095448e-06	-1.810011e-08	-1.507298e+01	-1.190308e+03
6.200000e-07	-2.001460e-06	-1.794621e-08	-1.439690e+01	-1.179825e+03
6.300000e-07	-1.906753e-06	-1.777864e-08	-1.371565e+01	-1.168725e+03
6.400000e-07	-1.811496e-06	-1.760655e-08	-1.303046e+01	-1.157122e+03
6.500000e-07	-1.715696e-06	-1.742752e-08	-1.234134e+01	-1.145167e+03
6.600000e-07	-1.619322e-06	-1.724538e-08	-1.164811e+01	-1.132993e+03
6.700000e-07	-1.522245e-06	-1.705701e-08	-1.094981e+01	-1.120663e+03
6.800000e-07	-1.424353e-06	-1.686145e-08	-1.024566e+01	-1.108139e+03
6.900000e-07	-1.325773e-06	-1.665568e-08	-9.536555e+00	-1.095281e+03
7.000000e-07	-1.226680e-06	-1.644034e-08	-8.823755e+00	-1.081876e+03
7.100000e-07	-1.127250e-06	-1.621635e-08	-8.108537e+00	-1.067693e+03
7.200000e-07	-1.027594e-06	-1.598154e-08	-7.391692e+00	-1.052546e+03
7.300000e-07	-9.276577e-07	-1.574058e-08	-6.672829e+00	-1.036341e+03
7.400000e-07	-8.274784e-07	-1.548977e-08	-5.952218e+00	-1.019100e+03
7.500000e-07	-7.270734e-07	-1.522869e-08	-5.229985e+00	-1.000942e+03
7.600000e-07	-6.264040e-07	-1.495053e-08	-4.505850e+00	-9.820322e+02
7.700000e-07	-5.254965e-07	-1.465364e-08	-3.780002e+00	-9.625067e+02
7.800000e-07	-4.244109e-07	-1.434216e-08	-3.052873e+00	-9.424000e+02
7.900000e-07	-3.232040e-07	-1.401384e-08	-2.324871e+00	-9.215957e+02
8.000000e-07	-2.218754e-07	-1.366826e-08	-1.595994e+00	-8.998186e+02
8.100000e-07	-1.204338e-07	-1.330350e-08	-8.663049e-01	-8.766759e+02
8.200000e-07	-1.893559e-08	-1.291676e-08	-1.362075e-01	-8.517353e+02
8.300000e-07	8.258366e-08	-1.250382e-08	5.940409e-01	-8.246191e+02
8.400000e-07	1.840748e-07	-1.206311e-08	1.324087e+00	-7.950823e+02
8.500000e-07	2.855008e-07	-1.159068e-08	2.053664e+00	-7.630458e+02
8.600000e-07	3.868269e-07	-1.108096e-08	2.782524e+00	-7.285635e+02
8.700000e-07	4.880376e-07	-1.052972e-08	3.510553e+00	-6.917228e+02
8.800000e-07	5.891017e-07	-9.932993e-09	4.237527e+00	-6.524966e+02
8.900000e-07	6.900153e-07	-9.283089e-09	4.963419e+00	-6.105844e+02
9.000000e-07	7.907222e-07	-8.571171e-09	5.687824e+00	-5.652889e+02
9.100000e-07	8.911226e-07	-7.787254e-09	6.410024e+00	-5.154749e+02
9.200000e-07	9.912438e-07	-6.916358e-09	7.130216e+00	-4.596403e+02
9.300000e-07	1.091133e-06	-5.942056e-09	7.848739e+00	-3.961064e+02
9.400000e-07	1.190742e-06	-4.841615e-09	8.565244e+00	-3.233060e+02
9.500000e-07	1.290009e-06	-3.594294e-09	9.279296e+00	-2.401188e+02
9.600000e-07	1.388801e-06	-2.184039e-09	9.989924e+00	-1.461891e+02
9.700000e-07	1.486892e-06	-6.089100e-10	1.069552e+01	-4.215523e+01
9.800000e-07	1.584074e-06	1.111861e-09	1.139456e+01	7.026516e+01
9.900000e-07	1.680447e-06	2.938142e-09	1.208779e+01	1.883640e+02
1.000000e-06	1.776243e-06	4.804553e-09	1.277687e+01	3.087017e+02
1.010000e-06	1.871430e-06	6.638280e-09	1.346157e+01	4.274947e+02
1.020000e-06	1.965992e-06	8.368941e-09	1.414177e+01	5.410668e+02
1.030000e-06	2.059955e-06	9.947600e-09	1.481767e+01	6.462809e+02
1.040000e-06	2.153232e-06	1.135033e-08	1.548863e+01	7.408769e+02
1.050000e-06	2.245742e-06	1.257007e-08	1.615408e+01	8.236588e+02
1.060000e-06	2.337583e-06	1.361902e-08	1.681471e+01	8.945065e+02
1.070000e-06	2.428760e-06	1.451738e-08	1.747056e+01	9.542229e+02
1.080000e-06	2.518981e-06	1.528592e-08	1.811954e+01	1.004260e+03
1.090000e-06	2.607971e-06	1.594384e-08	1.875966e+01	1.046388e+03
1.100000e-06	2.695852e-06	1.650876e-08	1.939181e+01	1.082375e+03
1.110000e-06	2.782845e-06	1.699443e-08	2.001756e+01	1.113733e+03
1.120000e-06	2.868996e-06	1.741366e-08	2.063727e+01	1.141581e+03
1.130000e-06	2.954213e-06	1.778176e-08	2.125025e+01	1.166615e+03
1.140000e-06	3.038476e-06	1.810690e-08	2.185637e+01	1.189181e+03
1.150000e-06	3.121901e-06	1.839638e-08	2.245647e+01	1.209406e+03
1.160000e-06	3.204253e-06	1.865687e-08	2.304884e+01	1.227349e+03
1.170000e-06	3.285285e-06	1.889348e-08	2.363172e+01	1.243119e+03
1.180000e-06	3.365164e-06	1.910784e-08	2.420630e+01	1.256942e+03
1.190000e-06	3.443878e-06	1.930394e-08	2.477251e+01	1.269161e+03
1.200000e-06	3.521330e-06	1.948250e-08	2.532964e+01	1.280188e+03
1.210000e-06	3.597564e-06	1.964817e-08	2.587800e+01	1.290419e+03
1.220000e-06	3.672385e-06	1.980156e-08	2.641620e+01	1.300161e+03
1.230000e-06	3.745528e-06	1.994325e-08	2.694233e+01	1.309576e+03
1.240000e-06	3.817179e-06	2.007461e-08	2.745773e+01	1.318673e+03
1.250000e-06	3.887539e-06	2.019534e-08	2.796385e+01	1.327343e+03
1.260000e-06	3.956570e-06	2.030816e-08	2.846040e+01	1.335420e+03
1.270000e-06	4.024364e-06	2.041169e-08	2.894806e+01	1.342758e+03
1.280000e-06	4.090679e-06	2.050914e-08	2.942508e+01	1.349293e+03
1.290000e-06	4.155267e-06	2.060186e-08	2.988967e+01	1.355069e+03
1.300000e-06	4.218312e-06	2.068987e-08	3.034317e+01	1.360239e+03
1.310000e-06	4.279978e-06	2.077087e-08	3.078674e+01	1.365018e+03
1.320000e-06	4.340319e-06	2.084704e-08	3.122079e+01	1.369630e+03
1.330000e-06	4.399253e-06	2.092029e-08	3.164471e+01	1.374243e+03
1.340000e-06	4.456403e-06	2.099061e-08	3.205581e+01	1.378932e+03
1.350000e-06	4.511753e-06	2.105580e-08	3.245394e+01	1.383668e+03
1.360000e-06	4.565568e-06	2.111765e-08	3.284105e+01	1.388332e+03
1.370000e-06	4.617689e-06	2.117560e-08	3.321597e+01	1.392766e+03
1.380000e-06	4.667765e-06	2.123017e-08	3.357617e+01	1.396821e+03
1.390000e-06	4.715889e-06	2.128333e-08	3.392234e+01	1.400410e+03
1.400000e-06	4.762380e-06	2.133445e-08	3.425676e+01	1.403530e+03
1.410000e-06	4.807300e-06	2.138249e-08	3.457988e+01	1.406260e+03
1.420000e-06	4.850732e-06	2.142751e-08	3.489230e+01	1.408740e+03
1.430000e-06	4.892293e-06	2.146984e-08	3.519125e+01	1.411121e+03
1.440000e-06	4.931954e-06	2.150724e-08	3.547654e+01	1.413520e+03
1.450000e-06	4.970009e-06	2.154020e-08	3.575028e+01	1.415991e+03
1.460000e-06	5.006429e-06	2.157091e-08	3.601225e+01	1.418508e+03
1.470000e-06	5.041123e-06	2.160045e-08	3.626181e+01	1.420978e+03
1.480000e-06	5.073883e-06	2.162845e-08	3.649746e+01	1.423276e+03
1.490000e-06	5.104826e-06	2.165437e-08	3.672004e+01	1.425287e+03
1.500000e-06	5.134097e-06	2.167942e-08	3.693059e+01	1.426942e+03
1.510000e-06	5.161774e-06	2.170384e-08	3.712968e+01	1.428242e+03
1.520000e-06	5.187490e-06	2.172633e-08	3.731466e+01	1.429256e+03
1.530000e-06	5.211096e-06	2.174612e-08	3.748446e+01	1.430101e+03
1.540000e-06	5.232936e-06	2.176226e-08	3.764156e+01	1.430906e+03
1.550000e-06	5.253118e-06	2.177650e-08	3.778673e+01	1.431770e+03
1.560000e-06	5.271469e-06	2.178849e-08	3.791874e+01	1.432738e+03
1.570000e-06	5.287811e-06	2.179926e-08	3.803629e+01	1.433782e+03
1.580000e-06	5.302206e-06	2.181006e-08	3.813984e+01	1.434818e+03
1.590000e-06	5.314675e-06	2.182038e-08	3.822953e+01	1.435730e+03
1.600000e-06	5.324938e-06	2.183064e-08	3.830335e+01	1.436407e+03
1.610000e-06	5.333015e-06	2.184022e-08	3.836145e+01	1.436780e+03
1.620000e-06	5.339192e-06	2.184847e-08	3.840588e+01	1.436838e+03
1.630000e-06	5.343618e-06	2.185336e-08	3.843772e+01	1.436636e+03
1.640000e-06	5.346184e-06	2.185390e-08	3.845618e+01	1.436276e+03
1.650000e-06	5.346715e-06	2.185356e-08	3.846000e+01	1.435872e+03
1.660000e-06	5.345427e-06	2.184569e-08	3.845073e+01	1.435519e+03
1.670000e-06	5.342467e-06	2.183686e-08	3.842944e+01	1.435263e+03
1.680000e-06	5.337964e-06	2.183280e-08	3.839705e+01	1.435090e+03
1.690000e-06	5.331612e-06	2.182794e-08	3.835136e+01	1.434928e+03
1.700000e-06	5.323383e-06	2.182423e-08	3.829216e+01	1.434675e+03
1.710000e-06	5.313645e-06	2.182028e-08	3.822212e+01	1.434228e+03
1.720000e-06	5.302292e-06	2.183062e-08	3.814045e+01	1.433517e+03
1.730000e-06	5.289044e-06	2.183969e-08	3.804516e+01	1.432524e+03
1.740000e-06	5.273697e-06	2.168908e-08	3.793476e+01	1.431291e+03
1.750000e-06	5.256049e-06	2.166066e-08	3.780782e+01	1.429899e+03
1.760000e-06	5.235857e-06	2.170496e-08	3.766257e+01	1.428452e+03
1.770000e-06	5.213235e-06	2.170720e-08	3.749985e+01	1.427036e+03
1.780000e-06	5.189052e-06	2.189737e-08	3.732590e+01	1.425696e+03
1.790000e-06	5.164209e-06	2.166730e-08	3.714720e+01	1.424428e+03
1.800000e-06	5.138169e-06	2.152597e-08	3.695989e+01	1.423173e+03
1.810000e-06	5.110034e-06	2.179810e-08	3.675751e+01	1.421848e+03
1.820000e-06	5.080134e-06	2.151122e-08	3.654243e+01	1.420363e+03
1.830000e-06	5.048509e-06	2.152617e-08	3.631494e+01	1.418657e+03
1.840000e-06	5.014840e-06	2.181864e-08	3.607275e+01	1.416712e+03
1.850000e-06	4.979653e-06	2.144716e-08	3.581964e+01	1.414558e+03
1.860000e-06	4.942737e-06	2.150296e-08	3.555410e+01	1.412260e+03
1.870000e-06	4.903749e-06	2.162375e-08	3.527365e+01	1.409896e+03
1.880000e-06	4.863180e-06	2.138623e-08	3.498183e+01	1.407524e+03
1.890000e-06	4.820845e-06	2.153809e-08	3.467731e+01	1.405164e+03
1.900000e-06	4.776797e-06	2.133708e-08	3.436046e+01	1.402789e+03
1.910000e-06	4.731073e-06	2.127552e-08	3.403156e+01	1.400328e+03
1.920000e-06	4.683428e-06	2.149968e-08	3.368884e+01	1.397690e+03
1.930000e-06	4.634229e-06	2.123404e-08	3.333494e+01	1.394791e+03
1.940000e-06	4.583232e-06	2.124046e-08	3.296811e+01	1.391584e+03
1.950000e-06	4.530138e-06	2.118084e-08	3.258620e+01	1.388071e+03
1.960000e-06	4.475157e-06	2.109070e-08	3.219070e+01	1.384310e+03
1.970000e-06	4.418441e-06	2.113537e-08	3.178273e+01	1.380392e+03
1.980000e-06	4.360246e-06	2.093593e-08	3.136413e+01	1.376418e+03
1.990000e-06	4.300728e-06	2.100883e-08	3.093600e+01	1.372464e+03
2.000000e-06	4.239758e-06	2.093506e-08	3.049744e+01	1.368558e+03
2.010000e-06	4.177036e-06	2.080957e-08	3.004626e+01	1.364670e+03
2.020000e-06	4.112564e-06	2.079647e-08	2.958250e+01	1.360717e+03
2.030000e-06	4.046712e-06	2.066601e-08	2.910882e+01	1.356590e+03
2.040000e-06	3.979574e-06	2.070978e-08	2.862587e+01	1.352187e+03
2.050000e-06	3.910978e-06	2.056203e-08	2.813246e+01	1.347443e+03
2.060000e-06	3.840730e-06	2.046883e-08	2.762714e+01	1.342352e+03
2.070000e-06	3.769046e-06	2.045454e-08	2.711151e+01	1.336968e+03
2.080000e-06	3.696210e-06	2.032625e-08	2.658758e+01	1.331388e+03
2.090000e-06	3.622035e-06	2.028026e-08	2.605402e+01	1.325720e+03
2.100000e-06	3.546484e-06	2.014897e-08	2.551057e+01	1.320048e+03
2.110000e-06	3.469412e-06	2.009734e-08	2.495618e+01	1.314404e+03
2.120000e-06	3.390786e-06	2.001113e-08	2.439061e+01	1.308750e+03
2.130000e-06	3.310949e-06	1.990149e-08	2.381632e+01	1.302993e+03
2.140000e-06	3.230038e-06	1.982162e-08	2.323432e+01	1.297003e+03
2.150000e-06	3.147993e-06	1.969733e-08	2.264415e+01	1.290657e+03
2.160000e-06	3.064874e-06	1.962192e-08	2.204626e+01	1.283874e+03
2.170000e-06	2.980821e-06	1.950451e-08	2.144164e+01	1.276640e+03
2.180000e-06	2.895649e-06	1.940264e-08	2.082899e+01	1.269009e+03
2.190000e-06	2.809194e-06	1.928573e-08	2.020710e+01	1.261091e+03
2.200000e-06	2.721626e-06	1.915929e-08	1.957721e+01	1.253008e+03
2.210000e-06	2.633140e-06	1.904236e-08	1.894070e+01	1.244859e+03
2.220000e-06	2.543787e-06	1.891346e-08	1.829797e+01	1.236676e+03
2.230000e-06	2.453551e-06	1.880027e-08	1.764889e+01	1.228415e+03
2.240000e-06	2.362513e-06	1.866265e-08	1.699403e+01	1.219957e+03
2.250000e-06	2.270780e-06	1.852414e-08	1.633418e+01	1.211139e+03
2.260000e-06	2.178345e-06	1.836979e-08	1.566928e+01	1.201803e+03
2.270000e-06	2.084963e-06	1.821931e-08	1.499756e+01	1.191839e+03
2.280000e-06	1.990598e-06	1.806789e-08	1.431877e+01	1.181216e+03
2.290000e-06	1.895426e-06	1.790390e-08	1.363418e+01	1.169995e+03
2.300000e-06	1.799595e-06	1.773646e-08	1.294485e+01	1.158303e+03
2.310000e-06	1.703216e-06	1.755990e-08	1.225157e+01	1.146292e+03
2.320000e-06	1.606308e-06	1.738091e-08	1.155450e+01	1.134081e+03
2.330000e-06	1.508937e-06	1.718887e-08	1.085409e+01	1.121715e+03
2.340000e-06	1.411085e-06	1.699010e-08	1.015022e+01	1.109134e+03
2.350000e-06	1.312704e-06	1.678002e-08	9.442541e+00	1.096177e+03
2.360000e-06	1.213846e-06	1.656575e-08	8.731437e+00	1.082623e+03
2.370000e-06	1.114668e-06	1.634415e-08	8.018031e+00	1.068246e+03
2.380000e-06	1.015254e-06	1.611190e-08	7.302925e+00	1.052875e+03
2.390000e-06	9.156304e-07	1.586764e-08	6.586314e+00	1.036442e+03
2.400000e-06	8.157516e-07	1.560695e-08	5.867866e+00	1.018991e+03
2.410000e-06	7.156071e-07	1.533464e-08	5.147506e+00	1.000656e+03
2.420000e-06	6.152580e-07	1.504982e-08	4.425674e+00	9.816045e+02
2.430000e-06	5.147814e-07	1.475417e-08	3.702926e+00	9.619553e+02
2.440000e-06	4.141585e-07	1.444544e-08	2.979125e+00	9.417137e+02
2.450000e-06	3.133435e-07	1.411693e-08	2.253943e+00	9.207280e+02
2.460000e-06	2.123589e-07	1.376335e-08	1.527540e+00	8.986932e+02
2.470000e-06	1.111526e-07	1.339066e-08	7.995432e-01	8.752003e+02
2.480000e-06	9.787248e-09	1.299973e-08	7.040164e-02	8.498208e+02
2.490000e-06	-9.157356e-08	1.258236e-08	-6.587070e-01	8.222000e+02
2.500000e-06	-1.928387e-07	1.213487e-08	-1.387127e+00	7.921278e+02
2.510000e-06	-2.940191e-07	1.165459e-08	-2.114938e+00	7.595586e+02
2.520000e-06	-3.950621e-07	1.113714e-08	-2.841761e+00	7.245641e+02
2.530000e-06	-4.959250e-07	1.057730e-08	-3.567289e+00	6.872206e+02
2.540000e-06	-5.966496e-07	9.970317e-09	-4.291821e+00	6.474552e+02
2.550000e-06	-6.971428e-07	9.308145e-09	-5.014689e+00	6.048908e+02
2.560000e-06	-7.973371e-07	8.582717e-09	-5.735406e+00	5.587361e+02
2.570000e-06	-8.972884e-07	7.783379e-09	-6.454376e+00	5.077672e+02
2.580000e-06	-9.970494e-07	6.896338e-09	-7.171977e+00	4.504242e+02
2.590000e-06	-1.096531e-06	5.903418e-09	-7.887568e+00	3.850256e+02
2.600000e-06	-1.195590e-06	4.781817e-09	-8.600120e+00	3.100712e+02
2.610000e-06	-1.294210e-06	3.514434e-09	-9.309513e+00	2.245799e+02
2.620000e-06	-1.392400e-06	2.084281e-09	-1.001582e+01	1.283938e+02
2.630000e-06	-1.490081e-06	4.896371e-10	-1.071845e+01	2.238092e+01
2.640000e-06	-1.587211e-06	-1.250454e-09	-1.141712e+01	-9.151510e+01
2.650000e-06	-1.683876e-06	-3.093052e-09	-1.211246e+01	-2.104025e+02
2.660000e-06	-1.780072e-06	-4.971512e-09	-1.280442e+01	-3.307319e+02
2.670000e-06	-1.875782e-06	-6.810078e-09	-1.349288e+01	-4.487044e+02
2.680000e-06	-1.970840e-06	-8.535145e-09	-1.417665e+01	-5.607249e+02
2.690000e-06	-2.064887e-06	-1.010160e-08	-1.485315e+01	-6.638202e+02
2.700000e-06	-2.157855e-06	-1.148851e-08	-1.552188e+01	-7.559486e+02
2.710000e-06	-2.249988e-06	-1.269302e-08	-1.618462e+01	-8.361495e+02
2.720000e-06	-2.341434e-06	-1.372738e-08	-1.684241e+01	-9.045183e+02
2.730000e-06	-2.432110e-06	-1.461405e-08	-1.749465e+01	-9.620233e+02
2.740000e-06	-2.521923e-06	-1.537572e-08	-1.814070e+01	-1.010213e+03
2.750000e-06	-2.610784e-06	-1.602914e-08	-1.877989e+01	-1.050883e+03
2.760000e-06	-2.698851e-06	-1.659221e-08	-1.941338e+01	-1.085763e+03
2.770000e-06	-2.786270e-06	-1.707654e-08	-2.004220e+01	-1.116291e+03
2.780000e-06	-2.872635e-06	-1.749461e-08	-2.066344e+01	-1.143492e+03
2.790000e-06	-2.957659e-06	-1.785802e-08	-2.127504e+01	-1.167978e+03
2.800000e-06	-3.041560e-06	-1.817900e-08	-2.187855e+01	-1.190037e+03
2.810000e-06	-3.124497e-06	-1.846599e-08	-2.247513e+01	-1.209769e+03
2.820000e-06	-3.206441e-06	-1.872180e-08	-2.306458e+01	-1.227235e+03
2.830000e-06	-3.287342e-06	-1.895392e-08	-2.364651e+01	-1.242565e+03
2.840000e-06	-3.367223e-06	-1.916830e-08	-2.422111e+01	-1.256013e+03
2.850000e-06	-3.445720e-06	-1.936702e-08	-2.478576e+01	-1.267942e+03
2.860000e-06	-3.522584e-06	-1.954812e-08	-2.533865e+01	-1.278768e+03
2.870000e-06	-3.598021e-06	-1.971258e-08	-2.588129e+01	-1.288874e+03
2.880000e-06	-3.672126e-06	-1.986201e-08	-2.641434e+01	-1.298539e+03
2.890000e-06	-3.744975e-06	-1.999896e-08	-2.693836e+01	-1.307891e+03
2.900000e-06	-3.816597e-06	-2.012725e-08	-2.745355e+01	-1.316909e+03
2.910000e-06	-3.886741e-06	-2.024941e-08	-2.795811e+01	-1.325467e+03
2.920000e-06	-3.955270e-06	-2.036463e-08	-2.845105e+01	-1.333397e+03
2.930000e-06	-4.022434e-06	-2.047009e-08	-2.893418e+01	-1.340566e+03
2.940000e-06	-4.088229e-06	-2.056839e-08	-2.940745e+01	-1.346931e+03
