# Temperatura_=_83.6
# Concentracion g/m^3_=_41000.0
# C_Vs_to_Am_M_A/Vsm_=_65563218390.804596
# pendiente_HvsI_1/m_=_3716.3
# ordenada_HvsI_A/m_=_1297.0
# frecuencia_Hz_=_301582.83815689257

Tiempo_(s)	Campo_(V.s)	Magnetizacion_(V.s)	Campo_(kA/m)	Magnetizacion_(A/m)
0.000000e+00	-5.321257e-06	-2.204174e-08	-3.834670e+01	-1.441192e+03
1.000000e-08	-5.318824e-06	-2.203866e-08	-3.832916e+01	-1.441011e+03
2.000000e-08	-5.314537e-06	-2.202922e-08	-3.829827e+01	-1.440904e+03
3.000000e-08	-5.308658e-06	-2.202163e-08	-3.825591e+01	-1.440774e+03
4.000000e-08	-5.301223e-06	-2.201293e-08	-3.820233e+01	-1.440497e+03
5.000000e-08	-5.292030e-06	-2.199964e-08	-3.813608e+01	-1.439957e+03
6.000000e-08	-5.280815e-06	-2.198111e-08	-3.805526e+01	-1.439087e+03
7.000000e-08	-5.267718e-06	-2.194699e-08	-3.796088e+01	-1.437884e+03
8.000000e-08	-5.252588e-06	-2.194430e-08	-3.785185e+01	-1.436416e+03
9.000000e-08	-5.235171e-06	-2.200211e-08	-3.772634e+01	-1.434799e+03
1.000000e-07	-5.215659e-06	-2.197344e-08	-3.758572e+01	-1.433167e+03
1.100000e-07	-5.194257e-06	-2.190933e-08	-3.743149e+01	-1.431627e+03
1.200000e-07	-5.171215e-06	-2.187193e-08	-3.726545e+01	-1.430239e+03
1.300000e-07	-5.146810e-06	-2.172460e-08	-3.708958e+01	-1.428991e+03
1.400000e-07	-5.120839e-06	-2.177996e-08	-3.690242e+01	-1.427814e+03
1.500000e-07	-5.093081e-06	-2.189242e-08	-3.670239e+01	-1.426598e+03
1.600000e-07	-5.063851e-06	-2.167709e-08	-3.649175e+01	-1.425230e+03
1.700000e-07	-5.033206e-06	-2.175249e-08	-3.627091e+01	-1.423627e+03
1.800000e-07	-5.000540e-06	-2.180321e-08	-3.603551e+01	-1.421755e+03
1.900000e-07	-4.965856e-06	-2.156234e-08	-3.578557e+01	-1.419634e+03
2.000000e-07	-4.929658e-06	-2.165900e-08	-3.552471e+01	-1.417327e+03
2.100000e-07	-4.891840e-06	-2.165741e-08	-3.525218e+01	-1.414912e+03
2.200000e-07	-4.852295e-06	-2.148781e-08	-3.496721e+01	-1.412453e+03
2.300000e-07	-4.810821e-06	-2.150718e-08	-3.466833e+01	-1.409970e+03
2.400000e-07	-4.767340e-06	-2.144245e-08	-3.435499e+01	-1.407438e+03
2.500000e-07	-4.722107e-06	-2.141427e-08	-3.402903e+01	-1.404787e+03
2.600000e-07	-4.675075e-06	-2.143540e-08	-3.369010e+01	-1.401927e+03
2.700000e-07	-4.626036e-06	-2.129621e-08	-3.333671e+01	-1.398779e+03
2.800000e-07	-4.574901e-06	-2.121773e-08	-3.296822e+01	-1.395303e+03
2.900000e-07	-4.521861e-06	-2.118508e-08	-3.258600e+01	-1.391512e+03
3.000000e-07	-4.467241e-06	-2.114938e-08	-3.219238e+01	-1.387475e+03
3.100000e-07	-4.411009e-06	-2.111115e-08	-3.178715e+01	-1.383293e+03
3.200000e-07	-4.352955e-06	-2.104582e-08	-3.136880e+01	-1.379073e+03
3.300000e-07	-4.293306e-06	-2.097601e-08	-3.093895e+01	-1.374889e+03
3.400000e-07	-4.232228e-06	-2.088619e-08	-3.049881e+01	-1.370764e+03
3.500000e-07	-4.169729e-06	-2.082572e-08	-3.004842e+01	-1.366655e+03
3.600000e-07	-4.105837e-06	-2.075530e-08	-2.958799e+01	-1.362467e+03
3.700000e-07	-4.040477e-06	-2.069941e-08	-2.911698e+01	-1.358080e+03
3.800000e-07	-3.973460e-06	-2.064229e-08	-2.863404e+01	-1.353389e+03
3.900000e-07	-3.904872e-06	-2.051955e-08	-2.813977e+01	-1.348333e+03
4.000000e-07	-3.835068e-06	-2.043807e-08	-2.763674e+01	-1.342915e+03
4.100000e-07	-3.764130e-06	-2.037706e-08	-2.712554e+01	-1.337205e+03
4.200000e-07	-3.691936e-06	-2.029285e-08	-2.660529e+01	-1.331314e+03
4.300000e-07	-3.618289e-06	-2.020772e-08	-2.607456e+01	-1.325364e+03
4.400000e-07	-3.543012e-06	-2.011645e-08	-2.553209e+01	-1.319440e+03
4.500000e-07	-3.466250e-06	-2.002028e-08	-2.497892e+01	-1.313570e+03
4.600000e-07	-3.388122e-06	-1.992156e-08	-2.441590e+01	-1.307705e+03
4.700000e-07	-3.308633e-06	-1.983105e-08	-2.384308e+01	-1.301732e+03
4.800000e-07	-3.227906e-06	-1.973101e-08	-2.326133e+01	-1.295509e+03
4.900000e-07	-3.146014e-06	-1.962165e-08	-2.267120e+01	-1.288902e+03
5.000000e-07	-3.063043e-06	-1.951866e-08	-2.207328e+01	-1.281830e+03
5.100000e-07	-2.979169e-06	-1.940434e-08	-2.146885e+01	-1.274285e+03
5.200000e-07	-2.894511e-06	-1.928118e-08	-2.085878e+01	-1.266340e+03
5.300000e-07	-2.808924e-06	-1.915772e-08	-2.024202e+01	-1.258119e+03
5.400000e-07	-2.722395e-06	-1.903704e-08	-1.961846e+01	-1.249764e+03
5.500000e-07	-2.635013e-06	-1.891569e-08	-1.898876e+01	-1.241380e+03
5.600000e-07	-2.546629e-06	-1.878268e-08	-1.835183e+01	-1.233002e+03
5.700000e-07	-2.457104e-06	-1.865002e-08	-1.770668e+01	-1.224576e+03
5.800000e-07	-2.366500e-06	-1.851182e-08	-1.705376e+01	-1.215970e+03
5.900000e-07	-2.274983e-06	-1.836286e-08	-1.639427e+01	-1.207006e+03
6.000000e-07	-2.182680e-06	-1.820684e-08	-1.572910e+01	-1.197514e+03
6.100000e-07	-2.089609e-06	-1.805234e-08	-1.505840e+01	-1.187381e+03
6.200000e-07	-1.995806e-06	-1.789634e-08	-1.438242e+01	-1.176581e+03
6.300000e-07	-1.901330e-06	-1.772952e-08	-1.370160e+01	-1.165184e+03
6.400000e-07	-1.806240e-06	-1.755488e-08	-1.301635e+01	-1.153330e+03
6.500000e-07	-1.710537e-06	-1.737150e-08	-1.232668e+01	-1.141181e+03
6.600000e-07	-1.614160e-06	-1.718324e-08	-1.163216e+01	-1.128862e+03
6.700000e-07	-1.517182e-06	-1.699025e-08	-1.093330e+01	-1.116416e+03
6.800000e-07	-1.419610e-06	-1.679147e-08	-1.023017e+01	-1.103770e+03
6.900000e-07	-1.321442e-06	-1.658401e-08	-9.522738e+00	-1.090754e+03
7.000000e-07	-1.222717e-06	-1.636758e-08	-8.811297e+00	-1.077136e+03
7.100000e-07	-1.123541e-06	-1.614146e-08	-8.096602e+00	-1.062688e+03
7.200000e-07	-1.024022e-06	-1.590516e-08	-7.379430e+00	-1.047246e+03
7.300000e-07	-9.241492e-07	-1.566088e-08	-6.659718e+00	-1.030757e+03
7.400000e-07	-8.240235e-07	-1.540838e-08	-5.938180e+00	-1.013286e+03
7.500000e-07	-7.237174e-07	-1.514644e-08	-5.215342e+00	-9.949861e+02
7.600000e-07	-6.232276e-07	-1.486682e-08	-4.491180e+00	-9.760294e+02
7.700000e-07	-5.225484e-07	-1.456818e-08	-3.765653e+00	-9.565286e+02
7.800000e-07	-4.217366e-07	-1.425338e-08	-3.039170e+00	-9.364641e+02
7.900000e-07	-3.208112e-07	-1.392183e-08	-2.311869e+00	-9.156467e+02
8.000000e-07	-2.196755e-07	-1.357207e-08	-1.583053e+00	-8.937290e+02
8.100000e-07	-1.183896e-07	-1.320202e-08	-8.531540e-01	-8.702652e+02
8.200000e-07	-1.705786e-08	-1.280914e-08	-1.229244e-01	-8.448050e+02
8.300000e-07	8.426578e-08	-1.238915e-08	6.072465e-01	-8.169916e+02
8.400000e-07	1.856131e-07	-1.193925e-08	1.337588e+00	-7.866308e+02
8.500000e-07	2.869587e-07	-1.145546e-08	2.067917e+00	-7.537018e+02
8.600000e-07	3.881054e-07	-1.093231e-08	2.796813e+00	-7.182938e+02
8.700000e-07	4.890456e-07	-1.036562e-08	3.524221e+00	-6.804764e+02
8.800000e-07	5.898589e-07	-9.747607e-09	4.250714e+00	-6.401304e+02
8.900000e-07	6.905291e-07	-9.068790e-09	4.976176e+00	-5.967860e+02
9.000000e-07	7.910188e-07	-8.320788e-09	5.700338e+00	-5.495186e+02
9.100000e-07	8.912724e-07	-7.492843e-09	6.422797e+00	-4.969479e+02
9.200000e-07	9.912820e-07	-6.568572e-09	7.143499e+00	-4.373647e+02
9.300000e-07	1.091079e-06	-5.526578e-09	7.862668e+00	-3.689811e+02
9.400000e-07	1.190562e-06	-4.341994e-09	8.579577e+00	-2.902680e+02
9.500000e-07	1.289606e-06	-2.995317e-09	9.293318e+00	-2.003182e+02
9.600000e-07	1.388075e-06	-1.473731e-09	1.000292e+01	-9.915997e+01
9.700000e-07	1.485854e-06	2.167343e-10	1.070755e+01	1.205084e+01
9.800000e-07	1.582889e-06	2.046314e-09	1.140681e+01	1.310120e+02
9.900000e-07	1.679183e-06	3.960514e-09	1.210073e+01	2.544479e+02
1.000000e-06	1.774841e-06	5.883393e-09	1.279008e+01	3.784533e+02
1.010000e-06	1.869899e-06	7.736546e-09	1.347510e+01	4.989521e+02
1.020000e-06	1.964274e-06	9.451661e-09	1.415519e+01	6.121900e+02
1.030000e-06	2.057965e-06	1.098836e-08	1.483036e+01	7.151718e+02
1.040000e-06	2.150955e-06	1.232804e-08	1.550048e+01	8.059679e+02
1.050000e-06	2.243241e-06	1.347311e-08	1.616552e+01	8.838405e+02
1.060000e-06	2.334924e-06	1.444228e-08	1.682622e+01	9.491776e+02
1.070000e-06	2.425939e-06	1.525919e-08	1.748210e+01	1.003262e+03
1.080000e-06	2.515928e-06	1.594837e-08	1.813059e+01	1.047934e+03
1.090000e-06	2.604675e-06	1.653292e-08	1.877013e+01	1.085221e+03
1.100000e-06	2.692427e-06	1.703267e-08	1.940250e+01	1.117006e+03
1.110000e-06	2.779380e-06	1.746297e-08	2.002912e+01	1.144799e+03
1.120000e-06	2.865413e-06	1.783453e-08	2.064910e+01	1.169627e+03
1.130000e-06	2.950463e-06	1.815992e-08	2.126199e+01	1.192060e+03
1.140000e-06	3.034593e-06	1.844812e-08	2.186826e+01	1.212320e+03
1.150000e-06	3.117832e-06	1.870731e-08	2.246810e+01	1.230447e+03
1.160000e-06	3.199968e-06	1.894170e-08	2.306001e+01	1.246461e+03
1.170000e-06	3.280798e-06	1.915368e-08	2.364249e+01	1.260474e+03
1.180000e-06	3.360474e-06	1.934956e-08	2.421666e+01	1.272742e+03
1.190000e-06	3.439011e-06	1.952859e-08	2.478263e+01	1.283642e+03
1.200000e-06	3.516321e-06	1.968887e-08	2.533975e+01	1.293599e+03
1.210000e-06	3.592401e-06	1.983791e-08	2.588800e+01	1.302998e+03
1.220000e-06	3.667110e-06	1.997857e-08	2.642638e+01	1.312101e+03
1.230000e-06	3.740124e-06	2.011189e-08	2.695254e+01	1.321007e+03
1.240000e-06	3.811593e-06	2.023660e-08	2.746757e+01	1.329658e+03
1.250000e-06	3.881773e-06	2.035144e-08	2.797332e+01	1.337891e+03
1.260000e-06	3.950618e-06	2.045944e-08	2.846943e+01	1.345513e+03
1.270000e-06	4.018298e-06	2.055694e-08	2.895715e+01	1.352383e+03
1.280000e-06	4.084535e-06	2.064750e-08	2.943448e+01	1.358466e+03
1.290000e-06	4.148985e-06	2.073231e-08	2.989893e+01	1.363851e+03
1.300000e-06	4.211871e-06	2.081349e-08	3.035210e+01	1.368731e+03
1.310000e-06	4.273356e-06	2.089137e-08	3.079518e+01	1.373349e+03
1.320000e-06	4.333530e-06	2.096667e-08	3.122882e+01	1.377928e+03
1.330000e-06	4.392385e-06	2.104192e-08	3.165295e+01	1.382613e+03
1.340000e-06	4.449430e-06	2.111484e-08	3.206403e+01	1.387434e+03
1.350000e-06	4.504631e-06	2.118267e-08	3.246183e+01	1.392311e+03
1.360000e-06	4.558249e-06	2.124567e-08	3.284822e+01	1.397083e+03
1.370000e-06	4.610107e-06	2.130385e-08	3.322193e+01	1.401566e+03
1.380000e-06	4.659968e-06	2.135804e-08	3.358123e+01	1.405609e+03
1.390000e-06	4.707920e-06	2.141047e-08	3.392679e+01	1.409145e+03
1.400000e-06	4.754200e-06	2.145923e-08	3.426030e+01	1.412204e+03
1.410000e-06	4.798925e-06	2.150447e-08	3.458260e+01	1.414902e+03
1.420000e-06	4.842158e-06	2.154862e-08	3.489416e+01	1.417404e+03
1.430000e-06	4.883531e-06	2.159432e-08	3.519231e+01	1.419868e+03
1.440000e-06	4.923013e-06	2.163771e-08	3.547683e+01	1.422404e+03
1.450000e-06	4.960896e-06	2.167575e-08	3.574982e+01	1.425037e+03
1.460000e-06	4.997245e-06	2.170825e-08	3.601176e+01	1.427707e+03
1.470000e-06	5.031912e-06	2.173568e-08	3.626158e+01	1.430294e+03
1.480000e-06	5.064610e-06	2.175989e-08	3.649722e+01	1.432654e+03
1.490000e-06	5.095491e-06	2.178230e-08	3.671976e+01	1.434673e+03
1.500000e-06	5.124754e-06	2.180731e-08	3.693064e+01	1.436299e+03
1.510000e-06	5.152397e-06	2.183450e-08	3.712984e+01	1.437558e+03
1.520000e-06	5.178014e-06	2.185886e-08	3.731444e+01	1.438548e+03
1.530000e-06	5.201500e-06	2.187976e-08	3.748370e+01	1.439405e+03
1.540000e-06	5.223217e-06	2.189822e-08	3.764019e+01	1.440264e+03
1.550000e-06	5.243346e-06	2.191507e-08	3.778525e+01	1.441215e+03
1.560000e-06	5.261721e-06	2.192761e-08	3.791767e+01	1.442277e+03
1.570000e-06	5.278060e-06	2.193579e-08	3.803541e+01	1.443397e+03
1.580000e-06	5.292393e-06	2.194273e-08	3.813869e+01	1.444467e+03
1.590000e-06	5.304760e-06	2.194878e-08	3.822782e+01	1.445359e+03
1.600000e-06	5.314950e-06	2.195622e-08	3.830125e+01	1.445967e+03
1.610000e-06	5.322971e-06	2.196606e-08	3.835905e+01	1.446242e+03
1.620000e-06	5.329149e-06	2.197696e-08	3.840357e+01	1.446204e+03
1.630000e-06	5.333640e-06	2.198572e-08	3.843594e+01	1.445936e+03
1.640000e-06	5.336323e-06	2.198965e-08	3.845527e+01	1.445561e+03
1.650000e-06	5.336979e-06	2.198845e-08	3.846000e+01	1.445198e+03
1.660000e-06	5.335747e-06	2.197861e-08	3.845112e+01	1.444928e+03
1.670000e-06	5.332867e-06	2.196727e-08	3.843036e+01	1.444767e+03
1.680000e-06	5.328403e-06	2.196097e-08	3.839819e+01	1.444665e+03
1.690000e-06	5.322080e-06	2.195448e-08	3.835263e+01	1.444514e+03
1.700000e-06	5.313879e-06	2.194958e-08	3.829353e+01	1.444188e+03
1.710000e-06	5.304104e-06	2.194700e-08	3.822309e+01	1.443580e+03
1.720000e-06	5.292728e-06	2.195645e-08	3.814111e+01	1.442635e+03
1.730000e-06	5.279509e-06	2.195292e-08	3.804585e+01	1.441367e+03
1.740000e-06	5.264224e-06	2.183641e-08	3.793570e+01	1.439856e+03
1.750000e-06	5.246653e-06	2.179847e-08	3.780908e+01	1.438224e+03
1.760000e-06	5.226536e-06	2.181745e-08	3.766411e+01	1.436603e+03
1.770000e-06	5.203987e-06	2.182752e-08	3.750161e+01	1.435093e+03
1.780000e-06	5.179929e-06	2.195500e-08	3.732825e+01	1.433737e+03
1.790000e-06	5.155178e-06	2.177523e-08	3.714988e+01	1.432511e+03
1.800000e-06	5.129163e-06	2.166492e-08	3.696241e+01	1.431334e+03
1.810000e-06	5.101086e-06	2.186457e-08	3.676008e+01	1.430094e+03
1.820000e-06	5.071279e-06	2.166371e-08	3.654528e+01	1.428681e+03
1.830000e-06	5.039769e-06	2.166729e-08	3.631821e+01	1.427021e+03
1.840000e-06	5.006252e-06	2.188849e-08	3.607667e+01	1.425091e+03
1.850000e-06	4.971123e-06	2.163816e-08	3.582352e+01	1.422923e+03
1.860000e-06	4.934189e-06	2.164774e-08	3.555737e+01	1.420586e+03
1.870000e-06	4.895197e-06	2.172605e-08	3.527637e+01	1.418157e+03
1.880000e-06	4.854609e-06	2.157164e-08	3.498388e+01	1.415691e+03
1.890000e-06	4.812314e-06	2.166617e-08	3.467909e+01	1.413201e+03
1.900000e-06	4.768277e-06	2.149382e-08	3.436175e+01	1.410650e+03
1.910000e-06	4.722573e-06	2.140585e-08	3.403239e+01	1.407961e+03
1.920000e-06	4.674993e-06	2.158412e-08	3.368952e+01	1.405044e+03
1.930000e-06	4.625852e-06	2.140862e-08	3.333539e+01	1.401827e+03
1.940000e-06	4.574944e-06	2.134846e-08	3.296853e+01	1.398280e+03
1.950000e-06	4.521936e-06	2.129234e-08	3.258653e+01	1.394428e+03
1.960000e-06	4.467025e-06	2.119962e-08	3.219083e+01	1.390350e+03
1.970000e-06	4.410382e-06	2.120027e-08	3.178264e+01	1.386151e+03
1.980000e-06	4.352203e-06	2.106384e-08	3.136338e+01	1.381933e+03
1.990000e-06	4.292607e-06	2.108214e-08	3.093392e+01	1.377762e+03
2.000000e-06	4.231575e-06	2.103098e-08	3.049410e+01	1.373645e+03
2.010000e-06	4.168929e-06	2.090890e-08	3.004265e+01	1.369527e+03
2.020000e-06	4.104630e-06	2.085196e-08	2.957929e+01	1.365306e+03
2.030000e-06	4.038867e-06	2.074370e-08	2.910538e+01	1.360861e+03
2.040000e-06	3.971738e-06	2.075071e-08	2.862163e+01	1.356095e+03
2.050000e-06	3.903218e-06	2.063821e-08	2.812785e+01	1.350957e+03
2.060000e-06	3.833227e-06	2.053058e-08	2.762348e+01	1.345468e+03
2.070000e-06	3.761724e-06	2.049596e-08	2.710820e+01	1.339709e+03
2.080000e-06	3.688898e-06	2.038275e-08	2.658339e+01	1.333795e+03
2.090000e-06	3.614792e-06	2.031331e-08	2.604936e+01	1.327844e+03
2.100000e-06	3.539350e-06	2.019886e-08	2.550570e+01	1.321931e+03
2.110000e-06	3.462484e-06	2.011959e-08	2.495178e+01	1.316068e+03
2.120000e-06	3.384145e-06	2.003657e-08	2.438724e+01	1.310190e+03
2.130000e-06	3.304486e-06	1.992849e-08	2.381320e+01	1.304175e+03
2.140000e-06	3.223667e-06	1.983599e-08	2.323079e+01	1.297879e+03
2.150000e-06	3.141785e-06	1.971274e-08	2.264072e+01	1.291177e+03
2.160000e-06	3.058835e-06	1.962112e-08	2.204295e+01	1.284000e+03
2.170000e-06	2.974893e-06	1.951238e-08	2.143804e+01	1.276361e+03
2.180000e-06	2.889884e-06	1.940254e-08	2.082544e+01	1.268344e+03
2.190000e-06	2.803683e-06	1.928199e-08	2.020424e+01	1.260082e+03
2.200000e-06	2.716302e-06	1.914881e-08	1.957455e+01	1.251713e+03
2.210000e-06	2.627890e-06	1.902587e-08	1.893742e+01	1.243330e+03
2.220000e-06	2.538619e-06	1.889168e-08	1.829411e+01	1.234948e+03
2.230000e-06	2.448518e-06	1.876519e-08	1.764481e+01	1.226497e+03
2.240000e-06	2.357662e-06	1.863090e-08	1.699007e+01	1.217828e+03
2.250000e-06	2.266119e-06	1.849067e-08	1.633039e+01	1.208764e+03
2.260000e-06	2.173783e-06	1.833467e-08	1.566498e+01	1.199141e+03
2.270000e-06	2.080513e-06	1.817764e-08	1.499285e+01	1.188863e+03
2.280000e-06	1.986331e-06	1.802219e-08	1.431414e+01	1.177926e+03
2.290000e-06	1.891317e-06	1.785582e-08	1.362944e+01	1.166416e+03
2.300000e-06	1.795534e-06	1.768402e-08	1.293920e+01	1.154485e+03
2.310000e-06	1.699176e-06	1.750442e-08	1.224481e+01	1.142290e+03
2.320000e-06	1.602395e-06	1.732252e-08	1.154738e+01	1.129944e+03
2.330000e-06	1.505168e-06	1.712985e-08	1.084672e+01	1.117464e+03
2.340000e-06	1.407438e-06	1.692539e-08	1.014245e+01	1.104755e+03
2.350000e-06	1.309174e-06	1.671006e-08	9.434334e+00	1.091630e+03
2.360000e-06	1.210526e-06	1.649075e-08	8.723440e+00	1.077852e+03
2.370000e-06	1.111620e-06	1.626716e-08	8.010692e+00	1.063200e+03
2.380000e-06	1.012413e-06	1.603407e-08	7.295777e+00	1.047534e+03
2.390000e-06	9.129326e-07	1.578715e-08	6.578888e+00	1.030824e+03
2.400000e-06	8.132121e-07	1.552383e-08	5.860270e+00	1.013160e+03
2.410000e-06	7.132181e-07	1.525037e-08	5.139681e+00	9.947050e+02
2.420000e-06	6.129749e-07	1.496426e-08	4.417296e+00	9.756252e+02
2.430000e-06	5.124927e-07	1.466637e-08	3.693188e+00	9.560101e+02
2.440000e-06	4.117781e-07	1.435539e-08	2.967407e+00	9.358053e+02
2.450000e-06	3.109509e-07	1.402452e-08	2.240813e+00	9.147852e+02
2.460000e-06	2.100369e-07	1.366887e-08	1.513594e+00	8.925748e+02
2.470000e-06	1.089268e-07	1.329126e-08	7.849619e-01	8.687186e+02
2.480000e-06	7.732300e-09	1.289442e-08	5.572145e-02	8.427787e+02
2.490000e-06	-9.347649e-08	1.247109e-08	-6.736219e-01	8.144288e+02
2.500000e-06	-1.946042e-07	1.201424e-08	-1.402381e+00	7.835136e+02
2.510000e-06	-2.956066e-07	1.152023e-08	-2.130237e+00	7.500435e+02
2.520000e-06	-3.965174e-07	1.098696e-08	-2.857433e+00	7.141163e+02
2.530000e-06	-4.972961e-07	1.040893e-08	-3.583677e+00	6.757761e+02
2.540000e-06	-5.979162e-07	9.779566e-09	-4.308777e+00	6.348409e+02
2.550000e-06	-6.983492e-07	9.090618e-09	-5.032530e+00	5.907493e+02
2.560000e-06	-7.985411e-07	8.331179e-09	-5.754546e+00	5.424751e+02
2.570000e-06	-8.983739e-07	7.489749e-09	-6.473973e+00	4.885521e+02
2.580000e-06	-9.979198e-07	6.548143e-09	-7.191333e+00	4.272296e+02
2.590000e-06	-1.097171e-06	5.485247e-09	-7.906570e+00	3.567448e+02
2.600000e-06	-1.196066e-06	4.277598e-09	-8.619237e+00	2.756718e+02
2.610000e-06	-1.294594e-06	2.907109e-09	-9.329260e+00	1.832805e+02
2.620000e-06	-1.392711e-06	1.364825e-09	-1.003632e+01	7.983014e+01
2.630000e-06	-1.490273e-06	-3.447081e-10	-1.073939e+01	-3.327306e+01
2.640000e-06	-1.587275e-06	-2.191758e-09	-1.143842e+01	-1.534973e+02
2.650000e-06	-1.683770e-06	-4.119898e-09	-1.213379e+01	-2.773979e+02
2.660000e-06	-1.779807e-06	-6.051047e-09	-1.282586e+01	-4.009922e+02
2.670000e-06	-1.875387e-06	-7.904327e-09	-1.351465e+01	-5.202320e+02
2.680000e-06	-1.970256e-06	-9.610562e-09	-1.419830e+01	-6.314922e+02
2.690000e-06	-2.064079e-06	-1.112979e-08	-1.487442e+01	-7.319859e+02
2.700000e-06	-2.156856e-06	-1.245085e-08	-1.554301e+01	-8.200349e+02
2.710000e-06	-2.248847e-06	-1.358182e-08	-1.620592e+01	-8.951545e+02
2.720000e-06	-2.340119e-06	-1.454023e-08	-1.686366e+01	-9.579483e+02
2.730000e-06	-2.430612e-06	-1.534917e-08	-1.751578e+01	-1.009850e+03
2.740000e-06	-2.520195e-06	-1.603559e-08	-1.816134e+01	-1.052770e+03
2.750000e-06	-2.608876e-06	-1.661825e-08	-1.880040e+01	-1.088730e+03
2.760000e-06	-2.696883e-06	-1.711443e-08	-1.943461e+01	-1.119549e+03
2.770000e-06	-2.784162e-06	-1.753922e-08	-2.006357e+01	-1.146637e+03
2.780000e-06	-2.870192e-06	-1.790758e-08	-2.068353e+01	-1.170919e+03
2.790000e-06	-2.954888e-06	-1.823044e-08	-2.129388e+01	-1.192877e+03
2.800000e-06	-3.038626e-06	-1.851603e-08	-2.189732e+01	-1.212680e+03
2.810000e-06	-3.121410e-06	-1.877177e-08	-2.249389e+01	-1.230351e+03
2.820000e-06	-3.203086e-06	-1.900147e-08	-2.308248e+01	-1.245923e+03
2.830000e-06	-3.283719e-06	-1.921125e-08	-2.366354e+01	-1.259537e+03
2.840000e-06	-3.363360e-06	-1.940371e-08	-2.423746e+01	-1.271478e+03
2.850000e-06	-3.441653e-06	-1.958154e-08	-2.480166e+01	-1.282140e+03
2.860000e-06	-3.518388e-06	-1.974609e-08	-2.535464e+01	-1.291949e+03
2.870000e-06	-3.593669e-06	-1.989803e-08	-2.589714e+01	-1.301268e+03
2.880000e-06	-3.667563e-06	-2.003788e-08	-2.642965e+01	-1.310327e+03
2.890000e-06	-3.740204e-06	-2.016662e-08	-2.695312e+01	-1.319189e+03
2.900000e-06	-3.811665e-06	-2.028667e-08	-2.746809e+01	-1.327767e+03
2.910000e-06	-3.881594e-06	-2.040060e-08	-2.797202e+01	-1.335886e+03
2.920000e-06	-3.949908e-06	-2.050906e-08	-2.846432e+01	-1.343357e+03
2.930000e-06	-4.016922e-06	-2.060864e-08	-2.894724e+01	-1.350057e+03
2.940000e-06	-4.082595e-06	-2.070097e-08	-2.942050e+01	-1.355979e+03
