# Temperatura_=_57.8
# Concentracion g/m^3_=_41000.0
# C_Vs_to_Am_M_A/Vsm_=_65563218390.804596
# pendiente_HvsI_1/m_=_3716.3
# ordenada_HvsI_A/m_=_1297.0
# frecuencia_Hz_=_301591.74248342036

Tiempo_(s)	Campo_(V.s)	Magnetizacion_(V.s)	Campo_(kA/m)	Magnetizacion_(A/m)
0.000000e+00	-5.346432e-06	-2.434416e-08	-3.834394e+01	-1.591128e+03
1.000000e-08	-5.343540e-06	-2.433899e-08	-3.832320e+01	-1.590793e+03
2.000000e-08	-5.338948e-06	-2.433025e-08	-3.829027e+01	-1.590568e+03
3.000000e-08	-5.332735e-06	-2.432430e-08	-3.824571e+01	-1.590402e+03
4.000000e-08	-5.324936e-06	-2.431449e-08	-3.818978e+01	-1.590191e+03
5.000000e-08	-5.315285e-06	-2.429960e-08	-3.812056e+01	-1.589810e+03
6.000000e-08	-5.303533e-06	-2.427752e-08	-3.803628e+01	-1.589151e+03
7.000000e-08	-5.289874e-06	-2.424451e-08	-3.793832e+01	-1.588156e+03
8.000000e-08	-5.274074e-06	-2.428078e-08	-3.782500e+01	-1.586839e+03
9.000000e-08	-5.255987e-06	-2.432402e-08	-3.769528e+01	-1.585280e+03
1.000000e-07	-5.235891e-06	-2.425162e-08	-3.755115e+01	-1.583606e+03
1.100000e-07	-5.213961e-06	-2.420472e-08	-3.739388e+01	-1.581947e+03
1.200000e-07	-5.190465e-06	-2.413555e-08	-3.722536e+01	-1.580408e+03
1.300000e-07	-5.165603e-06	-2.400186e-08	-3.704706e+01	-1.579033e+03
1.400000e-07	-5.139097e-06	-2.417255e-08	-3.685696e+01	-1.577795e+03
1.500000e-07	-5.110869e-06	-2.416176e-08	-3.665451e+01	-1.576608e+03
1.600000e-07	-5.081205e-06	-2.397209e-08	-3.644177e+01	-1.575350e+03
1.700000e-07	-5.049992e-06	-2.414190e-08	-3.621791e+01	-1.573901e+03
1.800000e-07	-5.016635e-06	-2.401296e-08	-3.597868e+01	-1.572174e+03
1.900000e-07	-4.981383e-06	-2.383909e-08	-3.572585e+01	-1.570141e+03
2.000000e-07	-4.944658e-06	-2.400983e-08	-3.546247e+01	-1.567828e+03
2.100000e-07	-4.906206e-06	-2.390389e-08	-3.518670e+01	-1.565307e+03
2.200000e-07	-4.866002e-06	-2.379713e-08	-3.489836e+01	-1.562666e+03
2.300000e-07	-4.823866e-06	-2.382878e-08	-3.459616e+01	-1.559974e+03
2.400000e-07	-4.779757e-06	-2.372702e-08	-3.427982e+01	-1.557260e+03
2.500000e-07	-4.733862e-06	-2.374261e-08	-3.395067e+01	-1.554502e+03
2.600000e-07	-4.686155e-06	-2.369193e-08	-3.360852e+01	-1.551634e+03
2.700000e-07	-4.636437e-06	-2.358303e-08	-3.325195e+01	-1.548569e+03
2.800000e-07	-4.584625e-06	-2.354627e-08	-3.288036e+01	-1.545228e+03
2.900000e-07	-4.531025e-06	-2.349216e-08	-3.249594e+01	-1.541567e+03
3.000000e-07	-4.475823e-06	-2.345003e-08	-3.210005e+01	-1.537597e+03
3.100000e-07	-4.418861e-06	-2.338495e-08	-3.169152e+01	-1.533375e+03
3.200000e-07	-4.360109e-06	-2.332779e-08	-3.127016e+01	-1.528994e+03
3.300000e-07	-4.299790e-06	-2.326012e-08	-3.083755e+01	-1.524548e+03
3.400000e-07	-4.238032e-06	-2.317104e-08	-3.039464e+01	-1.520104e+03
3.500000e-07	-4.174933e-06	-2.310828e-08	-2.994210e+01	-1.515679e+03
3.600000e-07	-4.110433e-06	-2.303243e-08	-2.947951e+01	-1.511232e+03
3.700000e-07	-4.044249e-06	-2.297761e-08	-2.900485e+01	-1.506675e+03
3.800000e-07	-3.976461e-06	-2.289432e-08	-2.851868e+01	-1.501902e+03
3.900000e-07	-3.907302e-06	-2.278239e-08	-2.802268e+01	-1.496820e+03
4.000000e-07	-3.836879e-06	-2.272199e-08	-2.751762e+01	-1.491380e+03
4.100000e-07	-3.765313e-06	-2.263665e-08	-2.700436e+01	-1.485594e+03
4.200000e-07	-3.692475e-06	-2.254867e-08	-2.648197e+01	-1.479528e+03
4.300000e-07	-3.618026e-06	-2.245609e-08	-2.594803e+01	-1.473285e+03
4.400000e-07	-3.541925e-06	-2.236624e-08	-2.540224e+01	-1.466969e+03
4.500000e-07	-3.464506e-06	-2.226914e-08	-2.484701e+01	-1.460650e+03
4.600000e-07	-3.385722e-06	-2.216195e-08	-2.428197e+01	-1.454338e+03
4.700000e-07	-3.305542e-06	-2.206736e-08	-2.370693e+01	-1.447974e+03
4.800000e-07	-3.224130e-06	-2.195684e-08	-2.312306e+01	-1.441446e+03
4.900000e-07	-3.141543e-06	-2.185025e-08	-2.253075e+01	-1.434620e+03
5.000000e-07	-3.058024e-06	-2.173642e-08	-2.193177e+01	-1.427378e+03
5.100000e-07	-2.973652e-06	-2.161432e-08	-2.132666e+01	-1.419654e+03
5.200000e-07	-2.888347e-06	-2.148604e-08	-2.071486e+01	-1.411451e+03
5.300000e-07	-2.802093e-06	-2.135805e-08	-2.009626e+01	-1.402846e+03
5.400000e-07	-2.714943e-06	-2.123283e-08	-1.947123e+01	-1.393954e+03
5.500000e-07	-2.626932e-06	-2.110222e-08	-1.884003e+01	-1.384897e+03
5.600000e-07	-2.537852e-06	-2.096330e-08	-1.820115e+01	-1.375758e+03
5.700000e-07	-2.447562e-06	-2.081401e-08	-1.755361e+01	-1.366548e+03
5.800000e-07	-2.356271e-06	-2.066019e-08	-1.689888e+01	-1.357194e+03
5.900000e-07	-2.264173e-06	-2.050075e-08	-1.623837e+01	-1.347558e+03
6.000000e-07	-2.171271e-06	-2.033874e-08	-1.557209e+01	-1.337473e+03
6.100000e-07	-2.077540e-06	-2.017345e-08	-1.489986e+01	-1.326789e+03
6.200000e-07	-1.983061e-06	-2.000200e-08	-1.422227e+01	-1.315416e+03
6.300000e-07	-1.888020e-06	-1.982108e-08	-1.354064e+01	-1.303354e+03
6.400000e-07	-1.792471e-06	-1.963422e-08	-1.285538e+01	-1.290688e+03
6.500000e-07	-1.696271e-06	-1.944094e-08	-1.216544e+01	-1.277558e+03
6.600000e-07	-1.599306e-06	-1.923987e-08	-1.147002e+01	-1.264110e+03
6.700000e-07	-1.501556e-06	-1.903229e-08	-1.076897e+01	-1.250441e+03
6.800000e-07	-1.403108e-06	-1.881472e-08	-1.006291e+01	-1.236555e+03
6.900000e-07	-1.304144e-06	-1.858865e-08	-9.353156e+00	-1.222351e+03
7.000000e-07	-1.204813e-06	-1.835334e-08	-8.640768e+00	-1.207633e+03
7.100000e-07	-1.105118e-06	-1.810908e-08	-7.925770e+00	-1.192164e+03
7.200000e-07	-1.005100e-06	-1.785499e-08	-7.208449e+00	-1.175725e+03
7.300000e-07	-9.048063e-07	-1.759316e-08	-6.489158e+00	-1.158173e+03
7.400000e-07	-8.042363e-07	-1.732093e-08	-5.767882e+00	-1.139481e+03
7.500000e-07	-7.034118e-07	-1.703445e-08	-5.044781e+00	-1.119731e+03
7.600000e-07	-6.023855e-07	-1.672762e-08	-4.320234e+00	-1.099079e+03
7.700000e-07	-5.012091e-07	-1.640089e-08	-3.594609e+00	-1.077682e+03
7.800000e-07	-3.998491e-07	-1.605981e-08	-2.867668e+00	-1.055620e+03
7.900000e-07	-2.983274e-07	-1.569983e-08	-2.139567e+00	-1.032827e+03
8.000000e-07	-1.966899e-07	-1.532272e-08	-1.410635e+00	-1.009073e+03
8.100000e-07	-9.495806e-08	-1.492803e-08	-6.810273e-01	-9.839763e+02
8.200000e-07	6.833583e-09	-1.451183e-08	4.900960e-02	-9.570822e+02
8.300000e-07	1.086449e-07	-1.406767e-08	7.791876e-01	-9.279529e+02
8.400000e-07	2.104241e-07	-1.359186e-08	1.509135e+00	-8.962641e+02
8.500000e-07	3.120893e-07	-1.308076e-08	2.238265e+00	-8.618621e+02
8.600000e-07	4.136422e-07	-1.252918e-08	2.966590e+00	-8.247580e+02
8.700000e-07	5.151273e-07	-1.193664e-08	3.694429e+00	-7.850494e+02
8.800000e-07	6.164331e-07	-1.129674e-08	4.420981e+00	-7.427780e+02
8.900000e-07	7.175526e-07	-1.060259e-08	5.146197e+00	-6.977581e+02
9.000000e-07	8.184867e-07	-9.847073e-09	5.870084e+00	-6.494208e+02
9.100000e-07	9.190994e-07	-9.019425e-09	6.591666e+00	-5.967273e+02
9.200000e-07	1.019430e-06	-8.106121e-09	7.311221e+00	-5.381914e+02
9.300000e-07	1.119479e-06	-7.088081e-09	8.028763e+00	-4.720312e+02
9.400000e-07	1.219197e-06	-5.941415e-09	8.743928e+00	-3.964404e+02
9.500000e-07	1.318576e-06	-4.639706e-09	9.456661e+00	-3.099368e+02
9.600000e-07	1.417479e-06	-3.162749e-09	1.016598e+01	-2.117240e+02
9.700000e-07	1.515684e-06	-1.503834e-09	1.087029e+01	-1.019905e+02
9.800000e-07	1.613077e-06	3.261038e-10	1.156879e+01	1.792326e+01
9.900000e-07	1.709657e-06	2.292558e-09	1.226145e+01	1.455360e+02
1.000000e-06	1.805531e-06	4.335844e-09	1.294904e+01	2.774265e+02
1.010000e-06	1.900866e-06	6.379617e-09	1.363277e+01	4.095984e+02
1.020000e-06	1.995596e-06	8.344490e-09	1.431217e+01	5.379469e+02
1.030000e-06	2.089584e-06	1.016825e-08	1.498623e+01	6.587455e+02
1.040000e-06	2.182800e-06	1.181163e-08	1.565477e+01	7.690658e+02
1.050000e-06	2.275327e-06	1.326241e-08	1.631836e+01	8.670579e+02
1.060000e-06	2.367257e-06	1.452378e-08	1.697767e+01	9.520494e+02
1.070000e-06	2.458504e-06	1.560870e-08	1.763209e+01	1.024457e+03
1.080000e-06	2.548647e-06	1.653856e-08	1.827858e+01	1.085543e+03
1.090000e-06	2.637540e-06	1.733544e-08	1.891611e+01	1.137079e+03
1.100000e-06	2.725480e-06	1.801909e-08	1.954680e+01	1.180984e+03
1.110000e-06	2.812543e-06	1.860847e-08	2.017121e+01	1.219020e+03
1.120000e-06	2.898708e-06	1.911913e-08	2.078917e+01	1.252580e+03
1.130000e-06	2.983916e-06	1.956518e-08	2.140027e+01	1.282607e+03
1.140000e-06	3.068214e-06	1.995833e-08	2.200485e+01	1.309629e+03
1.150000e-06	3.151664e-06	2.030902e-08	2.260334e+01	1.333879e+03
1.160000e-06	3.233987e-06	2.062319e-08	2.319375e+01	1.355452e+03
1.170000e-06	3.315006e-06	2.090551e-08	2.377481e+01	1.374450e+03
1.180000e-06	3.394766e-06	2.116062e-08	2.434684e+01	1.391083e+03
1.190000e-06	3.473291e-06	2.138990e-08	2.491001e+01	1.405695e+03
1.200000e-06	3.550660e-06	2.159567e-08	2.546489e+01	1.418733e+03
1.210000e-06	3.626866e-06	2.178451e-08	2.601143e+01	1.430666e+03
1.220000e-06	3.701608e-06	2.196242e-08	2.654747e+01	1.441894e+03
1.230000e-06	3.774640e-06	2.212938e-08	2.707125e+01	1.452676e+03
1.240000e-06	3.846177e-06	2.228593e-08	2.758430e+01	1.463098e+03
1.250000e-06	3.916413e-06	2.243016e-08	2.808803e+01	1.473091e+03
1.260000e-06	3.985310e-06	2.256244e-08	2.858214e+01	1.482488e+03
1.270000e-06	4.052947e-06	2.268329e-08	2.906723e+01	1.491109e+03
1.280000e-06	4.119029e-06	2.279615e-08	2.954116e+01	1.498831e+03
1.290000e-06	4.183363e-06	2.290206e-08	3.000255e+01	1.505648e+03
1.300000e-06	4.246223e-06	2.300004e-08	3.045338e+01	1.511677e+03
1.310000e-06	4.307678e-06	2.308985e-08	3.089413e+01	1.517130e+03
1.320000e-06	4.367849e-06	2.317484e-08	3.132567e+01	1.522261e+03
1.330000e-06	4.426543e-06	2.325694e-08	3.174661e+01	1.527295e+03
1.340000e-06	4.483374e-06	2.333442e-08	3.215420e+01	1.532371e+03
1.350000e-06	4.538520e-06	2.340747e-08	3.254970e+01	1.537514e+03
1.360000e-06	4.592127e-06	2.347706e-08	3.293416e+01	1.542640e+03
1.370000e-06	4.643977e-06	2.354388e-08	3.330602e+01	1.547595e+03
1.380000e-06	4.693757e-06	2.360769e-08	3.366304e+01	1.552206e+03
1.390000e-06	4.741556e-06	2.366769e-08	3.400585e+01	1.556345e+03
1.400000e-06	4.787729e-06	2.372352e-08	3.433699e+01	1.559963e+03
1.410000e-06	4.832411e-06	2.377475e-08	3.465745e+01	1.563108e+03
1.420000e-06	4.875481e-06	2.382250e-08	3.496634e+01	1.565906e+03
1.430000e-06	4.916644e-06	2.386909e-08	3.526155e+01	1.568518e+03
1.440000e-06	4.956027e-06	2.391304e-08	3.554401e+01	1.571094e+03
1.450000e-06	4.993790e-06	2.395259e-08	3.581484e+01	1.573725e+03
1.460000e-06	5.029996e-06	2.398794e-08	3.607450e+01	1.576421e+03
1.470000e-06	5.064407e-06	2.402060e-08	3.632129e+01	1.579110e+03
1.480000e-06	5.096782e-06	2.405131e-08	3.655348e+01	1.581668e+03
1.490000e-06	5.127389e-06	2.407819e-08	3.677300e+01	1.583958e+03
1.500000e-06	5.156388e-06	2.410496e-08	3.698097e+01	1.585880e+03
1.510000e-06	5.183671e-06	2.413142e-08	3.717664e+01	1.587400e+03
1.520000e-06	5.208885e-06	2.415539e-08	3.735747e+01	1.588563e+03
1.530000e-06	5.232076e-06	2.417653e-08	3.752380e+01	1.589478e+03
1.540000e-06	5.253509e-06	2.419305e-08	3.767751e+01	1.590287e+03
1.550000e-06	5.273271e-06	2.420758e-08	3.781924e+01	1.591117e+03
1.560000e-06	5.291271e-06	2.422012e-08	3.794833e+01	1.592047e+03
1.570000e-06	5.307232e-06	2.423091e-08	3.806280e+01	1.593082e+03
1.580000e-06	5.321171e-06	2.424094e-08	3.816277e+01	1.594157e+03
1.590000e-06	5.333095e-06	2.425053e-08	3.824829e+01	1.595155e+03
1.600000e-06	5.342821e-06	2.426078e-08	3.831804e+01	1.595952e+03
1.610000e-06	5.350450e-06	2.427091e-08	3.837276e+01	1.596448e+03
1.620000e-06	5.356244e-06	2.427967e-08	3.841431e+01	1.596607e+03
1.630000e-06	5.360326e-06	2.428467e-08	3.844359e+01	1.596462e+03
1.640000e-06	5.362480e-06	2.428672e-08	3.845904e+01	1.596106e+03
1.650000e-06	5.362614e-06	2.428540e-08	3.846000e+01	1.595664e+03
1.660000e-06	5.360995e-06	2.427548e-08	3.844839e+01	1.595251e+03
1.670000e-06	5.357788e-06	2.427064e-08	3.842538e+01	1.594939e+03
1.680000e-06	5.352856e-06	2.426702e-08	3.839002e+01	1.594732e+03
1.690000e-06	5.346002e-06	2.426187e-08	3.834086e+01	1.594565e+03
1.700000e-06	5.337395e-06	2.425749e-08	3.827913e+01	1.594328e+03
1.710000e-06	5.327216e-06	2.425515e-08	3.820613e+01	1.593894e+03
1.720000e-06	5.315381e-06	2.427116e-08	3.812125e+01	1.593164e+03
1.730000e-06	5.301593e-06	2.422182e-08	3.802236e+01	1.592095e+03
1.740000e-06	5.285689e-06	2.411039e-08	3.790830e+01	1.590716e+03
1.750000e-06	5.267449e-06	2.413134e-08	3.777748e+01	1.589121e+03
1.760000e-06	5.246564e-06	2.413793e-08	3.762770e+01	1.587438e+03
1.770000e-06	5.223470e-06	2.419992e-08	3.746208e+01	1.585797e+03
1.780000e-06	5.199172e-06	2.426119e-08	3.728781e+01	1.584290e+03
1.790000e-06	5.174108e-06	2.399434e-08	3.710805e+01	1.582948e+03
1.800000e-06	5.147495e-06	2.406259e-08	3.691719e+01	1.581729e+03
1.810000e-06	5.118762e-06	2.413932e-08	3.671112e+01	1.580536e+03
1.820000e-06	5.088320e-06	2.388307e-08	3.649280e+01	1.579245e+03
1.830000e-06	5.056060e-06	2.409465e-08	3.626143e+01	1.577741e+03
1.840000e-06	5.021848e-06	2.412489e-08	3.601607e+01	1.575949e+03
1.850000e-06	4.986105e-06	2.385471e-08	3.575972e+01	1.573850e+03
1.860000e-06	4.948569e-06	2.402486e-08	3.549052e+01	1.571484e+03
1.870000e-06	4.909158e-06	2.395931e-08	3.520787e+01	1.568930e+03
1.880000e-06	4.868107e-06	2.387744e-08	3.491345e+01	1.566271e+03
1.890000e-06	4.825210e-06	2.394168e-08	3.460580e+01	1.563573e+03
1.900000e-06	4.780652e-06	2.369908e-08	3.428624e+01	1.560852e+03
1.910000e-06	4.734342e-06	2.379887e-08	3.395411e+01	1.558076e+03
1.920000e-06	4.686163e-06	2.381070e-08	3.360858e+01	1.555172e+03
1.930000e-06	4.636352e-06	2.362661e-08	3.325133e+01	1.552053e+03
1.940000e-06	4.584627e-06	2.365753e-08	3.288037e+01	1.548644e+03
1.950000e-06	4.530859e-06	2.353569e-08	3.249475e+01	1.544913e+03
1.960000e-06	4.475308e-06	2.353229e-08	3.209635e+01	1.540881e+03
1.970000e-06	4.418130e-06	2.345834e-08	3.168628e+01	1.536616e+03
1.980000e-06	4.359443e-06	2.333963e-08	3.126538e+01	1.532212e+03
1.990000e-06	4.299319e-06	2.339331e-08	3.083418e+01	1.527762e+03
2.000000e-06	4.237614e-06	2.325242e-08	3.039164e+01	1.523321e+03
2.010000e-06	4.174154e-06	2.319676e-08	2.993651e+01	1.518896e+03
2.020000e-06	4.109108e-06	2.311070e-08	2.947001e+01	1.514432e+03
2.030000e-06	4.042724e-06	2.303739e-08	2.899391e+01	1.509837e+03
2.040000e-06	3.974974e-06	2.301974e-08	2.850802e+01	1.505003e+03
2.050000e-06	3.905664e-06	2.285397e-08	2.801093e+01	1.499846e+03
2.060000e-06	3.834825e-06	2.281725e-08	2.750289e+01	1.494328e+03
2.070000e-06	3.762696e-06	2.273536e-08	2.698559e+01	1.488473e+03
2.080000e-06	3.689287e-06	2.264233e-08	2.645911e+01	1.482359e+03
2.090000e-06	3.614597e-06	2.255705e-08	2.592344e+01	1.476091e+03
2.100000e-06	3.538528e-06	2.243707e-08	2.537788e+01	1.469770e+03
2.110000e-06	3.460819e-06	2.237669e-08	2.482056e+01	1.463452e+03
2.120000e-06	3.381717e-06	2.225692e-08	2.425325e+01	1.457135e+03
2.130000e-06	3.301490e-06	2.216672e-08	2.367787e+01	1.450746e+03
2.140000e-06	3.220095e-06	2.205432e-08	2.309412e+01	1.444165e+03
2.150000e-06	3.137564e-06	2.194076e-08	2.250221e+01	1.437257e+03
2.160000e-06	3.054057e-06	2.183925e-08	2.190331e+01	1.429914e+03
2.170000e-06	2.969510e-06	2.171596e-08	2.129696e+01	1.422083e+03
2.180000e-06	2.883593e-06	2.160607e-08	2.068077e+01	1.413785e+03
2.190000e-06	2.796518e-06	2.147226e-08	2.005628e+01	1.405106e+03
2.200000e-06	2.708498e-06	2.134538e-08	1.942501e+01	1.396168e+03
2.210000e-06	2.619520e-06	2.120740e-08	1.878687e+01	1.387088e+03
2.220000e-06	2.529656e-06	2.107309e-08	1.814237e+01	1.377935e+03
2.230000e-06	2.438941e-06	2.093574e-08	1.749178e+01	1.368701e+03
2.240000e-06	2.347590e-06	2.078829e-08	1.683662e+01	1.359299e+03
2.250000e-06	2.255564e-06	2.063421e-08	1.617662e+01	1.349580e+03
2.260000e-06	2.162576e-06	2.046839e-08	1.550973e+01	1.339377e+03
2.270000e-06	2.068517e-06	2.030654e-08	1.483515e+01	1.328548e+03
2.280000e-06	1.973555e-06	2.013711e-08	1.415409e+01	1.317024e+03
2.290000e-06	1.877938e-06	1.995899e-08	1.346834e+01	1.304822e+03
2.300000e-06	1.781738e-06	1.977147e-08	1.277840e+01	1.292042e+03
2.310000e-06	1.685005e-06	1.958019e-08	1.208464e+01	1.278831e+03
2.320000e-06	1.587768e-06	1.938192e-08	1.138728e+01	1.265329e+03
2.330000e-06	1.489970e-06	1.917225e-08	1.068588e+01	1.251616e+03
2.340000e-06	1.391651e-06	1.895101e-08	9.980746e+00	1.237673e+03
2.350000e-06	1.292879e-06	1.872095e-08	9.272365e+00	1.223377e+03
2.360000e-06	1.193738e-06	1.848663e-08	8.561340e+00	1.208517e+03
2.370000e-06	1.094377e-06	1.824380e-08	7.848738e+00	1.192856e+03
2.380000e-06	9.947869e-07	1.798967e-08	7.134487e+00	1.176186e+03
2.390000e-06	8.948898e-07	1.772089e-08	6.418038e+00	1.158387e+03
2.400000e-06	7.947008e-07	1.743679e-08	5.699495e+00	1.139456e+03
2.410000e-06	6.941681e-07	1.714064e-08	4.978487e+00	1.119497e+03
2.420000e-06	5.933742e-07	1.683303e-08	4.255606e+00	1.098673e+03
2.430000e-06	4.923221e-07	1.651412e-08	3.530873e+00	1.077130e+03
2.440000e-06	3.910303e-07	1.617955e-08	2.804421e+00	1.054921e+03
2.450000e-06	2.896007e-07	1.582031e-08	2.076980e+00	1.031946e+03
2.460000e-06	1.879683e-07	1.543873e-08	1.348085e+00	1.007939e+03
2.470000e-06	8.615438e-08	1.503698e-08	6.178885e-01	9.824958e+02
2.480000e-06	-1.579949e-08	1.461208e-08	-1.133120e-01	9.551558e+02
2.490000e-06	-1.177026e-07	1.415866e-08	-8.441485e-01	9.254990e+02
2.500000e-06	-2.195116e-07	1.367371e-08	-1.574310e+00	8.932344e+02
2.510000e-06	-3.212293e-07	1.315576e-08	-2.303816e+00	8.582468e+02
2.520000e-06	-4.227466e-07	1.259901e-08	-3.031886e+00	8.205747e+02
2.530000e-06	-5.241522e-07	1.199881e-08	-3.759154e+00	7.803174e+02
2.540000e-06	-6.253719e-07	1.134943e-08	-4.485089e+00	7.374825e+02
2.550000e-06	-7.261936e-07	1.064556e-08	-5.208170e+00	6.918139e+02
2.560000e-06	-8.266297e-07	9.876786e-09	-5.928485e+00	6.426459e+02
2.570000e-06	-9.267702e-07	9.033410e-09	-6.646680e+00	5.888378e+02
2.580000e-06	-1.026615e-06	8.101295e-09	-7.362758e+00	5.288226e+02
2.590000e-06	-1.126147e-06	7.059653e-09	-8.076584e+00	4.607871e+02
2.600000e-06	-1.225351e-06	5.888112e-09	-8.788063e+00	3.829635e+02
2.610000e-06	-1.324165e-06	4.563632e-09	-9.496747e+00	2.939870e+02
2.620000e-06	-1.422530e-06	3.066795e-09	-1.020221e+01	1.932508e+02
2.630000e-06	-1.520382e-06	1.388442e-09	-1.090399e+01	8.118153e+01
2.640000e-06	-1.617679e-06	-4.609535e-10	-1.160179e+01	-4.062836e+01
2.650000e-06	-1.714436e-06	-2.445987e-09	-1.229572e+01	-1.694729e+02
2.660000e-06	-1.810657e-06	-4.504801e-09	-1.298581e+01	-3.017725e+02
2.670000e-06	-1.906395e-06	-6.556322e-09	-1.367243e+01	-4.334661e+02
2.680000e-06	-2.001562e-06	-8.517661e-09	-1.435495e+01	-5.604900e+02
2.690000e-06	-2.095799e-06	-1.032989e-08	-1.503081e+01	-6.792572e+02
2.700000e-06	-2.188918e-06	-1.195967e-08	-1.569865e+01	-7.870526e+02
2.710000e-06	-2.281104e-06	-1.339347e-08	-1.635979e+01	-8.822769e+02
2.720000e-06	-2.372523e-06	-1.463664e-08	-1.701544e+01	-9.645045e+02
2.730000e-06	-2.463190e-06	-1.570793e-08	-1.766569e+01	-1.034358e+03
2.740000e-06	-2.552998e-06	-1.662942e-08	-1.830978e+01	-1.093239e+03
2.750000e-06	-2.641878e-06	-1.742020e-08	-1.894722e+01	-1.142981e+03
2.760000e-06	-2.729947e-06	-1.810150e-08	-1.957884e+01	-1.185491e+03
2.770000e-06	-2.817285e-06	-1.869101e-08	-2.020521e+01	-1.222467e+03
2.780000e-06	-2.903616e-06	-1.920115e-08	-2.082437e+01	-1.255206e+03
2.790000e-06	-2.988607e-06	-1.964317e-08	-2.143391e+01	-1.284558e+03
2.800000e-06	-3.072435e-06	-2.003291e-08	-2.203512e+01	-1.310975e+03
2.810000e-06	-3.155303e-06	-2.038030e-08	-2.262944e+01	-1.334647e+03
2.820000e-06	-3.237130e-06	-2.068842e-08	-2.321629e+01	-1.355657e+03
2.830000e-06	-3.317908e-06	-2.096477e-08	-2.379562e+01	-1.374128e+03
2.840000e-06	-3.397672e-06	-2.121706e-08	-2.436768e+01	-1.390295e+03
2.850000e-06	-3.476131e-06	-2.145068e-08	-2.493038e+01	-1.404531e+03
2.860000e-06	-3.553003e-06	-2.166534e-08	-2.548169e+01	-1.417295e+03
2.870000e-06	-3.628392e-06	-2.185992e-08	-2.602237e+01	-1.429049e+03
2.880000e-06	-3.702383e-06	-2.203471e-08	-2.655303e+01	-1.440166e+03
2.890000e-06	-3.775078e-06	-2.219320e-08	-2.707438e+01	-1.450871e+03
2.900000e-06	-3.846561e-06	-2.234131e-08	-2.758705e+01	-1.461212e+03
2.910000e-06	-3.916517e-06	-2.248233e-08	-2.808877e+01	-1.471094e+03
2.920000e-06	-3.984856e-06	-2.261539e-08	-2.857889e+01	-1.480340e+03
2.930000e-06	-4.051855e-06	-2.273911e-08	-2.905940e+01	-1.488776e+03
2.940000e-06	-4.117503e-06	-2.285317e-08	-2.953022e+01	-1.496302e+03
