# Temperatura_=_86.0
# Concentracion g/m^3_=_41000.0
# C_Vs_to_Am_M_A/Vsm_=_65563218390.804596
# pendiente_HvsI_1/m_=_3716.3
# ordenada_HvsI_A/m_=_1297.0
# frecuencia_Hz_=_301582.59849170013

Tiempo_(s)	Campo_(V.s)	Magnetizacion_(V.s)	Campo_(kA/m)	Magnetizacion_(A/m)
0.000000e+00	-5.340164e-06	-2.184627e-08	-3.835149e+01	-1.428339e+03
1.000000e-08	-5.337688e-06	-2.184475e-08	-3.833371e+01	-1.428165e+03
2.000000e-08	-5.333388e-06	-2.183801e-08	-3.830283e+01	-1.428046e+03
3.000000e-08	-5.327481e-06	-2.182782e-08	-3.826041e+01	-1.427884e+03
4.000000e-08	-5.320000e-06	-2.181574e-08	-3.820668e+01	-1.427558e+03
5.000000e-08	-5.310699e-06	-2.180178e-08	-3.813988e+01	-1.426964e+03
6.000000e-08	-5.299349e-06	-2.178636e-08	-3.805837e+01	-1.426049e+03
7.000000e-08	-5.286105e-06	-2.176507e-08	-3.796326e+01	-1.424822e+03
8.000000e-08	-5.270818e-06	-2.175368e-08	-3.785347e+01	-1.423358e+03
9.000000e-08	-5.253394e-06	-2.178255e-08	-3.772834e+01	-1.421774e+03
1.000000e-07	-5.233911e-06	-2.176214e-08	-3.758842e+01	-1.420193e+03
1.100000e-07	-5.212474e-06	-2.170649e-08	-3.743446e+01	-1.418710e+03
1.200000e-07	-5.189380e-06	-2.167421e-08	-3.726860e+01	-1.417362e+03
1.300000e-07	-5.164788e-06	-2.158363e-08	-3.709199e+01	-1.416125e+03
1.400000e-07	-5.138582e-06	-2.158309e-08	-3.690379e+01	-1.414918e+03
1.500000e-07	-5.110704e-06	-2.166256e-08	-3.670358e+01	-1.413632e+03
1.600000e-07	-5.081344e-06	-2.153227e-08	-3.649272e+01	-1.412164e+03
1.700000e-07	-5.050460e-06	-2.152289e-08	-3.627093e+01	-1.410447e+03
1.800000e-07	-5.017540e-06	-2.155704e-08	-3.603450e+01	-1.408467e+03
1.900000e-07	-4.982683e-06	-2.139599e-08	-3.578417e+01	-1.406265e+03
2.000000e-07	-4.946316e-06	-2.142150e-08	-3.552299e+01	-1.403916e+03
2.100000e-07	-4.908275e-06	-2.143562e-08	-3.524979e+01	-1.401502e+03
2.200000e-07	-4.868485e-06	-2.131984e-08	-3.496403e+01	-1.399081e+03
2.300000e-07	-4.826829e-06	-2.130817e-08	-3.466487e+01	-1.396663e+03
2.400000e-07	-4.783176e-06	-2.126592e-08	-3.435136e+01	-1.394205e+03
2.500000e-07	-4.737761e-06	-2.119580e-08	-3.402521e+01	-1.391622e+03
2.600000e-07	-4.690580e-06	-2.118392e-08	-3.368637e+01	-1.388812e+03
2.700000e-07	-4.641347e-06	-2.112221e-08	-3.333279e+01	-1.385690e+03
2.800000e-07	-4.589998e-06	-2.106233e-08	-3.296402e+01	-1.382215e+03
2.900000e-07	-4.536783e-06	-2.099236e-08	-3.258185e+01	-1.378406e+03
3.000000e-07	-4.481963e-06	-2.093611e-08	-3.218814e+01	-1.374336e+03
3.100000e-07	-4.425508e-06	-2.088904e-08	-3.178270e+01	-1.370112e+03
3.200000e-07	-4.367310e-06	-2.082502e-08	-3.136474e+01	-1.365843e+03
3.300000e-07	-4.307478e-06	-2.077182e-08	-3.093504e+01	-1.361603e+03
3.400000e-07	-4.246126e-06	-2.069058e-08	-3.049443e+01	-1.357411e+03
3.500000e-07	-4.183395e-06	-2.062330e-08	-3.004392e+01	-1.353221e+03
3.600000e-07	-4.119281e-06	-2.055021e-08	-2.958347e+01	-1.348939e+03
3.700000e-07	-4.053530e-06	-2.047327e-08	-2.911126e+01	-1.344447e+03
3.800000e-07	-3.986174e-06	-2.040930e-08	-2.862753e+01	-1.339646e+03
3.900000e-07	-3.917393e-06	-2.032255e-08	-2.813357e+01	-1.334482e+03
4.000000e-07	-3.847334e-06	-2.024255e-08	-2.763042e+01	-1.328969e+03
4.100000e-07	-3.776142e-06	-2.016173e-08	-2.711914e+01	-1.323181e+03
4.200000e-07	-3.703624e-06	-2.007384e-08	-2.659834e+01	-1.317229e+03
4.300000e-07	-3.629525e-06	-1.998897e-08	-2.606619e+01	-1.311229e+03
4.400000e-07	-3.553892e-06	-1.989990e-08	-2.552301e+01	-1.305260e+03
4.500000e-07	-3.476884e-06	-1.980684e-08	-2.496996e+01	-1.299335e+03
4.600000e-07	-3.398507e-06	-1.970707e-08	-2.440708e+01	-1.293400e+03
4.700000e-07	-3.318764e-06	-1.960741e-08	-2.383439e+01	-1.287337e+03
4.800000e-07	-3.237804e-06	-1.950503e-08	-2.325296e+01	-1.281009e+03
4.900000e-07	-3.155702e-06	-1.939464e-08	-2.266332e+01	-1.274291e+03
5.000000e-07	-3.072585e-06	-1.928800e-08	-2.206640e+01	-1.267117e+03
5.100000e-07	-2.988549e-06	-1.917666e-08	-2.146288e+01	-1.259492e+03
5.200000e-07	-2.903623e-06	-1.905955e-08	-2.085297e+01	-1.251498e+03
5.300000e-07	-2.817715e-06	-1.893960e-08	-2.023600e+01	-1.243261e+03
5.400000e-07	-2.730895e-06	-1.881691e-08	-1.961249e+01	-1.234914e+03
5.500000e-07	-2.643202e-06	-1.869315e-08	-1.898270e+01	-1.226548e+03
5.600000e-07	-2.554364e-06	-1.855953e-08	-1.834469e+01	-1.218179e+03
5.700000e-07	-2.464361e-06	-1.842199e-08	-1.769832e+01	-1.209737e+03
5.800000e-07	-2.373412e-06	-1.827909e-08	-1.704515e+01	-1.201080e+03
5.900000e-07	-2.281609e-06	-1.813259e-08	-1.638585e+01	-1.192033e+03
6.000000e-07	-2.189012e-06	-1.798098e-08	-1.572084e+01	-1.182439e+03
6.100000e-07	-2.095646e-06	-1.782653e-08	-1.505031e+01	-1.172205e+03
6.200000e-07	-2.001483e-06	-1.766740e-08	-1.437406e+01	-1.161329e+03
6.300000e-07	-1.906677e-06	-1.749917e-08	-1.369319e+01	-1.149903e+03
6.400000e-07	-1.811315e-06	-1.732582e-08	-1.300833e+01	-1.138075e+03
6.500000e-07	-1.715310e-06	-1.714607e-08	-1.231885e+01	-1.126006e+03
6.600000e-07	-1.618545e-06	-1.696003e-08	-1.162392e+01	-1.113805e+03
6.700000e-07	-1.521049e-06	-1.676449e-08	-1.092373e+01	-1.101488e+03
6.800000e-07	-1.422934e-06	-1.656330e-08	-1.021910e+01	-1.088957e+03
6.900000e-07	-1.324287e-06	-1.635589e-08	-9.510638e+00	-1.076019e+03
7.000000e-07	-1.225227e-06	-1.614073e-08	-8.799224e+00	-1.062433e+03
7.100000e-07	-1.125793e-06	-1.591755e-08	-8.085119e+00	-1.047976e+03
7.200000e-07	-1.026006e-06	-1.568463e-08	-7.368473e+00	-1.032501e+03
7.300000e-07	-9.259147e-07	-1.544275e-08	-6.649648e+00	-1.015983e+03
7.400000e-07	-8.255340e-07	-1.518886e-08	-5.928743e+00	-9.985132e+02
7.500000e-07	-7.249213e-07	-1.492307e-08	-5.206172e+00	-9.802632e+02
7.600000e-07	-6.240880e-07	-1.464318e-08	-4.482017e+00	-9.614104e+02
7.700000e-07	-5.230604e-07	-1.434604e-08	-3.756466e+00	-9.420559e+02
7.800000e-07	-4.219323e-07	-1.403216e-08	-3.030194e+00	-9.221557e+02
7.900000e-07	-3.206879e-07	-1.370189e-08	-2.303087e+00	-9.014904e+02
8.000000e-07	-2.192745e-07	-1.335470e-08	-1.574765e+00	-8.796853e+02
8.100000e-07	-1.176558e-07	-1.298809e-08	-8.449691e-01	-8.562796e+02
8.200000e-07	-1.595813e-08	-1.259654e-08	-1.146066e-01	-8.308251e+02
8.300000e-07	8.574332e-08	-1.217797e-08	6.157834e-01	-8.029839e+02
8.400000e-07	1.874275e-07	-1.172996e-08	1.346050e+00	-7.725918e+02
8.500000e-07	2.890527e-07	-1.124598e-08	2.075892e+00	-7.396577e+02
8.600000e-07	3.905432e-07	-1.072113e-08	2.804767e+00	-7.042881e+02
8.700000e-07	4.918794e-07	-1.015271e-08	3.532533e+00	-6.665472e+02
8.800000e-07	5.930568e-07	-9.534355e-09	4.259160e+00	-6.262831e+02
8.900000e-07	6.940498e-07	-8.855239e-09	4.984462e+00	-5.829689e+02
9.000000e-07	7.948842e-07	-8.107258e-09	5.708625e+00	-5.356103e+02
9.100000e-07	8.954557e-07	-7.278522e-09	6.430900e+00	-4.827632e+02
9.200000e-07	9.957510e-07	-6.347987e-09	7.151192e+00	-4.226805e+02
9.300000e-07	1.095750e-06	-5.294917e-09	7.869353e+00	-3.535808e+02
9.400000e-07	1.195367e-06	-4.097934e-09	8.584775e+00	-2.739964e+02
9.500000e-07	1.294603e-06	-2.738072e-09	9.297458e+00	-1.831363e+02
9.600000e-07	1.393441e-06	-1.203973e-09	1.000728e+01	-8.118688e+01
9.700000e-07	1.491731e-06	4.969693e-10	1.071318e+01	3.051876e+01
9.800000e-07	1.589301e-06	2.329841e-09	1.141390e+01	1.495117e+02
9.900000e-07	1.686063e-06	4.237101e-09	1.210881e+01	2.723900e+02
1.000000e-06	1.782047e-06	6.141126e-09	1.279814e+01	3.951867e+02
1.010000e-06	1.877376e-06	7.963348e-09	1.348276e+01	5.138422e+02
1.020000e-06	1.972106e-06	9.638063e-09	1.416309e+01	6.246955e+02
1.030000e-06	2.066122e-06	1.112604e-08	1.483828e+01	7.249080e+02
1.040000e-06	2.159405e-06	1.241842e-08	1.550822e+01	8.127444e+02
1.050000e-06	2.251976e-06	1.352189e-08	1.617303e+01	8.876682e+02
1.060000e-06	2.343832e-06	1.445447e-08	1.683271e+01	9.502455e+02
1.070000e-06	2.435033e-06	1.523801e-08	1.748769e+01	1.001891e+03
1.080000e-06	2.525430e-06	1.589747e-08	1.813690e+01	1.044518e+03
1.090000e-06	2.614699e-06	1.645857e-08	1.877800e+01	1.080164e+03
1.100000e-06	2.702754e-06	1.693958e-08	1.941039e+01	1.110674e+03
1.110000e-06	2.789869e-06	1.735355e-08	2.003602e+01	1.137487e+03
1.120000e-06	2.876136e-06	1.771172e-08	2.065556e+01	1.161547e+03
1.130000e-06	2.961442e-06	1.802639e-08	2.126821e+01	1.183347e+03
1.140000e-06	3.045786e-06	1.830673e-08	2.187394e+01	1.203053e+03
1.150000e-06	3.129240e-06	1.855795e-08	2.247329e+01	1.220675e+03
1.160000e-06	3.211726e-06	1.878414e-08	2.306568e+01	1.236225e+03
1.170000e-06	3.292981e-06	1.898969e-08	2.364923e+01	1.249824e+03
1.180000e-06	3.372956e-06	1.917884e-08	2.422358e+01	1.261741e+03
1.190000e-06	3.451709e-06	1.935434e-08	2.478916e+01	1.272364e+03
1.200000e-06	3.529239e-06	1.951656e-08	2.534596e+01	1.282120e+03
1.210000e-06	3.605511e-06	1.966791e-08	2.589372e+01	1.291383e+03
1.220000e-06	3.680436e-06	1.980855e-08	2.643181e+01	1.300397e+03
1.230000e-06	3.753789e-06	1.993865e-08	2.695861e+01	1.309237e+03
1.240000e-06	3.825595e-06	2.005844e-08	2.747430e+01	1.317826e+03
1.250000e-06	3.896044e-06	2.016996e-08	2.798025e+01	1.325988e+03
1.260000e-06	3.965116e-06	2.027513e-08	2.847630e+01	1.333528e+03
1.270000e-06	4.032883e-06	2.037294e-08	2.896298e+01	1.340311e+03
1.280000e-06	4.099248e-06	2.046416e-08	2.943960e+01	1.346310e+03
1.290000e-06	4.163922e-06	2.055137e-08	2.990407e+01	1.351628e+03
1.300000e-06	4.227015e-06	2.063630e-08	3.035718e+01	1.356462e+03
1.310000e-06	4.288713e-06	2.071637e-08	3.080028e+01	1.361055e+03
1.320000e-06	4.348994e-06	2.079216e-08	3.123320e+01	1.365621e+03
1.330000e-06	4.407889e-06	2.086413e-08	3.165617e+01	1.370294e+03
1.340000e-06	4.465096e-06	2.093350e-08	3.206701e+01	1.375092e+03
1.350000e-06	4.520454e-06	2.099839e-08	3.246457e+01	1.379927e+03
1.360000e-06	4.574227e-06	2.105862e-08	3.285076e+01	1.384637e+03
1.370000e-06	4.626372e-06	2.111648e-08	3.322524e+01	1.389043e+03
1.380000e-06	4.676595e-06	2.117219e-08	3.358594e+01	1.393009e+03
1.390000e-06	4.724841e-06	2.122605e-08	3.393242e+01	1.396478e+03
1.400000e-06	4.771299e-06	2.127837e-08	3.426607e+01	1.399493e+03
1.410000e-06	4.816188e-06	2.132848e-08	3.458845e+01	1.402175e+03
1.420000e-06	4.859548e-06	2.137406e-08	3.489985e+01	1.404685e+03
1.430000e-06	4.901039e-06	2.141492e-08	3.519783e+01	1.407174e+03
1.440000e-06	4.940669e-06	2.145297e-08	3.548244e+01	1.409736e+03
1.450000e-06	4.978670e-06	2.148759e-08	3.575535e+01	1.412382e+03
1.460000e-06	5.015081e-06	2.151731e-08	3.601684e+01	1.415043e+03
1.470000e-06	5.049834e-06	2.154563e-08	3.626643e+01	1.417595e+03
1.480000e-06	5.082674e-06	2.157426e-08	3.650228e+01	1.419900e+03
1.490000e-06	5.113674e-06	2.160189e-08	3.672491e+01	1.421855e+03
1.500000e-06	5.143027e-06	2.162772e-08	3.693571e+01	1.423420e+03
1.510000e-06	5.170755e-06	2.165310e-08	3.713485e+01	1.424636e+03
1.520000e-06	5.196507e-06	2.167790e-08	3.731979e+01	1.425608e+03
1.530000e-06	5.220133e-06	2.169895e-08	3.748946e+01	1.426472e+03
1.540000e-06	5.241929e-06	2.171506e-08	3.764600e+01	1.427357e+03
1.550000e-06	5.262071e-06	2.172855e-08	3.779065e+01	1.428341e+03
1.560000e-06	5.280408e-06	2.174019e-08	3.792234e+01	1.429432e+03
1.570000e-06	5.296713e-06	2.175031e-08	3.803944e+01	1.430567e+03
1.580000e-06	5.311039e-06	2.176082e-08	3.814233e+01	1.431633e+03
1.590000e-06	5.323399e-06	2.177182e-08	3.823109e+01	1.432505e+03
1.600000e-06	5.333591e-06	2.178144e-08	3.830429e+01	1.433084e+03
1.610000e-06	5.341613e-06	2.179013e-08	3.836190e+01	1.433330e+03
1.620000e-06	5.347767e-06	2.179758e-08	3.840609e+01	1.433274e+03
1.630000e-06	5.352209e-06	2.180229e-08	3.843800e+01	1.433003e+03
1.640000e-06	5.354750e-06	2.180327e-08	3.845624e+01	1.432639e+03
1.650000e-06	5.355273e-06	2.180152e-08	3.846000e+01	1.432294e+03
1.660000e-06	5.353986e-06	2.179523e-08	3.845076e+01	1.432041e+03
1.670000e-06	5.351047e-06	2.178600e-08	3.842965e+01	1.431884e+03
1.680000e-06	5.346525e-06	2.178069e-08	3.839717e+01	1.431765e+03
1.690000e-06	5.340135e-06	2.177685e-08	3.835128e+01	1.431577e+03
1.700000e-06	5.331833e-06	2.177211e-08	3.829166e+01	1.431200e+03
1.710000e-06	5.321934e-06	2.176343e-08	3.822057e+01	1.430540e+03
1.720000e-06	5.310446e-06	2.175643e-08	3.813807e+01	1.429553e+03
1.730000e-06	5.297116e-06	2.174808e-08	3.804233e+01	1.428267e+03
1.740000e-06	5.281717e-06	2.166659e-08	3.793174e+01	1.426766e+03
1.750000e-06	5.264024e-06	2.162879e-08	3.780468e+01	1.425172e+03
1.760000e-06	5.243811e-06	2.164204e-08	3.765951e+01	1.423605e+03
1.770000e-06	5.221224e-06	2.164030e-08	3.749730e+01	1.422149e+03
1.780000e-06	5.197108e-06	2.171945e-08	3.732410e+01	1.420829e+03
1.790000e-06	5.172199e-06	2.162805e-08	3.714522e+01	1.419606e+03
1.800000e-06	5.146041e-06	2.150580e-08	3.695736e+01	1.418390e+03
1.810000e-06	5.117927e-06	2.161309e-08	3.675545e+01	1.417072e+03
1.820000e-06	5.087956e-06	2.152783e-08	3.654021e+01	1.415554e+03
1.830000e-06	5.056232e-06	2.148999e-08	3.631237e+01	1.413780e+03
1.840000e-06	5.022577e-06	2.161592e-08	3.607067e+01	1.411747e+03
1.850000e-06	4.987307e-06	2.147164e-08	3.581738e+01	1.409505e+03
1.860000e-06	4.950308e-06	2.144344e-08	3.555166e+01	1.407135e+03
1.870000e-06	4.911248e-06	2.149180e-08	3.527114e+01	1.404716e+03
1.880000e-06	4.870490e-06	2.136242e-08	3.497843e+01	1.402295e+03
1.890000e-06	4.828057e-06	2.139970e-08	3.467369e+01	1.399873e+03
1.900000e-06	4.783928e-06	2.134419e-08	3.435677e+01	1.397396e+03
1.910000e-06	4.738068e-06	2.125095e-08	3.402741e+01	1.394772e+03
1.920000e-06	4.690273e-06	2.129312e-08	3.368417e+01	1.391901e+03
1.930000e-06	4.640838e-06	2.117697e-08	3.332913e+01	1.388704e+03
1.940000e-06	4.589696e-06	2.115293e-08	3.296185e+01	1.385153e+03
1.950000e-06	4.536570e-06	2.110468e-08	3.258031e+01	1.381280e+03
1.960000e-06	4.481526e-06	2.101415e-08	3.218500e+01	1.377167e+03
1.970000e-06	4.424709e-06	2.099690e-08	3.177696e+01	1.372924e+03
1.980000e-06	4.366345e-06	2.088097e-08	3.135781e+01	1.368656e+03
1.990000e-06	4.306561e-06	2.086032e-08	3.092846e+01	1.364426e+03
2.000000e-06	4.245287e-06	2.080442e-08	3.048841e+01	1.360240e+03
2.010000e-06	4.182320e-06	2.071187e-08	3.003620e+01	1.356039e+03
2.020000e-06	4.117675e-06	2.067159e-08	2.957194e+01	1.351721e+03
2.030000e-06	4.051606e-06	2.055945e-08	2.909744e+01	1.347169e+03
2.040000e-06	3.984217e-06	2.051092e-08	2.861347e+01	1.342292e+03
2.050000e-06	3.915515e-06	2.041735e-08	2.812008e+01	1.337050e+03
2.060000e-06	3.845282e-06	2.032909e-08	2.761568e+01	1.331469e+03
2.070000e-06	3.773508e-06	2.027632e-08	2.710023e+01	1.325635e+03
2.080000e-06	3.700464e-06	2.016740e-08	2.657565e+01	1.319663e+03
2.090000e-06	3.626117e-06	2.009463e-08	2.604171e+01	1.313664e+03
2.100000e-06	3.550432e-06	1.999287e-08	2.549816e+01	1.307705e+03
2.110000e-06	3.473214e-06	1.990805e-08	2.494360e+01	1.301785e+03
2.120000e-06	3.394446e-06	1.981418e-08	2.437792e+01	1.295833e+03
2.130000e-06	3.314468e-06	1.970745e-08	2.380354e+01	1.289724e+03
2.140000e-06	3.233378e-06	1.961685e-08	2.322117e+01	1.283321e+03
2.150000e-06	3.151194e-06	1.949983e-08	2.263095e+01	1.276508e+03
2.160000e-06	3.068026e-06	1.939565e-08	2.203367e+01	1.269233e+03
2.170000e-06	2.983887e-06	1.927877e-08	2.142940e+01	1.261520e+03
2.180000e-06	2.898528e-06	1.916873e-08	2.081638e+01	1.253461e+03
2.190000e-06	2.811901e-06	1.905494e-08	2.019425e+01	1.245190e+03
2.200000e-06	2.724204e-06	1.892953e-08	1.956443e+01	1.236833e+03
2.210000e-06	2.635503e-06	1.880583e-08	1.892741e+01	1.228467e+03
2.220000e-06	2.545917e-06	1.867328e-08	1.828403e+01	1.220090e+03
2.230000e-06	2.455474e-06	1.854144e-08	1.763449e+01	1.211615e+03
2.240000e-06	2.364273e-06	1.839652e-08	1.697951e+01	1.202889e+03
2.250000e-06	2.272451e-06	1.825101e-08	1.632008e+01	1.193735e+03
2.260000e-06	2.179853e-06	1.810031e-08	1.565507e+01	1.184009e+03
2.270000e-06	2.086285e-06	1.794726e-08	1.498309e+01	1.173633e+03
2.280000e-06	1.991705e-06	1.779071e-08	1.430384e+01	1.162629e+03
2.290000e-06	1.896377e-06	1.762489e-08	1.361922e+01	1.151102e+03
2.300000e-06	1.800440e-06	1.745326e-08	1.293023e+01	1.139209e+03
2.310000e-06	1.703896e-06	1.727381e-08	1.223688e+01	1.127105e+03
2.320000e-06	1.606839e-06	1.708875e-08	1.153985e+01	1.114880e+03
2.330000e-06	1.509312e-06	1.689392e-08	1.083943e+01	1.102529e+03
2.340000e-06	1.411275e-06	1.669323e-08	1.013536e+01	1.089929e+03
2.350000e-06	1.312711e-06	1.648323e-08	9.427502e+00	1.076872e+03
2.360000e-06	1.213708e-06	1.626394e-08	8.716495e+00	1.063116e+03
2.370000e-06	1.114432e-06	1.603724e-08	8.003524e+00	1.048449e+03
2.380000e-06	1.014936e-06	1.580358e-08	7.288971e+00	1.032747e+03
2.390000e-06	9.152121e-07	1.555901e-08	6.572785e+00	1.016013e+03
2.400000e-06	8.152584e-07	1.529905e-08	5.854947e+00	9.983599e+02
2.410000e-06	7.150105e-07	1.502608e-08	5.134996e+00	9.799664e+02
2.420000e-06	6.144750e-07	1.473987e-08	4.412979e+00	9.610011e+02
2.430000e-06	5.137605e-07	1.444100e-08	3.689677e+00	9.415385e+02
2.440000e-06	4.128575e-07	1.412855e-08	2.965021e+00	9.214982e+02
2.450000e-06	3.116546e-07	1.380001e-08	2.238212e+00	9.006238e+02
2.460000e-06	2.102529e-07	1.344994e-08	1.509975e+00	8.785150e+02
2.470000e-06	1.087696e-07	1.307558e-08	7.811511e-01	8.547049e+02
2.480000e-06	7.171080e-09	1.267671e-08	5.150059e-02	8.287614e+02
2.490000e-06	-9.447917e-08	1.225072e-08	-6.785217e-01	8.003804e+02
2.500000e-06	-1.960504e-07	1.179574e-08	-1.407977e+00	7.694372e+02
2.510000e-06	-2.974889e-07	1.130597e-08	-2.136478e+00	7.359705e+02
2.520000e-06	-3.987679e-07	1.077368e-08	-2.863834e+00	7.000914e+02
2.530000e-06	-4.998964e-07	1.019398e-08	-3.590109e+00	6.618326e+02
2.540000e-06	-6.008698e-07	9.562688e-09	-4.315270e+00	6.209737e+02
2.550000e-06	-7.015980e-07	8.871361e-09	-5.038671e+00	5.768924e+02
2.560000e-06	-8.019860e-07	8.108740e-09	-5.759628e+00	5.284921e+02
2.570000e-06	-9.020521e-07	7.261331e-09	-6.478274e+00	4.742468e+02
2.580000e-06	-1.001892e-06	6.312636e-09	-7.195292e+00	4.123761e+02
2.590000e-06	-1.101485e-06	5.241693e-09	-7.910544e+00	3.411349e+02
2.600000e-06	-1.200715e-06	4.023629e-09	-8.623183e+00	2.591708e+02
2.610000e-06	-1.299586e-06	2.640308e-09	-9.333245e+00	1.658805e+02
2.620000e-06	-1.397995e-06	1.084564e-09	-1.003999e+01	6.168740e+01
2.630000e-06	-1.495838e-06	-6.349623e-10	-1.074267e+01	-5.182444e+01
2.640000e-06	-1.593225e-06	-2.485540e-09	-1.144207e+01	-1.719628e+02
2.650000e-06	-1.690110e-06	-4.405821e-09	-1.213787e+01	-2.951690e+02
2.660000e-06	-1.786432e-06	-6.315279e-09	-1.282963e+01	-4.174144e+02
2.670000e-06	-1.882192e-06	-8.135874e-09	-1.351735e+01	-5.346845e+02
2.680000e-06	-1.977318e-06	-9.803015e-09	-1.420052e+01	-6.434627e+02
2.690000e-06	-2.071615e-06	-1.127896e-08	-1.487773e+01	-7.411292e+02
2.700000e-06	-2.164799e-06	-1.255430e-08	-1.554695e+01	-8.262042e+02
2.710000e-06	-2.256989e-06	-1.363956e-08	-1.620904e+01	-8.984017e+02
2.720000e-06	-2.348494e-06	-1.455710e-08	-1.686619e+01	-9.584954e+02
2.730000e-06	-2.439308e-06	-1.533098e-08	-1.751839e+01	-1.008038e+03
2.740000e-06	-2.529230e-06	-1.598685e-08	-1.816419e+01	-1.049000e+03
2.750000e-06	-2.618192e-06	-1.654465e-08	-1.880309e+01	-1.083402e+03
2.760000e-06	-2.706356e-06	-1.702116e-08	-1.943626e+01	-1.113017e+03
2.770000e-06	-2.793794e-06	-1.743102e-08	-2.006421e+01	-1.139177e+03
2.780000e-06	-2.880244e-06	-1.778853e-08	-2.068507e+01	-1.162726e+03
2.790000e-06	-2.965360e-06	-1.810299e-08	-2.129635e+01	-1.184072e+03
2.800000e-06	-3.049300e-06	-1.838095e-08	-2.189918e+01	-1.203333e+03
2.810000e-06	-3.132355e-06	-1.862890e-08	-2.249565e+01	-1.220509e+03
2.820000e-06	-3.214384e-06	-1.885203e-08	-2.308477e+01	-1.235626e+03
2.830000e-06	-3.295334e-06	-1.905669e-08	-2.366612e+01	-1.248837e+03
2.840000e-06	-3.375243e-06	-1.924380e-08	-2.424001e+01	-1.260442e+03
2.850000e-06	-3.453844e-06	-1.941732e-08	-2.480450e+01	-1.270845e+03
2.860000e-06	-3.530881e-06	-1.957933e-08	-2.535775e+01	-1.280468e+03
2.870000e-06	-3.606461e-06	-1.972950e-08	-2.590054e+01	-1.289663e+03
2.880000e-06	-3.680704e-06	-1.986758e-08	-2.643373e+01	-1.298640e+03
2.890000e-06	-3.753633e-06	-1.999454e-08	-2.695749e+01	-1.307437e+03
2.900000e-06	-3.825305e-06	-2.011363e-08	-2.747222e+01	-1.315952e+03
2.910000e-06	-3.895521e-06	-2.022642e-08	-2.797649e+01	-1.323997e+03
2.920000e-06	-3.964135e-06	-2.033219e-08	-2.846925e+01	-1.331384e+03
2.930000e-06	-4.031329e-06	-2.043036e-08	-2.895182e+01	-1.337997e+03
2.940000e-06	-4.097195e-06	-2.052237e-08	-2.942486e+01	-1.343839e+03
