# Temperatura_=_43.15
# Concentracion g/m^3_=_41000.0
# C_Vs_to_Am_M_A/Vsm_=_65563218390.804596
# pendiente_HvsI_1/m_=_3716.3
# ordenada_HvsI_A/m_=_1297.0
# frecuencia_Hz_=_301594.09475507785

Tiempo_(s)	Campo_(V.s)	Magnetizacion_(V.s)	Campo_(kA/m)	Magnetizacion_(A/m)
0.000000e+00	-5.320827e-06	-2.347219e-08	-3.834878e+01	-1.534634e+03
1.000000e-08	-5.318368e-06	-2.346438e-08	-3.833106e+01	-1.534189e+03
2.000000e-08	-5.314157e-06	-2.345599e-08	-3.830071e+01	-1.533801e+03
3.000000e-08	-5.308351e-06	-2.344844e-08	-3.825886e+01	-1.533480e+03
4.000000e-08	-5.300954e-06	-2.343862e-08	-3.820555e+01	-1.533179e+03
5.000000e-08	-5.291791e-06	-2.342697e-08	-3.813951e+01	-1.532812e+03
6.000000e-08	-5.280683e-06	-2.341508e-08	-3.805945e+01	-1.532280e+03
7.000000e-08	-5.267623e-06	-2.340249e-08	-3.796533e+01	-1.531502e+03
8.000000e-08	-5.252403e-06	-2.340513e-08	-3.785563e+01	-1.530447e+03
9.000000e-08	-5.234967e-06	-2.339277e-08	-3.772997e+01	-1.529135e+03
1.000000e-07	-5.215526e-06	-2.335895e-08	-3.758985e+01	-1.527642e+03
1.100000e-07	-5.194213e-06	-2.333838e-08	-3.743624e+01	-1.526068e+03
1.200000e-07	-5.171235e-06	-2.328537e-08	-3.727063e+01	-1.524511e+03
1.300000e-07	-5.146793e-06	-2.323893e-08	-3.709447e+01	-1.523034e+03
1.400000e-07	-5.120788e-06	-2.326680e-08	-3.690704e+01	-1.521646e+03
1.500000e-07	-5.093080e-06	-2.321034e-08	-3.670735e+01	-1.520299e+03
1.600000e-07	-5.063866e-06	-2.319104e-08	-3.649679e+01	-1.518899e+03
1.700000e-07	-5.033144e-06	-2.322816e-08	-3.627537e+01	-1.517336e+03
1.800000e-07	-5.000437e-06	-2.312243e-08	-3.603964e+01	-1.515518e+03
1.900000e-07	-4.965807e-06	-2.306054e-08	-3.579005e+01	-1.513393e+03
2.000000e-07	-4.929606e-06	-2.303299e-08	-3.552914e+01	-1.510970e+03
2.100000e-07	-4.891714e-06	-2.293594e-08	-3.525604e+01	-1.508311e+03
2.200000e-07	-4.852131e-06	-2.291901e-08	-3.497075e+01	-1.505509e+03
2.300000e-07	-4.810681e-06	-2.292549e-08	-3.467201e+01	-1.502664e+03
2.400000e-07	-4.767273e-06	-2.288531e-08	-3.435916e+01	-1.499844e+03
2.500000e-07	-4.722113e-06	-2.284205e-08	-3.403368e+01	-1.497071e+03
2.600000e-07	-4.675166e-06	-2.275730e-08	-3.369531e+01	-1.494306e+03
2.700000e-07	-4.626258e-06	-2.271715e-08	-3.334282e+01	-1.491468e+03
2.800000e-07	-4.575232e-06	-2.269194e-08	-3.297506e+01	-1.488453e+03
2.900000e-07	-4.522290e-06	-2.263944e-08	-3.259349e+01	-1.485171e+03
3.000000e-07	-4.467738e-06	-2.257953e-08	-3.220032e+01	-1.481571e+03
3.100000e-07	-4.411551e-06	-2.250938e-08	-3.179536e+01	-1.477656e+03
3.200000e-07	-4.353588e-06	-2.245253e-08	-3.137761e+01	-1.473483e+03
3.300000e-07	-4.293974e-06	-2.238280e-08	-3.094795e+01	-1.469144e+03
3.400000e-07	-4.232879e-06	-2.231683e-08	-3.050762e+01	-1.464733e+03
3.500000e-07	-4.170380e-06	-2.226243e-08	-3.005717e+01	-1.460323e+03
3.600000e-07	-4.106490e-06	-2.218884e-08	-2.959670e+01	-1.455933e+03
3.700000e-07	-4.041069e-06	-2.211262e-08	-2.912519e+01	-1.451529e+03
3.800000e-07	-3.974028e-06	-2.203899e-08	-2.864200e+01	-1.447028e+03
3.900000e-07	-3.905520e-06	-2.196834e-08	-2.814824e+01	-1.442329e+03
4.000000e-07	-3.835697e-06	-2.189230e-08	-2.764501e+01	-1.437341e+03
4.100000e-07	-3.764739e-06	-2.180108e-08	-2.713359e+01	-1.432011e+03
4.200000e-07	-3.692631e-06	-2.171710e-08	-2.661389e+01	-1.426345e+03
4.300000e-07	-3.619021e-06	-2.163172e-08	-2.608336e+01	-1.420399e+03
4.400000e-07	-3.543788e-06	-2.154992e-08	-2.554113e+01	-1.414268e+03
4.500000e-07	-3.467090e-06	-2.146284e-08	-2.498835e+01	-1.408046e+03
4.600000e-07	-3.389004e-06	-2.136385e-08	-2.442556e+01	-1.401799e+03
4.700000e-07	-3.309501e-06	-2.126016e-08	-2.385256e+01	-1.395542e+03
4.800000e-07	-3.228725e-06	-2.115411e-08	-2.327038e+01	-1.389223e+03
4.900000e-07	-3.146837e-06	-2.105595e-08	-2.268019e+01	-1.382744e+03
5.000000e-07	-3.063963e-06	-2.095036e-08	-2.208289e+01	-1.375982e+03
5.100000e-07	-2.980174e-06	-2.083515e-08	-2.147900e+01	-1.368829e+03
5.200000e-07	-2.895483e-06	-2.071333e-08	-2.086861e+01	-1.361224e+03
5.300000e-07	-2.809886e-06	-2.058984e-08	-2.025168e+01	-1.353168e+03
5.400000e-07	-2.723362e-06	-2.046926e-08	-1.962808e+01	-1.344726e+03
5.500000e-07	-2.635962e-06	-2.034996e-08	-1.899816e+01	-1.336003e+03
5.600000e-07	-2.547573e-06	-2.022501e-08	-1.836111e+01	-1.327106e+03
5.700000e-07	-2.458079e-06	-2.008454e-08	-1.771611e+01	-1.318112e+03
5.800000e-07	-2.367514e-06	-1.993428e-08	-1.706338e+01	-1.309029e+03
5.900000e-07	-2.276009e-06	-1.977837e-08	-1.640387e+01	-1.299794e+03
6.000000e-07	-2.183736e-06	-1.962218e-08	-1.573884e+01	-1.290282e+03
6.100000e-07	-2.090751e-06	-1.946550e-08	-1.506866e+01	-1.280339e+03
6.200000e-07	-1.996984e-06	-1.930429e-08	-1.439286e+01	-1.269827e+03
6.300000e-07	-1.902521e-06	-1.913490e-08	-1.371203e+01	-1.258662e+03
6.400000e-07	-1.807480e-06	-1.895863e-08	-1.302704e+01	-1.246840e+03
6.500000e-07	-1.711809e-06	-1.877796e-08	-1.233752e+01	-1.234431e+03
6.600000e-07	-1.615532e-06	-1.859056e-08	-1.164362e+01	-1.221559e+03
6.700000e-07	-1.518668e-06	-1.839527e-08	-1.094549e+01	-1.208354e+03
6.800000e-07	-1.421134e-06	-1.818886e-08	-1.024254e+01	-1.194905e+03
6.900000e-07	-1.322927e-06	-1.797219e-08	-9.534728e+00	-1.181217e+03
7.000000e-07	-1.224171e-06	-1.774676e-08	-8.822967e+00	-1.167202e+03
7.100000e-07	-1.124953e-06	-1.751572e-08	-8.107870e+00	-1.152689e+03
7.200000e-07	-1.025347e-06	-1.728006e-08	-7.389980e+00	-1.137467e+03
7.300000e-07	-9.254721e-07	-1.703569e-08	-6.670153e+00	-1.121338e+03
7.400000e-07	-8.253920e-07	-1.677952e-08	-5.948846e+00	-1.104170e+03
7.500000e-07	-7.251044e-07	-1.651151e-08	-5.226043e+00	-1.085930e+03
7.600000e-07	-6.246457e-07	-1.622799e-08	-4.502008e+00	-1.066686e+03
7.700000e-07	-5.239949e-07	-1.592725e-08	-3.776587e+00	-1.046567e+03
7.800000e-07	-4.231731e-07	-1.561148e-08	-3.049935e+00	-1.025707e+03
7.900000e-07	-3.221876e-07	-1.528000e-08	-2.322102e+00	-1.004172e+03
8.000000e-07	-2.210596e-07	-1.493309e-08	-1.593242e+00	-9.819034e+02
8.100000e-07	-1.198445e-07	-1.456906e-08	-8.637549e-01	-9.586977e+02
8.200000e-07	-1.852114e-08	-1.418667e-08	-1.334873e-01	-9.342209e+02
8.300000e-07	8.281209e-08	-1.378385e-08	5.968513e-01	-9.080696e+02
8.400000e-07	1.841026e-07	-1.335407e-08	1.326882e+00	-8.798543e+02
8.500000e-07	2.853787e-07	-1.289290e-08	2.056809e+00	-8.492803e+02
8.600000e-07	3.865437e-07	-1.239753e-08	2.785936e+00	-8.161968e+02
8.700000e-07	4.875206e-07	-1.186764e-08	3.513706e+00	-7.805918e+02
8.800000e-07	5.883185e-07	-1.129831e-08	4.240187e+00	-7.425229e+02
8.900000e-07	6.889192e-07	-1.068380e-08	4.965245e+00	-7.019945e+02
9.000000e-07	7.893156e-07	-1.002019e-08	5.688833e+00	-6.588078e+02
9.100000e-07	8.895083e-07	-9.299659e-09	6.410951e+00	-6.124278e+02
9.200000e-07	9.895078e-07	-8.510457e-09	7.131677e+00	-5.619090e+02
9.300000e-07	1.089342e-06	-7.638386e-09	7.851215e+00	-5.059189e+02
9.400000e-07	1.188902e-06	-6.667106e-09	8.568774e+00	-4.428729e+02
9.500000e-07	1.287929e-06	-5.574718e-09	9.282489e+00	-3.711744e+02
9.600000e-07	1.386229e-06	-4.341687e-09	9.990968e+00	-2.895213e+02
9.700000e-07	1.483779e-06	-2.951157e-09	1.069404e+01	-1.972235e+02
9.800000e-07	1.580653e-06	-1.396830e-09	1.139223e+01	-9.446467e+01
9.900000e-07	1.676963e-06	3.109599e-10	1.208637e+01	1.755146e+01
1.000000e-06	1.772712e-06	2.142865e-09	1.277646e+01	1.366115e+02
1.010000e-06	1.867771e-06	4.046356e-09	1.346158e+01	2.596686e+02
1.020000e-06	1.962157e-06	5.952955e-09	1.414185e+01	3.831622e+02
1.030000e-06	2.055924e-06	7.791627e-09	1.481766e+01	5.034268e+02
1.040000e-06	2.148974e-06	9.507464e-09	1.548829e+01	6.171185e+02
1.050000e-06	2.241334e-06	1.106669e-08	1.615396e+01	7.215838e+02
1.060000e-06	2.333076e-06	1.245478e-08	1.681517e+01	8.151081e+02
1.070000e-06	2.423989e-06	1.367235e-08	1.747041e+01	8.970057e+02
1.080000e-06	2.513815e-06	1.472998e-08	1.811782e+01	9.675480e+02
1.090000e-06	2.602588e-06	1.564495e-08	1.875763e+01	1.027757e+03
1.100000e-06	2.690417e-06	1.643631e-08	1.939063e+01	1.079115e+03
1.110000e-06	2.777354e-06	1.712176e-08	2.001722e+01	1.123259e+03
1.120000e-06	2.863361e-06	1.771646e-08	2.063710e+01	1.161708e+03
1.130000e-06	2.948380e-06	1.823427e-08	2.124985e+01	1.195689e+03
1.140000e-06	3.032520e-06	1.868646e-08	2.185627e+01	1.226057e+03
1.150000e-06	3.115766e-06	1.908600e-08	2.245625e+01	1.253323e+03
1.160000e-06	3.197958e-06	1.944252e-08	2.304864e+01	1.277752e+03
1.170000e-06	3.278982e-06	1.976249e-08	2.363260e+01	1.299490e+03
1.180000e-06	3.358760e-06	2.005008e-08	2.420758e+01	1.318688e+03
1.190000e-06	3.437290e-06	2.030849e-08	2.477357e+01	1.335580e+03
1.200000e-06	3.514593e-06	2.053934e-08	2.533072e+01	1.350506e+03
1.210000e-06	3.590667e-06	2.074760e-08	2.587901e+01	1.363881e+03
1.220000e-06	3.665293e-06	2.094203e-08	2.641685e+01	1.376129e+03
1.230000e-06	3.738377e-06	2.112389e-08	2.694359e+01	1.387606e+03
1.240000e-06	3.810023e-06	2.129222e-08	2.745997e+01	1.398542e+03
1.250000e-06	3.880279e-06	2.144745e-08	2.796632e+01	1.409018e+03
1.260000e-06	3.949211e-06	2.159125e-08	2.846314e+01	1.418982e+03
1.270000e-06	4.016792e-06	2.172402e-08	2.895022e+01	1.428301e+03
1.280000e-06	4.082898e-06	2.184509e-08	2.942666e+01	1.436835e+03
1.290000e-06	4.147425e-06	2.195668e-08	2.989172e+01	1.444498e+03
1.300000e-06	4.210439e-06	2.206231e-08	3.034588e+01	1.451299e+03
1.310000e-06	4.271972e-06	2.216084e-08	3.078937e+01	1.457356e+03
1.320000e-06	4.332137e-06	2.225178e-08	3.122300e+01	1.462863e+03
1.330000e-06	4.390839e-06	2.233662e-08	3.164609e+01	1.468046e+03
1.340000e-06	4.447793e-06	2.241577e-08	3.205657e+01	1.473099e+03
1.350000e-06	4.503032e-06	2.249007e-08	3.245469e+01	1.478142e+03
1.360000e-06	4.556688e-06	2.256127e-08	3.284140e+01	1.483195e+03
1.370000e-06	4.608607e-06	2.262984e-08	3.321560e+01	1.488183e+03
1.380000e-06	4.658548e-06	2.269543e-08	3.357554e+01	1.492974e+03
1.390000e-06	4.706556e-06	2.275888e-08	3.392155e+01	1.497424e+03
1.400000e-06	4.752855e-06	2.281950e-08	3.425524e+01	1.501424e+03
1.410000e-06	4.797654e-06	2.287567e-08	3.457812e+01	1.504941e+03
1.420000e-06	4.840851e-06	2.292763e-08	3.488945e+01	1.508020e+03
1.430000e-06	4.882236e-06	2.297628e-08	3.518773e+01	1.510773e+03
1.440000e-06	4.921859e-06	2.302120e-08	3.547330e+01	1.513342e+03
1.450000e-06	4.959821e-06	2.305961e-08	3.574690e+01	1.515854e+03
1.460000e-06	4.996203e-06	2.309220e-08	3.600912e+01	1.518388e+03
1.470000e-06	5.030903e-06	2.312507e-08	3.625922e+01	1.520950e+03
1.480000e-06	5.063686e-06	2.315850e-08	3.649549e+01	1.523480e+03
1.490000e-06	5.094607e-06	2.319008e-08	3.671835e+01	1.525872e+03
1.500000e-06	5.123908e-06	2.322106e-08	3.692953e+01	1.528014e+03
1.510000e-06	5.151532e-06	2.324987e-08	3.712862e+01	1.529824e+03
1.520000e-06	5.177176e-06	2.327498e-08	3.731345e+01	1.531277e+03
1.530000e-06	5.200780e-06	2.329584e-08	3.748357e+01	1.532413e+03
1.540000e-06	5.222569e-06	2.331257e-08	3.764061e+01	1.533327e+03
1.550000e-06	5.242686e-06	2.332800e-08	3.778560e+01	1.534136e+03
1.560000e-06	5.260991e-06	2.334223e-08	3.791753e+01	1.534944e+03
1.570000e-06	5.277355e-06	2.335423e-08	3.803547e+01	1.535813e+03
1.580000e-06	5.291774e-06	2.336578e-08	3.813939e+01	1.536744e+03
1.590000e-06	5.304143e-06	2.337673e-08	3.822854e+01	1.537679e+03
1.600000e-06	5.314293e-06	2.338653e-08	3.830169e+01	1.538519e+03
1.610000e-06	5.322344e-06	2.339536e-08	3.835972e+01	1.539164e+03
1.620000e-06	5.328559e-06	2.340262e-08	3.840451e+01	1.539537e+03
1.630000e-06	5.333029e-06	2.340814e-08	3.843673e+01	1.539612e+03
1.640000e-06	5.335632e-06	2.341062e-08	3.845548e+01	1.539424e+03
1.650000e-06	5.336258e-06	2.340867e-08	3.846000e+01	1.539054e+03
1.660000e-06	5.335039e-06	2.340278e-08	3.845121e+01	1.538603e+03
1.670000e-06	5.332200e-06	2.339869e-08	3.843075e+01	1.538165e+03
1.680000e-06	5.327751e-06	2.339406e-08	3.839869e+01	1.537791e+03
1.690000e-06	5.321460e-06	2.338999e-08	3.835334e+01	1.537479e+03
1.700000e-06	5.313338e-06	2.338649e-08	3.829481e+01	1.537171e+03
1.710000e-06	5.303558e-06	2.338022e-08	3.822432e+01	1.536776e+03
1.720000e-06	5.292145e-06	2.337389e-08	3.814206e+01	1.536195e+03
1.730000e-06	5.278909e-06	2.334148e-08	3.804667e+01	1.535358e+03
1.740000e-06	5.263652e-06	2.330750e-08	3.793671e+01	1.534243e+03
1.750000e-06	5.246113e-06	2.330208e-08	3.781030e+01	1.532884e+03
1.760000e-06	5.226010e-06	2.328116e-08	3.766541e+01	1.531363e+03
1.770000e-06	5.203556e-06	2.330088e-08	3.750358e+01	1.529784e+03
1.780000e-06	5.179617e-06	2.329635e-08	3.733104e+01	1.528239e+03
1.790000e-06	5.154840e-06	2.323027e-08	3.715247e+01	1.526781e+03
1.800000e-06	5.128765e-06	2.325201e-08	3.696454e+01	1.525407e+03
1.810000e-06	5.100822e-06	2.319159e-08	3.676314e+01	1.524056e+03
1.820000e-06	5.071033e-06	2.313545e-08	3.654845e+01	1.522629e+03
1.830000e-06	5.039396e-06	2.320841e-08	3.632043e+01	1.521017e+03
1.840000e-06	5.005885e-06	2.315793e-08	3.607891e+01	1.519134e+03
1.850000e-06	4.970768e-06	2.313357e-08	3.582580e+01	1.516942e+03
1.860000e-06	4.933886e-06	2.319602e-08	3.555998e+01	1.514460e+03
1.870000e-06	4.895063e-06	2.310943e-08	3.528017e+01	1.511760e+03
1.880000e-06	4.854551e-06	2.303204e-08	3.498819e+01	1.508940e+03
1.890000e-06	4.812288e-06	2.297565e-08	3.468359e+01	1.506095e+03
1.900000e-06	4.768332e-06	2.293048e-08	3.436679e+01	1.503284e+03
1.910000e-06	4.722709e-06	2.297634e-08	3.403797e+01	1.500517e+03
1.920000e-06	4.675306e-06	2.288151e-08	3.369632e+01	1.497743e+03
1.930000e-06	4.626207e-06	2.280431e-08	3.334245e+01	1.494874e+03
1.940000e-06	4.575248e-06	2.278694e-08	3.297517e+01	1.491808e+03
1.950000e-06	4.522273e-06	2.270763e-08	3.259337e+01	1.488459e+03
1.960000e-06	4.467457e-06	2.267141e-08	3.219829e+01	1.484788e+03
1.970000e-06	4.410964e-06	2.259310e-08	3.179113e+01	1.480811e+03
1.980000e-06	4.352901e-06	2.255147e-08	3.137265e+01	1.476592e+03
1.990000e-06	4.293441e-06	2.251119e-08	3.094411e+01	1.472229e+03
2.000000e-06	4.232496e-06	2.240629e-08	3.050486e+01	1.467813e+03
2.010000e-06	4.169819e-06	2.237006e-08	3.005312e+01	1.463405e+03
2.020000e-06	4.105490e-06	2.229731e-08	2.958949e+01	1.459016e+03
2.030000e-06	4.039698e-06	2.222531e-08	2.911531e+01	1.454598e+03
2.040000e-06	3.972564e-06	2.215375e-08	2.863145e+01	1.450063e+03
2.050000e-06	3.904067e-06	2.206996e-08	2.813777e+01	1.445307e+03
2.060000e-06	3.834052e-06	2.202014e-08	2.763316e+01	1.440247e+03
2.070000e-06	3.762583e-06	2.191935e-08	2.711806e+01	1.434842e+03
2.080000e-06	3.689859e-06	2.183096e-08	2.659392e+01	1.429108e+03
2.090000e-06	3.615815e-06	2.173590e-08	2.606026e+01	1.423113e+03
2.100000e-06	3.540396e-06	2.164342e-08	2.551669e+01	1.416953e+03
2.110000e-06	3.463537e-06	2.156850e-08	2.496274e+01	1.410720e+03
2.120000e-06	3.385179e-06	2.147304e-08	2.439799e+01	1.404472e+03
2.130000e-06	3.305530e-06	2.138591e-08	2.382394e+01	1.398206e+03
2.140000e-06	3.224768e-06	2.127738e-08	2.324186e+01	1.391861e+03
2.150000e-06	3.142923e-06	2.117598e-08	2.265198e+01	1.385331e+03
2.160000e-06	3.059993e-06	2.106842e-08	2.205428e+01	1.378492e+03
2.170000e-06	2.975990e-06	2.095036e-08	2.144885e+01	1.371244e+03
2.180000e-06	2.890842e-06	2.083662e-08	2.083516e+01	1.363539e+03
2.190000e-06	2.804527e-06	2.071364e-08	2.021306e+01	1.355392e+03
2.200000e-06	2.717096e-06	2.058852e-08	1.958292e+01	1.346878e+03
2.210000e-06	2.628698e-06	2.045426e-08	1.894581e+01	1.338108e+03
2.220000e-06	2.539422e-06	2.032842e-08	1.830237e+01	1.329185e+03
2.230000e-06	2.449309e-06	2.019962e-08	1.765290e+01	1.320172e+03
2.240000e-06	2.358470e-06	2.006459e-08	1.699820e+01	1.311063e+03
2.250000e-06	2.266899e-06	1.992231e-08	1.633821e+01	1.301780e+03
2.260000e-06	2.174543e-06	1.976910e-08	1.567258e+01	1.292187e+03
2.270000e-06	2.081307e-06	1.960790e-08	1.500060e+01	1.282131e+03
2.280000e-06	1.987171e-06	1.943847e-08	1.432213e+01	1.271483e+03
2.290000e-06	1.892199e-06	1.926672e-08	1.363764e+01	1.260174e+03
2.300000e-06	1.796479e-06	1.909359e-08	1.294776e+01	1.248216e+03
2.310000e-06	1.700210e-06	1.891583e-08	1.225392e+01	1.235696e+03
2.320000e-06	1.603499e-06	1.872617e-08	1.155690e+01	1.222741e+03
2.330000e-06	1.506273e-06	1.852597e-08	1.085616e+01	1.209478e+03
2.340000e-06	1.408528e-06	1.831847e-08	1.015168e+01	1.195978e+03
2.350000e-06	1.310359e-06	1.810554e-08	9.444146e+00	1.182230e+03
2.360000e-06	1.211823e-06	1.788337e-08	8.733967e+00	1.168124e+03
2.370000e-06	1.112942e-06	1.765023e-08	8.021303e+00	1.153476e+03
2.380000e-06	1.013744e-06	1.740854e-08	7.306357e+00	1.138073e+03
2.390000e-06	9.142383e-07	1.715665e-08	6.589188e+00	1.121728e+03
2.400000e-06	8.143949e-07	1.689237e-08	5.869586e+00	1.104328e+03
2.410000e-06	7.142530e-07	1.661710e-08	5.147834e+00	1.085864e+03
2.420000e-06	6.139351e-07	1.633040e-08	4.424813e+00	1.066419e+03
2.430000e-06	5.134796e-07	1.603028e-08	3.700800e+00	1.046130e+03
2.440000e-06	4.128806e-07	1.571602e-08	2.975753e+00	1.025122e+03
2.450000e-06	3.121728e-07	1.538569e-08	2.249922e+00	1.003438e+03
2.460000e-06	2.113288e-07	1.503731e-08	1.523110e+00	9.809900e+02
2.470000e-06	1.103735e-07	1.466481e-08	7.954949e-01	9.575424e+02
2.480000e-06	9.372889e-09	1.426832e-08	6.755320e-02	9.327403e+02
2.490000e-06	-9.167335e-08	1.385138e-08	-6.607171e-01	9.061762e+02
2.500000e-06	-1.926642e-07	1.341469e-08	-1.388588e+00	8.774747e+02
2.510000e-06	-2.935540e-07	1.295315e-08	-2.115731e+00	8.463692e+02
2.520000e-06	-3.943608e-07	1.245692e-08	-2.842276e+00	8.127413e+02
2.530000e-06	-4.950748e-07	1.191997e-08	-3.568151e+00	7.766019e+02
2.540000e-06	-5.957229e-07	1.134033e-08	-4.293553e+00	7.380090e+02
2.550000e-06	-6.962350e-07	1.071502e-08	-5.017973e+00	6.969362e+02
2.560000e-06	-7.965031e-07	1.004004e-08	-5.740635e+00	6.531225e+02
2.570000e-06	-8.964464e-07	9.305258e-09	-6.460956e+00	6.059482e+02
2.580000e-06	-9.960467e-07	8.497522e-09	-7.178805e+00	5.543794e+02
2.590000e-06	-1.095337e-06	7.605960e-09	-7.894421e+00	4.970142e+02
2.600000e-06	-1.194245e-06	6.615569e-09	-8.607280e+00	4.322422e+02
2.610000e-06	-1.292702e-06	5.508166e-09	-9.316887e+00	3.585028e+02
2.620000e-06	-1.390696e-06	4.261242e-09	-1.002316e+01	2.745992e+02
2.630000e-06	-1.488190e-06	2.855461e-09	-1.072583e+01	1.800096e+02
2.640000e-06	-1.585119e-06	1.281747e-09	-1.142442e+01	7.512881e+01
2.650000e-06	-1.681583e-06	-4.488359e-10	-1.211967e+01	-3.861643e+01
2.660000e-06	-1.777715e-06	-2.302795e-09	-1.281252e+01	-1.588138e+02
2.670000e-06	-1.873295e-06	-4.222825e-09	-1.350139e+01	-2.822756e+02
2.680000e-06	-1.967999e-06	-6.135034e-09	-1.418395e+01	-4.053824e+02
2.690000e-06	-2.061696e-06	-7.972604e-09	-1.485926e+01	-5.245027e+02
2.700000e-06	-2.154526e-06	-9.682052e-09	-1.552831e+01	-6.364126e+02
2.710000e-06	-2.246602e-06	-1.122960e-08	-1.619193e+01	-7.386442e+02
2.720000e-06	-2.337884e-06	-1.260339e-08	-1.684983e+01	-8.297012e+02
2.730000e-06	-2.428288e-06	-1.380678e-08	-1.750140e+01	-9.091145e+02
2.740000e-06	-2.517788e-06	-1.485361e-08	-1.814645e+01	-9.773372e+02
2.750000e-06	-2.606517e-06	-1.576104e-08	-1.878594e+01	-1.035516e+03
2.760000e-06	-2.694563e-06	-1.654814e-08	-1.942052e+01	-1.085192e+03
2.770000e-06	-2.781756e-06	-1.723069e-08	-2.004894e+01	-1.127997e+03
2.780000e-06	-2.867798e-06	-1.782472e-08	-2.066907e+01	-1.165398e+03
2.790000e-06	-2.952642e-06	-1.834036e-08	-2.128057e+01	-1.198547e+03
2.800000e-06	-3.036406e-06	-1.878742e-08	-2.188428e+01	-1.228219e+03
2.810000e-06	-3.119186e-06	-1.918016e-08	-2.248090e+01	-1.254862e+03
2.820000e-06	-3.200956e-06	-1.952768e-08	-2.307025e+01	-1.278705e+03
2.830000e-06	-3.281686e-06	-1.983861e-08	-2.365209e+01	-1.299885e+03
2.840000e-06	-3.361340e-06	-2.012131e-08	-2.422618e+01	-1.318567e+03
2.850000e-06	-3.439621e-06	-2.038163e-08	-2.479037e+01	-1.335006e+03
2.860000e-06	-3.516373e-06	-2.061957e-08	-2.534355e+01	-1.349565e+03
2.870000e-06	-3.591686e-06	-2.083625e-08	-2.588635e+01	-1.362665e+03
2.880000e-06	-3.665632e-06	-2.103206e-08	-2.641930e+01	-1.374723e+03
2.890000e-06	-3.738347e-06	-2.120893e-08	-2.694338e+01	-1.386071e+03
2.900000e-06	-3.809808e-06	-2.137051e-08	-2.745842e+01	-1.396908e+03
2.910000e-06	-3.879734e-06	-2.152013e-08	-2.796240e+01	-1.407283e+03
2.920000e-06	-3.948111e-06	-2.166044e-08	-2.845521e+01	-1.417123e+03
2.930000e-06	-4.015122e-06	-2.179245e-08	-2.893818e+01	-1.426286e+03
2.940000e-06	-4.080793e-06	-2.191648e-08	-2.941149e+01	-1.434639e+03
