# Temperatura_=_76.27
# Concentracion g/m^3_=_41000.0
# C_Vs_to_Am_M_A/Vsm_=_65563218390.804596
# pendiente_HvsI_1/m_=_3716.3
# ordenada_HvsI_A/m_=_1297.0
# frecuencia_Hz_=_301584.9971865914

Tiempo_(s)	Campo_(V.s)	Magnetizacion_(V.s)	Campo_(kA/m)	Magnetizacion_(A/m)
0.000000e+00	-5.320937e-06	-2.118827e-08	-3.834942e+01	-1.385080e+03
1.000000e-08	-5.318274e-06	-2.118268e-08	-3.833023e+01	-1.384886e+03
2.000000e-08	-5.313844e-06	-2.117229e-08	-3.829830e+01	-1.384758e+03
3.000000e-08	-5.307828e-06	-2.116437e-08	-3.825494e+01	-1.384615e+03
4.000000e-08	-5.300335e-06	-2.115554e-08	-3.820094e+01	-1.384349e+03
5.000000e-08	-5.291055e-06	-2.114216e-08	-3.813405e+01	-1.383859e+03
6.000000e-08	-5.279612e-06	-2.112265e-08	-3.805158e+01	-1.383082e+03
7.000000e-08	-5.266243e-06	-2.108896e-08	-3.795523e+01	-1.382012e+03
8.000000e-08	-5.250836e-06	-2.110563e-08	-3.784419e+01	-1.380702e+03
9.000000e-08	-5.233130e-06	-2.115926e-08	-3.771657e+01	-1.379250e+03
1.000000e-07	-5.213380e-06	-2.111011e-08	-3.757423e+01	-1.377768e+03
1.100000e-07	-5.191760e-06	-2.105739e-08	-3.741841e+01	-1.376349e+03
1.200000e-07	-5.168507e-06	-2.100466e-08	-3.725082e+01	-1.375042e+03
1.300000e-07	-5.143966e-06	-2.085501e-08	-3.707395e+01	-1.373840e+03
1.400000e-07	-5.117842e-06	-2.098298e-08	-3.688566e+01	-1.372682e+03
1.500000e-07	-5.089935e-06	-2.103276e-08	-3.668453e+01	-1.371473e+03
1.600000e-07	-5.060578e-06	-2.082737e-08	-3.647294e+01	-1.370118e+03
1.700000e-07	-5.029738e-06	-2.097083e-08	-3.625067e+01	-1.368541e+03
1.800000e-07	-4.996846e-06	-2.091437e-08	-3.601361e+01	-1.366715e+03
1.900000e-07	-4.961962e-06	-2.069233e-08	-3.576219e+01	-1.364658e+03
2.000000e-07	-4.925583e-06	-2.083445e-08	-3.550000e+01	-1.362426e+03
2.100000e-07	-4.887506e-06	-2.075641e-08	-3.522557e+01	-1.360087e+03
2.200000e-07	-4.847727e-06	-2.062106e-08	-3.493887e+01	-1.357700e+03
2.300000e-07	-4.806052e-06	-2.068676e-08	-3.463851e+01	-1.355287e+03
2.400000e-07	-4.762351e-06	-2.060665e-08	-3.432354e+01	-1.352827e+03
2.500000e-07	-4.716953e-06	-2.059754e-08	-3.399635e+01	-1.350263e+03
2.600000e-07	-4.669812e-06	-2.058107e-08	-3.365659e+01	-1.347518e+03
2.700000e-07	-4.620640e-06	-2.045895e-08	-3.330220e+01	-1.344523e+03
2.800000e-07	-4.569328e-06	-2.041377e-08	-3.293238e+01	-1.341240e+03
2.900000e-07	-4.516105e-06	-2.039196e-08	-3.254879e+01	-1.337677e+03
3.000000e-07	-4.461277e-06	-2.035435e-08	-3.215362e+01	-1.333888e+03
3.100000e-07	-4.404835e-06	-2.028184e-08	-3.174683e+01	-1.329955e+03
3.200000e-07	-4.346581e-06	-2.022360e-08	-3.132698e+01	-1.325968e+03
3.300000e-07	-4.286761e-06	-2.015971e-08	-3.089584e+01	-1.321990e+03
3.400000e-07	-4.225549e-06	-2.006549e-08	-3.045467e+01	-1.318040e+03
3.500000e-07	-4.162936e-06	-2.002392e-08	-3.000340e+01	-1.314084e+03
3.600000e-07	-4.098978e-06	-1.996306e-08	-2.954243e+01	-1.310045e+03
3.700000e-07	-4.033482e-06	-1.990019e-08	-2.907039e+01	-1.305828e+03
3.800000e-07	-3.966334e-06	-1.983220e-08	-2.858643e+01	-1.301343e+03
3.900000e-07	-3.897709e-06	-1.972123e-08	-2.809183e+01	-1.296543e+03
4.000000e-07	-3.827796e-06	-1.965907e-08	-2.758795e+01	-1.291430e+03
4.100000e-07	-3.756696e-06	-1.959110e-08	-2.707552e+01	-1.286063e+03
4.200000e-07	-3.684428e-06	-1.951252e-08	-2.655466e+01	-1.280532e+03
4.300000e-07	-3.610615e-06	-1.942851e-08	-2.602267e+01	-1.274933e+03
4.400000e-07	-3.535076e-06	-1.934728e-08	-2.547824e+01	-1.269335e+03
4.500000e-07	-3.458166e-06	-1.926194e-08	-2.492393e+01	-1.263754e+03
4.600000e-07	-3.379962e-06	-1.916268e-08	-2.436029e+01	-1.258145e+03
4.700000e-07	-3.300357e-06	-1.907421e-08	-2.378656e+01	-1.252412e+03
4.800000e-07	-3.219424e-06	-1.897258e-08	-2.320326e+01	-1.246436e+03
4.900000e-07	-3.137343e-06	-1.887263e-08	-2.261167e+01	-1.240109e+03
5.000000e-07	-3.054233e-06	-1.877294e-08	-2.201268e+01	-1.233368e+03
5.100000e-07	-2.970292e-06	-1.866261e-08	-2.140769e+01	-1.226213e+03
5.200000e-07	-2.885544e-06	-1.854588e-08	-2.079689e+01	-1.218709e+03
5.300000e-07	-2.799865e-06	-1.843200e-08	-2.017938e+01	-1.210964e+03
5.400000e-07	-2.713254e-06	-1.832058e-08	-1.955515e+01	-1.203092e+03
5.500000e-07	-2.625790e-06	-1.820761e-08	-1.892478e+01	-1.195176e+03
5.600000e-07	-2.537356e-06	-1.808542e-08	-1.828741e+01	-1.187234e+03
5.700000e-07	-2.447716e-06	-1.795300e-08	-1.764135e+01	-1.179209e+03
5.800000e-07	-2.356918e-06	-1.781367e-08	-1.698694e+01	-1.170978e+03
5.900000e-07	-2.265269e-06	-1.766913e-08	-1.632641e+01	-1.162388e+03
6.000000e-07	-2.172917e-06	-1.752316e-08	-1.566080e+01	-1.153293e+03
6.100000e-07	-2.079822e-06	-1.737788e-08	-1.498983e+01	-1.143600e+03
6.200000e-07	-1.985962e-06	-1.722884e-08	-1.431336e+01	-1.133294e+03
6.300000e-07	-1.891360e-06	-1.706845e-08	-1.363154e+01	-1.122442e+03
6.400000e-07	-1.796151e-06	-1.690309e-08	-1.294534e+01	-1.111168e+03
6.500000e-07	-1.700461e-06	-1.673175e-08	-1.225568e+01	-1.099606e+03
6.600000e-07	-1.604191e-06	-1.655373e-08	-1.156184e+01	-1.087858e+03
6.700000e-07	-1.507243e-06	-1.636866e-08	-1.086310e+01	-1.075945e+03
6.800000e-07	-1.409604e-06	-1.617571e-08	-1.015939e+01	-1.063790e+03
6.900000e-07	-1.311281e-06	-1.597397e-08	-9.450756e+00	-1.051232e+03
7.000000e-07	-1.212380e-06	-1.576197e-08	-8.737946e+00	-1.038063e+03
7.100000e-07	-1.113101e-06	-1.554267e-08	-8.022418e+00	-1.024081e+03
7.200000e-07	-1.013541e-06	-1.531538e-08	-7.304866e+00	-1.009149e+03
7.300000e-07	-9.136811e-07	-1.508225e-08	-6.585145e+00	-9.932263e+02
7.400000e-07	-8.135998e-07	-1.483983e-08	-5.863832e+00	-9.763771e+02
7.500000e-07	-7.133205e-07	-1.458553e-08	-5.141092e+00	-9.587355e+02
7.600000e-07	-6.128332e-07	-1.431442e-08	-4.416854e+00	-9.404465e+02
7.700000e-07	-5.121404e-07	-1.402474e-08	-3.691134e+00	-9.215939e+02
7.800000e-07	-4.112784e-07	-1.371695e-08	-2.964194e+00	-9.021392e+02
7.900000e-07	-3.103094e-07	-1.339078e-08	-2.236483e+00	-8.818923e+02
8.000000e-07	-2.092354e-07	-1.305072e-08	-1.508016e+00	-8.605249e+02
8.100000e-07	-1.080295e-07	-1.269442e-08	-7.785974e-01	-8.376277e+02
8.200000e-07	-6.759896e-09	-1.231638e-08	-4.872039e-02	-8.127941e+02
8.300000e-07	9.451967e-08	-1.191233e-08	6.812287e-01	-7.857060e+02
8.400000e-07	1.958279e-07	-1.147793e-08	1.411384e+00	-7.561903e+02
8.500000e-07	2.970545e-07	-1.100569e-08	2.140952e+00	-7.242221e+02
8.600000e-07	3.981285e-07	-1.049150e-08	2.869419e+00	-6.898623e+02
8.700000e-07	4.991279e-07	-9.934766e-09	3.597349e+00	-6.531364e+02
8.800000e-07	5.999857e-07	-9.330678e-09	4.324258e+00	-6.138831e+02
8.900000e-07	7.006356e-07	-8.670163e-09	5.049669e+00	-5.716125e+02
9.000000e-07	8.010810e-07	-7.944364e-09	5.773606e+00	-5.254209e+02
9.100000e-07	9.012972e-07	-7.140186e-09	6.495891e+00	-4.740015e+02
9.200000e-07	1.001312e-06	-6.239620e-09	7.216728e+00	-4.157707e+02
9.300000e-07	1.101122e-06	-5.225244e-09	7.936082e+00	-3.491039e+02
9.400000e-07	1.200602e-06	-4.073743e-09	8.653062e+00	-2.726469e+02
9.500000e-07	1.299598e-06	-2.767458e-09	9.366549e+00	-1.856445e+02
9.600000e-07	1.398013e-06	-1.297019e-09	1.007586e+01	-8.821947e+01
9.700000e-07	1.495738e-06	3.297668e-10	1.078018e+01	1.846253e+01
9.800000e-07	1.592662e-06	2.080279e-09	1.147874e+01	1.321885e+02
9.900000e-07	1.688882e-06	3.903929e-09	1.217222e+01	2.498671e+02
1.000000e-06	1.784490e-06	5.729798e-09	1.286130e+01	3.678515e+02
1.010000e-06	1.879445e-06	7.486454e-09	1.354566e+01	4.823624e+02
1.020000e-06	1.973774e-06	9.114432e-09	1.422552e+01	5.899384e+02
1.030000e-06	2.067443e-06	1.057430e-08	1.490062e+01	6.878318e+02
1.040000e-06	2.160327e-06	1.185129e-08	1.557006e+01	7.742826e+02
1.050000e-06	2.252522e-06	1.294749e-08	1.623453e+01	8.486279e+02
1.060000e-06	2.344163e-06	1.387806e-08	1.689501e+01	9.112354e+02
1.070000e-06	2.435022e-06	1.466451e-08	1.754986e+01	9.632900e+02
1.080000e-06	2.524764e-06	1.533157e-08	1.819665e+01	1.006483e+03
1.090000e-06	2.613366e-06	1.590073e-08	1.883523e+01	1.042677e+03
1.100000e-06	2.701000e-06	1.638641e-08	1.946683e+01	1.073602e+03
1.110000e-06	2.787756e-06	1.680333e-08	2.009210e+01	1.100650e+03
1.120000e-06	2.873672e-06	1.716398e-08	2.071133e+01	1.124778e+03
1.130000e-06	2.958661e-06	1.748039e-08	2.132387e+01	1.146529e+03
1.140000e-06	3.042749e-06	1.776148e-08	2.192991e+01	1.166132e+03
1.150000e-06	3.125968e-06	1.801269e-08	2.252969e+01	1.183651e+03
1.160000e-06	3.208109e-06	1.823876e-08	2.312170e+01	1.199129e+03
1.170000e-06	3.288979e-06	1.844425e-08	2.370455e+01	1.212689e+03
1.180000e-06	3.368597e-06	1.863153e-08	2.427839e+01	1.224581e+03
1.190000e-06	3.446983e-06	1.880331e-08	2.484333e+01	1.235159e+03
1.200000e-06	3.524122e-06	1.896029e-08	2.539930e+01	1.244819e+03
1.210000e-06	3.600074e-06	1.910669e-08	2.594670e+01	1.253913e+03
1.220000e-06	3.674590e-06	1.924497e-08	2.648376e+01	1.262687e+03
1.230000e-06	3.747456e-06	1.937407e-08	2.700892e+01	1.271232e+03
1.240000e-06	3.818865e-06	1.949377e-08	2.752359e+01	1.279503e+03
1.250000e-06	3.888962e-06	1.960326e-08	2.802880e+01	1.287356e+03
1.260000e-06	3.957745e-06	1.970359e-08	2.852453e+01	1.294624e+03
1.270000e-06	4.025231e-06	1.979597e-08	2.901092e+01	1.301183e+03
1.280000e-06	4.091124e-06	1.988259e-08	2.948583e+01	1.307005e+03
1.290000e-06	4.155286e-06	1.996617e-08	2.994827e+01	1.312175e+03
1.300000e-06	4.218015e-06	2.004821e-08	3.040037e+01	1.316867e+03
1.310000e-06	4.279359e-06	2.012667e-08	3.084249e+01	1.321299e+03
1.320000e-06	4.339355e-06	2.019945e-08	3.127490e+01	1.325673e+03
1.330000e-06	4.397842e-06	2.026674e-08	3.169643e+01	1.330118e+03
1.340000e-06	4.454542e-06	2.033080e-08	3.210508e+01	1.334661e+03
1.350000e-06	4.509599e-06	2.039077e-08	3.250189e+01	1.339232e+03
1.360000e-06	4.563096e-06	2.044961e-08	3.288746e+01	1.343686e+03
1.370000e-06	4.614816e-06	2.050537e-08	3.326022e+01	1.347862e+03
1.380000e-06	4.664467e-06	2.055695e-08	3.361807e+01	1.351626e+03
1.390000e-06	4.712218e-06	2.060691e-08	3.396222e+01	1.354923e+03
1.400000e-06	4.758371e-06	2.065514e-08	3.429486e+01	1.357780e+03
1.410000e-06	4.802957e-06	2.070164e-08	3.461620e+01	1.360306e+03
1.420000e-06	4.845917e-06	2.074418e-08	3.492583e+01	1.362649e+03
1.430000e-06	4.887049e-06	2.078335e-08	3.522228e+01	1.364954e+03
1.440000e-06	4.926426e-06	2.081972e-08	3.550608e+01	1.367318e+03
1.450000e-06	4.964159e-06	2.085136e-08	3.577803e+01	1.369765e+03
1.460000e-06	5.000357e-06	2.087822e-08	3.603892e+01	1.372243e+03
1.470000e-06	5.034822e-06	2.090384e-08	3.628732e+01	1.374641e+03
1.480000e-06	5.067308e-06	2.093175e-08	3.652145e+01	1.376833e+03
1.490000e-06	5.098028e-06	2.095879e-08	3.674286e+01	1.378716e+03
1.500000e-06	5.127123e-06	2.098471e-08	3.695255e+01	1.380242e+03
1.510000e-06	5.154560e-06	2.100948e-08	3.715030e+01	1.381437e+03
1.520000e-06	5.179980e-06	2.103085e-08	3.733351e+01	1.382389e+03
1.530000e-06	5.203349e-06	2.104937e-08	3.750194e+01	1.383221e+03
1.540000e-06	5.224937e-06	2.106526e-08	3.765753e+01	1.384054e+03
1.550000e-06	5.244882e-06	2.107972e-08	3.780127e+01	1.384970e+03
1.560000e-06	5.263067e-06	2.109274e-08	3.793234e+01	1.385988e+03
1.570000e-06	5.279154e-06	2.110390e-08	3.804829e+01	1.387059e+03
1.580000e-06	5.293190e-06	2.111468e-08	3.814944e+01	1.388085e+03
1.590000e-06	5.305264e-06	2.112506e-08	3.823647e+01	1.388948e+03
1.600000e-06	5.315190e-06	2.113356e-08	3.830800e+01	1.389551e+03
1.610000e-06	5.323054e-06	2.114142e-08	3.836468e+01	1.389844e+03
1.620000e-06	5.329109e-06	2.114979e-08	3.840832e+01	1.389842e+03
1.630000e-06	5.333452e-06	2.115667e-08	3.843962e+01	1.389618e+03
1.640000e-06	5.335886e-06	2.115947e-08	3.845716e+01	1.389281e+03
1.650000e-06	5.336279e-06	2.115879e-08	3.846000e+01	1.388939e+03
1.660000e-06	5.334868e-06	2.115038e-08	3.844983e+01	1.388670e+03
1.670000e-06	5.331779e-06	2.114451e-08	3.842756e+01	1.388493e+03
1.680000e-06	5.327073e-06	2.114033e-08	3.839365e+01	1.388369e+03
1.690000e-06	5.320517e-06	2.113526e-08	3.834639e+01	1.388209e+03
1.700000e-06	5.312113e-06	2.113202e-08	3.828582e+01	1.387902e+03
1.710000e-06	5.302169e-06	2.112966e-08	3.821415e+01	1.387353e+03
1.720000e-06	5.290533e-06	2.114339e-08	3.813030e+01	1.386511e+03
1.730000e-06	5.277050e-06	2.112436e-08	3.803312e+01	1.385382e+03
1.740000e-06	5.261570e-06	2.100780e-08	3.792155e+01	1.384032e+03
1.750000e-06	5.243724e-06	2.100062e-08	3.779293e+01	1.382564e+03
1.760000e-06	5.223264e-06	2.101565e-08	3.764547e+01	1.381088e+03
1.770000e-06	5.200496e-06	2.105316e-08	3.748138e+01	1.379690e+03
1.780000e-06	5.176371e-06	2.116242e-08	3.730749e+01	1.378408e+03
1.790000e-06	5.151566e-06	2.093013e-08	3.712872e+01	1.377221e+03
1.800000e-06	5.125402e-06	2.091609e-08	3.694015e+01	1.376060e+03
1.810000e-06	5.097130e-06	2.105268e-08	3.673639e+01	1.374827e+03
1.820000e-06	5.067149e-06	2.079087e-08	3.652031e+01	1.373428e+03
1.830000e-06	5.035437e-06	2.089697e-08	3.629175e+01	1.371798e+03
1.840000e-06	5.001736e-06	2.101915e-08	3.604886e+01	1.369919e+03
1.850000e-06	4.966443e-06	2.074069e-08	3.579449e+01	1.367818e+03
1.860000e-06	4.929282e-06	2.086092e-08	3.552666e+01	1.365556e+03
1.870000e-06	4.890126e-06	2.086389e-08	3.524445e+01	1.363202e+03
1.880000e-06	4.849434e-06	2.070710e-08	3.495117e+01	1.360808e+03
1.890000e-06	4.807022e-06	2.079358e-08	3.464550e+01	1.358388e+03
1.900000e-06	4.762902e-06	2.058696e-08	3.432751e+01	1.355911e+03
1.910000e-06	4.717057e-06	2.061195e-08	3.399710e+01	1.353314e+03
1.920000e-06	4.669360e-06	2.071338e-08	3.365333e+01	1.350520e+03
1.930000e-06	4.620041e-06	2.051064e-08	3.329787e+01	1.347464e+03
1.940000e-06	4.568884e-06	2.049852e-08	3.292918e+01	1.344118e+03
1.950000e-06	4.515699e-06	2.040953e-08	3.254586e+01	1.340500e+03
1.960000e-06	4.460667e-06	2.038131e-08	3.214922e+01	1.336672e+03
1.970000e-06	4.403929e-06	2.035009e-08	3.174030e+01	1.332720e+03
1.980000e-06	4.345671e-06	2.021981e-08	3.132042e+01	1.328730e+03
1.990000e-06	4.286054e-06	2.028122e-08	3.089074e+01	1.324757e+03
2.000000e-06	4.224960e-06	2.016197e-08	3.045042e+01	1.320809e+03
2.010000e-06	4.162080e-06	2.007523e-08	2.999723e+01	1.316843e+03
2.020000e-06	4.097502e-06	2.002431e-08	2.953180e+01	1.312774e+03
2.030000e-06	4.031559e-06	1.993386e-08	2.905653e+01	1.308504e+03
2.040000e-06	3.964299e-06	1.994397e-08	2.857177e+01	1.303954e+03
2.050000e-06	3.895680e-06	1.980136e-08	2.807721e+01	1.299084e+03
2.060000e-06	3.825485e-06	1.974085e-08	2.757130e+01	1.293910e+03
2.070000e-06	3.753825e-06	1.968565e-08	2.705483e+01	1.288498e+03
2.080000e-06	3.680925e-06	1.957993e-08	2.652941e+01	1.282944e+03
2.090000e-06	3.606698e-06	1.951158e-08	2.599444e+01	1.277340e+03
2.100000e-06	3.531169e-06	1.939569e-08	2.545009e+01	1.271746e+03
2.110000e-06	3.454113e-06	1.934230e-08	2.489472e+01	1.266164e+03
2.120000e-06	3.375510e-06	1.924561e-08	2.432821e+01	1.260537e+03
2.130000e-06	3.295672e-06	1.915408e-08	2.375279e+01	1.254762e+03
2.140000e-06	3.214763e-06	1.906035e-08	2.316966e+01	1.248718e+03
2.150000e-06	3.132789e-06	1.895028e-08	2.257885e+01	1.242305e+03
2.160000e-06	3.049749e-06	1.886751e-08	2.198036e+01	1.235472e+03
2.170000e-06	2.965758e-06	1.875332e-08	2.137502e+01	1.228234e+03
2.180000e-06	2.880680e-06	1.865017e-08	2.076183e+01	1.220668e+03
2.190000e-06	2.794303e-06	1.853018e-08	2.013930e+01	1.212886e+03
2.200000e-06	2.706779e-06	1.840984e-08	1.950848e+01	1.204999e+03
2.210000e-06	2.618313e-06	1.828824e-08	1.887089e+01	1.197077e+03
2.220000e-06	2.528942e-06	1.816774e-08	1.822676e+01	1.189124e+03
2.230000e-06	2.438719e-06	1.805427e-08	1.757650e+01	1.181066e+03
2.240000e-06	2.347753e-06	1.792599e-08	1.692089e+01	1.172771e+03
2.250000e-06	2.256095e-06	1.779189e-08	1.626028e+01	1.164083e+03
2.260000e-06	2.163689e-06	1.764147e-08	1.559429e+01	1.154865e+03
2.270000e-06	2.070364e-06	1.749180e-08	1.492167e+01	1.145038e+03
2.280000e-06	1.976050e-06	1.733857e-08	1.424192e+01	1.134606e+03
2.290000e-06	1.880865e-06	1.717954e-08	1.355590e+01	1.123652e+03
2.300000e-06	1.785048e-06	1.701596e-08	1.286532e+01	1.112304e+03
2.310000e-06	1.688781e-06	1.684593e-08	1.217150e+01	1.100696e+03
2.320000e-06	1.592043e-06	1.667201e-08	1.147428e+01	1.088913e+03
2.330000e-06	1.494832e-06	1.648663e-08	1.077365e+01	1.076956e+03
2.340000e-06	1.397076e-06	1.629031e-08	1.006910e+01	1.064731e+03
2.350000e-06	1.298766e-06	1.608532e-08	9.360556e+00	1.052059e+03
2.360000e-06	1.200084e-06	1.587727e-08	8.649325e+00	1.038731e+03
2.370000e-06	1.101114e-06	1.566095e-08	7.936024e+00	1.024553e+03
2.380000e-06	1.001871e-06	1.543297e-08	7.220753e+00	1.009408e+03
2.390000e-06	9.023358e-07	1.519284e-08	6.503376e+00	9.932775e+02
2.400000e-06	8.025267e-07	1.493935e-08	5.784026e+00	9.762450e+02
2.410000e-06	7.025492e-07	1.467633e-08	5.063461e+00	9.584528e+02
2.420000e-06	6.024352e-07	1.440219e-08	4.341912e+00	9.400386e+02
2.430000e-06	5.021084e-07	1.411544e-08	3.618830e+00	9.210645e+02
2.440000e-06	4.015921e-07	1.381367e-08	2.894382e+00	9.014606e+02
2.450000e-06	3.009554e-07	1.348933e-08	2.169066e+00	8.810044e+02
2.460000e-06	2.001371e-07	1.314126e-08	1.442442e+00	8.593442e+02
2.470000e-06	9.915273e-08	1.277451e-08	7.146204e-01	8.360638e+02
2.480000e-06	-1.942682e-09	1.238762e-08	-1.400143e-02	8.107688e+02
2.490000e-06	-1.030871e-07	1.197269e-08	-7.429763e-01	7.831689e+02
2.500000e-06	-2.042088e-07	1.152770e-08	-1.471788e+00	7.531247e+02
2.510000e-06	-3.052445e-07	1.105067e-08	-2.199979e+00	7.206373e+02
2.520000e-06	-4.061258e-07	1.053404e-08	-2.927058e+00	6.857716e+02
2.530000e-06	-5.068518e-07	9.970894e-09	-3.653017e+00	6.485263e+02
2.540000e-06	-6.074162e-07	9.356121e-09	-4.377812e+00	6.086803e+02
2.550000e-06	-7.077938e-07	8.683504e-09	-5.101260e+00	5.656595e+02
2.560000e-06	-8.078905e-07	7.943685e-09	-5.822684e+00	5.184691e+02
2.570000e-06	-9.077000e-07	7.122399e-09	-6.542038e+00	4.657283e+02
2.580000e-06	-1.007272e-06	6.202731e-09	-7.259676e+00	4.058217e+02
2.590000e-06	-1.106567e-06	5.166653e-09	-7.975329e+00	3.371549e+02
2.600000e-06	-1.205466e-06	3.994458e-09	-8.688118e+00	2.584747e+02
2.610000e-06	-1.303930e-06	2.669836e-09	-9.397776e+00	1.691938e+02
2.620000e-06	-1.401959e-06	1.182935e-09	-1.010429e+01	6.964958e+01
2.630000e-06	-1.499400e-06	-4.578295e-10	-1.080658e+01	-3.876250e+01
2.640000e-06	-1.596284e-06	-2.222688e-09	-1.150485e+01	-1.536211e+02
2.650000e-06	-1.692715e-06	-4.058442e-09	-1.219985e+01	-2.716844e+02
2.660000e-06	-1.788670e-06	-5.892473e-09	-1.289142e+01	-3.892392e+02
2.670000e-06	-1.884110e-06	-7.650619e-09	-1.357928e+01	-5.025372e+02
2.680000e-06	-1.978799e-06	-9.270164e-09	-1.426174e+01	-6.082399e+02
2.690000e-06	-2.072454e-06	-1.071675e-08	-1.493674e+01	-7.037932e+02
2.700000e-06	-2.165142e-06	-1.197956e-08	-1.560476e+01	-7.876693e+02
2.710000e-06	-2.257094e-06	-1.306202e-08	-1.626749e+01	-8.594371e+02
2.720000e-06	-2.348363e-06	-1.398199e-08	-1.692529e+01	-9.196619e+02
2.730000e-06	-2.438781e-06	-1.476171e-08	-1.757695e+01	-9.696650e+02
2.740000e-06	-2.528226e-06	-1.542277e-08	-1.822161e+01	-1.011203e+03
2.750000e-06	-2.616812e-06	-1.598549e-08	-1.886007e+01	-1.046131e+03
2.760000e-06	-2.704709e-06	-1.646637e-08	-1.949357e+01	-1.076123e+03
2.770000e-06	-2.791834e-06	-1.687829e-08	-2.012149e+01	-1.102481e+03
2.780000e-06	-2.877776e-06	-1.723608e-08	-2.074091e+01	-1.126067e+03
2.790000e-06	-2.962434e-06	-1.755076e-08	-2.135106e+01	-1.147348e+03
2.800000e-06	-3.046082e-06	-1.782921e-08	-2.195393e+01	-1.166502e+03
2.810000e-06	-3.128811e-06	-1.807656e-08	-2.255018e+01	-1.183579e+03
2.820000e-06	-3.210541e-06	-1.829805e-08	-2.313923e+01	-1.198632e+03
2.830000e-06	-3.291170e-06	-1.850047e-08	-2.372034e+01	-1.211810e+03
2.840000e-06	-3.370625e-06	-1.868672e-08	-2.429300e+01	-1.223389e+03
2.850000e-06	-3.448632e-06	-1.885989e-08	-2.485522e+01	-1.233738e+03
2.860000e-06	-3.525131e-06	-1.902027e-08	-2.540657e+01	-1.243250e+03
2.870000e-06	-3.600273e-06	-1.916776e-08	-2.594813e+01	-1.252261e+03
2.880000e-06	-3.674056e-06	-1.930084e-08	-2.647991e+01	-1.260984e+03
2.890000e-06	-3.746570e-06	-1.942176e-08	-2.700254e+01	-1.269479e+03
2.900000e-06	-3.817889e-06	-1.953638e-08	-2.751655e+01	-1.277675e+03
2.910000e-06	-3.887705e-06	-1.964523e-08	-2.801973e+01	-1.285417e+03
2.920000e-06	-3.955942e-06	-1.974646e-08	-2.851153e+01	-1.292541e+03
2.930000e-06	-4.022861e-06	-1.984060e-08	-2.899384e+01	-1.298942e+03
2.940000e-06	-4.088404e-06	-1.992952e-08	-2.946623e+01	-1.304614e+03
