# Temperatura_=_48.02
# Concentracion g/m^3_=_41000.0
# C_Vs_to_Am_M_A/Vsm_=_65563218390.804596
# pendiente_HvsI_1/m_=_3716.3
# ordenada_HvsI_A/m_=_1297.0
# frecuencia_Hz_=_301591.71402629936

Tiempo_(s)	Campo_(V.s)	Magnetizacion_(V.s)	Campo_(kA/m)	Magnetizacion_(A/m)
0.000000e+00	-5.333798e-06	-2.363666e-08	-3.834489e+01	-1.545570e+03
1.000000e-08	-5.331194e-06	-2.363341e-08	-3.832617e+01	-1.545094e+03
2.000000e-08	-5.326802e-06	-2.362520e-08	-3.829459e+01	-1.544710e+03
3.000000e-08	-5.320776e-06	-2.361802e-08	-3.825127e+01	-1.544415e+03
4.000000e-08	-5.313189e-06	-2.360761e-08	-3.819673e+01	-1.544146e+03
5.000000e-08	-5.303821e-06	-2.359200e-08	-3.812938e+01	-1.543800e+03
6.000000e-08	-5.292324e-06	-2.357243e-08	-3.804672e+01	-1.543265e+03
7.000000e-08	-5.278930e-06	-2.353957e-08	-3.795044e+01	-1.542457e+03
8.000000e-08	-5.263464e-06	-2.355625e-08	-3.783925e+01	-1.541342e+03
9.000000e-08	-5.245679e-06	-2.361394e-08	-3.771139e+01	-1.539950e+03
1.000000e-07	-5.225885e-06	-2.355867e-08	-3.756909e+01	-1.538366e+03
1.100000e-07	-5.204237e-06	-2.349805e-08	-3.741347e+01	-1.536702e+03
1.200000e-07	-5.180936e-06	-2.344892e-08	-3.724595e+01	-1.535064e+03
1.300000e-07	-5.156284e-06	-2.329944e-08	-3.706873e+01	-1.533523e+03
1.400000e-07	-5.130042e-06	-2.342644e-08	-3.688007e+01	-1.532093e+03
1.500000e-07	-5.102021e-06	-2.348538e-08	-3.667863e+01	-1.530727e+03
1.600000e-07	-5.072537e-06	-2.326275e-08	-3.646667e+01	-1.529337e+03
1.700000e-07	-5.041586e-06	-2.339502e-08	-3.624416e+01	-1.527816e+03
1.800000e-07	-5.008576e-06	-2.334153e-08	-3.600685e+01	-1.526072e+03
1.900000e-07	-4.973582e-06	-2.310493e-08	-3.575527e+01	-1.524055e+03
2.000000e-07	-4.937102e-06	-2.325969e-08	-3.549302e+01	-1.521767e+03
2.100000e-07	-4.898949e-06	-2.320394e-08	-3.521874e+01	-1.519260e+03
2.200000e-07	-4.859038e-06	-2.306969e-08	-3.493182e+01	-1.516611e+03
2.300000e-07	-4.817146e-06	-2.312439e-08	-3.463065e+01	-1.513899e+03
2.400000e-07	-4.773272e-06	-2.303879e-08	-3.431524e+01	-1.511174e+03
2.500000e-07	-4.727732e-06	-2.302107e-08	-3.398785e+01	-1.508441e+03
2.600000e-07	-4.680419e-06	-2.298476e-08	-3.364771e+01	-1.505657e+03
2.700000e-07	-4.631086e-06	-2.286868e-08	-3.329306e+01	-1.502748e+03
2.800000e-07	-4.579598e-06	-2.284920e-08	-3.292291e+01	-1.499627e+03
2.900000e-07	-4.526247e-06	-2.280634e-08	-3.253937e+01	-1.496229e+03
3.000000e-07	-4.471309e-06	-2.275823e-08	-3.214442e+01	-1.492530e+03
3.100000e-07	-4.414706e-06	-2.270193e-08	-3.173750e+01	-1.488557e+03
3.200000e-07	-4.356327e-06	-2.263175e-08	-3.131781e+01	-1.484376e+03
3.300000e-07	-4.296362e-06	-2.256834e-08	-3.088672e+01	-1.480078e+03
3.400000e-07	-4.234979e-06	-2.248542e-08	-3.044543e+01	-1.475742e+03
3.500000e-07	-4.172188e-06	-2.243510e-08	-2.999403e+01	-1.471414e+03
3.600000e-07	-4.108072e-06	-2.235959e-08	-2.953309e+01	-1.467088e+03
3.700000e-07	-4.042394e-06	-2.229379e-08	-2.906093e+01	-1.462705e+03
3.800000e-07	-3.974990e-06	-2.222241e-08	-2.857636e+01	-1.458173e+03
3.900000e-07	-3.906130e-06	-2.211181e-08	-2.808132e+01	-1.453394e+03
4.000000e-07	-3.836016e-06	-2.205683e-08	-2.757727e+01	-1.448295e+03
4.100000e-07	-3.764747e-06	-2.198305e-08	-2.706491e+01	-1.442847e+03
4.200000e-07	-3.692305e-06	-2.189507e-08	-2.654413e+01	-1.437082e+03
4.300000e-07	-3.618238e-06	-2.180608e-08	-2.601166e+01	-1.431076e+03
4.400000e-07	-3.542419e-06	-2.171831e-08	-2.546659e+01	-1.424927e+03
4.500000e-07	-3.465241e-06	-2.162683e-08	-2.491175e+01	-1.418722e+03
4.600000e-07	-3.386758e-06	-2.152261e-08	-2.434754e+01	-1.412503e+03
4.700000e-07	-3.306924e-06	-2.142956e-08	-2.377361e+01	-1.406256e+03
4.800000e-07	-3.225852e-06	-2.132599e-08	-2.319078e+01	-1.399905e+03
4.900000e-07	-3.143659e-06	-2.122061e-08	-2.259989e+01	-1.393333e+03
5.000000e-07	-3.060411e-06	-2.111301e-08	-2.200141e+01	-1.386419e+03
5.100000e-07	-2.976288e-06	-2.099592e-08	-2.139665e+01	-1.379068e+03
5.200000e-07	-2.891334e-06	-2.087319e-08	-2.078591e+01	-1.371246e+03
5.300000e-07	-2.805383e-06	-2.075104e-08	-2.016801e+01	-1.362984e+03
5.400000e-07	-2.718534e-06	-2.062815e-08	-1.954365e+01	-1.354372e+03
5.500000e-07	-2.630876e-06	-2.050177e-08	-1.891347e+01	-1.345525e+03
5.600000e-07	-2.542236e-06	-2.036592e-08	-1.827623e+01	-1.336548e+03
5.700000e-07	-2.452398e-06	-2.022367e-08	-1.763039e+01	-1.327495e+03
5.800000e-07	-2.361402e-06	-2.007399e-08	-1.697621e+01	-1.318344e+03
5.900000e-07	-2.269533e-06	-1.992000e-08	-1.631576e+01	-1.309003e+03
6.000000e-07	-2.176994e-06	-1.976409e-08	-1.565050e+01	-1.299325e+03
6.100000e-07	-2.083740e-06	-1.960348e-08	-1.498009e+01	-1.289154e+03
6.200000e-07	-1.989705e-06	-1.943651e-08	-1.430407e+01	-1.278364e+03
6.300000e-07	-1.895008e-06	-1.926100e-08	-1.362329e+01	-1.266902e+03
6.400000e-07	-1.799714e-06	-1.908133e-08	-1.293822e+01	-1.254798e+03
6.500000e-07	-1.703782e-06	-1.889406e-08	-1.224856e+01	-1.242153e+03
6.600000e-07	-1.607152e-06	-1.870190e-08	-1.155388e+01	-1.229107e+03
6.700000e-07	-1.509814e-06	-1.850362e-08	-1.085412e+01	-1.215786e+03
6.800000e-07	-1.411816e-06	-1.829542e-08	-1.014960e+01	-1.202253e+03
6.900000e-07	-1.313236e-06	-1.807595e-08	-9.440908e+00	-1.188474e+03
7.000000e-07	-1.214176e-06	-1.784728e-08	-8.728757e+00	-1.174320e+03
7.100000e-07	-1.114703e-06	-1.761384e-08	-8.013647e+00	-1.159586e+03
7.200000e-07	-1.014868e-06	-1.737252e-08	-7.295928e+00	-1.144049e+03
7.300000e-07	-9.147702e-07	-1.712418e-08	-6.576319e+00	-1.127522e+03
7.400000e-07	-8.144786e-07	-1.686427e-08	-5.855319e+00	-1.109904e+03
7.500000e-07	-7.139458e-07	-1.659104e-08	-5.132585e+00	-1.091205e+03
7.600000e-07	-6.131798e-07	-1.629955e-08	-4.408174e+00	-1.071531e+03
7.700000e-07	-5.122471e-07	-1.598937e-08	-3.682565e+00	-1.051034e+03
7.800000e-07	-4.111823e-07	-1.566643e-08	-2.956006e+00	-1.029842e+03
7.900000e-07	-3.099872e-07	-1.532789e-08	-2.228511e+00	-1.007988e+03
8.000000e-07	-2.085906e-07	-1.497375e-08	-1.499566e+00	-9.853602e+02
8.100000e-07	-1.070762e-07	-1.460134e-08	-7.697753e-01	-9.616920e+02
8.200000e-07	-5.513439e-09	-1.420840e-08	-3.963633e-02	-9.365994e+02
8.300000e-07	9.606905e-08	-1.379289e-08	6.906442e-01	-9.096551e+02
8.400000e-07	1.976316e-07	-1.335112e-08	1.420781e+00	-8.804795e+02
8.500000e-07	2.991565e-07	-1.287700e-08	2.150648e+00	-8.488188e+02
8.600000e-07	4.005691e-07	-1.236623e-08	2.879707e+00	-8.145792e+02
8.700000e-07	5.018699e-07	-1.181892e-08	3.607962e+00	-7.777984e+02
8.800000e-07	6.030097e-07	-1.123146e-08	4.335061e+00	-7.385504e+02
8.900000e-07	7.038973e-07	-1.059636e-08	5.060346e+00	-6.968015e+02
9.000000e-07	8.045620e-07	-9.908597e-09	5.784028e+00	-6.522523e+02
9.100000e-07	9.049983e-07	-9.159575e-09	6.506069e+00	-6.042124e+02
9.200000e-07	1.005167e-06	-8.333435e-09	7.226182e+00	-5.515540e+02
9.300000e-07	1.105134e-06	-7.417371e-09	7.944849e+00	-4.927741e+02
9.400000e-07	1.204818e-06	-6.393734e-09	8.661483e+00	-4.261772e+02
9.500000e-07	1.304046e-06	-5.240592e-09	9.374839e+00	-3.501561e+02
9.600000e-07	1.402690e-06	-3.936277e-09	1.008399e+01	-2.635262e+02
9.700000e-07	1.500581e-06	-2.466753e-09	1.078774e+01	-1.658459e+02
9.800000e-07	1.597673e-06	-8.314432e-10	1.148573e+01	-5.765706e+01
9.900000e-07	1.694092e-06	9.570236e-10	1.217889e+01	5.941522e+01
1.000000e-06	1.789938e-06	2.860294e-09	1.286794e+01	1.827342e+02
1.010000e-06	1.885148e-06	4.816777e-09	1.355240e+01	3.088936e+02
1.020000e-06	1.979726e-06	6.750627e-09	1.423233e+01	4.340937e+02
1.030000e-06	2.073675e-06	8.588423e-09	1.490773e+01	5.545869e+02
1.040000e-06	2.166862e-06	1.027989e-08	1.557766e+01	6.671131e+02
1.050000e-06	2.259299e-06	1.179738e-08	1.624219e+01	7.692495e+02
1.060000e-06	2.351142e-06	1.313335e-08	1.690246e+01	8.596149e+02
1.070000e-06	2.442236e-06	1.429619e-08	1.755733e+01	9.379023e+02
1.080000e-06	2.532177e-06	1.530078e-08	1.820392e+01	1.004746e+03
1.090000e-06	2.620984e-06	1.616883e-08	1.884236e+01	1.061464e+03
1.100000e-06	2.708956e-06	1.691940e-08	1.947479e+01	1.109735e+03
1.110000e-06	2.796020e-06	1.756728e-08	2.010070e+01	1.151283e+03
1.120000e-06	2.882106e-06	1.812663e-08	2.071958e+01	1.187618e+03
1.130000e-06	2.967206e-06	1.861451e-08	2.133136e+01	1.219887e+03
1.140000e-06	3.051381e-06	1.904265e-08	2.193650e+01	1.248835e+03
1.150000e-06	3.134691e-06	1.942224e-08	2.253542e+01	1.274864e+03
1.160000e-06	3.216877e-06	1.975976e-08	2.312626e+01	1.298160e+03
1.170000e-06	3.297820e-06	2.006287e-08	2.370816e+01	1.318830e+03
1.180000e-06	3.377518e-06	2.033672e-08	2.428111e+01	1.337026e+03
1.190000e-06	3.456060e-06	2.058411e-08	2.484575e+01	1.353009e+03
1.200000e-06	3.533462e-06	2.080505e-08	2.540220e+01	1.367155e+03
1.210000e-06	3.609652e-06	2.100631e-08	2.594993e+01	1.379903e+03
1.220000e-06	3.684418e-06	2.119563e-08	2.648743e+01	1.391678e+03
1.230000e-06	3.757489e-06	2.137161e-08	2.701274e+01	1.402816e+03
1.240000e-06	3.829051e-06	2.153451e-08	2.752720e+01	1.413502e+03
1.250000e-06	3.899284e-06	2.168388e-08	2.803210e+01	1.423767e+03
1.260000e-06	3.968157e-06	2.182246e-08	2.852724e+01	1.433515e+03
1.270000e-06	4.035770e-06	2.194952e-08	2.901331e+01	1.442586e+03
1.280000e-06	4.101867e-06	2.206686e-08	2.948848e+01	1.450835e+03
1.290000e-06	4.166272e-06	2.217702e-08	2.995149e+01	1.458191e+03
1.300000e-06	4.229206e-06	2.228127e-08	3.040393e+01	1.464696e+03
1.310000e-06	4.290723e-06	2.237743e-08	3.084618e+01	1.470499e+03
1.320000e-06	4.350917e-06	2.246619e-08	3.127892e+01	1.475820e+03
1.330000e-06	4.409639e-06	2.254871e-08	3.170107e+01	1.480892e+03
1.340000e-06	4.466560e-06	2.262650e-08	3.211028e+01	1.485898e+03
1.350000e-06	4.521741e-06	2.270032e-08	3.250698e+01	1.490933e+03
1.360000e-06	4.575317e-06	2.277199e-08	3.289214e+01	1.495981e+03
1.370000e-06	4.627161e-06	2.284121e-08	3.326485e+01	1.500939e+03
1.380000e-06	4.676969e-06	2.290631e-08	3.362291e+01	1.505655e+03
1.390000e-06	4.724810e-06	2.296723e-08	3.396684e+01	1.509983e+03
1.400000e-06	4.771014e-06	2.302398e-08	3.429901e+01	1.513830e+03
1.410000e-06	4.815698e-06	2.307787e-08	3.462025e+01	1.517185e+03
1.420000e-06	4.858824e-06	2.312818e-08	3.493028e+01	1.520123e+03
1.430000e-06	4.900089e-06	2.317558e-08	3.522693e+01	1.522778e+03
1.440000e-06	4.939562e-06	2.322045e-08	3.551071e+01	1.525301e+03
1.450000e-06	4.977425e-06	2.325984e-08	3.578290e+01	1.527815e+03
1.460000e-06	5.013712e-06	2.329504e-08	3.604378e+01	1.530378e+03
1.470000e-06	5.048283e-06	2.332842e-08	3.629230e+01	1.532972e+03
1.480000e-06	5.080827e-06	2.336054e-08	3.652627e+01	1.535510e+03
1.490000e-06	5.111533e-06	2.338983e-08	3.674702e+01	1.537870e+03
1.500000e-06	5.140654e-06	2.341735e-08	3.695637e+01	1.539936e+03
1.510000e-06	5.168166e-06	2.344387e-08	3.715415e+01	1.541636e+03
1.520000e-06	5.193656e-06	2.346843e-08	3.733740e+01	1.542963e+03
1.530000e-06	5.217061e-06	2.349027e-08	3.750566e+01	1.543984e+03
1.540000e-06	5.238687e-06	2.350850e-08	3.766113e+01	1.544812e+03
1.550000e-06	5.258622e-06	2.352496e-08	3.780444e+01	1.545576e+03
1.560000e-06	5.276786e-06	2.353829e-08	3.793503e+01	1.546379e+03
1.570000e-06	5.292965e-06	2.354962e-08	3.805134e+01	1.547271e+03
1.580000e-06	5.307084e-06	2.356013e-08	3.815284e+01	1.548231e+03
1.590000e-06	5.319185e-06	2.356920e-08	3.823983e+01	1.549179e+03
1.600000e-06	5.329116e-06	2.357691e-08	3.831123e+01	1.550004e+03
1.610000e-06	5.336937e-06	2.358489e-08	3.836745e+01	1.550593e+03
1.620000e-06	5.342926e-06	2.359432e-08	3.841051e+01	1.550876e+03
1.630000e-06	5.347161e-06	2.360082e-08	3.844095e+01	1.550842e+03
1.640000e-06	5.349481e-06	2.360320e-08	3.845763e+01	1.550543e+03
1.650000e-06	5.349811e-06	2.360309e-08	3.846000e+01	1.550081e+03
1.660000e-06	5.348384e-06	2.359356e-08	3.844974e+01	1.549571e+03
1.670000e-06	5.345313e-06	2.358408e-08	3.842767e+01	1.549110e+03
1.680000e-06	5.340586e-06	2.357914e-08	3.839368e+01	1.548746e+03
1.690000e-06	5.333975e-06	2.357559e-08	3.834616e+01	1.548462e+03
1.700000e-06	5.325584e-06	2.357265e-08	3.828584e+01	1.548185e+03
1.710000e-06	5.315649e-06	2.356936e-08	3.821441e+01	1.547806e+03
1.720000e-06	5.304028e-06	2.357958e-08	3.813087e+01	1.547217e+03
1.730000e-06	5.290521e-06	2.355913e-08	3.803376e+01	1.546342e+03
1.740000e-06	5.274924e-06	2.343539e-08	3.792164e+01	1.545162e+03
1.750000e-06	5.256984e-06	2.343496e-08	3.779267e+01	1.543719e+03
1.760000e-06	5.236430e-06	2.345744e-08	3.764491e+01	1.542107e+03
1.770000e-06	5.213522e-06	2.349113e-08	3.748022e+01	1.540438e+03
1.780000e-06	5.189280e-06	2.360305e-08	3.730594e+01	1.538816e+03
1.790000e-06	5.164377e-06	2.336195e-08	3.712691e+01	1.537298e+03
1.800000e-06	5.138102e-06	2.334601e-08	3.693802e+01	1.535886e+03
1.810000e-06	5.109762e-06	2.349147e-08	3.673428e+01	1.534523e+03
1.820000e-06	5.079650e-06	2.322073e-08	3.651780e+01	1.533112e+03
1.830000e-06	5.047685e-06	2.333625e-08	3.628801e+01	1.531548e+03
1.840000e-06	5.013803e-06	2.346160e-08	3.604443e+01	1.529747e+03
1.850000e-06	4.978400e-06	2.315737e-08	3.578991e+01	1.527668e+03
1.860000e-06	4.941197e-06	2.328273e-08	3.552246e+01	1.525327e+03
1.870000e-06	4.902012e-06	2.328658e-08	3.524076e+01	1.522781e+03
1.880000e-06	4.861174e-06	2.312357e-08	3.494717e+01	1.520111e+03
1.890000e-06	4.818543e-06	2.322084e-08	3.464070e+01	1.517392e+03
1.900000e-06	4.774278e-06	2.302209e-08	3.432247e+01	1.514665e+03
1.910000e-06	4.728315e-06	2.306588e-08	3.399204e+01	1.511925e+03
1.920000e-06	4.680413e-06	2.314704e-08	3.364767e+01	1.509120e+03
1.930000e-06	4.630901e-06	2.290680e-08	3.329173e+01	1.506171e+03
1.940000e-06	4.579516e-06	2.293104e-08	3.292232e+01	1.502993e+03
1.950000e-06	4.526078e-06	2.284281e-08	3.253815e+01	1.499530e+03
1.960000e-06	4.470814e-06	2.279813e-08	3.214086e+01	1.495767e+03
1.970000e-06	4.413844e-06	2.278667e-08	3.173130e+01	1.491741e+03
1.980000e-06	4.355373e-06	2.263958e-08	3.131095e+01	1.487527e+03
1.990000e-06	4.295518e-06	2.269490e-08	3.088065e+01	1.483213e+03
2.000000e-06	4.234148e-06	2.257343e-08	3.043946e+01	1.478876e+03
2.010000e-06	4.171066e-06	2.248847e-08	2.998596e+01	1.474549e+03
2.020000e-06	4.106342e-06	2.244766e-08	2.952066e+01	1.470215e+03
2.030000e-06	4.040218e-06	2.234817e-08	2.904528e+01	1.465807e+03
2.040000e-06	3.972777e-06	2.235339e-08	2.856045e+01	1.461229e+03
2.050000e-06	3.903947e-06	2.219466e-08	2.806563e+01	1.456385e+03
2.060000e-06	3.833559e-06	2.213438e-08	2.755961e+01	1.451210e+03
2.070000e-06	3.761726e-06	2.208220e-08	2.704320e+01	1.445689e+03
2.080000e-06	3.688671e-06	2.196668e-08	2.651800e+01	1.439863e+03
2.090000e-06	3.614317e-06	2.189930e-08	2.598347e+01	1.433817e+03
2.100000e-06	3.538558e-06	2.177617e-08	2.543883e+01	1.427648e+03
2.110000e-06	3.461240e-06	2.172322e-08	2.488299e+01	1.421437e+03
2.120000e-06	3.382424e-06	2.161676e-08	2.431638e+01	1.415214e+03
2.130000e-06	3.302408e-06	2.151203e-08	2.374114e+01	1.408952e+03
2.140000e-06	3.221329e-06	2.141485e-08	2.315826e+01	1.402562e+03
2.150000e-06	3.139140e-06	2.129707e-08	2.256740e+01	1.395926e+03
2.160000e-06	3.055920e-06	2.120653e-08	2.196913e+01	1.388923e+03
2.170000e-06	2.971724e-06	2.108131e-08	2.136384e+01	1.381471e+03
2.180000e-06	2.886281e-06	2.097328e-08	2.074959e+01	1.373548e+03
2.190000e-06	2.799567e-06	2.084689e-08	2.012620e+01	1.365200e+03
2.200000e-06	2.711814e-06	2.071763e-08	1.949534e+01	1.356526e+03
2.210000e-06	2.623185e-06	2.058809e-08	1.885818e+01	1.347643e+03
2.220000e-06	2.533659e-06	2.045561e-08	1.821457e+01	1.338646e+03
2.230000e-06	2.443265e-06	2.032981e-08	1.756473e+01	1.329575e+03
2.240000e-06	2.352188e-06	2.018530e-08	1.690997e+01	1.320392e+03
2.250000e-06	2.260392e-06	2.003628e-08	1.625005e+01	1.310991e+03
2.260000e-06	2.167769e-06	1.987480e-08	1.558418e+01	1.301219e+03
2.270000e-06	2.074177e-06	1.971779e-08	1.491134e+01	1.290922e+03
2.280000e-06	1.979598e-06	1.955613e-08	1.423141e+01	1.279989e+03
2.290000e-06	1.884214e-06	1.938408e-08	1.354569e+01	1.268382e+03
2.300000e-06	1.788174e-06	1.920742e-08	1.285526e+01	1.256150e+03
2.310000e-06	1.691605e-06	1.902319e-08	1.216101e+01	1.243406e+03
2.320000e-06	1.594575e-06	1.883219e-08	1.146346e+01	1.230291e+03
2.330000e-06	1.497057e-06	1.862816e-08	1.076240e+01	1.216921e+03
2.340000e-06	1.399028e-06	1.841683e-08	1.005766e+01	1.203339e+03
2.350000e-06	1.300505e-06	1.819835e-08	9.349384e+00	1.189493e+03
2.360000e-06	1.201626e-06	1.797406e-08	8.638540e+00	1.175232e+03
2.370000e-06	1.102498e-06	1.774046e-08	7.925901e+00	1.160344e+03
2.380000e-06	1.003126e-06	1.749648e-08	7.211510e+00	1.144606e+03
2.390000e-06	9.034680e-07	1.723984e-08	6.495067e+00	1.127848e+03
2.400000e-06	8.035063e-07	1.696868e-08	5.776439e+00	1.109993e+03
2.410000e-06	7.033036e-07	1.668781e-08	5.056078e+00	1.091073e+03
2.420000e-06	6.028563e-07	1.639571e-08	4.333958e+00	1.071208e+03
2.430000e-06	5.021588e-07	1.609129e-08	3.610039e+00	1.050552e+03
2.440000e-06	4.012851e-07	1.577262e-08	2.884854e+00	1.029218e+03
2.450000e-06	3.002328e-07	1.543369e-08	2.158385e+00	1.007212e+03
2.460000e-06	1.989782e-07	1.507306e-08	1.430462e+00	9.843870e+02
2.470000e-06	9.760098e-08	1.469389e-08	7.016573e-01	9.604474e+02
2.480000e-06	-3.799748e-09	1.429545e-08	-2.731654e-02	9.349924e+02
2.490000e-06	-1.051739e-07	1.387187e-08	-7.560996e-01	9.075972e+02
2.500000e-06	-2.064838e-07	1.342080e-08	-1.484420e+00	8.779038e+02
2.510000e-06	-3.077524e-07	1.294108e-08	-2.212445e+00	8.456917e+02
2.520000e-06	-4.089285e-07	1.242628e-08	-2.939803e+00	8.108999e+02
2.530000e-06	-5.098632e-07	1.187109e-08	-3.665427e+00	7.735841e+02
2.540000e-06	-6.106185e-07	1.127279e-08	-4.389761e+00	7.338084e+02
2.550000e-06	-7.112300e-07	1.062717e-08	-5.113061e+00	6.914951e+02
2.560000e-06	-8.115914e-07	9.927170e-09	-5.834562e+00	6.462695e+02
2.570000e-06	-9.116088e-07	9.162351e-09	-6.553592e+00	5.973481e+02
2.580000e-06	-1.011322e-06	8.321064e-09	-7.270434e+00	5.435132e+02
2.590000e-06	-1.110763e-06	7.389599e-09	-7.985317e+00	4.832014e+02
2.600000e-06	-1.209827e-06	6.348542e-09	-8.697493e+00	4.147097e+02
2.610000e-06	-1.308476e-06	5.177930e-09	-9.406685e+00	3.364930e+02
2.620000e-06	-1.406704e-06	3.854772e-09	-1.011285e+01	2.475002e+02
2.630000e-06	-1.504426e-06	2.363757e-09	-1.081538e+01	1.474847e+02
2.640000e-06	-1.601571e-06	7.040533e-10	-1.151375e+01	3.721733e+01
2.650000e-06	-1.698244e-06	-1.107946e-09	-1.220874e+01	-8.144783e+01
2.660000e-06	-1.794498e-06	-3.029513e-09	-1.290071e+01	-2.056834e+02
2.670000e-06	-1.890171e-06	-4.996582e-09	-1.358852e+01	-3.319637e+02
2.680000e-06	-1.985042e-06	-6.929008e-09	-1.427054e+01	-4.564617e+02
2.690000e-06	-2.078956e-06	-8.758313e-09	-1.494570e+01	-5.754994e+02
2.700000e-06	-2.171942e-06	-1.043936e-08	-1.561418e+01	-6.859710e+02
2.710000e-06	-2.264098e-06	-1.194449e-08	-1.627669e+01	-7.856654e+02
2.720000e-06	-2.355445e-06	-1.326691e-08	-1.693338e+01	-8.734348e+02
2.730000e-06	-2.445981e-06	-1.441684e-08	-1.758426e+01	-9.491900e+02
2.740000e-06	-2.535667e-06	-1.541254e-08	-1.822901e+01	-1.013737e+03
2.750000e-06	-2.624475e-06	-1.627337e-08	-1.886746e+01	-1.068499e+03
2.760000e-06	-2.712485e-06	-1.701799e-08	-1.950016e+01	-1.115190e+03
2.770000e-06	-2.799707e-06	-1.766145e-08	-2.012720e+01	-1.155506e+03
2.780000e-06	-2.885853e-06	-1.821967e-08	-2.074651e+01	-1.190888e+03
2.790000e-06	-2.970780e-06	-1.870381e-08	-2.135705e+01	-1.222397e+03
2.800000e-06	-3.054673e-06	-1.912579e-08	-2.196017e+01	-1.250697e+03
2.810000e-06	-3.137556e-06	-1.949915e-08	-2.255601e+01	-1.276131e+03
2.820000e-06	-3.219348e-06	-1.983073e-08	-2.314402e+01	-1.298856e+03
2.830000e-06	-3.300104e-06	-2.012946e-08	-2.372458e+01	-1.318981e+03
2.840000e-06	-3.379892e-06	-2.040029e-08	-2.429818e+01	-1.336678e+03
2.850000e-06	-3.458340e-06	-2.064774e-08	-2.486215e+01	-1.352235e+03
2.860000e-06	-3.535160e-06	-2.087467e-08	-2.541441e+01	-1.366044e+03
2.870000e-06	-3.610552e-06	-2.108149e-08	-2.595640e+01	-1.378551e+03
2.880000e-06	-3.684581e-06	-2.126779e-08	-2.648860e+01	-1.390167e+03
2.890000e-06	-3.757301e-06	-2.143613e-08	-2.701139e+01	-1.401199e+03
2.900000e-06	-3.828812e-06	-2.159345e-08	-2.752548e+01	-1.411799e+03
2.910000e-06	-3.898796e-06	-2.174229e-08	-2.802860e+01	-1.421966e+03
2.920000e-06	-3.967167e-06	-2.188171e-08	-2.852012e+01	-1.431585e+03
2.930000e-06	-4.034190e-06	-2.201005e-08	-2.900195e+01	-1.440491e+03
2.940000e-06	-4.099859e-06	-2.212829e-08	-2.947405e+01	-1.448552e+03
