# Temperatura_=_84.24
# Concentracion g/m^3_=_41000.0
# C_Vs_to_Am_M_A/Vsm_=_65563218390.804596
# pendiente_HvsI_1/m_=_3716.3
# ordenada_HvsI_A/m_=_1297.0
# frecuencia_Hz_=_301585.55284766556

Tiempo_(s)	Campo_(V.s)	Magnetizacion_(V.s)	Campo_(kA/m)	Magnetizacion_(A/m)
0.000000e+00	-5.321401e-06	-2.230749e-08	-3.834397e+01	-1.457951e+03
1.000000e-08	-5.318547e-06	-2.229959e-08	-3.832341e+01	-1.457775e+03
2.000000e-08	-5.313960e-06	-2.228896e-08	-3.829035e+01	-1.457676e+03
3.000000e-08	-5.307838e-06	-2.228156e-08	-3.824624e+01	-1.457548e+03
4.000000e-08	-5.300175e-06	-2.227196e-08	-3.819103e+01	-1.457260e+03
5.000000e-08	-5.290626e-06	-2.225869e-08	-3.812222e+01	-1.456694e+03
6.000000e-08	-5.278953e-06	-2.223906e-08	-3.803811e+01	-1.455789e+03
7.000000e-08	-5.265453e-06	-2.220608e-08	-3.794084e+01	-1.454552e+03
8.000000e-08	-5.249908e-06	-2.223010e-08	-3.782882e+01	-1.453061e+03
9.000000e-08	-5.232042e-06	-2.227274e-08	-3.770009e+01	-1.451440e+03
1.000000e-07	-5.212102e-06	-2.221456e-08	-3.755640e+01	-1.449824e+03
1.100000e-07	-5.190313e-06	-2.216483e-08	-3.739940e+01	-1.448318e+03
1.200000e-07	-5.166983e-06	-2.209848e-08	-3.723129e+01	-1.446970e+03
1.300000e-07	-5.142348e-06	-2.196091e-08	-3.705378e+01	-1.445757e+03
1.400000e-07	-5.116084e-06	-2.210374e-08	-3.686453e+01	-1.444597e+03
1.500000e-07	-5.087990e-06	-2.211393e-08	-3.666210e+01	-1.443374e+03
1.600000e-07	-5.058446e-06	-2.193276e-08	-3.644922e+01	-1.441971e+03
1.700000e-07	-5.027407e-06	-2.208336e-08	-3.622556e+01	-1.440309e+03
1.800000e-07	-4.994264e-06	-2.199014e-08	-3.598675e+01	-1.438362e+03
1.900000e-07	-4.959253e-06	-2.179964e-08	-3.573448e+01	-1.436161e+03
2.000000e-07	-4.922781e-06	-2.192665e-08	-3.547167e+01	-1.433776e+03
2.100000e-07	-4.884592e-06	-2.183761e-08	-3.519650e+01	-1.431292e+03
2.200000e-07	-4.844695e-06	-2.172564e-08	-3.490902e+01	-1.428771e+03
2.300000e-07	-4.802878e-06	-2.176296e-08	-3.460769e+01	-1.426232e+03
2.400000e-07	-4.759060e-06	-2.169335e-08	-3.429196e+01	-1.423645e+03
2.500000e-07	-4.713511e-06	-2.169318e-08	-3.396375e+01	-1.420933e+03
2.600000e-07	-4.666173e-06	-2.162184e-08	-3.362265e+01	-1.418006e+03
2.700000e-07	-4.616802e-06	-2.151164e-08	-3.326690e+01	-1.414784e+03
2.800000e-07	-4.565285e-06	-2.148311e-08	-3.289569e+01	-1.411231e+03
2.900000e-07	-4.511915e-06	-2.144570e-08	-3.251113e+01	-1.407363e+03
3.000000e-07	-4.457021e-06	-2.141631e-08	-3.211558e+01	-1.403252e+03
3.100000e-07	-4.400495e-06	-2.133937e-08	-3.170827e+01	-1.399000e+03
3.200000e-07	-4.342163e-06	-2.125834e-08	-3.128796e+01	-1.394708e+03
3.300000e-07	-4.282204e-06	-2.119421e-08	-3.085592e+01	-1.390445e+03
3.400000e-07	-4.220833e-06	-2.110909e-08	-3.041370e+01	-1.386224e+03
3.500000e-07	-4.158107e-06	-2.104972e-08	-2.996172e+01	-1.381996e+03
3.600000e-07	-4.093959e-06	-2.099090e-08	-2.949950e+01	-1.377666e+03
3.700000e-07	-4.028190e-06	-2.093210e-08	-2.902559e+01	-1.373121e+03
3.800000e-07	-3.960777e-06	-2.083693e-08	-2.853984e+01	-1.368262e+03
3.900000e-07	-3.891925e-06	-2.072516e-08	-2.804372e+01	-1.363044e+03
4.000000e-07	-3.821827e-06	-2.066993e-08	-2.753862e+01	-1.357484e+03
4.100000e-07	-3.750636e-06	-2.059041e-08	-2.702564e+01	-1.351659e+03
4.200000e-07	-3.678210e-06	-2.050603e-08	-2.650377e+01	-1.345681e+03
4.300000e-07	-3.604239e-06	-2.041615e-08	-2.597076e+01	-1.339663e+03
4.400000e-07	-3.528618e-06	-2.032686e-08	-2.542587e+01	-1.333678e+03
4.500000e-07	-3.451568e-06	-2.023696e-08	-2.487067e+01	-1.327735e+03
4.600000e-07	-3.373178e-06	-2.013506e-08	-2.430583e+01	-1.321769e+03
4.700000e-07	-3.293489e-06	-2.003863e-08	-2.373161e+01	-1.315659e+03
4.800000e-07	-3.212530e-06	-1.992757e-08	-2.314826e+01	-1.309265e+03
4.900000e-07	-3.130389e-06	-1.982096e-08	-2.255638e+01	-1.302465e+03
5.000000e-07	-3.047257e-06	-1.971027e-08	-2.195736e+01	-1.295195e+03
5.100000e-07	-2.963259e-06	-1.959142e-08	-2.135211e+01	-1.287470e+03
5.200000e-07	-2.878454e-06	-1.946718e-08	-2.074103e+01	-1.279376e+03
5.300000e-07	-2.792727e-06	-1.934696e-08	-2.012332e+01	-1.271047e+03
5.400000e-07	-2.706104e-06	-1.922959e-08	-1.949915e+01	-1.262615e+03
5.500000e-07	-2.618587e-06	-1.910580e-08	-1.886853e+01	-1.254171e+03
5.600000e-07	-2.530009e-06	-1.897521e-08	-1.823027e+01	-1.245724e+03
5.700000e-07	-2.440255e-06	-1.883414e-08	-1.758354e+01	-1.237197e+03
5.800000e-07	-2.349411e-06	-1.868358e-08	-1.692895e+01	-1.228442e+03
5.900000e-07	-2.257737e-06	-1.852693e-08	-1.626839e+01	-1.219277e+03
6.000000e-07	-2.165369e-06	-1.837250e-08	-1.560282e+01	-1.209543e+03
6.100000e-07	-2.072214e-06	-1.821861e-08	-1.493158e+01	-1.199149e+03
6.200000e-07	-1.978269e-06	-1.805884e-08	-1.425465e+01	-1.188098e+03
6.300000e-07	-1.883665e-06	-1.788776e-08	-1.357297e+01	-1.176487e+03
6.400000e-07	-1.788492e-06	-1.770959e-08	-1.288719e+01	-1.164470e+03
6.500000e-07	-1.692694e-06	-1.752669e-08	-1.219690e+01	-1.152209e+03
6.600000e-07	-1.596233e-06	-1.733845e-08	-1.150184e+01	-1.139813e+03
6.700000e-07	-1.499099e-06	-1.714402e-08	-1.080193e+01	-1.127292e+03
6.800000e-07	-1.401305e-06	-1.694028e-08	-1.009727e+01	-1.114541e+03
6.900000e-07	-1.302887e-06	-1.672739e-08	-9.388100e+00	-1.101361e+03
7.000000e-07	-1.203979e-06	-1.650447e-08	-8.675410e+00	-1.087505e+03
7.100000e-07	-1.104694e-06	-1.627321e-08	-7.960001e+00	-1.072747e+03
7.200000e-07	-1.005061e-06	-1.603322e-08	-7.242082e+00	-1.056946e+03
7.300000e-07	-9.051921e-07	-1.578745e-08	-6.522467e+00	-1.040079e+03
7.400000e-07	-8.050987e-07	-1.553291e-08	-5.801232e+00	-1.022243e+03
7.500000e-07	-7.047569e-07	-1.526508e-08	-5.078208e+00	-1.003611e+03
7.600000e-07	-6.041916e-07	-1.497786e-08	-4.353573e+00	-9.843568e+02
7.700000e-07	-5.034626e-07	-1.467051e-08	-3.627758e+00	-9.645722e+02
7.800000e-07	-4.026031e-07	-1.434796e-08	-2.901003e+00	-9.441980e+02
7.900000e-07	-3.016499e-07	-1.400881e-08	-2.173573e+00	-9.229974e+02
8.000000e-07	-2.005665e-07	-1.365310e-08	-1.445205e+00	-9.005803e+02
8.100000e-07	-9.932029e-08	-1.327616e-08	-7.156639e-01	-8.764761e+02
8.200000e-07	2.018281e-09	-1.287413e-08	1.454296e-02	-8.502353e+02
8.300000e-07	1.033646e-07	-1.244372e-08	7.448054e-01	-8.215272e+02
8.400000e-07	2.046597e-07	-1.198142e-08	1.474699e+00	-7.901996e+02
8.500000e-07	3.058971e-07	-1.148168e-08	2.204177e+00	-7.562724e+02
8.600000e-07	4.070351e-07	-1.093954e-08	2.932938e+00	-7.198545e+02
8.700000e-07	5.080148e-07	-1.035282e-08	3.660559e+00	-6.809964e+02
8.800000e-07	6.088308e-07	-9.714009e-09	4.387001e+00	-6.395121e+02
8.900000e-07	7.094786e-07	-9.012206e-09	5.112230e+00	-5.948201e+02
9.000000e-07	8.099113e-07	-8.237358e-09	5.835910e+00	-5.458570e+02
9.100000e-07	9.101110e-07	-7.377518e-09	6.557911e+00	-4.911058e+02
9.200000e-07	1.010084e-06	-6.413704e-09	7.278279e+00	-4.287587e+02
9.300000e-07	1.109775e-06	-5.323914e-09	7.996614e+00	-3.570009e+02
9.400000e-07	1.209150e-06	-4.084810e-09	8.712673e+00	-2.743720e+02
9.500000e-07	1.308098e-06	-2.674667e-09	9.425654e+00	-1.801366e+02
9.600000e-07	1.406521e-06	-1.083382e-09	1.013485e+01	-7.458470e+01
9.700000e-07	1.504253e-06	6.779520e-10	1.083907e+01	4.080854e+01
9.800000e-07	1.601176e-06	2.569937e-09	1.153746e+01	1.634105e+02
9.900000e-07	1.697342e-06	4.529617e-09	1.223040e+01	2.896554e+02
1.000000e-06	1.792844e-06	6.478410e-09	1.291855e+01	4.154355e+02
1.010000e-06	1.887787e-06	8.336339e-09	1.360267e+01	5.365915e+02
1.020000e-06	1.982141e-06	1.003870e-08	1.428255e+01	6.494172e+02
1.030000e-06	2.075794e-06	1.154715e-08	1.495737e+01	7.510847e+02
1.040000e-06	2.168687e-06	1.285167e-08	1.562673e+01	8.399197e+02
1.050000e-06	2.260904e-06	1.396239e-08	1.629121e+01	9.154814e+02
1.060000e-06	2.352522e-06	1.490002e-08	1.695137e+01	9.784480e+02
1.070000e-06	2.443389e-06	1.568927e-08	1.760613e+01	1.030342e+03
1.080000e-06	2.533121e-06	1.635499e-08	1.825270e+01	1.073163e+03
1.090000e-06	2.621584e-06	1.692174e-08	1.889013e+01	1.109006e+03
1.100000e-06	2.709065e-06	1.740719e-08	1.952048e+01	1.139739e+03
1.110000e-06	2.795767e-06	1.782422e-08	2.014522e+01	1.166795e+03
1.120000e-06	2.881602e-06	1.818409e-08	2.076372e+01	1.191095e+03
1.130000e-06	2.966464e-06	1.849904e-08	2.137520e+01	1.213100e+03
1.140000e-06	3.050395e-06	1.877906e-08	2.197998e+01	1.232952e+03
1.150000e-06	3.133426e-06	1.903079e-08	2.257826e+01	1.250650e+03
1.160000e-06	3.215355e-06	1.925964e-08	2.316862e+01	1.266208e+03
1.170000e-06	3.296053e-06	1.947024e-08	2.375009e+01	1.279768e+03
1.180000e-06	3.375558e-06	1.966371e-08	2.432297e+01	1.291625e+03
1.190000e-06	3.453832e-06	1.983878e-08	2.488699e+01	1.302194e+03
1.200000e-06	3.530868e-06	1.999773e-08	2.544208e+01	1.311922e+03
1.210000e-06	3.606661e-06	2.014659e-08	2.598822e+01	1.321194e+03
1.220000e-06	3.681065e-06	2.028743e-08	2.652434e+01	1.330247e+03
1.230000e-06	3.753857e-06	2.041790e-08	2.704885e+01	1.339145e+03
1.240000e-06	3.825175e-06	2.053899e-08	2.756274e+01	1.347792e+03
1.250000e-06	3.895181e-06	2.065049e-08	2.806718e+01	1.355995e+03
1.260000e-06	3.963883e-06	2.075328e-08	2.856222e+01	1.363549e+03
1.270000e-06	4.031334e-06	2.084860e-08	2.904824e+01	1.370315e+03
1.280000e-06	4.097207e-06	2.094008e-08	2.952290e+01	1.376277e+03
1.290000e-06	4.161330e-06	2.102882e-08	2.998495e+01	1.381549e+03
1.300000e-06	4.223938e-06	2.111493e-08	3.043608e+01	1.386345e+03
1.310000e-06	4.285154e-06	2.119624e-08	3.087717e+01	1.390921e+03
1.320000e-06	4.345079e-06	2.127173e-08	3.130897e+01	1.395496e+03
1.330000e-06	4.403623e-06	2.134305e-08	3.173081e+01	1.400200e+03
1.340000e-06	4.460337e-06	2.141025e-08	3.213948e+01	1.405045e+03
1.350000e-06	4.515277e-06	2.147407e-08	3.253536e+01	1.409924e+03
1.360000e-06	4.568673e-06	2.153566e-08	3.292010e+01	1.414664e+03
1.370000e-06	4.620280e-06	2.159580e-08	3.329197e+01	1.419075e+03
1.380000e-06	4.669826e-06	2.165229e-08	3.364897e+01	1.423018e+03
1.390000e-06	4.717479e-06	2.170544e-08	3.399234e+01	1.426443e+03
1.400000e-06	4.763538e-06	2.175562e-08	3.432423e+01	1.429401e+03
1.410000e-06	4.808038e-06	2.180304e-08	3.464487e+01	1.432029e+03
1.420000e-06	4.850961e-06	2.184820e-08	3.495416e+01	1.434498e+03
1.430000e-06	4.892028e-06	2.189079e-08	3.525007e+01	1.436966e+03
1.440000e-06	4.931248e-06	2.192913e-08	3.553268e+01	1.439528e+03
1.450000e-06	4.968835e-06	2.196360e-08	3.580351e+01	1.442189e+03
1.460000e-06	5.004836e-06	2.199551e-08	3.606293e+01	1.444870e+03
1.470000e-06	5.039124e-06	2.202381e-08	3.630999e+01	1.447434e+03
1.480000e-06	5.071499e-06	2.205070e-08	3.654328e+01	1.449735e+03
1.490000e-06	5.102117e-06	2.207581e-08	3.676390e+01	1.451667e+03
1.500000e-06	5.131097e-06	2.210061e-08	3.697272e+01	1.453193e+03
1.510000e-06	5.158398e-06	2.212582e-08	3.716943e+01	1.454364e+03
1.520000e-06	5.183688e-06	2.214919e-08	3.735167e+01	1.455296e+03
1.530000e-06	5.206863e-06	2.217009e-08	3.751866e+01	1.456139e+03
1.540000e-06	5.228226e-06	2.218719e-08	3.767259e+01	1.457029e+03
1.550000e-06	5.247980e-06	2.220186e-08	3.781493e+01	1.458044e+03
1.560000e-06	5.265910e-06	2.221518e-08	3.794412e+01	1.459188e+03
1.570000e-06	5.281799e-06	2.222648e-08	3.805862e+01	1.460386e+03
1.580000e-06	5.295777e-06	2.223725e-08	3.815933e+01	1.461509e+03
1.590000e-06	5.307785e-06	2.224657e-08	3.824586e+01	1.462420e+03
1.600000e-06	5.317605e-06	2.225306e-08	3.831662e+01	1.463012e+03
1.610000e-06	5.325281e-06	2.225968e-08	3.837193e+01	1.463241e+03
1.620000e-06	5.331068e-06	2.226741e-08	3.841363e+01	1.463142e+03
1.630000e-06	5.335168e-06	2.227338e-08	3.844317e+01	1.462815e+03
1.640000e-06	5.337349e-06	2.227622e-08	3.845888e+01	1.462394e+03
1.650000e-06	5.337503e-06	2.227540e-08	3.846000e+01	1.462007e+03
1.660000e-06	5.335967e-06	2.226595e-08	3.844893e+01	1.461731e+03
1.670000e-06	5.332800e-06	2.225992e-08	3.842611e+01	1.461577e+03
1.680000e-06	5.327922e-06	2.225496e-08	3.839096e+01	1.461482e+03
1.690000e-06	5.321164e-06	2.224855e-08	3.834227e+01	1.461331e+03
1.700000e-06	5.312649e-06	2.224301e-08	3.828091e+01	1.460990e+03
1.710000e-06	5.302593e-06	2.223892e-08	3.820845e+01	1.460354e+03
1.720000e-06	5.290895e-06	2.225090e-08	3.812416e+01	1.459374e+03
1.730000e-06	5.277282e-06	2.221570e-08	3.802607e+01	1.458073e+03
1.740000e-06	5.261518e-06	2.210933e-08	3.791248e+01	1.456542e+03
1.750000e-06	5.243442e-06	2.211312e-08	3.778223e+01	1.454911e+03
1.760000e-06	5.222809e-06	2.211929e-08	3.763355e+01	1.453310e+03
1.770000e-06	5.199859e-06	2.216793e-08	3.746819e+01	1.451836e+03
1.780000e-06	5.175588e-06	2.224441e-08	3.729330e+01	1.450520e+03
1.790000e-06	5.150612e-06	2.200729e-08	3.711333e+01	1.449327e+03
1.800000e-06	5.124248e-06	2.203917e-08	3.692336e+01	1.448163e+03
1.810000e-06	5.095816e-06	2.212576e-08	3.671849e+01	1.446909e+03
1.820000e-06	5.065704e-06	2.186895e-08	3.650152e+01	1.445456e+03
1.830000e-06	5.033830e-06	2.201378e-08	3.627185e+01	1.443732e+03
1.840000e-06	4.999972e-06	2.208017e-08	3.602788e+01	1.441725e+03
1.850000e-06	4.964510e-06	2.182881e-08	3.577235e+01	1.439477e+03
1.860000e-06	4.927120e-06	2.195583e-08	3.550293e+01	1.437063e+03
1.870000e-06	4.887785e-06	2.192440e-08	3.521950e+01	1.434566e+03
1.880000e-06	4.846893e-06	2.181460e-08	3.492485e+01	1.432041e+03
1.890000e-06	4.804232e-06	2.185692e-08	3.461745e+01	1.429496e+03
1.900000e-06	4.759933e-06	2.165133e-08	3.429825e+01	1.426888e+03
1.910000e-06	4.713884e-06	2.172943e-08	3.396644e+01	1.424138e+03
1.920000e-06	4.665997e-06	2.176486e-08	3.362138e+01	1.421152e+03
1.930000e-06	4.616504e-06	2.158085e-08	3.326475e+01	1.417860e+03
1.940000e-06	4.565111e-06	2.157297e-08	3.289444e+01	1.414235e+03
1.950000e-06	4.511730e-06	2.145246e-08	3.250980e+01	1.410307e+03
1.960000e-06	4.456525e-06	2.145193e-08	3.211201e+01	1.406156e+03
1.970000e-06	4.399588e-06	2.140006e-08	3.170174e+01	1.401886e+03
1.980000e-06	4.341146e-06	2.127293e-08	3.128063e+01	1.397596e+03
1.990000e-06	4.281370e-06	2.132780e-08	3.084991e+01	1.393342e+03
2.000000e-06	4.220147e-06	2.119414e-08	3.040876e+01	1.389125e+03
2.010000e-06	4.157153e-06	2.110569e-08	2.995485e+01	1.384884e+03
2.020000e-06	4.092498e-06	2.103753e-08	2.948897e+01	1.380517e+03
2.030000e-06	4.026474e-06	2.097149e-08	2.901323e+01	1.375910e+03
2.040000e-06	3.959072e-06	2.095650e-08	2.852756e+01	1.370976e+03
2.050000e-06	3.890300e-06	2.080248e-08	2.803201e+01	1.365680e+03
2.060000e-06	3.819975e-06	2.075346e-08	2.752527e+01	1.360054e+03
2.070000e-06	3.748147e-06	2.067586e-08	2.700771e+01	1.354185e+03
2.080000e-06	3.675109e-06	2.057333e-08	2.648142e+01	1.348190e+03
2.090000e-06	3.600806e-06	2.049038e-08	2.594602e+01	1.342174e+03
2.100000e-06	3.525106e-06	2.037430e-08	2.540056e+01	1.336199e+03
2.110000e-06	3.447929e-06	2.031612e-08	2.484445e+01	1.330258e+03
2.120000e-06	3.369384e-06	2.020778e-08	2.427849e+01	1.324271e+03
2.130000e-06	3.289587e-06	2.011484e-08	2.370350e+01	1.318112e+03
2.140000e-06	3.208603e-06	2.000529e-08	2.311996e+01	1.311639e+03
2.150000e-06	3.126449e-06	1.989409e-08	2.252799e+01	1.304740e+03
2.160000e-06	3.043212e-06	1.980305e-08	2.192822e+01	1.297368e+03
2.170000e-06	2.959113e-06	1.968439e-08	2.132223e+01	1.289554e+03
2.180000e-06	2.873849e-06	1.957131e-08	2.070786e+01	1.281397e+03
2.190000e-06	2.787260e-06	1.944077e-08	2.008392e+01	1.273035e+03
2.200000e-06	2.699607e-06	1.931630e-08	1.945233e+01	1.264595e+03
2.210000e-06	2.611028e-06	1.918155e-08	1.881407e+01	1.256151e+03
2.220000e-06	2.521549e-06	1.905288e-08	1.816931e+01	1.247696e+03
2.230000e-06	2.431184e-06	1.892952e-08	1.751818e+01	1.239134e+03
2.240000e-06	2.340093e-06	1.879270e-08	1.686181e+01	1.230305e+03
2.250000e-06	2.248339e-06	1.864518e-08	1.620067e+01	1.221029e+03
2.260000e-06	2.155846e-06	1.848663e-08	1.553420e+01	1.211158e+03
2.270000e-06	2.062428e-06	1.833266e-08	1.486107e+01	1.200619e+03
2.280000e-06	1.968068e-06	1.817193e-08	1.418114e+01	1.189437e+03
2.290000e-06	1.872926e-06	1.800325e-08	1.349559e+01	1.177723e+03
2.300000e-06	1.777066e-06	1.782748e-08	1.280485e+01	1.165641e+03
2.310000e-06	1.680673e-06	1.764662e-08	1.211029e+01	1.153344e+03
2.320000e-06	1.583838e-06	1.745867e-08	1.141253e+01	1.140923e+03
2.330000e-06	1.486496e-06	1.725989e-08	1.071112e+01	1.128364e+03
2.340000e-06	1.388639e-06	1.705169e-08	1.000600e+01	1.115540e+03
2.350000e-06	1.290302e-06	1.683841e-08	9.297421e+00	1.102236e+03
2.360000e-06	1.191593e-06	1.662303e-08	8.586159e+00	1.088203e+03
2.370000e-06	1.092609e-06	1.639618e-08	7.872922e+00	1.073229e+03
2.380000e-06	9.933201e-07	1.615431e-08	7.157483e+00	1.057196e+03
2.390000e-06	8.937454e-07	1.589935e-08	6.439986e+00	1.040109e+03
2.400000e-06	7.939026e-07	1.563307e-08	5.720557e+00	1.022086e+03
2.410000e-06	6.938152e-07	1.535634e-08	4.999366e+00	1.003307e+03
2.420000e-06	5.935627e-07	1.506747e-08	4.276985e+00	9.839351e+02
2.430000e-06	4.931290e-07	1.476576e-08	3.553299e+00	9.640344e+02
2.440000e-06	3.925470e-07	1.444727e-08	2.828543e+00	9.435083e+02
2.450000e-06	2.918366e-07	1.410509e-08	2.102862e+00	9.220832e+02
2.460000e-06	1.909572e-07	1.373986e-08	1.375964e+00	8.993444e+02
2.470000e-06	8.994300e-08	1.335492e-08	6.480948e-01	8.748169e+02
2.480000e-06	-1.121176e-08	1.294838e-08	-8.078763e-02	8.480689e+02
2.490000e-06	-1.123944e-07	1.251272e-08	-8.098709e-01	8.188051e+02
2.500000e-06	-2.134038e-07	1.204330e-08	-1.537706e+00	7.869133e+02
2.510000e-06	-3.143172e-07	1.153805e-08	-2.264849e+00	7.524418e+02
2.520000e-06	-4.151481e-07	1.099109e-08	-2.991398e+00	7.155014e+02
2.530000e-06	-5.158263e-07	1.039653e-08	-3.716847e+00	6.761069e+02
2.540000e-06	-6.163613e-07	9.745757e-09	-4.441263e+00	6.339993e+02
2.550000e-06	-7.167129e-07	9.029479e-09	-5.164358e+00	5.884976e+02
2.560000e-06	-8.168275e-07	8.239345e-09	-5.885746e+00	5.384344e+02
2.570000e-06	-9.166919e-07	7.363623e-09	-6.605330e+00	4.822123e+02
2.580000e-06	-1.016298e-06	6.381589e-09	-7.323051e+00	4.179944e+02
2.590000e-06	-1.115479e-06	5.269787e-09	-8.037711e+00	3.440100e+02
2.600000e-06	-1.214218e-06	4.006703e-09	-8.749186e+00	2.589240e+02
2.610000e-06	-1.312717e-06	2.575571e-09	-9.458937e+00	1.621994e+02
2.620000e-06	-1.410809e-06	9.661102e-10	-1.016575e+01	5.437260e+01
2.630000e-06	-1.508302e-06	-8.127406e-10	-1.086824e+01	-6.282418e+01
2.640000e-06	-1.605247e-06	-2.722044e-09	-1.156679e+01	-1.865330e+02
2.650000e-06	-1.701670e-06	-4.696042e-09	-1.226158e+01	-3.130344e+02
2.660000e-06	-1.797649e-06	-6.652169e-09	-1.295317e+01	-4.381665e+02
2.670000e-06	-1.893101e-06	-8.507764e-09	-1.364096e+01	-5.578259e+02
2.680000e-06	-1.987730e-06	-1.019717e-08	-1.432282e+01	-6.684629e+02
2.690000e-06	-2.081360e-06	-1.168953e-08	-1.499748e+01	-7.674801e+02
2.700000e-06	-2.174057e-06	-1.297925e-08	-1.566542e+01	-8.534675e+02
2.710000e-06	-2.265932e-06	-1.407680e-08	-1.632743e+01	-9.262401e+02
2.720000e-06	-2.357072e-06	-1.500245e-08	-1.698415e+01	-9.866843e+02
2.730000e-06	-2.447434e-06	-1.578312e-08	-1.763527e+01	-1.036458e+03
2.740000e-06	-2.536858e-06	-1.644440e-08	-1.827963e+01	-1.077611e+03
2.750000e-06	-2.625403e-06	-1.700576e-08	-1.891764e+01	-1.112215e+03
2.760000e-06	-2.713259e-06	-1.748435e-08	-1.955070e+01	-1.142058e+03
2.770000e-06	-2.800266e-06	-1.789565e-08	-2.017764e+01	-1.168464e+03
2.780000e-06	-2.886047e-06	-1.825362e-08	-2.079575e+01	-1.192247e+03
2.790000e-06	-2.970584e-06	-1.856776e-08	-2.140489e+01	-1.213787e+03
2.800000e-06	-3.054121e-06	-1.884566e-08	-2.200682e+01	-1.233180e+03
2.810000e-06	-3.136714e-06	-1.909322e-08	-2.260196e+01	-1.250415e+03
2.820000e-06	-3.218270e-06	-1.931673e-08	-2.318962e+01	-1.265529e+03
2.830000e-06	-3.298802e-06	-1.952253e-08	-2.376990e+01	-1.278694e+03
2.840000e-06	-3.378282e-06	-1.971206e-08	-2.434260e+01	-1.290239e+03
2.850000e-06	-3.456352e-06	-1.988669e-08	-2.490515e+01	-1.300591e+03
2.860000e-06	-3.532838e-06	-2.004727e-08	-2.545628e+01	-1.310194e+03
2.870000e-06	-3.607935e-06	-2.019520e-08	-2.599739e+01	-1.319405e+03
2.880000e-06	-3.681700e-06	-2.033137e-08	-2.652892e+01	-1.328427e+03
2.890000e-06	-3.754143e-06	-2.045773e-08	-2.705091e+01	-1.337285e+03
2.900000e-06	-3.825327e-06	-2.057737e-08	-2.756384e+01	-1.345855e+03
2.910000e-06	-3.895005e-06	-2.069211e-08	-2.806591e+01	-1.353936e+03
2.920000e-06	-3.963110e-06	-2.080058e-08	-2.855665e+01	-1.361330e+03
2.930000e-06	-4.029850e-06	-2.090026e-08	-2.903755e+01	-1.367921e+03
2.940000e-06	-4.095242e-06	-2.099273e-08	-2.950874e+01	-1.373722e+03
