# Temperatura_=_88.91
# Concentracion g/m^3_=_26700.0
# C_Vs_to_Am_M_A/Vsm_=_65563218390.804596
# pendiente_HvsI_1/m_=_3716.3
# ordenada_HvsI_A/m_=_1297.0
# frecuencia_Hz_=_302189.80905918154

Tiempo_(s)	Campo_(V.s)	Magnetizacion_(V.s)	Campo_(kA/m)	Magnetizacion_(A/m)
0.000000e+00	-6.656437e-06	-2.675528e-08	-4.770517e+01	-1.750642e+03
1.000000e-08	-6.653949e-06	-2.675326e-08	-4.768734e+01	-1.750476e+03
2.000000e-08	-6.649195e-06	-2.674745e-08	-4.765327e+01	-1.750132e+03
3.000000e-08	-6.642378e-06	-2.673895e-08	-4.760441e+01	-1.749603e+03
4.000000e-08	-6.633480e-06	-2.672577e-08	-4.754064e+01	-1.748890e+03
5.000000e-08	-6.622208e-06	-2.670923e-08	-4.745986e+01	-1.747999e+03
6.000000e-08	-6.608424e-06	-2.669129e-08	-4.736107e+01	-1.746941e+03
7.000000e-08	-6.592270e-06	-2.667011e-08	-4.724530e+01	-1.745732e+03
8.000000e-08	-6.573940e-06	-2.665314e-08	-4.711393e+01	-1.744386e+03
9.000000e-08	-6.553484e-06	-2.667135e-08	-4.696733e+01	-1.742921e+03
1.000000e-07	-6.530545e-06	-2.665092e-08	-4.680293e+01	-1.741354e+03
1.100000e-07	-6.504849e-06	-2.659833e-08	-4.661877e+01	-1.739702e+03
1.200000e-07	-6.476617e-06	-2.656023e-08	-4.641644e+01	-1.737978e+03
1.300000e-07	-6.446347e-06	-2.651841e-08	-4.619950e+01	-1.736195e+03
1.400000e-07	-6.414345e-06	-2.644560e-08	-4.597015e+01	-1.734359e+03
1.500000e-07	-6.380479e-06	-2.645268e-08	-4.572744e+01	-1.732469e+03
1.600000e-07	-6.344578e-06	-2.646141e-08	-4.547015e+01	-1.730511e+03
1.700000e-07	-6.306728e-06	-2.635772e-08	-4.519889e+01	-1.728463e+03
1.800000e-07	-6.266853e-06	-2.635394e-08	-4.491311e+01	-1.726290e+03
1.900000e-07	-6.224532e-06	-2.630413e-08	-4.460980e+01	-1.723955e+03
2.000000e-07	-6.179801e-06	-2.623652e-08	-4.428923e+01	-1.721415e+03
2.100000e-07	-6.132930e-06	-2.622814e-08	-4.395332e+01	-1.718637e+03
2.200000e-07	-6.083528e-06	-2.615532e-08	-4.359926e+01	-1.715599e+03
2.300000e-07	-6.031498e-06	-2.611622e-08	-4.322637e+01	-1.712297e+03
2.400000e-07	-5.977100e-06	-2.606683e-08	-4.283651e+01	-1.708743e+03
2.500000e-07	-5.920394e-06	-2.599423e-08	-4.243012e+01	-1.704964e+03
2.600000e-07	-5.861424e-06	-2.594638e-08	-4.200749e+01	-1.700999e+03
2.700000e-07	-5.800313e-06	-2.587976e-08	-4.156952e+01	-1.696885e+03
2.800000e-07	-5.737210e-06	-2.581935e-08	-4.111728e+01	-1.692654e+03
2.900000e-07	-5.672003e-06	-2.575380e-08	-4.064995e+01	-1.688323e+03
3.000000e-07	-5.604561e-06	-2.569101e-08	-4.016661e+01	-1.683892e+03
3.100000e-07	-5.534940e-06	-2.561587e-08	-3.966766e+01	-1.679346e+03
3.200000e-07	-5.463305e-06	-2.552845e-08	-3.915427e+01	-1.674657e+03
3.300000e-07	-5.389635e-06	-2.545938e-08	-3.862628e+01	-1.669793e+03
3.400000e-07	-5.313795e-06	-2.537549e-08	-3.808276e+01	-1.664728e+03
3.500000e-07	-5.235782e-06	-2.530626e-08	-3.752366e+01	-1.659443e+03
3.600000e-07	-5.155604e-06	-2.523008e-08	-3.694904e+01	-1.653935e+03
3.700000e-07	-5.073525e-06	-2.513790e-08	-3.636080e+01	-1.648213e+03
3.800000e-07	-4.989834e-06	-2.504874e-08	-3.576100e+01	-1.642297e+03
3.900000e-07	-4.904534e-06	-2.494682e-08	-3.514968e+01	-1.636209e+03
4.000000e-07	-4.817624e-06	-2.484903e-08	-3.452682e+01	-1.629968e+03
4.100000e-07	-4.729127e-06	-2.475300e-08	-3.389258e+01	-1.623584e+03
4.200000e-07	-4.638955e-06	-2.465573e-08	-3.324633e+01	-1.617054e+03
4.300000e-07	-4.547134e-06	-2.455011e-08	-3.258827e+01	-1.610368e+03
4.400000e-07	-4.453775e-06	-2.444172e-08	-3.191919e+01	-1.603504e+03
4.500000e-07	-4.358833e-06	-2.433755e-08	-3.123876e+01	-1.596441e+03
4.600000e-07	-4.262299e-06	-2.422367e-08	-3.054693e+01	-1.589160e+03
4.700000e-07	-4.164115e-06	-2.410997e-08	-2.984326e+01	-1.581650e+03
4.800000e-07	-4.064389e-06	-2.399274e-08	-2.912855e+01	-1.573908e+03
4.900000e-07	-3.963300e-06	-2.387402e-08	-2.840407e+01	-1.565937e+03
5.000000e-07	-3.860837e-06	-2.374733e-08	-2.766974e+01	-1.557742e+03
5.100000e-07	-3.757015e-06	-2.361395e-08	-2.692567e+01	-1.549326e+03
5.200000e-07	-3.651886e-06	-2.347966e-08	-2.617224e+01	-1.540687e+03
5.300000e-07	-3.545313e-06	-2.333996e-08	-2.540845e+01	-1.531813e+03
5.400000e-07	-3.437328e-06	-2.319906e-08	-2.463455e+01	-1.522688e+03
5.500000e-07	-3.328148e-06	-2.305507e-08	-2.385208e+01	-1.513289e+03
5.600000e-07	-3.217793e-06	-2.290788e-08	-2.306119e+01	-1.503598e+03
5.700000e-07	-3.106184e-06	-2.275268e-08	-2.226132e+01	-1.493597e+03
5.800000e-07	-2.993369e-06	-2.259315e-08	-2.145279e+01	-1.483282e+03
5.900000e-07	-2.879279e-06	-2.242943e-08	-2.063513e+01	-1.472653e+03
6.000000e-07	-2.763822e-06	-2.226139e-08	-1.980768e+01	-1.461718e+03
6.100000e-07	-2.647270e-06	-2.208932e-08	-1.897238e+01	-1.450484e+03
6.200000e-07	-2.529792e-06	-2.191204e-08	-1.813044e+01	-1.438956e+03
6.300000e-07	-2.411472e-06	-2.172819e-08	-1.728247e+01	-1.427127e+03
6.400000e-07	-2.292293e-06	-2.153884e-08	-1.642834e+01	-1.414982e+03
6.500000e-07	-2.172210e-06	-2.134752e-08	-1.556773e+01	-1.402497e+03
6.600000e-07	-2.051381e-06	-2.115168e-08	-1.470178e+01	-1.389640e+03
6.700000e-07	-1.929939e-06	-2.095112e-08	-1.383143e+01	-1.376382e+03
6.800000e-07	-1.807730e-06	-2.074321e-08	-1.295559e+01	-1.362697e+03
6.900000e-07	-1.684668e-06	-2.052698e-08	-1.207364e+01	-1.348568e+03
7.000000e-07	-1.560952e-06	-2.030206e-08	-1.118699e+01	-1.333987e+03
7.100000e-07	-1.436772e-06	-2.006943e-08	-1.029702e+01	-1.318950e+03
7.200000e-07	-1.312181e-06	-1.983209e-08	-9.404100e+00	-1.303454e+03
7.300000e-07	-1.187215e-06	-1.958975e-08	-8.508503e+00	-1.287489e+03
7.400000e-07	-1.061935e-06	-1.934148e-08	-7.610648e+00	-1.271033e+03
7.500000e-07	-9.363557e-07	-1.908439e-08	-6.710648e+00	-1.254052e+03
7.600000e-07	-8.104781e-07	-1.881985e-08	-5.808512e+00	-1.236499e+03
7.700000e-07	-6.843855e-07	-1.854436e-08	-4.904835e+00	-1.218318e+03
7.800000e-07	-5.581191e-07	-1.825440e-08	-3.999912e+00	-1.199454e+03
7.900000e-07	-4.316607e-07	-1.795239e-08	-3.093614e+00	-1.179856e+03
8.000000e-07	-3.050448e-07	-1.763927e-08	-2.186187e+00	-1.159479e+03
8.100000e-07	-1.783346e-07	-1.731489e-08	-1.278084e+00	-1.138285e+03
8.200000e-07	-5.155669e-08	-1.697851e-08	-3.694950e-01	-1.116234e+03
8.300000e-07	7.530864e-08	-1.662894e-08	5.397199e-01	-1.093278e+03
8.400000e-07	2.022156e-07	-1.626449e-08	1.449233e+00	-1.069349e+03
8.500000e-07	3.290771e-07	-1.588368e-08	2.358421e+00	-1.044350e+03
8.600000e-07	4.558016e-07	-1.548301e-08	3.266627e+00	-1.018156e+03
8.700000e-07	5.824199e-07	-1.506273e-08	4.174071e+00	-9.906089e+02
8.800000e-07	7.089172e-07	-1.461910e-08	5.080648e+00	-9.615302e+02
8.900000e-07	8.352165e-07	-1.414796e-08	5.985807e+00	-9.307260e+02
9.000000e-07	9.612275e-07	-1.364784e-08	6.888898e+00	-8.979953e+02
9.100000e-07	1.086911e-06	-1.311518e-08	7.789642e+00	-8.631320e+02
9.200000e-07	1.212283e-06	-1.254895e-08	8.688156e+00	-8.259185e+02
9.300000e-07	1.337282e-06	-1.194484e-08	9.583997e+00	-7.861126e+02
9.400000e-07	1.461861e-06	-1.129810e-08	1.047682e+01	-7.434281e+02
9.500000e-07	1.585982e-06	-1.060012e-08	1.136637e+01	-6.975165e+02
9.600000e-07	1.709505e-06	-9.841628e-09	1.225163e+01	-6.479554e+02
9.700000e-07	1.832283e-06	-9.016708e-09	1.313156e+01	-5.942523e+02
9.800000e-07	1.954333e-06	-8.121643e-09	1.400626e+01	-5.358688e+02
9.900000e-07	2.075657e-06	-7.147773e-09	1.487576e+01	-4.722658e+02
1.000000e-06	2.196194e-06	-6.086421e-09	1.573963e+01	-4.029698e+02
1.010000e-06	2.315797e-06	-4.935542e-09	1.659679e+01	-3.276498e+02
1.020000e-06	2.434482e-06	-3.691866e-09	1.744738e+01	-2.461954e+02
1.030000e-06	2.552318e-06	-2.358351e-09	1.829189e+01	-1.587815e+02
1.040000e-06	2.669242e-06	-9.400414e-10	1.912985e+01	-6.590897e+01
1.050000e-06	2.785081e-06	5.482358e-10	1.996004e+01	3.158991e+01
1.060000e-06	2.899702e-06	2.090167e-09	2.078151e+01	1.325839e+02
1.070000e-06	3.013133e-06	3.664912e-09	2.159444e+01	2.357111e+02
1.080000e-06	3.125354e-06	5.247928e-09	2.239870e+01	3.394746e+02
1.090000e-06	3.236432e-06	6.816237e-09	2.319477e+01	4.423527e+02
1.100000e-06	3.346427e-06	8.344774e-09	2.398308e+01	5.429086e+02
1.110000e-06	3.455348e-06	9.815910e-09	2.476369e+01	6.398846e+02
1.120000e-06	3.563142e-06	1.121492e-08	2.553623e+01	7.322702e+02
1.130000e-06	3.669637e-06	1.253335e-08	2.629946e+01	8.193369e+02
1.140000e-06	3.774755e-06	1.376621e-08	2.705281e+01	9.006402e+02
1.150000e-06	3.878458e-06	1.490915e-08	2.779602e+01	9.759925e+02
1.160000e-06	3.980742e-06	1.596167e-08	2.852907e+01	1.045417e+03
1.170000e-06	4.081727e-06	1.692765e-08	2.925281e+01	1.109092e+03
1.180000e-06	4.181379e-06	1.781039e-08	2.996699e+01	1.167294e+03
1.190000e-06	4.279426e-06	1.861539e-08	3.066967e+01	1.220353e+03
1.200000e-06	4.375782e-06	1.934617e-08	3.136023e+01	1.268620e+03
1.210000e-06	4.470516e-06	2.000831e-08	3.203917e+01	1.312445e+03
1.220000e-06	4.563719e-06	2.060879e-08	3.270714e+01	1.352168e+03
1.230000e-06	4.655482e-06	2.115147e-08	3.336478e+01	1.388123e+03
1.240000e-06	4.745572e-06	2.163973e-08	3.401044e+01	1.420636e+03
1.250000e-06	4.833846e-06	2.207977e-08	3.464308e+01	1.450030e+03
1.260000e-06	4.920408e-06	2.248076e-08	3.526345e+01	1.476620e+03
1.270000e-06	5.005298e-06	2.284794e-08	3.587183e+01	1.500710e+03
1.280000e-06	5.088441e-06	2.318340e-08	3.646770e+01	1.522588e+03
1.290000e-06	5.169678e-06	2.348783e-08	3.704991e+01	1.542514e+03
1.300000e-06	5.248951e-06	2.376287e-08	3.761804e+01	1.560715e+03
1.310000e-06	5.326298e-06	2.401273e-08	3.817236e+01	1.577385e+03
1.320000e-06	5.401619e-06	2.424306e-08	3.871217e+01	1.592685e+03
1.330000e-06	5.474815e-06	2.445549e-08	3.923675e+01	1.606748e+03
1.340000e-06	5.545937e-06	2.464880e-08	3.974647e+01	1.619681e+03
1.350000e-06	5.615077e-06	2.482607e-08	4.024198e+01	1.631581e+03
1.360000e-06	5.682274e-06	2.499112e-08	4.072357e+01	1.642529e+03
1.370000e-06	5.747387e-06	2.514612e-08	4.119021e+01	1.652603e+03
1.380000e-06	5.810422e-06	2.529069e-08	4.164197e+01	1.661873e+03
1.390000e-06	5.871553e-06	2.542336e-08	4.208008e+01	1.670406e+03
1.400000e-06	5.930707e-06	2.554530e-08	4.250403e+01	1.678262e+03
1.410000e-06	5.987656e-06	2.565691e-08	4.291217e+01	1.685496e+03
1.420000e-06	6.042441e-06	2.575783e-08	4.330480e+01	1.692159e+03
1.430000e-06	6.094908e-06	2.584858e-08	4.368082e+01	1.698294e+03
1.440000e-06	6.144737e-06	2.593242e-08	4.403793e+01	1.703947e+03
1.450000e-06	6.192138e-06	2.601047e-08	4.437765e+01	1.709158e+03
1.460000e-06	6.237474e-06	2.608318e-08	4.470256e+01	1.713968e+03
1.470000e-06	6.280748e-06	2.615200e-08	4.501269e+01	1.718414e+03
1.480000e-06	6.321709e-06	2.621747e-08	4.530625e+01	1.722530e+03
1.490000e-06	6.360365e-06	2.627948e-08	4.558329e+01	1.726341e+03
1.500000e-06	6.396910e-06	2.633443e-08	4.584520e+01	1.729864e+03
1.510000e-06	6.431211e-06	2.638177e-08	4.609103e+01	1.733106e+03
1.520000e-06	6.463109e-06	2.642370e-08	4.631963e+01	1.736064e+03
1.530000e-06	6.492791e-06	2.646351e-08	4.653236e+01	1.738733e+03
1.540000e-06	6.520283e-06	2.650043e-08	4.672939e+01	1.741106e+03
1.550000e-06	6.545291e-06	2.653135e-08	4.690861e+01	1.743181e+03
1.560000e-06	6.567828e-06	2.655753e-08	4.707013e+01	1.744963e+03
1.570000e-06	6.588211e-06	2.657915e-08	4.721621e+01	1.746467e+03
1.580000e-06	6.606308e-06	2.659716e-08	4.734591e+01	1.747716e+03
1.590000e-06	6.621847e-06	2.661295e-08	4.745727e+01	1.748741e+03
1.600000e-06	6.634905e-06	2.662624e-08	4.755086e+01	1.749571e+03
1.610000e-06	6.645341e-06	2.663643e-08	4.762565e+01	1.750232e+03
1.620000e-06	6.653157e-06	2.664489e-08	4.768166e+01	1.750743e+03
1.630000e-06	6.658690e-06	2.665362e-08	4.772132e+01	1.751113e+03
1.640000e-06	6.661963e-06	2.666015e-08	4.774477e+01	1.751340e+03
1.650000e-06	6.662797e-06	2.666356e-08	4.775075e+01	1.751417e+03
1.660000e-06	6.661286e-06	2.665872e-08	4.773992e+01	1.751330e+03
1.670000e-06	6.657636e-06	2.665369e-08	4.771376e+01	1.751070e+03
1.680000e-06	6.651687e-06	2.664663e-08	4.767113e+01	1.750627e+03
1.690000e-06	6.643488e-06	2.663629e-08	4.761237e+01	1.749999e+03
1.700000e-06	6.633247e-06	2.662634e-08	4.753897e+01	1.749190e+03
1.710000e-06	6.620845e-06	2.661602e-08	4.745009e+01	1.748208e+03
1.720000e-06	6.606109e-06	2.661035e-08	4.734448e+01	1.747067e+03
1.730000e-06	6.589221e-06	2.658345e-08	4.722345e+01	1.745782e+03
1.740000e-06	6.570277e-06	2.651789e-08	4.708768e+01	1.744371e+03
1.750000e-06	6.548599e-06	2.650130e-08	4.693232e+01	1.742849e+03
1.760000e-06	6.523673e-06	2.649502e-08	4.675368e+01	1.741234e+03
1.770000e-06	6.496091e-06	2.646567e-08	4.655600e+01	1.739542e+03
1.780000e-06	6.466355e-06	2.650126e-08	4.634289e+01	1.737785e+03
1.790000e-06	6.434834e-06	2.647013e-08	4.611699e+01	1.735974e+03
1.800000e-06	6.401959e-06	2.635352e-08	4.588139e+01	1.734110e+03
1.810000e-06	6.367134e-06	2.638859e-08	4.563180e+01	1.732185e+03
1.820000e-06	6.329817e-06	2.635323e-08	4.536436e+01	1.730183e+03
1.830000e-06	6.290283e-06	2.633967e-08	4.508103e+01	1.728073e+03
1.840000e-06	6.248614e-06	2.639290e-08	4.478239e+01	1.725818e+03
1.850000e-06	6.204862e-06	2.626111e-08	4.446884e+01	1.723377e+03
1.860000e-06	6.159014e-06	2.624538e-08	4.414025e+01	1.720714e+03
1.870000e-06	6.110784e-06	2.620155e-08	4.379459e+01	1.717799e+03
1.880000e-06	6.060337e-06	2.611539e-08	4.343305e+01	1.714619e+03
1.890000e-06	6.007360e-06	2.612489e-08	4.305338e+01	1.711178e+03
1.900000e-06	5.951781e-06	2.602481e-08	4.265506e+01	1.707500e+03
1.910000e-06	5.894044e-06	2.599548e-08	4.224127e+01	1.703616e+03
1.920000e-06	5.834159e-06	2.594924e-08	4.181209e+01	1.699567e+03
1.930000e-06	5.772101e-06	2.583703e-08	4.136734e+01	1.695388e+03
1.940000e-06	5.707800e-06	2.579955e-08	4.090650e+01	1.691102e+03
1.950000e-06	5.641414e-06	2.571051e-08	4.043073e+01	1.686718e+03
1.960000e-06	5.572966e-06	2.567918e-08	3.994018e+01	1.682228e+03
1.970000e-06	5.502228e-06	2.559430e-08	3.943321e+01	1.677609e+03
1.980000e-06	5.429409e-06	2.551029e-08	3.891134e+01	1.672831e+03
1.990000e-06	5.354593e-06	2.545727e-08	3.837515e+01	1.667862e+03
2.000000e-06	5.277669e-06	2.534887e-08	3.782386e+01	1.662680e+03
2.010000e-06	5.198643e-06	2.528263e-08	3.725749e+01	1.657275e+03
2.020000e-06	5.117632e-06	2.518389e-08	3.667691e+01	1.651651e+03
2.030000e-06	5.034869e-06	2.511645e-08	3.608376e+01	1.645822e+03
2.040000e-06	4.950358e-06	2.503305e-08	3.547809e+01	1.639811e+03
2.050000e-06	4.864042e-06	2.492315e-08	3.485948e+01	1.633640e+03
2.060000e-06	4.775979e-06	2.482952e-08	3.422836e+01	1.627321e+03
2.070000e-06	4.686355e-06	2.472759e-08	3.358604e+01	1.620860e+03
2.080000e-06	4.595200e-06	2.463612e-08	3.293275e+01	1.614249e+03
2.090000e-06	4.502448e-06	2.452170e-08	3.226802e+01	1.607470e+03
2.100000e-06	4.407967e-06	2.442242e-08	3.159090e+01	1.600502e+03
2.110000e-06	4.311826e-06	2.431640e-08	3.090187e+01	1.593324e+03
2.120000e-06	4.214284e-06	2.420479e-08	3.020281e+01	1.585921e+03
2.130000e-06	4.115380e-06	2.408673e-08	2.949399e+01	1.578287e+03
2.140000e-06	4.015083e-06	2.396449e-08	2.877518e+01	1.570422e+03
2.150000e-06	3.913198e-06	2.384805e-08	2.804500e+01	1.562330e+03
2.160000e-06	3.809672e-06	2.372146e-08	2.730305e+01	1.554016e+03
2.170000e-06	3.704762e-06	2.359323e-08	2.655119e+01	1.545482e+03
2.180000e-06	3.598660e-06	2.345443e-08	2.579078e+01	1.536719e+03
2.190000e-06	3.491336e-06	2.331914e-08	2.502161e+01	1.527713e+03
2.200000e-06	3.382809e-06	2.317908e-08	2.424382e+01	1.518444e+03
2.210000e-06	3.273036e-06	2.304062e-08	2.345710e+01	1.508891e+03
2.220000e-06	3.161868e-06	2.289609e-08	2.266039e+01	1.499035e+03
2.230000e-06	3.049464e-06	2.274491e-08	2.185482e+01	1.488866e+03
2.240000e-06	2.935941e-06	2.258354e-08	2.104122e+01	1.478382e+03
2.250000e-06	2.821294e-06	2.241476e-08	2.021957e+01	1.467588e+03
2.260000e-06	2.705470e-06	2.224618e-08	1.938949e+01	1.456492e+03
2.270000e-06	2.588521e-06	2.207443e-08	1.855134e+01	1.445101e+03
2.280000e-06	2.470485e-06	2.190074e-08	1.770540e+01	1.433413e+03
2.290000e-06	2.351302e-06	2.172000e-08	1.685125e+01	1.421417e+03
2.300000e-06	2.231180e-06	2.153508e-08	1.599036e+01	1.409094e+03
2.310000e-06	2.110365e-06	2.134164e-08	1.512450e+01	1.396414e+03
2.320000e-06	1.988887e-06	2.114294e-08	1.425390e+01	1.383345e+03
2.330000e-06	1.866799e-06	2.093754e-08	1.337893e+01	1.369861e+03
2.340000e-06	1.744135e-06	2.072572e-08	1.249982e+01	1.355940e+03
2.350000e-06	1.620844e-06	2.050757e-08	1.161622e+01	1.341569e+03
2.360000e-06	1.496985e-06	2.028096e-08	1.072855e+01	1.326744e+03
2.370000e-06	1.372637e-06	2.004701e-08	9.837380e+00	1.311462e+03
2.380000e-06	1.247899e-06	1.980631e-08	8.943409e+00	1.295716e+03
2.390000e-06	1.122817e-06	1.955961e-08	8.046971e+00	1.279492e+03
2.400000e-06	9.973545e-07	1.930516e-08	7.147813e+00	1.262760e+03
2.410000e-06	8.715591e-07	1.904355e-08	6.246266e+00	1.245479e+03
2.420000e-06	7.454390e-07	1.877030e-08	5.342391e+00	1.227596e+03
2.430000e-06	6.189493e-07	1.848304e-08	4.435869e+00	1.209056e+03
2.440000e-06	4.921285e-07	1.818531e-08	3.526973e+00	1.189805e+03
2.450000e-06	3.650782e-07	1.787907e-08	2.616433e+00	1.169795e+03
2.460000e-06	2.379201e-07	1.756479e-08	1.705119e+00	1.148985e+03
2.470000e-06	1.106349e-07	1.723918e-08	7.928949e-01	1.127337e+03
2.480000e-06	-1.679256e-08	1.689962e-08	-1.203485e-01	1.104809e+03
2.490000e-06	-1.442466e-07	1.654331e-08	-1.033783e+00	1.081341e+03
2.500000e-06	-2.716597e-07	1.616978e-08	-1.946923e+00	1.056853e+03
2.510000e-06	-3.989544e-07	1.577837e-08	-2.859215e+00	1.031231e+03
2.520000e-06	-5.260679e-07	1.536675e-08	-3.770209e+00	1.004333e+03
2.530000e-06	-6.530303e-07	1.493223e-08	-4.680120e+00	9.759893e+02
2.540000e-06	-7.797308e-07	1.447353e-08	-5.588153e+00	9.460109e+02
2.550000e-06	-9.060600e-07	1.398839e-08	-6.493526e+00	9.142000e+02
2.560000e-06	-1.032032e-06	1.347160e-08	-7.396336e+00	8.803529e+02
2.570000e-06	-1.157613e-06	1.292076e-08	-8.296347e+00	8.442588e+02
2.580000e-06	-1.282825e-06	1.233422e-08	-9.193715e+00	8.056890e+02
2.590000e-06	-1.407647e-06	1.170702e-08	-1.008828e+01	7.643802e+02
2.600000e-06	-1.531931e-06	1.103077e-08	-1.097900e+01	7.200148e+02
2.610000e-06	-1.655531e-06	1.030021e-08	-1.186482e+01	6.722054e+02
2.620000e-06	-1.778405e-06	9.510172e-09	-1.274542e+01	6.204904e+02
2.630000e-06	-1.900624e-06	8.653836e-09	-1.362134e+01	5.643482e+02
2.640000e-06	-2.022223e-06	7.723168e-09	-1.449281e+01	5.032331e+02
2.650000e-06	-2.143162e-06	6.710680e-09	-1.535956e+01	4.366320e+02
2.660000e-06	-2.263351e-06	5.610466e-09	-1.622092e+01	3.641377e+02
2.670000e-06	-2.382658e-06	4.417180e-09	-1.707597e+01	2.855283e+02
2.680000e-06	-2.500887e-06	3.130365e-09	-1.792329e+01	2.008393e+02
2.690000e-06	-2.618036e-06	1.753989e-09	-1.876287e+01	1.104175e+02
2.700000e-06	-2.734102e-06	2.979355e-10	-1.959469e+01	1.494281e+01
2.710000e-06	-2.849016e-06	-1.219820e-09	-2.041825e+01	-8.458581e+01
2.720000e-06	-2.962793e-06	-2.779970e-09	-2.123366e+01	-1.869030e+02
2.730000e-06	-3.075390e-06	-4.362188e-09	-2.204062e+01	-2.905615e+02
2.740000e-06	-3.186751e-06	-5.943029e-09	-2.283872e+01	-3.940369e+02
2.750000e-06	-3.296823e-06	-7.500915e-09	-2.362758e+01	-4.958402e+02
2.760000e-06	-3.405747e-06	-9.015396e-09	-2.440821e+01	-5.946202e+02
2.770000e-06	-3.513619e-06	-1.046549e-08	-2.518131e+01	-6.892452e+02
2.780000e-06	-3.620383e-06	-1.183697e-08	-2.594646e+01	-7.788536e+02
2.790000e-06	-3.725988e-06	-1.312450e-08	-2.670330e+01	-8.628707e+02
2.800000e-06	-3.830327e-06	-1.432341e-08	-2.745108e+01	-9.409946e+02
2.810000e-06	-3.933212e-06	-1.543132e-08	-2.818843e+01	-1.013157e+03
2.820000e-06	-4.034588e-06	-1.644946e-08	-2.891497e+01	-1.079472e+03
2.830000e-06	-4.134513e-06	-1.738187e-08	-2.963111e+01	-1.140176e+03
2.840000e-06	-4.233074e-06	-1.823356e-08	-3.033747e+01	-1.195580e+03
2.850000e-06	-4.330305e-06	-1.900812e-08	-3.103431e+01	-1.246028e+03
2.860000e-06	-4.426028e-06	-1.971235e-08	-3.172033e+01	-1.291873e+03
2.870000e-06	-4.520062e-06	-2.035421e-08	-3.239426e+01	-1.333458e+03
2.880000e-06	-4.612413e-06	-2.093679e-08	-3.305611e+01	-1.371122e+03
2.890000e-06	-4.703141e-06	-2.146113e-08	-3.370634e+01	-1.405192e+03
2.900000e-06	-4.792224e-06	-2.193237e-08	-3.434478e+01	-1.435995e+03
2.910000e-06	-4.879532e-06	-2.235909e-08	-3.497050e+01	-1.463848e+03
2.920000e-06	-4.964995e-06	-2.274766e-08	-3.558299e+01	-1.489062e+03
2.930000e-06	-5.048693e-06	-2.309923e-08	-3.618283e+01	-1.511933e+03
2.940000e-06	-5.130685e-06	-2.341814e-08	-3.677045e+01	-1.532735e+03
