# Temperatura_=_30.26
# Concentracion g/m^3_=_28200.0
# C_Vs_to_Am_M_A/Vsm_=_65563218390.804596
# pendiente_HvsI_1/m_=_3716.3
# ordenada_HvsI_A/m_=_1297.0
# frecuencia_Hz_=_302371.89728499204

Tiempo_(s)	Campo_(V.s)	Magnetizacion_(V.s)	Campo_(kA/m)	Magnetizacion_(A/m)
0.000000e+00	-7.313061e-06	-2.116081e-08	-5.319034e+01	-1.384859e+03
1.000000e-08	-7.309082e-06	-2.115683e-08	-5.316140e+01	-1.384470e+03
2.000000e-08	-7.302791e-06	-2.114652e-08	-5.311564e+01	-1.383944e+03
3.000000e-08	-7.294164e-06	-2.113625e-08	-5.305289e+01	-1.383296e+03
4.000000e-08	-7.282946e-06	-2.112574e-08	-5.297130e+01	-1.382542e+03
5.000000e-08	-7.268971e-06	-2.111236e-08	-5.286966e+01	-1.381691e+03
6.000000e-08	-7.252363e-06	-2.109482e-08	-5.274886e+01	-1.380746e+03
7.000000e-08	-7.233551e-06	-2.107801e-08	-5.261203e+01	-1.379702e+03
8.000000e-08	-7.212687e-06	-2.106632e-08	-5.246029e+01	-1.378551e+03
9.000000e-08	-7.189251e-06	-2.109693e-08	-5.228983e+01	-1.377283e+03
1.000000e-07	-7.162795e-06	-2.106793e-08	-5.209740e+01	-1.375896e+03
1.100000e-07	-7.133509e-06	-2.099268e-08	-5.188440e+01	-1.374396e+03
1.200000e-07	-7.101742e-06	-2.096132e-08	-5.165334e+01	-1.372797e+03
1.300000e-07	-7.067475e-06	-2.094330e-08	-5.140411e+01	-1.371117e+03
1.400000e-07	-7.030999e-06	-2.088415e-08	-5.113880e+01	-1.369370e+03
1.500000e-07	-6.992729e-06	-2.081110e-08	-5.086046e+01	-1.367561e+03
1.600000e-07	-6.952308e-06	-2.087869e-08	-5.056646e+01	-1.365679e+03
1.700000e-07	-6.909373e-06	-2.081832e-08	-5.025418e+01	-1.363696e+03
1.800000e-07	-6.864106e-06	-2.071199e-08	-4.992494e+01	-1.361573e+03
1.900000e-07	-6.816288e-06	-2.076415e-08	-4.957714e+01	-1.359262e+03
2.000000e-07	-6.765520e-06	-2.068832e-08	-4.920789e+01	-1.356720e+03
2.100000e-07	-6.712093e-06	-2.063987e-08	-4.881930e+01	-1.353916e+03
2.200000e-07	-6.656277e-06	-2.062716e-08	-4.841333e+01	-1.350841e+03
2.300000e-07	-6.597947e-06	-2.055416e-08	-4.798907e+01	-1.347504e+03
2.400000e-07	-6.537125e-06	-2.050205e-08	-4.754669e+01	-1.343935e+03
2.500000e-07	-6.473885e-06	-2.041771e-08	-4.708673e+01	-1.340169e+03
2.600000e-07	-6.408136e-06	-2.037326e-08	-4.660852e+01	-1.336243e+03
2.700000e-07	-6.339963e-06	-2.030503e-08	-4.611267e+01	-1.332179e+03
2.800000e-07	-6.269486e-06	-2.024288e-08	-4.560007e+01	-1.327983e+03
2.900000e-07	-6.196640e-06	-2.018862e-08	-4.507023e+01	-1.323643e+03
3.000000e-07	-6.121281e-06	-2.010366e-08	-4.452213e+01	-1.319129e+03
3.100000e-07	-6.043293e-06	-2.004182e-08	-4.395489e+01	-1.314405e+03
3.200000e-07	-5.962806e-06	-1.995250e-08	-4.336948e+01	-1.309440e+03
3.300000e-07	-5.880187e-06	-1.988576e-08	-4.276856e+01	-1.304210e+03
3.400000e-07	-5.795660e-06	-1.979337e-08	-4.215377e+01	-1.298708e+03
3.500000e-07	-5.709267e-06	-1.969814e-08	-4.152541e+01	-1.292938e+03
3.600000e-07	-5.620886e-06	-1.962106e-08	-4.088259e+01	-1.286913e+03
3.700000e-07	-5.530397e-06	-1.952380e-08	-4.022443e+01	-1.280646e+03
3.800000e-07	-5.437937e-06	-1.942651e-08	-3.955194e+01	-1.274140e+03
3.900000e-07	-5.343590e-06	-1.932170e-08	-3.886571e+01	-1.267386e+03
4.000000e-07	-5.247313e-06	-1.921606e-08	-3.816546e+01	-1.260359e+03
4.100000e-07	-5.149146e-06	-1.908684e-08	-3.745146e+01	-1.253023e+03
4.200000e-07	-5.049176e-06	-1.896722e-08	-3.672434e+01	-1.245340e+03
4.300000e-07	-4.947462e-06	-1.884965e-08	-3.598454e+01	-1.237277e+03
4.400000e-07	-4.844018e-06	-1.871986e-08	-3.523216e+01	-1.228816e+03
4.500000e-07	-4.738898e-06	-1.858177e-08	-3.446759e+01	-1.219951e+03
4.600000e-07	-4.632023e-06	-1.844285e-08	-3.369025e+01	-1.210692e+03
4.700000e-07	-4.523430e-06	-1.829452e-08	-3.290042e+01	-1.201051e+03
4.800000e-07	-4.413313e-06	-1.813725e-08	-3.209950e+01	-1.191038e+03
4.900000e-07	-4.301550e-06	-1.798456e-08	-3.128661e+01	-1.180647e+03
5.000000e-07	-4.188075e-06	-1.782094e-08	-3.046127e+01	-1.169856e+03
5.100000e-07	-4.072858e-06	-1.764414e-08	-2.962326e+01	-1.158617e+03
5.200000e-07	-3.956021e-06	-1.745475e-08	-2.877347e+01	-1.146872e+03
5.300000e-07	-3.837770e-06	-1.726475e-08	-2.791339e+01	-1.134555e+03
5.400000e-07	-3.718053e-06	-1.706582e-08	-2.704264e+01	-1.121607e+03
5.500000e-07	-3.596972e-06	-1.685628e-08	-2.616198e+01	-1.107981e+03
5.600000e-07	-3.474516e-06	-1.663675e-08	-2.527132e+01	-1.093649e+03
5.700000e-07	-3.350656e-06	-1.640749e-08	-2.437044e+01	-1.078596e+03
5.800000e-07	-3.225624e-06	-1.616638e-08	-2.346104e+01	-1.062813e+03
5.900000e-07	-3.099509e-06	-1.591300e-08	-2.254377e+01	-1.046283e+03
6.000000e-07	-2.972250e-06	-1.565243e-08	-2.161816e+01	-1.028969e+03
6.100000e-07	-2.843792e-06	-1.537617e-08	-2.068385e+01	-1.010810e+03
6.200000e-07	-2.714258e-06	-1.508137e-08	-1.974171e+01	-9.917176e+02
6.300000e-07	-2.583712e-06	-1.476652e-08	-1.879220e+01	-9.715811e+02
6.400000e-07	-2.452118e-06	-1.443550e-08	-1.783507e+01	-9.502815e+02
6.500000e-07	-2.319632e-06	-1.408583e-08	-1.687146e+01	-9.277009e+02
6.600000e-07	-2.186500e-06	-1.371825e-08	-1.590314e+01	-9.037310e+02
6.700000e-07	-2.052714e-06	-1.333153e-08	-1.493008e+01	-8.782744e+02
6.800000e-07	-1.918087e-06	-1.292177e-08	-1.395089e+01	-8.512370e+02
6.900000e-07	-1.782660e-06	-1.248648e-08	-1.296589e+01	-8.225152e+02
7.000000e-07	-1.646608e-06	-1.201995e-08	-1.197633e+01	-7.919815e+02
7.100000e-07	-1.510034e-06	-1.152056e-08	-1.098298e+01	-7.594754e+02
7.200000e-07	-1.372993e-06	-1.098730e-08	-9.986240e+00	-7.248060e+02
7.300000e-07	-1.235529e-06	-1.042088e-08	-8.986414e+00	-6.877705e+02
7.400000e-07	-1.097674e-06	-9.815014e-09	-7.983751e+00	-6.481866e+02
7.500000e-07	-9.593932e-07	-9.169236e-09	-6.977988e+00	-6.059361e+02
7.600000e-07	-8.206952e-07	-8.486172e-09	-5.969190e+00	-5.610085e+02
7.700000e-07	-6.816383e-07	-7.766237e-09	-4.957783e+00	-5.135343e+02
7.800000e-07	-5.423213e-07	-7.008445e-09	-3.944484e+00	-4.637965e+02
7.900000e-07	-4.027395e-07	-6.220314e-09	-2.929259e+00	-4.122134e+02
8.000000e-07	-2.628645e-07	-5.415470e-09	-1.911901e+00	-3.592914e+02
8.100000e-07	-1.228323e-07	-4.597744e-09	-8.934002e-01	-3.055542e+02
8.200000e-07	1.724070e-08	-3.773457e-09	1.253974e-01	-2.514609e+02
8.300000e-07	1.573709e-07	-2.947134e-09	1.144611e+00	-1.973290e+02
8.400000e-07	2.975090e-07	-2.122218e-09	2.163882e+00	-1.432815e+02
8.500000e-07	4.375063e-07	-1.298604e-09	3.182130e+00	-8.922978e+01
8.600000e-07	5.773315e-07	-4.742399e-10	4.199125e+00	-3.490047e+01
8.700000e-07	7.169463e-07	3.573932e-10	5.214590e+00	2.009650e+01
8.800000e-07	8.562761e-07	1.207547e-09	6.227982e+00	7.617054e+01
8.900000e-07	9.952778e-07	2.080395e-09	7.238988e+00	1.336418e+02
9.000000e-07	1.133864e-06	2.976358e-09	8.246970e+00	1.926430e+02
9.100000e-07	1.271954e-06	3.894237e-09	9.251350e+00	2.530523e+02
9.200000e-07	1.409532e-06	4.829912e-09	1.025199e+01	3.144705e+02
9.300000e-07	1.546589e-06	5.772640e-09	1.124886e+01	3.762487e+02
9.400000e-07	1.683108e-06	6.708855e-09	1.224181e+01	4.375603e+02
9.500000e-07	1.819027e-06	7.621735e-09	1.323039e+01	4.975038e+02
9.600000e-07	1.954272e-06	8.497598e-09	1.421407e+01	5.552161e+02
9.700000e-07	2.088679e-06	9.326056e-09	1.519166e+01	6.099761e+02
9.800000e-07	2.222195e-06	1.009956e-08	1.616277e+01	6.612786e+02
9.900000e-07	2.354993e-06	1.081586e-08	1.712865e+01	7.088689e+02
1.000000e-06	2.487027e-06	1.147687e-08	1.808898e+01	7.527351e+02
1.010000e-06	2.618049e-06	1.208619e-08	1.904195e+01	7.930640e+02
1.020000e-06	2.747921e-06	1.265038e-08	1.998655e+01	8.301744e+02
1.030000e-06	2.876727e-06	1.317541e-08	2.092340e+01	8.644430e+02
1.040000e-06	3.004559e-06	1.366244e-08	2.185316e+01	8.962384e+02
1.050000e-06	3.131352e-06	1.411293e-08	2.277537e+01	9.258751e+02
1.060000e-06	3.257012e-06	1.453067e-08	2.368934e+01	9.535923e+02
1.070000e-06	3.381608e-06	1.492267e-08	2.459557e+01	9.795565e+02
1.080000e-06	3.505083e-06	1.529130e-08	2.549364e+01	1.003881e+03
1.090000e-06	3.627128e-06	1.563640e-08	2.638132e+01	1.026652e+03
1.100000e-06	3.747791e-06	1.596021e-08	2.725894e+01	1.047957e+03
1.110000e-06	3.867164e-06	1.626476e-08	2.812718e+01	1.067897e+03
1.120000e-06	3.985150e-06	1.655114e-08	2.898533e+01	1.086593e+03
1.130000e-06	4.101746e-06	1.682005e-08	2.983337e+01	1.104179e+03
1.140000e-06	4.216760e-06	1.707331e-08	3.066990e+01	1.120784e+03
1.150000e-06	4.330024e-06	1.731275e-08	3.149371e+01	1.136521e+03
1.160000e-06	4.441670e-06	1.753896e-08	3.230575e+01	1.151471e+03
1.170000e-06	4.551797e-06	1.775258e-08	3.310674e+01	1.165684e+03
1.180000e-06	4.660515e-06	1.795413e-08	3.389749e+01	1.179182e+03
1.190000e-06	4.767629e-06	1.814558e-08	3.467656e+01	1.191974e+03
1.200000e-06	4.872864e-06	1.832790e-08	3.544197e+01	1.204066e+03
1.210000e-06	4.976330e-06	1.850139e-08	3.619451e+01	1.215477e+03
1.220000e-06	5.078050e-06	1.866559e-08	3.693435e+01	1.226240e+03
1.230000e-06	5.178023e-06	1.882233e-08	3.766150e+01	1.236408e+03
1.240000e-06	5.276021e-06	1.897172e-08	3.837427e+01	1.246039e+03
1.250000e-06	5.371886e-06	1.911295e-08	3.907152e+01	1.255191e+03
1.260000e-06	5.465784e-06	1.924666e-08	3.975448e+01	1.263904e+03
1.270000e-06	5.557815e-06	1.937162e-08	4.042385e+01	1.272202e+03
1.280000e-06	5.647850e-06	1.949017e-08	4.107870e+01	1.280087e+03
1.290000e-06	5.735739e-06	1.960357e-08	4.171795e+01	1.287549e+03
1.300000e-06	5.821598e-06	1.971043e-08	4.234243e+01	1.294574e+03
1.310000e-06	5.905558e-06	1.980955e-08	4.295310e+01	1.301157e+03
1.320000e-06	5.987479e-06	1.990112e-08	4.354893e+01	1.307313e+03
1.330000e-06	6.067119e-06	1.998706e-08	4.412818e+01	1.313076e+03
1.340000e-06	6.144530e-06	2.007010e-08	4.469122e+01	1.318501e+03
1.350000e-06	6.219602e-06	2.014943e-08	4.523724e+01	1.323649e+03
1.360000e-06	6.292204e-06	2.022526e-08	4.576531e+01	1.328580e+03
1.370000e-06	6.362498e-06	2.029864e-08	4.627658e+01	1.333336e+03
1.380000e-06	6.430622e-06	2.036969e-08	4.677207e+01	1.337940e+03
1.390000e-06	6.496413e-06	2.043695e-08	4.725058e+01	1.342386e+03
1.400000e-06	6.559767e-06	2.049826e-08	4.771138e+01	1.346649e+03
1.410000e-06	6.620942e-06	2.055509e-08	4.815632e+01	1.350694e+03
1.420000e-06	6.679929e-06	2.060923e-08	4.858536e+01	1.354487e+03
1.430000e-06	6.736496e-06	2.066242e-08	4.899679e+01	1.358005e+03
1.440000e-06	6.790635e-06	2.071367e-08	4.939056e+01	1.361245e+03
1.450000e-06	6.842117e-06	2.076358e-08	4.976500e+01	1.364222e+03
1.460000e-06	6.890757e-06	2.080984e-08	5.011878e+01	1.366966e+03
1.470000e-06	6.936842e-06	2.085061e-08	5.045397e+01	1.369509e+03
1.480000e-06	6.980574e-06	2.088624e-08	5.077205e+01	1.371883e+03
1.490000e-06	7.021794e-06	2.091741e-08	5.107186e+01	1.374106e+03
1.500000e-06	7.060429e-06	2.094760e-08	5.135286e+01	1.376179e+03
1.510000e-06	7.096722e-06	2.097547e-08	5.161683e+01	1.378091e+03
1.520000e-06	7.130518e-06	2.100059e-08	5.186264e+01	1.379822e+03
1.530000e-06	7.161669e-06	2.102443e-08	5.208921e+01	1.381354e+03
1.540000e-06	7.190394e-06	2.104654e-08	5.229814e+01	1.382675e+03
1.550000e-06	7.216548e-06	2.106575e-08	5.248837e+01	1.383788e+03
1.560000e-06	7.239935e-06	2.108039e-08	5.265847e+01	1.384708e+03
1.570000e-06	7.260781e-06	2.109201e-08	5.281009e+01	1.385462e+03
1.580000e-06	7.279175e-06	2.110104e-08	5.294388e+01	1.386079e+03
1.590000e-06	7.294882e-06	2.110824e-08	5.305811e+01	1.386584e+03
1.600000e-06	7.307788e-06	2.111371e-08	5.315199e+01	1.386994e+03
1.610000e-06	7.317769e-06	2.111811e-08	5.322458e+01	1.387311e+03
1.620000e-06	7.324912e-06	2.112376e-08	5.327653e+01	1.387525e+03
1.630000e-06	7.329547e-06	2.112811e-08	5.331025e+01	1.387620e+03
1.640000e-06	7.331603e-06	2.112913e-08	5.332520e+01	1.387580e+03
1.650000e-06	7.331018e-06	2.112801e-08	5.332095e+01	1.387392e+03
1.660000e-06	7.328064e-06	2.111776e-08	5.329946e+01	1.387055e+03
1.670000e-06	7.322700e-06	2.110958e-08	5.326045e+01	1.386576e+03
1.680000e-06	7.314781e-06	2.110247e-08	5.320285e+01	1.385970e+03
1.690000e-06	7.304454e-06	2.109311e-08	5.312774e+01	1.385251e+03
1.700000e-06	7.291573e-06	2.108347e-08	5.303405e+01	1.384434e+03
1.710000e-06	7.276113e-06	2.107392e-08	5.292160e+01	1.383522e+03
1.720000e-06	7.258470e-06	2.106438e-08	5.279328e+01	1.382514e+03
1.730000e-06	7.238771e-06	2.102981e-08	5.265001e+01	1.381402e+03
1.740000e-06	7.216440e-06	2.094728e-08	5.248758e+01	1.380176e+03
1.750000e-06	7.190731e-06	2.095793e-08	5.230059e+01	1.378831e+03
1.760000e-06	7.161616e-06	2.097455e-08	5.208883e+01	1.377370e+03
1.770000e-06	7.129734e-06	2.093171e-08	5.185694e+01	1.375804e+03
1.780000e-06	7.095819e-06	2.092648e-08	5.161026e+01	1.374150e+03
1.790000e-06	7.060247e-06	2.098748e-08	5.135154e+01	1.372425e+03
1.800000e-06	7.023052e-06	2.088707e-08	5.108101e+01	1.370638e+03
1.810000e-06	6.983513e-06	2.083476e-08	5.079343e+01	1.368784e+03
1.820000e-06	6.941293e-06	2.089737e-08	5.048635e+01	1.366841e+03
1.830000e-06	6.896884e-06	2.075220e-08	5.016334e+01	1.364773e+03
1.840000e-06	6.850032e-06	2.079856e-08	4.982257e+01	1.362534e+03
1.850000e-06	6.800534e-06	2.075925e-08	4.946256e+01	1.360078e+03
1.860000e-06	6.748379e-06	2.066738e-08	4.908322e+01	1.357369e+03
1.870000e-06	6.693394e-06	2.069298e-08	4.868330e+01	1.354390e+03
1.880000e-06	6.635990e-06	2.057510e-08	4.826577e+01	1.351144e+03
1.890000e-06	6.576115e-06	2.059260e-08	4.783028e+01	1.347654e+03
1.900000e-06	6.513563e-06	2.052353e-08	4.737532e+01	1.343953e+03
1.910000e-06	6.448563e-06	2.043824e-08	4.690256e+01	1.340080e+03
1.920000e-06	6.381222e-06	2.041154e-08	4.641276e+01	1.336064e+03
1.930000e-06	6.311574e-06	2.029372e-08	4.590619e+01	1.331915e+03
1.940000e-06	6.239456e-06	2.028614e-08	4.538165e+01	1.327629e+03
1.950000e-06	6.164871e-06	2.019142e-08	4.483917e+01	1.323180e+03
1.960000e-06	6.087725e-06	2.012788e-08	4.427806e+01	1.318535e+03
1.970000e-06	6.008066e-06	2.005818e-08	4.369867e+01	1.313659e+03
1.980000e-06	5.926301e-06	1.995651e-08	4.310397e+01	1.308525e+03
1.990000e-06	5.842484e-06	1.990744e-08	4.249434e+01	1.303119e+03
2.000000e-06	5.756595e-06	1.978796e-08	4.186964e+01	1.297443e+03
2.010000e-06	5.668570e-06	1.971844e-08	4.122940e+01	1.291507e+03
2.020000e-06	5.578557e-06	1.961346e-08	4.057471e+01	1.285325e+03
2.030000e-06	5.486617e-06	1.951294e-08	3.990600e+01	1.278904e+03
2.040000e-06	5.392690e-06	1.941489e-08	3.922284e+01	1.272241e+03
2.050000e-06	5.296812e-06	1.931774e-08	3.852548e+01	1.265314e+03
2.060000e-06	5.199107e-06	1.922375e-08	3.781485e+01	1.258092e+03
2.070000e-06	5.099691e-06	1.909077e-08	3.709176e+01	1.250537e+03
2.080000e-06	4.998448e-06	1.897427e-08	3.635539e+01	1.242613e+03
2.090000e-06	4.895350e-06	1.883998e-08	3.560552e+01	1.234295e+03
2.100000e-06	4.790420e-06	1.871467e-08	3.484232e+01	1.225574e+03
2.110000e-06	4.683945e-06	1.857908e-08	3.406790e+01	1.216453e+03
2.120000e-06	4.575987e-06	1.844415e-08	3.328268e+01	1.206946e+03
2.130000e-06	4.466450e-06	1.828985e-08	3.248598e+01	1.197065e+03
2.140000e-06	4.355265e-06	1.812477e-08	3.167730e+01	1.186811e+03
2.150000e-06	4.242367e-06	1.796344e-08	3.085615e+01	1.176166e+03
2.160000e-06	4.127792e-06	1.779971e-08	3.002281e+01	1.165093e+03
2.170000e-06	4.011487e-06	1.763197e-08	2.917689e+01	1.153536e+03
2.180000e-06	3.893510e-06	1.744688e-08	2.831880e+01	1.141431e+03
2.190000e-06	3.773981e-06	1.725589e-08	2.744942e+01	1.128713e+03
2.200000e-06	3.653026e-06	1.704972e-08	2.656968e+01	1.115333e+03
2.210000e-06	3.530708e-06	1.683658e-08	2.568002e+01	1.101255e+03
2.220000e-06	3.407053e-06	1.661319e-08	2.478064e+01	1.086460e+03
2.230000e-06	3.282134e-06	1.638315e-08	2.387206e+01	1.070939e+03
2.240000e-06	3.156085e-06	1.613241e-08	2.295526e+01	1.054678e+03
2.250000e-06	3.028860e-06	1.586950e-08	2.202991e+01	1.037649e+03
2.260000e-06	2.900402e-06	1.559749e-08	2.109559e+01	1.019801e+03
2.270000e-06	2.770910e-06	1.531390e-08	2.015376e+01	1.001053e+03
2.280000e-06	2.640446e-06	1.501580e-08	1.920485e+01	9.813020e+02
2.290000e-06	2.508998e-06	1.470018e-08	1.824878e+01	9.604312e+02
2.300000e-06	2.376663e-06	1.436609e-08	1.728626e+01	9.383206e+02
2.310000e-06	2.243558e-06	1.400800e-08	1.631815e+01	9.148581e+02
2.320000e-06	2.109778e-06	1.363012e-08	1.534512e+01	8.899428e+02
2.330000e-06	1.975296e-06	1.322980e-08	1.436699e+01	8.634806e+02
2.340000e-06	1.840055e-06	1.280616e-08	1.338334e+01	8.353731e+02
2.350000e-06	1.704127e-06	1.235386e-08	1.239469e+01	8.055026e+02
2.360000e-06	1.567575e-06	1.187031e-08	1.140150e+01	7.737210e+02
2.370000e-06	1.430500e-06	1.135035e-08	1.040451e+01	7.398470e+02
2.380000e-06	1.293049e-06	1.079412e-08	9.404775e+00	7.036789e+02
2.390000e-06	1.155253e-06	1.020312e-08	8.402541e+00	6.650226e+02
2.400000e-06	1.017096e-06	9.572175e-09	7.397676e+00	6.237316e+02
2.410000e-06	8.785392e-07	8.901830e-09	6.389909e+00	5.797526e+02
2.420000e-06	7.395963e-07	8.194043e-09	5.379331e+00	5.331628e+02
2.430000e-06	6.003162e-07	7.452224e-09	4.366301e+00	4.841913e+02
2.440000e-06	4.607399e-07	6.678474e-09	3.351115e+00	4.332119e+02
2.450000e-06	3.209564e-07	5.877117e-09	2.334423e+00	3.807066e+02
2.460000e-06	1.810634e-07	5.057809e-09	1.316934e+00	3.272023e+02
2.470000e-06	4.105232e-08	4.227097e-09	2.985872e-01	2.731905e+02
2.480000e-06	-9.901171e-08	3.395648e-09	-7.201452e-01	2.190469e+02
2.490000e-06	-2.390069e-07	2.568867e-09	-1.738377e+00	1.649682e+02
2.500000e-06	-3.789008e-07	1.743606e-09	-2.755872e+00	1.109403e+02
2.510000e-06	-5.186543e-07	9.156475e-10	-3.772346e+00	5.675029e+01
2.520000e-06	-6.582318e-07	7.663822e-11	-4.787540e+00	2.039610e+00
2.530000e-06	-7.976018e-07	-7.751385e-10	-5.801224e+00	-5.360654e+01
2.540000e-06	-9.366908e-07	-1.643235e-09	-6.812865e+00	-1.105524e+02
2.550000e-06	-1.075339e-06	-2.533644e-09	-7.821300e+00	-1.690075e+02
2.560000e-06	-1.213504e-06	-3.446527e-09	-8.826221e+00	-2.289458e+02
2.570000e-06	-1.351219e-06	-4.381727e-09	-9.827871e+00	-2.900668e+02
2.580000e-06	-1.488514e-06	-5.329586e-09	-1.082646e+01	-3.518046e+02
2.590000e-06	-1.625401e-06	-6.277338e-09	-1.182209e+01	-4.133853e+02
2.600000e-06	-1.761694e-06	-7.207270e-09	-1.281339e+01	-4.739213e+02
2.610000e-06	-1.897225e-06	-8.103601e-09	-1.379915e+01	-5.325230e+02
2.620000e-06	-2.031923e-06	-8.957337e-09	-1.477885e+01	-5.884082e+02
2.630000e-06	-2.165753e-06	-9.761592e-09	-1.575225e+01	-6.409885e+02
2.640000e-06	-2.298834e-06	-1.050975e-08	-1.672019e+01	-6.899184e+02
2.650000e-06	-2.431154e-06	-1.120104e-08	-1.768259e+01	-7.351027e+02
2.660000e-06	-2.562489e-06	-1.184035e-08	-1.863784e+01	-7.766640e+02
2.670000e-06	-2.692774e-06	-1.243182e-08	-1.958544e+01	-8.148826e+02
2.680000e-06	-2.822160e-06	-1.297816e-08	-2.052651e+01	-8.501226e+02
2.690000e-06	-2.950659e-06	-1.348032e-08	-2.146113e+01	-8.827621e+02
2.700000e-06	-3.078033e-06	-1.394607e-08	-2.238757e+01	-9.131387e+02
2.710000e-06	-3.204181e-06	-1.437954e-08	-2.330508e+01	-9.415193e+02
2.720000e-06	-3.329233e-06	-1.478504e-08	-2.421463e+01	-9.680948e+02
2.730000e-06	-3.453145e-06	-1.516597e-08	-2.511588e+01	-9.929944e+02
2.740000e-06	-3.575714e-06	-1.551982e-08	-2.600737e+01	-1.016311e+03
2.750000e-06	-3.697056e-06	-1.585047e-08	-2.688992e+01	-1.038130e+03
2.760000e-06	-3.817088e-06	-1.616190e-08	-2.776296e+01	-1.058545e+03
2.770000e-06	-3.935504e-06	-1.645676e-08	-2.862424e+01	-1.077671e+03
2.780000e-06	-4.052390e-06	-1.673519e-08	-2.947439e+01	-1.095638e+03
2.790000e-06	-4.167786e-06	-1.699604e-08	-3.031370e+01	-1.112580e+03
2.800000e-06	-4.281465e-06	-1.724148e-08	-3.114052e+01	-1.128616e+03
2.810000e-06	-4.393392e-06	-1.747442e-08	-3.195461e+01	-1.143840e+03
2.820000e-06	-4.503711e-06	-1.769785e-08	-3.275700e+01	-1.158313e+03
2.830000e-06	-4.612513e-06	-1.791154e-08	-3.354835e+01	-1.172066e+03
2.840000e-06	-4.719826e-06	-1.811366e-08	-3.432887e+01	-1.185110e+03
2.850000e-06	-4.825583e-06	-1.830256e-08	-3.509808e+01	-1.197451e+03
2.860000e-06	-4.929576e-06	-1.847861e-08	-3.585445e+01	-1.209102e+03
2.870000e-06	-5.031599e-06	-1.864410e-08	-3.659650e+01	-1.220092e+03
2.880000e-06	-5.131745e-06	-1.880219e-08	-3.732490e+01	-1.230467e+03
2.890000e-06	-5.230155e-06	-1.895441e-08	-3.804067e+01	-1.240283e+03
2.900000e-06	-5.326809e-06	-1.909922e-08	-3.874367e+01	-1.249600e+03
2.910000e-06	-5.421471e-06	-1.923529e-08	-3.943217e+01	-1.258467e+03
2.920000e-06	-5.514036e-06	-1.936365e-08	-4.010543e+01	-1.266912e+03
2.930000e-06	-5.604690e-06	-1.948511e-08	-4.076478e+01	-1.274946e+03
2.940000e-06	-5.693476e-06	-1.959915e-08	-4.141055e+01	-1.282561e+03
