# Temperatura_=_64.19
# Concentracion g/m^3_=_28200.0
# C_Vs_to_Am_M_A/Vsm_=_65563218390.804596
# pendiente_HvsI_1/m_=_3716.3
# ordenada_HvsI_A/m_=_1297.0
# frecuencia_Hz_=_302376.1583370156

Tiempo_(s)	Campo_(V.s)	Magnetizacion_(V.s)	Campo_(kA/m)	Magnetizacion_(A/m)
0.000000e+00	-7.407299e-06	-2.502607e-08	-5.319423e+01	-1.639357e+03
1.000000e-08	-7.403523e-06	-2.502133e-08	-5.316710e+01	-1.638834e+03
2.000000e-08	-7.397380e-06	-2.500970e-08	-5.312299e+01	-1.638149e+03
3.000000e-08	-7.388888e-06	-2.499921e-08	-5.306201e+01	-1.637331e+03
4.000000e-08	-7.377811e-06	-2.498875e-08	-5.298246e+01	-1.636406e+03
5.000000e-08	-7.363947e-06	-2.497374e-08	-5.288290e+01	-1.635385e+03
6.000000e-08	-7.347355e-06	-2.495303e-08	-5.276374e+01	-1.634261e+03
7.000000e-08	-7.328474e-06	-2.493248e-08	-5.262816e+01	-1.633015e+03
8.000000e-08	-7.307490e-06	-2.492409e-08	-5.247746e+01	-1.631625e+03
9.000000e-08	-7.283922e-06	-2.496086e-08	-5.230822e+01	-1.630072e+03
1.000000e-07	-7.257301e-06	-2.491178e-08	-5.211704e+01	-1.628353e+03
1.100000e-07	-7.227779e-06	-2.482165e-08	-5.190503e+01	-1.626485e+03
1.200000e-07	-7.195848e-06	-2.479058e-08	-5.167573e+01	-1.624501e+03
1.300000e-07	-7.161481e-06	-2.476888e-08	-5.142892e+01	-1.622439e+03
1.400000e-07	-7.124796e-06	-2.470954e-08	-5.116548e+01	-1.620334e+03
1.500000e-07	-7.086208e-06	-2.462815e-08	-5.088836e+01	-1.618200e+03
1.600000e-07	-7.045506e-06	-2.469380e-08	-5.059607e+01	-1.616023e+03
1.700000e-07	-7.002289e-06	-2.461889e-08	-5.028572e+01	-1.613757e+03
1.800000e-07	-6.956668e-06	-2.449217e-08	-4.995810e+01	-1.611335e+03
1.900000e-07	-6.908467e-06	-2.453516e-08	-4.961195e+01	-1.608677e+03
2.000000e-07	-6.857326e-06	-2.445321e-08	-4.924469e+01	-1.605713e+03
2.100000e-07	-6.803522e-06	-2.440880e-08	-4.885831e+01	-1.602396e+03
2.200000e-07	-6.747164e-06	-2.438945e-08	-4.845358e+01	-1.598711e+03
2.300000e-07	-6.688239e-06	-2.430488e-08	-4.803042e+01	-1.594682e+03
2.400000e-07	-6.626888e-06	-2.422942e-08	-4.758984e+01	-1.590356e+03
2.500000e-07	-6.563104e-06	-2.412372e-08	-4.713178e+01	-1.585795e+03
2.600000e-07	-6.496774e-06	-2.408142e-08	-4.665545e+01	-1.581056e+03
2.700000e-07	-6.427988e-06	-2.400598e-08	-4.616147e+01	-1.576172e+03
2.800000e-07	-6.356934e-06	-2.393488e-08	-4.565121e+01	-1.571148e+03
2.900000e-07	-6.283362e-06	-2.386231e-08	-4.512287e+01	-1.565957e+03
3.000000e-07	-6.207157e-06	-2.375416e-08	-4.457561e+01	-1.560552e+03
3.100000e-07	-6.128368e-06	-2.366854e-08	-4.400981e+01	-1.554880e+03
3.200000e-07	-6.047109e-06	-2.356160e-08	-4.342626e+01	-1.548893e+03
3.300000e-07	-5.963783e-06	-2.349881e-08	-4.282786e+01	-1.542569e+03
3.400000e-07	-5.878547e-06	-2.339840e-08	-4.221576e+01	-1.535909e+03
3.500000e-07	-5.791353e-06	-2.328359e-08	-4.158959e+01	-1.528935e+03
3.600000e-07	-5.702037e-06	-2.317709e-08	-4.094818e+01	-1.521680e+03
3.700000e-07	-5.610517e-06	-2.305590e-08	-4.029095e+01	-1.514172e+03
3.800000e-07	-5.516994e-06	-2.293971e-08	-3.961933e+01	-1.506421e+03
3.900000e-07	-5.421586e-06	-2.281987e-08	-3.893417e+01	-1.498409e+03
4.000000e-07	-5.324239e-06	-2.270635e-08	-3.823510e+01	-1.490095e+03
4.100000e-07	-5.224954e-06	-2.255543e-08	-3.752209e+01	-1.481421e+03
4.200000e-07	-5.123893e-06	-2.240692e-08	-3.679634e+01	-1.472327e+03
4.300000e-07	-5.021116e-06	-2.225839e-08	-3.605827e+01	-1.462768e+03
4.400000e-07	-4.916532e-06	-2.210784e-08	-3.530721e+01	-1.452721e+03
4.500000e-07	-4.810115e-06	-2.194986e-08	-3.454300e+01	-1.442194e+03
4.600000e-07	-4.701967e-06	-2.179155e-08	-3.376636e+01	-1.431213e+03
4.700000e-07	-4.592219e-06	-2.162307e-08	-3.297822e+01	-1.419813e+03
4.800000e-07	-4.480915e-06	-2.143411e-08	-3.217891e+01	-1.408017e+03
4.900000e-07	-4.367936e-06	-2.124564e-08	-3.136757e+01	-1.395821e+03
5.000000e-07	-4.253075e-06	-2.105116e-08	-3.054271e+01	-1.383188e+03
5.100000e-07	-4.136400e-06	-2.084871e-08	-2.970484e+01	-1.370047e+03
5.200000e-07	-4.018168e-06	-2.062917e-08	-2.885577e+01	-1.356306e+03
5.300000e-07	-3.898570e-06	-2.040670e-08	-2.799690e+01	-1.341872e+03
5.400000e-07	-3.777578e-06	-2.017415e-08	-2.712802e+01	-1.326667e+03
5.500000e-07	-3.655077e-06	-1.992927e-08	-2.624830e+01	-1.310645e+03
5.600000e-07	-3.531128e-06	-1.967254e-08	-2.535818e+01	-1.293792e+03
5.700000e-07	-3.405876e-06	-1.940650e-08	-2.445870e+01	-1.276122e+03
5.800000e-07	-3.279470e-06	-1.912790e-08	-2.355094e+01	-1.257654e+03
5.900000e-07	-3.151950e-06	-1.883421e-08	-2.263518e+01	-1.238393e+03
6.000000e-07	-3.023230e-06	-1.852695e-08	-2.171080e+01	-1.218307e+03
6.100000e-07	-2.893223e-06	-1.820125e-08	-2.077718e+01	-1.197317e+03
6.200000e-07	-2.762043e-06	-1.785898e-08	-1.983513e+01	-1.175294e+03
6.300000e-07	-2.629902e-06	-1.749730e-08	-1.888618e+01	-1.152079e+03
6.400000e-07	-2.496821e-06	-1.712064e-08	-1.793049e+01	-1.127500e+03
6.500000e-07	-2.362853e-06	-1.672306e-08	-1.696842e+01	-1.101394e+03
6.600000e-07	-2.228157e-06	-1.630332e-08	-1.600112e+01	-1.073628e+03
6.700000e-07	-2.092749e-06	-1.585555e-08	-1.502871e+01	-1.044098e+03
6.800000e-07	-1.956613e-06	-1.537570e-08	-1.405108e+01	-1.012717e+03
6.900000e-07	-1.819694e-06	-1.486586e-08	-1.306781e+01	-9.793872e+02
7.000000e-07	-1.681989e-06	-1.432396e-08	-1.207891e+01	-9.439746e+02
7.100000e-07	-1.543622e-06	-1.374958e-08	-1.108525e+01	-9.062848e+02
7.200000e-07	-1.404667e-06	-1.313530e-08	-1.008737e+01	-8.660593e+02
7.300000e-07	-1.265227e-06	-1.247800e-08	-9.086007e+00	-8.229972e+02
7.400000e-07	-1.125328e-06	-1.177007e-08	-8.081347e+00	-7.768013e+02
7.500000e-07	-9.849824e-07	-1.101199e-08	-7.073479e+00	-7.272424e+02
7.600000e-07	-8.442505e-07	-1.020582e-08	-6.062837e+00	-6.742267e+02
7.700000e-07	-7.032315e-07	-9.352618e-09	-5.050134e+00	-6.178499e+02
7.800000e-07	-5.620106e-07	-8.453295e-09	-4.035981e+00	-5.584193e+02
7.900000e-07	-4.205416e-07	-7.511403e-09	-3.020046e+00	-4.964346e+02
8.000000e-07	-2.788392e-07	-6.538090e-09	-2.002435e+00	-4.325248e+02
8.100000e-07	-1.370053e-07	-5.540849e-09	-9.838798e-01	-3.673505e+02
8.200000e-07	4.940440e-09	-4.533835e-09	3.547891e-02	-3.014911e+02
8.300000e-07	1.469293e-07	-3.525853e-09	1.055147e+00	-2.353411e+02
8.400000e-07	2.888902e-07	-2.517807e-09	2.074615e+00	-1.690409e+02
8.500000e-07	4.307572e-07	-1.505243e-09	3.093408e+00	-1.024608e+02
8.600000e-07	5.724667e-07	-4.840864e-10	4.111070e+00	-3.524618e+01
8.700000e-07	7.140058e-07	5.507096e-10	5.127508e+00	3.308158e+01
8.800000e-07	8.552208e-07	1.610011e-09	6.141619e+00	1.029877e+02
8.900000e-07	9.961006e-07	2.699883e-09	7.153323e+00	1.747781e+02
9.000000e-07	1.136650e-06	3.820319e-09	8.162656e+00	2.484756e+02
9.100000e-07	1.276789e-06	4.965960e-09	9.169038e+00	3.237469e+02
9.200000e-07	1.416451e-06	6.129476e-09	1.017200e+01	3.998954e+02
9.300000e-07	1.555552e-06	7.294376e-09	1.117092e+01	4.759251e+02
9.400000e-07	1.694013e-06	8.436492e-09	1.216526e+01	5.506608e+02
9.500000e-07	1.831724e-06	9.533739e-09	1.315421e+01	6.229032e+02
9.600000e-07	1.968665e-06	1.056993e-08	1.413762e+01	6.915859e+02
9.700000e-07	2.104749e-06	1.153512e-08	1.511489e+01	7.559050e+02
9.800000e-07	2.239959e-06	1.242813e-08	1.608588e+01	8.153981e+02
9.900000e-07	2.374441e-06	1.325241e-08	1.705163e+01	8.699608e+02
1.000000e-06	2.508073e-06	1.400994e-08	1.801129e+01	9.198030e+02
1.010000e-06	2.640719e-06	1.470507e-08	1.896386e+01	9.653606e+02
1.020000e-06	2.772454e-06	1.534473e-08	1.990989e+01	1.007184e+03
1.030000e-06	2.903242e-06	1.593540e-08	2.084913e+01	1.045830e+03
1.040000e-06	3.032864e-06	1.648147e-08	2.177998e+01	1.081778e+03
1.050000e-06	3.161180e-06	1.698905e-08	2.270146e+01	1.115382e+03
1.060000e-06	3.288335e-06	1.746090e-08	2.361460e+01	1.146870e+03
1.070000e-06	3.414485e-06	1.790377e-08	2.452053e+01	1.176365e+03
1.080000e-06	3.539536e-06	1.831949e-08	2.541856e+01	1.203937e+03
1.090000e-06	3.663381e-06	1.870955e-08	2.630793e+01	1.229650e+03
1.100000e-06	3.785900e-06	1.907670e-08	2.718778e+01	1.253601e+03
1.110000e-06	3.906944e-06	1.942037e-08	2.805703e+01	1.275936e+03
1.120000e-06	4.026484e-06	1.974331e-08	2.891549e+01	1.296843e+03
1.130000e-06	4.144610e-06	2.004725e-08	2.976379e+01	1.316528e+03
1.140000e-06	4.261350e-06	2.033271e-08	3.060214e+01	1.335182e+03
1.150000e-06	4.376531e-06	2.060273e-08	3.142929e+01	1.352950e+03
1.160000e-06	4.489895e-06	2.085787e-08	3.224339e+01	1.369922e+03
1.170000e-06	4.601469e-06	2.109798e-08	3.304464e+01	1.386123e+03
1.180000e-06	4.711470e-06	2.132641e-08	3.383460e+01	1.401538e+03
1.190000e-06	4.819980e-06	2.154507e-08	3.461384e+01	1.416136e+03
1.200000e-06	4.926929e-06	2.175350e-08	3.538188e+01	1.429897e+03
1.210000e-06	5.031978e-06	2.195013e-08	3.613627e+01	1.442833e+03
1.220000e-06	5.135039e-06	2.213621e-08	3.687638e+01	1.454997e+03
1.230000e-06	5.236284e-06	2.231152e-08	3.760346e+01	1.466478e+03
1.240000e-06	5.335754e-06	2.247811e-08	3.831779e+01	1.477380e+03
1.250000e-06	5.433175e-06	2.263770e-08	3.901740e+01	1.487800e+03
1.260000e-06	5.528417e-06	2.279102e-08	3.970136e+01	1.497805e+03
1.270000e-06	5.621739e-06	2.293835e-08	4.037153e+01	1.507422e+03
1.280000e-06	5.713186e-06	2.307868e-08	4.102825e+01	1.516638e+03
1.290000e-06	5.802525e-06	2.321135e-08	4.166982e+01	1.525410e+03
1.300000e-06	5.889690e-06	2.333675e-08	4.229578e+01	1.533687e+03
1.310000e-06	5.974783e-06	2.345412e-08	4.290686e+01	1.541430e+03
1.320000e-06	6.057799e-06	2.356461e-08	4.350302e+01	1.548635e+03
1.330000e-06	6.138620e-06	2.366893e-08	4.408343e+01	1.555332e+03
1.340000e-06	6.217196e-06	2.376706e-08	4.464771e+01	1.561588e+03
1.350000e-06	6.293487e-06	2.385855e-08	4.519558e+01	1.567492e+03
1.360000e-06	6.367259e-06	2.394439e-08	4.572536e+01	1.573129e+03
1.370000e-06	6.438612e-06	2.402714e-08	4.623777e+01	1.578568e+03
1.380000e-06	6.507781e-06	2.410657e-08	4.673449e+01	1.583846e+03
1.390000e-06	6.574655e-06	2.418321e-08	4.721474e+01	1.588961e+03
1.400000e-06	6.639110e-06	2.425729e-08	4.767761e+01	1.593885e+03
1.410000e-06	6.701211e-06	2.432729e-08	4.812358e+01	1.598573e+03
1.420000e-06	6.761067e-06	2.439169e-08	4.855342e+01	1.602979e+03
1.430000e-06	6.818524e-06	2.445183e-08	4.896604e+01	1.607076e+03
1.440000e-06	6.873524e-06	2.450955e-08	4.936101e+01	1.610862e+03
1.450000e-06	6.925934e-06	2.456613e-08	4.973738e+01	1.614356e+03
1.460000e-06	6.975430e-06	2.462110e-08	5.009283e+01	1.617598e+03
1.470000e-06	7.022248e-06	2.467280e-08	5.042905e+01	1.620627e+03
1.480000e-06	7.066752e-06	2.472045e-08	5.074865e+01	1.623476e+03
1.490000e-06	7.108748e-06	2.476256e-08	5.105023e+01	1.626159e+03
1.500000e-06	7.148073e-06	2.479801e-08	5.133264e+01	1.628668e+03
1.510000e-06	7.184998e-06	2.482931e-08	5.159781e+01	1.630979e+03
1.520000e-06	7.219461e-06	2.485894e-08	5.184530e+01	1.633061e+03
1.530000e-06	7.251244e-06	2.488574e-08	5.207354e+01	1.634890e+03
1.540000e-06	7.280501e-06	2.490960e-08	5.228365e+01	1.636457e+03
1.550000e-06	7.307171e-06	2.493024e-08	5.247517e+01	1.637775e+03
1.560000e-06	7.331057e-06	2.494952e-08	5.264671e+01	1.638872e+03
1.570000e-06	7.352366e-06	2.496834e-08	5.279973e+01	1.639791e+03
1.580000e-06	7.371177e-06	2.498439e-08	5.293482e+01	1.640570e+03
1.590000e-06	7.387268e-06	2.499665e-08	5.305037e+01	1.641237e+03
1.600000e-06	7.400524e-06	2.500518e-08	5.314557e+01	1.641801e+03
1.610000e-06	7.410842e-06	2.501135e-08	5.321967e+01	1.642251e+03
1.620000e-06	7.418301e-06	2.501537e-08	5.327323e+01	1.642561e+03
1.630000e-06	7.423224e-06	2.501689e-08	5.330858e+01	1.642700e+03
1.640000e-06	7.425537e-06	2.501620e-08	5.332520e+01	1.642644e+03
1.650000e-06	7.425190e-06	2.501610e-08	5.332271e+01	1.642383e+03
1.660000e-06	7.422441e-06	2.500583e-08	5.330296e+01	1.641925e+03
1.670000e-06	7.417254e-06	2.499829e-08	5.326572e+01	1.641294e+03
1.680000e-06	7.409534e-06	2.499179e-08	5.321027e+01	1.640520e+03
1.690000e-06	7.399376e-06	2.498004e-08	5.313732e+01	1.639630e+03
1.700000e-06	7.386575e-06	2.496688e-08	5.304540e+01	1.638642e+03
1.710000e-06	7.371121e-06	2.495372e-08	5.293442e+01	1.637556e+03
1.720000e-06	7.353419e-06	2.493641e-08	5.280730e+01	1.636356e+03
1.730000e-06	7.333666e-06	2.488241e-08	5.266544e+01	1.635019e+03
1.740000e-06	7.311340e-06	2.478900e-08	5.250511e+01	1.633525e+03
1.750000e-06	7.285628e-06	2.481627e-08	5.232046e+01	1.631864e+03
1.760000e-06	7.256404e-06	2.483606e-08	5.211060e+01	1.630046e+03
1.770000e-06	7.224389e-06	2.477952e-08	5.188069e+01	1.628098e+03
1.780000e-06	7.190298e-06	2.475916e-08	5.163587e+01	1.626058e+03
1.790000e-06	7.154445e-06	2.482570e-08	5.137840e+01	1.623965e+03
1.800000e-06	7.116870e-06	2.470464e-08	5.110856e+01	1.621841e+03
1.810000e-06	7.076968e-06	2.463673e-08	5.082201e+01	1.619683e+03
1.820000e-06	7.034484e-06	2.473641e-08	5.051691e+01	1.617455e+03
1.830000e-06	6.989764e-06	2.458580e-08	5.019577e+01	1.615097e+03
1.840000e-06	6.942457e-06	2.462595e-08	4.985604e+01	1.612531e+03
1.850000e-06	6.892475e-06	2.456732e-08	4.949711e+01	1.609683e+03
1.860000e-06	6.839826e-06	2.446464e-08	4.911902e+01	1.606494e+03
1.870000e-06	6.784307e-06	2.448559e-08	4.872032e+01	1.602940e+03
1.880000e-06	6.726401e-06	2.435513e-08	4.830448e+01	1.599028e+03
1.890000e-06	6.665966e-06	2.438447e-08	4.787047e+01	1.594801e+03
1.900000e-06	6.602837e-06	2.429540e-08	4.741712e+01	1.590316e+03
1.910000e-06	6.537325e-06	2.420827e-08	4.694666e+01	1.585635e+03
1.920000e-06	6.469403e-06	2.415419e-08	4.645889e+01	1.580800e+03
1.930000e-06	6.398960e-06	2.400999e-08	4.595301e+01	1.575827e+03
1.940000e-06	6.325983e-06	2.400705e-08	4.542894e+01	1.570699e+03
1.950000e-06	6.250582e-06	2.390421e-08	4.488746e+01	1.565377e+03
1.960000e-06	6.172586e-06	2.383692e-08	4.432735e+01	1.559805e+03
1.970000e-06	6.092151e-06	2.372581e-08	4.374972e+01	1.553934e+03
1.980000e-06	6.009727e-06	2.360737e-08	4.315780e+01	1.547731e+03
1.990000e-06	5.925151e-06	2.354112e-08	4.255044e+01	1.541189e+03
2.000000e-06	5.838306e-06	2.340908e-08	4.192678e+01	1.534323e+03
2.010000e-06	5.749343e-06	2.333820e-08	4.128790e+01	1.527164e+03
2.020000e-06	5.658467e-06	2.321669e-08	4.063529e+01	1.519743e+03
2.030000e-06	5.565600e-06	2.309892e-08	3.996838e+01	1.512079e+03
2.040000e-06	5.470640e-06	2.295031e-08	3.928645e+01	1.504163e+03
2.050000e-06	5.373737e-06	2.282810e-08	3.859055e+01	1.495962e+03
2.060000e-06	5.275074e-06	2.271817e-08	3.788202e+01	1.487423e+03
2.070000e-06	5.174692e-06	2.257786e-08	3.716114e+01	1.478485e+03
2.080000e-06	5.072314e-06	2.244478e-08	3.642594e+01	1.469095e+03
2.090000e-06	4.967983e-06	2.228678e-08	3.567670e+01	1.459222e+03
2.100000e-06	4.861995e-06	2.213532e-08	3.491557e+01	1.448864e+03
2.110000e-06	4.754505e-06	2.196255e-08	3.414365e+01	1.438041e+03
2.120000e-06	4.645416e-06	2.180256e-08	3.336024e+01	1.426786e+03
2.130000e-06	4.534585e-06	2.162336e-08	3.256433e+01	1.415129e+03
2.140000e-06	4.422000e-06	2.143696e-08	3.175582e+01	1.403078e+03
2.150000e-06	4.307687e-06	2.123950e-08	3.093490e+01	1.390607e+03
2.160000e-06	4.191632e-06	2.104437e-08	3.010147e+01	1.377657e+03
2.170000e-06	4.073767e-06	2.084631e-08	2.925504e+01	1.364141e+03
2.180000e-06	3.954245e-06	2.063309e-08	2.839672e+01	1.349964e+03
2.190000e-06	3.833282e-06	2.040885e-08	2.752805e+01	1.335041e+03
2.200000e-06	3.711021e-06	2.016775e-08	2.665005e+01	1.319313e+03
2.210000e-06	3.587378e-06	1.991903e-08	2.576213e+01	1.302756e+03
2.220000e-06	3.462325e-06	1.965391e-08	2.486408e+01	1.285374e+03
2.230000e-06	3.335929e-06	1.938283e-08	2.395639e+01	1.267189e+03
2.240000e-06	3.208217e-06	1.909113e-08	2.303925e+01	1.248212e+03
2.250000e-06	3.079370e-06	1.878892e-08	2.211396e+01	1.228426e+03
2.260000e-06	2.949528e-06	1.847329e-08	2.118152e+01	1.207771e+03
2.270000e-06	2.818706e-06	1.814586e-08	2.024205e+01	1.186133e+03
2.280000e-06	2.686871e-06	1.780036e-08	1.929529e+01	1.163363e+03
2.290000e-06	2.553900e-06	1.743503e-08	1.834039e+01	1.139290e+03
2.300000e-06	2.419908e-06	1.704468e-08	1.737815e+01	1.113746e+03
2.310000e-06	2.285084e-06	1.662776e-08	1.640993e+01	1.086585e+03
2.320000e-06	2.149509e-06	1.619113e-08	1.543633e+01	1.057696e+03
2.330000e-06	2.013275e-06	1.573038e-08	1.445798e+01	1.026985e+03
2.340000e-06	1.876366e-06	1.524080e-08	1.347480e+01	9.943631e+02
2.350000e-06	1.738824e-06	1.471467e-08	1.248706e+01	9.597128e+02
2.360000e-06	1.600754e-06	1.414838e-08	1.149553e+01	9.228621e+02
2.370000e-06	1.462204e-06	1.354165e-08	1.050056e+01	8.835747e+02
2.380000e-06	1.323197e-06	1.289575e-08	9.502311e+00	8.415606e+02
2.390000e-06	1.183778e-06	1.220801e-08	8.501092e+00	7.965146e+02
2.400000e-06	1.043860e-06	1.147123e-08	7.496300e+00	7.481753e+02
2.410000e-06	9.034095e-07	1.067988e-08	6.487678e+00	6.963933e+02
2.420000e-06	7.625187e-07	9.836784e-09	5.475895e+00	6.411920e+02
2.430000e-06	6.212327e-07	8.948136e-09	4.461274e+00	5.828031e+02
2.440000e-06	4.797004e-07	8.021944e-09	3.444885e+00	5.216627e+02
2.450000e-06	3.380194e-07	7.060196e-09	2.427427e+00	4.583632e+02
2.460000e-06	1.961296e-07	6.071065e-09	1.408470e+00	3.935667e+02
2.470000e-06	5.413208e-08	5.063086e-09	3.887401e-01	3.278946e+02
2.480000e-06	-8.788634e-08	4.044915e-09	-6.311404e-01	2.618175e+02
2.490000e-06	-2.299091e-07	3.024059e-09	-1.651052e+00	1.955715e+02
2.500000e-06	-3.718304e-07	2.001483e-09	-2.670235e+00	1.291214e+02
2.510000e-06	-5.135893e-07	9.753433e-10	-3.688252e+00	6.218397e+01
2.520000e-06	-6.551772e-07	-5.985868e-11	-4.705040e+00	-5.689596e+00
2.530000e-06	-7.965213e-07	-1.110887e-09	-5.720078e+00	-7.498628e+01
2.540000e-06	-9.375860e-07	-2.187548e-09	-6.733110e+00	-1.460848e+02
2.550000e-06	-1.078203e-06	-3.295376e-09	-7.742930e+00	-2.191208e+02
2.560000e-06	-1.218218e-06	-4.435388e-09	-8.748421e+00	-2.938924e+02
2.570000e-06	-1.357697e-06	-5.603209e-09	-9.750061e+00	-3.698291e+02
2.580000e-06	-1.496660e-06	-6.782212e-09	-1.074800e+01	-4.460305e+02
2.590000e-06	-1.635059e-06	-7.947744e-09	-1.174189e+01	-5.213689e+02
2.600000e-06	-1.772853e-06	-9.075152e-09	-1.273143e+01	-5.946349e+02
2.610000e-06	-1.910027e-06	-1.014615e-08	-1.371653e+01	-6.646977e+02
2.620000e-06	-2.046500e-06	-1.114947e-08	-1.469658e+01	-7.306477e+02
2.630000e-06	-2.182219e-06	-1.208016e-08	-1.567123e+01	-7.918952e+02
2.640000e-06	-2.317182e-06	-1.293658e-08	-1.664043e+01	-8.482101e+02
2.650000e-06	-2.451256e-06	-1.372319e-08	-1.760327e+01	-8.996982e+02
2.660000e-06	-2.584265e-06	-1.444852e-08	-1.855844e+01	-9.467270e+02
2.670000e-06	-2.716180e-06	-1.511800e-08	-1.950578e+01	-9.898190e+02
2.680000e-06	-2.847076e-06	-1.573691e-08	-2.044578e+01	-1.029540e+03
2.690000e-06	-2.977015e-06	-1.631030e-08	-2.137891e+01	-1.066404e+03
2.700000e-06	-3.105954e-06	-1.684108e-08	-2.230486e+01	-1.100814e+03
2.710000e-06	-3.233842e-06	-1.733064e-08	-2.322327e+01	-1.133040e+03
2.720000e-06	-3.360672e-06	-1.778684e-08	-2.413408e+01	-1.163238e+03
2.730000e-06	-3.486237e-06	-1.821280e-08	-2.503581e+01	-1.191490e+03
2.740000e-06	-3.610395e-06	-1.860965e-08	-2.592742e+01	-1.217858e+03
2.750000e-06	-3.733291e-06	-1.898279e-08	-2.680998e+01	-1.242425e+03
2.760000e-06	-3.854956e-06	-1.933269e-08	-2.768369e+01	-1.265318e+03
2.770000e-06	-3.975255e-06	-1.966230e-08	-2.854760e+01	-1.286713e+03
2.780000e-06	-4.094082e-06	-1.997466e-08	-2.940094e+01	-1.306812e+03
2.790000e-06	-4.211292e-06	-2.027085e-08	-3.024265e+01	-1.325815e+03
2.800000e-06	-4.326776e-06	-2.055132e-08	-3.107199e+01	-1.343887e+03
2.810000e-06	-4.440526e-06	-2.081424e-08	-3.188886e+01	-1.361137e+03
2.820000e-06	-4.552480e-06	-2.106111e-08	-3.269284e+01	-1.377614e+03
2.830000e-06	-4.662645e-06	-2.129682e-08	-3.348397e+01	-1.393314e+03
2.840000e-06	-4.771232e-06	-2.152370e-08	-3.426377e+01	-1.408208e+03
2.850000e-06	-4.878328e-06	-2.174051e-08	-3.503286e+01	-1.422269e+03
2.860000e-06	-4.983772e-06	-2.194598e-08	-3.579009e+01	-1.435496e+03
2.870000e-06	-5.087412e-06	-2.213990e-08	-3.653436e+01	-1.447928e+03
2.880000e-06	-5.189054e-06	-2.232262e-08	-3.726428e+01	-1.459642e+03
2.890000e-06	-5.288711e-06	-2.249578e-08	-3.797996e+01	-1.470740e+03
2.900000e-06	-5.386626e-06	-2.265965e-08	-3.868312e+01	-1.481322e+03
2.910000e-06	-5.482749e-06	-2.281336e-08	-3.937341e+01	-1.491471e+03
2.920000e-06	-5.576823e-06	-2.295778e-08	-4.004898e+01	-1.501227e+03
2.930000e-06	-5.668785e-06	-2.309565e-08	-4.070939e+01	-1.510591e+03
2.940000e-06	-5.758748e-06	-2.322850e-08	-4.135544e+01	-1.519528e+03
