# Temperatura_=_52.5
# Concentracion g/m^3_=_28200.0
# C_Vs_to_Am_M_A/Vsm_=_65563218390.804596
# pendiente_HvsI_1/m_=_3716.3
# ordenada_HvsI_A/m_=_1297.0
# frecuencia_Hz_=_302370.96519976296

Tiempo_(s)	Campo_(V.s)	Magnetizacion_(V.s)	Campo_(kA/m)	Magnetizacion_(A/m)
0.000000e+00	-7.301253e-06	-2.306598e-08	-5.318585e+01	-1.509277e+03
1.000000e-08	-7.297081e-06	-2.305859e-08	-5.315546e+01	-1.508807e+03
2.000000e-08	-7.290595e-06	-2.304769e-08	-5.310821e+01	-1.508192e+03
3.000000e-08	-7.281690e-06	-2.303795e-08	-5.304334e+01	-1.507451e+03
4.000000e-08	-7.270186e-06	-2.302652e-08	-5.295954e+01	-1.506601e+03
5.000000e-08	-7.255926e-06	-2.301095e-08	-5.285566e+01	-1.505651e+03
6.000000e-08	-7.239062e-06	-2.299203e-08	-5.273282e+01	-1.504598e+03
7.000000e-08	-7.220045e-06	-2.297281e-08	-5.259429e+01	-1.503432e+03
8.000000e-08	-7.198897e-06	-2.296825e-08	-5.244024e+01	-1.502141e+03
9.000000e-08	-7.175137e-06	-2.298244e-08	-5.226716e+01	-1.500716e+03
1.000000e-07	-7.148412e-06	-2.293965e-08	-5.207248e+01	-1.499158e+03
1.100000e-07	-7.118893e-06	-2.287672e-08	-5.185745e+01	-1.497481e+03
1.200000e-07	-7.086877e-06	-2.284545e-08	-5.162423e+01	-1.495707e+03
1.300000e-07	-7.052395e-06	-2.281514e-08	-5.137305e+01	-1.493860e+03
1.400000e-07	-7.015794e-06	-2.274934e-08	-5.110643e+01	-1.491959e+03
1.500000e-07	-6.977460e-06	-2.270884e-08	-5.082719e+01	-1.490008e+03
1.600000e-07	-6.936951e-06	-2.274623e-08	-5.053210e+01	-1.487986e+03
1.700000e-07	-6.893890e-06	-2.265209e-08	-5.021842e+01	-1.485857e+03
1.800000e-07	-6.848442e-06	-2.259152e-08	-4.988736e+01	-1.483564e+03
1.900000e-07	-6.800410e-06	-2.260108e-08	-4.953747e+01	-1.481049e+03
2.000000e-07	-6.749524e-06	-2.252118e-08	-4.916679e+01	-1.478259e+03
2.100000e-07	-6.695959e-06	-2.249166e-08	-4.877660e+01	-1.475162e+03
2.200000e-07	-6.639919e-06	-2.246292e-08	-4.836837e+01	-1.471752e+03
2.300000e-07	-6.581437e-06	-2.241158e-08	-4.794236e+01	-1.468047e+03
2.400000e-07	-6.520520e-06	-2.233131e-08	-4.749862e+01	-1.464088e+03
2.500000e-07	-6.457169e-06	-2.224297e-08	-4.703713e+01	-1.459920e+03
2.600000e-07	-6.391321e-06	-2.218928e-08	-4.655746e+01	-1.455586e+03
2.700000e-07	-6.323085e-06	-2.210986e-08	-4.606040e+01	-1.451110e+03
2.800000e-07	-6.252524e-06	-2.203550e-08	-4.554640e+01	-1.446495e+03
2.900000e-07	-6.179533e-06	-2.196891e-08	-4.501470e+01	-1.441721e+03
3.000000e-07	-6.103969e-06	-2.189269e-08	-4.446426e+01	-1.436752e+03
3.100000e-07	-6.025824e-06	-2.180947e-08	-4.389501e+01	-1.431547e+03
3.200000e-07	-5.945325e-06	-2.171329e-08	-4.330862e+01	-1.426072e+03
3.300000e-07	-5.862682e-06	-2.163932e-08	-4.270661e+01	-1.420308e+03
3.400000e-07	-5.778072e-06	-2.154220e-08	-4.209027e+01	-1.414250e+03
3.500000e-07	-5.691601e-06	-2.144823e-08	-4.146036e+01	-1.407912e+03
3.600000e-07	-5.603190e-06	-2.135970e-08	-4.081634e+01	-1.401312e+03
3.700000e-07	-5.512652e-06	-2.125443e-08	-4.015682e+01	-1.394461e+03
3.800000e-07	-5.420066e-06	-2.114533e-08	-3.948237e+01	-1.387362e+03
3.900000e-07	-5.325660e-06	-2.102657e-08	-3.879468e+01	-1.379995e+03
4.000000e-07	-5.229454e-06	-2.090466e-08	-3.809387e+01	-1.372325e+03
4.100000e-07	-5.131293e-06	-2.076598e-08	-3.737882e+01	-1.364310e+03
4.200000e-07	-5.031230e-06	-2.063776e-08	-3.664991e+01	-1.355904e+03
4.300000e-07	-4.929458e-06	-2.050669e-08	-3.590855e+01	-1.347077e+03
4.400000e-07	-4.825933e-06	-2.036517e-08	-3.515442e+01	-1.337815e+03
4.500000e-07	-4.720725e-06	-2.021596e-08	-3.438804e+01	-1.328121e+03
4.600000e-07	-4.613793e-06	-2.006469e-08	-3.360910e+01	-1.318015e+03
4.700000e-07	-4.505180e-06	-1.990832e-08	-3.281791e+01	-1.307515e+03
4.800000e-07	-4.395021e-06	-1.974070e-08	-3.201545e+01	-1.296631e+03
4.900000e-07	-4.283217e-06	-1.957126e-08	-3.120102e+01	-1.285350e+03
5.000000e-07	-4.169805e-06	-1.939089e-08	-3.037487e+01	-1.273633e+03
5.100000e-07	-4.054688e-06	-1.919918e-08	-2.953630e+01	-1.261418e+03
5.200000e-07	-3.937905e-06	-1.899407e-08	-2.868560e+01	-1.248629e+03
5.300000e-07	-3.819639e-06	-1.878445e-08	-2.782409e+01	-1.235191e+03
5.400000e-07	-3.699933e-06	-1.856734e-08	-2.695210e+01	-1.221045e+03
5.500000e-07	-3.578891e-06	-1.833889e-08	-2.607037e+01	-1.206152e+03
5.600000e-07	-3.456462e-06	-1.809887e-08	-2.517854e+01	-1.190498e+03
5.700000e-07	-3.332633e-06	-1.784669e-08	-2.427650e+01	-1.174087e+03
5.800000e-07	-3.207601e-06	-1.758455e-08	-2.336571e+01	-1.156922e+03
5.900000e-07	-3.081451e-06	-1.731275e-08	-2.244678e+01	-1.138988e+03
6.000000e-07	-2.954165e-06	-1.703207e-08	-2.151956e+01	-1.120243e+03
6.100000e-07	-2.825787e-06	-1.673262e-08	-2.058439e+01	-1.100603e+03
6.200000e-07	-2.696451e-06	-1.641321e-08	-1.964225e+01	-1.079950e+03
6.300000e-07	-2.566111e-06	-1.607267e-08	-1.869279e+01	-1.058143e+03
6.400000e-07	-2.434660e-06	-1.571211e-08	-1.773523e+01	-1.035035e+03
6.500000e-07	-2.302262e-06	-1.533337e-08	-1.677078e+01	-1.010490e+03
6.600000e-07	-2.169143e-06	-1.493610e-08	-1.580108e+01	-9.843919e+02
6.700000e-07	-2.035389e-06	-1.451665e-08	-1.482675e+01	-9.566470e+02
6.800000e-07	-1.900940e-06	-1.406910e-08	-1.384737e+01	-9.271695e+02
6.900000e-07	-1.765801e-06	-1.359308e-08	-1.286295e+01	-8.958614e+02
7.000000e-07	-1.630024e-06	-1.308361e-08	-1.187388e+01	-8.625910e+02
7.100000e-07	-1.493639e-06	-1.253944e-08	-1.088039e+01	-8.271786e+02
7.200000e-07	-1.356752e-06	-1.195973e-08	-9.883239e+00	-7.893990e+02
7.300000e-07	-1.219465e-06	-1.134167e-08	-8.883168e+00	-7.490038e+02
7.400000e-07	-1.081764e-06	-1.068200e-08	-7.880091e+00	-7.057635e+02
7.500000e-07	-9.436658e-07	-9.978163e-09	-6.874117e+00	-6.595228e+02
7.600000e-07	-8.052405e-07	-9.228830e-09	-5.865760e+00	-6.102545e+02
7.700000e-07	-6.664122e-07	-8.434496e-09	-4.854468e+00	-5.581005e+02
7.800000e-07	-5.272164e-07	-7.600634e-09	-3.840499e+00	-5.033838e+02
7.900000e-07	-3.877984e-07	-6.735964e-09	-2.824911e+00	-4.465856e+02
8.000000e-07	-2.482374e-07	-5.849652e-09	-1.808281e+00	-3.882849e+02
8.100000e-07	-1.085728e-07	-4.947431e-09	-7.908969e-01	-3.290725e+02
8.200000e-07	3.125157e-08	-4.038318e-09	2.276515e-01	-2.694528e+02
8.300000e-07	1.711186e-07	-3.127384e-09	1.246510e+00	-2.097561e+02
8.400000e-07	3.109063e-07	-2.216878e-09	2.264792e+00	-1.500824e+02
8.500000e-07	4.505185e-07	-1.307287e-09	3.281794e+00	-9.029033e+01
8.600000e-07	5.899735e-07	-3.943459e-10	4.297652e+00	-3.003867e+01
8.700000e-07	7.292588e-07	5.294627e-10	5.312273e+00	3.112507e+01
8.800000e-07	8.682799e-07	1.477000e-09	6.324970e+00	9.364567e+01
8.900000e-07	1.006986e-06	2.452934e-09	7.335373e+00	1.578339e+02
9.000000e-07	1.145249e-06	3.456877e-09	8.342547e+00	2.237590e+02
9.100000e-07	1.283048e-06	4.484552e-09	9.346342e+00	2.911829e+02
9.200000e-07	1.420379e-06	5.527913e-09	1.034673e+01	3.595503e+02
9.300000e-07	1.557149e-06	6.574145e-09	1.134303e+01	4.280376e+02
9.400000e-07	1.693320e-06	7.606034e-09	1.233496e+01	4.956508e+02
9.500000e-07	1.828909e-06	8.604496e-09	1.332266e+01	5.613531e+02
9.600000e-07	1.963818e-06	9.552685e-09	1.430540e+01	6.241976e+02
9.700000e-07	2.097899e-06	1.044404e-08	1.528211e+01	6.834389e+02
9.800000e-07	2.231152e-06	1.127444e-08	1.625279e+01	7.386056e+02
9.900000e-07	2.363666e-06	1.204192e-08	1.721808e+01	7.895222e+02
1.000000e-06	2.495404e-06	1.274841e-08	1.817773e+01	8.362823e+02
1.010000e-06	2.626202e-06	1.340083e-08	1.913053e+01	8.791832e+02
1.020000e-06	2.755895e-06	1.400470e-08	2.007527e+01	9.186396e+02
1.030000e-06	2.884516e-06	1.456262e-08	2.101221e+01	9.550968e+02
1.040000e-06	3.012074e-06	1.507851e-08	2.194140e+01	9.889602e+02
1.050000e-06	3.138497e-06	1.555693e-08	2.286233e+01	1.020553e+03
1.060000e-06	3.263885e-06	1.600325e-08	2.377571e+01	1.050103e+03
1.070000e-06	3.388229e-06	1.642107e-08	2.468150e+01	1.077760e+03
1.080000e-06	3.511291e-06	1.681112e-08	2.557794e+01	1.103627e+03
1.090000e-06	3.633015e-06	1.717694e-08	2.646464e+01	1.127792e+03
1.100000e-06	3.753456e-06	1.752146e-08	2.734198e+01	1.150359e+03
1.110000e-06	3.872562e-06	1.784472e-08	2.820961e+01	1.171460e+03
1.120000e-06	3.990277e-06	1.814772e-08	2.906711e+01	1.191250e+03
1.130000e-06	4.106557e-06	1.843304e-08	2.991414e+01	1.209894e+03
1.140000e-06	4.221179e-06	1.870297e-08	3.074910e+01	1.227544e+03
1.150000e-06	4.334057e-06	1.895691e-08	3.157136e+01	1.244316e+03
1.160000e-06	4.445396e-06	1.919659e-08	3.238241e+01	1.260284e+03
1.170000e-06	4.555313e-06	1.942400e-08	3.318310e+01	1.275478e+03
1.180000e-06	4.663790e-06	1.963948e-08	3.397330e+01	1.289897e+03
1.190000e-06	4.770597e-06	1.984483e-08	3.475133e+01	1.303532e+03
1.200000e-06	4.875595e-06	2.003957e-08	3.551619e+01	1.316381e+03
1.210000e-06	4.978768e-06	2.022250e-08	3.626775e+01	1.328466e+03
1.220000e-06	5.080191e-06	2.039529e-08	3.700656e+01	1.339840e+03
1.230000e-06	5.179833e-06	2.055981e-08	3.773241e+01	1.350579e+03
1.240000e-06	5.277441e-06	2.071604e-08	3.844343e+01	1.360767e+03
1.250000e-06	5.372971e-06	2.086479e-08	3.913932e+01	1.370483e+03
1.260000e-06	5.466578e-06	2.100693e-08	3.982119e+01	1.379779e+03
1.270000e-06	5.558336e-06	2.114183e-08	4.048961e+01	1.388677e+03
1.280000e-06	5.648062e-06	2.127039e-08	4.114321e+01	1.397167e+03
1.290000e-06	5.735663e-06	2.139216e-08	4.178134e+01	1.405220e+03
1.300000e-06	5.821282e-06	2.150752e-08	4.240503e+01	1.412801e+03
1.310000e-06	5.904944e-06	2.161583e-08	4.301446e+01	1.419891e+03
1.320000e-06	5.986457e-06	2.171627e-08	4.360824e+01	1.426494e+03
1.330000e-06	6.065705e-06	2.180988e-08	4.418552e+01	1.432647e+03
1.340000e-06	6.142723e-06	2.189871e-08	4.474656e+01	1.438411e+03
1.350000e-06	6.217348e-06	2.198346e-08	4.529016e+01	1.443865e+03
1.360000e-06	6.289559e-06	2.206292e-08	4.581618e+01	1.449082e+03
1.370000e-06	6.359543e-06	2.213807e-08	4.632598e+01	1.454119e+03
1.380000e-06	6.427337e-06	2.221017e-08	4.681982e+01	1.459006e+03
1.390000e-06	6.492730e-06	2.228073e-08	4.729618e+01	1.463740e+03
1.400000e-06	6.555744e-06	2.234909e-08	4.775520e+01	1.468292e+03
1.410000e-06	6.616693e-06	2.241320e-08	4.819918e+01	1.472620e+03
1.420000e-06	6.675368e-06	2.247294e-08	4.862660e+01	1.476686e+03
1.430000e-06	6.731581e-06	2.252892e-08	4.903609e+01	1.480460e+03
1.440000e-06	6.785421e-06	2.258140e-08	4.942828e+01	1.483938e+03
1.450000e-06	6.836557e-06	2.263212e-08	4.980078e+01	1.487134e+03
1.460000e-06	6.884842e-06	2.268136e-08	5.015251e+01	1.490082e+03
1.470000e-06	6.930647e-06	2.272757e-08	5.048618e+01	1.492818e+03
1.480000e-06	6.974083e-06	2.276938e-08	5.080259e+01	1.495374e+03
1.490000e-06	7.014892e-06	2.280578e-08	5.109986e+01	1.497768e+03
1.500000e-06	7.053183e-06	2.283653e-08	5.137879e+01	1.500001e+03
1.510000e-06	7.089194e-06	2.286332e-08	5.164111e+01	1.502059e+03
1.520000e-06	7.122635e-06	2.288896e-08	5.188471e+01	1.503921e+03
1.530000e-06	7.153448e-06	2.291485e-08	5.210917e+01	1.505568e+03
1.540000e-06	7.181928e-06	2.293889e-08	5.231663e+01	1.506990e+03
1.550000e-06	7.207836e-06	2.295886e-08	5.250536e+01	1.508192e+03
1.560000e-06	7.230965e-06	2.297558e-08	5.267384e+01	1.509193e+03
1.570000e-06	7.251600e-06	2.298910e-08	5.282416e+01	1.510022e+03
1.580000e-06	7.269745e-06	2.299872e-08	5.295633e+01	1.510709e+03
1.590000e-06	7.285159e-06	2.300773e-08	5.306861e+01	1.511278e+03
1.600000e-06	7.297740e-06	2.301517e-08	5.316026e+01	1.511738e+03
1.610000e-06	7.307405e-06	2.302049e-08	5.323066e+01	1.512088e+03
1.620000e-06	7.314264e-06	2.302383e-08	5.328063e+01	1.512312e+03
1.630000e-06	7.318612e-06	2.302472e-08	5.331230e+01	1.512393e+03
1.640000e-06	7.320383e-06	2.302418e-08	5.332520e+01	1.512312e+03
1.650000e-06	7.319538e-06	2.302173e-08	5.331905e+01	1.512063e+03
1.660000e-06	7.316352e-06	2.301456e-08	5.329584e+01	1.511648e+03
1.670000e-06	7.310717e-06	2.300855e-08	5.325479e+01	1.511082e+03
1.680000e-06	7.302559e-06	2.300104e-08	5.319537e+01	1.510383e+03
1.690000e-06	7.292014e-06	2.298971e-08	5.311855e+01	1.509570e+03
1.700000e-06	7.278877e-06	2.297714e-08	5.302286e+01	1.508655e+03
1.710000e-06	7.263199e-06	2.296533e-08	5.290865e+01	1.507639e+03
1.720000e-06	7.245373e-06	2.295184e-08	5.277879e+01	1.506514e+03
1.730000e-06	7.225473e-06	2.290583e-08	5.263384e+01	1.505268e+03
1.740000e-06	7.202855e-06	2.284813e-08	5.246907e+01	1.503891e+03
1.750000e-06	7.176830e-06	2.285548e-08	5.227949e+01	1.502379e+03
1.760000e-06	7.147450e-06	2.285087e-08	5.206548e+01	1.500742e+03
1.770000e-06	7.115382e-06	2.281066e-08	5.183188e+01	1.498999e+03
1.780000e-06	7.081341e-06	2.281335e-08	5.158390e+01	1.497175e+03
1.790000e-06	7.045690e-06	2.283531e-08	5.132420e+01	1.495292e+03
1.800000e-06	7.008371e-06	2.274418e-08	5.105236e+01	1.493358e+03
1.810000e-06	6.968624e-06	2.273647e-08	5.076282e+01	1.491365e+03
1.820000e-06	6.926263e-06	2.274770e-08	5.045425e+01	1.489279e+03
1.830000e-06	6.881702e-06	2.265049e-08	5.012964e+01	1.487051e+03
1.840000e-06	6.834598e-06	2.267143e-08	4.978651e+01	1.484621e+03
1.850000e-06	6.784852e-06	2.260544e-08	4.942414e+01	1.481933e+03
1.860000e-06	6.732485e-06	2.254341e-08	4.904267e+01	1.478948e+03
1.870000e-06	6.677354e-06	2.249185e-08	4.864107e+01	1.475648e+03
1.880000e-06	6.619774e-06	2.239932e-08	4.822163e+01	1.472045e+03
1.890000e-06	6.559706e-06	2.241266e-08	4.778407e+01	1.468170e+03
1.900000e-06	6.497081e-06	2.233667e-08	4.732787e+01	1.464071e+03
1.910000e-06	6.431977e-06	2.228363e-08	4.685363e+01	1.459792e+03
1.920000e-06	6.364463e-06	2.223271e-08	4.636182e+01	1.455365e+03
1.930000e-06	6.294617e-06	2.212533e-08	4.585303e+01	1.450800e+03
1.940000e-06	6.222340e-06	2.207481e-08	4.532653e+01	1.446085e+03
1.950000e-06	6.147669e-06	2.198215e-08	4.478259e+01	1.441190e+03
1.960000e-06	6.070399e-06	2.192014e-08	4.421972e+01	1.436073e+03
1.970000e-06	5.990615e-06	2.182942e-08	4.363853e+01	1.430698e+03
1.980000e-06	5.908761e-06	2.174526e-08	4.304226e+01	1.425037e+03
1.990000e-06	5.824875e-06	2.166913e-08	4.243120e+01	1.419083e+03
2.000000e-06	5.738888e-06	2.155304e-08	4.180483e+01	1.412843e+03
2.010000e-06	5.650738e-06	2.146746e-08	4.116270e+01	1.406333e+03
2.020000e-06	5.560609e-06	2.135841e-08	4.050616e+01	1.399571e+03
2.030000e-06	5.468605e-06	2.125165e-08	3.983596e+01	1.392561e+03
2.040000e-06	5.374646e-06	2.113361e-08	3.915151e+01	1.385292e+03
2.050000e-06	5.278738e-06	2.102747e-08	3.845288e+01	1.377735e+03
2.060000e-06	5.181037e-06	2.091670e-08	3.774117e+01	1.369847e+03
2.070000e-06	5.081661e-06	2.078518e-08	3.701727e+01	1.361585e+03
2.080000e-06	4.980468e-06	2.065589e-08	3.628013e+01	1.352911e+03
2.090000e-06	4.877338e-06	2.051880e-08	3.552888e+01	1.343803e+03
2.100000e-06	4.772400e-06	2.038192e-08	3.476446e+01	1.334261e+03
2.110000e-06	4.665924e-06	2.023252e-08	3.398884e+01	1.324299e+03
2.120000e-06	4.557903e-06	2.007994e-08	3.320196e+01	1.313938e+03
2.130000e-06	4.448325e-06	1.990745e-08	3.240375e+01	1.303191e+03
2.140000e-06	4.337067e-06	1.972660e-08	3.159329e+01	1.292054e+03
2.150000e-06	4.224042e-06	1.954766e-08	3.076996e+01	1.280498e+03
2.160000e-06	4.109382e-06	1.937171e-08	2.993472e+01	1.268469e+03
2.170000e-06	3.993063e-06	1.918804e-08	2.908740e+01	1.255893e+03
2.180000e-06	3.875071e-06	1.899120e-08	2.822789e+01	1.242694e+03
2.190000e-06	3.755463e-06	1.878345e-08	2.735660e+01	1.228806e+03
2.200000e-06	3.634467e-06	1.856153e-08	2.647521e+01	1.214182e+03
2.210000e-06	3.512217e-06	1.832986e-08	2.558468e+01	1.198800e+03
2.220000e-06	3.388664e-06	1.808868e-08	2.468467e+01	1.182658e+03
2.230000e-06	3.263821e-06	1.783867e-08	2.377525e+01	1.165762e+03
2.240000e-06	3.137846e-06	1.756514e-08	2.285758e+01	1.148105e+03
2.250000e-06	3.010683e-06	1.727633e-08	2.193127e+01	1.129656e+03
2.260000e-06	2.882274e-06	1.697651e-08	2.099588e+01	1.110347e+03
2.270000e-06	2.752833e-06	1.666731e-08	2.005296e+01	1.090071e+03
2.280000e-06	2.622476e-06	1.634635e-08	1.910338e+01	1.068693e+03
2.290000e-06	2.491233e-06	1.600851e-08	1.814734e+01	1.046066e+03
2.300000e-06	2.359044e-06	1.564759e-08	1.718442e+01	1.022047e+03
2.310000e-06	2.226007e-06	1.525953e-08	1.621531e+01	9.965149e+02
2.320000e-06	2.092308e-06	1.484857e-08	1.524138e+01	9.693675e+02
2.330000e-06	1.957948e-06	1.441258e-08	1.426263e+01	9.405183e+02
2.340000e-06	1.822813e-06	1.394994e-08	1.327825e+01	9.098764e+02
2.350000e-06	1.686935e-06	1.345541e-08	1.228845e+01	8.773242e+02
2.360000e-06	1.550513e-06	1.292664e-08	1.129468e+01	8.427000e+02
2.370000e-06	1.413625e-06	1.235709e-08	1.029752e+01	8.057933e+02
2.380000e-06	1.276295e-06	1.174916e-08	9.297152e+00	7.663601e+02
2.390000e-06	1.138558e-06	1.110598e-08	8.293808e+00	7.241582e+02
2.400000e-06	1.000490e-06	1.041882e-08	7.288054e+00	6.789993e+02
2.410000e-06	8.621356e-07	9.687576e-09	6.280212e+00	6.308048e+02
2.420000e-06	7.234570e-07	8.910424e-09	5.270010e+00	5.796530e+02
2.430000e-06	5.844337e-07	8.092283e-09	4.257297e+00	5.258031e+02
2.440000e-06	4.452191e-07	7.238370e-09	3.243191e+00	4.696847e+02
2.450000e-06	3.058899e-07	6.354510e-09	2.228250e+00	4.118507e+02
2.460000e-06	1.663591e-07	5.451283e-09	1.211840e+00	3.528990e+02
2.470000e-06	2.670506e-08	4.537810e-09	1.945326e-01	2.933755e+02
2.480000e-06	-1.130669e-07	3.622481e-09	-8.236342e-01	2.336816e+02
2.490000e-06	-2.528010e-07	2.706522e-09	-1.841524e+00	1.740032e+02
2.500000e-06	-3.924015e-07	1.790840e-09	-2.858442e+00	1.142831e+02
2.510000e-06	-5.318397e-07	8.722308e-10	-3.874177e+00	5.424343e+01
2.520000e-06	-6.710324e-07	-5.669822e-11	-4.888124e+00	-6.540949e+00
2.530000e-06	-8.100345e-07	-1.001931e-09	-5.900683e+00	-6.853230e+01
2.540000e-06	-9.487791e-07	-1.970055e-09	-6.911365e+00	-1.321031e+02
2.550000e-06	-1.087165e-06	-2.965825e-09	-7.919434e+00	-1.974190e+02
2.560000e-06	-1.225108e-06	-3.987693e-09	-8.924276e+00	-2.643559e+02
2.570000e-06	-1.362594e-06	-5.030959e-09	-9.925792e+00	-3.324692e+02
2.580000e-06	-1.499661e-06	-6.084177e-09	-1.092425e+01	-4.010221e+02
2.590000e-06	-1.636258e-06	-7.130681e-09	-1.191929e+01	-4.690677e+02
2.600000e-06	-1.772251e-06	-8.153938e-09	-1.290993e+01	-5.355692e+02
2.610000e-06	-1.907493e-06	-9.134701e-09	-1.389510e+01	-5.995330e+02
2.620000e-06	-2.041892e-06	-1.005909e-08	-1.487413e+01	-6.601310e+02
2.630000e-06	-2.175492e-06	-1.092346e-08	-1.584734e+01	-7.167889e+02
2.640000e-06	-2.308297e-06	-1.172507e-08	-1.681475e+01	-7.692261e+02
2.650000e-06	-2.440250e-06	-1.246602e-08	-1.777596e+01	-8.174460e+02
2.660000e-06	-2.571217e-06	-1.314986e-08	-1.872999e+01	-8.616823e+02
2.670000e-06	-2.701183e-06	-1.377895e-08	-1.967672e+01	-9.023182e+02
2.680000e-06	-2.830271e-06	-1.435948e-08	-2.061706e+01	-9.397973e+02
2.690000e-06	-2.958441e-06	-1.489428e-08	-2.155071e+01	-9.745457e+02
2.700000e-06	-3.085525e-06	-1.538662e-08	-2.247646e+01	-1.006919e+03
2.710000e-06	-3.211437e-06	-1.584531e-08	-2.339366e+01	-1.037178e+03
2.720000e-06	-3.336209e-06	-1.627607e-08	-2.430256e+01	-1.065499e+03
2.730000e-06	-3.459765e-06	-1.667934e-08	-2.520260e+01	-1.091996e+03
2.740000e-06	-3.581987e-06	-1.705689e-08	-2.609292e+01	-1.116758e+03
2.750000e-06	-3.702921e-06	-1.741066e-08	-2.697386e+01	-1.139883e+03
2.760000e-06	-3.822542e-06	-1.774229e-08	-2.784524e+01	-1.161491e+03
2.770000e-06	-3.940686e-06	-1.805463e-08	-2.870586e+01	-1.181731e+03
2.780000e-06	-4.057337e-06	-1.834844e-08	-2.955560e+01	-1.200766e+03
2.790000e-06	-4.172415e-06	-1.862446e-08	-3.039388e+01	-1.218756e+03
2.800000e-06	-4.285744e-06	-1.888388e-08	-3.121943e+01	-1.235832e+03
2.810000e-06	-4.397329e-06	-1.912976e-08	-3.203227e+01	-1.252082e+03
2.820000e-06	-4.507245e-06	-1.936670e-08	-3.283295e+01	-1.267551e+03
2.830000e-06	-4.615649e-06	-1.959621e-08	-3.362261e+01	-1.282249e+03
2.840000e-06	-4.722616e-06	-1.981530e-08	-3.440182e+01	-1.296166e+03
2.850000e-06	-4.828031e-06	-2.001842e-08	-3.516971e+01	-1.309295e+03
2.860000e-06	-4.931674e-06	-2.020572e-08	-3.592469e+01	-1.321649e+03
2.870000e-06	-5.033346e-06	-2.038104e-08	-3.666532e+01	-1.333269e+03
2.880000e-06	-5.133148e-06	-2.054789e-08	-3.739233e+01	-1.344226e+03
2.890000e-06	-5.231230e-06	-2.070756e-08	-3.810680e+01	-1.354602e+03
2.900000e-06	-5.327545e-06	-2.085948e-08	-3.880841e+01	-1.364480e+03
2.910000e-06	-5.421873e-06	-2.100498e-08	-3.949554e+01	-1.373922e+03
2.920000e-06	-5.514180e-06	-2.114479e-08	-4.016795e+01	-1.382962e+03
2.930000e-06	-5.604573e-06	-2.127726e-08	-4.082641e+01	-1.391601e+03
2.940000e-06	-5.693005e-06	-2.140094e-08	-4.147060e+01	-1.399815e+03
