# Temperatura_=_68.66
# Concentracion g/m^3_=_28200.0
# C_Vs_to_Am_M_A/Vsm_=_65563218390.804596
# pendiente_HvsI_1/m_=_3716.3
# ordenada_HvsI_A/m_=_1297.0
# frecuencia_Hz_=_302372.2035591447

Tiempo_(s)	Campo_(V.s)	Magnetizacion_(V.s)	Campo_(kA/m)	Magnetizacion_(A/m)
0.000000e+00	-7.358157e-06	-2.514888e-08	-5.318643e+01	-1.646760e+03
1.000000e-08	-7.354215e-06	-2.514461e-08	-5.315795e+01	-1.646187e+03
2.000000e-08	-7.347842e-06	-2.513231e-08	-5.311188e+01	-1.645455e+03
3.000000e-08	-7.339063e-06	-2.511897e-08	-5.304842e+01	-1.644596e+03
4.000000e-08	-7.327698e-06	-2.510370e-08	-5.296627e+01	-1.643633e+03
5.000000e-08	-7.313605e-06	-2.508485e-08	-5.286440e+01	-1.642572e+03
6.000000e-08	-7.296847e-06	-2.506376e-08	-5.274327e+01	-1.641401e+03
7.000000e-08	-7.277875e-06	-2.504277e-08	-5.260614e+01	-1.640097e+03
8.000000e-08	-7.256836e-06	-2.504135e-08	-5.245406e+01	-1.638636e+03
9.000000e-08	-7.233130e-06	-2.507053e-08	-5.228271e+01	-1.636999e+03
1.000000e-07	-7.206361e-06	-2.501937e-08	-5.208922e+01	-1.635188e+03
1.100000e-07	-7.176803e-06	-2.494046e-08	-5.187557e+01	-1.633221e+03
1.200000e-07	-7.144744e-06	-2.490592e-08	-5.164384e+01	-1.631137e+03
1.300000e-07	-7.110195e-06	-2.487487e-08	-5.139411e+01	-1.628976e+03
1.400000e-07	-7.073437e-06	-2.481002e-08	-5.112842e+01	-1.626770e+03
1.500000e-07	-7.034918e-06	-2.475047e-08	-5.084999e+01	-1.624531e+03
1.600000e-07	-6.994304e-06	-2.479930e-08	-5.055642e+01	-1.622240e+03
1.700000e-07	-6.951126e-06	-2.470272e-08	-5.024433e+01	-1.619844e+03
1.800000e-07	-6.905597e-06	-2.461853e-08	-4.991523e+01	-1.617274e+03
1.900000e-07	-6.857480e-06	-2.463867e-08	-4.956743e+01	-1.614449e+03
2.000000e-07	-6.806404e-06	-2.454962e-08	-4.919824e+01	-1.611304e+03
2.100000e-07	-6.752659e-06	-2.451795e-08	-4.880976e+01	-1.607798e+03
2.200000e-07	-6.696441e-06	-2.446437e-08	-4.840340e+01	-1.603926e+03
2.300000e-07	-6.637692e-06	-2.438005e-08	-4.797875e+01	-1.599720e+03
2.400000e-07	-6.576523e-06	-2.431303e-08	-4.753661e+01	-1.595235e+03
2.500000e-07	-6.512990e-06	-2.422152e-08	-4.707737e+01	-1.590534e+03
2.600000e-07	-6.446908e-06	-2.415698e-08	-4.659972e+01	-1.585672e+03
2.700000e-07	-6.378323e-06	-2.408103e-08	-4.610397e+01	-1.580675e+03
2.800000e-07	-6.307417e-06	-2.401991e-08	-4.559145e+01	-1.575540e+03
2.900000e-07	-6.234087e-06	-2.393066e-08	-4.506140e+01	-1.570230e+03
3.000000e-07	-6.158179e-06	-2.383075e-08	-4.451272e+01	-1.564692e+03
3.100000e-07	-6.079644e-06	-2.375554e-08	-4.394505e+01	-1.558867e+03
3.200000e-07	-5.998674e-06	-2.364527e-08	-4.335978e+01	-1.552710e+03
3.300000e-07	-5.915597e-06	-2.355789e-08	-4.275929e+01	-1.546202e+03
3.400000e-07	-5.830583e-06	-2.345286e-08	-4.214479e+01	-1.539349e+03
3.500000e-07	-5.743706e-06	-2.334892e-08	-4.151682e+01	-1.532182e+03
3.600000e-07	-5.654796e-06	-2.323955e-08	-4.087415e+01	-1.524738e+03
3.700000e-07	-5.563732e-06	-2.311575e-08	-4.021592e+01	-1.517047e+03
3.800000e-07	-5.470689e-06	-2.299835e-08	-3.954338e+01	-1.509117e+03
3.900000e-07	-5.375737e-06	-2.286713e-08	-3.885706e+01	-1.500930e+03
4.000000e-07	-5.278845e-06	-2.273821e-08	-3.815669e+01	-1.492440e+03
4.100000e-07	-5.180031e-06	-2.259316e-08	-3.744245e+01	-1.483584e+03
4.200000e-07	-5.079365e-06	-2.245638e-08	-3.671481e+01	-1.474302e+03
4.300000e-07	-4.976939e-06	-2.230403e-08	-3.597445e+01	-1.464548e+03
4.400000e-07	-4.872772e-06	-2.214312e-08	-3.522151e+01	-1.454303e+03
4.500000e-07	-4.766902e-06	-2.198093e-08	-3.445626e+01	-1.443576e+03
4.600000e-07	-4.659276e-06	-2.181410e-08	-3.367831e+01	-1.432396e+03
4.700000e-07	-4.549967e-06	-2.163860e-08	-3.288820e+01	-1.420800e+03
4.800000e-07	-4.439097e-06	-2.145342e-08	-3.208681e+01	-1.408809e+03
4.900000e-07	-4.326608e-06	-2.126731e-08	-3.127371e+01	-1.396417e+03
5.000000e-07	-4.212382e-06	-2.106545e-08	-3.044806e+01	-1.383583e+03
5.100000e-07	-4.096381e-06	-2.085580e-08	-2.960958e+01	-1.370234e+03
5.200000e-07	-3.978818e-06	-2.063590e-08	-2.875981e+01	-1.356279e+03
5.300000e-07	-3.859818e-06	-2.041078e-08	-2.789964e+01	-1.341624e+03
5.400000e-07	-3.739347e-06	-2.017272e-08	-2.702885e+01	-1.326198e+03
5.500000e-07	-3.617508e-06	-1.992338e-08	-2.614817e+01	-1.309958e+03
5.600000e-07	-3.494316e-06	-1.966266e-08	-2.525771e+01	-1.292897e+03
5.700000e-07	-3.369754e-06	-1.938930e-08	-2.435735e+01	-1.275028e+03
5.800000e-07	-3.243989e-06	-1.910603e-08	-2.344829e+01	-1.256372e+03
5.900000e-07	-3.117021e-06	-1.881049e-08	-2.253054e+01	-1.236926e+03
6.000000e-07	-2.988871e-06	-1.850314e-08	-2.160424e+01	-1.216650e+03
6.100000e-07	-2.859612e-06	-1.817670e-08	-2.066992e+01	-1.195454e+03
6.200000e-07	-2.729309e-06	-1.783223e-08	-1.972807e+01	-1.173201e+03
6.300000e-07	-2.597957e-06	-1.746674e-08	-1.877862e+01	-1.149724e+03
6.400000e-07	-2.465558e-06	-1.708215e-08	-1.782162e+01	-1.124850e+03
6.500000e-07	-2.332293e-06	-1.667773e-08	-1.685835e+01	-1.098422e+03
6.600000e-07	-2.198310e-06	-1.625091e-08	-1.588989e+01	-1.070316e+03
6.700000e-07	-2.063633e-06	-1.579874e-08	-1.491641e+01	-1.040437e+03
6.800000e-07	-1.928161e-06	-1.531724e-08	-1.393718e+01	-1.008708e+03
6.900000e-07	-1.791857e-06	-1.480706e-08	-1.295195e+01	-9.750388e+02
7.000000e-07	-1.654912e-06	-1.426154e-08	-1.196208e+01	-9.392988e+02
7.100000e-07	-1.517494e-06	-1.367909e-08	-1.096880e+01	-9.012926e+02
7.200000e-07	-1.379644e-06	-1.305817e-08	-9.972382e+00	-8.607592e+02
7.300000e-07	-1.241319e-06	-1.239387e-08	-8.972537e+00	-8.173955e+02
7.400000e-07	-1.102477e-06	-1.168137e-08	-7.968953e+00	-7.709051e+02
7.500000e-07	-9.631699e-07	-1.091925e-08	-6.962011e+00	-7.210637e+02
7.600000e-07	-8.234300e-07	-1.010847e-08	-5.951940e+00	-6.677866e+02
7.700000e-07	-6.833392e-07	-9.249295e-09	-4.939331e+00	-6.111805e+02
7.800000e-07	-5.430225e-07	-8.345358e-09	-3.925090e+00	-5.515617e+02
7.900000e-07	-4.025381e-07	-7.402833e-09	-2.909637e+00	-4.894333e+02
8.000000e-07	-2.618905e-07	-6.430588e-09	-1.893004e+00	-4.254176e+02
8.100000e-07	-1.210288e-07	-5.435158e-09	-8.748240e-01	-3.601579e+02
8.200000e-07	1.995496e-08	-4.426040e-09	1.442390e-01	-2.942060e+02
8.300000e-07	1.608970e-07	-3.412165e-09	1.163000e+00	-2.279234e+02
8.400000e-07	3.017682e-07	-2.396993e-09	2.181249e+00	-1.614184e+02
8.500000e-07	4.426053e-07	-1.378951e-09	3.199252e+00	-9.453774e+01
8.600000e-07	5.833003e-07	-3.545755e-10	4.216227e+00	-2.691893e+01
8.700000e-07	7.237269e-07	6.851210e-10	5.231263e+00	4.190464e+01
8.800000e-07	8.639166e-07	1.752624e-09	6.244586e+00	1.123657e+02
8.900000e-07	1.003820e-06	2.852089e-09	7.255840e+00	1.847208e+02
9.000000e-07	1.143349e-06	3.981445e-09	8.264384e+00	2.589344e+02
9.100000e-07	1.282455e-06	5.134998e-09	9.269875e+00	3.346152e+02
9.200000e-07	1.421020e-06	6.303576e-09	1.027146e+01	4.110201e+02
9.300000e-07	1.558945e-06	7.469218e-09	1.126841e+01	4.871250e+02
9.400000e-07	1.696256e-06	8.609049e-09	1.226093e+01	5.617512e+02
9.500000e-07	1.832977e-06	9.701001e-09	1.324918e+01	6.337194e+02
9.600000e-07	1.969044e-06	1.072992e-08	1.423270e+01	7.020024e+02
9.700000e-07	2.104280e-06	1.168882e-08	1.521022e+01	7.658468e+02
9.800000e-07	2.238682e-06	1.257589e-08	1.618170e+01	8.248425e+02
9.900000e-07	2.372272e-06	1.339335e-08	1.714732e+01	8.789295e+02
1.000000e-06	2.504914e-06	1.414209e-08	1.810609e+01	9.283488e+02
1.010000e-06	2.636640e-06	1.482885e-08	1.905824e+01	9.735498e+02
1.020000e-06	2.767456e-06	1.546390e-08	2.000380e+01	1.015081e+03
1.030000e-06	2.897210e-06	1.605288e-08	2.094169e+01	1.053487e+03
1.040000e-06	3.025885e-06	1.659896e-08	2.187178e+01	1.089228e+03
1.050000e-06	3.153411e-06	1.710557e-08	2.279357e+01	1.122644e+03
1.060000e-06	3.279750e-06	1.757528e-08	2.370678e+01	1.153949e+03
1.070000e-06	3.405025e-06	1.801451e-08	2.461230e+01	1.183268e+03
1.080000e-06	3.529126e-06	1.842523e-08	2.550933e+01	1.210674e+03
1.090000e-06	3.651946e-06	1.881036e-08	2.639710e+01	1.236243e+03
1.100000e-06	3.773472e-06	1.917379e-08	2.727552e+01	1.260084e+03
1.110000e-06	3.893588e-06	1.951620e-08	2.814374e+01	1.282349e+03
1.120000e-06	4.012238e-06	1.983837e-08	2.900137e+01	1.303226e+03
1.130000e-06	4.129463e-06	2.014279e-08	2.984870e+01	1.322914e+03
1.140000e-06	4.245221e-06	2.043118e-08	3.068543e+01	1.341590e+03
1.150000e-06	4.359321e-06	2.070275e-08	3.151017e+01	1.359386e+03
1.160000e-06	4.471704e-06	2.095797e-08	3.232249e+01	1.376374e+03
1.170000e-06	4.582440e-06	2.119865e-08	3.312292e+01	1.392575e+03
1.180000e-06	4.691656e-06	2.142685e-08	3.391236e+01	1.407970e+03
1.190000e-06	4.799306e-06	2.164312e-08	3.469048e+01	1.422534e+03
1.200000e-06	4.905245e-06	2.184973e-08	3.545623e+01	1.436257e+03
1.210000e-06	5.009370e-06	2.204710e-08	3.620887e+01	1.449166e+03
1.220000e-06	5.111636e-06	2.223450e-08	3.694807e+01	1.461324e+03
1.230000e-06	5.212047e-06	2.241109e-08	3.767387e+01	1.472826e+03
1.240000e-06	5.310537e-06	2.257721e-08	3.838577e+01	1.483777e+03
1.250000e-06	5.406999e-06	2.273703e-08	3.908302e+01	1.494266e+03
1.260000e-06	5.501504e-06	2.289404e-08	3.976613e+01	1.504352e+03
1.270000e-06	5.594131e-06	2.304460e-08	4.043566e+01	1.514051e+03
1.280000e-06	5.684729e-06	2.318502e-08	4.109052e+01	1.523340e+03
1.290000e-06	5.773201e-06	2.331547e-08	4.173001e+01	1.532171e+03
1.300000e-06	5.859566e-06	2.343977e-08	4.235428e+01	1.540493e+03
1.310000e-06	5.943885e-06	2.355849e-08	4.296376e+01	1.548273e+03
1.320000e-06	6.026162e-06	2.367111e-08	4.355847e+01	1.555512e+03
1.330000e-06	6.106250e-06	2.377723e-08	4.413737e+01	1.562249e+03
1.340000e-06	6.184035e-06	2.387560e-08	4.469961e+01	1.568553e+03
1.350000e-06	6.259527e-06	2.396785e-08	4.524529e+01	1.574513e+03
1.360000e-06	6.332606e-06	2.405598e-08	4.577352e+01	1.580211e+03
1.370000e-06	6.403354e-06	2.414057e-08	4.628490e+01	1.585709e+03
1.380000e-06	6.471871e-06	2.421994e-08	4.678016e+01	1.591036e+03
1.390000e-06	6.538035e-06	2.429584e-08	4.725841e+01	1.596186e+03
1.400000e-06	6.601795e-06	2.436934e-08	4.771928e+01	1.601126e+03
1.410000e-06	6.663285e-06	2.443801e-08	4.816374e+01	1.605814e+03
1.420000e-06	6.722550e-06	2.450227e-08	4.859212e+01	1.610213e+03
1.430000e-06	6.779436e-06	2.456499e-08	4.900331e+01	1.614302e+03
1.440000e-06	6.833931e-06	2.462536e-08	4.939721e+01	1.618087e+03
1.450000e-06	6.885778e-06	2.468249e-08	4.977197e+01	1.621595e+03
1.460000e-06	6.934704e-06	2.473583e-08	5.012562e+01	1.624865e+03
1.470000e-06	6.981007e-06	2.478713e-08	5.046031e+01	1.627939e+03
1.480000e-06	7.024983e-06	2.483514e-08	5.077818e+01	1.630840e+03
1.490000e-06	7.066420e-06	2.487454e-08	5.107770e+01	1.633577e+03
1.500000e-06	7.105264e-06	2.490865e-08	5.135847e+01	1.636134e+03
1.510000e-06	7.141727e-06	2.494018e-08	5.162203e+01	1.638482e+03
1.520000e-06	7.175647e-06	2.496977e-08	5.186721e+01	1.640590e+03
1.530000e-06	7.206890e-06	2.499879e-08	5.209304e+01	1.642434e+03
1.540000e-06	7.235679e-06	2.502595e-08	5.230114e+01	1.644010e+03
1.550000e-06	7.261940e-06	2.505113e-08	5.249096e+01	1.645334e+03
1.560000e-06	7.285472e-06	2.507208e-08	5.266105e+01	1.646441e+03
1.570000e-06	7.306447e-06	2.508807e-08	5.281266e+01	1.647371e+03
1.580000e-06	7.324898e-06	2.509971e-08	5.294603e+01	1.648163e+03
1.590000e-06	7.340654e-06	2.510658e-08	5.305992e+01	1.648842e+03
1.600000e-06	7.353589e-06	2.511243e-08	5.315342e+01	1.649409e+03
1.610000e-06	7.363586e-06	2.511853e-08	5.322568e+01	1.649851e+03
1.620000e-06	7.370747e-06	2.512389e-08	5.327744e+01	1.650138e+03
1.630000e-06	7.375348e-06	2.512663e-08	5.331070e+01	1.650241e+03
1.640000e-06	7.377355e-06	2.512737e-08	5.332520e+01	1.650139e+03
1.650000e-06	7.376694e-06	2.512944e-08	5.332043e+01	1.649826e+03
1.660000e-06	7.373671e-06	2.512145e-08	5.329858e+01	1.649316e+03
1.670000e-06	7.368222e-06	2.511126e-08	5.325919e+01	1.648636e+03
1.680000e-06	7.360228e-06	2.509937e-08	5.320141e+01	1.647819e+03
1.690000e-06	7.349878e-06	2.508352e-08	5.312659e+01	1.646891e+03
1.700000e-06	7.336919e-06	2.506871e-08	5.303292e+01	1.645864e+03
1.710000e-06	7.321323e-06	2.505403e-08	5.292019e+01	1.644734e+03
1.720000e-06	7.303492e-06	2.503932e-08	5.279130e+01	1.643480e+03
1.730000e-06	7.283574e-06	2.498297e-08	5.264733e+01	1.642077e+03
1.740000e-06	7.260991e-06	2.490598e-08	5.248410e+01	1.640503e+03
1.750000e-06	7.235029e-06	2.492541e-08	5.229644e+01	1.638752e+03
1.760000e-06	7.205655e-06	2.493019e-08	5.208412e+01	1.636837e+03
1.770000e-06	7.173560e-06	2.488152e-08	5.185213e+01	1.634789e+03
1.780000e-06	7.139441e-06	2.487246e-08	5.160550e+01	1.632650e+03
1.790000e-06	7.103651e-06	2.490470e-08	5.134681e+01	1.630457e+03
1.800000e-06	7.066236e-06	2.478009e-08	5.107636e+01	1.628230e+03
1.810000e-06	7.026439e-06	2.475429e-08	5.078870e+01	1.625961e+03
1.820000e-06	6.983962e-06	2.480909e-08	5.048167e+01	1.623609e+03
1.830000e-06	6.939185e-06	2.469005e-08	5.015801e+01	1.621109e+03
1.840000e-06	6.891809e-06	2.472424e-08	4.981557e+01	1.618384e+03
1.850000e-06	6.841773e-06	2.463150e-08	4.945389e+01	1.615358e+03
1.860000e-06	6.789117e-06	2.456767e-08	4.907328e+01	1.611983e+03
1.870000e-06	6.733702e-06	2.457070e-08	4.867273e+01	1.608239e+03
1.880000e-06	6.675899e-06	2.444602e-08	4.825492e+01	1.604146e+03
1.890000e-06	6.615590e-06	2.445257e-08	4.781900e+01	1.599752e+03
1.900000e-06	6.552634e-06	2.436301e-08	4.736393e+01	1.595121e+03
1.910000e-06	6.487219e-06	2.428502e-08	4.689110e+01	1.590311e+03
1.920000e-06	6.419392e-06	2.420146e-08	4.640083e+01	1.585361e+03
1.930000e-06	6.349167e-06	2.409139e-08	4.589323e+01	1.580277e+03
1.940000e-06	6.276475e-06	2.407315e-08	4.536779e+01	1.575034e+03
1.950000e-06	6.201371e-06	2.395599e-08	4.482492e+01	1.569584e+03
1.960000e-06	6.123673e-06	2.389332e-08	4.426330e+01	1.563866e+03
1.970000e-06	6.043518e-06	2.378574e-08	4.368392e+01	1.557831e+03
1.980000e-06	5.961303e-06	2.368109e-08	4.308966e+01	1.551448e+03
1.990000e-06	5.876980e-06	2.359264e-08	4.248015e+01	1.544715e+03
2.000000e-06	5.790504e-06	2.345923e-08	4.185508e+01	1.537656e+03
2.010000e-06	5.701894e-06	2.337107e-08	4.121459e+01	1.530305e+03
2.020000e-06	5.611297e-06	2.324337e-08	4.055974e+01	1.522699e+03
2.030000e-06	5.518716e-06	2.313539e-08	3.989053e+01	1.514855e+03
2.040000e-06	5.424082e-06	2.300361e-08	3.920650e+01	1.506763e+03
2.050000e-06	5.327527e-06	2.288514e-08	3.850858e+01	1.498387e+03
2.060000e-06	5.229265e-06	2.275350e-08	3.779832e+01	1.489669e+03
2.070000e-06	5.129282e-06	2.260796e-08	3.707562e+01	1.480544e+03
2.080000e-06	5.027427e-06	2.246760e-08	3.633939e+01	1.470962e+03
2.090000e-06	4.923673e-06	2.230902e-08	3.558943e+01	1.460892e+03
2.100000e-06	4.818146e-06	2.215627e-08	3.482666e+01	1.450334e+03
2.110000e-06	4.711078e-06	2.198680e-08	3.405274e+01	1.439311e+03
2.120000e-06	4.602414e-06	2.182075e-08	3.326730e+01	1.427859e+03
2.130000e-06	4.492108e-06	2.163422e-08	3.246998e+01	1.416007e+03
2.140000e-06	4.380110e-06	2.144867e-08	3.166043e+01	1.403760e+03
2.150000e-06	4.266394e-06	2.125626e-08	3.083847e+01	1.391090e+03
2.160000e-06	4.150933e-06	2.106084e-08	3.000389e+01	1.377935e+03
2.170000e-06	4.033756e-06	2.085374e-08	2.915691e+01	1.364206e+03
2.180000e-06	3.914994e-06	2.063278e-08	2.829847e+01	1.349811e+03
2.190000e-06	3.794680e-06	2.040233e-08	2.742882e+01	1.334666e+03
2.200000e-06	3.673023e-06	2.016076e-08	2.654945e+01	1.318718e+03
2.210000e-06	3.550007e-06	1.991105e-08	2.566026e+01	1.301949e+03
2.220000e-06	3.425576e-06	1.964884e-08	2.476085e+01	1.284366e+03
2.230000e-06	3.299909e-06	1.937626e-08	2.385249e+01	1.265989e+03
2.240000e-06	3.173039e-06	1.908091e-08	2.293545e+01	1.246826e+03
2.250000e-06	3.044917e-06	1.877383e-08	2.200935e+01	1.226854e+03
2.260000e-06	2.915670e-06	1.845318e-08	2.107513e+01	1.205999e+03
2.270000e-06	2.785422e-06	1.812228e-08	2.013366e+01	1.184140e+03
2.280000e-06	2.654159e-06	1.777247e-08	1.918486e+01	1.161120e+03
2.290000e-06	2.521905e-06	1.740301e-08	1.822890e+01	1.136763e+03
2.300000e-06	2.388800e-06	1.700960e-08	1.726679e+01	1.110906e+03
2.310000e-06	2.254965e-06	1.659095e-08	1.629940e+01	1.083411e+03
2.320000e-06	2.120419e-06	1.614975e-08	1.532687e+01	1.054173e+03
2.330000e-06	1.985095e-06	1.568152e-08	1.434872e+01	1.023113e+03
2.340000e-06	1.848998e-06	1.518334e-08	1.336498e+01	9.901487e+02
2.350000e-06	1.712288e-06	1.464920e-08	1.237681e+01	9.551665e+02
2.360000e-06	1.575073e-06	1.407689e-08	1.138498e+01	9.179957e+02
2.370000e-06	1.437338e-06	1.346569e-08	1.038940e+01	8.783976e+02
2.380000e-06	1.299065e-06	1.281635e-08	9.389939e+00	8.360797e+02
2.390000e-06	1.160350e-06	1.212462e-08	8.387276e+00	7.907362e+02
2.400000e-06	1.021235e-06	1.138373e-08	7.381719e+00	7.421092e+02
2.410000e-06	8.816664e-07	1.059095e-08	6.372886e+00	6.900569e+02
2.420000e-06	7.417110e-07	9.746764e-09	5.361256e+00	6.346135e+02
2.430000e-06	6.015007e-07	8.855737e-09	4.347784e+00	5.760209e+02
2.440000e-06	4.610593e-07	7.924136e-09	3.332642e+00	5.147209e+02
2.450000e-06	3.203807e-07	6.957650e-09	2.315785e+00	4.513034e+02
2.460000e-06	1.795496e-07	5.965347e-09	1.297826e+00	3.864169e+02
2.470000e-06	3.868526e-08	4.955284e-09	2.796259e-01	3.206583e+02
2.480000e-06	-1.022115e-07	3.937311e-09	-7.388083e-01	2.544667e+02
2.490000e-06	-2.431069e-07	2.916285e-09	-1.757232e+00	1.880449e+02
2.500000e-06	-3.839375e-07	1.891820e-09	-2.775188e+00	1.213302e+02
2.510000e-06	-5.246518e-07	8.616907e-10	-3.792303e+00	5.402520e+01
2.520000e-06	-6.651956e-07	-1.791647e-10	-4.808185e+00	-1.431426e+01
2.530000e-06	-8.055330e-07	-1.239237e-09	-5.822576e+00	-8.414975e+01
2.540000e-06	-9.455742e-07	-2.327683e-09	-6.834826e+00	-1.558161e+02
2.550000e-06	-1.085194e-06	-3.445966e-09	-7.844031e+00	-2.293924e+02
2.560000e-06	-1.224321e-06	-4.593818e-09	-8.849671e+00	-3.046179e+02
2.570000e-06	-1.362920e-06	-5.766922e-09	-9.851495e+00	-3.808701e+02
2.580000e-06	-1.501009e-06	-6.946350e-09	-1.084964e+01	-4.572132e+02
2.590000e-06	-1.638589e-06	-8.106500e-09	-1.184409e+01	-5.325071e+02
2.600000e-06	-1.775566e-06	-9.227206e-09	-1.283419e+01	-6.055541e+02
2.610000e-06	-1.911842e-06	-1.029369e-08	-1.381923e+01	-6.752567e+02
2.620000e-06	-2.047313e-06	-1.129150e-08	-1.479844e+01	-7.407528e+02
2.630000e-06	-2.182009e-06	-1.221627e-08	-1.577206e+01	-8.015054e+02
2.640000e-06	-2.315902e-06	-1.306905e-08	-1.673987e+01	-8.573326e+02
2.650000e-06	-2.448916e-06	-1.385218e-08	-1.770133e+01	-9.083766e+02
2.660000e-06	-2.581012e-06	-1.457136e-08	-1.865615e+01	-9.550246e+02
2.670000e-06	-2.712080e-06	-1.523397e-08	-1.960353e+01	-9.978027e+02
2.680000e-06	-2.842150e-06	-1.584761e-08	-2.054371e+01	-1.037267e+03
2.690000e-06	-2.971264e-06	-1.641600e-08	-2.147697e+01	-1.073915e+03
2.700000e-06	-3.099345e-06	-1.694056e-08	-2.240277e+01	-1.108131e+03
2.710000e-06	-3.226309e-06	-1.742599e-08	-2.332050e+01	-1.140173e+03
2.720000e-06	-3.352131e-06	-1.788083e-08	-2.422997e+01	-1.170192e+03
2.730000e-06	-3.476731e-06	-1.830568e-08	-2.513060e+01	-1.198273e+03
2.740000e-06	-3.599978e-06	-1.870307e-08	-2.602146e+01	-1.224489e+03
2.750000e-06	-3.721946e-06	-1.907864e-08	-2.690307e+01	-1.248933e+03
2.760000e-06	-3.842601e-06	-1.943040e-08	-2.777520e+01	-1.271741e+03
2.770000e-06	-3.961836e-06	-1.975894e-08	-2.863705e+01	-1.293092e+03
2.780000e-06	-4.079605e-06	-2.006848e-08	-2.948831e+01	-1.313183e+03
2.790000e-06	-4.195746e-06	-2.036253e-08	-3.032781e+01	-1.332203e+03
2.800000e-06	-4.310176e-06	-2.063968e-08	-3.115493e+01	-1.350303e+03
2.810000e-06	-4.422951e-06	-2.090040e-08	-3.197010e+01	-1.367576e+03
2.820000e-06	-4.533957e-06	-2.114882e-08	-3.277247e+01	-1.384059e+03
2.830000e-06	-4.643216e-06	-2.138763e-08	-3.356222e+01	-1.399746e+03
2.840000e-06	-4.750950e-06	-2.161833e-08	-3.434095e+01	-1.414609e+03
2.850000e-06	-4.857173e-06	-2.183657e-08	-3.510875e+01	-1.428633e+03
2.860000e-06	-4.961707e-06	-2.203967e-08	-3.586435e+01	-1.441828e+03
2.870000e-06	-5.064363e-06	-2.222988e-08	-3.660637e+01	-1.454245e+03
2.880000e-06	-5.165056e-06	-2.240995e-08	-3.733421e+01	-1.465971e+03
2.890000e-06	-5.263935e-06	-2.258313e-08	-3.804893e+01	-1.477107e+03
2.900000e-06	-5.361098e-06	-2.274878e-08	-3.875123e+01	-1.487753e+03
2.910000e-06	-5.456368e-06	-2.290512e-08	-3.943987e+01	-1.497980e+03
2.920000e-06	-5.549620e-06	-2.305313e-08	-4.011392e+01	-1.507818e+03
2.930000e-06	-5.640843e-06	-2.319276e-08	-4.077330e+01	-1.517259e+03
2.940000e-06	-5.730000e-06	-2.332646e-08	-4.141774e+01	-1.526260e+03
