# Temperatura_=_59.04
# Concentracion g/m^3_=_28200.0
# C_Vs_to_Am_M_A/Vsm_=_65563218390.804596
# pendiente_HvsI_1/m_=_3716.3
# ordenada_HvsI_A/m_=_1297.0
# frecuencia_Hz_=_302371.77114260645

Tiempo_(s)	Campo_(V.s)	Magnetizacion_(V.s)	Campo_(kA/m)	Magnetizacion_(A/m)
0.000000e+00	-7.342841e-06	-2.430674e-08	-5.318470e+01	-1.591683e+03
1.000000e-08	-7.338615e-06	-2.429858e-08	-5.315408e+01	-1.591153e+03
2.000000e-08	-7.332097e-06	-2.428776e-08	-5.310687e+01	-1.590466e+03
3.000000e-08	-7.323151e-06	-2.427773e-08	-5.304208e+01	-1.589649e+03
4.000000e-08	-7.311571e-06	-2.426490e-08	-5.295820e+01	-1.588723e+03
5.000000e-08	-7.297266e-06	-2.424620e-08	-5.285459e+01	-1.587698e+03
6.000000e-08	-7.280365e-06	-2.422602e-08	-5.273218e+01	-1.586567e+03
7.000000e-08	-7.261289e-06	-2.420611e-08	-5.259400e+01	-1.585317e+03
8.000000e-08	-7.240122e-06	-2.421639e-08	-5.244069e+01	-1.583927e+03
9.000000e-08	-7.216266e-06	-2.421871e-08	-5.226790e+01	-1.582384e+03
1.000000e-07	-7.189308e-06	-2.415622e-08	-5.207264e+01	-1.580688e+03
1.100000e-07	-7.159633e-06	-2.410408e-08	-5.185770e+01	-1.578855e+03
1.200000e-07	-7.127469e-06	-2.407917e-08	-5.162474e+01	-1.576913e+03
1.300000e-07	-7.092782e-06	-2.403931e-08	-5.137350e+01	-1.574895e+03
1.400000e-07	-7.055971e-06	-2.396899e-08	-5.110688e+01	-1.572829e+03
1.500000e-07	-7.017391e-06	-2.394837e-08	-5.082744e+01	-1.570722e+03
1.600000e-07	-6.976646e-06	-2.396597e-08	-5.053232e+01	-1.568557e+03
1.700000e-07	-6.933357e-06	-2.385288e-08	-5.021878e+01	-1.566289e+03
1.800000e-07	-6.887646e-06	-2.382730e-08	-4.988768e+01	-1.563855e+03
1.900000e-07	-6.839274e-06	-2.381386e-08	-4.953733e+01	-1.561183e+03
2.000000e-07	-6.788042e-06	-2.373966e-08	-4.916625e+01	-1.558212e+03
2.100000e-07	-6.734205e-06	-2.371854e-08	-4.877630e+01	-1.554903e+03
2.200000e-07	-6.677832e-06	-2.365224e-08	-4.836799e+01	-1.551248e+03
2.300000e-07	-6.618940e-06	-2.360479e-08	-4.794143e+01	-1.547272e+03
2.400000e-07	-6.557660e-06	-2.350904e-08	-4.749757e+01	-1.543023e+03
2.500000e-07	-6.494010e-06	-2.343378e-08	-4.703655e+01	-1.538560e+03
2.600000e-07	-6.427838e-06	-2.337780e-08	-4.655726e+01	-1.533934e+03
2.700000e-07	-6.359190e-06	-2.329715e-08	-4.606004e+01	-1.529176e+03
2.800000e-07	-6.288208e-06	-2.322595e-08	-4.554592e+01	-1.524288e+03
2.900000e-07	-6.214757e-06	-2.314228e-08	-4.501390e+01	-1.519245e+03
3.000000e-07	-6.138699e-06	-2.306784e-08	-4.446301e+01	-1.514000e+03
3.100000e-07	-6.060066e-06	-2.297724e-08	-4.389347e+01	-1.508502e+03
3.200000e-07	-5.979095e-06	-2.288987e-08	-4.330699e+01	-1.502705e+03
3.300000e-07	-5.896050e-06	-2.281294e-08	-4.270549e+01	-1.496583e+03
3.400000e-07	-5.811083e-06	-2.270658e-08	-4.209007e+01	-1.490134e+03
3.500000e-07	-5.724150e-06	-2.260415e-08	-4.146040e+01	-1.483373e+03
3.600000e-07	-5.635144e-06	-2.249654e-08	-4.081573e+01	-1.476325e+03
3.700000e-07	-5.544053e-06	-2.238405e-08	-4.015595e+01	-1.469013e+03
3.800000e-07	-5.450956e-06	-2.227203e-08	-3.948165e+01	-1.461443e+03
3.900000e-07	-5.355938e-06	-2.215316e-08	-3.879342e+01	-1.453599e+03
4.000000e-07	-5.259002e-06	-2.202648e-08	-3.809131e+01	-1.445444e+03
4.100000e-07	-5.160206e-06	-2.188156e-08	-3.737572e+01	-1.436930e+03
4.200000e-07	-5.059626e-06	-2.174328e-08	-3.664721e+01	-1.428004e+03
4.300000e-07	-4.957279e-06	-2.159822e-08	-3.590591e+01	-1.418630e+03
4.400000e-07	-4.853163e-06	-2.144705e-08	-3.515178e+01	-1.408788e+03
4.500000e-07	-4.747343e-06	-2.129417e-08	-3.438533e+01	-1.398485e+03
4.600000e-07	-4.639757e-06	-2.113748e-08	-3.360607e+01	-1.387743e+03
4.700000e-07	-4.530514e-06	-2.096912e-08	-3.281482e+01	-1.376588e+03
4.800000e-07	-4.419728e-06	-2.078856e-08	-3.201239e+01	-1.365036e+03
4.900000e-07	-4.307291e-06	-2.060942e-08	-3.119800e+01	-1.353078e+03
5.000000e-07	-4.193168e-06	-2.041943e-08	-3.037140e+01	-1.340679e+03
5.100000e-07	-4.077288e-06	-2.021746e-08	-2.953207e+01	-1.327771e+03
5.200000e-07	-3.959819e-06	-2.000365e-08	-2.868124e+01	-1.314274e+03
5.300000e-07	-3.840912e-06	-1.978479e-08	-2.781998e+01	-1.300104e+03
5.400000e-07	-3.720518e-06	-1.955603e-08	-2.694796e+01	-1.285194e+03
5.500000e-07	-3.598746e-06	-1.931291e-08	-2.606596e+01	-1.269500e+03
5.600000e-07	-3.475650e-06	-1.906135e-08	-2.517436e+01	-1.253008e+03
5.700000e-07	-3.351190e-06	-1.879917e-08	-2.427290e+01	-1.235722e+03
5.800000e-07	-3.225509e-06	-1.852802e-08	-2.336258e+01	-1.217649e+03
5.900000e-07	-3.098703e-06	-1.824255e-08	-2.244411e+01	-1.198779e+03
6.000000e-07	-2.970717e-06	-1.794310e-08	-2.151710e+01	-1.179069e+03
6.100000e-07	-2.841597e-06	-1.762525e-08	-2.058188e+01	-1.158433e+03
6.200000e-07	-2.711436e-06	-1.728753e-08	-1.963912e+01	-1.136747e+03
6.300000e-07	-2.580225e-06	-1.693118e-08	-1.868875e+01	-1.113858e+03
6.400000e-07	-2.447976e-06	-1.655605e-08	-1.773085e+01	-1.089607e+03
6.500000e-07	-2.314864e-06	-1.616311e-08	-1.676672e+01	-1.063850e+03
6.600000e-07	-2.181087e-06	-1.574736e-08	-1.579776e+01	-1.036463e+03
6.700000e-07	-2.046638e-06	-1.530633e-08	-1.482394e+01	-1.007347e+03
6.800000e-07	-1.911381e-06	-1.483526e-08	-1.384426e+01	-9.764144e+02
6.900000e-07	-1.775342e-06	-1.433680e-08	-1.285892e+01	-9.435619e+02
7.000000e-07	-1.638685e-06	-1.380601e-08	-1.186911e+01	-9.086498e+02
7.100000e-07	-1.501474e-06	-1.323850e-08	-1.087528e+01	-8.714835e+02
7.200000e-07	-1.363811e-06	-1.263208e-08	-9.878176e+00	-8.318152e+02
7.300000e-07	-1.225732e-06	-1.198091e-08	-8.878060e+00	-7.893683e+02
7.400000e-07	-1.087201e-06	-1.128570e-08	-7.874669e+00	-7.438829e+02
7.500000e-07	-9.482568e-07	-1.054407e-08	-6.868288e+00	-6.951759e+02
7.600000e-07	-8.089178e-07	-9.753669e-09	-5.859046e+00	-6.432015e+02
7.700000e-07	-6.691833e-07	-8.915166e-09	-4.846940e+00	-5.880953e+02
7.800000e-07	-5.291177e-07	-8.036596e-09	-3.832435e+00	-5.301886e+02
7.900000e-07	-3.888562e-07	-7.121090e-09	-2.816512e+00	-4.699831e+02
8.000000e-07	-2.484323e-07	-6.176644e-09	-1.799412e+00	-4.080863e+02
8.100000e-07	-1.077922e-07	-5.214436e-09	-7.807462e-01	-3.451175e+02
8.200000e-07	3.296823e-08	-4.244345e-09	2.387911e-01	-2.816030e+02
8.300000e-07	1.736906e-07	-3.272800e-09	1.258053e+00	-2.178832e+02
8.400000e-07	3.143545e-07	-2.299604e-09	2.276891e+00	-1.540545e+02
8.500000e-07	4.549216e-07	-1.323480e-09	3.295028e+00	-8.996120e+01
8.600000e-07	5.953472e-07	-3.402668e-10	4.312140e+00	-2.524539e+01
8.700000e-07	7.355215e-07	6.565484e-10	5.327432e+00	4.055483e+01
8.800000e-07	8.754252e-07	1.677911e-09	6.340764e+00	1.078750e+02
8.900000e-07	1.014977e-06	2.727363e-09	7.351549e+00	1.769893e+02
9.000000e-07	1.154003e-06	3.803979e-09	8.358520e+00	2.478994e+02
9.100000e-07	1.292513e-06	4.905369e-09	9.361762e+00	3.202710e+02
9.200000e-07	1.430550e-06	6.022383e-09	1.036157e+01	3.934333e+02
9.300000e-07	1.568112e-06	7.139413e-09	1.135794e+01	4.664422e+02
9.400000e-07	1.705151e-06	8.234885e-09	1.235052e+01	5.381945e+02
9.500000e-07	1.841543e-06	9.289618e-09	1.333842e+01	6.075718e+02
9.600000e-07	1.977188e-06	1.028734e-08	1.432091e+01	6.735841e+02
9.700000e-07	2.111997e-06	1.122005e-08	1.529733e+01	7.354869e+02
9.800000e-07	2.245949e-06	1.208601e-08	1.626756e+01	7.928508e+02
9.900000e-07	2.379159e-06	1.288366e-08	1.723241e+01	8.455742e+02
1.000000e-06	2.511621e-06	1.361221e-08	1.819184e+01	8.938417e+02
1.010000e-06	2.643133e-06	1.428253e-08	1.914439e+01	9.380433e+02
1.020000e-06	2.773516e-06	1.490392e-08	2.008876e+01	9.786734e+02
1.030000e-06	2.902834e-06	1.547941e-08	2.102542e+01	1.016235e+03
1.040000e-06	3.031125e-06	1.601357e-08	2.195464e+01	1.051163e+03
1.050000e-06	3.158288e-06	1.650966e-08	2.287569e+01	1.083788e+03
1.060000e-06	3.284292e-06	1.697106e-08	2.378835e+01	1.114328e+03
1.070000e-06	3.409262e-06	1.740072e-08	2.469351e+01	1.142914e+03
1.080000e-06	3.533079e-06	1.780188e-08	2.559033e+01	1.169632e+03
1.090000e-06	3.655507e-06	1.817845e-08	2.647708e+01	1.194563e+03
1.100000e-06	3.776616e-06	1.853318e-08	2.735428e+01	1.217816e+03
1.110000e-06	3.896376e-06	1.886640e-08	2.822172e+01	1.239539e+03
1.120000e-06	4.014686e-06	1.917898e-08	2.907864e+01	1.259909e+03
1.130000e-06	4.131595e-06	1.947345e-08	2.992542e+01	1.279116e+03
1.140000e-06	4.246913e-06	1.975145e-08	3.076068e+01	1.297328e+03
1.150000e-06	4.360503e-06	2.001369e-08	3.158342e+01	1.314672e+03
1.160000e-06	4.472439e-06	2.026316e-08	3.239418e+01	1.331221e+03
1.170000e-06	4.582809e-06	2.049932e-08	3.319359e+01	1.346996e+03
1.180000e-06	4.691768e-06	2.072358e-08	3.398279e+01	1.361985e+03
1.190000e-06	4.799142e-06	2.093688e-08	3.476051e+01	1.376163e+03
1.200000e-06	4.904705e-06	2.113836e-08	3.552511e+01	1.389522e+03
1.210000e-06	5.008442e-06	2.132797e-08	3.627648e+01	1.402084e+03
1.220000e-06	5.110390e-06	2.150802e-08	3.701490e+01	1.413907e+03
1.230000e-06	5.210555e-06	2.167886e-08	3.774040e+01	1.425078e+03
1.240000e-06	5.308727e-06	2.184140e-08	3.845147e+01	1.435695e+03
1.250000e-06	5.404808e-06	2.199714e-08	3.914739e+01	1.445844e+03
1.260000e-06	5.498954e-06	2.214670e-08	3.982929e+01	1.455583e+03
1.270000e-06	5.591222e-06	2.228891e-08	4.049760e+01	1.464930e+03
1.280000e-06	5.681422e-06	2.242354e-08	4.115092e+01	1.473867e+03
1.290000e-06	5.769474e-06	2.255147e-08	4.178869e+01	1.482354e+03
1.300000e-06	5.855501e-06	2.267219e-08	4.241179e+01	1.490344e+03
1.310000e-06	5.939592e-06	2.278535e-08	4.302087e+01	1.497809e+03
1.320000e-06	6.021565e-06	2.289059e-08	4.361460e+01	1.504751e+03
1.330000e-06	6.101234e-06	2.298960e-08	4.419165e+01	1.511209e+03
1.340000e-06	6.178663e-06	2.308411e-08	4.475247e+01	1.517251e+03
1.350000e-06	6.253760e-06	2.317400e-08	4.529641e+01	1.522963e+03
1.360000e-06	6.326400e-06	2.325899e-08	4.582254e+01	1.528428e+03
1.370000e-06	6.396716e-06	2.333998e-08	4.633184e+01	1.533707e+03
1.380000e-06	6.464843e-06	2.341687e-08	4.682530e+01	1.538828e+03
1.390000e-06	6.530599e-06	2.349088e-08	4.730157e+01	1.543787e+03
1.400000e-06	6.593943e-06	2.356215e-08	4.776038e+01	1.548551e+03
1.410000e-06	6.655111e-06	2.362857e-08	4.820342e+01	1.553074e+03
1.420000e-06	6.714001e-06	2.369086e-08	4.862996e+01	1.557314e+03
1.430000e-06	6.770513e-06	2.375035e-08	4.903928e+01	1.561244e+03
1.440000e-06	6.824612e-06	2.380706e-08	4.943113e+01	1.564864e+03
1.450000e-06	6.875955e-06	2.386098e-08	4.980301e+01	1.568198e+03
1.460000e-06	6.924472e-06	2.391081e-08	5.015442e+01	1.571285e+03
1.470000e-06	6.970517e-06	2.395888e-08	5.048792e+01	1.574166e+03
1.480000e-06	7.014221e-06	2.400354e-08	5.080448e+01	1.576875e+03
1.490000e-06	7.055353e-06	2.404126e-08	5.110240e+01	1.579426e+03
1.500000e-06	7.093869e-06	2.407480e-08	5.138137e+01	1.581814e+03
1.510000e-06	7.130002e-06	2.410453e-08	5.164309e+01	1.584017e+03
1.520000e-06	7.163638e-06	2.413193e-08	5.188672e+01	1.586005e+03
1.530000e-06	7.194698e-06	2.415768e-08	5.211169e+01	1.587754e+03
1.540000e-06	7.223348e-06	2.418113e-08	5.231920e+01	1.589254e+03
1.550000e-06	7.249347e-06	2.420315e-08	5.250751e+01	1.590515e+03
1.560000e-06	7.272521e-06	2.422343e-08	5.267536e+01	1.591561e+03
1.570000e-06	7.293175e-06	2.424004e-08	5.282496e+01	1.592430e+03
1.580000e-06	7.311339e-06	2.425116e-08	5.295652e+01	1.593157e+03
1.590000e-06	7.326791e-06	2.426038e-08	5.306844e+01	1.593769e+03
1.600000e-06	7.339471e-06	2.426887e-08	5.316029e+01	1.594273e+03
1.610000e-06	7.349243e-06	2.427492e-08	5.323107e+01	1.594664e+03
1.620000e-06	7.356159e-06	2.427829e-08	5.328116e+01	1.594918e+03
1.630000e-06	7.360495e-06	2.427975e-08	5.331256e+01	1.595010e+03
1.640000e-06	7.362240e-06	2.428151e-08	5.332520e+01	1.594918e+03
1.650000e-06	7.361387e-06	2.427839e-08	5.331902e+01	1.594635e+03
1.660000e-06	7.358178e-06	2.426969e-08	5.329578e+01	1.594166e+03
1.670000e-06	7.352482e-06	2.426177e-08	5.325453e+01	1.593531e+03
1.680000e-06	7.344237e-06	2.425253e-08	5.319480e+01	1.592757e+03
1.690000e-06	7.333589e-06	2.424060e-08	5.311768e+01	1.591868e+03
1.700000e-06	7.320331e-06	2.422734e-08	5.302165e+01	1.590877e+03
1.710000e-06	7.304541e-06	2.421374e-08	5.290729e+01	1.589785e+03
1.720000e-06	7.286582e-06	2.419670e-08	5.277720e+01	1.588579e+03
1.730000e-06	7.266515e-06	2.412761e-08	5.263186e+01	1.587240e+03
1.740000e-06	7.243689e-06	2.408841e-08	5.246653e+01	1.585752e+03
1.750000e-06	7.217412e-06	2.410076e-08	5.227620e+01	1.584109e+03
1.760000e-06	7.187815e-06	2.408137e-08	5.206183e+01	1.582322e+03
1.770000e-06	7.155624e-06	2.404211e-08	5.182867e+01	1.580414e+03
1.780000e-06	7.121470e-06	2.405894e-08	5.158129e+01	1.578419e+03
1.790000e-06	7.085623e-06	2.406018e-08	5.132165e+01	1.576367e+03
1.800000e-06	7.048023e-06	2.396342e-08	5.104930e+01	1.574275e+03
1.810000e-06	7.007977e-06	2.399203e-08	5.075925e+01	1.572134e+03
1.820000e-06	6.965380e-06	2.396697e-08	5.045072e+01	1.569908e+03
1.830000e-06	6.920559e-06	2.391130e-08	5.012607e+01	1.567541e+03
1.840000e-06	6.873173e-06	2.390364e-08	4.978285e+01	1.564961e+03
1.850000e-06	6.823146e-06	2.380544e-08	4.942051e+01	1.562102e+03
1.860000e-06	6.770428e-06	2.379789e-08	4.903867e+01	1.558916e+03
1.870000e-06	6.714990e-06	2.372292e-08	4.863713e+01	1.555382e+03
1.880000e-06	6.657166e-06	2.366757e-08	4.821831e+01	1.551516e+03
1.890000e-06	6.596770e-06	2.365520e-08	4.778085e+01	1.547357e+03
1.900000e-06	6.533707e-06	2.354635e-08	4.732408e+01	1.542963e+03
1.910000e-06	6.468239e-06	2.350484e-08	4.684989e+01	1.538390e+03
1.920000e-06	6.400395e-06	2.340976e-08	4.635849e+01	1.533677e+03
1.930000e-06	6.330098e-06	2.334050e-08	4.584933e+01	1.528837e+03
1.940000e-06	6.257369e-06	2.328500e-08	4.532254e+01	1.523853e+03
1.950000e-06	6.182232e-06	2.319782e-08	4.477832e+01	1.518685e+03
1.960000e-06	6.104456e-06	2.313000e-08	4.421499e+01	1.513282e+03
1.970000e-06	6.024218e-06	2.300038e-08	4.363382e+01	1.507595e+03
1.980000e-06	5.941919e-06	2.292865e-08	4.303772e+01	1.501590e+03
1.990000e-06	5.857563e-06	2.282877e-08	4.242672e+01	1.495256e+03
2.000000e-06	5.771075e-06	2.273398e-08	4.180028e+01	1.488603e+03
2.010000e-06	5.682455e-06	2.263822e-08	4.115841e+01	1.481655e+03
2.020000e-06	5.591882e-06	2.251993e-08	4.050238e+01	1.474435e+03
2.030000e-06	5.499316e-06	2.240565e-08	3.983192e+01	1.466957e+03
2.040000e-06	5.404712e-06	2.227077e-08	3.914669e+01	1.459213e+03
2.050000e-06	5.308236e-06	2.216892e-08	3.844791e+01	1.451174e+03
2.060000e-06	5.210051e-06	2.204195e-08	3.773675e+01	1.442793e+03
2.070000e-06	5.110102e-06	2.191613e-08	3.701281e+01	1.434019e+03
2.080000e-06	5.008257e-06	2.177121e-08	3.627514e+01	1.424807e+03
2.090000e-06	4.904521e-06	2.162448e-08	3.552378e+01	1.415133e+03
2.100000e-06	4.799027e-06	2.146973e-08	3.475968e+01	1.404992e+03
2.110000e-06	4.692016e-06	2.131012e-08	3.398459e+01	1.394403e+03
2.120000e-06	4.583438e-06	2.115105e-08	3.319815e+01	1.383392e+03
2.130000e-06	4.473214e-06	2.097110e-08	3.239979e+01	1.371980e+03
2.140000e-06	4.361271e-06	2.078737e-08	3.158898e+01	1.360170e+03
2.150000e-06	4.247623e-06	2.059629e-08	3.076582e+01	1.347933e+03
2.160000e-06	4.132308e-06	2.041050e-08	2.993059e+01	1.335216e+03
2.170000e-06	4.015272e-06	2.020872e-08	2.908288e+01	1.321938e+03
2.180000e-06	3.896586e-06	2.000029e-08	2.822324e+01	1.308017e+03
2.190000e-06	3.776342e-06	1.977900e-08	2.735230e+01	1.293376e+03
2.200000e-06	3.654737e-06	1.954796e-08	2.647151e+01	1.277965e+03
2.210000e-06	3.531799e-06	1.930219e-08	2.558106e+01	1.261758e+03
2.220000e-06	3.407530e-06	1.904732e-08	2.468097e+01	1.244754e+03
2.230000e-06	3.282067e-06	1.878054e-08	2.377223e+01	1.226961e+03
2.240000e-06	3.155360e-06	1.849337e-08	2.285448e+01	1.208378e+03
2.250000e-06	3.027432e-06	1.819359e-08	2.192789e+01	1.188975e+03
2.260000e-06	2.898395e-06	1.788204e-08	2.099327e+01	1.168682e+03
2.270000e-06	2.768342e-06	1.756002e-08	2.005129e+01	1.147386e+03
2.280000e-06	2.637281e-06	1.721792e-08	1.910201e+01	1.124944e+03
2.290000e-06	2.505204e-06	1.685825e-08	1.814536e+01	1.101197e+03
2.300000e-06	2.372232e-06	1.647608e-08	1.718224e+01	1.075993e+03
2.310000e-06	2.238487e-06	1.607174e-08	1.621351e+01	1.049199e+03
2.320000e-06	2.104009e-06	1.564376e-08	1.523948e+01	1.020711e+03
2.330000e-06	1.968762e-06	1.518671e-08	1.425987e+01	9.904366e+02
2.340000e-06	1.832813e-06	1.469772e-08	1.327519e+01	9.582826e+02
2.350000e-06	1.696277e-06	1.417383e-08	1.228625e+01	9.241248e+02
2.360000e-06	1.559204e-06	1.361356e-08	1.129342e+01	8.877888e+02
2.370000e-06	1.421675e-06	1.301635e-08	1.029729e+01	8.490445e+02
2.380000e-06	1.283722e-06	1.238209e-08	9.298089e+00	8.076212e+02
2.390000e-06	1.145318e-06	1.170745e-08	8.295614e+00	7.632466e+02
2.400000e-06	1.006439e-06	1.098163e-08	7.289708e+00	7.157031e+02
2.410000e-06	8.671181e-07	1.020551e-08	6.280595e+00	6.648895e+02
2.420000e-06	7.273884e-07	9.383257e-09	5.268523e+00	6.108731e+02
2.430000e-06	5.873666e-07	8.518974e-09	4.254336e+00	5.539162e+02
2.440000e-06	4.472110e-07	7.616400e-09	3.239179e+00	4.944651e+02
2.450000e-06	3.069108e-07	6.681183e-09	2.222976e+00	4.330989e+02
2.460000e-06	1.664329e-07	5.723380e-09	1.205484e+00	3.704449e+02
2.470000e-06	2.590822e-08	4.749224e-09	1.876550e-01	3.070742e+02
2.480000e-06	-1.146233e-07	3.770423e-09	-8.302246e-01	2.434026e+02
2.490000e-06	-2.552276e-07	2.793985e-09	-1.848631e+00	1.796174e+02
2.500000e-06	-3.957970e-07	1.815977e-09	-2.866784e+00	1.156502e+02
2.510000e-06	-5.362273e-07	8.308338e-10	-3.883930e+00	5.120624e+01
2.520000e-06	-6.764548e-07	-1.670229e-10	-4.899608e+00	-1.415302e+01
2.530000e-06	-8.163813e-07	-1.184589e-09	-5.913105e+00	-8.088842e+01
2.540000e-06	-9.560102e-07	-2.227782e-09	-6.924447e+00	-1.493463e+02
2.550000e-06	-1.095305e-06	-3.299150e-09	-7.933367e+00	-2.196360e+02
2.560000e-06	-1.234124e-06	-4.395917e-09	-8.938841e+00	-2.915465e+02
2.570000e-06	-1.372369e-06	-5.513858e-09	-9.940162e+00	-3.645233e+02
2.580000e-06	-1.510078e-06	-6.638732e-09	-1.093760e+01	-4.377090e+02
2.590000e-06	-1.647318e-06	-7.751634e-09	-1.193164e+01	-5.100415e+02
2.600000e-06	-1.784050e-06	-8.832915e-09	-1.292199e+01	-5.803909e+02
2.610000e-06	-1.920121e-06	-9.863828e-09	-1.390757e+01	-6.477058e+02
2.620000e-06	-2.055324e-06	-1.083319e-08	-1.488685e+01	-7.111434e+02
2.630000e-06	-2.189617e-06	-1.173334e-08	-1.585954e+01	-7.701573e+02
2.640000e-06	-2.323135e-06	-1.256303e-08	-1.682662e+01	-8.245310e+02
2.650000e-06	-2.455909e-06	-1.332507e-08	-1.778831e+01	-8.743544e+02
2.660000e-06	-2.587757e-06	-1.402666e-08	-1.874330e+01	-9.199552e+02
2.670000e-06	-2.718512e-06	-1.467427e-08	-1.969037e+01	-9.618023e+02
2.680000e-06	-2.848228e-06	-1.527230e-08	-2.062991e+01	-1.000405e+03
2.690000e-06	-2.977066e-06	-1.582508e-08	-2.156309e+01	-1.036231e+03
2.700000e-06	-3.104872e-06	-1.633660e-08	-2.248880e+01	-1.069649e+03
2.710000e-06	-3.231423e-06	-1.681282e-08	-2.340541e+01	-1.100915e+03
2.720000e-06	-3.356856e-06	-1.725761e-08	-2.431393e+01	-1.130188e+03
2.730000e-06	-3.481134e-06	-1.767158e-08	-2.521409e+01	-1.157566e+03
2.740000e-06	-3.604068e-06	-1.805951e-08	-2.610451e+01	-1.183125e+03
2.750000e-06	-3.725734e-06	-1.842604e-08	-2.698575e+01	-1.206963e+03
2.760000e-06	-3.846107e-06	-1.876877e-08	-2.785761e+01	-1.229214e+03
2.770000e-06	-3.964981e-06	-1.908984e-08	-2.871862e+01	-1.250046e+03
2.780000e-06	-4.082286e-06	-1.939326e-08	-2.956828e+01	-1.269648e+03
2.790000e-06	-4.198024e-06	-1.968063e-08	-3.040657e+01	-1.288198e+03
2.800000e-06	-4.312066e-06	-1.995152e-08	-3.123259e+01	-1.305842e+03
2.810000e-06	-4.424335e-06	-2.020616e-08	-3.204576e+01	-1.322671e+03
2.820000e-06	-4.534885e-06	-2.044919e-08	-3.284648e+01	-1.338723e+03
2.830000e-06	-4.643844e-06	-2.068376e-08	-3.363567e+01	-1.353996e+03
2.840000e-06	-4.751288e-06	-2.090802e-08	-3.441390e+01	-1.368467e+03
2.850000e-06	-4.857161e-06	-2.111934e-08	-3.518074e+01	-1.382118e+03
2.860000e-06	-4.961324e-06	-2.131648e-08	-3.593520e+01	-1.394961e+03
2.870000e-06	-5.063599e-06	-2.150083e-08	-3.667599e+01	-1.407040e+03
2.880000e-06	-5.163962e-06	-2.167537e-08	-3.740292e+01	-1.418433e+03
2.890000e-06	-5.262546e-06	-2.184163e-08	-3.811697e+01	-1.429238e+03
2.900000e-06	-5.359360e-06	-2.200050e-08	-3.881821e+01	-1.439546e+03
2.910000e-06	-5.454225e-06	-2.215233e-08	-3.950532e+01	-1.449428e+03
2.920000e-06	-5.547029e-06	-2.229775e-08	-4.017751e+01	-1.458916e+03
2.930000e-06	-5.637866e-06	-2.243561e-08	-4.083545e+01	-1.468004e+03
2.940000e-06	-5.726773e-06	-2.256603e-08	-4.147940e+01	-1.476657e+03
