# Temperatura_=_89.94
# Concentracion g/m^3_=_28200.0
# C_Vs_to_Am_M_A/Vsm_=_65563218390.804596
# pendiente_HvsI_1/m_=_3716.3
# ordenada_HvsI_A/m_=_1297.0
# frecuencia_Hz_=_302366.8922814

Tiempo_(s)	Campo_(V.s)	Magnetizacion_(V.s)	Campo_(kA/m)	Magnetizacion_(A/m)
0.000000e+00	-7.288437e-06	-2.999264e-08	-5.318814e+01	-1.964430e+03
1.000000e-08	-7.284356e-06	-2.998293e-08	-5.315836e+01	-1.963675e+03
2.000000e-08	-7.277969e-06	-2.996737e-08	-5.311175e+01	-1.962735e+03
3.000000e-08	-7.269249e-06	-2.995039e-08	-5.304812e+01	-1.961646e+03
4.000000e-08	-7.257916e-06	-2.993170e-08	-5.296541e+01	-1.960435e+03
5.000000e-08	-7.243797e-06	-2.991040e-08	-5.286237e+01	-1.959101e+03
6.000000e-08	-7.227035e-06	-2.988508e-08	-5.274005e+01	-1.957625e+03
7.000000e-08	-7.208123e-06	-2.985812e-08	-5.260204e+01	-1.955971e+03
8.000000e-08	-7.187178e-06	-2.983516e-08	-5.244919e+01	-1.954102e+03
9.000000e-08	-7.163652e-06	-2.984769e-08	-5.227751e+01	-1.951997e+03
1.000000e-07	-7.137121e-06	-2.980398e-08	-5.208390e+01	-1.949657e+03
1.100000e-07	-7.107730e-06	-2.972006e-08	-5.186942e+01	-1.947112e+03
1.200000e-07	-7.075840e-06	-2.967011e-08	-5.163669e+01	-1.944409e+03
1.300000e-07	-7.041496e-06	-2.963040e-08	-5.138606e+01	-1.941605e+03
1.400000e-07	-7.005043e-06	-2.956663e-08	-5.112004e+01	-1.938741e+03
1.500000e-07	-6.966767e-06	-2.949888e-08	-5.084072e+01	-1.935829e+03
1.600000e-07	-6.926309e-06	-2.951818e-08	-5.054548e+01	-1.932843e+03
1.700000e-07	-6.883442e-06	-2.942614e-08	-5.023265e+01	-1.929722e+03
1.800000e-07	-6.838156e-06	-2.931702e-08	-4.990217e+01	-1.926378e+03
1.900000e-07	-6.790276e-06	-2.931209e-08	-4.955276e+01	-1.922717e+03
2.000000e-07	-6.739600e-06	-2.920966e-08	-4.918294e+01	-1.918662e+03
2.100000e-07	-6.686278e-06	-2.914620e-08	-4.879382e+01	-1.914172e+03
2.200000e-07	-6.630476e-06	-2.910513e-08	-4.838660e+01	-1.909248e+03
2.300000e-07	-6.572142e-06	-2.901779e-08	-4.796091e+01	-1.903933e+03
2.400000e-07	-6.511379e-06	-2.894241e-08	-4.751748e+01	-1.898294e+03
2.500000e-07	-6.448320e-06	-2.883073e-08	-4.705730e+01	-1.892408e+03
2.600000e-07	-6.382769e-06	-2.873593e-08	-4.657893e+01	-1.886332e+03
2.700000e-07	-6.314747e-06	-2.862618e-08	-4.608253e+01	-1.880094e+03
2.800000e-07	-6.244454e-06	-2.853717e-08	-4.556957e+01	-1.873679e+03
2.900000e-07	-6.171775e-06	-2.844326e-08	-4.503918e+01	-1.867039e+03
3.000000e-07	-6.096528e-06	-2.832317e-08	-4.449006e+01	-1.860107e+03
3.100000e-07	-6.018678e-06	-2.822851e-08	-4.392194e+01	-1.852815e+03
3.200000e-07	-5.938334e-06	-2.809446e-08	-4.333562e+01	-1.845117e+03
3.300000e-07	-5.855863e-06	-2.796822e-08	-4.273378e+01	-1.836997e+03
3.400000e-07	-5.771519e-06	-2.783877e-08	-4.211827e+01	-1.828469e+03
3.500000e-07	-5.685297e-06	-2.771568e-08	-4.148906e+01	-1.819576e+03
3.600000e-07	-5.597133e-06	-2.758512e-08	-4.084567e+01	-1.810360e+03
3.700000e-07	-5.506879e-06	-2.743293e-08	-4.018704e+01	-1.800855e+03
3.800000e-07	-5.414555e-06	-2.728287e-08	-3.951329e+01	-1.791064e+03
3.900000e-07	-5.320322e-06	-2.711912e-08	-3.882561e+01	-1.780954e+03
4.000000e-07	-5.224256e-06	-2.695909e-08	-3.812457e+01	-1.770466e+03
4.100000e-07	-5.126307e-06	-2.678749e-08	-3.740977e+01	-1.759525e+03
4.200000e-07	-5.026520e-06	-2.661736e-08	-3.668156e+01	-1.748060e+03
4.300000e-07	-4.925019e-06	-2.643498e-08	-3.594085e+01	-1.736027e+03
4.400000e-07	-4.821776e-06	-2.624113e-08	-3.518742e+01	-1.723414e+03
4.500000e-07	-4.716810e-06	-2.603992e-08	-3.442142e+01	-1.710242e+03
4.600000e-07	-4.610093e-06	-2.583486e-08	-3.364264e+01	-1.696555e+03
4.700000e-07	-4.501698e-06	-2.562428e-08	-3.285162e+01	-1.682394e+03
4.800000e-07	-4.391811e-06	-2.540243e-08	-3.204971e+01	-1.667782e+03
4.900000e-07	-4.280340e-06	-2.517241e-08	-3.123624e+01	-1.652702e+03
5.000000e-07	-4.167243e-06	-2.492706e-08	-3.041090e+01	-1.637095e+03
5.100000e-07	-4.052434e-06	-2.467404e-08	-2.957307e+01	-1.620863e+03
5.200000e-07	-3.935899e-06	-2.440920e-08	-2.872264e+01	-1.603895e+03
5.300000e-07	-3.817872e-06	-2.413487e-08	-2.786133e+01	-1.586086e+03
5.400000e-07	-3.698403e-06	-2.384897e-08	-2.698949e+01	-1.567362e+03
5.500000e-07	-3.577583e-06	-2.355195e-08	-2.610779e+01	-1.547689e+03
5.600000e-07	-3.455384e-06	-2.323721e-08	-2.521603e+01	-1.527077e+03
5.700000e-07	-3.331766e-06	-2.290755e-08	-2.431391e+01	-1.505559e+03
5.800000e-07	-3.206964e-06	-2.256588e-08	-2.340316e+01	-1.483163e+03
5.900000e-07	-3.081065e-06	-2.220979e-08	-2.248440e+01	-1.459885e+03
6.000000e-07	-2.954054e-06	-2.184132e-08	-2.155752e+01	-1.435663e+03
6.100000e-07	-2.825956e-06	-2.145452e-08	-2.062271e+01	-1.410373e+03
6.200000e-07	-2.696849e-06	-2.104645e-08	-1.968054e+01	-1.383834e+03
6.300000e-07	-2.566696e-06	-2.061203e-08	-1.873074e+01	-1.355834e+03
6.400000e-07	-2.435429e-06	-2.015460e-08	-1.777280e+01	-1.326163e+03
6.500000e-07	-2.303257e-06	-1.967211e-08	-1.680827e+01	-1.294644e+03
6.600000e-07	-2.170412e-06	-1.916360e-08	-1.583881e+01	-1.261145e+03
6.700000e-07	-2.036942e-06	-1.862723e-08	-1.486480e+01	-1.225581e+03
6.800000e-07	-1.902815e-06	-1.805824e-08	-1.388599e+01	-1.187885e+03
6.900000e-07	-1.767945e-06	-1.745214e-08	-1.290176e+01	-1.147973e+03
7.000000e-07	-1.632408e-06	-1.680260e-08	-1.191267e+01	-1.105698e+03
7.100000e-07	-1.496312e-06	-1.610904e-08	-1.091950e+01	-1.060826e+03
7.200000e-07	-1.359702e-06	-1.537187e-08	-9.922572e+00	-1.013030e+03
7.300000e-07	-1.222675e-06	-1.458708e-08	-8.922604e+00	-9.619273e+02
7.400000e-07	-1.085264e-06	-1.374887e-08	-7.919829e+00	-9.071339e+02
7.500000e-07	-9.474368e-07	-1.285542e-08	-6.914021e+00	-8.483531e+02
7.600000e-07	-8.092030e-07	-1.190159e-08	-5.905244e+00	-7.854564e+02
7.700000e-07	-6.707082e-07	-1.088641e-08	-4.894564e+00	-7.185447e+02
7.800000e-07	-5.319474e-07	-9.813701e-09	-3.881942e+00	-6.479686e+02
7.900000e-07	-3.928567e-07	-8.693127e-09	-2.866914e+00	-5.742965e+02
8.000000e-07	-2.535010e-07	-7.535159e-09	-1.849950e+00	-4.982315e+02
8.100000e-07	-1.139964e-07	-6.347805e-09	-8.319012e-01	-4.204916e+02
8.200000e-07	2.558648e-08	-5.142034e-09	1.867201e-01	-3.416793e+02
8.300000e-07	1.651375e-07	-3.924777e-09	1.205108e+00	-2.621703e+02
8.400000e-07	3.046229e-07	-2.700372e-09	2.223018e+00	-1.820504e+02
8.500000e-07	4.440461e-07	-1.469529e-09	3.240473e+00	-1.011182e+02
8.600000e-07	5.833738e-07	-2.264577e-10	4.257232e+00	-1.896000e+01
8.700000e-07	7.225465e-07	1.041512e-09	5.272860e+00	6.491678e+01
8.800000e-07	8.613842e-07	2.344036e-09	6.286043e+00	1.509178e+02
8.900000e-07	9.998022e-07	3.684131e-09	7.296163e+00	2.391994e+02
9.000000e-07	1.137756e-06	5.060880e-09	8.302896e+00	3.295457e+02
9.100000e-07	1.275249e-06	6.462991e-09	9.306265e+00	4.213143e+02
9.200000e-07	1.412246e-06	7.873117e-09	1.030601e+01	5.134645e+02
9.300000e-07	1.548780e-06	9.267904e-09	1.130239e+01	6.046645e+02
9.400000e-07	1.684796e-06	1.062228e-08	1.229498e+01	6.934577e+02
9.500000e-07	1.820149e-06	1.191195e-08	1.328273e+01	7.784529e+02
9.600000e-07	1.954771e-06	1.311855e-08	1.426515e+01	8.585037e+02
9.700000e-07	2.088595e-06	1.423391e-08	1.524175e+01	9.328394e+02
9.800000e-07	2.221677e-06	1.525928e-08	1.621293e+01	1.001127e+03
9.900000e-07	2.354059e-06	1.619864e-08	1.717900e+01	1.063459e+03
1.000000e-06	2.485668e-06	1.705980e-08	1.813943e+01	1.120266e+03
1.010000e-06	2.616252e-06	1.785253e-08	1.909237e+01	1.172197e+03
1.020000e-06	2.745691e-06	1.858419e-08	2.003697e+01	1.219974e+03
1.030000e-06	2.874139e-06	1.926196e-08	2.097433e+01	1.264268e+03
1.040000e-06	3.001593e-06	1.989074e-08	2.190444e+01	1.305615e+03
1.050000e-06	3.127912e-06	2.047682e-08	2.282627e+01	1.344381e+03
1.060000e-06	3.253114e-06	2.102368e-08	2.373995e+01	1.380773e+03
1.070000e-06	3.377298e-06	2.153513e-08	2.464619e+01	1.414887e+03
1.080000e-06	3.500312e-06	2.201294e-08	2.554390e+01	1.446777e+03
1.090000e-06	3.621936e-06	2.246016e-08	2.643146e+01	1.476512e+03
1.100000e-06	3.742266e-06	2.288134e-08	2.730958e+01	1.504215e+03
1.110000e-06	3.861241e-06	2.327799e-08	2.817782e+01	1.530078e+03
1.120000e-06	3.978773e-06	2.365260e-08	2.903552e+01	1.554338e+03
1.130000e-06	4.094895e-06	2.400765e-08	2.988293e+01	1.577245e+03
1.140000e-06	4.209380e-06	2.434377e-08	3.071840e+01	1.599021e+03
1.150000e-06	4.322191e-06	2.466247e-08	3.154165e+01	1.619825e+03
1.160000e-06	4.433414e-06	2.496346e-08	3.235331e+01	1.639737e+03
1.170000e-06	4.543062e-06	2.524698e-08	3.315348e+01	1.658769e+03
1.180000e-06	4.651242e-06	2.551467e-08	3.394293e+01	1.676887e+03
1.190000e-06	4.757784e-06	2.576845e-08	3.472043e+01	1.694048e+03
1.200000e-06	4.862589e-06	2.601168e-08	3.548526e+01	1.710228e+03
1.210000e-06	4.965616e-06	2.624511e-08	3.623711e+01	1.725453e+03
1.220000e-06	5.066879e-06	2.646625e-08	3.697608e+01	1.739796e+03
1.230000e-06	5.166355e-06	2.667653e-08	3.770202e+01	1.753373e+03
1.240000e-06	5.263814e-06	2.687606e-08	3.841324e+01	1.766312e+03
1.250000e-06	5.359260e-06	2.706470e-08	3.910976e+01	1.778729e+03
1.260000e-06	5.452847e-06	2.724507e-08	3.979273e+01	1.790700e+03
1.270000e-06	5.544564e-06	2.741657e-08	4.046205e+01	1.802255e+03
1.280000e-06	5.634251e-06	2.758019e-08	4.111654e+01	1.813375e+03
1.290000e-06	5.721864e-06	2.773760e-08	4.175591e+01	1.824010e+03
1.300000e-06	5.807417e-06	2.789102e-08	4.238024e+01	1.834104e+03
1.310000e-06	5.890924e-06	2.803856e-08	4.298964e+01	1.843614e+03
1.320000e-06	5.972317e-06	2.817908e-08	4.358362e+01	1.852534e+03
1.330000e-06	6.051519e-06	2.831169e-08	4.416160e+01	1.860893e+03
1.340000e-06	6.128502e-06	2.843633e-08	4.472339e+01	1.868753e+03
1.350000e-06	6.203148e-06	2.855313e-08	4.526813e+01	1.876193e+03
1.360000e-06	6.275386e-06	2.866261e-08	4.579530e+01	1.883283e+03
1.370000e-06	6.345331e-06	2.876700e-08	4.630572e+01	1.890075e+03
1.380000e-06	6.413037e-06	2.886675e-08	4.679982e+01	1.896588e+03
1.390000e-06	6.478457e-06	2.896169e-08	4.727723e+01	1.902811e+03
1.400000e-06	6.541584e-06	2.905056e-08	4.773790e+01	1.908716e+03
1.410000e-06	6.602484e-06	2.913196e-08	4.818233e+01	1.914270e+03
1.420000e-06	6.661118e-06	2.920684e-08	4.861021e+01	1.919455e+03
1.430000e-06	6.717396e-06	2.927971e-08	4.902091e+01	1.924276e+03
1.440000e-06	6.771252e-06	2.935088e-08	4.941393e+01	1.928766e+03
1.450000e-06	6.822386e-06	2.941848e-08	4.978709e+01	1.932972e+03
1.460000e-06	6.870672e-06	2.948299e-08	5.013946e+01	1.936949e+03
1.470000e-06	6.916463e-06	2.954472e-08	5.047362e+01	1.940740e+03
1.480000e-06	6.959900e-06	2.960282e-08	5.079061e+01	1.944363e+03
1.490000e-06	7.000800e-06	2.965474e-08	5.108908e+01	1.947806e+03
1.500000e-06	7.039157e-06	2.970143e-08	5.136899e+01	1.951034e+03
1.510000e-06	7.075099e-06	2.974466e-08	5.163128e+01	1.953997e+03
1.520000e-06	7.108507e-06	2.978345e-08	5.187508e+01	1.956650e+03
1.530000e-06	7.139363e-06	2.981973e-08	5.210026e+01	1.958962e+03
1.540000e-06	7.167825e-06	2.985246e-08	5.230797e+01	1.960933e+03
1.550000e-06	7.193711e-06	2.988181e-08	5.249687e+01	1.962589e+03
1.560000e-06	7.216877e-06	2.990704e-08	5.266593e+01	1.963978e+03
1.570000e-06	7.237545e-06	2.992684e-08	5.281675e+01	1.965153e+03
1.580000e-06	7.255771e-06	2.994372e-08	5.294976e+01	1.966161e+03
1.590000e-06	7.271293e-06	2.995821e-08	5.306303e+01	1.967025e+03
1.600000e-06	7.283975e-06	2.996852e-08	5.315558e+01	1.967744e+03
1.610000e-06	7.293791e-06	2.997390e-08	5.322721e+01	1.968293e+03
1.620000e-06	7.300816e-06	2.997669e-08	5.327848e+01	1.968633e+03
1.630000e-06	7.305306e-06	2.997728e-08	5.331125e+01	1.968729e+03
1.640000e-06	7.307218e-06	2.997635e-08	5.332520e+01	1.968558e+03
1.650000e-06	7.306484e-06	2.997487e-08	5.331984e+01	1.968121e+03
1.660000e-06	7.303372e-06	2.996485e-08	5.329713e+01	1.967443e+03
1.670000e-06	7.297830e-06	2.995476e-08	5.325668e+01	1.966563e+03
1.680000e-06	7.289758e-06	2.994314e-08	5.319778e+01	1.965523e+03
1.690000e-06	7.279296e-06	2.992633e-08	5.312143e+01	1.964353e+03
1.700000e-06	7.266259e-06	2.990686e-08	5.302629e+01	1.963063e+03
1.710000e-06	7.250709e-06	2.988730e-08	5.291282e+01	1.961641e+03
1.720000e-06	7.233009e-06	2.986511e-08	5.278365e+01	1.960053e+03
1.730000e-06	7.213230e-06	2.981745e-08	5.263931e+01	1.958264e+03
1.740000e-06	7.190736e-06	2.973291e-08	5.247516e+01	1.956243e+03
1.750000e-06	7.164848e-06	2.972845e-08	5.228624e+01	1.953984e+03
1.760000e-06	7.135632e-06	2.972778e-08	5.207303e+01	1.951506e+03
1.770000e-06	7.103727e-06	2.968123e-08	5.184020e+01	1.948853e+03
1.780000e-06	7.069800e-06	2.965552e-08	5.159262e+01	1.946078e+03
1.790000e-06	7.034245e-06	2.966120e-08	5.133315e+01	1.943231e+03
1.800000e-06	6.997089e-06	2.955312e-08	5.106200e+01	1.940336e+03
1.810000e-06	6.957564e-06	2.951003e-08	5.077356e+01	1.937381e+03
1.820000e-06	6.915362e-06	2.954344e-08	5.046559e+01	1.934317e+03
1.830000e-06	6.870895e-06	2.943033e-08	5.014109e+01	1.931062e+03
1.840000e-06	6.823934e-06	2.945964e-08	4.979839e+01	1.927523e+03
1.850000e-06	6.774403e-06	2.938093e-08	4.943692e+01	1.923615e+03
1.860000e-06	6.722246e-06	2.927283e-08	4.905630e+01	1.919282e+03
1.870000e-06	6.667271e-06	2.923891e-08	4.865512e+01	1.914509e+03
1.880000e-06	6.609927e-06	2.910226e-08	4.823664e+01	1.909325e+03
1.890000e-06	6.550182e-06	2.908071e-08	4.780065e+01	1.903792e+03
1.900000e-06	6.487785e-06	2.899210e-08	4.734530e+01	1.897985e+03
1.910000e-06	6.422883e-06	2.891089e-08	4.687167e+01	1.891971e+03
1.920000e-06	6.355646e-06	2.882896e-08	4.638100e+01	1.885790e+03
1.930000e-06	6.286060e-06	2.867540e-08	4.587319e+01	1.879441e+03
1.940000e-06	6.213970e-06	2.861520e-08	4.534711e+01	1.872887e+03
1.950000e-06	6.139527e-06	2.847246e-08	4.480385e+01	1.866067e+03
1.960000e-06	6.062530e-06	2.838046e-08	4.424195e+01	1.858910e+03
1.970000e-06	5.982957e-06	2.828125e-08	4.366126e+01	1.851360e+03
1.980000e-06	5.901285e-06	2.815516e-08	4.306525e+01	1.843388e+03
1.990000e-06	5.817579e-06	2.804646e-08	4.245440e+01	1.835002e+03
2.000000e-06	5.731759e-06	2.787969e-08	4.182812e+01	1.826233e+03
2.010000e-06	5.643809e-06	2.775752e-08	4.118630e+01	1.817126e+03
2.020000e-06	5.553887e-06	2.760208e-08	4.053008e+01	1.807722e+03
2.030000e-06	5.462058e-06	2.746737e-08	3.985995e+01	1.798033e+03
2.040000e-06	5.368240e-06	2.731618e-08	3.917530e+01	1.788042e+03
2.050000e-06	5.272472e-06	2.715491e-08	3.847643e+01	1.777696e+03
2.060000e-06	5.174963e-06	2.699127e-08	3.776484e+01	1.766924e+03
2.070000e-06	5.075846e-06	2.680503e-08	3.704152e+01	1.755653e+03
2.080000e-06	4.975001e-06	2.663406e-08	3.630560e+01	1.743825e+03
2.090000e-06	4.872244e-06	2.644414e-08	3.555572e+01	1.731417e+03
2.100000e-06	4.767625e-06	2.626186e-08	3.479225e+01	1.718440e+03
2.110000e-06	4.661394e-06	2.605605e-08	3.401702e+01	1.704930e+03
2.120000e-06	4.553615e-06	2.584394e-08	3.323049e+01	1.690933e+03
2.130000e-06	4.444294e-06	2.561445e-08	3.243270e+01	1.676481e+03
2.140000e-06	4.333275e-06	2.538189e-08	3.162253e+01	1.661572e+03
2.150000e-06	4.220499e-06	2.514623e-08	3.079954e+01	1.646162e+03
2.160000e-06	4.106158e-06	2.490492e-08	2.996512e+01	1.630164e+03
2.170000e-06	3.990202e-06	2.465886e-08	2.911892e+01	1.613472e+03
2.180000e-06	3.872638e-06	2.439226e-08	2.826098e+01	1.595973e+03
2.190000e-06	3.753428e-06	2.411236e-08	2.739104e+01	1.577580e+03
2.200000e-06	3.632686e-06	2.381604e-08	2.650991e+01	1.558246e+03
2.210000e-06	3.510642e-06	2.351254e-08	2.561928e+01	1.537966e+03
2.220000e-06	3.387314e-06	2.319429e-08	2.471928e+01	1.516766e+03
2.230000e-06	3.262775e-06	2.286752e-08	2.381045e+01	1.494681e+03
2.240000e-06	3.137105e-06	2.251754e-08	2.289335e+01	1.471720e+03
2.250000e-06	3.010228e-06	2.214812e-08	2.196746e+01	1.447845e+03
2.260000e-06	2.882117e-06	2.176133e-08	2.103256e+01	1.422954e+03
2.270000e-06	2.752947e-06	2.136107e-08	2.008992e+01	1.396884e+03
2.280000e-06	2.622867e-06	2.094476e-08	1.914065e+01	1.369429e+03
2.290000e-06	2.491872e-06	2.050546e-08	1.818470e+01	1.340377e+03
2.300000e-06	2.359973e-06	2.003893e-08	1.722215e+01	1.309534e+03
2.310000e-06	2.227264e-06	1.954008e-08	1.625370e+01	1.276753e+03
2.320000e-06	2.093920e-06	1.901114e-08	1.528060e+01	1.241934e+03
2.330000e-06	1.959917e-06	1.845017e-08	1.430270e+01	1.205006e+03
2.340000e-06	1.825137e-06	1.786037e-08	1.331913e+01	1.165898e+03
2.350000e-06	1.689615e-06	1.723570e-08	1.233015e+01	1.124487e+03
2.360000e-06	1.553450e-06	1.656611e-08	1.133646e+01	1.080574e+03
2.370000e-06	1.416767e-06	1.584784e-08	1.033901e+01	1.033864e+03
2.380000e-06	1.279667e-06	1.508041e-08	9.338507e+00	9.839874e+02
2.390000e-06	1.142279e-06	1.426021e-08	8.335903e+00	9.305513e+02
2.400000e-06	1.004535e-06	1.338478e-08	7.330703e+00	8.732188e+02
2.410000e-06	8.663848e-07	1.245179e-08	6.322535e+00	8.117924e+02
2.420000e-06	7.279792e-07	1.145916e-08	5.312505e+00	7.462861e+02
2.430000e-06	5.893442e-07	1.040861e-08	4.300801e+00	6.769625e+02
2.440000e-06	4.503864e-07	9.305612e-09	3.286742e+00	6.043192e+02
2.450000e-06	3.111884e-07	8.156596e-09	2.270930e+00	5.290234e+02
2.460000e-06	1.719003e-07	6.972203e-09	1.254460e+00	4.518028e+02
2.470000e-06	3.253085e-08	5.765691e-09	2.373973e-01	3.733157e+02
2.480000e-06	-1.068842e-07	4.548351e-09	-7.799985e-01	2.940290e+02
2.490000e-06	-2.462554e-07	3.323189e-09	-1.797075e+00	2.141354e+02
2.500000e-06	-3.855486e-07	2.087242e-09	-2.813582e+00	1.335311e+02
2.510000e-06	-5.247180e-07	8.373572e-10	-3.829186e+00	5.186559e+01
2.520000e-06	-6.636863e-07	-4.314638e-10	-4.843321e+00	-3.134365e+01
2.530000e-06	-8.024440e-07	-1.725881e-09	-5.855920e+00	-1.165529e+02
2.540000e-06	-9.409175e-07	-3.052723e-09	-6.866446e+00	-2.040245e+02
2.550000e-06	-1.079020e-06	-4.415138e-09	-7.874260e+00	-2.936857e+02
2.560000e-06	-1.216778e-06	-5.808856e-09	-8.879570e+00	-3.850477e+02
2.570000e-06	-1.354146e-06	-7.224829e-09	-9.882021e+00	-4.772034e+02
2.580000e-06	-1.491087e-06	-8.642134e-09	-1.088137e+01	-5.689085e+02
2.590000e-06	-1.627509e-06	-1.002942e-08	-1.187692e+01	-6.587294e+02
2.600000e-06	-1.763280e-06	-1.135952e-08	-1.286772e+01	-7.452298e+02
2.610000e-06	-1.898305e-06	-1.261217e-08	-1.385308e+01	-8.271575e+02
2.620000e-06	-2.032438e-06	-1.377517e-08	-1.483193e+01	-9.035966e+02
2.630000e-06	-2.165747e-06	-1.484703e-08	-1.580477e+01	-9.740560e+02
2.640000e-06	-2.298380e-06	-1.582845e-08	-1.677267e+01	-1.038482e+03
2.650000e-06	-2.430219e-06	-1.672709e-08	-1.773478e+01	-1.097197e+03
2.660000e-06	-2.561056e-06	-1.755475e-08	-1.868958e+01	-1.150788e+03
2.670000e-06	-2.690882e-06	-1.831844e-08	-1.963700e+01	-1.199967e+03
2.680000e-06	-2.819841e-06	-1.902543e-08	-2.057809e+01	-1.245436e+03
2.690000e-06	-2.947877e-06	-1.968097e-08	-2.151245e+01	-1.287786e+03
2.700000e-06	-3.074741e-06	-2.029234e-08	-2.243825e+01	-1.327444e+03
2.710000e-06	-3.200383e-06	-2.086237e-08	-2.335514e+01	-1.364669e+03
2.720000e-06	-3.324970e-06	-2.139152e-08	-2.426432e+01	-1.399590e+03
2.730000e-06	-3.448360e-06	-2.188279e-08	-2.516477e+01	-1.432270e+03
2.740000e-06	-3.570390e-06	-2.234286e-08	-2.605530e+01	-1.462764e+03
2.750000e-06	-3.691263e-06	-2.277526e-08	-2.693738e+01	-1.491175e+03
2.760000e-06	-3.810850e-06	-2.318187e-08	-2.781008e+01	-1.517671e+03
2.770000e-06	-3.928845e-06	-2.356895e-08	-2.867116e+01	-1.542475e+03
2.780000e-06	-4.045277e-06	-2.393436e-08	-2.952083e+01	-1.565839e+03
2.790000e-06	-4.160117e-06	-2.427599e-08	-3.035889e+01	-1.587998e+03
2.800000e-06	-4.273175e-06	-2.459815e-08	-3.118395e+01	-1.609137e+03
2.810000e-06	-4.384530e-06	-2.490558e-08	-3.199657e+01	-1.629363e+03
2.820000e-06	-4.494297e-06	-2.519963e-08	-3.279761e+01	-1.648713e+03
2.830000e-06	-4.602580e-06	-2.547863e-08	-3.358782e+01	-1.667164e+03
2.840000e-06	-4.709446e-06	-2.574311e-08	-3.436768e+01	-1.684672e+03
2.850000e-06	-4.814738e-06	-2.599369e-08	-3.513606e+01	-1.701203e+03
2.860000e-06	-4.918243e-06	-2.623108e-08	-3.589140e+01	-1.716764e+03
2.870000e-06	-5.019849e-06	-2.645812e-08	-3.663288e+01	-1.731412e+03
2.880000e-06	-5.119615e-06	-2.667739e-08	-3.736094e+01	-1.745249e+03
2.890000e-06	-5.217605e-06	-2.688741e-08	-3.807602e+01	-1.758402e+03
2.900000e-06	-5.313762e-06	-2.708473e-08	-3.877774e+01	-1.770995e+03
2.910000e-06	-5.407938e-06	-2.727157e-08	-3.946500e+01	-1.783120e+03
2.920000e-06	-5.500158e-06	-2.744924e-08	-4.013799e+01	-1.794825e+03
2.930000e-06	-5.590490e-06	-2.761707e-08	-4.079719e+01	-1.806106e+03
2.940000e-06	-5.678823e-06	-2.777734e-08	-4.144181e+01	-1.816922e+03
