# Temperatura_=_83.92
# Concentracion g/m^3_=_28200.0
# C_Vs_to_Am_M_A/Vsm_=_65563218390.804596
# pendiente_HvsI_1/m_=_3716.3
# ordenada_HvsI_A/m_=_1297.0
# frecuencia_Hz_=_302370.75802181265

Tiempo_(s)	Campo_(V.s)	Magnetizacion_(V.s)	Campo_(kA/m)	Magnetizacion_(A/m)
0.000000e+00	-7.334440e-06	-2.917115e-08	-5.318785e+01	-1.910170e+03
1.000000e-08	-7.330423e-06	-2.916113e-08	-5.315872e+01	-1.909483e+03
2.000000e-08	-7.324109e-06	-2.914676e-08	-5.311293e+01	-1.908601e+03
3.000000e-08	-7.315350e-06	-2.913200e-08	-5.304941e+01	-1.907560e+03
4.000000e-08	-7.303945e-06	-2.911412e-08	-5.296670e+01	-1.906385e+03
5.000000e-08	-7.289725e-06	-2.909280e-08	-5.286358e+01	-1.905086e+03
6.000000e-08	-7.272854e-06	-2.906992e-08	-5.274123e+01	-1.903652e+03
7.000000e-08	-7.253889e-06	-2.904657e-08	-5.260371e+01	-1.902062e+03
8.000000e-08	-7.232826e-06	-2.903845e-08	-5.245096e+01	-1.900291e+03
9.000000e-08	-7.209140e-06	-2.904549e-08	-5.227919e+01	-1.898321e+03
1.000000e-07	-7.182457e-06	-2.899041e-08	-5.208570e+01	-1.896157e+03
1.100000e-07	-7.152933e-06	-2.891536e-08	-5.187160e+01	-1.893822e+03
1.200000e-07	-7.120920e-06	-2.887124e-08	-5.163945e+01	-1.891353e+03
1.300000e-07	-7.086509e-06	-2.883152e-08	-5.138990e+01	-1.888793e+03
1.400000e-07	-7.049926e-06	-2.876745e-08	-5.112461e+01	-1.886174e+03
1.500000e-07	-7.011519e-06	-2.871431e-08	-5.084609e+01	-1.883501e+03
1.600000e-07	-6.970924e-06	-2.873115e-08	-5.055170e+01	-1.880748e+03
1.700000e-07	-6.927815e-06	-2.863383e-08	-5.023909e+01	-1.877854e+03
1.800000e-07	-6.882347e-06	-2.854829e-08	-4.990936e+01	-1.874739e+03
1.900000e-07	-6.834265e-06	-2.853287e-08	-4.956068e+01	-1.871320e+03
2.000000e-07	-6.783281e-06	-2.843948e-08	-4.919096e+01	-1.867526e+03
2.100000e-07	-6.729640e-06	-2.837595e-08	-4.880196e+01	-1.863319e+03
2.200000e-07	-6.673499e-06	-2.832558e-08	-4.839484e+01	-1.858700e+03
2.300000e-07	-6.614850e-06	-2.827045e-08	-4.796952e+01	-1.853706e+03
2.400000e-07	-6.553774e-06	-2.817824e-08	-4.752662e+01	-1.848399e+03
2.500000e-07	-6.490341e-06	-2.806802e-08	-4.706662e+01	-1.842846e+03
2.600000e-07	-6.424416e-06	-2.798940e-08	-4.658854e+01	-1.837101e+03
2.700000e-07	-6.355995e-06	-2.789131e-08	-4.609236e+01	-1.831189e+03
2.800000e-07	-6.285303e-06	-2.780455e-08	-4.557972e+01	-1.825098e+03
2.900000e-07	-6.212163e-06	-2.771361e-08	-4.504932e+01	-1.818788e+03
3.000000e-07	-6.136427e-06	-2.760894e-08	-4.450010e+01	-1.812197e+03
3.100000e-07	-6.058125e-06	-2.750490e-08	-4.393227e+01	-1.805267e+03
3.200000e-07	-5.977422e-06	-2.737696e-08	-4.334703e+01	-1.797954e+03
3.300000e-07	-5.894627e-06	-2.725950e-08	-4.274662e+01	-1.790244e+03
3.400000e-07	-5.809823e-06	-2.713893e-08	-4.213164e+01	-1.782150e+03
3.500000e-07	-5.723114e-06	-2.702801e-08	-4.150284e+01	-1.773706e+03
3.600000e-07	-5.634412e-06	-2.689724e-08	-4.085959e+01	-1.764949e+03
3.700000e-07	-5.543573e-06	-2.674994e-08	-4.020085e+01	-1.755907e+03
3.800000e-07	-5.450730e-06	-2.660858e-08	-3.952757e+01	-1.746580e+03
3.900000e-07	-5.355964e-06	-2.645319e-08	-3.884035e+01	-1.736935e+03
4.000000e-07	-5.259309e-06	-2.629687e-08	-3.813942e+01	-1.726917e+03
4.100000e-07	-5.160804e-06	-2.613170e-08	-3.742509e+01	-1.716456e+03
4.200000e-07	-5.060523e-06	-2.596859e-08	-3.669787e+01	-1.705488e+03
4.300000e-07	-4.958463e-06	-2.578915e-08	-3.595775e+01	-1.693971e+03
4.400000e-07	-4.854616e-06	-2.560435e-08	-3.520467e+01	-1.681895e+03
4.500000e-07	-4.749036e-06	-2.541537e-08	-3.443903e+01	-1.669281e+03
4.600000e-07	-4.641739e-06	-2.521883e-08	-3.366094e+01	-1.656169e+03
4.700000e-07	-4.532773e-06	-2.501419e-08	-3.287073e+01	-1.642596e+03
4.800000e-07	-4.422211e-06	-2.479999e-08	-3.206896e+01	-1.628583e+03
4.900000e-07	-4.310022e-06	-2.458073e-08	-3.125539e+01	-1.614111e+03
5.000000e-07	-4.196116e-06	-2.434421e-08	-3.042937e+01	-1.599121e+03
5.100000e-07	-4.080470e-06	-2.410048e-08	-2.959072e+01	-1.583520e+03
5.200000e-07	-3.963204e-06	-2.384594e-08	-2.874034e+01	-1.567198e+03
5.300000e-07	-3.844497e-06	-2.358092e-08	-2.787950e+01	-1.550052e+03
5.400000e-07	-3.724357e-06	-2.330327e-08	-2.700827e+01	-1.532010e+03
5.500000e-07	-3.602746e-06	-2.301634e-08	-2.612637e+01	-1.513036e+03
5.600000e-07	-3.479733e-06	-2.271555e-08	-2.523430e+01	-1.493136e+03
5.700000e-07	-3.355421e-06	-2.239597e-08	-2.433282e+01	-1.472336e+03
5.800000e-07	-3.229932e-06	-2.206399e-08	-2.342280e+01	-1.450664e+03
5.900000e-07	-3.103346e-06	-2.171746e-08	-2.250482e+01	-1.428112e+03
6.000000e-07	-2.975597e-06	-2.135820e-08	-2.157841e+01	-1.404625e+03
6.100000e-07	-2.846683e-06	-2.098215e-08	-2.064356e+01	-1.380082e+03
6.200000e-07	-2.716718e-06	-2.058734e-08	-1.970108e+01	-1.354313e+03
6.300000e-07	-2.585732e-06	-2.016835e-08	-1.875119e+01	-1.327117e+03
6.400000e-07	-2.453713e-06	-1.972433e-08	-1.779382e+01	-1.298290e+03
6.500000e-07	-2.320848e-06	-1.925488e-08	-1.683031e+01	-1.267660e+03
6.600000e-07	-2.187373e-06	-1.875960e-08	-1.586238e+01	-1.235093e+03
6.700000e-07	-2.053181e-06	-1.823769e-08	-1.488924e+01	-1.200500e+03
6.800000e-07	-1.918207e-06	-1.768286e-08	-1.391044e+01	-1.163805e+03
6.900000e-07	-1.782500e-06	-1.709261e-08	-1.292632e+01	-1.124916e+03
7.000000e-07	-1.646070e-06	-1.646061e-08	-1.193696e+01	-1.083683e+03
7.100000e-07	-1.509004e-06	-1.578632e-08	-1.094299e+01	-1.039871e+03
7.200000e-07	-1.371442e-06	-1.506825e-08	-9.945415e+00	-9.931634e+02
7.300000e-07	-1.233502e-06	-1.430120e-08	-8.945099e+00	-9.431877e+02
7.400000e-07	-1.095157e-06	-1.348022e-08	-7.941855e+00	-8.895779e+02
7.500000e-07	-9.563642e-07	-1.260275e-08	-6.935356e+00	-8.320531e+02
7.600000e-07	-8.171474e-07	-1.166723e-08	-5.925785e+00	-7.704975e+02
7.700000e-07	-6.775911e-07	-1.067285e-08	-4.913751e+00	-7.050190e+02
7.800000e-07	-5.377450e-07	-9.625867e-09	-3.899616e+00	-6.359691e+02
7.900000e-07	-3.976326e-07	-8.532100e-09	-2.883550e+00	-5.639117e+02
8.000000e-07	-2.573229e-07	-7.400067e-09	-1.866053e+00	-4.895427e+02
8.100000e-07	-1.168150e-07	-6.239071e-09	-8.471182e-01	-4.135741e+02
8.200000e-07	2.383690e-08	-5.062192e-09	1.728603e-01	-3.366066e+02
8.300000e-07	1.644770e-07	-3.875572e-09	1.192753e+00	-2.590194e+02
8.400000e-07	3.050356e-07	-2.681681e-09	2.212055e+00	-1.809067e+02
8.500000e-07	4.454542e-07	-1.482226e-09	3.230342e+00	-1.020780e+02
8.600000e-07	5.857298e-07	-2.709770e-10	4.247592e+00	-2.212749e+01
8.700000e-07	7.257823e-07	9.613708e-10	5.263223e+00	5.943706e+01
8.800000e-07	8.654824e-07	2.227381e-09	6.276300e+00	1.430335e+02
8.900000e-07	1.004839e-06	3.528874e-09	7.286886e+00	2.288453e+02
9.000000e-07	1.143761e-06	4.865098e-09	8.294317e+00	3.166978e+02
9.100000e-07	1.282180e-06	6.229074e-09	9.298104e+00	4.060007e+02
9.200000e-07	1.420178e-06	7.602930e-09	1.029884e+01	4.957696e+02
9.300000e-07	1.557787e-06	8.963455e-09	1.129675e+01	5.847258e+02
9.400000e-07	1.694835e-06	1.028619e-08	1.229059e+01	6.714546e+02
9.500000e-07	1.831132e-06	1.154866e-08	1.327899e+01	7.545908e+02
9.600000e-07	1.966607e-06	1.272971e-08	1.426143e+01	8.329941e+02
9.700000e-07	2.101232e-06	1.382267e-08	1.523770e+01	9.058821e+02
9.800000e-07	2.235076e-06	1.483016e-08	1.620831e+01	9.728960e+02
9.900000e-07	2.368267e-06	1.575517e-08	1.717418e+01	1.034092e+03
1.000000e-06	2.500709e-06	1.660232e-08	1.813463e+01	1.089866e+03
1.010000e-06	2.632077e-06	1.737962e-08	1.908728e+01	1.140835e+03
1.020000e-06	2.762348e-06	1.809654e-08	2.003198e+01	1.187696e+03
1.030000e-06	2.891621e-06	1.875957e-08	2.096944e+01	1.231110e+03
1.040000e-06	3.019777e-06	1.937357e-08	2.189880e+01	1.271607e+03
1.050000e-06	3.146767e-06	1.994707e-08	2.281970e+01	1.309554e+03
1.060000e-06	3.272686e-06	2.048358e-08	2.373284e+01	1.345161e+03
1.070000e-06	3.397593e-06	2.098596e-08	2.463864e+01	1.378529e+03
1.080000e-06	3.521300e-06	2.145359e-08	2.553574e+01	1.409707e+03
1.090000e-06	3.643694e-06	2.189096e-08	2.642332e+01	1.438761e+03
1.100000e-06	3.764797e-06	2.230347e-08	2.730153e+01	1.465808e+03
1.110000e-06	3.884457e-06	2.269043e-08	2.816928e+01	1.491028e+03
1.120000e-06	4.002695e-06	2.305496e-08	2.902672e+01	1.514654e+03
1.130000e-06	4.119591e-06	2.339847e-08	2.987442e+01	1.536933e+03
1.140000e-06	4.234929e-06	2.372382e-08	3.071083e+01	1.558089e+03
1.150000e-06	4.348519e-06	2.403283e-08	3.153456e+01	1.578284e+03
1.160000e-06	4.460352e-06	2.432481e-08	3.234556e+01	1.597608e+03
1.170000e-06	4.570605e-06	2.460011e-08	3.314509e+01	1.616077e+03
1.180000e-06	4.679425e-06	2.486099e-08	3.393422e+01	1.633661e+03
1.190000e-06	4.786636e-06	2.510960e-08	3.471170e+01	1.650315e+03
1.200000e-06	4.892133e-06	2.534721e-08	3.547674e+01	1.666013e+03
1.210000e-06	4.995862e-06	2.557262e-08	3.622896e+01	1.680772e+03
1.220000e-06	5.097807e-06	2.578530e-08	3.696825e+01	1.694660e+03
1.230000e-06	5.197972e-06	2.598650e-08	3.769462e+01	1.707784e+03
1.240000e-06	5.296180e-06	2.617754e-08	3.840680e+01	1.720272e+03
1.250000e-06	5.392298e-06	2.635926e-08	3.910383e+01	1.732240e+03
1.260000e-06	5.486394e-06	2.653368e-08	3.978619e+01	1.743768e+03
1.270000e-06	5.578626e-06	2.670104e-08	4.045504e+01	1.754890e+03
1.280000e-06	5.668926e-06	2.686140e-08	4.110989e+01	1.765591e+03
1.290000e-06	5.757089e-06	2.701598e-08	4.174922e+01	1.775824e+03
1.300000e-06	5.843116e-06	2.716501e-08	4.237307e+01	1.785529e+03
1.310000e-06	5.927124e-06	2.730619e-08	4.298228e+01	1.794662e+03
1.320000e-06	6.009063e-06	2.743853e-08	4.357649e+01	1.803210e+03
1.330000e-06	6.088754e-06	2.756208e-08	4.415439e+01	1.811198e+03
1.340000e-06	6.166218e-06	2.767955e-08	4.471614e+01	1.818687e+03
1.350000e-06	6.241405e-06	2.779155e-08	4.526138e+01	1.825756e+03
1.360000e-06	6.314160e-06	2.789667e-08	4.578899e+01	1.832483e+03
1.370000e-06	6.384591e-06	2.799575e-08	4.629974e+01	1.838930e+03
1.380000e-06	6.452790e-06	2.808939e-08	4.679430e+01	1.845125e+03
1.390000e-06	6.518688e-06	2.817819e-08	4.727218e+01	1.851068e+03
1.400000e-06	6.582235e-06	2.826228e-08	4.773301e+01	1.856733e+03
1.410000e-06	6.643560e-06	2.834141e-08	4.817773e+01	1.862089e+03
1.420000e-06	6.702606e-06	2.841537e-08	4.860592e+01	1.867111e+03
1.430000e-06	6.759194e-06	2.848640e-08	4.901628e+01	1.871792e+03
1.440000e-06	6.813321e-06	2.855547e-08	4.940880e+01	1.876151e+03
1.450000e-06	6.864781e-06	2.862195e-08	4.978198e+01	1.880228e+03
1.460000e-06	6.913431e-06	2.868427e-08	5.013478e+01	1.884066e+03
1.470000e-06	6.959534e-06	2.874340e-08	5.046910e+01	1.887706e+03
1.480000e-06	7.003270e-06	2.879910e-08	5.078627e+01	1.891169e+03
1.490000e-06	7.044480e-06	2.884796e-08	5.108512e+01	1.894448e+03
1.500000e-06	7.083086e-06	2.889195e-08	5.136508e+01	1.897516e+03
1.510000e-06	7.119294e-06	2.893310e-08	5.162765e+01	1.900330e+03
1.520000e-06	7.153028e-06	2.897112e-08	5.187229e+01	1.902848e+03
1.530000e-06	7.184139e-06	2.900641e-08	5.209789e+01	1.905042e+03
1.540000e-06	7.212802e-06	2.903647e-08	5.230575e+01	1.906908e+03
1.550000e-06	7.238895e-06	2.906147e-08	5.249498e+01	1.908469e+03
1.560000e-06	7.262224e-06	2.908363e-08	5.266415e+01	1.909769e+03
1.570000e-06	7.283036e-06	2.910356e-08	5.281507e+01	1.910859e+03
1.580000e-06	7.301420e-06	2.912076e-08	5.294839e+01	1.911788e+03
1.590000e-06	7.317066e-06	2.913467e-08	5.306185e+01	1.912583e+03
1.600000e-06	7.329869e-06	2.914446e-08	5.315470e+01	1.913249e+03
1.610000e-06	7.339803e-06	2.915050e-08	5.322674e+01	1.913769e+03
1.620000e-06	7.346917e-06	2.915429e-08	5.327833e+01	1.914107e+03
1.630000e-06	7.351451e-06	2.915564e-08	5.331120e+01	1.914229e+03
1.640000e-06	7.353381e-06	2.915538e-08	5.332520e+01	1.914106e+03
1.650000e-06	7.352685e-06	2.915354e-08	5.332016e+01	1.913734e+03
1.660000e-06	7.349585e-06	2.914320e-08	5.329768e+01	1.913124e+03
1.670000e-06	7.344077e-06	2.913188e-08	5.325773e+01	1.912306e+03
1.680000e-06	7.336068e-06	2.912122e-08	5.319965e+01	1.911317e+03
1.690000e-06	7.325628e-06	2.910732e-08	5.312394e+01	1.910187e+03
1.700000e-06	7.312603e-06	2.909110e-08	5.302949e+01	1.908932e+03
1.710000e-06	7.297041e-06	2.907192e-08	5.291664e+01	1.907548e+03
1.720000e-06	7.279253e-06	2.904696e-08	5.278764e+01	1.906016e+03
1.730000e-06	7.259355e-06	2.898255e-08	5.264334e+01	1.904311e+03
1.740000e-06	7.236754e-06	2.891504e-08	5.247945e+01	1.902412e+03
1.750000e-06	7.210779e-06	2.892058e-08	5.229108e+01	1.900315e+03
1.760000e-06	7.181455e-06	2.891518e-08	5.207843e+01	1.898036e+03
1.770000e-06	7.149419e-06	2.887269e-08	5.184611e+01	1.895609e+03
1.780000e-06	7.115332e-06	2.885946e-08	5.159892e+01	1.893076e+03
1.790000e-06	7.079579e-06	2.885548e-08	5.133964e+01	1.890476e+03
1.800000e-06	7.042206e-06	2.874369e-08	5.106862e+01	1.887822e+03
1.810000e-06	7.002385e-06	2.872852e-08	5.077985e+01	1.885102e+03
1.820000e-06	6.959937e-06	2.873910e-08	5.047203e+01	1.882265e+03
1.830000e-06	6.915340e-06	2.865570e-08	5.014862e+01	1.879239e+03
1.840000e-06	6.868220e-06	2.866380e-08	4.980691e+01	1.875937e+03
1.850000e-06	6.818420e-06	2.857098e-08	4.944578e+01	1.872282e+03
1.860000e-06	6.765899e-06	2.851046e-08	4.906490e+01	1.868224e+03
1.870000e-06	6.710567e-06	2.843914e-08	4.866365e+01	1.863748e+03
1.880000e-06	6.652829e-06	2.833030e-08	4.824495e+01	1.858881e+03
1.890000e-06	6.592618e-06	2.832603e-08	4.780831e+01	1.853677e+03
1.900000e-06	6.529790e-06	2.822215e-08	4.735269e+01	1.848204e+03
1.910000e-06	6.464545e-06	2.815394e-08	4.687955e+01	1.842522e+03
1.920000e-06	6.396987e-06	2.805840e-08	4.638963e+01	1.836668e+03
1.930000e-06	6.327009e-06	2.793016e-08	4.588217e+01	1.830644e+03
1.940000e-06	6.254487e-06	2.786020e-08	4.535625e+01	1.824417e+03
1.950000e-06	6.179560e-06	2.773601e-08	4.481290e+01	1.817933e+03
1.960000e-06	6.102056e-06	2.765837e-08	4.425085e+01	1.811130e+03
1.970000e-06	6.022028e-06	2.754289e-08	4.367050e+01	1.803956e+03
1.980000e-06	5.939901e-06	2.743745e-08	4.307493e+01	1.796387e+03
1.990000e-06	5.855790e-06	2.731470e-08	4.246498e+01	1.788426e+03
2.000000e-06	5.769559e-06	2.716859e-08	4.183965e+01	1.780101e+03
2.010000e-06	5.681138e-06	2.705379e-08	4.119844e+01	1.771451e+03
2.020000e-06	5.590773e-06	2.690851e-08	4.054313e+01	1.762509e+03
2.030000e-06	5.498486e-06	2.678180e-08	3.987389e+01	1.753284e+03
2.040000e-06	5.404137e-06	2.663047e-08	3.918969e+01	1.743758e+03
2.050000e-06	5.307830e-06	2.648381e-08	3.849128e+01	1.733880e+03
2.060000e-06	5.209762e-06	2.631914e-08	3.778012e+01	1.723584e+03
2.070000e-06	5.110020e-06	2.615185e-08	3.705681e+01	1.712802e+03
2.080000e-06	5.008470e-06	2.598512e-08	3.632039e+01	1.701483e+03
2.090000e-06	4.904954e-06	2.580574e-08	3.556972e+01	1.689605e+03
2.100000e-06	4.799653e-06	2.562603e-08	3.480610e+01	1.677179e+03
2.110000e-06	4.692841e-06	2.542961e-08	3.403152e+01	1.664239e+03
2.120000e-06	4.584467e-06	2.522976e-08	3.324561e+01	1.650826e+03
2.130000e-06	4.474476e-06	2.500837e-08	3.244798e+01	1.636970e+03
2.140000e-06	4.362830e-06	2.478853e-08	3.163835e+01	1.622665e+03
2.150000e-06	4.249449e-06	2.456047e-08	3.081613e+01	1.607869e+03
2.160000e-06	4.134393e-06	2.432929e-08	2.998177e+01	1.592497e+03
2.170000e-06	4.017617e-06	2.408715e-08	2.913493e+01	1.576444e+03
2.180000e-06	3.899106e-06	2.383318e-08	2.827552e+01	1.559602e+03
2.190000e-06	3.779005e-06	2.356463e-08	2.740456e+01	1.541885e+03
2.200000e-06	3.657564e-06	2.328210e-08	2.652390e+01	1.523244e+03
2.210000e-06	3.534886e-06	2.298974e-08	2.563426e+01	1.503672e+03
2.220000e-06	3.410889e-06	2.268298e-08	2.473506e+01	1.483189e+03
2.230000e-06	3.285576e-06	2.236427e-08	2.382632e+01	1.461826e+03
2.240000e-06	3.159049e-06	2.202410e-08	2.290877e+01	1.439591e+03
2.250000e-06	3.031347e-06	2.166751e-08	2.198271e+01	1.416447e+03
2.260000e-06	2.902514e-06	2.129355e-08	2.104843e+01	1.392298e+03
2.270000e-06	2.772640e-06	2.090691e-08	2.010661e+01	1.366988e+03
2.280000e-06	2.641774e-06	2.050136e-08	1.915760e+01	1.340325e+03
2.290000e-06	2.509970e-06	2.007483e-08	1.820178e+01	1.312101e+03
2.300000e-06	2.377273e-06	1.961944e-08	1.723949e+01	1.282132e+03
2.310000e-06	2.243713e-06	1.913448e-08	1.627094e+01	1.250268e+03
2.320000e-06	2.109405e-06	1.862046e-08	1.529697e+01	1.216406e+03
2.330000e-06	1.974436e-06	1.807570e-08	1.431821e+01	1.180470e+03
2.340000e-06	1.838806e-06	1.750135e-08	1.333464e+01	1.142377e+03
2.350000e-06	1.702456e-06	1.689129e-08	1.234586e+01	1.102003e+03
2.360000e-06	1.565485e-06	1.623642e-08	1.135257e+01	1.059143e+03
2.370000e-06	1.428050e-06	1.553308e-08	1.035592e+01	1.013510e+03
2.380000e-06	1.290211e-06	1.478278e-08	9.356345e+00	9.647446e+02
2.390000e-06	1.151958e-06	1.398101e-08	8.353764e+00	9.124703e+02
2.400000e-06	1.013287e-06	1.312473e-08	7.348150e+00	8.563663e+02
2.410000e-06	8.742417e-07	1.221339e-08	6.339821e+00	7.962495e+02
2.420000e-06	7.348401e-07	1.124383e-08	5.328909e+00	7.321433e+02
2.430000e-06	5.951622e-07	1.021608e-08	4.315994e+00	6.643132e+02
2.440000e-06	4.552704e-07	9.136162e-09	3.301527e+00	5.932538e+02
2.450000e-06	3.151901e-07	8.011480e-09	2.285694e+00	5.196258e+02
2.460000e-06	1.749492e-07	6.854071e-09	1.268696e+00	4.441503e+02
2.470000e-06	3.458235e-08	5.675401e-09	2.507840e-01	3.674817e+02
2.480000e-06	-1.058006e-07	4.485786e-09	-7.672444e-01	2.900886e+02
2.490000e-06	-2.461282e-07	3.290532e-09	-1.784871e+00	2.121707e+02
2.500000e-06	-3.864138e-07	2.087703e-09	-2.802193e+00	1.336344e+02
2.510000e-06	-5.265801e-07	8.727269e-10	-3.818650e+00	5.413897e+01
2.520000e-06	-6.665372e-07	-3.607827e-10	-4.833590e+00	-2.679456e+01
2.530000e-06	-8.062190e-07	-1.619556e-09	-5.846534e+00	-1.096298e+02
2.540000e-06	-9.456276e-07	-2.911297e-09	-6.857497e+00	-1.946507e+02
2.550000e-06	-1.084694e-06	-4.238042e-09	-7.865978e+00	-2.818211e+02
2.560000e-06	-1.223289e-06	-5.595122e-09	-8.871043e+00	-3.707008e+02
2.570000e-06	-1.361402e-06	-6.974686e-09	-9.872606e+00	-4.604385e+02
2.580000e-06	-1.499112e-06	-8.355847e-09	-1.087125e+01	-5.498450e+02
2.590000e-06	-1.636365e-06	-9.708890e-09	-1.186658e+01	-6.375335e+02
2.600000e-06	-1.772921e-06	-1.100820e-08	-1.285686e+01	-7.220995e+02
2.610000e-06	-1.908620e-06	-1.223450e-08	-1.384092e+01	-8.023046e+02
2.620000e-06	-2.043499e-06	-1.337411e-08	-1.481903e+01	-8.772269e+02
2.630000e-06	-2.177716e-06	-1.442486e-08	-1.579235e+01	-9.463537e+02
2.640000e-06	-2.311250e-06	-1.538947e-08	-1.676071e+01	-1.009598e+03
2.650000e-06	-2.443872e-06	-1.627470e-08	-1.772246e+01	-1.067248e+03
2.660000e-06	-2.575464e-06	-1.708984e-08	-1.867673e+01	-1.119854e+03
2.670000e-06	-2.706043e-06	-1.783991e-08	-1.962367e+01	-1.168104e+03
2.680000e-06	-2.835732e-06	-1.853190e-08	-2.056414e+01	-1.212681e+03
2.690000e-06	-2.964550e-06	-1.917318e-08	-2.149831e+01	-1.254169e+03
2.700000e-06	-3.092228e-06	-1.977092e-08	-2.242420e+01	-1.292996e+03
2.710000e-06	-3.218736e-06	-2.032831e-08	-2.334161e+01	-1.329424e+03
2.720000e-06	-3.344175e-06	-2.084627e-08	-2.425127e+01	-1.363585e+03
2.730000e-06	-3.468351e-06	-2.132753e-08	-2.515176e+01	-1.395541e+03
2.740000e-06	-3.591211e-06	-2.177674e-08	-2.604272e+01	-1.425344e+03
2.750000e-06	-3.712904e-06	-2.219842e-08	-2.692521e+01	-1.453091e+03
2.760000e-06	-3.833258e-06	-2.259707e-08	-2.779800e+01	-1.478940e+03
2.770000e-06	-3.952078e-06	-2.297506e-08	-2.865966e+01	-1.503107e+03
2.780000e-06	-4.069404e-06	-2.333032e-08	-2.951048e+01	-1.525841e+03
2.790000e-06	-4.185133e-06	-2.366194e-08	-3.034972e+01	-1.547376e+03
2.800000e-06	-4.299092e-06	-2.397482e-08	-3.117613e+01	-1.567901e+03
2.810000e-06	-4.411247e-06	-2.427320e-08	-3.198945e+01	-1.587532e+03
2.820000e-06	-4.521721e-06	-2.455670e-08	-3.279059e+01	-1.606309e+03
2.830000e-06	-4.630701e-06	-2.482624e-08	-3.358089e+01	-1.624215e+03
2.840000e-06	-4.738207e-06	-2.508322e-08	-3.436050e+01	-1.641207e+03
2.850000e-06	-4.844098e-06	-2.532749e-08	-3.512840e+01	-1.657247e+03
2.860000e-06	-4.948237e-06	-2.555944e-08	-3.588360e+01	-1.672337e+03
2.870000e-06	-5.050517e-06	-2.578094e-08	-3.662531e+01	-1.686526e+03
2.880000e-06	-5.150886e-06	-2.599406e-08	-3.735316e+01	-1.699910e+03
2.890000e-06	-5.249410e-06	-2.619671e-08	-3.806764e+01	-1.712612e+03
2.900000e-06	-5.346141e-06	-2.638604e-08	-3.876911e+01	-1.724755e+03
2.910000e-06	-5.441012e-06	-2.656315e-08	-3.945710e+01	-1.736434e+03
2.920000e-06	-5.533906e-06	-2.672924e-08	-4.013075e+01	-1.747701e+03
2.930000e-06	-5.624780e-06	-2.688773e-08	-4.078974e+01	-1.758558e+03
2.940000e-06	-5.713649e-06	-2.704173e-08	-4.143421e+01	-1.768965e+03
