# Temperatura_=_43.93
# Concentracion g/m^3_=_28200.0
# C_Vs_to_Am_M_A/Vsm_=_65563218390.804596
# pendiente_HvsI_1/m_=_3716.3
# ordenada_HvsI_A/m_=_1297.0
# frecuencia_Hz_=_302371.0805375414

Tiempo_(s)	Campo_(V.s)	Magnetizacion_(V.s)	Campo_(kA/m)	Magnetizacion_(A/m)
0.000000e+00	-7.325237e-06	-2.263816e-08	-5.318581e+01	-1.481916e+03
1.000000e-08	-7.320969e-06	-2.263542e-08	-5.315482e+01	-1.481456e+03
2.000000e-08	-7.314442e-06	-2.262594e-08	-5.310743e+01	-1.480851e+03
3.000000e-08	-7.305513e-06	-2.261408e-08	-5.304260e+01	-1.480118e+03
4.000000e-08	-7.293930e-06	-2.259949e-08	-5.295850e+01	-1.479275e+03
5.000000e-08	-7.279559e-06	-2.258125e-08	-5.285416e+01	-1.478332e+03
6.000000e-08	-7.262600e-06	-2.256111e-08	-5.273103e+01	-1.477292e+03
7.000000e-08	-7.243510e-06	-2.254116e-08	-5.259242e+01	-1.476149e+03
8.000000e-08	-7.222267e-06	-2.254847e-08	-5.243818e+01	-1.474894e+03
9.000000e-08	-7.198337e-06	-2.257257e-08	-5.226444e+01	-1.473519e+03
1.000000e-07	-7.171351e-06	-2.251506e-08	-5.206850e+01	-1.472025e+03
1.100000e-07	-7.141596e-06	-2.245242e-08	-5.185246e+01	-1.470420e+03
1.200000e-07	-7.109387e-06	-2.243051e-08	-5.161860e+01	-1.468718e+03
1.300000e-07	-7.074681e-06	-2.239580e-08	-5.136662e+01	-1.466938e+03
1.400000e-07	-7.037861e-06	-2.232452e-08	-5.109928e+01	-1.465090e+03
1.500000e-07	-6.999303e-06	-2.229993e-08	-5.081932e+01	-1.463172e+03
1.600000e-07	-6.958527e-06	-2.235151e-08	-5.052327e+01	-1.461166e+03
1.700000e-07	-6.915246e-06	-2.223066e-08	-5.020902e+01	-1.459035e+03
1.800000e-07	-6.869658e-06	-2.219128e-08	-4.987802e+01	-1.456733e+03
1.900000e-07	-6.821415e-06	-2.219430e-08	-4.952774e+01	-1.454211e+03
2.000000e-07	-6.770236e-06	-2.209535e-08	-4.915615e+01	-1.451428e+03
2.100000e-07	-6.716411e-06	-2.208699e-08	-4.876535e+01	-1.448364e+03
2.200000e-07	-6.660119e-06	-2.204783e-08	-4.835663e+01	-1.445018e+03
2.300000e-07	-6.601362e-06	-2.200525e-08	-4.793002e+01	-1.441414e+03
2.400000e-07	-6.540146e-06	-2.192653e-08	-4.748556e+01	-1.437590e+03
2.500000e-07	-6.476461e-06	-2.184128e-08	-4.702316e+01	-1.433585e+03
2.600000e-07	-6.410269e-06	-2.178791e-08	-4.654257e+01	-1.429433e+03
2.700000e-07	-6.341694e-06	-2.171153e-08	-4.604467e+01	-1.425146e+03
2.800000e-07	-6.270828e-06	-2.165341e-08	-4.553014e+01	-1.420717e+03
2.900000e-07	-6.197500e-06	-2.158538e-08	-4.499773e+01	-1.416117e+03
3.000000e-07	-6.121638e-06	-2.151366e-08	-4.444692e+01	-1.411306e+03
3.100000e-07	-6.043222e-06	-2.143138e-08	-4.387757e+01	-1.406242e+03
3.200000e-07	-5.962345e-06	-2.133200e-08	-4.329036e+01	-1.400894e+03
3.300000e-07	-5.879374e-06	-2.126537e-08	-4.268793e+01	-1.395248e+03
3.400000e-07	-5.794508e-06	-2.116947e-08	-4.207175e+01	-1.389310e+03
3.500000e-07	-5.707746e-06	-2.107805e-08	-4.144181e+01	-1.383099e+03
3.600000e-07	-5.618954e-06	-2.098515e-08	-4.079712e+01	-1.376639e+03
3.700000e-07	-5.528041e-06	-2.087802e-08	-4.013704e+01	-1.369948e+03
3.800000e-07	-5.435114e-06	-2.077219e-08	-3.946233e+01	-1.363026e+03
3.900000e-07	-5.340296e-06	-2.065963e-08	-3.877389e+01	-1.355853e+03
4.000000e-07	-5.243627e-06	-2.054990e-08	-3.807201e+01	-1.348389e+03
4.100000e-07	-5.145069e-06	-2.041538e-08	-3.735642e+01	-1.340584e+03
4.200000e-07	-5.044691e-06	-2.029145e-08	-3.662762e+01	-1.332390e+03
4.300000e-07	-4.942565e-06	-2.015923e-08	-3.588612e+01	-1.323768e+03
4.400000e-07	-4.838713e-06	-2.001753e-08	-3.513209e+01	-1.314705e+03
4.500000e-07	-4.733102e-06	-1.987061e-08	-3.436529e+01	-1.305207e+03
4.600000e-07	-4.625677e-06	-1.972236e-08	-3.358531e+01	-1.295294e+03
4.700000e-07	-4.516656e-06	-1.956809e-08	-3.279375e+01	-1.284993e+03
4.800000e-07	-4.406157e-06	-1.939995e-08	-3.199146e+01	-1.274320e+03
4.900000e-07	-4.294053e-06	-1.923540e-08	-3.117751e+01	-1.263268e+03
5.000000e-07	-4.180232e-06	-1.906188e-08	-3.035110e+01	-1.251803e+03
5.100000e-07	-4.064600e-06	-1.887822e-08	-2.951154e+01	-1.239863e+03
5.200000e-07	-3.947301e-06	-1.867809e-08	-2.865988e+01	-1.227373e+03
5.300000e-07	-3.828582e-06	-1.847312e-08	-2.779791e+01	-1.214251e+03
5.400000e-07	-3.708535e-06	-1.826064e-08	-2.692629e+01	-1.200431e+03
5.500000e-07	-3.587107e-06	-1.803600e-08	-2.604464e+01	-1.185868e+03
5.600000e-07	-3.464206e-06	-1.780190e-08	-2.515231e+01	-1.170542e+03
5.700000e-07	-3.339908e-06	-1.755610e-08	-2.424983e+01	-1.154451e+03
5.800000e-07	-3.214457e-06	-1.729980e-08	-2.333897e+01	-1.137598e+03
5.900000e-07	-3.087937e-06	-1.703097e-08	-2.242036e+01	-1.119973e+03
6.000000e-07	-2.960297e-06	-1.675499e-08	-2.149361e+01	-1.101536e+03
6.100000e-07	-2.831533e-06	-1.646193e-08	-2.055870e+01	-1.082213e+03
6.200000e-07	-2.701652e-06	-1.614896e-08	-1.961568e+01	-1.061893e+03
6.300000e-07	-2.570698e-06	-1.581381e-08	-1.866488e+01	-1.040441e+03
6.400000e-07	-2.438720e-06	-1.545764e-08	-1.770663e+01	-1.017711e+03
6.500000e-07	-2.305937e-06	-1.508472e-08	-1.674255e+01	-9.935664e+02
6.600000e-07	-2.172421e-06	-1.469421e-08	-1.577314e+01	-9.678877e+02
6.700000e-07	-2.038093e-06	-1.428315e-08	-1.479783e+01	-9.405747e+02
6.800000e-07	-1.903100e-06	-1.384321e-08	-1.381770e+01	-9.115356e+02
6.900000e-07	-1.767477e-06	-1.337484e-08	-1.283299e+01	-8.806687e+02
7.000000e-07	-1.631215e-06	-1.287277e-08	-1.184364e+01	-8.478423e+02
7.100000e-07	-1.494384e-06	-1.233496e-08	-1.085016e+01	-8.128817e+02
7.200000e-07	-1.357023e-06	-1.176129e-08	-9.852836e+00	-7.755715e+02
7.300000e-07	-1.219205e-06	-1.115054e-08	-8.852195e+00	-7.356765e+02
7.400000e-07	-1.080969e-06	-1.049817e-08	-7.848513e+00	-6.929826e+02
7.500000e-07	-9.423542e-07	-9.801985e-09	-6.842081e+00	-6.473484e+02
7.600000e-07	-8.033430e-07	-9.063004e-09	-5.832773e+00	-5.987579e+02
7.700000e-07	-6.639339e-07	-8.280595e-09	-4.820576e+00	-5.473594e+02
7.800000e-07	-5.242363e-07	-7.462585e-09	-3.806284e+00	-4.934775e+02
7.900000e-07	-3.843106e-07	-6.614479e-09	-2.790335e+00	-4.375900e+02
8.000000e-07	-2.442170e-07	-5.744669e-09	-1.773169e+00	-3.802700e+02
8.100000e-07	-1.040024e-07	-4.858731e-09	-7.551228e-01	-3.221014e+02
8.200000e-07	3.631793e-08	-3.965780e-09	2.636909e-01	-2.635826e+02
8.300000e-07	1.766825e-07	-3.072097e-09	1.282826e+00	-2.050410e+02
8.400000e-07	3.170293e-07	-2.178312e-09	2.301831e+00	-1.465758e+02
8.500000e-07	4.572999e-07	-1.286466e-09	3.320284e+00	-8.804715e+01
8.600000e-07	5.973697e-07	-3.931178e-10	4.337278e+00	-2.911549e+01
8.700000e-07	7.371491e-07	5.106848e-10	5.352164e+00	3.067253e+01
8.800000e-07	8.766846e-07	1.436637e-09	6.365279e+00	9.176717e+01
8.900000e-07	1.015924e-06	2.388161e-09	7.376243e+00	1.544909e+02
9.000000e-07	1.154731e-06	3.366707e-09	8.384072e+00	2.189316e+02
9.100000e-07	1.293073e-06	4.370898e-09	9.388520e+00	2.848752e+02
9.200000e-07	1.430932e-06	5.392892e-09	1.038946e+01	3.517941e+02
9.300000e-07	1.568193e-06	6.418578e-09	1.138606e+01	4.188924e+02
9.400000e-07	1.704756e-06	7.429930e-09	1.237760e+01	4.852005e+02
9.500000e-07	1.840636e-06	8.410090e-09	1.336417e+01	5.497002e+02
9.600000e-07	1.975876e-06	9.344125e-09	1.434609e+01	6.114547e+02
9.700000e-07	2.110370e-06	1.022324e-08	1.532261e+01	6.697202e+02
9.800000e-07	2.244014e-06	1.104084e-08	1.629295e+01	7.240192e+02
9.900000e-07	2.376884e-06	1.179436e-08	1.725766e+01	7.741643e+02
1.000000e-06	2.508941e-06	1.248836e-08	1.821648e+01	8.202343e+02
1.010000e-06	2.640048e-06	1.312986e-08	1.916840e+01	8.625111e+02
1.020000e-06	2.770120e-06	1.372408e-08	2.011280e+01	9.013962e+02
1.030000e-06	2.899084e-06	1.427517e-08	2.104917e+01	9.373244e+02
1.040000e-06	3.026965e-06	1.478485e-08	2.197766e+01	9.706939e+02
1.050000e-06	3.153752e-06	1.525731e-08	2.289821e+01	1.001823e+03
1.060000e-06	3.279449e-06	1.569625e-08	2.381086e+01	1.030939e+03
1.070000e-06	3.404092e-06	1.610602e-08	2.471584e+01	1.058187e+03
1.080000e-06	3.527570e-06	1.648917e-08	2.561237e+01	1.083667e+03
1.090000e-06	3.649767e-06	1.685016e-08	2.649959e+01	1.107464e+03
1.100000e-06	3.770556e-06	1.719045e-08	2.737660e+01	1.129677e+03
1.110000e-06	3.889989e-06	1.750807e-08	2.824376e+01	1.150434e+03
1.120000e-06	4.008077e-06	1.780649e-08	2.910115e+01	1.169887e+03
1.130000e-06	4.124714e-06	1.808781e-08	2.994801e+01	1.188201e+03
1.140000e-06	4.239753e-06	1.835210e-08	3.078326e+01	1.205528e+03
1.150000e-06	4.353022e-06	1.860073e-08	3.160567e+01	1.221989e+03
1.160000e-06	4.464662e-06	1.883585e-08	3.241624e+01	1.237663e+03
1.170000e-06	4.574768e-06	1.906043e-08	3.321568e+01	1.252584e+03
1.180000e-06	4.683388e-06	1.927297e-08	3.400433e+01	1.266755e+03
1.190000e-06	4.790489e-06	1.947457e-08	3.478195e+01	1.280168e+03
1.200000e-06	4.895775e-06	1.966646e-08	3.554639e+01	1.292818e+03
1.210000e-06	4.999105e-06	1.984660e-08	3.629663e+01	1.304724e+03
1.220000e-06	5.100659e-06	2.001774e-08	3.703398e+01	1.315933e+03
1.230000e-06	5.200477e-06	2.017846e-08	3.775872e+01	1.326513e+03
1.240000e-06	5.298344e-06	2.033230e-08	3.846929e+01	1.336543e+03
1.250000e-06	5.394166e-06	2.047956e-08	3.916502e+01	1.346099e+03
1.260000e-06	5.488030e-06	2.061945e-08	3.984653e+01	1.355231e+03
1.270000e-06	5.579979e-06	2.075119e-08	4.051414e+01	1.363964e+03
1.280000e-06	5.669876e-06	2.087632e-08	4.116685e+01	1.372291e+03
1.290000e-06	5.757659e-06	2.099630e-08	4.180421e+01	1.380188e+03
1.300000e-06	5.843436e-06	2.110931e-08	4.242701e+01	1.387624e+03
1.310000e-06	5.927197e-06	2.121510e-08	4.303516e+01	1.394583e+03
1.320000e-06	6.008864e-06	2.131423e-08	4.362812e+01	1.401071e+03
1.330000e-06	6.088329e-06	2.140699e-08	4.420508e+01	1.407122e+03
1.340000e-06	6.165552e-06	2.149417e-08	4.476577e+01	1.412796e+03
1.350000e-06	6.240395e-06	2.157594e-08	4.530918e+01	1.418167e+03
1.360000e-06	6.312789e-06	2.165368e-08	4.583480e+01	1.423305e+03
1.370000e-06	6.382944e-06	2.173063e-08	4.634417e+01	1.428264e+03
1.380000e-06	6.450858e-06	2.180529e-08	4.683727e+01	1.433071e+03
1.390000e-06	6.516364e-06	2.187557e-08	4.731288e+01	1.437723e+03
1.400000e-06	6.579573e-06	2.194057e-08	4.777182e+01	1.442191e+03
1.410000e-06	6.640644e-06	2.200193e-08	4.821524e+01	1.446436e+03
1.420000e-06	6.699464e-06	2.206075e-08	4.864231e+01	1.450418e+03
1.430000e-06	6.755879e-06	2.211635e-08	4.905191e+01	1.454111e+03
1.440000e-06	6.809804e-06	2.216902e-08	4.944344e+01	1.457511e+03
1.450000e-06	6.861020e-06	2.221998e-08	4.981530e+01	1.460633e+03
1.460000e-06	6.909431e-06	2.226860e-08	5.016679e+01	1.463511e+03
1.470000e-06	6.955284e-06	2.231410e-08	5.049972e+01	1.466180e+03
1.480000e-06	6.998745e-06	2.235531e-08	5.081527e+01	1.468674e+03
1.490000e-06	7.039709e-06	2.239010e-08	5.111269e+01	1.471009e+03
1.500000e-06	7.078120e-06	2.241919e-08	5.139159e+01	1.473185e+03
1.510000e-06	7.114125e-06	2.244401e-08	5.165300e+01	1.475189e+03
1.520000e-06	7.147608e-06	2.246839e-08	5.189611e+01	1.476998e+03
1.530000e-06	7.178438e-06	2.249315e-08	5.211995e+01	1.478591e+03
1.540000e-06	7.206831e-06	2.251525e-08	5.232611e+01	1.479958e+03
1.550000e-06	7.232644e-06	2.253509e-08	5.251353e+01	1.481103e+03
1.560000e-06	7.255682e-06	2.255258e-08	5.268079e+01	1.482046e+03
1.570000e-06	7.276207e-06	2.256665e-08	5.282982e+01	1.482817e+03
1.580000e-06	7.294229e-06	2.257729e-08	5.296067e+01	1.483448e+03
1.590000e-06	7.309527e-06	2.258509e-08	5.307174e+01	1.483964e+03
1.600000e-06	7.322010e-06	2.259020e-08	5.316238e+01	1.484381e+03
1.610000e-06	7.331612e-06	2.259443e-08	5.323209e+01	1.484697e+03
1.620000e-06	7.338424e-06	2.259783e-08	5.328156e+01	1.484900e+03
1.630000e-06	7.342724e-06	2.259927e-08	5.331277e+01	1.484971e+03
1.640000e-06	7.344435e-06	2.259966e-08	5.332520e+01	1.484891e+03
1.650000e-06	7.343504e-06	2.259830e-08	5.331844e+01	1.484649e+03
1.660000e-06	7.340210e-06	2.259076e-08	5.329452e+01	1.484245e+03
1.670000e-06	7.334469e-06	2.258444e-08	5.325284e+01	1.483689e+03
1.680000e-06	7.326198e-06	2.257612e-08	5.319278e+01	1.482999e+03
1.690000e-06	7.315473e-06	2.256478e-08	5.311492e+01	1.482193e+03
1.700000e-06	7.302130e-06	2.255331e-08	5.301803e+01	1.481284e+03
1.710000e-06	7.286251e-06	2.254302e-08	5.290274e+01	1.480279e+03
1.720000e-06	7.268211e-06	2.253004e-08	5.277176e+01	1.479173e+03
1.730000e-06	7.248084e-06	2.246322e-08	5.262563e+01	1.477958e+03
1.740000e-06	7.225170e-06	2.240949e-08	5.245926e+01	1.476626e+03
1.750000e-06	7.198871e-06	2.243904e-08	5.226831e+01	1.475174e+03
1.760000e-06	7.169305e-06	2.243231e-08	5.205365e+01	1.473606e+03
1.770000e-06	7.137091e-06	2.238836e-08	5.181975e+01	1.471936e+03
1.780000e-06	7.102890e-06	2.240884e-08	5.157143e+01	1.470182e+03
1.790000e-06	7.067083e-06	2.241851e-08	5.131144e+01	1.468357e+03
1.800000e-06	7.029565e-06	2.229388e-08	5.103904e+01	1.466464e+03
1.810000e-06	6.989549e-06	2.232913e-08	5.074851e+01	1.464492e+03
1.820000e-06	6.946912e-06	2.232515e-08	5.043893e+01	1.462411e+03
1.830000e-06	6.902068e-06	2.224885e-08	5.011334e+01	1.460175e+03
1.840000e-06	6.854726e-06	2.230111e-08	4.976961e+01	1.457736e+03
1.850000e-06	6.804751e-06	2.218560e-08	4.940675e+01	1.455050e+03
1.860000e-06	6.752056e-06	2.215851e-08	4.902415e+01	1.452087e+03
1.870000e-06	6.696636e-06	2.209774e-08	4.862177e+01	1.448839e+03
1.880000e-06	6.638889e-06	2.201448e-08	4.820249e+01	1.445323e+03
1.890000e-06	6.578538e-06	2.204283e-08	4.776430e+01	1.441572e+03
1.900000e-06	6.515536e-06	2.193801e-08	4.730687e+01	1.437627e+03
1.910000e-06	6.450175e-06	2.191181e-08	4.683231e+01	1.433524e+03
1.920000e-06	6.382486e-06	2.182975e-08	4.634084e+01	1.429284e+03
1.930000e-06	6.312373e-06	2.173776e-08	4.583178e+01	1.424908e+03
1.940000e-06	6.239749e-06	2.170182e-08	4.530449e+01	1.420373e+03
1.950000e-06	6.164725e-06	2.159936e-08	4.475976e+01	1.415642e+03
1.960000e-06	6.087108e-06	2.156366e-08	4.419621e+01	1.410672e+03
1.970000e-06	6.007032e-06	2.144727e-08	4.361482e+01	1.405427e+03
1.980000e-06	5.924880e-06	2.137562e-08	4.301834e+01	1.399887e+03
1.990000e-06	5.840689e-06	2.129117e-08	4.240706e+01	1.394051e+03
2.000000e-06	5.754386e-06	2.118447e-08	4.178045e+01	1.387934e+03
2.010000e-06	5.665913e-06	2.111003e-08	4.113808e+01	1.381560e+03
2.020000e-06	5.575464e-06	2.099472e-08	4.048136e+01	1.374950e+03
2.030000e-06	5.483104e-06	2.089808e-08	3.981077e+01	1.368112e+03
2.040000e-06	5.388742e-06	2.076889e-08	3.912564e+01	1.361031e+03
2.050000e-06	5.292457e-06	2.067480e-08	3.842655e+01	1.353676e+03
2.060000e-06	5.194392e-06	2.056080e-08	3.771454e+01	1.345999e+03
2.070000e-06	5.094608e-06	2.044024e-08	3.699004e+01	1.337947e+03
2.080000e-06	4.992992e-06	2.031296e-08	3.625225e+01	1.329481e+03
2.090000e-06	4.889458e-06	2.017453e-08	3.550052e+01	1.320575e+03
2.100000e-06	4.784137e-06	2.003799e-08	3.473583e+01	1.311230e+03
2.110000e-06	4.677306e-06	1.988710e-08	3.396017e+01	1.301461e+03
2.120000e-06	4.568989e-06	1.974320e-08	3.317372e+01	1.291296e+03
2.130000e-06	4.459011e-06	1.957654e-08	3.237521e+01	1.280755e+03
2.140000e-06	4.347301e-06	1.940735e-08	3.156413e+01	1.269840e+03
2.150000e-06	4.233910e-06	1.922877e-08	3.074083e+01	1.258528e+03
2.160000e-06	4.118818e-06	1.905839e-08	2.990520e+01	1.246765e+03
2.170000e-06	4.002018e-06	1.887645e-08	2.905716e+01	1.234480e+03
2.180000e-06	3.883559e-06	1.868350e-08	2.819707e+01	1.221592e+03
2.190000e-06	3.763483e-06	1.847772e-08	2.732524e+01	1.208027e+03
2.200000e-06	3.642010e-06	1.825844e-08	2.644327e+01	1.193733e+03
2.210000e-06	3.519265e-06	1.802970e-08	2.555207e+01	1.178680e+03
2.220000e-06	3.395301e-06	1.779198e-08	2.465201e+01	1.162861e+03
2.230000e-06	3.270097e-06	1.754854e-08	2.374295e+01	1.146280e+03
2.240000e-06	3.143628e-06	1.728295e-08	2.282471e+01	1.128932e+03
2.250000e-06	3.015926e-06	1.700406e-08	2.189751e+01	1.110791e+03
2.260000e-06	2.887081e-06	1.671107e-08	2.096201e+01	1.091795e+03
2.270000e-06	2.757215e-06	1.640886e-08	2.001911e+01	1.071845e+03
2.280000e-06	2.626377e-06	1.609013e-08	1.906914e+01	1.050813e+03
2.290000e-06	2.494646e-06	1.575462e-08	1.811269e+01	1.028556e+03
2.300000e-06	2.362072e-06	1.539615e-08	1.715012e+01	1.004931e+03
2.310000e-06	2.228653e-06	1.501250e-08	1.618142e+01	9.798116e+02
2.320000e-06	2.094451e-06	1.460713e-08	1.520702e+01	9.530924e+02
2.330000e-06	1.959500e-06	1.417856e-08	1.422720e+01	9.246799e+02
2.340000e-06	1.823849e-06	1.372481e-08	1.324229e+01	8.944784e+02
2.350000e-06	1.687576e-06	1.324106e-08	1.225286e+01	8.623689e+02
2.360000e-06	1.550715e-06	1.271939e-08	1.125916e+01	8.281928e+02
2.370000e-06	1.413421e-06	1.215676e-08	1.026232e+01	7.917479e+02
2.380000e-06	1.275747e-06	1.155705e-08	9.262719e+00	7.528022e+02
2.390000e-06	1.137656e-06	1.092024e-08	8.260093e+00	7.111286e+02
2.400000e-06	9.991295e-07	1.024063e-08	7.254306e+00	6.665532e+02
2.410000e-06	8.602189e-07	9.516650e-09	6.245728e+00	6.190100e+02
2.420000e-06	7.210218e-07	8.750150e-09	5.235070e+00	5.685857e+02
2.430000e-06	5.815562e-07	7.944168e-09	4.222462e+00	5.155423e+02
2.440000e-06	4.419163e-07	7.103637e-09	3.208589e+00	4.603081e+02
2.450000e-06	3.021714e-07	6.234744e-09	2.193954e+00	4.034307e+02
2.460000e-06	1.622605e-07	5.348212e-09	1.178113e+00	3.455009e+02
2.470000e-06	2.225071e-08	4.450877e-09	1.615541e-01	2.870586e+02
2.480000e-06	-1.177738e-07	3.551172e-09	-8.551119e-01	2.285005e+02
2.490000e-06	-2.577606e-07	2.652931e-09	-1.871503e+00	1.700114e+02
2.500000e-06	-3.976730e-07	1.755461e-09	-2.887355e+00	1.115349e+02
2.510000e-06	-5.375105e-07	8.561770e-10	-3.902663e+00	5.279507e+01
2.520000e-06	-6.772525e-07	-5.152273e-11	-4.917277e+00	-6.633122e+00
2.530000e-06	-8.168294e-07	-9.744457e-10	-5.930693e+00	-6.721544e+01
2.540000e-06	-9.560919e-07	-1.919952e-09	-6.941826e+00	-1.293338e+02
2.550000e-06	-1.094962e-06	-2.891702e-09	-7.950107e+00	-1.931699e+02
2.560000e-06	-1.233378e-06	-3.889687e-09	-8.955096e+00	-2.586219e+02
2.570000e-06	-1.371296e-06	-4.911071e-09	-9.956469e+00	-3.252721e+02
2.580000e-06	-1.508762e-06	-5.944851e-09	-1.095456e+01	-3.924116e+02
2.590000e-06	-1.645774e-06	-6.974301e-09	-1.194935e+01	-4.591197e+02
2.600000e-06	-1.782163e-06	-7.978738e-09	-1.293962e+01	-5.243803e+02
2.610000e-06	-1.917761e-06	-8.940227e-09	-1.392414e+01	-5.872132e+02
2.620000e-06	-2.052602e-06	-9.849974e-09	-1.490318e+01	-6.467950e+02
2.630000e-06	-2.186721e-06	-1.070190e-08	-1.587697e+01	-7.025476e+02
2.640000e-06	-2.319933e-06	-1.149105e-08	-1.684417e+01	-7.541806e+02
2.650000e-06	-2.452206e-06	-1.221841e-08	-1.780455e+01	-8.016831e+02
2.660000e-06	-2.583608e-06	-1.288861e-08	-1.875861e+01	-8.452734e+02
2.670000e-06	-2.714008e-06	-1.350818e-08	-1.970540e+01	-8.853205e+02
2.680000e-06	-2.843508e-06	-1.408184e-08	-2.064565e+01	-9.222564e+02
2.690000e-06	-2.972094e-06	-1.461103e-08	-2.157926e+01	-9.564990e+02
2.700000e-06	-3.099579e-06	-1.510000e-08	-2.250488e+01	-9.883984e+02
2.710000e-06	-3.225956e-06	-1.555460e-08	-2.342246e+01	-1.018213e+03
2.720000e-06	-3.351057e-06	-1.597986e-08	-2.433077e+01	-1.046116e+03
2.730000e-06	-3.474877e-06	-1.637587e-08	-2.522978e+01	-1.072218e+03
2.740000e-06	-3.597450e-06	-1.674508e-08	-2.611974e+01	-1.096607e+03
2.750000e-06	-3.718770e-06	-1.709157e-08	-2.700060e+01	-1.119373e+03
2.760000e-06	-3.838834e-06	-1.741676e-08	-2.787234e+01	-1.140634e+03
2.770000e-06	-3.957397e-06	-1.772427e-08	-2.873318e+01	-1.160534e+03
2.780000e-06	-4.074322e-06	-1.801512e-08	-2.958213e+01	-1.179237e+03
2.790000e-06	-4.189710e-06	-1.828825e-08	-3.041992e+01	-1.196901e+03
2.800000e-06	-4.303447e-06	-1.854430e-08	-3.124572e+01	-1.213661e+03
2.810000e-06	-4.415366e-06	-1.878618e-08	-3.205832e+01	-1.229610e+03
2.820000e-06	-4.525629e-06	-1.901794e-08	-3.285890e+01	-1.244799e+03
2.830000e-06	-4.634403e-06	-1.924142e-08	-3.364867e+01	-1.259240e+03
2.840000e-06	-4.741684e-06	-1.945383e-08	-3.442759e+01	-1.272925e+03
2.850000e-06	-4.847396e-06	-1.965234e-08	-3.519513e+01	-1.285847e+03
2.860000e-06	-4.951325e-06	-1.983641e-08	-3.594972e+01	-1.298016e+03
2.870000e-06	-5.053315e-06	-2.000867e-08	-3.669023e+01	-1.309467e+03
2.880000e-06	-5.153431e-06	-2.017387e-08	-3.741713e+01	-1.320263e+03
2.890000e-06	-5.251702e-06	-2.033286e-08	-3.813064e+01	-1.330481e+03
2.900000e-06	-5.348183e-06	-2.048402e-08	-3.883116e+01	-1.340200e+03
2.910000e-06	-5.442761e-06	-2.062709e-08	-3.951786e+01	-1.349479e+03
2.920000e-06	-5.535350e-06	-2.076234e-08	-4.019011e+01	-1.358355e+03
2.930000e-06	-5.625973e-06	-2.089119e-08	-4.084809e+01	-1.366829e+03
2.940000e-06	-5.714541e-06	-2.101250e-08	-4.149114e+01	-1.374884e+03
