# Temperatura_=_34.03
# Concentracion g/m^3_=_28200.0
# C_Vs_to_Am_M_A/Vsm_=_65563218390.804596
# pendiente_HvsI_1/m_=_3716.3
# ordenada_HvsI_A/m_=_1297.0
# frecuencia_Hz_=_302373.4385456081

Tiempo_(s)	Campo_(V.s)	Magnetizacion_(V.s)	Campo_(kA/m)	Magnetizacion_(A/m)
0.000000e+00	-7.327043e-06	-2.184918e-08	-5.318312e+01	-1.430341e+03
1.000000e-08	-7.323006e-06	-2.184303e-08	-5.315382e+01	-1.429919e+03
2.000000e-08	-7.316614e-06	-2.183576e-08	-5.310743e+01	-1.429350e+03
3.000000e-08	-7.307821e-06	-2.182669e-08	-5.304360e+01	-1.428653e+03
4.000000e-08	-7.296418e-06	-2.181643e-08	-5.296083e+01	-1.427848e+03
5.000000e-08	-7.282201e-06	-2.180366e-08	-5.285764e+01	-1.426951e+03
6.000000e-08	-7.265362e-06	-2.178977e-08	-5.273541e+01	-1.425967e+03
7.000000e-08	-7.246407e-06	-2.177756e-08	-5.259783e+01	-1.424893e+03
8.000000e-08	-7.225369e-06	-2.177503e-08	-5.244513e+01	-1.423716e+03
9.000000e-08	-7.201738e-06	-2.175582e-08	-5.227360e+01	-1.422427e+03
1.000000e-07	-7.175093e-06	-2.171700e-08	-5.208020e+01	-1.421017e+03
1.100000e-07	-7.145589e-06	-2.167691e-08	-5.186605e+01	-1.419488e+03
1.200000e-07	-7.113514e-06	-2.164687e-08	-5.163323e+01	-1.417850e+03
1.300000e-07	-7.079003e-06	-2.161849e-08	-5.138273e+01	-1.416117e+03
1.400000e-07	-7.042430e-06	-2.158409e-08	-5.111727e+01	-1.414305e+03
1.500000e-07	-7.004056e-06	-2.155417e-08	-5.083873e+01	-1.412421e+03
1.600000e-07	-6.963544e-06	-2.151337e-08	-5.054467e+01	-1.410458e+03
1.700000e-07	-6.920511e-06	-2.147292e-08	-5.023233e+01	-1.408394e+03
1.800000e-07	-6.875024e-06	-2.141689e-08	-4.990216e+01	-1.406192e+03
1.900000e-07	-6.826927e-06	-2.138807e-08	-4.955305e+01	-1.403809e+03
2.000000e-07	-6.775950e-06	-2.137025e-08	-4.918303e+01	-1.401201e+03
2.100000e-07	-6.722345e-06	-2.131747e-08	-4.879394e+01	-1.398337e+03
2.200000e-07	-6.666234e-06	-2.130386e-08	-4.838666e+01	-1.395203e+03
2.300000e-07	-6.607572e-06	-2.127272e-08	-4.796087e+01	-1.391805e+03
2.400000e-07	-6.546500e-06	-2.116683e-08	-4.751758e+01	-1.388165e+03
2.500000e-07	-6.483062e-06	-2.108759e-08	-4.705711e+01	-1.384318e+03
2.600000e-07	-6.417170e-06	-2.103649e-08	-4.657884e+01	-1.380298e+03
2.700000e-07	-6.348795e-06	-2.096187e-08	-4.608254e+01	-1.376128e+03
2.800000e-07	-6.278119e-06	-2.088980e-08	-4.556954e+01	-1.371818e+03
2.900000e-07	-6.205080e-06	-2.083814e-08	-4.503939e+01	-1.367358e+03
3.000000e-07	-6.129410e-06	-2.077046e-08	-4.449014e+01	-1.362723e+03
3.100000e-07	-6.051090e-06	-2.067592e-08	-4.392165e+01	-1.357881e+03
3.200000e-07	-5.970312e-06	-2.059985e-08	-4.333533e+01	-1.352797e+03
3.300000e-07	-5.887447e-06	-2.052634e-08	-4.273386e+01	-1.347447e+03
3.400000e-07	-5.802712e-06	-2.045169e-08	-4.211881e+01	-1.341815e+03
3.500000e-07	-5.716085e-06	-2.036775e-08	-4.149003e+01	-1.335900e+03
3.600000e-07	-5.627444e-06	-2.026578e-08	-4.084663e+01	-1.329709e+03
3.700000e-07	-5.536736e-06	-2.016499e-08	-4.018823e+01	-1.323248e+03
3.800000e-07	-5.444050e-06	-2.006001e-08	-3.951548e+01	-1.316523e+03
3.900000e-07	-5.349448e-06	-1.995181e-08	-3.882881e+01	-1.309524e+03
4.000000e-07	-5.252909e-06	-1.983713e-08	-3.812808e+01	-1.302236e+03
4.100000e-07	-5.154482e-06	-1.971863e-08	-3.741365e+01	-1.294631e+03
4.200000e-07	-5.054215e-06	-1.959497e-08	-3.668587e+01	-1.286683e+03
4.300000e-07	-4.952192e-06	-1.946859e-08	-3.594534e+01	-1.278365e+03
4.400000e-07	-4.848407e-06	-1.933491e-08	-3.519202e+01	-1.269661e+03
4.500000e-07	-4.742885e-06	-1.919282e-08	-3.442609e+01	-1.260566e+03
4.600000e-07	-4.635695e-06	-1.905084e-08	-3.364805e+01	-1.251079e+03
4.700000e-07	-4.526807e-06	-1.890124e-08	-3.285769e+01	-1.241204e+03
4.800000e-07	-4.416352e-06	-1.874317e-08	-3.205596e+01	-1.230935e+03
4.900000e-07	-4.304277e-06	-1.858185e-08	-3.124247e+01	-1.220256e+03
5.000000e-07	-4.190469e-06	-1.841511e-08	-3.041639e+01	-1.209133e+03
5.100000e-07	-4.074929e-06	-1.823439e-08	-2.957775e+01	-1.197520e+03
5.200000e-07	-3.957753e-06	-1.804043e-08	-2.872724e+01	-1.185360e+03
5.300000e-07	-3.839129e-06	-1.783897e-08	-2.786620e+01	-1.172600e+03
5.400000e-07	-3.719068e-06	-1.763217e-08	-2.699474e+01	-1.159192e+03
5.500000e-07	-3.597616e-06	-1.741572e-08	-2.611319e+01	-1.145104e+03
5.600000e-07	-3.474832e-06	-1.718706e-08	-2.522197e+01	-1.130318e+03
5.700000e-07	-3.350693e-06	-1.694843e-08	-2.432091e+01	-1.114822e+03
5.800000e-07	-3.225345e-06	-1.670170e-08	-2.341107e+01	-1.098601e+03
5.900000e-07	-3.098898e-06	-1.644719e-08	-2.249326e+01	-1.081627e+03
6.000000e-07	-2.971282e-06	-1.618220e-08	-2.156696e+01	-1.063846e+03
6.100000e-07	-2.842469e-06	-1.590118e-08	-2.063198e+01	-1.045177e+03
6.200000e-07	-2.712657e-06	-1.559759e-08	-1.968974e+01	-1.025514e+03
6.300000e-07	-2.581910e-06	-1.527272e-08	-1.874071e+01	-1.004735e+03
6.400000e-07	-2.450063e-06	-1.492831e-08	-1.778371e+01	-9.827165e+02
6.500000e-07	-2.317274e-06	-1.456703e-08	-1.681986e+01	-9.593441e+02
6.600000e-07	-2.183846e-06	-1.418803e-08	-1.585138e+01	-9.345191e+02
6.700000e-07	-2.049779e-06	-1.378716e-08	-1.487826e+01	-9.081554e+02
6.800000e-07	-1.914927e-06	-1.336016e-08	-1.389944e+01	-8.801681e+02
6.900000e-07	-1.779266e-06	-1.290705e-08	-1.291475e+01	-8.504567e+02
7.000000e-07	-1.642873e-06	-1.242534e-08	-1.192474e+01	-8.188877e+02
7.100000e-07	-1.505929e-06	-1.191100e-08	-1.093074e+01	-7.852857e+02
7.200000e-07	-1.368584e-06	-1.136334e-08	-9.933825e+00	-7.494376e+02
7.300000e-07	-1.230825e-06	-1.077890e-08	-8.933907e+00	-7.111154e+02
7.400000e-07	-1.092651e-06	-1.015339e-08	-7.930973e+00	-6.701144e+02
7.500000e-07	-9.540527e-07	-9.483409e-09	-6.924963e+00	-6.263016e+02
7.600000e-07	-8.150153e-07	-8.772208e-09	-5.915764e+00	-5.796644e+02
7.700000e-07	-6.756120e-07	-8.021966e-09	-4.903910e+00	-5.303446e+02
7.800000e-07	-5.358982e-07	-7.235828e-09	-3.889801e+00	-4.786495e+02
7.900000e-07	-3.959464e-07	-6.420481e-09	-2.873965e+00	-4.250302e+02
8.000000e-07	-2.558062e-07	-5.584487e-09	-1.856761e+00	-3.700286e+02
8.100000e-07	-1.154952e-07	-4.735147e-09	-8.383182e-01	-3.141998e+02
8.200000e-07	2.494700e-08	-3.880509e-09	1.810770e-01	-2.580235e+02
8.300000e-07	1.653816e-07	-3.026111e-09	1.200417e+00	-2.018241e+02
8.400000e-07	3.056956e-07	-2.170866e-09	2.218883e+00	-1.457163e+02
8.500000e-07	4.459553e-07	-1.314871e-09	3.236953e+00	-8.959089e+01
8.600000e-07	5.861199e-07	-4.565380e-10	4.254334e+00	-3.314748e+01
8.700000e-07	7.260079e-07	4.093341e-10	5.269707e+00	2.403062e+01
8.800000e-07	8.656050e-07	1.294143e-09	6.282968e+00	8.237111e+01
8.900000e-07	1.004883e-06	2.203814e-09	7.293912e+00	1.421980e+02
9.000000e-07	1.143736e-06	3.138196e-09	8.301773e+00	2.036301e+02
9.100000e-07	1.282087e-06	4.095875e-09	9.305991e+00	2.665136e+02
9.200000e-07	1.419882e-06	5.069759e-09	1.030617e+01	3.304033e+02
9.300000e-07	1.557147e-06	6.049199e-09	1.130251e+01	3.945958e+02
9.400000e-07	1.693888e-06	7.018669e-09	1.229504e+01	4.582099e+02
9.500000e-07	1.830052e-06	7.961471e-09	1.328337e+01	5.202965e+02
9.600000e-07	1.965504e-06	8.865263e-09	1.426655e+01	5.799591e+02
9.700000e-07	2.100057e-06	9.721279e-09	1.524320e+01	6.364597e+02
9.800000e-07	2.233723e-06	1.052105e-08	1.621341e+01	6.892939e+02
9.900000e-07	2.366683e-06	1.125907e-08	1.717849e+01	7.382231e+02
1.000000e-06	2.498931e-06	1.193628e-08	1.813841e+01	7.832619e+02
1.010000e-06	2.630212e-06	1.256111e-08	1.909132e+01	8.246283e+02
1.020000e-06	2.760388e-06	1.314026e-08	2.003620e+01	8.626717e+02
1.030000e-06	2.889538e-06	1.367762e-08	2.097363e+01	8.977938e+02
1.040000e-06	3.017652e-06	1.417477e-08	2.190354e+01	9.303811e+02
1.050000e-06	3.144620e-06	1.463686e-08	2.282513e+01	9.607576e+02
1.060000e-06	3.270457e-06	1.506802e-08	2.373852e+01	9.891661e+02
1.070000e-06	3.395220e-06	1.547253e-08	2.464410e+01	1.015772e+03
1.080000e-06	3.518782e-06	1.585062e-08	2.554097e+01	1.040688e+03
1.090000e-06	3.641017e-06	1.620198e-08	2.642821e+01	1.063999e+03
1.100000e-06	3.761909e-06	1.653139e-08	2.730570e+01	1.085796e+03
1.110000e-06	3.881436e-06	1.684077e-08	2.817329e+01	1.106187e+03
1.120000e-06	3.999617e-06	1.713240e-08	2.903110e+01	1.125300e+03
1.130000e-06	4.116418e-06	1.740783e-08	2.987890e+01	1.143277e+03
1.140000e-06	4.231594e-06	1.766925e-08	3.071490e+01	1.160256e+03
1.150000e-06	4.345076e-06	1.791532e-08	3.153860e+01	1.176353e+03
1.160000e-06	4.456899e-06	1.814658e-08	3.235027e+01	1.191652e+03
1.170000e-06	4.567124e-06	1.836493e-08	3.315033e+01	1.206201e+03
1.180000e-06	4.675878e-06	1.857221e-08	3.393972e+01	1.220020e+03
1.190000e-06	4.783071e-06	1.876837e-08	3.471778e+01	1.233112e+03
1.200000e-06	4.888525e-06	1.895313e-08	3.548321e+01	1.245480e+03
1.210000e-06	4.992168e-06	1.912745e-08	3.623550e+01	1.257143e+03
1.220000e-06	5.094007e-06	1.929392e-08	3.697470e+01	1.268135e+03
1.230000e-06	5.193998e-06	1.945284e-08	3.770048e+01	1.278513e+03
1.240000e-06	5.292007e-06	1.960461e-08	3.841187e+01	1.288342e+03
1.250000e-06	5.388007e-06	1.975088e-08	3.910869e+01	1.297683e+03
1.260000e-06	5.482067e-06	1.988949e-08	3.979142e+01	1.306585e+03
1.270000e-06	5.574220e-06	2.001834e-08	4.046031e+01	1.315074e+03
1.280000e-06	5.664404e-06	2.013809e-08	4.111490e+01	1.323154e+03
1.290000e-06	5.752463e-06	2.025089e-08	4.175408e+01	1.330813e+03
1.300000e-06	5.838416e-06	2.035886e-08	4.237796e+01	1.338034e+03
1.310000e-06	5.922420e-06	2.046210e-08	4.298770e+01	1.344810e+03
1.320000e-06	6.004392e-06	2.055965e-08	4.358270e+01	1.351150e+03
1.330000e-06	6.084120e-06	2.065233e-08	4.416140e+01	1.357085e+03
1.340000e-06	6.161540e-06	2.073968e-08	4.472335e+01	1.362668e+03
1.350000e-06	6.236576e-06	2.082167e-08	4.526800e+01	1.367959e+03
1.360000e-06	6.309237e-06	2.089900e-08	4.579541e+01	1.373018e+03
1.370000e-06	6.379608e-06	2.097195e-08	4.630619e+01	1.377889e+03
1.380000e-06	6.447685e-06	2.104074e-08	4.680033e+01	1.382596e+03
1.390000e-06	6.513433e-06	2.110569e-08	4.727756e+01	1.387135e+03
1.400000e-06	6.576830e-06	2.116889e-08	4.773772e+01	1.391483e+03
1.410000e-06	6.637959e-06	2.123013e-08	4.818143e+01	1.395607e+03
1.420000e-06	6.696837e-06	2.128710e-08	4.860879e+01	1.399473e+03
1.430000e-06	6.753332e-06	2.134187e-08	4.901885e+01	1.403059e+03
1.440000e-06	6.807408e-06	2.139433e-08	4.941137e+01	1.406364e+03
1.450000e-06	6.858863e-06	2.144433e-08	4.978485e+01	1.409402e+03
1.460000e-06	6.907483e-06	2.149069e-08	5.013776e+01	1.412201e+03
1.470000e-06	6.953544e-06	2.153394e-08	5.047209e+01	1.414797e+03
1.480000e-06	6.997248e-06	2.157378e-08	5.078931e+01	1.417218e+03
1.490000e-06	7.038403e-06	2.160530e-08	5.108804e+01	1.419481e+03
1.500000e-06	7.076963e-06	2.163171e-08	5.136792e+01	1.421588e+03
1.510000e-06	7.113104e-06	2.165771e-08	5.163025e+01	1.423525e+03
1.520000e-06	7.146755e-06	2.168521e-08	5.187451e+01	1.425274e+03
1.530000e-06	7.177824e-06	2.171166e-08	5.210002e+01	1.426817e+03
1.540000e-06	7.206455e-06	2.173438e-08	5.230783e+01	1.428144e+03
1.550000e-06	7.232548e-06	2.175432e-08	5.249723e+01	1.429261e+03
1.560000e-06	7.255904e-06	2.177057e-08	5.266676e+01	1.430187e+03
1.570000e-06	7.276671e-06	2.178297e-08	5.281750e+01	1.430949e+03
1.580000e-06	7.294947e-06	2.179195e-08	5.295015e+01	1.431579e+03
1.590000e-06	7.310534e-06	2.179908e-08	5.306329e+01	1.432103e+03
1.600000e-06	7.323320e-06	2.180531e-08	5.315610e+01	1.432535e+03
1.610000e-06	7.333184e-06	2.181013e-08	5.322769e+01	1.432873e+03
1.620000e-06	7.340212e-06	2.181421e-08	5.327871e+01	1.433105e+03
1.630000e-06	7.344725e-06	2.181813e-08	5.331147e+01	1.433211e+03
1.640000e-06	7.346617e-06	2.182022e-08	5.332520e+01	1.433168e+03
1.650000e-06	7.345867e-06	2.181816e-08	5.331976e+01	1.432966e+03
1.660000e-06	7.342736e-06	2.181346e-08	5.329703e+01	1.432600e+03
1.670000e-06	7.337160e-06	2.180521e-08	5.325656e+01	1.432080e+03
1.680000e-06	7.329086e-06	2.179490e-08	5.319795e+01	1.431426e+03
1.690000e-06	7.318592e-06	2.178396e-08	5.312178e+01	1.430657e+03
1.700000e-06	7.305526e-06	2.177286e-08	5.302694e+01	1.429792e+03
1.710000e-06	7.289929e-06	2.175979e-08	5.291373e+01	1.428838e+03
1.720000e-06	7.272094e-06	2.173851e-08	5.278428e+01	1.427797e+03
1.730000e-06	7.252151e-06	2.170063e-08	5.263952e+01	1.426657e+03
1.740000e-06	7.229531e-06	2.167992e-08	5.247533e+01	1.425409e+03
1.750000e-06	7.203561e-06	2.167093e-08	5.228683e+01	1.424042e+03
1.760000e-06	7.174257e-06	2.165664e-08	5.207413e+01	1.422555e+03
1.770000e-06	7.142218e-06	2.163581e-08	5.184157e+01	1.420953e+03
1.780000e-06	7.108127e-06	2.161711e-08	5.159412e+01	1.419251e+03
1.790000e-06	7.072358e-06	2.160135e-08	5.133450e+01	1.417466e+03
1.800000e-06	7.034899e-06	2.159195e-08	5.106260e+01	1.415607e+03
1.810000e-06	6.995052e-06	2.156040e-08	5.077338e+01	1.413674e+03
1.820000e-06	6.952617e-06	2.153698e-08	5.046536e+01	1.411649e+03
1.830000e-06	6.907929e-06	2.152136e-08	5.014100e+01	1.409500e+03
1.840000e-06	6.860699e-06	2.146225e-08	4.979818e+01	1.407187e+03
1.850000e-06	6.810914e-06	2.143693e-08	4.943682e+01	1.404663e+03
1.860000e-06	6.758529e-06	2.138043e-08	4.905658e+01	1.401893e+03
1.870000e-06	6.703323e-06	2.128849e-08	4.865587e+01	1.398855e+03
1.880000e-06	6.645640e-06	2.127373e-08	4.823718e+01	1.395549e+03
1.890000e-06	6.585455e-06	2.125234e-08	4.780033e+01	1.391991e+03
1.900000e-06	6.522729e-06	2.119384e-08	4.734503e+01	1.388214e+03
1.910000e-06	6.457593e-06	2.114389e-08	4.687225e+01	1.384251e+03
1.920000e-06	6.390006e-06	2.107470e-08	4.638167e+01	1.380132e+03
1.930000e-06	6.320000e-06	2.099765e-08	4.587353e+01	1.375872e+03
1.940000e-06	6.247536e-06	2.092428e-08	4.534755e+01	1.371467e+03
1.950000e-06	6.172633e-06	2.088176e-08	4.480387e+01	1.366898e+03
1.960000e-06	6.095210e-06	2.080949e-08	4.424190e+01	1.362133e+03
1.970000e-06	6.015346e-06	2.071927e-08	4.366221e+01	1.357139e+03
1.980000e-06	5.933367e-06	2.064037e-08	4.306717e+01	1.351886e+03
1.990000e-06	5.849289e-06	2.054215e-08	4.245689e+01	1.346355e+03
2.000000e-06	5.763043e-06	2.046246e-08	4.183088e+01	1.340540e+03
2.010000e-06	5.674661e-06	2.037244e-08	4.118936e+01	1.334446e+03
2.020000e-06	5.584316e-06	2.028496e-08	4.053359e+01	1.328080e+03
2.030000e-06	5.492018e-06	2.017970e-08	3.986365e+01	1.321449e+03
2.040000e-06	5.397758e-06	2.006227e-08	3.917947e+01	1.314549e+03
2.050000e-06	5.301591e-06	1.995717e-08	3.848144e+01	1.307366e+03
2.060000e-06	5.203605e-06	1.984533e-08	3.777021e+01	1.299878e+03
2.070000e-06	5.103904e-06	1.973358e-08	3.704654e+01	1.292055e+03
2.080000e-06	5.002346e-06	1.960693e-08	3.630938e+01	1.283870e+03
2.090000e-06	4.898890e-06	1.948574e-08	3.555844e+01	1.275305e+03
2.100000e-06	4.793648e-06	1.935048e-08	3.479455e+01	1.266349e+03
2.110000e-06	4.686890e-06	1.921066e-08	3.401965e+01	1.257002e+03
2.120000e-06	4.578624e-06	1.906646e-08	3.323380e+01	1.247265e+03
2.130000e-06	4.468728e-06	1.890694e-08	3.243613e+01	1.237137e+03
2.140000e-06	4.357152e-06	1.873800e-08	3.162626e+01	1.226607e+03
2.150000e-06	4.243891e-06	1.856503e-08	3.080415e+01	1.215647e+03
2.160000e-06	4.128968e-06	1.839746e-08	2.996999e+01	1.204214e+03
2.170000e-06	4.012280e-06	1.822259e-08	2.912301e+01	1.192256e+03
2.180000e-06	3.893946e-06	1.804061e-08	2.826409e+01	1.179716e+03
2.190000e-06	3.774076e-06	1.784207e-08	2.739402e+01	1.166543e+03
2.200000e-06	3.652748e-06	1.763423e-08	2.651337e+01	1.152701e+03
2.210000e-06	3.530162e-06	1.741415e-08	2.562357e+01	1.138165e+03
2.220000e-06	3.406303e-06	1.718524e-08	2.472455e+01	1.122923e+03
2.230000e-06	3.281120e-06	1.694254e-08	2.381591e+01	1.106963e+03
2.240000e-06	3.154709e-06	1.668253e-08	2.289836e+01	1.090262e+03
2.250000e-06	3.027093e-06	1.640918e-08	2.197207e+01	1.072777e+03
2.260000e-06	2.898281e-06	1.612627e-08	2.103708e+01	1.054435e+03
2.270000e-06	2.768410e-06	1.583620e-08	2.009442e+01	1.035140e+03
2.280000e-06	2.637646e-06	1.553199e-08	1.914527e+01	1.014773e+03
2.290000e-06	2.505973e-06	1.520957e-08	1.818953e+01	9.932109e+02
2.300000e-06	2.373378e-06	1.486280e-08	1.722709e+01	9.703338e+02
2.310000e-06	2.240003e-06	1.449233e-08	1.625900e+01	9.460375e+02
2.320000e-06	2.105936e-06	1.409985e-08	1.528587e+01	9.202323e+02
2.330000e-06	1.971139e-06	1.368645e-08	1.430746e+01	8.928347e+02
2.340000e-06	1.835604e-06	1.324894e-08	1.332368e+01	8.637518e+02
2.350000e-06	1.699355e-06	1.278357e-08	1.233472e+01	8.328637e+02
2.360000e-06	1.562501e-06	1.228089e-08	1.134136e+01	8.000100e+02
2.370000e-06	1.425207e-06	1.173896e-08	1.034482e+01	7.649897e+02
2.380000e-06	1.287506e-06	1.116358e-08	9.345325e+00	7.275763e+02
2.390000e-06	1.149435e-06	1.055370e-08	8.343137e+00	6.875516e+02
2.400000e-06	1.010979e-06	9.902262e-09	7.338159e+00	6.447512e+02
2.410000e-06	8.720966e-07	9.206594e-09	6.330087e+00	5.991144e+02
2.420000e-06	7.328243e-07	8.468418e-09	5.319183e+00	5.507254e+02
2.430000e-06	5.932282e-07	7.692465e-09	4.305929e+00	4.998330e+02
2.440000e-06	4.534212e-07	6.885158e-09	3.291144e+00	4.468414e+02
2.450000e-06	3.134907e-07	6.052274e-09	2.275463e+00	3.922681e+02
2.460000e-06	1.733707e-07	5.202589e-09	1.258406e+00	3.366734e+02
2.470000e-06	3.305200e-08	4.343759e-09	2.399070e-01	2.805739e+02
2.480000e-06	-1.072693e-07	3.482104e-09	-7.786109e-01	2.243575e+02
2.490000e-06	-2.475304e-07	2.619586e-09	-1.796692e+00	1.682176e+02
2.500000e-06	-3.877319e-07	1.757075e-09	-2.814341e+00	1.121237e+02
2.510000e-06	-5.277699e-07	8.922599e-10	-3.830802e+00	5.583723e+01
2.520000e-06	-6.676443e-07	2.089080e-11	-4.846076e+00	-1.027998e+00
2.530000e-06	-8.073002e-07	-8.619424e-10	-5.859764e+00	-5.890886e+01
2.540000e-06	-9.465891e-07	-1.762928e-09	-6.870788e+00	-1.181792e+02
2.550000e-06	-1.085514e-06	-2.686392e-09	-7.879170e+00	-1.790411e+02
2.560000e-06	-1.223969e-06	-3.634516e-09	-8.884145e+00	-2.414429e+02
2.570000e-06	-1.361864e-06	-4.606896e-09	-9.885049e+00	-3.050424e+02
2.580000e-06	-1.499341e-06	-5.594951e-09	-1.088292e+01	-3.692213e+02
2.590000e-06	-1.636413e-06	-6.580555e-09	-1.187785e+01	-4.331504e+02
2.600000e-06	-1.772924e-06	-7.545339e-09	-1.286872e+01	-4.958912e+02
2.610000e-06	-1.908702e-06	-8.474502e-09	-1.385426e+01	-5.565150e+02
2.620000e-06	-2.043585e-06	-9.356959e-09	-1.483330e+01	-6.142165e+02
2.630000e-06	-2.177566e-06	-1.018544e-08	-1.580580e+01	-6.684020e+02
2.640000e-06	-2.310800e-06	-1.095425e-08	-1.677288e+01	-7.187371e+02
2.650000e-06	-2.443312e-06	-1.166488e-08	-1.773471e+01	-7.651499e+02
2.660000e-06	-2.574885e-06	-1.232003e-08	-1.868972e+01	-8.077934e+02
2.670000e-06	-2.705369e-06	-1.292513e-08	-1.963684e+01	-8.469791e+02
2.680000e-06	-2.834895e-06	-1.348646e-08	-2.057700e+01	-8.830986e+02
2.690000e-06	-2.963541e-06	-1.400393e-08	-2.151077e+01	-9.165505e+02
2.700000e-06	-3.091092e-06	-1.448231e-08	-2.243660e+01	-9.476849e+02
2.710000e-06	-3.217410e-06	-1.492471e-08	-2.335347e+01	-9.767741e+02
2.720000e-06	-3.342636e-06	-1.533758e-08	-2.426243e+01	-1.004009e+03
2.730000e-06	-3.466683e-06	-1.572474e-08	-2.516282e+01	-1.029518e+03
2.740000e-06	-3.589375e-06	-1.608662e-08	-2.605337e+01	-1.053394e+03
2.750000e-06	-3.710795e-06	-1.642643e-08	-2.693469e+01	-1.075721e+03
2.760000e-06	-3.830954e-06	-1.674664e-08	-2.780687e+01	-1.096600e+03
2.770000e-06	-3.949613e-06	-1.704955e-08	-2.866815e+01	-1.116154e+03
2.780000e-06	-4.066698e-06	-1.733325e-08	-2.951801e+01	-1.134521e+03
2.790000e-06	-4.182238e-06	-1.759890e-08	-3.035665e+01	-1.151842e+03
2.800000e-06	-4.296012e-06	-1.784964e-08	-3.118247e+01	-1.168243e+03
2.810000e-06	-4.408059e-06	-1.808722e-08	-3.199576e+01	-1.183821e+03
2.820000e-06	-4.518482e-06	-1.831496e-08	-3.279726e+01	-1.198635e+03
2.830000e-06	-4.627374e-06	-1.853238e-08	-3.358766e+01	-1.212714e+03
2.840000e-06	-4.734824e-06	-1.873772e-08	-3.436758e+01	-1.226066e+03
2.850000e-06	-4.840671e-06	-1.893043e-08	-3.513586e+01	-1.238692e+03
2.860000e-06	-4.944714e-06	-1.910996e-08	-3.589106e+01	-1.250604e+03
2.870000e-06	-5.046862e-06	-1.928009e-08	-3.663250e+01	-1.261831e+03
2.880000e-06	-5.147131e-06	-1.944336e-08	-3.736029e+01	-1.272421e+03
2.890000e-06	-5.245582e-06	-1.960014e-08	-3.807490e+01	-1.282439e+03
2.900000e-06	-5.342227e-06	-1.975005e-08	-3.877640e+01	-1.291949e+03
2.910000e-06	-5.436919e-06	-1.989059e-08	-3.946371e+01	-1.301004e+03
2.920000e-06	-5.529618e-06	-2.002118e-08	-4.013656e+01	-1.309639e+03
2.930000e-06	-5.620382e-06	-2.014298e-08	-4.079537e+01	-1.317867e+03
2.940000e-06	-5.709156e-06	-2.025871e-08	-4.143974e+01	-1.325678e+03
