# Temperatura_=_37.03
# Concentracion g/m^3_=_28200.0
# C_Vs_to_Am_M_A/Vsm_=_65563218390.804596
# pendiente_HvsI_1/m_=_3716.3
# ordenada_HvsI_A/m_=_1297.0
# frecuencia_Hz_=_302373.52365278004

Tiempo_(s)	Campo_(V.s)	Magnetizacion_(V.s)	Campo_(kA/m)	Magnetizacion_(A/m)
0.000000e+00	-7.283343e-06	-2.190728e-08	-5.319806e+01	-1.434071e+03
1.000000e-08	-7.280080e-06	-2.190584e-08	-5.317423e+01	-1.433706e+03
2.000000e-08	-7.274450e-06	-2.189747e-08	-5.313311e+01	-1.433181e+03
3.000000e-08	-7.266475e-06	-2.188503e-08	-5.307485e+01	-1.432507e+03
4.000000e-08	-7.255986e-06	-2.187306e-08	-5.299825e+01	-1.431697e+03
5.000000e-08	-7.242778e-06	-2.185829e-08	-5.290177e+01	-1.430769e+03
6.000000e-08	-7.226834e-06	-2.184049e-08	-5.278531e+01	-1.429733e+03
7.000000e-08	-7.208571e-06	-2.182178e-08	-5.265192e+01	-1.428598e+03
8.000000e-08	-7.188288e-06	-2.179781e-08	-5.250378e+01	-1.427368e+03
9.000000e-08	-7.165647e-06	-2.181549e-08	-5.233840e+01	-1.426047e+03
1.000000e-07	-7.140092e-06	-2.182874e-08	-5.215175e+01	-1.424639e+03
1.100000e-07	-7.111579e-06	-2.175297e-08	-5.194348e+01	-1.423151e+03
1.200000e-07	-7.080509e-06	-2.169909e-08	-5.171655e+01	-1.421591e+03
1.300000e-07	-7.047015e-06	-2.168403e-08	-5.147191e+01	-1.419966e+03
1.400000e-07	-7.011246e-06	-2.163922e-08	-5.121065e+01	-1.418276e+03
1.500000e-07	-6.973618e-06	-2.154973e-08	-5.093581e+01	-1.416511e+03
1.600000e-07	-6.934032e-06	-2.157299e-08	-5.064667e+01	-1.414646e+03
1.700000e-07	-6.892015e-06	-2.161572e-08	-5.033978e+01	-1.412644e+03
1.800000e-07	-6.847568e-06	-2.145040e-08	-5.001513e+01	-1.410462e+03
1.900000e-07	-6.800634e-06	-2.148094e-08	-4.967232e+01	-1.408054e+03
2.000000e-07	-6.750864e-06	-2.145223e-08	-4.930880e+01	-1.405387e+03
2.100000e-07	-6.698379e-06	-2.132761e-08	-4.892544e+01	-1.402443e+03
2.200000e-07	-6.643414e-06	-2.134839e-08	-4.852398e+01	-1.399225e+03
2.300000e-07	-6.585915e-06	-2.127348e-08	-4.810400e+01	-1.395758e+03
2.400000e-07	-6.525954e-06	-2.122762e-08	-4.766604e+01	-1.392079e+03
2.500000e-07	-6.463615e-06	-2.115255e-08	-4.721071e+01	-1.388229e+03
2.600000e-07	-6.398826e-06	-2.109777e-08	-4.673748e+01	-1.384239e+03
2.700000e-07	-6.331599e-06	-2.103420e-08	-4.624645e+01	-1.380126e+03
2.800000e-07	-6.262020e-06	-2.095235e-08	-4.573825e+01	-1.375883e+03
2.900000e-07	-6.190042e-06	-2.090487e-08	-4.521251e+01	-1.371481e+03
3.000000e-07	-6.115583e-06	-2.081731e-08	-4.466866e+01	-1.366879e+03
3.100000e-07	-6.038626e-06	-2.074715e-08	-4.410656e+01	-1.362035e+03
3.200000e-07	-5.959106e-06	-2.067065e-08	-4.352574e+01	-1.356913e+03
3.300000e-07	-5.877303e-06	-2.058514e-08	-4.292825e+01	-1.351494e+03
3.400000e-07	-5.793593e-06	-2.050796e-08	-4.231682e+01	-1.345781e+03
3.500000e-07	-5.708069e-06	-2.040312e-08	-4.169215e+01	-1.339794e+03
3.600000e-07	-5.620656e-06	-2.031911e-08	-4.105368e+01	-1.333560e+03
3.700000e-07	-5.531146e-06	-2.022214e-08	-4.039989e+01	-1.327103e+03
3.800000e-07	-5.439543e-06	-2.011223e-08	-3.973081e+01	-1.320434e+03
3.900000e-07	-5.346001e-06	-2.000982e-08	-3.904758e+01	-1.313543e+03
4.000000e-07	-5.250619e-06	-1.989693e-08	-3.835090e+01	-1.306398e+03
4.100000e-07	-5.153367e-06	-1.977745e-08	-3.764056e+01	-1.298951e+03
4.200000e-07	-5.054213e-06	-1.964734e-08	-3.691633e+01	-1.291150e+03
4.300000e-07	-4.953255e-06	-1.953432e-08	-3.617893e+01	-1.282948e+03
4.400000e-07	-4.850570e-06	-1.940370e-08	-3.542891e+01	-1.274316e+03
4.500000e-07	-4.746269e-06	-1.926018e-08	-3.466709e+01	-1.265247e+03
4.600000e-07	-4.640248e-06	-1.911860e-08	-3.389270e+01	-1.255753e+03
4.700000e-07	-4.532456e-06	-1.896873e-08	-3.310539e+01	-1.245856e+03
4.800000e-07	-4.423106e-06	-1.881078e-08	-3.230668e+01	-1.235577e+03
4.900000e-07	-4.312262e-06	-1.864374e-08	-3.149707e+01	-1.224923e+03
5.000000e-07	-4.199838e-06	-1.847746e-08	-3.067592e+01	-1.213876e+03
5.100000e-07	-4.085614e-06	-1.829700e-08	-2.984162e+01	-1.202395e+03
5.200000e-07	-3.969644e-06	-1.810813e-08	-2.899457e+01	-1.190416e+03
5.300000e-07	-3.852160e-06	-1.791225e-08	-2.813646e+01	-1.177865e+03
5.400000e-07	-3.733274e-06	-1.771016e-08	-2.726810e+01	-1.164672e+03
5.500000e-07	-3.613161e-06	-1.749873e-08	-2.639079e+01	-1.150783e+03
5.600000e-07	-3.491614e-06	-1.727437e-08	-2.550300e+01	-1.136162e+03
5.700000e-07	-3.368545e-06	-1.704173e-08	-2.460409e+01	-1.120795e+03
5.800000e-07	-3.244219e-06	-1.679412e-08	-2.369601e+01	-1.104678e+03
5.900000e-07	-3.118782e-06	-1.653666e-08	-2.277981e+01	-1.087801e+03
6.000000e-07	-2.992239e-06	-1.626705e-08	-2.185553e+01	-1.070140e+03
6.100000e-07	-2.864609e-06	-1.598502e-08	-2.092331e+01	-1.051639e+03
6.200000e-07	-2.736027e-06	-1.568528e-08	-1.998414e+01	-1.032211e+03
6.300000e-07	-2.606307e-06	-1.536864e-08	-1.903666e+01	-1.011745e+03
6.400000e-07	-2.475395e-06	-1.503398e-08	-1.808046e+01	-9.901120e+02
6.500000e-07	-2.343616e-06	-1.467809e-08	-1.711794e+01	-9.671825e+02
6.600000e-07	-2.211184e-06	-1.430609e-08	-1.615065e+01	-9.428378e+02
6.700000e-07	-2.078080e-06	-1.391332e-08	-1.517844e+01	-9.169738e+02
6.800000e-07	-1.944200e-06	-1.349682e-08	-1.420058e+01	-8.894955e+02
6.900000e-07	-1.809523e-06	-1.305231e-08	-1.321689e+01	-8.603041e+02
7.000000e-07	-1.674162e-06	-1.258079e-08	-1.222820e+01	-8.292802e+02
7.100000e-07	-1.538338e-06	-1.207567e-08	-1.123613e+01	-7.962702e+02
7.200000e-07	-1.402147e-06	-1.153383e-08	-1.024138e+01	-7.610837e+02
7.300000e-07	-1.265513e-06	-1.095698e-08	-9.243399e+00	-7.235068e+02
7.400000e-07	-1.128374e-06	-1.034203e-08	-8.241726e+00	-6.833327e+02
7.500000e-07	-9.907266e-07	-9.687622e-09	-7.236338e+00	-6.404057e+02
7.600000e-07	-8.526612e-07	-8.991614e-09	-6.227899e+00	-5.946701e+02
7.700000e-07	-7.142131e-07	-8.257540e-09	-5.216664e+00	-5.462106e+02
7.800000e-07	-5.753867e-07	-7.483933e-09	-4.202666e+00	-4.952737e+02
7.900000e-07	-4.362815e-07	-6.676479e-09	-3.186631e+00	-4.422589e+02
8.000000e-07	-2.970011e-07	-5.846290e-09	-2.169317e+00	-3.876787e+02
8.100000e-07	-1.576079e-07	-5.001517e-09	-1.151180e+00	-3.320883e+02
8.200000e-07	-1.808888e-08	-4.148462e-09	-1.321225e-01	-2.760007e+02
8.300000e-07	1.214940e-07	-3.292307e-09	8.874011e-01	-2.198012e+02
8.400000e-07	2.610098e-07	-2.436880e-09	1.906434e+00	-1.636817e+02
8.500000e-07	4.004201e-07	-1.582123e-09	2.924697e+00	-1.076110e+02
8.600000e-07	5.397232e-07	-7.280626e-10	3.942177e+00	-5.134983e+01
8.700000e-07	6.788614e-07	1.328754e-10	4.958453e+00	5.488028e+00
8.800000e-07	8.177038e-07	1.009120e-09	5.972568e+00	6.333956e+01
8.900000e-07	9.562293e-07	1.908103e-09	6.984368e+00	1.225785e+02
9.000000e-07	1.094381e-06	2.831960e-09	7.993441e+00	1.834063e+02
9.100000e-07	1.232013e-06	3.780339e-09	8.998714e+00	2.457711e+02
9.200000e-07	1.369083e-06	4.749153e-09	9.999883e+00	3.093301e+02
9.300000e-07	1.505540e-06	5.727676e-09	1.099657e+01	3.734657e+02
9.400000e-07	1.641485e-06	6.704004e-09	1.198953e+01	4.373501e+02
9.500000e-07	1.776967e-06	7.659747e-09	1.297910e+01	5.000476e+02
9.600000e-07	1.911770e-06	8.578594e-09	1.396370e+01	5.606336e+02
9.700000e-07	2.045770e-06	9.448563e-09	1.494245e+01	6.183074e+02
9.800000e-07	2.178974e-06	1.026514e-08	1.591538e+01	6.724798e+02
9.900000e-07	2.311390e-06	1.102410e-08	1.688256e+01	7.228198e+02
1.000000e-06	2.443032e-06	1.172467e-08	1.784408e+01	7.692568e+02
1.010000e-06	2.573828e-06	1.237053e-08	1.879943e+01	8.119425e+02
1.020000e-06	2.703584e-06	1.296725e-08	1.974717e+01	8.511847e+02
1.030000e-06	2.832175e-06	1.352087e-08	2.068641e+01	8.873696e+02
1.040000e-06	2.959653e-06	1.403381e-08	2.161752e+01	9.208896e+02
1.050000e-06	3.086159e-06	1.450688e-08	2.254153e+01	9.520894e+02
1.060000e-06	3.211652e-06	1.494614e-08	2.345814e+01	9.812377e+02
1.070000e-06	3.336038e-06	1.535795e-08	2.436666e+01	1.008525e+03
1.080000e-06	3.459326e-06	1.574425e-08	2.526717e+01	1.034080e+03
1.090000e-06	3.581311e-06	1.610616e-08	2.615815e+01	1.057999e+03
1.100000e-06	3.701822e-06	1.644505e-08	2.703837e+01	1.080373e+03
1.110000e-06	3.821019e-06	1.676341e-08	2.790900e+01	1.101305e+03
1.120000e-06	3.938922e-06	1.706447e-08	2.877017e+01	1.120921e+03
1.130000e-06	4.055405e-06	1.734866e-08	2.962097e+01	1.139359e+03
1.140000e-06	4.170330e-06	1.761506e-08	3.046039e+01	1.156760e+03
1.150000e-06	4.283521e-06	1.786502e-08	3.128715e+01	1.173244e+03
1.160000e-06	4.395048e-06	1.810113e-08	3.210175e+01	1.188904e+03
1.170000e-06	4.505109e-06	1.832354e-08	3.290564e+01	1.203797e+03
1.180000e-06	4.613705e-06	1.853366e-08	3.369884e+01	1.217948e+03
1.190000e-06	4.720794e-06	1.873442e-08	3.448102e+01	1.231364e+03
1.200000e-06	4.826125e-06	1.892538e-08	3.525036e+01	1.244049e+03
1.210000e-06	4.929584e-06	1.910715e-08	3.600604e+01	1.256015e+03
1.220000e-06	5.031335e-06	1.927811e-08	3.674923e+01	1.267294e+03
1.230000e-06	5.131355e-06	1.944214e-08	3.747979e+01	1.277937e+03
1.240000e-06	5.229424e-06	1.959858e-08	3.819609e+01	1.288007e+03
1.250000e-06	5.325388e-06	1.974629e-08	3.889701e+01	1.297566e+03
1.260000e-06	5.419389e-06	1.988521e-08	3.958360e+01	1.306667e+03
1.270000e-06	5.511572e-06	2.001661e-08	4.025692e+01	1.315338e+03
1.280000e-06	5.601832e-06	2.014169e-08	4.091619e+01	1.323590e+03
1.290000e-06	5.689949e-06	2.025932e-08	4.155980e+01	1.331414e+03
1.300000e-06	5.776015e-06	2.036970e-08	4.218843e+01	1.338795e+03
1.310000e-06	5.860156e-06	2.047328e-08	4.280300e+01	1.345723e+03
1.320000e-06	5.942274e-06	2.057138e-08	4.340280e+01	1.352206e+03
1.330000e-06	6.022213e-06	2.066412e-08	4.398668e+01	1.358274e+03
1.340000e-06	6.099887e-06	2.075282e-08	4.455402e+01	1.363977e+03
1.350000e-06	6.175232e-06	2.083622e-08	4.510434e+01	1.369377e+03
1.360000e-06	6.248135e-06	2.091417e-08	4.563683e+01	1.374537e+03
1.370000e-06	6.318708e-06	2.098874e-08	4.615230e+01	1.379505e+03
1.380000e-06	6.387100e-06	2.106054e-08	4.665184e+01	1.384308e+03
1.390000e-06	6.453170e-06	2.112965e-08	4.713442e+01	1.388948e+03
1.400000e-06	6.516888e-06	2.119636e-08	4.759982e+01	1.393402e+03
1.410000e-06	6.578390e-06	2.125924e-08	4.804903e+01	1.397635e+03
1.420000e-06	6.637710e-06	2.131722e-08	4.848232e+01	1.401611e+03
1.430000e-06	6.694641e-06	2.137174e-08	4.889814e+01	1.405306e+03
1.440000e-06	6.749086e-06	2.142405e-08	4.929581e+01	1.408712e+03
1.450000e-06	6.800981e-06	2.147442e-08	4.967486e+01	1.411843e+03
1.460000e-06	6.850087e-06	2.152198e-08	5.003353e+01	1.414730e+03
1.470000e-06	6.896574e-06	2.156500e-08	5.037307e+01	1.417410e+03
1.480000e-06	6.940756e-06	2.160397e-08	5.069578e+01	1.419916e+03
1.490000e-06	6.982434e-06	2.163974e-08	5.100020e+01	1.422272e+03
1.500000e-06	7.021495e-06	2.167264e-08	5.128551e+01	1.424481e+03
1.510000e-06	7.058183e-06	2.170249e-08	5.155348e+01	1.426532e+03
1.520000e-06	7.092416e-06	2.172955e-08	5.180352e+01	1.428403e+03
1.530000e-06	7.124051e-06	2.175476e-08	5.203458e+01	1.430067e+03
1.540000e-06	7.153272e-06	2.177623e-08	5.224801e+01	1.431508e+03
1.550000e-06	7.180080e-06	2.179400e-08	5.244382e+01	1.432720e+03
1.560000e-06	7.204173e-06	2.181035e-08	5.261980e+01	1.433716e+03
1.570000e-06	7.225608e-06	2.182567e-08	5.277636e+01	1.434521e+03
1.580000e-06	7.244512e-06	2.183770e-08	5.291444e+01	1.435169e+03
1.590000e-06	7.260772e-06	2.184604e-08	5.303320e+01	1.435693e+03
1.600000e-06	7.274308e-06	2.185219e-08	5.313207e+01	1.436116e+03
1.610000e-06	7.284977e-06	2.185748e-08	5.321000e+01	1.436449e+03
1.620000e-06	7.292788e-06	2.186174e-08	5.326705e+01	1.436688e+03
1.630000e-06	7.298018e-06	2.186418e-08	5.330525e+01	1.436818e+03
1.640000e-06	7.300674e-06	2.186518e-08	5.332465e+01	1.436819e+03
1.650000e-06	7.300749e-06	2.186654e-08	5.332520e+01	1.436672e+03
1.660000e-06	7.298413e-06	2.186140e-08	5.330813e+01	1.436365e+03
1.670000e-06	7.293703e-06	2.185194e-08	5.327373e+01	1.435896e+03
1.680000e-06	7.286513e-06	2.184448e-08	5.322122e+01	1.435273e+03
1.690000e-06	7.276872e-06	2.183298e-08	5.315080e+01	1.434510e+03
1.700000e-06	7.264766e-06	2.182079e-08	5.306237e+01	1.433621e+03
1.710000e-06	7.250071e-06	2.181008e-08	5.295504e+01	1.432622e+03
1.720000e-06	7.233037e-06	2.180139e-08	5.283062e+01	1.431521e+03
1.730000e-06	7.213903e-06	2.178865e-08	5.269087e+01	1.430325e+03
1.740000e-06	7.192305e-06	2.169882e-08	5.253311e+01	1.429036e+03
1.750000e-06	7.167526e-06	2.166780e-08	5.235213e+01	1.427658e+03
1.760000e-06	7.139376e-06	2.170578e-08	5.214652e+01	1.426197e+03
1.770000e-06	7.108296e-06	2.168049e-08	5.191950e+01	1.424661e+03
1.780000e-06	7.074941e-06	2.164201e-08	5.167588e+01	1.423059e+03
1.790000e-06	7.039841e-06	2.171125e-08	5.141950e+01	1.421392e+03
1.800000e-06	7.003235e-06	2.168370e-08	5.115214e+01	1.419656e+03
1.810000e-06	6.964544e-06	2.153407e-08	5.086953e+01	1.417830e+03
1.820000e-06	6.923107e-06	2.164521e-08	5.056688e+01	1.415881e+03
1.830000e-06	6.879349e-06	2.154366e-08	5.024726e+01	1.413768e+03
1.840000e-06	6.833283e-06	2.150192e-08	4.991079e+01	1.411445e+03
1.850000e-06	6.784552e-06	2.156626e-08	4.955486e+01	1.408873e+03
1.860000e-06	6.733259e-06	2.139652e-08	4.918021e+01	1.406028e+03
1.870000e-06	6.679240e-06	2.143026e-08	4.878565e+01	1.402906e+03
1.880000e-06	6.622656e-06	2.132990e-08	4.837236e+01	1.399524e+03
1.890000e-06	6.563666e-06	2.127987e-08	4.794149e+01	1.395916e+03
1.900000e-06	6.502098e-06	2.128063e-08	4.749179e+01	1.392122e+03
1.910000e-06	6.438055e-06	2.115266e-08	4.702402e+01	1.388179e+03
1.920000e-06	6.371580e-06	2.116692e-08	4.653848e+01	1.384109e+03
1.930000e-06	6.302763e-06	2.104493e-08	4.603583e+01	1.379914e+03
1.940000e-06	6.231508e-06	2.099791e-08	4.551539e+01	1.375572e+03
1.950000e-06	6.157826e-06	2.094696e-08	4.497720e+01	1.371047e+03
1.960000e-06	6.081746e-06	2.082717e-08	4.442152e+01	1.366294e+03
1.970000e-06	6.003055e-06	2.079687e-08	4.384675e+01	1.361273e+03
1.980000e-06	5.922072e-06	2.066884e-08	4.325524e+01	1.355961e+03
1.990000e-06	5.839092e-06	2.062731e-08	4.264915e+01	1.350351e+03
2.000000e-06	5.754102e-06	2.052303e-08	4.202837e+01	1.344459e+03
2.010000e-06	5.666985e-06	2.042999e-08	4.139207e+01	1.338309e+03
2.020000e-06	5.577796e-06	2.034763e-08	4.074062e+01	1.331929e+03
2.030000e-06	5.486708e-06	2.022221e-08	4.007531e+01	1.325336e+03
2.040000e-06	5.393706e-06	2.013707e-08	3.939602e+01	1.318526e+03
2.050000e-06	5.298716e-06	2.001937e-08	3.870220e+01	1.311476e+03
2.060000e-06	5.201810e-06	1.993475e-08	3.799440e+01	1.304143e+03
2.070000e-06	5.103245e-06	1.980052e-08	3.727447e+01	1.296474e+03
2.080000e-06	5.003012e-06	1.967872e-08	3.654236e+01	1.288419e+03
2.090000e-06	4.900889e-06	1.954788e-08	3.579645e+01	1.279942e+03
2.100000e-06	4.796816e-06	1.941150e-08	3.503629e+01	1.271028e+03
2.110000e-06	4.691131e-06	1.927694e-08	3.426436e+01	1.261683e+03
2.120000e-06	4.583981e-06	1.913259e-08	3.348173e+01	1.251927e+03
2.130000e-06	4.475306e-06	1.898649e-08	3.268796e+01	1.241782e+03
2.140000e-06	4.365022e-06	1.881440e-08	3.188244e+01	1.231262e+03
2.150000e-06	4.252971e-06	1.864915e-08	3.106401e+01	1.220359e+03
2.160000e-06	4.139233e-06	1.847519e-08	3.023326e+01	1.209040e+03
2.170000e-06	4.023854e-06	1.830496e-08	2.939052e+01	1.197246e+03
2.180000e-06	3.906881e-06	1.811665e-08	2.853614e+01	1.184907e+03
2.190000e-06	3.788247e-06	1.792108e-08	2.766963e+01	1.171951e+03
2.200000e-06	3.668029e-06	1.771160e-08	2.679155e+01	1.158315e+03
2.210000e-06	3.546468e-06	1.749322e-08	2.590366e+01	1.143957e+03
2.220000e-06	3.423559e-06	1.726726e-08	2.500592e+01	1.128857e+03
2.230000e-06	3.299473e-06	1.703255e-08	2.409959e+01	1.113008e+03
2.240000e-06	3.174366e-06	1.678482e-08	2.318580e+01	1.096404e+03
2.250000e-06	3.047999e-06	1.651722e-08	2.226280e+01	1.079027e+03
2.260000e-06	2.920315e-06	1.623750e-08	2.133019e+01	1.060834e+03
2.270000e-06	2.791570e-06	1.594161e-08	2.038983e+01	1.041749e+03
2.280000e-06	2.661847e-06	1.563543e-08	1.944232e+01	1.021668e+03
2.290000e-06	2.531152e-06	1.531373e-08	1.848771e+01	1.000466e+03
2.300000e-06	2.399562e-06	1.497738e-08	1.752657e+01	9.780131e+02
2.310000e-06	2.267261e-06	1.461881e-08	1.656024e+01	9.541862e+02
2.320000e-06	2.134351e-06	1.423811e-08	1.558945e+01	9.288756e+02
2.330000e-06	2.000653e-06	1.383134e-08	1.461292e+01	9.019842e+02
2.340000e-06	1.866058e-06	1.339759e-08	1.362982e+01	8.734165e+02
2.350000e-06	1.730675e-06	1.293600e-08	1.264097e+01	8.430624e+02
2.360000e-06	1.594675e-06	1.244275e-08	1.164762e+01	8.107814e+02
2.370000e-06	1.458234e-06	1.191607e-08	1.065105e+01	7.763957e+02
2.380000e-06	1.321429e-06	1.135270e-08	9.651815e+00	7.396970e+02
2.390000e-06	1.184268e-06	1.075356e-08	8.649982e+00	7.004716e+02
2.400000e-06	1.046740e-06	1.011402e-08	7.645463e+00	6.585400e+02
2.410000e-06	9.088689e-07	9.432660e-09	6.638444e+00	6.138054e+02
2.420000e-06	7.707097e-07	8.711845e-09	5.629319e+00	5.662986e+02
2.430000e-06	6.322566e-07	7.951192e-09	4.618048e+00	5.162076e+02
2.440000e-06	4.935107e-07	7.154510e-09	3.604637e+00	4.638803e+02
2.450000e-06	3.545919e-07	6.327497e-09	2.589965e+00	4.097956e+02
2.460000e-06	2.155648e-07	5.479753e-09	1.574501e+00	3.545025e+02
2.470000e-06	7.638616e-08	4.620766e-09	5.579301e-01	2.985396e+02
2.480000e-06	-6.286059e-08	3.757498e-09	-4.591383e-01	2.423465e+02
2.490000e-06	-2.020607e-07	2.896065e-09	-1.475866e+00	1.861899e+02
2.500000e-06	-3.412059e-07	2.035837e-09	-2.492192e+00	1.301189e+02
2.510000e-06	-4.802959e-07	1.175220e-09	-3.508116e+00	7.396388e+01
2.520000e-06	-6.192475e-07	3.104482e-10	-4.523028e+00	1.738148e+01
2.530000e-06	-7.579716e-07	-5.649825e-10	-5.536279e+00	-4.005976e+01
2.540000e-06	-8.964097e-07	-1.458679e-09	-6.547441e+00	-9.876938e+01
2.550000e-06	-1.034500e-06	-2.377388e-09	-7.556062e+00	-1.590216e+02
2.560000e-06	-1.172205e-06	-3.320356e-09	-8.561872e+00	-2.208619e+02
2.570000e-06	-1.309496e-06	-4.286601e-09	-9.564656e+00	-2.840524e+02
2.580000e-06	-1.446384e-06	-5.270665e-09	-1.056449e+01	-3.480685e+02
2.590000e-06	-1.582827e-06	-6.257838e-09	-1.156108e+01	-4.121472e+02
2.600000e-06	-1.718727e-06	-7.230066e-09	-1.255370e+01	-4.753783e+02
2.610000e-06	-1.853959e-06	-8.171804e-09	-1.354145e+01	-5.368193e+02
2.620000e-06	-1.988352e-06	-9.070710e-09	-1.452306e+01	-5.956136e+02
2.630000e-06	-2.121810e-06	-9.917400e-09	-1.549785e+01	-6.510888e+02
2.640000e-06	-2.254429e-06	-1.070661e-08	-1.646651e+01	-7.028191e+02
2.650000e-06	-2.386290e-06	-1.143816e-08	-1.742964e+01	-7.506434e+02
2.660000e-06	-2.517295e-06	-1.211455e-08	-1.838651e+01	-7.946404e+02
2.670000e-06	-2.647379e-06	-1.273885e-08	-1.933665e+01	-8.350708e+02
2.680000e-06	-2.776519e-06	-1.331575e-08	-2.027989e+01	-8.723019e+02
2.690000e-06	-2.904716e-06	-1.384905e-08	-2.121625e+01	-9.067311e+02
2.700000e-06	-3.031926e-06	-1.434155e-08	-2.214541e+01	-9.387249e+02
2.710000e-06	-3.157928e-06	-1.479803e-08	-2.306573e+01	-9.685806e+02
2.720000e-06	-3.282714e-06	-1.522336e-08	-2.397718e+01	-9.965153e+02
2.730000e-06	-3.406383e-06	-1.562080e-08	-2.488046e+01	-1.022677e+03
2.740000e-06	-3.528808e-06	-1.599250e-08	-2.577467e+01	-1.047171e+03
2.750000e-06	-3.649901e-06	-1.634045e-08	-2.665914e+01	-1.070086e+03
2.760000e-06	-3.769758e-06	-1.666760e-08	-2.753458e+01	-1.091520e+03
2.770000e-06	-3.888250e-06	-1.697708e-08	-2.840006e+01	-1.111591e+03
2.780000e-06	-4.005151e-06	-1.726943e-08	-2.925391e+01	-1.130434e+03
2.790000e-06	-4.120434e-06	-1.754420e-08	-3.009595e+01	-1.148190e+03
2.800000e-06	-4.234040e-06	-1.780201e-08	-3.092573e+01	-1.164990e+03
2.810000e-06	-4.345823e-06	-1.804485e-08	-3.174220e+01	-1.180936e+03
2.820000e-06	-4.455932e-06	-1.827684e-08	-3.254645e+01	-1.196099e+03
2.830000e-06	-4.564631e-06	-1.849940e-08	-3.334040e+01	-1.210514e+03
2.840000e-06	-4.671939e-06	-1.871222e-08	-3.412418e+01	-1.224193e+03
2.850000e-06	-4.777690e-06	-1.891299e-08	-3.489659e+01	-1.237139e+03
2.860000e-06	-4.881741e-06	-1.909969e-08	-3.565659e+01	-1.249359e+03
2.870000e-06	-4.983905e-06	-1.927391e-08	-3.640281e+01	-1.260879e+03
2.880000e-06	-5.084134e-06	-1.943843e-08	-3.713488e+01	-1.271742e+03
2.890000e-06	-5.182622e-06	-1.959506e-08	-3.785425e+01	-1.282010e+03
2.900000e-06	-5.279356e-06	-1.974530e-08	-3.856080e+01	-1.291746e+03
2.910000e-06	-5.374185e-06	-1.988920e-08	-3.925343e+01	-1.301005e+03
2.920000e-06	-5.466981e-06	-2.002429e-08	-3.993122e+01	-1.309829e+03
2.930000e-06	-5.557852e-06	-2.015183e-08	-4.059495e+01	-1.318231e+03
2.940000e-06	-5.646795e-06	-2.027192e-08	-4.124460e+01	-1.326210e+03
