# Temperatura_=_70.84
# Concentracion g/m^3_=_28200.0
# C_Vs_to_Am_M_A/Vsm_=_65563218390.804596
# pendiente_HvsI_1/m_=_3716.3
# ordenada_HvsI_A/m_=_1297.0
# frecuencia_Hz_=_302118.23774050066

Tiempo_(s)	Campo_(V.s)	Magnetizacion_(V.s)	Campo_(kA/m)	Magnetizacion_(A/m)
0.000000e+00	-6.416543e-06	-2.222456e-08	-4.585661e+01	-1.458451e+03
1.000000e-08	-6.413086e-06	-2.221656e-08	-4.583190e+01	-1.457991e+03
2.000000e-08	-6.407634e-06	-2.220299e-08	-4.579294e+01	-1.457320e+03
3.000000e-08	-6.400308e-06	-2.219415e-08	-4.574058e+01	-1.456462e+03
4.000000e-08	-6.390736e-06	-2.218135e-08	-4.567217e+01	-1.455456e+03
5.000000e-08	-6.378724e-06	-2.216080e-08	-4.558633e+01	-1.454347e+03
6.000000e-08	-6.364375e-06	-2.213486e-08	-4.548378e+01	-1.453170e+03
7.000000e-08	-6.347740e-06	-2.210009e-08	-4.536490e+01	-1.451945e+03
8.000000e-08	-6.329088e-06	-2.209509e-08	-4.523160e+01	-1.450665e+03
9.000000e-08	-6.308258e-06	-2.219479e-08	-4.508274e+01	-1.449294e+03
1.000000e-07	-6.284972e-06	-2.212217e-08	-4.491632e+01	-1.447771e+03
1.100000e-07	-6.259040e-06	-2.200416e-08	-4.473099e+01	-1.446024e+03
1.200000e-07	-6.230777e-06	-2.200350e-08	-4.452901e+01	-1.443977e+03
1.300000e-07	-6.200635e-06	-2.191737e-08	-4.431360e+01	-1.441574e+03
1.400000e-07	-6.168938e-06	-2.171500e-08	-4.408707e+01	-1.438783e+03
1.500000e-07	-6.135426e-06	-2.193658e-08	-4.384757e+01	-1.435608e+03
1.600000e-07	-6.099877e-06	-2.192084e-08	-4.359351e+01	-1.432086e+03
1.700000e-07	-6.062578e-06	-2.166251e-08	-4.332696e+01	-1.428283e+03
1.800000e-07	-6.023183e-06	-2.187515e-08	-4.304541e+01	-1.424280e+03
1.900000e-07	-5.981259e-06	-2.166108e-08	-4.274579e+01	-1.420158e+03
2.000000e-07	-5.937161e-06	-2.154362e-08	-4.243065e+01	-1.415984e+03
2.100000e-07	-5.891071e-06	-2.163186e-08	-4.210126e+01	-1.411802e+03
2.200000e-07	-5.842607e-06	-2.147506e-08	-4.175490e+01	-1.407625e+03
2.300000e-07	-5.791663e-06	-2.147020e-08	-4.139082e+01	-1.403436e+03
2.400000e-07	-5.738201e-06	-2.139168e-08	-4.100875e+01	-1.399197e+03
2.500000e-07	-5.682627e-06	-2.130129e-08	-4.061158e+01	-1.394852e+03
2.600000e-07	-5.624890e-06	-2.127575e-08	-4.019896e+01	-1.390343e+03
2.700000e-07	-5.564951e-06	-2.114130e-08	-3.977060e+01	-1.385618e+03
2.800000e-07	-5.503083e-06	-2.110227e-08	-3.932845e+01	-1.380637e+03
2.900000e-07	-5.439264e-06	-2.100071e-08	-3.887236e+01	-1.375377e+03
3.000000e-07	-5.373343e-06	-2.093773e-08	-3.840125e+01	-1.369832e+03
3.100000e-07	-5.305283e-06	-2.085107e-08	-3.791485e+01	-1.364006e+03
3.200000e-07	-5.235232e-06	-2.073278e-08	-3.741423e+01	-1.357913e+03
3.300000e-07	-5.163459e-06	-2.066446e-08	-3.690129e+01	-1.351567e+03
3.400000e-07	-5.089811e-06	-2.051919e-08	-3.637496e+01	-1.344976e+03
3.500000e-07	-5.013931e-06	-2.045180e-08	-3.583267e+01	-1.338145e+03
3.600000e-07	-4.935938e-06	-2.033171e-08	-3.527528e+01	-1.331068e+03
3.700000e-07	-4.855947e-06	-2.021184e-08	-3.470362e+01	-1.323729e+03
3.800000e-07	-4.774148e-06	-2.011644e-08	-3.411903e+01	-1.316110e+03
3.900000e-07	-4.690798e-06	-1.996956e-08	-3.352336e+01	-1.308187e+03
4.000000e-07	-4.606012e-06	-1.983910e-08	-3.291743e+01	-1.299937e+03
4.100000e-07	-4.519755e-06	-1.970308e-08	-3.230098e+01	-1.291340e+03
4.200000e-07	-4.432117e-06	-1.958591e-08	-3.167466e+01	-1.282380e+03
4.300000e-07	-4.342959e-06	-1.944385e-08	-3.103748e+01	-1.273048e+03
4.400000e-07	-4.252173e-06	-1.928890e-08	-3.038867e+01	-1.263338e+03
4.500000e-07	-4.159870e-06	-1.914499e-08	-2.972902e+01	-1.253249e+03
4.600000e-07	-4.066059e-06	-1.897459e-08	-2.905859e+01	-1.242778e+03
4.700000e-07	-3.970917e-06	-1.880941e-08	-2.837864e+01	-1.231919e+03
4.800000e-07	-3.874393e-06	-1.863507e-08	-2.768882e+01	-1.220661e+03
4.900000e-07	-3.776366e-06	-1.845893e-08	-2.698826e+01	-1.208984e+03
5.000000e-07	-3.676880e-06	-1.826781e-08	-2.627727e+01	-1.196859e+03
5.100000e-07	-3.576025e-06	-1.807059e-08	-2.555650e+01	-1.184251e+03
5.200000e-07	-3.473963e-06	-1.787167e-08	-2.482710e+01	-1.171119e+03
5.300000e-07	-3.370739e-06	-1.765662e-08	-2.408940e+01	-1.157421e+03
5.400000e-07	-3.266214e-06	-1.744054e-08	-2.334240e+01	-1.143118e+03
5.500000e-07	-3.160377e-06	-1.721275e-08	-2.258602e+01	-1.128177e+03
5.600000e-07	-3.053340e-06	-1.697659e-08	-2.182106e+01	-1.112566e+03
5.700000e-07	-2.945126e-06	-1.672444e-08	-2.104770e+01	-1.096261e+03
5.800000e-07	-2.835811e-06	-1.646099e-08	-2.026647e+01	-1.079235e+03
5.900000e-07	-2.725574e-06	-1.618500e-08	-1.947865e+01	-1.061458e+03
6.000000e-07	-2.614455e-06	-1.589621e-08	-1.868452e+01	-1.042889e+03
6.100000e-07	-2.502287e-06	-1.560066e-08	-1.788290e+01	-1.023473e+03
6.200000e-07	-2.389025e-06	-1.529207e-08	-1.707346e+01	-1.003141e+03
6.300000e-07	-2.274748e-06	-1.496708e-08	-1.625676e+01	-9.818122e+02
6.400000e-07	-2.159477e-06	-1.462012e-08	-1.543296e+01	-9.593945e+02
6.500000e-07	-2.043256e-06	-1.425972e-08	-1.460238e+01	-9.357911e+02
6.600000e-07	-1.926268e-06	-1.387827e-08	-1.376631e+01	-9.109042e+02
6.700000e-07	-1.808653e-06	-1.347381e-08	-1.292576e+01	-8.846366e+02
6.800000e-07	-1.690549e-06	-1.305012e-08	-1.208171e+01	-8.568912e+02
6.900000e-07	-1.571955e-06	-1.260132e-08	-1.123417e+01	-8.275685e+02
7.000000e-07	-1.452771e-06	-1.212676e-08	-1.038241e+01	-7.965628e+02
7.100000e-07	-1.333035e-06	-1.161954e-08	-9.526694e+00	-7.637607e+02
7.200000e-07	-1.212858e-06	-1.108711e-08	-8.667837e+00	-7.290436e+02
7.300000e-07	-1.092224e-06	-1.052586e-08	-7.805709e+00	-6.922965e+02
7.400000e-07	-9.711593e-07	-9.933820e-09	-6.940508e+00	-6.534237e+02
7.500000e-07	-8.497970e-07	-9.308756e-09	-6.073178e+00	-6.123693e+02
7.600000e-07	-7.282114e-07	-8.648952e-09	-5.204251e+00	-5.691398e+02
7.700000e-07	-6.064565e-07	-7.955713e-09	-4.334115e+00	-5.238225e+02
7.800000e-07	-4.845279e-07	-7.234053e-09	-3.462738e+00	-4.765952e+02
7.900000e-07	-3.624456e-07	-6.490640e-09	-2.590262e+00	-4.277210e+02
8.000000e-07	-2.402006e-07	-5.724728e-09	-1.716623e+00	-3.775282e+02
8.100000e-07	-1.178260e-07	-4.944397e-09	-8.420577e-01	-3.263739e+02
8.200000e-07	4.630413e-09	-4.154954e-09	3.309181e-02	-2.745977e+02
8.300000e-07	1.271272e-07	-3.361282e-09	9.085297e-01	-2.224728e+02
8.400000e-07	2.496035e-07	-2.562638e-09	1.783822e+00	-1.701644e+02
8.500000e-07	3.719681e-07	-1.763399e-09	2.658315e+00	-1.177046e+02
8.600000e-07	4.942172e-07	-9.589367e-10	3.531984e+00	-6.499117e+01
8.700000e-07	6.163366e-07	-1.443394e-10	4.404724e+00	-1.181251e+01
8.800000e-07	7.382200e-07	6.788021e-10	5.275779e+00	4.210318e+01
8.900000e-07	8.599052e-07	1.514565e-09	6.145417e+00	9.702219e+01
9.000000e-07	9.813668e-07	2.366297e-09	7.013458e+00	1.531345e+02
9.100000e-07	1.102521e-06	3.238065e-09	7.879300e+00	2.104910e+02
9.200000e-07	1.223321e-06	4.127795e-09	8.742612e+00	2.689605e+02
9.300000e-07	1.343706e-06	5.029557e-09	9.602958e+00	3.282160e+02
9.400000e-07	1.463554e-06	5.935886e-09	1.045947e+01	3.877527e+02
9.500000e-07	1.582723e-06	6.836498e-09	1.131112e+01	4.469349e+02
9.600000e-07	1.701244e-06	7.721864e-09	1.215815e+01	5.050648e+02
9.700000e-07	1.819158e-06	8.580216e-09	1.300084e+01	5.614591e+02
9.800000e-07	1.936463e-06	9.403638e-09	1.383917e+01	6.155218e+02
9.900000e-07	2.053058e-06	1.018340e-08	1.467243e+01	6.667996e+02
1.000000e-06	2.168740e-06	1.091092e-08	1.549916e+01	7.150138e+02
1.010000e-06	2.283403e-06	1.159028e-08	1.631862e+01	7.600637e+02
1.020000e-06	2.397050e-06	1.222612e-08	1.713081e+01	8.020050e+02
1.030000e-06	2.509767e-06	1.282000e-08	1.793635e+01	8.410105e+02
1.040000e-06	2.621493e-06	1.337707e-08	1.873482e+01	8.773219e+02
1.050000e-06	2.732166e-06	1.389258e-08	1.952576e+01	9.112033e+02
1.060000e-06	2.841955e-06	1.437316e-08	2.031038e+01	9.429045e+02
1.070000e-06	2.950935e-06	1.482353e-08	2.108922e+01	9.726383e+02
1.080000e-06	3.058991e-06	1.524860e-08	2.186146e+01	1.000574e+03
1.090000e-06	3.165869e-06	1.564873e-08	2.262527e+01	1.026842e+03
1.100000e-06	3.271467e-06	1.602691e-08	2.337993e+01	1.051550e+03
1.110000e-06	3.375840e-06	1.638245e-08	2.412585e+01	1.074792e+03
1.120000e-06	3.478974e-06	1.671707e-08	2.486291e+01	1.096667e+03
1.130000e-06	3.580860e-06	1.703049e-08	2.559105e+01	1.117278e+03
1.140000e-06	3.681607e-06	1.732510e-08	2.631105e+01	1.136734e+03
1.150000e-06	3.781169e-06	1.760641e-08	2.702259e+01	1.155143e+03
1.160000e-06	3.879284e-06	1.787075e-08	2.772378e+01	1.172599e+03
1.170000e-06	3.975871e-06	1.812280e-08	2.841405e+01	1.189181e+03
1.180000e-06	4.070988e-06	1.836364e-08	2.909381e+01	1.204946e+03
1.190000e-06	4.164725e-06	1.859234e-08	2.976371e+01	1.219932e+03
1.200000e-06	4.257201e-06	1.880722e-08	3.042460e+01	1.234164e+03
1.210000e-06	4.348172e-06	1.901114e-08	3.107474e+01	1.247667e+03
1.220000e-06	4.437449e-06	1.920309e-08	3.171277e+01	1.260466e+03
1.230000e-06	4.525076e-06	1.938723e-08	3.233901e+01	1.272599e+03
1.240000e-06	4.611052e-06	1.956217e-08	3.295344e+01	1.284114e+03
1.250000e-06	4.695562e-06	1.973087e-08	3.355741e+01	1.295063e+03
1.260000e-06	4.778464e-06	1.989309e-08	3.414988e+01	1.305497e+03
1.270000e-06	4.859623e-06	2.004845e-08	3.472989e+01	1.315458e+03
1.280000e-06	4.938989e-06	2.019542e-08	3.529709e+01	1.324972e+03
1.290000e-06	5.016444e-06	2.033595e-08	3.585063e+01	1.334047e+03
1.300000e-06	5.091972e-06	2.046918e-08	3.639040e+01	1.342679e+03
1.310000e-06	5.165462e-06	2.059317e-08	3.691561e+01	1.350856e+03
1.320000e-06	5.236969e-06	2.071005e-08	3.742664e+01	1.358568e+03
1.330000e-06	5.306652e-06	2.082096e-08	3.792463e+01	1.365815e+03
1.340000e-06	5.374466e-06	2.092467e-08	3.840928e+01	1.372616e+03
1.350000e-06	5.440271e-06	2.102099e-08	3.887956e+01	1.379003e+03
1.360000e-06	5.504055e-06	2.111340e-08	3.933540e+01	1.385025e+03
1.370000e-06	5.565943e-06	2.120251e-08	3.977769e+01	1.390734e+03
1.380000e-06	5.626072e-06	2.128867e-08	4.020741e+01	1.396179e+03
1.390000e-06	5.684209e-06	2.137040e-08	4.062289e+01	1.401395e+03
1.400000e-06	5.740178e-06	2.144903e-08	4.102288e+01	1.406401e+03
1.410000e-06	5.794099e-06	2.152252e-08	4.140823e+01	1.411199e+03
1.420000e-06	5.845719e-06	2.159051e-08	4.177714e+01	1.415775e+03
1.430000e-06	5.894876e-06	2.165548e-08	4.212845e+01	1.420109e+03
1.440000e-06	5.941819e-06	2.171645e-08	4.246393e+01	1.424183e+03
1.450000e-06	5.986827e-06	2.177357e-08	4.278559e+01	1.427986e+03
1.460000e-06	6.029796e-06	2.182807e-08	4.309267e+01	1.431519e+03
1.470000e-06	6.070448e-06	2.188165e-08	4.338320e+01	1.434791e+03
1.480000e-06	6.108979e-06	2.193268e-08	4.365857e+01	1.437821e+03
1.490000e-06	6.145600e-06	2.197804e-08	4.392028e+01	1.440627e+03
1.500000e-06	6.179939e-06	2.201758e-08	4.416568e+01	1.443223e+03
1.510000e-06	6.211858e-06	2.205213e-08	4.439380e+01	1.445614e+03
1.520000e-06	6.241650e-06	2.208275e-08	4.460671e+01	1.447798e+03
1.530000e-06	6.269493e-06	2.210970e-08	4.480570e+01	1.449765e+03
1.540000e-06	6.295035e-06	2.213398e-08	4.498824e+01	1.451506e+03
1.550000e-06	6.318068e-06	2.215721e-08	4.515284e+01	1.453017e+03
1.560000e-06	6.338982e-06	2.217903e-08	4.530231e+01	1.454304e+03
1.570000e-06	6.357775e-06	2.220038e-08	4.543661e+01	1.455382e+03
1.580000e-06	6.374181e-06	2.221894e-08	4.555386e+01	1.456277e+03
1.590000e-06	6.388146e-06	2.223226e-08	4.565366e+01	1.457015e+03
1.600000e-06	6.399595e-06	2.224179e-08	4.573548e+01	1.457620e+03
1.610000e-06	6.408495e-06	2.224930e-08	4.579909e+01	1.458104e+03
1.620000e-06	6.415018e-06	2.225649e-08	4.584571e+01	1.458465e+03
1.630000e-06	6.419438e-06	2.226138e-08	4.587729e+01	1.458685e+03
1.640000e-06	6.421579e-06	2.226334e-08	4.589260e+01	1.458739e+03
1.650000e-06	6.421312e-06	2.226688e-08	4.589069e+01	1.458600e+03
1.660000e-06	6.418901e-06	2.225218e-08	4.587346e+01	1.458248e+03
1.670000e-06	6.414558e-06	2.224788e-08	4.584242e+01	1.457681e+03
1.680000e-06	6.408044e-06	2.224271e-08	4.579587e+01	1.456912e+03
1.690000e-06	6.399314e-06	2.223034e-08	4.573347e+01	1.455975e+03
1.700000e-06	6.388666e-06	2.221932e-08	4.565738e+01	1.454912e+03
1.710000e-06	6.375696e-06	2.220777e-08	4.556469e+01	1.453765e+03
1.720000e-06	6.360394e-06	2.222583e-08	4.545533e+01	1.452563e+03
1.730000e-06	6.343217e-06	2.216972e-08	4.533258e+01	1.451314e+03
1.740000e-06	6.324012e-06	2.201459e-08	4.519532e+01	1.449994e+03
1.750000e-06	6.301779e-06	2.206613e-08	4.503644e+01	1.448556e+03
1.760000e-06	6.276236e-06	2.209110e-08	4.485389e+01	1.446930e+03
1.770000e-06	6.248520e-06	2.199079e-08	4.465581e+01	1.445042e+03
1.780000e-06	6.218985e-06	2.218581e-08	4.444474e+01	1.442823e+03
1.790000e-06	6.187850e-06	2.209994e-08	4.422223e+01	1.440228e+03
1.800000e-06	6.155363e-06	2.181919e-08	4.399005e+01	1.437242e+03
1.810000e-06	6.120765e-06	2.204663e-08	4.374280e+01	1.433887e+03
1.820000e-06	6.084152e-06	2.177418e-08	4.348113e+01	1.430215e+03
1.830000e-06	6.045432e-06	2.165239e-08	4.320442e+01	1.426302e+03
1.840000e-06	6.004239e-06	2.183240e-08	4.291003e+01	1.422229e+03
1.850000e-06	5.961089e-06	2.144585e-08	4.260165e+01	1.418074e+03
1.860000e-06	5.915902e-06	2.157138e-08	4.227872e+01	1.413892e+03
1.870000e-06	5.868526e-06	2.149922e-08	4.194013e+01	1.409713e+03
1.880000e-06	5.819048e-06	2.131799e-08	4.158654e+01	1.405534e+03
1.890000e-06	5.766992e-06	2.145211e-08	4.121451e+01	1.401326e+03
1.900000e-06	5.712435e-06	2.115005e-08	4.082461e+01	1.397041e+03
1.910000e-06	5.655683e-06	2.123887e-08	4.041903e+01	1.392622e+03
1.920000e-06	5.596903e-06	2.119294e-08	3.999895e+01	1.388010e+03
1.930000e-06	5.536290e-06	2.098480e-08	3.956577e+01	1.383161e+03
1.940000e-06	5.473491e-06	2.105777e-08	3.911697e+01	1.378042e+03
1.950000e-06	5.408524e-06	2.081589e-08	3.865268e+01	1.372640e+03
1.960000e-06	5.341617e-06	2.086864e-08	3.817452e+01	1.366953e+03
1.970000e-06	5.272682e-06	2.070372e-08	3.768186e+01	1.360992e+03
1.980000e-06	5.201636e-06	2.058671e-08	3.717413e+01	1.354771e+03
1.990000e-06	5.128619e-06	2.060303e-08	3.665230e+01	1.348301e+03
2.000000e-06	5.053896e-06	2.039190e-08	3.611829e+01	1.341591e+03
2.010000e-06	4.976982e-06	2.038312e-08	3.556861e+01	1.334638e+03
2.020000e-06	4.897923e-06	2.016430e-08	3.500360e+01	1.327432e+03
2.030000e-06	4.817183e-06	2.010525e-08	3.442659e+01	1.319956e+03
2.040000e-06	4.734806e-06	2.001250e-08	3.383787e+01	1.312188e+03
2.050000e-06	4.651005e-06	1.985378e-08	3.323898e+01	1.304105e+03
2.060000e-06	4.565491e-06	1.977165e-08	3.262784e+01	1.295683e+03
2.070000e-06	4.478211e-06	1.958541e-08	3.200408e+01	1.286906e+03
2.080000e-06	4.389349e-06	1.949510e-08	3.136901e+01	1.277761e+03
2.090000e-06	4.298988e-06	1.929454e-08	3.072324e+01	1.268240e+03
2.100000e-06	4.207305e-06	1.916872e-08	3.006802e+01	1.258341e+03
2.110000e-06	4.114161e-06	1.901656e-08	2.940235e+01	1.248061e+03
2.120000e-06	4.019388e-06	1.885194e-08	2.872505e+01	1.237397e+03
2.130000e-06	3.923187e-06	1.869374e-08	2.803753e+01	1.226341e+03
2.140000e-06	3.825656e-06	1.850121e-08	2.734052e+01	1.214877e+03
2.150000e-06	3.726811e-06	1.834666e-08	2.663411e+01	1.202980e+03
2.160000e-06	3.626675e-06	1.814239e-08	2.591848e+01	1.190618e+03
2.170000e-06	3.525123e-06	1.796577e-08	2.519272e+01	1.177753e+03
2.180000e-06	3.422188e-06	1.774710e-08	2.445708e+01	1.164343e+03
2.190000e-06	3.317871e-06	1.754029e-08	2.371157e+01	1.150348e+03
2.200000e-06	3.212344e-06	1.730892e-08	2.295741e+01	1.135729e+03
2.210000e-06	3.105787e-06	1.707847e-08	2.219588e+01	1.120457e+03
2.220000e-06	2.998169e-06	1.684010e-08	2.142678e+01	1.104502e+03
2.230000e-06	2.889449e-06	1.659314e-08	2.064980e+01	1.087840e+03
2.240000e-06	2.779731e-06	1.634049e-08	1.986569e+01	1.070443e+03
2.250000e-06	2.668970e-06	1.606202e-08	1.907412e+01	1.052276e+03
2.260000e-06	2.557095e-06	1.577448e-08	1.827459e+01	1.033290e+03
2.270000e-06	2.444236e-06	1.546116e-08	1.746803e+01	1.013426e+03
2.280000e-06	2.330433e-06	1.514704e-08	1.665472e+01	9.926069e+02
2.290000e-06	2.215762e-06	1.480962e-08	1.583522e+01	9.707454e+02
2.300000e-06	2.100214e-06	1.446429e-08	1.500944e+01	9.477471e+02
2.310000e-06	1.983714e-06	1.409767e-08	1.417685e+01	9.235142e+02
2.320000e-06	1.866401e-06	1.371370e-08	1.333846e+01	8.979490e+02
2.330000e-06	1.748464e-06	1.330517e-08	1.249561e+01	8.709547e+02
2.340000e-06	1.629907e-06	1.287267e-08	1.164833e+01	8.424334e+02
2.350000e-06	1.510678e-06	1.241819e-08	1.079624e+01	8.122829e+02
2.360000e-06	1.390849e-06	1.193506e-08	9.939872e+00	7.803937e+02
2.370000e-06	1.270568e-06	1.142237e-08	9.080268e+00	7.466490e+02
2.380000e-06	1.149916e-06	1.087122e-08	8.218012e+00	7.109305e+02
2.390000e-06	1.028929e-06	1.029259e-08	7.353367e+00	6.731305e+02
2.400000e-06	9.076055e-07	9.683054e-09	6.486314e+00	6.331705e+02
2.410000e-06	7.859392e-07	9.044246e-09	5.616810e+00	5.910230e+02
2.420000e-06	6.640659e-07	8.372121e-09	4.745828e+00	5.467332e+02
2.430000e-06	5.420712e-07	7.668305e-09	3.873978e+00	5.004330e+02
2.440000e-06	4.198791e-07	6.938368e-09	3.000717e+00	4.523446e+02
2.450000e-06	2.975303e-07	6.183198e-09	2.126337e+00	4.027673e+02
2.460000e-06	1.750832e-07	5.408337e-09	1.251253e+00	3.520490e+02
2.470000e-06	5.260810e-08	4.617336e-09	3.759702e-01	3.005444e+02
2.480000e-06	-6.987905e-08	3.820726e-09	-4.993991e-01	2.485656e+02
2.490000e-06	-1.923941e-07	3.020915e-09	-1.374968e+00	1.963362e+02
2.500000e-06	-3.148866e-07	2.222069e-09	-2.250376e+00	1.439568e+02
2.510000e-06	-4.372797e-07	1.426089e-09	-3.125072e+00	9.139072e+01
2.520000e-06	-5.595612e-07	6.235846e-10	-3.998973e+00	3.847628e+01
2.530000e-06	-6.816617e-07	-1.912148e-10	-4.871578e+00	-1.503560e+01
2.540000e-06	-8.035619e-07	-1.023085e-09	-5.742753e+00	-6.942280e+01
2.550000e-06	-9.253040e-07	-1.873072e-09	-6.612798e+00	-1.249221e+02
2.560000e-06	-1.046754e-06	-2.740315e-09	-7.480758e+00	-1.816608e+02
2.570000e-06	-1.167838e-06	-3.625147e-09	-8.346097e+00	-2.396025e+02
2.580000e-06	-1.288587e-06	-4.526402e-09	-9.209043e+00	-2.985178e+02
2.590000e-06	-1.408901e-06	-5.436735e-09	-1.006889e+01	-3.579866e+02
2.600000e-06	-1.528627e-06	-6.346971e-09	-1.092452e+01	-4.174311e+02
2.610000e-06	-1.647624e-06	-7.245167e-09	-1.177495e+01	-4.761753e+02
2.620000e-06	-1.765831e-06	-8.122962e-09	-1.261973e+01	-5.335190e+02
2.630000e-06	-1.883389e-06	-8.970744e-09	-1.345987e+01	-5.888141e+02
2.640000e-06	-2.000307e-06	-9.777091e-09	-1.429543e+01	-6.415304e+02
2.650000e-06	-2.116353e-06	-1.053478e-08	-1.512478e+01	-6.913000e+02
2.660000e-06	-2.231418e-06	-1.124556e-08	-1.594710e+01	-7.379341e+02
2.670000e-06	-2.345439e-06	-1.191272e-08	-1.676197e+01	-7.814143e+02
2.680000e-06	-2.458305e-06	-1.253473e-08	-1.756858e+01	-8.218606e+02
2.690000e-06	-2.570160e-06	-1.311584e-08	-1.836796e+01	-8.594865e+02
2.700000e-06	-2.681035e-06	-1.365741e-08	-1.916034e+01	-8.945501e+02
2.710000e-06	-2.790904e-06	-1.416023e-08	-1.994554e+01	-9.273121e+02
2.720000e-06	-2.899855e-06	-1.462784e-08	-2.072417e+01	-9.580057e+02
2.730000e-06	-3.007912e-06	-1.506376e-08	-2.149641e+01	-9.868219e+02
2.740000e-06	-3.114969e-06	-1.547280e-08	-2.226150e+01	-1.013910e+03
2.750000e-06	-3.220984e-06	-1.586103e-08	-2.301915e+01	-1.039385e+03
2.760000e-06	-3.325982e-06	-1.622767e-08	-2.376954e+01	-1.063348e+03
2.770000e-06	-3.429716e-06	-1.657153e-08	-2.451088e+01	-1.085894e+03
2.780000e-06	-3.532102e-06	-1.689537e-08	-2.524259e+01	-1.107124e+03
2.790000e-06	-3.633275e-06	-1.720167e-08	-2.596565e+01	-1.127144e+03
2.800000e-06	-3.733136e-06	-1.749483e-08	-2.667931e+01	-1.146063e+03
2.810000e-06	-3.831709e-06	-1.777213e-08	-2.738378e+01	-1.163985e+03
2.820000e-06	-3.929086e-06	-1.803041e-08	-2.807969e+01	-1.180995e+03
2.830000e-06	-4.025144e-06	-1.827401e-08	-2.876618e+01	-1.197163e+03
2.840000e-06	-4.119755e-06	-1.850687e-08	-2.944233e+01	-1.212534e+03
2.850000e-06	-4.212897e-06	-1.873087e-08	-3.010798e+01	-1.227141e+03
2.860000e-06	-4.304495e-06	-1.894650e-08	-3.076260e+01	-1.241005e+03
2.870000e-06	-4.394499e-06	-1.915192e-08	-3.140583e+01	-1.254152e+03
2.880000e-06	-4.483011e-06	-1.934236e-08	-3.203838e+01	-1.266613e+03
2.890000e-06	-4.569801e-06	-1.952000e-08	-3.265864e+01	-1.278431e+03
2.900000e-06	-4.654876e-06	-1.968957e-08	-3.326664e+01	-1.289656e+03
2.910000e-06	-4.738400e-06	-1.985150e-08	-3.386355e+01	-1.300342e+03
2.920000e-06	-4.820284e-06	-2.000630e-08	-3.444875e+01	-1.310535e+03
2.930000e-06	-4.900447e-06	-2.015396e-08	-3.502164e+01	-1.320270e+03
2.940000e-06	-4.978606e-06	-2.029480e-08	-3.558021e+01	-1.329564e+03
