# Temperatura_=_80.2
# Concentracion g/m^3_=_28200.0
# C_Vs_to_Am_M_A/Vsm_=_65563218390.804596
# pendiente_HvsI_1/m_=_3716.3
# ordenada_HvsI_A/m_=_1297.0
# frecuencia_Hz_=_302114.6283652244

Tiempo_(s)	Campo_(V.s)	Magnetizacion_(V.s)	Campo_(kA/m)	Magnetizacion_(A/m)
0.000000e+00	-6.403704e-06	-2.398606e-08	-4.557587e+01	-1.571788e+03
1.000000e-08	-6.400609e-06	-2.398506e-08	-4.555384e+01	-1.571247e+03
2.000000e-08	-6.395412e-06	-2.397014e-08	-4.551685e+01	-1.570509e+03
3.000000e-08	-6.388298e-06	-2.395578e-08	-4.546622e+01	-1.569615e+03
4.000000e-08	-6.379025e-06	-2.394089e-08	-4.540022e+01	-1.568602e+03
5.000000e-08	-6.367416e-06	-2.392025e-08	-4.531761e+01	-1.567501e+03
6.000000e-08	-6.353543e-06	-2.390048e-08	-4.521887e+01	-1.566321e+03
7.000000e-08	-6.337224e-06	-2.386732e-08	-4.510272e+01	-1.565052e+03
8.000000e-08	-6.318768e-06	-2.383782e-08	-4.497137e+01	-1.563664e+03
9.000000e-08	-6.298294e-06	-2.390766e-08	-4.482566e+01	-1.562115e+03
1.000000e-07	-6.275401e-06	-2.388171e-08	-4.466272e+01	-1.560363e+03
1.100000e-07	-6.249834e-06	-2.377977e-08	-4.448076e+01	-1.558375e+03
1.200000e-07	-6.221895e-06	-2.375774e-08	-4.428191e+01	-1.556139e+03
1.300000e-07	-6.192145e-06	-2.373330e-08	-4.407018e+01	-1.553662e+03
1.400000e-07	-6.160792e-06	-2.356074e-08	-4.384704e+01	-1.550969e+03
1.500000e-07	-6.127688e-06	-2.360042e-08	-4.361143e+01	-1.548096e+03
1.600000e-07	-6.092472e-06	-2.372899e-08	-4.336080e+01	-1.545079e+03
1.700000e-07	-6.055348e-06	-2.345061e-08	-4.309658e+01	-1.541944e+03
1.800000e-07	-6.016260e-06	-2.355148e-08	-4.281839e+01	-1.538698e+03
1.900000e-07	-5.974699e-06	-2.353100e-08	-4.252259e+01	-1.535330e+03
2.000000e-07	-5.930903e-06	-2.329739e-08	-4.221089e+01	-1.531809e+03
2.100000e-07	-5.885101e-06	-2.339083e-08	-4.188491e+01	-1.528097e+03
2.200000e-07	-5.836945e-06	-2.325136e-08	-4.154218e+01	-1.524155e+03
2.300000e-07	-5.786283e-06	-2.315334e-08	-4.118161e+01	-1.519953e+03
2.400000e-07	-5.733150e-06	-2.312354e-08	-4.080346e+01	-1.515475e+03
2.500000e-07	-5.677855e-06	-2.301333e-08	-4.040992e+01	-1.510718e+03
2.600000e-07	-5.620430e-06	-2.298243e-08	-4.000122e+01	-1.505695e+03
2.700000e-07	-5.560775e-06	-2.288704e-08	-3.957665e+01	-1.500420e+03
2.800000e-07	-5.499187e-06	-2.280291e-08	-3.913832e+01	-1.494908e+03
2.900000e-07	-5.435697e-06	-2.269359e-08	-3.868646e+01	-1.489162e+03
3.000000e-07	-5.370043e-06	-2.258642e-08	-3.821919e+01	-1.483178e+03
3.100000e-07	-5.302228e-06	-2.253386e-08	-3.773654e+01	-1.476941e+03
3.200000e-07	-5.232433e-06	-2.242321e-08	-3.723980e+01	-1.470429e+03
3.300000e-07	-5.160866e-06	-2.235090e-08	-3.673045e+01	-1.463621e+03
3.400000e-07	-5.087464e-06	-2.219989e-08	-3.620804e+01	-1.456503e+03
3.500000e-07	-5.011915e-06	-2.207060e-08	-3.567035e+01	-1.449068e+03
3.600000e-07	-4.934156e-06	-2.197647e-08	-3.511693e+01	-1.441317e+03
3.700000e-07	-4.854315e-06	-2.183907e-08	-3.454870e+01	-1.433259e+03
3.800000e-07	-4.772658e-06	-2.174213e-08	-3.396753e+01	-1.424899e+03
3.900000e-07	-4.689471e-06	-2.159171e-08	-3.337549e+01	-1.416237e+03
4.000000e-07	-4.604843e-06	-2.144277e-08	-3.277317e+01	-1.407262e+03
4.100000e-07	-4.518825e-06	-2.129626e-08	-3.216098e+01	-1.397952e+03
4.200000e-07	-4.431416e-06	-2.115537e-08	-3.153888e+01	-1.388279e+03
4.300000e-07	-4.342444e-06	-2.100868e-08	-3.090565e+01	-1.378210e+03
4.400000e-07	-4.251862e-06	-2.083684e-08	-3.026097e+01	-1.367718e+03
4.500000e-07	-4.159703e-06	-2.068463e-08	-2.960507e+01	-1.356784e+03
4.600000e-07	-4.066034e-06	-2.050168e-08	-2.893841e+01	-1.345402e+03
4.700000e-07	-3.971025e-06	-2.032274e-08	-2.826222e+01	-1.333574e+03
4.800000e-07	-3.874610e-06	-2.013942e-08	-2.757603e+01	-1.321304e+03
4.900000e-07	-3.776718e-06	-1.994960e-08	-2.687932e+01	-1.308594e+03
5.000000e-07	-3.677345e-06	-1.973922e-08	-2.617207e+01	-1.295433e+03
5.100000e-07	-3.576584e-06	-1.952014e-08	-2.545494e+01	-1.281792e+03
5.200000e-07	-3.474603e-06	-1.930818e-08	-2.472913e+01	-1.267630e+03
5.300000e-07	-3.371476e-06	-1.908001e-08	-2.399517e+01	-1.252890e+03
5.400000e-07	-3.267054e-06	-1.884743e-08	-2.325198e+01	-1.237513e+03
5.500000e-07	-3.161316e-06	-1.859884e-08	-2.249944e+01	-1.221443e+03
5.600000e-07	-3.054349e-06	-1.834707e-08	-2.173814e+01	-1.204635e+03
5.700000e-07	-2.946128e-06	-1.807713e-08	-2.096792e+01	-1.187058e+03
5.800000e-07	-2.836830e-06	-1.779529e-08	-2.019003e+01	-1.168690e+03
5.900000e-07	-2.726624e-06	-1.750042e-08	-1.940569e+01	-1.149516e+03
6.000000e-07	-2.615586e-06	-1.719118e-08	-1.861541e+01	-1.129512e+03
6.100000e-07	-2.503524e-06	-1.686763e-08	-1.781786e+01	-1.108637e+03
6.200000e-07	-2.390244e-06	-1.653258e-08	-1.701163e+01	-1.086830e+03
6.300000e-07	-2.275954e-06	-1.618615e-08	-1.619822e+01	-1.064002e+03
6.400000e-07	-2.160774e-06	-1.582031e-08	-1.537847e+01	-1.040047e+03
6.500000e-07	-2.044603e-06	-1.543700e-08	-1.455166e+01	-1.014843e+03
6.600000e-07	-1.927642e-06	-1.502785e-08	-1.371924e+01	-9.882685e+02
6.700000e-07	-1.810018e-06	-1.459947e-08	-1.288210e+01	-9.602051e+02
6.800000e-07	-1.691876e-06	-1.414806e-08	-1.204127e+01	-9.305432e+02
6.900000e-07	-1.573265e-06	-1.367104e-08	-1.119710e+01	-8.991783e+02
7.000000e-07	-1.454150e-06	-1.316489e-08	-1.034935e+01	-8.660054e+02
7.100000e-07	-1.334523e-06	-1.262628e-08	-9.497950e+00	-8.309114e+02
7.200000e-07	-1.214327e-06	-1.205707e-08	-8.642500e+00	-7.937712e+02
7.300000e-07	-1.093649e-06	-1.145624e-08	-7.783622e+00	-7.544522e+02
7.400000e-07	-9.725399e-07	-1.082263e-08	-6.921674e+00	-7.128289e+02
7.500000e-07	-8.511325e-07	-1.015436e-08	-6.057604e+00	-6.688063e+02
7.600000e-07	-7.294657e-07	-9.451165e-09	-5.191688e+00	-6.223503e+02
7.700000e-07	-6.075231e-07	-8.703079e-09	-4.323809e+00	-5.735159e+02
7.800000e-07	-4.853945e-07	-7.918133e-09	-3.454606e+00	-5.224664e+02
7.900000e-07	-3.631526e-07	-7.106948e-09	-2.584597e+00	-4.694751e+02
8.000000e-07	-2.407682e-07	-6.274803e-09	-1.713573e+00	-4.149059e+02
8.100000e-07	-1.182665e-07	-5.426092e-09	-8.417158e-01	-3.591722e+02
8.200000e-07	4.316071e-09	-4.568412e-09	3.071795e-02	-3.026803e+02
8.300000e-07	1.269781e-07	-3.706651e-09	9.037175e-01	-2.457663e+02
8.400000e-07	2.496713e-07	-2.837896e-09	1.776938e+00	-1.886415e+02
8.500000e-07	3.722778e-07	-1.965370e-09	2.649542e+00	-1.313569e+02
8.600000e-07	4.948044e-07	-1.086550e-09	3.521578e+00	-7.379886e+01
8.700000e-07	6.172145e-07	-1.992870e-10	4.392784e+00	-1.571815e+01
8.800000e-07	7.393964e-07	7.001828e-10	5.262366e+00	4.320967e+01
8.900000e-07	8.614033e-07	1.613069e-09	6.130702e+00	1.033027e+02
9.000000e-07	9.831434e-07	2.545929e-09	6.997140e+00	1.647851e+02
9.100000e-07	1.104535e-06	3.503393e-09	7.861095e+00	2.277108e+02
9.200000e-07	1.225563e-06	4.480616e-09	8.722468e+00	2.919136e+02
9.300000e-07	1.346101e-06	5.471346e-09	9.580348e+00	3.569936e+02
9.400000e-07	1.466060e-06	6.465420e-09	1.043411e+01	4.223447e+02
9.500000e-07	1.585365e-06	7.452696e-09	1.128322e+01	4.872166e+02
9.600000e-07	1.704053e-06	8.421518e-09	1.212793e+01	5.508006e+02
9.700000e-07	1.822258e-06	9.356268e-09	1.296921e+01	6.123227e+02
9.800000e-07	1.939872e-06	1.024666e-08	1.380629e+01	6.711276e+02
9.900000e-07	2.056766e-06	1.108795e-08	1.463823e+01	7.267396e+02
1.000000e-06	2.172813e-06	1.187455e-08	1.546415e+01	7.788911e+02
1.010000e-06	2.287886e-06	1.260983e-08	1.628314e+01	8.275178e+02
1.020000e-06	2.401961e-06	1.329722e-08	1.709502e+01	8.727255e+02
1.030000e-06	2.514997e-06	1.393967e-08	1.789951e+01	9.147384e+02
1.040000e-06	2.626897e-06	1.453379e-08	1.869591e+01	9.538417e+02
1.050000e-06	2.737820e-06	1.508520e-08	1.948537e+01	9.903293e+02
1.060000e-06	2.847890e-06	1.560279e-08	2.026874e+01	1.024467e+03
1.070000e-06	2.956992e-06	1.608685e-08	2.104524e+01	1.056474e+03
1.080000e-06	3.065196e-06	1.654456e-08	2.181534e+01	1.086520e+03
1.090000e-06	3.172501e-06	1.697411e-08	2.257904e+01	1.114740e+03
1.100000e-06	3.278605e-06	1.737869e-08	2.333419e+01	1.141250e+03
1.110000e-06	3.383259e-06	1.775869e-08	2.407903e+01	1.166160e+03
1.120000e-06	3.486638e-06	1.811670e-08	2.481479e+01	1.189592e+03
1.130000e-06	3.588854e-06	1.845527e-08	2.554227e+01	1.211672e+03
1.140000e-06	3.689896e-06	1.877512e-08	2.626139e+01	1.232530e+03
1.150000e-06	3.789824e-06	1.907663e-08	2.697260e+01	1.252286e+03
1.160000e-06	3.888400e-06	1.936184e-08	2.767417e+01	1.271044e+03
1.170000e-06	3.985328e-06	1.963247e-08	2.836402e+01	1.288878e+03
1.180000e-06	4.080693e-06	1.988839e-08	2.904274e+01	1.305840e+03
1.190000e-06	4.174756e-06	2.013156e-08	2.971220e+01	1.321960e+03
1.200000e-06	4.267495e-06	2.036436e-08	3.037223e+01	1.337260e+03
1.210000e-06	4.358913e-06	2.058585e-08	3.102286e+01	1.351764e+03
1.220000e-06	4.448693e-06	2.079537e-08	3.166184e+01	1.365505e+03
1.230000e-06	4.536590e-06	2.099434e-08	3.228741e+01	1.378533e+03
1.240000e-06	4.622927e-06	2.118220e-08	3.290188e+01	1.390909e+03
1.250000e-06	4.707732e-06	2.136080e-08	3.350545e+01	1.402698e+03
1.260000e-06	4.791040e-06	2.153009e-08	3.409836e+01	1.413961e+03
1.270000e-06	4.872583e-06	2.169428e-08	3.467871e+01	1.424744e+03
1.280000e-06	4.952163e-06	2.185425e-08	3.524509e+01	1.435074e+03
1.290000e-06	5.029967e-06	2.200926e-08	3.579883e+01	1.444955e+03
1.300000e-06	5.105995e-06	2.215518e-08	3.633993e+01	1.454379e+03
1.310000e-06	5.179922e-06	2.229232e-08	3.686607e+01	1.463326e+03
1.320000e-06	5.251760e-06	2.242197e-08	3.737736e+01	1.471784e+03
1.330000e-06	5.321751e-06	2.254529e-08	3.787549e+01	1.479749e+03
1.340000e-06	5.389970e-06	2.266150e-08	3.836101e+01	1.487235e+03
1.350000e-06	5.456200e-06	2.276876e-08	3.883238e+01	1.494271e+03
1.360000e-06	5.520300e-06	2.286980e-08	3.928858e+01	1.500896e+03
1.370000e-06	5.582552e-06	2.296596e-08	3.973164e+01	1.507158e+03
1.380000e-06	5.643060e-06	2.305702e-08	4.016228e+01	1.513099e+03
1.390000e-06	5.701600e-06	2.314420e-08	4.057891e+01	1.518751e+03
1.400000e-06	5.758022e-06	2.322947e-08	4.098048e+01	1.524138e+03
1.410000e-06	5.812357e-06	2.330965e-08	4.136718e+01	1.529270e+03
1.420000e-06	5.864465e-06	2.338347e-08	4.173805e+01	1.534153e+03
1.430000e-06	5.914065e-06	2.345238e-08	4.209106e+01	1.538788e+03
1.440000e-06	5.961303e-06	2.351570e-08	4.242725e+01	1.543177e+03
1.450000e-06	6.006538e-06	2.357524e-08	4.274919e+01	1.547328e+03
1.460000e-06	6.049862e-06	2.363482e-08	4.305754e+01	1.551245e+03
1.470000e-06	6.090984e-06	2.369538e-08	4.335020e+01	1.554936e+03
1.480000e-06	6.129735e-06	2.375247e-08	4.362600e+01	1.558399e+03
1.490000e-06	6.166494e-06	2.380262e-08	4.388762e+01	1.561630e+03
1.500000e-06	6.201236e-06	2.384692e-08	4.413488e+01	1.564615e+03
1.510000e-06	6.233666e-06	2.388453e-08	4.436569e+01	1.567337e+03
1.520000e-06	6.263860e-06	2.391805e-08	4.458058e+01	1.569780e+03
1.530000e-06	6.292048e-06	2.394949e-08	4.478120e+01	1.571936e+03
1.540000e-06	6.317922e-06	2.397747e-08	4.496535e+01	1.573808e+03
1.550000e-06	6.341355e-06	2.400215e-08	4.513212e+01	1.575413e+03
1.560000e-06	6.362566e-06	2.402332e-08	4.528309e+01	1.576784e+03
1.570000e-06	6.381681e-06	2.404354e-08	4.541913e+01	1.577955e+03
1.580000e-06	6.398461e-06	2.406364e-08	4.553855e+01	1.578962e+03
1.590000e-06	6.412778e-06	2.407982e-08	4.564045e+01	1.579830e+03
1.600000e-06	6.424739e-06	2.409001e-08	4.572557e+01	1.580569e+03
1.610000e-06	6.434029e-06	2.409771e-08	4.579170e+01	1.581170e+03
1.620000e-06	6.440820e-06	2.410556e-08	4.584003e+01	1.581611e+03
1.630000e-06	6.445530e-06	2.410964e-08	4.587355e+01	1.581862e+03
1.640000e-06	6.448030e-06	2.410868e-08	4.589134e+01	1.581894e+03
1.650000e-06	6.448207e-06	2.410983e-08	4.589260e+01	1.581693e+03
1.660000e-06	6.446217e-06	2.409879e-08	4.587844e+01	1.581258e+03
1.670000e-06	6.442274e-06	2.408954e-08	4.585037e+01	1.580612e+03
1.680000e-06	6.436048e-06	2.408290e-08	4.580606e+01	1.579788e+03
1.690000e-06	6.427597e-06	2.407190e-08	4.574592e+01	1.578828e+03
1.700000e-06	6.417203e-06	2.406164e-08	4.567194e+01	1.577765e+03
1.710000e-06	6.404563e-06	2.404803e-08	4.558198e+01	1.576622e+03
1.720000e-06	6.389592e-06	2.404668e-08	4.547543e+01	1.575398e+03
1.730000e-06	6.372631e-06	2.402879e-08	4.535471e+01	1.574071e+03
1.740000e-06	6.353731e-06	2.387292e-08	4.522021e+01	1.572606e+03
1.750000e-06	6.331959e-06	2.386719e-08	4.506525e+01	1.570957e+03
1.760000e-06	6.306910e-06	2.391597e-08	4.488697e+01	1.569088e+03
1.770000e-06	6.279503e-06	2.384896e-08	4.469191e+01	1.566974e+03
1.780000e-06	6.250263e-06	2.390266e-08	4.448381e+01	1.564612e+03
1.790000e-06	6.219295e-06	2.396290e-08	4.426341e+01	1.562020e+03
1.800000e-06	6.187052e-06	2.369394e-08	4.403393e+01	1.559230e+03
1.810000e-06	6.152781e-06	2.373871e-08	4.379002e+01	1.556279e+03
1.820000e-06	6.116305e-06	2.364277e-08	4.353042e+01	1.553198e+03
1.830000e-06	6.077904e-06	2.341212e-08	4.325711e+01	1.550005e+03
1.840000e-06	6.037017e-06	2.371278e-08	4.296612e+01	1.546698e+03
1.850000e-06	5.994072e-06	2.350667e-08	4.266047e+01	1.543255e+03
1.860000e-06	5.949179e-06	2.341676e-08	4.234097e+01	1.539641e+03
1.870000e-06	5.902040e-06	2.350214e-08	4.200547e+01	1.535816e+03
1.880000e-06	5.852922e-06	2.325121e-08	4.165589e+01	1.531744e+03
1.890000e-06	5.801399e-06	2.337150e-08	4.128919e+01	1.527403e+03
1.900000e-06	5.747149e-06	2.322705e-08	4.090309e+01	1.522782e+03
1.910000e-06	5.690580e-06	2.308171e-08	4.050048e+01	1.517888e+03
1.920000e-06	5.631919e-06	2.315733e-08	4.008299e+01	1.512734e+03
1.930000e-06	5.571494e-06	2.293515e-08	3.965294e+01	1.507337e+03
1.940000e-06	5.508976e-06	2.298201e-08	3.920799e+01	1.501705e+03
1.950000e-06	5.444200e-06	2.280845e-08	3.874697e+01	1.495839e+03
1.960000e-06	5.377536e-06	2.271701e-08	3.827252e+01	1.489728e+03
1.970000e-06	5.308876e-06	2.266238e-08	3.778386e+01	1.483354e+03
1.980000e-06	5.238031e-06	2.245728e-08	3.727965e+01	1.476694e+03
1.990000e-06	5.165142e-06	2.247464e-08	3.676088e+01	1.469729e+03
2.000000e-06	5.090510e-06	2.229437e-08	3.622972e+01	1.462450e+03
2.010000e-06	5.013939e-06	2.222060e-08	3.568475e+01	1.454854e+03
2.020000e-06	4.935282e-06	2.208588e-08	3.512494e+01	1.446946e+03
2.030000e-06	4.854683e-06	2.191833e-08	3.455132e+01	1.438734e+03
2.040000e-06	4.772404e-06	2.185479e-08	3.396573e+01	1.430221e+03
2.050000e-06	4.688703e-06	2.167282e-08	3.337001e+01	1.421401e+03
2.060000e-06	4.603338e-06	2.157945e-08	3.276247e+01	1.412260e+03
2.070000e-06	4.516267e-06	2.140208e-08	3.214277e+01	1.402770e+03
2.080000e-06	4.427572e-06	2.126277e-08	3.151152e+01	1.392900e+03
2.090000e-06	4.337344e-06	2.110136e-08	3.086936e+01	1.382620e+03
2.100000e-06	4.245838e-06	2.092696e-08	3.021810e+01	1.371906e+03
2.110000e-06	4.152754e-06	2.078371e-08	2.955561e+01	1.360746e+03
2.120000e-06	4.058137e-06	2.058036e-08	2.888221e+01	1.349137e+03
2.130000e-06	3.962138e-06	2.040989e-08	2.819897e+01	1.337085e+03
2.140000e-06	3.864657e-06	2.020635e-08	2.750519e+01	1.324593e+03
2.150000e-06	3.765859e-06	2.002841e-08	2.680203e+01	1.311657e+03
2.160000e-06	3.665783e-06	1.982018e-08	2.608979e+01	1.298258e+03
2.170000e-06	3.564320e-06	1.961555e-08	2.536766e+01	1.284360e+03
2.180000e-06	3.461512e-06	1.939569e-08	2.463596e+01	1.269914e+03
2.190000e-06	3.357359e-06	1.915985e-08	2.389469e+01	1.254861e+03
2.200000e-06	3.251886e-06	1.892087e-08	2.314403e+01	1.239141e+03
2.210000e-06	3.145386e-06	1.866970e-08	2.238606e+01	1.222704e+03
2.220000e-06	3.037908e-06	1.841667e-08	2.162113e+01	1.205511e+03
2.230000e-06	2.929249e-06	1.813725e-08	2.084779e+01	1.187538e+03
2.240000e-06	2.819549e-06	1.785695e-08	2.006704e+01	1.168767e+03
2.250000e-06	2.708879e-06	1.756213e-08	1.927939e+01	1.149179e+03
2.260000e-06	2.597113e-06	1.725790e-08	1.848394e+01	1.128744e+03
2.270000e-06	2.484324e-06	1.692826e-08	1.768120e+01	1.107410e+03
2.280000e-06	2.370558e-06	1.658749e-08	1.687152e+01	1.085102e+03
2.290000e-06	2.255871e-06	1.622920e-08	1.605529e+01	1.061722e+03
2.300000e-06	2.140361e-06	1.585431e-08	1.523318e+01	1.037155e+03
2.310000e-06	2.023968e-06	1.546575e-08	1.440480e+01	1.011278e+03
2.320000e-06	1.906663e-06	1.505655e-08	1.356993e+01	9.839711e+02
2.330000e-06	1.788650e-06	1.461931e-08	1.273002e+01	9.551191e+02
2.340000e-06	1.670005e-06	1.414961e-08	1.188561e+01	9.246159e+02
2.350000e-06	1.550766e-06	1.365475e-08	1.103697e+01	8.923579e+02
2.360000e-06	1.430977e-06	1.313326e-08	1.018442e+01	8.582367e+02
2.370000e-06	1.310669e-06	1.258711e-08	9.328175e+00	8.221333e+02
2.380000e-06	1.189909e-06	1.200543e-08	8.468716e+00	7.839177e+02
2.390000e-06	1.068754e-06	1.138823e-08	7.606438e+00	7.434584e+02
2.400000e-06	9.473069e-07	1.073049e-08	6.742088e+00	7.006416e+02
2.410000e-06	8.255874e-07	1.003626e-08	5.875796e+00	6.553989e+02
2.420000e-06	7.035827e-07	9.312414e-09	5.007476e+00	6.077378e+02
2.430000e-06	5.814043e-07	8.554574e-09	4.137918e+00	5.577658e+02
2.440000e-06	4.590346e-07	7.764608e-09	3.267000e+00	5.057022e+02
2.450000e-06	3.365279e-07	6.946418e-09	2.395106e+00	4.518695e+02
2.460000e-06	2.139043e-07	6.103054e-09	1.522381e+00	3.966627e+02
2.470000e-06	9.111251e-08	5.240951e-09	6.484578e-01	3.404995e+02
2.480000e-06	-3.168133e-08	4.370653e-09	-2.254796e-01	2.837586e+02
2.490000e-06	-1.544600e-07	3.496528e-09	-1.099309e+00	2.267196e+02
2.500000e-06	-2.772529e-07	2.621214e-09	-1.973239e+00	1.695165e+02
2.510000e-06	-3.999274e-07	1.745873e-09	-2.846327e+00	1.121163e+02
2.520000e-06	-5.225017e-07	8.640467e-10	-3.718702e+00	5.433192e+01
2.530000e-06	-6.449373e-07	-2.801693e-11	-4.590090e+00	-4.132746e+00
2.540000e-06	-7.671239e-07	-9.346886e-10	-5.459706e+00	-6.360987e+01
2.550000e-06	-8.889961e-07	-1.863424e-09	-6.327084e+00	-1.243813e+02
2.560000e-06	-1.010537e-06	-2.811757e-09	-7.192101e+00	-1.865942e+02
2.570000e-06	-1.131757e-06	-3.781110e-09	-8.054842e+00	-2.501967e+02
2.580000e-06	-1.252623e-06	-4.769043e-09	-8.915053e+00	-3.149046e+02
2.590000e-06	-1.373161e-06	-5.768563e-09	-9.772938e+00	-3.802094e+02
2.600000e-06	-1.493136e-06	-6.771210e-09	-1.062681e+01	-4.454231e+02
2.610000e-06	-1.612460e-06	-7.759337e-09	-1.147606e+01	-5.097548e+02
2.620000e-06	-1.731155e-06	-8.720879e-09	-1.232082e+01	-5.724015e+02
2.630000e-06	-1.849073e-06	-9.641284e-09	-1.316006e+01	-6.326394e+02
2.640000e-06	-1.966116e-06	-1.051528e-08	-1.399306e+01	-6.898972e+02
2.650000e-06	-2.082211e-06	-1.133880e-08	-1.481932e+01	-7.438019e+02
2.660000e-06	-2.197428e-06	-1.210949e-08	-1.563934e+01	-7.941899e+02
2.670000e-06	-2.311770e-06	-1.283116e-08	-1.645312e+01	-8.410877e+02
2.680000e-06	-2.425111e-06	-1.350363e-08	-1.725979e+01	-8.846675e+02
2.690000e-06	-2.537326e-06	-1.412863e-08	-1.805843e+01	-9.251910e+02
2.700000e-06	-2.648413e-06	-1.470956e-08	-1.884905e+01	-9.629534e+02
2.710000e-06	-2.758428e-06	-1.525348e-08	-1.963204e+01	-9.982382e+02
2.720000e-06	-2.867556e-06	-1.575994e-08	-2.040871e+01	-1.031289e+03
2.730000e-06	-2.975851e-06	-1.623034e-08	-2.117946e+01	-1.062299e+03
2.740000e-06	-3.083202e-06	-1.667198e-08	-2.194349e+01	-1.091420e+03
2.750000e-06	-3.189574e-06	-1.708591e-08	-2.270055e+01	-1.118773e+03
2.760000e-06	-3.294866e-06	-1.747596e-08	-2.344993e+01	-1.144472e+03
2.770000e-06	-3.399016e-06	-1.784545e-08	-2.419117e+01	-1.168630e+03
2.780000e-06	-3.501827e-06	-1.819467e-08	-2.492289e+01	-1.191372e+03
2.790000e-06	-3.603180e-06	-1.852501e-08	-2.564423e+01	-1.212828e+03
2.800000e-06	-3.703269e-06	-1.883621e-08	-2.635657e+01	-1.233124e+03
2.810000e-06	-3.802204e-06	-1.913247e-08	-2.706071e+01	-1.252372e+03
2.820000e-06	-3.899875e-06	-1.941315e-08	-2.775584e+01	-1.270663e+03
2.830000e-06	-3.996262e-06	-1.967674e-08	-2.844184e+01	-1.288058e+03
2.840000e-06	-4.091263e-06	-1.992610e-08	-2.911797e+01	-1.304599e+03
2.850000e-06	-4.184617e-06	-2.016344e-08	-2.978238e+01	-1.320309e+03
2.860000e-06	-4.276497e-06	-2.039182e-08	-3.043630e+01	-1.335210e+03
2.870000e-06	-4.366915e-06	-2.061100e-08	-3.107981e+01	-1.349330e+03
2.880000e-06	-4.455718e-06	-2.081886e-08	-3.171184e+01	-1.362711e+03
2.890000e-06	-4.542910e-06	-2.101493e-08	-3.233239e+01	-1.375407e+03
2.900000e-06	-4.628271e-06	-2.120029e-08	-3.293992e+01	-1.387484e+03
2.910000e-06	-4.711940e-06	-2.137644e-08	-3.353540e+01	-1.399006e+03
2.920000e-06	-4.794118e-06	-2.154365e-08	-3.412026e+01	-1.410027e+03
2.930000e-06	-4.874738e-06	-2.170308e-08	-3.469404e+01	-1.420584e+03
2.940000e-06	-4.953404e-06	-2.185607e-08	-3.525392e+01	-1.430693e+03
