# Temperatura_=_78.41
# Concentracion g/m^3_=_28200.0
# C_Vs_to_Am_M_A/Vsm_=_65563218390.804596
# pendiente_HvsI_1/m_=_3716.3
# ordenada_HvsI_A/m_=_1297.0
# frecuencia_Hz_=_302118.4863794539

Tiempo_(s)	Campo_(V.s)	Magnetizacion_(V.s)	Campo_(kA/m)	Magnetizacion_(A/m)
0.000000e+00	-6.446475e-06	-2.385050e-08	-4.586170e+01	-1.561584e+03
1.000000e-08	-6.443520e-06	-2.385307e-08	-4.584068e+01	-1.561125e+03
2.000000e-08	-6.438397e-06	-2.384169e-08	-4.580423e+01	-1.560491e+03
3.000000e-08	-6.431361e-06	-2.382999e-08	-4.575417e+01	-1.559693e+03
4.000000e-08	-6.422235e-06	-2.381419e-08	-4.568925e+01	-1.558737e+03
5.000000e-08	-6.410664e-06	-2.379115e-08	-4.560693e+01	-1.557628e+03
6.000000e-08	-6.396788e-06	-2.377043e-08	-4.550821e+01	-1.556365e+03
7.000000e-08	-6.380632e-06	-2.373775e-08	-4.539327e+01	-1.554946e+03
8.000000e-08	-6.362315e-06	-2.370382e-08	-4.526296e+01	-1.553367e+03
9.000000e-08	-6.341950e-06	-2.379487e-08	-4.511808e+01	-1.551632e+03
1.000000e-07	-6.319173e-06	-2.375714e-08	-4.495604e+01	-1.549749e+03
1.100000e-07	-6.293597e-06	-2.363433e-08	-4.477409e+01	-1.547737e+03
1.200000e-07	-6.265555e-06	-2.361127e-08	-4.457459e+01	-1.545617e+03
1.300000e-07	-6.235674e-06	-2.359098e-08	-4.436201e+01	-1.543414e+03
1.400000e-07	-6.204289e-06	-2.340792e-08	-4.413873e+01	-1.541141e+03
1.500000e-07	-6.171059e-06	-2.346269e-08	-4.390233e+01	-1.538802e+03
1.600000e-07	-6.135680e-06	-2.359476e-08	-4.365063e+01	-1.536378e+03
1.700000e-07	-6.098536e-06	-2.327246e-08	-4.338638e+01	-1.533832e+03
1.800000e-07	-6.059491e-06	-2.339450e-08	-4.310861e+01	-1.531113e+03
1.900000e-07	-6.017837e-06	-2.336374e-08	-4.281227e+01	-1.528160e+03
2.000000e-07	-5.973905e-06	-2.315173e-08	-4.249973e+01	-1.524917e+03
2.100000e-07	-5.927986e-06	-2.329062e-08	-4.217305e+01	-1.521339e+03
2.200000e-07	-5.879637e-06	-2.314237e-08	-4.182908e+01	-1.517407e+03
2.300000e-07	-5.828819e-06	-2.305221e-08	-4.146756e+01	-1.513125e+03
2.400000e-07	-5.775514e-06	-2.299533e-08	-4.108833e+01	-1.508518e+03
2.500000e-07	-5.720163e-06	-2.286741e-08	-4.069455e+01	-1.503628e+03
2.600000e-07	-5.662657e-06	-2.285455e-08	-4.028544e+01	-1.498500e+03
2.700000e-07	-5.602790e-06	-2.275628e-08	-3.985953e+01	-1.493170e+03
2.800000e-07	-5.541008e-06	-2.269446e-08	-3.942000e+01	-1.487659e+03
2.900000e-07	-5.477333e-06	-2.258828e-08	-3.896700e+01	-1.481966e+03
3.000000e-07	-5.411466e-06	-2.246564e-08	-3.849841e+01	-1.476074e+03
3.100000e-07	-5.343463e-06	-2.239557e-08	-3.801462e+01	-1.469948e+03
3.200000e-07	-5.273539e-06	-2.228349e-08	-3.751716e+01	-1.463552e+03
3.300000e-07	-5.201793e-06	-2.223465e-08	-3.700674e+01	-1.456854e+03
3.400000e-07	-5.128115e-06	-2.208326e-08	-3.648258e+01	-1.449834e+03
3.500000e-07	-5.052341e-06	-2.196878e-08	-3.594351e+01	-1.442487e+03
3.600000e-07	-4.974415e-06	-2.186907e-08	-3.538913e+01	-1.434820e+03
3.700000e-07	-4.894358e-06	-2.172052e-08	-3.481958e+01	-1.426845e+03
3.800000e-07	-4.812546e-06	-2.163314e-08	-3.423755e+01	-1.418572e+03
3.900000e-07	-4.729256e-06	-2.148616e-08	-3.364501e+01	-1.410005e+03
4.000000e-07	-4.644466e-06	-2.134303e-08	-3.304180e+01	-1.401131e+03
4.100000e-07	-4.558155e-06	-2.119147e-08	-3.242775e+01	-1.391928e+03
4.200000e-07	-4.470557e-06	-2.105510e-08	-3.180457e+01	-1.382362e+03
4.300000e-07	-4.381438e-06	-2.090871e-08	-3.117055e+01	-1.372400e+03
4.400000e-07	-4.290588e-06	-2.073350e-08	-3.052423e+01	-1.362015e+03
4.500000e-07	-4.198114e-06	-2.058470e-08	-2.986635e+01	-1.351190e+03
4.600000e-07	-4.104099e-06	-2.040295e-08	-2.919750e+01	-1.339923e+03
4.700000e-07	-4.008828e-06	-2.022881e-08	-2.851972e+01	-1.328217e+03
4.800000e-07	-3.912154e-06	-2.004654e-08	-2.783196e+01	-1.316082e+03
4.900000e-07	-3.813933e-06	-1.986310e-08	-2.713320e+01	-1.303518e+03
5.000000e-07	-3.714298e-06	-1.965701e-08	-2.642437e+01	-1.290513e+03
5.100000e-07	-3.613316e-06	-1.943879e-08	-2.570596e+01	-1.277039e+03
5.200000e-07	-3.511090e-06	-1.922704e-08	-2.497870e+01	-1.263048e+03
5.300000e-07	-3.407729e-06	-1.900209e-08	-2.424337e+01	-1.248484e+03
5.400000e-07	-3.303009e-06	-1.877198e-08	-2.349836e+01	-1.233287e+03
5.500000e-07	-3.196887e-06	-1.852381e-08	-2.274339e+01	-1.217401e+03
5.600000e-07	-3.089590e-06	-1.827328e-08	-2.198005e+01	-1.200786e+03
5.700000e-07	-2.981107e-06	-1.800447e-08	-2.120828e+01	-1.183414e+03
5.800000e-07	-2.871535e-06	-1.773110e-08	-2.042876e+01	-1.165268e+03
5.900000e-07	-2.761045e-06	-1.744629e-08	-1.964270e+01	-1.146329e+03
6.000000e-07	-2.649679e-06	-1.714707e-08	-1.885042e+01	-1.126575e+03
6.100000e-07	-2.537177e-06	-1.682805e-08	-1.805006e+01	-1.105959e+03
6.200000e-07	-2.423514e-06	-1.649253e-08	-1.724144e+01	-1.084414e+03
6.300000e-07	-2.308857e-06	-1.614461e-08	-1.642574e+01	-1.061848e+03
6.400000e-07	-2.193222e-06	-1.577888e-08	-1.560309e+01	-1.038148e+03
6.500000e-07	-2.076624e-06	-1.540014e-08	-1.477358e+01	-1.013195e+03
6.600000e-07	-1.959285e-06	-1.499782e-08	-1.393880e+01	-9.868676e+02
6.700000e-07	-1.841366e-06	-1.457453e-08	-1.309990e+01	-9.590551e+02
6.800000e-07	-1.722889e-06	-1.412580e-08	-1.225703e+01	-9.296550e+02
6.900000e-07	-1.603952e-06	-1.365191e-08	-1.141088e+01	-8.985707e+02
7.000000e-07	-1.484548e-06	-1.314972e-08	-1.056141e+01	-8.657038e+02
7.100000e-07	-1.364587e-06	-1.261737e-08	-9.707982e+00	-8.309448e+02
7.200000e-07	-1.243977e-06	-1.205546e-08	-8.849937e+00	-7.941691e+02
7.300000e-07	-1.122827e-06	-1.146146e-08	-7.988045e+00	-7.552417e+02
7.400000e-07	-1.001193e-06	-1.083208e-08	-7.122713e+00	-7.140323e+02
7.500000e-07	-8.791968e-07	-1.016704e-08	-6.254807e+00	-6.704405e+02
7.600000e-07	-7.569952e-07	-9.468444e-09	-5.385437e+00	-6.244271e+02
7.700000e-07	-6.345569e-07	-8.725742e-09	-4.514383e+00	-5.760429e+02
7.800000e-07	-5.119649e-07	-7.949687e-09	-3.642236e+00	-5.254485e+02
7.900000e-07	-3.893028e-07	-7.149608e-09	-2.769589e+00	-4.729158e+02
8.000000e-07	-2.665307e-07	-6.327678e-09	-1.896160e+00	-4.188078e+02
8.100000e-07	-1.435798e-07	-5.487302e-09	-1.021460e+00	-3.635374e+02
8.200000e-07	-2.052315e-08	-4.635967e-09	-1.460064e-01	-3.075099e+02
8.300000e-07	1.025235e-07	-3.778977e-09	7.293758e-01	-2.510608e+02
8.400000e-07	2.255785e-07	-2.914079e-09	1.604817e+00	-1.944011e+02
8.500000e-07	3.485891e-07	-2.048918e-09	2.479943e+00	-1.375829e+02
8.600000e-07	4.714560e-07	-1.179399e-09	3.354046e+00	-8.049502e+01
8.700000e-07	5.941699e-07	-3.013616e-10	4.227060e+00	-2.289239e+01
8.800000e-07	7.167632e-07	5.899297e-10	5.099218e+00	3.554430e+01
8.900000e-07	8.391998e-07	1.495449e-09	5.970259e+00	9.512846e+01
9.000000e-07	9.614703e-07	2.419971e-09	6.840120e+00	1.560817e+02
9.100000e-07	1.083498e-06	3.368774e-09	7.708256e+00	2.184592e+02
9.200000e-07	1.205125e-06	4.337940e-09	8.573535e+00	2.821003e+02
9.300000e-07	1.326197e-06	5.320755e-09	9.434870e+00	3.466157e+02
9.400000e-07	1.446569e-06	6.307968e-09	1.029122e+01	4.114135e+02
9.500000e-07	1.566256e-06	7.288399e-09	1.114270e+01	4.757586e+02
9.600000e-07	1.685356e-06	8.247749e-09	1.199001e+01	5.388563e+02
9.700000e-07	1.803904e-06	9.172161e-09	1.283339e+01	5.999422e+02
9.800000e-07	1.921882e-06	1.005614e-08	1.367271e+01	6.583647e+02
9.900000e-07	2.039158e-06	1.089565e-08	1.450703e+01	7.136444e+02
1.000000e-06	2.155618e-06	1.167960e-08	1.533556e+01	7.655040e+02
1.010000e-06	2.271171e-06	1.240857e-08	1.615763e+01	8.138655e+02
1.020000e-06	2.385777e-06	1.309020e-08	1.697297e+01	8.588200e+02
1.030000e-06	2.499391e-06	1.372838e-08	1.778124e+01	9.005790e+02
1.040000e-06	2.611840e-06	1.432262e-08	1.858123e+01	9.394196e+02
1.050000e-06	2.723185e-06	1.487204e-08	1.937336e+01	9.756338e+02
1.060000e-06	2.833602e-06	1.538455e-08	2.015890e+01	1.009491e+03
1.070000e-06	2.943121e-06	1.585976e-08	2.093804e+01	1.041219e+03
1.080000e-06	3.051707e-06	1.630835e-08	2.171054e+01	1.070997e+03
1.090000e-06	3.159236e-06	1.673244e-08	2.247553e+01	1.098968e+03
1.100000e-06	3.265685e-06	1.713393e-08	2.323283e+01	1.125254e+03
1.110000e-06	3.370970e-06	1.751107e-08	2.398186e+01	1.149966e+03
1.120000e-06	3.474795e-06	1.786687e-08	2.472049e+01	1.173220e+03
1.130000e-06	3.577320e-06	1.820207e-08	2.544987e+01	1.195137e+03
1.140000e-06	3.678764e-06	1.851764e-08	2.617157e+01	1.215837e+03
1.150000e-06	3.778941e-06	1.881658e-08	2.688425e+01	1.235436e+03
1.160000e-06	3.877830e-06	1.909834e-08	2.758777e+01	1.254030e+03
1.170000e-06	3.975258e-06	1.936640e-08	2.828090e+01	1.271697e+03
1.180000e-06	4.071024e-06	1.961868e-08	2.896219e+01	1.288489e+03
1.190000e-06	4.165359e-06	1.985861e-08	2.963332e+01	1.304444e+03
1.200000e-06	4.258447e-06	2.008796e-08	3.029557e+01	1.319590e+03
1.210000e-06	4.350131e-06	2.030656e-08	3.094783e+01	1.333953e+03
1.220000e-06	4.440298e-06	2.051283e-08	3.158930e+01	1.347572e+03
1.230000e-06	4.528692e-06	2.070873e-08	3.221815e+01	1.360492e+03
1.240000e-06	4.615294e-06	2.089184e-08	3.283426e+01	1.372771e+03
1.250000e-06	4.700437e-06	2.106899e-08	3.343998e+01	1.384469e+03
1.260000e-06	4.784128e-06	2.123944e-08	3.403539e+01	1.395641e+03
1.270000e-06	4.866138e-06	2.140314e-08	3.461882e+01	1.406329e+03
1.280000e-06	4.946213e-06	2.155987e-08	3.518849e+01	1.416558e+03
1.290000e-06	5.024395e-06	2.171211e-08	3.574470e+01	1.426333e+03
1.300000e-06	5.100672e-06	2.185669e-08	3.628735e+01	1.435646e+03
1.310000e-06	5.174964e-06	2.199140e-08	3.681588e+01	1.444484e+03
1.320000e-06	5.247182e-06	2.211800e-08	3.732966e+01	1.452834e+03
1.330000e-06	5.317366e-06	2.223807e-08	3.782896e+01	1.460696e+03
1.340000e-06	5.385769e-06	2.235286e-08	3.831559e+01	1.468084e+03
1.350000e-06	5.452339e-06	2.245925e-08	3.878919e+01	1.475027e+03
1.360000e-06	5.516772e-06	2.255778e-08	3.924758e+01	1.481565e+03
1.370000e-06	5.579186e-06	2.265144e-08	3.969161e+01	1.487745e+03
1.380000e-06	5.639848e-06	2.274198e-08	4.012317e+01	1.493612e+03
1.390000e-06	5.698715e-06	2.282905e-08	4.054196e+01	1.499200e+03
1.400000e-06	5.755416e-06	2.291262e-08	4.094534e+01	1.504535e+03
1.410000e-06	5.809907e-06	2.299159e-08	4.133301e+01	1.509629e+03
1.420000e-06	5.862295e-06	2.306568e-08	4.170571e+01	1.514487e+03
1.430000e-06	5.912195e-06	2.313421e-08	4.206071e+01	1.519106e+03
1.440000e-06	5.959784e-06	2.319856e-08	4.239927e+01	1.523483e+03
1.450000e-06	6.005357e-06	2.325830e-08	4.272348e+01	1.527617e+03
1.460000e-06	6.049004e-06	2.331547e-08	4.303400e+01	1.531509e+03
1.470000e-06	6.090406e-06	2.337256e-08	4.332854e+01	1.535162e+03
1.480000e-06	6.129392e-06	2.342848e-08	4.360589e+01	1.538577e+03
1.490000e-06	6.166371e-06	2.347946e-08	4.386897e+01	1.541756e+03
1.500000e-06	6.201315e-06	2.352395e-08	4.411757e+01	1.544694e+03
1.510000e-06	6.233963e-06	2.356388e-08	4.434984e+01	1.547386e+03
1.520000e-06	6.264342e-06	2.359847e-08	4.456597e+01	1.549826e+03
1.530000e-06	6.292691e-06	2.362790e-08	4.476764e+01	1.552009e+03
1.540000e-06	6.318741e-06	2.365468e-08	4.495297e+01	1.553937e+03
1.550000e-06	6.342353e-06	2.367990e-08	4.512095e+01	1.555616e+03
1.560000e-06	6.363706e-06	2.370126e-08	4.527286e+01	1.557061e+03
1.570000e-06	6.383035e-06	2.372059e-08	4.541037e+01	1.558292e+03
1.580000e-06	6.400092e-06	2.373947e-08	4.553172e+01	1.559327e+03
1.590000e-06	6.414591e-06	2.375437e-08	4.563487e+01	1.560183e+03
1.600000e-06	6.426730e-06	2.376389e-08	4.572123e+01	1.560871e+03
1.610000e-06	6.436214e-06	2.377252e-08	4.578870e+01	1.561394e+03
1.620000e-06	6.443152e-06	2.378032e-08	4.583806e+01	1.561750e+03
1.630000e-06	6.447997e-06	2.378393e-08	4.587253e+01	1.561931e+03
1.640000e-06	6.450594e-06	2.378423e-08	4.589100e+01	1.561931e+03
1.650000e-06	6.450819e-06	2.378732e-08	4.589260e+01	1.561745e+03
1.660000e-06	6.448823e-06	2.377343e-08	4.587840e+01	1.561376e+03
1.670000e-06	6.444891e-06	2.376210e-08	4.585043e+01	1.560829e+03
1.680000e-06	6.438733e-06	2.375411e-08	4.580662e+01	1.560112e+03
1.690000e-06	6.430315e-06	2.374350e-08	4.574673e+01	1.559235e+03
1.700000e-06	6.419979e-06	2.373413e-08	4.567320e+01	1.558202e+03
1.710000e-06	6.407525e-06	2.372276e-08	4.558460e+01	1.557016e+03
1.720000e-06	6.392720e-06	2.372509e-08	4.547928e+01	1.555675e+03
1.730000e-06	6.375802e-06	2.370713e-08	4.535892e+01	1.554176e+03
1.740000e-06	6.356969e-06	2.352560e-08	4.522493e+01	1.552519e+03
1.750000e-06	6.335289e-06	2.353129e-08	4.507069e+01	1.550708e+03
1.760000e-06	6.310256e-06	2.358736e-08	4.489261e+01	1.548758e+03
1.770000e-06	6.282852e-06	2.350665e-08	4.469765e+01	1.546689e+03
1.780000e-06	6.253583e-06	2.358745e-08	4.448942e+01	1.544525e+03
1.790000e-06	6.222556e-06	2.363689e-08	4.426869e+01	1.542285e+03
1.800000e-06	6.190230e-06	2.332157e-08	4.403872e+01	1.539980e+03
1.810000e-06	6.155904e-06	2.348377e-08	4.379451e+01	1.537602e+03
1.820000e-06	6.119472e-06	2.346332e-08	4.353533e+01	1.535123e+03
1.830000e-06	6.081105e-06	2.320836e-08	4.326237e+01	1.532498e+03
1.840000e-06	6.040216e-06	2.350925e-08	4.297148e+01	1.529670e+03
1.850000e-06	5.997220e-06	2.322487e-08	4.266559e+01	1.526578e+03
1.860000e-06	5.952307e-06	2.317087e-08	4.234607e+01	1.523172e+03
1.870000e-06	5.905109e-06	2.326605e-08	4.201030e+01	1.519418e+03
1.880000e-06	5.855883e-06	2.299379e-08	4.166009e+01	1.515309e+03
1.890000e-06	5.804211e-06	2.317258e-08	4.129249e+01	1.510860e+03
1.900000e-06	5.749731e-06	2.298522e-08	4.090490e+01	1.506106e+03
1.910000e-06	5.693048e-06	2.285556e-08	4.050165e+01	1.501091e+03
1.920000e-06	5.634347e-06	2.291359e-08	4.008404e+01	1.495858e+03
1.930000e-06	5.573831e-06	2.264793e-08	3.965351e+01	1.490436e+03
1.940000e-06	5.511208e-06	2.274815e-08	3.920799e+01	1.484836e+03
1.950000e-06	5.446362e-06	2.255539e-08	3.874667e+01	1.479047e+03
1.960000e-06	5.379564e-06	2.250682e-08	3.827145e+01	1.473042e+03
1.970000e-06	5.310742e-06	2.242639e-08	3.778183e+01	1.466786e+03
1.980000e-06	5.239802e-06	2.221422e-08	3.727715e+01	1.460242e+03
1.990000e-06	5.166748e-06	2.225352e-08	3.675742e+01	1.453385e+03
2.000000e-06	5.091978e-06	2.203391e-08	3.622550e+01	1.446201e+03
2.010000e-06	5.015184e-06	2.199850e-08	3.567917e+01	1.438693e+03
2.020000e-06	4.936178e-06	2.184342e-08	3.511710e+01	1.430870e+03
2.030000e-06	4.855428e-06	2.169587e-08	3.454263e+01	1.422745e+03
2.040000e-06	4.773003e-06	2.163108e-08	3.395624e+01	1.414326e+03
2.050000e-06	4.689078e-06	2.143700e-08	3.335917e+01	1.405608e+03
2.060000e-06	4.603495e-06	2.136014e-08	3.275032e+01	1.396573e+03
2.070000e-06	4.516130e-06	2.116756e-08	3.212878e+01	1.387192e+03
2.080000e-06	4.427190e-06	2.105121e-08	3.149604e+01	1.377432e+03
2.090000e-06	4.336760e-06	2.087608e-08	3.085270e+01	1.367262e+03
2.100000e-06	4.244989e-06	2.071319e-08	3.019983e+01	1.356658e+03
2.110000e-06	4.151693e-06	2.057086e-08	2.953610e+01	1.345612e+03
2.120000e-06	4.056833e-06	2.036877e-08	2.886124e+01	1.334124e+03
2.130000e-06	3.960546e-06	2.020041e-08	2.817623e+01	1.322203e+03
2.140000e-06	3.862811e-06	1.999005e-08	2.748092e+01	1.309854e+03
2.150000e-06	3.763799e-06	1.982437e-08	2.677653e+01	1.297072e+03
2.160000e-06	3.663555e-06	1.961277e-08	2.606337e+01	1.283837e+03
2.170000e-06	3.561778e-06	1.941505e-08	2.533930e+01	1.270112e+03
2.180000e-06	3.458579e-06	1.919156e-08	2.460512e+01	1.255842e+03
2.190000e-06	3.354117e-06	1.896544e-08	2.386196e+01	1.240968e+03
2.200000e-06	3.248403e-06	1.872767e-08	2.310988e+01	1.225433e+03
2.210000e-06	3.141642e-06	1.848040e-08	2.235036e+01	1.209187e+03
2.220000e-06	3.033906e-06	1.822938e-08	2.158390e+01	1.192196e+03
2.230000e-06	2.925100e-06	1.795165e-08	2.080983e+01	1.174439e+03
2.240000e-06	2.815086e-06	1.767352e-08	2.002716e+01	1.155899e+03
2.250000e-06	2.703950e-06	1.737614e-08	1.923652e+01	1.136556e+03
2.260000e-06	2.591742e-06	1.707764e-08	1.843825e+01	1.116378e+03
2.270000e-06	2.478514e-06	1.675349e-08	1.763272e+01	1.095308e+03
2.280000e-06	2.364374e-06	1.642058e-08	1.682070e+01	1.073265e+03
2.290000e-06	2.249347e-06	1.606294e-08	1.600237e+01	1.050147e+03
2.300000e-06	2.133415e-06	1.569033e-08	1.517760e+01	1.025836e+03
2.310000e-06	2.016557e-06	1.530113e-08	1.434625e+01	1.000210e+03
2.320000e-06	1.898768e-06	1.489667e-08	1.350827e+01	9.731537e+02
2.330000e-06	1.780235e-06	1.446775e-08	1.266500e+01	9.445596e+02
2.340000e-06	1.661201e-06	1.400743e-08	1.181816e+01	9.143293e+02
2.350000e-06	1.541601e-06	1.351843e-08	1.096730e+01	8.823666e+02
2.360000e-06	1.421368e-06	1.299816e-08	1.011194e+01	8.485682e+02
2.370000e-06	1.300608e-06	1.245276e-08	9.252826e+00	8.128173e+02
2.380000e-06	1.179506e-06	1.187325e-08	8.391277e+00	7.749829e+02
2.390000e-06	1.058053e-06	1.126574e-08	7.527231e+00	7.349296e+02
2.400000e-06	9.362013e-07	1.061999e-08	6.660351e+00	6.925385e+02
2.410000e-06	8.140938e-07	9.937126e-09	5.791649e+00	6.477357e+02
2.420000e-06	6.917470e-07	9.219259e-09	4.921246e+00	6.005240e+02
2.430000e-06	5.691441e-07	8.465431e-09	4.049022e+00	5.510075e+02
2.440000e-06	4.463361e-07	7.679522e-09	3.175337e+00	4.994035e+02
2.450000e-06	3.234389e-07	6.864788e-09	2.301018e+00	4.460335e+02
2.460000e-06	2.004981e-07	6.028596e-09	1.426390e+00	3.912917e+02
2.470000e-06	7.748892e-08	5.176759e-09	5.512739e-01	3.355950e+02
2.480000e-06	-4.556330e-08	4.317873e-09	-3.241478e-01	2.793214e+02
2.490000e-06	-1.685979e-07	3.451675e-09	-1.199444e+00	2.227501e+02
2.500000e-06	-2.915958e-07	2.579780e-09	-2.074479e+00	1.660151e+02
2.510000e-06	-4.145725e-07	1.709390e-09	-2.949364e+00	1.090854e+02
2.520000e-06	-5.374450e-07	8.339233e-10	-3.823507e+00	5.177714e+01
2.530000e-06	-6.602044e-07	-5.178998e-11	-4.696845e+00	-6.200955e+00
2.540000e-06	-7.828046e-07	-9.513265e-10	-5.569051e+00	-6.517597e+01
2.550000e-06	-9.051853e-07	-1.871547e-09	-6.439696e+00	-1.254259e+02
2.560000e-06	-1.027230e-06	-2.811309e-09	-7.307950e+00	-1.870971e+02
2.570000e-06	-1.148876e-06	-3.772432e-09	-8.173368e+00	-2.501409e+02
2.580000e-06	-1.270104e-06	-4.751049e-09	-9.035808e+00	-3.142815e+02
2.590000e-06	-1.390871e-06	-5.741499e-09	-9.894975e+00	-3.790228e+02
2.600000e-06	-1.511134e-06	-6.737160e-09	-1.075055e+01	-4.436920e+02
2.610000e-06	-1.630812e-06	-7.719086e-09	-1.160197e+01	-5.075129e+02
2.620000e-06	-1.749852e-06	-8.673896e-09	-1.244885e+01	-5.696949e+02
2.630000e-06	-1.868256e-06	-9.589186e-09	-1.329120e+01	-6.295209e+02
2.640000e-06	-1.985904e-06	-1.045965e-08	-1.412818e+01	-6.864196e+02
2.650000e-06	-2.102525e-06	-1.127923e-08	-1.495784e+01	-7.400110e+02
2.660000e-06	-2.218168e-06	-1.204245e-08	-1.578056e+01	-7.901198e+02
2.670000e-06	-2.332906e-06	-1.275568e-08	-1.659683e+01	-8.367576e+02
2.680000e-06	-2.446735e-06	-1.342376e-08	-1.740663e+01	-8.800825e+02
2.690000e-06	-2.559574e-06	-1.404583e-08	-1.820940e+01	-9.203457e+02
2.700000e-06	-2.671246e-06	-1.462539e-08	-1.900386e+01	-9.578373e+02
2.710000e-06	-2.781674e-06	-1.516607e-08	-1.978947e+01	-9.928419e+02
2.720000e-06	-2.891161e-06	-1.566831e-08	-2.056838e+01	-1.025609e+03
2.730000e-06	-2.999815e-06	-1.613609e-08	-2.134137e+01	-1.056342e+03
2.740000e-06	-3.107485e-06	-1.657437e-08	-2.210736e+01	-1.085200e+03
2.750000e-06	-3.214216e-06	-1.698812e-08	-2.286667e+01	-1.112315e+03
2.760000e-06	-3.319899e-06	-1.737850e-08	-2.361852e+01	-1.137799e+03
2.770000e-06	-3.424385e-06	-1.774674e-08	-2.436186e+01	-1.161768e+03
2.780000e-06	-3.527621e-06	-1.809150e-08	-2.509631e+01	-1.184338e+03
2.790000e-06	-3.629566e-06	-1.841575e-08	-2.582157e+01	-1.205632e+03
2.800000e-06	-3.730012e-06	-1.872385e-08	-2.653616e+01	-1.225768e+03
2.810000e-06	-3.829157e-06	-1.901786e-08	-2.724150e+01	-1.244853e+03
2.820000e-06	-3.927160e-06	-1.929862e-08	-2.793871e+01	-1.262975e+03
2.830000e-06	-4.023860e-06	-1.956124e-08	-2.862666e+01	-1.280199e+03
2.840000e-06	-4.119216e-06	-1.980868e-08	-2.930505e+01	-1.296569e+03
2.850000e-06	-4.212986e-06	-2.004563e-08	-2.997215e+01	-1.312116e+03
2.860000e-06	-4.305168e-06	-2.027363e-08	-3.062795e+01	-1.326867e+03
2.870000e-06	-4.395935e-06	-2.049214e-08	-3.127369e+01	-1.340853e+03
2.880000e-06	-4.485120e-06	-2.069797e-08	-3.190817e+01	-1.354116e+03
2.890000e-06	-4.572661e-06	-2.089128e-08	-3.253096e+01	-1.366708e+03
2.900000e-06	-4.658514e-06	-2.107401e-08	-3.314173e+01	-1.378689e+03
2.910000e-06	-4.742610e-06	-2.124865e-08	-3.374002e+01	-1.390118e+03
2.920000e-06	-4.825103e-06	-2.141607e-08	-3.432689e+01	-1.401044e+03
2.930000e-06	-4.905988e-06	-2.157561e-08	-3.490232e+01	-1.411500e+03
2.940000e-06	-4.985103e-06	-2.172778e-08	-3.546516e+01	-1.421502e+03
