# Temperatura_=_61.0
# Concentracion g/m^3_=_28200.0
# C_Vs_to_Am_M_A/Vsm_=_65563218390.804596
# pendiente_HvsI_1/m_=_3716.3
# ordenada_HvsI_A/m_=_1297.0
# frecuencia_Hz_=_302119.8417569222

Tiempo_(s)	Campo_(V.s)	Magnetizacion_(V.s)	Campo_(kA/m)	Magnetizacion_(A/m)
0.000000e+00	-6.434372e-06	-2.131795e-08	-4.585741e+01	-1.393788e+03
1.000000e-08	-6.431160e-06	-2.131695e-08	-4.583452e+01	-1.393354e+03
2.000000e-08	-6.425894e-06	-2.130449e-08	-4.579699e+01	-1.392829e+03
3.000000e-08	-6.418669e-06	-2.129434e-08	-4.574550e+01	-1.392218e+03
4.000000e-08	-6.409234e-06	-2.128300e-08	-4.567825e+01	-1.391499e+03
5.000000e-08	-6.397366e-06	-2.126405e-08	-4.559367e+01	-1.390635e+03
6.000000e-08	-6.383264e-06	-2.124332e-08	-4.549316e+01	-1.389579e+03
7.000000e-08	-6.366833e-06	-2.120934e-08	-4.537607e+01	-1.388287e+03
8.000000e-08	-6.348172e-06	-2.118152e-08	-4.524307e+01	-1.386740e+03
9.000000e-08	-6.327476e-06	-2.127472e-08	-4.509557e+01	-1.384949e+03
1.000000e-07	-6.304408e-06	-2.122244e-08	-4.493116e+01	-1.382964e+03
1.100000e-07	-6.278612e-06	-2.110703e-08	-4.474732e+01	-1.380872e+03
1.200000e-07	-6.250432e-06	-2.110338e-08	-4.454648e+01	-1.378778e+03
1.300000e-07	-6.220418e-06	-2.108012e-08	-4.433257e+01	-1.376789e+03
1.400000e-07	-6.188886e-06	-2.090637e-08	-4.410784e+01	-1.374984e+03
1.500000e-07	-6.155574e-06	-2.102168e-08	-4.387043e+01	-1.373396e+03
1.600000e-07	-6.120144e-06	-2.109844e-08	-4.361792e+01	-1.371997e+03
1.700000e-07	-6.082879e-06	-2.079022e-08	-4.335234e+01	-1.370700e+03
1.800000e-07	-6.043576e-06	-2.095808e-08	-4.307223e+01	-1.369371e+03
1.900000e-07	-6.001722e-06	-2.087079e-08	-4.277394e+01	-1.367851e+03
2.000000e-07	-5.957687e-06	-2.069946e-08	-4.246011e+01	-1.365987e+03
2.100000e-07	-5.911670e-06	-2.083987e-08	-4.213214e+01	-1.363657e+03
2.200000e-07	-5.863313e-06	-2.070552e-08	-4.178750e+01	-1.360794e+03
2.300000e-07	-5.812443e-06	-2.066972e-08	-4.142496e+01	-1.357395e+03
2.400000e-07	-5.758983e-06	-2.061293e-08	-4.104395e+01	-1.353514e+03
2.500000e-07	-5.703431e-06	-2.049333e-08	-4.064803e+01	-1.349245e+03
2.600000e-07	-5.645684e-06	-2.048369e-08	-4.023648e+01	-1.344700e+03
2.700000e-07	-5.585738e-06	-2.038342e-08	-3.980924e+01	-1.339978e+03
2.800000e-07	-5.523944e-06	-2.034708e-08	-3.936884e+01	-1.335150e+03
2.900000e-07	-5.460160e-06	-2.026291e-08	-3.891425e+01	-1.330241e+03
3.000000e-07	-5.394224e-06	-2.016276e-08	-3.844433e+01	-1.325232e+03
3.100000e-07	-5.326197e-06	-2.008425e-08	-3.795951e+01	-1.320073e+03
3.200000e-07	-5.256170e-06	-1.998778e-08	-3.746043e+01	-1.314696e+03
3.300000e-07	-5.184353e-06	-1.995414e-08	-3.694860e+01	-1.309040e+03
3.400000e-07	-5.110596e-06	-1.981433e-08	-3.642293e+01	-1.303061e+03
3.500000e-07	-5.034683e-06	-1.973188e-08	-3.588191e+01	-1.296744e+03
3.600000e-07	-4.956781e-06	-1.964088e-08	-3.532670e+01	-1.290103e+03
3.700000e-07	-4.876739e-06	-1.950630e-08	-3.475625e+01	-1.283167e+03
3.800000e-07	-4.794848e-06	-1.943167e-08	-3.417262e+01	-1.275971e+03
3.900000e-07	-4.711465e-06	-1.931154e-08	-3.357835e+01	-1.268538e+03
4.000000e-07	-4.626632e-06	-1.919034e-08	-3.297375e+01	-1.260872e+03
4.100000e-07	-4.540339e-06	-1.905541e-08	-3.235874e+01	-1.252949e+03
4.200000e-07	-4.452649e-06	-1.894039e-08	-3.173378e+01	-1.244728e+03
4.300000e-07	-4.363484e-06	-1.881357e-08	-3.109831e+01	-1.236158e+03
4.400000e-07	-4.272617e-06	-1.866290e-08	-3.045070e+01	-1.227187e+03
4.500000e-07	-4.180158e-06	-1.853458e-08	-2.979175e+01	-1.217780e+03
4.600000e-07	-4.086218e-06	-1.837224e-08	-2.912224e+01	-1.207922e+03
4.700000e-07	-3.990855e-06	-1.821448e-08	-2.844260e+01	-1.197615e+03
4.800000e-07	-3.894148e-06	-1.805035e-08	-2.775337e+01	-1.186877e+03
4.900000e-07	-3.795961e-06	-1.789587e-08	-2.705360e+01	-1.175726e+03
5.000000e-07	-3.696290e-06	-1.772337e-08	-2.634325e+01	-1.164170e+03
5.100000e-07	-3.595332e-06	-1.753189e-08	-2.562373e+01	-1.152198e+03
5.200000e-07	-3.493129e-06	-1.734098e-08	-2.489533e+01	-1.139776e+03
5.300000e-07	-3.389766e-06	-1.713617e-08	-2.415867e+01	-1.126852e+03
5.400000e-07	-3.285198e-06	-1.693136e-08	-2.341342e+01	-1.113360e+03
5.500000e-07	-3.179249e-06	-1.671099e-08	-2.265833e+01	-1.099236e+03
5.600000e-07	-3.071978e-06	-1.648947e-08	-2.189382e+01	-1.084425e+03
5.700000e-07	-2.963543e-06	-1.624753e-08	-2.112100e+01	-1.068887e+03
5.800000e-07	-2.854080e-06	-1.599502e-08	-2.034087e+01	-1.052597e+03
5.900000e-07	-2.743650e-06	-1.573513e-08	-1.955384e+01	-1.035541e+03
6.000000e-07	-2.632359e-06	-1.546903e-08	-1.876067e+01	-1.017702e+03
6.100000e-07	-2.520081e-06	-1.518938e-08	-1.796047e+01	-9.990517e+02
6.200000e-07	-2.406614e-06	-1.489141e-08	-1.715181e+01	-9.795426e+02
6.300000e-07	-2.292070e-06	-1.457815e-08	-1.633545e+01	-9.591023e+02
6.400000e-07	-2.176506e-06	-1.424262e-08	-1.551184e+01	-9.376371e+02
6.500000e-07	-2.060051e-06	-1.389564e-08	-1.468187e+01	-9.150397e+02
6.600000e-07	-1.942918e-06	-1.352881e-08	-1.384707e+01	-8.911977e+02
6.700000e-07	-1.825117e-06	-1.314268e-08	-1.300750e+01	-8.660025e+02
6.800000e-07	-1.706721e-06	-1.273389e-08	-1.216371e+01	-8.393533e+02
6.900000e-07	-1.587851e-06	-1.230254e-08	-1.131653e+01	-8.111568e+02
7.000000e-07	-1.468499e-06	-1.184804e-08	-1.046591e+01	-7.813220e+02
7.100000e-07	-1.348675e-06	-1.136534e-08	-9.611932e+00	-7.497543e+02
7.200000e-07	-1.228396e-06	-1.085799e-08	-8.754712e+00	-7.163525e+02
7.300000e-07	-1.107675e-06	-1.032235e-08	-7.894337e+00	-6.810123e+02
7.400000e-07	-9.864656e-07	-9.754518e-09	-7.030485e+00	-6.436385e+02
7.500000e-07	-8.648203e-07	-9.152883e-09	-6.163526e+00	-6.041663e+02
7.600000e-07	-7.428901e-07	-8.519374e-09	-5.294536e+00	-5.625868e+02
7.700000e-07	-6.207028e-07	-7.847735e-09	-4.423714e+00	-5.189708e+02
7.800000e-07	-4.982001e-07	-7.149978e-09	-3.550644e+00	-4.734849e+02
7.900000e-07	-3.755600e-07	-6.434817e-09	-2.676595e+00	-4.263908e+02
8.000000e-07	-2.528579e-07	-5.702349e-09	-1.802104e+00	-3.780262e+02
8.100000e-07	-1.300044e-07	-4.954977e-09	-9.265342e-01	-3.287671e+02
8.200000e-07	-7.039781e-09	-4.199156e-09	-5.017212e-02	-2.789766e+02
8.300000e-07	1.159796e-07	-3.442514e-09	8.265802e-01	-2.289492e+02
8.400000e-07	2.389525e-07	-2.680177e-09	1.703001e+00	-1.788632e+02
8.500000e-07	3.618641e-07	-1.917200e-09	2.578985e+00	-1.287509e+02
8.600000e-07	4.846670e-07	-1.149816e-09	3.454195e+00	-7.849591e+01
8.700000e-07	6.073149e-07	-3.781872e-10	4.328299e+00	-2.786027e+01
8.800000e-07	7.298093e-07	4.037222e-10	5.201310e+00	2.346240e+01
8.900000e-07	8.520860e-07	1.202599e-09	6.072769e+00	7.577563e+01
9.000000e-07	9.740556e-07	2.015891e-09	6.942040e+00	1.293044e+02
9.100000e-07	1.095603e-06	2.846329e-09	7.808299e+00	1.841294e+02
9.200000e-07	1.216624e-06	3.696353e-09	8.670813e+00	2.401432e+02
9.300000e-07	1.337189e-06	4.563253e-09	9.530072e+00	2.970383e+02
9.400000e-07	1.457242e-06	5.436776e-09	1.038568e+01	3.543278e+02
9.500000e-07	1.576674e-06	6.307834e-09	1.123687e+01	4.113946e+02
9.600000e-07	1.695573e-06	7.163252e-09	1.208425e+01	4.675614e+02
9.700000e-07	1.813952e-06	7.993301e-09	1.292794e+01	5.221656e+02
9.800000e-07	1.931682e-06	8.791331e-09	1.376699e+01	5.746291e+02
9.900000e-07	2.048604e-06	9.545411e-09	1.460028e+01	6.245094e+02
1.000000e-06	2.164711e-06	1.024758e-08	1.542778e+01	6.715264e+02
1.010000e-06	2.279945e-06	1.090660e-08	1.624904e+01	7.155644e+02
1.020000e-06	2.394200e-06	1.152712e-08	1.706333e+01	7.566507e+02
1.030000e-06	2.507366e-06	1.211076e-08	1.786986e+01	7.949199e+02
1.040000e-06	2.619394e-06	1.265727e-08	1.866827e+01	8.305725e+02
1.050000e-06	2.730394e-06	1.316194e-08	1.945936e+01	8.638352e+02
1.060000e-06	2.840541e-06	1.363252e-08	2.024437e+01	8.949302e+02
1.070000e-06	2.949818e-06	1.406973e-08	2.102319e+01	9.240568e+02
1.080000e-06	3.058115e-06	1.448439e-08	2.179501e+01	9.513843e+02
1.090000e-06	3.165398e-06	1.487577e-08	2.255961e+01	9.770539e+02
1.100000e-06	3.271541e-06	1.524666e-08	2.331609e+01	1.001186e+03
1.110000e-06	3.376329e-06	1.559436e-08	2.406291e+01	1.023890e+03
1.120000e-06	3.479802e-06	1.592060e-08	2.480035e+01	1.045266e+03
1.130000e-06	3.582102e-06	1.622566e-08	2.552944e+01	1.065415e+03
1.140000e-06	3.683244e-06	1.651147e-08	2.625027e+01	1.084430e+03
1.150000e-06	3.783163e-06	1.678369e-08	2.696239e+01	1.102402e+03
1.160000e-06	3.881760e-06	1.704041e-08	2.766508e+01	1.119409e+03
1.170000e-06	3.978807e-06	1.728380e-08	2.835673e+01	1.135521e+03
1.180000e-06	4.074267e-06	1.751422e-08	2.903707e+01	1.150797e+03
1.190000e-06	4.168342e-06	1.773366e-08	2.970754e+01	1.165290e+03
1.200000e-06	4.261079e-06	1.794262e-08	3.036847e+01	1.179046e+03
1.210000e-06	4.352476e-06	1.814149e-08	3.101985e+01	1.192109e+03
1.220000e-06	4.442217e-06	1.832837e-08	3.165943e+01	1.204522e+03
1.230000e-06	4.530115e-06	1.850724e-08	3.228587e+01	1.216326e+03
1.240000e-06	4.616369e-06	1.867488e-08	3.290060e+01	1.227556e+03
1.250000e-06	4.701186e-06	1.883582e-08	3.350509e+01	1.238243e+03
1.260000e-06	4.784552e-06	1.899012e-08	3.409923e+01	1.248406e+03
1.270000e-06	4.866126e-06	1.913820e-08	3.468061e+01	1.258059e+03
1.280000e-06	4.945830e-06	1.927962e-08	3.524865e+01	1.267210e+03
1.290000e-06	5.023664e-06	1.941344e-08	3.580337e+01	1.275865e+03
1.300000e-06	5.099588e-06	1.953748e-08	3.634448e+01	1.284032e+03
1.310000e-06	5.173434e-06	1.965504e-08	3.687077e+01	1.291727e+03
1.320000e-06	5.245190e-06	1.976609e-08	3.738217e+01	1.298976e+03
1.330000e-06	5.315112e-06	1.987215e-08	3.788051e+01	1.305812e+03
1.340000e-06	5.383329e-06	1.997170e-08	3.836668e+01	1.312272e+03
1.350000e-06	5.449584e-06	2.006237e-08	3.883888e+01	1.318396e+03
1.360000e-06	5.513705e-06	2.014817e-08	3.929587e+01	1.324219e+03
1.370000e-06	5.575895e-06	2.023082e-08	3.973909e+01	1.329767e+03
1.380000e-06	5.636266e-06	2.031131e-08	4.016936e+01	1.335057e+03
1.390000e-06	5.694730e-06	2.038877e-08	4.058602e+01	1.340098e+03
1.400000e-06	5.751096e-06	2.046437e-08	4.098774e+01	1.344892e+03
1.410000e-06	5.805358e-06	2.053585e-08	4.137447e+01	1.349442e+03
1.420000e-06	5.857392e-06	2.060081e-08	4.174531e+01	1.353749e+03
1.430000e-06	5.906910e-06	2.066187e-08	4.209822e+01	1.357818e+03
1.440000e-06	5.954046e-06	2.071910e-08	4.243416e+01	1.361657e+03
1.450000e-06	5.999241e-06	2.077112e-08	4.275626e+01	1.365273e+03
1.460000e-06	6.042618e-06	2.082188e-08	4.306540e+01	1.368672e+03
1.470000e-06	6.083735e-06	2.087083e-08	4.335844e+01	1.371855e+03
1.480000e-06	6.122481e-06	2.091665e-08	4.363458e+01	1.374817e+03
1.490000e-06	6.159238e-06	2.095843e-08	4.389655e+01	1.377549e+03
1.500000e-06	6.193854e-06	2.099498e-08	4.414325e+01	1.380041e+03
1.510000e-06	6.226204e-06	2.102590e-08	4.437381e+01	1.382287e+03
1.520000e-06	6.256379e-06	2.105324e-08	4.458886e+01	1.384290e+03
1.530000e-06	6.284562e-06	2.107781e-08	4.478972e+01	1.386061e+03
1.540000e-06	6.310397e-06	2.110060e-08	4.497385e+01	1.387620e+03
1.550000e-06	6.333660e-06	2.112178e-08	4.513964e+01	1.388991e+03
1.560000e-06	6.354756e-06	2.114070e-08	4.528999e+01	1.390199e+03
1.570000e-06	6.373804e-06	2.115723e-08	4.542575e+01	1.391260e+03
1.580000e-06	6.390515e-06	2.116994e-08	4.554484e+01	1.392181e+03
1.590000e-06	6.404717e-06	2.118173e-08	4.564606e+01	1.392957e+03
1.600000e-06	6.416450e-06	2.119166e-08	4.572968e+01	1.393574e+03
1.610000e-06	6.425580e-06	2.119893e-08	4.579475e+01	1.394016e+03
1.620000e-06	6.432296e-06	2.120474e-08	4.584261e+01	1.394271e+03
1.630000e-06	6.436925e-06	2.120950e-08	4.587561e+01	1.394337e+03
1.640000e-06	6.439291e-06	2.120891e-08	4.589247e+01	1.394228e+03
1.650000e-06	6.439310e-06	2.121031e-08	4.589260e+01	1.393967e+03
1.660000e-06	6.437154e-06	2.119697e-08	4.587724e+01	1.393583e+03
1.670000e-06	6.432992e-06	2.118978e-08	4.584757e+01	1.393102e+03
1.680000e-06	6.426574e-06	2.118287e-08	4.580183e+01	1.392535e+03
1.690000e-06	6.417911e-06	2.116951e-08	4.574009e+01	1.391874e+03
1.700000e-06	6.407269e-06	2.115829e-08	4.566425e+01	1.391088e+03
1.710000e-06	6.394445e-06	2.114898e-08	4.557285e+01	1.390134e+03
1.720000e-06	6.379427e-06	2.116048e-08	4.546582e+01	1.388964e+03
1.730000e-06	6.362433e-06	2.113164e-08	4.534470e+01	1.387546e+03
1.740000e-06	6.343373e-06	2.095864e-08	4.520886e+01	1.385873e+03
1.750000e-06	6.321368e-06	2.098909e-08	4.505203e+01	1.383976e+03
1.760000e-06	6.296144e-06	2.103603e-08	4.487227e+01	1.381925e+03
1.770000e-06	6.268615e-06	2.095327e-08	4.467607e+01	1.379818e+03
1.780000e-06	6.239084e-06	2.107808e-08	4.446561e+01	1.377765e+03
1.790000e-06	6.207861e-06	2.104793e-08	4.424308e+01	1.375861e+03
1.800000e-06	6.175439e-06	2.069694e-08	4.401201e+01	1.374163e+03
1.810000e-06	6.140954e-06	2.086679e-08	4.376624e+01	1.372677e+03
1.820000e-06	6.104328e-06	2.083938e-08	4.350520e+01	1.371343e+03
1.830000e-06	6.065758e-06	2.082015e-08	4.323032e+01	1.370049e+03
1.840000e-06	6.024693e-06	2.115199e-08	4.293765e+01	1.368645e+03
1.850000e-06	5.981558e-06	2.080829e-08	4.263023e+01	1.366971e+03
1.860000e-06	5.936440e-06	2.084265e-08	4.230868e+01	1.364886e+03
1.870000e-06	5.889024e-06	2.085327e-08	4.197075e+01	1.362294e+03
1.880000e-06	5.839559e-06	2.060939e-08	4.161821e+01	1.359160e+03
1.890000e-06	5.787557e-06	2.081866e-08	4.124760e+01	1.355510e+03
1.900000e-06	5.732939e-06	2.061751e-08	4.085833e+01	1.351421e+03
1.910000e-06	5.676157e-06	2.058411e-08	4.045365e+01	1.347000e+03
1.920000e-06	5.617354e-06	2.059686e-08	4.003457e+01	1.342356e+03
1.930000e-06	5.556794e-06	2.034132e-08	3.960296e+01	1.337575e+03
1.940000e-06	5.494045e-06	2.043760e-08	3.915575e+01	1.332706e+03
1.950000e-06	5.429098e-06	2.023804e-08	3.869287e+01	1.327752e+03
1.960000e-06	5.362235e-06	2.025232e-08	3.821635e+01	1.322675e+03
1.970000e-06	5.293334e-06	2.015703e-08	3.772530e+01	1.317416e+03
1.980000e-06	5.222324e-06	2.000549e-08	3.721921e+01	1.311906e+03
1.990000e-06	5.149243e-06	2.003558e-08	3.669837e+01	1.306092e+03
2.000000e-06	5.074385e-06	1.980850e-08	3.616486e+01	1.299945e+03
2.010000e-06	4.997475e-06	1.980581e-08	3.561673e+01	1.293463e+03
2.020000e-06	4.918431e-06	1.964620e-08	3.505338e+01	1.286670e+03
2.030000e-06	4.837633e-06	1.954244e-08	3.447754e+01	1.279600e+03
2.040000e-06	4.755216e-06	1.947682e-08	3.389016e+01	1.272284e+03
2.050000e-06	4.671314e-06	1.931426e-08	3.329219e+01	1.264735e+03
2.060000e-06	4.585674e-06	1.925369e-08	3.268184e+01	1.256944e+03
2.070000e-06	4.498212e-06	1.907593e-08	3.205851e+01	1.248879e+03
2.080000e-06	4.409184e-06	1.898564e-08	3.142401e+01	1.240490e+03
2.090000e-06	4.318719e-06	1.881752e-08	3.077927e+01	1.231725e+03
2.100000e-06	4.226948e-06	1.868801e-08	3.012523e+01	1.222540e+03
2.110000e-06	4.133760e-06	1.855885e-08	2.946108e+01	1.212908e+03
2.120000e-06	4.038945e-06	1.838501e-08	2.878533e+01	1.202824e+03
2.130000e-06	3.942649e-06	1.823400e-08	2.809904e+01	1.192299e+03
2.140000e-06	3.845014e-06	1.804111e-08	2.740320e+01	1.181352e+03
2.150000e-06	3.746055e-06	1.789761e-08	2.669793e+01	1.169999e+03
2.160000e-06	3.645841e-06	1.770747e-08	2.598370e+01	1.158237e+03
2.170000e-06	3.544140e-06	1.753907e-08	2.525888e+01	1.146046e+03
2.180000e-06	3.440969e-06	1.734093e-08	2.452359e+01	1.133381e+03
2.190000e-06	3.336521e-06	1.713940e-08	2.377920e+01	1.120181e+03
2.200000e-06	3.230930e-06	1.691639e-08	2.302665e+01	1.106381e+03
2.210000e-06	3.124279e-06	1.669417e-08	2.226656e+01	1.091919e+03
2.220000e-06	3.016535e-06	1.647536e-08	2.149867e+01	1.076749e+03
2.230000e-06	2.907696e-06	1.623411e-08	2.072298e+01	1.060837e+03
2.240000e-06	2.797779e-06	1.598384e-08	1.993961e+01	1.044166e+03
2.250000e-06	2.686795e-06	1.571280e-08	1.914864e+01	1.026720e+03
2.260000e-06	2.574735e-06	1.544299e-08	1.834999e+01	1.008480e+03
2.270000e-06	2.461655e-06	1.514759e-08	1.754407e+01	9.894085e+02
2.280000e-06	2.347638e-06	1.484725e-08	1.673149e+01	9.694443e+02
2.290000e-06	2.232692e-06	1.452281e-08	1.591227e+01	9.485043e+02
2.300000e-06	2.116841e-06	1.418610e-08	1.508661e+01	9.264870e+02
2.310000e-06	2.000156e-06	1.383040e-08	1.425500e+01	9.032812e+02
2.320000e-06	1.882643e-06	1.346077e-08	1.341749e+01	8.787757e+02
2.330000e-06	1.764347e-06	1.307294e-08	1.257440e+01	8.528656e+02
2.340000e-06	1.645300e-06	1.266051e-08	1.172596e+01	8.254541e+02
2.350000e-06	1.525610e-06	1.222171e-08	1.087294e+01	7.964499e+02
2.360000e-06	1.405485e-06	1.175083e-08	1.001682e+01	7.657609e+02
2.370000e-06	1.284938e-06	1.125552e-08	9.157678e+00	7.332892e+02
2.380000e-06	1.163937e-06	1.072809e-08	8.295317e+00	6.989311e+02
2.390000e-06	1.042651e-06	1.017330e-08	7.430915e+00	6.625847e+02
2.400000e-06	9.210935e-07	9.583829e-09	6.564582e+00	6.241669e+02
2.410000e-06	7.992240e-07	8.966717e-09	5.696025e+00	5.836377e+02
2.420000e-06	6.770561e-07	8.317720e-09	4.825341e+00	5.410253e+02
2.430000e-06	5.546649e-07	7.635373e-09	3.953066e+00	4.964474e+02
2.440000e-06	4.320908e-07	6.927979e-09	3.079487e+00	4.501192e+02
2.450000e-06	3.093716e-07	6.197742e-09	2.204874e+00	4.023441e+02
2.460000e-06	1.865213e-07	5.452794e-09	1.329327e+00	3.534848e+02
2.470000e-06	6.364260e-08	4.693728e-09	4.535772e-01	3.039176e+02
2.480000e-06	-5.918751e-08	3.931486e-09	-4.218261e-01	2.539782e+02
2.490000e-06	-1.820504e-07	3.168578e-09	-1.297463e+00	2.039079e+02
2.500000e-06	-3.049054e-07	2.400306e-09	-2.173044e+00	1.538143e+02
2.510000e-06	-4.276879e-07	1.631602e-09	-3.048108e+00	1.036538e+02
2.520000e-06	-5.503393e-07	8.574253e-10	-3.922237e+00	5.324400e+01
2.530000e-06	-6.728506e-07	7.485087e-11	-4.795369e+00	2.304754e+00
2.540000e-06	-7.952207e-07	-7.191450e-10	-5.667493e+00	-4.947844e+01
2.550000e-06	-9.173262e-07	-1.527788e-09	-6.537733e+00	-1.023790e+02
2.560000e-06	-1.039070e-06	-2.350506e-09	-7.405395e+00	-1.565569e+02
2.570000e-06	-1.160429e-06	-3.191891e-09	-8.270315e+00	-2.120023e+02
2.580000e-06	-1.281363e-06	-4.051160e-09	-9.132200e+00	-2.685073e+02
2.590000e-06	-1.401903e-06	-4.922812e-09	-9.991286e+00	-3.256700e+02
2.600000e-06	-1.522013e-06	-5.800303e-09	-1.084730e+01	-3.829308e+02
2.610000e-06	-1.641508e-06	-6.672330e-09	-1.169894e+01	-4.396331e+02
2.620000e-06	-1.760294e-06	-7.527548e-09	-1.254552e+01	-4.950976e+02
2.630000e-06	-1.878336e-06	-8.352051e-09	-1.338680e+01	-5.486962e+02
2.640000e-06	-1.995547e-06	-9.138741e-09	-1.422215e+01	-5.999136e+02
2.650000e-06	-2.111851e-06	-9.882372e-09	-1.505104e+01	-6.483867e+02
2.660000e-06	-2.227190e-06	-1.058013e-08	-1.587306e+01	-6.939191e+02
2.670000e-06	-2.341676e-06	-1.123247e-08	-1.668899e+01	-7.364701e+02
2.680000e-06	-2.455169e-06	-1.184047e-08	-1.749786e+01	-7.761259e+02
2.690000e-06	-2.567550e-06	-1.241090e-08	-1.829879e+01	-8.130594e+02
2.700000e-06	-2.678830e-06	-1.294381e-08	-1.909188e+01	-8.474883e+02
2.710000e-06	-2.788961e-06	-1.343870e-08	-1.987677e+01	-8.796405e+02
2.720000e-06	-2.898173e-06	-1.390053e-08	-2.065512e+01	-9.097283e+02
2.730000e-06	-3.006543e-06	-1.433050e-08	-2.142746e+01	-9.379361e+02
2.740000e-06	-3.113978e-06	-1.473356e-08	-2.219315e+01	-9.644184e+02
2.750000e-06	-3.220408e-06	-1.511466e-08	-2.295167e+01	-9.893053e+02
2.760000e-06	-3.325790e-06	-1.547079e-08	-2.370272e+01	-1.012710e+03
2.770000e-06	-3.429979e-06	-1.580569e-08	-2.444527e+01	-1.034738e+03
2.780000e-06	-3.532894e-06	-1.612208e-08	-2.517874e+01	-1.055488e+03
2.790000e-06	-3.634417e-06	-1.642197e-08	-2.590229e+01	-1.075058e+03
2.800000e-06	-3.734554e-06	-1.670804e-08	-2.661596e+01	-1.093541e+03
2.810000e-06	-3.833504e-06	-1.697861e-08	-2.732117e+01	-1.111021e+03
2.820000e-06	-3.931174e-06	-1.723284e-08	-2.801726e+01	-1.127573e+03
2.830000e-06	-4.027548e-06	-1.747304e-08	-2.870411e+01	-1.143260e+03
2.840000e-06	-4.122636e-06	-1.770144e-08	-2.938179e+01	-1.158139e+03
2.850000e-06	-4.216166e-06	-1.791834e-08	-3.004838e+01	-1.172257e+03
2.860000e-06	-4.308112e-06	-1.812678e-08	-3.070368e+01	-1.185661e+03
2.870000e-06	-4.398515e-06	-1.832513e-08	-3.134797e+01	-1.198394e+03
2.880000e-06	-4.487323e-06	-1.851184e-08	-3.198090e+01	-1.210498e+03
2.890000e-06	-4.574538e-06	-1.868710e-08	-3.260248e+01	-1.222011e+03
2.900000e-06	-4.659958e-06	-1.885225e-08	-3.321126e+01	-1.232966e+03
2.910000e-06	-4.743711e-06	-1.901129e-08	-3.380816e+01	-1.243389e+03
2.920000e-06	-4.825904e-06	-1.916303e-08	-3.439395e+01	-1.253296e+03
2.930000e-06	-4.906442e-06	-1.930698e-08	-3.496794e+01	-1.262697e+03
2.940000e-06	-4.985112e-06	-1.944320e-08	-3.552861e+01	-1.271599e+03
