# Temperatura_=_75.26
# Concentracion g/m^3_=_28200.0
# C_Vs_to_Am_M_A/Vsm_=_65563218390.804596
# pendiente_HvsI_1/m_=_3716.3
# ordenada_HvsI_A/m_=_1297.0
# frecuencia_Hz_=_302114.37249412615

Tiempo_(s)	Campo_(V.s)	Magnetizacion_(V.s)	Campo_(kA/m)	Magnetizacion_(A/m)
0.000000e+00	-6.337213e-06	-2.266450e-08	-4.557138e+01	-1.480713e+03
1.000000e-08	-6.333673e-06	-2.266044e-08	-4.554593e+01	-1.480266e+03
2.000000e-08	-6.328018e-06	-2.264599e-08	-4.550526e+01	-1.479732e+03
3.000000e-08	-6.320490e-06	-2.263526e-08	-4.545113e+01	-1.479094e+03
4.000000e-08	-6.310838e-06	-2.262271e-08	-4.538172e+01	-1.478308e+03
5.000000e-08	-6.298838e-06	-2.260203e-08	-4.529543e+01	-1.477320e+03
6.000000e-08	-6.284566e-06	-2.257885e-08	-4.519280e+01	-1.476077e+03
7.000000e-08	-6.267965e-06	-2.254241e-08	-4.507342e+01	-1.474548e+03
8.000000e-08	-6.249234e-06	-2.251588e-08	-4.493872e+01	-1.472735e+03
9.000000e-08	-6.228454e-06	-2.258597e-08	-4.478929e+01	-1.470683e+03
1.000000e-07	-6.205214e-06	-2.253882e-08	-4.462217e+01	-1.468480e+03
1.100000e-07	-6.179308e-06	-2.243921e-08	-4.443588e+01	-1.466242e+03
1.200000e-07	-6.151101e-06	-2.242526e-08	-4.423304e+01	-1.464092e+03
1.300000e-07	-6.121069e-06	-2.237962e-08	-4.401708e+01	-1.462134e+03
1.400000e-07	-6.089516e-06	-2.222850e-08	-4.379017e+01	-1.460422e+03
1.500000e-07	-6.056223e-06	-2.233681e-08	-4.355076e+01	-1.458950e+03
1.600000e-07	-6.020802e-06	-2.236253e-08	-4.329605e+01	-1.457640e+03
1.700000e-07	-5.983619e-06	-2.211574e-08	-4.302867e+01	-1.456355e+03
1.800000e-07	-5.944445e-06	-2.226274e-08	-4.274696e+01	-1.454923e+03
1.900000e-07	-5.902758e-06	-2.215900e-08	-4.244719e+01	-1.453163e+03
2.000000e-07	-5.858900e-06	-2.199784e-08	-4.213180e+01	-1.450923e+03
2.100000e-07	-5.812987e-06	-2.208196e-08	-4.180164e+01	-1.448103e+03
2.200000e-07	-5.764870e-06	-2.195418e-08	-4.145562e+01	-1.444675e+03
2.300000e-07	-5.714281e-06	-2.191090e-08	-4.109184e+01	-1.440678e+03
2.400000e-07	-5.661054e-06	-2.185062e-08	-4.070907e+01	-1.436205e+03
2.500000e-07	-5.605693e-06	-2.175450e-08	-4.031097e+01	-1.431381e+03
2.600000e-07	-5.548257e-06	-2.172216e-08	-3.989794e+01	-1.426324e+03
2.700000e-07	-5.488639e-06	-2.159354e-08	-3.946922e+01	-1.421129e+03
2.800000e-07	-5.427059e-06	-2.154400e-08	-3.902640e+01	-1.415842e+03
2.900000e-07	-5.363588e-06	-2.145802e-08	-3.856997e+01	-1.410456e+03
3.000000e-07	-5.298159e-06	-2.136670e-08	-3.809947e+01	-1.404923e+03
3.100000e-07	-5.230596e-06	-2.130062e-08	-3.761362e+01	-1.399171e+03
3.200000e-07	-5.160934e-06	-2.118792e-08	-3.711267e+01	-1.393123e+03
3.300000e-07	-5.089470e-06	-2.110521e-08	-3.659877e+01	-1.386721e+03
3.400000e-07	-5.016306e-06	-2.096249e-08	-3.607264e+01	-1.379941e+03
3.500000e-07	-4.941079e-06	-2.086917e-08	-3.553168e+01	-1.372790e+03
3.600000e-07	-4.863662e-06	-2.076319e-08	-3.497497e+01	-1.365304e+03
3.700000e-07	-4.784310e-06	-2.063762e-08	-3.440434e+01	-1.357528e+03
3.800000e-07	-4.703123e-06	-2.054756e-08	-3.382052e+01	-1.349502e+03
3.900000e-07	-4.620277e-06	-2.039676e-08	-3.322477e+01	-1.341245e+03
4.000000e-07	-4.536045e-06	-2.025784e-08	-3.261905e+01	-1.332747e+03
4.100000e-07	-4.450407e-06	-2.012382e-08	-3.200322e+01	-1.323968e+03
4.200000e-07	-4.363396e-06	-1.999742e-08	-3.137752e+01	-1.314853e+03
4.300000e-07	-4.275029e-06	-1.985539e-08	-3.074206e+01	-1.305341e+03
4.400000e-07	-4.185075e-06	-1.968823e-08	-3.009519e+01	-1.295387e+03
4.500000e-07	-4.093434e-06	-1.953606e-08	-2.943620e+01	-1.284964e+03
4.600000e-07	-4.000277e-06	-1.935950e-08	-2.876630e+01	-1.274074e+03
4.700000e-07	-3.905854e-06	-1.919450e-08	-2.808729e+01	-1.262738e+03
4.800000e-07	-3.810132e-06	-1.902795e-08	-2.739895e+01	-1.250987e+03
4.900000e-07	-3.712970e-06	-1.885549e-08	-2.670025e+01	-1.238841e+03
5.000000e-07	-3.614271e-06	-1.865679e-08	-2.599050e+01	-1.226304e+03
5.100000e-07	-3.514189e-06	-1.844788e-08	-2.527080e+01	-1.213348e+03
5.200000e-07	-3.412909e-06	-1.824234e-08	-2.454249e+01	-1.199917e+03
5.300000e-07	-3.310457e-06	-1.801816e-08	-2.380575e+01	-1.185938e+03
5.400000e-07	-3.206760e-06	-1.779489e-08	-2.306006e+01	-1.171328e+03
5.500000e-07	-3.101919e-06	-1.756209e-08	-2.230614e+01	-1.156014e+03
5.600000e-07	-2.995862e-06	-1.732422e-08	-2.154347e+01	-1.139944e+03
5.700000e-07	-2.888443e-06	-1.706524e-08	-2.077101e+01	-1.123090e+03
5.800000e-07	-2.779930e-06	-1.679634e-08	-1.999069e+01	-1.105444e+03
5.900000e-07	-2.670439e-06	-1.651741e-08	-1.920333e+01	-1.087008e+03
6.000000e-07	-2.560054e-06	-1.622441e-08	-1.840955e+01	-1.067778e+03
6.100000e-07	-2.448828e-06	-1.591803e-08	-1.760971e+01	-1.047728e+03
6.200000e-07	-2.336698e-06	-1.559615e-08	-1.680338e+01	-1.026804e+03
6.300000e-07	-2.223682e-06	-1.526045e-08	-1.599067e+01	-1.004919e+03
6.400000e-07	-2.109730e-06	-1.490493e-08	-1.517123e+01	-9.819589e+02
6.500000e-07	-1.994683e-06	-1.453538e-08	-1.434392e+01	-9.577941e+02
6.600000e-07	-1.878745e-06	-1.414436e-08	-1.351020e+01	-9.322951e+02
6.700000e-07	-1.762194e-06	-1.373461e-08	-1.267207e+01	-9.053425e+02
6.800000e-07	-1.644995e-06	-1.330389e-08	-1.182929e+01	-8.768327e+02
6.900000e-07	-1.527197e-06	-1.284829e-08	-1.098219e+01	-8.466765e+02
7.000000e-07	-1.408943e-06	-1.236282e-08	-1.013181e+01	-8.147909e+02
7.100000e-07	-1.290291e-06	-1.184328e-08	-9.278582e+00	-7.810898e+02
7.200000e-07	-1.171207e-06	-1.129595e-08	-8.422241e+00	-7.454778e+02
7.300000e-07	-1.051691e-06	-1.072034e-08	-7.562794e+00	-7.078510e+02
7.400000e-07	-9.318599e-07	-1.011592e-08	-6.701076e+00	-6.681095e+02
7.500000e-07	-8.117043e-07	-9.480271e-09	-5.837028e+00	-6.261795e+02
7.600000e-07	-6.913011e-07	-8.811036e-09	-4.971199e+00	-5.820413e+02
7.700000e-07	-5.707594e-07	-8.101658e-09	-4.104375e+00	-5.357560e+02
7.800000e-07	-4.500211e-07	-7.361943e-09	-3.236136e+00	-4.874834e+02
7.900000e-07	-3.291144e-07	-6.601204e-09	-2.366687e+00	-4.374822e+02
8.000000e-07	-2.081540e-07	-5.820260e-09	-1.496851e+00	-3.860903e+02
8.100000e-07	-8.710203e-08	-5.023260e-09	-6.263574e-01	-3.336857e+02
8.200000e-07	3.405761e-08	-4.216126e-09	2.449109e-01	-2.806323e+02
8.300000e-07	1.552642e-07	-3.405969e-09	1.116517e+00	-2.272237e+02
8.400000e-07	2.764370e-07	-2.591049e-09	1.987879e+00	-1.736345e+02
8.500000e-07	3.975156e-07	-1.773034e-09	2.858565e+00	-1.198923e+02
8.600000e-07	5.184709e-07	-9.502916e-10	3.728364e+00	-6.587859e+01
8.700000e-07	6.392984e-07	-1.215513e-10	4.597244e+00	-1.135936e+01
8.800000e-07	7.599677e-07	7.175668e-10	5.464986e+00	4.395691e+01
8.900000e-07	8.804139e-07	1.572747e-09	6.331124e+00	1.003452e+02
9.000000e-07	1.000622e-06	2.447804e-09	7.195553e+00	1.579873e+02
9.100000e-07	1.120560e-06	3.343429e-09	8.058036e+00	2.169080e+02
9.200000e-07	1.240125e-06	4.255024e-09	8.917831e+00	2.769360e+02
9.300000e-07	1.359213e-06	5.177875e-09	9.774205e+00	3.376980e+02
9.400000e-07	1.477856e-06	6.103522e-09	1.062738e+01	3.986468e+02
9.500000e-07	1.596042e-06	7.023214e-09	1.147726e+01	4.591174e+02
9.600000e-07	1.713630e-06	7.924399e-09	1.232284e+01	5.184009e+02
9.700000e-07	1.830489e-06	8.797228e-09	1.316319e+01	5.758227e+02
9.800000e-07	1.946668e-06	9.633020e-09	1.399864e+01	6.308102e+02
9.900000e-07	2.062058e-06	1.042231e-08	1.482842e+01	6.829416e+02
1.000000e-06	2.176393e-06	1.115926e-08	1.565061e+01	7.319673e+02
1.010000e-06	2.289646e-06	1.184854e-08	1.646502e+01	7.778060e+02
1.020000e-06	2.401997e-06	1.249731e-08	1.727295e+01	8.205191e+02
1.030000e-06	2.513543e-06	1.310488e-08	1.807508e+01	8.602714e+02
1.040000e-06	2.624229e-06	1.367078e-08	1.887103e+01	8.972873e+02
1.050000e-06	2.733967e-06	1.419379e-08	1.966017e+01	9.318119e+02
1.060000e-06	2.842744e-06	1.468023e-08	2.044239e+01	9.640818e+02
1.070000e-06	2.950772e-06	1.513574e-08	2.121923e+01	9.943079e+02
1.080000e-06	3.057946e-06	1.556523e-08	2.198992e+01	1.022670e+03
1.090000e-06	3.163718e-06	1.596933e-08	2.275054e+01	1.049322e+03
1.100000e-06	3.268095e-06	1.635161e-08	2.350112e+01	1.074395e+03
1.110000e-06	3.371308e-06	1.671308e-08	2.424334e+01	1.098010e+03
1.120000e-06	3.473373e-06	1.705462e-08	2.497729e+01	1.120278e+03
1.130000e-06	3.574324e-06	1.737434e-08	2.570324e+01	1.141307e+03
1.140000e-06	3.674187e-06	1.767533e-08	2.642136e+01	1.161193e+03
1.150000e-06	3.772706e-06	1.796103e-08	2.712982e+01	1.180025e+03
1.160000e-06	3.869655e-06	1.822965e-08	2.782698e+01	1.197878e+03
1.170000e-06	3.965209e-06	1.848277e-08	2.851412e+01	1.214815e+03
1.180000e-06	4.059458e-06	1.872426e-08	2.919188e+01	1.230889e+03
1.190000e-06	4.152395e-06	1.895690e-08	2.986019e+01	1.246145e+03
1.200000e-06	4.244074e-06	1.917843e-08	3.051946e+01	1.260627e+03
1.210000e-06	4.334191e-06	1.938914e-08	3.116750e+01	1.274379e+03
1.220000e-06	4.422525e-06	1.958876e-08	3.180272e+01	1.287450e+03
1.230000e-06	4.509239e-06	1.977733e-08	3.242628e+01	1.299886e+03
1.240000e-06	4.594405e-06	1.995513e-08	3.303872e+01	1.311735e+03
1.250000e-06	4.678129e-06	2.012228e-08	3.364079e+01	1.323036e+03
1.260000e-06	4.760157e-06	2.028091e-08	3.423065e+01	1.333819e+03
1.270000e-06	4.840293e-06	2.043602e-08	3.480692e+01	1.344103e+03
1.280000e-06	4.918675e-06	2.058723e-08	3.537057e+01	1.353900e+03
1.290000e-06	4.995276e-06	2.073496e-08	3.592141e+01	1.363211e+03
1.300000e-06	5.069870e-06	2.087410e-08	3.645783e+01	1.372040e+03
1.310000e-06	5.142427e-06	2.100421e-08	3.697958e+01	1.380392e+03
1.320000e-06	5.213096e-06	2.112517e-08	3.748777e+01	1.388280e+03
1.330000e-06	5.281971e-06	2.123726e-08	3.798306e+01	1.395722e+03
1.340000e-06	5.349028e-06	2.134204e-08	3.846527e+01	1.402745e+03
1.350000e-06	5.414065e-06	2.144003e-08	3.893296e+01	1.409380e+03
1.360000e-06	5.477097e-06	2.153241e-08	3.938623e+01	1.415658e+03
1.370000e-06	5.538355e-06	2.161975e-08	3.982674e+01	1.421607e+03
1.380000e-06	5.597861e-06	2.170568e-08	4.025465e+01	1.427251e+03
1.390000e-06	5.655267e-06	2.178997e-08	4.066746e+01	1.432610e+03
1.400000e-06	5.710542e-06	2.187113e-08	4.106495e+01	1.437700e+03
1.410000e-06	5.763804e-06	2.194755e-08	4.144795e+01	1.442534e+03
1.420000e-06	5.814658e-06	2.201741e-08	4.181365e+01	1.447122e+03
1.430000e-06	5.863079e-06	2.208238e-08	4.216185e+01	1.451475e+03
1.440000e-06	5.909410e-06	2.214139e-08	4.249502e+01	1.455599e+03
1.450000e-06	5.953870e-06	2.219480e-08	4.281474e+01	1.459499e+03
1.460000e-06	5.996269e-06	2.224725e-08	4.311963e+01	1.463173e+03
1.470000e-06	6.036388e-06	2.230164e-08	4.340813e+01	1.466614e+03
1.480000e-06	6.074470e-06	2.235366e-08	4.368198e+01	1.469814e+03
1.490000e-06	6.110593e-06	2.239964e-08	4.394174e+01	1.472762e+03
1.500000e-06	6.144386e-06	2.244118e-08	4.418475e+01	1.475450e+03
1.510000e-06	6.175862e-06	2.247770e-08	4.441110e+01	1.477879e+03
1.520000e-06	6.205365e-06	2.250911e-08	4.462326e+01	1.480053e+03
1.530000e-06	6.232855e-06	2.253622e-08	4.482094e+01	1.481989e+03
1.540000e-06	6.257934e-06	2.255841e-08	4.500129e+01	1.483705e+03
1.550000e-06	6.280579e-06	2.257662e-08	4.516413e+01	1.485221e+03
1.560000e-06	6.301219e-06	2.259344e-08	4.531255e+01	1.486551e+03
1.570000e-06	6.319744e-06	2.261142e-08	4.544577e+01	1.487703e+03
1.580000e-06	6.335814e-06	2.262842e-08	4.556132e+01	1.488675e+03
1.590000e-06	6.349432e-06	2.264207e-08	4.565925e+01	1.489455e+03
1.600000e-06	6.360623e-06	2.265332e-08	4.573973e+01	1.490034e+03
1.610000e-06	6.369303e-06	2.265977e-08	4.580215e+01	1.490404e+03
1.620000e-06	6.375657e-06	2.266304e-08	4.584784e+01	1.490570e+03
1.630000e-06	6.379944e-06	2.266350e-08	4.587867e+01	1.490548e+03
1.640000e-06	6.381881e-06	2.266127e-08	4.589260e+01	1.490366e+03
1.650000e-06	6.381460e-06	2.266194e-08	4.588957e+01	1.490057e+03
1.660000e-06	6.379024e-06	2.264899e-08	4.587205e+01	1.489650e+03
1.670000e-06	6.374615e-06	2.264110e-08	4.584034e+01	1.489158e+03
1.680000e-06	6.367897e-06	2.263395e-08	4.579204e+01	1.488574e+03
1.690000e-06	6.358932e-06	2.262283e-08	4.572757e+01	1.487865e+03
1.700000e-06	6.348064e-06	2.261187e-08	4.564942e+01	1.486983e+03
1.710000e-06	6.335029e-06	2.259968e-08	4.555568e+01	1.485871e+03
1.720000e-06	6.319745e-06	2.260601e-08	4.544577e+01	1.484485e+03
1.730000e-06	6.302531e-06	2.257243e-08	4.532199e+01	1.482808e+03
1.740000e-06	6.283182e-06	2.241821e-08	4.518284e+01	1.480864e+03
1.750000e-06	6.260823e-06	2.242716e-08	4.502206e+01	1.478721e+03
1.760000e-06	6.235364e-06	2.245593e-08	4.483898e+01	1.476483e+03
1.770000e-06	6.207757e-06	2.239240e-08	4.464046e+01	1.474272e+03
1.780000e-06	6.178411e-06	2.249047e-08	4.442943e+01	1.472205e+03
1.790000e-06	6.147454e-06	2.245026e-08	4.420681e+01	1.470364e+03
1.800000e-06	6.115102e-06	2.219171e-08	4.397417e+01	1.468775e+03
1.810000e-06	6.080654e-06	2.232978e-08	4.372645e+01	1.467395e+03
1.820000e-06	6.044231e-06	2.228212e-08	4.346453e+01	1.466116e+03
1.830000e-06	6.005753e-06	2.228593e-08	4.318783e+01	1.464778e+03
1.840000e-06	5.964757e-06	2.256942e-08	4.289303e+01	1.463201e+03
1.850000e-06	5.921848e-06	2.229942e-08	4.258446e+01	1.461214e+03
1.860000e-06	5.876950e-06	2.230433e-08	4.226160e+01	1.458690e+03
1.870000e-06	5.829859e-06	2.229670e-08	4.192296e+01	1.455563e+03
1.880000e-06	5.780681e-06	2.208603e-08	4.156932e+01	1.451839e+03
1.890000e-06	5.728967e-06	2.220391e-08	4.119745e+01	1.447587e+03
1.900000e-06	5.674697e-06	2.201340e-08	4.080718e+01	1.442920e+03
1.910000e-06	5.618241e-06	2.200009e-08	4.040120e+01	1.437964e+03
1.920000e-06	5.559825e-06	2.201310e-08	3.998113e+01	1.432827e+03
1.930000e-06	5.499637e-06	2.177369e-08	3.954831e+01	1.427580e+03
1.940000e-06	5.437235e-06	2.182125e-08	3.909958e+01	1.422245e+03
1.950000e-06	5.372721e-06	2.161122e-08	3.863565e+01	1.416791e+03
1.960000e-06	5.306306e-06	2.158278e-08	3.815805e+01	1.411156e+03
1.970000e-06	5.237884e-06	2.151219e-08	3.766603e+01	1.405262e+03
1.980000e-06	5.167441e-06	2.135881e-08	3.715947e+01	1.399040e+03
1.990000e-06	5.094878e-06	2.136605e-08	3.663766e+01	1.392448e+03
2.000000e-06	5.020560e-06	2.115813e-08	3.610323e+01	1.385477e+03
2.010000e-06	4.944278e-06	2.109954e-08	3.555468e+01	1.378150e+03
2.020000e-06	4.865889e-06	2.093600e-08	3.499098e+01	1.370511e+03
2.030000e-06	4.785772e-06	2.082853e-08	3.441485e+01	1.362604e+03
2.040000e-06	4.704034e-06	2.076218e-08	3.382707e+01	1.354459e+03
2.050000e-06	4.620747e-06	2.058186e-08	3.322815e+01	1.346083e+03
2.060000e-06	4.535884e-06	2.049073e-08	3.261789e+01	1.337448e+03
2.070000e-06	4.449279e-06	2.030567e-08	3.199510e+01	1.328506e+03
2.080000e-06	4.360970e-06	2.018890e-08	3.136007e+01	1.319197e+03
2.090000e-06	4.271238e-06	2.001940e-08	3.071480e+01	1.309466e+03
2.100000e-06	4.180160e-06	1.987324e-08	3.005985e+01	1.299276e+03
2.110000e-06	4.087830e-06	1.973408e-08	2.939590e+01	1.288616e+03
2.120000e-06	3.994058e-06	1.953922e-08	2.872158e+01	1.277497e+03
2.130000e-06	3.898644e-06	1.936787e-08	2.803545e+01	1.265947e+03
2.140000e-06	3.801801e-06	1.916401e-08	2.733904e+01	1.253995e+03
2.150000e-06	3.703650e-06	1.899959e-08	2.663323e+01	1.241652e+03
2.160000e-06	3.604294e-06	1.879831e-08	2.591876e+01	1.228909e+03
2.170000e-06	3.503695e-06	1.861383e-08	2.519534e+01	1.215721e+03
2.180000e-06	3.401622e-06	1.840303e-08	2.446133e+01	1.202024e+03
2.190000e-06	3.298050e-06	1.818103e-08	2.371653e+01	1.187736e+03
2.200000e-06	3.193317e-06	1.794652e-08	2.296339e+01	1.172780e+03
2.210000e-06	3.087592e-06	1.770348e-08	2.220311e+01	1.157091e+03
2.220000e-06	2.980740e-06	1.745912e-08	2.143473e+01	1.140629e+03
2.230000e-06	2.872872e-06	1.719647e-08	2.065904e+01	1.123377e+03
2.240000e-06	2.764113e-06	1.693021e-08	1.987695e+01	1.105333e+03
2.250000e-06	2.654356e-06	1.664056e-08	1.908768e+01	1.086498e+03
2.260000e-06	2.543548e-06	1.634310e-08	1.829085e+01	1.066861e+03
2.270000e-06	2.431805e-06	1.602343e-08	1.748729e+01	1.046381e+03
2.280000e-06	2.319073e-06	1.570168e-08	1.667663e+01	1.024987e+03
2.290000e-06	2.205385e-06	1.535931e-08	1.585909e+01	1.002577e+03
2.300000e-06	2.090913e-06	1.500104e-08	1.503592e+01	9.790283e+02
2.310000e-06	1.975621e-06	1.462406e-08	1.420684e+01	9.542097e+02
2.320000e-06	1.859570e-06	1.422549e-08	1.337231e+01	9.279954e+02
2.330000e-06	1.742864e-06	1.380238e-08	1.253307e+01	9.002737e+02
2.340000e-06	1.625500e-06	1.335138e-08	1.168910e+01	8.709488e+02
2.350000e-06	1.507411e-06	1.288132e-08	1.083991e+01	8.399358e+02
2.360000e-06	1.388583e-06	1.238627e-08	9.985405e+00	8.071512e+02
2.370000e-06	1.269144e-06	1.186178e-08	9.126510e+00	7.725049e+02
2.380000e-06	1.149299e-06	1.129861e-08	8.264696e+00	7.358961e+02
2.390000e-06	1.029191e-06	1.070448e-08	7.400993e+00	6.972210e+02
2.400000e-06	9.088861e-07	1.007853e-08	6.535870e+00	6.563893e+02
2.410000e-06	7.883229e-07	9.422919e-09	5.668890e+00	6.133507e+02
2.420000e-06	6.674992e-07	8.734493e-09	4.800038e+00	5.681230e+02
2.430000e-06	5.464673e-07	8.014484e-09	3.929688e+00	5.208152e+02
2.440000e-06	4.252482e-07	7.265744e-09	3.057992e+00	4.716378e+02
2.450000e-06	3.038788e-07	6.488881e-09	2.185216e+00	4.208929e+02
2.460000e-06	1.823796e-07	5.693373e-09	1.311506e+00	3.689445e+02
2.470000e-06	6.086316e-08	4.885964e-09	4.376717e-01	3.161706e+02
2.480000e-06	-6.060956e-08	4.075330e-09	-4.358480e-01	2.629070e+02
2.490000e-06	-1.821221e-07	3.260060e-09	-1.309654e+00	2.093926e+02
2.500000e-06	-3.036567e-07	2.438401e-09	-2.183619e+00	1.557305e+02
2.510000e-06	-4.250406e-07	1.611634e-09	-3.056499e+00	1.018733e+02
2.520000e-06	-5.462390e-07	7.766283e-10	-3.928046e+00	4.763877e+01
2.530000e-06	-6.672804e-07	-6.787003e-11	-4.798465e+00	-7.244193e+00
2.540000e-06	-7.881025e-07	-9.244741e-10	-5.667305e+00	-6.306865e+01
2.550000e-06	-9.087033e-07	-1.794084e-09	-6.534555e+00	-1.200721e+02
2.560000e-06	-1.029048e-06	-2.679244e-09	-7.399964e+00	-1.783646e+02
2.570000e-06	-1.149121e-06	-3.584070e-09	-8.263419e+00	-2.378757e+02
2.580000e-06	-1.268858e-06	-4.508886e-09	-9.124456e+00	-2.983317e+02
2.590000e-06	-1.388127e-06	-5.445390e-09	-9.982131e+00	-3.592670e+02
2.600000e-06	-1.506786e-06	-6.381167e-09	-1.083541e+01	-4.200668e+02
2.610000e-06	-1.624580e-06	-7.302565e-09	-1.168248e+01	-4.800346e+02
2.620000e-06	-1.741442e-06	-8.199774e-09	-1.252284e+01	-5.384690e+02
2.630000e-06	-1.857559e-06	-9.064400e-09	-1.335785e+01	-5.947391e+02
2.640000e-06	-1.972996e-06	-9.887499e-09	-1.418796e+01	-6.483432e+02
2.650000e-06	-2.087710e-06	-1.066112e-08	-1.501288e+01	-6.989445e+02
2.660000e-06	-2.201563e-06	-1.138616e-08	-1.583161e+01	-7.463796e+02
2.670000e-06	-2.314319e-06	-1.206404e-08	-1.664244e+01	-7.906428e+02
2.680000e-06	-2.425893e-06	-1.269677e-08	-1.744478e+01	-8.318527e+02
2.690000e-06	-2.536503e-06	-1.328895e-08	-1.824019e+01	-8.702090e+02
2.700000e-06	-2.646237e-06	-1.384068e-08	-1.902929e+01	-9.059511e+02
2.710000e-06	-2.755032e-06	-1.435445e-08	-1.981165e+01	-9.393226e+02
2.720000e-06	-2.863007e-06	-1.483323e-08	-2.058810e+01	-9.705486e+02
2.730000e-06	-2.970137e-06	-1.528083e-08	-2.135848e+01	-9.998247e+02
2.740000e-06	-3.076279e-06	-1.569975e-08	-2.212176e+01	-1.027317e+03
2.750000e-06	-3.181269e-06	-1.609351e-08	-2.287675e+01	-1.053166e+03
2.760000e-06	-3.285203e-06	-1.646557e-08	-2.362414e+01	-1.077498e+03
2.770000e-06	-3.387922e-06	-1.681685e-08	-2.436281e+01	-1.100428e+03
2.780000e-06	-3.489123e-06	-1.714892e-08	-2.509055e+01	-1.122066e+03
2.790000e-06	-3.589180e-06	-1.746412e-08	-2.581007e+01	-1.142514e+03
2.800000e-06	-3.688133e-06	-1.776215e-08	-2.652165e+01	-1.161866e+03
2.810000e-06	-3.785769e-06	-1.804362e-08	-2.722376e+01	-1.180202e+03
2.820000e-06	-3.882227e-06	-1.830732e-08	-2.791739e+01	-1.197593e+03
2.830000e-06	-3.977390e-06	-1.855751e-08	-2.860172e+01	-1.214095e+03
2.840000e-06	-4.070914e-06	-1.879857e-08	-2.927426e+01	-1.229756e+03
2.850000e-06	-4.162946e-06	-1.902781e-08	-2.993607e+01	-1.244622e+03
2.860000e-06	-4.253617e-06	-1.924724e-08	-3.058809e+01	-1.258736e+03
2.870000e-06	-4.342702e-06	-1.945697e-08	-3.122870e+01	-1.272144e+03
2.880000e-06	-4.430277e-06	-1.965577e-08	-3.185846e+01	-1.284894e+03
2.890000e-06	-4.516153e-06	-1.984158e-08	-3.247600e+01	-1.297034e+03
2.900000e-06	-4.600312e-06	-2.001537e-08	-3.308120e+01	-1.308607e+03
2.910000e-06	-4.682935e-06	-2.018313e-08	-3.367534e+01	-1.319648e+03
2.920000e-06	-4.763872e-06	-2.034318e-08	-3.425737e+01	-1.330182e+03
2.930000e-06	-4.843155e-06	-2.049534e-08	-3.482750e+01	-1.340224e+03
2.940000e-06	-4.920465e-06	-2.064145e-08	-3.538344e+01	-1.349780e+03
