# Temperatura_=_73.9
# Concentracion g/m^3_=_28200.0
# C_Vs_to_Am_M_A/Vsm_=_65563218390.804596
# pendiente_HvsI_1/m_=_3716.3
# ordenada_HvsI_A/m_=_1297.0
# frecuencia_Hz_=_302118.6226108366

Tiempo_(s)	Campo_(V.s)	Magnetizacion_(V.s)	Campo_(kA/m)	Magnetizacion_(A/m)
0.000000e+00	-6.440845e-06	-2.277288e-08	-4.585545e+01	-1.492086e+03
1.000000e-08	-6.437350e-06	-2.276590e-08	-4.583057e+01	-1.491620e+03
2.000000e-08	-6.431773e-06	-2.275207e-08	-4.579087e+01	-1.490980e+03
3.000000e-08	-6.424256e-06	-2.274211e-08	-4.573735e+01	-1.490170e+03
4.000000e-08	-6.414627e-06	-2.272943e-08	-4.566879e+01	-1.489201e+03
5.000000e-08	-6.402572e-06	-2.271128e-08	-4.558297e+01	-1.488083e+03
6.000000e-08	-6.388063e-06	-2.268718e-08	-4.547968e+01	-1.486824e+03
7.000000e-08	-6.371252e-06	-2.265450e-08	-4.535999e+01	-1.485435e+03
8.000000e-08	-6.352483e-06	-2.265068e-08	-4.522636e+01	-1.483924e+03
9.000000e-08	-6.331604e-06	-2.271150e-08	-4.507772e+01	-1.482296e+03
1.000000e-07	-6.308230e-06	-2.265295e-08	-4.491131e+01	-1.480558e+03
1.100000e-07	-6.282159e-06	-2.256373e-08	-4.472569e+01	-1.478713e+03
1.200000e-07	-6.253686e-06	-2.255431e-08	-4.452298e+01	-1.476762e+03
1.300000e-07	-6.223386e-06	-2.248141e-08	-4.430726e+01	-1.474701e+03
1.400000e-07	-6.191590e-06	-2.232579e-08	-4.408089e+01	-1.472519e+03
1.500000e-07	-6.157979e-06	-2.246877e-08	-4.384160e+01	-1.470197e+03
1.600000e-07	-6.122250e-06	-2.244765e-08	-4.358722e+01	-1.467711e+03
1.700000e-07	-6.084687e-06	-2.224683e-08	-4.331980e+01	-1.465028e+03
1.800000e-07	-6.045013e-06	-2.238470e-08	-4.303734e+01	-1.462120e+03
1.900000e-07	-6.002913e-06	-2.223690e-08	-4.273761e+01	-1.458960e+03
2.000000e-07	-5.958731e-06	-2.213114e-08	-4.242305e+01	-1.455533e+03
2.100000e-07	-5.912411e-06	-2.218229e-08	-4.209328e+01	-1.451836e+03
2.200000e-07	-5.863657e-06	-2.205011e-08	-4.174618e+01	-1.447882e+03
2.300000e-07	-5.812348e-06	-2.200433e-08	-4.138088e+01	-1.443691e+03
2.400000e-07	-5.758540e-06	-2.193476e-08	-4.099780e+01	-1.439292e+03
2.500000e-07	-5.702620e-06	-2.185356e-08	-4.059968e+01	-1.434709e+03
2.600000e-07	-5.644558e-06	-2.181297e-08	-4.018631e+01	-1.429957e+03
2.700000e-07	-5.584332e-06	-2.171529e-08	-3.975753e+01	-1.425039e+03
2.800000e-07	-5.522181e-06	-2.166076e-08	-3.931505e+01	-1.419940e+03
2.900000e-07	-5.458072e-06	-2.154705e-08	-3.885862e+01	-1.414631e+03
3.000000e-07	-5.391849e-06	-2.146554e-08	-3.838715e+01	-1.409076e+03
3.100000e-07	-5.323535e-06	-2.138858e-08	-3.790079e+01	-1.403240e+03
3.200000e-07	-5.253246e-06	-2.129310e-08	-3.740037e+01	-1.397095e+03
3.300000e-07	-5.181125e-06	-2.121594e-08	-3.688691e+01	-1.390626e+03
3.400000e-07	-5.107079e-06	-2.107751e-08	-3.635974e+01	-1.383835e+03
3.500000e-07	-5.030881e-06	-2.098299e-08	-3.581724e+01	-1.376733e+03
3.600000e-07	-4.952582e-06	-2.086426e-08	-3.525980e+01	-1.369342e+03
3.700000e-07	-4.872287e-06	-2.074754e-08	-3.468814e+01	-1.361680e+03
3.800000e-07	-4.790204e-06	-2.065008e-08	-3.410375e+01	-1.353757e+03
3.900000e-07	-4.706569e-06	-2.051576e-08	-3.350831e+01	-1.345568e+03
4.000000e-07	-4.621503e-06	-2.037697e-08	-3.290269e+01	-1.337095e+03
4.100000e-07	-4.534952e-06	-2.023144e-08	-3.228649e+01	-1.328307e+03
4.200000e-07	-4.446981e-06	-2.009932e-08	-3.166019e+01	-1.319167e+03
4.300000e-07	-4.357553e-06	-1.995542e-08	-3.102350e+01	-1.309641e+03
4.400000e-07	-4.266473e-06	-1.980263e-08	-3.037506e+01	-1.299706e+03
4.500000e-07	-4.173798e-06	-1.965522e-08	-2.971527e+01	-1.289348e+03
4.600000e-07	-4.079637e-06	-1.948450e-08	-2.904489e+01	-1.278567e+03
4.700000e-07	-3.984129e-06	-1.931002e-08	-2.836492e+01	-1.267369e+03
4.800000e-07	-3.887167e-06	-1.913405e-08	-2.767460e+01	-1.255760e+03
4.900000e-07	-3.788651e-06	-1.895630e-08	-2.697322e+01	-1.243736e+03
5.000000e-07	-3.688792e-06	-1.876175e-08	-2.626228e+01	-1.231280e+03
5.100000e-07	-3.587587e-06	-1.856041e-08	-2.554175e+01	-1.218356e+03
5.200000e-07	-3.485126e-06	-1.835652e-08	-2.481228e+01	-1.204916e+03
5.300000e-07	-3.381477e-06	-1.813734e-08	-2.407435e+01	-1.190901e+03
5.400000e-07	-3.276543e-06	-1.791517e-08	-2.332727e+01	-1.176254e+03
5.500000e-07	-3.170283e-06	-1.768242e-08	-2.257076e+01	-1.160927e+03
5.600000e-07	-3.062737e-06	-1.744071e-08	-2.180509e+01	-1.144882e+03
5.700000e-07	-2.954103e-06	-1.718397e-08	-2.103167e+01	-1.128096e+03
5.800000e-07	-2.844394e-06	-1.691444e-08	-2.025060e+01	-1.110554e+03
5.900000e-07	-2.733687e-06	-1.663568e-08	-1.946242e+01	-1.092241e+03
6.000000e-07	-2.622115e-06	-1.634246e-08	-1.866809e+01	-1.073129e+03
6.100000e-07	-2.509614e-06	-1.603501e-08	-1.786714e+01	-1.053174e+03
6.200000e-07	-2.395943e-06	-1.571296e-08	-1.705787e+01	-1.032309e+03
6.300000e-07	-2.281099e-06	-1.537865e-08	-1.624023e+01	-1.010442e+03
6.400000e-07	-2.165341e-06	-1.502651e-08	-1.541610e+01	-9.874686e+02
6.500000e-07	-2.048763e-06	-1.465808e-08	-1.458612e+01	-9.632743e+02
6.600000e-07	-1.931424e-06	-1.426853e-08	-1.375073e+01	-9.377466e+02
6.700000e-07	-1.813365e-06	-1.385521e-08	-1.291022e+01	-9.107794e+02
6.800000e-07	-1.694743e-06	-1.342031e-08	-1.206569e+01	-8.822745e+02
6.900000e-07	-1.575688e-06	-1.296072e-08	-1.121807e+01	-8.521372e+02
7.000000e-07	-1.456126e-06	-1.247515e-08	-1.036686e+01	-8.202699e+02
7.100000e-07	-1.336021e-06	-1.195810e-08	-9.511773e+00	-7.865658e+02
7.200000e-07	-1.215478e-06	-1.141125e-08	-8.653571e+00	-7.509073e+02
7.300000e-07	-1.094491e-06	-1.083297e-08	-7.792201e+00	-7.131731e+02
7.400000e-07	-9.730397e-07	-1.022248e-08	-6.927535e+00	-6.732536e+02
7.500000e-07	-8.512632e-07	-9.579851e-09	-6.060550e+00	-6.310755e+02
7.600000e-07	-7.291414e-07	-8.904775e-09	-5.191106e+00	-5.866285e+02
7.700000e-07	-6.067048e-07	-8.194218e-09	-4.319422e+00	-5.399899e+02
7.800000e-07	-4.840681e-07	-7.451834e-09	-3.446312e+00	-4.913376e+02
7.900000e-07	-3.612966e-07	-6.682676e-09	-2.572243e+00	-4.409473e+02
8.000000e-07	-2.384156e-07	-5.890249e-09	-1.697394e+00	-3.891693e+02
8.100000e-07	-1.154058e-07	-5.083758e-09	-8.216287e-01	-3.363881e+02
8.200000e-07	7.689302e-09	-4.270952e-09	5.474382e-02	-2.829688e+02
8.300000e-07	1.307867e-07	-3.456206e-09	9.311333e-01	-2.292019e+02
8.400000e-07	2.538794e-07	-2.636420e-09	1.807489e+00	-1.752569e+02
8.500000e-07	3.769096e-07	-1.813495e-09	2.683399e+00	-1.211560e+02
8.600000e-07	4.998464e-07	-9.850092e-10	3.558645e+00	-6.677601e+01
8.700000e-07	6.226150e-07	-1.488126e-10	4.432694e+00	-1.187917e+01
8.800000e-07	7.452128e-07	7.004930e-10	5.305526e+00	4.382916e+01
8.900000e-07	8.675856e-07	1.566907e-09	6.176756e+00	1.006269e+02
9.000000e-07	9.896463e-07	2.448341e-09	7.045766e+00	1.586984e+02
9.100000e-07	1.111424e-06	3.348818e-09	7.912759e+00	2.180699e+02
9.200000e-07	1.232648e-06	4.266185e-09	8.775813e+00	2.785687e+02
9.300000e-07	1.353190e-06	5.197880e-09	9.634008e+00	3.398159e+02
9.400000e-07	1.473170e-06	6.134926e-09	1.048820e+01	4.012526e+02
9.500000e-07	1.592642e-06	7.063509e-09	1.133878e+01	4.621964e+02
9.600000e-07	1.711601e-06	7.972325e-09	1.218571e+01	5.219166e+02
9.700000e-07	1.830020e-06	8.850532e-09	1.302879e+01	5.797155e+02
9.800000e-07	1.947775e-06	9.690835e-09	1.386714e+01	6.350004e+02
9.900000e-07	2.064812e-06	1.048476e-08	1.470038e+01	6.873361e+02
1.000000e-06	2.181034e-06	1.122995e-08	1.552782e+01	7.364697e+02
1.010000e-06	2.296241e-06	1.192502e-08	1.634804e+01	7.823284e+02
1.020000e-06	2.410466e-06	1.257188e-08	1.716126e+01	8.249915e+02
1.030000e-06	2.523646e-06	1.317394e-08	1.796704e+01	8.646481e+02
1.040000e-06	2.635630e-06	1.373590e-08	1.876431e+01	9.015487e+02
1.050000e-06	2.746620e-06	1.425947e-08	1.955450e+01	9.359604e+02
1.060000e-06	2.856739e-06	1.474905e-08	2.033849e+01	9.681334e+02
1.070000e-06	2.966004e-06	1.520710e-08	2.111640e+01	9.982828e+02
1.080000e-06	3.074314e-06	1.563732e-08	2.188751e+01	1.026584e+03
1.090000e-06	3.181619e-06	1.604034e-08	2.265147e+01	1.053177e+03
1.100000e-06	3.287762e-06	1.641929e-08	2.340715e+01	1.078184e+03
1.110000e-06	3.392440e-06	1.677788e-08	2.415240e+01	1.101714e+03
1.120000e-06	3.495854e-06	1.711774e-08	2.488866e+01	1.123876e+03
1.130000e-06	3.598074e-06	1.743903e-08	2.561641e+01	1.144782e+03
1.140000e-06	3.699109e-06	1.774130e-08	2.633572e+01	1.164541e+03
1.150000e-06	3.798973e-06	1.802523e-08	2.704671e+01	1.183256e+03
1.160000e-06	3.897496e-06	1.829238e-08	2.774814e+01	1.201014e+03
1.170000e-06	3.994407e-06	1.854739e-08	2.843809e+01	1.217886e+03
1.180000e-06	4.089780e-06	1.879007e-08	2.911710e+01	1.233923e+03
1.190000e-06	4.183837e-06	1.902143e-08	2.978674e+01	1.249163e+03
1.200000e-06	4.276519e-06	1.924079e-08	3.044659e+01	1.263634e+03
1.210000e-06	4.367767e-06	1.944924e-08	3.109622e+01	1.277366e+03
1.220000e-06	4.457360e-06	1.964601e-08	3.173408e+01	1.290391e+03
1.230000e-06	4.545259e-06	1.983330e-08	3.235987e+01	1.302754e+03
1.240000e-06	4.631571e-06	2.001188e-08	3.297437e+01	1.314500e+03
1.250000e-06	4.716333e-06	2.018366e-08	3.357783e+01	1.325680e+03
1.260000e-06	4.799551e-06	2.034762e-08	3.417030e+01	1.336339e+03
1.270000e-06	4.880945e-06	2.050316e-08	3.474978e+01	1.346511e+03
1.280000e-06	4.960468e-06	2.065165e-08	3.531595e+01	1.356216e+03
1.290000e-06	5.038175e-06	2.079445e-08	3.586918e+01	1.365462e+03
1.300000e-06	5.113996e-06	2.092864e-08	3.640898e+01	1.374246e+03
1.310000e-06	5.187716e-06	2.105548e-08	3.693383e+01	1.382564e+03
1.320000e-06	5.259383e-06	2.117682e-08	3.744406e+01	1.390414e+03
1.330000e-06	5.329194e-06	2.129060e-08	3.794108e+01	1.397806e+03
1.340000e-06	5.397218e-06	2.139556e-08	3.842538e+01	1.404759e+03
1.350000e-06	5.463277e-06	2.149354e-08	3.889568e+01	1.411309e+03
1.360000e-06	5.527242e-06	2.158783e-08	3.935108e+01	1.417495e+03
1.370000e-06	5.589318e-06	2.167803e-08	3.979302e+01	1.423361e+03
1.380000e-06	5.649618e-06	2.176397e-08	4.022233e+01	1.428944e+03
1.390000e-06	5.707936e-06	2.184503e-08	4.063752e+01	1.434275e+03
1.400000e-06	5.764059e-06	2.192320e-08	4.103709e+01	1.439369e+03
1.410000e-06	5.818108e-06	2.199790e-08	4.142189e+01	1.444233e+03
1.420000e-06	5.869918e-06	2.206848e-08	4.179075e+01	1.448863e+03
1.430000e-06	5.919167e-06	2.213551e-08	4.214138e+01	1.453252e+03
1.440000e-06	5.966103e-06	2.219835e-08	4.247554e+01	1.457394e+03
1.450000e-06	6.011158e-06	2.225682e-08	4.279631e+01	1.461284e+03
1.460000e-06	6.054195e-06	2.231191e-08	4.310271e+01	1.464922e+03
1.470000e-06	6.094937e-06	2.236436e-08	4.339277e+01	1.468313e+03
1.480000e-06	6.133466e-06	2.241389e-08	4.366708e+01	1.471463e+03
1.490000e-06	6.170060e-06	2.245998e-08	4.392761e+01	1.474377e+03
1.500000e-06	6.204434e-06	2.250328e-08	4.417233e+01	1.477058e+03
1.510000e-06	6.236451e-06	2.254132e-08	4.440028e+01	1.479505e+03
1.520000e-06	6.266352e-06	2.257254e-08	4.461316e+01	1.481718e+03
1.530000e-06	6.294251e-06	2.260091e-08	4.481178e+01	1.483696e+03
1.540000e-06	6.319771e-06	2.262658e-08	4.499347e+01	1.485439e+03
1.550000e-06	6.342741e-06	2.264925e-08	4.515701e+01	1.486955e+03
1.560000e-06	6.363647e-06	2.266827e-08	4.530585e+01	1.488255e+03
1.570000e-06	6.382472e-06	2.268582e-08	4.543987e+01	1.489355e+03
1.580000e-06	6.398834e-06	2.270289e-08	4.555636e+01	1.490271e+03
1.590000e-06	6.412763e-06	2.271639e-08	4.565553e+01	1.491019e+03
1.600000e-06	6.424248e-06	2.272761e-08	4.573729e+01	1.491612e+03
1.610000e-06	6.433111e-06	2.273656e-08	4.580039e+01	1.492055e+03
1.620000e-06	6.439594e-06	2.274385e-08	4.584655e+01	1.492346e+03
1.630000e-06	6.443997e-06	2.274751e-08	4.587790e+01	1.492482e+03
1.640000e-06	6.446062e-06	2.274769e-08	4.589260e+01	1.492453e+03
1.650000e-06	6.445719e-06	2.274773e-08	4.589016e+01	1.492252e+03
1.660000e-06	6.443264e-06	2.273385e-08	4.587268e+01	1.491875e+03
1.670000e-06	6.438787e-06	2.272666e-08	4.584080e+01	1.491321e+03
1.680000e-06	6.432090e-06	2.271984e-08	4.579313e+01	1.490596e+03
1.690000e-06	6.423242e-06	2.270695e-08	4.573013e+01	1.489705e+03
1.700000e-06	6.412446e-06	2.269489e-08	4.565327e+01	1.488660e+03
1.710000e-06	6.399426e-06	2.268402e-08	4.556058e+01	1.487470e+03
1.720000e-06	6.384097e-06	2.268768e-08	4.545144e+01	1.486146e+03
1.730000e-06	6.366766e-06	2.262957e-08	4.532805e+01	1.484695e+03
1.740000e-06	6.347346e-06	2.250905e-08	4.518979e+01	1.483124e+03
1.750000e-06	6.324917e-06	2.253567e-08	4.503011e+01	1.481440e+03
1.760000e-06	6.299291e-06	2.254775e-08	4.484766e+01	1.479648e+03
1.770000e-06	6.271470e-06	2.247211e-08	4.464959e+01	1.477751e+03
1.780000e-06	6.241815e-06	2.259213e-08	4.443847e+01	1.475746e+03
1.790000e-06	6.210499e-06	2.253566e-08	4.421551e+01	1.473626e+03
1.800000e-06	6.177749e-06	2.233726e-08	4.398235e+01	1.471377e+03
1.810000e-06	6.142959e-06	2.248709e-08	4.373466e+01	1.468976e+03
1.820000e-06	6.106119e-06	2.233902e-08	4.347238e+01	1.466396e+03
1.830000e-06	6.067197e-06	2.228319e-08	4.319528e+01	1.463604e+03
1.840000e-06	6.025834e-06	2.241579e-08	4.290079e+01	1.460572e+03
1.850000e-06	5.982451e-06	2.214727e-08	4.259193e+01	1.457280e+03
1.860000e-06	5.937061e-06	2.219323e-08	4.226878e+01	1.453718e+03
1.870000e-06	5.889393e-06	2.213981e-08	4.192940e+01	1.449890e+03
1.880000e-06	5.839534e-06	2.200861e-08	4.157443e+01	1.445814e+03
1.890000e-06	5.787100e-06	2.208475e-08	4.120113e+01	1.441516e+03
1.900000e-06	5.732148e-06	2.187433e-08	4.080991e+01	1.437022e+03
1.910000e-06	5.675092e-06	2.187827e-08	4.040369e+01	1.432354e+03
1.920000e-06	5.616052e-06	2.181630e-08	3.998336e+01	1.427520e+03
1.930000e-06	5.555113e-06	2.166409e-08	3.954951e+01	1.422514e+03
1.940000e-06	5.491958e-06	2.169401e-08	3.909988e+01	1.417313e+03
1.950000e-06	5.426665e-06	2.151227e-08	3.863502e+01	1.411886e+03
1.960000e-06	5.359415e-06	2.149424e-08	3.815624e+01	1.406195e+03
1.970000e-06	5.290128e-06	2.135623e-08	3.766295e+01	1.400207e+03
1.980000e-06	5.218730e-06	2.123702e-08	3.715464e+01	1.393901e+03
1.990000e-06	5.145387e-06	2.120846e-08	3.663247e+01	1.387270e+03
2.000000e-06	5.070323e-06	2.104691e-08	3.609806e+01	1.380321e+03
2.010000e-06	4.993156e-06	2.099991e-08	3.554866e+01	1.373073e+03
2.020000e-06	4.913855e-06	2.082099e-08	3.498409e+01	1.365544e+03
2.030000e-06	4.832778e-06	2.071685e-08	3.440686e+01	1.357751e+03
2.040000e-06	4.750108e-06	2.060678e-08	3.381829e+01	1.349696e+03
2.050000e-06	4.665889e-06	2.046291e-08	3.321870e+01	1.341369e+03
2.060000e-06	4.579927e-06	2.036577e-08	3.260669e+01	1.332742e+03
2.070000e-06	4.492256e-06	2.020127e-08	3.198252e+01	1.323783e+03
2.080000e-06	4.402991e-06	2.008328e-08	3.134700e+01	1.314454e+03
2.090000e-06	4.312287e-06	1.990136e-08	3.070124e+01	1.304726e+03
2.100000e-06	4.220228e-06	1.975654e-08	3.004582e+01	1.294580e+03
2.110000e-06	4.126660e-06	1.960304e-08	2.937967e+01	1.284010e+03
2.120000e-06	4.031555e-06	1.943398e-08	2.870256e+01	1.273020e+03
2.130000e-06	3.934981e-06	1.926687e-08	2.801501e+01	1.261616e+03
2.140000e-06	3.837026e-06	1.907864e-08	2.731762e+01	1.249800e+03
2.150000e-06	3.737849e-06	1.890452e-08	2.661154e+01	1.237564e+03
2.160000e-06	3.637352e-06	1.869954e-08	2.589605e+01	1.224879e+03
2.170000e-06	3.535323e-06	1.850769e-08	2.516966e+01	1.211704e+03
2.180000e-06	3.431881e-06	1.829154e-08	2.443320e+01	1.197984e+03
2.190000e-06	3.327192e-06	1.807615e-08	2.368787e+01	1.183660e+03
2.200000e-06	3.221341e-06	1.784189e-08	2.293427e+01	1.168678e+03
2.210000e-06	3.114404e-06	1.760453e-08	2.217293e+01	1.152996e+03
2.220000e-06	3.006429e-06	1.735858e-08	2.140421e+01	1.136582e+03
2.230000e-06	2.897326e-06	1.710045e-08	2.062745e+01	1.119420e+03
2.240000e-06	2.787101e-06	1.683247e-08	1.984270e+01	1.101495e+03
2.250000e-06	2.675843e-06	1.654596e-08	1.905061e+01	1.082787e+03
2.260000e-06	2.563551e-06	1.625049e-08	1.825115e+01	1.063261e+03
2.270000e-06	2.450248e-06	1.593364e-08	1.744449e+01	1.042861e+03
2.280000e-06	2.336014e-06	1.560904e-08	1.663120e+01	1.021507e+03
2.290000e-06	2.220901e-06	1.526444e-08	1.581166e+01	9.991009e+02
2.300000e-06	2.104918e-06	1.490759e-08	1.498592e+01	9.755312e+02
2.310000e-06	1.987968e-06	1.453188e-08	1.415329e+01	9.506840e+02
2.320000e-06	1.870101e-06	1.413793e-08	1.331414e+01	9.244492e+02
2.330000e-06	1.751530e-06	1.371963e-08	1.246998e+01	8.967251e+02
2.340000e-06	1.632298e-06	1.327262e-08	1.162111e+01	8.674159e+02
2.350000e-06	1.512505e-06	1.279810e-08	1.076825e+01	8.364262e+02
2.360000e-06	1.392276e-06	1.229682e-08	9.912280e+00	8.036546e+02
2.370000e-06	1.271647e-06	1.176915e-08	9.053462e+00	7.689885e+02
2.380000e-06	1.150628e-06	1.120812e-08	8.191874e+00	7.323070e+02
2.390000e-06	1.029198e-06	1.061790e-08	7.327354e+00	6.934922e+02
2.400000e-06	9.073942e-07	9.992563e-09	6.460173e+00	6.524493e+02
2.410000e-06	7.852834e-07	9.332508e-09	5.590808e+00	6.091331e+02
2.420000e-06	6.629289e-07	8.639618e-09	4.719708e+00	5.635745e+02
2.430000e-06	5.404076e-07	7.916138e-09	3.847420e+00	5.159004e+02
2.440000e-06	4.177393e-07	7.163087e-09	2.974085e+00	4.663391e+02
2.450000e-06	2.949325e-07	6.381476e-09	2.099765e+00	4.152079e+02
2.460000e-06	1.719785e-07	5.579107e-09	1.224397e+00	3.628802e+02
2.470000e-06	4.899033e-08	4.763348e-09	3.487856e-01	3.097377e+02
2.480000e-06	-7.399274e-08	3.944015e-09	-5.267897e-01	2.561150e+02
2.490000e-06	-1.969739e-07	3.121949e-09	-1.402351e+00	2.022467e+02
2.500000e-06	-3.199064e-07	2.298275e-09	-2.277567e+00	1.482304e+02
2.510000e-06	-4.427779e-07	1.472948e-09	-3.152348e+00	9.401364e+01
2.520000e-06	-5.654995e-07	6.381859e-10	-4.026061e+00	3.941009e+01
2.530000e-06	-6.880909e-07	-2.097996e-10	-4.898848e+00	-1.585488e+01
2.540000e-06	-8.104821e-07	-1.072717e-09	-5.770210e+00	-7.207727e+01
2.550000e-06	-9.325647e-07	-1.951674e-09	-6.639374e+00	-1.294974e+02
2.560000e-06	-1.054355e-06	-2.847113e-09	-7.506459e+00	-1.882275e+02
2.570000e-06	-1.175814e-06	-3.761382e-09	-8.371182e+00	-2.481974e+02
2.580000e-06	-1.296863e-06	-4.691645e-09	-9.232985e+00	-3.091300e+02
2.590000e-06	-1.417454e-06	-5.631450e-09	-1.009153e+01	-3.705512e+02
2.600000e-06	-1.537517e-06	-6.572104e-09	-1.094632e+01	-4.318316e+02
2.610000e-06	-1.656968e-06	-7.499680e-09	-1.179675e+01	-4.922547e+02
2.620000e-06	-1.775862e-06	-8.401124e-09	-1.264321e+01	-5.510965e+02
2.630000e-06	-1.894062e-06	-9.266979e-09	-1.348473e+01	-6.077036e+02
2.640000e-06	-2.011300e-06	-1.008983e-08	-1.431941e+01	-6.615571e+02
2.650000e-06	-2.127569e-06	-1.086338e-08	-1.514718e+01	-7.123117e+02
2.660000e-06	-2.242966e-06	-1.158842e-08	-1.596875e+01	-7.598066e+02
2.670000e-06	-2.357483e-06	-1.226754e-08	-1.678405e+01	-8.040496e+02
2.680000e-06	-2.471007e-06	-1.290045e-08	-1.759228e+01	-8.451808e+02
2.690000e-06	-2.583504e-06	-1.348865e-08	-1.839320e+01	-8.834262e+02
2.700000e-06	-2.694776e-06	-1.403652e-08	-1.918540e+01	-9.190493e+02
2.710000e-06	-2.804904e-06	-1.454695e-08	-1.996945e+01	-9.523123e+02
2.720000e-06	-2.914164e-06	-1.502286e-08	-2.074733e+01	-9.834492e+02
2.730000e-06	-3.022467e-06	-1.546725e-08	-2.151839e+01	-1.012655e+03
2.740000e-06	-3.129846e-06	-1.588441e-08	-2.228287e+01	-1.040086e+03
2.750000e-06	-3.236239e-06	-1.627875e-08	-2.304033e+01	-1.065872e+03
2.760000e-06	-3.341507e-06	-1.664948e-08	-2.378979e+01	-1.090127e+03
2.770000e-06	-3.445600e-06	-1.699691e-08	-2.453088e+01	-1.112959e+03
2.780000e-06	-3.548456e-06	-1.732480e-08	-2.526316e+01	-1.134479e+03
2.790000e-06	-3.649933e-06	-1.763609e-08	-2.598562e+01	-1.154799e+03
2.800000e-06	-3.750012e-06	-1.793236e-08	-2.669813e+01	-1.174023e+03
2.810000e-06	-3.848813e-06	-1.821351e-08	-2.740154e+01	-1.192250e+03
2.820000e-06	-3.946418e-06	-1.847796e-08	-2.809644e+01	-1.209557e+03
2.830000e-06	-4.042811e-06	-1.872679e-08	-2.878270e+01	-1.226006e+03
2.840000e-06	-4.137772e-06	-1.896438e-08	-2.945878e+01	-1.241641e+03
2.850000e-06	-4.231078e-06	-1.919269e-08	-3.012306e+01	-1.256493e+03
2.860000e-06	-4.322897e-06	-1.941215e-08	-3.077677e+01	-1.270590e+03
2.870000e-06	-4.413300e-06	-1.962139e-08	-3.142039e+01	-1.283964e+03
2.880000e-06	-4.502051e-06	-1.981733e-08	-3.205226e+01	-1.296653e+03
2.890000e-06	-4.589145e-06	-2.000021e-08	-3.267232e+01	-1.308701e+03
2.900000e-06	-4.674441e-06	-2.017218e-08	-3.327958e+01	-1.320158e+03
2.910000e-06	-4.758061e-06	-2.033579e-08	-3.387491e+01	-1.331072e+03
2.920000e-06	-4.840101e-06	-2.049244e-08	-3.445899e+01	-1.341484e+03
2.930000e-06	-4.920504e-06	-2.064373e-08	-3.503142e+01	-1.351421e+03
2.940000e-06	-4.998962e-06	-2.079016e-08	-3.559000e+01	-1.360896e+03
