# Temperatura_=_31.17
# Concentracion g/m^3_=_28200.0
# C_Vs_to_Am_M_A/Vsm_=_65563218390.804596
# pendiente_HvsI_1/m_=_3716.3
# ordenada_HvsI_A/m_=_1297.0
# frecuencia_Hz_=_302120.7978963434

Tiempo_(s)	Campo_(V.s)	Magnetizacion_(V.s)	Campo_(kA/m)	Magnetizacion_(A/m)
0.000000e+00	-6.422658e-06	-1.876871e-08	-4.585677e+01	-1.229160e+03
1.000000e-08	-6.419433e-06	-1.876607e-08	-4.583375e+01	-1.228839e+03
2.000000e-08	-6.414121e-06	-1.875539e-08	-4.579582e+01	-1.228367e+03
3.000000e-08	-6.406856e-06	-1.874607e-08	-4.574395e+01	-1.227754e+03
4.000000e-08	-6.397511e-06	-1.873575e-08	-4.567723e+01	-1.227022e+03
5.000000e-08	-6.385803e-06	-1.872124e-08	-4.559363e+01	-1.226194e+03
6.000000e-08	-6.371678e-06	-1.870311e-08	-4.549278e+01	-1.225295e+03
7.000000e-08	-6.355213e-06	-1.867433e-08	-4.537523e+01	-1.224345e+03
8.000000e-08	-6.336747e-06	-1.866540e-08	-4.524338e+01	-1.223350e+03
9.000000e-08	-6.316265e-06	-1.874673e-08	-4.509714e+01	-1.222305e+03
1.000000e-07	-6.293257e-06	-1.871309e-08	-4.493287e+01	-1.221184e+03
1.100000e-07	-6.267530e-06	-1.862030e-08	-4.474919e+01	-1.219955e+03
1.200000e-07	-6.239479e-06	-1.860652e-08	-4.454890e+01	-1.218572e+03
1.300000e-07	-6.209567e-06	-1.855829e-08	-4.433534e+01	-1.216995e+03
1.400000e-07	-6.178098e-06	-1.840278e-08	-4.411066e+01	-1.215189e+03
1.500000e-07	-6.144878e-06	-1.852078e-08	-4.387347e+01	-1.213131e+03
1.600000e-07	-6.109557e-06	-1.855309e-08	-4.362128e+01	-1.210818e+03
1.700000e-07	-6.072360e-06	-1.834584e-08	-4.335570e+01	-1.208264e+03
1.800000e-07	-6.033182e-06	-1.848282e-08	-4.307598e+01	-1.205495e+03
1.900000e-07	-5.991542e-06	-1.837056e-08	-4.277867e+01	-1.202548e+03
2.000000e-07	-5.947661e-06	-1.824984e-08	-4.246537e+01	-1.199459e+03
2.100000e-07	-5.901715e-06	-1.831438e-08	-4.213732e+01	-1.196262e+03
2.200000e-07	-5.853449e-06	-1.818365e-08	-4.179271e+01	-1.192979e+03
2.300000e-07	-5.802661e-06	-1.816974e-08	-4.143009e+01	-1.189616e+03
2.400000e-07	-5.749373e-06	-1.813111e-08	-4.104962e+01	-1.186169e+03
2.500000e-07	-5.693903e-06	-1.803599e-08	-4.065358e+01	-1.182620e+03
2.600000e-07	-5.636253e-06	-1.801924e-08	-4.024197e+01	-1.178943e+03
2.700000e-07	-5.576454e-06	-1.792799e-08	-3.981501e+01	-1.175110e+03
2.800000e-07	-5.514696e-06	-1.787248e-08	-3.937407e+01	-1.171096e+03
2.900000e-07	-5.451019e-06	-1.780024e-08	-3.891943e+01	-1.166877e+03
3.000000e-07	-5.385242e-06	-1.774534e-08	-3.844979e+01	-1.162440e+03
3.100000e-07	-5.317376e-06	-1.767947e-08	-3.796523e+01	-1.157776e+03
3.200000e-07	-5.247580e-06	-1.759373e-08	-3.746690e+01	-1.152884e+03
3.300000e-07	-5.175921e-06	-1.754587e-08	-3.695527e+01	-1.147762e+03
3.400000e-07	-5.102325e-06	-1.742118e-08	-3.642980e+01	-1.142412e+03
3.500000e-07	-5.026634e-06	-1.734937e-08	-3.588938e+01	-1.136832e+03
3.600000e-07	-4.948775e-06	-1.726601e-08	-3.533348e+01	-1.131017e+03
3.700000e-07	-4.868875e-06	-1.715715e-08	-3.476300e+01	-1.124961e+03
3.800000e-07	-4.787209e-06	-1.707868e-08	-3.417992e+01	-1.118651e+03
3.900000e-07	-4.703953e-06	-1.696722e-08	-3.358549e+01	-1.112076e+03
4.000000e-07	-4.619319e-06	-1.685620e-08	-3.298121e+01	-1.105225e+03
4.100000e-07	-4.533283e-06	-1.674388e-08	-3.236693e+01	-1.098087e+03
4.200000e-07	-4.445769e-06	-1.664245e-08	-3.174209e+01	-1.090653e+03
4.300000e-07	-4.356735e-06	-1.652339e-08	-3.110641e+01	-1.082916e+03
4.400000e-07	-4.266087e-06	-1.639312e-08	-3.045920e+01	-1.074870e+03
4.500000e-07	-4.173805e-06	-1.627686e-08	-2.980032e+01	-1.066508e+03
4.600000e-07	-4.080048e-06	-1.613552e-08	-2.913090e+01	-1.057821e+03
4.700000e-07	-3.984975e-06	-1.599474e-08	-2.845210e+01	-1.048794e+03
4.800000e-07	-3.888451e-06	-1.584957e-08	-2.776294e+01	-1.039410e+03
4.900000e-07	-3.790447e-06	-1.570443e-08	-2.706320e+01	-1.029645e+03
5.000000e-07	-3.690961e-06	-1.554771e-08	-2.635288e+01	-1.019474e+03
5.100000e-07	-3.590088e-06	-1.538124e-08	-2.563267e+01	-1.008867e+03
5.200000e-07	-3.488063e-06	-1.521263e-08	-2.490423e+01	-9.977950e+02
5.300000e-07	-3.384844e-06	-1.503074e-08	-2.416726e+01	-9.862285e+02
5.400000e-07	-3.280261e-06	-1.484542e-08	-2.342055e+01	-9.741402e+02
5.500000e-07	-3.174499e-06	-1.465044e-08	-2.266543e+01	-9.615038e+02
5.600000e-07	-3.067514e-06	-1.445272e-08	-2.190157e+01	-9.482934e+02
5.700000e-07	-2.959266e-06	-1.423965e-08	-2.112870e+01	-9.344813e+02
5.800000e-07	-2.849978e-06	-1.401511e-08	-2.034840e+01	-9.200359e+02
5.900000e-07	-2.739750e-06	-1.378202e-08	-1.956139e+01	-9.049200e+02
6.000000e-07	-2.628604e-06	-1.353645e-08	-1.876782e+01	-8.890894e+02
6.100000e-07	-2.516346e-06	-1.328265e-08	-1.796632e+01	-8.724929e+02
6.200000e-07	-2.403050e-06	-1.301825e-08	-1.715740e+01	-8.550730e+02
6.300000e-07	-2.288788e-06	-1.274083e-08	-1.634159e+01	-8.367674e+02
6.400000e-07	-2.173542e-06	-1.244410e-08	-1.551875e+01	-8.175109e+02
6.500000e-07	-2.057362e-06	-1.213321e-08	-1.468924e+01	-7.972362e+02
6.600000e-07	-1.940355e-06	-1.180556e-08	-1.385383e+01	-7.758739e+02
6.700000e-07	-1.822713e-06	-1.145906e-08	-1.301389e+01	-7.533514e+02
6.800000e-07	-1.704575e-06	-1.109396e-08	-1.217040e+01	-7.295908e+02
6.900000e-07	-1.585950e-06	-1.070777e-08	-1.132343e+01	-7.045068e+02
7.000000e-07	-1.466764e-06	-1.030122e-08	-1.047246e+01	-6.780065e+02
7.100000e-07	-1.346995e-06	-9.870077e-09	-9.617337e+00	-6.499920e+02
7.200000e-07	-1.226726e-06	-9.417268e-09	-8.758632e+00	-6.203672e+02
7.300000e-07	-1.105941e-06	-8.939637e-09	-7.896248e+00	-5.890485e+02
7.400000e-07	-9.847122e-07	-8.434319e-09	-7.030691e+00	-5.559798e+02
7.500000e-07	-8.632293e-07	-7.904155e-09	-6.163322e+00	-5.211489e+02
7.600000e-07	-7.414925e-07	-7.349537e-09	-5.294140e+00	-4.846022e+02
7.700000e-07	-6.195910e-07	-6.766777e-09	-4.423783e+00	-4.464550e+02
7.800000e-07	-4.975605e-07	-6.162113e-09	-3.552504e+00	-4.068934e+02
7.900000e-07	-3.753606e-07	-5.540396e-09	-2.680016e+00	-3.661653e+02
8.000000e-07	-2.530415e-07	-4.903844e-09	-1.806677e+00	-3.245605e+02
8.100000e-07	-1.305884e-07	-4.260345e-09	-9.323805e-01	-2.823810e+02
8.200000e-07	-8.011325e-09	-3.614063e-09	-5.719961e-02	-2.399056e+02
8.300000e-07	1.145852e-07	-2.968579e-09	8.181201e-01	-1.973541e+02
8.400000e-07	2.371193e-07	-2.321941e-09	1.692994e+00	-1.548570e+02
8.500000e-07	3.596254e-07	-1.676270e-09	2.567669e+00	-1.124377e+02
8.600000e-07	4.820898e-07	-1.028661e-09	3.442045e+00	-7.001084e+01
8.700000e-07	6.043913e-07	-3.772788e-10	4.315259e+00	-2.739876e+01
8.800000e-07	7.265349e-07	2.771543e-10	5.187346e+00	1.563517e+01
8.900000e-07	8.484811e-07	9.406955e-10	6.058023e+00	5.934085e+01
9.000000e-07	9.701592e-07	1.616933e-09	6.926785e+00	1.039305e+02
9.100000e-07	1.091548e-06	2.310069e-09	7.793485e+00	1.495303e+02
9.200000e-07	1.212479e-06	3.021491e-09	8.656908e+00	1.961436e+02
9.300000e-07	1.332870e-06	3.745539e-09	9.516482e+00	2.436308e+02
9.400000e-07	1.452672e-06	4.477942e-09	1.037185e+01	2.917099e+02
9.500000e-07	1.571877e-06	5.212042e-09	1.122296e+01	3.399784e+02
9.600000e-07	1.690563e-06	5.941486e-09	1.207036e+01	3.879514e+02
9.700000e-07	1.808658e-06	6.658600e-09	1.291354e+01	4.351106e+02
9.800000e-07	1.926073e-06	7.355543e-09	1.375186e+01	4.809561e+02
9.900000e-07	2.042804e-06	8.026013e-09	1.458530e+01	5.250530e+02
1.000000e-06	2.158684e-06	8.664584e-09	1.541267e+01	5.670660e+02
1.010000e-06	2.273596e-06	9.268302e-09	1.623312e+01	6.067785e+02
1.020000e-06	2.387597e-06	9.835926e-09	1.704707e+01	6.440945e+02
1.030000e-06	2.500530e-06	1.036766e-08	1.785340e+01	6.790253e+02
1.040000e-06	2.612348e-06	1.086400e-08	1.865176e+01	7.116666e+02
1.050000e-06	2.723290e-06	1.132625e-08	1.944387e+01	7.421685e+02
1.060000e-06	2.833343e-06	1.175859e-08	2.022963e+01	7.707071e+02
1.070000e-06	2.942469e-06	1.216245e-08	2.100877e+01	7.974603e+02
1.080000e-06	3.050651e-06	1.254713e-08	2.178117e+01	8.225905e+02
1.090000e-06	3.157728e-06	1.291028e-08	2.254568e+01	8.462370e+02
1.100000e-06	3.263669e-06	1.325183e-08	2.330209e+01	8.685142e+02
1.110000e-06	3.368305e-06	1.357111e-08	2.404917e+01	8.895163e+02
1.120000e-06	3.471627e-06	1.387226e-08	2.478688e+01	9.093236e+02
1.130000e-06	3.573769e-06	1.415658e-08	2.551615e+01	9.280093e+02
1.140000e-06	3.674727e-06	1.442178e-08	2.623697e+01	9.456439e+02
1.150000e-06	3.774478e-06	1.467367e-08	2.694918e+01	9.622974e+02
1.160000e-06	3.872924e-06	1.491175e-08	2.765207e+01	9.780391e+02
1.170000e-06	3.969790e-06	1.513561e-08	2.834368e+01	9.929352e+02
1.180000e-06	4.065109e-06	1.534832e-08	2.902424e+01	1.007047e+03
1.190000e-06	4.159055e-06	1.555172e-08	2.969500e+01	1.020427e+03
1.200000e-06	4.251648e-06	1.574445e-08	3.035610e+01	1.033122e+03
1.210000e-06	4.342913e-06	1.592935e-08	3.100772e+01	1.045171e+03
1.220000e-06	4.432521e-06	1.610288e-08	3.164750e+01	1.056605e+03
1.230000e-06	4.520394e-06	1.626784e-08	3.227491e+01	1.067453e+03
1.240000e-06	4.606647e-06	1.642353e-08	3.289074e+01	1.077742e+03
1.250000e-06	4.691318e-06	1.657281e-08	3.349527e+01	1.087496e+03
1.260000e-06	4.774525e-06	1.671511e-08	3.408936e+01	1.096739e+03
1.270000e-06	4.856000e-06	1.684886e-08	3.467108e+01	1.105491e+03
1.280000e-06	4.935587e-06	1.697483e-08	3.523932e+01	1.113775e+03
1.290000e-06	5.013400e-06	1.709326e-08	3.579489e+01	1.121607e+03
1.300000e-06	5.089336e-06	1.720492e-08	3.633707e+01	1.129007e+03
1.310000e-06	5.163100e-06	1.731116e-08	3.686372e+01	1.135994e+03
1.320000e-06	5.234837e-06	1.741246e-08	3.737592e+01	1.142589e+03
1.330000e-06	5.304785e-06	1.750870e-08	3.787533e+01	1.148816e+03
1.340000e-06	5.372912e-06	1.759822e-08	3.836175e+01	1.154705e+03
1.350000e-06	5.439052e-06	1.768117e-08	3.883398e+01	1.160286e+03
1.360000e-06	5.503107e-06	1.775926e-08	3.929133e+01	1.165591e+03
1.370000e-06	5.565229e-06	1.783490e-08	3.973487e+01	1.170648e+03
1.380000e-06	5.625545e-06	1.790949e-08	4.016551e+01	1.175478e+03
1.390000e-06	5.683911e-06	1.798092e-08	4.058223e+01	1.180098e+03
1.400000e-06	5.740191e-06	1.804985e-08	4.098407e+01	1.184511e+03
1.410000e-06	5.794435e-06	1.811486e-08	4.137136e+01	1.188715e+03
1.420000e-06	5.846388e-06	1.817480e-08	4.174229e+01	1.192702e+03
1.430000e-06	5.895888e-06	1.823039e-08	4.209572e+01	1.196461e+03
1.440000e-06	5.943057e-06	1.828170e-08	4.243250e+01	1.199983e+03
1.450000e-06	5.988161e-06	1.832893e-08	4.275453e+01	1.203263e+03
1.460000e-06	6.031364e-06	1.837378e-08	4.306300e+01	1.206303e+03
1.470000e-06	6.072346e-06	1.841859e-08	4.335560e+01	1.209110e+03
1.480000e-06	6.111034e-06	1.846119e-08	4.363183e+01	1.211697e+03
1.490000e-06	6.147778e-06	1.849775e-08	4.389417e+01	1.214076e+03
1.500000e-06	6.182375e-06	1.852936e-08	4.414119e+01	1.216261e+03
1.510000e-06	6.214614e-06	1.855738e-08	4.437137e+01	1.218259e+03
1.520000e-06	6.244659e-06	1.858226e-08	4.458589e+01	1.220076e+03
1.530000e-06	6.272734e-06	1.860486e-08	4.478634e+01	1.221712e+03
1.540000e-06	6.298514e-06	1.862528e-08	4.497041e+01	1.223169e+03
1.550000e-06	6.321783e-06	1.864396e-08	4.513654e+01	1.224447e+03
1.560000e-06	6.342873e-06	1.866066e-08	4.528712e+01	1.225552e+03
1.570000e-06	6.361908e-06	1.867711e-08	4.542303e+01	1.226490e+03
1.580000e-06	6.378625e-06	1.869333e-08	4.554239e+01	1.227276e+03
1.590000e-06	6.392832e-06	1.870556e-08	4.564382e+01	1.227924e+03
1.600000e-06	6.404616e-06	1.871351e-08	4.572796e+01	1.228446e+03
1.610000e-06	6.413835e-06	1.872000e-08	4.579378e+01	1.228851e+03
1.620000e-06	6.420569e-06	1.872491e-08	4.584186e+01	1.229142e+03
1.630000e-06	6.425225e-06	1.872760e-08	4.587511e+01	1.229315e+03
1.640000e-06	6.427665e-06	1.872782e-08	4.589252e+01	1.229359e+03
1.650000e-06	6.427676e-06	1.872938e-08	4.589260e+01	1.229263e+03
1.660000e-06	6.425506e-06	1.871799e-08	4.587711e+01	1.229018e+03
1.670000e-06	6.421361e-06	1.871273e-08	4.584751e+01	1.228621e+03
1.680000e-06	6.414974e-06	1.871061e-08	4.580191e+01	1.228077e+03
1.690000e-06	6.406379e-06	1.870429e-08	4.574055e+01	1.227402e+03
1.700000e-06	6.395876e-06	1.869624e-08	4.566556e+01	1.226618e+03
1.710000e-06	6.383147e-06	1.868682e-08	4.557467e+01	1.225752e+03
1.720000e-06	6.368106e-06	1.869753e-08	4.546728e+01	1.224825e+03
1.730000e-06	6.351126e-06	1.865904e-08	4.534605e+01	1.223853e+03
1.740000e-06	6.332130e-06	1.852940e-08	4.521042e+01	1.222835e+03
1.750000e-06	6.310210e-06	1.855917e-08	4.505391e+01	1.221756e+03
1.760000e-06	6.284991e-06	1.859871e-08	4.487386e+01	1.220586e+03
1.770000e-06	6.257459e-06	1.852965e-08	4.467728e+01	1.219285e+03
1.780000e-06	6.228105e-06	1.864786e-08	4.446770e+01	1.217811e+03
1.790000e-06	6.197086e-06	1.861787e-08	4.424623e+01	1.216122e+03
1.800000e-06	6.164655e-06	1.842975e-08	4.401468e+01	1.214192e+03
1.810000e-06	6.130214e-06	1.860153e-08	4.376877e+01	1.212006e+03
1.820000e-06	6.093755e-06	1.841479e-08	4.350846e+01	1.209570e+03
1.830000e-06	6.055245e-06	1.828839e-08	4.323350e+01	1.206904e+03
1.840000e-06	6.014208e-06	1.846595e-08	4.294050e+01	1.204041e+03
1.850000e-06	5.971156e-06	1.820524e-08	4.263312e+01	1.201019e+03
1.860000e-06	5.926254e-06	1.827668e-08	4.231253e+01	1.197873e+03
1.870000e-06	5.879083e-06	1.824868e-08	4.197573e+01	1.194631e+03
1.880000e-06	5.829750e-06	1.807370e-08	4.162351e+01	1.191307e+03
1.890000e-06	5.777888e-06	1.819179e-08	4.125322e+01	1.187904e+03
1.900000e-06	5.723474e-06	1.797872e-08	4.086471e+01	1.184409e+03
1.910000e-06	5.666870e-06	1.798329e-08	4.046057e+01	1.180799e+03
1.920000e-06	5.608189e-06	1.799273e-08	4.004159e+01	1.177048e+03
1.930000e-06	5.547715e-06	1.782553e-08	3.960982e+01	1.173127e+03
1.940000e-06	5.485062e-06	1.787303e-08	3.916249e+01	1.169013e+03
1.950000e-06	5.420262e-06	1.770846e-08	3.869982e+01	1.164686e+03
1.960000e-06	5.353538e-06	1.771210e-08	3.822343e+01	1.160137e+03
1.970000e-06	5.284738e-06	1.759542e-08	3.773220e+01	1.155359e+03
1.980000e-06	5.213838e-06	1.748556e-08	3.722599e+01	1.150351e+03
1.990000e-06	5.140950e-06	1.750422e-08	3.670558e+01	1.145115e+03
2.000000e-06	5.066365e-06	1.734179e-08	3.617305e+01	1.139651e+03
2.010000e-06	4.989718e-06	1.732362e-08	3.562581e+01	1.133954e+03
2.020000e-06	4.910880e-06	1.717241e-08	3.506292e+01	1.128020e+03
2.030000e-06	4.830220e-06	1.709189e-08	3.448701e+01	1.121838e+03
2.040000e-06	4.747945e-06	1.702211e-08	3.389959e+01	1.115397e+03
2.050000e-06	4.664173e-06	1.688557e-08	3.330147e+01	1.108686e+03
2.060000e-06	4.578722e-06	1.681998e-08	3.269136e+01	1.101692e+03
2.070000e-06	4.491543e-06	1.668050e-08	3.206892e+01	1.094407e+03
2.080000e-06	4.402748e-06	1.659541e-08	3.143493e+01	1.086822e+03
2.090000e-06	4.312485e-06	1.644098e-08	3.079047e+01	1.078932e+03
2.100000e-06	4.220835e-06	1.632226e-08	3.013610e+01	1.070729e+03
2.110000e-06	4.127689e-06	1.620295e-08	2.947105e+01	1.062206e+03
2.120000e-06	4.033057e-06	1.606028e-08	2.879540e+01	1.053351e+03
2.130000e-06	3.936960e-06	1.592850e-08	2.810928e+01	1.044148e+03
2.140000e-06	3.839424e-06	1.577222e-08	2.741289e+01	1.034577e+03
2.150000e-06	3.740668e-06	1.564177e-08	2.670778e+01	1.024612e+03
2.160000e-06	3.640600e-06	1.547408e-08	2.599331e+01	1.014227e+03
2.170000e-06	3.539034e-06	1.531622e-08	2.526815e+01	1.003391e+03
2.180000e-06	3.436141e-06	1.513720e-08	2.453351e+01	9.920753e+02
2.190000e-06	3.331929e-06	1.496254e-08	2.378945e+01	9.802512e+02
2.200000e-06	3.226443e-06	1.477111e-08	2.303630e+01	9.678921e+02
2.210000e-06	3.119896e-06	1.457475e-08	2.227557e+01	9.549720e+02
2.220000e-06	3.012309e-06	1.437274e-08	2.150742e+01	9.414644e+02
2.230000e-06	2.903624e-06	1.416011e-08	2.073142e+01	9.273399e+02
2.240000e-06	2.793953e-06	1.394351e-08	1.994839e+01	9.125644e+02
2.250000e-06	2.683284e-06	1.370929e-08	1.915822e+01	8.970971e+02
2.260000e-06	2.571485e-06	1.346463e-08	1.836000e+01	8.808904e+02
2.270000e-06	2.458595e-06	1.319718e-08	1.755398e+01	8.638897e+02
2.280000e-06	2.344719e-06	1.292454e-08	1.674092e+01	8.460349e+02
2.290000e-06	2.230036e-06	1.263492e-08	1.592211e+01	8.272621e+02
2.300000e-06	2.114524e-06	1.233793e-08	1.509737e+01	8.075051e+02
2.310000e-06	1.998065e-06	1.202613e-08	1.426587e+01	7.866954e+02
2.320000e-06	1.880681e-06	1.169983e-08	1.342777e+01	7.647624e+02
2.330000e-06	1.762607e-06	1.135098e-08	1.258474e+01	7.416310e+02
2.340000e-06	1.644021e-06	1.097696e-08	1.173805e+01	7.172198e+02
2.350000e-06	1.524801e-06	1.058447e-08	1.088684e+01	6.914397e+02
2.360000e-06	1.404907e-06	1.017055e-08	1.003082e+01	6.641947e+02
2.370000e-06	1.284524e-06	9.734109e-09	9.171299e+00	6.353866e+02
2.380000e-06	1.163792e-06	9.269296e-09	8.309294e+00	6.049239e+02
2.390000e-06	1.042695e-06	8.779791e-09	7.444681e+00	5.727349e+02
2.400000e-06	9.212473e-07	8.260621e-09	6.577562e+00	5.387832e+02
2.410000e-06	7.995394e-07	7.716596e-09	5.708586e+00	5.030845e+02
2.420000e-06	6.775752e-07	7.148678e-09	4.837781e+00	4.657186e+02
2.430000e-06	5.553541e-07	6.556036e-09	3.965142e+00	4.268368e+02
2.440000e-06	4.329491e-07	5.944154e-09	3.091189e+00	3.866577e+02
2.450000e-06	3.104553e-07	5.316020e-09	2.216602e+00	3.454535e+02
2.460000e-06	1.878912e-07	4.675478e-09	1.341514e+00	3.035241e+02
2.470000e-06	6.524317e-08	4.026025e-09	4.658261e-01	2.611648e+02
2.480000e-06	-5.743225e-08	3.375444e-09	-4.100573e-01	2.186289e+02
2.490000e-06	-1.801025e-07	2.724610e-09	-1.285904e+00	1.760947e+02
2.500000e-06	-3.027421e-07	2.075897e-09	-2.161532e+00	1.336405e+02
2.510000e-06	-4.252968e-07	1.432659e-09	-3.036552e+00	9.123448e+01
2.520000e-06	-5.477796e-07	7.871174e-10	-3.911061e+00	4.874185e+01
2.530000e-06	-6.701341e-07	1.329612e-10	-4.784653e+00	5.950421e+00
2.540000e-06	-7.922683e-07	-5.329171e-10	-5.656672e+00	-3.738930e+01
2.550000e-06	-9.141666e-07	-1.211318e-09	-6.527007e+00	-8.151475e+01
2.560000e-06	-1.035776e-06	-1.901043e-09	-7.395281e+00	-1.266007e+02
2.570000e-06	-1.157036e-06	-2.605685e-09	-8.261057e+00	-1.727155e+02
2.580000e-06	-1.277897e-06	-3.323881e-09	-9.123985e+00	-2.197924e+02
2.590000e-06	-1.398288e-06	-4.052676e-09	-9.983557e+00	-2.676190e+02
2.600000e-06	-1.518148e-06	-4.789591e-09	-1.083934e+01	-3.158494e+02
2.610000e-06	-1.637410e-06	-5.526900e-09	-1.169086e+01	-3.640341e+02
2.620000e-06	-1.755983e-06	-6.256519e-09	-1.253744e+01	-4.116650e+02
2.630000e-06	-1.873884e-06	-6.967924e-09	-1.337924e+01	-4.582267e+02
2.640000e-06	-1.990932e-06	-7.655479e-09	-1.421494e+01	-5.032467e+02
2.650000e-06	-2.106975e-06	-8.314020e-09	-1.504347e+01	-5.463364e+02
2.660000e-06	-2.222106e-06	-8.940192e-09	-1.586549e+01	-5.872186e+02
2.670000e-06	-2.336270e-06	-9.532101e-09	-1.668060e+01	-6.257376e+02
2.680000e-06	-2.449468e-06	-1.008719e-08	-1.748882e+01	-6.618537e+02
2.690000e-06	-2.561657e-06	-1.060386e-08	-1.828983e+01	-6.956237e+02
2.700000e-06	-2.672699e-06	-1.108460e-08	-1.908265e+01	-7.271743e+02
2.710000e-06	-2.782685e-06	-1.153491e-08	-1.986793e+01	-7.566719e+02
2.720000e-06	-2.891778e-06	-1.195695e-08	-2.064684e+01	-7.842962e+02
2.730000e-06	-2.999953e-06	-1.235400e-08	-2.141920e+01	-8.102190e+02
2.740000e-06	-3.107230e-06	-1.272838e-08	-2.218514e+01	-8.345915e+02
2.750000e-06	-3.213527e-06	-1.307799e-08	-2.294408e+01	-8.575404e+02
2.760000e-06	-3.318725e-06	-1.340560e-08	-2.369518e+01	-8.791693e+02
2.770000e-06	-3.422716e-06	-1.371726e-08	-2.443766e+01	-8.995646e+02
2.780000e-06	-3.525428e-06	-1.401377e-08	-2.517100e+01	-9.188022e+02
2.790000e-06	-3.626787e-06	-1.429317e-08	-2.589469e+01	-9.369536e+02
2.800000e-06	-3.726779e-06	-1.455390e-08	-2.660862e+01	-9.540889e+02
2.810000e-06	-3.825541e-06	-1.480143e-08	-2.731376e+01	-9.702780e+02
2.820000e-06	-3.923047e-06	-1.503789e-08	-2.800994e+01	-9.855889e+02
2.830000e-06	-4.019282e-06	-1.526160e-08	-2.869705e+01	-1.000085e+03
2.840000e-06	-4.114112e-06	-1.547442e-08	-2.937412e+01	-1.013825e+03
2.850000e-06	-4.207372e-06	-1.567661e-08	-3.003998e+01	-1.026858e+03
2.860000e-06	-4.299171e-06	-1.586760e-08	-3.069541e+01	-1.039225e+03
2.870000e-06	-4.389488e-06	-1.604576e-08	-3.134026e+01	-1.050963e+03
2.880000e-06	-4.478204e-06	-1.621353e-08	-3.197368e+01	-1.062101e+03
2.890000e-06	-4.565269e-06	-1.637308e-08	-3.259531e+01	-1.072666e+03
2.900000e-06	-4.650560e-06	-1.652401e-08	-3.320427e+01	-1.082685e+03
2.910000e-06	-4.734247e-06	-1.666824e-08	-3.380178e+01	-1.092180e+03
2.920000e-06	-4.816404e-06	-1.680765e-08	-3.438837e+01	-1.101175e+03
2.930000e-06	-4.896771e-06	-1.694030e-08	-3.496218e+01	-1.109691e+03
2.940000e-06	-4.975120e-06	-1.706516e-08	-3.552158e+01	-1.117746e+03
