# Temperatura_=_80.64
# Concentracion g/m^3_=_28200.0
# C_Vs_to_Am_M_A/Vsm_=_65563218390.804596
# pendiente_HvsI_1/m_=_3716.3
# ordenada_HvsI_A/m_=_1297.0
# frecuencia_Hz_=_302116.8212772858

Tiempo_(s)	Campo_(V.s)	Magnetizacion_(V.s)	Campo_(kA/m)	Magnetizacion_(A/m)
0.000000e+00	-6.435958e-06	-2.412519e-08	-4.585336e+01	-1.580835e+03
1.000000e-08	-6.432442e-06	-2.412004e-08	-4.582831e+01	-1.580270e+03
2.000000e-08	-6.426859e-06	-2.410638e-08	-4.578853e+01	-1.579515e+03
3.000000e-08	-6.419298e-06	-2.409396e-08	-4.573466e+01	-1.578598e+03
4.000000e-08	-6.409551e-06	-2.407877e-08	-4.566522e+01	-1.577551e+03
5.000000e-08	-6.397422e-06	-2.405900e-08	-4.557881e+01	-1.576399e+03
6.000000e-08	-6.382900e-06	-2.403108e-08	-4.547534e+01	-1.575153e+03
7.000000e-08	-6.366021e-06	-2.399251e-08	-4.535509e+01	-1.573807e+03
8.000000e-08	-6.347204e-06	-2.399320e-08	-4.522103e+01	-1.572341e+03
9.000000e-08	-6.326316e-06	-2.407253e-08	-4.507221e+01	-1.570723e+03
1.000000e-07	-6.302902e-06	-2.400230e-08	-4.490539e+01	-1.568918e+03
1.100000e-07	-6.276834e-06	-2.390266e-08	-4.471967e+01	-1.566898e+03
1.200000e-07	-6.248479e-06	-2.390004e-08	-4.451765e+01	-1.564649e+03
1.300000e-07	-6.218278e-06	-2.381877e-08	-4.430249e+01	-1.562169e+03
1.400000e-07	-6.186533e-06	-2.364767e-08	-4.407631e+01	-1.559473e+03
1.500000e-07	-6.152924e-06	-2.381871e-08	-4.383687e+01	-1.556581e+03
1.600000e-07	-6.117195e-06	-2.378097e-08	-4.358231e+01	-1.553516e+03
1.700000e-07	-6.079671e-06	-2.354916e-08	-4.331497e+01	-1.550295e+03
1.800000e-07	-6.040052e-06	-2.372144e-08	-4.303270e+01	-1.546920e+03
1.900000e-07	-5.997934e-06	-2.353678e-08	-4.273263e+01	-1.543383e+03
2.000000e-07	-5.953638e-06	-2.345298e-08	-4.241704e+01	-1.539665e+03
2.100000e-07	-5.907280e-06	-2.352214e-08	-4.208677e+01	-1.535739e+03
2.200000e-07	-5.858504e-06	-2.333203e-08	-4.173925e+01	-1.531582e+03
2.300000e-07	-5.807221e-06	-2.329888e-08	-4.137388e+01	-1.527177e+03
2.400000e-07	-5.753517e-06	-2.322207e-08	-4.099127e+01	-1.522516e+03
2.500000e-07	-5.697681e-06	-2.311807e-08	-4.059346e+01	-1.517602e+03
2.600000e-07	-5.639698e-06	-2.308715e-08	-4.018036e+01	-1.512445e+03
2.700000e-07	-5.579565e-06	-2.297876e-08	-3.975194e+01	-1.507055e+03
2.800000e-07	-5.517498e-06	-2.289615e-08	-3.930974e+01	-1.501438e+03
2.900000e-07	-5.453403e-06	-2.277060e-08	-3.885309e+01	-1.495594e+03
3.000000e-07	-5.387099e-06	-2.271175e-08	-3.838070e+01	-1.489512e+03
3.100000e-07	-5.318659e-06	-2.262829e-08	-3.789310e+01	-1.483173e+03
3.200000e-07	-5.248348e-06	-2.251954e-08	-3.739216e+01	-1.476557e+03
3.300000e-07	-5.176315e-06	-2.243437e-08	-3.687896e+01	-1.469645e+03
3.400000e-07	-5.102275e-06	-2.226367e-08	-3.635146e+01	-1.462423e+03
3.500000e-07	-5.026125e-06	-2.217600e-08	-3.580892e+01	-1.454887e+03
3.600000e-07	-4.947852e-06	-2.206156e-08	-3.525126e+01	-1.447038e+03
3.700000e-07	-4.867440e-06	-2.193740e-08	-3.467836e+01	-1.438881e+03
3.800000e-07	-4.785352e-06	-2.183210e-08	-3.409352e+01	-1.430419e+03
3.900000e-07	-4.701827e-06	-2.167763e-08	-3.349844e+01	-1.421650e+03
4.000000e-07	-4.616885e-06	-2.152323e-08	-3.289327e+01	-1.412561e+03
4.100000e-07	-4.530510e-06	-2.137193e-08	-3.227789e+01	-1.403132e+03
4.200000e-07	-4.442686e-06	-2.124228e-08	-3.165218e+01	-1.393336e+03
4.300000e-07	-4.353296e-06	-2.108300e-08	-3.101531e+01	-1.383145e+03
4.400000e-07	-4.262206e-06	-2.091476e-08	-3.036634e+01	-1.372535e+03
4.500000e-07	-4.169525e-06	-2.075454e-08	-2.970603e+01	-1.361491e+03
4.600000e-07	-4.075417e-06	-2.056888e-08	-2.903555e+01	-1.350005e+03
4.700000e-07	-3.979962e-06	-2.039122e-08	-2.835547e+01	-1.338076e+03
4.800000e-07	-3.883089e-06	-2.020948e-08	-2.766530e+01	-1.325705e+03
4.900000e-07	-3.784681e-06	-2.002066e-08	-2.696418e+01	-1.312883e+03
5.000000e-07	-3.684795e-06	-1.980848e-08	-2.625254e+01	-1.299595e+03
5.100000e-07	-3.583530e-06	-1.958920e-08	-2.553107e+01	-1.285809e+03
5.200000e-07	-3.481084e-06	-1.936943e-08	-2.480118e+01	-1.271481e+03
5.300000e-07	-3.377606e-06	-1.913584e-08	-2.406395e+01	-1.256559e+03
5.400000e-07	-3.272810e-06	-1.889713e-08	-2.331732e+01	-1.240991e+03
5.500000e-07	-3.166612e-06	-1.864744e-08	-2.256072e+01	-1.224727e+03
5.600000e-07	-3.059120e-06	-1.839164e-08	-2.179488e+01	-1.207729e+03
5.700000e-07	-2.950515e-06	-1.811869e-08	-2.102111e+01	-1.189969e+03
5.800000e-07	-2.840896e-06	-1.783583e-08	-2.024013e+01	-1.171425e+03
5.900000e-07	-2.730312e-06	-1.754366e-08	-1.945227e+01	-1.152072e+03
6.000000e-07	-2.618913e-06	-1.723408e-08	-1.865860e+01	-1.131876e+03
6.100000e-07	-2.506441e-06	-1.690678e-08	-1.785728e+01	-1.110785e+03
6.200000e-07	-2.392760e-06	-1.656500e-08	-1.704736e+01	-1.088727e+03
6.300000e-07	-2.278039e-06	-1.621141e-08	-1.623002e+01	-1.065607e+03
6.400000e-07	-2.162323e-06	-1.583851e-08	-1.540560e+01	-1.041316e+03
6.500000e-07	-2.045691e-06	-1.544613e-08	-1.457464e+01	-1.015737e+03
6.600000e-07	-1.928361e-06	-1.503082e-08	-1.373872e+01	-9.887560e+02
6.700000e-07	-1.810395e-06	-1.459651e-08	-1.289827e+01	-9.602625e+02
6.800000e-07	-1.691889e-06	-1.413989e-08	-1.205396e+01	-9.301542e+02
6.900000e-07	-1.572969e-06	-1.365673e-08	-1.120671e+01	-8.983302e+02
7.000000e-07	-1.453549e-06	-1.314452e-08	-1.035590e+01	-8.646841e+02
7.100000e-07	-1.333556e-06	-1.259660e-08	-9.500999e+00	-8.290975e+02
7.200000e-07	-1.213073e-06	-1.202081e-08	-8.642608e+00	-7.914385e+02
7.300000e-07	-1.092131e-06	-1.141269e-08	-7.780951e+00	-7.515696e+02
7.400000e-07	-9.707332e-07	-1.076885e-08	-6.916046e+00	-7.093654e+02
7.500000e-07	-8.489782e-07	-1.008928e-08	-6.048595e+00	-6.647388e+02
7.600000e-07	-7.269036e-07	-9.374739e-09	-5.178867e+00	-6.176720e+02
7.700000e-07	-6.045541e-07	-8.617170e-09	-4.307181e+00	-5.682426e+02
7.800000e-07	-4.819847e-07	-7.824896e-09	-3.433928e+00	-5.166392e+02
7.900000e-07	-3.593074e-07	-7.011452e-09	-2.559907e+00	-4.631578e+02
8.000000e-07	-2.365122e-07	-6.174970e-09	-1.685045e+00	-4.081765e+02
8.100000e-07	-1.135978e-07	-5.322125e-09	-8.093342e-01	-3.521109e+02
8.200000e-07	9.328702e-09	-4.458933e-09	6.646288e-02	-2.953547e+02
8.300000e-07	1.322839e-07	-3.590794e-09	9.424647e-01	-2.382182e+02
8.400000e-07	2.552419e-07	-2.714739e-09	1.818486e+00	-1.808780e+02
8.500000e-07	3.781187e-07	-1.835838e-09	2.693929e+00	-1.233479e+02
8.600000e-07	5.008667e-07	-9.535581e-10	3.568454e+00	-6.548262e+01
8.700000e-07	6.235231e-07	-6.349065e-11	4.442327e+00	-7.013618e+00
8.800000e-07	7.460265e-07	8.383786e-10	5.315109e+00	5.238504e+01
8.900000e-07	8.683325e-07	1.757850e-09	6.186486e+00	1.130135e+02
9.000000e-07	9.903466e-07	2.699348e-09	7.055782e+00	1.750603e+02
9.100000e-07	1.111989e-06	3.666961e-09	7.922430e+00	2.385313e+02
9.200000e-07	1.233143e-06	4.655190e-09	8.785597e+00	3.032073e+02
9.300000e-07	1.353710e-06	5.654480e-09	9.644584e+00	3.686393e+02
9.400000e-07	1.473711e-06	6.652209e-09	1.049954e+01	4.341830e+02
9.500000e-07	1.593061e-06	7.637646e-09	1.134986e+01	4.990667e+02
9.600000e-07	1.711838e-06	8.599351e-09	1.219609e+01	5.624793e+02
9.700000e-07	1.830103e-06	9.524974e-09	1.303867e+01	6.236622e+02
9.800000e-07	1.947741e-06	1.040732e-08	1.387679e+01	6.819899e+02
9.900000e-07	2.064615e-06	1.124275e-08	1.470947e+01	7.370248e+02
1.000000e-06	2.180649e-06	1.202526e-08	1.553616e+01	7.885398e+02
1.010000e-06	2.295803e-06	1.275090e-08	1.635658e+01	8.365078e+02
1.020000e-06	2.410027e-06	1.342763e-08	1.717038e+01	8.810646e+02
1.030000e-06	2.523101e-06	1.405852e-08	1.797598e+01	9.224554e+02
1.040000e-06	2.634941e-06	1.464744e-08	1.877279e+01	9.609769e+02
1.050000e-06	2.745817e-06	1.519356e-08	1.956273e+01	9.969280e+02
1.060000e-06	2.855825e-06	1.570275e-08	2.034649e+01	1.030574e+03
1.070000e-06	2.964965e-06	1.617627e-08	2.112407e+01	1.062132e+03
1.080000e-06	3.073214e-06	1.662167e-08	2.189530e+01	1.091769e+03
1.090000e-06	3.180455e-06	1.704451e-08	2.265934e+01	1.119617e+03
1.100000e-06	3.286591e-06	1.744513e-08	2.341551e+01	1.145791e+03
1.110000e-06	3.391352e-06	1.782278e-08	2.416188e+01	1.170400e+03
1.120000e-06	3.494714e-06	1.817863e-08	2.489829e+01	1.193562e+03
1.130000e-06	3.596865e-06	1.851371e-08	2.562608e+01	1.215401e+03
1.140000e-06	3.697835e-06	1.882722e-08	2.634544e+01	1.236041e+03
1.150000e-06	3.797511e-06	1.912392e-08	2.705559e+01	1.255597e+03
1.160000e-06	3.895905e-06	1.940407e-08	2.775660e+01	1.274165e+03
1.170000e-06	3.992814e-06	1.967057e-08	2.844704e+01	1.291817e+03
1.180000e-06	4.088113e-06	1.992281e-08	2.912600e+01	1.308599e+03
1.190000e-06	4.182060e-06	2.016574e-08	2.979533e+01	1.324544e+03
1.200000e-06	4.274645e-06	2.039684e-08	3.045496e+01	1.339675e+03
1.210000e-06	4.365871e-06	2.061799e-08	3.110490e+01	1.354020e+03
1.220000e-06	4.455501e-06	2.082628e-08	3.174348e+01	1.367618e+03
1.230000e-06	4.543275e-06	2.102308e-08	3.236883e+01	1.380522e+03
1.240000e-06	4.629411e-06	2.120894e-08	3.298251e+01	1.392793e+03
1.250000e-06	4.714027e-06	2.138478e-08	3.358536e+01	1.404495e+03
1.260000e-06	4.797154e-06	2.155327e-08	3.417761e+01	1.415685e+03
1.270000e-06	4.878553e-06	2.171497e-08	3.475754e+01	1.426402e+03
1.280000e-06	4.958011e-06	2.187224e-08	3.532364e+01	1.436664e+03
1.290000e-06	5.035667e-06	2.202497e-08	3.587690e+01	1.446471e+03
1.300000e-06	5.111363e-06	2.217124e-08	3.641620e+01	1.455807e+03
1.310000e-06	5.184939e-06	2.230955e-08	3.694041e+01	1.464653e+03
1.320000e-06	5.256527e-06	2.243824e-08	3.745043e+01	1.472998e+03
1.330000e-06	5.326291e-06	2.255844e-08	3.794747e+01	1.480844e+03
1.340000e-06	5.394214e-06	2.267015e-08	3.843139e+01	1.488213e+03
1.350000e-06	5.460176e-06	2.277354e-08	3.890134e+01	1.495142e+03
1.360000e-06	5.524110e-06	2.287105e-08	3.935685e+01	1.501681e+03
1.370000e-06	5.586118e-06	2.296603e-08	3.979862e+01	1.507881e+03
1.380000e-06	5.646295e-06	2.305996e-08	4.022736e+01	1.513785e+03
1.390000e-06	5.704545e-06	2.314877e-08	4.064237e+01	1.519426e+03
1.400000e-06	5.760683e-06	2.323348e-08	4.104233e+01	1.524820e+03
1.410000e-06	5.814668e-06	2.331315e-08	4.142694e+01	1.529970e+03
1.420000e-06	5.866399e-06	2.338756e-08	4.179551e+01	1.534870e+03
1.430000e-06	5.915601e-06	2.345667e-08	4.214604e+01	1.539511e+03
1.440000e-06	5.962527e-06	2.352084e-08	4.248037e+01	1.543888e+03
1.450000e-06	6.007529e-06	2.358229e-08	4.280099e+01	1.548001e+03
1.460000e-06	6.050517e-06	2.364212e-08	4.310727e+01	1.551858e+03
1.470000e-06	6.091175e-06	2.370013e-08	4.339693e+01	1.555467e+03
1.480000e-06	6.129574e-06	2.375481e-08	4.367051e+01	1.558837e+03
1.490000e-06	6.166065e-06	2.380388e-08	4.393049e+01	1.561971e+03
1.500000e-06	6.200446e-06	2.384742e-08	4.417544e+01	1.564864e+03
1.510000e-06	6.232503e-06	2.388567e-08	4.440383e+01	1.567507e+03
1.520000e-06	6.262350e-06	2.391973e-08	4.461648e+01	1.569888e+03
1.530000e-06	6.290130e-06	2.395047e-08	4.481440e+01	1.571998e+03
1.540000e-06	6.315555e-06	2.397728e-08	4.499554e+01	1.573837e+03
1.550000e-06	6.338502e-06	2.400054e-08	4.515903e+01	1.575416e+03
1.560000e-06	6.359325e-06	2.402031e-08	4.530738e+01	1.576755e+03
1.570000e-06	6.378050e-06	2.404031e-08	4.544079e+01	1.577884e+03
1.580000e-06	6.394425e-06	2.405963e-08	4.555745e+01	1.578833e+03
1.590000e-06	6.408362e-06	2.407382e-08	4.565675e+01	1.579627e+03
1.600000e-06	6.419798e-06	2.408236e-08	4.573823e+01	1.580279e+03
1.610000e-06	6.428640e-06	2.408833e-08	4.580122e+01	1.580788e+03
1.620000e-06	6.435101e-06	2.409545e-08	4.584725e+01	1.581139e+03
1.630000e-06	6.439467e-06	2.410045e-08	4.587836e+01	1.581311e+03
1.640000e-06	6.441466e-06	2.410173e-08	4.589260e+01	1.581282e+03
1.650000e-06	6.441039e-06	2.410162e-08	4.588956e+01	1.581038e+03
1.660000e-06	6.438589e-06	2.408615e-08	4.587211e+01	1.580578e+03
1.670000e-06	6.434164e-06	2.407931e-08	4.584058e+01	1.579915e+03
1.680000e-06	6.427451e-06	2.407138e-08	4.579275e+01	1.579074e+03
1.690000e-06	6.418548e-06	2.405881e-08	4.572932e+01	1.578089e+03
1.700000e-06	6.407759e-06	2.404671e-08	4.565246e+01	1.576987e+03
1.710000e-06	6.394676e-06	2.403362e-08	4.555924e+01	1.575787e+03
1.720000e-06	6.379294e-06	2.404367e-08	4.544965e+01	1.574494e+03
1.730000e-06	6.362007e-06	2.397358e-08	4.532649e+01	1.573091e+03
1.740000e-06	6.342593e-06	2.383441e-08	4.518817e+01	1.571553e+03
1.750000e-06	6.320164e-06	2.387932e-08	4.502838e+01	1.569846e+03
1.760000e-06	6.294527e-06	2.389420e-08	4.484572e+01	1.567936e+03
1.770000e-06	6.266688e-06	2.380788e-08	4.464739e+01	1.565803e+03
1.780000e-06	6.237036e-06	2.395327e-08	4.443613e+01	1.563437e+03
1.790000e-06	6.205781e-06	2.388005e-08	4.421345e+01	1.560847e+03
1.800000e-06	6.173092e-06	2.365989e-08	4.398055e+01	1.558050e+03
1.810000e-06	6.138317e-06	2.380481e-08	4.373280e+01	1.555069e+03
1.820000e-06	6.101476e-06	2.354759e-08	4.347033e+01	1.551925e+03
1.830000e-06	6.062519e-06	2.353045e-08	4.319277e+01	1.548627e+03
1.840000e-06	6.021114e-06	2.372274e-08	4.289778e+01	1.545173e+03
1.850000e-06	5.977776e-06	2.336754e-08	4.258901e+01	1.541548e+03
1.860000e-06	5.932337e-06	2.347062e-08	4.226528e+01	1.537729e+03
1.870000e-06	5.884633e-06	2.340200e-08	4.192542e+01	1.533691e+03
1.880000e-06	5.834940e-06	2.324896e-08	4.157137e+01	1.529411e+03
1.890000e-06	5.782669e-06	2.337443e-08	4.119896e+01	1.524878e+03
1.900000e-06	5.727773e-06	2.309820e-08	4.080786e+01	1.520090e+03
1.910000e-06	5.670680e-06	2.311569e-08	4.040109e+01	1.515053e+03
1.920000e-06	5.611700e-06	2.306579e-08	3.998088e+01	1.509778e+03
1.930000e-06	5.550846e-06	2.291461e-08	3.954733e+01	1.504274e+03
1.940000e-06	5.487675e-06	2.294070e-08	3.909726e+01	1.498545e+03
1.950000e-06	5.422427e-06	2.271306e-08	3.863240e+01	1.492584e+03
1.960000e-06	5.355302e-06	2.272671e-08	3.815417e+01	1.486376e+03
1.970000e-06	5.286138e-06	2.254844e-08	3.766140e+01	1.479901e+03
1.980000e-06	5.214862e-06	2.243988e-08	3.715359e+01	1.473139e+03
1.990000e-06	5.141627e-06	2.242377e-08	3.663182e+01	1.466073e+03
2.000000e-06	5.066587e-06	2.222894e-08	3.609720e+01	1.458695e+03
2.010000e-06	4.989390e-06	2.219160e-08	3.554720e+01	1.451001e+03
2.020000e-06	4.910031e-06	2.196954e-08	3.498181e+01	1.442998e+03
2.030000e-06	4.828880e-06	2.188007e-08	3.440364e+01	1.434688e+03
2.040000e-06	4.746199e-06	2.177078e-08	3.381457e+01	1.426074e+03
2.050000e-06	4.662047e-06	2.162227e-08	3.321503e+01	1.417147e+03
2.060000e-06	4.576161e-06	2.151425e-08	3.260313e+01	1.407891e+03
2.070000e-06	4.488530e-06	2.132535e-08	3.197880e+01	1.398282e+03
2.080000e-06	4.399288e-06	2.121036e-08	3.134298e+01	1.388291e+03
2.090000e-06	4.308631e-06	2.101082e-08	3.069709e+01	1.377893e+03
2.100000e-06	4.216651e-06	2.087155e-08	3.004178e+01	1.367068e+03
2.110000e-06	4.123122e-06	2.069873e-08	2.937542e+01	1.355803e+03
2.120000e-06	4.028041e-06	2.051360e-08	2.869802e+01	1.344096e+03
2.130000e-06	3.931537e-06	2.032848e-08	2.801046e+01	1.331946e+03
2.140000e-06	3.833628e-06	2.012570e-08	2.731291e+01	1.319351e+03
2.150000e-06	3.734519e-06	1.994902e-08	2.660680e+01	1.306299e+03
2.160000e-06	3.634111e-06	1.973493e-08	2.589144e+01	1.292767e+03
2.170000e-06	3.532176e-06	1.953711e-08	2.516520e+01	1.278716e+03
2.180000e-06	3.428798e-06	1.930138e-08	2.442867e+01	1.264098e+03
2.190000e-06	3.324129e-06	1.907432e-08	2.368295e+01	1.248859e+03
2.200000e-06	3.218305e-06	1.882577e-08	2.292900e+01	1.232948e+03
2.210000e-06	3.111374e-06	1.858121e-08	2.216717e+01	1.216322e+03
2.220000e-06	3.003417e-06	1.832027e-08	2.139802e+01	1.198946e+03
2.230000e-06	2.894337e-06	1.804055e-08	2.062088e+01	1.180797e+03
2.240000e-06	2.784194e-06	1.775440e-08	1.983615e+01	1.161851e+03
2.250000e-06	2.673012e-06	1.745469e-08	1.904403e+01	1.142082e+03
2.260000e-06	2.560740e-06	1.714617e-08	1.824414e+01	1.121446e+03
2.270000e-06	2.447469e-06	1.681305e-08	1.743713e+01	1.099883e+03
2.280000e-06	2.333226e-06	1.647191e-08	1.662321e+01	1.077306e+03
2.290000e-06	2.218131e-06	1.610500e-08	1.580321e+01	1.053615e+03
2.300000e-06	2.102150e-06	1.572785e-08	1.497689e+01	1.028695e+03
2.310000e-06	1.985205e-06	1.533119e-08	1.414371e+01	1.002429e+03
2.320000e-06	1.867365e-06	1.491745e-08	1.330415e+01	9.747048e+02
2.330000e-06	1.748836e-06	1.447462e-08	1.245968e+01	9.454165e+02
2.340000e-06	1.629725e-06	1.400128e-08	1.161107e+01	9.144631e+02
2.350000e-06	1.509990e-06	1.350016e-08	1.075801e+01	8.817420e+02
2.360000e-06	1.389774e-06	1.296932e-08	9.901526e+00	8.471414e+02
2.370000e-06	1.269168e-06	1.241111e-08	9.042258e+00	8.105357e+02
2.380000e-06	1.148170e-06	1.181892e-08	8.180207e+00	7.717887e+02
2.390000e-06	1.026816e-06	1.119208e-08	7.315612e+00	7.307661e+02
2.400000e-06	9.050815e-07	1.052679e-08	6.448307e+00	6.873580e+02
2.410000e-06	7.830275e-07	9.829436e-09	5.578725e+00	6.415081e+02
2.420000e-06	6.607629e-07	9.099383e-09	4.707644e+00	5.932435e+02
2.430000e-06	5.383051e-07	8.332646e-09	3.835186e+00	5.426965e+02
2.440000e-06	4.156274e-07	7.533259e-09	2.961162e+00	4.901111e+02
2.450000e-06	2.928791e-07	6.703959e-09	2.086634e+00	4.358289e+02
2.460000e-06	1.700576e-07	5.851257e-09	1.211586e+00	3.802534e+02
2.470000e-06	4.711255e-08	4.985047e-09	3.356561e-01	3.237971e+02
2.480000e-06	-7.582752e-08	4.113408e-09	-5.402376e-01	2.668193e+02
2.490000e-06	-1.987289e-07	3.239262e-09	-1.415856e+00	2.095687e+02
2.500000e-06	-3.215913e-07	2.362343e-09	-2.291196e+00	1.521423e+02
2.510000e-06	-4.444090e-07	1.482805e-09	-3.166218e+00	9.447172e+01
2.520000e-06	-5.671055e-07	5.944761e-10	-4.040377e+00	3.634353e+01
2.530000e-06	-6.896462e-07	-3.049823e-10	-4.913425e+00	-2.254911e+01
2.540000e-06	-8.120013e-07	-1.221238e-09	-5.785151e+00	-8.253019e+01
2.550000e-06	-9.340820e-07	-2.157941e-09	-6.654922e+00	-1.438543e+02
2.560000e-06	-1.055820e-06	-3.114027e-09	-7.522251e+00	-2.066259e+02
2.570000e-06	-1.177182e-06	-4.093202e-09	-8.386903e+00	-2.707416e+02
2.580000e-06	-1.298121e-06	-5.089898e-09	-9.248539e+00	-3.358652e+02
2.590000e-06	-1.418582e-06	-6.095515e-09	-1.010677e+01	-4.014434e+02
2.600000e-06	-1.538502e-06	-7.099074e-09	-1.096115e+01	-4.667582e+02
2.610000e-06	-1.657859e-06	-8.084091e-09	-1.181151e+01	-5.310066e+02
2.620000e-06	-1.776657e-06	-9.039317e-09	-1.265790e+01	-5.933924e+02
2.630000e-06	-1.894758e-06	-9.953934e-09	-1.349931e+01	-6.532151e+02
2.640000e-06	-2.011952e-06	-1.082190e-08	-1.433427e+01	-7.099381e+02
2.650000e-06	-2.128134e-06	-1.163780e-08	-1.516202e+01	-7.632284e+02
2.660000e-06	-2.243342e-06	-1.239700e-08	-1.598282e+01	-8.129620e+02
2.670000e-06	-2.357667e-06	-1.310590e-08	-1.679733e+01	-8.591992e+02
2.680000e-06	-2.471055e-06	-1.376664e-08	-1.760518e+01	-9.021378e+02
2.690000e-06	-2.583426e-06	-1.438149e-08	-1.840577e+01	-9.420557e+02
2.700000e-06	-2.694604e-06	-1.495609e-08	-1.919787e+01	-9.792561e+02
2.710000e-06	-2.804649e-06	-1.549269e-08	-1.998189e+01	-1.014025e+03
2.720000e-06	-2.913852e-06	-1.599248e-08	-2.075991e+01	-1.046603e+03
2.730000e-06	-3.022092e-06	-1.645670e-08	-2.153107e+01	-1.077182e+03
2.740000e-06	-3.129393e-06	-1.689245e-08	-2.229555e+01	-1.105910e+03
2.750000e-06	-3.235792e-06	-1.730073e-08	-2.305359e+01	-1.132907e+03
2.760000e-06	-3.341000e-06	-1.768642e-08	-2.380315e+01	-1.158284e+03
2.770000e-06	-3.444928e-06	-1.805390e-08	-2.454359e+01	-1.182155e+03
2.780000e-06	-3.547681e-06	-1.840080e-08	-2.527566e+01	-1.204639e+03
2.790000e-06	-3.649099e-06	-1.872802e-08	-2.599822e+01	-1.225864e+03
2.800000e-06	-3.749125e-06	-1.903740e-08	-2.671086e+01	-1.245948e+03
2.810000e-06	-3.847939e-06	-1.933223e-08	-2.741487e+01	-1.265000e+03
2.820000e-06	-3.945544e-06	-1.960808e-08	-2.811026e+01	-1.283102e+03
2.830000e-06	-4.041766e-06	-1.986556e-08	-2.879580e+01	-1.300314e+03
2.840000e-06	-4.136575e-06	-2.011071e-08	-2.947127e+01	-1.316675e+03
2.850000e-06	-4.229788e-06	-2.034628e-08	-3.013537e+01	-1.332210e+03
2.860000e-06	-4.321446e-06	-2.057331e-08	-3.078839e+01	-1.346944e+03
2.870000e-06	-4.411710e-06	-2.079047e-08	-3.143148e+01	-1.360910e+03
2.880000e-06	-4.500264e-06	-2.099599e-08	-3.206239e+01	-1.374153e+03
2.890000e-06	-4.587294e-06	-2.119121e-08	-3.268245e+01	-1.386732e+03
2.900000e-06	-4.672633e-06	-2.137632e-08	-3.329045e+01	-1.398711e+03
2.910000e-06	-4.756207e-06	-2.154964e-08	-3.388587e+01	-1.410151e+03
2.920000e-06	-4.838274e-06	-2.171497e-08	-3.447057e+01	-1.421101e+03
2.930000e-06	-4.918583e-06	-2.187323e-08	-3.504273e+01	-1.431590e+03
2.940000e-06	-4.996995e-06	-2.202362e-08	-3.560138e+01	-1.441625e+03
