# Temperatura_=_51.23
# Concentracion g/m^3_=_28200.0
# C_Vs_to_Am_M_A/Vsm_=_65563218390.804596
# pendiente_HvsI_1/m_=_3716.3
# ordenada_HvsI_A/m_=_1297.0
# frecuencia_Hz_=_302121.12703487003

Tiempo_(s)	Campo_(V.s)	Magnetizacion_(V.s)	Campo_(kA/m)	Magnetizacion_(A/m)
0.000000e+00	-6.444472e-06	-2.074754e-08	-4.585223e+01	-1.362266e+03
1.000000e-08	-6.441098e-06	-2.074221e-08	-4.582823e+01	-1.361886e+03
2.000000e-08	-6.435683e-06	-2.073010e-08	-4.578970e+01	-1.361296e+03
3.000000e-08	-6.428404e-06	-2.072201e-08	-4.573791e+01	-1.360517e+03
4.000000e-08	-6.418992e-06	-2.070957e-08	-4.567094e+01	-1.359594e+03
5.000000e-08	-6.407074e-06	-2.069049e-08	-4.558614e+01	-1.358585e+03
6.000000e-08	-6.392667e-06	-2.066388e-08	-4.548364e+01	-1.357546e+03
7.000000e-08	-6.376050e-06	-2.063241e-08	-4.536541e+01	-1.356519e+03
8.000000e-08	-6.357580e-06	-2.063346e-08	-4.523400e+01	-1.355510e+03
9.000000e-08	-6.336909e-06	-2.072357e-08	-4.508692e+01	-1.354485e+03
1.000000e-07	-6.313693e-06	-2.066923e-08	-4.492174e+01	-1.353373e+03
1.100000e-07	-6.287820e-06	-2.056901e-08	-4.473766e+01	-1.352071e+03
1.200000e-07	-6.259602e-06	-2.056312e-08	-4.453689e+01	-1.350470e+03
1.300000e-07	-6.229541e-06	-2.048747e-08	-4.432301e+01	-1.348467e+03
1.400000e-07	-6.197986e-06	-2.029302e-08	-4.409849e+01	-1.345996e+03
1.500000e-07	-6.164643e-06	-2.046685e-08	-4.386126e+01	-1.343035e+03
1.600000e-07	-6.129109e-06	-2.047362e-08	-4.360843e+01	-1.339619e+03
1.700000e-07	-6.091634e-06	-2.022908e-08	-4.334180e+01	-1.335826e+03
1.800000e-07	-6.052088e-06	-2.041265e-08	-4.306043e+01	-1.331771e+03
1.900000e-07	-6.010193e-06	-2.025825e-08	-4.276235e+01	-1.327580e+03
2.000000e-07	-5.966114e-06	-2.016134e-08	-4.244873e+01	-1.323369e+03
2.100000e-07	-5.919974e-06	-2.025761e-08	-4.212045e+01	-1.319223e+03
2.200000e-07	-5.871464e-06	-2.010264e-08	-4.177530e+01	-1.315186e+03
2.300000e-07	-5.820356e-06	-2.006244e-08	-4.141166e+01	-1.311255e+03
2.400000e-07	-5.766796e-06	-1.998767e-08	-4.103059e+01	-1.307385e+03
2.500000e-07	-5.711051e-06	-1.990478e-08	-4.063396e+01	-1.303504e+03
2.600000e-07	-5.653139e-06	-1.989173e-08	-4.022192e+01	-1.299531e+03
2.700000e-07	-5.593146e-06	-1.980274e-08	-3.979507e+01	-1.295387e+03
2.800000e-07	-5.531240e-06	-1.975349e-08	-3.935461e+01	-1.291013e+03
2.900000e-07	-5.467180e-06	-1.964286e-08	-3.889883e+01	-1.286374e+03
3.000000e-07	-5.400993e-06	-1.958164e-08	-3.842791e+01	-1.281461e+03
3.100000e-07	-5.332805e-06	-1.951134e-08	-3.794275e+01	-1.276283e+03
3.200000e-07	-5.262666e-06	-1.942791e-08	-3.744372e+01	-1.270859e+03
3.300000e-07	-5.190776e-06	-1.937571e-08	-3.693222e+01	-1.265208e+03
3.400000e-07	-5.116909e-06	-1.923851e-08	-3.640666e+01	-1.259342e+03
3.500000e-07	-5.040872e-06	-1.916574e-08	-3.586566e+01	-1.253260e+03
3.600000e-07	-4.962646e-06	-1.906199e-08	-3.530908e+01	-1.246947e+03
3.700000e-07	-4.882417e-06	-1.895348e-08	-3.473826e+01	-1.240380e+03
3.800000e-07	-4.800501e-06	-1.887406e-08	-3.415542e+01	-1.233532e+03
3.900000e-07	-4.717029e-06	-1.875440e-08	-3.356152e+01	-1.226378e+03
4.000000e-07	-4.632045e-06	-1.862347e-08	-3.295687e+01	-1.218901e+03
4.100000e-07	-4.545638e-06	-1.848887e-08	-3.234208e+01	-1.211092e+03
4.200000e-07	-4.457864e-06	-1.838260e-08	-3.171757e+01	-1.202953e+03
4.300000e-07	-4.368478e-06	-1.825557e-08	-3.108160e+01	-1.194487e+03
4.400000e-07	-4.277429e-06	-1.811468e-08	-3.043378e+01	-1.185699e+03
4.500000e-07	-4.184802e-06	-1.798644e-08	-2.977475e+01	-1.176588e+03
4.600000e-07	-4.090648e-06	-1.783359e-08	-2.910484e+01	-1.167145e+03
4.700000e-07	-3.995115e-06	-1.768058e-08	-2.842513e+01	-1.157350e+03
4.800000e-07	-3.898118e-06	-1.752446e-08	-2.773500e+01	-1.147174e+03
4.900000e-07	-3.799698e-06	-1.736962e-08	-2.703474e+01	-1.136581e+03
5.000000e-07	-3.699900e-06	-1.719649e-08	-2.632468e+01	-1.125533e+03
5.100000e-07	-3.598728e-06	-1.701060e-08	-2.560484e+01	-1.113993e+03
5.200000e-07	-3.496373e-06	-1.682542e-08	-2.487659e+01	-1.101930e+03
5.300000e-07	-3.392822e-06	-1.662911e-08	-2.413983e+01	-1.089317e+03
5.400000e-07	-3.287929e-06	-1.642941e-08	-2.339352e+01	-1.076131e+03
5.500000e-07	-3.181695e-06	-1.621537e-08	-2.263767e+01	-1.062352e+03
5.600000e-07	-3.074225e-06	-1.599648e-08	-2.187302e+01	-1.047960e+03
5.700000e-07	-2.965554e-06	-1.576412e-08	-2.109983e+01	-1.032925e+03
5.800000e-07	-2.855842e-06	-1.552244e-08	-2.031924e+01	-1.017213e+03
5.900000e-07	-2.745217e-06	-1.527289e-08	-1.953214e+01	-1.000777e+03
6.000000e-07	-2.633693e-06	-1.500745e-08	-1.873865e+01	-9.835611e+02
6.100000e-07	-2.521110e-06	-1.472770e-08	-1.793763e+01	-9.654998e+02
6.200000e-07	-2.407291e-06	-1.443277e-08	-1.712781e+01	-9.465231e+02
6.300000e-07	-2.292404e-06	-1.412642e-08	-1.631039e+01	-9.265581e+02
6.400000e-07	-2.176616e-06	-1.380274e-08	-1.548656e+01	-9.055319e+02
6.500000e-07	-2.059954e-06	-1.346589e-08	-1.465652e+01	-8.833718e+02
6.600000e-07	-1.942587e-06	-1.310663e-08	-1.382145e+01	-8.600044e+02
6.700000e-07	-1.824576e-06	-1.272370e-08	-1.298181e+01	-8.353519e+02
6.800000e-07	-1.705961e-06	-1.232173e-08	-1.213786e+01	-8.093280e+02
6.900000e-07	-1.586884e-06	-1.189888e-08	-1.129064e+01	-7.818338e+02
7.000000e-07	-1.467371e-06	-1.145791e-08	-1.044030e+01	-7.527569e+02
7.100000e-07	-1.347392e-06	-1.098697e-08	-9.586655e+00	-7.219738e+02
7.200000e-07	-1.226794e-06	-1.048721e-08	-8.728605e+00	-6.893584e+02
7.300000e-07	-1.105628e-06	-9.956466e-09	-7.866512e+00	-6.547958e+02
7.400000e-07	-9.840094e-07	-9.395138e-09	-7.001199e+00	-6.182017e+02
7.500000e-07	-8.620191e-07	-8.806592e-09	-6.133241e+00	-5.795424e+02
7.600000e-07	-7.397348e-07	-8.190592e-09	-5.263191e+00	-5.388547e+02
7.700000e-07	-6.171593e-07	-7.541877e-09	-4.391071e+00	-4.962586e+02
7.800000e-07	-4.944380e-07	-6.864259e-09	-3.517912e+00	-4.519599e+02
7.900000e-07	-3.716590e-07	-6.165980e-09	-2.644343e+00	-4.062400e+02
8.000000e-07	-2.488205e-07	-5.449478e-09	-1.770350e+00	-3.594312e+02
8.100000e-07	-1.258508e-07	-4.724502e-09	-8.954250e-01	-3.118813e+02
8.200000e-07	-2.752716e-09	-3.994283e-09	-1.958549e-02	-2.639095e+02
8.300000e-07	1.203485e-07	-3.264480e-09	8.562762e-01	-2.157633e+02
8.400000e-07	2.434328e-07	-2.531429e-09	1.732018e+00	-1.675831e+02
8.500000e-07	3.664676e-07	-1.797281e-09	2.607407e+00	-1.193817e+02
8.600000e-07	4.894404e-07	-1.060739e-09	3.482354e+00	-7.104492e+01
8.700000e-07	6.122734e-07	-3.194237e-10	4.356307e+00	-2.235482e+01
8.800000e-07	7.349052e-07	4.320681e-10	5.228829e+00	2.696611e+01
8.900000e-07	8.573878e-07	1.198358e-09	6.100290e+00	7.719677e+01
9.000000e-07	9.796190e-07	1.979275e-09	6.969961e+00	1.285540e+02
9.100000e-07	1.101487e-06	2.780490e-09	7.837046e+00	1.811350e+02
9.200000e-07	1.222884e-06	3.599421e-09	8.700788e+00	2.348761e+02
9.300000e-07	1.343614e-06	4.434094e-09	9.559771e+00	2.895346e+02
9.400000e-07	1.463735e-06	5.275433e-09	1.041444e+01	3.446992e+02
9.500000e-07	1.583296e-06	6.114695e-09	1.126511e+01	3.998254e+02
9.600000e-07	1.702308e-06	6.941861e-09	1.211188e+01	4.542908e+02
9.700000e-07	1.820798e-06	7.748428e-09	1.295492e+01	5.074620e+02
9.800000e-07	1.938648e-06	8.525927e-09	1.379342e+01	5.587594e+02
9.900000e-07	2.055774e-06	9.268944e-09	1.462677e+01	6.077116e+02
1.000000e-06	2.172068e-06	9.977525e-09	1.545420e+01	6.539911e+02
1.010000e-06	2.287427e-06	1.064027e-08	1.627498e+01	6.974267e+02
1.020000e-06	2.401879e-06	1.125721e-08	1.708930e+01	7.379936e+02
1.030000e-06	2.515274e-06	1.182884e-08	1.789610e+01	7.757865e+02
1.040000e-06	2.627407e-06	1.236562e-08	1.869393e+01	8.109813e+02
1.050000e-06	2.738516e-06	1.286696e-08	1.948447e+01	8.437953e+02
1.060000e-06	2.848817e-06	1.333465e-08	2.026925e+01	8.744522e+02
1.070000e-06	2.958237e-06	1.377241e-08	2.104777e+01	9.031578e+02
1.080000e-06	3.066663e-06	1.418205e-08	2.181922e+01	9.300870e+02
1.090000e-06	3.174081e-06	1.456664e-08	2.258349e+01	9.553826e+02
1.100000e-06	3.280432e-06	1.492723e-08	2.334018e+01	9.791624e+02
1.110000e-06	3.385470e-06	1.526863e-08	2.408752e+01	1.001528e+03
1.120000e-06	3.489092e-06	1.559226e-08	2.482479e+01	1.022577e+03
1.130000e-06	3.591511e-06	1.589743e-08	2.555350e+01	1.042404e+03
1.140000e-06	3.692754e-06	1.618122e-08	2.627384e+01	1.061105e+03
1.150000e-06	3.792797e-06	1.644845e-08	2.698564e+01	1.078774e+03
1.160000e-06	3.891551e-06	1.669919e-08	2.768827e+01	1.095496e+03
1.170000e-06	3.988725e-06	1.693753e-08	2.837966e+01	1.111343e+03
1.180000e-06	4.084330e-06	1.716594e-08	2.905989e+01	1.126372e+03
1.190000e-06	4.178499e-06	1.738464e-08	2.972990e+01	1.140625e+03
1.200000e-06	4.271293e-06	1.758984e-08	3.039013e+01	1.154135e+03
1.210000e-06	4.362820e-06	1.778495e-08	3.104134e+01	1.166931e+03
1.220000e-06	4.452749e-06	1.796835e-08	3.168118e+01	1.179045e+03
1.230000e-06	4.540802e-06	1.814225e-08	3.230768e+01	1.190516e+03
1.240000e-06	4.627191e-06	1.830770e-08	3.292233e+01	1.201387e+03
1.250000e-06	4.712041e-06	1.846582e-08	3.352604e+01	1.211706e+03
1.260000e-06	4.795436e-06	1.861793e-08	3.411939e+01	1.221515e+03
1.270000e-06	4.877111e-06	1.876296e-08	3.470050e+01	1.230851e+03
1.280000e-06	4.956868e-06	1.889993e-08	3.526797e+01	1.239733e+03
1.290000e-06	5.034771e-06	1.903024e-08	3.582225e+01	1.248171e+03
1.300000e-06	5.110782e-06	1.915356e-08	3.636307e+01	1.256163e+03
1.310000e-06	5.184663e-06	1.926866e-08	3.688873e+01	1.263703e+03
1.320000e-06	5.256515e-06	1.937784e-08	3.739995e+01	1.270791e+03
1.330000e-06	5.326573e-06	1.948037e-08	3.789842e+01	1.277438e+03
1.340000e-06	5.394863e-06	1.957578e-08	3.838430e+01	1.283671e+03
1.350000e-06	5.461122e-06	1.966439e-08	3.885573e+01	1.289534e+03
1.360000e-06	5.525237e-06	1.974793e-08	3.931191e+01	1.295077e+03
1.370000e-06	5.587473e-06	1.982892e-08	3.975471e+01	1.300356e+03
1.380000e-06	5.647959e-06	1.990833e-08	4.018507e+01	1.305414e+03
1.390000e-06	5.706486e-06	1.998469e-08	4.060149e+01	1.310280e+03
1.400000e-06	5.762862e-06	2.005965e-08	4.100260e+01	1.314962e+03
1.410000e-06	5.817207e-06	2.012984e-08	4.138926e+01	1.319449e+03
1.420000e-06	5.869333e-06	2.019487e-08	4.176014e+01	1.323715e+03
1.430000e-06	5.918895e-06	2.025423e-08	4.211277e+01	1.327731e+03
1.440000e-06	5.966074e-06	2.030870e-08	4.244844e+01	1.331473e+03
1.450000e-06	6.011250e-06	2.036059e-08	4.276987e+01	1.334932e+03
1.460000e-06	6.054457e-06	2.041155e-08	4.307729e+01	1.338113e+03
1.470000e-06	6.095463e-06	2.046126e-08	4.336904e+01	1.341038e+03
1.480000e-06	6.134221e-06	2.050513e-08	4.364481e+01	1.343740e+03
1.490000e-06	6.171042e-06	2.054402e-08	4.390679e+01	1.346248e+03
1.500000e-06	6.205671e-06	2.057944e-08	4.415317e+01	1.348587e+03
1.510000e-06	6.237905e-06	2.061199e-08	4.438252e+01	1.350765e+03
1.520000e-06	6.267927e-06	2.064174e-08	4.459612e+01	1.352777e+03
1.530000e-06	6.295955e-06	2.066873e-08	4.479554e+01	1.354602e+03
1.540000e-06	6.321704e-06	2.069267e-08	4.497874e+01	1.356220e+03
1.550000e-06	6.344953e-06	2.071289e-08	4.514416e+01	1.357611e+03
1.560000e-06	6.366042e-06	2.073058e-08	4.529420e+01	1.358771e+03
1.570000e-06	6.385019e-06	2.074801e-08	4.542923e+01	1.359709e+03
1.580000e-06	6.401647e-06	2.076430e-08	4.554753e+01	1.360455e+03
1.590000e-06	6.415792e-06	2.077698e-08	4.564818e+01	1.361044e+03
1.600000e-06	6.427430e-06	2.078567e-08	4.573098e+01	1.361513e+03
1.610000e-06	6.436533e-06	2.079320e-08	4.579575e+01	1.361891e+03
1.620000e-06	6.443215e-06	2.080090e-08	4.584329e+01	1.362185e+03
1.630000e-06	6.447807e-06	2.080615e-08	4.587596e+01	1.362385e+03
1.640000e-06	6.450146e-06	2.080783e-08	4.589260e+01	1.362461e+03
1.650000e-06	6.449991e-06	2.080948e-08	4.589150e+01	1.362378e+03
1.660000e-06	6.447651e-06	2.079483e-08	4.587485e+01	1.362102e+03
1.670000e-06	6.443369e-06	2.078966e-08	4.584438e+01	1.361616e+03
1.680000e-06	6.436880e-06	2.078585e-08	4.579821e+01	1.360928e+03
1.690000e-06	6.428187e-06	2.077770e-08	4.573637e+01	1.360070e+03
1.700000e-06	6.417579e-06	2.077037e-08	4.566089e+01	1.359096e+03
1.710000e-06	6.404717e-06	2.076148e-08	4.556938e+01	1.358066e+03
1.720000e-06	6.389545e-06	2.077597e-08	4.546143e+01	1.357030e+03
1.730000e-06	6.372401e-06	2.072352e-08	4.533945e+01	1.356013e+03
1.740000e-06	6.353214e-06	2.059628e-08	4.520294e+01	1.355003e+03
1.750000e-06	6.331086e-06	2.064379e-08	4.504550e+01	1.353946e+03
1.760000e-06	6.305653e-06	2.066438e-08	4.486454e+01	1.352753e+03
1.770000e-06	6.277907e-06	2.056920e-08	4.466713e+01	1.351315e+03
1.780000e-06	6.248304e-06	2.073798e-08	4.445651e+01	1.349523e+03
1.790000e-06	6.217107e-06	2.068536e-08	4.423454e+01	1.347292e+03
1.800000e-06	6.184569e-06	2.045914e-08	4.400303e+01	1.344576e+03
1.810000e-06	6.149951e-06	2.068525e-08	4.375672e+01	1.341380e+03
1.820000e-06	6.113292e-06	2.045218e-08	4.349589e+01	1.337763e+03
1.830000e-06	6.074592e-06	2.028899e-08	4.322055e+01	1.333824e+03
1.840000e-06	6.033367e-06	2.037000e-08	4.292723e+01	1.329685e+03
1.850000e-06	5.990187e-06	1.999883e-08	4.262001e+01	1.325471e+03
1.860000e-06	5.944941e-06	2.010608e-08	4.229809e+01	1.321284e+03
1.870000e-06	5.897344e-06	2.006096e-08	4.195943e+01	1.317190e+03
1.880000e-06	5.847740e-06	1.993826e-08	4.160650e+01	1.313209e+03
1.890000e-06	5.795542e-06	2.006206e-08	4.123512e+01	1.309316e+03
1.900000e-06	5.740822e-06	1.977877e-08	4.084578e+01	1.305451e+03
1.910000e-06	5.683980e-06	1.980701e-08	4.044135e+01	1.301534e+03
1.920000e-06	5.625107e-06	1.975462e-08	4.002247e+01	1.297484e+03
1.930000e-06	5.564294e-06	1.961347e-08	3.958979e+01	1.293231e+03
1.940000e-06	5.501208e-06	1.968613e-08	3.914094e+01	1.288728e+03
1.950000e-06	5.436081e-06	1.949193e-08	3.867756e+01	1.283952e+03
1.960000e-06	5.369036e-06	1.951722e-08	3.820054e+01	1.278904e+03
1.970000e-06	5.299832e-06	1.934818e-08	3.770815e+01	1.273600e+03
1.980000e-06	5.228480e-06	1.924506e-08	3.720048e+01	1.268061e+03
1.990000e-06	5.155247e-06	1.924828e-08	3.667944e+01	1.262302e+03
2.000000e-06	5.080293e-06	1.909574e-08	3.614614e+01	1.256329e+03
2.010000e-06	5.003202e-06	1.908960e-08	3.559764e+01	1.250134e+03
2.020000e-06	4.924045e-06	1.888746e-08	3.503444e+01	1.243697e+03
2.030000e-06	4.843139e-06	1.880704e-08	3.445879e+01	1.236993e+03
2.040000e-06	4.760549e-06	1.871295e-08	3.387117e+01	1.229994e+03
2.050000e-06	4.676413e-06	1.859678e-08	3.327254e+01	1.222680e+03
2.060000e-06	4.590521e-06	1.851982e-08	3.266142e+01	1.215038e+03
2.070000e-06	4.502968e-06	1.836736e-08	3.203849e+01	1.207064e+03
2.080000e-06	4.413842e-06	1.827948e-08	3.140436e+01	1.198760e+03
2.090000e-06	4.323222e-06	1.810161e-08	3.075960e+01	1.190133e+03
2.100000e-06	4.231207e-06	1.798201e-08	3.010491e+01	1.181184e+03
2.110000e-06	4.137634e-06	1.784283e-08	2.943915e+01	1.171909e+03
2.120000e-06	4.042620e-06	1.769888e-08	2.876312e+01	1.162293e+03
2.130000e-06	3.946175e-06	1.754659e-08	2.807692e+01	1.152312e+03
2.140000e-06	3.848307e-06	1.737728e-08	2.738060e+01	1.141932e+03
2.150000e-06	3.749164e-06	1.723227e-08	2.667520e+01	1.131116e+03
2.160000e-06	3.648618e-06	1.705146e-08	2.595981e+01	1.119826e+03
2.170000e-06	3.546564e-06	1.688559e-08	2.523370e+01	1.108029e+03
2.180000e-06	3.443211e-06	1.668978e-08	2.449835e+01	1.095694e+03
2.190000e-06	3.338567e-06	1.650299e-08	2.375381e+01	1.082797e+03
2.200000e-06	3.232667e-06	1.629166e-08	2.300033e+01	1.069317e+03
2.210000e-06	3.125678e-06	1.608275e-08	2.223911e+01	1.055234e+03
2.220000e-06	3.017694e-06	1.586134e-08	2.147081e+01	1.040525e+03
2.230000e-06	2.908610e-06	1.562747e-08	2.069467e+01	1.025156e+03
2.240000e-06	2.798391e-06	1.538382e-08	1.991047e+01	1.009089e+03
2.250000e-06	2.687168e-06	1.512913e-08	1.911912e+01	9.922706e+02
2.260000e-06	2.574896e-06	1.486907e-08	1.832031e+01	9.746404e+02
2.270000e-06	2.461557e-06	1.458462e-08	1.751391e+01	9.561304e+02
2.280000e-06	2.347273e-06	1.429015e-08	1.670078e+01	9.366687e+02
2.290000e-06	2.232181e-06	1.397241e-08	1.588190e+01	9.161822e+02
2.300000e-06	2.116201e-06	1.364723e-08	1.505671e+01	8.945981e+02
2.310000e-06	1.999297e-06	1.330572e-08	1.422494e+01	8.718437e+02
2.320000e-06	1.881440e-06	1.295045e-08	1.338639e+01	8.478440e+02
2.330000e-06	1.762772e-06	1.257190e-08	1.254207e+01	8.225172e+02
2.340000e-06	1.643554e-06	1.216594e-08	1.169384e+01	7.957714e+02
2.350000e-06	1.523816e-06	1.173183e-08	1.084191e+01	7.675007e+02
2.360000e-06	1.403573e-06	1.127273e-08	9.986383e+00	7.375866e+02
2.370000e-06	1.282862e-06	1.079137e-08	9.127524e+00	7.059028e+02
2.380000e-06	1.161750e-06	1.028210e-08	8.265816e+00	6.723267e+02
2.390000e-06	1.040261e-06	9.742796e-09	7.401424e+00	6.367562e+02
2.400000e-06	9.184285e-07	9.166808e-09	6.534592e+00	5.991297e+02
2.410000e-06	7.963021e-07	8.561491e-09	5.665667e+00	5.594467e+02
2.420000e-06	6.738817e-07	7.927595e-09	4.794649e+00	5.177843e+02
2.430000e-06	5.512480e-07	7.267073e-09	3.922114e+00	4.743061e+02
2.440000e-06	4.284903e-07	6.581456e-09	3.048696e+00	4.292576e+02
2.450000e-06	3.056321e-07	5.873812e-09	2.174563e+00	3.829498e+02
2.460000e-06	1.826680e-07	5.152207e-09	1.299677e+00	3.357278e+02
2.470000e-06	5.955107e-08	4.419059e-09	4.237042e-01	2.879305e+02
2.480000e-06	-6.367581e-08	3.684645e-09	-4.530515e-01	2.398466e+02
2.490000e-06	-1.868332e-07	2.949591e-09	-1.329313e+00	1.916736e+02
2.500000e-06	-3.098491e-07	2.213021e-09	-2.204567e+00	1.434894e+02
2.510000e-06	-4.327907e-07	1.477460e-09	-3.079293e+00	9.524187e+01
2.520000e-06	-5.557002e-07	7.363253e-10	-3.953791e+00	4.676061e+01
2.530000e-06	-6.784852e-07	-1.306475e-11	-4.827403e+00	-2.208643e+00
2.540000e-06	-8.010319e-07	-7.741624e-10	-5.699319e+00	-5.195198e+01
2.550000e-06	-9.233259e-07	-1.550638e-09	-6.569437e+00	-1.027251e+02
2.560000e-06	-1.045248e-06	-2.341648e-09	-7.436912e+00	-1.546914e+02
2.570000e-06	-1.166804e-06	-3.148593e-09	-8.301779e+00	-2.078715e+02
2.580000e-06	-1.287960e-06	-3.973836e-09	-9.163799e+00	-2.621127e+02
2.590000e-06	-1.408633e-06	-4.814858e-09	-1.002238e+01	-3.170851e+02
2.600000e-06	-1.528784e-06	-5.663471e-09	-1.087725e+01	-3.723049e+02
2.610000e-06	-1.648321e-06	-6.506367e-09	-1.172775e+01	-4.271808e+02
2.620000e-06	-1.767312e-06	-7.333773e-09	-1.257438e+01	-4.810764e+02
2.630000e-06	-1.885665e-06	-8.133226e-09	-1.341645e+01	-5.333775e+02
2.640000e-06	-2.003103e-06	-8.897357e-09	-1.425202e+01	-5.835527e+02
2.650000e-06	-2.119545e-06	-9.621899e-09	-1.508050e+01	-6.311998e+02
2.660000e-06	-2.235065e-06	-1.030485e-08	-1.590242e+01	-6.760691e+02
2.670000e-06	-2.349612e-06	-1.094748e-08	-1.671742e+01	-7.180652e+02
2.680000e-06	-2.463207e-06	-1.154950e-08	-1.752564e+01	-7.572273e+02
2.690000e-06	-2.575772e-06	-1.211053e-08	-1.832655e+01	-7.936956e+02
2.700000e-06	-2.687165e-06	-1.262963e-08	-1.911910e+01	-8.276717e+02
2.710000e-06	-2.797455e-06	-1.311282e-08	-1.990381e+01	-8.593799e+02
2.720000e-06	-2.906806e-06	-1.356663e-08	-2.068184e+01	-8.890372e+02
2.730000e-06	-3.015249e-06	-1.398966e-08	-2.145341e+01	-9.168348e+02
2.740000e-06	-3.122799e-06	-1.438690e-08	-2.221862e+01	-9.429312e+02
2.750000e-06	-3.229358e-06	-1.476208e-08	-2.297679e+01	-9.674554e+02
2.760000e-06	-3.334745e-06	-1.511164e-08	-2.372661e+01	-9.905160e+02
2.770000e-06	-3.439000e-06	-1.543935e-08	-2.446839e+01	-1.012211e+03
2.780000e-06	-3.542021e-06	-1.575018e-08	-2.520138e+01	-1.032637e+03
2.790000e-06	-3.643609e-06	-1.604783e-08	-2.592417e+01	-1.051889e+03
2.800000e-06	-3.743848e-06	-1.633040e-08	-2.663737e+01	-1.070063e+03
2.810000e-06	-3.842880e-06	-1.659464e-08	-2.734198e+01	-1.087249e+03
2.820000e-06	-3.940673e-06	-1.684184e-08	-2.803778e+01	-1.103525e+03
2.830000e-06	-4.037193e-06	-1.707713e-08	-2.872451e+01	-1.118957e+03
2.840000e-06	-4.132314e-06	-1.730237e-08	-2.940130e+01	-1.133593e+03
2.850000e-06	-4.225780e-06	-1.751604e-08	-3.006630e+01	-1.147471e+03
2.860000e-06	-4.317765e-06	-1.771861e-08	-3.072077e+01	-1.160620e+03
2.870000e-06	-4.408357e-06	-1.790947e-08	-3.136533e+01	-1.173071e+03
2.880000e-06	-4.497324e-06	-1.808739e-08	-3.199833e+01	-1.184858e+03
2.890000e-06	-4.584604e-06	-1.825504e-08	-3.261932e+01	-1.196024e+03
2.900000e-06	-4.670087e-06	-1.841504e-08	-3.322753e+01	-1.206613e+03
2.910000e-06	-4.753936e-06	-1.856857e-08	-3.382412e+01	-1.216672e+03
2.920000e-06	-4.836232e-06	-1.871502e-08	-3.440965e+01	-1.226241e+03
2.930000e-06	-4.916880e-06	-1.885397e-08	-3.498346e+01	-1.235348e+03
2.940000e-06	-4.995659e-06	-1.898701e-08	-3.554397e+01	-1.244008e+03
