# Temperatura_=_76.18
# Concentracion g/m^3_=_28200.0
# C_Vs_to_Am_M_A/Vsm_=_65563218390.804596
# pendiente_HvsI_1/m_=_3716.3
# ordenada_HvsI_A/m_=_1297.0
# frecuencia_Hz_=_302115.5089899456

Tiempo_(s)	Campo_(V.s)	Magnetizacion_(V.s)	Campo_(kA/m)	Magnetizacion_(A/m)
0.000000e+00	-6.391119e-06	-2.283427e-08	-4.585250e+01	-1.496326e+03
1.000000e-08	-6.387453e-06	-2.282825e-08	-4.582620e+01	-1.495841e+03
2.000000e-08	-6.381773e-06	-2.281477e-08	-4.578545e+01	-1.495155e+03
3.000000e-08	-6.374192e-06	-2.280464e-08	-4.573106e+01	-1.494291e+03
4.000000e-08	-6.364435e-06	-2.279008e-08	-4.566106e+01	-1.493282e+03
5.000000e-08	-6.352237e-06	-2.276937e-08	-4.557354e+01	-1.492163e+03
6.000000e-08	-6.337727e-06	-2.274067e-08	-4.546944e+01	-1.490958e+03
7.000000e-08	-6.320973e-06	-2.269874e-08	-4.534924e+01	-1.489679e+03
8.000000e-08	-6.302157e-06	-2.269796e-08	-4.521425e+01	-1.488314e+03
9.000000e-08	-6.281200e-06	-2.280008e-08	-4.506390e+01	-1.486836e+03
1.000000e-07	-6.257747e-06	-2.271732e-08	-4.489564e+01	-1.485200e+03
1.100000e-07	-6.231584e-06	-2.260580e-08	-4.470793e+01	-1.483361e+03
1.200000e-07	-6.203152e-06	-2.262049e-08	-4.450395e+01	-1.481277e+03
1.300000e-07	-6.173022e-06	-2.252651e-08	-4.428778e+01	-1.478919e+03
1.400000e-07	-6.141390e-06	-2.231911e-08	-4.406084e+01	-1.476282e+03
1.500000e-07	-6.107881e-06	-2.257477e-08	-4.382044e+01	-1.473377e+03
1.600000e-07	-6.072281e-06	-2.250286e-08	-4.356503e+01	-1.470233e+03
1.700000e-07	-6.034959e-06	-2.223560e-08	-4.329726e+01	-1.466887e+03
1.800000e-07	-5.995545e-06	-2.249177e-08	-4.301449e+01	-1.463375e+03
1.900000e-07	-5.953516e-06	-2.223287e-08	-4.271296e+01	-1.459724e+03
2.000000e-07	-5.909366e-06	-2.216298e-08	-4.239620e+01	-1.455949e+03
2.100000e-07	-5.863164e-06	-2.228248e-08	-4.206474e+01	-1.452048e+03
2.200000e-07	-5.814706e-06	-2.207631e-08	-4.171707e+01	-1.448006e+03
2.300000e-07	-5.763863e-06	-2.205883e-08	-4.135231e+01	-1.443800e+03
2.400000e-07	-5.710390e-06	-2.197407e-08	-4.096867e+01	-1.439406e+03
2.500000e-07	-5.654732e-06	-2.186435e-08	-4.056936e+01	-1.434800e+03
2.600000e-07	-5.596909e-06	-2.184530e-08	-4.015452e+01	-1.429968e+03
2.700000e-07	-5.536997e-06	-2.172957e-08	-3.972468e+01	-1.424900e+03
2.800000e-07	-5.475210e-06	-2.167121e-08	-3.928139e+01	-1.419594e+03
2.900000e-07	-5.411484e-06	-2.153868e-08	-3.882420e+01	-1.414051e+03
3.000000e-07	-5.345616e-06	-2.148303e-08	-3.835163e+01	-1.408270e+03
3.100000e-07	-5.277619e-06	-2.139862e-08	-3.786379e+01	-1.402251e+03
3.200000e-07	-5.207733e-06	-2.129462e-08	-3.736240e+01	-1.395986e+03
3.300000e-07	-5.136101e-06	-2.123551e-08	-3.684849e+01	-1.389467e+03
3.400000e-07	-5.062604e-06	-2.106583e-08	-3.632119e+01	-1.382680e+03
3.500000e-07	-4.986947e-06	-2.099152e-08	-3.577840e+01	-1.375615e+03
3.600000e-07	-4.909198e-06	-2.086816e-08	-3.522059e+01	-1.368259e+03
3.700000e-07	-4.829308e-06	-2.074592e-08	-3.464743e+01	-1.360605e+03
3.800000e-07	-4.747580e-06	-2.065417e-08	-3.406108e+01	-1.352644e+03
3.900000e-07	-4.664388e-06	-2.050789e-08	-3.346423e+01	-1.344368e+03
4.000000e-07	-4.579718e-06	-2.036283e-08	-3.285677e+01	-1.335768e+03
4.100000e-07	-4.493617e-06	-2.021597e-08	-3.223904e+01	-1.326833e+03
4.200000e-07	-4.406160e-06	-2.009656e-08	-3.161159e+01	-1.317550e+03
4.300000e-07	-4.317341e-06	-1.994598e-08	-3.097437e+01	-1.307902e+03
4.400000e-07	-4.226817e-06	-1.978454e-08	-3.032491e+01	-1.297876e+03
4.500000e-07	-4.134610e-06	-1.963458e-08	-2.966338e+01	-1.287456e+03
4.600000e-07	-4.040978e-06	-1.945384e-08	-2.899163e+01	-1.276629e+03
4.700000e-07	-3.946022e-06	-1.928308e-08	-2.831038e+01	-1.265383e+03
4.800000e-07	-3.849796e-06	-1.911244e-08	-2.762001e+01	-1.253705e+03
4.900000e-07	-3.752074e-06	-1.893903e-08	-2.691892e+01	-1.241579e+03
5.000000e-07	-3.652802e-06	-1.874016e-08	-2.620669e+01	-1.228983e+03
5.100000e-07	-3.552187e-06	-1.852746e-08	-2.548484e+01	-1.215890e+03
5.200000e-07	-3.450394e-06	-1.831553e-08	-2.475454e+01	-1.202267e+03
5.300000e-07	-3.347405e-06	-1.809336e-08	-2.401565e+01	-1.188077e+03
5.400000e-07	-3.243251e-06	-1.787067e-08	-2.326841e+01	-1.173281e+03
5.500000e-07	-3.137843e-06	-1.763284e-08	-2.251217e+01	-1.157843e+03
5.600000e-07	-3.030994e-06	-1.738851e-08	-2.174559e+01	-1.141729e+03
5.700000e-07	-2.922969e-06	-1.712890e-08	-2.097057e+01	-1.124907e+03
5.800000e-07	-2.813965e-06	-1.685889e-08	-2.018854e+01	-1.107348e+03
5.900000e-07	-2.703981e-06	-1.658111e-08	-1.939946e+01	-1.089017e+03
6.000000e-07	-2.593111e-06	-1.628889e-08	-1.860404e+01	-1.069870e+03
6.100000e-07	-2.481332e-06	-1.598289e-08	-1.780209e+01	-1.049853e+03
6.200000e-07	-2.368619e-06	-1.565886e-08	-1.699344e+01	-1.028894e+03
6.300000e-07	-2.254855e-06	-1.532030e-08	-1.617725e+01	-1.006911e+03
6.400000e-07	-2.139999e-06	-1.496228e-08	-1.535323e+01	-9.838087e+02
6.500000e-07	-2.024251e-06	-1.459213e-08	-1.452280e+01	-9.594880e+02
6.600000e-07	-1.907693e-06	-1.420097e-08	-1.368657e+01	-9.338470e+02
6.700000e-07	-1.790439e-06	-1.378482e-08	-1.284534e+01	-9.067847e+02
6.800000e-07	-1.672611e-06	-1.334818e-08	-1.200000e+01	-8.782010e+02
6.900000e-07	-1.554226e-06	-1.288713e-08	-1.115065e+01	-8.479934e+02
7.000000e-07	-1.435358e-06	-1.240218e-08	-1.029784e+01	-8.160536e+02
7.100000e-07	-1.316020e-06	-1.188331e-08	-9.441667e+00	-7.822648e+02
7.200000e-07	-1.196297e-06	-1.133561e-08	-8.582726e+00	-7.465040e+02
7.300000e-07	-1.076280e-06	-1.075572e-08	-7.721670e+00	-7.086510e+02
7.400000e-07	-9.559325e-07	-1.014348e-08	-6.858250e+00	-6.686043e+02
7.500000e-07	-8.351961e-07	-9.500600e-09	-5.992038e+00	-6.263039e+02
7.600000e-07	-7.141235e-07	-8.824122e-09	-5.123414e+00	-5.817542e+02
7.700000e-07	-5.927759e-07	-8.110047e-09	-4.252816e+00	-5.350452e+02
7.800000e-07	-4.711692e-07	-7.364961e-09	-3.380361e+00	-4.863620e+02
7.900000e-07	-3.493896e-07	-6.596274e-09	-2.506663e+00	-4.359800e+02
8.000000e-07	-2.274643e-07	-5.804361e-09	-1.631922e+00	-3.842424e+02
8.100000e-07	-1.053780e-07	-5.000275e-09	-7.560246e-01	-3.315207e+02
8.200000e-07	1.680988e-08	-4.188187e-09	1.206010e-01	-2.781655e+02
8.300000e-07	1.389644e-07	-3.371894e-09	9.969874e-01	-2.244535e+02
8.400000e-07	2.610715e-07	-2.551308e-09	1.873033e+00	-1.705451e+02
8.500000e-07	3.831209e-07	-1.728501e-09	2.748666e+00	-1.164588e+02
8.600000e-07	5.050364e-07	-9.018905e-10	3.623338e+00	-6.207311e+01
8.700000e-07	6.267814e-07	-6.769150e-11	4.496786e+00	-7.156215e+00
8.800000e-07	7.482870e-07	7.797237e-10	5.368516e+00	4.857865e+01
8.900000e-07	8.694980e-07	1.644444e-09	6.238134e+00	1.054017e+02
9.000000e-07	9.903625e-07	2.526335e-09	7.105265e+00	1.634913e+02
9.100000e-07	1.110829e-06	3.428629e-09	7.969542e+00	2.228699e+02
9.200000e-07	1.230882e-06	4.350848e-09	8.830851e+00	2.833626e+02
9.300000e-07	1.350479e-06	5.285279e-09	9.688892e+00	3.445888e+02
9.400000e-07	1.469578e-06	6.221064e-09	1.054335e+01	4.059876e+02
9.500000e-07	1.588238e-06	7.148198e-09	1.139467e+01	4.668733e+02
9.600000e-07	1.706402e-06	8.055059e-09	1.224242e+01	5.265118e+02
9.700000e-07	1.823924e-06	8.930289e-09	1.308558e+01	5.842020e+02
9.800000e-07	1.940715e-06	9.767127e-09	1.392348e+01	6.393509e+02
9.900000e-07	2.056681e-06	1.055702e-08	1.475547e+01	6.915266e+02
1.000000e-06	2.171803e-06	1.129441e-08	1.558140e+01	7.404849e+02
1.010000e-06	2.285914e-06	1.198277e-08	1.640008e+01	7.861655e+02
1.020000e-06	2.398977e-06	1.262836e-08	1.721124e+01	8.286634e+02
1.030000e-06	2.511059e-06	1.323111e-08	1.801536e+01	8.681829e+02
1.040000e-06	2.622172e-06	1.379485e-08	1.881253e+01	9.049861e+02
1.050000e-06	2.732436e-06	1.431739e-08	1.960361e+01	9.393458e+02
1.060000e-06	2.841790e-06	1.480514e-08	2.038816e+01	9.715105e+02
1.070000e-06	2.950273e-06	1.526025e-08	2.116646e+01	1.001686e+03
1.080000e-06	3.057840e-06	1.568880e-08	2.193820e+01	1.030035e+03
1.090000e-06	3.164268e-06	1.609232e-08	2.270175e+01	1.056682e+03
1.100000e-06	3.269391e-06	1.647535e-08	2.345594e+01	1.081733e+03
1.110000e-06	3.373163e-06	1.683697e-08	2.420045e+01	1.105292e+03
1.120000e-06	3.475783e-06	1.717647e-08	2.493669e+01	1.127464e+03
1.130000e-06	3.577260e-06	1.749564e-08	2.566472e+01	1.148363e+03
1.140000e-06	3.677549e-06	1.779587e-08	2.638424e+01	1.168107e+03
1.150000e-06	3.776577e-06	1.807982e-08	2.709471e+01	1.186805e+03
1.160000e-06	3.874107e-06	1.834573e-08	2.779443e+01	1.204553e+03
1.170000e-06	3.970055e-06	1.860061e-08	2.848280e+01	1.221422e+03
1.180000e-06	4.064652e-06	1.884536e-08	2.916147e+01	1.237462e+03
1.190000e-06	4.158004e-06	1.907996e-08	2.983122e+01	1.252704e+03
1.200000e-06	4.250016e-06	1.930080e-08	3.049135e+01	1.267169e+03
1.210000e-06	4.340516e-06	1.950850e-08	3.114064e+01	1.280881e+03
1.220000e-06	4.429237e-06	1.970232e-08	3.177716e+01	1.293873e+03
1.230000e-06	4.516295e-06	1.988753e-08	3.240175e+01	1.306190e+03
1.240000e-06	4.601872e-06	2.006363e-08	3.301571e+01	1.317889e+03
1.250000e-06	4.685961e-06	2.023424e-08	3.361900e+01	1.329031e+03
1.260000e-06	4.768433e-06	2.039796e-08	3.421069e+01	1.339670e+03
1.270000e-06	4.849054e-06	2.055472e-08	3.478909e+01	1.349847e+03
1.280000e-06	4.927846e-06	2.070584e-08	3.535438e+01	1.359582e+03
1.290000e-06	5.004884e-06	2.085053e-08	3.590709e+01	1.368876e+03
1.300000e-06	5.079990e-06	2.098596e-08	3.644592e+01	1.377714e+03
1.310000e-06	5.152983e-06	2.111321e-08	3.696960e+01	1.386076e+03
1.320000e-06	5.223990e-06	2.123304e-08	3.747904e+01	1.393948e+03
1.330000e-06	5.293219e-06	2.134486e-08	3.797571e+01	1.401333e+03
1.340000e-06	5.360605e-06	2.144930e-08	3.845917e+01	1.408251e+03
1.350000e-06	5.425921e-06	2.154800e-08	3.892778e+01	1.414745e+03
1.360000e-06	5.489258e-06	2.164306e-08	3.938218e+01	1.420871e+03
1.370000e-06	5.550795e-06	2.173298e-08	3.982367e+01	1.426687e+03
1.380000e-06	5.610533e-06	2.181937e-08	4.025225e+01	1.432246e+03
1.390000e-06	5.668255e-06	2.190224e-08	4.066638e+01	1.437586e+03
1.400000e-06	5.723856e-06	2.198164e-08	4.106528e+01	1.442723e+03
1.410000e-06	5.777421e-06	2.205706e-08	4.144958e+01	1.447654e+03
1.420000e-06	5.828600e-06	2.212861e-08	4.181676e+01	1.452363e+03
1.430000e-06	5.877262e-06	2.219598e-08	4.216588e+01	1.456826e+03
1.440000e-06	5.923774e-06	2.225865e-08	4.249958e+01	1.461026e+03
1.450000e-06	5.968485e-06	2.231596e-08	4.282035e+01	1.464950e+03
1.460000e-06	6.011121e-06	2.237168e-08	4.312624e+01	1.468601e+03
1.470000e-06	6.051337e-06	2.242774e-08	4.341477e+01	1.471990e+03
1.480000e-06	6.089396e-06	2.247932e-08	4.368782e+01	1.475136e+03
1.490000e-06	6.125518e-06	2.252425e-08	4.394697e+01	1.478055e+03
1.500000e-06	6.159410e-06	2.256363e-08	4.419012e+01	1.480760e+03
1.510000e-06	6.191030e-06	2.260096e-08	4.441698e+01	1.483251e+03
1.520000e-06	6.220616e-06	2.263430e-08	4.462924e+01	1.485523e+03
1.530000e-06	6.248154e-06	2.266328e-08	4.482681e+01	1.487565e+03
1.540000e-06	6.273312e-06	2.268824e-08	4.500730e+01	1.489367e+03
1.550000e-06	6.295977e-06	2.270999e-08	4.516992e+01	1.490926e+03
1.560000e-06	6.316582e-06	2.272976e-08	4.531774e+01	1.492250e+03
1.570000e-06	6.335057e-06	2.274871e-08	4.545029e+01	1.493356e+03
1.580000e-06	6.351113e-06	2.276648e-08	4.556548e+01	1.494271e+03
1.590000e-06	6.364784e-06	2.278086e-08	4.566356e+01	1.495022e+03
1.600000e-06	6.375879e-06	2.279271e-08	4.574316e+01	1.495631e+03
1.610000e-06	6.384373e-06	2.280134e-08	4.580410e+01	1.496108e+03
1.620000e-06	6.390585e-06	2.280730e-08	4.584867e+01	1.496451e+03
1.630000e-06	6.394791e-06	2.281061e-08	4.587884e+01	1.496644e+03
1.640000e-06	6.396708e-06	2.281149e-08	4.589260e+01	1.496664e+03
1.650000e-06	6.396209e-06	2.281237e-08	4.588901e+01	1.496491e+03
1.660000e-06	6.393694e-06	2.279563e-08	4.587097e+01	1.496110e+03
1.670000e-06	6.389160e-06	2.279298e-08	4.583844e+01	1.495522e+03
1.680000e-06	6.382359e-06	2.278791e-08	4.578965e+01	1.494743e+03
1.690000e-06	6.373423e-06	2.277565e-08	4.572554e+01	1.493803e+03
1.700000e-06	6.362564e-06	2.276612e-08	4.564763e+01	1.492735e+03
1.710000e-06	6.349386e-06	2.275651e-08	4.555309e+01	1.491570e+03
1.720000e-06	6.334009e-06	2.278080e-08	4.544277e+01	1.490328e+03
1.730000e-06	6.316801e-06	2.270948e-08	4.531931e+01	1.489009e+03
1.740000e-06	6.297380e-06	2.254712e-08	4.517998e+01	1.487592e+03
1.750000e-06	6.274871e-06	2.261180e-08	4.501849e+01	1.486041e+03
1.760000e-06	6.249202e-06	2.262892e-08	4.483433e+01	1.484309e+03
1.770000e-06	6.221412e-06	2.251642e-08	4.463495e+01	1.482352e+03
1.780000e-06	6.191807e-06	2.273268e-08	4.442256e+01	1.480133e+03
1.790000e-06	6.160639e-06	2.262262e-08	4.419894e+01	1.477635e+03
1.800000e-06	6.128097e-06	2.236873e-08	4.396547e+01	1.474862e+03
1.810000e-06	6.093389e-06	2.262841e-08	4.371646e+01	1.471833e+03
1.820000e-06	6.056662e-06	2.228225e-08	4.345297e+01	1.468583e+03
1.830000e-06	6.017818e-06	2.224329e-08	4.317429e+01	1.465150e+03
1.840000e-06	5.976512e-06	2.247663e-08	4.287794e+01	1.461566e+03
1.850000e-06	5.933314e-06	2.203132e-08	4.256802e+01	1.457852e+03
1.860000e-06	5.888049e-06	2.219129e-08	4.224327e+01	1.454015e+03
1.870000e-06	5.840624e-06	2.210615e-08	4.190302e+01	1.450046e+03
1.880000e-06	5.791196e-06	2.194401e-08	4.154841e+01	1.445925e+03
1.890000e-06	5.739134e-06	2.212403e-08	4.117490e+01	1.441628e+03
1.900000e-06	5.684427e-06	2.178713e-08	4.078240e+01	1.437131e+03
1.910000e-06	5.627568e-06	2.186275e-08	4.037448e+01	1.432413e+03
1.920000e-06	5.568784e-06	2.180402e-08	3.995273e+01	1.427464e+03
1.930000e-06	5.508229e-06	2.162231e-08	3.951829e+01	1.422277e+03
1.940000e-06	5.445505e-06	2.170081e-08	3.906828e+01	1.416852e+03
1.950000e-06	5.380631e-06	2.143663e-08	3.860285e+01	1.411190e+03
1.960000e-06	5.313774e-06	2.149795e-08	3.812318e+01	1.405291e+03
1.970000e-06	5.244993e-06	2.130127e-08	3.762972e+01	1.399150e+03
1.980000e-06	5.174120e-06	2.118446e-08	3.712125e+01	1.392759e+03
1.990000e-06	5.101096e-06	2.120423e-08	3.659735e+01	1.386108e+03
2.000000e-06	5.026384e-06	2.099349e-08	3.606133e+01	1.379183e+03
2.010000e-06	4.949626e-06	2.099763e-08	3.551064e+01	1.371974e+03
2.020000e-06	4.870699e-06	2.075084e-08	3.494439e+01	1.364470e+03
2.030000e-06	4.790022e-06	2.067672e-08	3.436557e+01	1.356663e+03
2.040000e-06	4.707783e-06	2.057791e-08	3.377556e+01	1.348546e+03
2.050000e-06	4.624068e-06	2.042377e-08	3.317495e+01	1.340109e+03
2.060000e-06	4.538711e-06	2.034337e-08	3.256257e+01	1.331343e+03
2.070000e-06	4.451556e-06	2.015162e-08	3.193728e+01	1.322236e+03
2.080000e-06	4.362733e-06	2.006442e-08	3.130003e+01	1.312772e+03
2.090000e-06	4.272587e-06	1.985658e-08	3.065329e+01	1.302937e+03
2.100000e-06	4.181168e-06	1.972977e-08	2.999741e+01	1.292716e+03
2.110000e-06	4.088358e-06	1.957144e-08	2.933155e+01	1.282094e+03
2.120000e-06	3.993967e-06	1.939304e-08	2.865435e+01	1.271059e+03
2.130000e-06	3.898016e-06	1.922381e-08	2.796596e+01	1.259599e+03
2.140000e-06	3.800768e-06	1.902140e-08	2.726826e+01	1.247700e+03
2.150000e-06	3.702142e-06	1.886250e-08	2.656068e+01	1.235342e+03
2.160000e-06	3.602286e-06	1.865306e-08	2.584427e+01	1.222501e+03
2.170000e-06	3.501115e-06	1.847390e-08	2.511843e+01	1.209147e+03
2.180000e-06	3.398366e-06	1.825042e-08	2.438127e+01	1.195245e+03
2.190000e-06	3.294274e-06	1.803584e-08	2.363446e+01	1.180757e+03
2.200000e-06	3.189092e-06	1.779601e-08	2.287985e+01	1.165644e+03
2.210000e-06	3.082804e-06	1.756197e-08	2.211729e+01	1.149872e+03
2.220000e-06	2.975405e-06	1.731853e-08	2.134677e+01	1.133408e+03
2.230000e-06	2.867132e-06	1.705470e-08	2.056998e+01	1.116222e+03
2.240000e-06	2.757885e-06	1.678374e-08	1.978620e+01	1.098282e+03
2.250000e-06	2.647393e-06	1.649421e-08	1.899348e+01	1.079549e+03
2.260000e-06	2.535911e-06	1.620296e-08	1.819366e+01	1.059974e+03
2.270000e-06	2.423480e-06	1.588558e-08	1.738704e+01	1.039496e+03
2.280000e-06	2.310004e-06	1.556652e-08	1.657291e+01	1.018036e+03
2.290000e-06	2.195608e-06	1.521915e-08	1.575219e+01	9.955057e+02
2.300000e-06	2.080431e-06	1.486044e-08	1.492586e+01	9.718071e+02
2.310000e-06	1.964472e-06	1.448053e-08	1.409392e+01	9.468389e+02
2.320000e-06	1.847742e-06	1.408597e-08	1.325645e+01	9.204997e+02
2.330000e-06	1.730264e-06	1.366638e-08	1.241362e+01	8.926893e+02
2.340000e-06	1.611973e-06	1.321605e-08	1.156495e+01	8.633068e+02
2.350000e-06	1.493103e-06	1.274074e-08	1.071213e+01	8.322472e+02
2.360000e-06	1.373736e-06	1.223974e-08	9.855747e+00	7.993980e+02
2.370000e-06	1.253891e-06	1.171317e-08	8.995924e+00	7.646387e+02
2.380000e-06	1.133640e-06	1.115083e-08	8.133198e+00	7.278460e+02
2.390000e-06	1.013024e-06	1.055919e-08	7.267846e+00	6.889069e+02
2.400000e-06	8.921259e-07	9.929466e-09	6.400476e+00	6.477373e+02
2.410000e-06	7.709165e-07	9.267639e-09	5.530870e+00	6.043067e+02
2.420000e-06	6.494918e-07	8.572651e-09	4.659720e+00	5.586603e+02
2.430000e-06	5.279208e-07	7.846674e-09	3.787519e+00	5.109351e+02
2.440000e-06	4.061477e-07	7.092695e-09	2.913870e+00	4.613631e+02
2.450000e-06	2.841961e-07	6.312364e-09	2.038939e+00	4.102576e+02
2.460000e-06	1.620987e-07	5.514862e-09	1.162963e+00	3.579815e+02
2.470000e-06	3.993988e-08	4.702229e-09	2.865451e-01	3.049027e+02
2.480000e-06	-8.223467e-08	3.886191e-09	-5.899851e-01	2.513409e+02
2.490000e-06	-2.044253e-07	3.066509e-09	-1.466631e+00	1.975193e+02
2.500000e-06	-3.265251e-07	2.241438e-09	-2.342625e+00	1.435287e+02
2.510000e-06	-4.484901e-07	1.411555e-09	-3.217651e+00	8.931584e+01
2.520000e-06	-5.703606e-07	5.714527e-10	-4.092000e+00	3.469848e+01
2.530000e-06	-6.921380e-07	-2.778251e-10	-4.965681e+00	-2.059080e+01
2.540000e-06	-8.137300e-07	-1.140729e-09	-5.838032e+00	-7.684000e+01
2.550000e-06	-9.350083e-07	-2.017812e-09	-6.708132e+00	-1.342825e+02
2.560000e-06	-1.055978e-06	-2.911178e-09	-7.576019e+00	-1.930255e+02
2.570000e-06	-1.176568e-06	-3.823384e-09	-8.441179e+00	-2.529961e+02
2.580000e-06	-1.296714e-06	-4.752206e-09	-9.303156e+00	-3.139154e+02
2.590000e-06	-1.416424e-06	-5.691068e-09	-1.016200e+01	-3.753074e+02
2.600000e-06	-1.535611e-06	-6.630139e-09	-1.101710e+01	-4.365403e+02
2.610000e-06	-1.654132e-06	-7.557063e-09	-1.186742e+01	-4.968940e+02
2.620000e-06	-1.771947e-06	-8.458705e-09	-1.271267e+01	-5.556408e+02
2.630000e-06	-1.888959e-06	-9.324824e-09	-1.355216e+01	-6.121254e+02
2.640000e-06	-2.005031e-06	-1.014788e-08	-1.438491e+01	-6.658301e+02
2.650000e-06	-2.120193e-06	-1.092104e-08	-1.521113e+01	-7.164157e+02
2.660000e-06	-2.234557e-06	-1.164509e-08	-1.603162e+01	-7.637321e+02
2.670000e-06	-2.348008e-06	-1.232194e-08	-1.684557e+01	-8.078015e+02
2.680000e-06	-2.460373e-06	-1.295119e-08	-1.765172e+01	-8.487798e+02
2.690000e-06	-2.571621e-06	-1.353786e-08	-1.844986e+01	-8.869068e+02
2.700000e-06	-2.681807e-06	-1.408530e-08	-1.924038e+01	-9.224550e+02
2.710000e-06	-2.791108e-06	-1.459528e-08	-2.002455e+01	-9.556885e+02
2.720000e-06	-2.899538e-06	-1.507189e-08	-2.080247e+01	-9.868359e+02
2.730000e-06	-3.007021e-06	-1.551768e-08	-2.157360e+01	-1.016080e+03
2.740000e-06	-3.113612e-06	-1.593581e-08	-2.233832e+01	-1.043564e+03
2.750000e-06	-3.219227e-06	-1.633120e-08	-2.309605e+01	-1.069401e+03
2.760000e-06	-3.323711e-06	-1.670296e-08	-2.384566e+01	-1.093693e+03
2.770000e-06	-3.426985e-06	-1.705078e-08	-2.458659e+01	-1.116544e+03
2.780000e-06	-3.528899e-06	-1.737707e-08	-2.531776e+01	-1.138065e+03
2.790000e-06	-3.629416e-06	-1.768757e-08	-2.603891e+01	-1.158372e+03
2.800000e-06	-3.728719e-06	-1.798412e-08	-2.675136e+01	-1.177580e+03
2.810000e-06	-3.826799e-06	-1.826614e-08	-2.745502e+01	-1.195793e+03
2.820000e-06	-3.923609e-06	-1.853084e-08	-2.814958e+01	-1.213094e+03
2.830000e-06	-4.019156e-06	-1.878005e-08	-2.883507e+01	-1.229544e+03
2.840000e-06	-4.113230e-06	-1.901899e-08	-2.950999e+01	-1.245181e+03
2.850000e-06	-4.205710e-06	-1.924712e-08	-3.017348e+01	-1.260032e+03
2.860000e-06	-4.296740e-06	-1.946341e-08	-3.082657e+01	-1.274118e+03
2.870000e-06	-4.386266e-06	-1.966815e-08	-3.146886e+01	-1.287465e+03
2.880000e-06	-4.474206e-06	-1.986264e-08	-3.209979e+01	-1.300112e+03
2.890000e-06	-4.560556e-06	-2.004663e-08	-3.271929e+01	-1.312113e+03
2.900000e-06	-4.645120e-06	-2.022081e-08	-3.332599e+01	-1.323526e+03
2.910000e-06	-4.728043e-06	-2.038701e-08	-3.392091e+01	-1.334410e+03
2.920000e-06	-4.809440e-06	-2.054645e-08	-3.450489e+01	-1.344814e+03
2.930000e-06	-4.889076e-06	-2.069819e-08	-3.507623e+01	-1.354769e+03
2.940000e-06	-4.966726e-06	-2.084250e-08	-3.563333e+01	-1.364285e+03
