# Temperatura_=_78.2
# Concentracion g/m^3_=_28200.0
# C_Vs_to_Am_M_A/Vsm_=_65563218390.804596
# pendiente_HvsI_1/m_=_3716.3
# ordenada_HvsI_A/m_=_1297.0
# frecuencia_Hz_=_302114.27813826426

Tiempo_(s)	Campo_(V.s)	Magnetizacion_(V.s)	Campo_(kA/m)	Magnetizacion_(A/m)
0.000000e+00	-6.368733e-06	-2.294019e-08	-4.557880e+01	-1.501150e+03
1.000000e-08	-6.365491e-06	-2.293853e-08	-4.555560e+01	-1.500690e+03
2.000000e-08	-6.360153e-06	-2.292705e-08	-4.551740e+01	-1.500073e+03
3.000000e-08	-6.352957e-06	-2.291420e-08	-4.546590e+01	-1.499310e+03
4.000000e-08	-6.343654e-06	-2.289873e-08	-4.539932e+01	-1.498407e+03
5.000000e-08	-6.331986e-06	-2.287809e-08	-4.531582e+01	-1.497367e+03
6.000000e-08	-6.317962e-06	-2.285445e-08	-4.521545e+01	-1.496183e+03
7.000000e-08	-6.301571e-06	-2.282312e-08	-4.509815e+01	-1.494848e+03
8.000000e-08	-6.283089e-06	-2.280995e-08	-4.496588e+01	-1.493355e+03
9.000000e-08	-6.262532e-06	-2.287192e-08	-4.481876e+01	-1.491702e+03
1.000000e-07	-6.239536e-06	-2.283852e-08	-4.465419e+01	-1.489900e+03
1.100000e-07	-6.213933e-06	-2.275101e-08	-4.447095e+01	-1.487967e+03
1.200000e-07	-6.185979e-06	-2.272233e-08	-4.427090e+01	-1.485926e+03
1.300000e-07	-6.156100e-06	-2.265510e-08	-4.405706e+01	-1.483802e+03
1.400000e-07	-6.124654e-06	-2.250963e-08	-4.383202e+01	-1.481611e+03
1.500000e-07	-6.091517e-06	-2.261213e-08	-4.359487e+01	-1.479353e+03
1.600000e-07	-6.056276e-06	-2.263648e-08	-4.334266e+01	-1.477008e+03
1.700000e-07	-6.019212e-06	-2.244840e-08	-4.307740e+01	-1.474537e+03
1.800000e-07	-5.980230e-06	-2.255563e-08	-4.279843e+01	-1.471886e+03
1.900000e-07	-5.938761e-06	-2.243717e-08	-4.250164e+01	-1.468998e+03
2.000000e-07	-5.895044e-06	-2.229289e-08	-4.218878e+01	-1.465819e+03
2.100000e-07	-5.849339e-06	-2.232605e-08	-4.186168e+01	-1.462316e+03
2.200000e-07	-5.801292e-06	-2.218453e-08	-4.151782e+01	-1.458475e+03
2.300000e-07	-5.750731e-06	-2.213796e-08	-4.115598e+01	-1.454308e+03
2.400000e-07	-5.697610e-06	-2.209828e-08	-4.077581e+01	-1.449847e+03
2.500000e-07	-5.642373e-06	-2.200702e-08	-4.038050e+01	-1.445134e+03
2.600000e-07	-5.585108e-06	-2.197397e-08	-3.997067e+01	-1.440206e+03
2.700000e-07	-5.525582e-06	-2.187157e-08	-3.954467e+01	-1.435092e+03
2.800000e-07	-5.464121e-06	-2.178653e-08	-3.910481e+01	-1.429797e+03
2.900000e-07	-5.400730e-06	-2.170087e-08	-3.865114e+01	-1.424307e+03
3.000000e-07	-5.335277e-06	-2.163932e-08	-3.818272e+01	-1.418590e+03
3.100000e-07	-5.267746e-06	-2.155447e-08	-3.769942e+01	-1.412606e+03
3.200000e-07	-5.198150e-06	-2.142779e-08	-3.720135e+01	-1.406318e+03
3.300000e-07	-5.126787e-06	-2.133645e-08	-3.669063e+01	-1.399703e+03
3.400000e-07	-5.053653e-06	-2.119717e-08	-3.616723e+01	-1.392755e+03
3.500000e-07	-4.978410e-06	-2.110109e-08	-3.562874e+01	-1.385485e+03
3.600000e-07	-4.901028e-06	-2.100329e-08	-3.507495e+01	-1.377919e+03
3.700000e-07	-4.821577e-06	-2.088287e-08	-3.450635e+01	-1.370083e+03
3.800000e-07	-4.740233e-06	-2.076950e-08	-3.392420e+01	-1.361995e+03
3.900000e-07	-4.657341e-06	-2.061359e-08	-3.333097e+01	-1.353660e+03
4.000000e-07	-4.573052e-06	-2.047163e-08	-3.272774e+01	-1.345058e+03
4.100000e-07	-4.487327e-06	-2.034401e-08	-3.211423e+01	-1.336154e+03
4.200000e-07	-4.400275e-06	-2.021968e-08	-3.149124e+01	-1.326903e+03
4.300000e-07	-4.311778e-06	-2.007278e-08	-3.085789e+01	-1.317256e+03
4.400000e-07	-4.221618e-06	-1.990861e-08	-3.021265e+01	-1.307177e+03
4.500000e-07	-4.129811e-06	-1.975494e-08	-2.955562e+01	-1.296644e+03
4.600000e-07	-4.036475e-06	-1.958193e-08	-2.888764e+01	-1.285656e+03
4.700000e-07	-3.941834e-06	-1.941193e-08	-2.821033e+01	-1.274225e+03
4.800000e-07	-3.845843e-06	-1.923556e-08	-2.752336e+01	-1.262370e+03
4.900000e-07	-3.748383e-06	-1.905013e-08	-2.682587e+01	-1.250103e+03
5.000000e-07	-3.649501e-06	-1.884776e-08	-2.611821e+01	-1.237423e+03
5.100000e-07	-3.549256e-06	-1.863875e-08	-2.540079e+01	-1.224306e+03
5.200000e-07	-3.447728e-06	-1.843307e-08	-2.467419e+01	-1.210707e+03
5.300000e-07	-3.344999e-06	-1.821460e-08	-2.393899e+01	-1.196567e+03
5.400000e-07	-3.241019e-06	-1.799103e-08	-2.319485e+01	-1.181819e+03
5.500000e-07	-3.135819e-06	-1.775663e-08	-2.244197e+01	-1.166400e+03
5.600000e-07	-3.029385e-06	-1.751468e-08	-2.168025e+01	-1.150263e+03
5.700000e-07	-2.921654e-06	-1.725486e-08	-2.090926e+01	-1.133373e+03
5.800000e-07	-2.812823e-06	-1.698153e-08	-2.013039e+01	-1.115712e+03
5.900000e-07	-2.703056e-06	-1.669619e-08	-1.934483e+01	-1.097265e+03
6.000000e-07	-2.592426e-06	-1.639656e-08	-1.855309e+01	-1.078015e+03
6.100000e-07	-2.480853e-06	-1.608700e-08	-1.775460e+01	-1.057924e+03
6.200000e-07	-2.368265e-06	-1.576833e-08	-1.694884e+01	-1.036937e+03
6.300000e-07	-2.254768e-06	-1.543625e-08	-1.613659e+01	-1.014969e+03
6.400000e-07	-2.140281e-06	-1.508214e-08	-1.531725e+01	-9.919176e+02
6.500000e-07	-2.024736e-06	-1.471028e-08	-1.449033e+01	-9.676688e+02
6.600000e-07	-1.908345e-06	-1.431790e-08	-1.365736e+01	-9.421058e+02
6.700000e-07	-1.791297e-06	-1.390721e-08	-1.281969e+01	-9.151182e+02
6.800000e-07	-1.673695e-06	-1.347546e-08	-1.197805e+01	-8.866048e+02
6.900000e-07	-1.555553e-06	-1.301745e-08	-1.113255e+01	-8.564713e+02
7.000000e-07	-1.436902e-06	-1.252973e-08	-1.028340e+01	-8.246239e+02
7.100000e-07	-1.317751e-06	-1.200804e-08	-9.430685e+00	-7.909615e+02
7.200000e-07	-1.198131e-06	-1.145939e-08	-8.574606e+00	-7.553720e+02
7.300000e-07	-1.078073e-06	-1.088463e-08	-7.715391e+00	-7.177360e+02
7.400000e-07	-9.576176e-07	-1.028110e-08	-6.853336e+00	-6.779405e+02
7.500000e-07	-8.369231e-07	-9.643219e-09	-5.989567e+00	-6.359008e+02
7.600000e-07	-7.160118e-07	-8.967608e-09	-5.124247e+00	-5.915893e+02
7.700000e-07	-5.948907e-07	-8.253085e-09	-4.257425e+00	-5.450607e+02
7.800000e-07	-4.735839e-07	-7.508146e-09	-3.389275e+00	-4.964700e+02
7.900000e-07	-3.520961e-07	-6.741085e-09	-2.519829e+00	-4.460734e+02
8.000000e-07	-2.304821e-07	-5.952530e-09	-1.649480e+00	-3.942094e+02
8.100000e-07	-1.087116e-07	-5.148464e-09	-7.780109e-01	-3.412602e+02
8.200000e-07	1.318470e-08	-4.333510e-09	9.435827e-02	-2.875998e+02
8.300000e-07	1.350869e-07	-3.511324e-09	9.667697e-01	-2.335358e+02
8.400000e-07	2.569390e-07	-2.685994e-09	1.838823e+00	-1.792608e+02
8.500000e-07	3.787188e-07	-1.858654e-09	2.710358e+00	-1.248205e+02
8.600000e-07	5.003698e-07	-1.026084e-09	3.580973e+00	-7.011142e+01
8.700000e-07	6.218770e-07	-1.870024e-10	4.450557e+00	-1.490774e+01
8.800000e-07	7.432159e-07	6.647344e-10	5.318938e+00	4.108291e+01
8.900000e-07	8.643403e-07	1.534333e-09	6.185783e+00	9.814593e+01
9.000000e-07	9.852057e-07	2.421411e-09	7.050774e+00	1.564812e+02
9.100000e-07	1.105772e-06	3.325475e-09	7.913626e+00	2.161347e+02
9.200000e-07	1.225979e-06	4.247854e-09	8.773903e+00	2.769547e+02
9.300000e-07	1.345737e-06	5.187035e-09	9.630973e+00	3.385796e+02
9.400000e-07	1.465021e-06	6.131382e-09	1.048464e+01	4.004623e+02
9.500000e-07	1.583730e-06	7.068678e-09	1.133421e+01	4.619245e+02
9.600000e-07	1.701845e-06	7.986791e-09	1.217951e+01	5.222326e+02
9.700000e-07	1.819384e-06	8.874210e-09	1.302070e+01	5.806792e+02
9.800000e-07	1.936265e-06	9.723140e-09	1.385717e+01	6.366574e+02
9.900000e-07	2.052436e-06	1.052710e-08	1.468857e+01	6.897158e+02
1.000000e-06	2.167742e-06	1.128250e-08	1.551377e+01	7.395851e+02
1.010000e-06	2.281957e-06	1.198810e-08	1.633117e+01	7.861771e+02
1.020000e-06	2.395123e-06	1.264603e-08	1.714106e+01	8.295586e+02
1.030000e-06	2.507411e-06	1.325962e-08	1.794466e+01	8.699089e+02
1.040000e-06	2.618702e-06	1.383059e-08	1.874114e+01	9.074717e+02
1.050000e-06	2.728966e-06	1.436058e-08	1.953026e+01	9.425101e+02
1.060000e-06	2.838357e-06	1.485615e-08	2.031313e+01	9.752732e+02
1.070000e-06	2.946908e-06	1.531834e-08	2.108999e+01	1.005977e+03
1.080000e-06	3.054636e-06	1.575588e-08	2.186097e+01	1.034797e+03
1.090000e-06	3.161244e-06	1.616954e-08	2.262392e+01	1.061879e+03
1.100000e-06	3.266485e-06	1.655970e-08	2.337709e+01	1.087346e+03
1.110000e-06	3.370476e-06	1.692627e-08	2.412132e+01	1.111311e+03
1.120000e-06	3.473300e-06	1.726914e-08	2.485720e+01	1.133884e+03
1.130000e-06	3.574939e-06	1.759171e-08	2.558460e+01	1.155177e+03
1.140000e-06	3.675460e-06	1.789688e-08	2.630398e+01	1.175300e+03
1.150000e-06	3.774786e-06	1.818776e-08	2.701483e+01	1.194355e+03
1.160000e-06	3.872573e-06	1.846176e-08	2.771465e+01	1.212428e+03
1.170000e-06	3.968813e-06	1.872128e-08	2.840342e+01	1.229590e+03
1.180000e-06	4.063687e-06	1.896820e-08	2.908239e+01	1.245897e+03
1.190000e-06	4.157179e-06	1.920488e-08	2.975148e+01	1.261387e+03
1.200000e-06	4.249432e-06	1.942820e-08	3.041170e+01	1.276097e+03
1.210000e-06	4.340278e-06	1.963930e-08	3.106185e+01	1.290061e+03
1.220000e-06	4.429373e-06	1.984017e-08	3.169948e+01	1.303319e+03
1.230000e-06	4.516758e-06	2.003145e-08	3.232486e+01	1.315916e+03
1.240000e-06	4.602521e-06	2.021219e-08	3.293864e+01	1.327903e+03
1.250000e-06	4.686831e-06	2.038478e-08	3.354202e+01	1.339328e+03
1.260000e-06	4.769653e-06	2.055151e-08	3.413474e+01	1.350231e+03
1.270000e-06	4.850654e-06	2.071176e-08	3.471444e+01	1.360643e+03
1.280000e-06	4.929735e-06	2.086475e-08	3.528039e+01	1.370577e+03
1.290000e-06	5.007038e-06	2.101167e-08	3.583363e+01	1.380037e+03
1.300000e-06	5.082495e-06	2.115079e-08	3.637365e+01	1.389019e+03
1.310000e-06	5.155846e-06	2.128250e-08	3.689859e+01	1.397516e+03
1.320000e-06	5.227197e-06	2.140504e-08	3.740922e+01	1.405531e+03
1.330000e-06	5.296671e-06	2.151830e-08	3.790643e+01	1.413076e+03
1.340000e-06	5.364382e-06	2.162647e-08	3.839101e+01	1.420176e+03
1.350000e-06	5.430168e-06	2.172864e-08	3.886182e+01	1.426865e+03
1.360000e-06	5.493837e-06	2.182461e-08	3.931748e+01	1.433188e+03
1.370000e-06	5.555574e-06	2.191532e-08	3.975930e+01	1.439185e+03
1.380000e-06	5.615610e-06	2.200397e-08	4.018897e+01	1.444894e+03
1.390000e-06	5.673690e-06	2.208898e-08	4.060462e+01	1.450343e+03
1.400000e-06	5.729597e-06	2.216961e-08	4.100473e+01	1.455549e+03
1.410000e-06	5.783499e-06	2.224658e-08	4.139049e+01	1.460520e+03
1.420000e-06	5.835117e-06	2.231870e-08	4.175990e+01	1.465256e+03
1.430000e-06	5.884195e-06	2.238534e-08	4.211114e+01	1.469757e+03
1.440000e-06	5.931012e-06	2.244635e-08	4.244618e+01	1.474020e+03
1.450000e-06	5.975961e-06	2.250469e-08	4.276787e+01	1.478044e+03
1.460000e-06	6.018913e-06	2.256302e-08	4.307526e+01	1.481830e+03
1.470000e-06	6.059543e-06	2.262049e-08	4.336604e+01	1.485379e+03
1.480000e-06	6.097951e-06	2.267337e-08	4.364091e+01	1.488690e+03
1.490000e-06	6.134497e-06	2.272038e-08	4.390246e+01	1.491759e+03
1.500000e-06	6.168914e-06	2.276026e-08	4.414877e+01	1.494580e+03
1.510000e-06	6.200964e-06	2.279545e-08	4.437814e+01	1.497147e+03
1.520000e-06	6.230916e-06	2.282871e-08	4.459250e+01	1.499455e+03
1.530000e-06	6.258848e-06	2.285906e-08	4.479240e+01	1.501504e+03
1.540000e-06	6.284417e-06	2.288685e-08	4.497539e+01	1.503304e+03
1.550000e-06	6.307494e-06	2.291118e-08	4.514054e+01	1.504867e+03
1.560000e-06	6.328437e-06	2.293149e-08	4.529042e+01	1.506214e+03
1.570000e-06	6.347327e-06	2.295044e-08	4.542561e+01	1.507367e+03
1.580000e-06	6.363896e-06	2.296705e-08	4.554419e+01	1.508345e+03
1.590000e-06	6.378045e-06	2.297984e-08	4.564545e+01	1.509160e+03
1.600000e-06	6.389772e-06	2.298914e-08	4.572937e+01	1.509818e+03
1.610000e-06	6.398939e-06	2.299717e-08	4.579498e+01	1.510317e+03
1.620000e-06	6.405644e-06	2.300312e-08	4.584296e+01	1.510649e+03
1.630000e-06	6.410229e-06	2.300603e-08	4.587577e+01	1.510806e+03
1.640000e-06	6.412580e-06	2.300891e-08	4.589260e+01	1.510782e+03
1.650000e-06	6.412546e-06	2.301088e-08	4.589236e+01	1.510578e+03
1.660000e-06	6.410343e-06	2.299830e-08	4.587659e+01	1.510199e+03
1.670000e-06	6.406198e-06	2.298956e-08	4.584693e+01	1.509657e+03
1.680000e-06	6.399844e-06	2.298179e-08	4.580145e+01	1.508964e+03
1.690000e-06	6.391283e-06	2.296967e-08	4.574018e+01	1.508128e+03
1.700000e-06	6.380801e-06	2.295716e-08	4.566517e+01	1.507155e+03
1.710000e-06	6.368064e-06	2.294338e-08	4.557402e+01	1.506041e+03
1.720000e-06	6.353022e-06	2.294602e-08	4.546637e+01	1.504781e+03
1.730000e-06	6.336056e-06	2.290880e-08	4.534494e+01	1.503365e+03
1.740000e-06	6.317109e-06	2.278292e-08	4.520935e+01	1.501789e+03
1.750000e-06	6.295280e-06	2.278387e-08	4.505312e+01	1.500058e+03
1.760000e-06	6.270210e-06	2.280380e-08	4.487371e+01	1.498185e+03
1.770000e-06	6.242830e-06	2.274575e-08	4.467776e+01	1.496193e+03
1.780000e-06	6.213615e-06	2.284047e-08	4.446868e+01	1.494105e+03
1.790000e-06	6.182770e-06	2.283302e-08	4.424793e+01	1.491944e+03
1.800000e-06	6.150538e-06	2.264175e-08	4.401726e+01	1.489719e+03
1.810000e-06	6.116269e-06	2.267475e-08	4.377201e+01	1.487418e+03
1.820000e-06	6.079933e-06	2.251421e-08	4.351196e+01	1.485014e+03
1.830000e-06	6.041577e-06	2.250178e-08	4.323746e+01	1.482458e+03
1.840000e-06	6.000798e-06	2.273113e-08	4.294562e+01	1.479693e+03
1.850000e-06	5.957998e-06	2.250321e-08	4.263932e+01	1.476663e+03
1.860000e-06	5.913229e-06	2.250137e-08	4.231892e+01	1.473323e+03
1.870000e-06	5.866180e-06	2.249001e-08	4.198221e+01	1.469649e+03
1.880000e-06	5.817109e-06	2.231346e-08	4.163102e+01	1.465639e+03
1.890000e-06	5.765679e-06	2.237280e-08	4.126296e+01	1.461319e+03
1.900000e-06	5.711645e-06	2.218600e-08	4.087625e+01	1.456724e+03
1.910000e-06	5.655303e-06	2.215589e-08	4.047303e+01	1.451897e+03
1.920000e-06	5.596919e-06	2.217098e-08	4.005520e+01	1.446872e+03
1.930000e-06	5.536717e-06	2.198436e-08	3.962435e+01	1.441665e+03
1.940000e-06	5.474388e-06	2.197035e-08	3.917829e+01	1.436274e+03
1.950000e-06	5.409898e-06	2.179714e-08	3.871675e+01	1.430673e+03
1.960000e-06	5.343474e-06	2.175913e-08	3.824138e+01	1.424825e+03
1.970000e-06	5.275126e-06	2.166360e-08	3.775224e+01	1.418690e+03
1.980000e-06	5.204744e-06	2.153399e-08	3.724854e+01	1.412239e+03
1.990000e-06	5.132213e-06	2.152241e-08	3.672946e+01	1.405454e+03
2.000000e-06	5.057890e-06	2.133826e-08	3.619756e+01	1.398341e+03
2.010000e-06	4.981653e-06	2.124734e-08	3.565196e+01	1.390917e+03
2.020000e-06	4.903256e-06	2.109132e-08	3.509089e+01	1.383210e+03
2.030000e-06	4.822956e-06	2.099553e-08	3.451622e+01	1.375245e+03
2.040000e-06	4.741000e-06	2.092543e-08	3.392968e+01	1.367032e+03
2.050000e-06	4.657629e-06	2.076346e-08	3.333303e+01	1.358564e+03
2.060000e-06	4.572657e-06	2.064698e-08	3.272492e+01	1.349815e+03
2.070000e-06	4.486000e-06	2.046966e-08	3.210474e+01	1.340741e+03
2.080000e-06	4.397688e-06	2.033965e-08	3.147272e+01	1.331295e+03
2.090000e-06	4.307809e-06	2.017384e-08	3.082949e+01	1.321433e+03
2.100000e-06	4.216574e-06	2.002300e-08	3.017655e+01	1.311126e+03
2.110000e-06	4.123948e-06	1.987259e-08	2.951366e+01	1.300363e+03
2.120000e-06	4.029810e-06	1.968603e-08	2.883995e+01	1.289149e+03
2.130000e-06	3.934104e-06	1.951362e-08	2.815501e+01	1.277501e+03
2.140000e-06	3.837034e-06	1.932314e-08	2.746032e+01	1.265437e+03
2.150000e-06	3.738706e-06	1.915445e-08	2.675661e+01	1.252963e+03
2.160000e-06	3.639030e-06	1.895734e-08	2.604327e+01	1.240067e+03
2.170000e-06	3.538046e-06	1.875900e-08	2.532057e+01	1.226713e+03
2.180000e-06	3.435732e-06	1.853587e-08	2.458834e+01	1.212850e+03
2.190000e-06	3.331991e-06	1.830941e-08	2.384590e+01	1.198411e+03
2.200000e-06	3.227022e-06	1.807648e-08	2.309467e+01	1.183333e+03
2.210000e-06	3.121015e-06	1.783710e-08	2.233601e+01	1.167558e+03
2.220000e-06	3.013856e-06	1.759031e-08	2.156911e+01	1.151045e+03
2.230000e-06	2.905657e-06	1.733040e-08	2.079477e+01	1.133769e+03
2.240000e-06	2.796595e-06	1.706924e-08	2.001426e+01	1.115715e+03
2.250000e-06	2.686563e-06	1.678707e-08	1.922679e+01	1.096867e+03
2.260000e-06	2.575388e-06	1.648767e-08	1.843116e+01	1.077200e+03
2.270000e-06	2.463131e-06	1.616686e-08	1.762777e+01	1.056667e+03
2.280000e-06	2.349954e-06	1.583652e-08	1.681780e+01	1.035199e+03
2.290000e-06	2.235835e-06	1.548892e-08	1.600109e+01	1.012701e+03
2.300000e-06	2.120860e-06	1.513041e-08	1.517825e+01	9.890635e+02
2.310000e-06	2.005117e-06	1.475574e-08	1.434993e+01	9.641696e+02
2.320000e-06	1.888567e-06	1.436063e-08	1.351582e+01	9.379052e+02
2.330000e-06	1.771370e-06	1.393800e-08	1.267708e+01	9.101645e+02
2.340000e-06	1.653477e-06	1.348880e-08	1.183336e+01	8.808504e+02
2.350000e-06	1.534867e-06	1.301805e-08	1.098451e+01	8.498697e+02
2.360000e-06	1.415612e-06	1.252320e-08	1.013104e+01	8.171258e+02
2.370000e-06	1.295796e-06	1.200067e-08	9.273560e+00	7.825122e+02
2.380000e-06	1.175575e-06	1.143900e-08	8.413180e+00	7.459122e+02
2.390000e-06	1.054983e-06	1.084379e-08	7.550149e+00	7.072071e+02
2.400000e-06	9.340995e-07	1.021620e-08	6.685025e+00	6.662949e+02
2.410000e-06	8.129383e-07	9.559992e-09	5.817916e+00	6.231159e+02
2.420000e-06	6.915700e-07	8.872725e-09	4.949325e+00	5.776806e+02
2.430000e-06	5.700631e-07	8.153532e-09	4.079743e+00	5.300928e+02
2.440000e-06	4.483759e-07	7.401323e-09	3.208870e+00	4.805591e+02
2.450000e-06	3.265687e-07	6.615922e-09	2.337138e+00	4.293803e+02
2.460000e-06	2.045905e-07	5.809353e-09	1.464183e+00	3.769229e+02
2.470000e-06	8.246708e-08	4.991444e-09	5.901881e-01	3.235719e+02
2.480000e-06	-3.966587e-08	4.169774e-09	-2.838748e-01	2.696751e+02
2.490000e-06	-1.617732e-07	3.342511e-09	-1.157755e+00	2.154880e+02
2.500000e-06	-2.838279e-07	2.507943e-09	-2.031258e+00	1.611320e+02
2.510000e-06	-4.058219e-07	1.670948e-09	-2.904326e+00	1.065766e+02
2.520000e-06	-5.276654e-07	8.302422e-10	-3.776317e+00	5.165189e+01
2.530000e-06	-6.493519e-07	-1.945561e-11	-4.647185e+00	-3.909585e+00
2.540000e-06	-7.708683e-07	-8.819414e-10	-5.516836e+00	-6.040658e+01
2.550000e-06	-8.921369e-07	-1.762430e-09	-6.384713e+00	-1.180912e+02
2.560000e-06	-1.013126e-06	-2.663409e-09	-7.250589e+00	-1.770939e+02
2.570000e-06	-1.133795e-06	-3.583838e-09	-8.114178e+00	-2.373652e+02
2.580000e-06	-1.254160e-06	-4.520932e-09	-8.975587e+00	-2.986476e+02
2.590000e-06	-1.374111e-06	-5.466903e-09	-9.834033e+00	-3.604819e+02
2.600000e-06	-1.493447e-06	-6.413097e-09	-1.068808e+01	-4.222468e+02
2.610000e-06	-1.612011e-06	-7.348868e-09	-1.153660e+01	-4.832262e+02
2.620000e-06	-1.729745e-06	-8.260509e-09	-1.237918e+01	-5.426895e+02
2.630000e-06	-1.846785e-06	-9.137399e-09	-1.321680e+01	-5.999713e+02
2.640000e-06	-1.963052e-06	-9.972051e-09	-1.404888e+01	-6.545373e+02
2.650000e-06	-2.078462e-06	-1.075884e-08	-1.487483e+01	-7.060254e+02
2.660000e-06	-2.192964e-06	-1.149716e-08	-1.569428e+01	-7.542588e+02
2.670000e-06	-2.306363e-06	-1.218625e-08	-1.650583e+01	-7.992313e+02
2.680000e-06	-2.418681e-06	-1.282788e-08	-1.730965e+01	-8.410719e+02
2.690000e-06	-2.530126e-06	-1.342788e-08	-1.810723e+01	-8.799981e+02
2.700000e-06	-2.640637e-06	-1.398921e-08	-1.889812e+01	-9.162683e+02
2.710000e-06	-2.750108e-06	-1.451310e-08	-1.968157e+01	-9.501421e+02
2.720000e-06	-2.858759e-06	-1.500013e-08	-2.045914e+01	-9.818531e+02
2.730000e-06	-2.966554e-06	-1.545338e-08	-2.123059e+01	-1.011598e+03
2.740000e-06	-3.073342e-06	-1.587678e-08	-2.199484e+01	-1.039535e+03
2.750000e-06	-3.179058e-06	-1.627444e-08	-2.275141e+01	-1.065797e+03
2.760000e-06	-3.283686e-06	-1.665126e-08	-2.350020e+01	-1.090501e+03
2.770000e-06	-3.387099e-06	-1.700836e-08	-2.424028e+01	-1.113758e+03
2.780000e-06	-3.489056e-06	-1.734640e-08	-2.496996e+01	-1.135680e+03
2.790000e-06	-3.589810e-06	-1.766580e-08	-2.569102e+01	-1.156377e+03
2.800000e-06	-3.689415e-06	-1.796658e-08	-2.640386e+01	-1.175956e+03
2.810000e-06	-3.787713e-06	-1.825101e-08	-2.710734e+01	-1.194512e+03
2.820000e-06	-3.884790e-06	-1.851924e-08	-2.780209e+01	-1.212125e+03
2.830000e-06	-3.980631e-06	-1.877325e-08	-2.848799e+01	-1.228856e+03
2.840000e-06	-4.074922e-06	-1.901616e-08	-2.916279e+01	-1.244752e+03
2.850000e-06	-4.167677e-06	-1.924793e-08	-2.982661e+01	-1.259850e+03
2.860000e-06	-4.259038e-06	-1.946930e-08	-3.048045e+01	-1.274184e+03
2.870000e-06	-4.348800e-06	-1.968148e-08	-3.112285e+01	-1.287792e+03
2.880000e-06	-4.437068e-06	-1.988369e-08	-3.175455e+01	-1.300716e+03
2.890000e-06	-4.523665e-06	-2.007338e-08	-3.237429e+01	-1.313004e+03
2.900000e-06	-4.608483e-06	-2.024980e-08	-3.298130e+01	-1.324707e+03
2.910000e-06	-4.691737e-06	-2.041820e-08	-3.357713e+01	-1.335869e+03
2.920000e-06	-4.773408e-06	-2.058050e-08	-3.416162e+01	-1.346526e+03
2.930000e-06	-4.853443e-06	-2.073409e-08	-3.473440e+01	-1.356700e+03
2.940000e-06	-4.931542e-06	-2.088024e-08	-3.529333e+01	-1.366399e+03
