# Temperatura_=_85.85
# Concentracion g/m^3_=_28200.0
# C_Vs_to_Am_M_A/Vsm_=_65563218390.804596
# pendiente_HvsI_1/m_=_3716.3
# ordenada_HvsI_A/m_=_1297.0
# frecuencia_Hz_=_302113.0436882008

Tiempo_(s)	Campo_(V.s)	Magnetizacion_(V.s)	Campo_(kA/m)	Magnetizacion_(A/m)
0.000000e+00	-6.381180e-06	-2.467996e-08	-4.557210e+01	-1.615838e+03
1.000000e-08	-6.377787e-06	-2.467541e-08	-4.554787e+01	-1.615290e+03
2.000000e-08	-6.372287e-06	-2.466395e-08	-4.550859e+01	-1.614579e+03
3.000000e-08	-6.364907e-06	-2.465465e-08	-4.545588e+01	-1.613723e+03
4.000000e-08	-6.355411e-06	-2.464108e-08	-4.538806e+01	-1.612730e+03
5.000000e-08	-6.343528e-06	-2.461924e-08	-4.530320e+01	-1.611596e+03
6.000000e-08	-6.329306e-06	-2.459287e-08	-4.520163e+01	-1.610304e+03
7.000000e-08	-6.312752e-06	-2.455476e-08	-4.508341e+01	-1.608829e+03
8.000000e-08	-6.294128e-06	-2.453263e-08	-4.495041e+01	-1.607146e+03
9.000000e-08	-6.273390e-06	-2.459112e-08	-4.480230e+01	-1.605242e+03
1.000000e-07	-6.250179e-06	-2.454039e-08	-4.463653e+01	-1.603119e+03
1.100000e-07	-6.224370e-06	-2.444421e-08	-4.445222e+01	-1.600800e+03
1.200000e-07	-6.196189e-06	-2.442598e-08	-4.425096e+01	-1.598325e+03
1.300000e-07	-6.166145e-06	-2.437539e-08	-4.403639e+01	-1.595744e+03
1.400000e-07	-6.134615e-06	-2.422777e-08	-4.381122e+01	-1.593102e+03
1.500000e-07	-6.101323e-06	-2.431182e-08	-4.357346e+01	-1.590429e+03
1.600000e-07	-6.065900e-06	-2.432131e-08	-4.332048e+01	-1.587726e+03
1.700000e-07	-6.028661e-06	-2.409510e-08	-4.305453e+01	-1.584966e+03
1.800000e-07	-5.989401e-06	-2.420958e-08	-4.277415e+01	-1.582089e+03
1.900000e-07	-5.947642e-06	-2.410291e-08	-4.247592e+01	-1.579020e+03
2.000000e-07	-5.903667e-06	-2.397251e-08	-4.216187e+01	-1.575679e+03
2.100000e-07	-5.857622e-06	-2.404154e-08	-4.183303e+01	-1.571998e+03
2.200000e-07	-5.809330e-06	-2.389005e-08	-4.148815e+01	-1.567934e+03
2.300000e-07	-5.758590e-06	-2.382517e-08	-4.112578e+01	-1.563478e+03
2.400000e-07	-5.705270e-06	-2.376370e-08	-4.074499e+01	-1.558650e+03
2.500000e-07	-5.649712e-06	-2.365631e-08	-4.034822e+01	-1.553494e+03
2.600000e-07	-5.592025e-06	-2.361650e-08	-3.993623e+01	-1.548062e+03
2.700000e-07	-5.532184e-06	-2.351038e-08	-3.950887e+01	-1.542405e+03
2.800000e-07	-5.470369e-06	-2.342657e-08	-3.906741e+01	-1.536552e+03
2.900000e-07	-5.406675e-06	-2.330745e-08	-3.861253e+01	-1.530512e+03
3.000000e-07	-5.340923e-06	-2.321145e-08	-3.814295e+01	-1.524266e+03
3.100000e-07	-5.273033e-06	-2.313321e-08	-3.765811e+01	-1.517781e+03
3.200000e-07	-5.203170e-06	-2.302536e-08	-3.715917e+01	-1.511016e+03
3.300000e-07	-5.131630e-06	-2.294384e-08	-3.664826e+01	-1.503935e+03
3.400000e-07	-5.058195e-06	-2.278871e-08	-3.612381e+01	-1.496515e+03
3.500000e-07	-4.982578e-06	-2.267472e-08	-3.558378e+01	-1.488749e+03
3.600000e-07	-4.904978e-06	-2.255792e-08	-3.502959e+01	-1.480647e+03
3.700000e-07	-4.825255e-06	-2.242190e-08	-3.446024e+01	-1.472224e+03
3.800000e-07	-4.743596e-06	-2.231698e-08	-3.387706e+01	-1.463498e+03
3.900000e-07	-4.660425e-06	-2.216673e-08	-3.328308e+01	-1.454471e+03
4.000000e-07	-4.575915e-06	-2.201118e-08	-3.267954e+01	-1.445133e+03
4.100000e-07	-4.489986e-06	-2.185576e-08	-3.206587e+01	-1.435459e+03
4.200000e-07	-4.402705e-06	-2.171503e-08	-3.144254e+01	-1.425412e+03
4.300000e-07	-4.313910e-06	-2.155652e-08	-3.080840e+01	-1.414952e+03
4.400000e-07	-4.223412e-06	-2.137814e-08	-3.016210e+01	-1.404045e+03
4.500000e-07	-4.131347e-06	-2.121505e-08	-2.950460e+01	-1.392673e+03
4.600000e-07	-4.037701e-06	-2.102785e-08	-2.883581e+01	-1.380829e+03
4.700000e-07	-3.942761e-06	-2.084355e-08	-2.815778e+01	-1.368517e+03
4.800000e-07	-3.846543e-06	-2.065448e-08	-2.747063e+01	-1.355748e+03
4.900000e-07	-3.748796e-06	-2.046155e-08	-2.677256e+01	-1.342524e+03
5.000000e-07	-3.649559e-06	-2.024700e-08	-2.606384e+01	-1.328835e+03
5.100000e-07	-3.548982e-06	-2.001898e-08	-2.534555e+01	-1.314652e+03
5.200000e-07	-3.447116e-06	-1.979288e-08	-2.461807e+01	-1.299927e+03
5.300000e-07	-3.344147e-06	-1.955415e-08	-2.388270e+01	-1.284603e+03
5.400000e-07	-3.240000e-06	-1.931208e-08	-2.313892e+01	-1.268618e+03
5.500000e-07	-3.134402e-06	-1.905496e-08	-2.238477e+01	-1.251918e+03
5.600000e-07	-3.027514e-06	-1.879241e-08	-2.162142e+01	-1.234462e+03
5.700000e-07	-2.919459e-06	-1.851342e-08	-2.084973e+01	-1.216222e+03
5.800000e-07	-2.810359e-06	-1.822331e-08	-2.007057e+01	-1.197181e+03
5.900000e-07	-2.700355e-06	-1.792150e-08	-1.928497e+01	-1.177321e+03
6.000000e-07	-2.589534e-06	-1.760366e-08	-1.849352e+01	-1.156615e+03
6.100000e-07	-2.477848e-06	-1.727029e-08	-1.769590e+01	-1.135014e+03
6.200000e-07	-2.365012e-06	-1.692201e-08	-1.689007e+01	-1.112442e+03
6.300000e-07	-2.251010e-06	-1.656018e-08	-1.607590e+01	-1.088799e+03
6.400000e-07	-2.136054e-06	-1.617802e-08	-1.525493e+01	-1.063967e+03
6.500000e-07	-2.020189e-06	-1.577919e-08	-1.442746e+01	-1.037821e+03
6.600000e-07	-1.903558e-06	-1.535690e-08	-1.359452e+01	-1.010238e+03
6.700000e-07	-1.786199e-06	-1.491267e-08	-1.275639e+01	-9.811072e+02
6.800000e-07	-1.668174e-06	-1.444162e-08	-1.191350e+01	-9.503269e+02
6.900000e-07	-1.549644e-06	-1.394282e-08	-1.106700e+01	-9.178018e+02
7.000000e-07	-1.430723e-06	-1.341897e-08	-1.021771e+01	-8.834320e+02
7.100000e-07	-1.311437e-06	-1.286316e-08	-9.365815e+00	-8.471038e+02
7.200000e-07	-1.191751e-06	-1.227650e-08	-8.511056e+00	-8.086856e+02
7.300000e-07	-1.071633e-06	-1.165529e-08	-7.653221e+00	-7.680343e+02
7.400000e-07	-9.510650e-07	-1.099994e-08	-6.792165e+00	-7.250131e+02
7.500000e-07	-8.300623e-07	-1.030829e-08	-5.928007e+00	-6.795198e+02
7.600000e-07	-7.086683e-07	-9.578242e-09	-5.061054e+00	-6.315208e+02
7.700000e-07	-5.869776e-07	-8.804388e-09	-4.191983e+00	-5.810809e+02
7.800000e-07	-4.651175e-07	-7.995177e-09	-3.321702e+00	-5.283818e+02
7.900000e-07	-3.431437e-07	-7.162166e-09	-2.450609e+00	-4.737197e+02
8.000000e-07	-2.210420e-07	-6.305785e-09	-1.578603e+00	-4.174802e+02
8.100000e-07	-9.883306e-08	-5.432897e-09	-7.058302e-01	-3.600905e+02
8.200000e-07	2.345579e-08	-4.549807e-09	1.675128e-01	-3.019569e+02
8.300000e-07	1.457695e-07	-3.660768e-09	1.041033e+00	-2.434000e+02
8.400000e-07	2.680677e-07	-2.765001e-09	1.914443e+00	-1.846007e+02
8.500000e-07	3.903793e-07	-1.866147e-09	2.787949e+00	-1.255707e+02
8.600000e-07	5.126013e-07	-9.610751e-10	3.660815e+00	-6.615663e+01
8.700000e-07	6.345752e-07	-4.731340e-11	4.531908e+00	-6.079275e+00
8.800000e-07	7.563121e-07	8.831720e-10	5.401310e+00	5.499673e+01
8.900000e-07	8.778185e-07	1.834339e-09	6.269065e+00	1.173754e+02
9.000000e-07	9.990389e-07	2.804382e-09	7.134777e+00	1.812405e+02
9.100000e-07	1.119880e-06	3.797418e-09	7.997779e+00	2.465829e+02
9.200000e-07	1.240213e-06	4.810642e-09	8.857152e+00	3.131590e+02
9.300000e-07	1.360056e-06	5.837782e-09	9.713031e+00	3.804892e+02
9.400000e-07	1.479447e-06	6.866516e-09	1.056568e+01	4.478964e+02
9.500000e-07	1.598315e-06	7.882745e-09	1.141459e+01	5.145788e+02
9.600000e-07	1.716648e-06	8.873665e-09	1.225968e+01	5.797012e+02
9.700000e-07	1.834393e-06	9.824697e-09	1.310057e+01	6.424902e+02
9.800000e-07	1.951444e-06	1.072790e-08	1.393651e+01	7.023142e+02
9.900000e-07	2.067708e-06	1.158116e-08	1.476683e+01	7.587378e+02
1.000000e-06	2.183071e-06	1.238103e-08	1.559071e+01	8.115412e+02
1.010000e-06	2.297394e-06	1.312693e-08	1.640716e+01	8.607072e+02
1.020000e-06	2.410748e-06	1.382169e-08	1.721670e+01	9.063812e+02
1.030000e-06	2.523184e-06	1.446840e-08	1.801967e+01	9.488160e+02
1.040000e-06	2.634603e-06	1.506984e-08	1.881539e+01	9.883138e+02
1.050000e-06	2.745075e-06	1.562746e-08	1.960434e+01	1.025177e+03
1.060000e-06	2.854624e-06	1.615099e-08	2.038670e+01	1.059674e+03
1.070000e-06	2.963266e-06	1.663901e-08	2.116258e+01	1.092025e+03
1.080000e-06	3.071132e-06	1.709701e-08	2.193292e+01	1.122404e+03
1.090000e-06	3.177936e-06	1.752880e-08	2.269568e+01	1.150948e+03
1.100000e-06	3.283397e-06	1.793524e-08	2.344884e+01	1.177779e+03
1.110000e-06	3.387551e-06	1.832085e-08	2.419267e+01	1.203015e+03
1.120000e-06	3.490459e-06	1.868602e-08	2.492761e+01	1.226779e+03
1.130000e-06	3.592176e-06	1.903037e-08	2.565403e+01	1.249198e+03
1.140000e-06	3.692750e-06	1.935388e-08	2.637230e+01	1.270398e+03
1.150000e-06	3.792096e-06	1.965893e-08	2.708179e+01	1.290493e+03
1.160000e-06	3.889925e-06	1.994849e-08	2.778045e+01	1.309578e+03
1.170000e-06	3.986172e-06	2.022219e-08	2.846781e+01	1.327723e+03
1.180000e-06	4.081017e-06	2.047929e-08	2.914516e+01	1.344979e+03
1.190000e-06	4.174485e-06	2.072695e-08	2.981268e+01	1.361376e+03
1.200000e-06	4.266713e-06	2.096378e-08	3.047133e+01	1.376943e+03
1.210000e-06	4.357625e-06	2.118935e-08	3.112059e+01	1.391711e+03
1.220000e-06	4.446789e-06	2.140325e-08	3.175737e+01	1.405718e+03
1.230000e-06	4.534174e-06	2.160670e-08	3.238144e+01	1.419018e+03
1.240000e-06	4.619968e-06	2.179905e-08	3.299415e+01	1.431671e+03
1.250000e-06	4.704292e-06	2.198009e-08	3.359637e+01	1.443736e+03
1.260000e-06	4.787020e-06	2.215208e-08	3.418718e+01	1.455267e+03
1.270000e-06	4.867964e-06	2.231960e-08	3.476525e+01	1.466301e+03
1.280000e-06	4.947115e-06	2.248284e-08	3.533052e+01	1.476859e+03
1.290000e-06	5.024388e-06	2.263976e-08	3.588237e+01	1.486944e+03
1.300000e-06	5.099664e-06	2.278821e-08	3.641997e+01	1.496550e+03
1.310000e-06	5.172941e-06	2.292764e-08	3.694329e+01	1.505665e+03
1.320000e-06	5.244304e-06	2.305974e-08	3.745293e+01	1.514286e+03
1.330000e-06	5.313802e-06	2.318541e-08	3.794927e+01	1.522419e+03
1.340000e-06	5.381499e-06	2.330402e-08	3.843273e+01	1.530081e+03
1.350000e-06	5.447155e-06	2.341468e-08	3.890162e+01	1.537303e+03
1.360000e-06	5.510736e-06	2.351669e-08	3.935570e+01	1.544123e+03
1.370000e-06	5.572538e-06	2.361293e-08	3.979707e+01	1.550577e+03
1.380000e-06	5.632568e-06	2.370636e-08	4.022578e+01	1.556699e+03
1.390000e-06	5.690563e-06	2.379533e-08	4.063996e+01	1.562513e+03
1.400000e-06	5.746440e-06	2.388210e-08	4.103901e+01	1.568037e+03
1.410000e-06	5.800305e-06	2.396425e-08	4.142369e+01	1.573281e+03
1.420000e-06	5.851828e-06	2.404048e-08	4.179165e+01	1.578254e+03
1.430000e-06	5.900823e-06	2.411148e-08	4.214156e+01	1.582964e+03
1.440000e-06	5.947598e-06	2.417894e-08	4.247561e+01	1.587420e+03
1.450000e-06	5.992449e-06	2.424318e-08	4.279592e+01	1.591634e+03
1.460000e-06	6.035300e-06	2.430271e-08	4.310195e+01	1.595617e+03
1.470000e-06	6.075908e-06	2.436010e-08	4.339195e+01	1.599374e+03
1.480000e-06	6.114309e-06	2.441447e-08	4.366620e+01	1.602904e+03
1.490000e-06	6.150732e-06	2.446484e-08	4.392632e+01	1.606197e+03
1.500000e-06	6.184978e-06	2.451083e-08	4.417089e+01	1.609237e+03
1.510000e-06	6.216867e-06	2.455169e-08	4.439863e+01	1.612008e+03
1.520000e-06	6.246619e-06	2.458770e-08	4.461111e+01	1.614495e+03
1.530000e-06	6.274448e-06	2.462063e-08	4.480985e+01	1.616692e+03
1.540000e-06	6.299888e-06	2.465003e-08	4.499154e+01	1.618605e+03
1.550000e-06	6.322780e-06	2.467348e-08	4.515502e+01	1.620252e+03
1.560000e-06	6.343618e-06	2.469255e-08	4.530384e+01	1.621659e+03
1.570000e-06	6.362301e-06	2.471127e-08	4.543727e+01	1.622857e+03
1.580000e-06	6.378601e-06	2.472917e-08	4.555368e+01	1.623870e+03
1.590000e-06	6.392572e-06	2.474303e-08	4.565345e+01	1.624715e+03
1.600000e-06	6.404086e-06	2.475377e-08	4.573568e+01	1.625398e+03
1.610000e-06	6.412977e-06	2.476269e-08	4.579918e+01	1.625912e+03
1.620000e-06	6.419511e-06	2.476926e-08	4.584584e+01	1.626244e+03
1.630000e-06	6.423950e-06	2.477209e-08	4.587754e+01	1.626381e+03
1.640000e-06	6.426058e-06	2.477159e-08	4.589260e+01	1.626313e+03
1.650000e-06	6.425824e-06	2.477206e-08	4.589093e+01	1.626042e+03
1.660000e-06	6.423480e-06	2.475794e-08	4.587419e+01	1.625580e+03
1.670000e-06	6.419141e-06	2.474818e-08	4.584320e+01	1.624945e+03
1.680000e-06	6.412552e-06	2.473983e-08	4.579614e+01	1.624157e+03
1.690000e-06	6.403730e-06	2.472781e-08	4.573314e+01	1.623229e+03
1.700000e-06	6.393002e-06	2.471640e-08	4.565653e+01	1.622165e+03
1.710000e-06	6.380083e-06	2.470269e-08	4.556426e+01	1.620951e+03
1.720000e-06	6.364856e-06	2.470349e-08	4.545552e+01	1.619568e+03
1.730000e-06	6.347690e-06	2.465940e-08	4.533292e+01	1.617990e+03
1.740000e-06	6.328462e-06	2.452304e-08	4.519560e+01	1.616194e+03
1.750000e-06	6.306264e-06	2.453363e-08	4.503707e+01	1.614176e+03
1.760000e-06	6.280875e-06	2.455414e-08	4.485575e+01	1.611948e+03
1.770000e-06	6.253256e-06	2.448619e-08	4.465851e+01	1.609542e+03
1.780000e-06	6.223794e-06	2.456786e-08	4.444810e+01	1.607005e+03
1.790000e-06	6.192711e-06	2.452920e-08	4.422612e+01	1.604386e+03
1.800000e-06	6.160269e-06	2.430763e-08	4.399443e+01	1.601724e+03
1.810000e-06	6.125777e-06	2.438675e-08	4.374810e+01	1.599035e+03
1.820000e-06	6.089289e-06	2.426044e-08	4.348752e+01	1.596306e+03
1.830000e-06	6.050747e-06	2.422303e-08	4.321226e+01	1.593493e+03
1.840000e-06	6.009674e-06	2.442086e-08	4.291894e+01	1.590528e+03
1.850000e-06	5.966607e-06	2.414335e-08	4.261136e+01	1.587329e+03
1.860000e-06	5.921482e-06	2.414812e-08	4.228910e+01	1.583823e+03
1.870000e-06	5.874123e-06	2.413820e-08	4.195088e+01	1.579951e+03
1.880000e-06	5.824791e-06	2.396520e-08	4.159856e+01	1.575688e+03
1.890000e-06	5.772929e-06	2.405445e-08	4.122819e+01	1.571038e+03
1.900000e-06	5.718479e-06	2.385254e-08	4.083932e+01	1.566037e+03
1.910000e-06	5.661816e-06	2.380411e-08	4.043466e+01	1.560734e+03
1.920000e-06	5.603175e-06	2.378463e-08	4.001586e+01	1.555181e+03
1.930000e-06	5.542676e-06	2.360232e-08	3.958380e+01	1.549421e+03
1.940000e-06	5.480007e-06	2.363345e-08	3.913624e+01	1.543472e+03
1.950000e-06	5.415221e-06	2.343522e-08	3.867357e+01	1.537330e+03
1.960000e-06	5.348461e-06	2.338872e-08	3.819679e+01	1.530967e+03
1.970000e-06	5.279711e-06	2.327310e-08	3.770580e+01	1.524344e+03
1.980000e-06	5.208884e-06	2.312108e-08	3.719998e+01	1.517422e+03
1.990000e-06	5.136015e-06	2.310571e-08	3.667957e+01	1.510170e+03
2.000000e-06	5.061386e-06	2.292028e-08	3.614660e+01	1.502574e+03
2.010000e-06	4.984758e-06	2.285347e-08	3.559935e+01	1.494635e+03
2.020000e-06	4.906078e-06	2.267213e-08	3.503745e+01	1.486368e+03
2.030000e-06	4.825586e-06	2.254435e-08	3.446260e+01	1.477789e+03
2.040000e-06	4.743370e-06	2.244731e-08	3.387545e+01	1.468910e+03
2.050000e-06	4.659753e-06	2.227713e-08	3.327828e+01	1.459728e+03
2.060000e-06	4.574438e-06	2.216888e-08	3.266899e+01	1.450223e+03
2.070000e-06	4.487380e-06	2.198189e-08	3.204726e+01	1.440365e+03
2.080000e-06	4.398821e-06	2.184987e-08	3.141480e+01	1.430113e+03
2.090000e-06	4.308716e-06	2.166682e-08	3.077130e+01	1.419430e+03
2.100000e-06	4.217259e-06	2.150676e-08	3.011815e+01	1.408290e+03
2.110000e-06	4.124278e-06	2.134459e-08	2.945411e+01	1.396678e+03
2.120000e-06	4.029756e-06	2.114303e-08	2.877907e+01	1.384597e+03
2.130000e-06	3.933806e-06	2.095392e-08	2.809383e+01	1.372052e+03
2.140000e-06	3.836437e-06	2.074013e-08	2.739845e+01	1.359053e+03
2.150000e-06	3.737835e-06	2.055400e-08	2.669427e+01	1.345597e+03
2.160000e-06	3.637977e-06	2.033569e-08	2.598112e+01	1.331662e+03
2.170000e-06	3.536666e-06	2.012994e-08	2.525760e+01	1.317212e+03
2.180000e-06	3.433963e-06	1.989827e-08	2.452413e+01	1.302193e+03
2.190000e-06	3.329937e-06	1.965875e-08	2.378121e+01	1.286543e+03
2.200000e-06	3.224705e-06	1.940721e-08	2.302968e+01	1.270204e+03
2.210000e-06	3.118400e-06	1.914895e-08	2.227049e+01	1.253128e+03
2.220000e-06	3.011092e-06	1.888228e-08	2.150413e+01	1.235279e+03
2.230000e-06	2.902768e-06	1.859360e-08	2.073052e+01	1.216638e+03
2.240000e-06	2.793305e-06	1.829845e-08	1.994878e+01	1.197187e+03
2.250000e-06	2.682823e-06	1.798912e-08	1.915976e+01	1.176906e+03
2.260000e-06	2.571284e-06	1.767277e-08	1.836319e+01	1.155757e+03
2.270000e-06	2.458663e-06	1.733413e-08	1.755889e+01	1.133679e+03
2.280000e-06	2.345091e-06	1.698577e-08	1.674780e+01	1.110582e+03
2.290000e-06	2.230649e-06	1.661499e-08	1.593050e+01	1.086358e+03
2.300000e-06	2.115485e-06	1.622774e-08	1.510804e+01	1.060882e+03
2.310000e-06	1.999478e-06	1.582089e-08	1.427956e+01	1.034029e+03
2.320000e-06	1.882488e-06	1.539502e-08	1.344405e+01	1.005683e+03
2.330000e-06	1.764718e-06	1.494244e-08	1.260298e+01	9.757365e+02
2.340000e-06	1.646323e-06	1.445762e-08	1.175745e+01	9.440930e+02
2.350000e-06	1.527353e-06	1.394557e-08	1.090781e+01	9.106559e+02
2.360000e-06	1.407811e-06	1.340482e-08	1.005408e+01	8.753194e+02
2.370000e-06	1.287744e-06	1.283655e-08	9.196603e+00	8.379609e+02
2.380000e-06	1.167347e-06	1.223336e-08	8.336773e+00	7.984415e+02
2.390000e-06	1.046653e-06	1.159614e-08	7.474820e+00	7.566181e+02
2.400000e-06	9.255709e-07	1.092010e-08	6.610095e+00	7.123673e+02
2.410000e-06	8.042310e-07	1.020760e-08	5.743529e+00	6.656171e+02
2.420000e-06	6.826208e-07	9.457397e-09	4.875033e+00	6.163796e+02
2.430000e-06	5.607720e-07	8.670977e-09	4.004832e+00	5.647771e+02
2.440000e-06	4.387388e-07	7.855051e-09	3.133315e+00	5.110502e+02
2.450000e-06	3.166396e-07	7.007640e-09	2.261326e+00	4.555445e+02
2.460000e-06	1.944582e-07	6.138531e-09	1.388751e+00	3.986735e+02
2.470000e-06	7.213406e-08	5.253797e-09	5.151555e-01	3.408622e+02
2.480000e-06	-5.020928e-08	4.361523e-09	-3.585766e-01	2.824818e+02
2.490000e-06	-1.726085e-07	3.464864e-09	-1.232708e+00	2.237885e+02
2.500000e-06	-2.949395e-07	2.561718e-09	-2.106352e+00	1.648805e+02
2.510000e-06	-4.171772e-07	1.655560e-09	-2.979330e+00	1.056840e+02
2.520000e-06	-5.393111e-07	7.392008e-10	-3.851566e+00	4.597579e+01
2.530000e-06	-6.612648e-07	-1.874215e-10	-4.722515e+00	-1.456157e+01
2.540000e-06	-7.830209e-07	-1.127152e-09	-5.592054e+00	-7.625924e+01
2.550000e-06	-9.044860e-07	-2.086852e-09	-6.459514e+00	-1.393716e+02
2.560000e-06	-1.025606e-06	-3.070125e-09	-7.324508e+00	-2.039934e+02
2.570000e-06	-1.146357e-06	-4.077261e-09	-8.186867e+00	-2.700011e+02
2.580000e-06	-1.266717e-06	-5.100956e-09	-9.046439e+00	-3.370306e+02
2.590000e-06	-1.386711e-06	-6.133283e-09	-9.903390e+00	-4.044966e+02
2.600000e-06	-1.506185e-06	-7.164236e-09	-1.075663e+01	-4.716488e+02
2.610000e-06	-1.625004e-06	-8.180441e-09	-1.160520e+01	-5.376567e+02
2.620000e-06	-1.743049e-06	-9.164876e-09	-1.244823e+01	-6.017046e+02
2.630000e-06	-1.860284e-06	-1.010260e-08	-1.328548e+01	-6.630814e+02
2.640000e-06	-1.976748e-06	-1.099044e-08	-1.411722e+01	-7.212490e+02
2.650000e-06	-2.092389e-06	-1.182439e-08	-1.494309e+01	-7.758794e+02
2.660000e-06	-2.207127e-06	-1.260316e-08	-1.576251e+01	-8.268578e+02
2.670000e-06	-2.320884e-06	-1.333126e-08	-1.657492e+01	-8.742543e+02
2.680000e-06	-2.433649e-06	-1.400953e-08	-1.738025e+01	-9.182754e+02
2.690000e-06	-2.545268e-06	-1.463990e-08	-1.817739e+01	-9.592058e+02
2.700000e-06	-2.655816e-06	-1.522691e-08	-1.896689e+01	-9.973528e+02
2.710000e-06	-2.765399e-06	-1.577670e-08	-1.974949e+01	-1.033005e+03
2.720000e-06	-2.874095e-06	-1.629056e-08	-2.052575e+01	-1.066408e+03
2.730000e-06	-2.981963e-06	-1.676881e-08	-2.129611e+01	-1.097756e+03
2.740000e-06	-3.088874e-06	-1.721573e-08	-2.205963e+01	-1.127204e+03
2.750000e-06	-3.194761e-06	-1.763445e-08	-2.281583e+01	-1.154880e+03
2.760000e-06	-3.299577e-06	-1.803138e-08	-2.356439e+01	-1.180902e+03
2.770000e-06	-3.403161e-06	-1.840926e-08	-2.430416e+01	-1.205389e+03
2.780000e-06	-3.505335e-06	-1.876477e-08	-2.503384e+01	-1.228467e+03
2.790000e-06	-3.606135e-06	-1.909904e-08	-2.575372e+01	-1.250264e+03
2.800000e-06	-3.705634e-06	-1.941640e-08	-2.646431e+01	-1.270901e+03
2.810000e-06	-3.803947e-06	-1.971837e-08	-2.716642e+01	-1.290483e+03
2.820000e-06	-3.901075e-06	-2.000373e-08	-2.786008e+01	-1.309094e+03
2.830000e-06	-3.996941e-06	-2.027288e-08	-2.854472e+01	-1.326792e+03
2.840000e-06	-4.091372e-06	-2.052723e-08	-2.921911e+01	-1.343618e+03
2.850000e-06	-4.184260e-06	-2.077003e-08	-2.988248e+01	-1.359600e+03
2.860000e-06	-4.275632e-06	-2.100313e-08	-3.053503e+01	-1.374765e+03
2.870000e-06	-4.365406e-06	-2.122778e-08	-3.117616e+01	-1.389150e+03
2.880000e-06	-4.453648e-06	-2.144187e-08	-3.180635e+01	-1.402799e+03
2.890000e-06	-4.540231e-06	-2.164309e-08	-3.242470e+01	-1.415771e+03
2.900000e-06	-4.625063e-06	-2.183202e-08	-3.303054e+01	-1.428125e+03
2.910000e-06	-4.708326e-06	-2.201072e-08	-3.362518e+01	-1.439920e+03
2.920000e-06	-4.789976e-06	-2.218180e-08	-3.420829e+01	-1.451201e+03
2.930000e-06	-4.870047e-06	-2.234505e-08	-3.478013e+01	-1.461999e+03
2.940000e-06	-4.948175e-06	-2.250215e-08	-3.533809e+01	-1.472324e+03
