# Temperatura_=_48.44
# Concentracion g/m^3_=_28200.0
# C_Vs_to_Am_M_A/Vsm_=_65563218390.804596
# pendiente_HvsI_1/m_=_3716.3
# ordenada_HvsI_A/m_=_1297.0
# frecuencia_Hz_=_302121.15947151184

Tiempo_(s)	Campo_(V.s)	Magnetizacion_(V.s)	Campo_(kA/m)	Magnetizacion_(A/m)
0.000000e+00	-6.412403e-06	-2.058869e-08	-4.585859e+01	-1.346149e+03
1.000000e-08	-6.409491e-06	-2.059069e-08	-4.583777e+01	-1.345748e+03
2.000000e-08	-6.404480e-06	-2.057751e-08	-4.580193e+01	-1.345253e+03
3.000000e-08	-6.397517e-06	-2.056907e-08	-4.575213e+01	-1.344663e+03
4.000000e-08	-6.388375e-06	-2.056001e-08	-4.568675e+01	-1.343960e+03
5.000000e-08	-6.376798e-06	-2.054075e-08	-4.560396e+01	-1.343115e+03
6.000000e-08	-6.362835e-06	-2.052174e-08	-4.550410e+01	-1.342100e+03
7.000000e-08	-6.346560e-06	-2.048813e-08	-4.538771e+01	-1.340891e+03
8.000000e-08	-6.328244e-06	-2.044479e-08	-4.525672e+01	-1.339485e+03
9.000000e-08	-6.307914e-06	-2.055283e-08	-4.511133e+01	-1.337904e+03
1.000000e-07	-6.285269e-06	-2.052055e-08	-4.494939e+01	-1.336196e+03
1.100000e-07	-6.259867e-06	-2.039818e-08	-4.476772e+01	-1.334427e+03
1.200000e-07	-6.231964e-06	-2.039343e-08	-4.456817e+01	-1.332672e+03
1.300000e-07	-6.202226e-06	-2.038515e-08	-4.435550e+01	-1.330995e+03
1.400000e-07	-6.170978e-06	-2.018441e-08	-4.413203e+01	-1.329433e+03
1.500000e-07	-6.137993e-06	-2.028146e-08	-4.389613e+01	-1.327986e+03
1.600000e-07	-6.102866e-06	-2.042445e-08	-4.364492e+01	-1.326609e+03
1.700000e-07	-6.065949e-06	-2.007314e-08	-4.338091e+01	-1.325221e+03
1.800000e-07	-6.027171e-06	-2.026438e-08	-4.310359e+01	-1.323712e+03
1.900000e-07	-5.985755e-06	-2.022186e-08	-4.280740e+01	-1.321967e+03
2.000000e-07	-5.942049e-06	-1.998631e-08	-4.249483e+01	-1.319887e+03
2.100000e-07	-5.896375e-06	-2.015109e-08	-4.216819e+01	-1.317403e+03
2.200000e-07	-5.848452e-06	-1.999494e-08	-4.182547e+01	-1.314491e+03
2.300000e-07	-5.798067e-06	-1.993836e-08	-4.146514e+01	-1.311173e+03
2.400000e-07	-5.745052e-06	-1.992512e-08	-4.108600e+01	-1.307504e+03
2.500000e-07	-5.689955e-06	-1.981287e-08	-4.069197e+01	-1.303562e+03
2.600000e-07	-5.632721e-06	-1.981269e-08	-4.028265e+01	-1.299423e+03
2.700000e-07	-5.573222e-06	-1.970958e-08	-3.985715e+01	-1.295146e+03
2.800000e-07	-5.511813e-06	-1.967105e-08	-3.941798e+01	-1.290762e+03
2.900000e-07	-5.448507e-06	-1.958774e-08	-3.896524e+01	-1.286265e+03
3.000000e-07	-5.383024e-06	-1.949817e-08	-3.849694e+01	-1.281621e+03
3.100000e-07	-5.315407e-06	-1.945347e-08	-3.801337e+01	-1.276779e+03
3.200000e-07	-5.245847e-06	-1.934334e-08	-3.751591e+01	-1.271684e+03
3.300000e-07	-5.174473e-06	-1.931167e-08	-3.700548e+01	-1.266293e+03
3.400000e-07	-5.101247e-06	-1.917144e-08	-3.648180e+01	-1.260585e+03
3.500000e-07	-5.025897e-06	-1.907845e-08	-3.594293e+01	-1.254562e+03
3.600000e-07	-4.948414e-06	-1.900694e-08	-3.538880e+01	-1.248246e+03
3.700000e-07	-4.868824e-06	-1.888298e-08	-3.481962e+01	-1.241665e+03
3.800000e-07	-4.787402e-06	-1.882022e-08	-3.423732e+01	-1.234848e+03
3.900000e-07	-4.704421e-06	-1.869412e-08	-3.364388e+01	-1.227805e+03
4.000000e-07	-4.620009e-06	-1.857131e-08	-3.304020e+01	-1.220530e+03
4.100000e-07	-4.534178e-06	-1.844206e-08	-3.242638e+01	-1.212994e+03
4.200000e-07	-4.446948e-06	-1.833523e-08	-3.180255e+01	-1.205154e+03
4.300000e-07	-4.358231e-06	-1.822268e-08	-3.116809e+01	-1.196965e+03
4.400000e-07	-4.267841e-06	-1.807491e-08	-3.052165e+01	-1.188384e+03
4.500000e-07	-4.175848e-06	-1.795563e-08	-2.986377e+01	-1.179388e+03
4.600000e-07	-4.082358e-06	-1.779575e-08	-2.919517e+01	-1.169970e+03
4.700000e-07	-3.987523e-06	-1.764562e-08	-2.851695e+01	-1.160136e+03
4.800000e-07	-3.891404e-06	-1.749143e-08	-2.782955e+01	-1.149905e+03
4.900000e-07	-3.793781e-06	-1.734223e-08	-2.713140e+01	-1.139288e+03
5.000000e-07	-3.694640e-06	-1.717521e-08	-2.642239e+01	-1.128286e+03
5.100000e-07	-3.594158e-06	-1.699093e-08	-2.570379e+01	-1.116882e+03
5.200000e-07	-3.492415e-06	-1.681248e-08	-2.497616e+01	-1.105037e+03
5.300000e-07	-3.389473e-06	-1.661617e-08	-2.423997e+01	-1.092695e+03
5.400000e-07	-3.285312e-06	-1.642299e-08	-2.349506e+01	-1.079795e+03
5.500000e-07	-3.179897e-06	-1.621306e-08	-2.274117e+01	-1.066275e+03
5.600000e-07	-3.073151e-06	-1.600327e-08	-2.197778e+01	-1.052085e+03
5.700000e-07	-2.965190e-06	-1.577370e-08	-2.120569e+01	-1.037190e+03
5.800000e-07	-2.856153e-06	-1.553277e-08	-2.042591e+01	-1.021567e+03
5.900000e-07	-2.746182e-06	-1.528169e-08	-1.963945e+01	-1.005199e+03
6.000000e-07	-2.635278e-06	-1.502049e-08	-1.884631e+01	-9.880676e+02
6.100000e-07	-2.523351e-06	-1.474637e-08	-1.804586e+01	-9.701415e+02
6.200000e-07	-2.410448e-06	-1.445706e-08	-1.723842e+01	-9.513703e+02
6.300000e-07	-2.296424e-06	-1.415756e-08	-1.642298e+01	-9.316823e+02
6.400000e-07	-2.181356e-06	-1.383681e-08	-1.560007e+01	-9.109876e+02
6.500000e-07	-2.065427e-06	-1.350351e-08	-1.477099e+01	-8.891848e+02
6.600000e-07	-1.948676e-06	-1.315028e-08	-1.393605e+01	-8.661693e+02
6.700000e-07	-1.831247e-06	-1.277896e-08	-1.309624e+01	-8.418405e+02
6.800000e-07	-1.713288e-06	-1.238531e-08	-1.225266e+01	-8.161047e+02
6.900000e-07	-1.594835e-06	-1.196737e-08	-1.140554e+01	-7.888747e+02
7.000000e-07	-1.475805e-06	-1.152689e-08	-1.055429e+01	-7.600650e+02
7.100000e-07	-1.356274e-06	-1.105918e-08	-9.699452e+00	-7.295869e+02
7.200000e-07	-1.236361e-06	-1.056563e-08	-8.841890e+00	-6.973466e+02
7.300000e-07	-1.116066e-06	-1.004465e-08	-7.981597e+00	-6.632492e+02
7.400000e-07	-9.953919e-07	-9.494907e-09	-7.118590e+00	-6.272108e+02
7.500000e-07	-8.743438e-07	-8.916201e-09	-6.252909e+00	-5.891783e+02
7.600000e-07	-7.529483e-07	-8.312074e-09	-5.384744e+00	-5.491521e+02
7.700000e-07	-6.312384e-07	-7.671677e-09	-4.514330e+00	-5.072089e+02
7.800000e-07	-5.093043e-07	-7.002904e-09	-3.642313e+00	-4.635141e+02
7.900000e-07	-3.871908e-07	-6.314039e-09	-2.769012e+00	-4.183222e+02
8.000000e-07	-2.648982e-07	-5.607165e-09	-1.894431e+00	-3.719589e+02
8.100000e-07	-1.424661e-07	-4.891345e-09	-1.018853e+00	-3.247865e+02
8.200000e-07	-1.995370e-08	-4.168611e-09	-1.426998e-01	-2.771568e+02
8.300000e-07	1.026154e-07	-3.444702e-09	7.338586e-01	-2.293598e+02
8.400000e-07	2.251868e-07	-2.717511e-09	1.610434e+00	-1.815788e+02
8.500000e-07	3.476811e-07	-1.991941e-09	2.486457e+00	-1.338598e+02
8.600000e-07	4.700750e-07	-1.263375e-09	3.361763e+00	-8.610643e+01
8.700000e-07	5.923056e-07	-5.296801e-10	4.235900e+00	-3.809974e+01
8.800000e-07	7.143376e-07	2.099998e-10	5.108617e+00	1.045593e+01
8.900000e-07	8.361061e-07	9.608073e-10	5.979450e+00	5.987014e+01
9.000000e-07	9.575086e-07	1.728374e-09	6.847666e+00	1.103966e+02
9.100000e-07	1.078546e-06	2.518166e-09	7.713268e+00	1.621694e+02
9.200000e-07	1.199186e-06	3.326407e-09	8.576031e+00	2.151570e+02
9.300000e-07	1.319330e-06	4.148922e-09	9.435245e+00	2.691420e+02
9.400000e-07	1.438998e-06	4.977656e-09	1.029106e+01	3.237307e+02
9.500000e-07	1.558219e-06	5.804438e-09	1.114367e+01	3.783896e+02
9.600000e-07	1.676889e-06	6.625022e-09	1.199235e+01	4.325030e+02
9.700000e-07	1.794892e-06	7.432230e-09	1.283625e+01	4.854397e+02
9.800000e-07	1.912255e-06	8.213473e-09	1.367558e+01	5.366185e+02
9.900000e-07	2.028946e-06	8.956294e-09	1.451010e+01	5.855623e+02
1.000000e-06	2.144777e-06	9.653341e-09	1.533847e+01	6.319323e+02
1.010000e-06	2.259623e-06	1.030822e-08	1.615979e+01	6.755404e+02
1.020000e-06	2.373391e-06	1.092293e-08	1.697341e+01	7.163408e+02
1.030000e-06	2.486095e-06	1.150263e-08	1.777942e+01	7.544043e+02
1.040000e-06	2.597879e-06	1.204628e-08	1.857885e+01	7.898846e+02
1.050000e-06	2.708751e-06	1.254654e-08	1.937175e+01	8.229814e+02
1.060000e-06	2.818707e-06	1.301080e-08	2.015811e+01	8.539082e+02
1.070000e-06	2.927758e-06	1.344436e-08	2.093799e+01	8.828683e+02
1.080000e-06	3.035839e-06	1.385740e-08	2.171094e+01	9.100413e+02
1.090000e-06	3.142904e-06	1.424685e-08	2.247662e+01	9.355782e+02
1.100000e-06	3.248722e-06	1.461693e-08	2.323338e+01	9.596037e+02
1.110000e-06	3.353188e-06	1.496574e-08	2.398047e+01	9.822230e+02
1.120000e-06	3.456457e-06	1.529348e-08	2.471901e+01	1.003528e+03
1.130000e-06	3.558550e-06	1.559804e-08	2.544913e+01	1.023605e+03
1.140000e-06	3.659469e-06	1.587972e-08	2.617085e+01	1.042535e+03
1.150000e-06	3.759284e-06	1.614644e-08	2.688469e+01	1.060399e+03
1.160000e-06	3.857710e-06	1.639920e-08	2.758858e+01	1.077273e+03
1.170000e-06	3.954517e-06	1.663993e-08	2.828090e+01	1.093232e+03
1.180000e-06	4.049847e-06	1.686959e-08	2.896266e+01	1.108343e+03
1.190000e-06	4.143792e-06	1.708645e-08	2.963452e+01	1.122667e+03
1.200000e-06	4.236371e-06	1.729327e-08	3.029660e+01	1.136261e+03
1.210000e-06	4.327665e-06	1.749219e-08	3.094949e+01	1.149172e+03
1.220000e-06	4.417336e-06	1.767607e-08	3.159078e+01	1.161441e+03
1.230000e-06	4.505202e-06	1.784927e-08	3.221915e+01	1.173104e+03
1.240000e-06	4.591481e-06	1.801446e-08	3.283618e+01	1.184189e+03
1.250000e-06	4.676208e-06	1.817536e-08	3.344211e+01	1.194718e+03
1.260000e-06	4.759431e-06	1.832727e-08	3.403729e+01	1.204709e+03
1.270000e-06	4.840875e-06	1.847119e-08	3.461974e+01	1.214176e+03
1.280000e-06	4.920401e-06	1.860868e-08	3.518847e+01	1.223131e+03
1.290000e-06	4.998136e-06	1.874049e-08	3.574440e+01	1.231588e+03
1.300000e-06	5.074061e-06	1.886270e-08	3.628738e+01	1.239566e+03
1.310000e-06	5.147900e-06	1.897757e-08	3.681544e+01	1.247088e+03
1.320000e-06	5.219692e-06	1.908644e-08	3.732886e+01	1.254181e+03
1.330000e-06	5.289643e-06	1.918782e-08	3.782912e+01	1.260880e+03
1.340000e-06	5.357827e-06	1.928116e-08	3.831674e+01	1.267217e+03
1.350000e-06	5.424024e-06	1.936850e-08	3.879015e+01	1.273225e+03
1.360000e-06	5.488086e-06	1.945386e-08	3.924830e+01	1.278932e+03
1.370000e-06	5.550322e-06	1.953668e-08	3.969338e+01	1.284359e+03
1.380000e-06	5.610818e-06	1.961624e-08	4.012602e+01	1.289524e+03
1.390000e-06	5.669316e-06	1.969180e-08	4.054437e+01	1.294435e+03
1.400000e-06	5.725662e-06	1.976471e-08	4.094733e+01	1.299099e+03
1.410000e-06	5.780013e-06	1.983367e-08	4.133602e+01	1.303522e+03
1.420000e-06	5.832284e-06	1.989643e-08	4.170984e+01	1.307707e+03
1.430000e-06	5.881982e-06	1.995413e-08	4.206526e+01	1.311660e+03
1.440000e-06	5.929189e-06	2.000924e-08	4.240286e+01	1.315384e+03
1.450000e-06	5.974435e-06	2.005999e-08	4.272644e+01	1.318884e+03
1.460000e-06	6.017830e-06	2.010884e-08	4.303678e+01	1.322160e+03
1.470000e-06	6.059021e-06	2.015635e-08	4.333136e+01	1.325211e+03
1.480000e-06	6.097903e-06	2.020035e-08	4.360943e+01	1.328032e+03
1.490000e-06	6.134814e-06	2.023971e-08	4.387340e+01	1.330621e+03
1.500000e-06	6.169584e-06	2.027348e-08	4.412205e+01	1.332975e+03
1.510000e-06	6.202007e-06	2.030310e-08	4.435393e+01	1.335098e+03
1.520000e-06	6.232222e-06	2.032931e-08	4.457002e+01	1.336998e+03
1.530000e-06	6.260486e-06	2.035385e-08	4.477215e+01	1.338691e+03
1.540000e-06	6.286403e-06	2.037550e-08	4.495749e+01	1.340196e+03
1.550000e-06	6.309786e-06	2.039429e-08	4.512472e+01	1.341532e+03
1.560000e-06	6.331013e-06	2.041172e-08	4.527653e+01	1.342715e+03
1.570000e-06	6.350182e-06	2.042877e-08	4.541361e+01	1.343752e+03
1.580000e-06	6.367019e-06	2.044443e-08	4.553402e+01	1.344645e+03
1.590000e-06	6.381351e-06	2.045541e-08	4.563652e+01	1.345386e+03
1.600000e-06	6.393333e-06	2.046272e-08	4.572221e+01	1.345964e+03
1.610000e-06	6.402751e-06	2.046917e-08	4.578956e+01	1.346369e+03
1.620000e-06	6.409699e-06	2.047424e-08	4.583925e+01	1.346597e+03
1.630000e-06	6.414551e-06	2.047740e-08	4.587395e+01	1.346652e+03
1.640000e-06	6.417052e-06	2.047741e-08	4.589184e+01	1.346550e+03
1.650000e-06	6.417159e-06	2.048279e-08	4.589260e+01	1.346312e+03
1.660000e-06	6.415157e-06	2.046987e-08	4.587828e+01	1.345960e+03
1.670000e-06	6.411292e-06	2.046121e-08	4.585065e+01	1.345512e+03
1.680000e-06	6.405186e-06	2.045498e-08	4.580698e+01	1.344971e+03
1.690000e-06	6.396754e-06	2.044413e-08	4.574668e+01	1.344327e+03
1.700000e-06	6.386397e-06	2.043524e-08	4.567261e+01	1.343557e+03
1.710000e-06	6.374012e-06	2.042507e-08	4.558403e+01	1.342631e+03
1.720000e-06	6.359336e-06	2.043719e-08	4.547908e+01	1.341520e+03
1.730000e-06	6.342521e-06	2.043365e-08	4.535882e+01	1.340212e+03
1.740000e-06	6.323758e-06	2.023906e-08	4.522464e+01	1.338714e+03
1.750000e-06	6.302118e-06	2.025636e-08	4.506988e+01	1.337062e+03
1.760000e-06	6.277174e-06	2.032593e-08	4.489149e+01	1.335314e+03
1.770000e-06	6.249856e-06	2.024019e-08	4.469613e+01	1.333543e+03
1.780000e-06	6.220688e-06	2.036759e-08	4.448753e+01	1.331820e+03
1.790000e-06	6.189811e-06	2.038883e-08	4.426671e+01	1.330198e+03
1.800000e-06	6.157670e-06	2.000785e-08	4.403686e+01	1.328696e+03
1.810000e-06	6.123463e-06	2.023217e-08	4.379222e+01	1.327293e+03
1.820000e-06	6.087191e-06	2.021630e-08	4.353282e+01	1.325923e+03
1.830000e-06	6.048983e-06	2.002791e-08	4.325957e+01	1.324489e+03
1.840000e-06	6.008179e-06	2.042470e-08	4.296776e+01	1.322876e+03
1.850000e-06	5.965361e-06	2.010593e-08	4.266155e+01	1.320974e+03
1.860000e-06	5.920602e-06	2.011099e-08	4.234145e+01	1.318698e+03
1.870000e-06	5.873579e-06	2.020934e-08	4.200516e+01	1.316000e+03
1.880000e-06	5.824550e-06	1.990263e-08	4.165453e+01	1.312880e+03
1.890000e-06	5.773153e-06	2.010322e-08	4.128696e+01	1.309378e+03
1.900000e-06	5.719117e-06	1.989614e-08	4.090052e+01	1.305562e+03
1.910000e-06	5.662824e-06	1.983901e-08	4.049794e+01	1.301513e+03
1.920000e-06	5.604394e-06	1.993771e-08	4.008007e+01	1.297299e+03
1.930000e-06	5.544202e-06	1.965620e-08	3.964961e+01	1.292967e+03
1.940000e-06	5.481896e-06	1.978390e-08	3.920403e+01	1.288529e+03
1.950000e-06	5.417352e-06	1.955257e-08	3.874244e+01	1.283965e+03
1.960000e-06	5.350830e-06	1.955036e-08	3.826670e+01	1.279228e+03
1.970000e-06	5.282303e-06	1.950738e-08	3.777662e+01	1.274266e+03
1.980000e-06	5.211701e-06	1.931577e-08	3.727172e+01	1.269027e+03
1.990000e-06	5.138969e-06	1.939967e-08	3.675157e+01	1.263479e+03
2.000000e-06	5.064591e-06	1.917027e-08	3.621965e+01	1.257612e+03
2.010000e-06	4.988321e-06	1.915465e-08	3.567420e+01	1.251439e+03
2.020000e-06	4.909840e-06	1.899697e-08	3.511294e+01	1.244987e+03
2.030000e-06	4.829498e-06	1.888712e-08	3.453837e+01	1.238285e+03
2.040000e-06	4.747521e-06	1.887293e-08	3.395211e+01	1.231355e+03
2.050000e-06	4.664010e-06	1.869771e-08	3.335487e+01	1.224198e+03
2.060000e-06	4.578846e-06	1.864744e-08	3.274582e+01	1.216797e+03
2.070000e-06	4.491964e-06	1.846288e-08	3.212448e+01	1.209115e+03
2.080000e-06	4.403466e-06	1.837586e-08	3.149158e+01	1.201106e+03
2.090000e-06	4.313512e-06	1.821636e-08	3.084827e+01	1.192725e+03
2.100000e-06	4.222186e-06	1.808380e-08	3.019516e+01	1.183939e+03
2.110000e-06	4.129416e-06	1.797955e-08	2.953170e+01	1.174732e+03
2.120000e-06	4.035156e-06	1.780638e-08	2.885760e+01	1.165104e+03
2.130000e-06	3.939391e-06	1.767166e-08	2.817273e+01	1.155069e+03
2.140000e-06	3.842170e-06	1.748200e-08	2.747745e+01	1.144644e+03
2.150000e-06	3.743575e-06	1.734727e-08	2.677235e+01	1.133836e+03
2.160000e-06	3.643717e-06	1.716308e-08	2.605821e+01	1.122637e+03
2.170000e-06	3.542533e-06	1.700296e-08	2.533458e+01	1.111018e+03
2.180000e-06	3.439914e-06	1.681092e-08	2.460070e+01	1.098932e+03
2.190000e-06	3.335907e-06	1.661438e-08	2.385689e+01	1.086319e+03
2.200000e-06	3.230639e-06	1.640534e-08	2.310406e+01	1.073115e+03
2.210000e-06	3.124319e-06	1.618900e-08	2.234370e+01	1.059266e+03
2.220000e-06	3.016967e-06	1.597911e-08	2.157598e+01	1.044727e+03
2.230000e-06	2.908578e-06	1.574638e-08	2.080083e+01	1.029470e+03
2.240000e-06	2.799227e-06	1.551413e-08	2.001880e+01	1.013477e+03
2.250000e-06	2.688798e-06	1.525693e-08	1.922906e+01	9.967303e+02
2.260000e-06	2.577257e-06	1.499766e-08	1.843137e+01	9.792066e+02
2.270000e-06	2.464720e-06	1.470935e-08	1.762656e+01	9.608656e+02
2.280000e-06	2.351168e-06	1.441802e-08	1.681448e+01	9.416461e+02
2.290000e-06	2.236698e-06	1.410481e-08	1.599585e+01	9.214669e+02
2.300000e-06	2.121449e-06	1.378137e-08	1.517164e+01	9.002313e+02
2.310000e-06	2.005381e-06	1.344321e-08	1.434157e+01	8.778351e+02
2.320000e-06	1.888484e-06	1.308734e-08	1.350558e+01	8.541751e+02
2.330000e-06	1.770776e-06	1.271080e-08	1.266378e+01	8.291540e+02
2.340000e-06	1.652353e-06	1.230782e-08	1.181688e+01	8.026818e+02
2.350000e-06	1.533215e-06	1.188402e-08	1.096485e+01	7.746727e+02
2.360000e-06	1.413491e-06	1.143495e-08	1.010865e+01	7.450402e+02
2.370000e-06	1.293407e-06	1.096237e-08	9.249858e+00	7.136930e+02
2.380000e-06	1.172986e-06	1.045212e-08	8.388660e+00	6.805357e+02
2.390000e-06	1.052191e-06	9.913139e-09	7.524790e+00	6.454769e+02
2.400000e-06	9.309600e-07	9.341911e-09	6.657802e+00	6.084453e+02
2.410000e-06	8.093873e-07	8.747023e-09	5.788370e+00	5.694116e+02
2.420000e-06	6.875905e-07	8.126443e-09	4.917334e+00	5.284120e+02
2.430000e-06	5.656136e-07	7.476614e-09	4.045011e+00	4.855665e+02
2.440000e-06	4.434828e-07	6.799135e-09	3.171587e+00	4.410863e+02
2.450000e-06	3.212544e-07	6.094957e-09	2.297465e+00	3.952647e+02
2.460000e-06	1.989081e-07	5.377006e-09	1.422500e+00	3.484510e+02
2.470000e-06	7.642390e-08	4.648673e-09	5.465489e-01	3.010086e+02
2.480000e-06	-4.610218e-08	3.917852e-09	-3.297018e-01	2.532648e+02
2.490000e-06	-1.686113e-07	3.187539e-09	-1.205831e+00	2.054610e+02
2.500000e-06	-2.910610e-07	2.458127e-09	-2.081536e+00	1.577143e+02
2.510000e-06	-4.134537e-07	1.730836e-09	-2.956833e+00	1.099987e+02
2.520000e-06	-5.356911e-07	9.998964e-10	-3.831019e+00	6.215210e+01
2.530000e-06	-6.577658e-07	2.616880e-10	-4.704042e+00	1.391037e+01
2.540000e-06	-7.796872e-07	-4.877726e-10	-5.575968e+00	-3.503774e+01
2.550000e-06	-9.013410e-07	-1.252684e-09	-6.445980e+00	-8.498250e+01
2.560000e-06	-1.022686e-06	-2.032531e-09	-7.313788e+00	-1.361249e+02
2.570000e-06	-1.143708e-06	-2.830107e-09	-8.179282e+00	-1.885206e+02
2.580000e-06	-1.264353e-06	-3.646352e-09	-9.042078e+00	-2.420456e+02
2.590000e-06	-1.384570e-06	-4.477034e-09	-9.901812e+00	-2.963915e+02
2.600000e-06	-1.504318e-06	-5.316713e-09	-1.075820e+01	-3.510887e+02
2.610000e-06	-1.623480e-06	-6.152362e-09	-1.161039e+01	-4.055544e+02
2.620000e-06	-1.741852e-06	-6.973065e-09	-1.245693e+01	-4.591567e+02
2.630000e-06	-1.859393e-06	-7.771924e-09	-1.329753e+01	-5.112816e+02
2.640000e-06	-1.976152e-06	-8.541993e-09	-1.413254e+01	-5.613944e+02
2.650000e-06	-2.092028e-06	-9.274699e-09	-1.496123e+01	-6.090843e+02
2.660000e-06	-2.207035e-06	-9.964667e-09	-1.578371e+01	-6.540875e+02
2.670000e-06	-2.321137e-06	-1.061290e-08	-1.659971e+01	-6.962895e+02
2.680000e-06	-2.434164e-06	-1.122010e-08	-1.740803e+01	-7.357065e+02
2.690000e-06	-2.546131e-06	-1.178717e-08	-1.820877e+01	-7.724555e+02
2.700000e-06	-2.657048e-06	-1.231437e-08	-1.900200e+01	-8.067176e+02
2.710000e-06	-2.766948e-06	-1.280516e-08	-1.978796e+01	-8.387029e+02
2.720000e-06	-2.875978e-06	-1.326584e-08	-2.056769e+01	-8.686222e+02
2.730000e-06	-2.984175e-06	-1.369518e-08	-2.134146e+01	-8.966681e+02
2.740000e-06	-3.091461e-06	-1.409578e-08	-2.210872e+01	-9.230059e+02
2.750000e-06	-3.197669e-06	-1.447406e-08	-2.286827e+01	-9.477729e+02
2.760000e-06	-3.302751e-06	-1.482899e-08	-2.361977e+01	-9.710831e+02
2.770000e-06	-3.406741e-06	-1.516410e-08	-2.436346e+01	-9.930344e+02
2.780000e-06	-3.509398e-06	-1.548144e-08	-2.509762e+01	-1.013715e+03
2.790000e-06	-3.610671e-06	-1.578207e-08	-2.582188e+01	-1.033208e+03
2.800000e-06	-3.710686e-06	-1.606592e-08	-2.653714e+01	-1.051595e+03
2.810000e-06	-3.809420e-06	-1.633182e-08	-2.724324e+01	-1.068955e+03
2.820000e-06	-3.906891e-06	-1.658109e-08	-2.794031e+01	-1.085362e+03
2.830000e-06	-4.003185e-06	-1.681792e-08	-2.862896e+01	-1.100889e+03
2.840000e-06	-4.098011e-06	-1.704593e-08	-2.930711e+01	-1.115600e+03
2.850000e-06	-4.191231e-06	-1.726462e-08	-2.997378e+01	-1.129552e+03
2.860000e-06	-4.283065e-06	-1.747375e-08	-3.063053e+01	-1.142799e+03
2.870000e-06	-4.373358e-06	-1.767047e-08	-3.127626e+01	-1.155384e+03
2.880000e-06	-4.462066e-06	-1.785389e-08	-3.191067e+01	-1.167346e+03
2.890000e-06	-4.549116e-06	-1.802582e-08	-3.253321e+01	-1.178717e+03
2.900000e-06	-4.634395e-06	-1.818670e-08	-3.314308e+01	-1.189522e+03
2.910000e-06	-4.718082e-06	-1.833869e-08	-3.374157e+01	-1.199780e+03
2.920000e-06	-4.800218e-06	-1.848705e-08	-3.432897e+01	-1.209507e+03
2.930000e-06	-4.880762e-06	-1.863124e-08	-3.490499e+01	-1.218716e+03
2.940000e-06	-4.959322e-06	-1.876825e-08	-3.546682e+01	-1.227421e+03
