# Temperatura_=_84.72
# Concentracion g/m^3_=_28200.0
# C_Vs_to_Am_M_A/Vsm_=_65563218390.804596
# pendiente_HvsI_1/m_=_3716.3
# ordenada_HvsI_A/m_=_1297.0
# frecuencia_Hz_=_302114.9870719875

Tiempo_(s)	Campo_(V.s)	Magnetizacion_(V.s)	Campo_(kA/m)	Magnetizacion_(A/m)
0.000000e+00	-6.388494e-06	-2.470986e-08	-4.585506e+01	-1.617385e+03
1.000000e-08	-6.385097e-06	-2.470420e-08	-4.583067e+01	-1.616804e+03
2.000000e-08	-6.379616e-06	-2.469308e-08	-4.579133e+01	-1.616075e+03
3.000000e-08	-6.372272e-06	-2.468117e-08	-4.573861e+01	-1.615217e+03
4.000000e-08	-6.362831e-06	-2.466560e-08	-4.567085e+01	-1.614238e+03
5.000000e-08	-6.351031e-06	-2.464548e-08	-4.558615e+01	-1.613128e+03
6.000000e-08	-6.336861e-06	-2.462045e-08	-4.548445e+01	-1.611864e+03
7.000000e-08	-6.320416e-06	-2.458860e-08	-4.536641e+01	-1.610412e+03
8.000000e-08	-6.301892e-06	-2.457918e-08	-4.523344e+01	-1.608744e+03
9.000000e-08	-6.281248e-06	-2.459787e-08	-4.508527e+01	-1.606844e+03
1.000000e-07	-6.258112e-06	-2.454825e-08	-4.491920e+01	-1.604719e+03
1.100000e-07	-6.232318e-06	-2.448562e-08	-4.473406e+01	-1.602404e+03
1.200000e-07	-6.204201e-06	-2.446216e-08	-4.453224e+01	-1.599952e+03
1.300000e-07	-6.174248e-06	-2.439783e-08	-4.431725e+01	-1.597429e+03
1.400000e-07	-6.142777e-06	-2.431086e-08	-4.409136e+01	-1.594892e+03
1.500000e-07	-6.109491e-06	-2.436669e-08	-4.385244e+01	-1.592379e+03
1.600000e-07	-6.074176e-06	-2.431274e-08	-4.359895e+01	-1.589892e+03
1.700000e-07	-6.037047e-06	-2.420125e-08	-4.333245e+01	-1.587394e+03
1.800000e-07	-5.997866e-06	-2.423791e-08	-4.305122e+01	-1.584813e+03
1.900000e-07	-5.956200e-06	-2.412808e-08	-4.275215e+01	-1.582051e+03
2.000000e-07	-5.912328e-06	-2.405927e-08	-4.243725e+01	-1.579007e+03
2.100000e-07	-5.866468e-06	-2.403604e-08	-4.210808e+01	-1.575595e+03
2.200000e-07	-5.818249e-06	-2.394129e-08	-4.176197e+01	-1.571755e+03
2.300000e-07	-5.767484e-06	-2.388766e-08	-4.139759e+01	-1.567471e+03
2.400000e-07	-5.714162e-06	-2.379554e-08	-4.101486e+01	-1.562764e+03
2.500000e-07	-5.658777e-06	-2.372144e-08	-4.061732e+01	-1.557685e+03
2.600000e-07	-5.601256e-06	-2.366419e-08	-4.020445e+01	-1.552298e+03
2.700000e-07	-5.541504e-06	-2.356075e-08	-3.977557e+01	-1.546666e+03
2.800000e-07	-5.479887e-06	-2.348240e-08	-3.933330e+01	-1.540831e+03
2.900000e-07	-5.416320e-06	-2.337835e-08	-3.887702e+01	-1.534808e+03
3.000000e-07	-5.350642e-06	-2.328063e-08	-3.840561e+01	-1.528584e+03
3.100000e-07	-5.282876e-06	-2.318576e-08	-3.791919e+01	-1.522124e+03
3.200000e-07	-5.213097e-06	-2.309221e-08	-3.741834e+01	-1.515381e+03
3.300000e-07	-5.141585e-06	-2.298926e-08	-3.690505e+01	-1.508314e+03
3.400000e-07	-5.068291e-06	-2.285249e-08	-3.637895e+01	-1.500894e+03
3.500000e-07	-4.992895e-06	-2.274162e-08	-3.583778e+01	-1.493115e+03
3.600000e-07	-4.915409e-06	-2.260903e-08	-3.528161e+01	-1.484986e+03
3.700000e-07	-4.835815e-06	-2.248653e-08	-3.471030e+01	-1.476528e+03
3.800000e-07	-4.754317e-06	-2.236694e-08	-3.412533e+01	-1.467765e+03
3.900000e-07	-4.671342e-06	-2.221833e-08	-3.352976e+01	-1.458707e+03
4.000000e-07	-4.586992e-06	-2.207198e-08	-3.292431e+01	-1.449351e+03
4.100000e-07	-4.501126e-06	-2.192212e-08	-3.230798e+01	-1.439673e+03
4.200000e-07	-4.413967e-06	-2.177409e-08	-3.168238e+01	-1.429635e+03
4.300000e-07	-4.325355e-06	-2.161317e-08	-3.104634e+01	-1.419195e+03
4.400000e-07	-4.235034e-06	-2.144594e-08	-3.039804e+01	-1.408312e+03
4.500000e-07	-4.143126e-06	-2.127558e-08	-2.973835e+01	-1.396962e+03
4.600000e-07	-4.049673e-06	-2.109155e-08	-2.906757e+01	-1.385132e+03
4.700000e-07	-3.954950e-06	-2.090433e-08	-2.838767e+01	-1.372827e+03
4.800000e-07	-3.858966e-06	-2.071216e-08	-2.769872e+01	-1.360057e+03
4.900000e-07	-3.761430e-06	-2.051508e-08	-2.699863e+01	-1.346829e+03
5.000000e-07	-3.662396e-06	-2.030218e-08	-2.628779e+01	-1.333139e+03
5.100000e-07	-3.562023e-06	-2.008115e-08	-2.556734e+01	-1.318965e+03
5.200000e-07	-3.460355e-06	-1.985547e-08	-2.483759e+01	-1.304264e+03
5.300000e-07	-3.357521e-06	-1.961895e-08	-2.409947e+01	-1.288978e+03
5.400000e-07	-3.253559e-06	-1.937425e-08	-2.335325e+01	-1.273046e+03
5.500000e-07	-3.148218e-06	-1.911928e-08	-2.259714e+01	-1.256408e+03
5.600000e-07	-3.041552e-06	-1.885443e-08	-2.183152e+01	-1.239015e+03
5.700000e-07	-2.933757e-06	-1.857643e-08	-2.105779e+01	-1.220836e+03
5.800000e-07	-2.824853e-06	-1.828554e-08	-2.027611e+01	-1.201846e+03
5.900000e-07	-2.714967e-06	-1.798228e-08	-1.948737e+01	-1.182027e+03
6.000000e-07	-2.604255e-06	-1.766583e-08	-1.869271e+01	-1.161351e+03
6.100000e-07	-2.492686e-06	-1.733539e-08	-1.789189e+01	-1.139774e+03
6.200000e-07	-2.380143e-06	-1.698930e-08	-1.708409e+01	-1.117224e+03
6.300000e-07	-2.266568e-06	-1.662705e-08	-1.626887e+01	-1.093609e+03
6.400000e-07	-2.151866e-06	-1.624675e-08	-1.544557e+01	-1.068812e+03
6.500000e-07	-2.036140e-06	-1.584578e-08	-1.461492e+01	-1.042710e+03
6.600000e-07	-1.919718e-06	-1.542369e-08	-1.377927e+01	-1.015179e+03
6.700000e-07	-1.802681e-06	-1.498119e-08	-1.293921e+01	-9.861023e+02
6.800000e-07	-1.684956e-06	-1.451316e-08	-1.209421e+01	-9.553750e+02
6.900000e-07	-1.566717e-06	-1.401533e-08	-1.124551e+01	-9.228977e+02
7.000000e-07	-1.448049e-06	-1.348916e-08	-1.039374e+01	-8.885694e+02
7.100000e-07	-1.328948e-06	-1.293345e-08	-9.538862e+00	-8.522787e+02
7.200000e-07	-1.209481e-06	-1.234806e-08	-8.681360e+00	-8.138999e+02
7.300000e-07	-1.089584e-06	-1.172920e-08	-7.820772e+00	-7.732986e+02
7.400000e-07	-9.692653e-07	-1.107583e-08	-6.957150e+00	-7.303473e+02
7.500000e-07	-8.485777e-07	-1.038663e-08	-6.090884e+00	-6.849518e+02
7.600000e-07	-7.275792e-07	-9.657682e-09	-5.222386e+00	-6.370830e+02
7.700000e-07	-6.062673e-07	-8.886644e-09	-4.351639e+00	-5.868057e+02
7.800000e-07	-4.847515e-07	-8.080989e-09	-3.479428e+00	-5.342959e+02
7.900000e-07	-3.631561e-07	-7.249569e-09	-2.606646e+00	-4.798404e+02
8.000000e-07	-2.414311e-07	-6.396514e-09	-1.732934e+00	-4.238128e+02
8.100000e-07	-1.195616e-07	-5.528509e-09	-8.581844e-01	-3.666288e+02
8.200000e-07	2.440235e-09	-4.649493e-09	1.751541e-02	-3.086859e+02
8.300000e-07	1.245284e-07	-3.761935e-09	8.938347e-01	-2.503008e+02
8.400000e-07	2.466143e-07	-2.868390e-09	1.770137e+00	-1.916563e+02
8.500000e-07	3.685865e-07	-1.971805e-09	2.645624e+00	-1.327713e+02
8.600000e-07	4.903982e-07	-1.068987e-09	3.519959e+00	-7.350358e+01
8.700000e-07	6.120113e-07	-1.582353e-10	4.392868e+00	-1.358587e+01
8.800000e-07	7.333875e-07	7.672595e-10	5.264077e+00	4.730695e+01
8.900000e-07	8.545752e-07	1.713919e-09	6.133933e+00	1.094732e+02
9.000000e-07	9.754588e-07	2.682128e-09	7.001605e+00	1.730971e+02
9.100000e-07	1.095981e-06	3.672157e-09	7.866688e+00	2.381767e+02
9.200000e-07	1.216093e-06	4.680325e-09	8.728818e+00	3.044815e+02
9.300000e-07	1.335729e-06	5.702225e-09	9.587538e+00	3.715482e+02
9.400000e-07	1.454962e-06	6.726195e-09	1.044336e+01	4.387173e+02
9.500000e-07	1.573640e-06	7.737537e-09	1.129521e+01	5.052018e+02
9.600000e-07	1.691732e-06	8.724830e-09	1.214284e+01	5.701771e+02
9.700000e-07	1.809256e-06	9.675845e-09	1.298640e+01	6.328739e+02
9.800000e-07	1.926101e-06	1.058119e-08	1.382508e+01	6.926589e+02
9.900000e-07	2.042198e-06	1.143382e-08	1.465840e+01	7.490890e+02
1.000000e-06	2.157351e-06	1.223287e-08	1.548494e+01	8.019333e+02
1.010000e-06	2.271483e-06	1.297903e-08	1.630415e+01	8.511624e+02
1.020000e-06	2.384593e-06	1.367438e-08	1.711603e+01	8.969103e+02
1.030000e-06	2.496677e-06	1.431991e-08	1.792054e+01	9.394213e+02
1.040000e-06	2.607901e-06	1.492048e-08	1.871888e+01	9.789926e+02
1.050000e-06	2.718259e-06	1.547880e-08	1.951100e+01	1.015925e+03
1.060000e-06	2.827689e-06	1.600123e-08	2.029646e+01	1.050488e+03
1.070000e-06	2.936214e-06	1.649170e-08	2.107543e+01	1.082903e+03
1.080000e-06	3.043835e-06	1.695403e-08	2.184790e+01	1.113346e+03
1.090000e-06	3.150396e-06	1.738902e-08	2.261277e+01	1.141956e+03
1.100000e-06	3.255563e-06	1.779849e-08	2.336764e+01	1.168853e+03
1.110000e-06	3.359422e-06	1.818431e-08	2.411311e+01	1.194151e+03
1.120000e-06	3.462082e-06	1.854713e-08	2.484998e+01	1.217969e+03
1.130000e-06	3.563610e-06	1.889133e-08	2.557872e+01	1.240429e+03
1.140000e-06	3.664035e-06	1.921703e-08	2.629955e+01	1.261654e+03
1.150000e-06	3.763248e-06	1.952310e-08	2.701168e+01	1.281757e+03
1.160000e-06	3.860976e-06	1.981038e-08	2.771315e+01	1.300835e+03
1.170000e-06	3.957048e-06	2.008357e-08	2.840272e+01	1.318962e+03
1.180000e-06	4.051715e-06	2.034279e-08	2.908222e+01	1.336193e+03
1.190000e-06	4.145111e-06	2.059115e-08	2.975259e+01	1.352565e+03
1.200000e-06	4.237209e-06	2.082803e-08	3.041365e+01	1.368113e+03
1.210000e-06	4.327943e-06	2.105372e-08	3.106492e+01	1.382870e+03
1.220000e-06	4.416922e-06	2.126734e-08	3.170359e+01	1.396878e+03
1.230000e-06	4.504089e-06	2.146838e-08	3.232926e+01	1.410190e+03
1.240000e-06	4.589768e-06	2.165814e-08	3.294424e+01	1.422863e+03
1.250000e-06	4.673926e-06	2.184072e-08	3.354830e+01	1.434953e+03
1.260000e-06	4.756613e-06	2.201598e-08	3.414181e+01	1.446509e+03
1.270000e-06	4.837530e-06	2.218400e-08	3.472261e+01	1.457565e+03
1.280000e-06	4.916476e-06	2.234572e-08	3.528926e+01	1.468140e+03
1.290000e-06	4.993576e-06	2.250116e-08	3.584267e+01	1.478236e+03
1.300000e-06	5.068841e-06	2.264940e-08	3.638290e+01	1.487846e+03
1.310000e-06	5.142053e-06	2.278993e-08	3.690841e+01	1.496960e+03
1.320000e-06	5.213209e-06	2.292344e-08	3.741914e+01	1.505575e+03
1.330000e-06	5.282556e-06	2.304851e-08	3.791690e+01	1.513699e+03
1.340000e-06	5.350118e-06	2.316409e-08	3.840184e+01	1.521351e+03
1.350000e-06	5.415649e-06	2.327211e-08	3.887221e+01	1.528562e+03
1.360000e-06	5.479077e-06	2.337485e-08	3.932748e+01	1.535370e+03
1.370000e-06	5.540747e-06	2.347162e-08	3.977013e+01	1.541813e+03
1.380000e-06	5.600682e-06	2.356470e-08	4.020033e+01	1.547925e+03
1.390000e-06	5.658561e-06	2.365443e-08	4.061577e+01	1.553733e+03
1.400000e-06	5.714371e-06	2.374076e-08	4.101636e+01	1.559255e+03
1.410000e-06	5.768127e-06	2.382159e-08	4.140221e+01	1.564502e+03
1.420000e-06	5.819538e-06	2.389701e-08	4.177122e+01	1.569484e+03
1.430000e-06	5.868497e-06	2.396732e-08	4.212264e+01	1.574209e+03
1.440000e-06	5.915243e-06	2.403346e-08	4.245817e+01	1.578684e+03
1.450000e-06	5.960019e-06	2.409693e-08	4.277956e+01	1.582919e+03
1.460000e-06	6.002809e-06	2.415832e-08	4.308670e+01	1.586919e+03
1.470000e-06	6.043390e-06	2.421907e-08	4.337798e+01	1.590687e+03
1.480000e-06	6.081821e-06	2.427491e-08	4.365383e+01	1.594221e+03
1.490000e-06	6.118278e-06	2.432423e-08	4.391551e+01	1.597509e+03
1.500000e-06	6.152526e-06	2.436791e-08	4.416133e+01	1.600540e+03
1.510000e-06	6.184455e-06	2.440684e-08	4.439051e+01	1.603298e+03
1.520000e-06	6.214248e-06	2.444281e-08	4.460436e+01	1.605776e+03
1.530000e-06	6.242001e-06	2.447473e-08	4.480356e+01	1.607973e+03
1.540000e-06	6.267380e-06	2.450326e-08	4.498572e+01	1.609901e+03
1.550000e-06	6.290320e-06	2.452850e-08	4.515038e+01	1.611581e+03
1.560000e-06	6.311108e-06	2.455133e-08	4.529959e+01	1.613037e+03
1.570000e-06	6.329781e-06	2.457306e-08	4.543363e+01	1.614294e+03
1.580000e-06	6.346139e-06	2.459073e-08	4.555104e+01	1.615373e+03
1.590000e-06	6.360140e-06	2.460463e-08	4.565153e+01	1.616280e+03
1.600000e-06	6.371702e-06	2.461537e-08	4.573453e+01	1.617012e+03
1.610000e-06	6.380610e-06	2.462389e-08	4.579847e+01	1.617555e+03
1.620000e-06	6.387156e-06	2.463115e-08	4.584545e+01	1.617894e+03
1.630000e-06	6.391606e-06	2.463394e-08	4.587739e+01	1.618016e+03
1.640000e-06	6.393725e-06	2.463292e-08	4.589260e+01	1.617919e+03
1.650000e-06	6.393492e-06	2.462982e-08	4.589093e+01	1.617611e+03
1.660000e-06	6.391202e-06	2.462019e-08	4.587449e+01	1.617115e+03
1.670000e-06	6.386874e-06	2.461341e-08	4.584342e+01	1.616457e+03
1.680000e-06	6.380287e-06	2.460380e-08	4.579614e+01	1.615661e+03
1.690000e-06	6.371615e-06	2.459132e-08	4.573390e+01	1.614742e+03
1.700000e-06	6.360987e-06	2.457763e-08	4.565762e+01	1.613700e+03
1.710000e-06	6.348076e-06	2.456172e-08	4.556494e+01	1.612517e+03
1.720000e-06	6.332918e-06	2.455295e-08	4.545614e+01	1.611163e+03
1.730000e-06	6.315762e-06	2.449700e-08	4.533300e+01	1.609606e+03
1.740000e-06	6.296482e-06	2.441431e-08	4.519462e+01	1.607823e+03
1.750000e-06	6.274277e-06	2.441297e-08	4.503523e+01	1.605808e+03
1.760000e-06	6.248964e-06	2.440705e-08	4.485354e+01	1.603582e+03
1.770000e-06	6.221442e-06	2.437311e-08	4.465599e+01	1.601191e+03
1.780000e-06	6.192028e-06	2.441138e-08	4.444487e+01	1.598695e+03
1.790000e-06	6.161038e-06	2.433945e-08	4.422243e+01	1.596159e+03
1.800000e-06	6.128711e-06	2.423945e-08	4.399040e+01	1.593631e+03
1.810000e-06	6.094356e-06	2.422741e-08	4.374380e+01	1.591134e+03
1.820000e-06	6.057917e-06	2.408872e-08	4.348225e+01	1.588648e+03
1.830000e-06	6.019332e-06	2.413950e-08	4.320530e+01	1.586120e+03
1.840000e-06	5.978291e-06	2.423029e-08	4.291072e+01	1.583461e+03
1.850000e-06	5.935324e-06	2.410369e-08	4.260231e+01	1.580570e+03
1.860000e-06	5.890340e-06	2.410729e-08	4.227942e+01	1.577352e+03
1.870000e-06	5.843150e-06	2.400970e-08	4.194071e+01	1.573730e+03
1.880000e-06	5.793883e-06	2.393083e-08	4.158708e+01	1.569668e+03
1.890000e-06	5.742054e-06	2.393050e-08	4.121506e+01	1.565168e+03
1.900000e-06	5.687780e-06	2.377796e-08	4.082550e+01	1.560267e+03
1.910000e-06	5.631328e-06	2.376543e-08	4.042030e+01	1.555026e+03
1.920000e-06	5.572878e-06	2.367435e-08	4.000076e+01	1.549510e+03
1.930000e-06	5.512609e-06	2.355190e-08	3.956816e+01	1.543772e+03
1.940000e-06	5.450156e-06	2.351324e-08	3.911989e+01	1.537843e+03
1.950000e-06	5.385505e-06	2.337037e-08	3.865584e+01	1.531723e+03
1.960000e-06	5.318895e-06	2.330870e-08	3.817774e+01	1.525386e+03
1.970000e-06	5.250325e-06	2.317958e-08	3.768555e+01	1.518790e+03
1.980000e-06	5.179663e-06	2.308288e-08	3.717836e+01	1.511890e+03
1.990000e-06	5.107045e-06	2.299803e-08	3.665713e+01	1.504649e+03
2.000000e-06	5.032672e-06	2.285186e-08	3.612330e+01	1.497049e+03
2.010000e-06	4.956192e-06	2.275843e-08	3.557434e+01	1.489093e+03
2.020000e-06	4.877590e-06	2.259570e-08	3.501015e+01	1.480797e+03
2.030000e-06	4.797278e-06	2.248846e-08	3.443369e+01	1.472184e+03
2.040000e-06	4.715313e-06	2.235281e-08	3.384537e+01	1.463273e+03
2.050000e-06	4.631865e-06	2.220802e-08	3.324640e+01	1.454067e+03
2.060000e-06	4.546744e-06	2.207898e-08	3.263542e+01	1.444554e+03
2.070000e-06	4.459857e-06	2.191256e-08	3.201177e+01	1.434702e+03
2.080000e-06	4.371386e-06	2.176656e-08	3.137674e+01	1.424468e+03
2.090000e-06	4.281425e-06	2.158598e-08	3.073103e+01	1.413811e+03
2.100000e-06	4.190204e-06	2.143006e-08	3.007626e+01	1.402697e+03
2.110000e-06	4.097502e-06	2.125253e-08	2.941087e+01	1.391107e+03
2.120000e-06	4.003261e-06	2.106475e-08	2.873443e+01	1.379038e+03
2.130000e-06	3.907582e-06	2.086985e-08	2.804767e+01	1.366499e+03
2.140000e-06	3.810418e-06	2.067087e-08	2.735025e+01	1.353500e+03
2.150000e-06	3.711967e-06	2.047660e-08	2.664360e+01	1.340043e+03
2.160000e-06	3.612351e-06	2.026115e-08	2.592857e+01	1.326115e+03
2.170000e-06	3.511286e-06	2.005072e-08	2.520316e+01	1.311683e+03
2.180000e-06	3.408780e-06	1.981907e-08	2.446739e+01	1.296698e+03
2.190000e-06	3.305000e-06	1.958217e-08	2.372249e+01	1.281097e+03
2.200000e-06	3.199984e-06	1.932890e-08	2.296870e+01	1.264818e+03
2.210000e-06	3.093866e-06	1.907142e-08	2.220702e+01	1.247808e+03
2.220000e-06	2.986689e-06	1.880074e-08	2.143773e+01	1.230026e+03
2.230000e-06	2.878532e-06	1.852007e-08	2.066140e+01	1.211443e+03
2.240000e-06	2.769327e-06	1.822934e-08	1.987755e+01	1.192041e+03
2.250000e-06	2.659035e-06	1.792456e-08	1.908590e+01	1.171798e+03
2.260000e-06	2.547739e-06	1.760599e-08	1.828705e+01	1.150679e+03
2.270000e-06	2.435428e-06	1.726786e-08	1.748091e+01	1.128626e+03
2.280000e-06	2.322116e-06	1.691622e-08	1.666759e+01	1.105557e+03
2.290000e-06	2.207949e-06	1.654298e-08	1.584812e+01	1.081366e+03
2.300000e-06	2.093033e-06	1.615528e-08	1.502328e+01	1.055932e+03
2.310000e-06	1.977261e-06	1.574909e-08	1.419230e+01	1.029131e+03
2.320000e-06	1.860626e-06	1.532478e-08	1.335512e+01	1.000840e+03
2.330000e-06	1.743275e-06	1.487325e-08	1.251280e+01	9.709513e+02
2.340000e-06	1.625226e-06	1.439292e-08	1.166547e+01	9.393613e+02
2.350000e-06	1.506515e-06	1.388372e-08	1.081340e+01	9.059716e+02
2.360000e-06	1.387224e-06	1.334499e-08	9.957156e+00	8.706769e+02
2.370000e-06	1.267480e-06	1.277609e-08	9.097661e+00	8.333586e+02
2.380000e-06	1.147341e-06	1.217224e-08	8.235337e+00	7.938855e+02
2.390000e-06	1.026823e-06	1.153297e-08	7.370283e+00	7.521237e+02
2.400000e-06	9.059902e-07	1.085858e-08	6.502977e+00	7.079587e+02
2.410000e-06	7.848624e-07	1.014879e-08	5.633551e+00	6.613250e+02
2.420000e-06	6.635167e-07	9.401728e-09	4.762561e+00	6.122371e+02
2.430000e-06	5.419294e-07	8.619478e-09	3.889837e+00	5.608143e+02
2.440000e-06	4.201908e-07	7.805222e-09	3.016027e+00	5.072896e+02
2.450000e-06	2.983645e-07	6.962133e-09	2.141587e+00	4.519975e+02
2.460000e-06	1.763473e-07	6.094839e-09	1.265778e+00	3.953393e+02
2.470000e-06	5.427019e-08	5.213117e-09	3.895382e-01	3.377298e+02
2.480000e-06	-6.782280e-08	4.323379e-09	-4.868155e-01	2.795336e+02
2.490000e-06	-1.899502e-07	3.427390e-09	-1.363416e+00	2.210058e+02
2.500000e-06	-3.120071e-07	2.529007e-09	-2.239511e+00	1.622493e+02
2.510000e-06	-4.338896e-07	1.626706e-09	-3.114354e+00	1.031997e+02
2.520000e-06	-5.556374e-07	7.144384e-10	-3.988230e+00	4.364587e+01
2.530000e-06	-6.773347e-07	-2.109094e-10	-4.861744e+00	-1.671833e+01
2.540000e-06	-7.988054e-07	-1.151142e-09	-5.733631e+00	-7.821574e+01
2.550000e-06	-9.199402e-07	-2.110095e-09	-6.603107e+00	-1.410980e+02
2.560000e-06	-1.040800e-06	-3.091287e-09	-7.470608e+00	-2.054637e+02
2.570000e-06	-1.161339e-06	-4.093958e-09	-8.335809e+00	-2.711997e+02
2.580000e-06	-1.281535e-06	-5.113005e-09	-9.198547e+00	-3.379569e+02
2.590000e-06	-1.401340e-06	-6.141419e-09	-1.005848e+01	-4.051671e+02
2.600000e-06	-1.520633e-06	-7.168960e-09	-1.091473e+01	-4.720969e+02
2.610000e-06	-1.639263e-06	-8.180892e-09	-1.176623e+01	-5.379285e+02
2.620000e-06	-1.757065e-06	-9.161206e-09	-1.261178e+01	-6.018539e+02
2.630000e-06	-1.874023e-06	-1.009906e-08	-1.345128e+01	-6.631630e+02
2.640000e-06	-1.990131e-06	-1.098900e-08	-1.428468e+01	-7.213127e+02
2.650000e-06	-2.105470e-06	-1.182526e-08	-1.511255e+01	-7.759656e+02
2.660000e-06	-2.220030e-06	-1.260754e-08	-1.593484e+01	-8.269946e+02
2.670000e-06	-2.333602e-06	-1.333750e-08	-1.675003e+01	-8.744582e+02
2.680000e-06	-2.446057e-06	-1.401666e-08	-1.755720e+01	-9.185525e+02
2.690000e-06	-2.557340e-06	-1.464852e-08	-1.835596e+01	-9.595552e+02
2.700000e-06	-2.667638e-06	-1.523656e-08	-1.914766e+01	-9.977707e+02
2.710000e-06	-2.777079e-06	-1.578645e-08	-1.993320e+01	-1.033487e+03
2.720000e-06	-2.885566e-06	-1.630074e-08	-2.071189e+01	-1.066952e+03
2.730000e-06	-2.993216e-06	-1.678037e-08	-2.148457e+01	-1.098362e+03
2.740000e-06	-3.099962e-06	-1.722910e-08	-2.225077e+01	-1.127873e+03
2.750000e-06	-3.205610e-06	-1.765002e-08	-2.300909e+01	-1.155612e+03
2.760000e-06	-3.310104e-06	-1.804793e-08	-2.375912e+01	-1.181695e+03
2.770000e-06	-3.413438e-06	-1.842552e-08	-2.450082e+01	-1.206237e+03
2.780000e-06	-3.515472e-06	-1.877962e-08	-2.523320e+01	-1.229361e+03
2.790000e-06	-3.616048e-06	-1.911259e-08	-2.595511e+01	-1.251188e+03
2.800000e-06	-3.715404e-06	-1.942901e-08	-2.666827e+01	-1.271839e+03
2.810000e-06	-3.813586e-06	-1.973104e-08	-2.737299e+01	-1.291419e+03
2.820000e-06	-3.910431e-06	-2.001693e-08	-2.806812e+01	-1.310014e+03
2.830000e-06	-4.006056e-06	-2.028573e-08	-2.875449e+01	-1.327687e+03
2.840000e-06	-4.100274e-06	-2.054075e-08	-2.943076e+01	-1.344484e+03
2.850000e-06	-4.192904e-06	-2.078342e-08	-3.009564e+01	-1.360440e+03
2.860000e-06	-4.284096e-06	-2.101568e-08	-3.075020e+01	-1.375588e+03
2.870000e-06	-4.373756e-06	-2.123865e-08	-3.139376e+01	-1.389965e+03
2.880000e-06	-4.461836e-06	-2.145127e-08	-3.202597e+01	-1.403618e+03
2.890000e-06	-4.548277e-06	-2.165328e-08	-3.264642e+01	-1.416603e+03
2.900000e-06	-4.632979e-06	-2.184291e-08	-3.325439e+01	-1.428977e+03
2.910000e-06	-4.716089e-06	-2.202149e-08	-3.385094e+01	-1.440795e+03
2.920000e-06	-4.797619e-06	-2.219317e-08	-3.443614e+01	-1.452098e+03
2.930000e-06	-4.877521e-06	-2.235884e-08	-3.500966e+01	-1.462912e+03
2.940000e-06	-4.955413e-06	-2.251801e-08	-3.556875e+01	-1.473248e+03
