# Temperatura_=_61.17
# Concentracion g/m^3_=_26700.0
# C_Vs_to_Am_M_A/Vsm_=_65563218390.804596
# pendiente_HvsI_1/m_=_3716.3
# ordenada_HvsI_A/m_=_1297.0
# frecuencia_Hz_=_301767.6141960169

Tiempo_(s)	Campo_(V.s)	Magnetizacion_(V.s)	Campo_(kA/m)	Magnetizacion_(A/m)
0.000000e+00	-5.243319e-06	-2.067270e-08	-3.830286e+01	-1.349890e+03
1.000000e-08	-5.241089e-06	-2.067472e-08	-3.828658e+01	-1.349933e+03
2.000000e-08	-5.237058e-06	-2.067088e-08	-3.825713e+01	-1.349794e+03
3.000000e-08	-5.231413e-06	-2.066436e-08	-3.821589e+01	-1.349474e+03
4.000000e-08	-5.224190e-06	-2.065334e-08	-3.816313e+01	-1.348961e+03
5.000000e-08	-5.215327e-06	-2.063746e-08	-3.809838e+01	-1.348238e+03
6.000000e-08	-5.204536e-06	-2.061919e-08	-3.801956e+01	-1.347288e+03
7.000000e-08	-5.191793e-06	-2.059465e-08	-3.792646e+01	-1.346098e+03
8.000000e-08	-5.177001e-06	-2.057988e-08	-3.781841e+01	-1.344668e+03
9.000000e-08	-5.159999e-06	-2.059158e-08	-3.769420e+01	-1.343016e+03
1.000000e-07	-5.140989e-06	-2.056478e-08	-3.755534e+01	-1.341172e+03
1.100000e-07	-5.120157e-06	-2.050771e-08	-3.740315e+01	-1.339181e+03
1.200000e-07	-5.097637e-06	-2.046465e-08	-3.723865e+01	-1.337089e+03
1.300000e-07	-5.073667e-06	-2.038720e-08	-3.706355e+01	-1.334940e+03
1.400000e-07	-5.048128e-06	-2.036158e-08	-3.687698e+01	-1.332764e+03
1.500000e-07	-5.020866e-06	-2.039597e-08	-3.667783e+01	-1.330570e+03
1.600000e-07	-4.992095e-06	-2.029559e-08	-3.646765e+01	-1.328347e+03
1.700000e-07	-4.961974e-06	-2.025254e-08	-3.624762e+01	-1.326063e+03
1.800000e-07	-4.930157e-06	-2.025666e-08	-3.601519e+01	-1.323671e+03
1.900000e-07	-4.896255e-06	-2.013134e-08	-3.576753e+01	-1.321117e+03
2.000000e-07	-4.860654e-06	-2.012796e-08	-3.550747e+01	-1.318349e+03
2.100000e-07	-4.823522e-06	-2.013461e-08	-3.523621e+01	-1.315326e+03
2.200000e-07	-4.784642e-06	-2.001788e-08	-3.495219e+01	-1.312025e+03
2.300000e-07	-4.744007e-06	-1.996733e-08	-3.465535e+01	-1.308438e+03
2.400000e-07	-4.701428e-06	-1.989435e-08	-3.434431e+01	-1.304577e+03
2.500000e-07	-4.657021e-06	-1.980611e-08	-3.401991e+01	-1.300463e+03
2.600000e-07	-4.610950e-06	-1.978369e-08	-3.368336e+01	-1.296125e+03
2.700000e-07	-4.563088e-06	-1.968731e-08	-3.333373e+01	-1.291594e+03
2.800000e-07	-4.513204e-06	-1.959914e-08	-3.296932e+01	-1.286892e+03
2.900000e-07	-4.461242e-06	-1.954593e-08	-3.258973e+01	-1.282037e+03
3.000000e-07	-4.407579e-06	-1.946513e-08	-3.219772e+01	-1.277035e+03
3.100000e-07	-4.352367e-06	-1.938291e-08	-3.179439e+01	-1.271886e+03
3.200000e-07	-4.295460e-06	-1.930843e-08	-3.137868e+01	-1.266587e+03
3.300000e-07	-4.236787e-06	-1.922872e-08	-3.095007e+01	-1.261130e+03
3.400000e-07	-4.176594e-06	-1.912222e-08	-3.051036e+01	-1.255510e+03
3.500000e-07	-4.115047e-06	-1.902896e-08	-3.006075e+01	-1.249722e+03
3.600000e-07	-4.052163e-06	-1.894510e-08	-2.960138e+01	-1.243765e+03
3.700000e-07	-3.987974e-06	-1.885499e-08	-2.913247e+01	-1.237638e+03
3.800000e-07	-3.922198e-06	-1.876960e-08	-2.865197e+01	-1.231342e+03
3.900000e-07	-3.854765e-06	-1.865796e-08	-2.815937e+01	-1.224876e+03
4.000000e-07	-3.785948e-06	-1.855144e-08	-2.765665e+01	-1.218239e+03
4.100000e-07	-3.715890e-06	-1.846090e-08	-2.714488e+01	-1.211429e+03
4.200000e-07	-3.644702e-06	-1.834701e-08	-2.662484e+01	-1.204444e+03
4.300000e-07	-3.572377e-06	-1.823021e-08	-2.609650e+01	-1.197281e+03
4.400000e-07	-3.498517e-06	-1.811653e-08	-2.555694e+01	-1.189938e+03
4.500000e-07	-3.422994e-06	-1.800230e-08	-2.500524e+01	-1.182415e+03
4.600000e-07	-3.346188e-06	-1.787995e-08	-2.444417e+01	-1.174712e+03
4.700000e-07	-3.268182e-06	-1.775895e-08	-2.387433e+01	-1.166827e+03
4.800000e-07	-3.188731e-06	-1.764122e-08	-2.329394e+01	-1.158760e+03
4.900000e-07	-3.107904e-06	-1.751236e-08	-2.270349e+01	-1.150507e+03
5.000000e-07	-3.026022e-06	-1.738127e-08	-2.210533e+01	-1.142061e+03
5.100000e-07	-2.943211e-06	-1.724559e-08	-2.150039e+01	-1.133416e+03
5.200000e-07	-2.859612e-06	-1.711102e-08	-2.088969e+01	-1.124564e+03
5.300000e-07	-2.775197e-06	-1.697359e-08	-2.027304e+01	-1.115498e+03
5.400000e-07	-2.689820e-06	-1.682809e-08	-1.964935e+01	-1.106211e+03
5.500000e-07	-2.603483e-06	-1.667900e-08	-1.901865e+01	-1.096702e+03
5.600000e-07	-2.516298e-06	-1.652578e-08	-1.838176e+01	-1.086966e+03
5.700000e-07	-2.428305e-06	-1.637081e-08	-1.773896e+01	-1.077004e+03
5.800000e-07	-2.339226e-06	-1.621304e-08	-1.708823e+01	-1.066814e+03
5.900000e-07	-2.248944e-06	-1.605408e-08	-1.642871e+01	-1.056391e+03
6.000000e-07	-2.157766e-06	-1.589084e-08	-1.576265e+01	-1.045732e+03
6.100000e-07	-2.065941e-06	-1.572383e-08	-1.509186e+01	-1.034827e+03
6.200000e-07	-1.973496e-06	-1.555270e-08	-1.441655e+01	-1.023669e+03
6.300000e-07	-1.880340e-06	-1.537584e-08	-1.373604e+01	-1.012247e+03
6.400000e-07	-1.786436e-06	-1.519600e-08	-1.305006e+01	-1.000554e+03
6.500000e-07	-1.691897e-06	-1.501233e-08	-1.235944e+01	-9.885859e+02
6.600000e-07	-1.596873e-06	-1.482351e-08	-1.166529e+01	-9.763391e+02
6.700000e-07	-1.501441e-06	-1.462953e-08	-1.096815e+01	-9.638137e+02
6.800000e-07	-1.405553e-06	-1.443177e-08	-1.026768e+01	-9.510100e+02
6.900000e-07	-1.309088e-06	-1.423132e-08	-9.562991e+00	-9.379267e+02
7.000000e-07	-1.212015e-06	-1.402881e-08	-8.853869e+00	-9.245596e+02
7.100000e-07	-1.114356e-06	-1.382122e-08	-8.140458e+00	-9.109000e+02
7.200000e-07	-1.016173e-06	-1.360953e-08	-7.423226e+00	-8.969347e+02
7.300000e-07	-9.176211e-07	-1.339466e-08	-6.703295e+00	-8.826472e+02
7.400000e-07	-8.187358e-07	-1.317327e-08	-5.980930e+00	-8.680192e+02
7.500000e-07	-7.195408e-07	-1.294412e-08	-5.256303e+00	-8.530329e+02
7.600000e-07	-6.201125e-07	-1.270798e-08	-4.529971e+00	-8.376723e+02
7.700000e-07	-5.205132e-07	-1.246637e-08	-3.802391e+00	-8.219240e+02
7.800000e-07	-4.207695e-07	-1.221859e-08	-3.073755e+00	-8.057762e+02
7.900000e-07	-3.209122e-07	-1.196607e-08	-2.344289e+00	-7.892173e+02
8.000000e-07	-2.209930e-07	-1.170866e-08	-1.614372e+00	-7.722327e+02
8.100000e-07	-1.210151e-07	-1.144464e-08	-8.840252e-01	-7.548025e+02
8.200000e-07	-2.099224e-08	-1.117367e-08	-1.533500e-01	-7.368996e+02
8.300000e-07	7.906537e-08	-1.089412e-08	5.775789e-01	-7.184896e+02
8.400000e-07	1.791501e-07	-1.060591e-08	1.308706e+00	-6.995311e+02
8.500000e-07	2.791988e-07	-1.030882e-08	2.039569e+00	-6.799786e+02
8.600000e-07	3.791758e-07	-1.000231e-08	2.769910e+00	-6.597855e+02
8.700000e-07	4.790545e-07	-9.684230e-09	3.499532e+00	-6.389062e+02
8.800000e-07	5.788467e-07	-9.353808e-09	4.228521e+00	-6.172980e+02
8.900000e-07	6.785281e-07	-9.011847e-09	4.956702e+00	-5.949207e+02
9.000000e-07	7.779878e-07	-8.657929e-09	5.683263e+00	-5.717344e+02
9.100000e-07	8.771653e-07	-8.291270e-09	6.407762e+00	-5.476966e+02
9.200000e-07	9.760232e-07	-7.911727e-09	7.129927e+00	-5.227578e+02
9.300000e-07	1.074431e-06	-7.517980e-09	7.848806e+00	-4.968588e+02
9.400000e-07	1.172291e-06	-7.107625e-09	8.563677e+00	-4.699285e+02
9.500000e-07	1.269590e-06	-6.681257e-09	9.274459e+00	-4.418848e+02
9.600000e-07	1.366355e-06	-6.237088e-09	9.981331e+00	-4.126366e+02
9.700000e-07	1.462626e-06	-5.771165e-09	1.068460e+01	-3.820882e+02
9.800000e-07	1.558295e-06	-5.283201e-09	1.138347e+01	-3.501439e+02
9.900000e-07	1.653330e-06	-4.773928e-09	1.207771e+01	-3.167124e+02
1.000000e-06	1.747825e-06	-4.240427e-09	1.276800e+01	-2.817098e+02
1.010000e-06	1.841704e-06	-3.680986e-09	1.345380e+01	-2.450616e+02
1.020000e-06	1.934913e-06	-3.097130e-09	1.413470e+01	-2.067030e+02
1.030000e-06	2.027498e-06	-2.486715e-09	1.481103e+01	-1.665800e+02
1.040000e-06	2.119493e-06	-1.847917e-09	1.548307e+01	-1.246500e+02
1.050000e-06	2.210779e-06	-1.180655e-09	1.614992e+01	-8.088638e+01
1.060000e-06	2.301161e-06	-4.847785e-10	1.681017e+01	-3.528438e+01
1.070000e-06	2.390547e-06	2.381477e-10	1.746314e+01	1.212964e+01
1.080000e-06	2.478952e-06	9.878305e-10	1.810894e+01	6.128745e+01
1.090000e-06	2.566431e-06	1.764475e-09	1.874798e+01	1.120685e+02
1.100000e-06	2.653081e-06	2.563640e-09	1.938097e+01	1.642919e+02
1.110000e-06	2.738894e-06	3.378372e-09	2.000784e+01	2.177132e+02
1.120000e-06	2.823813e-06	4.205070e-09	2.062818e+01	2.720270e+02
1.130000e-06	2.907946e-06	5.039987e-09	2.124278e+01	3.268769e+02
1.140000e-06	2.991222e-06	5.877562e-09	2.185111e+01	3.818711e+02
1.150000e-06	3.073441e-06	6.710296e-09	2.245173e+01	4.366023e+02
1.160000e-06	3.154490e-06	7.532126e-09	2.304380e+01	4.906691e+02
1.170000e-06	3.234330e-06	8.338313e-09	2.362704e+01	5.436964e+02
1.180000e-06	3.313002e-06	9.124780e-09	2.420175e+01	5.953514e+02
1.190000e-06	3.390487e-06	9.885257e-09	2.476778e+01	6.453541e+02
1.200000e-06	3.466761e-06	1.061578e-08	2.532496e+01	6.934815e+02
1.210000e-06	3.541768e-06	1.131345e-08	2.587290e+01	7.395666e+02
1.220000e-06	3.615298e-06	1.197780e-08	2.641004e+01	7.834921e+02
1.230000e-06	3.687322e-06	1.260838e-08	2.693619e+01	8.251836e+02
1.240000e-06	3.758005e-06	1.320357e-08	2.745253e+01	8.646009e+02
1.250000e-06	3.827396e-06	1.376551e-08	2.795943e+01	9.017326e+02
1.260000e-06	3.895538e-06	1.429242e-08	2.845722e+01	9.365916e+02
1.270000e-06	3.962302e-06	1.478330e-08	2.894493e+01	9.692133e+02
1.280000e-06	4.027501e-06	1.523971e-08	2.942122e+01	9.996549e+02
1.290000e-06	4.091192e-06	1.566571e-08	2.988649e+01	1.027995e+03
1.300000e-06	4.153418e-06	1.606483e-08	3.034105e+01	1.054331e+03
1.310000e-06	4.214272e-06	1.643660e-08	3.078559e+01	1.078779e+03
1.320000e-06	4.273852e-06	1.678153e-08	3.122083e+01	1.101463e+03
1.330000e-06	4.331908e-06	1.710201e-08	3.164494e+01	1.122515e+03
1.340000e-06	4.388169e-06	1.739773e-08	3.205593e+01	1.142061e+03
1.350000e-06	4.442776e-06	1.766884e-08	3.245484e+01	1.160223e+03
1.360000e-06	4.495793e-06	1.791905e-08	3.284213e+01	1.177105e+03
1.370000e-06	4.546949e-06	1.815363e-08	3.321582e+01	1.192801e+03
1.380000e-06	4.596134e-06	1.837311e-08	3.357512e+01	1.207389e+03
1.390000e-06	4.643566e-06	1.857695e-08	3.392162e+01	1.220935e+03
1.400000e-06	4.689395e-06	1.876605e-08	3.425640e+01	1.233499e+03
1.410000e-06	4.733682e-06	1.894364e-08	3.457993e+01	1.245136e+03
1.420000e-06	4.776330e-06	1.911040e-08	3.489147e+01	1.255897e+03
1.430000e-06	4.817137e-06	1.926257e-08	3.518957e+01	1.265837e+03
1.440000e-06	4.856184e-06	1.940091e-08	3.547481e+01	1.275007e+03
1.450000e-06	4.893672e-06	1.952801e-08	3.574867e+01	1.283460e+03
1.460000e-06	4.929629e-06	1.964552e-08	3.601134e+01	1.291246e+03
1.470000e-06	4.963808e-06	1.975302e-08	3.626102e+01	1.298411e+03
1.480000e-06	4.996046e-06	1.985149e-08	3.649652e+01	1.304999e+03
1.490000e-06	5.026510e-06	1.994341e-08	3.671906e+01	1.311049e+03
1.500000e-06	5.055383e-06	2.002868e-08	3.692998e+01	1.316599e+03
1.510000e-06	5.082631e-06	2.010665e-08	3.712902e+01	1.321683e+03
1.520000e-06	5.107942e-06	2.017882e-08	3.731392e+01	1.326334e+03
1.530000e-06	5.131219e-06	2.024524e-08	3.748397e+01	1.330580e+03
1.540000e-06	5.152729e-06	2.030415e-08	3.764110e+01	1.334447e+03
1.550000e-06	5.172619e-06	2.035654e-08	3.778640e+01	1.337956e+03
1.560000e-06	5.190712e-06	2.040365e-08	3.791857e+01	1.341118e+03
1.570000e-06	5.206795e-06	2.044526e-08	3.803605e+01	1.343941e+03
1.580000e-06	5.220913e-06	2.048139e-08	3.813919e+01	1.346427e+03
1.590000e-06	5.233058e-06	2.051246e-08	3.822791e+01	1.348577e+03
1.600000e-06	5.243055e-06	2.053883e-08	3.830094e+01	1.350393e+03
1.610000e-06	5.251000e-06	2.056129e-08	3.835898e+01	1.351881e+03
1.620000e-06	5.257140e-06	2.058017e-08	3.840383e+01	1.353055e+03
1.630000e-06	5.261565e-06	2.059374e-08	3.843615e+01	1.353936e+03
1.640000e-06	5.264194e-06	2.060386e-08	3.845536e+01	1.354553e+03
1.650000e-06	5.264829e-06	2.061220e-08	3.846000e+01	1.354934e+03
1.660000e-06	5.263565e-06	2.061506e-08	3.845076e+01	1.355107e+03
1.670000e-06	5.260691e-06	2.061391e-08	3.842977e+01	1.355092e+03
1.680000e-06	5.256251e-06	2.061013e-08	3.839733e+01	1.354896e+03
1.690000e-06	5.249956e-06	2.060280e-08	3.835135e+01	1.354516e+03
1.700000e-06	5.241827e-06	2.059417e-08	3.829197e+01	1.353938e+03
1.710000e-06	5.232157e-06	2.058479e-08	3.822132e+01	1.353145e+03
1.720000e-06	5.220897e-06	2.057994e-08	3.813907e+01	1.352119e+03
1.730000e-06	5.207813e-06	2.056441e-08	3.804349e+01	1.350852e+03
1.740000e-06	5.192743e-06	2.050118e-08	3.793341e+01	1.349349e+03
1.750000e-06	5.175525e-06	2.046916e-08	3.780763e+01	1.347631e+03
1.760000e-06	5.155880e-06	2.046299e-08	3.766411e+01	1.345736e+03
1.770000e-06	5.133717e-06	2.044913e-08	3.750221e+01	1.343708e+03
1.780000e-06	5.109797e-06	2.047237e-08	3.732748e+01	1.341594e+03
1.790000e-06	5.085075e-06	2.038947e-08	3.714688e+01	1.339435e+03
1.800000e-06	5.059357e-06	2.031605e-08	3.695901e+01	1.337253e+03
1.810000e-06	5.031843e-06	2.037222e-08	3.675802e+01	1.335053e+03
1.820000e-06	5.002442e-06	2.028221e-08	3.654324e+01	1.332816e+03
1.830000e-06	4.971320e-06	2.024620e-08	3.631589e+01	1.330503e+03
1.840000e-06	4.938342e-06	2.030279e-08	3.607499e+01	1.328065e+03
1.850000e-06	4.903712e-06	2.014800e-08	3.582201e+01	1.325448e+03
1.860000e-06	4.867477e-06	2.009665e-08	3.555731e+01	1.322603e+03
1.870000e-06	4.829242e-06	2.011692e-08	3.527800e+01	1.319493e+03
1.880000e-06	4.789218e-06	2.001425e-08	3.498562e+01	1.316101e+03
1.890000e-06	4.747562e-06	2.002422e-08	3.468132e+01	1.312425e+03
1.900000e-06	4.704193e-06	1.993074e-08	3.436450e+01	1.308479e+03
1.910000e-06	4.659260e-06	1.982319e-08	3.403627e+01	1.304291e+03
1.920000e-06	4.612520e-06	1.986553e-08	3.369483e+01	1.299889e+03
1.930000e-06	4.564046e-06	1.973583e-08	3.334072e+01	1.295301e+03
1.940000e-06	4.513898e-06	1.963992e-08	3.297439e+01	1.290549e+03
1.950000e-06	4.461856e-06	1.960799e-08	3.259422e+01	1.285647e+03
1.960000e-06	4.407933e-06	1.952206e-08	3.220030e+01	1.280599e+03
1.970000e-06	4.352201e-06	1.944943e-08	3.179318e+01	1.275403e+03
1.980000e-06	4.294833e-06	1.932778e-08	3.137410e+01	1.270055e+03
1.990000e-06	4.236010e-06	1.928892e-08	3.094439e+01	1.264547e+03
2.000000e-06	4.175872e-06	1.922255e-08	3.050508e+01	1.258874e+03
2.010000e-06	4.114214e-06	1.908838e-08	3.005466e+01	1.253032e+03
2.020000e-06	4.050789e-06	1.901094e-08	2.959134e+01	1.247021e+03
2.030000e-06	3.985829e-06	1.890768e-08	2.911680e+01	1.240841e+03
2.040000e-06	3.919533e-06	1.883935e-08	2.863250e+01	1.234491e+03
2.050000e-06	3.851999e-06	1.872080e-08	2.813916e+01	1.227971e+03
2.060000e-06	3.783139e-06	1.859780e-08	2.763613e+01	1.221279e+03
2.070000e-06	3.712638e-06	1.853653e-08	2.712112e+01	1.214414e+03
2.080000e-06	3.640697e-06	1.841655e-08	2.659558e+01	1.207372e+03
2.090000e-06	3.567535e-06	1.830562e-08	2.606113e+01	1.200152e+03
2.100000e-06	3.493143e-06	1.818927e-08	2.551769e+01	1.192752e+03
2.110000e-06	3.417548e-06	1.808785e-08	2.496546e+01	1.185171e+03
2.120000e-06	3.340569e-06	1.797797e-08	2.440312e+01	1.177411e+03
2.130000e-06	3.262078e-06	1.783637e-08	2.382974e+01	1.169469e+03
2.140000e-06	3.182285e-06	1.771990e-08	2.324685e+01	1.161343e+03
2.150000e-06	3.101417e-06	1.759363e-08	2.265610e+01	1.153029e+03
2.160000e-06	3.019507e-06	1.747134e-08	2.205774e+01	1.144520e+03
2.170000e-06	2.936580e-06	1.733419e-08	2.145195e+01	1.135810e+03
2.180000e-06	2.852764e-06	1.720024e-08	2.083967e+01	1.126891e+03
2.190000e-06	2.768011e-06	1.707196e-08	2.022054e+01	1.117755e+03
2.200000e-06	2.681973e-06	1.692752e-08	1.959203e+01	1.108398e+03
2.210000e-06	2.594681e-06	1.678460e-08	1.895435e+01	1.098817e+03
2.220000e-06	2.506472e-06	1.663589e-08	1.830998e+01	1.089009e+03
2.230000e-06	2.417422e-06	1.648824e-08	1.765946e+01	1.078974e+03
2.240000e-06	2.327604e-06	1.632824e-08	1.700333e+01	1.068711e+03
2.250000e-06	2.237073e-06	1.616593e-08	1.634199e+01	1.058213e+03
2.260000e-06	2.145807e-06	1.600242e-08	1.567529e+01	1.047477e+03
2.270000e-06	2.053928e-06	1.583861e-08	1.500411e+01	1.036492e+03
2.280000e-06	1.961425e-06	1.567502e-08	1.432837e+01	1.025251e+03
2.290000e-06	1.868109e-06	1.550036e-08	1.364669e+01	1.013743e+03
2.300000e-06	1.773784e-06	1.532213e-08	1.295763e+01	1.001963e+03
2.310000e-06	1.678625e-06	1.513980e-08	1.226249e+01	9.899059e+02
2.320000e-06	1.583019e-06	1.495414e-08	1.156408e+01	9.775702e+02
2.330000e-06	1.487005e-06	1.476144e-08	1.086269e+01	9.649560e+02
2.340000e-06	1.390521e-06	1.456353e-08	1.015787e+01	9.520633e+02
2.350000e-06	1.293618e-06	1.436187e-08	9.449984e+00	9.388901e+02
2.360000e-06	1.196322e-06	1.415525e-08	8.739231e+00	9.254308e+02
2.370000e-06	1.098597e-06	1.394318e-08	8.025338e+00	9.116753e+02
2.380000e-06	1.000470e-06	1.372807e-08	7.308514e+00	8.976090e+02
2.390000e-06	9.020493e-07	1.351158e-08	6.589542e+00	8.832147e+02
2.400000e-06	8.033725e-07	1.328966e-08	5.868701e+00	8.684741e+02
2.410000e-06	7.044137e-07	1.306054e-08	5.145798e+00	8.533697e+02
2.420000e-06	6.052128e-07	1.282426e-08	4.421128e+00	8.378865e+02
2.430000e-06	5.059228e-07	1.258138e-08	3.695807e+00	8.220117e+02
2.440000e-06	4.065714e-07	1.233083e-08	2.970037e+00	8.057338e+02
2.450000e-06	3.070916e-07	1.207364e-08	2.243328e+00	7.890405e+02
2.460000e-06	2.075180e-07	1.181019e-08	1.515935e+00	7.719158e+02
2.470000e-06	1.078633e-07	1.154198e-08	7.879498e-01	7.543376e+02
2.480000e-06	8.151210e-09	1.126740e-08	5.954524e-02	7.362766e+02
2.490000e-06	-9.155635e-08	1.098325e-08	-6.688264e-01	7.176956e+02
2.500000e-06	-1.912539e-07	1.069127e-08	-1.397125e+00	6.985519e+02
2.510000e-06	-2.909105e-07	1.039034e-08	-2.125124e+00	6.787993e+02
2.520000e-06	-3.904451e-07	1.007950e-08	-2.852233e+00	6.583911e+02
2.530000e-06	-4.898390e-07	9.757046e-09	-3.578313e+00	6.372827e+02
2.540000e-06	-5.891142e-07	9.421540e-09	-4.303526e+00	6.154323e+02
2.550000e-06	-6.882153e-07	9.072712e-09	-5.027468e+00	5.928000e+02
2.560000e-06	-7.871254e-07	8.710660e-09	-5.750014e+00	5.693456e+02
2.570000e-06	-8.858468e-07	8.337131e-09	-6.471181e+00	5.450246e+02
2.580000e-06	-9.842983e-07	7.954326e-09	-7.190378e+00	5.197849e+02
2.590000e-06	-1.082391e-06	7.560146e-09	-7.906955e+00	4.935633e+02
2.600000e-06	-1.180055e-06	7.147001e-09	-8.620395e+00	4.662853e+02
2.610000e-06	-1.277288e-06	6.712691e-09	-9.330688e+00	4.378653e+02
2.620000e-06	-1.374073e-06	6.258266e-09	-1.003771e+01	4.082103e+02
2.630000e-06	-1.470436e-06	5.783891e-09	-1.074166e+01	3.772242e+02
2.640000e-06	-1.566381e-06	5.287570e-09	-1.144254e+01	3.448122e+02
2.650000e-06	-1.661794e-06	4.766035e-09	-1.213954e+01	3.108851e+02
2.660000e-06	-1.756466e-06	4.221584e-09	-1.283113e+01	2.753619e+02
2.670000e-06	-1.850316e-06	3.654127e-09	-1.351670e+01	2.381711e+02
2.680000e-06	-1.943415e-06	3.061317e-09	-1.419681e+01	1.992515e+02
2.690000e-06	-2.035728e-06	2.443265e-09	-1.487115e+01	1.585522e+02
2.700000e-06	-2.127249e-06	1.798463e-09	-1.553973e+01	1.160356e+02
2.710000e-06	-2.218034e-06	1.123467e-09	-1.620292e+01	7.168092e+01
2.720000e-06	-2.308011e-06	4.175590e-10	-1.686020e+01	2.549247e+01
2.730000e-06	-2.397184e-06	-3.166842e-10	-1.751162e+01	-2.249115e+01
2.740000e-06	-2.485684e-06	-1.076545e-09	-1.815812e+01	-7.218597e+01
2.750000e-06	-2.573394e-06	-1.858989e-09	-1.879885e+01	-1.234528e+02
2.760000e-06	-2.660092e-06	-2.661379e-09	-1.943219e+01	-1.760902e+02
2.770000e-06	-2.745732e-06	-3.480515e-09	-2.005779e+01	-2.298337e+02
2.780000e-06	-2.830318e-06	-4.309883e-09	-2.067570e+01	-2.843601e+02
2.790000e-06	-2.913908e-06	-5.144880e-09	-2.128633e+01	-3.392997e+02
2.800000e-06	-2.996582e-06	-5.983819e-09	-2.189027e+01	-3.942532e+02
2.810000e-06	-3.078291e-06	-6.819736e-09	-2.248716e+01	-4.488131e+02
2.820000e-06	-3.158975e-06	-7.643848e-09	-2.307656e+01	-5.025843e+02
2.830000e-06	-3.238609e-06	-8.449286e-09	-2.365830e+01	-5.552038e+02
2.840000e-06	-3.317031e-06	-9.232750e-09	-2.423118e+01	-6.063548e+02
2.850000e-06	-3.394040e-06	-9.990766e-09	-2.479374e+01	-6.557756e+02
2.860000e-06	-3.469612e-06	-1.071870e-08	-2.534580e+01	-7.032616e+02
2.870000e-06	-3.543859e-06	-1.141440e-08	-2.588818e+01	-7.486625e+02
2.880000e-06	-3.616888e-06	-1.207757e-08	-2.642166e+01	-7.918756e+02
2.890000e-06	-3.688660e-06	-1.270741e-08	-2.694596e+01	-8.328383e+02
2.900000e-06	-3.758977e-06	-1.330255e-08	-2.745963e+01	-8.715203e+02
2.910000e-06	-3.827807e-06	-1.386468e-08	-2.796244e+01	-9.079184e+02
2.920000e-06	-3.895291e-06	-1.439343e-08	-2.845541e+01	-9.420527e+02
2.930000e-06	-3.961429e-06	-1.488597e-08	-2.893856e+01	-9.739657e+02
2.940000e-06	-4.026206e-06	-1.534285e-08	-2.941175e+01	-1.003721e+03
