# Temperatura_=_27.98
# Concentracion g/m^3_=_28200.0
# C_Vs_to_Am_M_A/Vsm_=_65563218390.804596
# pendiente_HvsI_1/m_=_3716.3
# ordenada_HvsI_A/m_=_1297.0
# frecuencia_Hz_=_301920.71242674795

Tiempo_(s)	Campo_(V.s)	Magnetizacion_(V.s)	Campo_(kA/m)	Magnetizacion_(A/m)
0.000000e+00	-5.898233e-06	-2.102457e-08	-4.194794e+01	-1.377404e+03
1.000000e-08	-5.896315e-06	-2.102419e-08	-4.193430e+01	-1.377133e+03
2.000000e-08	-5.892333e-06	-2.101843e-08	-4.190598e+01	-1.376716e+03
3.000000e-08	-5.886495e-06	-2.100866e-08	-4.186446e+01	-1.376155e+03
4.000000e-08	-5.878855e-06	-2.099810e-08	-4.181012e+01	-1.375450e+03
5.000000e-08	-5.869254e-06	-2.098301e-08	-4.174184e+01	-1.374600e+03
6.000000e-08	-5.857419e-06	-2.096352e-08	-4.165767e+01	-1.373601e+03
7.000000e-08	-5.843448e-06	-2.093922e-08	-4.155831e+01	-1.372451e+03
8.000000e-08	-5.827300e-06	-2.091850e-08	-4.144347e+01	-1.371148e+03
9.000000e-08	-5.808951e-06	-2.094143e-08	-4.131297e+01	-1.369694e+03
1.000000e-07	-5.788505e-06	-2.095392e-08	-4.116756e+01	-1.368092e+03
1.100000e-07	-5.765864e-06	-2.088492e-08	-4.100654e+01	-1.366349e+03
1.200000e-07	-5.740992e-06	-2.083405e-08	-4.082965e+01	-1.364476e+03
1.300000e-07	-5.714081e-06	-2.080129e-08	-4.063826e+01	-1.362482e+03
1.400000e-07	-5.685573e-06	-2.068891e-08	-4.043551e+01	-1.360372e+03
1.500000e-07	-5.655604e-06	-2.069175e-08	-4.022238e+01	-1.358150e+03
1.600000e-07	-5.623911e-06	-2.075915e-08	-3.999698e+01	-1.355810e+03
1.700000e-07	-5.590308e-06	-2.062691e-08	-3.975799e+01	-1.353340e+03
1.800000e-07	-5.554826e-06	-2.062998e-08	-3.950565e+01	-1.350723e+03
1.900000e-07	-5.517415e-06	-2.063330e-08	-3.923958e+01	-1.347937e+03
2.000000e-07	-5.478080e-06	-2.048871e-08	-3.895984e+01	-1.344961e+03
2.100000e-07	-5.436850e-06	-2.051787e-08	-3.866660e+01	-1.341777e+03
2.200000e-07	-5.393541e-06	-2.048446e-08	-3.835859e+01	-1.338372e+03
2.300000e-07	-5.348191e-06	-2.036743e-08	-3.803607e+01	-1.334743e+03
2.400000e-07	-5.300757e-06	-2.031162e-08	-3.769872e+01	-1.330894e+03
2.500000e-07	-5.250998e-06	-2.023108e-08	-3.734484e+01	-1.326833e+03
2.600000e-07	-5.198863e-06	-2.018550e-08	-3.697405e+01	-1.322574e+03
2.700000e-07	-5.144637e-06	-2.013987e-08	-3.658840e+01	-1.318127e+03
2.800000e-07	-5.088630e-06	-2.006247e-08	-3.619008e+01	-1.313498e+03
2.900000e-07	-5.030686e-06	-1.998000e-08	-3.577799e+01	-1.308684e+03
3.000000e-07	-4.970739e-06	-1.987270e-08	-3.535165e+01	-1.303677e+03
3.100000e-07	-4.909071e-06	-1.979896e-08	-3.491307e+01	-1.298461e+03
3.200000e-07	-4.845701e-06	-1.973423e-08	-3.446239e+01	-1.293015e+03
3.300000e-07	-4.780495e-06	-1.967031e-08	-3.399864e+01	-1.287320e+03
3.400000e-07	-4.713419e-06	-1.957314e-08	-3.352160e+01	-1.281359e+03
3.500000e-07	-4.644561e-06	-1.944816e-08	-3.303189e+01	-1.275119e+03
3.600000e-07	-4.574080e-06	-1.934507e-08	-3.253063e+01	-1.268595e+03
3.700000e-07	-4.502106e-06	-1.923357e-08	-3.201875e+01	-1.261787e+03
3.800000e-07	-4.428432e-06	-1.914911e-08	-3.149479e+01	-1.254697e+03
3.900000e-07	-4.352830e-06	-1.905649e-08	-3.095711e+01	-1.247325e+03
4.000000e-07	-4.275458e-06	-1.892687e-08	-3.040685e+01	-1.239672e+03
4.100000e-07	-4.196361e-06	-1.878952e-08	-2.984431e+01	-1.231731e+03
4.200000e-07	-4.115575e-06	-1.865032e-08	-2.926976e+01	-1.223490e+03
4.300000e-07	-4.033433e-06	-1.852245e-08	-2.868558e+01	-1.214935e+03
4.400000e-07	-3.950100e-06	-1.838906e-08	-2.809291e+01	-1.206047e+03
4.500000e-07	-3.865539e-06	-1.825681e-08	-2.749152e+01	-1.196810e+03
4.600000e-07	-3.779761e-06	-1.811042e-08	-2.688147e+01	-1.187207e+03
4.700000e-07	-3.692783e-06	-1.794656e-08	-2.626289e+01	-1.177224e+03
4.800000e-07	-3.604652e-06	-1.778493e-08	-2.563610e+01	-1.166847e+03
4.900000e-07	-3.515133e-06	-1.762103e-08	-2.499945e+01	-1.156063e+03
5.000000e-07	-3.424098e-06	-1.745093e-08	-2.435202e+01	-1.144854e+03
5.100000e-07	-3.331774e-06	-1.726962e-08	-2.369541e+01	-1.133198e+03
5.200000e-07	-3.238231e-06	-1.708383e-08	-2.303013e+01	-1.121065e+03
5.300000e-07	-3.143561e-06	-1.688955e-08	-2.235685e+01	-1.108421e+03
5.400000e-07	-3.047895e-06	-1.668500e-08	-2.167648e+01	-1.095227e+03
5.500000e-07	-2.951080e-06	-1.647176e-08	-2.098794e+01	-1.081443e+03
5.600000e-07	-2.853003e-06	-1.624879e-08	-2.029041e+01	-1.067029e+03
5.700000e-07	-2.753735e-06	-1.601617e-08	-1.958443e+01	-1.051949e+03
5.800000e-07	-2.653423e-06	-1.577510e-08	-1.887101e+01	-1.036172e+03
5.900000e-07	-2.552178e-06	-1.552567e-08	-1.815097e+01	-1.019668e+03
6.000000e-07	-2.449960e-06	-1.526182e-08	-1.742399e+01	-1.002406e+03
6.100000e-07	-2.346923e-06	-1.498195e-08	-1.669120e+01	-9.843508e+02
6.200000e-07	-2.243181e-06	-1.468815e-08	-1.595339e+01	-9.654575e+02
6.300000e-07	-2.138580e-06	-1.438337e-08	-1.520947e+01	-9.456711e+02
6.400000e-07	-2.032998e-06	-1.406830e-08	-1.445858e+01	-9.249237e+02
6.500000e-07	-1.926496e-06	-1.373885e-08	-1.370114e+01	-9.031366e+02
6.600000e-07	-1.819275e-06	-1.338908e-08	-1.293860e+01	-8.802220e+02
6.700000e-07	-1.711449e-06	-1.301432e-08	-1.217174e+01	-8.560870e+02
6.800000e-07	-1.603081e-06	-1.261661e-08	-1.140103e+01	-8.306363e+02
6.900000e-07	-1.494210e-06	-1.220094e-08	-1.062675e+01	-8.037749e+02
7.000000e-07	-1.384867e-06	-1.176947e-08	-9.849106e+00	-7.754101e+02
7.100000e-07	-1.275086e-06	-1.131819e-08	-9.068346e+00	-7.454530e+02
7.200000e-07	-1.164914e-06	-1.084008e-08	-8.284809e+00	-7.138212e+02
7.300000e-07	-1.054387e-06	-1.032988e-08	-7.498746e+00	-6.804432e+02
7.400000e-07	-9.435733e-07	-9.787032e-09	-6.710646e+00	-6.452666e+02
7.500000e-07	-8.325095e-07	-9.219811e-09	-5.920766e+00	-6.082683e+02
7.600000e-07	-7.211704e-07	-8.631850e-09	-5.128928e+00	-5.694676e+02
7.700000e-07	-6.095761e-07	-8.016695e-09	-4.335275e+00	-5.289384e+02
7.800000e-07	-4.977548e-07	-7.372964e-09	-3.540007e+00	-4.868184e+02
7.900000e-07	-3.857470e-07	-6.707541e-09	-2.743414e+00	-4.433109e+02
8.000000e-07	-2.736328e-07	-6.027096e-09	-1.946063e+00	-3.986778e+02
8.100000e-07	-1.614574e-07	-5.335050e-09	-1.148277e+00	-3.532207e+02
8.200000e-07	-4.914557e-08	-4.637653e-09	-3.495209e-01	-3.072530e+02
8.300000e-07	6.323525e-08	-3.939559e-09	4.497259e-01	-2.610645e+02
8.400000e-07	1.755391e-07	-3.241320e-09	1.248425e+00	-2.148845e+02
8.500000e-07	2.877083e-07	-2.542836e-09	2.046167e+00	-1.688501e+02
8.600000e-07	3.997869e-07	-1.842898e-09	2.843264e+00	-1.229855e+02
8.700000e-07	5.118102e-07	-1.142482e-09	3.639969e+00	-7.719767e+01
8.800000e-07	6.236988e-07	-4.417528e-10	4.435715e+00	-3.129090e+01
8.900000e-07	7.354206e-07	2.623675e-10	5.230275e+00	1.500028e+01
9.000000e-07	8.469158e-07	9.766207e-10	6.023223e+00	6.196453e+01
9.100000e-07	9.581660e-07	1.705128e-09	6.814429e+00	1.098600e+02
9.200000e-07	1.069166e-06	2.447696e-09	7.603856e+00	1.588622e+02
9.300000e-07	1.179814e-06	3.207972e-09	8.390775e+00	2.090221e+02
9.400000e-07	1.290016e-06	3.988251e-09	9.174530e+00	2.602414e+02
9.500000e-07	1.399783e-06	4.783480e-09	9.955184e+00	3.122690e+02
9.600000e-07	1.509125e-06	5.585275e-09	1.073282e+01	3.647191e+02
9.700000e-07	1.617981e-06	6.386540e-09	1.150700e+01	4.171080e+02
9.800000e-07	1.726279e-06	7.179035e-09	1.227721e+01	4.689026e+02
9.900000e-07	1.833999e-06	7.951587e-09	1.304331e+01	5.195734e+02
1.000000e-06	1.941164e-06	8.694473e-09	1.380546e+01	5.686433e+02
1.010000e-06	2.047613e-06	9.404694e-09	1.456252e+01	6.157258e+02
1.020000e-06	2.153011e-06	1.008255e-08	1.531210e+01	6.605473e+02
1.030000e-06	2.257339e-06	1.072433e-08	1.605408e+01	7.029533e+02
1.040000e-06	2.360849e-06	1.132966e-08	1.679024e+01	7.428992e+02
1.050000e-06	2.463553e-06	1.190051e-08	1.752067e+01	7.804298e+02
1.060000e-06	2.565378e-06	1.243758e-08	1.824484e+01	8.156527e+02
1.070000e-06	2.666349e-06	1.293899e-08	1.896294e+01	8.487115e+02
1.080000e-06	2.766488e-06	1.340751e-08	1.967513e+01	8.797622e+02
1.090000e-06	2.865783e-06	1.384945e-08	2.038131e+01	9.089563e+02
1.100000e-06	2.963989e-06	1.426645e-08	2.107974e+01	9.364315e+02
1.110000e-06	3.060838e-06	1.465973e-08	2.176853e+01	9.623087e+02
1.120000e-06	3.156443e-06	1.503259e-08	2.244846e+01	9.866941e+02
1.130000e-06	3.250968e-06	1.538511e-08	2.312073e+01	1.009684e+03
1.140000e-06	3.344436e-06	1.571586e-08	2.378546e+01	1.031367e+03
1.150000e-06	3.436878e-06	1.602632e-08	2.444291e+01	1.051832e+03
1.160000e-06	3.528336e-06	1.631943e-08	2.509335e+01	1.071163e+03
1.170000e-06	3.618517e-06	1.659768e-08	2.573472e+01	1.089442e+03
1.180000e-06	3.707139e-06	1.686039e-08	2.636499e+01	1.106746e+03
1.190000e-06	3.794418e-06	1.710932e-08	2.698571e+01	1.123147e+03
1.200000e-06	3.880476e-06	1.734594e-08	2.759775e+01	1.138706e+03
1.210000e-06	3.965269e-06	1.756975e-08	2.820080e+01	1.153479e+03
1.220000e-06	4.048826e-06	1.778245e-08	2.879505e+01	1.167514e+03
1.230000e-06	4.130984e-06	1.798499e-08	2.937935e+01	1.180853e+03
1.240000e-06	4.211555e-06	1.817767e-08	2.995237e+01	1.193533e+03
1.250000e-06	4.290505e-06	1.836229e-08	3.051386e+01	1.205591e+03
1.260000e-06	4.367892e-06	1.853726e-08	3.106423e+01	1.217058e+03
1.270000e-06	4.443701e-06	1.870266e-08	3.160338e+01	1.227964e+03
1.280000e-06	4.517726e-06	1.885968e-08	3.212984e+01	1.238332e+03
1.290000e-06	4.589888e-06	1.901020e-08	3.264305e+01	1.248183e+03
1.300000e-06	4.660317e-06	1.915403e-08	3.314394e+01	1.257531e+03
1.310000e-06	4.729130e-06	1.929040e-08	3.363333e+01	1.266388e+03
1.320000e-06	4.796361e-06	1.942050e-08	3.411148e+01	1.274762e+03
1.330000e-06	4.861784e-06	1.954247e-08	3.457677e+01	1.282665e+03
1.340000e-06	4.925337e-06	1.965542e-08	3.502875e+01	1.290110e+03
1.350000e-06	4.987212e-06	1.976058e-08	3.546880e+01	1.297119e+03
1.360000e-06	5.047475e-06	1.985867e-08	3.589739e+01	1.303719e+03
1.370000e-06	5.105998e-06	1.995194e-08	3.631361e+01	1.309940e+03
1.380000e-06	5.162572e-06	2.004226e-08	3.671595e+01	1.315819e+03
1.390000e-06	5.217270e-06	2.012745e-08	3.710497e+01	1.321390e+03
1.400000e-06	5.270037e-06	2.020744e-08	3.748024e+01	1.326684e+03
1.410000e-06	5.320569e-06	2.028483e-08	3.783962e+01	1.331725e+03
1.420000e-06	5.368897e-06	2.035963e-08	3.818333e+01	1.336527e+03
1.430000e-06	5.415278e-06	2.043003e-08	3.851318e+01	1.341097e+03
1.440000e-06	5.459924e-06	2.049477e-08	3.883071e+01	1.345434e+03
1.450000e-06	5.502791e-06	2.055609e-08	3.913558e+01	1.349531e+03
1.460000e-06	5.543563e-06	2.061569e-08	3.942555e+01	1.353379e+03
1.470000e-06	5.582263e-06	2.067131e-08	3.970078e+01	1.356970e+03
1.480000e-06	5.619144e-06	2.072155e-08	3.996307e+01	1.360301e+03
1.490000e-06	5.654142e-06	2.076678e-08	4.021198e+01	1.363371e+03
1.500000e-06	5.687009e-06	2.080880e-08	4.044572e+01	1.366185e+03
1.510000e-06	5.717824e-06	2.084828e-08	4.066488e+01	1.368753e+03
1.520000e-06	5.746817e-06	2.088516e-08	4.087108e+01	1.371087e+03
1.530000e-06	5.773854e-06	2.091825e-08	4.106336e+01	1.373200e+03
1.540000e-06	5.798607e-06	2.094616e-08	4.123941e+01	1.375105e+03
1.550000e-06	5.821154e-06	2.097039e-08	4.139976e+01	1.376814e+03
1.560000e-06	5.841791e-06	2.099279e-08	4.154653e+01	1.378333e+03
1.570000e-06	5.860483e-06	2.101347e-08	4.167946e+01	1.379670e+03
1.580000e-06	5.877024e-06	2.103121e-08	4.179711e+01	1.380828e+03
1.590000e-06	5.891325e-06	2.104599e-08	4.189881e+01	1.381810e+03
1.600000e-06	5.903404e-06	2.105849e-08	4.198472e+01	1.382616e+03
1.610000e-06	5.913098e-06	2.106784e-08	4.205366e+01	1.383248e+03
1.620000e-06	5.920452e-06	2.107493e-08	4.210596e+01	1.383709e+03
1.630000e-06	5.925787e-06	2.108059e-08	4.214390e+01	1.384002e+03
1.640000e-06	5.929159e-06	2.108440e-08	4.216788e+01	1.384132e+03
1.650000e-06	5.930342e-06	2.108694e-08	4.217630e+01	1.384103e+03
1.660000e-06	5.929385e-06	2.108404e-08	4.216949e+01	1.383922e+03
1.670000e-06	5.926617e-06	2.107359e-08	4.214981e+01	1.383592e+03
1.680000e-06	5.921980e-06	2.106564e-08	4.211683e+01	1.383117e+03
1.690000e-06	5.915211e-06	2.105758e-08	4.206869e+01	1.382499e+03
1.700000e-06	5.906460e-06	2.104729e-08	4.200645e+01	1.381737e+03
1.710000e-06	5.895968e-06	2.103735e-08	4.193183e+01	1.380828e+03
1.720000e-06	5.883495e-06	2.102948e-08	4.184313e+01	1.379769e+03
1.730000e-06	5.868858e-06	2.101784e-08	4.173903e+01	1.378558e+03
1.740000e-06	5.852239e-06	2.094420e-08	4.162083e+01	1.377194e+03
1.750000e-06	5.833407e-06	2.087963e-08	4.148690e+01	1.375680e+03
1.760000e-06	5.811744e-06	2.090419e-08	4.133283e+01	1.374021e+03
1.770000e-06	5.787339e-06	2.089033e-08	4.115927e+01	1.372225e+03
1.780000e-06	5.760959e-06	2.090086e-08	4.097165e+01	1.370303e+03
1.790000e-06	5.733439e-06	2.093787e-08	4.077593e+01	1.368262e+03
1.800000e-06	5.704964e-06	2.077109e-08	4.057342e+01	1.366107e+03
1.810000e-06	5.674502e-06	2.073672e-08	4.035678e+01	1.363838e+03
1.820000e-06	5.641641e-06	2.078320e-08	4.012307e+01	1.361448e+03
1.830000e-06	5.607035e-06	2.064796e-08	3.987695e+01	1.358922e+03
1.840000e-06	5.570485e-06	2.070685e-08	3.961702e+01	1.356240e+03
1.850000e-06	5.531705e-06	2.066117e-08	3.934121e+01	1.353382e+03
1.860000e-06	5.490969e-06	2.049045e-08	3.905150e+01	1.350325e+03
1.870000e-06	5.448367e-06	2.054218e-08	3.874852e+01	1.347054e+03
1.880000e-06	5.404118e-06	2.046664e-08	3.843382e+01	1.343560e+03
1.890000e-06	5.357921e-06	2.041995e-08	3.810527e+01	1.339843e+03
1.900000e-06	5.309335e-06	2.039593e-08	3.775973e+01	1.335909e+03
1.910000e-06	5.258637e-06	2.024738e-08	3.739917e+01	1.331768e+03
1.920000e-06	5.205725e-06	2.024612e-08	3.702286e+01	1.327433e+03
1.930000e-06	5.150683e-06	2.016044e-08	3.663140e+01	1.322913e+03
1.940000e-06	5.093839e-06	2.009998e-08	3.622713e+01	1.318211e+03
1.950000e-06	5.035185e-06	2.007256e-08	3.580999e+01	1.313322e+03
1.960000e-06	4.974772e-06	1.994016e-08	3.538033e+01	1.308234e+03
1.970000e-06	4.912411e-06	1.988187e-08	3.493682e+01	1.302930e+03
1.980000e-06	4.848097e-06	1.974417e-08	3.447943e+01	1.297387e+03
1.990000e-06	4.782073e-06	1.967047e-08	3.400987e+01	1.291589e+03
2.000000e-06	4.714498e-06	1.962834e-08	3.352928e+01	1.285518e+03
2.010000e-06	4.645172e-06	1.951625e-08	3.303623e+01	1.279166e+03
2.020000e-06	4.573865e-06	1.943073e-08	3.252910e+01	1.272530e+03
2.030000e-06	4.500885e-06	1.926990e-08	3.201007e+01	1.265610e+03
2.040000e-06	4.426367e-06	1.917185e-08	3.148010e+01	1.258408e+03
2.050000e-06	4.350155e-06	1.907577e-08	3.093809e+01	1.250925e+03
2.060000e-06	4.272142e-06	1.896412e-08	3.038326e+01	1.243159e+03
2.070000e-06	4.192495e-06	1.886909e-08	2.981681e+01	1.235101e+03
2.080000e-06	4.111439e-06	1.872287e-08	2.924035e+01	1.226737e+03
2.090000e-06	4.028968e-06	1.858966e-08	2.865382e+01	1.218053e+03
2.100000e-06	3.945224e-06	1.842944e-08	2.805824e+01	1.209029e+03
2.110000e-06	3.860103e-06	1.829487e-08	2.745286e+01	1.199649e+03
2.120000e-06	3.773370e-06	1.816029e-08	2.683602e+01	1.189898e+03
2.130000e-06	3.685262e-06	1.800987e-08	2.620940e+01	1.179761e+03
2.140000e-06	3.595941e-06	1.785759e-08	2.557415e+01	1.169225e+03
2.150000e-06	3.505413e-06	1.768195e-08	2.493032e+01	1.158275e+03
2.160000e-06	3.413803e-06	1.751075e-08	2.427880e+01	1.146893e+03
2.170000e-06	3.321036e-06	1.732798e-08	2.361904e+01	1.135052e+03
2.180000e-06	3.226841e-06	1.714767e-08	2.294913e+01	1.122723e+03
2.190000e-06	3.131291e-06	1.695234e-08	2.226958e+01	1.109866e+03
2.200000e-06	3.034669e-06	1.674912e-08	2.158241e+01	1.096444e+03
2.210000e-06	2.937009e-06	1.653716e-08	2.088787e+01	1.082416e+03
2.220000e-06	2.838333e-06	1.631436e-08	2.018609e+01	1.067744e+03
2.230000e-06	2.738794e-06	1.608360e-08	1.947816e+01	1.052393e+03
2.240000e-06	2.638319e-06	1.583913e-08	1.876360e+01	1.036333e+03
2.250000e-06	2.536688e-06	1.558956e-08	1.804080e+01	1.019535e+03
2.260000e-06	2.433923e-06	1.532460e-08	1.730994e+01	1.001965e+03
2.270000e-06	2.330195e-06	1.504384e-08	1.657223e+01	9.835850e+02
2.280000e-06	2.225642e-06	1.474732e-08	1.582866e+01	9.643472e+02
2.290000e-06	2.120327e-06	1.444095e-08	1.507966e+01	9.441911e+02
2.300000e-06	2.014263e-06	1.411969e-08	1.432534e+01	9.230444e+02
2.310000e-06	1.907531e-06	1.378452e-08	1.356627e+01	9.008243e+02
2.320000e-06	1.800269e-06	1.343610e-08	1.280342e+01	8.774407e+02
2.330000e-06	1.692584e-06	1.306680e-08	1.203758e+01	8.527994e+02
2.340000e-06	1.584395e-06	1.267094e-08	1.126814e+01	8.268048e+02
2.350000e-06	1.475642e-06	1.224666e-08	1.049470e+01	7.993628e+02
2.360000e-06	1.366385e-06	1.180159e-08	9.717663e+00	7.703820e+02
2.370000e-06	1.256642e-06	1.133899e-08	8.937177e+00	7.397754e+02
2.380000e-06	1.146481e-06	1.085467e-08	8.153717e+00	7.074644e+02
2.390000e-06	1.035964e-06	1.033873e-08	7.367723e+00	6.733839e+02
2.400000e-06	9.251694e-07	9.787773e-09	6.579759e+00	6.374915e+02
2.410000e-06	8.140847e-07	9.205856e-09	5.789730e+00	5.997792e+02
2.420000e-06	7.026760e-07	8.599749e-09	4.997397e+00	5.602863e+02
2.430000e-06	5.909592e-07	7.972845e-09	4.202872e+00	5.191112e+02
2.440000e-06	4.789618e-07	7.325804e-09	3.406352e+00	4.764175e+02
2.450000e-06	3.668272e-07	6.658591e-09	2.608857e+00	4.324330e+02
2.460000e-06	2.545078e-07	5.971074e-09	1.810047e+00	3.874379e+02
2.470000e-06	1.419927e-07	5.268225e-09	1.009845e+00	3.417425e+02
2.480000e-06	2.946402e-08	4.558357e-09	2.095467e-01	2.956552e+02
2.490000e-06	-8.310081e-08	3.848618e-09	-5.910088e-01	2.494463e+02
2.500000e-06	-1.956791e-07	3.143764e-09	-1.391660e+00	2.033122e+02
2.510000e-06	-3.080917e-07	2.443719e-09	-2.191133e+00	1.573474e+02
2.520000e-06	-4.203838e-07	1.745843e-09	-2.989748e+00	1.115294e+02
2.530000e-06	-5.325634e-07	1.045193e-09	-3.787564e+00	6.572207e+01
2.540000e-06	-6.445154e-07	3.391792e-10	-4.583762e+00	1.969751e+01
2.550000e-06	-7.561188e-07	-3.743564e-10	-5.377480e+00	-2.682500e+01
2.560000e-06	-8.673068e-07	-1.098965e-09	-6.168243e+00	-7.412863e+01
2.570000e-06	-9.781425e-07	-1.835968e-09	-6.956501e+00	-1.224449e+02
2.580000e-06	-1.088588e-06	-2.589696e-09	-7.741985e+00	-1.719046e+02
2.590000e-06	-1.198645e-06	-3.360334e-09	-8.524702e+00	-2.225019e+02
2.600000e-06	-1.308317e-06	-4.146749e-09	-9.304686e+00	-2.740777e+02
2.610000e-06	-1.417545e-06	-4.945282e-09	-1.008151e+01	-3.263245e+02
2.620000e-06	-1.526221e-06	-5.746468e-09	-1.085441e+01	-3.788131e+02
2.630000e-06	-1.634345e-06	-6.541927e-09	-1.162338e+01	-4.310339e+02
2.640000e-06	-1.742007e-06	-7.325540e-09	-1.238907e+01	-4.824491e+02
2.650000e-06	-1.849157e-06	-8.092023e-09	-1.315111e+01	-5.325444e+02
2.660000e-06	-1.955692e-06	-8.833340e-09	-1.390878e+01	-5.808746e+02
2.670000e-06	-2.061526e-06	-9.544544e-09	-1.466147e+01	-6.270956e+02
2.680000e-06	-2.166550e-06	-1.022031e-08	-1.540840e+01	-6.709811e+02
2.690000e-06	-2.270733e-06	-1.085502e-08	-1.614934e+01	-7.124213e+02
2.700000e-06	-2.374105e-06	-1.145018e-08	-1.688452e+01	-7.514098e+02
2.710000e-06	-2.476569e-06	-1.201214e-08	-1.761324e+01	-7.880192e+02
2.720000e-06	-2.577903e-06	-1.254164e-08	-1.833392e+01	-8.223745e+02
2.730000e-06	-2.678155e-06	-1.303674e-08	-1.904690e+01	-8.546266e+02
2.740000e-06	-2.777555e-06	-1.350168e-08	-1.975383e+01	-8.849314e+02
2.750000e-06	-2.876058e-06	-1.393806e-08	-2.045438e+01	-9.134356e+02
2.760000e-06	-2.973574e-06	-1.434817e-08	-2.114791e+01	-9.402703e+02
2.770000e-06	-3.070108e-06	-1.473625e-08	-2.183445e+01	-9.655503e+02
2.780000e-06	-3.165740e-06	-1.510196e-08	-2.251458e+01	-9.893773e+02
2.790000e-06	-3.260311e-06	-1.544594e-08	-2.318717e+01	-1.011844e+03
2.800000e-06	-3.353519e-06	-1.576986e-08	-2.385006e+01	-1.033040e+03
2.810000e-06	-3.445426e-06	-1.607559e-08	-2.450370e+01	-1.053050e+03
2.820000e-06	-3.536142e-06	-1.636436e-08	-2.514886e+01	-1.071958e+03
2.830000e-06	-3.625599e-06	-1.663502e-08	-2.578508e+01	-1.089846e+03
2.840000e-06	-3.713857e-06	-1.689195e-08	-2.641277e+01	-1.106788e+03
2.850000e-06	-3.800899e-06	-1.713818e-08	-2.703180e+01	-1.122852e+03
2.860000e-06	-3.886358e-06	-1.737413e-08	-2.763959e+01	-1.138098e+03
2.870000e-06	-3.970319e-06	-1.759988e-08	-2.823671e+01	-1.152576e+03
2.880000e-06	-4.053051e-06	-1.781448e-08	-2.882510e+01	-1.166334e+03
2.890000e-06	-4.134428e-06	-1.801707e-08	-2.940385e+01	-1.179410e+03
2.900000e-06	-4.214351e-06	-1.820615e-08	-2.997226e+01	-1.191843e+03
2.910000e-06	-4.292570e-06	-1.838361e-08	-3.052854e+01	-1.203666e+03
2.920000e-06	-4.368975e-06	-1.855244e-08	-3.107193e+01	-1.214910e+03
2.930000e-06	-4.443772e-06	-1.871467e-08	-3.160388e+01	-1.225603e+03
2.940000e-06	-4.516986e-06	-1.887063e-08	-3.212458e+01	-1.235767e+03
