# Temperatura_=_88.97
# Concentracion g/m^3_=_28200.0
# C_Vs_to_Am_M_A/Vsm_=_65563218390.804596
# pendiente_HvsI_1/m_=_3716.3
# ordenada_HvsI_A/m_=_1297.0
# frecuencia_Hz_=_301918.7224681619

Tiempo_(s)	Campo_(V.s)	Magnetizacion_(V.s)	Campo_(kA/m)	Magnetizacion_(A/m)
0.000000e+00	-5.871428e-06	-2.640588e-08	-4.195066e+01	-1.730370e+03
1.000000e-08	-5.869480e-06	-2.640061e-08	-4.193674e+01	-1.729961e+03
2.000000e-08	-5.865493e-06	-2.639205e-08	-4.190826e+01	-1.729372e+03
3.000000e-08	-5.859675e-06	-2.637989e-08	-4.186669e+01	-1.728604e+03
4.000000e-08	-5.852108e-06	-2.636601e-08	-4.181262e+01	-1.727652e+03
5.000000e-08	-5.842572e-06	-2.634703e-08	-4.174449e+01	-1.726506e+03
6.000000e-08	-5.830847e-06	-2.632257e-08	-4.166071e+01	-1.725154e+03
7.000000e-08	-5.816974e-06	-2.629427e-08	-4.156159e+01	-1.723584e+03
8.000000e-08	-5.800859e-06	-2.627225e-08	-4.144645e+01	-1.721791e+03
9.000000e-08	-5.782575e-06	-2.628210e-08	-4.131582e+01	-1.719780e+03
1.000000e-07	-5.762229e-06	-2.627310e-08	-4.117045e+01	-1.717564e+03
1.100000e-07	-5.739710e-06	-2.620809e-08	-4.100955e+01	-1.715166e+03
1.200000e-07	-5.714990e-06	-2.615014e-08	-4.083293e+01	-1.712615e+03
1.300000e-07	-5.688210e-06	-2.608265e-08	-4.064159e+01	-1.709934e+03
1.400000e-07	-5.659846e-06	-2.598191e-08	-4.043893e+01	-1.707142e+03
1.500000e-07	-5.630070e-06	-2.598713e-08	-4.022619e+01	-1.704238e+03
1.600000e-07	-5.598570e-06	-2.598220e-08	-4.000112e+01	-1.701205e+03
1.700000e-07	-5.565199e-06	-2.589381e-08	-3.976269e+01	-1.698011e+03
1.800000e-07	-5.529904e-06	-2.588898e-08	-3.951051e+01	-1.694610e+03
1.900000e-07	-5.492644e-06	-2.582269e-08	-3.924429e+01	-1.690954e+03
2.000000e-07	-5.453507e-06	-2.571164e-08	-3.896466e+01	-1.687002e+03
2.100000e-07	-5.412420e-06	-2.568284e-08	-3.867110e+01	-1.682728e+03
2.200000e-07	-5.369244e-06	-2.560362e-08	-3.836261e+01	-1.678123e+03
2.300000e-07	-5.324050e-06	-2.550488e-08	-3.803971e+01	-1.673198e+03
2.400000e-07	-5.276839e-06	-2.543738e-08	-3.770240e+01	-1.667980e+03
2.500000e-07	-5.227342e-06	-2.535177e-08	-3.734875e+01	-1.662503e+03
2.600000e-07	-5.175492e-06	-2.528075e-08	-3.697828e+01	-1.656796e+03
2.700000e-07	-5.121559e-06	-2.518406e-08	-3.659294e+01	-1.650876e+03
2.800000e-07	-5.065787e-06	-2.506886e-08	-3.619445e+01	-1.644746e+03
2.900000e-07	-5.008096e-06	-2.496695e-08	-3.578226e+01	-1.638388e+03
3.000000e-07	-4.948454e-06	-2.486766e-08	-3.535612e+01	-1.631772e+03
3.100000e-07	-4.887050e-06	-2.477223e-08	-3.491739e+01	-1.624859e+03
3.200000e-07	-4.823900e-06	-2.466946e-08	-3.446620e+01	-1.617617e+03
3.300000e-07	-4.758983e-06	-2.455903e-08	-3.400237e+01	-1.610021e+03
3.400000e-07	-4.692253e-06	-2.442196e-08	-3.352560e+01	-1.602063e+03
3.500000e-07	-4.623763e-06	-2.428019e-08	-3.303624e+01	-1.593750e+03
3.600000e-07	-4.553628e-06	-2.415260e-08	-3.253513e+01	-1.585098e+03
3.700000e-07	-4.482007e-06	-2.402753e-08	-3.202341e+01	-1.576127e+03
3.800000e-07	-4.408747e-06	-2.390374e-08	-3.149998e+01	-1.566853e+03
3.900000e-07	-4.333607e-06	-2.375507e-08	-3.096311e+01	-1.557275e+03
4.000000e-07	-4.256691e-06	-2.358620e-08	-3.041355e+01	-1.547381e+03
4.100000e-07	-4.177999e-06	-2.342108e-08	-2.985131e+01	-1.537143e+03
4.200000e-07	-4.097594e-06	-2.325795e-08	-2.927682e+01	-1.526524e+03
4.300000e-07	-4.015806e-06	-2.309262e-08	-2.869246e+01	-1.515486e+03
4.400000e-07	-3.932801e-06	-2.291777e-08	-2.809940e+01	-1.504000e+03
4.500000e-07	-3.848596e-06	-2.273841e-08	-2.749777e+01	-1.492048e+03
4.600000e-07	-3.763226e-06	-2.254775e-08	-2.688780e+01	-1.479626e+03
4.700000e-07	-3.676650e-06	-2.234859e-08	-2.626923e+01	-1.466740e+03
4.800000e-07	-3.588873e-06	-2.214725e-08	-2.564208e+01	-1.453396e+03
4.900000e-07	-3.499790e-06	-2.193605e-08	-2.500558e+01	-1.439598e+03
5.000000e-07	-3.409244e-06	-2.171656e-08	-2.435865e+01	-1.425331e+03
5.100000e-07	-3.317348e-06	-2.148592e-08	-2.370206e+01	-1.410564e+03
5.200000e-07	-3.224286e-06	-2.124789e-08	-2.303714e+01	-1.395248e+03
5.300000e-07	-3.130135e-06	-2.100166e-08	-2.236445e+01	-1.379323e+03
5.400000e-07	-3.034942e-06	-2.074700e-08	-2.168430e+01	-1.362725e+03
5.500000e-07	-2.938648e-06	-2.048442e-08	-2.099630e+01	-1.345399e+03
5.600000e-07	-2.841102e-06	-2.020940e-08	-2.029934e+01	-1.327300e+03
5.700000e-07	-2.742302e-06	-1.992157e-08	-1.959342e+01	-1.308405e+03
5.800000e-07	-2.642466e-06	-1.962155e-08	-1.888011e+01	-1.288699e+03
5.900000e-07	-2.541707e-06	-1.930982e-08	-1.816020e+01	-1.268174e+03
6.000000e-07	-2.440025e-06	-1.897921e-08	-1.743369e+01	-1.246815e+03
6.100000e-07	-2.337519e-06	-1.863265e-08	-1.670130e+01	-1.224585e+03
6.200000e-07	-2.234229e-06	-1.827540e-08	-1.596330e+01	-1.201424e+03
6.300000e-07	-2.130103e-06	-1.790610e-08	-1.521933e+01	-1.177241e+03
6.400000e-07	-2.025080e-06	-1.752276e-08	-1.446896e+01	-1.151921e+03
6.500000e-07	-1.919187e-06	-1.711875e-08	-1.371236e+01	-1.125336e+03
6.600000e-07	-1.812539e-06	-1.668915e-08	-1.295037e+01	-1.097353e+03
6.700000e-07	-1.705199e-06	-1.623357e-08	-1.218344e+01	-1.067844e+03
6.800000e-07	-1.597303e-06	-1.575538e-08	-1.141254e+01	-1.036699e+03
6.900000e-07	-1.488956e-06	-1.525520e-08	-1.063842e+01	-1.003814e+03
7.000000e-07	-1.380149e-06	-1.472857e-08	-9.861004e+00	-9.690934e+02
7.100000e-07	-1.270902e-06	-1.417165e-08	-9.080446e+00	-9.324390e+02
7.200000e-07	-1.161215e-06	-1.358127e-08	-8.296747e+00	-8.937396e+02
7.300000e-07	-1.051098e-06	-1.295538e-08	-7.509970e+00	-8.528711e+02
7.400000e-07	-9.406866e-07	-1.229583e-08	-6.721095e+00	-8.097043e+02
7.500000e-07	-8.300483e-07	-1.160317e-08	-5.930598e+00	-7.641221e+02
7.600000e-07	-7.191334e-07	-1.087150e-08	-5.138123e+00	-7.160467e+02
7.700000e-07	-6.079981e-07	-1.009672e-08	-4.344075e+00	-6.654686e+02
7.800000e-07	-4.966723e-07	-9.282769e-09	-3.548665e+00	-6.124711e+02
7.900000e-07	-3.851218e-07	-8.436763e-09	-2.751650e+00	-5.572440e+02
8.000000e-07	-2.734420e-07	-7.562942e-09	-1.953711e+00	-5.000770e+02
8.100000e-07	-1.616968e-07	-6.669231e-09	-1.155305e+00	-4.413344e+02
8.200000e-07	-4.982399e-08	-5.762135e-09	-3.559865e-01	-3.814105e+02
8.300000e-07	6.218635e-08	-4.841496e-09	4.443141e-01	-3.206735e+02
8.400000e-07	1.742069e-07	-3.910633e-09	1.244688e+00	-2.594090e+02
8.500000e-07	2.860730e-07	-2.970037e-09	2.043958e+00	-1.977747e+02
8.600000e-07	3.977927e-07	-2.019608e-09	2.842182e+00	-1.357766e+02
8.700000e-07	5.094742e-07	-1.061231e-09	3.640133e+00	-7.327523e+01
8.800000e-07	6.210592e-07	-9.414562e-11	4.437395e+00	-1.002187e+01
8.900000e-07	7.323790e-07	8.845215e-10	5.232762e+00	5.427915e+01
9.000000e-07	8.434273e-07	1.879864e-09	6.026189e+00	1.198929e+02
9.100000e-07	9.542302e-07	2.897359e-09	6.817863e+00	1.869752e+02
9.200000e-07	1.064759e-06	3.937981e-09	7.607576e+00	2.555075e+02
9.300000e-07	1.174947e-06	4.999286e-09	8.394858e+00	3.252588e+02
9.400000e-07	1.284719e-06	6.075116e-09	9.179163e+00	3.957808e+02
9.500000e-07	1.394045e-06	7.153173e-09	9.960290e+00	4.664393e+02
9.600000e-07	1.502908e-06	8.220365e-09	1.073810e+01	5.364753e+02
9.700000e-07	1.611339e-06	9.264099e-09	1.151283e+01	6.050847e+02
9.800000e-07	1.719268e-06	1.027302e-08	1.228397e+01	6.715035e+02
9.900000e-07	1.826518e-06	1.123665e-08	1.305025e+01	7.350838e+02
1.000000e-06	1.932975e-06	1.214663e-08	1.381088e+01	7.953480e+02
1.010000e-06	2.038623e-06	1.300117e-08	1.456572e+01	8.520158e+02
1.020000e-06	2.143406e-06	1.380109e-08	1.531438e+01	9.050011e+02
1.030000e-06	2.247298e-06	1.454848e-08	1.605668e+01	9.543843e+02
1.040000e-06	2.350398e-06	1.524729e-08	1.679332e+01	1.000367e+03
1.050000e-06	2.452674e-06	1.590084e-08	1.752406e+01	1.043222e+03
1.060000e-06	2.554041e-06	1.651092e-08	1.824832e+01	1.083242e+03
1.070000e-06	2.654603e-06	1.707860e-08	1.896683e+01	1.120706e+03
1.080000e-06	2.754327e-06	1.760826e-08	1.967934e+01	1.155854e+03
1.090000e-06	2.853013e-06	1.810589e-08	2.038444e+01	1.188881e+03
1.100000e-06	2.950578e-06	1.857582e-08	2.108153e+01	1.219943e+03
1.110000e-06	3.046946e-06	1.902073e-08	2.177007e+01	1.249170e+03
1.120000e-06	3.142157e-06	1.944090e-08	2.245034e+01	1.276677e+03
1.130000e-06	3.236314e-06	1.983625e-08	2.312308e+01	1.302579e+03
1.140000e-06	3.329430e-06	2.020820e-08	2.378838e+01	1.326994e+03
1.150000e-06	3.421564e-06	2.055955e-08	2.444667e+01	1.350047e+03
1.160000e-06	3.512574e-06	2.089275e-08	2.509693e+01	1.371856e+03
1.170000e-06	3.602218e-06	2.120971e-08	2.573743e+01	1.392536e+03
1.180000e-06	3.690457e-06	2.151021e-08	2.636788e+01	1.412182e+03
1.190000e-06	3.777388e-06	2.179376e-08	2.698899e+01	1.430872e+03
1.200000e-06	3.863048e-06	2.206063e-08	2.760102e+01	1.448665e+03
1.210000e-06	3.947501e-06	2.231343e-08	2.820443e+01	1.465604e+03
1.220000e-06	4.030744e-06	2.255582e-08	2.879919e+01	1.481724e+03
1.230000e-06	4.112475e-06	2.278973e-08	2.938315e+01	1.497058e+03
1.240000e-06	4.192577e-06	2.301334e-08	2.995547e+01	1.511641e+03
1.250000e-06	4.271124e-06	2.322478e-08	3.051668e+01	1.525514e+03
1.260000e-06	4.348121e-06	2.342565e-08	3.106681e+01	1.538724e+03
1.270000e-06	4.423487e-06	2.361652e-08	3.160529e+01	1.551318e+03
1.280000e-06	4.497094e-06	2.379778e-08	3.213121e+01	1.563340e+03
1.290000e-06	4.568953e-06	2.397156e-08	3.264463e+01	1.574829e+03
1.300000e-06	4.639089e-06	2.413869e-08	3.314574e+01	1.585808e+03
1.310000e-06	4.707571e-06	2.430043e-08	3.363504e+01	1.596294e+03
1.320000e-06	4.774431e-06	2.445646e-08	3.411274e+01	1.606291e+03
1.330000e-06	4.839483e-06	2.460409e-08	3.457753e+01	1.615800e+03
1.340000e-06	4.902689e-06	2.474295e-08	3.502913e+01	1.624816e+03
1.350000e-06	4.964191e-06	2.487351e-08	3.546856e+01	1.633343e+03
1.360000e-06	5.024143e-06	2.499770e-08	3.589691e+01	1.641387e+03
1.370000e-06	5.082402e-06	2.511499e-08	3.631316e+01	1.648965e+03
1.380000e-06	5.138727e-06	2.522423e-08	3.671560e+01	1.656101e+03
1.390000e-06	5.193143e-06	2.532579e-08	3.710440e+01	1.662826e+03
1.400000e-06	5.245598e-06	2.542179e-08	3.747918e+01	1.669175e+03
1.410000e-06	5.295847e-06	2.551382e-08	3.783820e+01	1.675181e+03
1.420000e-06	5.343908e-06	2.560182e-08	3.818159e+01	1.680878e+03
1.430000e-06	5.390071e-06	2.568535e-08	3.851142e+01	1.686290e+03
1.440000e-06	5.434488e-06	2.576398e-08	3.882877e+01	1.691437e+03
1.450000e-06	5.477022e-06	2.583857e-08	3.913268e+01	1.696329e+03
1.460000e-06	5.517520e-06	2.590868e-08	3.942203e+01	1.700969e+03
1.470000e-06	5.556089e-06	2.597491e-08	3.969760e+01	1.705354e+03
1.480000e-06	5.592887e-06	2.603763e-08	3.996052e+01	1.709475e+03
1.490000e-06	5.627827e-06	2.609629e-08	4.021016e+01	1.713322e+03
1.500000e-06	5.660678e-06	2.615218e-08	4.044487e+01	1.716884e+03
1.510000e-06	5.691421e-06	2.620584e-08	4.066453e+01	1.720155e+03
1.520000e-06	5.720255e-06	2.625547e-08	4.087055e+01	1.723131e+03
1.530000e-06	5.747164e-06	2.629821e-08	4.106281e+01	1.725815e+03
1.540000e-06	5.771859e-06	2.633335e-08	4.123925e+01	1.728214e+03
1.550000e-06	5.794326e-06	2.636391e-08	4.139977e+01	1.730342e+03
1.560000e-06	5.814838e-06	2.639195e-08	4.154633e+01	1.732210e+03
1.570000e-06	5.833418e-06	2.641721e-08	4.167908e+01	1.733834e+03
1.580000e-06	5.849840e-06	2.643895e-08	4.179642e+01	1.735225e+03
1.590000e-06	5.864103e-06	2.645768e-08	4.189833e+01	1.736390e+03
1.600000e-06	5.876144e-06	2.647462e-08	4.198436e+01	1.737335e+03
1.610000e-06	5.885783e-06	2.648793e-08	4.205323e+01	1.738062e+03
1.620000e-06	5.893171e-06	2.649666e-08	4.210601e+01	1.738573e+03
1.630000e-06	5.898529e-06	2.650140e-08	4.214429e+01	1.738872e+03
1.640000e-06	5.901850e-06	2.650392e-08	4.216803e+01	1.738964e+03
1.650000e-06	5.903008e-06	2.650570e-08	4.217630e+01	1.738856e+03
1.660000e-06	5.902067e-06	2.650178e-08	4.216958e+01	1.738558e+03
1.670000e-06	5.899266e-06	2.649233e-08	4.214956e+01	1.738076e+03
1.680000e-06	5.894641e-06	2.648349e-08	4.211651e+01	1.737416e+03
1.690000e-06	5.888005e-06	2.647318e-08	4.206910e+01	1.736575e+03
1.700000e-06	5.879375e-06	2.645859e-08	4.200744e+01	1.735546e+03
1.710000e-06	5.868909e-06	2.644273e-08	4.193266e+01	1.734320e+03
1.720000e-06	5.856434e-06	2.642856e-08	4.184353e+01	1.732882e+03
1.730000e-06	5.841803e-06	2.640304e-08	4.173899e+01	1.731223e+03
1.740000e-06	5.825214e-06	2.632773e-08	4.162047e+01	1.729342e+03
1.750000e-06	5.806468e-06	2.626577e-08	4.148653e+01	1.727247e+03
1.760000e-06	5.784933e-06	2.626152e-08	4.133267e+01	1.724955e+03
1.770000e-06	5.760644e-06	2.624001e-08	4.115912e+01	1.722492e+03
1.780000e-06	5.734380e-06	2.625603e-08	4.097147e+01	1.719886e+03
1.790000e-06	5.706922e-06	2.624087e-08	4.077529e+01	1.717159e+03
1.800000e-06	5.678462e-06	2.610577e-08	4.057194e+01	1.714322e+03
1.810000e-06	5.648070e-06	2.607102e-08	4.035479e+01	1.711369e+03
1.820000e-06	5.615335e-06	2.605178e-08	4.012090e+01	1.708276e+03
1.830000e-06	5.580879e-06	2.597175e-08	3.987472e+01	1.705005e+03
1.840000e-06	5.544485e-06	2.599107e-08	3.961469e+01	1.701508e+03
1.850000e-06	5.505881e-06	2.590929e-08	3.933887e+01	1.697739e+03
1.860000e-06	5.465332e-06	2.579008e-08	3.904915e+01	1.693661e+03
1.870000e-06	5.422898e-06	2.577740e-08	3.874597e+01	1.689255e+03
1.880000e-06	5.378783e-06	2.568593e-08	3.843077e+01	1.684520e+03
1.890000e-06	5.332830e-06	2.561108e-08	3.810244e+01	1.679476e+03
1.900000e-06	5.284637e-06	2.552502e-08	3.775811e+01	1.674151e+03
1.910000e-06	5.234279e-06	2.541347e-08	3.739831e+01	1.668578e+03
1.920000e-06	5.181713e-06	2.539062e-08	3.702273e+01	1.662785e+03
1.930000e-06	5.127006e-06	2.529747e-08	3.663185e+01	1.656782e+03
1.940000e-06	5.070416e-06	2.519869e-08	3.622752e+01	1.650564e+03
1.950000e-06	5.012041e-06	2.510500e-08	3.581044e+01	1.644108e+03
1.960000e-06	4.951917e-06	2.497571e-08	3.538086e+01	1.637378e+03
1.970000e-06	4.889856e-06	2.486923e-08	3.493744e+01	1.630338e+03
1.980000e-06	4.825883e-06	2.472967e-08	3.448037e+01	1.622958e+03
1.990000e-06	4.760177e-06	2.464483e-08	3.401090e+01	1.615218e+03
2.000000e-06	4.692834e-06	2.455362e-08	3.352975e+01	1.607117e+03
2.010000e-06	4.623809e-06	2.440353e-08	3.303657e+01	1.598667e+03
2.020000e-06	4.552860e-06	2.425658e-08	3.252965e+01	1.589887e+03
2.030000e-06	4.480188e-06	2.409432e-08	3.201041e+01	1.580794e+03
2.040000e-06	4.406015e-06	2.397166e-08	3.148046e+01	1.571400e+03
2.050000e-06	4.330236e-06	2.383748e-08	3.093903e+01	1.561699e+03
2.060000e-06	4.252693e-06	2.368936e-08	3.038499e+01	1.551673e+03
2.070000e-06	4.173433e-06	2.354121e-08	2.981869e+01	1.541288e+03
2.080000e-06	4.092720e-06	2.336068e-08	2.924200e+01	1.530507e+03
2.090000e-06	4.010614e-06	2.318138e-08	2.865536e+01	1.519295e+03
2.100000e-06	3.927194e-06	2.299726e-08	2.805934e+01	1.507625e+03
2.110000e-06	3.842426e-06	2.282331e-08	2.745368e+01	1.495487e+03
2.120000e-06	3.756166e-06	2.264053e-08	2.683736e+01	1.482880e+03
2.130000e-06	3.668512e-06	2.244405e-08	2.621108e+01	1.469812e+03
2.140000e-06	3.579632e-06	2.224136e-08	2.557605e+01	1.456289e+03
2.150000e-06	3.489564e-06	2.202319e-08	2.493252e+01	1.442307e+03
2.160000e-06	3.398335e-06	2.180295e-08	2.428071e+01	1.427847e+03
2.170000e-06	3.305935e-06	2.157675e-08	2.362051e+01	1.412870e+03
2.180000e-06	3.212219e-06	2.134208e-08	2.295093e+01	1.397321e+03
2.190000e-06	3.117220e-06	2.109419e-08	2.227217e+01	1.381138e+03
2.200000e-06	3.021055e-06	2.083794e-08	2.158508e+01	1.364259e+03
2.210000e-06	2.923815e-06	2.057106e-08	2.089032e+01	1.346631e+03
2.220000e-06	2.825543e-06	2.029041e-08	2.018817e+01	1.328221e+03
2.230000e-06	2.726326e-06	1.999740e-08	1.947927e+01	1.309006e+03
2.240000e-06	2.626267e-06	1.969543e-08	1.876436e+01	1.288979e+03
2.250000e-06	2.525225e-06	1.938623e-08	1.804243e+01	1.268127e+03
2.260000e-06	2.423111e-06	1.905569e-08	1.731284e+01	1.246430e+03
2.270000e-06	2.319953e-06	1.870697e-08	1.657579e+01	1.223842e+03
2.280000e-06	2.215864e-06	1.834438e-08	1.583209e+01	1.200290e+03
2.290000e-06	2.110966e-06	1.797066e-08	1.508260e+01	1.175674e+03
2.300000e-06	2.005328e-06	1.758069e-08	1.432783e+01	1.149872e+03
2.310000e-06	1.899068e-06	1.717160e-08	1.356862e+01	1.122752e+03
2.320000e-06	1.792264e-06	1.674310e-08	1.280552e+01	1.094182e+03
2.330000e-06	1.684923e-06	1.628617e-08	1.203858e+01	1.064042e+03
2.340000e-06	1.577059e-06	1.579653e-08	1.126790e+01	1.032223e+03
2.350000e-06	1.468726e-06	1.527685e-08	1.049388e+01	9.986269e+02
2.360000e-06	1.359970e-06	1.473575e-08	9.716822e+00	9.631578e+02
2.370000e-06	1.250798e-06	1.416970e-08	8.936807e+00	9.257125e+02
2.380000e-06	1.141296e-06	1.357088e-08	8.154424e+00	8.861749e+02
2.390000e-06	1.031512e-06	1.293387e-08	7.370034e+00	8.444174e+02
2.400000e-06	9.213476e-07	1.225713e-08	6.582920e+00	8.003127e+02
2.410000e-06	8.107674e-07	1.154343e-08	5.792838e+00	7.537558e+02
2.420000e-06	6.998623e-07	1.079529e-08	5.000434e+00	7.046922e+02
2.430000e-06	5.886941e-07	1.001316e-08	4.206150e+00	6.531464e+02
2.440000e-06	4.772833e-07	9.196914e-09	3.410133e+00	5.992431e+02
2.450000e-06	3.656861e-07	8.346353e-09	2.612784e+00	5.432130e+02
2.460000e-06	2.539636e-07	7.462953e-09	1.814540e+00	4.853793e+02
2.470000e-06	1.421391e-07	6.554170e-09	1.015567e+00	4.261244e+02
2.480000e-06	3.022513e-08	5.630147e-09	2.159550e-01	3.658391e+02
2.490000e-06	-8.173088e-08	4.698154e-09	-5.839575e-01	3.048657e+02
2.500000e-06	-1.936475e-07	3.760983e-09	-1.383589e+00	2.434438e+02
2.510000e-06	-3.054261e-07	2.819207e-09	-2.182233e+00	1.816730e+02
2.520000e-06	-4.171098e-07	1.871484e-09	-2.980201e+00	1.194996e+02
2.530000e-06	-5.286833e-07	9.136232e-10	-3.777380e+00	5.673522e+01
2.540000e-06	-6.400120e-07	-5.888412e-11	-4.572810e+00	-6.895767e+00
2.550000e-06	-7.510762e-07	-1.049069e-09	-5.366351e+00	-7.168669e+01
2.560000e-06	-8.618241e-07	-2.059651e-09	-6.157631e+00	-1.378686e+02
2.570000e-06	-9.721417e-07	-3.089913e-09	-6.945838e+00	-2.055354e+02
2.580000e-06	-1.081974e-06	-4.141608e-09	-7.730579e+00	-2.745879e+02
2.590000e-06	-1.191458e-06	-5.213526e-09	-8.512830e+00	-3.447082e+02
2.600000e-06	-1.300693e-06	-6.297207e-09	-9.293296e+00	-4.153694e+02
2.610000e-06	-1.409523e-06	-7.380996e-09	-1.007088e+01	-4.858797e+02
2.620000e-06	-1.517855e-06	-8.449005e-09	-1.084489e+01	-5.554522e+02
2.630000e-06	-1.625641e-06	-9.488184e-09	-1.161501e+01	-6.232886e+02
2.640000e-06	-1.732867e-06	-1.048701e-08	-1.238113e+01	-6.886625e+02
2.650000e-06	-1.839539e-06	-1.143917e-08	-1.314329e+01	-7.509878e+02
2.660000e-06	-1.945577e-06	-1.234198e-08	-1.390092e+01	-8.098628e+02
2.670000e-06	-2.050868e-06	-1.319197e-08	-1.465321e+01	-8.650855e+02
2.680000e-06	-2.155415e-06	-1.398513e-08	-1.540019e+01	-9.166397e+02
2.690000e-06	-2.259202e-06	-1.472177e-08	-1.614173e+01	-9.646595e+02
2.700000e-06	-2.362037e-06	-1.540766e-08	-1.687648e+01	-1.009380e+03
2.710000e-06	-2.463848e-06	-1.604943e-08	-1.760391e+01	-1.051088e+03
2.720000e-06	-2.564715e-06	-1.665053e-08	-1.832458e+01	-1.090074e+03
2.730000e-06	-2.664656e-06	-1.721378e-08	-1.903865e+01	-1.126603e+03
2.740000e-06	-2.763692e-06	-1.774199e-08	-1.974626e+01	-1.160898e+03
2.750000e-06	-2.861770e-06	-1.823425e-08	-2.044701e+01	-1.193138e+03
2.760000e-06	-2.958909e-06	-1.869415e-08	-2.114106e+01	-1.223466e+03
2.770000e-06	-3.055182e-06	-1.912753e-08	-2.182891e+01	-1.252005e+03
2.780000e-06	-3.150397e-06	-1.953832e-08	-2.250922e+01	-1.278869e+03
2.790000e-06	-3.244404e-06	-1.992835e-08	-2.318089e+01	-1.304174e+03
2.800000e-06	-3.337198e-06	-2.029684e-08	-2.384388e+01	-1.328041e+03
2.810000e-06	-3.428789e-06	-2.064293e-08	-2.449830e+01	-1.350592e+03
2.820000e-06	-3.519146e-06	-2.096734e-08	-2.514388e+01	-1.371947e+03
2.830000e-06	-3.608275e-06	-2.127427e-08	-2.578070e+01	-1.392211e+03
2.840000e-06	-3.696237e-06	-2.156899e-08	-2.640918e+01	-1.411475e+03
2.850000e-06	-3.782864e-06	-2.185156e-08	-2.702812e+01	-1.429808e+03
2.860000e-06	-3.868025e-06	-2.212006e-08	-2.763658e+01	-1.447263e+03
2.870000e-06	-3.951772e-06	-2.237409e-08	-2.823495e+01	-1.463877e+03
2.880000e-06	-4.034151e-06	-2.261488e-08	-2.882353e+01	-1.479686e+03
2.890000e-06	-4.115226e-06	-2.284454e-08	-2.940280e+01	-1.494721e+03
2.900000e-06	-4.194796e-06	-2.306338e-08	-2.997133e+01	-1.509022e+03
2.910000e-06	-4.272593e-06	-2.327433e-08	-3.052717e+01	-1.522630e+03
2.920000e-06	-4.348626e-06	-2.347785e-08	-3.107042e+01	-1.535594e+03
2.930000e-06	-4.422995e-06	-2.366998e-08	-3.160178e+01	-1.547960e+03
2.940000e-06	-4.495825e-06	-2.384971e-08	-3.212214e+01	-1.559770e+03
