# Temperatura_=_85.42
# Concentracion g/m^3_=_28200.0
# C_Vs_to_Am_M_A/Vsm_=_65563218390.804596
# pendiente_HvsI_1/m_=_3716.3
# ordenada_HvsI_A/m_=_1297.0
# frecuencia_Hz_=_301916.24688815715

Tiempo_(s)	Campo_(V.s)	Magnetizacion_(V.s)	Campo_(kA/m)	Magnetizacion_(A/m)
0.000000e+00	-5.867737e-06	-2.488190e-08	-4.195149e+01	-1.630511e+03
1.000000e-08	-5.865637e-06	-2.488069e-08	-4.193647e+01	-1.630138e+03
2.000000e-08	-5.861536e-06	-2.487390e-08	-4.190715e+01	-1.629592e+03
3.000000e-08	-5.855582e-06	-2.486175e-08	-4.186458e+01	-1.628869e+03
4.000000e-08	-5.847806e-06	-2.484568e-08	-4.180899e+01	-1.627961e+03
5.000000e-08	-5.838040e-06	-2.482554e-08	-4.173917e+01	-1.626859e+03
6.000000e-08	-5.826077e-06	-2.480219e-08	-4.165364e+01	-1.625556e+03
7.000000e-08	-5.811953e-06	-2.477367e-08	-4.155266e+01	-1.624046e+03
8.000000e-08	-5.795671e-06	-2.475642e-08	-4.143625e+01	-1.622330e+03
9.000000e-08	-5.777257e-06	-2.477192e-08	-4.130460e+01	-1.620415e+03
1.000000e-07	-5.756701e-06	-2.475167e-08	-4.115763e+01	-1.618315e+03
1.100000e-07	-5.733946e-06	-2.468795e-08	-4.099495e+01	-1.616049e+03
1.200000e-07	-5.708985e-06	-2.464249e-08	-4.081649e+01	-1.613640e+03
1.300000e-07	-5.682059e-06	-2.456877e-08	-4.062398e+01	-1.611106e+03
1.400000e-07	-5.653619e-06	-2.447997e-08	-4.042064e+01	-1.608457e+03
1.500000e-07	-5.623712e-06	-2.450549e-08	-4.020683e+01	-1.605692e+03
1.600000e-07	-5.592095e-06	-2.446420e-08	-3.998078e+01	-1.602798e+03
1.700000e-07	-5.558631e-06	-2.438689e-08	-3.974153e+01	-1.599747e+03
1.800000e-07	-5.523201e-06	-2.439902e-08	-3.948822e+01	-1.596503e+03
1.900000e-07	-5.485766e-06	-2.430759e-08	-3.922058e+01	-1.593028e+03
2.000000e-07	-5.446462e-06	-2.423942e-08	-3.893958e+01	-1.589286e+03
2.100000e-07	-5.405199e-06	-2.422159e-08	-3.864456e+01	-1.585254e+03
2.200000e-07	-5.361830e-06	-2.412286e-08	-3.833450e+01	-1.580921e+03
2.300000e-07	-5.316456e-06	-2.403742e-08	-3.801010e+01	-1.576292e+03
2.400000e-07	-5.269005e-06	-2.396145e-08	-3.767084e+01	-1.571386e+03
2.500000e-07	-5.219259e-06	-2.387980e-08	-3.731518e+01	-1.566228e+03
2.600000e-07	-5.167193e-06	-2.382976e-08	-3.694294e+01	-1.560840e+03
2.700000e-07	-5.113058e-06	-2.373321e-08	-3.655590e+01	-1.555239e+03
2.800000e-07	-5.057072e-06	-2.362189e-08	-3.615562e+01	-1.549428e+03
2.900000e-07	-4.999178e-06	-2.351911e-08	-3.574171e+01	-1.543397e+03
3.000000e-07	-4.939385e-06	-2.342541e-08	-3.531422e+01	-1.537123e+03
3.100000e-07	-4.877803e-06	-2.333643e-08	-3.487393e+01	-1.530577e+03
3.200000e-07	-4.814439e-06	-2.324615e-08	-3.442092e+01	-1.523729e+03
3.300000e-07	-4.749269e-06	-2.314933e-08	-3.395498e+01	-1.516557e+03
3.400000e-07	-4.682285e-06	-2.300826e-08	-3.347608e+01	-1.509050e+03
3.500000e-07	-4.613593e-06	-2.287384e-08	-3.298496e+01	-1.501206e+03
3.600000e-07	-4.543268e-06	-2.274999e-08	-3.248217e+01	-1.493035e+03
3.700000e-07	-4.471451e-06	-2.263246e-08	-3.196871e+01	-1.484549e+03
3.800000e-07	-4.398049e-06	-2.252254e-08	-3.144393e+01	-1.475759e+03
3.900000e-07	-4.322765e-06	-2.237896e-08	-3.090569e+01	-1.466666e+03
4.000000e-07	-4.245649e-06	-2.221630e-08	-3.035434e+01	-1.457259e+03
4.100000e-07	-4.166853e-06	-2.205754e-08	-2.979099e+01	-1.447519e+03
4.200000e-07	-4.086401e-06	-2.190360e-08	-2.921579e+01	-1.437417e+03
4.300000e-07	-4.004495e-06	-2.174617e-08	-2.863021e+01	-1.426924e+03
4.400000e-07	-3.921414e-06	-2.158050e-08	-2.803622e+01	-1.416018e+03
4.500000e-07	-3.837217e-06	-2.140983e-08	-2.743425e+01	-1.404681e+03
4.600000e-07	-3.751805e-06	-2.122646e-08	-2.682359e+01	-1.392911e+03
4.700000e-07	-3.665157e-06	-2.103912e-08	-2.620410e+01	-1.380710e+03
4.800000e-07	-3.577330e-06	-2.085028e-08	-2.557618e+01	-1.368082e+03
4.900000e-07	-3.488146e-06	-2.065240e-08	-2.493856e+01	-1.355028e+03
5.000000e-07	-3.397479e-06	-2.044551e-08	-2.429034e+01	-1.341534e+03
5.100000e-07	-3.305493e-06	-2.022796e-08	-2.363268e+01	-1.327571e+03
5.200000e-07	-3.212355e-06	-2.000247e-08	-2.296679e+01	-1.313093e+03
5.300000e-07	-3.118101e-06	-1.976770e-08	-2.229292e+01	-1.298043e+03
5.400000e-07	-3.022782e-06	-1.952452e-08	-2.161143e+01	-1.282361e+03
5.500000e-07	-2.926391e-06	-1.927393e-08	-2.092229e+01	-1.265990e+03
5.600000e-07	-2.828816e-06	-1.901284e-08	-2.022467e+01	-1.248884e+03
5.700000e-07	-2.730007e-06	-1.874260e-08	-1.951823e+01	-1.231014e+03
5.800000e-07	-2.630095e-06	-1.846231e-08	-1.880391e+01	-1.212360e+03
5.900000e-07	-2.529243e-06	-1.816901e-08	-1.808287e+01	-1.192910e+03
6.000000e-07	-2.427502e-06	-1.785483e-08	-1.735547e+01	-1.172647e+03
6.100000e-07	-2.324932e-06	-1.752296e-08	-1.662214e+01	-1.151541e+03
6.200000e-07	-2.221590e-06	-1.718175e-08	-1.588330e+01	-1.129539e+03
6.300000e-07	-2.117426e-06	-1.683071e-08	-1.513857e+01	-1.106565e+03
6.400000e-07	-2.012400e-06	-1.646649e-08	-1.438769e+01	-1.082520e+03
6.500000e-07	-1.906547e-06	-1.608247e-08	-1.363089e+01	-1.057290e+03
6.600000e-07	-1.799893e-06	-1.567550e-08	-1.286837e+01	-1.030755e+03
6.700000e-07	-1.692540e-06	-1.524474e-08	-1.210084e+01	-1.002797e+03
6.800000e-07	-1.584572e-06	-1.479342e-08	-1.132892e+01	-9.733080e+02
6.900000e-07	-1.476090e-06	-1.432150e-08	-1.055333e+01	-9.421854e+02
7.000000e-07	-1.367221e-06	-1.382406e-08	-9.774969e+00	-9.093326e+02
7.100000e-07	-1.257963e-06	-1.329554e-08	-8.993826e+00	-8.746497e+02
7.200000e-07	-1.148309e-06	-1.273400e-08	-8.209854e+00	-8.380289e+02
7.300000e-07	-1.038257e-06	-1.213937e-08	-7.423036e+00	-7.993534e+02
7.400000e-07	-9.278796e-07	-1.151365e-08	-6.633891e+00	-7.585053e+02
7.500000e-07	-8.172924e-07	-1.085887e-08	-5.843246e+00	-7.153821e+02
7.600000e-07	-7.065211e-07	-1.017013e-08	-5.051285e+00	-6.699202e+02
7.700000e-07	-5.955822e-07	-9.442672e-09	-4.258125e+00	-6.221215e+02
7.800000e-07	-4.844150e-07	-8.676166e-09	-3.463334e+00	-5.720752e+02
7.900000e-07	-3.730510e-07	-7.876766e-09	-2.667135e+00	-5.199685e+02
8.000000e-07	-2.616023e-07	-7.051958e-09	-1.870330e+00	-4.660813e+02
8.100000e-07	-1.500389e-07	-6.209160e-09	-1.072706e+00	-4.107609e+02
8.200000e-07	-3.829709e-08	-5.353676e-09	-2.738057e-01	-3.543808e+02
8.300000e-07	7.348461e-08	-4.487471e-09	5.253795e-01	-2.972882e+02
8.400000e-07	1.851886e-07	-3.612440e-09	1.324009e+00	-2.397507e+02
8.500000e-07	2.968879e-07	-2.731060e-09	2.122605e+00	-1.819140e+02
8.600000e-07	4.085171e-07	-1.842254e-09	2.920700e+00	-1.237795e+02
8.700000e-07	5.200464e-07	-9.457075e-10	3.718081e+00	-6.520987e+01
8.800000e-07	6.314456e-07	-4.250478e-11	4.514531e+00	-5.963831e+00
8.900000e-07	7.426147e-07	8.716203e-10	5.309337e+00	5.424513e+01
9.000000e-07	8.535712e-07	1.805769e-09	6.102622e+00	1.156748e+02
9.100000e-07	9.643399e-07	2.762034e-09	6.894565e+00	1.784795e+02
9.200000e-07	1.074851e-06	3.736845e-09	7.684669e+00	2.426479e+02
9.300000e-07	1.184982e-06	4.729100e-09	8.472052e+00	3.079666e+02
9.400000e-07	1.294628e-06	5.735085e-09	9.255968e+00	3.740161e+02
9.500000e-07	1.403815e-06	6.744537e-09	1.003660e+01	4.402009e+02
9.600000e-07	1.512648e-06	7.744226e-09	1.081470e+01	5.058081e+02
9.700000e-07	1.621048e-06	8.722610e-09	1.158971e+01	5.700840e+02
9.800000e-07	1.728823e-06	9.667708e-09	1.236025e+01	6.323157e+02
9.900000e-07	1.835846e-06	1.056901e-08	1.312541e+01	6.919019e+02
1.000000e-06	1.942128e-06	1.142182e-08	1.388528e+01	7.484043e+02
1.010000e-06	2.047722e-06	1.222365e-08	1.464022e+01	8.015709e+02
1.020000e-06	2.152484e-06	1.297519e-08	1.538922e+01	8.513307e+02
1.030000e-06	2.256301e-06	1.367928e-08	1.613147e+01	8.977652e+02
1.040000e-06	2.359257e-06	1.433867e-08	1.686755e+01	9.410640e+02
1.050000e-06	2.461373e-06	1.495611e-08	1.759763e+01	9.814755e+02
1.060000e-06	2.562629e-06	1.553342e-08	1.832156e+01	1.019262e+03
1.070000e-06	2.663104e-06	1.607155e-08	1.903991e+01	1.054668e+03
1.080000e-06	2.762667e-06	1.657266e-08	1.975174e+01	1.087898e+03
1.090000e-06	2.861148e-06	1.704285e-08	2.045583e+01	1.119122e+03
1.100000e-06	2.958520e-06	1.748615e-08	2.115199e+01	1.148474e+03
1.110000e-06	3.054697e-06	1.790627e-08	2.183961e+01	1.176072e+03
1.120000e-06	3.149702e-06	1.830272e-08	2.251885e+01	1.202030e+03
1.130000e-06	3.243651e-06	1.867484e-08	2.319054e+01	1.226466e+03
1.140000e-06	3.336644e-06	1.902553e-08	2.385539e+01	1.249506e+03
1.150000e-06	3.428634e-06	1.935783e-08	2.451308e+01	1.271277e+03
1.160000e-06	3.519370e-06	1.967472e-08	2.516180e+01	1.291901e+03
1.170000e-06	3.608743e-06	1.997623e-08	2.580077e+01	1.311486e+03
1.180000e-06	3.696732e-06	2.026072e-08	2.642985e+01	1.330116e+03
1.190000e-06	3.783413e-06	2.052943e-08	2.704958e+01	1.347852e+03
1.200000e-06	3.868930e-06	2.078303e-08	2.766098e+01	1.364736e+03
1.210000e-06	3.953286e-06	2.102328e-08	2.826409e+01	1.380793e+03
1.220000e-06	4.036345e-06	2.125358e-08	2.885792e+01	1.396049e+03
1.230000e-06	4.117920e-06	2.147492e-08	2.944114e+01	1.410531e+03
1.240000e-06	4.197854e-06	2.168692e-08	3.001263e+01	1.424278e+03
1.250000e-06	4.276187e-06	2.188721e-08	3.057268e+01	1.437340e+03
1.260000e-06	4.353052e-06	2.207736e-08	3.112222e+01	1.449774e+03
1.270000e-06	4.428258e-06	2.225895e-08	3.165991e+01	1.461637e+03
1.280000e-06	4.501623e-06	2.243054e-08	3.218443e+01	1.472980e+03
1.290000e-06	4.573239e-06	2.259449e-08	3.269645e+01	1.483840e+03
1.300000e-06	4.643208e-06	2.275250e-08	3.319670e+01	1.494236e+03
1.310000e-06	4.711545e-06	2.290479e-08	3.368527e+01	1.504170e+03
1.320000e-06	4.778167e-06	2.305108e-08	3.416159e+01	1.513635e+03
1.330000e-06	4.842985e-06	2.319001e-08	3.462501e+01	1.522617e+03
1.340000e-06	4.906018e-06	2.332088e-08	3.507566e+01	1.531108e+03
1.350000e-06	4.967389e-06	2.344297e-08	3.551444e+01	1.539108e+03
1.360000e-06	5.027141e-06	2.355802e-08	3.594163e+01	1.546631e+03
1.370000e-06	5.085065e-06	2.366793e-08	3.635576e+01	1.553706e+03
1.380000e-06	5.141044e-06	2.377061e-08	3.675598e+01	1.560371e+03
1.390000e-06	5.195175e-06	2.386479e-08	3.714299e+01	1.566668e+03
1.400000e-06	5.247380e-06	2.395381e-08	3.751624e+01	1.572638e+03
1.410000e-06	5.297388e-06	2.404077e-08	3.787377e+01	1.578318e+03
1.420000e-06	5.345245e-06	2.412521e-08	3.821592e+01	1.583730e+03
1.430000e-06	5.391246e-06	2.420539e-08	3.854481e+01	1.588889e+03
1.440000e-06	5.435470e-06	2.428124e-08	3.886099e+01	1.593798e+03
1.450000e-06	5.477801e-06	2.435381e-08	3.916363e+01	1.598455e+03
1.460000e-06	5.518097e-06	2.442266e-08	3.945173e+01	1.602852e+03
1.470000e-06	5.556446e-06	2.448677e-08	3.972591e+01	1.606985e+03
1.480000e-06	5.593046e-06	2.454625e-08	3.998758e+01	1.610849e+03
1.490000e-06	5.627686e-06	2.460155e-08	4.023524e+01	1.614442e+03
1.500000e-06	5.660161e-06	2.465158e-08	4.046742e+01	1.617767e+03
1.510000e-06	5.690679e-06	2.469730e-08	4.068561e+01	1.620828e+03
1.520000e-06	5.719367e-06	2.474092e-08	4.089072e+01	1.623629e+03
1.530000e-06	5.745982e-06	2.478187e-08	4.108100e+01	1.626173e+03
1.540000e-06	5.770339e-06	2.481732e-08	4.125514e+01	1.628466e+03
1.550000e-06	5.792619e-06	2.484691e-08	4.141443e+01	1.630508e+03
1.560000e-06	5.813000e-06	2.487337e-08	4.156014e+01	1.632305e+03
1.570000e-06	5.831385e-06	2.489770e-08	4.169159e+01	1.633860e+03
1.580000e-06	5.847602e-06	2.491866e-08	4.180753e+01	1.635179e+03
1.590000e-06	5.861638e-06	2.493508e-08	4.190789e+01	1.636268e+03
1.600000e-06	5.873413e-06	2.494866e-08	4.199207e+01	1.637137e+03
1.610000e-06	5.882813e-06	2.496046e-08	4.205927e+01	1.637794e+03
1.620000e-06	5.889993e-06	2.496998e-08	4.211061e+01	1.638250e+03
1.630000e-06	5.895150e-06	2.497536e-08	4.214748e+01	1.638513e+03
1.640000e-06	5.898246e-06	2.497779e-08	4.216961e+01	1.638593e+03
1.650000e-06	5.899181e-06	2.497944e-08	4.217630e+01	1.638496e+03
1.660000e-06	5.898072e-06	2.497477e-08	4.216837e+01	1.638226e+03
1.670000e-06	5.895099e-06	2.496527e-08	4.214711e+01	1.637785e+03
1.680000e-06	5.890223e-06	2.495511e-08	4.211225e+01	1.637169e+03
1.690000e-06	5.883350e-06	2.494512e-08	4.206311e+01	1.636372e+03
1.700000e-06	5.874573e-06	2.493291e-08	4.200036e+01	1.635388e+03
1.710000e-06	5.863908e-06	2.491836e-08	4.192411e+01	1.634207e+03
1.720000e-06	5.851164e-06	2.490758e-08	4.183300e+01	1.632821e+03
1.730000e-06	5.836346e-06	2.487806e-08	4.172706e+01	1.631229e+03
1.740000e-06	5.819621e-06	2.479592e-08	4.160748e+01	1.629432e+03
1.750000e-06	5.800704e-06	2.475330e-08	4.147224e+01	1.627441e+03
1.760000e-06	5.778961e-06	2.475166e-08	4.131678e+01	1.625272e+03
1.770000e-06	5.754493e-06	2.472540e-08	4.114185e+01	1.622946e+03
1.780000e-06	5.728119e-06	2.475583e-08	4.095329e+01	1.620485e+03
1.790000e-06	5.700630e-06	2.470853e-08	4.075675e+01	1.617903e+03
1.800000e-06	5.672066e-06	2.458812e-08	4.055254e+01	1.615208e+03
1.810000e-06	5.641443e-06	2.458600e-08	4.033359e+01	1.612394e+03
1.820000e-06	5.608559e-06	2.452535e-08	4.009849e+01	1.609441e+03
1.830000e-06	5.573988e-06	2.447933e-08	3.985133e+01	1.606318e+03
1.840000e-06	5.537465e-06	2.450194e-08	3.959020e+01	1.602986e+03
1.850000e-06	5.498732e-06	2.436914e-08	3.931328e+01	1.599409e+03
1.860000e-06	5.457992e-06	2.430297e-08	3.902201e+01	1.595554e+03
1.870000e-06	5.415392e-06	2.428608e-08	3.871744e+01	1.591402e+03
1.880000e-06	5.371151e-06	2.418877e-08	3.840114e+01	1.586950e+03
1.890000e-06	5.324950e-06	2.414910e-08	3.807083e+01	1.582209e+03
1.900000e-06	5.276477e-06	2.402444e-08	3.772426e+01	1.577199e+03
1.910000e-06	5.225938e-06	2.393914e-08	3.736294e+01	1.571947e+03
1.920000e-06	5.173206e-06	2.392660e-08	3.698593e+01	1.566473e+03
1.930000e-06	5.118360e-06	2.381760e-08	3.659381e+01	1.560788e+03
1.940000e-06	5.061646e-06	2.375153e-08	3.618833e+01	1.554892e+03
1.950000e-06	5.003112e-06	2.364848e-08	3.576984e+01	1.548767e+03
1.960000e-06	4.942822e-06	2.353579e-08	3.533879e+01	1.542389e+03
1.970000e-06	4.880606e-06	2.342135e-08	3.489398e+01	1.535726e+03
1.980000e-06	4.816470e-06	2.328111e-08	3.443544e+01	1.528752e+03
1.990000e-06	4.750601e-06	2.322588e-08	3.396450e+01	1.521447e+03
2.000000e-06	4.683169e-06	2.312336e-08	3.348240e+01	1.513806e+03
2.010000e-06	4.614057e-06	2.299495e-08	3.298828e+01	1.505831e+03
2.020000e-06	4.543055e-06	2.284590e-08	3.248065e+01	1.497534e+03
2.030000e-06	4.470365e-06	2.268998e-08	3.196095e+01	1.488926e+03
2.040000e-06	4.396074e-06	2.258454e-08	3.142981e+01	1.480016e+03
2.050000e-06	4.320076e-06	2.244452e-08	3.088646e+01	1.470800e+03
2.060000e-06	4.242332e-06	2.231816e-08	3.033063e+01	1.461264e+03
2.070000e-06	4.162974e-06	2.217248e-08	2.976326e+01	1.451384e+03
2.080000e-06	4.082140e-06	2.200294e-08	2.918533e+01	1.441131e+03
2.090000e-06	3.999915e-06	2.183052e-08	2.859746e+01	1.430477e+03
2.100000e-06	3.916428e-06	2.165250e-08	2.800057e+01	1.419401e+03
2.110000e-06	3.831580e-06	2.149067e-08	2.739395e+01	1.407893e+03
2.120000e-06	3.745232e-06	2.130734e-08	2.677660e+01	1.395952e+03
2.130000e-06	3.657491e-06	2.112439e-08	2.614930e+01	1.383581e+03
2.140000e-06	3.568484e-06	2.093073e-08	2.551294e+01	1.370786e+03
2.150000e-06	3.478289e-06	2.072827e-08	2.486809e+01	1.357560e+03
2.160000e-06	3.386988e-06	2.052039e-08	2.421533e+01	1.343884e+03
2.170000e-06	3.294517e-06	2.030631e-08	2.355420e+01	1.329724e+03
2.180000e-06	3.200675e-06	2.008452e-08	2.288328e+01	1.315027e+03
2.190000e-06	3.105516e-06	1.984657e-08	2.220294e+01	1.299735e+03
2.200000e-06	3.009252e-06	1.960553e-08	2.151470e+01	1.283787e+03
2.210000e-06	2.911956e-06	1.935407e-08	2.081908e+01	1.267131e+03
2.220000e-06	2.813697e-06	1.908988e-08	2.011657e+01	1.249726e+03
2.230000e-06	2.714540e-06	1.880970e-08	1.940765e+01	1.231549e+03
2.240000e-06	2.614458e-06	1.852511e-08	1.869212e+01	1.212582e+03
2.250000e-06	2.513377e-06	1.823387e-08	1.796943e+01	1.192814e+03
2.260000e-06	2.411246e-06	1.792346e-08	1.723924e+01	1.172223e+03
2.270000e-06	2.308063e-06	1.759357e-08	1.650154e+01	1.150771e+03
2.280000e-06	2.203910e-06	1.724814e-08	1.575689e+01	1.128397e+03
2.290000e-06	2.098964e-06	1.689013e-08	1.500658e+01	1.105013e+03
2.300000e-06	1.993350e-06	1.651529e-08	1.425149e+01	1.080516e+03
2.310000e-06	1.887110e-06	1.612708e-08	1.349192e+01	1.054786e+03
2.320000e-06	1.780332e-06	1.572230e-08	1.272852e+01	1.027705e+03
2.330000e-06	1.673030e-06	1.529238e-08	1.196135e+01	9.991568e+02
2.340000e-06	1.565197e-06	1.482989e-08	1.119041e+01	9.690362e+02
2.350000e-06	1.456880e-06	1.433996e-08	1.041599e+01	9.372442e+02
2.360000e-06	1.348137e-06	1.382850e-08	9.638528e+00	9.036834e+02
2.370000e-06	1.239021e-06	1.329217e-08	8.858405e+00	8.682514e+02
2.380000e-06	1.129543e-06	1.272464e-08	8.075684e+00	8.308363e+02
2.390000e-06	1.019760e-06	1.212126e-08	7.290790e+00	7.913197e+02
2.400000e-06	9.096156e-07	1.147974e-08	6.503313e+00	7.495872e+02
2.410000e-06	7.990597e-07	1.080132e-08	5.712891e+00	7.055484e+02
2.420000e-06	6.881432e-07	1.009290e-08	4.919892e+00	6.591626e+02
2.430000e-06	5.769293e-07	9.355383e-09	4.124766e+00	6.104636e+02
2.440000e-06	4.654920e-07	8.588255e-09	3.328043e+00	5.595788e+02
2.450000e-06	3.539302e-07	7.787978e-09	2.530430e+00	5.067335e+02
2.460000e-06	2.422419e-07	6.954800e-09	1.731913e+00	4.522380e+02
2.470000e-06	1.303610e-07	6.097685e-09	9.320180e-01	3.964557e+02
2.480000e-06	1.842109e-08	5.226947e-09	1.317019e-01	3.397563e+02
2.490000e-06	-9.352821e-08	4.349857e-09	-6.686815e-01	2.824617e+02
2.500000e-06	-2.054474e-07	3.468889e-09	-1.468850e+00	2.247958e+02
2.510000e-06	-3.172235e-07	2.586518e-09	-2.267995e+00	1.668488e+02
2.520000e-06	-4.288884e-07	1.698806e-09	-3.066345e+00	1.085653e+02
2.530000e-06	-5.403982e-07	8.008270e-10	-3.863586e+00	4.976146e+01
2.540000e-06	-6.516463e-07	-1.101933e-10	-4.658957e+00	-9.829846e+00
2.550000e-06	-7.625895e-07	-1.037549e-09	-5.452147e+00	-7.049306e+01
2.560000e-06	-8.731226e-07	-1.982545e-09	-6.242405e+00	-1.324538e+02
2.570000e-06	-9.832679e-07	-2.946586e-09	-7.029891e+00	-1.958076e+02
2.580000e-06	-1.093048e-06	-3.933099e-09	-7.814764e+00	-2.604663e+02
2.590000e-06	-1.202434e-06	-4.939295e-09	-8.596823e+00	-3.261342e+02
2.600000e-06	-1.311476e-06	-5.955333e-09	-9.376422e+00	-3.923172e+02
2.610000e-06	-1.420149e-06	-6.969796e-09	-1.015338e+01	-4.583654e+02
2.620000e-06	-1.528328e-06	-7.969622e-09	-1.092681e+01	-5.235403e+02
2.630000e-06	-1.635886e-06	-8.941880e-09	-1.169580e+01	-5.870946e+02
2.640000e-06	-1.742899e-06	-9.875882e-09	-1.246089e+01	-6.483518e+02
2.650000e-06	-1.849451e-06	-1.076842e-08	-1.322268e+01	-7.067699e+02
2.660000e-06	-1.955394e-06	-1.161639e-08	-1.398012e+01	-7.619828e+02
2.670000e-06	-2.060600e-06	-1.241471e-08	-1.473229e+01	-8.138114e+02
2.680000e-06	-2.165078e-06	-1.315985e-08	-1.547926e+01	-8.622493e+02
2.690000e-06	-2.268743e-06	-1.385208e-08	-1.622042e+01	-9.074263e+02
2.700000e-06	-2.371419e-06	-1.449772e-08	-1.695450e+01	-9.495608e+02
2.710000e-06	-2.473104e-06	-1.510305e-08	-1.768150e+01	-9.889116e+02
2.720000e-06	-2.573845e-06	-1.567043e-08	-1.840175e+01	-1.025737e+03
2.730000e-06	-2.673574e-06	-1.620062e-08	-1.911477e+01	-1.060267e+03
2.740000e-06	-2.772370e-06	-1.669623e-08	-1.982110e+01	-1.092692e+03
2.750000e-06	-2.870280e-06	-1.716051e-08	-2.052112e+01	-1.123167e+03
2.760000e-06	-2.967244e-06	-1.759482e-08	-2.121437e+01	-1.151818e+03
2.770000e-06	-3.063235e-06	-1.800446e-08	-2.190065e+01	-1.178759e+03
2.780000e-06	-3.158154e-06	-1.839454e-08	-2.257927e+01	-1.204106e+03
2.790000e-06	-3.251989e-06	-1.876429e-08	-2.325016e+01	-1.227980e+03
2.800000e-06	-3.344636e-06	-1.911150e-08	-2.391253e+01	-1.250507e+03
2.810000e-06	-3.435996e-06	-1.943756e-08	-2.456571e+01	-1.271815e+03
2.820000e-06	-3.526135e-06	-1.974599e-08	-2.521016e+01	-1.292020e+03
2.830000e-06	-3.615101e-06	-2.003824e-08	-2.584623e+01	-1.311222e+03
2.840000e-06	-3.702875e-06	-2.031607e-08	-2.647377e+01	-1.329496e+03
2.850000e-06	-3.789273e-06	-2.058054e-08	-2.709147e+01	-1.346895e+03
2.860000e-06	-3.874230e-06	-2.083293e-08	-2.769887e+01	-1.363453e+03
2.870000e-06	-3.957765e-06	-2.107457e-08	-2.829611e+01	-1.379194e+03
2.880000e-06	-4.039921e-06	-2.130508e-08	-2.888349e+01	-1.394143e+03
2.890000e-06	-4.120752e-06	-2.152399e-08	-2.946139e+01	-1.408332e+03
2.900000e-06	-4.200067e-06	-2.173159e-08	-3.002845e+01	-1.421805e+03
2.910000e-06	-4.277653e-06	-2.192880e-08	-3.058315e+01	-1.434614e+03
2.920000e-06	-4.353502e-06	-2.211640e-08	-3.112544e+01	-1.446818e+03
2.930000e-06	-4.427654e-06	-2.229357e-08	-3.165559e+01	-1.458473e+03
2.940000e-06	-4.500198e-06	-2.246118e-08	-3.217424e+01	-1.469625e+03
