# Temperatura_=_31.64
# Concentracion g/m^3_=_28200.0
# C_Vs_to_Am_M_A/Vsm_=_65563218390.804596
# pendiente_HvsI_1/m_=_3716.3
# ordenada_HvsI_A/m_=_1297.0
# frecuencia_Hz_=_301920.1480762649

Tiempo_(s)	Campo_(V.s)	Magnetizacion_(V.s)	Campo_(kA/m)	Magnetizacion_(A/m)
0.000000e+00	-5.877558e-06	-2.097486e-08	-4.194779e+01	-1.373730e+03
1.000000e-08	-5.875469e-06	-2.097662e-08	-4.193288e+01	-1.373425e+03
2.000000e-08	-5.871324e-06	-2.096860e-08	-4.190330e+01	-1.372984e+03
3.000000e-08	-5.865382e-06	-2.095693e-08	-4.186089e+01	-1.372411e+03
4.000000e-08	-5.857739e-06	-2.094615e-08	-4.180634e+01	-1.371703e+03
5.000000e-08	-5.848085e-06	-2.093063e-08	-4.173744e+01	-1.370857e+03
6.000000e-08	-5.836164e-06	-2.091218e-08	-4.165236e+01	-1.369861e+03
7.000000e-08	-5.822083e-06	-2.088155e-08	-4.155187e+01	-1.368709e+03
8.000000e-08	-5.805767e-06	-2.085133e-08	-4.143542e+01	-1.367393e+03
9.000000e-08	-5.787340e-06	-2.090719e-08	-4.130391e+01	-1.365913e+03
1.000000e-07	-5.766875e-06	-2.092117e-08	-4.115785e+01	-1.364276e+03
1.100000e-07	-5.744254e-06	-2.082289e-08	-4.099641e+01	-1.362495e+03
1.200000e-07	-5.719402e-06	-2.078457e-08	-4.081904e+01	-1.360587e+03
1.300000e-07	-5.692475e-06	-2.074334e-08	-4.062687e+01	-1.358569e+03
1.400000e-07	-5.663979e-06	-2.057045e-08	-4.042349e+01	-1.356456e+03
1.500000e-07	-5.634046e-06	-2.066469e-08	-4.020986e+01	-1.354252e+03
1.600000e-07	-5.602423e-06	-2.073134e-08	-3.998417e+01	-1.351950e+03
1.700000e-07	-5.568922e-06	-2.051923e-08	-3.974508e+01	-1.349531e+03
1.800000e-07	-5.533500e-06	-2.064153e-08	-3.949227e+01	-1.346968e+03
1.900000e-07	-5.496079e-06	-2.058147e-08	-3.922520e+01	-1.344230e+03
2.000000e-07	-5.456833e-06	-2.038597e-08	-3.894510e+01	-1.341285e+03
2.100000e-07	-5.415689e-06	-2.048228e-08	-3.865146e+01	-1.338110e+03
2.200000e-07	-5.372343e-06	-2.037207e-08	-3.834210e+01	-1.334694e+03
2.300000e-07	-5.326969e-06	-2.026762e-08	-3.801827e+01	-1.331038e+03
2.400000e-07	-5.279510e-06	-2.026321e-08	-3.767956e+01	-1.327157e+03
2.500000e-07	-5.229696e-06	-2.017165e-08	-3.732404e+01	-1.323071e+03
2.600000e-07	-5.177538e-06	-2.015398e-08	-3.695179e+01	-1.318804e+03
2.700000e-07	-5.123301e-06	-2.007433e-08	-3.656470e+01	-1.314374e+03
2.800000e-07	-5.067345e-06	-1.998302e-08	-3.616534e+01	-1.309788e+03
2.900000e-07	-5.009520e-06	-1.990115e-08	-3.575265e+01	-1.305041e+03
3.000000e-07	-4.949679e-06	-1.981389e-08	-3.532557e+01	-1.300115e+03
3.100000e-07	-4.888089e-06	-1.976721e-08	-3.488601e+01	-1.294981e+03
3.200000e-07	-4.824816e-06	-1.968403e-08	-3.443443e+01	-1.289610e+03
3.300000e-07	-4.759716e-06	-1.961518e-08	-3.396982e+01	-1.283973e+03
3.400000e-07	-4.692731e-06	-1.949348e-08	-3.349175e+01	-1.278050e+03
3.500000e-07	-4.624003e-06	-1.937275e-08	-3.300124e+01	-1.271831e+03
3.600000e-07	-4.553642e-06	-1.929042e-08	-3.249908e+01	-1.265318e+03
3.700000e-07	-4.481855e-06	-1.918273e-08	-3.198674e+01	-1.258521e+03
3.800000e-07	-4.408433e-06	-1.910860e-08	-3.146273e+01	-1.251451e+03
3.900000e-07	-4.333051e-06	-1.899542e-08	-3.092473e+01	-1.244117e+03
4.000000e-07	-4.255886e-06	-1.885046e-08	-3.037401e+01	-1.236523e+03
4.100000e-07	-4.176985e-06	-1.872162e-08	-2.981090e+01	-1.228658e+03
4.200000e-07	-4.096409e-06	-1.859444e-08	-2.923583e+01	-1.220507e+03
4.300000e-07	-4.014439e-06	-1.847958e-08	-2.865082e+01	-1.212043e+03
4.400000e-07	-3.931262e-06	-1.834189e-08	-2.805719e+01	-1.203238e+03
4.500000e-07	-3.846891e-06	-1.821262e-08	-2.745503e+01	-1.194068e+03
4.600000e-07	-3.761295e-06	-1.806067e-08	-2.684415e+01	-1.184510e+03
4.700000e-07	-3.674540e-06	-1.789949e-08	-2.622498e+01	-1.174551e+03
4.800000e-07	-3.586615e-06	-1.774341e-08	-2.559746e+01	-1.164182e+03
4.900000e-07	-3.497261e-06	-1.757564e-08	-2.495975e+01	-1.153397e+03
5.000000e-07	-3.406436e-06	-1.740496e-08	-2.431154e+01	-1.142187e+03
5.100000e-07	-3.314364e-06	-1.721938e-08	-2.365442e+01	-1.130537e+03
5.200000e-07	-3.221122e-06	-1.703392e-08	-2.298896e+01	-1.118424e+03
5.300000e-07	-3.126749e-06	-1.683656e-08	-2.231543e+01	-1.105815e+03
5.400000e-07	-3.031403e-06	-1.663588e-08	-2.163494e+01	-1.092670e+03
5.500000e-07	-2.935021e-06	-1.642695e-08	-2.094708e+01	-1.078944e+03
5.600000e-07	-2.837296e-06	-1.620823e-08	-2.024962e+01	-1.064594e+03
5.700000e-07	-2.738280e-06	-1.597892e-08	-1.954295e+01	-1.049578e+03
5.800000e-07	-2.638245e-06	-1.573678e-08	-1.882900e+01	-1.033862e+03
5.900000e-07	-2.537279e-06	-1.548429e-08	-1.810841e+01	-1.017414e+03
6.000000e-07	-2.435427e-06	-1.521457e-08	-1.738150e+01	-1.000205e+03
6.100000e-07	-2.332753e-06	-1.493436e-08	-1.664872e+01	-9.822009e+02
6.200000e-07	-2.229298e-06	-1.464571e-08	-1.591037e+01	-9.633614e+02
6.300000e-07	-2.124980e-06	-1.434914e-08	-1.516586e+01	-9.436336e+02
6.400000e-07	-2.019700e-06	-1.403706e-08	-1.441448e+01	-9.229518e+02
6.500000e-07	-1.913569e-06	-1.370632e-08	-1.365703e+01	-9.012378e+02
6.600000e-07	-1.806686e-06	-1.335381e-08	-1.289421e+01	-8.784034e+02
6.700000e-07	-1.699202e-06	-1.297843e-08	-1.212711e+01	-8.543539e+02
6.800000e-07	-1.591213e-06	-1.258646e-08	-1.135640e+01	-8.289921e+02
6.900000e-07	-1.482703e-06	-1.217792e-08	-1.058197e+01	-8.022210e+02
7.000000e-07	-1.373728e-06	-1.175046e-08	-9.804214e+00	-7.739453e+02
7.100000e-07	-1.264325e-06	-1.129611e-08	-9.023415e+00	-7.440738e+02
7.200000e-07	-1.154542e-06	-1.081304e-08	-8.239899e+00	-7.125208e+02
7.300000e-07	-1.044434e-06	-1.030087e-08	-7.454065e+00	-6.792115e+02
7.400000e-07	-9.339646e-07	-9.763852e-09	-6.665651e+00	-6.440891e+02
7.500000e-07	-8.231854e-07	-9.202129e-09	-5.875026e+00	-6.071265e+02
7.600000e-07	-7.121611e-07	-8.614393e-09	-5.082652e+00	-5.683392e+02
7.700000e-07	-6.009094e-07	-7.996756e-09	-4.288655e+00	-5.277986e+02
7.800000e-07	-4.894761e-07	-7.349448e-09	-3.493362e+00	-4.856416e+02
7.900000e-07	-3.778889e-07	-6.681542e-09	-2.696971e+00	-4.420725e+02
8.000000e-07	-2.662270e-07	-5.998335e-09	-1.900047e+00	-3.973556e+02
8.100000e-07	-1.544250e-07	-5.306219e-09	-1.102122e+00	-3.517950e+02
8.200000e-07	-4.248283e-08	-4.609082e-09	-3.031975e-01	-3.057055e+02
8.300000e-07	6.951205e-08	-3.909289e-09	4.961035e-01	-2.593756e+02
8.400000e-07	1.814750e-07	-3.206947e-09	1.295177e+00	-2.130300e+02
8.500000e-07	2.933441e-07	-2.503274e-09	2.093580e+00	-1.667972e+02
8.600000e-07	4.051377e-07	-1.797847e-09	2.891444e+00	-1.206905e+02
8.700000e-07	5.168143e-07	-1.091939e-09	3.688474e+00	-7.460485e+01
8.800000e-07	6.283347e-07	-3.857663e-10	4.484388e+00	-2.833524e+01
8.900000e-07	7.396739e-07	3.252644e-10	5.279010e+00	1.838808e+01
9.000000e-07	8.508221e-07	1.046473e-09	6.072268e+00	6.585005e+01
9.100000e-07	9.617393e-07	1.782672e-09	6.863878e+00	1.142956e+02
9.200000e-07	1.072345e-06	2.535689e-09	7.653261e+00	1.638776e+02
9.300000e-07	1.182575e-06	3.306463e-09	8.439968e+00	2.146165e+02
9.400000e-07	1.292406e-06	4.095273e-09	9.223828e+00	2.663789e+02
9.500000e-07	1.401812e-06	4.896466e-09	1.000465e+01	3.188781e+02
9.600000e-07	1.510782e-06	5.702579e-09	1.078236e+01	3.716971e+02
9.700000e-07	1.619276e-06	6.507209e-09	1.155668e+01	4.243287e+02
9.800000e-07	1.727225e-06	7.301053e-09	1.232711e+01	4.762269e+02
9.900000e-07	1.834562e-06	8.073039e-09	1.309316e+01	5.268611e+02
1.000000e-06	1.941207e-06	8.813627e-09	1.385428e+01	5.757639e+02
1.010000e-06	2.047076e-06	9.519094e-09	1.460986e+01	6.225672e+02
1.020000e-06	2.152029e-06	1.018995e-08	1.535891e+01	6.670212e+02
1.030000e-06	2.256038e-06	1.082424e-08	1.610121e+01	7.089970e+02
1.040000e-06	2.359187e-06	1.142314e-08	1.683738e+01	7.484744e+02
1.050000e-06	2.461503e-06	1.198645e-08	1.756760e+01	7.855189e+02
1.060000e-06	2.562913e-06	1.251458e-08	1.829136e+01	8.202542e+02
1.070000e-06	2.663494e-06	1.300636e-08	1.900920e+01	8.528349e+02
1.080000e-06	2.763301e-06	1.346654e-08	1.972152e+01	8.834239e+02
1.090000e-06	2.862099e-06	1.390160e-08	2.042664e+01	9.121766e+02
1.100000e-06	2.959703e-06	1.431550e-08	2.112323e+01	9.392326e+02
1.110000e-06	3.056077e-06	1.470638e-08	2.181105e+01	9.647141e+02
1.120000e-06	3.151286e-06	1.507364e-08	2.249054e+01	9.887284e+02
1.130000e-06	3.245455e-06	1.541931e-08	2.316263e+01	1.011372e+03
1.140000e-06	3.338578e-06	1.574317e-08	2.382724e+01	1.032736e+03
1.150000e-06	3.430663e-06	1.604716e-08	2.448444e+01	1.052906e+03
1.160000e-06	3.521674e-06	1.633490e-08	2.513399e+01	1.071965e+03
1.170000e-06	3.611320e-06	1.661050e-08	2.577378e+01	1.089995e+03
1.180000e-06	3.699531e-06	1.687199e-08	2.640334e+01	1.107068e+03
1.190000e-06	3.786469e-06	1.711945e-08	2.702381e+01	1.123252e+03
1.200000e-06	3.872181e-06	1.735317e-08	2.763553e+01	1.138607e+03
1.210000e-06	3.956665e-06	1.757254e-08	2.823849e+01	1.153184e+03
1.220000e-06	4.039874e-06	1.777895e-08	2.883234e+01	1.167031e+03
1.230000e-06	4.121615e-06	1.797579e-08	2.941572e+01	1.180188e+03
1.240000e-06	4.201743e-06	1.816360e-08	2.998760e+01	1.192696e+03
1.250000e-06	4.280283e-06	1.834519e-08	3.054813e+01	1.204589e+03
1.260000e-06	4.357304e-06	1.851966e-08	3.109782e+01	1.215903e+03
1.270000e-06	4.432709e-06	1.868620e-08	3.163599e+01	1.226666e+03
1.280000e-06	4.506258e-06	1.884346e-08	3.216090e+01	1.236904e+03
1.290000e-06	4.578010e-06	1.899121e-08	3.267299e+01	1.246636e+03
1.300000e-06	4.648121e-06	1.913026e-08	3.317337e+01	1.255875e+03
1.310000e-06	4.716657e-06	1.926353e-08	3.366251e+01	1.264631e+03
1.320000e-06	4.783615e-06	1.939099e-08	3.414039e+01	1.272910e+03
1.330000e-06	4.848689e-06	1.951026e-08	3.460481e+01	1.280722e+03
1.340000e-06	4.911850e-06	1.962209e-08	3.505559e+01	1.288078e+03
1.350000e-06	4.973366e-06	1.972728e-08	3.549463e+01	1.294997e+03
1.360000e-06	5.033371e-06	1.982740e-08	3.592288e+01	1.301503e+03
1.370000e-06	5.091668e-06	1.992182e-08	3.633894e+01	1.307627e+03
1.380000e-06	5.147981e-06	2.001031e-08	3.674084e+01	1.313405e+03
1.390000e-06	5.202391e-06	2.009250e-08	3.712916e+01	1.318872e+03
1.400000e-06	5.254827e-06	2.016948e-08	3.750339e+01	1.324061e+03
1.410000e-06	5.304988e-06	2.024310e-08	3.786139e+01	1.328999e+03
1.420000e-06	5.352970e-06	2.031464e-08	3.820384e+01	1.333704e+03
1.430000e-06	5.399085e-06	2.038464e-08	3.853296e+01	1.338188e+03
1.440000e-06	5.443443e-06	2.045167e-08	3.884954e+01	1.342450e+03
1.450000e-06	5.485887e-06	2.051545e-08	3.915246e+01	1.346486e+03
1.460000e-06	5.526272e-06	2.057440e-08	3.944068e+01	1.350287e+03
1.470000e-06	5.564757e-06	2.062719e-08	3.971535e+01	1.353843e+03
1.480000e-06	5.601469e-06	2.067532e-08	3.997736e+01	1.357147e+03
1.490000e-06	5.636274e-06	2.071989e-08	4.022576e+01	1.360193e+03
1.500000e-06	5.668937e-06	2.076066e-08	4.045887e+01	1.362984e+03
1.510000e-06	5.699554e-06	2.079834e-08	4.067739e+01	1.365526e+03
1.520000e-06	5.728363e-06	2.083346e-08	4.088299e+01	1.367829e+03
1.530000e-06	5.755202e-06	2.086653e-08	4.107454e+01	1.369908e+03
1.540000e-06	5.779776e-06	2.089587e-08	4.124993e+01	1.371777e+03
1.550000e-06	5.802157e-06	2.092110e-08	4.140966e+01	1.373450e+03
1.560000e-06	5.822631e-06	2.094328e-08	4.155578e+01	1.374938e+03
1.570000e-06	5.841154e-06	2.096251e-08	4.168798e+01	1.376248e+03
1.580000e-06	5.857495e-06	2.097858e-08	4.180460e+01	1.377384e+03
1.590000e-06	5.871629e-06	2.099189e-08	4.190548e+01	1.378346e+03
1.600000e-06	5.883522e-06	2.100434e-08	4.199036e+01	1.379132e+03
1.610000e-06	5.892996e-06	2.101507e-08	4.205797e+01	1.379742e+03
1.620000e-06	5.900200e-06	2.102321e-08	4.210938e+01	1.380174e+03
1.630000e-06	5.905428e-06	2.102837e-08	4.214669e+01	1.380432e+03
1.640000e-06	5.908598e-06	2.103216e-08	4.216932e+01	1.380521e+03
1.650000e-06	5.909576e-06	2.103711e-08	4.217630e+01	1.380451e+03
1.660000e-06	5.908509e-06	2.103309e-08	4.216869e+01	1.380231e+03
1.670000e-06	5.905601e-06	2.102046e-08	4.214793e+01	1.379871e+03
1.680000e-06	5.900822e-06	2.101388e-08	4.211382e+01	1.379377e+03
1.690000e-06	5.893973e-06	2.100552e-08	4.206494e+01	1.378750e+03
1.700000e-06	5.885127e-06	2.099484e-08	4.200181e+01	1.377988e+03
1.710000e-06	5.874505e-06	2.098580e-08	4.192600e+01	1.377083e+03
1.720000e-06	5.861893e-06	2.098497e-08	4.183599e+01	1.376026e+03
1.730000e-06	5.847153e-06	2.098881e-08	4.173079e+01	1.374808e+03
1.740000e-06	5.830493e-06	2.086960e-08	4.161189e+01	1.373427e+03
1.750000e-06	5.811613e-06	2.080768e-08	4.147714e+01	1.371883e+03
1.760000e-06	5.789822e-06	2.086296e-08	4.132163e+01	1.370186e+03
1.770000e-06	5.765292e-06	2.082218e-08	4.114656e+01	1.368352e+03
1.780000e-06	5.738876e-06	2.088682e-08	4.095803e+01	1.366398e+03
1.790000e-06	5.711360e-06	2.092262e-08	4.076164e+01	1.364341e+03
1.800000e-06	5.682898e-06	2.064982e-08	4.055851e+01	1.362191e+03
1.810000e-06	5.652362e-06	2.072338e-08	4.034058e+01	1.359948e+03
1.820000e-06	5.619465e-06	2.072334e-08	4.010579e+01	1.357602e+03
1.830000e-06	5.584956e-06	2.050924e-08	3.985951e+01	1.355130e+03
1.840000e-06	5.548432e-06	2.072728e-08	3.959884e+01	1.352501e+03
1.850000e-06	5.509642e-06	2.058558e-08	3.932199e+01	1.349683e+03
1.860000e-06	5.468851e-06	2.042050e-08	3.903087e+01	1.346649e+03
1.870000e-06	5.426184e-06	2.055702e-08	3.872636e+01	1.343379e+03
1.880000e-06	5.381958e-06	2.037305e-08	3.841072e+01	1.339867e+03
1.890000e-06	5.335741e-06	2.039005e-08	3.808087e+01	1.336119e+03
1.900000e-06	5.287206e-06	2.031430e-08	3.773448e+01	1.332154e+03
1.910000e-06	5.236725e-06	2.012884e-08	3.737420e+01	1.327993e+03
1.920000e-06	5.184074e-06	2.024724e-08	3.699844e+01	1.323659e+03
1.930000e-06	5.129296e-06	2.009451e-08	3.660749e+01	1.319167e+03
1.940000e-06	5.072623e-06	2.006328e-08	3.620302e+01	1.314518e+03
1.950000e-06	5.014066e-06	1.999301e-08	3.578510e+01	1.309702e+03
1.960000e-06	4.953715e-06	1.985127e-08	3.535438e+01	1.304697e+03
1.970000e-06	4.891384e-06	1.984880e-08	3.490952e+01	1.299473e+03
1.980000e-06	4.827226e-06	1.965411e-08	3.445163e+01	1.293999e+03
1.990000e-06	4.761385e-06	1.965045e-08	3.398173e+01	1.288250e+03
2.000000e-06	4.693949e-06	1.959022e-08	3.350044e+01	1.282210e+03
2.010000e-06	4.624757e-06	1.945844e-08	3.300663e+01	1.275874e+03
2.020000e-06	4.553576e-06	1.937173e-08	3.249861e+01	1.269247e+03
2.030000e-06	4.480756e-06	1.918322e-08	3.197889e+01	1.262340e+03
2.040000e-06	4.406355e-06	1.915484e-08	3.144790e+01	1.255165e+03
2.050000e-06	4.330266e-06	1.903555e-08	3.090486e+01	1.247728e+03
2.060000e-06	4.252429e-06	1.892608e-08	3.034934e+01	1.240028e+03
2.070000e-06	4.173004e-06	1.882352e-08	2.978249e+01	1.232053e+03
2.080000e-06	4.092159e-06	1.866435e-08	2.920550e+01	1.223781e+03
2.090000e-06	4.009829e-06	1.854215e-08	2.861791e+01	1.215185e+03
2.100000e-06	3.926211e-06	1.836726e-08	2.802114e+01	1.206239e+03
2.110000e-06	3.841246e-06	1.825980e-08	2.741475e+01	1.196917e+03
2.120000e-06	3.754742e-06	1.811281e-08	2.679737e+01	1.187202e+03
2.130000e-06	3.666889e-06	1.796619e-08	2.617037e+01	1.177082e+03
2.140000e-06	3.577834e-06	1.781035e-08	2.553480e+01	1.166549e+03
2.150000e-06	3.487591e-06	1.763307e-08	2.489073e+01	1.155597e+03
2.160000e-06	3.396205e-06	1.747027e-08	2.423852e+01	1.144215e+03
2.170000e-06	3.303675e-06	1.728499e-08	2.357814e+01	1.132386e+03
2.180000e-06	3.209813e-06	1.710826e-08	2.290825e+01	1.120081e+03
2.190000e-06	3.114616e-06	1.690511e-08	2.222883e+01	1.107266e+03
2.200000e-06	3.018254e-06	1.670679e-08	2.154110e+01	1.093897e+03
2.210000e-06	2.920828e-06	1.649244e-08	2.084578e+01	1.079930e+03
2.220000e-06	2.822436e-06	1.627117e-08	2.014356e+01	1.065322e+03
2.230000e-06	2.723155e-06	1.604154e-08	1.943500e+01	1.050034e+03
2.240000e-06	2.622956e-06	1.580214e-08	1.871988e+01	1.034033e+03
2.250000e-06	2.521702e-06	1.555965e-08	1.799724e+01	1.017288e+03
2.260000e-06	2.419379e-06	1.529221e-08	1.726697e+01	9.997701e+02
2.270000e-06	2.316062e-06	1.500844e-08	1.652960e+01	9.814423e+02
2.280000e-06	2.211814e-06	1.470805e-08	1.578559e+01	9.622598e+02
2.290000e-06	2.106725e-06	1.440330e-08	1.503558e+01	9.421648e+02
2.300000e-06	2.000866e-06	1.408346e-08	1.428007e+01	9.210864e+02
2.310000e-06	1.894388e-06	1.375270e-08	1.352014e+01	8.989421e+02
2.320000e-06	1.787406e-06	1.340569e-08	1.275661e+01	8.756408e+02
2.330000e-06	1.679910e-06	1.303474e-08	1.198942e+01	8.510863e+02
2.340000e-06	1.571914e-06	1.263527e-08	1.121866e+01	8.251813e+02
2.350000e-06	1.463416e-06	1.221125e-08	1.044431e+01	7.978293e+02
2.360000e-06	1.354460e-06	1.177357e-08	9.666703e+00	7.689363e+02
2.370000e-06	1.245108e-06	1.131613e-08	8.886261e+00	7.384129e+02
2.380000e-06	1.135412e-06	1.083218e-08	8.103367e+00	7.061770e+02
2.390000e-06	1.025411e-06	1.031277e-08	7.318298e+00	6.721598e+02
2.400000e-06	9.150443e-07	9.759260e-09	6.530618e+00	6.363146e+02
2.410000e-06	8.042901e-07	9.177141e-09	5.740172e+00	5.986294e+02
2.420000e-06	6.932309e-07	8.573836e-09	4.947549e+00	5.591403e+02
2.430000e-06	5.819000e-07	7.949865e-09	4.152987e+00	5.179435e+02
2.440000e-06	4.703606e-07	7.304842e-09	3.356936e+00	4.752027e+02
2.450000e-06	3.586758e-07	6.636942e-09	2.559849e+00	4.311474e+02
2.460000e-06	2.467937e-07	5.944848e-09	1.761352e+00	3.860604e+02
2.470000e-06	1.347358e-07	5.237863e-09	9.616015e-01	3.402540e+02
2.480000e-06	2.261481e-08	4.526033e-09	1.614006e-01	2.940373e+02
2.490000e-06	-8.955179e-08	3.815830e-09	-6.391260e-01	2.476781e+02
2.500000e-06	-2.016288e-07	3.108618e-09	-1.439013e+00	2.013666e+02
2.510000e-06	-3.135554e-07	2.404253e-09	-2.237827e+00	1.551874e+02
2.520000e-06	-4.253622e-07	1.701891e-09	-3.035785e+00	1.091066e+02
2.530000e-06	-5.370464e-07	9.971585e-10	-3.832869e+00	6.297665e+01
2.540000e-06	-6.485957e-07	2.872007e-10	-4.628990e+00	1.656196e+01
2.550000e-06	-7.597740e-07	-4.319196e-10	-5.422463e+00	-3.041958e+01
2.560000e-06	-8.705089e-07	-1.162340e-09	-6.212772e+00	-7.824383e+01
2.570000e-06	-9.808871e-07	-1.907654e-09	-7.000534e+00	-1.271253e+02
2.580000e-06	-1.090932e-06	-2.673358e-09	-7.785915e+00	-1.771686e+02
2.590000e-06	-1.200584e-06	-3.455512e-09	-8.568501e+00	-2.283353e+02
2.600000e-06	-1.309848e-06	-4.251096e-09	-9.348309e+00	-2.804303e+02
2.610000e-06	-1.418722e-06	-5.055830e-09	-1.012534e+01	-3.331120e+02
2.620000e-06	-1.527094e-06	-5.861211e-09	-1.089878e+01	-3.859223e+02
2.630000e-06	-1.634892e-06	-6.659295e-09	-1.166813e+01	-4.383322e+02
2.640000e-06	-1.742129e-06	-7.443629e-09	-1.243348e+01	-4.897956e+02
2.650000e-06	-1.848882e-06	-8.207883e-09	-1.319536e+01	-5.398016e+02
2.660000e-06	-1.955053e-06	-8.945629e-09	-1.395310e+01	-5.879183e+02
2.670000e-06	-2.060461e-06	-9.651825e-09	-1.470539e+01	-6.338226e+02
2.680000e-06	-2.165110e-06	-1.032145e-08	-1.545226e+01	-6.773130e+02
2.690000e-06	-2.268966e-06	-1.094980e-08	-1.619348e+01	-7.183055e+02
2.700000e-06	-2.371872e-06	-1.153929e-08	-1.692791e+01	-7.568164e+02
2.710000e-06	-2.473814e-06	-1.209584e-08	-1.765546e+01	-7.929377e+02
2.720000e-06	-2.574738e-06	-1.261849e-08	-1.837575e+01	-8.268083e+02
2.730000e-06	-2.674612e-06	-1.310626e-08	-1.908855e+01	-8.585883e+02
2.740000e-06	-2.773598e-06	-1.356182e-08	-1.979501e+01	-8.884392e+02
2.750000e-06	-2.871686e-06	-1.398888e-08	-2.049506e+01	-9.165107e+02
2.760000e-06	-2.968832e-06	-1.439160e-08	-2.118838e+01	-9.429355e+02
2.770000e-06	-3.065098e-06	-1.477365e-08	-2.187542e+01	-9.678296e+02
2.780000e-06	-3.160399e-06	-1.513573e-08	-2.255558e+01	-9.912954e+02
2.790000e-06	-3.254546e-06	-1.547639e-08	-2.322751e+01	-1.013427e+03
2.800000e-06	-3.347382e-06	-1.579643e-08	-2.389007e+01	-1.034312e+03
2.810000e-06	-3.438937e-06	-1.609737e-08	-2.454350e+01	-1.054037e+03
2.820000e-06	-3.529314e-06	-1.638002e-08	-2.518851e+01	-1.072684e+03
2.830000e-06	-3.618424e-06	-1.664744e-08	-2.582448e+01	-1.090330e+03
2.840000e-06	-3.706297e-06	-1.690220e-08	-2.645163e+01	-1.107048e+03
2.850000e-06	-3.792901e-06	-1.714612e-08	-2.706971e+01	-1.122900e+03
2.860000e-06	-3.878038e-06	-1.737942e-08	-2.767733e+01	-1.137945e+03
2.870000e-06	-3.961799e-06	-1.760205e-08	-2.827513e+01	-1.152231e+03
2.880000e-06	-4.044246e-06	-1.781424e-08	-2.886355e+01	-1.165803e+03
2.890000e-06	-4.125280e-06	-1.801340e-08	-2.944188e+01	-1.178702e+03
2.900000e-06	-4.204780e-06	-1.819985e-08	-3.000927e+01	-1.190965e+03
2.910000e-06	-4.282528e-06	-1.837619e-08	-3.056415e+01	-1.202628e+03
2.920000e-06	-4.358475e-06	-1.854479e-08	-3.110619e+01	-1.213723e+03
2.930000e-06	-4.432752e-06	-1.870659e-08	-3.163630e+01	-1.224278e+03
2.940000e-06	-4.505448e-06	-1.886064e-08	-3.215512e+01	-1.234317e+03
