# Temperatura_=_73.88
# Concentracion g/m^3_=_28200.0
# C_Vs_to_Am_M_A/Vsm_=_65563218390.804596
# pendiente_HvsI_1/m_=_3716.3
# ordenada_HvsI_A/m_=_1297.0
# frecuencia_Hz_=_301921.65555811295

Tiempo_(s)	Campo_(V.s)	Magnetizacion_(V.s)	Campo_(kA/m)	Magnetizacion_(A/m)
0.000000e+00	-5.869607e-06	-2.395085e-08	-4.194705e+01	-1.569858e+03
1.000000e-08	-5.867671e-06	-2.395223e-08	-4.193322e+01	-1.569497e+03
2.000000e-08	-5.863670e-06	-2.394564e-08	-4.190463e+01	-1.568965e+03
3.000000e-08	-5.857864e-06	-2.393511e-08	-4.186313e+01	-1.568259e+03
4.000000e-08	-5.850279e-06	-2.392512e-08	-4.180893e+01	-1.567374e+03
5.000000e-08	-5.840714e-06	-2.390817e-08	-4.174057e+01	-1.566309e+03
6.000000e-08	-5.828939e-06	-2.388382e-08	-4.165642e+01	-1.565059e+03
7.000000e-08	-5.815018e-06	-2.384686e-08	-4.155694e+01	-1.563626e+03
8.000000e-08	-5.798907e-06	-2.380591e-08	-4.144180e+01	-1.562014e+03
9.000000e-08	-5.780631e-06	-2.385821e-08	-4.131119e+01	-1.560230e+03
1.000000e-07	-5.760302e-06	-2.389017e-08	-4.116591e+01	-1.558285e+03
1.100000e-07	-5.737805e-06	-2.378206e-08	-4.100513e+01	-1.556192e+03
1.200000e-07	-5.713083e-06	-2.372221e-08	-4.082846e+01	-1.553966e+03
1.300000e-07	-5.686257e-06	-2.368396e-08	-4.063674e+01	-1.551615e+03
1.400000e-07	-5.657828e-06	-2.349158e-08	-4.043358e+01	-1.549143e+03
1.500000e-07	-5.628008e-06	-2.356959e-08	-4.022047e+01	-1.546545e+03
1.600000e-07	-5.596535e-06	-2.367564e-08	-3.999555e+01	-1.543808e+03
1.700000e-07	-5.563285e-06	-2.342028e-08	-3.975793e+01	-1.540908e+03
1.800000e-07	-5.528074e-06	-2.352052e-08	-3.950629e+01	-1.537817e+03
1.900000e-07	-5.490783e-06	-2.348777e-08	-3.923979e+01	-1.534508e+03
2.000000e-07	-5.451651e-06	-2.323890e-08	-3.896014e+01	-1.530954e+03
2.100000e-07	-5.410595e-06	-2.335081e-08	-3.866673e+01	-1.527138e+03
2.200000e-07	-5.367387e-06	-2.326233e-08	-3.835795e+01	-1.523055e+03
2.300000e-07	-5.322196e-06	-2.313399e-08	-3.803499e+01	-1.518709e+03
2.400000e-07	-5.274936e-06	-2.312583e-08	-3.769725e+01	-1.514114e+03
2.500000e-07	-5.225343e-06	-2.300565e-08	-3.734283e+01	-1.509288e+03
2.600000e-07	-5.173423e-06	-2.296154e-08	-3.697178e+01	-1.504250e+03
2.700000e-07	-5.119401e-06	-2.287385e-08	-3.658572e+01	-1.499008e+03
2.800000e-07	-5.063640e-06	-2.276906e-08	-3.618722e+01	-1.493566e+03
2.900000e-07	-5.005974e-06	-2.268738e-08	-3.577512e+01	-1.487912e+03
3.000000e-07	-4.946287e-06	-2.258157e-08	-3.534856e+01	-1.482027e+03
3.100000e-07	-4.884867e-06	-2.252092e-08	-3.490962e+01	-1.475885e+03
3.200000e-07	-4.821716e-06	-2.241588e-08	-3.445832e+01	-1.469461e+03
3.300000e-07	-4.756752e-06	-2.232562e-08	-3.399405e+01	-1.462735e+03
3.400000e-07	-4.689942e-06	-2.220088e-08	-3.351660e+01	-1.455695e+03
3.500000e-07	-4.621408e-06	-2.206318e-08	-3.302682e+01	-1.448338e+03
3.600000e-07	-4.551203e-06	-2.197036e-08	-3.252510e+01	-1.440670e+03
3.700000e-07	-4.479535e-06	-2.183989e-08	-3.201293e+01	-1.432700e+03
3.800000e-07	-4.406259e-06	-2.174392e-08	-3.148926e+01	-1.424436e+03
3.900000e-07	-4.330968e-06	-2.161008e-08	-3.095119e+01	-1.415879e+03
4.000000e-07	-4.253902e-06	-2.144273e-08	-3.040044e+01	-1.407022e+03
4.100000e-07	-4.175171e-06	-2.130359e-08	-2.983779e+01	-1.397848e+03
4.200000e-07	-4.094744e-06	-2.115680e-08	-2.926302e+01	-1.388334e+03
4.300000e-07	-4.012907e-06	-2.101941e-08	-2.867818e+01	-1.378454e+03
4.400000e-07	-3.929915e-06	-2.085474e-08	-2.808507e+01	-1.368184e+03
4.500000e-07	-3.845782e-06	-2.069873e-08	-2.748382e+01	-1.357505e+03
4.600000e-07	-3.760421e-06	-2.052390e-08	-2.687379e+01	-1.346407e+03
4.700000e-07	-3.673820e-06	-2.034091e-08	-2.625490e+01	-1.334886e+03
4.800000e-07	-3.586047e-06	-2.016824e-08	-2.562763e+01	-1.322938e+03
4.900000e-07	-3.496979e-06	-1.997889e-08	-2.499111e+01	-1.310557e+03
5.000000e-07	-3.406382e-06	-1.978367e-08	-2.434366e+01	-1.297730e+03
5.100000e-07	-3.314405e-06	-1.957299e-08	-2.368634e+01	-1.284429e+03
5.200000e-07	-3.221302e-06	-1.936144e-08	-2.302098e+01	-1.270616e+03
5.300000e-07	-3.127081e-06	-1.913642e-08	-2.234763e+01	-1.256244e+03
5.400000e-07	-3.031796e-06	-1.890762e-08	-2.166668e+01	-1.241259e+03
5.500000e-07	-2.935508e-06	-1.866994e-08	-2.097856e+01	-1.225613e+03
5.600000e-07	-2.837980e-06	-1.842088e-08	-2.028158e+01	-1.209262e+03
5.700000e-07	-2.739138e-06	-1.815893e-08	-1.957521e+01	-1.192176e+03
5.800000e-07	-2.639222e-06	-1.788361e-08	-1.886116e+01	-1.174330e+03
5.900000e-07	-2.538406e-06	-1.759981e-08	-1.814068e+01	-1.155706e+03
6.000000e-07	-2.436710e-06	-1.730066e-08	-1.741391e+01	-1.136282e+03
6.100000e-07	-2.334154e-06	-1.699033e-08	-1.668100e+01	-1.116024e+03
6.200000e-07	-2.230807e-06	-1.666728e-08	-1.594243e+01	-1.094881e+03
6.300000e-07	-2.126656e-06	-1.633021e-08	-1.519811e+01	-1.072782e+03
6.400000e-07	-2.021675e-06	-1.597498e-08	-1.444787e+01	-1.049637e+03
6.500000e-07	-1.915848e-06	-1.560297e-08	-1.369157e+01	-1.025339e+03
6.600000e-07	-1.809166e-06	-1.521134e-08	-1.292918e+01	-9.997794e+02
6.700000e-07	-1.701744e-06	-1.479591e-08	-1.216149e+01	-9.728457e+02
6.800000e-07	-1.593778e-06	-1.436065e-08	-1.138991e+01	-9.444324e+02
6.900000e-07	-1.485369e-06	-1.390450e-08	-1.061517e+01	-9.144395e+02
7.000000e-07	-1.376497e-06	-1.342252e-08	-9.837116e+00	-8.827704e+02
7.100000e-07	-1.267184e-06	-1.291183e-08	-9.055910e+00	-8.493272e+02
7.200000e-07	-1.157507e-06	-1.237126e-08	-8.272108e+00	-8.140065e+02
7.300000e-07	-1.047519e-06	-1.179756e-08	-7.486080e+00	-7.767003e+02
7.400000e-07	-9.372588e-07	-1.119437e-08	-6.698105e+00	-7.373025e+02
7.500000e-07	-8.267094e-07	-1.056129e-08	-5.908066e+00	-6.957236e+02
7.600000e-07	-7.158681e-07	-9.895873e-09	-5.115940e+00	-6.519122e+02
7.700000e-07	-6.047631e-07	-9.194263e-09	-4.321930e+00	-6.058776e+02
7.800000e-07	-4.934236e-07	-8.457913e-09	-3.526244e+00	-5.577101e+02
7.900000e-07	-3.818633e-07	-7.691854e-09	-2.728980e+00	-5.075916e+02
8.000000e-07	-2.701635e-07	-6.899098e-09	-1.930719e+00	-4.557917e+02
8.100000e-07	-1.583690e-07	-6.086744e-09	-1.131781e+00	-4.026462e+02
8.200000e-07	-4.648354e-08	-5.261555e-09	-3.321939e-01	-3.485206e+02
8.300000e-07	6.541060e-08	-4.430791e-09	4.674558e-01	-2.937616e+02
8.400000e-07	1.773168e-07	-3.594974e-09	1.267192e+00	-2.386471e+02
8.500000e-07	2.892117e-07	-2.755217e-09	2.066847e+00	-1.833432e+02
8.600000e-07	4.010127e-07	-1.911355e-09	2.865831e+00	-1.278788e+02
8.700000e-07	5.126925e-07	-1.061598e-09	3.663949e+00	-7.214431e+01
8.800000e-07	6.242369e-07	-2.030240e-10	4.461099e+00	-1.591807e+01
8.900000e-07	7.355975e-07	6.665180e-10	5.256936e+00	4.108369e+01
9.000000e-07	8.467067e-07	1.550147e-09	6.050976e+00	9.913985e+01
9.100000e-07	9.575062e-07	2.450896e-09	6.842803e+00	1.584527e+02
9.200000e-07	1.067967e-06	3.369353e-09	7.632212e+00	2.190846e+02
9.300000e-07	1.178123e-06	4.308512e-09	8.419437e+00	2.809147e+02
9.400000e-07	1.287923e-06	5.266327e-09	9.204123e+00	3.436243e+02
9.500000e-07	1.397306e-06	6.233922e-09	9.985828e+00	4.067143e+02
9.600000e-07	1.506193e-06	7.195487e-09	1.076398e+01	4.695512e+02
9.700000e-07	1.614574e-06	8.138952e-09	1.153852e+01	5.314335e+02
9.800000e-07	1.722500e-06	9.055105e-09	1.230982e+01	5.916670e+02
9.900000e-07	1.829829e-06	9.934166e-09	1.307685e+01	6.496365e+02
1.000000e-06	1.936370e-06	1.076895e-08	1.383824e+01	7.048611e+02
1.010000e-06	2.041963e-06	1.155593e-08	1.459285e+01	7.570267e+02
1.020000e-06	2.146658e-06	1.229600e-08	1.534106e+01	8.059923e+02
1.030000e-06	2.250533e-06	1.298991e-08	1.608340e+01	8.517719e+02
1.040000e-06	2.353531e-06	1.364057e-08	1.681947e+01	8.944990e+02
1.050000e-06	2.455666e-06	1.425027e-08	1.754938e+01	9.343826e+02
1.060000e-06	2.556945e-06	1.482046e-08	1.827316e+01	9.716631e+02
1.070000e-06	2.657411e-06	1.535000e-08	1.899115e+01	1.006577e+03
1.080000e-06	2.757104e-06	1.584420e-08	1.970360e+01	1.039333e+03
1.090000e-06	2.855815e-06	1.630869e-08	2.040903e+01	1.070106e+03
1.100000e-06	2.953270e-06	1.674641e-08	2.110550e+01	1.099036e+03
1.110000e-06	3.049520e-06	1.715851e-08	2.179335e+01	1.126241e+03
1.120000e-06	3.144675e-06	1.754848e-08	2.247337e+01	1.151830e+03
1.130000e-06	3.238784e-06	1.791625e-08	2.314592e+01	1.175912e+03
1.140000e-06	3.331855e-06	1.826180e-08	2.381105e+01	1.198600e+03
1.150000e-06	3.423928e-06	1.858839e-08	2.446905e+01	1.220014e+03
1.160000e-06	3.514865e-06	1.889860e-08	2.511893e+01	1.240270e+03
1.170000e-06	3.604373e-06	1.919312e-08	2.575859e+01	1.259477e+03
1.180000e-06	3.692536e-06	1.947240e-08	2.638865e+01	1.277726e+03
1.190000e-06	3.779464e-06	1.973585e-08	2.700988e+01	1.295088e+03
1.200000e-06	3.865113e-06	1.998426e-08	2.762197e+01	1.311612e+03
1.210000e-06	3.949564e-06	2.022108e-08	2.822550e+01	1.327334e+03
1.220000e-06	4.032786e-06	2.044809e-08	2.882024e+01	1.342280e+03
1.230000e-06	4.114496e-06	2.066454e-08	2.940418e+01	1.356478e+03
1.240000e-06	4.194588e-06	2.086756e-08	2.997655e+01	1.369960e+03
1.250000e-06	4.273068e-06	2.106116e-08	3.053741e+01	1.382767e+03
1.260000e-06	4.350033e-06	2.124610e-08	3.108744e+01	1.394948e+03
1.270000e-06	4.425397e-06	2.142454e-08	3.162603e+01	1.406554e+03
1.280000e-06	4.498873e-06	2.159490e-08	3.215112e+01	1.417631e+03
1.290000e-06	4.570539e-06	2.175721e-08	3.266328e+01	1.428217e+03
1.300000e-06	4.640569e-06	2.191125e-08	3.316375e+01	1.438335e+03
1.310000e-06	4.709085e-06	2.205830e-08	3.365340e+01	1.447992e+03
1.320000e-06	4.775946e-06	2.219968e-08	3.413123e+01	1.457185e+03
1.330000e-06	4.840825e-06	2.233391e-08	3.459488e+01	1.465905e+03
1.340000e-06	4.903886e-06	2.246013e-08	3.504555e+01	1.474144e+03
1.350000e-06	4.965379e-06	2.257869e-08	3.548500e+01	1.481902e+03
1.360000e-06	5.025361e-06	2.269099e-08	3.591366e+01	1.489190e+03
1.370000e-06	5.083576e-06	2.279662e-08	3.632969e+01	1.496033e+03
1.380000e-06	5.139812e-06	2.289674e-08	3.673159e+01	1.502468e+03
1.390000e-06	5.194213e-06	2.298920e-08	3.712036e+01	1.508537e+03
1.400000e-06	5.246638e-06	2.307455e-08	3.749502e+01	1.514284e+03
1.410000e-06	5.296767e-06	2.315611e-08	3.785326e+01	1.519747e+03
1.420000e-06	5.344691e-06	2.323532e-08	3.819575e+01	1.524954e+03
1.430000e-06	5.390756e-06	2.331234e-08	3.852495e+01	1.529923e+03
1.440000e-06	5.435136e-06	2.338609e-08	3.884211e+01	1.534659e+03
1.450000e-06	5.477619e-06	2.345615e-08	3.914572e+01	1.539159e+03
1.460000e-06	5.518015e-06	2.352218e-08	3.943440e+01	1.543416e+03
1.470000e-06	5.556505e-06	2.358462e-08	3.970947e+01	1.547417e+03
1.480000e-06	5.593224e-06	2.364249e-08	3.997189e+01	1.551155e+03
1.490000e-06	5.627994e-06	2.369387e-08	4.022037e+01	1.554625e+03
1.500000e-06	5.660608e-06	2.374179e-08	4.045345e+01	1.557825e+03
1.510000e-06	5.691192e-06	2.378802e-08	4.067202e+01	1.560757e+03
1.520000e-06	5.719980e-06	2.383039e-08	4.087774e+01	1.563428e+03
1.530000e-06	5.746840e-06	2.386785e-08	4.106970e+01	1.565844e+03
1.540000e-06	5.771430e-06	2.390036e-08	4.124544e+01	1.568013e+03
1.550000e-06	5.793859e-06	2.392945e-08	4.140572e+01	1.569941e+03
1.560000e-06	5.814413e-06	2.395543e-08	4.155261e+01	1.571634e+03
1.570000e-06	5.832983e-06	2.397776e-08	4.168532e+01	1.573101e+03
1.580000e-06	5.849300e-06	2.399698e-08	4.180193e+01	1.574348e+03
1.590000e-06	5.863408e-06	2.401312e-08	4.190275e+01	1.575382e+03
1.600000e-06	5.875336e-06	2.402576e-08	4.198799e+01	1.576211e+03
1.610000e-06	5.884853e-06	2.403530e-08	4.205601e+01	1.576843e+03
1.620000e-06	5.892060e-06	2.404322e-08	4.210752e+01	1.577286e+03
1.630000e-06	5.897288e-06	2.404977e-08	4.214488e+01	1.577547e+03
1.640000e-06	5.900568e-06	2.405330e-08	4.216831e+01	1.577632e+03
1.650000e-06	5.901685e-06	2.405692e-08	4.217630e+01	1.577544e+03
1.660000e-06	5.900697e-06	2.405322e-08	4.216924e+01	1.577286e+03
1.670000e-06	5.897870e-06	2.403858e-08	4.214904e+01	1.576857e+03
1.680000e-06	5.893153e-06	2.402932e-08	4.211532e+01	1.576255e+03
1.690000e-06	5.886388e-06	2.401802e-08	4.206698e+01	1.575478e+03
1.700000e-06	5.877680e-06	2.400397e-08	4.200475e+01	1.574522e+03
1.710000e-06	5.867166e-06	2.399215e-08	4.192961e+01	1.573383e+03
1.720000e-06	5.854693e-06	2.398713e-08	4.184047e+01	1.572060e+03
1.730000e-06	5.840080e-06	2.399430e-08	4.173604e+01	1.570555e+03
1.740000e-06	5.823497e-06	2.387095e-08	4.161753e+01	1.568872e+03
1.750000e-06	5.804740e-06	2.377550e-08	4.148349e+01	1.567022e+03
1.760000e-06	5.783108e-06	2.383159e-08	4.132889e+01	1.565016e+03
1.770000e-06	5.758694e-06	2.379793e-08	4.115441e+01	1.562869e+03
1.780000e-06	5.732339e-06	2.384627e-08	4.096607e+01	1.560591e+03
1.790000e-06	5.704871e-06	2.391547e-08	4.076977e+01	1.558191e+03
1.800000e-06	5.676524e-06	2.360767e-08	4.056719e+01	1.555670e+03
1.810000e-06	5.646147e-06	2.365645e-08	4.035010e+01	1.553018e+03
1.820000e-06	5.613326e-06	2.371563e-08	4.011555e+01	1.550219e+03
1.830000e-06	5.578884e-06	2.344626e-08	3.986941e+01	1.547246e+03
1.840000e-06	5.542481e-06	2.366828e-08	3.960926e+01	1.544072e+03
1.850000e-06	5.503794e-06	2.355722e-08	3.933278e+01	1.540668e+03
1.860000e-06	5.463144e-06	2.330381e-08	3.904227e+01	1.537011e+03
1.870000e-06	5.420573e-06	2.345311e-08	3.873804e+01	1.533089e+03
1.880000e-06	5.376381e-06	2.324817e-08	3.842222e+01	1.528900e+03
1.890000e-06	5.330369e-06	2.324041e-08	3.809340e+01	1.524453e+03
1.900000e-06	5.282034e-06	2.322030e-08	3.774797e+01	1.519764e+03
1.910000e-06	5.231626e-06	2.298297e-08	3.738773e+01	1.514852e+03
1.920000e-06	5.178963e-06	2.311189e-08	3.701138e+01	1.509732e+03
1.930000e-06	5.124131e-06	2.294967e-08	3.661952e+01	1.504411e+03
1.940000e-06	5.067529e-06	2.286407e-08	3.621502e+01	1.498886e+03
1.950000e-06	5.009109e-06	2.281557e-08	3.579752e+01	1.493143e+03
1.960000e-06	4.948946e-06	2.262693e-08	3.536756e+01	1.487158e+03
1.970000e-06	4.886793e-06	2.263044e-08	3.492339e+01	1.480907e+03
1.980000e-06	4.822682e-06	2.241914e-08	3.446522e+01	1.474366e+03
1.990000e-06	4.756842e-06	2.237599e-08	3.399469e+01	1.467516e+03
2.000000e-06	4.689464e-06	2.232258e-08	3.351318e+01	1.460350e+03
2.010000e-06	4.620463e-06	2.214923e-08	3.302006e+01	1.452869e+03
2.020000e-06	4.549497e-06	2.207204e-08	3.251291e+01	1.445080e+03
2.030000e-06	4.476841e-06	2.185555e-08	3.199367e+01	1.436992e+03
2.040000e-06	4.402622e-06	2.180411e-08	3.146327e+01	1.428612e+03
2.050000e-06	4.326757e-06	2.167548e-08	3.092110e+01	1.419937e+03
2.060000e-06	4.249082e-06	2.152137e-08	3.036600e+01	1.410957e+03
2.070000e-06	4.169700e-06	2.141181e-08	2.979870e+01	1.401652e+03
2.080000e-06	4.088948e-06	2.122295e-08	2.922160e+01	1.391996e+03
2.090000e-06	4.006812e-06	2.109462e-08	2.863462e+01	1.381964e+03
2.100000e-06	3.923434e-06	2.090018e-08	2.803876e+01	1.371534e+03
2.110000e-06	3.838730e-06	2.076868e-08	2.743342e+01	1.360690e+03
2.120000e-06	3.752430e-06	2.060294e-08	2.681668e+01	1.349425e+03
2.130000e-06	3.664697e-06	2.041711e-08	2.618970e+01	1.337735e+03
2.140000e-06	3.575763e-06	2.023905e-08	2.555413e+01	1.325617e+03
2.150000e-06	3.485653e-06	2.003080e-08	2.491016e+01	1.313062e+03
2.160000e-06	3.394421e-06	1.984867e-08	2.425817e+01	1.300051e+03
2.170000e-06	3.302069e-06	1.963430e-08	2.359819e+01	1.286553e+03
2.180000e-06	3.208332e-06	1.943100e-08	2.292829e+01	1.272525e+03
2.190000e-06	3.113244e-06	1.919947e-08	2.224875e+01	1.257917e+03
2.200000e-06	3.017052e-06	1.896999e-08	2.156131e+01	1.242677e+03
2.210000e-06	2.919827e-06	1.872963e-08	2.086650e+01	1.226757e+03
2.220000e-06	2.821561e-06	1.847862e-08	2.016424e+01	1.210120e+03
2.230000e-06	2.722342e-06	1.822201e-08	1.945517e+01	1.192736e+03
2.240000e-06	2.622298e-06	1.794486e-08	1.874021e+01	1.174585e+03
2.250000e-06	2.521320e-06	1.766369e-08	1.801857e+01	1.155649e+03
2.260000e-06	2.419231e-06	1.735664e-08	1.728900e+01	1.135901e+03
2.270000e-06	2.316028e-06	1.703833e-08	1.655146e+01	1.115302e+03
2.280000e-06	2.211882e-06	1.670540e-08	1.580718e+01	1.093792e+03
2.290000e-06	2.106932e-06	1.636752e-08	1.505715e+01	1.071292e+03
2.300000e-06	2.001276e-06	1.601072e-08	1.430209e+01	1.047706e+03
2.310000e-06	1.895043e-06	1.563652e-08	1.354289e+01	1.022925e+03
2.320000e-06	1.788272e-06	1.524411e-08	1.277986e+01	9.968368e+02
2.330000e-06	1.680949e-06	1.482780e-08	1.201287e+01	9.693328e+02
2.340000e-06	1.573109e-06	1.438446e-08	1.124220e+01	9.403094e+02
2.350000e-06	1.464835e-06	1.391309e-08	1.046842e+01	9.096683e+02
2.360000e-06	1.356143e-06	1.342179e-08	9.691655e+00	8.773129e+02
2.370000e-06	1.247040e-06	1.290381e-08	8.911953e+00	8.431436e+02
2.380000e-06	1.137556e-06	1.235707e-08	8.129524e+00	8.070547e+02
2.390000e-06	1.027666e-06	1.177461e-08	7.344197e+00	7.689376e+02
2.400000e-06	9.173490e-07	1.115755e-08	6.555820e+00	7.286908e+02
2.410000e-06	8.066888e-07	1.050661e-08	5.764989e+00	6.862370e+02
2.420000e-06	6.957484e-07	9.824456e-09	4.972155e+00	6.415458e+02
2.430000e-06	5.845491e-07	9.113619e-09	4.177471e+00	5.946562e+02
2.440000e-06	4.731528e-07	8.374348e-09	3.381379e+00	5.456943e+02
2.450000e-06	3.615739e-07	7.604254e-09	2.583982e+00	4.948775e+02
2.460000e-06	2.498696e-07	6.801544e-09	1.785689e+00	4.425051e+02
2.470000e-06	1.380429e-07	5.977083e-09	9.865213e-01	3.889297e+02
2.480000e-06	2.620972e-08	5.143990e-09	1.873073e-01	3.345153e+02
2.490000e-06	-8.559004e-08	4.307197e-09	-6.116679e-01	2.795877e+02
2.500000e-06	-1.973992e-07	3.463625e-09	-1.410710e+00	2.243851e+02
2.510000e-06	-3.091572e-07	2.616588e-09	-2.209387e+00	1.690213e+02
2.520000e-06	-4.208228e-07	1.768231e-09	-3.007404e+00	1.134697e+02
2.530000e-06	-5.322871e-07	9.123894e-10	-3.803981e+00	5.757207e+01
2.540000e-06	-6.435348e-07	4.638596e-11	-4.599011e+00	1.075112e+00
2.550000e-06	-7.545237e-07	-8.323626e-10	-5.392192e+00	-5.631151e+01
2.560000e-06	-8.651908e-07	-1.724815e-09	-6.183072e+00	-1.148450e+02
2.570000e-06	-9.755381e-07	-2.636383e-09	-6.971668e+00	-1.746793e+02
2.580000e-06	-1.085490e-06	-3.570547e-09	-7.757438e+00	-2.358085e+02
2.590000e-06	-1.195005e-06	-4.519665e-09	-8.540085e+00	-2.980340e+02
2.600000e-06	-1.304090e-06	-5.480085e-09	-9.319655e+00	-3.609625e+02
2.610000e-06	-1.412728e-06	-6.444622e-09	-1.009604e+01	-4.240353e+02
2.620000e-06	-1.520916e-06	-7.401416e-09	-1.086920e+01	-4.865834e+02
2.630000e-06	-1.628659e-06	-8.338266e-09	-1.163918e+01	-5.478990e+02
2.640000e-06	-1.735885e-06	-9.244682e-09	-1.240547e+01	-6.073113e+02
2.650000e-06	-1.842501e-06	-1.011672e-08	-1.316740e+01	-6.642522e+02
2.660000e-06	-1.948474e-06	-1.094725e-08	-1.392474e+01	-7.183039e+02
2.670000e-06	-2.053761e-06	-1.172952e-08	-1.467717e+01	-7.692212e+02
2.680000e-06	-2.158309e-06	-1.246259e-08	-1.542432e+01	-8.169272e+02
2.690000e-06	-2.262135e-06	-1.314543e-08	-1.616631e+01	-8.614877e+02
2.700000e-06	-2.365074e-06	-1.378101e-08	-1.690197e+01	-9.030714e+02
2.710000e-06	-2.466883e-06	-1.437689e-08	-1.762954e+01	-9.419045e+02
2.720000e-06	-2.567656e-06	-1.493715e-08	-1.834971e+01	-9.782293e+02
2.730000e-06	-2.667542e-06	-1.546126e-08	-1.906355e+01	-1.012274e+03
2.740000e-06	-2.766501e-06	-1.595061e-08	-1.977075e+01	-1.044233e+03
2.750000e-06	-2.864463e-06	-1.640949e-08	-2.047084e+01	-1.074268e+03
2.760000e-06	-2.961470e-06	-1.683936e-08	-2.116410e+01	-1.102508e+03
2.770000e-06	-3.057615e-06	-1.724487e-08	-2.185119e+01	-1.129067e+03
2.780000e-06	-3.152768e-06	-1.762968e-08	-2.253121e+01	-1.154052e+03
2.790000e-06	-3.246692e-06	-1.799237e-08	-2.320243e+01	-1.177573e+03
2.800000e-06	-3.339372e-06	-1.833247e-08	-2.386477e+01	-1.199748e+03
2.810000e-06	-3.430852e-06	-1.865237e-08	-2.451853e+01	-1.220694e+03
2.820000e-06	-3.521128e-06	-1.895397e-08	-2.516369e+01	-1.240528e+03
2.830000e-06	-3.610161e-06	-1.924031e-08	-2.579996e+01	-1.259350e+03
2.840000e-06	-3.697999e-06	-1.951403e-08	-2.642769e+01	-1.277244e+03
2.850000e-06	-3.784471e-06	-1.977441e-08	-2.704566e+01	-1.294273e+03
2.860000e-06	-3.869426e-06	-2.002135e-08	-2.765279e+01	-1.310480e+03
2.870000e-06	-3.953044e-06	-2.025673e-08	-2.825037e+01	-1.325895e+03
2.880000e-06	-4.035349e-06	-2.048283e-08	-2.883856e+01	-1.340545e+03
2.890000e-06	-4.116290e-06	-2.069810e-08	-2.941700e+01	-1.354459e+03
2.900000e-06	-4.195790e-06	-2.090106e-08	-2.998515e+01	-1.367671e+03
2.910000e-06	-4.273590e-06	-2.109412e-08	-3.054114e+01	-1.380228e+03
2.920000e-06	-4.349581e-06	-2.127781e-08	-3.108421e+01	-1.392178e+03
2.930000e-06	-4.423869e-06	-2.145153e-08	-3.161511e+01	-1.403572e+03
2.940000e-06	-4.496569e-06	-2.161648e-08	-3.213466e+01	-1.414454e+03
