# Temperatura_=_44.62
# Concentracion g/m^3_=_28200.0
# C_Vs_to_Am_M_A/Vsm_=_65563218390.804596
# pendiente_HvsI_1/m_=_3716.3
# ordenada_HvsI_A/m_=_1297.0
# frecuencia_Hz_=_301917.72029496887

Tiempo_(s)	Campo_(V.s)	Magnetizacion_(V.s)	Campo_(kA/m)	Magnetizacion_(A/m)
0.000000e+00	-5.841308e-06	-2.099957e-08	-4.194976e+01	-1.374891e+03
1.000000e-08	-5.839269e-06	-2.100122e-08	-4.193512e+01	-1.374619e+03
2.000000e-08	-5.835215e-06	-2.099357e-08	-4.190600e+01	-1.374210e+03
3.000000e-08	-5.829323e-06	-2.098261e-08	-4.186369e+01	-1.373663e+03
4.000000e-08	-5.821735e-06	-2.097257e-08	-4.180920e+01	-1.372970e+03
5.000000e-08	-5.812218e-06	-2.095797e-08	-4.174085e+01	-1.372126e+03
6.000000e-08	-5.800421e-06	-2.093860e-08	-4.165613e+01	-1.371123e+03
7.000000e-08	-5.786500e-06	-2.090835e-08	-4.155615e+01	-1.369956e+03
8.000000e-08	-5.770360e-06	-2.087733e-08	-4.144025e+01	-1.368624e+03
9.000000e-08	-5.752040e-06	-2.092836e-08	-4.130867e+01	-1.367135e+03
1.000000e-07	-5.731685e-06	-2.094494e-08	-4.116250e+01	-1.365499e+03
1.100000e-07	-5.709158e-06	-2.085819e-08	-4.100072e+01	-1.363734e+03
1.200000e-07	-5.684411e-06	-2.081947e-08	-4.082299e+01	-1.361856e+03
1.300000e-07	-5.657629e-06	-2.077174e-08	-4.063066e+01	-1.359882e+03
1.400000e-07	-5.629317e-06	-2.060666e-08	-4.042733e+01	-1.357820e+03
1.500000e-07	-5.599564e-06	-2.069949e-08	-4.021366e+01	-1.355669e+03
1.600000e-07	-5.568148e-06	-2.075154e-08	-3.998805e+01	-1.353416e+03
1.700000e-07	-5.534999e-06	-2.055650e-08	-3.974998e+01	-1.351039e+03
1.800000e-07	-5.499917e-06	-2.066801e-08	-3.949804e+01	-1.348508e+03
1.900000e-07	-5.462750e-06	-2.059680e-08	-3.923112e+01	-1.345792e+03
2.000000e-07	-5.423698e-06	-2.041422e-08	-3.895066e+01	-1.342863e+03
2.100000e-07	-5.382802e-06	-2.050094e-08	-3.865697e+01	-1.339700e+03
2.200000e-07	-5.339812e-06	-2.040983e-08	-3.834823e+01	-1.336295e+03
2.300000e-07	-5.294785e-06	-2.032030e-08	-3.802487e+01	-1.332651e+03
2.400000e-07	-5.247713e-06	-2.030200e-08	-3.768682e+01	-1.328782e+03
2.500000e-07	-5.198360e-06	-2.019649e-08	-3.733239e+01	-1.324707e+03
2.600000e-07	-5.146658e-06	-2.017047e-08	-3.696108e+01	-1.320446e+03
2.700000e-07	-5.092811e-06	-2.009216e-08	-3.657437e+01	-1.316011e+03
2.800000e-07	-5.037158e-06	-2.001158e-08	-3.617470e+01	-1.311408e+03
2.900000e-07	-4.979658e-06	-1.994355e-08	-3.576176e+01	-1.306630e+03
3.000000e-07	-4.920228e-06	-1.984923e-08	-3.533496e+01	-1.301661e+03
3.100000e-07	-4.859018e-06	-1.978007e-08	-3.489537e+01	-1.296478e+03
3.200000e-07	-4.796063e-06	-1.969388e-08	-3.444326e+01	-1.291058e+03
3.300000e-07	-4.731374e-06	-1.962837e-08	-3.397869e+01	-1.285380e+03
3.400000e-07	-4.664864e-06	-1.951836e-08	-3.350105e+01	-1.279430e+03
3.500000e-07	-4.596599e-06	-1.941058e-08	-3.301080e+01	-1.273203e+03
3.600000e-07	-4.526662e-06	-1.932305e-08	-3.250854e+01	-1.266701e+03
3.700000e-07	-4.455164e-06	-1.920837e-08	-3.199507e+01	-1.259927e+03
3.800000e-07	-4.382080e-06	-1.912928e-08	-3.147022e+01	-1.252888e+03
3.900000e-07	-4.307169e-06	-1.901817e-08	-3.093223e+01	-1.245584e+03
4.000000e-07	-4.230555e-06	-1.887957e-08	-3.038203e+01	-1.238008e+03
4.100000e-07	-4.152276e-06	-1.875635e-08	-2.981986e+01	-1.230147e+03
4.200000e-07	-4.072209e-06	-1.862657e-08	-2.924485e+01	-1.221981e+03
4.300000e-07	-3.990650e-06	-1.850349e-08	-2.865913e+01	-1.213489e+03
4.400000e-07	-3.907908e-06	-1.836328e-08	-2.806491e+01	-1.204649e+03
4.500000e-07	-3.824002e-06	-1.823316e-08	-2.746233e+01	-1.195447e+03
4.600000e-07	-3.738876e-06	-1.808408e-08	-2.685100e+01	-1.185871e+03
4.700000e-07	-3.652579e-06	-1.792390e-08	-2.623125e+01	-1.175914e+03
4.800000e-07	-3.565150e-06	-1.776894e-08	-2.560337e+01	-1.165574e+03
4.900000e-07	-3.476431e-06	-1.760376e-08	-2.496623e+01	-1.154840e+03
5.000000e-07	-3.386254e-06	-1.743503e-08	-2.431862e+01	-1.143697e+03
5.100000e-07	-3.294689e-06	-1.725058e-08	-2.366104e+01	-1.132120e+03
5.200000e-07	-3.202004e-06	-1.706474e-08	-2.299542e+01	-1.120074e+03
5.300000e-07	-3.108255e-06	-1.686775e-08	-2.232215e+01	-1.107513e+03
5.400000e-07	-3.013376e-06	-1.666663e-08	-2.164077e+01	-1.094391e+03
5.500000e-07	-2.917460e-06	-1.645753e-08	-2.095195e+01	-1.080662e+03
5.600000e-07	-2.820478e-06	-1.623772e-08	-2.025546e+01	-1.066286e+03
5.700000e-07	-2.722266e-06	-1.600713e-08	-1.955014e+01	-1.051233e+03
5.800000e-07	-2.622859e-06	-1.576384e-08	-1.883625e+01	-1.035481e+03
5.900000e-07	-2.522479e-06	-1.551136e-08	-1.811536e+01	-1.019011e+03
6.000000e-07	-2.421266e-06	-1.524360e-08	-1.738849e+01	-1.001804e+03
6.100000e-07	-2.319208e-06	-1.496704e-08	-1.665555e+01	-9.838338e+02
6.200000e-07	-2.216307e-06	-1.468115e-08	-1.591656e+01	-9.650590e+02
6.300000e-07	-2.112596e-06	-1.438417e-08	-1.517175e+01	-9.454224e+02
6.400000e-07	-2.008124e-06	-1.407172e-08	-1.442148e+01	-9.248496e+02
6.500000e-07	-1.902918e-06	-1.374215e-08	-1.366594e+01	-9.032523e+02
6.600000e-07	-1.796922e-06	-1.339167e-08	-1.290472e+01	-8.805336e+02
6.700000e-07	-1.690130e-06	-1.301847e-08	-1.213778e+01	-8.565934e+02
6.800000e-07	-1.582658e-06	-1.262752e-08	-1.136597e+01	-8.313329e+02
6.900000e-07	-1.474656e-06	-1.221803e-08	-1.059034e+01	-8.046577e+02
7.000000e-07	-1.366202e-06	-1.179025e-08	-9.811477e+00	-7.764778e+02
7.100000e-07	-1.257369e-06	-1.133841e-08	-9.029885e+00	-7.467075e+02
7.200000e-07	-1.148203e-06	-1.086021e-08	-8.245903e+00	-7.152647e+02
7.300000e-07	-1.038737e-06	-1.035214e-08	-7.459760e+00	-6.820740e+02
7.400000e-07	-9.289393e-07	-9.815952e-09	-6.671242e+00	-6.470729e+02
7.500000e-07	-8.188121e-07	-9.253626e-09	-5.880356e+00	-6.102233e+02
7.600000e-07	-7.084037e-07	-8.663771e-09	-5.087451e+00	-5.715258e+02
7.700000e-07	-5.977431e-07	-8.044018e-09	-4.292734e+00	-5.310353e+02
7.800000e-07	-4.868986e-07	-7.396192e-09	-3.496696e+00	-4.888727e+02
7.900000e-07	-3.759128e-07	-6.729199e-09	-2.699644e+00	-4.452292e+02
8.000000e-07	-2.648685e-07	-6.045791e-09	-1.902172e+00	-4.003600e+02
8.100000e-07	-1.537339e-07	-5.351015e-09	-1.104051e+00	-3.545648e+02
8.200000e-07	-4.245267e-08	-4.648274e-09	-3.048768e-01	-3.081575e+02
8.300000e-07	6.890398e-08	-3.940566e-09	4.948387e-01	-2.614284e+02
8.400000e-07	1.802788e-07	-3.229612e-09	1.294684e+00	-2.146044e+02
8.500000e-07	2.916092e-07	-2.516199e-09	2.094212e+00	-1.678161e+02
8.600000e-07	4.028509e-07	-1.800514e-09	2.893102e+00	-1.210774e+02
8.700000e-07	5.139367e-07	-1.082032e-09	3.690872e+00	-7.428431e+01
8.800000e-07	6.248915e-07	-3.609497e-10	4.487702e+00	-2.723351e+01
8.900000e-07	7.357094e-07	3.642798e-10	5.283548e+00	2.033934e+01
9.000000e-07	8.462510e-07	1.098842e-09	6.077410e+00	6.870823e+01
9.100000e-07	9.564958e-07	1.849319e-09	6.869141e+00	1.181000e+02
9.200000e-07	1.066409e-06	2.617424e-09	7.658492e+00	1.686419e+02
9.300000e-07	1.175956e-06	3.403988e-09	8.445209e+00	2.203227e+02
9.400000e-07	1.285119e-06	4.207664e-09	9.229173e+00	2.729733e+02
9.500000e-07	1.393867e-06	5.022484e-09	1.001016e+01	3.262716e+02
9.600000e-07	1.502231e-06	5.840650e-09	1.078838e+01	3.797691e+02
9.700000e-07	1.610168e-06	6.654201e-09	1.156353e+01	4.329349e+02
9.800000e-07	1.717550e-06	7.453560e-09	1.233470e+01	4.852102e+02
9.900000e-07	1.824198e-06	8.227530e-09	1.310061e+01	5.360632e+02
1.000000e-06	1.930006e-06	8.968358e-09	1.386047e+01	5.850367e+02
1.010000e-06	2.034924e-06	9.672783e-09	1.461395e+01	6.317818e+02
1.020000e-06	2.139006e-06	1.034098e-08	1.536142e+01	6.760740e+02
1.030000e-06	2.242352e-06	1.097081e-08	1.610361e+01	7.178118e+02
1.040000e-06	2.344889e-06	1.156440e-08	1.683999e+01	7.570013e+02
1.050000e-06	2.446564e-06	1.212329e-08	1.757017e+01	7.937303e+02
1.060000e-06	2.547387e-06	1.264777e-08	1.829424e+01	8.281393e+02
1.070000e-06	2.647451e-06	1.313602e-08	1.901286e+01	8.603939e+02
1.080000e-06	2.746712e-06	1.359278e-08	1.972570e+01	8.906630e+02
1.090000e-06	2.844858e-06	1.402390e-08	2.043054e+01	9.191042e+02
1.100000e-06	2.941730e-06	1.443140e-08	2.112624e+01	9.458575e+02
1.110000e-06	3.037446e-06	1.481449e-08	2.181363e+01	9.710448e+02
1.120000e-06	3.132130e-06	1.517535e-08	2.249361e+01	9.947734e+02
1.130000e-06	3.225779e-06	1.551641e-08	2.316616e+01	1.017141e+03
1.140000e-06	3.318405e-06	1.583810e-08	2.383136e+01	1.038239e+03
1.150000e-06	3.410029e-06	1.614101e-08	2.448936e+01	1.058155e+03
1.160000e-06	3.500430e-06	1.642572e-08	2.513858e+01	1.076974e+03
1.170000e-06	3.589405e-06	1.669671e-08	2.577756e+01	1.094776e+03
1.180000e-06	3.677069e-06	1.695393e-08	2.640713e+01	1.111635e+03
1.190000e-06	3.763484e-06	1.719701e-08	2.702772e+01	1.127616e+03
1.200000e-06	3.848641e-06	1.742653e-08	2.763929e+01	1.142776e+03
1.210000e-06	3.932626e-06	1.764277e-08	2.824243e+01	1.157168e+03
1.220000e-06	4.015351e-06	1.784701e-08	2.883652e+01	1.170836e+03
1.230000e-06	4.096590e-06	1.804313e-08	2.941994e+01	1.183822e+03
1.240000e-06	4.176230e-06	1.823093e-08	2.999189e+01	1.196165e+03
1.250000e-06	4.254317e-06	1.841168e-08	3.055268e+01	1.207901e+03
1.260000e-06	4.330874e-06	1.858272e-08	3.110247e+01	1.219065e+03
1.270000e-06	4.405750e-06	1.874493e-08	3.164020e+01	1.229686e+03
1.280000e-06	4.478818e-06	1.889912e-08	3.216494e+01	1.239787e+03
1.290000e-06	4.550143e-06	1.904604e-08	3.267717e+01	1.249385e+03
1.300000e-06	4.619793e-06	1.918533e-08	3.317737e+01	1.258493e+03
1.310000e-06	4.687910e-06	1.931719e-08	3.366655e+01	1.267120e+03
1.320000e-06	4.754372e-06	1.944158e-08	3.414385e+01	1.275272e+03
1.330000e-06	4.818903e-06	1.955816e-08	3.460729e+01	1.282961e+03
1.340000e-06	4.881689e-06	1.966782e-08	3.505819e+01	1.290202e+03
1.350000e-06	4.942900e-06	1.977111e-08	3.549778e+01	1.297017e+03
1.360000e-06	5.002496e-06	1.986952e-08	3.592578e+01	1.303437e+03
1.370000e-06	5.060316e-06	1.996284e-08	3.634101e+01	1.309496e+03
1.380000e-06	5.116244e-06	2.005122e-08	3.674266e+01	1.315229e+03
1.390000e-06	5.170314e-06	2.013295e-08	3.713097e+01	1.320671e+03
1.400000e-06	5.222368e-06	2.021033e-08	3.750480e+01	1.325850e+03
1.410000e-06	5.272180e-06	2.028521e-08	3.786253e+01	1.330786e+03
1.420000e-06	5.319849e-06	2.035737e-08	3.820487e+01	1.335490e+03
1.430000e-06	5.365639e-06	2.042569e-08	3.853371e+01	1.339966e+03
1.440000e-06	5.409766e-06	2.049000e-08	3.885061e+01	1.344208e+03
1.450000e-06	5.451989e-06	2.055163e-08	3.915384e+01	1.348209e+03
1.460000e-06	5.492101e-06	2.060860e-08	3.944191e+01	1.351959e+03
1.470000e-06	5.530330e-06	2.066136e-08	3.971645e+01	1.355453e+03
1.480000e-06	5.566801e-06	2.070950e-08	3.997837e+01	1.358688e+03
1.490000e-06	5.601279e-06	2.075283e-08	4.022597e+01	1.361667e+03
1.500000e-06	5.633633e-06	2.079263e-08	4.045833e+01	1.364398e+03
1.510000e-06	5.664056e-06	2.083010e-08	4.067681e+01	1.366890e+03
1.520000e-06	5.692665e-06	2.086597e-08	4.088227e+01	1.369157e+03
1.530000e-06	5.719284e-06	2.089717e-08	4.107344e+01	1.371211e+03
1.540000e-06	5.743617e-06	2.092379e-08	4.124819e+01	1.373064e+03
1.550000e-06	5.765850e-06	2.094726e-08	4.140785e+01	1.374723e+03
1.560000e-06	5.786260e-06	2.096854e-08	4.155443e+01	1.376197e+03
1.570000e-06	5.804719e-06	2.098789e-08	4.168699e+01	1.377488e+03
1.580000e-06	5.820984e-06	2.100448e-08	4.180381e+01	1.378599e+03
1.590000e-06	5.835046e-06	2.101879e-08	4.190479e+01	1.379531e+03
1.600000e-06	5.846803e-06	2.103080e-08	4.198922e+01	1.380287e+03
1.610000e-06	5.856144e-06	2.103977e-08	4.205631e+01	1.380870e+03
1.620000e-06	5.863309e-06	2.104662e-08	4.210776e+01	1.381284e+03
1.630000e-06	5.868553e-06	2.105169e-08	4.214542e+01	1.381537e+03
1.640000e-06	5.871799e-06	2.105441e-08	4.216874e+01	1.381635e+03
1.650000e-06	5.872852e-06	2.105842e-08	4.217630e+01	1.381587e+03
1.660000e-06	5.871821e-06	2.105499e-08	4.216889e+01	1.381397e+03
1.670000e-06	5.868949e-06	2.104410e-08	4.214827e+01	1.381071e+03
1.680000e-06	5.864203e-06	2.103820e-08	4.211418e+01	1.380607e+03
1.690000e-06	5.857410e-06	2.103002e-08	4.206540e+01	1.380003e+03
1.700000e-06	5.848675e-06	2.101890e-08	4.200267e+01	1.379251e+03
1.710000e-06	5.838214e-06	2.100888e-08	4.192754e+01	1.378344e+03
1.720000e-06	5.825804e-06	2.100618e-08	4.183842e+01	1.377276e+03
1.730000e-06	5.811203e-06	2.100882e-08	4.173356e+01	1.376043e+03
1.740000e-06	5.794622e-06	2.089583e-08	4.161448e+01	1.374648e+03
1.750000e-06	5.775848e-06	2.083467e-08	4.147965e+01	1.373098e+03
1.760000e-06	5.754252e-06	2.087875e-08	4.132456e+01	1.371408e+03
1.770000e-06	5.729904e-06	2.084000e-08	4.114970e+01	1.369596e+03
1.780000e-06	5.703553e-06	2.091024e-08	4.096047e+01	1.367678e+03
1.790000e-06	5.676121e-06	2.092439e-08	4.076346e+01	1.365668e+03
1.800000e-06	5.647811e-06	2.066445e-08	4.056015e+01	1.363571e+03
1.810000e-06	5.617459e-06	2.075070e-08	4.034217e+01	1.361381e+03
1.820000e-06	5.584718e-06	2.074665e-08	4.010705e+01	1.359081e+03
1.830000e-06	5.550329e-06	2.055867e-08	3.986007e+01	1.356647e+03
1.840000e-06	5.513973e-06	2.076207e-08	3.959898e+01	1.354046e+03
1.850000e-06	5.475428e-06	2.060967e-08	3.932217e+01	1.351248e+03
1.860000e-06	5.434959e-06	2.044781e-08	3.903154e+01	1.348228e+03
1.870000e-06	5.392551e-06	2.055532e-08	3.872698e+01	1.344969e+03
1.880000e-06	5.348506e-06	2.037404e-08	3.841067e+01	1.341469e+03
1.890000e-06	5.302580e-06	2.040123e-08	3.808085e+01	1.337733e+03
1.900000e-06	5.254360e-06	2.034117e-08	3.773455e+01	1.333780e+03
1.910000e-06	5.204083e-06	2.017417e-08	3.737349e+01	1.329629e+03
1.920000e-06	5.151600e-06	2.026866e-08	3.699658e+01	1.325298e+03
1.930000e-06	5.097012e-06	2.010003e-08	3.660455e+01	1.320796e+03
1.940000e-06	5.040617e-06	2.005900e-08	3.619954e+01	1.316125e+03
1.950000e-06	4.982394e-06	2.000442e-08	3.578141e+01	1.311273e+03
1.960000e-06	4.922444e-06	1.987623e-08	3.535088e+01	1.306222e+03
1.970000e-06	4.860575e-06	1.986508e-08	3.490656e+01	1.300948e+03
1.980000e-06	4.796792e-06	1.968270e-08	3.444849e+01	1.295428e+03
1.990000e-06	4.731317e-06	1.965995e-08	3.397828e+01	1.289643e+03
2.000000e-06	4.664252e-06	1.958617e-08	3.349665e+01	1.283584e+03
2.010000e-06	4.595540e-06	1.946274e-08	3.300319e+01	1.277247e+03
2.020000e-06	4.524936e-06	1.938808e-08	3.249615e+01	1.270637e+03
2.030000e-06	4.452612e-06	1.921029e-08	3.197675e+01	1.263758e+03
2.040000e-06	4.378701e-06	1.916558e-08	3.144595e+01	1.256614e+03
2.050000e-06	4.303197e-06	1.903932e-08	3.090371e+01	1.249203e+03
2.060000e-06	4.225960e-06	1.892363e-08	3.034903e+01	1.241517e+03
2.070000e-06	4.146991e-06	1.882482e-08	2.978191e+01	1.233537e+03
2.080000e-06	4.066591e-06	1.867338e-08	2.920451e+01	1.225245e+03
2.090000e-06	3.984783e-06	1.855605e-08	2.861699e+01	1.216617e+03
2.100000e-06	3.901643e-06	1.838916e-08	2.801992e+01	1.207636e+03
2.110000e-06	3.817203e-06	1.827804e-08	2.741351e+01	1.198287e+03
2.120000e-06	3.731356e-06	1.813028e-08	2.679699e+01	1.188561e+03
2.130000e-06	3.644132e-06	1.797540e-08	2.617059e+01	1.178453e+03
2.140000e-06	3.555621e-06	1.781714e-08	2.553494e+01	1.167958e+03
2.150000e-06	3.465861e-06	1.764199e-08	2.489032e+01	1.157065e+03
2.160000e-06	3.374909e-06	1.748065e-08	2.423714e+01	1.145755e+03
2.170000e-06	3.282873e-06	1.729761e-08	2.357618e+01	1.133998e+03
2.180000e-06	3.189654e-06	1.712353e-08	2.290672e+01	1.121754e+03
2.190000e-06	3.095154e-06	1.692535e-08	2.222806e+01	1.108977e+03
2.200000e-06	2.999398e-06	1.672483e-08	2.154039e+01	1.095621e+03
2.210000e-06	2.902573e-06	1.651162e-08	2.084503e+01	1.081641e+03
2.220000e-06	2.804763e-06	1.629160e-08	2.014260e+01	1.067002e+03
2.230000e-06	2.705957e-06	1.606188e-08	1.943302e+01	1.051676e+03
2.240000e-06	2.606246e-06	1.581664e-08	1.871694e+01	1.035642e+03
2.250000e-06	2.505593e-06	1.556584e-08	1.799409e+01	1.018885e+03
2.260000e-06	2.403976e-06	1.529573e-08	1.726432e+01	1.001381e+03
2.270000e-06	2.301398e-06	1.501697e-08	1.652765e+01	9.830994e+02
2.280000e-06	2.197849e-06	1.472558e-08	1.578401e+01	9.639929e+02
2.290000e-06	2.093414e-06	1.442637e-08	1.503400e+01	9.439973e+02
2.300000e-06	1.988257e-06	1.410810e-08	1.427881e+01	9.230323e+02
2.310000e-06	1.882499e-06	1.377489e-08	1.351929e+01	9.010054e+02
2.320000e-06	1.776130e-06	1.342481e-08	1.275540e+01	8.778179e+02
2.330000e-06	1.669193e-06	1.305340e-08	1.198742e+01	8.533697e+02
2.340000e-06	1.561772e-06	1.265963e-08	1.121597e+01	8.275635e+02
2.350000e-06	1.453919e-06	1.224215e-08	1.044142e+01	8.003068e+02
2.360000e-06	1.345663e-06	1.180632e-08	9.663976e+00	7.715112e+02
2.370000e-06	1.237037e-06	1.134717e-08	8.883866e+00	7.410925e+02
2.380000e-06	1.128100e-06	1.086289e-08	8.101530e+00	7.089706e+02
2.390000e-06	1.018784e-06	1.034745e-08	7.316470e+00	6.750742e+02
2.400000e-06	9.090710e-07	9.800021e-09	6.528557e+00	6.393487e+02
2.410000e-06	7.990408e-07	9.223629e-09	5.738368e+00	6.017695e+02
2.420000e-06	6.886821e-07	8.622259e-09	4.945819e+00	5.623567e+02
2.430000e-06	5.780463e-07	7.995332e-09	4.151280e+00	5.211901e+02
2.440000e-06	4.672695e-07	7.345528e-09	3.355729e+00	4.784182e+02
2.450000e-06	3.563880e-07	6.673844e-09	2.559425e+00	4.342588e+02
2.460000e-06	2.453423e-07	5.980944e-09	1.761943e+00	3.889876e+02
2.470000e-06	1.341385e-07	5.275503e-09	9.633253e-01	3.429140e+02
2.480000e-06	2.291579e-08	4.562270e-09	1.645714e-01	2.963475e+02
2.490000e-06	-8.834004e-08	3.845428e-09	-6.344202e-01	2.495578e+02
2.500000e-06	-1.995824e-07	3.128832e-09	-1.433315e+00	2.027376e+02
2.510000e-06	-3.106932e-07	2.415662e-09	-2.231265e+00	1.559729e+02
2.520000e-06	-4.216826e-07	1.704828e-09	-3.028343e+00	1.092305e+02
2.530000e-06	-5.325591e-07	9.892656e-10	-3.824610e+00	6.236393e+01
2.540000e-06	-6.432192e-07	2.667421e-10	-4.619323e+00	1.514045e+01
2.550000e-06	-7.536251e-07	-4.638670e-10	-5.412211e+00	-3.271470e+01
2.560000e-06	-8.637541e-07	-1.206845e-09	-6.203110e+00	-8.146373e+01
2.570000e-06	-9.734719e-07	-1.967303e-09	-6.991056e+00	-1.313001e+02
2.580000e-06	-1.082780e-06	-2.747158e-09	-7.776063e+00	-1.823002e+02
2.590000e-06	-1.191712e-06	-3.541291e-09	-8.558366e+00	-2.343918e+02
2.600000e-06	-1.300292e-06	-4.348801e-09	-9.338137e+00	-2.873440e+02
2.610000e-06	-1.408502e-06	-5.165021e-09	-1.011526e+01	-3.407807e+02
2.620000e-06	-1.516275e-06	-5.979764e-09	-1.088923e+01	-3.942148e+02
2.630000e-06	-1.623581e-06	-6.785089e-09	-1.165986e+01	-4.470980e+02
2.640000e-06	-1.730357e-06	-7.574826e-09	-1.242668e+01	-4.988757e+02
2.650000e-06	-1.836496e-06	-8.343442e-09	-1.318893e+01	-5.490403e+02
2.660000e-06	-1.941997e-06	-9.083453e-09	-1.394659e+01	-5.971742e+02
2.670000e-06	-2.046812e-06	-9.789308e-09	-1.469932e+01	-6.429763e+02
2.680000e-06	-2.150871e-06	-1.045528e-08	-1.544663e+01	-6.862715e+02
2.690000e-06	-2.254084e-06	-1.107853e-08	-1.618786e+01	-7.270032e+02
2.700000e-06	-2.356291e-06	-1.166326e-08	-1.692187e+01	-7.652130e+02
2.710000e-06	-2.457475e-06	-1.221509e-08	-1.764853e+01	-8.010127e+02
2.720000e-06	-2.557682e-06	-1.273278e-08	-1.836817e+01	-8.345559e+02
2.730000e-06	-2.656996e-06	-1.321528e-08	-1.908140e+01	-8.660116e+02
2.740000e-06	-2.755459e-06	-1.366791e-08	-1.978852e+01	-8.955456e+02
2.750000e-06	-2.853009e-06	-1.409332e-08	-2.048908e+01	-9.233090e+02
2.760000e-06	-2.949607e-06	-1.449384e-08	-2.118281e+01	-9.494343e+02
2.770000e-06	-3.045327e-06	-1.487084e-08	-2.187023e+01	-9.740373e+02
2.780000e-06	-3.140055e-06	-1.522422e-08	-2.255052e+01	-9.972208e+02
2.790000e-06	-3.233533e-06	-1.555732e-08	-2.322184e+01	-1.019080e+03
2.800000e-06	-3.325770e-06	-1.587129e-08	-2.388425e+01	-1.039704e+03
2.810000e-06	-3.416795e-06	-1.616986e-08	-2.453795e+01	-1.059180e+03
2.820000e-06	-3.506535e-06	-1.645396e-08	-2.518242e+01	-1.077591e+03
2.830000e-06	-3.595063e-06	-1.672086e-08	-2.581819e+01	-1.095015e+03
2.840000e-06	-3.682462e-06	-1.697434e-08	-2.644586e+01	-1.111523e+03
2.850000e-06	-3.768465e-06	-1.721511e-08	-2.706349e+01	-1.127176e+03
2.860000e-06	-3.853034e-06	-1.744437e-08	-2.767084e+01	-1.142030e+03
2.870000e-06	-3.936326e-06	-1.766270e-08	-2.826900e+01	-1.156133e+03
2.880000e-06	-4.018227e-06	-1.787052e-08	-2.885717e+01	-1.169529e+03
2.890000e-06	-4.098726e-06	-1.806683e-08	-2.943529e+01	-1.182258e+03
2.900000e-06	-4.177722e-06	-1.825009e-08	-3.000260e+01	-1.194360e+03
2.910000e-06	-4.254969e-06	-1.842472e-08	-3.055736e+01	-1.205868e+03
2.920000e-06	-4.330535e-06	-1.859118e-08	-3.110004e+01	-1.216817e+03
2.930000e-06	-4.404484e-06	-1.874921e-08	-3.163111e+01	-1.227231e+03
2.940000e-06	-4.476819e-06	-1.889894e-08	-3.215059e+01	-1.237134e+03
