# Temperatura_=_81.45
# Concentracion g/m^3_=_28200.0
# C_Vs_to_Am_M_A/Vsm_=_65563218390.804596
# pendiente_HvsI_1/m_=_3716.3
# ordenada_HvsI_A/m_=_1297.0
# frecuencia_Hz_=_301917.52554867975

Tiempo_(s)	Campo_(V.s)	Magnetizacion_(V.s)	Campo_(kA/m)	Magnetizacion_(A/m)
0.000000e+00	-5.837529e-06	-2.464193e-08	-4.195318e+01	-1.615156e+03
1.000000e-08	-5.835385e-06	-2.463812e-08	-4.193777e+01	-1.614729e+03
2.000000e-08	-5.831239e-06	-2.462867e-08	-4.190797e+01	-1.614138e+03
3.000000e-08	-5.825267e-06	-2.461649e-08	-4.186505e+01	-1.613381e+03
4.000000e-08	-5.817545e-06	-2.460164e-08	-4.180956e+01	-1.612451e+03
5.000000e-08	-5.807844e-06	-2.458119e-08	-4.173984e+01	-1.611334e+03
6.000000e-08	-5.795902e-06	-2.455722e-08	-4.165402e+01	-1.610021e+03
7.000000e-08	-5.781858e-06	-2.452568e-08	-4.155308e+01	-1.608501e+03
8.000000e-08	-5.765582e-06	-2.450254e-08	-4.143611e+01	-1.606774e+03
9.000000e-08	-5.747153e-06	-2.453527e-08	-4.130366e+01	-1.604845e+03
1.000000e-07	-5.726673e-06	-2.452274e-08	-4.115648e+01	-1.602734e+03
1.100000e-07	-5.704050e-06	-2.444212e-08	-4.099389e+01	-1.600464e+03
1.200000e-07	-5.679222e-06	-2.439762e-08	-4.081546e+01	-1.598063e+03
1.300000e-07	-5.652351e-06	-2.432020e-08	-4.062234e+01	-1.595555e+03
1.400000e-07	-5.623960e-06	-2.419784e-08	-4.041830e+01	-1.592954e+03
1.500000e-07	-5.594118e-06	-2.427390e-08	-4.020383e+01	-1.590257e+03
1.600000e-07	-5.562541e-06	-2.425047e-08	-3.997689e+01	-1.587447e+03
1.700000e-07	-5.529212e-06	-2.412287e-08	-3.973737e+01	-1.584489e+03
1.800000e-07	-5.493998e-06	-2.419752e-08	-3.948429e+01	-1.581338e+03
1.900000e-07	-5.456710e-06	-2.408424e-08	-3.921630e+01	-1.577947e+03
2.000000e-07	-5.417586e-06	-2.396482e-08	-3.893513e+01	-1.574277e+03
2.100000e-07	-5.376568e-06	-2.398787e-08	-3.864034e+01	-1.570303e+03
2.200000e-07	-5.333416e-06	-2.386593e-08	-3.833021e+01	-1.566019e+03
2.300000e-07	-5.288230e-06	-2.378551e-08	-3.800547e+01	-1.561438e+03
2.400000e-07	-5.240984e-06	-2.374573e-08	-3.766592e+01	-1.556587e+03
2.500000e-07	-5.191466e-06	-2.365174e-08	-3.731005e+01	-1.551499e+03
2.600000e-07	-5.139625e-06	-2.360491e-08	-3.693748e+01	-1.546203e+03
2.700000e-07	-5.085731e-06	-2.349941e-08	-3.655015e+01	-1.540716e+03
2.800000e-07	-5.030088e-06	-2.338715e-08	-3.615026e+01	-1.535039e+03
2.900000e-07	-4.972577e-06	-2.329243e-08	-3.573694e+01	-1.529153e+03
3.000000e-07	-4.913125e-06	-2.321200e-08	-3.530966e+01	-1.523026e+03
3.100000e-07	-4.851851e-06	-2.313616e-08	-3.486930e+01	-1.516619e+03
3.200000e-07	-4.788856e-06	-2.302937e-08	-3.441657e+01	-1.509896e+03
3.300000e-07	-4.724151e-06	-2.292717e-08	-3.395155e+01	-1.502832e+03
3.400000e-07	-4.657602e-06	-2.278389e-08	-3.347327e+01	-1.495418e+03
3.500000e-07	-4.589249e-06	-2.265552e-08	-3.298203e+01	-1.487660e+03
3.600000e-07	-4.519266e-06	-2.254619e-08	-3.247908e+01	-1.479577e+03
3.700000e-07	-4.447855e-06	-2.242803e-08	-3.196586e+01	-1.471194e+03
3.800000e-07	-4.374859e-06	-2.232020e-08	-3.144125e+01	-1.462527e+03
3.900000e-07	-4.299923e-06	-2.217153e-08	-3.090270e+01	-1.453584e+03
4.000000e-07	-4.223222e-06	-2.200702e-08	-3.035147e+01	-1.444354e+03
4.100000e-07	-4.144883e-06	-2.185962e-08	-2.978846e+01	-1.434810e+03
4.200000e-07	-4.064817e-06	-2.171327e-08	-2.921304e+01	-1.424915e+03
4.300000e-07	-3.983290e-06	-2.156266e-08	-2.862712e+01	-1.414629e+03
4.400000e-07	-3.900546e-06	-2.139648e-08	-2.803246e+01	-1.403916e+03
4.500000e-07	-3.816607e-06	-2.122994e-08	-2.742921e+01	-1.392753e+03
4.600000e-07	-3.731520e-06	-2.104713e-08	-2.681771e+01	-1.381130e+03
4.700000e-07	-3.645272e-06	-2.086229e-08	-2.619785e+01	-1.369052e+03
4.800000e-07	-3.557873e-06	-2.067932e-08	-2.556973e+01	-1.356526e+03
4.900000e-07	-3.469273e-06	-2.048207e-08	-2.493299e+01	-1.343560e+03
5.000000e-07	-3.379157e-06	-2.027719e-08	-2.428534e+01	-1.330149e+03
5.100000e-07	-3.287607e-06	-2.006070e-08	-2.362739e+01	-1.316271e+03
5.200000e-07	-3.194962e-06	-1.983765e-08	-2.296157e+01	-1.301886e+03
5.300000e-07	-3.101233e-06	-1.960223e-08	-2.228795e+01	-1.286942e+03
5.400000e-07	-3.006428e-06	-1.936202e-08	-2.160661e+01	-1.271377e+03
5.500000e-07	-2.910619e-06	-1.911529e-08	-2.091805e+01	-1.255132e+03
5.600000e-07	-2.813629e-06	-1.885771e-08	-2.022100e+01	-1.238161e+03
5.700000e-07	-2.715273e-06	-1.858910e-08	-1.951414e+01	-1.220429e+03
5.800000e-07	-2.615777e-06	-1.830733e-08	-1.879907e+01	-1.201914e+03
5.900000e-07	-2.515441e-06	-1.801415e-08	-1.807798e+01	-1.182603e+03
6.000000e-07	-2.414267e-06	-1.770104e-08	-1.735086e+01	-1.162480e+03
6.100000e-07	-2.312165e-06	-1.737433e-08	-1.661708e+01	-1.141516e+03
6.200000e-07	-2.209204e-06	-1.703857e-08	-1.587712e+01	-1.119661e+03
6.300000e-07	-2.105516e-06	-1.669103e-08	-1.513193e+01	-1.096841e+03
6.400000e-07	-2.001140e-06	-1.632689e-08	-1.438180e+01	-1.072960e+03
6.500000e-07	-1.896002e-06	-1.594288e-08	-1.362619e+01	-1.047906e+03
6.600000e-07	-1.789977e-06	-1.553877e-08	-1.286422e+01	-1.021558e+03
6.700000e-07	-1.683093e-06	-1.511235e-08	-1.209606e+01	-9.937998e+02
6.800000e-07	-1.575606e-06	-1.466606e-08	-1.132357e+01	-9.645222e+02
6.900000e-07	-1.467685e-06	-1.419706e-08	-1.054797e+01	-9.336243e+02
7.000000e-07	-1.359350e-06	-1.370232e-08	-9.769380e+00	-9.010102e+02
7.100000e-07	-1.250645e-06	-1.317751e-08	-8.988140e+00	-8.665819e+02
7.200000e-07	-1.141556e-06	-1.261938e-08	-8.204138e+00	-8.302343e+02
7.300000e-07	-1.032087e-06	-1.202826e-08	-7.417409e+00	-7.918540e+02
7.400000e-07	-9.223097e-07	-1.140895e-08	-6.628459e+00	-7.513265e+02
7.500000e-07	-8.122087e-07	-1.076087e-08	-5.837185e+00	-7.085529e+02
7.600000e-07	-7.018556e-07	-1.007740e-08	-5.044099e+00	-6.634731e+02
7.700000e-07	-5.913162e-07	-9.354844e-09	-4.249673e+00	-6.160915e+02
7.800000e-07	-4.805699e-07	-8.594765e-09	-3.453762e+00	-5.664995e+02
7.900000e-07	-3.696880e-07	-7.803085e-09	-2.656875e+00	-5.148858e+02
8.000000e-07	-2.586645e-07	-6.986397e-09	-1.858971e+00	-4.615315e+02
8.100000e-07	-1.475032e-07	-6.154588e-09	-1.060077e+00	-4.067854e+02
8.200000e-07	-3.620799e-08	-5.310734e-09	-2.602197e-01	-3.510225e+02
8.300000e-07	7.515574e-08	-4.456407e-09	5.401296e-01	-2.945923e+02
8.400000e-07	1.864618e-07	-3.593809e-09	1.340064e+00	-2.377650e+02
8.500000e-07	2.976919e-07	-2.722876e-09	2.139453e+00	-1.806893e+02
8.600000e-07	4.088248e-07	-1.844267e-09	2.938144e+00	-1.233689e+02
8.700000e-07	5.198483e-07	-9.591151e-10	3.736048e+00	-6.566765e+01
8.800000e-07	6.307256e-07	-6.741423e-11	4.532901e+00	-7.342588e+00
8.900000e-07	7.414183e-07	8.335876e-10	5.328428e+00	5.189808e+01
9.000000e-07	8.519296e-07	1.750529e-09	6.122651e+00	1.123222e+02
9.100000e-07	9.621677e-07	2.688345e-09	6.914911e+00	1.740989e+02
9.200000e-07	1.072040e-06	3.647495e-09	7.704542e+00	2.372369e+02
9.300000e-07	1.181553e-06	4.626883e-09	8.491586e+00	3.015461e+02
9.400000e-07	1.290677e-06	5.620114e-09	9.275844e+00	3.666323e+02
9.500000e-07	1.399355e-06	6.615424e-09	1.005689e+01	4.319243e+02
9.600000e-07	1.507606e-06	7.602004e-09	1.083487e+01	4.967303e+02
9.700000e-07	1.615450e-06	8.569844e-09	1.160992e+01	5.603118e+02
9.800000e-07	1.722813e-06	9.505895e-09	1.238152e+01	6.219630e+02
9.900000e-07	1.829430e-06	1.040010e-08	1.314776e+01	6.810817e+02
1.000000e-06	1.935077e-06	1.124809e-08	1.390702e+01	7.372208e+02
1.010000e-06	2.039828e-06	1.204815e-08	1.465985e+01	7.901124e+02
1.020000e-06	2.143856e-06	1.279953e-08	1.540747e+01	8.396664e+02
1.030000e-06	2.247103e-06	1.350093e-08	1.614949e+01	8.859438e+02
1.040000e-06	2.349458e-06	1.415715e-08	1.688509e+01	9.291156e+02
1.050000e-06	2.450970e-06	1.477160e-08	1.761464e+01	9.694156e+02
1.060000e-06	2.551672e-06	1.534659e-08	1.833837e+01	1.007097e+03
1.070000e-06	2.651633e-06	1.588225e-08	1.905677e+01	1.042398e+03
1.080000e-06	2.750724e-06	1.638129e-08	1.976892e+01	1.075527e+03
1.090000e-06	2.848648e-06	1.685023e-08	2.047267e+01	1.106654e+03
1.100000e-06	2.945360e-06	1.729304e-08	2.116772e+01	1.135916e+03
1.110000e-06	3.040922e-06	1.771140e-08	2.185451e+01	1.163436e+03
1.120000e-06	3.135403e-06	1.810715e-08	2.253353e+01	1.189328e+03
1.130000e-06	3.228870e-06	1.848034e-08	2.320525e+01	1.213708e+03
1.140000e-06	3.321380e-06	1.883040e-08	2.387011e+01	1.236697e+03
1.150000e-06	3.412975e-06	1.916069e-08	2.452838e+01	1.258421e+03
1.160000e-06	3.503262e-06	1.947545e-08	2.517726e+01	1.278996e+03
1.170000e-06	3.592008e-06	1.977510e-08	2.581506e+01	1.298529e+03
1.180000e-06	3.679431e-06	2.005824e-08	2.644335e+01	1.317104e+03
1.190000e-06	3.765644e-06	2.032582e-08	2.706295e+01	1.334783e+03
1.200000e-06	3.850686e-06	2.057908e-08	2.767413e+01	1.351611e+03
1.210000e-06	3.934586e-06	2.082062e-08	2.827710e+01	1.367618e+03
1.220000e-06	4.017132e-06	2.105127e-08	2.887034e+01	1.382829e+03
1.230000e-06	4.098135e-06	2.127181e-08	2.945249e+01	1.397275e+03
1.240000e-06	4.177599e-06	2.148142e-08	3.002358e+01	1.410992e+03
1.250000e-06	4.255529e-06	2.167950e-08	3.058365e+01	1.424027e+03
1.260000e-06	4.331946e-06	2.186718e-08	3.113285e+01	1.436435e+03
1.270000e-06	4.406667e-06	2.204737e-08	3.166985e+01	1.448268e+03
1.280000e-06	4.479537e-06	2.221970e-08	3.219356e+01	1.459575e+03
1.290000e-06	4.550675e-06	2.238404e-08	3.270481e+01	1.470393e+03
1.300000e-06	4.620174e-06	2.254117e-08	3.320429e+01	1.480741e+03
1.310000e-06	4.688136e-06	2.269284e-08	3.369271e+01	1.490625e+03
1.320000e-06	4.754452e-06	2.283944e-08	3.416932e+01	1.500039e+03
1.330000e-06	4.818906e-06	2.297856e-08	3.463253e+01	1.508974e+03
1.340000e-06	4.881584e-06	2.310813e-08	3.508299e+01	1.517421e+03
1.350000e-06	4.942629e-06	2.322986e-08	3.552171e+01	1.525381e+03
1.360000e-06	5.002052e-06	2.334524e-08	3.594877e+01	1.532865e+03
1.370000e-06	5.059690e-06	2.345302e-08	3.636300e+01	1.539898e+03
1.380000e-06	5.115463e-06	2.355335e-08	3.676383e+01	1.546517e+03
1.390000e-06	5.169369e-06	2.364732e-08	3.715124e+01	1.552761e+03
1.400000e-06	5.221258e-06	2.373740e-08	3.752416e+01	1.558673e+03
1.410000e-06	5.270888e-06	2.382464e-08	3.788084e+01	1.564289e+03
1.420000e-06	5.318392e-06	2.390839e-08	3.822224e+01	1.569636e+03
1.430000e-06	5.364107e-06	2.398788e-08	3.855079e+01	1.574732e+03
1.440000e-06	5.408149e-06	2.406214e-08	3.886731e+01	1.579584e+03
1.450000e-06	5.450254e-06	2.413195e-08	3.916991e+01	1.584190e+03
1.460000e-06	5.490242e-06	2.419828e-08	3.945729e+01	1.588542e+03
1.470000e-06	5.528349e-06	2.426130e-08	3.973116e+01	1.592633e+03
1.480000e-06	5.564711e-06	2.431976e-08	3.999248e+01	1.596452e+03
1.490000e-06	5.599146e-06	2.437345e-08	4.023996e+01	1.599996e+03
1.500000e-06	5.631428e-06	2.442406e-08	4.047197e+01	1.603262e+03
1.510000e-06	5.661723e-06	2.447162e-08	4.068969e+01	1.606252e+03
1.520000e-06	5.690204e-06	2.451563e-08	4.089438e+01	1.608973e+03
1.530000e-06	5.716681e-06	2.455463e-08	4.108466e+01	1.611433e+03
1.540000e-06	5.740942e-06	2.458777e-08	4.125902e+01	1.613641e+03
1.550000e-06	5.763098e-06	2.461693e-08	4.141825e+01	1.615606e+03
1.560000e-06	5.783396e-06	2.464384e-08	4.156413e+01	1.617335e+03
1.570000e-06	5.801682e-06	2.466718e-08	4.169555e+01	1.618836e+03
1.580000e-06	5.817691e-06	2.468538e-08	4.181060e+01	1.620112e+03
1.590000e-06	5.831511e-06	2.470067e-08	4.190993e+01	1.621167e+03
1.600000e-06	5.843155e-06	2.471468e-08	4.199361e+01	1.622004e+03
1.610000e-06	5.852474e-06	2.472613e-08	4.206058e+01	1.622628e+03
1.620000e-06	5.859516e-06	2.473566e-08	4.211119e+01	1.623044e+03
1.630000e-06	5.864524e-06	2.474245e-08	4.214718e+01	1.623259e+03
1.640000e-06	5.867600e-06	2.474462e-08	4.216929e+01	1.623283e+03
1.650000e-06	5.868575e-06	2.474407e-08	4.217630e+01	1.623127e+03
1.660000e-06	5.867484e-06	2.473590e-08	4.216846e+01	1.622800e+03
1.670000e-06	5.864510e-06	2.472421e-08	4.214708e+01	1.622307e+03
1.680000e-06	5.859590e-06	2.471570e-08	4.211172e+01	1.621650e+03
1.690000e-06	5.852635e-06	2.470582e-08	4.206174e+01	1.620824e+03
1.700000e-06	5.843784e-06	2.469373e-08	4.199813e+01	1.619820e+03
1.710000e-06	5.833220e-06	2.468037e-08	4.192221e+01	1.618626e+03
1.720000e-06	5.820648e-06	2.467142e-08	4.183186e+01	1.617231e+03
1.730000e-06	5.805908e-06	2.465092e-08	4.172592e+01	1.615628e+03
1.740000e-06	5.789255e-06	2.454706e-08	4.160624e+01	1.613818e+03
1.750000e-06	5.770400e-06	2.449782e-08	4.147073e+01	1.611814e+03
1.760000e-06	5.748688e-06	2.451330e-08	4.131469e+01	1.609635e+03
1.770000e-06	5.724270e-06	2.447763e-08	4.113921e+01	1.607309e+03
1.780000e-06	5.697938e-06	2.453526e-08	4.094996e+01	1.604862e+03
1.790000e-06	5.670476e-06	2.449473e-08	4.075260e+01	1.602315e+03
1.800000e-06	5.642041e-06	2.430450e-08	4.054824e+01	1.599676e+03
1.810000e-06	5.611606e-06	2.435655e-08	4.032951e+01	1.596937e+03
1.820000e-06	5.578883e-06	2.429543e-08	4.009434e+01	1.594072e+03
1.830000e-06	5.544438e-06	2.419501e-08	3.984679e+01	1.591042e+03
1.840000e-06	5.507995e-06	2.431645e-08	3.958488e+01	1.587800e+03
1.850000e-06	5.469373e-06	2.415743e-08	3.930731e+01	1.584302e+03
1.860000e-06	5.428775e-06	2.406235e-08	3.901554e+01	1.580513e+03
1.870000e-06	5.386235e-06	2.409500e-08	3.870982e+01	1.576416e+03
1.880000e-06	5.342071e-06	2.394252e-08	3.839242e+01	1.572011e+03
1.890000e-06	5.296080e-06	2.392971e-08	3.806189e+01	1.567319e+03
1.900000e-06	5.247911e-06	2.380974e-08	3.771571e+01	1.562369e+03
1.910000e-06	5.197674e-06	2.369301e-08	3.735466e+01	1.557194e+03
1.920000e-06	5.145231e-06	2.373948e-08	3.697777e+01	1.551821e+03
1.930000e-06	5.090699e-06	2.359834e-08	3.658586e+01	1.546259e+03
1.940000e-06	5.034262e-06	2.353176e-08	3.618026e+01	1.540501e+03
1.950000e-06	4.975979e-06	2.342009e-08	3.576139e+01	1.534523e+03
1.960000e-06	4.915928e-06	2.329879e-08	3.532981e+01	1.528289e+03
1.970000e-06	4.854000e-06	2.322708e-08	3.488475e+01	1.521761e+03
1.980000e-06	4.790194e-06	2.306088e-08	3.442618e+01	1.514904e+03
1.990000e-06	4.724635e-06	2.302723e-08	3.395503e+01	1.507701e+03
2.000000e-06	4.657506e-06	2.292417e-08	3.347259e+01	1.500149e+03
2.010000e-06	4.588762e-06	2.277944e-08	3.297853e+01	1.492259e+03
2.020000e-06	4.518084e-06	2.264184e-08	3.247058e+01	1.484054e+03
2.030000e-06	4.445668e-06	2.247234e-08	3.195015e+01	1.475556e+03
2.040000e-06	4.371719e-06	2.239996e-08	3.141869e+01	1.466779e+03
2.050000e-06	4.296183e-06	2.225559e-08	3.087582e+01	1.457724e+03
2.060000e-06	4.218911e-06	2.211973e-08	3.032049e+01	1.448373e+03
2.070000e-06	4.139911e-06	2.197559e-08	2.975273e+01	1.438695e+03
2.080000e-06	4.059459e-06	2.179947e-08	2.917453e+01	1.428649e+03
2.090000e-06	3.977603e-06	2.163931e-08	2.858626e+01	1.418198e+03
2.100000e-06	3.894455e-06	2.145924e-08	2.798869e+01	1.407308e+03
2.110000e-06	3.810063e-06	2.131422e-08	2.738218e+01	1.395963e+03
2.120000e-06	3.724246e-06	2.113168e-08	2.676542e+01	1.384159e+03
2.130000e-06	3.636963e-06	2.094541e-08	2.613814e+01	1.371902e+03
2.140000e-06	3.548381e-06	2.075005e-08	2.550152e+01	1.359202e+03
2.150000e-06	3.458608e-06	2.054508e-08	2.485634e+01	1.346061e+03
2.160000e-06	3.367667e-06	2.034508e-08	2.420277e+01	1.332468e+03
2.170000e-06	3.275666e-06	2.013166e-08	2.354157e+01	1.318395e+03
2.180000e-06	3.182516e-06	1.991522e-08	2.287212e+01	1.303796e+03
2.190000e-06	3.087958e-06	1.967582e-08	2.219255e+01	1.288613e+03
2.200000e-06	2.992130e-06	1.943483e-08	2.150385e+01	1.272787e+03
2.210000e-06	2.895340e-06	1.918352e-08	2.080824e+01	1.256260e+03
2.220000e-06	2.797591e-06	1.892415e-08	2.010574e+01	1.238992e+03
2.230000e-06	2.698857e-06	1.865230e-08	1.939615e+01	1.220952e+03
2.240000e-06	2.599221e-06	1.837079e-08	1.868009e+01	1.202124e+03
2.250000e-06	2.498709e-06	1.808238e-08	1.795773e+01	1.182495e+03
2.260000e-06	2.397225e-06	1.777035e-08	1.722838e+01	1.162045e+03
2.270000e-06	2.294649e-06	1.743830e-08	1.649119e+01	1.140736e+03
2.280000e-06	2.191071e-06	1.709241e-08	1.574680e+01	1.118511e+03
2.290000e-06	2.086688e-06	1.674026e-08	1.499662e+01	1.095286e+03
2.300000e-06	1.981600e-06	1.637208e-08	1.424137e+01	1.070956e+03
2.310000e-06	1.875860e-06	1.598841e-08	1.348144e+01	1.045406e+03
2.320000e-06	1.769503e-06	1.558509e-08	1.271707e+01	1.018516e+03
2.330000e-06	1.662570e-06	1.515528e-08	1.194856e+01	9.901724e+02
2.340000e-06	1.555117e-06	1.469381e-08	1.117632e+01	9.602683e+02
2.350000e-06	1.447231e-06	1.420746e-08	1.040096e+01	9.287061e+02
2.360000e-06	1.338994e-06	1.370398e-08	9.623088e+00	8.953897e+02
2.370000e-06	1.230483e-06	1.317413e-08	8.843237e+00	8.602189e+02
2.380000e-06	1.121723e-06	1.261070e-08	8.061605e+00	8.230850e+02
2.390000e-06	1.012567e-06	1.200867e-08	7.277121e+00	7.838728e+02
2.400000e-06	9.029685e-07	1.136998e-08	6.489458e+00	7.424716e+02
2.410000e-06	7.930049e-07	1.069909e-08	5.699171e+00	6.987946e+02
2.420000e-06	6.827165e-07	1.000022e-08	4.906550e+00	6.528041e+02
2.430000e-06	5.721408e-07	9.271458e-09	4.111864e+00	6.045363e+02
2.440000e-06	4.613436e-07	8.508856e-09	3.315586e+00	5.541206e+02
2.450000e-06	3.504119e-07	7.711528e-09	2.518342e+00	5.017835e+02
2.460000e-06	2.393862e-07	6.883371e-09	1.720422e+00	4.478368e+02
2.470000e-06	1.282788e-07	6.034102e-09	9.219147e-01	3.926451e+02
2.480000e-06	1.710521e-08	5.174752e-09	1.229318e-01	3.365801e+02
2.490000e-06	-9.411175e-08	4.310516e-09	-6.763627e-01	2.799661e+02
2.500000e-06	-2.052555e-07	3.441500e-09	-1.475131e+00	2.230297e+02
2.510000e-06	-3.162562e-07	2.569313e-09	-2.272871e+00	1.658640e+02
2.520000e-06	-4.272044e-07	1.692483e-09	-3.070235e+00	1.084156e+02
2.530000e-06	-5.380241e-07	8.080765e-10	-3.866674e+00	5.050096e+01
2.540000e-06	-6.486340e-07	-8.659431e-11	-4.661605e+00	-8.150175e+00
2.550000e-06	-7.589905e-07	-9.971325e-10	-5.454716e+00	-6.782923e+01
2.560000e-06	-8.689798e-07	-1.926158e-09	-6.245188e+00	-1.287738e+02
2.570000e-06	-9.786182e-07	-2.875595e-09	-7.033137e+00	-1.910963e+02
2.580000e-06	-1.087901e-06	-3.846848e-09	-7.818534e+00	-2.547302e+02
2.590000e-06	-1.196830e-06	-4.837024e-09	-8.601381e+00	-3.194040e+02
2.600000e-06	-1.305370e-06	-5.839156e-09	-9.381437e+00	-3.846489e+02
2.610000e-06	-1.413519e-06	-6.839769e-09	-1.015869e+01	-4.498384e+02
2.620000e-06	-1.521298e-06	-7.824877e-09	-1.093327e+01	-5.142528e+02
2.630000e-06	-1.628592e-06	-8.784936e-09	-1.170437e+01	-5.771574e+02
2.640000e-06	-1.735288e-06	-9.711933e-09	-1.247117e+01	-6.378793e+02
2.650000e-06	-1.841340e-06	-1.059996e-08	-1.323335e+01	-6.958727e+02
2.660000e-06	-1.946711e-06	-1.144344e-08	-1.399063e+01	-7.507593e+02
2.670000e-06	-2.051368e-06	-1.223670e-08	-1.474278e+01	-8.023429e+02
2.680000e-06	-2.155326e-06	-1.297781e-08	-1.548990e+01	-8.505968e+02
2.690000e-06	-2.258446e-06	-1.366748e-08	-1.623101e+01	-8.956308e+02
2.700000e-06	-2.360491e-06	-1.431093e-08	-1.696439e+01	-9.376461e+02
2.710000e-06	-2.461472e-06	-1.491470e-08	-1.769012e+01	-9.768888e+02
2.720000e-06	-2.561580e-06	-1.548193e-08	-1.840957e+01	-1.013610e+03
2.730000e-06	-2.660836e-06	-1.601107e-08	-1.912291e+01	-1.048037e+03
2.740000e-06	-2.759172e-06	-1.650500e-08	-1.982963e+01	-1.080362e+03
2.750000e-06	-2.856551e-06	-1.696839e-08	-2.052948e+01	-1.110743e+03
2.760000e-06	-2.953032e-06	-1.740247e-08	-2.122287e+01	-1.139308e+03
2.770000e-06	-3.048676e-06	-1.781251e-08	-2.191024e+01	-1.166177e+03
2.780000e-06	-3.143247e-06	-1.820138e-08	-2.258990e+01	-1.191462e+03
2.790000e-06	-3.236540e-06	-1.856919e-08	-2.326038e+01	-1.215282e+03
2.800000e-06	-3.328593e-06	-1.891440e-08	-2.392194e+01	-1.237761e+03
2.810000e-06	-3.419427e-06	-1.923759e-08	-2.457475e+01	-1.259022e+03
2.820000e-06	-3.509080e-06	-1.954383e-08	-2.521907e+01	-1.279178e+03
2.830000e-06	-3.597611e-06	-1.983639e-08	-2.585533e+01	-1.298327e+03
2.840000e-06	-3.684914e-06	-2.011613e-08	-2.648275e+01	-1.316545e+03
2.850000e-06	-3.770754e-06	-2.038232e-08	-2.709967e+01	-1.333887e+03
2.860000e-06	-3.855181e-06	-2.063461e-08	-2.770643e+01	-1.350390e+03
2.870000e-06	-3.938330e-06	-2.087383e-08	-2.830401e+01	-1.366083e+03
2.880000e-06	-4.020128e-06	-2.110206e-08	-2.889187e+01	-1.380992e+03
2.890000e-06	-4.100607e-06	-2.132025e-08	-2.947026e+01	-1.395148e+03
2.900000e-06	-4.179530e-06	-2.152687e-08	-3.003746e+01	-1.408592e+03
2.910000e-06	-4.256606e-06	-2.172409e-08	-3.059139e+01	-1.421376e+03
2.920000e-06	-4.331957e-06	-2.191166e-08	-3.113292e+01	-1.433553e+03
2.930000e-06	-4.405732e-06	-2.208755e-08	-3.166314e+01	-1.445176e+03
2.940000e-06	-4.478009e-06	-2.225527e-08	-3.218258e+01	-1.456289e+03
