# Temperatura_=_75.1
# Concentracion g/m^3_=_28200.0
# C_Vs_to_Am_M_A/Vsm_=_65563218390.804596
# pendiente_HvsI_1/m_=_3716.3
# ordenada_HvsI_A/m_=_1297.0
# frecuencia_Hz_=_301924.1224585109

Tiempo_(s)	Campo_(V.s)	Magnetizacion_(V.s)	Campo_(kA/m)	Magnetizacion_(A/m)
0.000000e+00	-5.887994e-06	-2.407588e-08	-4.194576e+01	-1.577437e+03
1.000000e-08	-5.885902e-06	-2.407454e-08	-4.193085e+01	-1.577070e+03
2.000000e-08	-5.881711e-06	-2.406728e-08	-4.190099e+01	-1.576527e+03
3.000000e-08	-5.875657e-06	-2.405635e-08	-4.185787e+01	-1.575812e+03
4.000000e-08	-5.867882e-06	-2.404397e-08	-4.180248e+01	-1.574925e+03
5.000000e-08	-5.858199e-06	-2.402574e-08	-4.173350e+01	-1.573866e+03
6.000000e-08	-5.846294e-06	-2.400267e-08	-4.164869e+01	-1.572630e+03
7.000000e-08	-5.832254e-06	-2.397211e-08	-4.154867e+01	-1.571213e+03
8.000000e-08	-5.816050e-06	-2.394805e-08	-4.143323e+01	-1.569609e+03
9.000000e-08	-5.797646e-06	-2.397715e-08	-4.130212e+01	-1.567817e+03
1.000000e-07	-5.777093e-06	-2.397734e-08	-4.115571e+01	-1.565841e+03
1.100000e-07	-5.754305e-06	-2.389305e-08	-4.099336e+01	-1.563692e+03
1.200000e-07	-5.729318e-06	-2.384217e-08	-4.081536e+01	-1.561387e+03
1.300000e-07	-5.702304e-06	-2.379035e-08	-4.062291e+01	-1.558948e+03
1.400000e-07	-5.673679e-06	-2.366127e-08	-4.041899e+01	-1.556394e+03
1.500000e-07	-5.643633e-06	-2.369949e-08	-4.020494e+01	-1.553737e+03
1.600000e-07	-5.611886e-06	-2.373521e-08	-3.997878e+01	-1.550977e+03
1.700000e-07	-5.578306e-06	-2.357140e-08	-3.973955e+01	-1.548102e+03
1.800000e-07	-5.542810e-06	-2.361009e-08	-3.948668e+01	-1.545081e+03
1.900000e-07	-5.505287e-06	-2.356616e-08	-3.921937e+01	-1.541875e+03
2.000000e-07	-5.465838e-06	-2.341553e-08	-3.893834e+01	-1.538439e+03
2.100000e-07	-5.424482e-06	-2.347134e-08	-3.864372e+01	-1.534734e+03
2.200000e-07	-5.381060e-06	-2.339814e-08	-3.833439e+01	-1.530731e+03
2.300000e-07	-5.335590e-06	-2.327789e-08	-3.801046e+01	-1.526417e+03
2.400000e-07	-5.287988e-06	-2.322414e-08	-3.767135e+01	-1.521799e+03
2.500000e-07	-5.238082e-06	-2.311881e-08	-3.731582e+01	-1.516899e+03
2.600000e-07	-5.185880e-06	-2.305793e-08	-3.694394e+01	-1.511747e+03
2.700000e-07	-5.131558e-06	-2.299378e-08	-3.655695e+01	-1.506374e+03
2.800000e-07	-5.075420e-06	-2.290495e-08	-3.615702e+01	-1.500802e+03
2.900000e-07	-5.017422e-06	-2.279766e-08	-3.574385e+01	-1.495039e+03
3.000000e-07	-4.957462e-06	-2.268272e-08	-3.531670e+01	-1.489077e+03
3.100000e-07	-4.895693e-06	-2.260238e-08	-3.487666e+01	-1.482892e+03
3.200000e-07	-4.832188e-06	-2.251011e-08	-3.442425e+01	-1.476451e+03
3.300000e-07	-4.766896e-06	-2.243272e-08	-3.395912e+01	-1.469719e+03
3.400000e-07	-4.699755e-06	-2.231899e-08	-3.348081e+01	-1.462667e+03
3.500000e-07	-4.630849e-06	-2.218094e-08	-3.298992e+01	-1.455277e+03
3.600000e-07	-4.560332e-06	-2.206398e-08	-3.248757e+01	-1.447545e+03
3.700000e-07	-4.488281e-06	-2.193500e-08	-3.197428e+01	-1.439479e+03
3.800000e-07	-4.414552e-06	-2.183129e-08	-3.144903e+01	-1.431090e+03
3.900000e-07	-4.338945e-06	-2.171113e-08	-3.091041e+01	-1.422393e+03
4.000000e-07	-4.261564e-06	-2.155927e-08	-3.035916e+01	-1.413392e+03
4.100000e-07	-4.182496e-06	-2.140370e-08	-2.979588e+01	-1.404084e+03
4.200000e-07	-4.101776e-06	-2.124678e-08	-2.922083e+01	-1.394452e+03
4.300000e-07	-4.019650e-06	-2.109786e-08	-2.863577e+01	-1.384471e+03
4.400000e-07	-3.936342e-06	-2.093927e-08	-2.804229e+01	-1.374112e+03
4.500000e-07	-3.851837e-06	-2.078389e-08	-2.744028e+01	-1.363351e+03
4.600000e-07	-3.766085e-06	-2.061049e-08	-2.682939e+01	-1.352165e+03
4.700000e-07	-3.679179e-06	-2.042506e-08	-2.621027e+01	-1.340544e+03
4.800000e-07	-3.591060e-06	-2.024349e-08	-2.558252e+01	-1.328479e+03
4.900000e-07	-3.501531e-06	-2.005478e-08	-2.494472e+01	-1.315968e+03
5.000000e-07	-3.410559e-06	-1.985919e-08	-2.429664e+01	-1.302999e+03
5.100000e-07	-3.318274e-06	-1.965155e-08	-2.363921e+01	-1.289557e+03
5.200000e-07	-3.224834e-06	-1.943682e-08	-2.297355e+01	-1.275609e+03
5.300000e-07	-3.130300e-06	-1.920974e-08	-2.230009e+01	-1.261114e+03
5.400000e-07	-3.034742e-06	-1.897622e-08	-2.161934e+01	-1.246020e+03
5.500000e-07	-2.938025e-06	-1.873482e-08	-2.093034e+01	-1.230274e+03
5.600000e-07	-2.840010e-06	-1.848359e-08	-2.023208e+01	-1.213826e+03
5.700000e-07	-2.740841e-06	-1.822028e-08	-1.952561e+01	-1.196635e+03
5.800000e-07	-2.640615e-06	-1.794546e-08	-1.881160e+01	-1.178670e+03
5.900000e-07	-2.539426e-06	-1.766409e-08	-1.809073e+01	-1.159906e+03
6.000000e-07	-2.437351e-06	-1.736749e-08	-1.736356e+01	-1.140319e+03
6.100000e-07	-2.334464e-06	-1.705169e-08	-1.663060e+01	-1.119880e+03
6.200000e-07	-2.230841e-06	-1.672024e-08	-1.589240e+01	-1.098542e+03
6.300000e-07	-2.126378e-06	-1.637736e-08	-1.514820e+01	-1.076244e+03
6.400000e-07	-2.020914e-06	-1.602063e-08	-1.439689e+01	-1.052900e+03
6.500000e-07	-1.914608e-06	-1.564648e-08	-1.363956e+01	-1.028410e+03
6.600000e-07	-1.807642e-06	-1.525341e-08	-1.287755e+01	-1.002663e+03
6.700000e-07	-1.700003e-06	-1.483687e-08	-1.211073e+01	-9.755434e+02
6.800000e-07	-1.591722e-06	-1.439630e-08	-1.133934e+01	-9.469365e+02
6.900000e-07	-1.482925e-06	-1.393407e-08	-1.056428e+01	-9.167330e+02
7.000000e-07	-1.373685e-06	-1.344896e-08	-9.786056e+00	-8.848269e+02
7.100000e-07	-1.264044e-06	-1.293741e-08	-9.004983e+00	-8.511127e+02
7.200000e-07	-1.154048e-06	-1.239442e-08	-8.221380e+00	-8.154831e+02
7.300000e-07	-1.043675e-06	-1.181605e-08	-7.435086e+00	-7.778292e+02
7.400000e-07	-9.329397e-07	-1.120586e-08	-6.646213e+00	-7.380478e+02
7.500000e-07	-8.219428e-07	-1.056592e-08	-5.855477e+00	-6.960550e+02
7.600000e-07	-7.107497e-07	-9.894592e-09	-5.063344e+00	-6.518063e+02
7.700000e-07	-5.993467e-07	-9.188277e-09	-4.269714e+00	-6.053183e+02
7.800000e-07	-4.877782e-07	-8.447250e-09	-3.474906e+00	-5.566887e+02
7.900000e-07	-3.760564e-07	-7.674075e-09	-2.679006e+00	-5.061055e+02
8.000000e-07	-2.642280e-07	-6.872193e-09	-1.882346e+00	-4.538431e+02
8.100000e-07	-1.522970e-07	-6.051138e-09	-1.084956e+00	-4.002401e+02
8.200000e-07	-4.017588e-08	-5.219785e-09	-2.862109e-01	-3.456619e+02
8.300000e-07	7.208338e-08	-4.384028e-09	5.135182e-01	-2.904525e+02
8.400000e-07	1.843313e-07	-3.543775e-09	1.313166e+00	-2.348835e+02
8.500000e-07	2.964735e-07	-2.697751e-09	2.112062e+00	-1.791117e+02
8.600000e-07	4.084991e-07	-1.845037e-09	2.910126e+00	-1.231545e+02
8.700000e-07	5.203620e-07	-9.852613e-10	3.707031e+00	-6.689105e+01
8.800000e-07	6.320917e-07	-1.163319e-10	4.502988e+00	-1.009038e+01
8.900000e-07	7.436729e-07	7.638557e-10	5.297886e+00	4.753513e+01
9.000000e-07	8.550317e-07	1.657576e-09	6.091201e+00	1.062604e+02
9.100000e-07	9.661644e-07	2.568552e-09	6.882904e+00	1.662742e+02
9.200000e-07	1.077024e-06	3.499038e-09	7.672665e+00	2.276160e+02
9.300000e-07	1.187551e-06	4.448717e-09	8.460049e+00	2.901343e+02
9.400000e-07	1.297632e-06	5.414149e-09	9.244260e+00	3.534757e+02
9.500000e-07	1.407209e-06	6.387581e-09	1.002488e+01	4.171072e+02
9.600000e-07	1.516333e-06	7.355533e-09	1.080227e+01	4.803673e+02
9.700000e-07	1.624976e-06	8.304283e-09	1.157624e+01	5.425368e+02
9.800000e-07	1.733082e-06	9.221207e-09	1.234639e+01	6.029174e+02
9.900000e-07	1.840589e-06	1.009996e-08	1.311226e+01	6.609031e+02
1.000000e-06	1.947406e-06	1.093492e-08	1.387322e+01	7.160344e+02
1.010000e-06	2.053424e-06	1.171986e-08	1.462848e+01	7.680264e+02
1.020000e-06	2.158552e-06	1.245617e-08	1.537741e+01	8.167699e+02
1.030000e-06	2.262725e-06	1.314437e-08	1.611953e+01	8.623081e+02
1.040000e-06	2.366034e-06	1.378865e-08	1.685550e+01	9.047974e+02
1.050000e-06	2.468527e-06	1.439289e-08	1.758566e+01	9.444601e+02
1.060000e-06	2.570142e-06	1.495991e-08	1.830955e+01	9.815413e+02
1.070000e-06	2.670925e-06	1.549100e-08	1.902753e+01	1.016275e+03
1.080000e-06	2.770889e-06	1.598625e-08	1.973967e+01	1.048863e+03
1.090000e-06	2.869922e-06	1.644823e-08	2.044518e+01	1.079473e+03
1.100000e-06	2.967776e-06	1.688090e-08	2.114228e+01	1.108240e+03
1.110000e-06	3.064297e-06	1.728935e-08	2.182989e+01	1.135284e+03
1.120000e-06	3.159643e-06	1.767707e-08	2.250913e+01	1.160717e+03
1.130000e-06	3.253964e-06	1.804246e-08	2.318107e+01	1.184654e+03
1.140000e-06	3.347256e-06	1.838570e-08	2.384568e+01	1.207217e+03
1.150000e-06	3.439545e-06	1.871115e-08	2.450313e+01	1.228530e+03
1.160000e-06	3.530785e-06	1.901927e-08	2.515312e+01	1.248710e+03
1.170000e-06	3.620680e-06	1.931128e-08	2.579354e+01	1.267862e+03
1.180000e-06	3.709039e-06	1.958906e-08	2.642300e+01	1.286069e+03
1.190000e-06	3.796091e-06	1.985371e-08	2.704315e+01	1.303390e+03
1.200000e-06	3.881946e-06	2.010228e-08	2.765478e+01	1.319868e+03
1.210000e-06	3.966564e-06	2.033553e-08	2.825759e+01	1.335530e+03
1.220000e-06	4.049888e-06	2.055815e-08	2.885119e+01	1.350402e+03
1.230000e-06	4.131699e-06	2.077092e-08	2.943400e+01	1.364514e+03
1.240000e-06	4.211892e-06	2.097466e-08	3.000529e+01	1.377906e+03
1.250000e-06	4.290524e-06	2.116977e-08	3.056546e+01	1.390628e+03
1.260000e-06	4.367622e-06	2.135611e-08	3.111471e+01	1.402737e+03
1.270000e-06	4.443074e-06	2.153358e-08	3.165223e+01	1.414288e+03
1.280000e-06	4.516674e-06	2.170051e-08	3.217655e+01	1.425330e+03
1.290000e-06	4.588498e-06	2.186033e-08	3.268822e+01	1.435896e+03
1.300000e-06	4.658707e-06	2.201386e-08	3.318838e+01	1.446002e+03
1.310000e-06	4.727331e-06	2.216110e-08	3.367725e+01	1.455651e+03
1.320000e-06	4.794273e-06	2.230166e-08	3.415414e+01	1.464832e+03
1.330000e-06	4.859324e-06	2.243472e-08	3.461757e+01	1.473534e+03
1.340000e-06	4.922542e-06	2.256058e-08	3.506793e+01	1.481749e+03
1.350000e-06	4.984115e-06	2.267933e-08	3.550657e+01	1.489481e+03
1.360000e-06	5.044140e-06	2.279069e-08	3.593419e+01	1.496748e+03
1.370000e-06	5.102433e-06	2.289549e-08	3.634946e+01	1.503581e+03
1.380000e-06	5.158738e-06	2.299433e-08	3.675057e+01	1.510019e+03
1.390000e-06	5.213130e-06	2.308526e-08	3.713806e+01	1.516106e+03
1.400000e-06	5.265604e-06	2.317115e-08	3.751189e+01	1.521880e+03
1.410000e-06	5.315843e-06	2.325392e-08	3.786978e+01	1.527375e+03
1.420000e-06	5.363906e-06	2.333430e-08	3.821218e+01	1.532611e+03
1.430000e-06	5.410087e-06	2.341259e-08	3.854118e+01	1.537600e+03
1.440000e-06	5.454559e-06	2.348690e-08	3.885799e+01	1.542342e+03
1.450000e-06	5.497158e-06	2.355661e-08	3.916146e+01	1.546835e+03
1.460000e-06	5.537643e-06	2.362218e-08	3.944988e+01	1.551072e+03
1.470000e-06	5.576170e-06	2.368312e-08	3.972434e+01	1.555050e+03
1.480000e-06	5.612907e-06	2.373904e-08	3.998605e+01	1.558764e+03
1.490000e-06	5.647694e-06	2.379147e-08	4.023388e+01	1.562216e+03
1.500000e-06	5.680295e-06	2.383995e-08	4.046612e+01	1.565406e+03
1.510000e-06	5.710859e-06	2.388388e-08	4.068386e+01	1.568336e+03
1.520000e-06	5.739609e-06	2.392415e-08	4.088867e+01	1.571010e+03
1.530000e-06	5.766374e-06	2.396131e-08	4.107934e+01	1.573430e+03
1.540000e-06	5.790864e-06	2.399501e-08	4.125381e+01	1.575600e+03
1.550000e-06	5.813196e-06	2.402405e-08	4.141290e+01	1.577525e+03
1.560000e-06	5.833646e-06	2.405028e-08	4.155859e+01	1.579211e+03
1.570000e-06	5.852147e-06	2.407361e-08	4.169039e+01	1.580667e+03
1.580000e-06	5.868410e-06	2.409229e-08	4.180624e+01	1.581905e+03
1.590000e-06	5.882448e-06	2.410827e-08	4.190625e+01	1.582935e+03
1.600000e-06	5.894312e-06	2.412236e-08	4.199077e+01	1.583768e+03
1.610000e-06	5.903775e-06	2.413359e-08	4.205818e+01	1.584411e+03
1.620000e-06	5.910953e-06	2.414240e-08	4.210931e+01	1.584870e+03
1.630000e-06	5.916147e-06	2.414755e-08	4.214632e+01	1.585148e+03
1.640000e-06	5.919340e-06	2.414938e-08	4.216907e+01	1.585245e+03
1.650000e-06	5.920356e-06	2.415104e-08	4.217630e+01	1.585162e+03
1.660000e-06	5.919260e-06	2.414708e-08	4.216850e+01	1.584901e+03
1.670000e-06	5.916329e-06	2.413686e-08	4.214761e+01	1.584462e+03
1.680000e-06	5.911501e-06	2.412963e-08	4.211322e+01	1.583850e+03
1.690000e-06	5.904587e-06	2.411992e-08	4.206397e+01	1.583066e+03
1.700000e-06	5.895748e-06	2.410650e-08	4.200100e+01	1.582111e+03
1.710000e-06	5.885107e-06	2.409148e-08	4.192519e+01	1.580982e+03
1.720000e-06	5.872401e-06	2.407961e-08	4.183468e+01	1.579674e+03
1.730000e-06	5.857584e-06	2.406188e-08	4.172912e+01	1.578183e+03
1.740000e-06	5.840845e-06	2.396914e-08	4.160987e+01	1.576504e+03
1.750000e-06	5.821834e-06	2.390779e-08	4.147443e+01	1.574637e+03
1.760000e-06	5.799930e-06	2.393480e-08	4.131839e+01	1.572590e+03
1.770000e-06	5.775338e-06	2.390959e-08	4.114320e+01	1.570377e+03
1.780000e-06	5.748925e-06	2.393447e-08	4.095504e+01	1.568015e+03
1.790000e-06	5.721443e-06	2.394508e-08	4.075926e+01	1.565528e+03
1.800000e-06	5.692906e-06	2.374758e-08	4.055596e+01	1.562931e+03
1.810000e-06	5.662259e-06	2.376103e-08	4.033763e+01	1.560233e+03
1.820000e-06	5.629243e-06	2.378444e-08	4.010243e+01	1.557430e+03
1.830000e-06	5.594541e-06	2.363835e-08	3.985522e+01	1.554500e+03
1.840000e-06	5.557892e-06	2.373037e-08	3.959413e+01	1.551410e+03
1.850000e-06	5.519042e-06	2.362238e-08	3.931737e+01	1.548118e+03
1.860000e-06	5.478197e-06	2.345907e-08	3.902639e+01	1.544579e+03
1.870000e-06	5.435489e-06	2.352064e-08	3.872213e+01	1.540758e+03
1.880000e-06	5.391167e-06	2.340175e-08	3.840639e+01	1.536632e+03
1.890000e-06	5.344824e-06	2.338214e-08	3.807624e+01	1.532196e+03
1.900000e-06	5.296187e-06	2.333644e-08	3.772976e+01	1.527463e+03
1.910000e-06	5.245466e-06	2.316827e-08	3.736842e+01	1.522459e+03
1.920000e-06	5.192448e-06	2.316768e-08	3.699072e+01	1.517215e+03
1.930000e-06	5.137361e-06	2.304934e-08	3.659829e+01	1.511761e+03
1.940000e-06	5.080543e-06	2.299282e-08	3.619352e+01	1.506113e+03
1.950000e-06	5.021937e-06	2.293459e-08	3.577602e+01	1.500273e+03
1.960000e-06	4.961489e-06	2.280303e-08	3.534539e+01	1.494225e+03
1.970000e-06	4.899032e-06	2.273807e-08	3.490044e+01	1.487943e+03
1.980000e-06	4.834674e-06	2.256260e-08	3.444196e+01	1.481390e+03
1.990000e-06	4.768622e-06	2.249233e-08	3.397141e+01	1.474534e+03
2.000000e-06	4.700951e-06	2.241712e-08	3.348933e+01	1.467349e+03
2.010000e-06	4.631530e-06	2.228716e-08	3.299477e+01	1.459823e+03
2.020000e-06	4.560212e-06	2.218551e-08	3.248671e+01	1.451958e+03
2.030000e-06	4.487231e-06	2.200360e-08	3.196679e+01	1.443762e+03
2.040000e-06	4.412642e-06	2.189957e-08	3.143543e+01	1.435249e+03
2.050000e-06	4.336345e-06	2.177140e-08	3.089189e+01	1.426431e+03
2.060000e-06	4.258331e-06	2.164163e-08	3.033613e+01	1.417310e+03
2.070000e-06	4.178712e-06	2.152034e-08	2.976892e+01	1.407875e+03
2.080000e-06	4.097650e-06	2.135213e-08	2.919144e+01	1.398108e+03
2.090000e-06	4.015228e-06	2.119880e-08	2.860427e+01	1.387981e+03
2.100000e-06	3.931461e-06	2.101731e-08	2.800752e+01	1.377466e+03
2.110000e-06	3.846196e-06	2.086762e-08	2.740010e+01	1.366539e+03
2.120000e-06	3.759459e-06	2.070022e-08	2.678218e+01	1.355182e+03
2.130000e-06	3.671448e-06	2.052289e-08	2.615520e+01	1.343386e+03
2.140000e-06	3.582215e-06	2.034126e-08	2.551951e+01	1.331145e+03
2.150000e-06	3.491807e-06	2.013875e-08	2.487545e+01	1.318454e+03
2.160000e-06	3.400278e-06	1.994164e-08	2.422340e+01	1.305301e+03
2.170000e-06	3.307522e-06	1.973277e-08	2.356261e+01	1.291663e+03
2.180000e-06	3.213414e-06	1.952507e-08	2.289219e+01	1.277505e+03
2.190000e-06	3.118030e-06	1.929827e-08	2.221268e+01	1.262779e+03
2.200000e-06	3.021495e-06	1.906474e-08	2.152497e+01	1.247434e+03
2.210000e-06	2.923921e-06	1.882073e-08	2.082986e+01	1.231417e+03
2.220000e-06	2.825401e-06	1.856829e-08	2.012801e+01	1.214680e+03
2.230000e-06	2.725930e-06	1.830392e-08	1.941938e+01	1.197187e+03
2.240000e-06	2.625426e-06	1.802332e-08	1.870340e+01	1.178910e+03
2.250000e-06	2.523889e-06	1.773740e-08	1.798005e+01	1.159824e+03
2.260000e-06	2.421345e-06	1.743677e-08	1.724953e+01	1.139906e+03
2.270000e-06	2.317813e-06	1.712070e-08	1.651198e+01	1.119118e+03
2.280000e-06	2.213331e-06	1.678816e-08	1.576766e+01	1.097411e+03
2.290000e-06	2.108028e-06	1.644303e-08	1.501748e+01	1.074712e+03
2.300000e-06	2.002069e-06	1.607777e-08	1.426263e+01	1.050929e+03
2.310000e-06	1.895542e-06	1.569739e-08	1.350374e+01	1.025958e+03
2.320000e-06	1.788511e-06	1.530294e-08	1.274126e+01	9.996842e+02
2.330000e-06	1.680931e-06	1.488727e-08	1.197486e+01	9.719921e+02
2.340000e-06	1.572712e-06	1.444475e-08	1.120391e+01	9.427695e+02
2.350000e-06	1.463997e-06	1.397271e-08	1.042944e+01	9.119085e+02
2.360000e-06	1.354842e-06	1.347491e-08	9.651823e+00	8.793035e+02
2.370000e-06	1.245271e-06	1.295050e-08	8.871247e+00	8.448485e+02
2.380000e-06	1.135360e-06	1.239861e-08	8.088242e+00	8.084353e+02
2.390000e-06	1.025053e-06	1.181222e-08	7.302421e+00	7.699560e+02
2.400000e-06	9.143815e-07	1.118750e-08	6.514005e+00	7.293129e+02
2.410000e-06	8.032855e-07	1.052648e-08	5.722563e+00	6.864350e+02
2.420000e-06	6.918175e-07	9.835583e-09	4.928472e+00	6.412992e+02
2.430000e-06	5.801349e-07	9.117850e-09	4.132850e+00	5.939521e+02
2.440000e-06	4.682809e-07	8.370766e-09	3.336008e+00	5.445263e+02
2.450000e-06	3.562580e-07	7.593549e-09	2.537963e+00	4.932453e+02
2.460000e-06	2.440548e-07	6.787482e-09	1.738633e+00	4.404121e+02
2.470000e-06	1.317177e-07	5.957890e-09	9.383499e-01	3.863812e+02
2.480000e-06	1.933763e-08	5.113296e-09	1.377602e-01	3.315157e+02
2.490000e-06	-9.298246e-08	4.264373e-09	-6.624021e-01	2.761370e+02
2.500000e-06	-2.052879e-07	3.414415e-09	-1.462460e+00	2.204757e+02
2.510000e-06	-3.175314e-07	2.561809e-09	-2.262077e+00	1.646358e+02
2.520000e-06	-4.295912e-07	1.705275e-09	-3.060385e+00	1.085785e+02
2.530000e-06	-5.415354e-07	8.418066e-10	-3.857869e+00	5.213482e+01
2.540000e-06	-6.533282e-07	-3.079788e-11	-4.654276e+00	-4.955885e+00
2.550000e-06	-7.648061e-07	-9.173700e-10	-5.448438e+00	-6.298506e+01
2.560000e-06	-8.758758e-07	-1.820701e-09	-6.239693e+00	-1.222023e+02
2.570000e-06	-9.865595e-07	-2.743316e-09	-7.028198e+00	-1.827444e+02
2.580000e-06	-1.096823e-06	-3.687202e-09	-7.813711e+00	-2.445789e+02
2.590000e-06	-1.206605e-06	-4.648652e-09	-8.595791e+00	-3.074747e+02
2.600000e-06	-1.315998e-06	-5.621695e-09	-9.375098e+00	-3.710034e+02
2.610000e-06	-1.424994e-06	-6.595375e-09	-1.015158e+01	-4.345740e+02
2.620000e-06	-1.533488e-06	-7.557302e-09	-1.092449e+01	-4.974933e+02
2.630000e-06	-1.641427e-06	-8.496979e-09	-1.169344e+01	-5.590408e+02
2.640000e-06	-1.748821e-06	-9.404689e-09	-1.245851e+01	-6.185469e+02
2.650000e-06	-1.855658e-06	-1.027509e-08	-1.321961e+01	-6.754580e+02
2.660000e-06	-1.961875e-06	-1.110374e-08	-1.397629e+01	-7.293813e+02
2.670000e-06	-2.067406e-06	-1.188446e-08	-1.472809e+01	-7.801021e+02
2.680000e-06	-2.172182e-06	-1.261534e-08	-1.547451e+01	-8.275752e+02
2.690000e-06	-2.276195e-06	-1.329542e-08	-1.621549e+01	-8.718935e+02
2.700000e-06	-2.379347e-06	-1.392872e-08	-1.695034e+01	-9.132449e+02
2.710000e-06	-2.481499e-06	-1.452191e-08	-1.767807e+01	-9.518655e+02
2.720000e-06	-2.582605e-06	-1.507868e-08	-1.839834e+01	-9.879991e+02
2.730000e-06	-2.682667e-06	-1.560013e-08	-1.911118e+01	-1.021869e+03
2.740000e-06	-2.781781e-06	-1.608587e-08	-1.981726e+01	-1.053663e+03
2.750000e-06	-2.879973e-06	-1.654119e-08	-2.051677e+01	-1.083535e+03
2.760000e-06	-2.977211e-06	-1.696859e-08	-2.120950e+01	-1.111614e+03
2.770000e-06	-3.073525e-06	-1.737215e-08	-2.189563e+01	-1.138012e+03
2.780000e-06	-3.168878e-06	-1.775571e-08	-2.257492e+01	-1.162844e+03
2.790000e-06	-3.263139e-06	-1.811713e-08	-2.324643e+01	-1.186228e+03
2.800000e-06	-3.356091e-06	-1.845540e-08	-2.390861e+01	-1.208287e+03
2.810000e-06	-3.447734e-06	-1.877367e-08	-2.456148e+01	-1.229143e+03
2.820000e-06	-3.538213e-06	-1.907611e-08	-2.520604e+01	-1.248909e+03
2.830000e-06	-3.627467e-06	-1.936309e-08	-2.584189e+01	-1.267682e+03
2.840000e-06	-3.715470e-06	-1.963470e-08	-2.646881e+01	-1.285536e+03
2.850000e-06	-3.802228e-06	-1.989298e-08	-2.708687e+01	-1.302523e+03
2.860000e-06	-3.887511e-06	-2.014065e-08	-2.769442e+01	-1.318678e+03
2.870000e-06	-3.971293e-06	-2.037753e-08	-2.829128e+01	-1.334028e+03
2.880000e-06	-4.053721e-06	-2.060349e-08	-2.887850e+01	-1.348599e+03
2.890000e-06	-4.134729e-06	-2.081839e-08	-2.945559e+01	-1.362424e+03
2.900000e-06	-4.214248e-06	-2.102089e-08	-3.002208e+01	-1.375548e+03
2.910000e-06	-4.292145e-06	-2.121157e-08	-3.057702e+01	-1.388023e+03
2.920000e-06	-4.368293e-06	-2.139248e-08	-3.111949e+01	-1.399908e+03
2.930000e-06	-4.442746e-06	-2.156492e-08	-3.164989e+01	-1.411255e+03
2.940000e-06	-4.515538e-06	-2.172940e-08	-3.216845e+01	-1.422108e+03
