# Temperatura_=_84.71
# Concentracion g/m^3_=_28200.0
# C_Vs_to_Am_M_A/Vsm_=_65563218390.804596
# pendiente_HvsI_1/m_=_3716.3
# ordenada_HvsI_A/m_=_1297.0
# frecuencia_Hz_=_301918.1275360122

Tiempo_(s)	Campo_(V.s)	Magnetizacion_(V.s)	Campo_(kA/m)	Magnetizacion_(A/m)
0.000000e+00	-5.878237e-06	-2.485930e-08	-4.194867e+01	-1.628966e+03
1.000000e-08	-5.876141e-06	-2.485566e-08	-4.193370e+01	-1.628584e+03
2.000000e-08	-5.871998e-06	-2.484958e-08	-4.190414e+01	-1.628028e+03
3.000000e-08	-5.866038e-06	-2.483841e-08	-4.186161e+01	-1.627294e+03
4.000000e-08	-5.858324e-06	-2.482354e-08	-4.180656e+01	-1.626378e+03
5.000000e-08	-5.848627e-06	-2.480406e-08	-4.173736e+01	-1.625269e+03
6.000000e-08	-5.836706e-06	-2.478121e-08	-4.165229e+01	-1.623955e+03
7.000000e-08	-5.822614e-06	-2.475652e-08	-4.155172e+01	-1.622426e+03
8.000000e-08	-5.806299e-06	-2.473239e-08	-4.143529e+01	-1.620680e+03
9.000000e-08	-5.787876e-06	-2.473731e-08	-4.130383e+01	-1.618723e+03
1.000000e-07	-5.767395e-06	-2.473721e-08	-4.115767e+01	-1.616573e+03
1.100000e-07	-5.744638e-06	-2.466858e-08	-4.099527e+01	-1.614255e+03
1.200000e-07	-5.719658e-06	-2.460627e-08	-4.081701e+01	-1.611802e+03
1.300000e-07	-5.692706e-06	-2.456210e-08	-4.062467e+01	-1.609241e+03
1.400000e-07	-5.664187e-06	-2.445172e-08	-4.042115e+01	-1.606592e+03
1.500000e-07	-5.634245e-06	-2.443536e-08	-4.020748e+01	-1.603857e+03
1.600000e-07	-5.602593e-06	-2.448649e-08	-3.998160e+01	-1.601019e+03
1.700000e-07	-5.569101e-06	-2.435396e-08	-3.974259e+01	-1.598044e+03
1.800000e-07	-5.533716e-06	-2.434396e-08	-3.949007e+01	-1.594885e+03
1.900000e-07	-5.496299e-06	-2.433665e-08	-3.922306e+01	-1.591489e+03
2.000000e-07	-5.456935e-06	-2.418448e-08	-3.894214e+01	-1.587810e+03
2.100000e-07	-5.415658e-06	-2.419088e-08	-3.864758e+01	-1.583814e+03
2.200000e-07	-5.372272e-06	-2.412435e-08	-3.833797e+01	-1.579491e+03
2.300000e-07	-5.326837e-06	-2.399158e-08	-3.801373e+01	-1.574848e+03
2.400000e-07	-5.279303e-06	-2.394126e-08	-3.767451e+01	-1.569912e+03
2.500000e-07	-5.229473e-06	-2.385693e-08	-3.731891e+01	-1.564719e+03
2.600000e-07	-5.177355e-06	-2.379096e-08	-3.694698e+01	-1.559302e+03
2.700000e-07	-5.123157e-06	-2.372167e-08	-3.656021e+01	-1.553687e+03
2.800000e-07	-5.067157e-06	-2.360378e-08	-3.616058e+01	-1.547881e+03
2.900000e-07	-5.009225e-06	-2.349571e-08	-3.574716e+01	-1.541875e+03
3.000000e-07	-4.949323e-06	-2.339109e-08	-3.531969e+01	-1.535641e+03
3.100000e-07	-4.887682e-06	-2.331210e-08	-3.487980e+01	-1.529143e+03
3.200000e-07	-4.824344e-06	-2.322238e-08	-3.442780e+01	-1.522347e+03
3.300000e-07	-4.759235e-06	-2.312454e-08	-3.396317e+01	-1.515224e+03
3.400000e-07	-4.692292e-06	-2.299973e-08	-3.348545e+01	-1.507762e+03
3.500000e-07	-4.623601e-06	-2.285111e-08	-3.299525e+01	-1.499961e+03
3.600000e-07	-4.553270e-06	-2.273292e-08	-3.249335e+01	-1.491833e+03
3.700000e-07	-4.481292e-06	-2.260795e-08	-3.197970e+01	-1.483396e+03
3.800000e-07	-4.407633e-06	-2.249687e-08	-3.145405e+01	-1.474664e+03
3.900000e-07	-4.332181e-06	-2.236672e-08	-3.091559e+01	-1.465638e+03
4.000000e-07	-4.254951e-06	-2.219900e-08	-3.036446e+01	-1.456309e+03
4.100000e-07	-4.176003e-06	-2.203943e-08	-2.980107e+01	-1.446652e+03
4.200000e-07	-4.095384e-06	-2.188529e-08	-2.922575e+01	-1.436634e+03
4.300000e-07	-4.013381e-06	-2.173428e-08	-2.864055e+01	-1.426220e+03
4.400000e-07	-3.930183e-06	-2.156910e-08	-2.804683e+01	-1.415380e+03
4.500000e-07	-3.845828e-06	-2.139895e-08	-2.744485e+01	-1.404099e+03
4.600000e-07	-3.760307e-06	-2.121557e-08	-2.683455e+01	-1.392370e+03
4.700000e-07	-3.673557e-06	-2.102217e-08	-2.621548e+01	-1.380201e+03
4.800000e-07	-3.585584e-06	-2.083402e-08	-2.558768e+01	-1.367598e+03
4.900000e-07	-3.496281e-06	-2.063947e-08	-2.495039e+01	-1.354566e+03
5.000000e-07	-3.405552e-06	-2.043576e-08	-2.430293e+01	-1.341094e+03
5.100000e-07	-3.313504e-06	-2.021981e-08	-2.364605e+01	-1.327155e+03
5.200000e-07	-3.220240e-06	-1.999643e-08	-2.298049e+01	-1.312702e+03
5.300000e-07	-3.125871e-06	-1.976254e-08	-2.230705e+01	-1.297678e+03
5.400000e-07	-3.030476e-06	-1.951939e-08	-2.162628e+01	-1.282020e+03
5.500000e-07	-2.933905e-06	-1.926780e-08	-2.093713e+01	-1.265671e+03
5.600000e-07	-2.836085e-06	-1.900680e-08	-2.023906e+01	-1.248585e+03
5.700000e-07	-2.737098e-06	-1.873541e-08	-1.953266e+01	-1.230733e+03
5.800000e-07	-2.637052e-06	-1.845374e-08	-1.881871e+01	-1.212099e+03
5.900000e-07	-2.536030e-06	-1.816042e-08	-1.809778e+01	-1.192672e+03
6.000000e-07	-2.434104e-06	-1.784888e-08	-1.737041e+01	-1.172438e+03
6.100000e-07	-2.331362e-06	-1.751959e-08	-1.663722e+01	-1.151366e+03
6.200000e-07	-2.227807e-06	-1.717938e-08	-1.589823e+01	-1.129403e+03
6.300000e-07	-2.123444e-06	-1.682960e-08	-1.515346e+01	-1.106469e+03
6.400000e-07	-2.018231e-06	-1.646507e-08	-1.440263e+01	-1.082460e+03
6.500000e-07	-1.912137e-06	-1.608161e-08	-1.364552e+01	-1.057260e+03
6.600000e-07	-1.805253e-06	-1.567508e-08	-1.288276e+01	-1.030745e+03
6.700000e-07	-1.697738e-06	-1.524390e-08	-1.211551e+01	-1.002799e+03
6.800000e-07	-1.589668e-06	-1.479147e-08	-1.134429e+01	-9.733154e+02
6.900000e-07	-1.481104e-06	-1.431911e-08	-1.056955e+01	-9.421966e+02
7.000000e-07	-1.372072e-06	-1.382244e-08	-9.791469e+00	-9.093508e+02
7.100000e-07	-1.262602e-06	-1.329608e-08	-9.010268e+00	-8.746823e+02
7.200000e-07	-1.152782e-06	-1.273616e-08	-8.226559e+00	-8.380853e+02
7.300000e-07	-1.042655e-06	-1.214218e-08	-7.440665e+00	-7.994421e+02
7.400000e-07	-9.321923e-07	-1.151584e-08	-6.652373e+00	-7.586308e+02
7.500000e-07	-8.214349e-07	-1.085942e-08	-5.861978e+00	-7.155429e+02
7.600000e-07	-7.103991e-07	-1.017071e-08	-5.069597e+00	-6.701081e+02
7.700000e-07	-5.990638e-07	-9.443724e-09	-4.275079e+00	-6.223225e+02
7.800000e-07	-4.875271e-07	-8.678041e-09	-3.479123e+00	-5.722717e+02
7.900000e-07	-3.758541e-07	-7.879466e-09	-2.682195e+00	-5.201429e+02
8.000000e-07	-2.640660e-07	-7.055494e-09	-1.884445e+00	-4.662196e+02
8.100000e-07	-1.521658e-07	-6.213506e-09	-1.085895e+00	-4.108554e+02
8.200000e-07	-4.018666e-08	-5.357557e-09	-2.867827e-01	-3.544321e+02
8.300000e-07	7.186525e-08	-4.490252e-09	5.128496e-01	-2.973048e+02
8.400000e-07	1.839420e-07	-3.614767e-09	1.312659e+00	-2.397478e+02
8.500000e-07	2.959564e-07	-2.731735e-09	2.112024e+00	-1.819108e+02
8.600000e-07	4.078243e-07	-1.840231e-09	2.910343e+00	-1.237963e+02
8.700000e-07	5.195249e-07	-9.432718e-10	3.707468e+00	-6.526520e+01
8.800000e-07	6.310953e-07	-4.192860e-11	4.503664e+00	-6.072512e+00
8.900000e-07	7.424994e-07	8.707576e-10	5.298674e+00	5.407294e+01
9.000000e-07	8.536641e-07	1.801604e-09	6.091974e+00	1.154337e+02
9.100000e-07	9.645233e-07	2.755016e-09	6.883096e+00	1.781678e+02
9.200000e-07	1.075083e-06	3.730290e-09	7.672082e+00	2.422670e+02
9.300000e-07	1.185303e-06	4.723968e-09	8.458639e+00	3.075197e+02
9.400000e-07	1.295156e-06	5.730029e-09	9.242580e+00	3.735075e+02
9.500000e-07	1.404618e-06	6.737648e-09	1.002373e+01	4.396356e+02
9.600000e-07	1.513598e-06	7.736219e-09	1.080144e+01	5.051913e+02
9.700000e-07	1.622079e-06	8.713814e-09	1.157559e+01	5.694209e+02
9.800000e-07	1.730003e-06	9.658060e-09	1.234576e+01	6.316107e+02
9.900000e-07	1.837320e-06	1.055930e-08	1.311160e+01	6.911578e+02
1.000000e-06	1.943963e-06	1.141122e-08	1.387264e+01	7.476213e+02
1.010000e-06	2.049791e-06	1.221505e-08	1.462786e+01	8.007455e+02
1.020000e-06	2.154659e-06	1.296997e-08	1.537622e+01	8.504556e+02
1.030000e-06	2.258561e-06	1.367410e-08	1.611769e+01	8.968296e+02
1.040000e-06	2.361670e-06	1.433151e-08	1.685351e+01	9.400550e+02
1.050000e-06	2.463962e-06	1.494680e-08	1.758349e+01	9.803804e+02
1.060000e-06	2.565388e-06	1.552252e-08	1.830729e+01	1.018071e+03
1.070000e-06	2.665960e-06	1.605774e-08	1.902500e+01	1.053374e+03
1.080000e-06	2.765668e-06	1.655666e-08	1.973654e+01	1.086503e+03
1.090000e-06	2.864455e-06	1.702661e-08	2.044151e+01	1.117631e+03
1.100000e-06	2.962085e-06	1.746996e-08	2.113823e+01	1.146898e+03
1.110000e-06	3.058421e-06	1.788806e-08	2.182570e+01	1.174424e+03
1.120000e-06	3.153572e-06	1.828274e-08	2.250473e+01	1.200323e+03
1.130000e-06	3.247714e-06	1.865497e-08	2.317655e+01	1.224709e+03
1.140000e-06	3.340872e-06	1.900437e-08	2.384135e+01	1.247703e+03
1.150000e-06	3.433010e-06	1.933453e-08	2.449887e+01	1.269429e+03
1.160000e-06	3.524014e-06	1.965035e-08	2.514830e+01	1.290004e+03
1.170000e-06	3.613653e-06	1.995162e-08	2.578799e+01	1.309535e+03
1.180000e-06	3.701805e-06	2.023637e-08	2.641707e+01	1.328109e+03
1.190000e-06	3.788690e-06	2.050425e-08	2.703710e+01	1.345792e+03
1.200000e-06	3.874418e-06	2.075613e-08	2.764888e+01	1.362631e+03
1.210000e-06	3.958937e-06	2.099507e-08	2.825203e+01	1.378658e+03
1.220000e-06	4.042227e-06	2.122456e-08	2.884641e+01	1.393898e+03
1.230000e-06	4.124052e-06	2.144459e-08	2.943033e+01	1.408382e+03
1.240000e-06	4.204245e-06	2.165571e-08	3.000261e+01	1.422142e+03
1.250000e-06	4.282819e-06	2.185586e-08	3.056334e+01	1.435221e+03
1.260000e-06	4.359794e-06	2.204512e-08	3.111265e+01	1.447671e+03
1.270000e-06	4.435143e-06	2.222536e-08	3.165036e+01	1.459541e+03
1.280000e-06	4.508661e-06	2.239653e-08	3.217501e+01	1.470878e+03
1.290000e-06	4.580315e-06	2.256067e-08	3.268635e+01	1.481718e+03
1.300000e-06	4.650331e-06	2.271736e-08	3.318600e+01	1.492087e+03
1.310000e-06	4.718799e-06	2.286881e-08	3.367461e+01	1.501993e+03
1.320000e-06	4.785666e-06	2.301582e-08	3.415179e+01	1.511438e+03
1.330000e-06	4.850673e-06	2.315503e-08	3.461569e+01	1.520416e+03
1.340000e-06	4.913825e-06	2.328548e-08	3.506636e+01	1.528922e+03
1.350000e-06	4.975322e-06	2.340825e-08	3.550522e+01	1.536957e+03
1.360000e-06	5.035256e-06	2.352431e-08	3.593293e+01	1.544528e+03
1.370000e-06	5.093483e-06	2.363417e-08	3.634845e+01	1.551657e+03
1.380000e-06	5.149694e-06	2.373773e-08	3.674959e+01	1.558372e+03
1.390000e-06	5.203975e-06	2.383354e-08	3.713695e+01	1.564707e+03
1.400000e-06	5.256328e-06	2.392335e-08	3.751056e+01	1.570701e+03
1.410000e-06	5.306432e-06	2.401023e-08	3.786811e+01	1.576389e+03
1.420000e-06	5.354348e-06	2.409356e-08	3.821006e+01	1.581802e+03
1.430000e-06	5.400442e-06	2.417277e-08	3.853899e+01	1.586960e+03
1.440000e-06	5.444814e-06	2.424864e-08	3.885564e+01	1.591880e+03
1.450000e-06	5.487295e-06	2.432144e-08	3.915880e+01	1.596564e+03
1.460000e-06	5.527707e-06	2.439095e-08	3.944719e+01	1.601011e+03
1.470000e-06	5.566199e-06	2.445605e-08	3.972188e+01	1.605213e+03
1.480000e-06	5.602905e-06	2.451605e-08	3.998382e+01	1.609158e+03
1.490000e-06	5.637639e-06	2.457062e-08	4.023170e+01	1.612834e+03
1.500000e-06	5.670245e-06	2.462026e-08	4.046438e+01	1.616231e+03
1.510000e-06	5.700822e-06	2.466716e-08	4.068258e+01	1.619341e+03
1.520000e-06	5.729527e-06	2.471255e-08	4.088743e+01	1.622163e+03
1.530000e-06	5.756224e-06	2.475395e-08	4.107795e+01	1.624701e+03
1.540000e-06	5.780703e-06	2.478943e-08	4.125263e+01	1.626963e+03
1.550000e-06	5.803030e-06	2.482057e-08	4.141197e+01	1.628962e+03
1.560000e-06	5.823424e-06	2.484821e-08	4.155751e+01	1.630713e+03
1.570000e-06	5.841873e-06	2.487133e-08	4.168916e+01	1.632231e+03
1.580000e-06	5.858169e-06	2.488982e-08	4.180545e+01	1.633528e+03
1.590000e-06	5.872254e-06	2.490522e-08	4.190597e+01	1.634615e+03
1.600000e-06	5.884051e-06	2.491876e-08	4.199016e+01	1.635497e+03
1.610000e-06	5.893476e-06	2.492979e-08	4.205741e+01	1.636178e+03
1.620000e-06	5.900720e-06	2.493874e-08	4.210911e+01	1.636661e+03
1.630000e-06	5.905946e-06	2.494543e-08	4.214640e+01	1.636948e+03
1.640000e-06	5.909142e-06	2.494946e-08	4.216921e+01	1.637041e+03
1.650000e-06	5.910135e-06	2.495085e-08	4.217630e+01	1.636948e+03
1.660000e-06	5.909025e-06	2.494722e-08	4.216837e+01	1.636673e+03
1.670000e-06	5.906080e-06	2.493650e-08	4.214736e+01	1.636221e+03
1.680000e-06	5.901266e-06	2.492717e-08	4.211301e+01	1.635595e+03
1.690000e-06	5.894420e-06	2.491635e-08	4.206415e+01	1.634789e+03
1.700000e-06	5.885577e-06	2.490147e-08	4.200105e+01	1.633797e+03
1.710000e-06	5.874916e-06	2.488567e-08	4.192497e+01	1.632608e+03
1.720000e-06	5.862287e-06	2.487005e-08	4.183484e+01	1.631209e+03
1.730000e-06	5.847548e-06	2.485019e-08	4.172966e+01	1.629593e+03
1.740000e-06	5.830831e-06	2.478064e-08	4.161036e+01	1.627762e+03
1.750000e-06	5.811884e-06	2.470820e-08	4.147515e+01	1.625725e+03
1.760000e-06	5.790125e-06	2.471172e-08	4.131987e+01	1.623504e+03
1.770000e-06	5.765684e-06	2.469411e-08	4.114546e+01	1.621128e+03
1.780000e-06	5.739345e-06	2.468543e-08	4.095749e+01	1.618628e+03
1.790000e-06	5.711817e-06	2.471552e-08	4.076105e+01	1.616030e+03
1.800000e-06	5.683210e-06	2.456027e-08	4.055690e+01	1.613346e+03
1.810000e-06	5.652605e-06	2.450749e-08	4.033849e+01	1.610572e+03
1.820000e-06	5.619679e-06	2.455751e-08	4.010352e+01	1.607684e+03
1.830000e-06	5.585014e-06	2.442472e-08	3.985615e+01	1.604642e+03
1.840000e-06	5.548390e-06	2.445091e-08	3.959479e+01	1.601395e+03
1.850000e-06	5.509574e-06	2.440765e-08	3.931779e+01	1.597891e+03
1.860000e-06	5.468827e-06	2.423679e-08	3.902700e+01	1.594089e+03
1.870000e-06	5.426204e-06	2.427536e-08	3.872283e+01	1.589964e+03
1.880000e-06	5.381875e-06	2.418653e-08	3.840650e+01	1.585512e+03
1.890000e-06	5.335678e-06	2.409747e-08	3.807682e+01	1.580749e+03
1.900000e-06	5.287245e-06	2.406067e-08	3.773119e+01	1.575706e+03
1.910000e-06	5.236705e-06	2.389216e-08	3.737052e+01	1.570419e+03
1.920000e-06	5.183930e-06	2.387876e-08	3.699391e+01	1.564921e+03
1.930000e-06	5.128989e-06	2.381522e-08	3.660183e+01	1.559230e+03
1.940000e-06	5.072183e-06	2.371078e-08	3.619645e+01	1.553347e+03
1.950000e-06	5.013554e-06	2.364221e-08	3.577805e+01	1.547253e+03
1.960000e-06	4.953129e-06	2.348899e-08	3.534685e+01	1.540919e+03
1.970000e-06	4.890775e-06	2.340567e-08	3.490188e+01	1.534306e+03
1.980000e-06	4.826521e-06	2.326760e-08	3.444334e+01	1.527383e+03
1.990000e-06	4.760520e-06	2.317728e-08	3.397234e+01	1.520127e+03
2.000000e-06	4.692919e-06	2.311796e-08	3.348992e+01	1.512529e+03
2.010000e-06	4.623667e-06	2.296553e-08	3.299572e+01	1.504597e+03
2.020000e-06	4.552508e-06	2.284177e-08	3.248791e+01	1.496344e+03
2.030000e-06	4.479614e-06	2.266690e-08	3.196772e+01	1.487789e+03
2.040000e-06	4.405185e-06	2.255078e-08	3.143658e+01	1.478940e+03
2.050000e-06	4.329079e-06	2.244464e-08	3.089346e+01	1.469796e+03
2.060000e-06	4.251239e-06	2.229680e-08	3.033797e+01	1.460340e+03
2.070000e-06	4.171757e-06	2.216443e-08	2.977077e+01	1.450544e+03
2.080000e-06	4.090824e-06	2.198373e-08	2.919321e+01	1.440373e+03
2.090000e-06	4.008548e-06	2.182059e-08	2.860607e+01	1.429794e+03
2.100000e-06	3.924951e-06	2.164497e-08	2.800950e+01	1.418781e+03
2.110000e-06	3.839949e-06	2.148236e-08	2.740290e+01	1.407322e+03
2.120000e-06	3.753462e-06	2.131434e-08	2.678571e+01	1.395418e+03
2.130000e-06	3.665592e-06	2.112073e-08	2.615864e+01	1.383076e+03
2.140000e-06	3.576457e-06	2.093062e-08	2.552255e+01	1.370304e+03
2.150000e-06	3.486144e-06	2.071800e-08	2.487805e+01	1.357100e+03
2.160000e-06	3.394664e-06	2.051369e-08	2.422523e+01	1.343447e+03
2.170000e-06	3.302043e-06	2.030170e-08	2.356426e+01	1.329311e+03
2.180000e-06	3.208207e-06	2.008436e-08	2.289462e+01	1.314640e+03
2.190000e-06	3.113050e-06	1.984951e-08	2.221556e+01	1.299373e+03
2.200000e-06	3.016684e-06	1.960373e-08	2.152786e+01	1.283449e+03
2.210000e-06	2.919256e-06	1.935315e-08	2.083259e+01	1.266813e+03
2.220000e-06	2.820854e-06	1.908819e-08	2.013037e+01	1.249428e+03
2.230000e-06	2.721511e-06	1.881222e-08	1.942143e+01	1.231268e+03
2.240000e-06	2.621160e-06	1.852310e-08	1.870530e+01	1.212323e+03
2.250000e-06	2.519746e-06	1.823238e-08	1.798158e+01	1.192580e+03
2.260000e-06	2.417348e-06	1.792314e-08	1.725084e+01	1.172020e+03
2.270000e-06	2.314015e-06	1.759411e-08	1.651343e+01	1.150605e+03
2.280000e-06	2.209754e-06	1.724937e-08	1.576939e+01	1.128270e+03
2.290000e-06	2.104658e-06	1.689205e-08	1.501940e+01	1.104925e+03
2.300000e-06	1.998819e-06	1.651938e-08	1.426410e+01	1.080462e+03
2.310000e-06	1.892382e-06	1.613126e-08	1.350454e+01	1.054758e+03
2.320000e-06	1.785453e-06	1.572820e-08	1.274147e+01	1.027694e+03
2.330000e-06	1.677991e-06	1.529745e-08	1.197459e+01	9.991544e+02
2.340000e-06	1.569984e-06	1.483532e-08	1.120383e+01	9.690381e+02
2.350000e-06	1.461479e-06	1.434437e-08	1.042950e+01	9.372505e+02
2.360000e-06	1.352519e-06	1.383361e-08	9.651933e+00	9.036992e+02
2.370000e-06	1.243193e-06	1.329925e-08	8.871755e+00	8.682851e+02
2.380000e-06	1.133521e-06	1.273370e-08	8.089109e+00	8.308975e+02
2.390000e-06	1.023463e-06	1.213074e-08	7.303707e+00	7.914155e+02
2.400000e-06	9.130430e-07	1.148799e-08	6.515718e+00	7.497200e+02
2.410000e-06	8.022826e-07	1.080931e-08	5.725302e+00	7.057141e+02
2.420000e-06	6.911658e-07	1.010059e-08	4.932343e+00	6.593504e+02
2.430000e-06	5.797886e-07	9.362547e-09	4.137526e+00	6.106579e+02
2.440000e-06	4.682163e-07	8.592317e-09	3.341316e+00	5.597614e+02
2.450000e-06	3.564460e-07	7.790951e-09	2.543694e+00	5.068879e+02
2.460000e-06	2.445377e-07	6.957777e-09	1.745086e+00	4.523523e+02
2.470000e-06	1.324972e-07	6.100671e-09	9.455354e-01	3.965255e+02
2.480000e-06	2.038151e-08	5.230553e-09	1.454479e-01	3.397852e+02
2.490000e-06	-9.174595e-08	4.354327e-09	-6.547236e-01	2.824612e+02
2.500000e-06	-2.038664e-07	3.474843e-09	-1.454845e+00	2.247831e+02
2.510000e-06	-3.158544e-07	2.591424e-09	-2.254021e+00	1.668437e+02
2.520000e-06	-4.276442e-07	1.702258e-09	-3.051783e+00	1.085877e+02
2.530000e-06	-5.392814e-07	8.034932e-10	-3.848456e+00	4.982878e+01
2.540000e-06	-6.507376e-07	-1.070883e-10	-4.643837e+00	-9.704629e+00
2.550000e-06	-7.619278e-07	-1.032375e-09	-5.437320e+00	-7.030168e+01
2.560000e-06	-8.727543e-07	-1.975865e-09	-6.228207e+00	-1.321925e+02
2.570000e-06	-9.831884e-07	-2.938924e-09	-7.016294e+00	-1.954759e+02
2.580000e-06	-1.093221e-06	-3.925229e-09	-7.801518e+00	-2.600666e+02
2.590000e-06	-1.202832e-06	-4.930691e-09	-8.583729e+00	-3.256700e+02
2.600000e-06	-1.312058e-06	-5.945980e-09	-9.363194e+00	-3.917933e+02
2.610000e-06	-1.420881e-06	-6.960992e-09	-1.013979e+01	-4.577869e+02
2.620000e-06	-1.529204e-06	-7.961295e-09	-1.091281e+01	-5.229123e+02
2.630000e-06	-1.636964e-06	-8.932217e-09	-1.168181e+01	-5.864223e+02
2.640000e-06	-1.744211e-06	-9.864409e-09	-1.244715e+01	-6.476390e+02
2.650000e-06	-1.850905e-06	-1.075575e-08	-1.320855e+01	-7.060185e+02
2.660000e-06	-1.956948e-06	-1.160361e-08	-1.396531e+01	-7.611916e+02
2.670000e-06	-2.062326e-06	-1.240074e-08	-1.471731e+01	-8.129754e+02
2.680000e-06	-2.166994e-06	-1.314435e-08	-1.546425e+01	-8.613598e+02
2.690000e-06	-2.270859e-06	-1.383636e-08	-1.620545e+01	-9.064713e+02
2.700000e-06	-2.373794e-06	-1.447951e-08	-1.694003e+01	-9.485273e+02
2.710000e-06	-2.475740e-06	-1.508193e-08	-1.766754e+01	-9.877874e+02
2.720000e-06	-2.576665e-06	-1.564739e-08	-1.838777e+01	-1.024513e+03
2.730000e-06	-2.676593e-06	-1.617669e-08	-1.910088e+01	-1.058941e+03
2.740000e-06	-2.775624e-06	-1.667092e-08	-1.980759e+01	-1.091266e+03
2.750000e-06	-2.873709e-06	-1.713342e-08	-2.050755e+01	-1.121649e+03
2.760000e-06	-2.970822e-06	-1.756833e-08	-2.120058e+01	-1.150220e+03
2.770000e-06	-3.067021e-06	-1.797919e-08	-2.188708e+01	-1.177095e+03
2.780000e-06	-3.162247e-06	-1.837055e-08	-2.256664e+01	-1.202387e+03
2.790000e-06	-3.256372e-06	-1.874058e-08	-2.323834e+01	-1.226213e+03
2.800000e-06	-3.349220e-06	-1.908552e-08	-2.390093e+01	-1.248695e+03
2.810000e-06	-3.440767e-06	-1.940863e-08	-2.455423e+01	-1.269956e+03
2.820000e-06	-3.531087e-06	-1.971391e-08	-2.519877e+01	-1.290110e+03
2.830000e-06	-3.620194e-06	-2.000493e-08	-2.583467e+01	-1.309258e+03
2.840000e-06	-3.708103e-06	-2.028349e-08	-2.646201e+01	-1.327477e+03
2.850000e-06	-3.794734e-06	-2.054959e-08	-2.708023e+01	-1.344825e+03
2.860000e-06	-3.879877e-06	-2.080352e-08	-2.768783e+01	-1.361342e+03
2.870000e-06	-3.963555e-06	-2.104474e-08	-2.828499e+01	-1.377059e+03
2.880000e-06	-4.045893e-06	-2.127474e-08	-2.887257e+01	-1.391999e+03
2.890000e-06	-4.126833e-06	-2.149386e-08	-2.945018e+01	-1.406195e+03
2.900000e-06	-4.206306e-06	-2.170165e-08	-3.001732e+01	-1.419684e+03
2.910000e-06	-4.284066e-06	-2.189859e-08	-3.057224e+01	-1.432511e+03
2.920000e-06	-4.360055e-06	-2.208521e-08	-3.111451e+01	-1.444728e+03
2.930000e-06	-4.434451e-06	-2.226280e-08	-3.164542e+01	-1.456385e+03
2.940000e-06	-4.507266e-06	-2.243294e-08	-3.216505e+01	-1.467524e+03
