# Temperatura_=_92.57
# Concentracion g/m^3_=_28200.0
# C_Vs_to_Am_M_A/Vsm_=_65563218390.804596
# pendiente_HvsI_1/m_=_3716.3
# ordenada_HvsI_A/m_=_1297.0
# frecuencia_Hz_=_301911.9727945993

Tiempo_(s)	Campo_(V.s)	Magnetizacion_(V.s)	Campo_(kA/m)	Magnetizacion_(A/m)
0.000000e+00	-5.844333e-06	-2.804440e-08	-4.194997e+01	-1.834314e+03
1.000000e-08	-5.842077e-06	-2.804090e-08	-4.193378e+01	-1.833859e+03
2.000000e-08	-5.837834e-06	-2.803063e-08	-4.190332e+01	-1.833236e+03
3.000000e-08	-5.831806e-06	-2.801725e-08	-4.186005e+01	-1.832441e+03
4.000000e-08	-5.823986e-06	-2.800160e-08	-4.180392e+01	-1.831454e+03
5.000000e-08	-5.814160e-06	-2.797993e-08	-4.173339e+01	-1.830249e+03
6.000000e-08	-5.802077e-06	-2.795236e-08	-4.164666e+01	-1.828798e+03
7.000000e-08	-5.787873e-06	-2.791137e-08	-4.154470e+01	-1.827079e+03
8.000000e-08	-5.771476e-06	-2.787040e-08	-4.142701e+01	-1.825085e+03
9.000000e-08	-5.752986e-06	-2.789946e-08	-4.129429e+01	-1.822832e+03
1.000000e-07	-5.732475e-06	-2.789403e-08	-4.114706e+01	-1.820357e+03
1.100000e-07	-5.709761e-06	-2.780709e-08	-4.098402e+01	-1.817714e+03
1.200000e-07	-5.684795e-06	-2.776464e-08	-4.080482e+01	-1.814966e+03
1.300000e-07	-5.657815e-06	-2.770331e-08	-4.061116e+01	-1.812169e+03
1.400000e-07	-5.629357e-06	-2.755540e-08	-4.040689e+01	-1.809356e+03
1.500000e-07	-5.599444e-06	-2.761564e-08	-4.019219e+01	-1.806535e+03
1.600000e-07	-5.567836e-06	-2.759191e-08	-3.996530e+01	-1.803674e+03
1.700000e-07	-5.534410e-06	-2.741482e-08	-3.972538e+01	-1.800710e+03
1.800000e-07	-5.499017e-06	-2.750037e-08	-3.947133e+01	-1.797558e+03
1.900000e-07	-5.461550e-06	-2.738423e-08	-3.920240e+01	-1.794123e+03
2.000000e-07	-5.422209e-06	-2.723558e-08	-3.892001e+01	-1.790324e+03
2.100000e-07	-5.380989e-06	-2.728551e-08	-3.862413e+01	-1.786101e+03
2.200000e-07	-5.337688e-06	-2.714189e-08	-3.831333e+01	-1.781431e+03
2.300000e-07	-5.292426e-06	-2.704570e-08	-3.798844e+01	-1.776326e+03
2.400000e-07	-5.245114e-06	-2.700141e-08	-3.764884e+01	-1.770826e+03
2.500000e-07	-5.195500e-06	-2.686496e-08	-3.729272e+01	-1.764990e+03
2.600000e-07	-5.143516e-06	-2.681394e-08	-3.691958e+01	-1.758875e+03
2.700000e-07	-5.089412e-06	-2.671460e-08	-3.653123e+01	-1.752527e+03
2.800000e-07	-5.033541e-06	-2.658042e-08	-3.613019e+01	-1.745965e+03
2.900000e-07	-4.975813e-06	-2.645769e-08	-3.571583e+01	-1.739180e+03
3.000000e-07	-4.916150e-06	-2.636712e-08	-3.528758e+01	-1.732140e+03
3.100000e-07	-4.854711e-06	-2.629111e-08	-3.484657e+01	-1.724801e+03
3.200000e-07	-4.791551e-06	-2.615845e-08	-3.439322e+01	-1.717115e+03
3.300000e-07	-4.726623e-06	-2.604029e-08	-3.392717e+01	-1.709047e+03
3.400000e-07	-4.659841e-06	-2.588928e-08	-3.344782e+01	-1.700581e+03
3.500000e-07	-4.591281e-06	-2.574106e-08	-3.295570e+01	-1.691722e+03
3.600000e-07	-4.521134e-06	-2.560830e-08	-3.245219e+01	-1.682488e+03
3.700000e-07	-4.449555e-06	-2.546204e-08	-3.193841e+01	-1.672907e+03
3.800000e-07	-4.376361e-06	-2.534324e-08	-3.141303e+01	-1.663001e+03
3.900000e-07	-4.301271e-06	-2.517917e-08	-3.087404e+01	-1.652778e+03
4.000000e-07	-4.224394e-06	-2.498765e-08	-3.032223e+01	-1.642227e+03
4.100000e-07	-4.145810e-06	-2.481839e-08	-2.975816e+01	-1.631319e+03
4.200000e-07	-4.065563e-06	-2.465146e-08	-2.918215e+01	-1.620014e+03
4.300000e-07	-3.983921e-06	-2.448193e-08	-2.859614e+01	-1.608268e+03
4.400000e-07	-3.901080e-06	-2.428908e-08	-2.800151e+01	-1.596047e+03
4.500000e-07	-3.817038e-06	-2.409636e-08	-2.739827e+01	-1.583329e+03
4.600000e-07	-3.731772e-06	-2.388518e-08	-2.678624e+01	-1.570109e+03
4.700000e-07	-3.645354e-06	-2.367463e-08	-2.616595e+01	-1.556396e+03
4.800000e-07	-3.557840e-06	-2.346910e-08	-2.553778e+01	-1.542201e+03
4.900000e-07	-3.469030e-06	-2.324721e-08	-2.490031e+01	-1.527529e+03
5.000000e-07	-3.378745e-06	-2.301763e-08	-2.425225e+01	-1.512369e+03
5.100000e-07	-3.287114e-06	-2.277193e-08	-2.359454e+01	-1.496685e+03
5.200000e-07	-3.194317e-06	-2.252162e-08	-2.292845e+01	-1.480425e+03
5.300000e-07	-3.100441e-06	-2.225882e-08	-2.225462e+01	-1.463518e+03
5.400000e-07	-3.005519e-06	-2.198929e-08	-2.157328e+01	-1.445890e+03
5.500000e-07	-2.909444e-06	-2.170753e-08	-2.088367e+01	-1.427477e+03
5.600000e-07	-2.812146e-06	-2.141288e-08	-2.018527e+01	-1.408227e+03
5.700000e-07	-2.713670e-06	-2.110689e-08	-1.947842e+01	-1.388113e+03
5.800000e-07	-2.614117e-06	-2.078663e-08	-1.876384e+01	-1.367118e+03
5.900000e-07	-2.513645e-06	-2.045572e-08	-1.804266e+01	-1.345236e+03
6.000000e-07	-2.412294e-06	-2.010523e-08	-1.731518e+01	-1.322449e+03
6.100000e-07	-2.310079e-06	-1.973991e-08	-1.658149e+01	-1.298723e+03
6.200000e-07	-2.207058e-06	-1.936014e-08	-1.584202e+01	-1.273990e+03
6.300000e-07	-2.103222e-06	-1.896408e-08	-1.509669e+01	-1.248153e+03
6.400000e-07	-1.998581e-06	-1.855037e-08	-1.434559e+01	-1.221085e+03
6.500000e-07	-1.893181e-06	-1.811667e-08	-1.358904e+01	-1.192647e+03
6.600000e-07	-1.787001e-06	-1.765806e-08	-1.282689e+01	-1.162693e+03
6.700000e-07	-1.680076e-06	-1.717132e-08	-1.205940e+01	-1.131087e+03
6.800000e-07	-1.572539e-06	-1.666270e-08	-1.128751e+01	-1.097710e+03
6.900000e-07	-1.464517e-06	-1.612795e-08	-1.051214e+01	-1.062455e+03
7.000000e-07	-1.356057e-06	-1.556198e-08	-9.733626e+00	-1.025225e+03
7.100000e-07	-1.247171e-06	-1.496256e-08	-8.952051e+00	-9.859194e+02
7.200000e-07	-1.137888e-06	-1.432844e-08	-8.167630e+00	-9.444264e+02
7.300000e-07	-1.028286e-06	-1.365739e-08	-7.380925e+00	-9.006205e+02
7.400000e-07	-9.183943e-07	-1.295093e-08	-6.592132e+00	-8.543709e+02
7.500000e-07	-8.082027e-07	-1.220807e-08	-5.801189e+00	-8.055612e+02
7.600000e-07	-6.977633e-07	-1.142338e-08	-5.008467e+00	-7.541180e+02
7.700000e-07	-5.870742e-07	-1.059440e-08	-4.213953e+00	-7.000423e+02
7.800000e-07	-4.761931e-07	-9.726599e-09	-3.418061e+00	-6.434357e+02
7.900000e-07	-3.651819e-07	-8.829323e-09	-2.621235e+00	-5.845121e+02
8.000000e-07	-2.540959e-07	-7.904004e-09	-1.823872e+00	-5.235908e+02
8.100000e-07	-1.428814e-07	-6.954275e-09	-1.025587e+00	-4.610656e+02
8.200000e-07	-3.148145e-08	-5.986912e-09	-2.259703e-01	-3.973558e+02
8.300000e-07	7.999867e-08	-5.008073e-09	5.742215e-01	-3.328451e+02
8.400000e-07	1.914381e-07	-4.019124e-09	1.374121e+00	-2.678215e+02
8.500000e-07	3.027590e-07	-3.023212e-09	2.173170e+00	-2.024302e+02
8.600000e-07	4.139543e-07	-2.020525e-09	2.971317e+00	-1.366521e+02
8.700000e-07	5.250250e-07	-1.007528e-09	3.768570e+00	-7.031395e+01
8.800000e-07	6.359702e-07	1.732783e-11	4.564923e+00	-3.131849e+00
8.900000e-07	7.467178e-07	1.057605e-09	5.359857e+00	6.521883e+01
9.000000e-07	8.572554e-07	2.118390e-09	6.153283e+00	1.350187e+02
9.100000e-07	9.675703e-07	3.204141e-09	6.945111e+00	2.064202e+02
9.200000e-07	1.077595e-06	4.313041e-09	7.734855e+00	2.793811e+02
9.300000e-07	1.187252e-06	5.441330e-09	8.521960e+00	3.536270e+02
9.400000e-07	1.296455e-06	6.583409e-09	9.305807e+00	4.286520e+02
9.500000e-07	1.405229e-06	7.729408e-09	1.008657e+01	5.037573e+02
9.600000e-07	1.513615e-06	8.864426e-09	1.086456e+01	5.781198e+02
9.700000e-07	1.621553e-06	9.972597e-09	1.163932e+01	6.508800e+02
9.800000e-07	1.728878e-06	1.104114e-08	1.240969e+01	7.212327e+02
9.900000e-07	1.835431e-06	1.206013e-08	1.317452e+01	7.885054e+02
1.000000e-06	1.941226e-06	1.302247e-08	1.393390e+01	8.522130e+02
1.010000e-06	2.046270e-06	1.392569e-08	1.468790e+01	9.120813e+02
1.020000e-06	2.150473e-06	1.477330e-08	1.543586e+01	9.680400e+02
1.030000e-06	2.253772e-06	1.556487e-08	1.617732e+01	1.020190e+03
1.040000e-06	2.356184e-06	1.630179e-08	1.691243e+01	1.068751e+03
1.050000e-06	2.457780e-06	1.698910e-08	1.764167e+01	1.114014e+03
1.060000e-06	2.558582e-06	1.763103e-08	1.836521e+01	1.156282e+03
1.070000e-06	2.658588e-06	1.823014e-08	1.908305e+01	1.195841e+03
1.080000e-06	2.757710e-06	1.879337e-08	1.979453e+01	1.232935e+03
1.090000e-06	2.855776e-06	1.932289e-08	2.049844e+01	1.267763e+03
1.100000e-06	2.952697e-06	1.981896e-08	2.119413e+01	1.300486e+03
1.110000e-06	3.048444e-06	2.028355e-08	2.188139e+01	1.331241e+03
1.120000e-06	3.143052e-06	2.072098e-08	2.256048e+01	1.360156e+03
1.130000e-06	3.236605e-06	2.113359e-08	2.323199e+01	1.387359e+03
1.140000e-06	3.329162e-06	2.152173e-08	2.389635e+01	1.412986e+03
1.150000e-06	3.420708e-06	2.188813e-08	2.455346e+01	1.437175e+03
1.160000e-06	3.511070e-06	2.223587e-08	2.520207e+01	1.460059e+03
1.170000e-06	3.599978e-06	2.256870e-08	2.584024e+01	1.481761e+03
1.180000e-06	3.687461e-06	2.288628e-08	2.646818e+01	1.502384e+03
1.190000e-06	3.773727e-06	2.318565e-08	2.708739e+01	1.522005e+03
1.200000e-06	3.858782e-06	2.346662e-08	2.769791e+01	1.540683e+03
1.210000e-06	3.942656e-06	2.373209e-08	2.829994e+01	1.558457e+03
1.220000e-06	4.025305e-06	2.398495e-08	2.889319e+01	1.575358e+03
1.230000e-06	4.106454e-06	2.422825e-08	2.947567e+01	1.591415e+03
1.240000e-06	4.186011e-06	2.446005e-08	3.004672e+01	1.606663e+03
1.250000e-06	4.264003e-06	2.468052e-08	3.060653e+01	1.621146e+03
1.260000e-06	4.340423e-06	2.488915e-08	3.115507e+01	1.634915e+03
1.270000e-06	4.415219e-06	2.508654e-08	3.169195e+01	1.648025e+03
1.280000e-06	4.488195e-06	2.527537e-08	3.221576e+01	1.660529e+03
1.290000e-06	4.559369e-06	2.545661e-08	3.272664e+01	1.672477e+03
1.300000e-06	4.628899e-06	2.562910e-08	3.322572e+01	1.683902e+03
1.310000e-06	4.696843e-06	2.579422e-08	3.371342e+01	1.694827e+03
1.320000e-06	4.763102e-06	2.595308e-08	3.418901e+01	1.705262e+03
1.330000e-06	4.827527e-06	2.610527e-08	3.465145e+01	1.715207e+03
1.340000e-06	4.890197e-06	2.625038e-08	3.510129e+01	1.724657e+03
1.350000e-06	4.951258e-06	2.638726e-08	3.553958e+01	1.733608e+03
1.360000e-06	5.010739e-06	2.651543e-08	3.596653e+01	1.742061e+03
1.370000e-06	5.068403e-06	2.663673e-08	3.638043e+01	1.750025e+03
1.380000e-06	5.124104e-06	2.675218e-08	3.678025e+01	1.757517e+03
1.390000e-06	5.177983e-06	2.685838e-08	3.716698e+01	1.764565e+03
1.400000e-06	5.229887e-06	2.695739e-08	3.753954e+01	1.771204e+03
1.410000e-06	5.279529e-06	2.705221e-08	3.789587e+01	1.777471e+03
1.420000e-06	5.327059e-06	2.714243e-08	3.823703e+01	1.783402e+03
1.430000e-06	5.372754e-06	2.722807e-08	3.856503e+01	1.789031e+03
1.440000e-06	5.416752e-06	2.730953e-08	3.888084e+01	1.794380e+03
1.450000e-06	5.458833e-06	2.738772e-08	3.918289e+01	1.799465e+03
1.460000e-06	5.498796e-06	2.746085e-08	3.946974e+01	1.804290e+03
1.470000e-06	5.536858e-06	2.752820e-08	3.974294e+01	1.808849e+03
1.480000e-06	5.573201e-06	2.759145e-08	4.000381e+01	1.813133e+03
1.490000e-06	5.607597e-06	2.765062e-08	4.025070e+01	1.817127e+03
1.500000e-06	5.639810e-06	2.770649e-08	4.048192e+01	1.820821e+03
1.510000e-06	5.670055e-06	2.776009e-08	4.069902e+01	1.824206e+03
1.520000e-06	5.698497e-06	2.780908e-08	4.090317e+01	1.827283e+03
1.530000e-06	5.724975e-06	2.785118e-08	4.109323e+01	1.830057e+03
1.540000e-06	5.749187e-06	2.788691e-08	4.126702e+01	1.832542e+03
1.550000e-06	5.771200e-06	2.791779e-08	4.142503e+01	1.834751e+03
1.560000e-06	5.791378e-06	2.794536e-08	4.156986e+01	1.836699e+03
1.570000e-06	5.809599e-06	2.797047e-08	4.170065e+01	1.838397e+03
1.580000e-06	5.825579e-06	2.799175e-08	4.181535e+01	1.839851e+03
1.590000e-06	5.839377e-06	2.800986e-08	4.191440e+01	1.841063e+03
1.600000e-06	5.850928e-06	2.802586e-08	4.199730e+01	1.842032e+03
1.610000e-06	5.860096e-06	2.803810e-08	4.206311e+01	1.842756e+03
1.620000e-06	5.867047e-06	2.804654e-08	4.211301e+01	1.843239e+03
1.630000e-06	5.872038e-06	2.805085e-08	4.214883e+01	1.843488e+03
1.640000e-06	5.875039e-06	2.805185e-08	4.217037e+01	1.843519e+03
1.650000e-06	5.875865e-06	2.805233e-08	4.217630e+01	1.843349e+03
1.660000e-06	5.874588e-06	2.804511e-08	4.216714e+01	1.842996e+03
1.670000e-06	5.871488e-06	2.803351e-08	4.214488e+01	1.842474e+03
1.680000e-06	5.866503e-06	2.802526e-08	4.210910e+01	1.841783e+03
1.690000e-06	5.859478e-06	2.801264e-08	4.205868e+01	1.840913e+03
1.700000e-06	5.850569e-06	2.799568e-08	4.199473e+01	1.839843e+03
1.710000e-06	5.839926e-06	2.797926e-08	4.191833e+01	1.838543e+03
1.720000e-06	5.827295e-06	2.797292e-08	4.182767e+01	1.836986e+03
1.730000e-06	5.812480e-06	2.797128e-08	4.172133e+01	1.835157e+03
1.740000e-06	5.795697e-06	2.786928e-08	4.160087e+01	1.833057e+03
1.750000e-06	5.776617e-06	2.779926e-08	4.146391e+01	1.830710e+03
1.760000e-06	5.754664e-06	2.780671e-08	4.130634e+01	1.828160e+03
1.770000e-06	5.730099e-06	2.774677e-08	4.113001e+01	1.825467e+03
1.780000e-06	5.703661e-06	2.778270e-08	4.094024e+01	1.822692e+03
1.790000e-06	5.676118e-06	2.777715e-08	4.074254e+01	1.819884e+03
1.800000e-06	5.647557e-06	2.757352e-08	4.053753e+01	1.817068e+03
1.810000e-06	5.616922e-06	2.766839e-08	4.031764e+01	1.814235e+03
1.820000e-06	5.584027e-06	2.762696e-08	4.008152e+01	1.811341e+03
1.830000e-06	5.549449e-06	2.743749e-08	3.983333e+01	1.808312e+03
1.840000e-06	5.512864e-06	2.762534e-08	3.957072e+01	1.805058e+03
1.850000e-06	5.474144e-06	2.751602e-08	3.929280e+01	1.801488e+03
1.860000e-06	5.433470e-06	2.737913e-08	3.900084e+01	1.797526e+03
1.870000e-06	5.390874e-06	2.741164e-08	3.869509e+01	1.793126e+03
1.880000e-06	5.346681e-06	2.721584e-08	3.837788e+01	1.788280e+03
1.890000e-06	5.300567e-06	2.724463e-08	3.804687e+01	1.783012e+03
1.900000e-06	5.252137e-06	2.715714e-08	3.769925e+01	1.777371e+03
1.910000e-06	5.201674e-06	2.694487e-08	3.733703e+01	1.771417e+03
1.920000e-06	5.149047e-06	2.700846e-08	3.695928e+01	1.765206e+03
1.930000e-06	5.094291e-06	2.689285e-08	3.656625e+01	1.758771e+03
1.940000e-06	5.037649e-06	2.679411e-08	3.615968e+01	1.752122e+03
1.950000e-06	4.979217e-06	2.664191e-08	3.574026e+01	1.745240e+03
1.960000e-06	4.919051e-06	2.650530e-08	3.530840e+01	1.738087e+03
1.970000e-06	4.856945e-06	2.646997e-08	3.486261e+01	1.730614e+03
1.980000e-06	4.792942e-06	2.625911e-08	3.440320e+01	1.722780e+03
1.990000e-06	4.727246e-06	2.618743e-08	3.393165e+01	1.714555e+03
2.000000e-06	4.660002e-06	2.608943e-08	3.344897e+01	1.705931e+03
2.010000e-06	4.591084e-06	2.593801e-08	3.295429e+01	1.696920e+03
2.020000e-06	4.520229e-06	2.578908e-08	3.244570e+01	1.687545e+03
2.030000e-06	4.447643e-06	2.557220e-08	3.192468e+01	1.677833e+03
2.040000e-06	4.373523e-06	2.549598e-08	3.139266e+01	1.667801e+03
2.050000e-06	4.297780e-06	2.534440e-08	3.084898e+01	1.657449e+03
2.060000e-06	4.220251e-06	2.517264e-08	3.029249e+01	1.646761e+03
2.070000e-06	4.141035e-06	2.500593e-08	2.972389e+01	1.635701e+03
2.080000e-06	4.060423e-06	2.481264e-08	2.914526e+01	1.624226e+03
2.090000e-06	3.978459e-06	2.464288e-08	2.855693e+01	1.612295e+03
2.100000e-06	3.895220e-06	2.442940e-08	2.795945e+01	1.599878e+03
2.110000e-06	3.810675e-06	2.426083e-08	2.735260e+01	1.586961e+03
2.120000e-06	3.724687e-06	2.405854e-08	2.673538e+01	1.573544e+03
2.130000e-06	3.637298e-06	2.384645e-08	2.610812e+01	1.559639e+03
2.140000e-06	3.548621e-06	2.361981e-08	2.547161e+01	1.545255e+03
2.150000e-06	3.458707e-06	2.338276e-08	2.482621e+01	1.530392e+03
2.160000e-06	3.367642e-06	2.316503e-08	2.417256e+01	1.515030e+03
2.170000e-06	3.275475e-06	2.292198e-08	2.351099e+01	1.499126e+03
2.180000e-06	3.182070e-06	2.267327e-08	2.284054e+01	1.482618e+03
2.190000e-06	3.087341e-06	2.240376e-08	2.216059e+01	1.465435e+03
2.200000e-06	2.991403e-06	2.213404e-08	2.147195e+01	1.447504e+03
2.210000e-06	2.894480e-06	2.184687e-08	2.077625e+01	1.428765e+03
2.220000e-06	2.796585e-06	2.154928e-08	2.007357e+01	1.409177e+03
2.230000e-06	2.697692e-06	2.124256e-08	1.936373e+01	1.388716e+03
2.240000e-06	2.597871e-06	2.091975e-08	1.864722e+01	1.367372e+03
2.250000e-06	2.497128e-06	2.058617e-08	1.792410e+01	1.345136e+03
2.260000e-06	2.395399e-06	2.023043e-08	1.719391e+01	1.321984e+03
2.270000e-06	2.292630e-06	1.986105e-08	1.645624e+01	1.297870e+03
2.280000e-06	2.188858e-06	1.947361e-08	1.571138e+01	1.272715e+03
2.290000e-06	2.084264e-06	1.907254e-08	1.496061e+01	1.246409e+03
2.300000e-06	1.979037e-06	1.865388e-08	1.420530e+01	1.218819e+03
2.310000e-06	1.873174e-06	1.821863e-08	1.344543e+01	1.189801e+03
2.320000e-06	1.766733e-06	1.775646e-08	1.268141e+01	1.159211e+03
2.330000e-06	1.659816e-06	1.726420e-08	1.191397e+01	1.126921e+03
2.340000e-06	1.552371e-06	1.674176e-08	1.114275e+01	1.092817e+03
2.350000e-06	1.444429e-06	1.618747e-08	1.036795e+01	1.056796e+03
2.360000e-06	1.336062e-06	1.560819e-08	9.590102e+00	1.018761e+03
2.370000e-06	1.227286e-06	1.500107e-08	8.809321e+00	9.786087e+02
2.380000e-06	1.118186e-06	1.436050e-08	8.026213e+00	9.362209e+02
2.390000e-06	1.008853e-06	1.367693e-08	7.241436e+00	8.914687e+02
2.400000e-06	8.991900e-07	1.295017e-08	6.454285e+00	8.442239e+02
2.410000e-06	7.891371e-07	1.218650e-08	5.664338e+00	7.943832e+02
2.420000e-06	6.787415e-07	1.138850e-08	4.871931e+00	7.418990e+02
2.430000e-06	5.680214e-07	1.055198e-08	4.077194e+00	6.868091e+02
2.440000e-06	4.570990e-07	9.677057e-09	3.281006e+00	6.292587e+02
2.450000e-06	3.460398e-07	8.766564e-09	2.483835e+00	5.695056e+02
2.460000e-06	2.348215e-07	7.823027e-09	1.685523e+00	5.079028e+02
2.470000e-06	1.234499e-07	6.854568e-09	8.861093e-01	4.448611e+02
2.480000e-06	1.206476e-08	5.872950e-09	8.659950e-02	3.807933e+02
2.490000e-06	-9.923599e-08	4.885752e-09	-7.123048e-01	3.160522e+02
2.500000e-06	-2.105115e-07	3.890598e-09	-1.511028e+00	2.508741e+02
2.510000e-06	-3.218341e-07	2.887319e-09	-2.310089e+00	1.853406e+02
2.520000e-06	-4.330442e-07	1.877827e-09	-3.108343e+00	1.193689e+02
2.530000e-06	-5.439880e-07	8.583173e-10	-3.904685e+00	5.273537e+01
2.540000e-06	-6.547464e-07	-1.749758e-10	-4.699697e+00	-1.486926e+01
2.550000e-06	-7.652182e-07	-1.227249e-09	-5.492651e+00	-8.376279e+01
2.560000e-06	-8.753235e-07	-2.301309e-09	-6.282974e+00	-1.541849e+02
2.570000e-06	-9.850541e-07	-3.398348e-09	-7.070608e+00	-2.262182e+02
2.580000e-06	-1.094395e-06	-4.520356e-09	-7.855446e+00	-2.997315e+02
2.590000e-06	-1.203400e-06	-5.662832e-09	-8.637868e+00	-3.743574e+02
2.600000e-06	-1.312082e-06	-6.815848e-09	-9.417978e+00	-4.495077e+02
2.610000e-06	-1.420374e-06	-7.964493e-09	-1.019528e+01	-5.244251e+02
2.620000e-06	-1.528120e-06	-9.093409e-09	-1.096868e+01	-5.982612e+02
2.630000e-06	-1.635324e-06	-1.019100e-08	-1.173817e+01	-6.701675e+02
2.640000e-06	-1.742009e-06	-1.124870e-08	-1.250395e+01	-7.393826e+02
2.650000e-06	-1.848123e-06	-1.226050e-08	-1.326562e+01	-8.053028e+02
2.660000e-06	-1.953569e-06	-1.321857e-08	-1.402250e+01	-8.675247e+02
2.670000e-06	-2.058332e-06	-1.411684e-08	-1.477447e+01	-9.258567e+02
2.680000e-06	-2.162394e-06	-1.495343e-08	-1.552142e+01	-9.803008e+02
2.690000e-06	-2.265597e-06	-1.572902e-08	-1.626220e+01	-1.031011e+03
2.700000e-06	-2.367770e-06	-1.645077e-08	-1.699559e+01	-1.078242e+03
2.710000e-06	-2.468915e-06	-1.712682e-08	-1.772159e+01	-1.122294e+03
2.720000e-06	-2.569122e-06	-1.776072e-08	-1.844087e+01	-1.163468e+03
2.730000e-06	-2.668422e-06	-1.835523e-08	-1.915364e+01	-1.202033e+03
2.740000e-06	-2.766850e-06	-1.891327e-08	-1.986014e+01	-1.238217e+03
2.750000e-06	-2.864358e-06	-1.943470e-08	-2.056004e+01	-1.272202e+03
2.760000e-06	-2.961000e-06	-1.992160e-08	-2.125372e+01	-1.304139e+03
2.770000e-06	-3.056724e-06	-2.037948e-08	-2.194082e+01	-1.334157e+03
2.780000e-06	-3.151335e-06	-2.081143e-08	-2.261993e+01	-1.362386e+03
2.790000e-06	-3.244712e-06	-2.121966e-08	-2.329018e+01	-1.388955e+03
2.800000e-06	-3.336859e-06	-2.160658e-08	-2.395160e+01	-1.414002e+03
2.810000e-06	-3.427805e-06	-2.197094e-08	-2.460440e+01	-1.437664e+03
2.820000e-06	-3.517542e-06	-2.231264e-08	-2.524853e+01	-1.460072e+03
2.830000e-06	-3.606065e-06	-2.263630e-08	-2.588393e+01	-1.481341e+03
2.840000e-06	-3.693354e-06	-2.294665e-08	-2.651048e+01	-1.501564e+03
2.850000e-06	-3.779323e-06	-2.324377e-08	-2.712756e+01	-1.520811e+03
2.860000e-06	-3.863881e-06	-2.352613e-08	-2.773451e+01	-1.539131e+03
2.870000e-06	-3.947065e-06	-2.379308e-08	-2.833159e+01	-1.556560e+03
2.880000e-06	-4.028868e-06	-2.404542e-08	-2.891876e+01	-1.573127e+03
2.890000e-06	-4.109273e-06	-2.428558e-08	-2.949590e+01	-1.588864e+03
2.900000e-06	-4.188132e-06	-2.451452e-08	-3.006194e+01	-1.603807e+03
2.910000e-06	-4.265199e-06	-2.473492e-08	-3.061512e+01	-1.618005e+03
2.920000e-06	-4.340564e-06	-2.494679e-08	-3.115608e+01	-1.631510e+03
2.930000e-06	-4.414346e-06	-2.514740e-08	-3.168568e+01	-1.644378e+03
2.940000e-06	-4.486548e-06	-2.533620e-08	-3.220394e+01	-1.656660e+03
