# Temperatura_=_40.49
# Concentracion g/m^3_=_28200.0
# C_Vs_to_Am_M_A/Vsm_=_65563218390.804596
# pendiente_HvsI_1/m_=_3716.3
# ordenada_HvsI_A/m_=_1297.0
# frecuencia_Hz_=_301920.7655379385

Tiempo_(s)	Campo_(V.s)	Magnetizacion_(V.s)	Campo_(kA/m)	Magnetizacion_(A/m)
0.000000e+00	-5.856657e-06	-2.092014e-08	-4.194573e+01	-1.370770e+03
1.000000e-08	-5.854526e-06	-2.092058e-08	-4.193047e+01	-1.370470e+03
2.000000e-08	-5.850415e-06	-2.091499e-08	-4.190103e+01	-1.370030e+03
3.000000e-08	-5.844469e-06	-2.090543e-08	-4.185844e+01	-1.369454e+03
4.000000e-08	-5.836733e-06	-2.089544e-08	-4.180304e+01	-1.368740e+03
5.000000e-08	-5.826979e-06	-2.088134e-08	-4.173317e+01	-1.367884e+03
6.000000e-08	-5.814982e-06	-2.086244e-08	-4.164725e+01	-1.366879e+03
7.000000e-08	-5.800902e-06	-2.083360e-08	-4.154641e+01	-1.365718e+03
8.000000e-08	-5.784708e-06	-2.081124e-08	-4.143043e+01	-1.364396e+03
9.000000e-08	-5.766377e-06	-2.084618e-08	-4.129914e+01	-1.362915e+03
1.000000e-07	-5.745939e-06	-2.084556e-08	-4.115276e+01	-1.361281e+03
1.100000e-07	-5.723310e-06	-2.077252e-08	-4.099069e+01	-1.359511e+03
1.200000e-07	-5.698458e-06	-2.073624e-08	-4.081270e+01	-1.357620e+03
1.300000e-07	-5.671587e-06	-2.068395e-08	-4.062025e+01	-1.355628e+03
1.400000e-07	-5.643178e-06	-2.056704e-08	-4.041678e+01	-1.353546e+03
1.500000e-07	-5.613286e-06	-2.062508e-08	-4.020270e+01	-1.351378e+03
1.600000e-07	-5.581637e-06	-2.063748e-08	-3.997602e+01	-1.349112e+03
1.700000e-07	-5.548166e-06	-2.050020e-08	-3.973630e+01	-1.346726e+03
1.800000e-07	-5.512814e-06	-2.056463e-08	-3.948310e+01	-1.344187e+03
1.900000e-07	-5.475465e-06	-2.050304e-08	-3.921561e+01	-1.341458e+03
2.000000e-07	-5.436267e-06	-2.038626e-08	-3.893487e+01	-1.338505e+03
2.100000e-07	-5.395125e-06	-2.043839e-08	-3.864021e+01	-1.335303e+03
2.200000e-07	-5.351805e-06	-2.034888e-08	-3.832995e+01	-1.331844e+03
2.300000e-07	-5.306465e-06	-2.025660e-08	-3.800522e+01	-1.328133e+03
2.400000e-07	-5.259080e-06	-2.021852e-08	-3.766585e+01	-1.324191e+03
2.500000e-07	-5.209386e-06	-2.012972e-08	-3.730994e+01	-1.320047e+03
2.600000e-07	-5.157362e-06	-2.009917e-08	-3.693734e+01	-1.315733e+03
2.700000e-07	-5.103302e-06	-2.003610e-08	-3.655016e+01	-1.311270e+03
2.800000e-07	-5.047451e-06	-1.994508e-08	-3.615015e+01	-1.306668e+03
2.900000e-07	-4.989675e-06	-1.985513e-08	-3.573635e+01	-1.301922e+03
3.000000e-07	-4.929971e-06	-1.976871e-08	-3.530875e+01	-1.297008e+03
3.100000e-07	-4.868501e-06	-1.970760e-08	-3.486850e+01	-1.291894e+03
3.200000e-07	-4.805353e-06	-1.964169e-08	-3.441623e+01	-1.286543e+03
3.300000e-07	-4.740432e-06	-1.957961e-08	-3.395126e+01	-1.280923e+03
3.400000e-07	-4.673607e-06	-1.946332e-08	-3.347266e+01	-1.275010e+03
3.500000e-07	-4.605017e-06	-1.934434e-08	-3.298141e+01	-1.268797e+03
3.600000e-07	-4.534810e-06	-1.924642e-08	-3.247859e+01	-1.262287e+03
3.700000e-07	-4.463181e-06	-1.913973e-08	-3.196557e+01	-1.255493e+03
3.800000e-07	-4.389943e-06	-1.906359e-08	-3.144103e+01	-1.248432e+03
3.900000e-07	-4.314784e-06	-1.896148e-08	-3.090274e+01	-1.241114e+03
4.000000e-07	-4.237885e-06	-1.882534e-08	-3.035199e+01	-1.233540e+03
4.100000e-07	-4.159283e-06	-1.869245e-08	-2.978903e+01	-1.225699e+03
4.200000e-07	-4.078965e-06	-1.856479e-08	-2.921379e+01	-1.217569e+03
4.300000e-07	-3.997259e-06	-1.844198e-08	-2.862861e+01	-1.209120e+03
4.400000e-07	-3.914314e-06	-1.830672e-08	-2.803456e+01	-1.200320e+03
4.500000e-07	-3.830151e-06	-1.817192e-08	-2.743177e+01	-1.191143e+03
4.600000e-07	-3.744747e-06	-1.801723e-08	-2.682010e+01	-1.181571e+03
4.700000e-07	-3.658140e-06	-1.785481e-08	-2.619982e+01	-1.171595e+03
4.800000e-07	-3.570364e-06	-1.769899e-08	-2.557116e+01	-1.161214e+03
4.900000e-07	-3.481310e-06	-1.753955e-08	-2.493335e+01	-1.150427e+03
5.000000e-07	-3.390830e-06	-1.737372e-08	-2.428533e+01	-1.139232e+03
5.100000e-07	-3.298976e-06	-1.719306e-08	-2.362747e+01	-1.127616e+03
5.200000e-07	-3.205980e-06	-1.700737e-08	-2.296142e+01	-1.115553e+03
5.300000e-07	-3.111924e-06	-1.681009e-08	-2.228779e+01	-1.103005e+03
5.400000e-07	-3.016799e-06	-1.660480e-08	-2.160650e+01	-1.089923e+03
5.500000e-07	-2.920566e-06	-1.639372e-08	-2.091727e+01	-1.076256e+03
5.600000e-07	-2.823156e-06	-1.617465e-08	-2.021961e+01	-1.061952e+03
5.700000e-07	-2.724524e-06	-1.594563e-08	-1.951320e+01	-1.046970e+03
5.800000e-07	-2.624777e-06	-1.570799e-08	-1.879881e+01	-1.031275e+03
5.900000e-07	-2.524085e-06	-1.546175e-08	-1.807765e+01	-1.014841e+03
6.000000e-07	-2.422530e-06	-1.519752e-08	-1.735030e+01	-9.976460e+02
6.100000e-07	-2.320137e-06	-1.491735e-08	-1.661696e+01	-9.796647e+02
6.200000e-07	-2.216989e-06	-1.462642e-08	-1.587821e+01	-9.608621e+02
6.300000e-07	-2.113017e-06	-1.432632e-08	-1.513356e+01	-9.411884e+02
6.400000e-07	-2.008159e-06	-1.401333e-08	-1.438256e+01	-9.205772e+02
6.500000e-07	-1.902539e-06	-1.368344e-08	-1.362610e+01	-8.989462e+02
6.600000e-07	-1.796208e-06	-1.333330e-08	-1.286455e+01	-8.762010e+02
6.700000e-07	-1.689171e-06	-1.296008e-08	-1.209794e+01	-8.522411e+02
6.800000e-07	-1.581473e-06	-1.256759e-08	-1.132660e+01	-8.269646e+02
6.900000e-07	-1.473190e-06	-1.215992e-08	-1.055107e+01	-8.002724e+02
7.000000e-07	-1.364460e-06	-1.173574e-08	-9.772345e+00	-7.720704e+02
7.100000e-07	-1.255349e-06	-1.128567e-08	-8.990885e+00	-7.422700e+02
7.200000e-07	-1.145807e-06	-1.080449e-08	-8.206338e+00	-7.107888e+02
7.300000e-07	-1.035930e-06	-1.029194e-08	-7.419395e+00	-6.775539e+02
7.400000e-07	-9.257904e-07	-9.751882e-09	-6.630567e+00	-6.425077e+02
7.500000e-07	-8.153382e-07	-9.188000e-09	-5.839501e+00	-6.056182e+02
7.600000e-07	-7.046158e-07	-8.599227e-09	-5.046501e+00	-5.668929e+02
7.700000e-07	-5.937159e-07	-7.981848e-09	-4.252229e+00	-5.263931e+02
7.800000e-07	-4.827101e-07	-7.336512e-09	-3.457199e+00	-4.842450e+02
7.900000e-07	-3.715969e-07	-6.669732e-09	-2.661400e+00	-4.406442e+02
8.000000e-07	-2.602917e-07	-5.986554e-09	-1.864225e+00	-3.958489e+02
8.100000e-07	-1.488526e-07	-5.292602e-09	-1.066091e+00	-3.501610e+02
8.200000e-07	-3.730548e-08	-4.592272e-09	-2.671841e-01	-3.038959e+02
8.300000e-07	7.430967e-08	-3.888445e-09	5.322103e-01	-2.573445e+02
8.400000e-07	1.859013e-07	-3.181392e-09	1.331436e+00	-2.107335e+02
8.500000e-07	2.974620e-07	-2.471490e-09	2.130441e+00	-1.641920e+02
8.600000e-07	4.088875e-07	-1.760250e-09	2.928477e+00	-1.177306e+02
8.700000e-07	5.201516e-07	-1.049115e-09	3.725357e+00	-7.124021e+01
8.800000e-07	6.313012e-07	-3.348041e-10	4.521417e+00	-2.451120e+01
8.900000e-07	7.423077e-07	3.846124e-10	5.316452e+00	2.272825e+01
9.000000e-07	8.531271e-07	1.113692e-09	6.110148e+00	7.075960e+01
9.100000e-07	9.636743e-07	1.858480e-09	6.901893e+00	1.198163e+02
9.200000e-07	1.073878e-06	2.621277e-09	7.691179e+00	1.700304e+02
9.300000e-07	1.183736e-06	3.404302e-09	8.477988e+00	2.213932e+02
9.400000e-07	1.293183e-06	4.203971e-09	9.261852e+00	2.737364e+02
9.500000e-07	1.402196e-06	5.014704e-09	1.004262e+01	3.267367e+02
9.600000e-07	1.510811e-06	5.827669e-09	1.082052e+01	3.799442e+02
9.700000e-07	1.618994e-06	6.634467e-09	1.159533e+01	4.328270e+02
9.800000e-07	1.726645e-06	7.428054e-09	1.236634e+01	4.848267e+02
9.900000e-07	1.833593e-06	8.197720e-09	1.313230e+01	5.354139e+02
1.000000e-06	1.939767e-06	8.935358e-09	1.389273e+01	5.841353e+02
1.010000e-06	2.045140e-06	9.637357e-09	1.464742e+01	6.306472e+02
1.020000e-06	2.149631e-06	1.030267e-08	1.539579e+01	6.747301e+02
1.030000e-06	2.253198e-06	1.092996e-08	1.613754e+01	7.162865e+02
1.040000e-06	2.355904e-06	1.152220e-08	1.687313e+01	7.553237e+02
1.050000e-06	2.457789e-06	1.208037e-08	1.760283e+01	7.919281e+02
1.060000e-06	2.558851e-06	1.260373e-08	1.832665e+01	8.262361e+02
1.070000e-06	2.659128e-06	1.309125e-08	1.904483e+01	8.584070e+02
1.080000e-06	2.758568e-06	1.354518e-08	1.975703e+01	8.886022e+02
1.090000e-06	2.856986e-06	1.397150e-08	2.046190e+01	9.169725e+02
1.100000e-06	2.954136e-06	1.437585e-08	2.115770e+01	9.436525e+02
1.110000e-06	3.050046e-06	1.476006e-08	2.184461e+01	9.687614e+02
1.120000e-06	3.144907e-06	1.512433e-08	2.252401e+01	9.924063e+02
1.130000e-06	3.238744e-06	1.546683e-08	2.319608e+01	1.014687e+03
1.140000e-06	3.331563e-06	1.578633e-08	2.386086e+01	1.035699e+03
1.150000e-06	3.423353e-06	1.608544e-08	2.451826e+01	1.055535e+03
1.160000e-06	3.513957e-06	1.636837e-08	2.516717e+01	1.074284e+03
1.170000e-06	3.603209e-06	1.663927e-08	2.580640e+01	1.092028e+03
1.180000e-06	3.691093e-06	1.689622e-08	2.643583e+01	1.108843e+03
1.190000e-06	3.777688e-06	1.713914e-08	2.705603e+01	1.124793e+03
1.200000e-06	3.863050e-06	1.736768e-08	2.766740e+01	1.139935e+03
1.210000e-06	3.947239e-06	1.758373e-08	2.827037e+01	1.154315e+03
1.220000e-06	4.030152e-06	1.778910e-08	2.886419e+01	1.167977e+03
1.230000e-06	4.111496e-06	1.798493e-08	2.944678e+01	1.180957e+03
1.240000e-06	4.191221e-06	1.817167e-08	3.001778e+01	1.193292e+03
1.250000e-06	4.269428e-06	1.835003e-08	3.057790e+01	1.205015e+03
1.260000e-06	4.346100e-06	1.852017e-08	3.112703e+01	1.216158e+03
1.270000e-06	4.421160e-06	1.868243e-08	3.166461e+01	1.226749e+03
1.280000e-06	4.494405e-06	1.883675e-08	3.218920e+01	1.236813e+03
1.290000e-06	4.565848e-06	1.898290e-08	3.270088e+01	1.246366e+03
1.300000e-06	4.635660e-06	1.912078e-08	3.320087e+01	1.255424e+03
1.310000e-06	4.703872e-06	1.925175e-08	3.368942e+01	1.263996e+03
1.320000e-06	4.770432e-06	1.937632e-08	3.416612e+01	1.272096e+03
1.330000e-06	4.835160e-06	1.949293e-08	3.462971e+01	1.279735e+03
1.340000e-06	4.898085e-06	1.960200e-08	3.508038e+01	1.286934e+03
1.350000e-06	4.959379e-06	1.970367e-08	3.551937e+01	1.293715e+03
1.360000e-06	5.019109e-06	1.980005e-08	3.594716e+01	1.300109e+03
1.370000e-06	5.077047e-06	1.989219e-08	3.636212e+01	1.306149e+03
1.380000e-06	5.132966e-06	1.998030e-08	3.676261e+01	1.311866e+03
1.390000e-06	5.187022e-06	2.006218e-08	3.714976e+01	1.317293e+03
1.400000e-06	5.239136e-06	2.013768e-08	3.752301e+01	1.322454e+03
1.410000e-06	5.289024e-06	2.021096e-08	3.788031e+01	1.327366e+03
1.420000e-06	5.336779e-06	2.028165e-08	3.822234e+01	1.332039e+03
1.430000e-06	5.382717e-06	2.035060e-08	3.855134e+01	1.336477e+03
1.440000e-06	5.426921e-06	2.041647e-08	3.886793e+01	1.340676e+03
1.450000e-06	5.469165e-06	2.047814e-08	3.917049e+01	1.344633e+03
1.460000e-06	5.509318e-06	2.053503e-08	3.945807e+01	1.348341e+03
1.470000e-06	5.547557e-06	2.058670e-08	3.973194e+01	1.351797e+03
1.480000e-06	5.583997e-06	2.063416e-08	3.999292e+01	1.354998e+03
1.490000e-06	5.618449e-06	2.067734e-08	4.023967e+01	1.357947e+03
1.500000e-06	5.650808e-06	2.071780e-08	4.047143e+01	1.360648e+03
1.510000e-06	5.681216e-06	2.075539e-08	4.068921e+01	1.363109e+03
1.520000e-06	5.709786e-06	2.078924e-08	4.089383e+01	1.365341e+03
1.530000e-06	5.736394e-06	2.081971e-08	4.108440e+01	1.367354e+03
1.540000e-06	5.760718e-06	2.084699e-08	4.125861e+01	1.369161e+03
1.550000e-06	5.782864e-06	2.087031e-08	4.141722e+01	1.370773e+03
1.560000e-06	5.803177e-06	2.089164e-08	4.156270e+01	1.372200e+03
1.570000e-06	5.821572e-06	2.091086e-08	4.169445e+01	1.373452e+03
1.580000e-06	5.837754e-06	2.092628e-08	4.181034e+01	1.374533e+03
1.590000e-06	5.851697e-06	2.093923e-08	4.191021e+01	1.375446e+03
1.600000e-06	5.863417e-06	2.095118e-08	4.199414e+01	1.376194e+03
1.610000e-06	5.872734e-06	2.096243e-08	4.206087e+01	1.376776e+03
1.620000e-06	5.879833e-06	2.097152e-08	4.211172e+01	1.377193e+03
1.630000e-06	5.884939e-06	2.097638e-08	4.214829e+01	1.377445e+03
1.640000e-06	5.887968e-06	2.097794e-08	4.216999e+01	1.377536e+03
1.650000e-06	5.888850e-06	2.097890e-08	4.217630e+01	1.377471e+03
1.660000e-06	5.887665e-06	2.097391e-08	4.216781e+01	1.377257e+03
1.670000e-06	5.884651e-06	2.096396e-08	4.214622e+01	1.376900e+03
1.680000e-06	5.879810e-06	2.095762e-08	4.211155e+01	1.376405e+03
1.690000e-06	5.872921e-06	2.095009e-08	4.206221e+01	1.375774e+03
1.700000e-06	5.864063e-06	2.093965e-08	4.199877e+01	1.375005e+03
1.710000e-06	5.853380e-06	2.092831e-08	4.192226e+01	1.374090e+03
1.720000e-06	5.840666e-06	2.092243e-08	4.183120e+01	1.373024e+03
1.730000e-06	5.825827e-06	2.090954e-08	4.172492e+01	1.371799e+03
1.740000e-06	5.809082e-06	2.081745e-08	4.160500e+01	1.370412e+03
1.750000e-06	5.790154e-06	2.077133e-08	4.146943e+01	1.368869e+03
1.760000e-06	5.768345e-06	2.079978e-08	4.131324e+01	1.367179e+03
1.770000e-06	5.743827e-06	2.077432e-08	4.113764e+01	1.365358e+03
1.780000e-06	5.717416e-06	2.082097e-08	4.094848e+01	1.363424e+03
1.790000e-06	5.689880e-06	2.080905e-08	4.075126e+01	1.361395e+03
1.800000e-06	5.661330e-06	2.062810e-08	4.054678e+01	1.359278e+03
1.810000e-06	5.630762e-06	2.067557e-08	4.032785e+01	1.357073e+03
1.820000e-06	5.597899e-06	2.065933e-08	4.009249e+01	1.354762e+03
1.830000e-06	5.563366e-06	2.054094e-08	3.984516e+01	1.352319e+03
1.840000e-06	5.526837e-06	2.065134e-08	3.958354e+01	1.349709e+03
1.850000e-06	5.488103e-06	2.051899e-08	3.930612e+01	1.346895e+03
1.860000e-06	5.447431e-06	2.040775e-08	3.901483e+01	1.343845e+03
1.870000e-06	5.404865e-06	2.046999e-08	3.870997e+01	1.340541e+03
1.880000e-06	5.360661e-06	2.034464e-08	3.839338e+01	1.336980e+03
1.890000e-06	5.314562e-06	2.034543e-08	3.806322e+01	1.333174e+03
1.900000e-06	5.266222e-06	2.026674e-08	3.771700e+01	1.329149e+03
1.910000e-06	5.215809e-06	2.012619e-08	3.735594e+01	1.324933e+03
1.920000e-06	5.163195e-06	2.016001e-08	3.697911e+01	1.320557e+03
1.930000e-06	5.108483e-06	2.005174e-08	3.658726e+01	1.316039e+03
1.940000e-06	5.051913e-06	2.001673e-08	3.618211e+01	1.311381e+03
1.950000e-06	4.993476e-06	1.994926e-08	3.576358e+01	1.306571e+03
1.960000e-06	4.933235e-06	1.983759e-08	3.533213e+01	1.301582e+03
1.970000e-06	4.871060e-06	1.978207e-08	3.488682e+01	1.296379e+03
1.980000e-06	4.807023e-06	1.963211e-08	3.442819e+01	1.290924e+03
1.990000e-06	4.741298e-06	1.960320e-08	3.395746e+01	1.285190e+03
2.000000e-06	4.673969e-06	1.953322e-08	3.347525e+01	1.279158e+03
2.010000e-06	4.604955e-06	1.942672e-08	3.298097e+01	1.272826e+03
2.020000e-06	4.534017e-06	1.932352e-08	3.247290e+01	1.266202e+03
2.030000e-06	4.461390e-06	1.915590e-08	3.195274e+01	1.259300e+03
2.040000e-06	4.387249e-06	1.908822e-08	3.142175e+01	1.252136e+03
2.050000e-06	4.311452e-06	1.898015e-08	3.087888e+01	1.244717e+03
2.060000e-06	4.233861e-06	1.888187e-08	3.032317e+01	1.237039e+03
2.070000e-06	4.154618e-06	1.877777e-08	2.975562e+01	1.229087e+03
2.080000e-06	4.073973e-06	1.863195e-08	2.917804e+01	1.220834e+03
2.090000e-06	3.991915e-06	1.849763e-08	2.859033e+01	1.212250e+03
2.100000e-06	3.908498e-06	1.834020e-08	2.799290e+01	1.203304e+03
2.110000e-06	3.823718e-06	1.822132e-08	2.738570e+01	1.193973e+03
2.120000e-06	3.737506e-06	1.807606e-08	2.676824e+01	1.184242e+03
2.130000e-06	3.649917e-06	1.792605e-08	2.614092e+01	1.174105e+03
2.140000e-06	3.561023e-06	1.776564e-08	2.550426e+01	1.163563e+03
2.150000e-06	3.470922e-06	1.759203e-08	2.485895e+01	1.152616e+03
2.160000e-06	3.379736e-06	1.742377e-08	2.420588e+01	1.141257e+03
2.170000e-06	3.287435e-06	1.724486e-08	2.354481e+01	1.129468e+03
2.180000e-06	3.193807e-06	1.706952e-08	2.287424e+01	1.117218e+03
2.190000e-06	3.098894e-06	1.687258e-08	2.219446e+01	1.104466e+03
2.200000e-06	3.002881e-06	1.666771e-08	2.150681e+01	1.091159e+03
2.210000e-06	2.905825e-06	1.645382e-08	2.081169e+01	1.077247e+03
2.220000e-06	2.807698e-06	1.623644e-08	2.010890e+01	1.062680e+03
2.230000e-06	2.708607e-06	1.600540e-08	1.939921e+01	1.047420e+03
2.240000e-06	2.608649e-06	1.576124e-08	1.868330e+01	1.031437e+03
2.250000e-06	2.507759e-06	1.551276e-08	1.796072e+01	1.014706e+03
2.260000e-06	2.405856e-06	1.524919e-08	1.723089e+01	9.972041e+02
2.270000e-06	2.302896e-06	1.497050e-08	1.649348e+01	9.789040e+02
2.280000e-06	2.198930e-06	1.467711e-08	1.574887e+01	9.597650e+02
2.290000e-06	2.094148e-06	1.437300e-08	1.499841e+01	9.397309e+02
2.300000e-06	1.988712e-06	1.405171e-08	1.424327e+01	9.187286e+02
2.310000e-06	1.882648e-06	1.371791e-08	1.348364e+01	8.966706e+02
2.320000e-06	1.776015e-06	1.336916e-08	1.271993e+01	8.734594e+02
2.330000e-06	1.668857e-06	1.300153e-08	1.195245e+01	8.489933e+02
2.340000e-06	1.561170e-06	1.260721e-08	1.118119e+01	8.231712e+02
2.350000e-06	1.452977e-06	1.218667e-08	1.040631e+01	7.958958e+02
2.360000e-06	1.344354e-06	1.174767e-08	9.628348e+00	7.670750e+02
2.370000e-06	1.235341e-06	1.128871e-08	8.847590e+00	7.366226e+02
2.380000e-06	1.125992e-06	1.080664e-08	8.064422e+00	7.044596e+02
2.390000e-06	1.016336e-06	1.029145e-08	7.279058e+00	6.705178e+02
2.400000e-06	9.063864e-07	9.740870e-09	6.491594e+00	6.347483e+02
2.410000e-06	7.961128e-07	9.160384e-09	5.701808e+00	5.971330e+02
2.420000e-06	6.854791e-07	8.556531e-09	4.909443e+00	5.576989e+02
2.430000e-06	5.745483e-07	7.932019e-09	4.114949e+00	5.165316e+02
2.440000e-06	4.634311e-07	7.286636e-09	3.319121e+00	4.737848e+02
2.450000e-06	3.521775e-07	6.618560e-09	2.522317e+00	4.296799e+02
2.460000e-06	2.407543e-07	5.927702e-09	1.724297e+00	3.844954e+02
2.470000e-06	1.291688e-07	5.221279e-09	9.251144e-01	3.385425e+02
2.480000e-06	1.750028e-08	4.507642e-09	1.253381e-01	2.921320e+02
2.490000e-06	-9.415966e-08	3.793450e-09	-6.743772e-01	2.455339e+02
2.500000e-06	-2.057875e-07	3.082501e-09	-1.473862e+00	1.989401e+02
2.510000e-06	-3.173439e-07	2.373500e-09	-2.272836e+00	1.524345e+02
2.520000e-06	-4.287319e-07	1.663919e-09	-3.070604e+00	1.059800e+02
2.530000e-06	-5.399309e-07	9.510768e-10	-3.867018e+00	5.942433e+01
2.540000e-06	-6.509087e-07	2.335067e-10	-4.661847e+00	1.252799e+01
2.550000e-06	-7.616509e-07	-4.917004e-10	-5.454990e+00	-3.499139e+01
2.560000e-06	-8.721286e-07	-1.228179e-09	-6.246237e+00	-8.340326e+01
2.570000e-06	-9.821678e-07	-1.980905e-09	-7.034345e+00	-1.329070e+02
2.580000e-06	-1.091782e-06	-2.753691e-09	-7.819407e+00	-1.835831e+02
2.590000e-06	-1.201063e-06	-3.544151e-09	-8.602085e+00	-2.353611e+02
2.600000e-06	-1.309970e-06	-4.350080e-09	-9.382086e+00	-2.880099e+02
2.610000e-06	-1.418484e-06	-5.164438e-09	-1.015927e+01	-3.411520e+02
2.620000e-06	-1.526519e-06	-5.975691e-09	-1.093302e+01	-3.942991e+02
2.630000e-06	-1.634027e-06	-6.776603e-09	-1.170300e+01	-4.469022e+02
2.640000e-06	-1.740978e-06	-7.561665e-09	-1.246899e+01	-4.984078e+02
2.650000e-06	-1.847324e-06	-8.324133e-09	-1.323064e+01	-5.483115e+02
2.660000e-06	-1.953012e-06	-9.057394e-09	-1.398759e+01	-5.962002e+02
2.670000e-06	-2.057995e-06	-9.758276e-09	-1.473948e+01	-6.417781e+02
2.680000e-06	-2.162272e-06	-1.042290e-08	-1.548632e+01	-6.848747e+02
2.690000e-06	-2.265707e-06	-1.104723e-08	-1.622713e+01	-7.254366e+02
2.700000e-06	-2.368143e-06	-1.163204e-08	-1.696078e+01	-7.635053e+02
2.710000e-06	-2.469628e-06	-1.218147e-08	-1.768763e+01	-7.991906e+02
2.720000e-06	-2.570155e-06	-1.269631e-08	-1.840760e+01	-8.326405e+02
2.730000e-06	-2.669675e-06	-1.317622e-08	-1.912037e+01	-8.640173e+02
2.740000e-06	-2.768304e-06	-1.362644e-08	-1.982676e+01	-8.934795e+02
2.750000e-06	-2.866059e-06	-1.404947e-08	-2.052688e+01	-9.211716e+02
2.760000e-06	-2.962881e-06	-1.444748e-08	-2.122033e+01	-9.472220e+02
2.770000e-06	-3.058786e-06	-1.482305e-08	-2.190721e+01	-9.717445e+02
2.780000e-06	-3.153704e-06	-1.517674e-08	-2.258701e+01	-9.948429e+02
2.790000e-06	-3.247401e-06	-1.551060e-08	-2.325808e+01	-1.016615e+03
2.800000e-06	-3.339805e-06	-1.582566e-08	-2.391988e+01	-1.037155e+03
2.810000e-06	-3.430998e-06	-1.612334e-08	-2.457301e+01	-1.056555e+03
2.820000e-06	-3.520967e-06	-1.640324e-08	-2.521738e+01	-1.074901e+03
2.830000e-06	-3.609688e-06	-1.666542e-08	-2.585280e+01	-1.092272e+03
2.840000e-06	-3.697178e-06	-1.691503e-08	-2.647941e+01	-1.108741e+03
2.850000e-06	-3.783342e-06	-1.715505e-08	-2.709652e+01	-1.124369e+03
2.860000e-06	-3.868089e-06	-1.738553e-08	-2.770349e+01	-1.139207e+03
2.870000e-06	-3.951440e-06	-1.760598e-08	-2.830045e+01	-1.153301e+03
2.880000e-06	-4.033418e-06	-1.781486e-08	-2.888758e+01	-1.166692e+03
2.890000e-06	-4.114045e-06	-1.801063e-08	-2.946504e+01	-1.179415e+03
2.900000e-06	-4.193230e-06	-1.819263e-08	-3.003217e+01	-1.191507e+03
2.910000e-06	-4.270683e-06	-1.836557e-08	-3.058689e+01	-1.202999e+03
2.920000e-06	-4.346352e-06	-1.853223e-08	-3.112884e+01	-1.213924e+03
2.930000e-06	-4.420391e-06	-1.869100e-08	-3.165910e+01	-1.224306e+03
2.940000e-06	-4.492825e-06	-1.884184e-08	-3.217789e+01	-1.234168e+03
