# Temperatura_=_44.02
# Concentracion g/m^3_=_28200.0
# C_Vs_to_Am_M_A/Vsm_=_65563218390.804596
# pendiente_HvsI_1/m_=_3716.3
# ordenada_HvsI_A/m_=_1297.0
# frecuencia_Hz_=_301919.7435770184

Tiempo_(s)	Campo_(V.s)	Magnetizacion_(V.s)	Campo_(kA/m)	Magnetizacion_(A/m)
0.000000e+00	-5.829755e-06	-2.091961e-08	-4.194838e+01	-1.369656e+03
1.000000e-08	-5.827799e-06	-2.091872e-08	-4.193430e+01	-1.369407e+03
2.000000e-08	-5.823866e-06	-2.091225e-08	-4.190600e+01	-1.369023e+03
3.000000e-08	-5.818135e-06	-2.090188e-08	-4.186476e+01	-1.368498e+03
4.000000e-08	-5.810602e-06	-2.089217e-08	-4.181056e+01	-1.367823e+03
5.000000e-08	-5.801085e-06	-2.087873e-08	-4.174209e+01	-1.366987e+03
6.000000e-08	-5.789385e-06	-2.085972e-08	-4.165790e+01	-1.365983e+03
7.000000e-08	-5.775621e-06	-2.083275e-08	-4.155885e+01	-1.364808e+03
8.000000e-08	-5.759693e-06	-2.080260e-08	-4.144425e+01	-1.363470e+03
9.000000e-08	-5.741585e-06	-2.082822e-08	-4.131395e+01	-1.361983e+03
1.000000e-07	-5.721428e-06	-2.084633e-08	-4.116891e+01	-1.360367e+03
1.100000e-07	-5.699090e-06	-2.078056e-08	-4.100817e+01	-1.358644e+03
1.200000e-07	-5.674532e-06	-2.073346e-08	-4.083146e+01	-1.356832e+03
1.300000e-07	-5.647905e-06	-2.068684e-08	-4.063986e+01	-1.354942e+03
1.400000e-07	-5.619679e-06	-2.055338e-08	-4.043676e+01	-1.352972e+03
1.500000e-07	-5.590076e-06	-2.059682e-08	-4.022376e+01	-1.350909e+03
1.600000e-07	-5.558805e-06	-2.066079e-08	-3.999874e+01	-1.348726e+03
1.700000e-07	-5.525718e-06	-2.051625e-08	-3.976066e+01	-1.346392e+03
1.800000e-07	-5.490697e-06	-2.056284e-08	-3.950867e+01	-1.343872e+03
1.900000e-07	-5.453630e-06	-2.052855e-08	-3.924195e+01	-1.341137e+03
2.000000e-07	-5.414718e-06	-2.034448e-08	-3.896196e+01	-1.338167e+03
2.100000e-07	-5.373966e-06	-2.036520e-08	-3.866872e+01	-1.334957e+03
2.200000e-07	-5.331113e-06	-2.031434e-08	-3.836037e+01	-1.331511e+03
2.300000e-07	-5.286225e-06	-2.022719e-08	-3.803738e+01	-1.327849e+03
2.400000e-07	-5.239346e-06	-2.021851e-08	-3.770005e+01	-1.323991e+03
2.500000e-07	-5.190258e-06	-2.015100e-08	-3.734684e+01	-1.319960e+03
2.600000e-07	-5.138801e-06	-2.009164e-08	-3.697658e+01	-1.315769e+03
2.700000e-07	-5.085166e-06	-2.000068e-08	-3.659064e+01	-1.311422e+03
2.800000e-07	-5.029722e-06	-1.991199e-08	-3.619169e+01	-1.306909e+03
2.900000e-07	-4.972425e-06	-1.985774e-08	-3.577940e+01	-1.302211e+03
3.000000e-07	-4.913170e-06	-1.978566e-08	-3.535303e+01	-1.297301e+03
3.100000e-07	-4.852116e-06	-1.972104e-08	-3.491371e+01	-1.292151e+03
3.200000e-07	-4.789352e-06	-1.963011e-08	-3.446209e+01	-1.286739e+03
3.300000e-07	-4.724856e-06	-1.953888e-08	-3.399801e+01	-1.281048e+03
3.400000e-07	-4.658586e-06	-1.943273e-08	-3.352116e+01	-1.275076e+03
3.500000e-07	-4.590532e-06	-1.932619e-08	-3.303147e+01	-1.268828e+03
3.600000e-07	-4.520799e-06	-1.924633e-08	-3.252970e+01	-1.262315e+03
3.700000e-07	-4.449537e-06	-1.914529e-08	-3.201693e+01	-1.255549e+03
3.800000e-07	-4.376765e-06	-1.904754e-08	-3.149329e+01	-1.248539e+03
3.900000e-07	-4.302192e-06	-1.892675e-08	-3.095670e+01	-1.241283e+03
4.000000e-07	-4.225772e-06	-1.878989e-08	-3.040682e+01	-1.233772e+03
4.100000e-07	-4.147710e-06	-1.867285e-08	-2.984512e+01	-1.225984e+03
4.200000e-07	-4.068000e-06	-1.855389e-08	-2.927156e+01	-1.217894e+03
4.300000e-07	-3.986771e-06	-1.843406e-08	-2.868707e+01	-1.209474e+03
4.400000e-07	-3.904252e-06	-1.829800e-08	-2.809330e+01	-1.200699e+03
4.500000e-07	-3.820551e-06	-1.816299e-08	-2.749102e+01	-1.191550e+03
4.600000e-07	-3.735640e-06	-1.801656e-08	-2.688004e+01	-1.182016e+03
4.700000e-07	-3.649560e-06	-1.785693e-08	-2.626064e+01	-1.172093e+03
4.800000e-07	-3.562305e-06	-1.769849e-08	-2.563280e+01	-1.161777e+03
4.900000e-07	-3.473829e-06	-1.753303e-08	-2.499616e+01	-1.151065e+03
5.000000e-07	-3.384061e-06	-1.736312e-08	-2.435023e+01	-1.139945e+03
5.100000e-07	-3.292870e-06	-1.718241e-08	-2.369406e+01	-1.128396e+03
5.200000e-07	-3.200470e-06	-1.699644e-08	-2.302919e+01	-1.116388e+03
5.300000e-07	-3.107001e-06	-1.680032e-08	-2.235662e+01	-1.103881e+03
5.400000e-07	-3.012426e-06	-1.659931e-08	-2.167610e+01	-1.090832e+03
5.500000e-07	-2.916789e-06	-1.639308e-08	-2.098794e+01	-1.077198e+03
5.600000e-07	-2.820095e-06	-1.617655e-08	-2.029218e+01	-1.062939e+03
5.700000e-07	-2.722186e-06	-1.594916e-08	-1.958767e+01	-1.048023e+03
5.800000e-07	-2.622984e-06	-1.570644e-08	-1.887385e+01	-1.032421e+03
5.900000e-07	-2.522814e-06	-1.544959e-08	-1.815307e+01	-1.016110e+03
6.000000e-07	-2.421850e-06	-1.518197e-08	-1.742658e+01	-9.990646e+02
6.100000e-07	-2.320034e-06	-1.491074e-08	-1.669395e+01	-9.812513e+02
6.200000e-07	-2.217359e-06	-1.463380e-08	-1.595515e+01	-9.626258e+02
6.300000e-07	-2.113879e-06	-1.434282e-08	-1.521055e+01	-9.431297e+02
6.400000e-07	-2.009674e-06	-1.403130e-08	-1.446074e+01	-9.226903e+02
6.500000e-07	-1.904813e-06	-1.369894e-08	-1.370621e+01	-9.012234e+02
6.600000e-07	-1.799254e-06	-1.334828e-08	-1.294665e+01	-8.786373e+02
6.700000e-07	-1.692792e-06	-1.298000e-08	-1.218060e+01	-8.548370e+02
6.800000e-07	-1.585498e-06	-1.259579e-08	-1.140855e+01	-8.297281e+02
6.900000e-07	-1.477645e-06	-1.219226e-08	-1.063249e+01	-8.032185e+02
7.000000e-07	-1.369398e-06	-1.176596e-08	-9.853593e+00	-7.752184e+02
7.100000e-07	-1.260825e-06	-1.131371e-08	-9.072347e+00	-7.456411e+02
7.200000e-07	-1.151923e-06	-1.083495e-08	-8.288737e+00	-7.144028e+02
7.300000e-07	-1.042698e-06	-1.033088e-08	-7.502798e+00	-6.814262e+02
7.400000e-07	-9.331196e-07	-9.801821e-09	-6.714322e+00	-6.466484e+02
7.500000e-07	-8.232153e-07	-9.246546e-09	-5.923499e+00	-6.100313e+02
7.600000e-07	-7.130108e-07	-8.661095e-09	-5.130515e+00	-5.715764e+02
7.700000e-07	-6.025496e-07	-8.043539e-09	-4.335685e+00	-5.313391e+02
7.800000e-07	-4.919544e-07	-7.399276e-09	-3.539890e+00	-4.894395e+02
7.900000e-07	-3.812552e-07	-6.736140e-09	-2.743347e+00	-4.460662e+02
8.000000e-07	-2.704351e-07	-6.058612e-09	-1.945933e+00	-4.014699e+02
8.100000e-07	-1.594507e-07	-5.369260e-09	-1.147338e+00	-3.559446e+02
8.200000e-07	-4.828127e-08	-4.671060e-09	-3.474110e-01	-3.097991e+02
8.300000e-07	6.292382e-08	-3.965837e-09	4.527724e-01	-2.633204e+02
8.400000e-07	1.740644e-07	-3.257062e-09	1.252492e+00	-2.167361e+02
8.500000e-07	2.851574e-07	-2.548794e-09	2.051869e+00	-1.701818e+02
8.600000e-07	3.961726e-07	-1.839572e-09	2.850685e+00	-1.236812e+02
8.700000e-07	5.071115e-07	-1.128916e-09	3.648953e+00	-7.714247e+01
8.800000e-07	6.179437e-07	-4.145766e-10	4.446454e+00	-3.037515e+01
8.900000e-07	7.285511e-07	3.055711e-10	5.242337e+00	1.687526e+01
9.000000e-07	8.388969e-07	1.035678e-09	6.036337e+00	6.487864e+01
9.100000e-07	9.489718e-07	1.780843e-09	6.828388e+00	1.138655e+02
9.200000e-07	1.058710e-06	2.543397e-09	7.618019e+00	1.639753e+02
9.300000e-07	1.168071e-06	3.323980e-09	8.404927e+00	2.152156e+02
9.400000e-07	1.277046e-06	4.118876e-09	9.189066e+00	2.674410e+02
9.500000e-07	1.385657e-06	4.924503e-09	9.970585e+00	3.203534e+02
9.600000e-07	1.493894e-06	5.735412e-09	1.074941e+01	3.735247e+02
9.700000e-07	1.601665e-06	6.544045e-09	1.152489e+01	4.264381e+02
9.800000e-07	1.708911e-06	7.341148e-09	1.229658e+01	4.785401e+02
9.900000e-07	1.815424e-06	8.114459e-09	1.306300e+01	5.292956e+02
1.000000e-06	1.920999e-06	8.855241e-09	1.382267e+01	5.782371e+02
1.010000e-06	2.025703e-06	9.561409e-09	1.457607e+01	6.250008e+02
1.020000e-06	2.129645e-06	1.023090e-08	1.532400e+01	6.693466e+02
1.030000e-06	2.232837e-06	1.086226e-08	1.606652e+01	7.111592e+02
1.040000e-06	2.335227e-06	1.145718e-08	1.680328e+01	7.504342e+02
1.050000e-06	2.436750e-06	1.201599e-08	1.753379e+01	7.872536e+02
1.060000e-06	2.537407e-06	1.253913e-08	1.825808e+01	8.217556e+02
1.070000e-06	2.637325e-06	1.302665e-08	1.897704e+01	8.541052e+02
1.080000e-06	2.736402e-06	1.348485e-08	1.968996e+01	8.844708e+02
1.090000e-06	2.834310e-06	1.391989e-08	2.039446e+01	9.130080e+02
1.100000e-06	2.930997e-06	1.433061e-08	2.109018e+01	9.398528e+02
1.110000e-06	3.026574e-06	1.471746e-08	2.177791e+01	9.651214e+02
1.120000e-06	3.121105e-06	1.508128e-08	2.245812e+01	9.889151e+02
1.130000e-06	3.214597e-06	1.542197e-08	2.313084e+01	1.011327e+03
1.140000e-06	3.307118e-06	1.574056e-08	2.379658e+01	1.032448e+03
1.150000e-06	3.398699e-06	1.604064e-08	2.445556e+01	1.052368e+03
1.160000e-06	3.488991e-06	1.632568e-08	2.510526e+01	1.071178e+03
1.170000e-06	3.577797e-06	1.659819e-08	2.574427e+01	1.088967e+03
1.180000e-06	3.665314e-06	1.685832e-08	2.637400e+01	1.105816e+03
1.190000e-06	3.751655e-06	1.710337e-08	2.699528e+01	1.121798e+03
1.200000e-06	3.836805e-06	1.733324e-08	2.760798e+01	1.136974e+03
1.210000e-06	3.920767e-06	1.754983e-08	2.821213e+01	1.151391e+03
1.220000e-06	4.003358e-06	1.775517e-08	2.880642e+01	1.165088e+03
1.230000e-06	4.084390e-06	1.794968e-08	2.938949e+01	1.178100e+03
1.240000e-06	4.163857e-06	1.813427e-08	2.996131e+01	1.190457e+03
1.250000e-06	4.241834e-06	1.831146e-08	3.052239e+01	1.202190e+03
1.260000e-06	4.318319e-06	1.848233e-08	3.107274e+01	1.213333e+03
1.270000e-06	4.393142e-06	1.864651e-08	3.161114e+01	1.223919e+03
1.280000e-06	4.466151e-06	1.880220e-08	3.213648e+01	1.233980e+03
1.290000e-06	4.537424e-06	1.894901e-08	3.264933e+01	1.243544e+03
1.300000e-06	4.607057e-06	1.908673e-08	3.315038e+01	1.252632e+03
1.310000e-06	4.675080e-06	1.921812e-08	3.363984e+01	1.261259e+03
1.320000e-06	4.741437e-06	1.934378e-08	3.411732e+01	1.269431e+03
1.330000e-06	4.805966e-06	1.946145e-08	3.458164e+01	1.277153e+03
1.340000e-06	4.868758e-06	1.957030e-08	3.503346e+01	1.284430e+03
1.350000e-06	4.929959e-06	1.967212e-08	3.547384e+01	1.291275e+03
1.360000e-06	4.989617e-06	1.976869e-08	3.590311e+01	1.297704e+03
1.370000e-06	5.047483e-06	1.986063e-08	3.631949e+01	1.303748e+03
1.380000e-06	5.103383e-06	1.994936e-08	3.672172e+01	1.309442e+03
1.390000e-06	5.157409e-06	2.003259e-08	3.711047e+01	1.314828e+03
1.400000e-06	5.209426e-06	2.010946e-08	3.748476e+01	1.319946e+03
1.410000e-06	5.259204e-06	2.018198e-08	3.784294e+01	1.324831e+03
1.420000e-06	5.306854e-06	2.025277e-08	3.818582e+01	1.329506e+03
1.430000e-06	5.352690e-06	2.032184e-08	3.851563e+01	1.333982e+03
1.440000e-06	5.396853e-06	2.038651e-08	3.883341e+01	1.338258e+03
1.450000e-06	5.439138e-06	2.044665e-08	3.913767e+01	1.342319e+03
1.460000e-06	5.479330e-06	2.050432e-08	3.942688e+01	1.346146e+03
1.470000e-06	5.517603e-06	2.055897e-08	3.970227e+01	1.349719e+03
1.480000e-06	5.554173e-06	2.060897e-08	3.996541e+01	1.353023e+03
1.490000e-06	5.588870e-06	2.065376e-08	4.021507e+01	1.356050e+03
1.500000e-06	5.621362e-06	2.069382e-08	4.044887e+01	1.358805e+03
1.510000e-06	5.651826e-06	2.073116e-08	4.066808e+01	1.361300e+03
1.520000e-06	5.680548e-06	2.076600e-08	4.087475e+01	1.363555e+03
1.530000e-06	5.707293e-06	2.079699e-08	4.106720e+01	1.365594e+03
1.540000e-06	5.731706e-06	2.082476e-08	4.124286e+01	1.367437e+03
1.550000e-06	5.753942e-06	2.085000e-08	4.140286e+01	1.369102e+03
1.560000e-06	5.774319e-06	2.087247e-08	4.154949e+01	1.370598e+03
1.570000e-06	5.792780e-06	2.089227e-08	4.168232e+01	1.371927e+03
1.580000e-06	5.809060e-06	2.090876e-08	4.179947e+01	1.373087e+03
1.590000e-06	5.823153e-06	2.092318e-08	4.190088e+01	1.374072e+03
1.600000e-06	5.835047e-06	2.093713e-08	4.198646e+01	1.374876e+03
1.610000e-06	5.844572e-06	2.094914e-08	4.205499e+01	1.375499e+03
1.620000e-06	5.851860e-06	2.095784e-08	4.210744e+01	1.375944e+03
1.630000e-06	5.857130e-06	2.096335e-08	4.214536e+01	1.376220e+03
1.640000e-06	5.860376e-06	2.096544e-08	4.216872e+01	1.376336e+03
1.650000e-06	5.861430e-06	2.096687e-08	4.217630e+01	1.376306e+03
1.660000e-06	5.860426e-06	2.096327e-08	4.216907e+01	1.376138e+03
1.670000e-06	5.857655e-06	2.095404e-08	4.214913e+01	1.375836e+03
1.680000e-06	5.852999e-06	2.094988e-08	4.211564e+01	1.375396e+03
1.690000e-06	5.846254e-06	2.094448e-08	4.206710e+01	1.374813e+03
1.700000e-06	5.837595e-06	2.093321e-08	4.200479e+01	1.374075e+03
1.710000e-06	5.827196e-06	2.092178e-08	4.192997e+01	1.373173e+03
1.720000e-06	5.814836e-06	2.091709e-08	4.184103e+01	1.372101e+03
1.730000e-06	5.800346e-06	2.091526e-08	4.173677e+01	1.370860e+03
1.740000e-06	5.783917e-06	2.083263e-08	4.161855e+01	1.369461e+03
1.750000e-06	5.765378e-06	2.076404e-08	4.148515e+01	1.367919e+03
1.760000e-06	5.744061e-06	2.079055e-08	4.133176e+01	1.366258e+03
1.770000e-06	5.719989e-06	2.077396e-08	4.115855e+01	1.364497e+03
1.780000e-06	5.693852e-06	2.081633e-08	4.097048e+01	1.362653e+03
1.790000e-06	5.666491e-06	2.084112e-08	4.077360e+01	1.360732e+03
1.800000e-06	5.638198e-06	2.063876e-08	4.057002e+01	1.358727e+03
1.810000e-06	5.607976e-06	2.064376e-08	4.035256e+01	1.356620e+03
1.820000e-06	5.575413e-06	2.066252e-08	4.011824e+01	1.354381e+03
1.830000e-06	5.541150e-06	2.051283e-08	3.987170e+01	1.351977e+03
1.840000e-06	5.505013e-06	2.063612e-08	3.961168e+01	1.349375e+03
1.850000e-06	5.466697e-06	2.058292e-08	3.933597e+01	1.346548e+03
1.860000e-06	5.426383e-06	2.042472e-08	3.904589e+01	1.343483e+03
1.870000e-06	5.384142e-06	2.048295e-08	3.874194e+01	1.340178e+03
1.880000e-06	5.340265e-06	2.035359e-08	3.842622e+01	1.336644e+03
1.890000e-06	5.294519e-06	2.028988e-08	3.809706e+01	1.332901e+03
1.900000e-06	5.246491e-06	2.024847e-08	3.775146e+01	1.328972e+03
1.910000e-06	5.196421e-06	2.013370e-08	3.739118e+01	1.324876e+03
1.920000e-06	5.144206e-06	2.019695e-08	3.701547e+01	1.320623e+03
1.930000e-06	5.089878e-06	2.008374e-08	3.662455e+01	1.316212e+03
1.940000e-06	5.033717e-06	1.998809e-08	3.622043e+01	1.311629e+03
1.950000e-06	4.975717e-06	1.993231e-08	3.580310e+01	1.306850e+03
1.960000e-06	4.915986e-06	1.980586e-08	3.537330e+01	1.301848e+03
1.970000e-06	4.854366e-06	1.978106e-08	3.492991e+01	1.296597e+03
1.980000e-06	4.790794e-06	1.965725e-08	3.447247e+01	1.291075e+03
1.990000e-06	4.725538e-06	1.960212e-08	3.400292e+01	1.285273e+03
2.000000e-06	4.658676e-06	1.954141e-08	3.352180e+01	1.279191e+03
2.010000e-06	4.590194e-06	1.939476e-08	3.302904e+01	1.272836e+03
2.020000e-06	4.519867e-06	1.930441e-08	3.252300e+01	1.266222e+03
2.030000e-06	4.447734e-06	1.916916e-08	3.200395e+01	1.259359e+03
2.040000e-06	4.374050e-06	1.910910e-08	3.147376e+01	1.252252e+03
2.050000e-06	4.298753e-06	1.900972e-08	3.093196e+01	1.244897e+03
2.060000e-06	4.221782e-06	1.887751e-08	3.037811e+01	1.237279e+03
2.070000e-06	4.143128e-06	1.877132e-08	2.981215e+01	1.229375e+03
2.080000e-06	4.062919e-06	1.861974e-08	2.923500e+01	1.221158e+03
2.090000e-06	3.981323e-06	1.849195e-08	2.864787e+01	1.212600e+03
2.100000e-06	3.898417e-06	1.834032e-08	2.805132e+01	1.203679e+03
2.110000e-06	3.814243e-06	1.821522e-08	2.744563e+01	1.194379e+03
2.120000e-06	3.728726e-06	1.807877e-08	2.683029e+01	1.184692e+03
2.130000e-06	3.641794e-06	1.792223e-08	2.620477e+01	1.174614e+03
2.140000e-06	3.553534e-06	1.776933e-08	2.556968e+01	1.164143e+03
2.150000e-06	3.464042e-06	1.759656e-08	2.492574e+01	1.153271e+03
2.160000e-06	3.373348e-06	1.743244e-08	2.427315e+01	1.141985e+03
2.170000e-06	3.281545e-06	1.725322e-08	2.361257e+01	1.130259e+03
2.180000e-06	3.188609e-06	1.707175e-08	2.294385e+01	1.118059e+03
2.190000e-06	3.094373e-06	1.687686e-08	2.226576e+01	1.105344e+03
2.200000e-06	2.998799e-06	1.667514e-08	2.157805e+01	1.092069e+03
2.210000e-06	2.902168e-06	1.646375e-08	2.088274e+01	1.078193e+03
2.220000e-06	2.804593e-06	1.624118e-08	2.018063e+01	1.063679e+03
2.230000e-06	2.706031e-06	1.601733e-08	1.947142e+01	1.048495e+03
2.240000e-06	2.606552e-06	1.578451e-08	1.875561e+01	1.032617e+03
2.250000e-06	2.506265e-06	1.554181e-08	1.803400e+01	1.016020e+03
2.260000e-06	2.405142e-06	1.527379e-08	1.730636e+01	9.986766e+02
2.270000e-06	2.302911e-06	1.498804e-08	1.657075e+01	9.805495e+02
2.280000e-06	2.199526e-06	1.469198e-08	1.582683e+01	9.615891e+02
2.290000e-06	2.095306e-06	1.439186e-08	1.507691e+01	9.417310e+02
2.300000e-06	1.990473e-06	1.408038e-08	1.432257e+01	9.208977e+02
2.310000e-06	1.884954e-06	1.375318e-08	1.356331e+01	8.990015e+02
2.320000e-06	1.778827e-06	1.340708e-08	1.279966e+01	8.759489e+02
2.330000e-06	1.672191e-06	1.303456e-08	1.203236e+01	8.516449e+02
2.340000e-06	1.565004e-06	1.263933e-08	1.126109e+01	8.259958e+02
2.350000e-06	1.457307e-06	1.222496e-08	1.048615e+01	7.989103e+02
2.360000e-06	1.349202e-06	1.179498e-08	9.708272e+00	7.703001e+02
2.370000e-06	1.240771e-06	1.134093e-08	8.928047e+00	7.400792e+02
2.380000e-06	1.132033e-06	1.085637e-08	8.145615e+00	7.081658e+02
2.390000e-06	1.022942e-06	1.033879e-08	7.360645e+00	6.744872e+02
2.400000e-06	9.135060e-07	9.791558e-09	6.573192e+00	6.389887e+02
2.410000e-06	8.037235e-07	9.218942e-09	5.783244e+00	6.016459e+02
2.420000e-06	6.935697e-07	8.623194e-09	4.990626e+00	5.624800e+02
2.430000e-06	5.831088e-07	8.005532e-09	4.195797e+00	5.215707e+02
2.440000e-06	4.724735e-07	7.362549e-09	3.399714e+00	4.790652e+02
2.450000e-06	3.617188e-07	6.693315e-09	2.602771e+00	4.351778e+02
2.460000e-06	2.508153e-07	6.001007e-09	1.804758e+00	3.901791e+02
2.470000e-06	1.398142e-07	5.295527e-09	1.006042e+00	3.443729e+02
2.480000e-06	2.877778e-08	4.584836e-09	2.070724e-01	2.980640e+02
2.490000e-06	-8.232483e-08	3.872192e-09	-5.923737e-01	2.515203e+02
2.500000e-06	-1.934461e-07	3.160059e-09	-1.391954e+00	2.049367e+02
2.510000e-06	-3.044618e-07	2.451046e-09	-2.190775e+00	1.584064e+02
2.520000e-06	-4.153254e-07	1.743518e-09	-2.988501e+00	1.119070e+02
2.530000e-06	-5.260358e-07	1.031821e-09	-3.785125e+00	6.530492e+01
2.540000e-06	-6.365132e-07	3.131351e-10	-4.580072e+00	1.837940e+01
2.550000e-06	-7.466989e-07	-4.139580e-10	-5.372920e+00	-2.913637e+01
2.560000e-06	-8.566116e-07	-1.151819e-09	-6.163804e+00	-7.750341e+01
2.570000e-06	-9.661814e-07	-1.904562e-09	-6.952221e+00	-1.269222e+02
2.580000e-06	-1.075367e-06	-2.676680e-09	-7.737872e+00	-1.774841e+02
2.590000e-06	-1.184178e-06	-3.467083e-09	-8.520828e+00	-2.291383e+02
2.600000e-06	-1.292629e-06	-4.271940e-09	-9.301195e+00	-2.816779e+02
2.610000e-06	-1.400732e-06	-5.083104e-09	-1.007906e+01	-3.347498e+02
2.620000e-06	-1.508427e-06	-5.892893e-09	-1.085399e+01	-3.878855e+02
2.630000e-06	-1.615596e-06	-6.693832e-09	-1.162512e+01	-4.405472e+02
2.640000e-06	-1.722158e-06	-7.480148e-09	-1.239190e+01	-4.921820e+02
2.650000e-06	-1.828115e-06	-8.247306e-09	-1.315432e+01	-5.422763e+02
2.660000e-06	-1.933474e-06	-8.987780e-09	-1.391244e+01	-5.903998e+02
2.670000e-06	-2.038145e-06	-9.694793e-09	-1.466560e+01	-6.362361e+02
2.680000e-06	-2.142076e-06	-1.036122e-08	-1.541345e+01	-6.795946e+02
2.690000e-06	-2.245178e-06	-1.098568e-08	-1.615532e+01	-7.204062e+02
2.700000e-06	-2.347247e-06	-1.157220e-08	-1.688977e+01	-7.587037e+02
2.710000e-06	-2.448239e-06	-1.212642e-08	-1.761646e+01	-7.945949e+02
2.720000e-06	-2.548343e-06	-1.264655e-08	-1.833676e+01	-8.282318e+02
2.730000e-06	-2.647637e-06	-1.313020e-08	-1.905124e+01	-8.597831e+02
2.740000e-06	-2.746010e-06	-1.358213e-08	-1.975909e+01	-8.894137e+02
2.750000e-06	-2.843376e-06	-1.400641e-08	-2.045970e+01	-9.172718e+02
2.760000e-06	-2.939819e-06	-1.440788e-08	-2.115366e+01	-9.434853e+02
2.770000e-06	-3.035450e-06	-1.478860e-08	-2.184178e+01	-9.681637e+02
2.780000e-06	-3.130052e-06	-1.514704e-08	-2.252249e+01	-9.914045e+02
2.790000e-06	-3.223334e-06	-1.548286e-08	-2.319371e+01	-1.013299e+03
2.800000e-06	-3.315378e-06	-1.579699e-08	-2.385602e+01	-1.033938e+03
2.810000e-06	-3.406273e-06	-1.609279e-08	-2.451006e+01	-1.053412e+03
2.820000e-06	-3.495921e-06	-1.637227e-08	-2.515513e+01	-1.071811e+03
2.830000e-06	-3.584391e-06	-1.663689e-08	-2.579172e+01	-1.089223e+03
2.840000e-06	-3.671709e-06	-1.688933e-08	-2.642002e+01	-1.105724e+03
2.850000e-06	-3.757630e-06	-1.713104e-08	-2.703827e+01	-1.121384e+03
2.860000e-06	-3.842067e-06	-1.736202e-08	-2.764585e+01	-1.136257e+03
2.870000e-06	-3.925162e-06	-1.758266e-08	-2.824376e+01	-1.150388e+03
2.880000e-06	-4.006946e-06	-1.779171e-08	-2.883224e+01	-1.163813e+03
2.890000e-06	-4.087380e-06	-1.798709e-08	-2.941100e+01	-1.176564e+03
2.900000e-06	-4.166252e-06	-1.816948e-08	-2.997854e+01	-1.188673e+03
2.910000e-06	-4.243362e-06	-1.834262e-08	-3.053339e+01	-1.200171e+03
2.920000e-06	-4.318834e-06	-1.850916e-08	-3.107645e+01	-1.211092e+03
2.930000e-06	-4.392717e-06	-1.866683e-08	-3.160808e+01	-1.221469e+03
2.940000e-06	-4.464997e-06	-1.881650e-08	-3.212817e+01	-1.231333e+03
