# Temperatura_=_71.02
# Concentracion g/m^3_=_28200.0
# C_Vs_to_Am_M_A/Vsm_=_65563218390.804596
# pendiente_HvsI_1/m_=_3716.3
# ordenada_HvsI_A/m_=_1297.0
# frecuencia_Hz_=_301921.04218014376

Tiempo_(s)	Campo_(V.s)	Magnetizacion_(V.s)	Campo_(kA/m)	Magnetizacion_(A/m)
0.000000e+00	-5.856268e-06	-2.332096e-08	-4.194945e+01	-1.527682e+03
1.000000e-08	-5.854343e-06	-2.332372e-08	-4.193566e+01	-1.527386e+03
2.000000e-08	-5.850419e-06	-2.331948e-08	-4.190755e+01	-1.526934e+03
3.000000e-08	-5.844661e-06	-2.330934e-08	-4.186630e+01	-1.526325e+03
4.000000e-08	-5.837126e-06	-2.329790e-08	-4.181233e+01	-1.525552e+03
5.000000e-08	-5.827661e-06	-2.327960e-08	-4.174453e+01	-1.524603e+03
6.000000e-08	-5.815963e-06	-2.325710e-08	-4.166073e+01	-1.523471e+03
7.000000e-08	-5.802175e-06	-2.322587e-08	-4.156197e+01	-1.522147e+03
8.000000e-08	-5.786195e-06	-2.318766e-08	-4.144750e+01	-1.520631e+03
9.000000e-08	-5.768059e-06	-2.323059e-08	-4.131759e+01	-1.518927e+03
1.000000e-07	-5.747897e-06	-2.326783e-08	-4.117317e+01	-1.517048e+03
1.100000e-07	-5.725544e-06	-2.316946e-08	-4.101305e+01	-1.515016e+03
1.200000e-07	-5.700923e-06	-2.310626e-08	-4.083669e+01	-1.512853e+03
1.300000e-07	-5.674193e-06	-2.307987e-08	-4.064521e+01	-1.510582e+03
1.400000e-07	-5.645908e-06	-2.289850e-08	-4.044260e+01	-1.508217e+03
1.500000e-07	-5.616258e-06	-2.294414e-08	-4.023022e+01	-1.505764e+03
1.600000e-07	-5.584925e-06	-2.306662e-08	-4.000577e+01	-1.503213e+03
1.700000e-07	-5.551712e-06	-2.282068e-08	-3.976786e+01	-1.500540e+03
1.800000e-07	-5.516572e-06	-2.289451e-08	-3.951614e+01	-1.497710e+03
1.900000e-07	-5.479434e-06	-2.290183e-08	-3.925012e+01	-1.494680e+03
2.000000e-07	-5.440441e-06	-2.265608e-08	-3.897081e+01	-1.491409e+03
2.100000e-07	-5.399547e-06	-2.275989e-08	-3.867787e+01	-1.487864e+03
2.200000e-07	-5.356527e-06	-2.269161e-08	-3.836972e+01	-1.484025e+03
2.300000e-07	-5.311503e-06	-2.254463e-08	-3.804720e+01	-1.479888e+03
2.400000e-07	-5.264440e-06	-2.253479e-08	-3.771008e+01	-1.475465e+03
2.500000e-07	-5.215080e-06	-2.242684e-08	-3.735651e+01	-1.470779e+03
2.600000e-07	-5.163335e-06	-2.238115e-08	-3.698585e+01	-1.465859e+03
2.700000e-07	-5.109433e-06	-2.230901e-08	-3.659974e+01	-1.460729e+03
2.800000e-07	-5.053737e-06	-2.219608e-08	-3.620078e+01	-1.455406e+03
2.900000e-07	-4.996175e-06	-2.210390e-08	-3.578845e+01	-1.449892e+03
3.000000e-07	-4.936668e-06	-2.199148e-08	-3.536219e+01	-1.444173e+03
3.100000e-07	-4.875437e-06	-2.193858e-08	-3.492358e+01	-1.438226e+03
3.200000e-07	-4.812513e-06	-2.185533e-08	-3.447285e+01	-1.432021e+03
3.300000e-07	-4.747822e-06	-2.177152e-08	-3.400946e+01	-1.425530e+03
3.400000e-07	-4.681244e-06	-2.165207e-08	-3.353255e+01	-1.418729e+03
3.500000e-07	-4.612882e-06	-2.150581e-08	-3.304286e+01	-1.411608e+03
3.600000e-07	-4.542846e-06	-2.140781e-08	-3.254118e+01	-1.404167e+03
3.700000e-07	-4.471321e-06	-2.127954e-08	-3.202883e+01	-1.396413e+03
3.800000e-07	-4.398200e-06	-2.119032e-08	-3.150506e+01	-1.388361e+03
3.900000e-07	-4.323149e-06	-2.107219e-08	-3.096745e+01	-1.380019e+03
4.000000e-07	-4.246387e-06	-2.090604e-08	-3.041760e+01	-1.371391e+03
4.100000e-07	-4.167954e-06	-2.076365e-08	-2.985576e+01	-1.362469e+03
4.200000e-07	-4.087765e-06	-2.062040e-08	-2.928136e+01	-1.353235e+03
4.300000e-07	-4.006155e-06	-2.048905e-08	-2.869677e+01	-1.343662e+03
4.400000e-07	-3.923367e-06	-2.033190e-08	-2.810374e+01	-1.333723e+03
4.500000e-07	-3.839408e-06	-2.017895e-08	-2.750233e+01	-1.323390e+03
4.600000e-07	-3.754240e-06	-2.000766e-08	-2.689226e+01	-1.312644e+03
4.700000e-07	-3.667928e-06	-1.982574e-08	-2.627399e+01	-1.301470e+03
4.800000e-07	-3.580505e-06	-1.965862e-08	-2.564777e+01	-1.289861e+03
4.900000e-07	-3.491715e-06	-1.948033e-08	-2.501175e+01	-1.277813e+03
5.000000e-07	-3.401438e-06	-1.929283e-08	-2.436508e+01	-1.265317e+03
5.100000e-07	-3.309792e-06	-1.908727e-08	-2.370860e+01	-1.252357e+03
5.200000e-07	-3.216972e-06	-1.887970e-08	-2.304372e+01	-1.238907e+03
5.300000e-07	-3.123071e-06	-1.865898e-08	-2.237109e+01	-1.224929e+03
5.400000e-07	-3.028088e-06	-1.843128e-08	-2.169071e+01	-1.210378e+03
5.500000e-07	-2.932043e-06	-1.819776e-08	-2.100272e+01	-1.195204e+03
5.600000e-07	-2.834783e-06	-1.795605e-08	-2.030604e+01	-1.179361e+03
5.700000e-07	-2.736257e-06	-1.770303e-08	-1.960027e+01	-1.162806e+03
5.800000e-07	-2.636630e-06	-1.743894e-08	-1.888663e+01	-1.145505e+03
5.900000e-07	-2.536098e-06	-1.716664e-08	-1.816651e+01	-1.127430e+03
6.000000e-07	-2.434720e-06	-1.687814e-08	-1.744031e+01	-1.108551e+03
6.100000e-07	-2.332487e-06	-1.657375e-08	-1.670800e+01	-1.088838e+03
6.200000e-07	-2.229481e-06	-1.625568e-08	-1.597015e+01	-1.068245e+03
6.300000e-07	-2.125663e-06	-1.592613e-08	-1.522649e+01	-1.046715e+03
6.400000e-07	-2.020930e-06	-1.558089e-08	-1.447627e+01	-1.024173e+03
6.500000e-07	-1.915355e-06	-1.521950e-08	-1.372001e+01	-1.000528e+03
6.600000e-07	-1.809017e-06	-1.483714e-08	-1.295830e+01	-9.756794e+02
6.700000e-07	-1.701978e-06	-1.443042e-08	-1.219156e+01	-9.495217e+02
6.800000e-07	-1.594357e-06	-1.400580e-08	-1.142065e+01	-9.219468e+02
6.900000e-07	-1.486246e-06	-1.356554e-08	-1.064624e+01	-8.928480e+02
7.000000e-07	-1.377678e-06	-1.310222e-08	-9.868540e+00	-8.621195e+02
7.100000e-07	-1.268676e-06	-1.260876e-08	-9.087743e+00	-8.296554e+02
7.200000e-07	-1.159289e-06	-1.208383e-08	-8.304186e+00	-7.953489e+02
7.300000e-07	-1.049518e-06	-1.152585e-08	-7.517876e+00	-7.590945e+02
7.400000e-07	-9.394143e-07	-1.093792e-08	-6.729185e+00	-7.207950e+02
7.500000e-07	-8.290270e-07	-1.032047e-08	-5.938462e+00	-6.803746e+02
7.600000e-07	-7.183668e-07	-9.672147e-09	-5.145784e+00	-6.377965e+02
7.700000e-07	-6.074911e-07	-8.990037e-09	-4.351562e+00	-5.930815e+02
7.800000e-07	-4.964855e-07	-8.274646e-09	-3.556411e+00	-5.463250e+02
7.900000e-07	-3.853476e-07	-7.531161e-09	-2.760311e+00	-4.977046e+02
8.000000e-07	-2.740162e-07	-6.764138e-09	-1.962825e+00	-4.474765e+02
8.100000e-07	-1.625341e-07	-5.978424e-09	-1.164259e+00	-3.959560e+02
8.200000e-07	-5.098449e-08	-5.179552e-09	-3.652106e-01	-3.434848e+02
8.300000e-07	6.060166e-08	-4.372726e-09	4.341000e-01	-2.903881e+02
8.400000e-07	1.721802e-07	-3.560673e-09	1.233356e+00	-2.369290e+02
8.500000e-07	2.836908e-07	-2.744821e-09	2.032126e+00	-1.832694e+02
8.600000e-07	3.951208e-07	-1.922805e-09	2.830318e+00	-1.294453e+02
8.700000e-07	5.064187e-07	-1.095832e-09	3.627564e+00	-7.536450e+01
8.800000e-07	6.175488e-07	-2.642859e-10	4.423607e+00	-2.082783e+01
8.900000e-07	7.285352e-07	5.742873e-10	5.218622e+00	3.442602e+01
9.000000e-07	8.393360e-07	1.427459e-09	6.012307e+00	9.066025e+01
9.100000e-07	9.498957e-07	2.300214e-09	6.804265e+00	1.480736e+02
9.200000e-07	1.060162e-06	3.190496e-09	7.594121e+00	2.067401e+02
9.300000e-07	1.170087e-06	4.099094e-09	8.381532e+00	2.665663e+02
9.400000e-07	1.279618e-06	5.023664e-09	9.166120e+00	3.272738e+02
9.500000e-07	1.388697e-06	5.955872e-09	9.947471e+00	3.884109e+02
9.600000e-07	1.497320e-06	6.883931e-09	1.072556e+01	4.493922e+02
9.700000e-07	1.605498e-06	7.798208e-09	1.150045e+01	5.095582e+02
9.800000e-07	1.713227e-06	8.690409e-09	1.227214e+01	5.682445e+02
9.900000e-07	1.820344e-06	9.550506e-09	1.303943e+01	6.248504e+02
1.000000e-06	1.926645e-06	1.037010e-08	1.380089e+01	6.788931e+02
1.010000e-06	2.032056e-06	1.114389e-08	1.455596e+01	7.300427e+02
1.020000e-06	2.136587e-06	1.187093e-08	1.530474e+01	7.781323e+02
1.030000e-06	2.240234e-06	1.255238e-08	1.604718e+01	8.231454e+02
1.040000e-06	2.343023e-06	1.319136e-08	1.678348e+01	8.651853e+02
1.050000e-06	2.445023e-06	1.378920e-08	1.751412e+01	9.044356e+02
1.060000e-06	2.546170e-06	1.434948e-08	1.823865e+01	9.411185e+02
1.070000e-06	2.646490e-06	1.487160e-08	1.895726e+01	9.754604e+02
1.080000e-06	2.746038e-06	1.535793e-08	1.967034e+01	1.007668e+03
1.090000e-06	2.844585e-06	1.581480e-08	2.037625e+01	1.037915e+03
1.100000e-06	2.941901e-06	1.624438e-08	2.107334e+01	1.066348e+03
1.110000e-06	3.038000e-06	1.664930e-08	2.176171e+01	1.093088e+03
1.120000e-06	3.132981e-06	1.703283e-08	2.244208e+01	1.118245e+03
1.130000e-06	3.226928e-06	1.739537e-08	2.311503e+01	1.141925e+03
1.140000e-06	3.319822e-06	1.773596e-08	2.378045e+01	1.164240e+03
1.150000e-06	3.411722e-06	1.805615e-08	2.443875e+01	1.185302e+03
1.160000e-06	3.502478e-06	1.835939e-08	2.508885e+01	1.205222e+03
1.170000e-06	3.591807e-06	1.864830e-08	2.572873e+01	1.224104e+03
1.180000e-06	3.679746e-06	1.892222e-08	2.635864e+01	1.242035e+03
1.190000e-06	3.766435e-06	1.918116e-08	2.697962e+01	1.259084e+03
1.200000e-06	3.851925e-06	1.942606e-08	2.759199e+01	1.275302e+03
1.210000e-06	3.936237e-06	1.965797e-08	2.819594e+01	1.290723e+03
1.220000e-06	4.019299e-06	1.987840e-08	2.879093e+01	1.305377e+03
1.230000e-06	4.100835e-06	2.008865e-08	2.937498e+01	1.319291e+03
1.240000e-06	4.180746e-06	2.028966e-08	2.994740e+01	1.332496e+03
1.250000e-06	4.259129e-06	2.048135e-08	3.050887e+01	1.345033e+03
1.260000e-06	4.336035e-06	2.066322e-08	3.105975e+01	1.356950e+03
1.270000e-06	4.411393e-06	2.083703e-08	3.159956e+01	1.368294e+03
1.280000e-06	4.484923e-06	2.100188e-08	3.212627e+01	1.379111e+03
1.290000e-06	4.556587e-06	2.115970e-08	3.263961e+01	1.389437e+03
1.300000e-06	4.626560e-06	2.131008e-08	3.314084e+01	1.399295e+03
1.310000e-06	4.694928e-06	2.145346e-08	3.363057e+01	1.408694e+03
1.320000e-06	4.761625e-06	2.159034e-08	3.410833e+01	1.417632e+03
1.330000e-06	4.826489e-06	2.172069e-08	3.457296e+01	1.426103e+03
1.340000e-06	4.889592e-06	2.184397e-08	3.502498e+01	1.434102e+03
1.350000e-06	4.951049e-06	2.195839e-08	3.546521e+01	1.441631e+03
1.360000e-06	5.010958e-06	2.206540e-08	3.589435e+01	1.448705e+03
1.370000e-06	5.069097e-06	2.216697e-08	3.631080e+01	1.455352e+03
1.380000e-06	5.125221e-06	2.226364e-08	3.671283e+01	1.461609e+03
1.390000e-06	5.179505e-06	2.235198e-08	3.710168e+01	1.467520e+03
1.400000e-06	5.231902e-06	2.243381e-08	3.747701e+01	1.473128e+03
1.410000e-06	5.282067e-06	2.251364e-08	3.783634e+01	1.478470e+03
1.420000e-06	5.329992e-06	2.259316e-08	3.817964e+01	1.483572e+03
1.430000e-06	5.376052e-06	2.267064e-08	3.850958e+01	1.488446e+03
1.440000e-06	5.420421e-06	2.274210e-08	3.882740e+01	1.493093e+03
1.450000e-06	5.462878e-06	2.280842e-08	3.913152e+01	1.497504e+03
1.460000e-06	5.503289e-06	2.287124e-08	3.942100e+01	1.501667e+03
1.470000e-06	5.541777e-06	2.293049e-08	3.969670e+01	1.505567e+03
1.480000e-06	5.578446e-06	2.298578e-08	3.995936e+01	1.509195e+03
1.490000e-06	5.613267e-06	2.303743e-08	4.020879e+01	1.512547e+03
1.500000e-06	5.645986e-06	2.308543e-08	4.044316e+01	1.515626e+03
1.510000e-06	5.676598e-06	2.312854e-08	4.066244e+01	1.518440e+03
1.520000e-06	5.705374e-06	2.316597e-08	4.086856e+01	1.521001e+03
1.530000e-06	5.732250e-06	2.320027e-08	4.106109e+01	1.523324e+03
1.540000e-06	5.756859e-06	2.323210e-08	4.123736e+01	1.525419e+03
1.550000e-06	5.779230e-06	2.325957e-08	4.139761e+01	1.527298e+03
1.560000e-06	5.799751e-06	2.328392e-08	4.154461e+01	1.528967e+03
1.570000e-06	5.818393e-06	2.330626e-08	4.167814e+01	1.530430e+03
1.580000e-06	5.834838e-06	2.332555e-08	4.179594e+01	1.531690e+03
1.590000e-06	5.849038e-06	2.334133e-08	4.189766e+01	1.532749e+03
1.600000e-06	5.861032e-06	2.335442e-08	4.198357e+01	1.533608e+03
1.610000e-06	5.870663e-06	2.336499e-08	4.205256e+01	1.534272e+03
1.620000e-06	5.878017e-06	2.337376e-08	4.210524e+01	1.534747e+03
1.630000e-06	5.883335e-06	2.338010e-08	4.214333e+01	1.535040e+03
1.640000e-06	5.886709e-06	2.338409e-08	4.216750e+01	1.535160e+03
1.650000e-06	5.887937e-06	2.338851e-08	4.217630e+01	1.535115e+03
1.660000e-06	5.887017e-06	2.338497e-08	4.216971e+01	1.534912e+03
1.670000e-06	5.884255e-06	2.336970e-08	4.214992e+01	1.534554e+03
1.680000e-06	5.879660e-06	2.336121e-08	4.211701e+01	1.534040e+03
1.690000e-06	5.872964e-06	2.335252e-08	4.206904e+01	1.533366e+03
1.700000e-06	5.864290e-06	2.334044e-08	4.200691e+01	1.532524e+03
1.710000e-06	5.853904e-06	2.332910e-08	4.193251e+01	1.531504e+03
1.720000e-06	5.841569e-06	2.332379e-08	4.184416e+01	1.530296e+03
1.730000e-06	5.827064e-06	2.333383e-08	4.174026e+01	1.528895e+03
1.740000e-06	5.810598e-06	2.322736e-08	4.162230e+01	1.527303e+03
1.750000e-06	5.792012e-06	2.312674e-08	4.148917e+01	1.525527e+03
1.760000e-06	5.770591e-06	2.317685e-08	4.133572e+01	1.523585e+03
1.770000e-06	5.746379e-06	2.315006e-08	4.116229e+01	1.521498e+03
1.780000e-06	5.720157e-06	2.317647e-08	4.097446e+01	1.519289e+03
1.790000e-06	5.692725e-06	2.325724e-08	4.077796e+01	1.516978e+03
1.800000e-06	5.664412e-06	2.297052e-08	4.057515e+01	1.514578e+03
1.810000e-06	5.634211e-06	2.299424e-08	4.035882e+01	1.512088e+03
1.820000e-06	5.601575e-06	2.309449e-08	4.012504e+01	1.509492e+03
1.830000e-06	5.567259e-06	2.283270e-08	3.987923e+01	1.506761e+03
1.840000e-06	5.531038e-06	2.302335e-08	3.961977e+01	1.503856e+03
1.850000e-06	5.492550e-06	2.296137e-08	3.934407e+01	1.500735e+03
1.860000e-06	5.452093e-06	2.268963e-08	3.905427e+01	1.497359e+03
1.870000e-06	5.409688e-06	2.283401e-08	3.875052e+01	1.493699e+03
1.880000e-06	5.365663e-06	2.266476e-08	3.843516e+01	1.489741e+03
1.890000e-06	5.319811e-06	2.263253e-08	3.810671e+01	1.485489e+03
1.900000e-06	5.271669e-06	2.264036e-08	3.776186e+01	1.480958e+03
1.910000e-06	5.221495e-06	2.238952e-08	3.740246e+01	1.476176e+03
1.920000e-06	5.169066e-06	2.249393e-08	3.702690e+01	1.471170e+03
1.930000e-06	5.114503e-06	2.237501e-08	3.663606e+01	1.465963e+03
1.940000e-06	5.058158e-06	2.227671e-08	3.623245e+01	1.460564e+03
1.950000e-06	4.999948e-06	2.224415e-08	3.581548e+01	1.454970e+03
1.960000e-06	4.939983e-06	2.205386e-08	3.538594e+01	1.449164e+03
1.970000e-06	4.878094e-06	2.205362e-08	3.494262e+01	1.443119e+03
1.980000e-06	4.814270e-06	2.186128e-08	3.448544e+01	1.436804e+03
1.990000e-06	4.748731e-06	2.179524e-08	3.401597e+01	1.430192e+03
2.000000e-06	4.681593e-06	2.176695e-08	3.353505e+01	1.423265e+03
2.010000e-06	4.612790e-06	2.160124e-08	3.304220e+01	1.416017e+03
2.020000e-06	4.542061e-06	2.152232e-08	3.253556e+01	1.408450e+03
2.030000e-06	4.469613e-06	2.130509e-08	3.201660e+01	1.400577e+03
2.040000e-06	4.395659e-06	2.123805e-08	3.148685e+01	1.392409e+03
2.050000e-06	4.320098e-06	2.113370e-08	3.094560e+01	1.383954e+03
2.060000e-06	4.242807e-06	2.098160e-08	3.039195e+01	1.375211e+03
2.070000e-06	4.163800e-06	2.088429e-08	2.982601e+01	1.366168e+03
2.080000e-06	4.083273e-06	2.070284e-08	2.924918e+01	1.356803e+03
2.090000e-06	4.001337e-06	2.057330e-08	2.866226e+01	1.347089e+03
2.100000e-06	3.918100e-06	2.038577e-08	2.806602e+01	1.336997e+03
2.110000e-06	3.833540e-06	2.025169e-08	2.746030e+01	1.326503e+03
2.120000e-06	3.747547e-06	2.009824e-08	2.684432e+01	1.315589e+03
2.130000e-06	3.660190e-06	1.991297e-08	2.621856e+01	1.304244e+03
2.140000e-06	3.571543e-06	1.974043e-08	2.558357e+01	1.292462e+03
2.150000e-06	3.481698e-06	1.953473e-08	2.494000e+01	1.280239e+03
2.160000e-06	3.390707e-06	1.935703e-08	2.428821e+01	1.267562e+03
2.170000e-06	3.298544e-06	1.915396e-08	2.362803e+01	1.254412e+03
2.180000e-06	3.205111e-06	1.896191e-08	2.295876e+01	1.240759e+03
2.190000e-06	3.110378e-06	1.874268e-08	2.228017e+01	1.226561e+03
2.200000e-06	3.014441e-06	1.851644e-08	2.159295e+01	1.211770e+03
2.210000e-06	2.917459e-06	1.828334e-08	2.089826e+01	1.196337e+03
2.220000e-06	2.819491e-06	1.803694e-08	2.019650e+01	1.180218e+03
2.230000e-06	2.720559e-06	1.778498e-08	1.948783e+01	1.163373e+03
2.240000e-06	2.620737e-06	1.751281e-08	1.877278e+01	1.145770e+03
2.250000e-06	2.519922e-06	1.724004e-08	1.805063e+01	1.127382e+03
2.260000e-06	2.418099e-06	1.694572e-08	1.732126e+01	1.108178e+03
2.270000e-06	2.315285e-06	1.663906e-08	1.658478e+01	1.088125e+03
2.280000e-06	2.211451e-06	1.631764e-08	1.584100e+01	1.067171e+03
2.290000e-06	2.106794e-06	1.598969e-08	1.509133e+01	1.045252e+03
2.300000e-06	2.001467e-06	1.564306e-08	1.433685e+01	1.022287e+03
2.310000e-06	1.895472e-06	1.527916e-08	1.357759e+01	9.981803e+02
2.320000e-06	1.788910e-06	1.489797e-08	1.281427e+01	9.728295e+02
2.330000e-06	1.681864e-06	1.449312e-08	1.204748e+01	9.461269e+02
2.340000e-06	1.574288e-06	1.406252e-08	1.127689e+01	9.179650e+02
2.350000e-06	1.466209e-06	1.360179e-08	1.050271e+01	8.882376e+02
2.360000e-06	1.357664e-06	1.312319e-08	9.725182e+00	8.568390e+02
2.370000e-06	1.248700e-06	1.262385e-08	8.944652e+00	8.236629e+02
2.380000e-06	1.139441e-06	1.209851e-08	8.162008e+00	7.886025e+02
2.390000e-06	1.029915e-06	1.153489e-08	7.377459e+00	7.515544e+02
2.400000e-06	9.200524e-07	1.093266e-08	6.590492e+00	7.124281e+02
2.410000e-06	8.098002e-07	1.029787e-08	5.800737e+00	6.711607e+02
2.420000e-06	6.991870e-07	9.635391e-09	5.008396e+00	6.277358e+02
2.430000e-06	5.882891e-07	8.944546e-09	4.214015e+00	5.822019e+02
2.440000e-06	4.771379e-07	8.224411e-09	3.417820e+00	5.346865e+02
2.450000e-06	3.658296e-07	7.476708e-09	2.620500e+00	4.853991e+02
2.460000e-06	2.544082e-07	6.699535e-09	1.822369e+00	4.346224e+02
2.470000e-06	1.428429e-07	5.902127e-09	1.023208e+00	3.826866e+02
2.480000e-06	3.125184e-08	5.094987e-09	2.238622e-01	3.299324e+02
2.490000e-06	-8.034371e-08	4.284990e-09	-5.755157e-01	2.766658e+02
2.500000e-06	-1.918872e-07	3.470309e-09	-1.374521e+00	2.231143e+02
2.510000e-06	-3.033490e-07	2.649028e-09	-2.172941e+00	1.693921e+02
2.520000e-06	-4.147367e-07	1.823062e-09	-2.970830e+00	1.154839e+02
2.530000e-06	-5.259593e-07	9.892573e-10	-3.767536e+00	6.125140e+01
2.540000e-06	-6.370011e-07	1.487276e-10	-4.562948e+00	6.464748e+00
2.550000e-06	-7.477770e-07	-7.014750e-10	-5.356454e+00	-4.914592e+01
2.560000e-06	-8.582114e-07	-1.565400e-09	-6.147514e+00	-1.058263e+02
2.570000e-06	-9.683120e-07	-2.446330e-09	-6.936184e+00	-1.637327e+02
2.580000e-06	-1.078005e-06	-3.348959e-09	-7.721932e+00	-2.228771e+02
2.590000e-06	-1.187257e-06	-4.269088e-09	-8.504524e+00	-2.830938e+02
2.600000e-06	-1.296108e-06	-5.202810e-09	-9.284244e+00	-3.440334e+02
2.610000e-06	-1.404597e-06	-6.142029e-09	-1.006137e+01	-4.051857e+02
2.620000e-06	-1.512661e-06	-7.075106e-09	-1.083545e+01	-4.659282e+02
2.630000e-06	-1.620184e-06	-7.989624e-09	-1.160565e+01	-5.255910e+02
2.640000e-06	-1.727168e-06	-8.874571e-09	-1.237200e+01	-5.835271e+02
2.650000e-06	-1.833602e-06	-9.726737e-09	-1.313440e+01	-6.391766e+02
2.660000e-06	-1.939410e-06	-1.053903e-08	-1.389232e+01	-6.921139e+02
2.670000e-06	-2.044507e-06	-1.130465e-08	-1.464515e+01	-7.420735e+02
2.680000e-06	-2.148899e-06	-1.202294e-08	-1.539293e+01	-7.889499e+02
2.690000e-06	-2.252527e-06	-1.269339e-08	-1.613524e+01	-8.327782e+02
2.700000e-06	-2.355121e-06	-1.331915e-08	-1.687013e+01	-8.736983e+02
2.710000e-06	-2.456640e-06	-1.390709e-08	-1.759733e+01	-9.119135e+02
2.720000e-06	-2.557251e-06	-1.446030e-08	-1.831802e+01	-9.476514e+02
2.730000e-06	-2.656947e-06	-1.497712e-08	-1.903216e+01	-9.811326e+02
2.740000e-06	-2.755746e-06	-1.545862e-08	-1.973988e+01	-1.012552e+03
2.750000e-06	-2.853652e-06	-1.590939e-08	-2.044120e+01	-1.042072e+03
2.760000e-06	-2.950622e-06	-1.633118e-08	-2.113581e+01	-1.069827e+03
2.770000e-06	-3.046684e-06	-1.672892e-08	-2.182391e+01	-1.095933e+03
2.780000e-06	-3.141719e-06	-1.710662e-08	-2.250467e+01	-1.120498e+03
2.790000e-06	-3.235503e-06	-1.746295e-08	-2.317646e+01	-1.143629e+03
2.800000e-06	-3.328067e-06	-1.779778e-08	-2.383951e+01	-1.165439e+03
2.810000e-06	-3.419415e-06	-1.811354e-08	-2.449385e+01	-1.186041e+03
2.820000e-06	-3.509470e-06	-1.841169e-08	-2.513893e+01	-1.205543e+03
2.830000e-06	-3.598315e-06	-1.869372e-08	-2.577534e+01	-1.224042e+03
2.840000e-06	-3.686003e-06	-1.896217e-08	-2.640347e+01	-1.241621e+03
2.850000e-06	-3.772346e-06	-1.921749e-08	-2.702196e+01	-1.258339e+03
2.860000e-06	-3.857216e-06	-1.946123e-08	-2.762990e+01	-1.274241e+03
2.870000e-06	-3.940730e-06	-1.969412e-08	-2.822812e+01	-1.289359e+03
2.880000e-06	-4.022916e-06	-1.991706e-08	-2.881684e+01	-1.303719e+03
2.890000e-06	-4.103751e-06	-2.012944e-08	-2.939587e+01	-1.317351e+03
2.900000e-06	-4.183120e-06	-2.032850e-08	-2.996440e+01	-1.330290e+03
2.910000e-06	-4.260720e-06	-2.051619e-08	-3.052026e+01	-1.342579e+03
2.920000e-06	-4.336538e-06	-2.069426e-08	-3.106336e+01	-1.354265e+03
2.930000e-06	-4.410720e-06	-2.086304e-08	-3.159474e+01	-1.365398e+03
2.940000e-06	-4.483326e-06	-2.102301e-08	-3.211483e+01	-1.376020e+03
