# Temperatura_=_77.9
# Concentracion g/m^3_=_28200.0
# C_Vs_to_Am_M_A/Vsm_=_65563218390.804596
# pendiente_HvsI_1/m_=_3716.3
# ordenada_HvsI_A/m_=_1297.0
# frecuencia_Hz_=_301915.73769285425

Tiempo_(s)	Campo_(V.s)	Magnetizacion_(V.s)	Campo_(kA/m)	Magnetizacion_(A/m)
0.000000e+00	-5.866065e-06	-2.441195e-08	-4.194766e+01	-1.600228e+03
1.000000e-08	-5.863921e-06	-2.441163e-08	-4.193232e+01	-1.599842e+03
2.000000e-08	-5.859759e-06	-2.440233e-08	-4.190256e+01	-1.599275e+03
3.000000e-08	-5.853770e-06	-2.438871e-08	-4.185973e+01	-1.598533e+03
4.000000e-08	-5.846023e-06	-2.437506e-08	-4.180433e+01	-1.597615e+03
5.000000e-08	-5.836323e-06	-2.435538e-08	-4.173497e+01	-1.596519e+03
6.000000e-08	-5.824394e-06	-2.433087e-08	-4.164967e+01	-1.595239e+03
7.000000e-08	-5.810257e-06	-2.429771e-08	-4.154858e+01	-1.593770e+03
8.000000e-08	-5.793913e-06	-2.426859e-08	-4.143170e+01	-1.592108e+03
9.000000e-08	-5.775447e-06	-2.431929e-08	-4.129965e+01	-1.590258e+03
1.000000e-07	-5.754881e-06	-2.432878e-08	-4.115259e+01	-1.588229e+03
1.100000e-07	-5.732148e-06	-2.422658e-08	-4.099003e+01	-1.586041e+03
1.200000e-07	-5.707241e-06	-2.417435e-08	-4.081192e+01	-1.583713e+03
1.300000e-07	-5.680253e-06	-2.411461e-08	-4.061893e+01	-1.581266e+03
1.400000e-07	-5.651701e-06	-2.394115e-08	-4.041476e+01	-1.578712e+03
1.500000e-07	-5.621777e-06	-2.403551e-08	-4.020077e+01	-1.576053e+03
1.600000e-07	-5.590136e-06	-2.409317e-08	-3.997451e+01	-1.573272e+03
1.700000e-07	-5.556673e-06	-2.388307e-08	-3.973522e+01	-1.570342e+03
1.800000e-07	-5.521255e-06	-2.398037e-08	-3.948195e+01	-1.567220e+03
1.900000e-07	-5.483813e-06	-2.390382e-08	-3.921420e+01	-1.563864e+03
2.000000e-07	-5.444553e-06	-2.369915e-08	-3.893347e+01	-1.560234e+03
2.100000e-07	-5.403391e-06	-2.378060e-08	-3.863912e+01	-1.556302e+03
2.200000e-07	-5.360107e-06	-2.368784e-08	-3.832960e+01	-1.552059e+03
2.300000e-07	-5.314800e-06	-2.357641e-08	-3.800561e+01	-1.547513e+03
2.400000e-07	-5.267428e-06	-2.354645e-08	-3.766686e+01	-1.542689e+03
2.500000e-07	-5.217756e-06	-2.343660e-08	-3.731166e+01	-1.537619e+03
2.600000e-07	-5.165772e-06	-2.338072e-08	-3.693993e+01	-1.532333e+03
2.700000e-07	-5.111672e-06	-2.328173e-08	-3.655307e+01	-1.526854e+03
2.800000e-07	-5.055714e-06	-2.319565e-08	-3.615291e+01	-1.521188e+03
2.900000e-07	-4.997875e-06	-2.311165e-08	-3.573931e+01	-1.515323e+03
3.000000e-07	-4.938126e-06	-2.300365e-08	-3.531206e+01	-1.509234e+03
3.100000e-07	-4.876607e-06	-2.292706e-08	-3.487214e+01	-1.502885e+03
3.200000e-07	-4.813312e-06	-2.281423e-08	-3.441952e+01	-1.496241e+03
3.300000e-07	-4.748213e-06	-2.272023e-08	-3.395400e+01	-1.489274e+03
3.400000e-07	-4.681292e-06	-2.259504e-08	-3.347546e+01	-1.481969e+03
3.500000e-07	-4.612631e-06	-2.246360e-08	-3.298447e+01	-1.474326e+03
3.600000e-07	-4.542389e-06	-2.235697e-08	-3.248218e+01	-1.466358e+03
3.700000e-07	-4.470633e-06	-2.222812e-08	-3.196905e+01	-1.458080e+03
3.800000e-07	-4.397229e-06	-2.211888e-08	-3.144415e+01	-1.449507e+03
3.900000e-07	-4.321963e-06	-2.197394e-08	-3.090593e+01	-1.440647e+03
4.000000e-07	-4.244900e-06	-2.181474e-08	-3.035486e+01	-1.431491e+03
4.100000e-07	-4.166171e-06	-2.167283e-08	-2.979188e+01	-1.422019e+03
4.200000e-07	-4.085801e-06	-2.152183e-08	-2.921716e+01	-1.412199e+03
4.300000e-07	-4.003977e-06	-2.137539e-08	-2.863204e+01	-1.401998e+03
4.400000e-07	-3.920902e-06	-2.120836e-08	-2.803798e+01	-1.391386e+03
4.500000e-07	-3.836662e-06	-2.104691e-08	-2.743559e+01	-1.380342e+03
4.600000e-07	-3.751213e-06	-2.086707e-08	-2.682455e+01	-1.368859e+03
4.700000e-07	-3.664562e-06	-2.067823e-08	-2.620492e+01	-1.356937e+03
4.800000e-07	-3.576727e-06	-2.049393e-08	-2.557682e+01	-1.344582e+03
4.900000e-07	-3.487560e-06	-2.029753e-08	-2.493919e+01	-1.331797e+03
5.000000e-07	-3.396916e-06	-2.009627e-08	-2.429101e+01	-1.318572e+03
5.100000e-07	-3.304870e-06	-1.988228e-08	-2.363280e+01	-1.304884e+03
5.200000e-07	-3.211696e-06	-1.966700e-08	-2.296652e+01	-1.290693e+03
5.300000e-07	-3.117499e-06	-1.943765e-08	-2.229293e+01	-1.275945e+03
5.400000e-07	-3.022229e-06	-1.920213e-08	-2.161166e+01	-1.260582e+03
5.500000e-07	-2.925809e-06	-1.895858e-08	-2.092217e+01	-1.244548e+03
5.600000e-07	-2.828233e-06	-1.870402e-08	-2.022441e+01	-1.227796e+03
5.700000e-07	-2.729477e-06	-1.843837e-08	-1.951822e+01	-1.210293e+03
5.800000e-07	-2.629619e-06	-1.815626e-08	-1.880415e+01	-1.192018e+03
5.900000e-07	-2.528848e-06	-1.786119e-08	-1.808354e+01	-1.172955e+03
6.000000e-07	-2.427195e-06	-1.755256e-08	-1.735663e+01	-1.153084e+03
6.100000e-07	-2.324672e-06	-1.723504e-08	-1.662350e+01	-1.132373e+03
6.200000e-07	-2.221307e-06	-1.690626e-08	-1.588435e+01	-1.110771e+03
6.300000e-07	-2.117095e-06	-1.656365e-08	-1.513914e+01	-1.088201e+03
6.400000e-07	-2.012086e-06	-1.620310e-08	-1.438823e+01	-1.064567e+03
6.500000e-07	-1.906366e-06	-1.582263e-08	-1.363223e+01	-1.039758e+03
6.600000e-07	-1.799890e-06	-1.542132e-08	-1.287083e+01	-1.013659e+03
6.700000e-07	-1.692611e-06	-1.499872e-08	-1.210369e+01	-9.861556e+02
6.800000e-07	-1.584689e-06	-1.455725e-08	-1.133196e+01	-9.571418e+02
6.900000e-07	-1.476316e-06	-1.409271e-08	-1.055699e+01	-9.265194e+02
7.000000e-07	-1.367521e-06	-1.359972e-08	-9.779007e+00	-8.941931e+02
7.100000e-07	-1.258270e-06	-1.307628e-08	-8.997764e+00	-8.600647e+02
7.200000e-07	-1.148601e-06	-1.252385e-08	-8.213531e+00	-8.240272e+02
7.300000e-07	-1.038582e-06	-1.194153e-08	-7.426794e+00	-7.859652e+02
7.400000e-07	-9.282569e-07	-1.132958e-08	-6.637874e+00	-7.457631e+02
7.500000e-07	-8.176697e-07	-1.068573e-08	-5.847076e+00	-7.033214e+02
7.600000e-07	-7.068423e-07	-1.000555e-08	-5.054560e+00	-6.585813e+02
7.700000e-07	-5.958119e-07	-9.286147e-09	-4.260592e+00	-6.115502e+02
7.800000e-07	-4.845817e-07	-8.531315e-09	-3.465196e+00	-5.623231e+02
7.900000e-07	-3.731392e-07	-7.746755e-09	-2.668282e+00	-5.110936e+02
8.000000e-07	-2.615161e-07	-6.938052e-09	-1.870076e+00	-4.581469e+02
8.100000e-07	-1.498284e-07	-6.112899e-09	-1.071408e+00	-4.038348e+02
8.200000e-07	-3.808601e-08	-5.275392e-09	-2.723493e-01	-3.485343e+02
8.300000e-07	7.377296e-08	-4.429245e-09	5.275432e-01	-2.925951e+02
8.400000e-07	1.856613e-07	-3.574504e-09	1.327646e+00	-2.362868e+02
8.500000e-07	2.974966e-07	-2.713348e-09	2.127369e+00	-1.797568e+02
8.600000e-07	4.092058e-07	-1.845655e-09	2.926190e+00	-1.230076e+02
8.700000e-07	5.208001e-07	-9.710027e-10	3.724191e+00	-6.590210e+01
8.800000e-07	6.322905e-07	-8.931118e-11	4.521447e+00	-8.197001e+00
8.900000e-07	7.435428e-07	8.033429e-10	5.317001e+00	5.040011e+01
9.000000e-07	8.544806e-07	1.711431e-09	6.110307e+00	1.101585e+02
9.100000e-07	9.651251e-07	2.640403e-09	6.901514e+00	1.712508e+02
9.200000e-07	1.075514e-06	3.589716e-09	7.690896e+00	2.336917e+02
9.300000e-07	1.185613e-06	4.556783e-09	8.478199e+00	2.973004e+02
9.400000e-07	1.295280e-06	5.538135e-09	9.262423e+00	3.616945e+02
9.500000e-07	1.404487e-06	6.524426e-09	1.004335e+01	4.263167e+02
9.600000e-07	1.513282e-06	7.504272e-09	1.082133e+01	4.904893e+02
9.700000e-07	1.621601e-06	8.466559e-09	1.159591e+01	5.534861e+02
9.800000e-07	1.729359e-06	9.397120e-09	1.236647e+01	6.146100e+02
9.900000e-07	1.836502e-06	1.028579e-08	1.313264e+01	6.732626e+02
1.000000e-06	1.942860e-06	1.112746e-08	1.389320e+01	7.289947e+02
1.010000e-06	2.048295e-06	1.191981e-08	1.464716e+01	7.815319e+02
1.020000e-06	2.152869e-06	1.266398e-08	1.539495e+01	8.307730e+02
1.030000e-06	2.256603e-06	1.336119e-08	1.613674e+01	8.767669e+02
1.040000e-06	2.359458e-06	1.401476e-08	1.687225e+01	9.196727e+02
1.050000e-06	2.461479e-06	1.462608e-08	1.760180e+01	9.597150e+02
1.060000e-06	2.562672e-06	1.519729e-08	1.832541e+01	9.971413e+02
1.070000e-06	2.663060e-06	1.572919e-08	1.904328e+01	1.032190e+03
1.080000e-06	2.762667e-06	1.622595e-08	1.975556e+01	1.065070e+03
1.090000e-06	2.861265e-06	1.669396e-08	2.046062e+01	1.095957e+03
1.100000e-06	2.958599e-06	1.713556e-08	2.115665e+01	1.124995e+03
1.110000e-06	3.054737e-06	1.755072e-08	2.184412e+01	1.152308e+03
1.120000e-06	3.149773e-06	1.794118e-08	2.252372e+01	1.178012e+03
1.130000e-06	3.243728e-06	1.831033e-08	2.319558e+01	1.202222e+03
1.140000e-06	3.336640e-06	1.865834e-08	2.385999e+01	1.225054e+03
1.150000e-06	3.428587e-06	1.898711e-08	2.451749e+01	1.246626e+03
1.160000e-06	3.519369e-06	1.929960e-08	2.516666e+01	1.267050e+03
1.170000e-06	3.608665e-06	1.959748e-08	2.580521e+01	1.286427e+03
1.180000e-06	3.696616e-06	1.988024e-08	2.643413e+01	1.304839e+03
1.190000e-06	3.783344e-06	2.014555e-08	2.705432e+01	1.322352e+03
1.200000e-06	3.868816e-06	2.039447e-08	2.766552e+01	1.339012e+03
1.210000e-06	3.953118e-06	2.063198e-08	2.826836e+01	1.354855e+03
1.220000e-06	4.036124e-06	2.086067e-08	2.886192e+01	1.369912e+03
1.230000e-06	4.117556e-06	2.108002e-08	2.944424e+01	1.384216e+03
1.240000e-06	4.197389e-06	2.128722e-08	3.001512e+01	1.397804e+03
1.250000e-06	4.275689e-06	2.148297e-08	3.057503e+01	1.410722e+03
1.260000e-06	4.352491e-06	2.166866e-08	3.112423e+01	1.423017e+03
1.270000e-06	4.427676e-06	2.184666e-08	3.166188e+01	1.434737e+03
1.280000e-06	4.501041e-06	2.201796e-08	3.218650e+01	1.445926e+03
1.290000e-06	4.572629e-06	2.218208e-08	3.269842e+01	1.456616e+03
1.300000e-06	4.642543e-06	2.233906e-08	3.319837e+01	1.466827e+03
1.310000e-06	4.710858e-06	2.248931e-08	3.368688e+01	1.476568e+03
1.320000e-06	4.777453e-06	2.263267e-08	3.416310e+01	1.485839e+03
1.330000e-06	4.842163e-06	2.276725e-08	3.462583e+01	1.494637e+03
1.340000e-06	4.905187e-06	2.289334e-08	3.507651e+01	1.502960e+03
1.350000e-06	4.966621e-06	2.301228e-08	3.551582e+01	1.510812e+03
1.360000e-06	5.026478e-06	2.312569e-08	3.594385e+01	1.518208e+03
1.370000e-06	5.084497e-06	2.323384e-08	3.635874e+01	1.525170e+03
1.380000e-06	5.140515e-06	2.333664e-08	3.675931e+01	1.531729e+03
1.390000e-06	5.194724e-06	2.343188e-08	3.714696e+01	1.537918e+03
1.400000e-06	5.246953e-06	2.351991e-08	3.752044e+01	1.543773e+03
1.410000e-06	5.296867e-06	2.360380e-08	3.787738e+01	1.549326e+03
1.420000e-06	5.344613e-06	2.368444e-08	3.821880e+01	1.554605e+03
1.430000e-06	5.390531e-06	2.376168e-08	3.854716e+01	1.559627e+03
1.440000e-06	5.434758e-06	2.383542e-08	3.886342e+01	1.564405e+03
1.450000e-06	5.477051e-06	2.390611e-08	3.916585e+01	1.568944e+03
1.460000e-06	5.517252e-06	2.397335e-08	3.945333e+01	1.573241e+03
1.470000e-06	5.555572e-06	2.403565e-08	3.972735e+01	1.577291e+03
1.480000e-06	5.592141e-06	2.409300e-08	3.998885e+01	1.581087e+03
1.490000e-06	5.626796e-06	2.414679e-08	4.023666e+01	1.584620e+03
1.500000e-06	5.659298e-06	2.419661e-08	4.046909e+01	1.587883e+03
1.510000e-06	5.689785e-06	2.424268e-08	4.068709e+01	1.590871e+03
1.520000e-06	5.718435e-06	2.428534e-08	4.089197e+01	1.593585e+03
1.530000e-06	5.745068e-06	2.432394e-08	4.108241e+01	1.596029e+03
1.540000e-06	5.769461e-06	2.435738e-08	4.125685e+01	1.598212e+03
1.550000e-06	5.791741e-06	2.438659e-08	4.141617e+01	1.600147e+03
1.560000e-06	5.812117e-06	2.441295e-08	4.156187e+01	1.601848e+03
1.570000e-06	5.830520e-06	2.443558e-08	4.169348e+01	1.603329e+03
1.580000e-06	5.846674e-06	2.445444e-08	4.180899e+01	1.604604e+03
1.590000e-06	5.860611e-06	2.447101e-08	4.190865e+01	1.605681e+03
1.600000e-06	5.872336e-06	2.448614e-08	4.199250e+01	1.606565e+03
1.610000e-06	5.881659e-06	2.449772e-08	4.205916e+01	1.607256e+03
1.620000e-06	5.888763e-06	2.450572e-08	4.210997e+01	1.607753e+03
1.630000e-06	5.893927e-06	2.451079e-08	4.214689e+01	1.608055e+03
1.640000e-06	5.897076e-06	2.451399e-08	4.216941e+01	1.608161e+03
1.650000e-06	5.898040e-06	2.451722e-08	4.217630e+01	1.608074e+03
1.660000e-06	5.896909e-06	2.451237e-08	4.216822e+01	1.607798e+03
1.670000e-06	5.893917e-06	2.450110e-08	4.214682e+01	1.607339e+03
1.680000e-06	5.889062e-06	2.449405e-08	4.211210e+01	1.606702e+03
1.690000e-06	5.882155e-06	2.448303e-08	4.206271e+01	1.605890e+03
1.700000e-06	5.873333e-06	2.446801e-08	4.199962e+01	1.604901e+03
1.710000e-06	5.862743e-06	2.445383e-08	4.192390e+01	1.603732e+03
1.720000e-06	5.850030e-06	2.444692e-08	4.183299e+01	1.602377e+03
1.730000e-06	5.835179e-06	2.444018e-08	4.172679e+01	1.600831e+03
1.740000e-06	5.818499e-06	2.431863e-08	4.160751e+01	1.599093e+03
1.750000e-06	5.799592e-06	2.424727e-08	4.147231e+01	1.597170e+03
1.760000e-06	5.777781e-06	2.429133e-08	4.131635e+01	1.595075e+03
1.770000e-06	5.753250e-06	2.425614e-08	4.114093e+01	1.592828e+03
1.780000e-06	5.726842e-06	2.432441e-08	4.095208e+01	1.590449e+03
1.790000e-06	5.699371e-06	2.434251e-08	4.075564e+01	1.587958e+03
1.800000e-06	5.670901e-06	2.406016e-08	4.055206e+01	1.585363e+03
1.810000e-06	5.640276e-06	2.411669e-08	4.033306e+01	1.582657e+03
1.820000e-06	5.607311e-06	2.412008e-08	4.009733e+01	1.579821e+03
1.830000e-06	5.572779e-06	2.392156e-08	3.985039e+01	1.576819e+03
1.840000e-06	5.536251e-06	2.411746e-08	3.958919e+01	1.573609e+03
1.850000e-06	5.497473e-06	2.398247e-08	3.931189e+01	1.570148e+03
1.860000e-06	5.456768e-06	2.380003e-08	3.902081e+01	1.566400e+03
1.870000e-06	5.414202e-06	2.389610e-08	3.871643e+01	1.562345e+03
1.880000e-06	5.370000e-06	2.370985e-08	3.840034e+01	1.557980e+03
1.890000e-06	5.323811e-06	2.369880e-08	3.807005e+01	1.553320e+03
1.900000e-06	5.275290e-06	2.363028e-08	3.772308e+01	1.548394e+03
1.910000e-06	5.224701e-06	2.346366e-08	3.736132e+01	1.543234e+03
1.920000e-06	5.171936e-06	2.354038e-08	3.698400e+01	1.537869e+03
1.930000e-06	5.117113e-06	2.336454e-08	3.659197e+01	1.532316e+03
1.940000e-06	5.060429e-06	2.329785e-08	3.618663e+01	1.526572e+03
1.950000e-06	5.001890e-06	2.321559e-08	3.576802e+01	1.520622e+03
1.960000e-06	4.941605e-06	2.306862e-08	3.533693e+01	1.514434e+03
1.970000e-06	4.879369e-06	2.304559e-08	3.489189e+01	1.507972e+03
1.980000e-06	4.815234e-06	2.284836e-08	3.443326e+01	1.501202e+03
1.990000e-06	4.749464e-06	2.280418e-08	3.396295e+01	1.494102e+03
2.000000e-06	4.682076e-06	2.271399e-08	3.348106e+01	1.486662e+03
2.010000e-06	4.612958e-06	2.255150e-08	3.298681e+01	1.478888e+03
2.020000e-06	4.541931e-06	2.244890e-08	3.247890e+01	1.470795e+03
2.030000e-06	4.469199e-06	2.226752e-08	3.195880e+01	1.462398e+03
2.040000e-06	4.394888e-06	2.220451e-08	3.142741e+01	1.453712e+03
2.050000e-06	4.318875e-06	2.205544e-08	3.088385e+01	1.444736e+03
2.060000e-06	4.241145e-06	2.190754e-08	3.032801e+01	1.435457e+03
2.070000e-06	4.161764e-06	2.177611e-08	2.976036e+01	1.425851e+03
2.080000e-06	4.080938e-06	2.159566e-08	2.918239e+01	1.415884e+03
2.090000e-06	3.998757e-06	2.144986e-08	2.859471e+01	1.405523e+03
2.100000e-06	3.915214e-06	2.125770e-08	2.799731e+01	1.394742e+03
2.110000e-06	3.830282e-06	2.111413e-08	2.738997e+01	1.383525e+03
2.120000e-06	3.743893e-06	2.093825e-08	2.677221e+01	1.371867e+03
2.130000e-06	3.656137e-06	2.075655e-08	2.614468e+01	1.359774e+03
2.140000e-06	3.567165e-06	2.057073e-08	2.550845e+01	1.347248e+03
2.150000e-06	3.477026e-06	2.036418e-08	2.486387e+01	1.334291e+03
2.160000e-06	3.385733e-06	2.016907e-08	2.421105e+01	1.320887e+03
2.170000e-06	3.293254e-06	1.995104e-08	2.354973e+01	1.307006e+03
2.180000e-06	3.199513e-06	1.973550e-08	2.287940e+01	1.292602e+03
2.190000e-06	3.104466e-06	1.950024e-08	2.219973e+01	1.277618e+03
2.200000e-06	3.008219e-06	1.926639e-08	2.151148e+01	1.261996e+03
2.210000e-06	2.910992e-06	1.901644e-08	2.081622e+01	1.245683e+03
2.220000e-06	2.812816e-06	1.875780e-08	2.011417e+01	1.228638e+03
2.230000e-06	2.713620e-06	1.849396e-08	1.940483e+01	1.210833e+03
2.240000e-06	2.613440e-06	1.821600e-08	1.868845e+01	1.192248e+03
2.250000e-06	2.512318e-06	1.792816e-08	1.796534e+01	1.172869e+03
2.260000e-06	2.410211e-06	1.761655e-08	1.723518e+01	1.152672e+03
2.270000e-06	2.307095e-06	1.729130e-08	1.649781e+01	1.131617e+03
2.280000e-06	2.203015e-06	1.695095e-08	1.575355e+01	1.109644e+03
2.290000e-06	2.098109e-06	1.660266e-08	1.500337e+01	1.086667e+03
2.300000e-06	1.992529e-06	1.623753e-08	1.424838e+01	1.062584e+03
2.310000e-06	1.886357e-06	1.585669e-08	1.348915e+01	1.037281e+03
2.320000e-06	1.779660e-06	1.545546e-08	1.272617e+01	1.010642e+03
2.330000e-06	1.672411e-06	1.502783e-08	1.195925e+01	9.825559e+02
2.340000e-06	1.564596e-06	1.457327e-08	1.118827e+01	9.529203e+02
2.350000e-06	1.456279e-06	1.409441e-08	1.041371e+01	9.216386e+02
2.360000e-06	1.347536e-06	1.359586e-08	9.636096e+00	8.886151e+02
2.370000e-06	1.238478e-06	1.306913e-08	8.856237e+00	8.537487e+02
2.380000e-06	1.129083e-06	1.250896e-08	8.073963e+00	8.169286e+02
2.390000e-06	1.019284e-06	1.191168e-08	7.288801e+00	7.780379e+02
2.400000e-06	9.090426e-07	1.128033e-08	6.500474e+00	7.369648e+02
2.410000e-06	7.983762e-07	1.061657e-08	5.709110e+00	6.936228e+02
2.420000e-06	6.874071e-07	9.921848e-09	4.915581e+00	6.479760e+02
2.430000e-06	5.762090e-07	9.196231e-09	4.120414e+00	6.000642e+02
2.440000e-06	4.648291e-07	8.438814e-09	3.323947e+00	5.500206e+02
2.450000e-06	3.532945e-07	7.649562e-09	2.526374e+00	4.980767e+02
2.460000e-06	2.416400e-07	6.829179e-09	1.727944e+00	4.445479e+02
2.470000e-06	1.298970e-07	5.987252e-09	9.288806e-01	3.898015e+02
2.480000e-06	1.806314e-08	5.135101e-09	1.291677e-01	3.342104e+02
2.490000e-06	-9.380640e-08	4.276972e-09	-6.708004e-01	2.780987e+02
2.500000e-06	-2.055731e-07	3.413972e-09	-1.470033e+00	2.216923e+02
2.510000e-06	-3.172500e-07	2.549871e-09	-2.268624e+00	1.650826e+02
2.520000e-06	-4.288410e-07	1.683571e-09	-3.066600e+00	1.082154e+02
2.530000e-06	-5.402573e-07	8.088017e-10	-3.863327e+00	5.090631e+01
2.540000e-06	-6.514788e-07	-7.786775e-11	-4.658661e+00	-7.115257e+00
2.550000e-06	-7.623587e-07	-9.800770e-10	-5.451552e+00	-6.614156e+01
2.560000e-06	-8.729415e-07	-1.898535e-09	-6.242318e+00	-1.264123e+02
2.570000e-06	-9.832879e-07	-2.836398e-09	-7.031395e+00	-1.880443e+02
2.580000e-06	-1.093193e-06	-3.795553e-09	-7.817315e+00	-2.509782e+02
2.590000e-06	-1.202636e-06	-4.772925e-09	-8.599931e+00	-3.149529e+02
2.600000e-06	-1.311662e-06	-5.763012e-09	-9.379566e+00	-3.795126e+02
2.610000e-06	-1.420226e-06	-6.753145e-09	-1.015590e+01	-4.440447e+02
2.620000e-06	-1.528337e-06	-7.729533e-09	-1.092898e+01	-5.078434e+02
2.630000e-06	-1.635995e-06	-8.680965e-09	-1.169884e+01	-5.701847e+02
2.640000e-06	-1.743100e-06	-9.599456e-09	-1.246474e+01	-6.304030e+02
2.650000e-06	-1.849593e-06	-1.047992e-08	-1.322626e+01	-6.879538e+02
2.660000e-06	-1.955480e-06	-1.131701e-08	-1.398345e+01	-7.424549e+02
2.670000e-06	-2.060664e-06	-1.210516e-08	-1.473560e+01	-7.937015e+02
2.680000e-06	-2.165115e-06	-1.284132e-08	-1.548252e+01	-8.416554e+02
2.690000e-06	-2.268835e-06	-1.352640e-08	-1.622421e+01	-8.864138e+02
2.700000e-06	-2.371615e-06	-1.416580e-08	-1.695919e+01	-9.281670e+02
2.710000e-06	-2.473286e-06	-1.476656e-08	-1.768622e+01	-9.671533e+02
2.720000e-06	-2.573941e-06	-1.532973e-08	-1.840600e+01	-1.003620e+03
2.730000e-06	-2.673763e-06	-1.585392e-08	-1.911981e+01	-1.037795e+03
2.740000e-06	-2.772637e-06	-1.634254e-08	-1.982685e+01	-1.069874e+03
2.750000e-06	-2.870523e-06	-1.680077e-08	-2.052683e+01	-1.100020e+03
2.760000e-06	-2.967483e-06	-1.723193e-08	-2.122018e+01	-1.128368e+03
2.770000e-06	-3.063496e-06	-1.763952e-08	-2.190676e+01	-1.155037e+03
2.780000e-06	-3.158497e-06	-1.802680e-08	-2.258610e+01	-1.180141e+03
2.790000e-06	-3.252289e-06	-1.839274e-08	-2.325680e+01	-1.203796e+03
2.800000e-06	-3.344826e-06	-1.873504e-08	-2.391852e+01	-1.226121e+03
2.810000e-06	-3.436139e-06	-1.905590e-08	-2.457149e+01	-1.247230e+03
2.820000e-06	-3.526230e-06	-1.935921e-08	-2.521572e+01	-1.267233e+03
2.830000e-06	-3.615053e-06	-1.964894e-08	-2.585089e+01	-1.286224e+03
2.840000e-06	-3.702717e-06	-1.992545e-08	-2.647776e+01	-1.304277e+03
2.850000e-06	-3.789173e-06	-2.018659e-08	-2.709600e+01	-1.321451e+03
2.860000e-06	-3.874114e-06	-2.043574e-08	-2.770341e+01	-1.337788e+03
2.870000e-06	-3.957577e-06	-2.067463e-08	-2.830024e+01	-1.353320e+03
2.880000e-06	-4.039709e-06	-2.090231e-08	-2.888756e+01	-1.368079e+03
2.890000e-06	-4.120500e-06	-2.111834e-08	-2.946529e+01	-1.382098e+03
2.900000e-06	-4.199791e-06	-2.132157e-08	-3.003229e+01	-1.395418e+03
2.910000e-06	-4.277317e-06	-2.151621e-08	-3.058667e+01	-1.408086e+03
2.920000e-06	-4.353079e-06	-2.170264e-08	-3.112844e+01	-1.420151e+03
2.930000e-06	-4.427229e-06	-2.187844e-08	-3.165868e+01	-1.431660e+03
2.940000e-06	-4.499808e-06	-2.204528e-08	-3.217769e+01	-1.442651e+03
