# Temperatura_=_48.44
# Concentracion g/m^3_=_28200.0
# C_Vs_to_Am_M_A/Vsm_=_65563218390.804596
# pendiente_HvsI_1/m_=_3716.3
# ordenada_HvsI_A/m_=_1297.0
# frecuencia_Hz_=_301919.8435412491

Tiempo_(s)	Campo_(V.s)	Magnetizacion_(V.s)	Campo_(kA/m)	Magnetizacion_(A/m)
0.000000e+00	-5.859138e-06	-2.191798e-08	-4.194876e+01	-1.435988e+03
1.000000e-08	-5.857424e-06	-2.191369e-08	-4.193649e+01	-1.435724e+03
2.000000e-08	-5.853690e-06	-2.190834e-08	-4.190975e+01	-1.435332e+03
3.000000e-08	-5.848059e-06	-2.190007e-08	-4.186944e+01	-1.434804e+03
4.000000e-08	-5.840675e-06	-2.189088e-08	-4.181657e+01	-1.434130e+03
5.000000e-08	-5.831389e-06	-2.187854e-08	-4.175009e+01	-1.433297e+03
6.000000e-08	-5.819883e-06	-2.186341e-08	-4.166771e+01	-1.432296e+03
7.000000e-08	-5.806194e-06	-2.184659e-08	-4.156970e+01	-1.431122e+03
8.000000e-08	-5.790388e-06	-2.183095e-08	-4.145653e+01	-1.429780e+03
9.000000e-08	-5.772419e-06	-2.182240e-08	-4.132789e+01	-1.428279e+03
1.000000e-07	-5.752358e-06	-2.181385e-08	-4.118426e+01	-1.426632e+03
1.100000e-07	-5.730164e-06	-2.177844e-08	-4.102536e+01	-1.424855e+03
1.200000e-07	-5.705756e-06	-2.173249e-08	-4.085061e+01	-1.422959e+03
1.300000e-07	-5.679288e-06	-2.168771e-08	-4.066111e+01	-1.420953e+03
1.400000e-07	-5.651177e-06	-2.162774e-08	-4.045985e+01	-1.418833e+03
1.500000e-07	-5.621599e-06	-2.159198e-08	-4.024809e+01	-1.416591e+03
1.600000e-07	-5.590363e-06	-2.159724e-08	-4.002445e+01	-1.414208e+03
1.700000e-07	-5.557340e-06	-2.155709e-08	-3.978802e+01	-1.411666e+03
1.800000e-07	-5.522396e-06	-2.151009e-08	-3.953784e+01	-1.408941e+03
1.900000e-07	-5.485398e-06	-2.149309e-08	-3.927295e+01	-1.406015e+03
2.000000e-07	-5.446513e-06	-2.141495e-08	-3.899455e+01	-1.402876e+03
2.100000e-07	-5.405786e-06	-2.135138e-08	-3.870297e+01	-1.399519e+03
2.200000e-07	-5.362976e-06	-2.132545e-08	-3.839647e+01	-1.395946e+03
2.300000e-07	-5.318111e-06	-2.125277e-08	-3.807525e+01	-1.392165e+03
2.400000e-07	-5.271181e-06	-2.118830e-08	-3.773925e+01	-1.388186e+03
2.500000e-07	-5.221961e-06	-2.114949e-08	-3.738686e+01	-1.384019e+03
2.600000e-07	-5.170399e-06	-2.108025e-08	-3.701770e+01	-1.379669e+03
2.700000e-07	-5.116654e-06	-2.099027e-08	-3.663291e+01	-1.375135e+03
2.800000e-07	-5.061091e-06	-2.090871e-08	-3.623511e+01	-1.370410e+03
2.900000e-07	-5.003734e-06	-2.083484e-08	-3.582446e+01	-1.365481e+03
3.000000e-07	-4.944442e-06	-2.074750e-08	-3.539995e+01	-1.360332e+03
3.100000e-07	-4.883357e-06	-2.067771e-08	-3.496261e+01	-1.354945e+03
3.200000e-07	-4.820543e-06	-2.060714e-08	-3.451289e+01	-1.349308e+03
3.300000e-07	-4.755940e-06	-2.050679e-08	-3.405036e+01	-1.343408e+03
3.400000e-07	-4.689495e-06	-2.040774e-08	-3.357464e+01	-1.337240e+03
3.500000e-07	-4.621249e-06	-2.030106e-08	-3.308604e+01	-1.330802e+03
3.600000e-07	-4.551340e-06	-2.019221e-08	-3.258552e+01	-1.324096e+03
3.700000e-07	-4.479963e-06	-2.009600e-08	-3.207449e+01	-1.317121e+03
3.800000e-07	-4.406959e-06	-1.999512e-08	-3.155182e+01	-1.309877e+03
3.900000e-07	-4.332080e-06	-1.987923e-08	-3.101572e+01	-1.302357e+03
4.000000e-07	-4.255488e-06	-1.975262e-08	-3.046736e+01	-1.294549e+03
4.100000e-07	-4.177185e-06	-1.962199e-08	-2.990674e+01	-1.286439e+03
4.200000e-07	-4.097122e-06	-1.948801e-08	-2.933352e+01	-1.278007e+03
4.300000e-07	-4.015585e-06	-1.935294e-08	-2.874976e+01	-1.269236e+03
4.400000e-07	-3.932822e-06	-1.921635e-08	-2.815721e+01	-1.260108e+03
4.500000e-07	-3.848927e-06	-1.907273e-08	-2.755657e+01	-1.250608e+03
4.600000e-07	-3.763881e-06	-1.892311e-08	-2.694767e+01	-1.240726e+03
4.700000e-07	-3.677630e-06	-1.876179e-08	-2.633015e+01	-1.230452e+03
4.800000e-07	-3.590177e-06	-1.859546e-08	-2.570403e+01	-1.219776e+03
4.900000e-07	-3.501411e-06	-1.842606e-08	-2.506850e+01	-1.208687e+03
5.000000e-07	-3.411191e-06	-1.824841e-08	-2.442257e+01	-1.197165e+03
5.100000e-07	-3.319612e-06	-1.806593e-08	-2.376691e+01	-1.185189e+03
5.200000e-07	-3.226858e-06	-1.787509e-08	-2.310283e+01	-1.172728e+03
5.300000e-07	-3.132979e-06	-1.767215e-08	-2.243070e+01	-1.159747e+03
5.400000e-07	-3.038023e-06	-1.745786e-08	-2.175086e+01	-1.146209e+03
5.500000e-07	-2.942054e-06	-1.723785e-08	-2.106376e+01	-1.132076e+03
5.600000e-07	-2.844885e-06	-1.701086e-08	-2.036808e+01	-1.117311e+03
5.700000e-07	-2.746436e-06	-1.677594e-08	-1.966323e+01	-1.101881e+03
5.800000e-07	-2.646870e-06	-1.653151e-08	-1.895038e+01	-1.085755e+03
5.900000e-07	-2.546348e-06	-1.627259e-08	-1.823069e+01	-1.068899e+03
6.000000e-07	-2.444979e-06	-1.599852e-08	-1.750494e+01	-1.051278e+03
6.100000e-07	-2.342753e-06	-1.571258e-08	-1.677304e+01	-1.032848e+03
6.200000e-07	-2.239686e-06	-1.541854e-08	-1.603513e+01	-1.013558e+03
6.300000e-07	-2.135835e-06	-1.511283e-08	-1.529161e+01	-9.933458e+02
6.400000e-07	-2.031170e-06	-1.479110e-08	-1.454225e+01	-9.721400e+02
6.500000e-07	-1.925659e-06	-1.444915e-08	-1.378684e+01	-9.498606e+02
6.600000e-07	-1.819355e-06	-1.408598e-08	-1.302575e+01	-9.264221e+02
6.700000e-07	-1.712344e-06	-1.370323e-08	-1.225960e+01	-9.017346e+02
6.800000e-07	-1.604696e-06	-1.330159e-08	-1.148889e+01	-8.757052e+02
6.900000e-07	-1.496526e-06	-1.288260e-08	-1.071444e+01	-8.482376e+02
7.000000e-07	-1.387916e-06	-1.244259e-08	-9.936848e+00	-8.192319e+02
7.100000e-07	-1.278862e-06	-1.197706e-08	-9.156067e+00	-7.885845e+02
7.200000e-07	-1.169352e-06	-1.148126e-08	-8.372029e+00	-7.561908e+02
7.300000e-07	-1.059499e-06	-1.095520e-08	-7.585531e+00	-7.219506e+02
7.400000e-07	-9.494011e-07	-1.040119e-08	-6.797279e+00	-6.857784e+02
7.500000e-07	-8.390372e-07	-9.819709e-09	-6.007124e+00	-6.476177e+02
7.600000e-07	-7.284157e-07	-9.209375e-09	-5.215125e+00	-6.074570e+02
7.700000e-07	-6.175370e-07	-8.566236e-09	-4.421283e+00	-5.653456e+02
7.800000e-07	-5.064461e-07	-7.894112e-09	-3.625923e+00	-5.214044e+02
7.900000e-07	-3.951961e-07	-7.198745e-09	-2.829424e+00	-4.758291e+02
8.000000e-07	-2.837787e-07	-6.482947e-09	-2.031726e+00	-4.288815e+02
8.100000e-07	-1.722203e-07	-5.753172e-09	-1.233019e+00	-3.808695e+02
8.200000e-07	-6.054454e-08	-5.014905e-09	-4.334713e-01	-3.321156e+02
8.300000e-07	5.121224e-08	-4.268836e-09	3.666563e-01	-2.829190e+02
8.400000e-07	1.629046e-07	-3.518546e-09	1.166322e+00	-2.335165e+02
8.500000e-07	2.745198e-07	-2.765821e-09	1.965437e+00	-1.840490e+02
8.600000e-07	3.861052e-07	-2.010529e-09	2.764337e+00	-1.345420e+02
8.700000e-07	4.975832e-07	-1.252351e-09	3.562469e+00	-8.490289e+01
8.800000e-07	6.088671e-07	-4.912210e-10	4.359211e+00	-3.493908e+01
8.900000e-07	7.199251e-07	2.759109e-10	5.154335e+00	1.560493e+01
9.000000e-07	8.307574e-07	1.057291e-09	5.947844e+00	6.699656e+01
9.100000e-07	9.413253e-07	1.855911e-09	6.739460e+00	1.194581e+02
9.200000e-07	1.051610e-06	2.672343e-09	7.529051e+00	1.731126e+02
9.300000e-07	1.161572e-06	3.507104e-09	8.316328e+00	2.279427e+02
9.400000e-07	1.271171e-06	4.357710e-09	9.101007e+00	2.837688e+02
9.500000e-07	1.380349e-06	5.219799e-09	9.882666e+00	3.402508e+02
9.600000e-07	1.489060e-06	6.083211e-09	1.066099e+01	3.969134e+02
9.700000e-07	1.597324e-06	6.939031e-09	1.143611e+01	4.531914e+02
9.800000e-07	1.705089e-06	7.779676e-09	1.220766e+01	5.084854e+02
9.900000e-07	1.812236e-06	8.596475e-09	1.297478e+01	5.622217e+02
1.000000e-06	1.918632e-06	9.378312e-09	1.373653e+01	6.139048e+02
1.010000e-06	2.024128e-06	1.012007e-08	1.449183e+01	6.631562e+02
1.020000e-06	2.128755e-06	1.082445e-08	1.524091e+01	7.097343e+02
1.030000e-06	2.232598e-06	1.148998e-08	1.598438e+01	7.535350e+02
1.040000e-06	2.335611e-06	1.211406e-08	1.672191e+01	7.945753e+02
1.050000e-06	2.437761e-06	1.269751e-08	1.745326e+01	8.329648e+02
1.060000e-06	2.539035e-06	1.324415e-08	1.817833e+01	8.688717e+02
1.070000e-06	2.639480e-06	1.375429e-08	1.889748e+01	9.024899e+02
1.080000e-06	2.739130e-06	1.423001e-08	1.961092e+01	9.340127e+02
1.090000e-06	2.837782e-06	1.467829e-08	2.031723e+01	9.636157e+02
1.100000e-06	2.935205e-06	1.510079e-08	2.101473e+01	9.914488e+02
1.110000e-06	3.031486e-06	1.549920e-08	2.170406e+01	1.017638e+03
1.120000e-06	3.126704e-06	1.587518e-08	2.238577e+01	1.042291e+03
1.130000e-06	3.220799e-06	1.622974e-08	2.305946e+01	1.065506e+03
1.140000e-06	3.313821e-06	1.656165e-08	2.372545e+01	1.087378e+03
1.150000e-06	3.405888e-06	1.687407e-08	2.438461e+01	1.108002e+03
1.160000e-06	3.496864e-06	1.717018e-08	2.503595e+01	1.127474e+03
1.170000e-06	3.586402e-06	1.745106e-08	2.567700e+01	1.145886e+03
1.180000e-06	3.674558e-06	1.771698e-08	2.630816e+01	1.163325e+03
1.190000e-06	3.761477e-06	1.796827e-08	2.693046e+01	1.179865e+03
1.200000e-06	3.847134e-06	1.820638e-08	2.754372e+01	1.195568e+03
1.210000e-06	3.931568e-06	1.843150e-08	2.814824e+01	1.210480e+03
1.220000e-06	4.014758e-06	1.864498e-08	2.874383e+01	1.224642e+03
1.230000e-06	4.096471e-06	1.884752e-08	2.932887e+01	1.238087e+03
1.240000e-06	4.176591e-06	1.904069e-08	2.990249e+01	1.250847e+03
1.250000e-06	4.255168e-06	1.922439e-08	3.046506e+01	1.262959e+03
1.260000e-06	4.332200e-06	1.940025e-08	3.101658e+01	1.274459e+03
1.270000e-06	4.407662e-06	1.956833e-08	3.155685e+01	1.285389e+03
1.280000e-06	4.481282e-06	1.972829e-08	3.208394e+01	1.295786e+03
1.290000e-06	4.553039e-06	1.987927e-08	3.259768e+01	1.305682e+03
1.300000e-06	4.623140e-06	2.002173e-08	3.309958e+01	1.315101e+03
1.310000e-06	4.691671e-06	2.015843e-08	3.359023e+01	1.324056e+03
1.320000e-06	4.758560e-06	2.029007e-08	3.406912e+01	1.332550e+03
1.330000e-06	4.823601e-06	2.041621e-08	3.453479e+01	1.340583e+03
1.340000e-06	4.886880e-06	2.053266e-08	3.498783e+01	1.348155e+03
1.350000e-06	4.948551e-06	2.063904e-08	3.542937e+01	1.355272e+03
1.360000e-06	5.008609e-06	2.073848e-08	3.585936e+01	1.361951e+03
1.370000e-06	5.066909e-06	2.083221e-08	3.627676e+01	1.368219e+03
1.380000e-06	5.123266e-06	2.092200e-08	3.668025e+01	1.374115e+03
1.390000e-06	5.177684e-06	2.100575e-08	3.706986e+01	1.379683e+03
1.400000e-06	5.230166e-06	2.108549e-08	3.744560e+01	1.384967e+03
1.410000e-06	5.280517e-06	2.116250e-08	3.780610e+01	1.390005e+03
1.420000e-06	5.328711e-06	2.123697e-08	3.815114e+01	1.394825e+03
1.430000e-06	5.374984e-06	2.130926e-08	3.848243e+01	1.399436e+03
1.440000e-06	5.419512e-06	2.137817e-08	3.880123e+01	1.403837e+03
1.450000e-06	5.462177e-06	2.144324e-08	3.910670e+01	1.408014e+03
1.460000e-06	5.502768e-06	2.150322e-08	3.939731e+01	1.411947e+03
1.470000e-06	5.541411e-06	2.155698e-08	3.967398e+01	1.415619e+03
1.480000e-06	5.578235e-06	2.160486e-08	3.993762e+01	1.419016e+03
1.490000e-06	5.613112e-06	2.165033e-08	4.018732e+01	1.422134e+03
1.500000e-06	5.645882e-06	2.169386e-08	4.042194e+01	1.424981e+03
1.510000e-06	5.676665e-06	2.173439e-08	4.064233e+01	1.427571e+03
1.520000e-06	5.705662e-06	2.177274e-08	4.084994e+01	1.429926e+03
1.530000e-06	5.732743e-06	2.180765e-08	4.104383e+01	1.432067e+03
1.540000e-06	5.757570e-06	2.183648e-08	4.122157e+01	1.434010e+03
1.550000e-06	5.780189e-06	2.186060e-08	4.138352e+01	1.435766e+03
1.560000e-06	5.800898e-06	2.188223e-08	4.153179e+01	1.437338e+03
1.570000e-06	5.819696e-06	2.190121e-08	4.166637e+01	1.438723e+03
1.580000e-06	5.836357e-06	2.191721e-08	4.178566e+01	1.439916e+03
1.590000e-06	5.850804e-06	2.193162e-08	4.188909e+01	1.440910e+03
1.600000e-06	5.863027e-06	2.194589e-08	4.197660e+01	1.441703e+03
1.610000e-06	5.872873e-06	2.195876e-08	4.204710e+01	1.442300e+03
1.620000e-06	5.880444e-06	2.196776e-08	4.210130e+01	1.442710e+03
1.630000e-06	5.885987e-06	2.197237e-08	4.214098e+01	1.442948e+03
1.640000e-06	5.889530e-06	2.197474e-08	4.216635e+01	1.443031e+03
1.650000e-06	5.890920e-06	2.197454e-08	4.217630e+01	1.442973e+03
1.660000e-06	5.890190e-06	2.197057e-08	4.217107e+01	1.442786e+03
1.670000e-06	5.887570e-06	2.196284e-08	4.215232e+01	1.442471e+03
1.680000e-06	5.883108e-06	2.195380e-08	4.212037e+01	1.442026e+03
1.690000e-06	5.876613e-06	2.194508e-08	4.207387e+01	1.441442e+03
1.700000e-06	5.868145e-06	2.193518e-08	4.201324e+01	1.440705e+03
1.710000e-06	5.857901e-06	2.192499e-08	4.193990e+01	1.439806e+03
1.720000e-06	5.845695e-06	2.191478e-08	4.185251e+01	1.438736e+03
1.730000e-06	5.831363e-06	2.189156e-08	4.174990e+01	1.437495e+03
1.740000e-06	5.815053e-06	2.184982e-08	4.163313e+01	1.436088e+03
1.750000e-06	5.796578e-06	2.180389e-08	4.150086e+01	1.434527e+03
1.760000e-06	5.775368e-06	2.178944e-08	4.134900e+01	1.432826e+03
1.770000e-06	5.751437e-06	2.178218e-08	4.117766e+01	1.431000e+03
1.780000e-06	5.725447e-06	2.177359e-08	4.099159e+01	1.429060e+03
1.790000e-06	5.698163e-06	2.176119e-08	4.079625e+01	1.427009e+03
1.800000e-06	5.669853e-06	2.169681e-08	4.059356e+01	1.424842e+03
1.810000e-06	5.639737e-06	2.163191e-08	4.037794e+01	1.422546e+03
1.820000e-06	5.607307e-06	2.162558e-08	4.014576e+01	1.420102e+03
1.830000e-06	5.573034e-06	2.160240e-08	3.990038e+01	1.417489e+03
1.840000e-06	5.536924e-06	2.156991e-08	3.964185e+01	1.414687e+03
1.850000e-06	5.498637e-06	2.153782e-08	3.936773e+01	1.411677e+03
1.860000e-06	5.458316e-06	2.145110e-08	3.907906e+01	1.408452e+03
1.870000e-06	5.416176e-06	2.140584e-08	3.877735e+01	1.405008e+03
1.880000e-06	5.372334e-06	2.137269e-08	3.846346e+01	1.401352e+03
1.890000e-06	5.326668e-06	2.127635e-08	3.813652e+01	1.397491e+03
1.900000e-06	5.278844e-06	2.120793e-08	3.779411e+01	1.393437e+03
1.910000e-06	5.228848e-06	2.117001e-08	3.743617e+01	1.389196e+03
1.920000e-06	5.176670e-06	2.112610e-08	3.706260e+01	1.384773e+03
1.930000e-06	5.122339e-06	2.106007e-08	3.667361e+01	1.380165e+03
1.940000e-06	5.066041e-06	2.098497e-08	3.627055e+01	1.375360e+03
1.950000e-06	5.007915e-06	2.091586e-08	3.585439e+01	1.370346e+03
1.960000e-06	4.948049e-06	2.080677e-08	3.542578e+01	1.365105e+03
1.970000e-06	4.886289e-06	2.071850e-08	3.498360e+01	1.359620e+03
1.980000e-06	4.822572e-06	2.063703e-08	3.452741e+01	1.353880e+03
1.990000e-06	4.757083e-06	2.055117e-08	3.405854e+01	1.347874e+03
2.000000e-06	4.690015e-06	2.048789e-08	3.357837e+01	1.341599e+03
2.010000e-06	4.621356e-06	2.037355e-08	3.308680e+01	1.335055e+03
2.020000e-06	4.550891e-06	2.024989e-08	3.258230e+01	1.328242e+03
2.030000e-06	4.478620e-06	2.014019e-08	3.206487e+01	1.321161e+03
2.040000e-06	4.404738e-06	2.003051e-08	3.153592e+01	1.313809e+03
2.050000e-06	4.329262e-06	1.993052e-08	3.099554e+01	1.306176e+03
2.060000e-06	4.252061e-06	1.981602e-08	3.044282e+01	1.298251e+03
2.070000e-06	4.173132e-06	1.969904e-08	2.987772e+01	1.290016e+03
2.080000e-06	4.092663e-06	1.955985e-08	2.930160e+01	1.281452e+03
2.090000e-06	4.010814e-06	1.941328e-08	2.871560e+01	1.272542e+03
2.100000e-06	3.927642e-06	1.927298e-08	2.812013e+01	1.263268e+03
2.110000e-06	3.843121e-06	1.912923e-08	2.751499e+01	1.253619e+03
2.120000e-06	3.757156e-06	1.898537e-08	2.689953e+01	1.243583e+03
2.130000e-06	3.669778e-06	1.882605e-08	2.627394e+01	1.233151e+03
2.140000e-06	3.581149e-06	1.866531e-08	2.563940e+01	1.222314e+03
2.150000e-06	3.491329e-06	1.849170e-08	2.499632e+01	1.211056e+03
2.160000e-06	3.400342e-06	1.830980e-08	2.434490e+01	1.199359e+03
2.170000e-06	3.308214e-06	1.813006e-08	2.368530e+01	1.187195e+03
2.180000e-06	3.214846e-06	1.794072e-08	2.301683e+01	1.174533e+03
2.190000e-06	3.120202e-06	1.774184e-08	2.233923e+01	1.161337e+03
2.200000e-06	3.024320e-06	1.753354e-08	2.165275e+01	1.147568e+03
2.210000e-06	2.927360e-06	1.731960e-08	2.095856e+01	1.133190e+03
2.220000e-06	2.829403e-06	1.709164e-08	2.025723e+01	1.118167e+03
2.230000e-06	2.730452e-06	1.685283e-08	1.954879e+01	1.102467e+03
2.240000e-06	2.630616e-06	1.660689e-08	1.883401e+01	1.086057e+03
2.250000e-06	2.529852e-06	1.635188e-08	1.811259e+01	1.068904e+03
2.260000e-06	2.428070e-06	1.608205e-08	1.738387e+01	1.050970e+03
2.270000e-06	2.325233e-06	1.579152e-08	1.664761e+01	1.032208e+03
2.280000e-06	2.221422e-06	1.548791e-08	1.590437e+01	1.012563e+03
2.290000e-06	2.116823e-06	1.517458e-08	1.515549e+01	9.919683e+02
2.300000e-06	2.011493e-06	1.484863e-08	1.440137e+01	9.703497e+02
2.310000e-06	1.905497e-06	1.450706e-08	1.364249e+01	9.476246e+02
2.320000e-06	1.798929e-06	1.414900e-08	1.287951e+01	9.237054e+02
2.330000e-06	1.691841e-06	1.376754e-08	1.211281e+01	8.985011e+02
2.340000e-06	1.584249e-06	1.336009e-08	1.134250e+01	8.719174e+02
2.350000e-06	1.476161e-06	1.292979e-08	1.056864e+01	8.438568e+02
2.360000e-06	1.367659e-06	1.248058e-08	9.791817e+00	8.142178e+02
2.370000e-06	1.258784e-06	1.201058e-08	9.012322e+00	7.828959e+02
2.380000e-06	1.149543e-06	1.151092e-08	8.230206e+00	7.497873e+02
2.390000e-06	1.039946e-06	1.097641e-08	7.445539e+00	7.147961e+02
2.400000e-06	9.299954e-07	1.040740e-08	6.658343e+00	6.778465e+02
2.410000e-06	8.197264e-07	9.810153e-09	5.868867e+00	6.388975e+02
2.420000e-06	7.091331e-07	9.186815e-09	5.077070e+00	5.979599e+02
2.430000e-06	5.982111e-07	8.536894e-09	4.282919e+00	5.551101e+02
2.440000e-06	4.870700e-07	7.860188e-09	3.487199e+00	5.104988e+02
2.450000e-06	3.758045e-07	7.156656e-09	2.690589e+00	4.643491e+02
2.460000e-06	2.643986e-07	6.429699e-09	1.892974e+00	4.169442e+02
2.470000e-06	1.528128e-07	5.686076e-09	1.094070e+00	3.686017e+02
2.480000e-06	4.110062e-08	4.936461e-09	2.942617e-01	3.196400e+02
2.490000e-06	-7.065899e-08	4.184549e-09	-5.058861e-01	2.703380e+02
2.500000e-06	-1.823515e-07	3.430005e-09	-1.305553e+00	2.208984e+02
2.510000e-06	-2.938982e-07	2.675219e-09	-2.104177e+00	1.714182e+02
2.520000e-06	-4.053549e-07	1.916999e-09	-2.902157e+00	1.218756e+02
2.530000e-06	-5.167150e-07	1.153006e-09	-3.699444e+00	7.213546e+01
2.540000e-06	-6.278980e-07	3.840315e-10	-4.495463e+00	2.197520e+01
2.550000e-06	-7.387967e-07	-3.937055e-10	-5.289448e+00	-2.887202e+01
2.560000e-06	-8.493487e-07	-1.183169e-09	-6.080949e+00	-8.066271e+01
2.570000e-06	-9.595894e-07	-1.987030e-09	-6.870223e+00	-1.335861e+02
2.580000e-06	-1.069433e-06	-2.810257e-09	-7.656654e+00	-1.877142e+02
2.590000e-06	-1.178802e-06	-3.653894e-09	-8.439685e+00	-2.429672e+02
2.600000e-06	-1.287809e-06	-4.513149e-09	-9.220127e+00	-2.991006e+02
2.610000e-06	-1.396454e-06	-5.380346e-09	-9.997977e+00	-3.557173e+02
2.620000e-06	-1.504678e-06	-6.247703e-09	-1.077281e+01	-4.123003e+02
2.630000e-06	-1.612407e-06	-7.104814e-09	-1.154410e+01	-4.682639e+02
2.640000e-06	-1.719535e-06	-7.941565e-09	-1.231109e+01	-5.230120e+02
2.650000e-06	-1.826043e-06	-8.752220e-09	-1.307364e+01	-5.759959e+02
2.660000e-06	-1.931892e-06	-9.531204e-09	-1.383146e+01	-6.267624e+02
2.670000e-06	-2.037057e-06	-1.027221e-08	-1.458440e+01	-6.749855e+02
2.680000e-06	-2.141503e-06	-1.097205e-08	-1.533218e+01	-7.204785e+02
2.690000e-06	-2.245164e-06	-1.162715e-08	-1.607435e+01	-7.631878e+02
2.700000e-06	-2.347870e-06	-1.223873e-08	-1.680968e+01	-8.031706e+02
2.710000e-06	-2.449498e-06	-1.281331e-08	-1.753729e+01	-8.405635e+02
2.720000e-06	-2.550207e-06	-1.335227e-08	-1.825832e+01	-8.755485e+02
2.730000e-06	-2.650096e-06	-1.385451e-08	-1.897348e+01	-9.083220e+02
2.740000e-06	-2.749044e-06	-1.432413e-08	-1.968190e+01	-9.390719e+02
2.750000e-06	-2.847023e-06	-1.476538e-08	-2.038339e+01	-9.679640e+02
2.760000e-06	-2.944095e-06	-1.517954e-08	-2.107838e+01	-9.951384e+02
2.770000e-06	-3.040258e-06	-1.557274e-08	-2.176686e+01	-1.020713e+03
2.780000e-06	-3.135409e-06	-1.594584e-08	-2.244810e+01	-1.044791e+03
2.790000e-06	-3.229304e-06	-1.629557e-08	-2.312034e+01	-1.067468e+03
2.800000e-06	-3.321983e-06	-1.662236e-08	-2.378388e+01	-1.088839e+03
2.810000e-06	-3.413507e-06	-1.692842e-08	-2.443916e+01	-1.109000e+03
2.820000e-06	-3.503780e-06	-1.721879e-08	-2.508547e+01	-1.128045e+03
2.830000e-06	-3.592810e-06	-1.749292e-08	-2.572288e+01	-1.146067e+03
2.840000e-06	-3.680624e-06	-1.775227e-08	-2.635159e+01	-1.163145e+03
2.850000e-06	-3.767088e-06	-1.800081e-08	-2.697063e+01	-1.179350e+03
2.860000e-06	-3.852114e-06	-1.823899e-08	-2.757938e+01	-1.194738e+03
2.870000e-06	-3.935837e-06	-1.846718e-08	-2.817880e+01	-1.209352e+03
2.880000e-06	-4.018201e-06	-1.868370e-08	-2.876849e+01	-1.223230e+03
2.890000e-06	-4.099157e-06	-1.888773e-08	-2.934809e+01	-1.236402e+03
2.900000e-06	-4.178676e-06	-1.907714e-08	-2.991742e+01	-1.248904e+03
2.910000e-06	-4.256503e-06	-1.925487e-08	-3.047462e+01	-1.260772e+03
2.920000e-06	-4.332612e-06	-1.942516e-08	-3.101953e+01	-1.272044e+03
2.930000e-06	-4.407094e-06	-1.958785e-08	-3.155278e+01	-1.282761e+03
2.940000e-06	-4.479938e-06	-1.974344e-08	-3.207432e+01	-1.292959e+03
