# Temperatura_=_48.92
# Concentracion g/m^3_=_28200.0
# C_Vs_to_Am_M_A/Vsm_=_65563218390.804596
# pendiente_HvsI_1/m_=_3716.3
# ordenada_HvsI_A/m_=_1297.0
# frecuencia_Hz_=_301917.33391747234

Tiempo_(s)	Campo_(V.s)	Magnetizacion_(V.s)	Campo_(kA/m)	Magnetizacion_(A/m)
0.000000e+00	-5.864169e-06	-2.196468e-08	-4.194955e+01	-1.439157e+03
1.000000e-08	-5.861922e-06	-2.196290e-08	-4.193347e+01	-1.438812e+03
2.000000e-08	-5.857678e-06	-2.195590e-08	-4.190311e+01	-1.438323e+03
3.000000e-08	-5.851654e-06	-2.194511e-08	-4.186001e+01	-1.437691e+03
4.000000e-08	-5.843859e-06	-2.193353e-08	-4.180425e+01	-1.436916e+03
5.000000e-08	-5.834049e-06	-2.191766e-08	-4.173408e+01	-1.435996e+03
6.000000e-08	-5.822022e-06	-2.189825e-08	-4.164805e+01	-1.434923e+03
7.000000e-08	-5.807816e-06	-2.187311e-08	-4.154642e+01	-1.433693e+03
8.000000e-08	-5.791428e-06	-2.185634e-08	-4.142919e+01	-1.432304e+03
9.000000e-08	-5.772920e-06	-2.187608e-08	-4.129679e+01	-1.430757e+03
1.000000e-07	-5.752273e-06	-2.186929e-08	-4.114909e+01	-1.429057e+03
1.100000e-07	-5.729415e-06	-2.180788e-08	-4.098558e+01	-1.427215e+03
1.200000e-07	-5.704365e-06	-2.176803e-08	-4.080638e+01	-1.425241e+03
1.300000e-07	-5.677338e-06	-2.170960e-08	-4.061304e+01	-1.423147e+03
1.400000e-07	-5.648762e-06	-2.161278e-08	-4.040862e+01	-1.420939e+03
1.500000e-07	-5.618723e-06	-2.164786e-08	-4.019373e+01	-1.418614e+03
1.600000e-07	-5.586965e-06	-2.165528e-08	-3.996655e+01	-1.416165e+03
1.700000e-07	-5.553367e-06	-2.154735e-08	-3.972621e+01	-1.413573e+03
1.800000e-07	-5.517874e-06	-2.156932e-08	-3.947231e+01	-1.410814e+03
1.900000e-07	-5.480355e-06	-2.151405e-08	-3.920392e+01	-1.407865e+03
2.000000e-07	-5.440970e-06	-2.140725e-08	-3.892218e+01	-1.404701e+03
2.100000e-07	-5.399695e-06	-2.142664e-08	-3.862691e+01	-1.401307e+03
2.200000e-07	-5.356314e-06	-2.135726e-08	-3.831658e+01	-1.397676e+03
2.300000e-07	-5.310929e-06	-2.125882e-08	-3.799192e+01	-1.393812e+03
2.400000e-07	-5.263395e-06	-2.121288e-08	-3.765188e+01	-1.389727e+03
2.500000e-07	-5.213499e-06	-2.114066e-08	-3.729495e+01	-1.385436e+03
2.600000e-07	-5.161341e-06	-2.108385e-08	-3.692184e+01	-1.380956e+03
2.700000e-07	-5.107159e-06	-2.102135e-08	-3.653424e+01	-1.376298e+03
2.800000e-07	-5.051138e-06	-2.093635e-08	-3.613349e+01	-1.371463e+03
2.900000e-07	-4.993257e-06	-2.084062e-08	-3.571944e+01	-1.366444e+03
3.000000e-07	-4.933456e-06	-2.075059e-08	-3.529165e+01	-1.361225e+03
3.100000e-07	-4.871865e-06	-2.068010e-08	-3.485106e+01	-1.355782e+03
3.200000e-07	-4.808572e-06	-2.060569e-08	-3.439830e+01	-1.350091e+03
3.300000e-07	-4.743459e-06	-2.053136e-08	-3.393251e+01	-1.344133e+03
3.400000e-07	-4.676486e-06	-2.042023e-08	-3.345341e+01	-1.337892e+03
3.500000e-07	-4.607787e-06	-2.029986e-08	-3.296197e+01	-1.331362e+03
3.600000e-07	-4.537465e-06	-2.019876e-08	-3.245892e+01	-1.324545e+03
3.700000e-07	-4.465563e-06	-2.009287e-08	-3.194456e+01	-1.317445e+03
3.800000e-07	-4.392013e-06	-1.999536e-08	-3.141842e+01	-1.310069e+03
3.900000e-07	-4.316619e-06	-1.988386e-08	-3.087909e+01	-1.302417e+03
4.000000e-07	-4.239441e-06	-1.975020e-08	-3.032699e+01	-1.294484e+03
4.100000e-07	-4.160622e-06	-1.961342e-08	-2.976316e+01	-1.286260e+03
4.200000e-07	-4.080206e-06	-1.948163e-08	-2.918790e+01	-1.277724e+03
4.300000e-07	-3.998361e-06	-1.934967e-08	-2.860242e+01	-1.268856e+03
4.400000e-07	-3.915283e-06	-1.920860e-08	-2.800812e+01	-1.259635e+03
4.500000e-07	-3.831000e-06	-1.906428e-08	-2.740520e+01	-1.250040e+03
4.600000e-07	-3.745505e-06	-1.890731e-08	-2.679361e+01	-1.240057e+03
4.700000e-07	-3.658887e-06	-1.874286e-08	-2.617398e+01	-1.229676e+03
4.800000e-07	-3.571015e-06	-1.858043e-08	-2.554539e+01	-1.218888e+03
4.900000e-07	-3.481716e-06	-1.841175e-08	-2.490658e+01	-1.207681e+03
5.000000e-07	-3.391060e-06	-1.823316e-08	-2.425807e+01	-1.196041e+03
5.100000e-07	-3.299080e-06	-1.804473e-08	-2.360009e+01	-1.183941e+03
5.200000e-07	-3.205938e-06	-1.784858e-08	-2.293379e+01	-1.171350e+03
5.300000e-07	-3.111767e-06	-1.764502e-08	-2.226014e+01	-1.158228e+03
5.400000e-07	-3.016536e-06	-1.743396e-08	-2.157890e+01	-1.144531e+03
5.500000e-07	-2.920144e-06	-1.721470e-08	-2.088936e+01	-1.130217e+03
5.600000e-07	-2.822522e-06	-1.698501e-08	-2.019101e+01	-1.115246e+03
5.700000e-07	-2.723711e-06	-1.674416e-08	-1.948416e+01	-1.099585e+03
5.800000e-07	-2.623796e-06	-1.649295e-08	-1.876942e+01	-1.083206e+03
5.900000e-07	-2.522955e-06	-1.623234e-08	-1.804805e+01	-1.066082e+03
6.000000e-07	-2.421264e-06	-1.595829e-08	-1.732060e+01	-1.048186e+03
6.100000e-07	-2.318760e-06	-1.567026e-08	-1.658733e+01	-1.029480e+03
6.200000e-07	-2.215507e-06	-1.537047e-08	-1.584871e+01	-1.009917e+03
6.300000e-07	-2.111346e-06	-1.505809e-08	-1.510359e+01	-9.894337e+02
6.400000e-07	-2.006245e-06	-1.473185e-08	-1.435175e+01	-9.679532e+02
6.500000e-07	-1.900383e-06	-1.438717e-08	-1.359446e+01	-9.453876e+02
6.600000e-07	-1.793879e-06	-1.402119e-08	-1.283258e+01	-9.216410e+02
6.700000e-07	-1.686731e-06	-1.363253e-08	-1.206609e+01	-8.966141e+02
6.800000e-07	-1.578917e-06	-1.322410e-08	-1.129484e+01	-8.702066e+02
6.900000e-07	-1.470562e-06	-1.279737e-08	-1.051972e+01	-8.423191e+02
7.000000e-07	-1.361733e-06	-1.235027e-08	-9.741208e+00	-8.128518e+02
7.100000e-07	-1.252478e-06	-1.187819e-08	-8.959643e+00	-7.817051e+02
7.200000e-07	-1.142882e-06	-1.137598e-08	-8.175647e+00	-7.487802e+02
7.300000e-07	-1.032956e-06	-1.084277e-08	-7.389290e+00	-7.139840e+02
7.400000e-07	-9.226913e-07	-1.028021e-08	-6.600505e+00	-6.772386e+02
7.500000e-07	-8.121433e-07	-9.689054e-09	-5.809696e+00	-6.384950e+02
7.600000e-07	-7.013426e-07	-9.067620e-09	-5.017080e+00	-5.977504e+02
7.700000e-07	-5.903111e-07	-8.414911e-09	-4.222811e+00	-5.550642e+02
7.800000e-07	-4.791282e-07	-7.734802e-09	-3.427461e+00	-5.105696e+02
7.900000e-07	-3.677787e-07	-7.030596e-09	-2.630918e+00	-4.644764e+02
8.000000e-07	-2.562166e-07	-6.306754e-09	-1.832855e+00	-4.170615e+02
8.100000e-07	-1.445598e-07	-5.571374e-09	-1.034114e+00	-3.686453e+02
8.200000e-07	-3.285874e-08	-4.828042e-09	-2.350562e-01	-3.195579e+02
8.300000e-07	7.887252e-08	-4.078677e-09	5.642174e-01	-2.700978e+02
8.400000e-07	1.905691e-07	-3.326370e-09	1.363243e+00	-2.204907e+02
8.500000e-07	3.022434e-07	-2.572200e-09	2.162109e+00	-1.708564e+02
8.600000e-07	4.138211e-07	-1.815281e-09	2.960284e+00	-1.211912e+02
8.700000e-07	5.252269e-07	-1.053868e-09	3.757230e+00	-7.137045e+01
8.800000e-07	6.364646e-07	-2.871544e-10	4.552972e+00	-2.117280e+01
8.900000e-07	7.475701e-07	4.876737e-10	5.347769e+00	2.967593e+01
9.000000e-07	8.585078e-07	1.276571e-09	6.141367e+00	8.144642e+01
9.100000e-07	9.691481e-07	2.080764e-09	6.932835e+00	1.343457e+02
9.200000e-07	1.079471e-06	2.900897e-09	7.722032e+00	1.884641e+02
9.300000e-07	1.189481e-06	3.739504e-09	8.508995e+00	2.437375e+02
9.400000e-07	1.299093e-06	4.594723e-09	9.293110e+00	2.999335e+02
9.500000e-07	1.408241e-06	5.460194e-09	1.007390e+01	3.566613e+02
9.600000e-07	1.516924e-06	6.325144e-09	1.085137e+01	4.134066e+02
9.700000e-07	1.625141e-06	7.179707e-09	1.162550e+01	4.695822e+02
9.800000e-07	1.732849e-06	8.017374e-09	1.239600e+01	5.245882e+02
9.900000e-07	1.839942e-06	8.829529e-09	1.316209e+01	5.778708e+02
1.000000e-06	1.946279e-06	9.605380e-09	1.392278e+01	6.289704e+02
1.010000e-06	2.051715e-06	1.033865e-08	1.467701e+01	6.775531e+02
1.020000e-06	2.156219e-06	1.103041e-08	1.542459e+01	7.234237e+02
1.030000e-06	2.259861e-06	1.168103e-08	1.616599e+01	7.665180e+02
1.040000e-06	2.362686e-06	1.229220e-08	1.690156e+01	8.068818e+02
1.050000e-06	2.464736e-06	1.286722e-08	1.763157e+01	8.446400e+02
1.060000e-06	2.565927e-06	1.340614e-08	1.835545e+01	8.799640e+02
1.070000e-06	2.666235e-06	1.390928e-08	1.907301e+01	9.130422e+02
1.080000e-06	2.765757e-06	1.437977e-08	1.978494e+01	9.440584e+02
1.090000e-06	2.864309e-06	1.482155e-08	2.048993e+01	9.731790e+02
1.100000e-06	2.961625e-06	1.523656e-08	2.118609e+01	1.000549e+03
1.110000e-06	3.057712e-06	1.562674e-08	2.187345e+01	1.026294e+03
1.120000e-06	3.152664e-06	1.599519e-08	2.255269e+01	1.050526e+03
1.130000e-06	3.246525e-06	1.634385e-08	2.322413e+01	1.073351e+03
1.140000e-06	3.339346e-06	1.667183e-08	2.388813e+01	1.094869e+03
1.150000e-06	3.431198e-06	1.698022e-08	2.454520e+01	1.115179e+03
1.160000e-06	3.521872e-06	1.727250e-08	2.519384e+01	1.134375e+03
1.170000e-06	3.611104e-06	1.755092e-08	2.583216e+01	1.152543e+03
1.180000e-06	3.698955e-06	1.781451e-08	2.646061e+01	1.169762e+03
1.190000e-06	3.785557e-06	1.806334e-08	2.708011e+01	1.186095e+03
1.200000e-06	3.870949e-06	1.829892e-08	2.769097e+01	1.201598e+03
1.210000e-06	3.955161e-06	1.852046e-08	2.829339e+01	1.216314e+03
1.220000e-06	4.038055e-06	1.872950e-08	2.888637e+01	1.230284e+03
1.230000e-06	4.119340e-06	1.892920e-08	2.946785e+01	1.243545e+03
1.240000e-06	4.199022e-06	1.912108e-08	3.003785e+01	1.256135e+03
1.250000e-06	4.277273e-06	1.930455e-08	3.059762e+01	1.268094e+03
1.260000e-06	4.354018e-06	1.947909e-08	3.114662e+01	1.279462e+03
1.270000e-06	4.429064e-06	1.964564e-08	3.168347e+01	1.290277e+03
1.280000e-06	4.502287e-06	1.980408e-08	3.220727e+01	1.300573e+03
1.290000e-06	4.573702e-06	1.995388e-08	3.271814e+01	1.310373e+03
1.300000e-06	4.643443e-06	2.009448e-08	3.321704e+01	1.319694e+03
1.310000e-06	4.711631e-06	2.022835e-08	3.370482e+01	1.328545e+03
1.320000e-06	4.778138e-06	2.035635e-08	3.418058e+01	1.336930e+03
1.330000e-06	4.842800e-06	2.047658e-08	3.464314e+01	1.344854e+03
1.340000e-06	4.905738e-06	2.059004e-08	3.509337e+01	1.352323e+03
1.350000e-06	4.967090e-06	2.069937e-08	3.553226e+01	1.359353e+03
1.360000e-06	5.026851e-06	2.080281e-08	3.595976e+01	1.365968e+03
1.370000e-06	5.084731e-06	2.089854e-08	3.637380e+01	1.372200e+03
1.380000e-06	5.140619e-06	2.098815e-08	3.677360e+01	1.378085e+03
1.390000e-06	5.194648e-06	2.107149e-08	3.716010e+01	1.383662e+03
1.400000e-06	5.246687e-06	2.115037e-08	3.753236e+01	1.388964e+03
1.410000e-06	5.296516e-06	2.122602e-08	3.788882e+01	1.394018e+03
1.420000e-06	5.344242e-06	2.129962e-08	3.823023e+01	1.398840e+03
1.430000e-06	5.390144e-06	2.137154e-08	3.855859e+01	1.403434e+03
1.440000e-06	5.434309e-06	2.143848e-08	3.887452e+01	1.407798e+03
1.450000e-06	5.476576e-06	2.150187e-08	3.917688e+01	1.411922e+03
1.460000e-06	5.516777e-06	2.156240e-08	3.946446e+01	1.415792e+03
1.470000e-06	5.555010e-06	2.161802e-08	3.973796e+01	1.419400e+03
1.480000e-06	5.591451e-06	2.166772e-08	3.999865e+01	1.422738e+03
1.490000e-06	5.625992e-06	2.171185e-08	4.024574e+01	1.425807e+03
1.500000e-06	5.658409e-06	2.175215e-08	4.047763e+01	1.428613e+03
1.510000e-06	5.688796e-06	2.178991e-08	4.069501e+01	1.431170e+03
1.520000e-06	5.717369e-06	2.182594e-08	4.089941e+01	1.433492e+03
1.530000e-06	5.743960e-06	2.185940e-08	4.108963e+01	1.435595e+03
1.540000e-06	5.768280e-06	2.188883e-08	4.126360e+01	1.437494e+03
1.550000e-06	5.790466e-06	2.191466e-08	4.142231e+01	1.439201e+03
1.560000e-06	5.810776e-06	2.193782e-08	4.156759e+01	1.440723e+03
1.570000e-06	5.829121e-06	2.195695e-08	4.169882e+01	1.442064e+03
1.580000e-06	5.845191e-06	2.197141e-08	4.181378e+01	1.443224e+03
1.590000e-06	5.859041e-06	2.198376e-08	4.191286e+01	1.444200e+03
1.600000e-06	5.870728e-06	2.199565e-08	4.199646e+01	1.444991e+03
1.610000e-06	5.879994e-06	2.200603e-08	4.206275e+01	1.445596e+03
1.620000e-06	5.887017e-06	2.201474e-08	4.211299e+01	1.446016e+03
1.630000e-06	5.892055e-06	2.202043e-08	4.214903e+01	1.446256e+03
1.640000e-06	5.895038e-06	2.202387e-08	4.217037e+01	1.446322e+03
1.650000e-06	5.895868e-06	2.202518e-08	4.217630e+01	1.446223e+03
1.660000e-06	5.894628e-06	2.201954e-08	4.216743e+01	1.445968e+03
1.670000e-06	5.891554e-06	2.200959e-08	4.214544e+01	1.445564e+03
1.680000e-06	5.886584e-06	2.200078e-08	4.210989e+01	1.445017e+03
1.690000e-06	5.879575e-06	2.199098e-08	4.205975e+01	1.444328e+03
1.700000e-06	5.870639e-06	2.197906e-08	4.199583e+01	1.443496e+03
1.710000e-06	5.859890e-06	2.196744e-08	4.191893e+01	1.442515e+03
1.720000e-06	5.847150e-06	2.196093e-08	4.182780e+01	1.441380e+03
1.730000e-06	5.832301e-06	2.193809e-08	4.172157e+01	1.440086e+03
1.740000e-06	5.815474e-06	2.186354e-08	4.160121e+01	1.438634e+03
1.750000e-06	5.796408e-06	2.182083e-08	4.146481e+01	1.437024e+03
1.760000e-06	5.774582e-06	2.183250e-08	4.130868e+01	1.435266e+03
1.770000e-06	5.750096e-06	2.181552e-08	4.113352e+01	1.433369e+03
1.780000e-06	5.723624e-06	2.184662e-08	4.094415e+01	1.431346e+03
1.790000e-06	5.696012e-06	2.182238e-08	4.074663e+01	1.429206e+03
1.800000e-06	5.667376e-06	2.167563e-08	4.054178e+01	1.426951e+03
1.810000e-06	5.636685e-06	2.167930e-08	4.032223e+01	1.424578e+03
1.820000e-06	5.603702e-06	2.166582e-08	4.008628e+01	1.422073e+03
1.830000e-06	5.568973e-06	2.159148e-08	3.983785e+01	1.419418e+03
1.840000e-06	5.532212e-06	2.164624e-08	3.957488e+01	1.416586e+03
1.850000e-06	5.493314e-06	2.154915e-08	3.929662e+01	1.413553e+03
1.860000e-06	5.452480e-06	2.144524e-08	3.900451e+01	1.410300e+03
1.870000e-06	5.409790e-06	2.146418e-08	3.869913e+01	1.406812e+03
1.880000e-06	5.365461e-06	2.138148e-08	3.838202e+01	1.403087e+03
1.890000e-06	5.319149e-06	2.134273e-08	3.805073e+01	1.399133e+03
1.900000e-06	5.270599e-06	2.127126e-08	3.770342e+01	1.394964e+03
1.910000e-06	5.220004e-06	2.117068e-08	3.734149e+01	1.390596e+03
1.920000e-06	5.167227e-06	2.114998e-08	3.696394e+01	1.386044e+03
1.930000e-06	5.112373e-06	2.106213e-08	3.657155e+01	1.381315e+03
1.940000e-06	5.055645e-06	2.101428e-08	3.616574e+01	1.376409e+03
1.950000e-06	4.997066e-06	2.094578e-08	3.574669e+01	1.371312e+03
1.960000e-06	4.936661e-06	2.084117e-08	3.531458e+01	1.366006e+03
1.970000e-06	4.874329e-06	2.075788e-08	3.486869e+01	1.360468e+03
1.980000e-06	4.810151e-06	2.063159e-08	3.440958e+01	1.354673e+03
1.990000e-06	4.744294e-06	2.057424e-08	3.393848e+01	1.348603e+03
2.000000e-06	4.676852e-06	2.050036e-08	3.345603e+01	1.342248e+03
2.010000e-06	4.607670e-06	2.039010e-08	3.296113e+01	1.335604e+03
2.020000e-06	4.536572e-06	2.027927e-08	3.245253e+01	1.328674e+03
2.030000e-06	4.463806e-06	2.013913e-08	3.193200e+01	1.321464e+03
2.040000e-06	4.389512e-06	2.004176e-08	3.140053e+01	1.313978e+03
2.050000e-06	4.313550e-06	1.993235e-08	3.085713e+01	1.306215e+03
2.060000e-06	4.235860e-06	1.982167e-08	3.030137e+01	1.298169e+03
2.070000e-06	4.156544e-06	1.970609e-08	2.973399e+01	1.289823e+03
2.080000e-06	4.075745e-06	1.956287e-08	2.915599e+01	1.281159e+03
2.090000e-06	3.993535e-06	1.941827e-08	2.856789e+01	1.272153e+03
2.100000e-06	3.910011e-06	1.926688e-08	2.797040e+01	1.262785e+03
2.110000e-06	3.825077e-06	1.913066e-08	2.736282e+01	1.253038e+03
2.120000e-06	3.738710e-06	1.898146e-08	2.674499e+01	1.242899e+03
2.130000e-06	3.651023e-06	1.882186e-08	2.611772e+01	1.232358e+03
2.140000e-06	3.562065e-06	1.865669e-08	2.548136e+01	1.221406e+03
2.150000e-06	3.471916e-06	1.848098e-08	2.483647e+01	1.210030e+03
2.160000e-06	3.380622e-06	1.830351e-08	2.418340e+01	1.198211e+03
2.170000e-06	3.288114e-06	1.811987e-08	2.352164e+01	1.185922e+03
2.180000e-06	3.194317e-06	1.792939e-08	2.285066e+01	1.173126e+03
2.190000e-06	3.099304e-06	1.772616e-08	2.217098e+01	1.159782e+03
2.200000e-06	3.003097e-06	1.751353e-08	2.148276e+01	1.145846e+03
2.210000e-06	2.905801e-06	1.729248e-08	2.078675e+01	1.131277e+03
2.220000e-06	2.807490e-06	1.706382e-08	2.008348e+01	1.116038e+03
2.230000e-06	2.708284e-06	1.682291e-08	1.937381e+01	1.100097e+03
2.240000e-06	2.608172e-06	1.656942e-08	1.865765e+01	1.083427e+03
2.250000e-06	2.507036e-06	1.630755e-08	1.793417e+01	1.066002e+03
2.260000e-06	2.404953e-06	1.603128e-08	1.720392e+01	1.047792e+03
2.270000e-06	2.301909e-06	1.573871e-08	1.646679e+01	1.028755e+03
2.280000e-06	2.197835e-06	1.543456e-08	1.572229e+01	1.008837e+03
2.290000e-06	2.092919e-06	1.511914e-08	1.497177e+01	9.879705e+02
2.300000e-06	1.987347e-06	1.478690e-08	1.421655e+01	9.660735e+02
2.310000e-06	1.881156e-06	1.443775e-08	1.345692e+01	9.430544e+02
2.320000e-06	1.774418e-06	1.407345e-08	1.269336e+01	9.188156e+02
2.330000e-06	1.667175e-06	1.368817e-08	1.192619e+01	8.932570e+02
2.340000e-06	1.559431e-06	1.327681e-08	1.115544e+01	8.662788e+02
2.350000e-06	1.451172e-06	1.284013e-08	1.038101e+01	8.377813e+02
2.360000e-06	1.342413e-06	1.238132e-08	9.603000e+00	8.076649e+02
2.370000e-06	1.233229e-06	1.190022e-08	8.821951e+00	7.758300e+02
2.380000e-06	1.123748e-06	1.139189e-08	8.038775e+00	7.421793e+02
2.390000e-06	1.013973e-06	1.085052e-08	7.253495e+00	7.066242e+02
2.400000e-06	9.038112e-07	1.027489e-08	6.465446e+00	6.690963e+02
2.410000e-06	7.932674e-07	9.668136e-09	5.674667e+00	6.295626e+02
2.420000e-06	6.823935e-07	9.035097e-09	4.881526e+00	5.880430e+02
2.430000e-06	5.712927e-07	8.376237e-09	4.086763e+00	5.446249e+02
2.440000e-06	4.600374e-07	7.689981e-09	3.290894e+00	4.994720e+02
2.450000e-06	3.486333e-07	6.979015e-09	2.493961e+00	4.528223e+02
2.460000e-06	2.370531e-07	6.245884e-09	1.695768e+00	4.049732e+02
2.470000e-06	1.252667e-07	5.497042e-09	8.961000e-01	3.562535e+02
2.480000e-06	1.341404e-08	4.741208e-09	9.595778e-02	3.069861e+02
2.490000e-06	-9.842604e-08	3.984441e-09	-7.040942e-01	2.574454e+02
2.500000e-06	-2.102140e-07	3.227156e-09	-1.503773e+00	2.078187e+02
2.510000e-06	-3.218826e-07	2.468697e-09	-2.302598e+00	1.581785e+02
2.520000e-06	-4.334224e-07	1.707794e-09	-3.100502e+00	1.084720e+02
2.530000e-06	-5.447597e-07	9.425209e-10	-3.896958e+00	5.853240e+01
2.540000e-06	-6.558745e-07	1.705606e-10	-4.691822e+00	8.111604e+00
2.550000e-06	-7.667285e-07	-6.122105e-10	-5.484820e+00	-4.307038e+01
2.560000e-06	-8.772325e-07	-1.409206e-09	-6.275314e+00	-9.526627e+01
2.570000e-06	-9.874221e-07	-2.222835e-09	-7.063559e+00	-1.486429e+02
2.580000e-06	-1.097216e-06	-3.055869e-09	-7.848974e+00	-2.032331e+02
2.590000e-06	-1.206516e-06	-3.907049e-09	-8.630857e+00	-2.589072e+02
2.600000e-06	-1.315424e-06	-4.770732e-09	-9.409930e+00	-3.153677e+02
2.610000e-06	-1.423961e-06	-5.640276e-09	-1.018636e+01	-3.721703e+02
2.620000e-06	-1.532080e-06	-6.507545e-09	-1.095979e+01	-4.287650e+02
2.630000e-06	-1.639677e-06	-7.362598e-09	-1.172949e+01	-4.845526e+02
2.640000e-06	-1.746688e-06	-8.194306e-09	-1.249499e+01	-5.389446e+02
2.650000e-06	-1.853110e-06	-8.997047e-09	-1.325629e+01	-5.914191e+02
2.660000e-06	-1.958923e-06	-9.766272e-09	-1.401323e+01	-6.415633e+02
2.670000e-06	-2.064054e-06	-1.049674e-08	-1.476528e+01	-6.890975e+02
2.680000e-06	-2.168473e-06	-1.118516e-08	-1.551225e+01	-7.338795e+02
2.690000e-06	-2.272103e-06	-1.182878e-08	-1.625357e+01	-7.758918e+02
2.700000e-06	-2.374724e-06	-1.243013e-08	-1.698768e+01	-8.152149e+02
2.710000e-06	-2.476272e-06	-1.299612e-08	-1.771410e+01	-8.519961e+02
2.720000e-06	-2.576855e-06	-1.352718e-08	-1.843363e+01	-8.864164e+02
2.730000e-06	-2.676533e-06	-1.402134e-08	-1.914667e+01	-9.186646e+02
2.740000e-06	-2.775283e-06	-1.448358e-08	-1.985309e+01	-9.489187e+02
2.750000e-06	-2.873139e-06	-1.491723e-08	-2.055310e+01	-9.773365e+02
2.760000e-06	-2.970039e-06	-1.532473e-08	-2.124628e+01	-1.004055e+03
2.770000e-06	-3.066036e-06	-1.571068e-08	-2.193300e+01	-1.029194e+03
2.780000e-06	-3.161046e-06	-1.607515e-08	-2.261265e+01	-1.052863e+03
2.790000e-06	-3.254774e-06	-1.641703e-08	-2.328314e+01	-1.075164e+03
2.800000e-06	-3.347231e-06	-1.673757e-08	-2.394454e+01	-1.096197e+03
2.810000e-06	-3.438486e-06	-1.703949e-08	-2.459733e+01	-1.116059e+03
2.820000e-06	-3.528506e-06	-1.732466e-08	-2.524129e+01	-1.134843e+03
2.830000e-06	-3.617313e-06	-1.759437e-08	-2.587658e+01	-1.152631e+03
2.840000e-06	-3.704953e-06	-1.785148e-08	-2.650351e+01	-1.169495e+03
2.850000e-06	-3.791200e-06	-1.809709e-08	-2.712048e+01	-1.185498e+03
2.860000e-06	-3.875963e-06	-1.833116e-08	-2.772684e+01	-1.200688e+03
2.870000e-06	-3.959398e-06	-1.855419e-08	-2.832369e+01	-1.215108e+03
2.880000e-06	-4.041465e-06	-1.876671e-08	-2.891077e+01	-1.228795e+03
2.890000e-06	-4.122181e-06	-1.896682e-08	-2.948817e+01	-1.241789e+03
2.900000e-06	-4.201406e-06	-1.915321e-08	-3.005491e+01	-1.254128e+03
2.910000e-06	-4.278822e-06	-1.932985e-08	-3.060871e+01	-1.265851e+03
2.920000e-06	-4.354455e-06	-1.949873e-08	-3.114975e+01	-1.276999e+03
2.930000e-06	-4.428487e-06	-1.965977e-08	-3.167934e+01	-1.287608e+03
2.940000e-06	-4.501006e-06	-1.981446e-08	-3.219811e+01	-1.297707e+03
