# Temperatura_=_36.81
# Concentracion g/m^3_=_28200.0
# C_Vs_to_Am_M_A/Vsm_=_65563218390.804596
# pendiente_HvsI_1/m_=_3716.3
# ordenada_HvsI_A/m_=_1297.0
# frecuencia_Hz_=_301919.41625740554

Tiempo_(s)	Campo_(V.s)	Magnetizacion_(V.s)	Campo_(kA/m)	Magnetizacion_(A/m)
0.000000e+00	-5.860378e-06	-2.093820e-08	-4.195080e+01	-1.371577e+03
1.000000e-08	-5.858310e-06	-2.094067e-08	-4.193600e+01	-1.371325e+03
2.000000e-08	-5.854223e-06	-2.093479e-08	-4.190674e+01	-1.370932e+03
3.000000e-08	-5.848369e-06	-2.092503e-08	-4.186484e+01	-1.370391e+03
4.000000e-08	-5.840747e-06	-2.091491e-08	-4.181028e+01	-1.369695e+03
5.000000e-08	-5.831164e-06	-2.090004e-08	-4.174168e+01	-1.368840e+03
6.000000e-08	-5.819341e-06	-2.088122e-08	-4.165704e+01	-1.367823e+03
7.000000e-08	-5.805345e-06	-2.085207e-08	-4.155685e+01	-1.366646e+03
8.000000e-08	-5.789161e-06	-2.082265e-08	-4.144101e+01	-1.365317e+03
9.000000e-08	-5.770875e-06	-2.087042e-08	-4.131011e+01	-1.363843e+03
1.000000e-07	-5.750505e-06	-2.088488e-08	-4.116429e+01	-1.362239e+03
1.100000e-07	-5.727896e-06	-2.079674e-08	-4.100244e+01	-1.360517e+03
1.200000e-07	-5.703094e-06	-2.075701e-08	-4.082490e+01	-1.358689e+03
1.300000e-07	-5.676237e-06	-2.071330e-08	-4.063265e+01	-1.356761e+03
1.400000e-07	-5.647838e-06	-2.055518e-08	-4.042936e+01	-1.354734e+03
1.500000e-07	-5.618059e-06	-2.064123e-08	-4.021619e+01	-1.352602e+03
1.600000e-07	-5.586539e-06	-2.069969e-08	-3.999056e+01	-1.350350e+03
1.700000e-07	-5.553169e-06	-2.050519e-08	-3.975168e+01	-1.347958e+03
1.800000e-07	-5.517908e-06	-2.061098e-08	-3.949927e+01	-1.345402e+03
1.900000e-07	-5.480706e-06	-2.054902e-08	-3.923297e+01	-1.342660e+03
2.000000e-07	-5.441630e-06	-2.036342e-08	-3.895325e+01	-1.339711e+03
2.100000e-07	-5.400561e-06	-2.045240e-08	-3.865926e+01	-1.336540e+03
2.200000e-07	-5.357334e-06	-2.035663e-08	-3.834982e+01	-1.333142e+03
2.300000e-07	-5.312069e-06	-2.026281e-08	-3.802580e+01	-1.329520e+03
2.400000e-07	-5.264786e-06	-2.025998e-08	-3.768733e+01	-1.325683e+03
2.500000e-07	-5.215227e-06	-2.015831e-08	-3.733256e+01	-1.321644e+03
2.600000e-07	-5.163306e-06	-2.012566e-08	-3.696090e+01	-1.317416e+03
2.700000e-07	-5.109239e-06	-2.005298e-08	-3.657386e+01	-1.313008e+03
2.800000e-07	-5.053424e-06	-1.996165e-08	-3.617432e+01	-1.308425e+03
2.900000e-07	-4.995771e-06	-1.988278e-08	-3.576162e+01	-1.303660e+03
3.000000e-07	-4.936121e-06	-1.979908e-08	-3.533462e+01	-1.298700e+03
3.100000e-07	-4.874715e-06	-1.973937e-08	-3.489505e+01	-1.293529e+03
3.200000e-07	-4.811592e-06	-1.965160e-08	-3.444320e+01	-1.288125e+03
3.300000e-07	-4.746630e-06	-1.958832e-08	-3.397817e+01	-1.282469e+03
3.400000e-07	-4.679838e-06	-1.947561e-08	-3.350005e+01	-1.276548e+03
3.500000e-07	-4.611392e-06	-1.935893e-08	-3.301009e+01	-1.270351e+03
3.600000e-07	-4.541327e-06	-1.927925e-08	-3.250854e+01	-1.263876e+03
3.700000e-07	-4.469727e-06	-1.916823e-08	-3.199600e+01	-1.257124e+03
3.800000e-07	-4.396524e-06	-1.908465e-08	-3.147198e+01	-1.250097e+03
3.900000e-07	-4.321434e-06	-1.897376e-08	-3.093446e+01	-1.242796e+03
4.000000e-07	-4.244515e-06	-1.883334e-08	-3.038384e+01	-1.235216e+03
4.100000e-07	-4.165828e-06	-1.870875e-08	-2.982057e+01	-1.227349e+03
4.200000e-07	-4.085519e-06	-1.858355e-08	-2.924569e+01	-1.219179e+03
4.300000e-07	-4.003894e-06	-1.846625e-08	-2.866139e+01	-1.210691e+03
4.400000e-07	-3.921011e-06	-1.832729e-08	-2.806808e+01	-1.201864e+03
4.500000e-07	-3.836895e-06	-1.819482e-08	-2.746595e+01	-1.192681e+03
4.600000e-07	-3.751517e-06	-1.804297e-08	-2.685478e+01	-1.183127e+03
4.700000e-07	-3.664962e-06	-1.788152e-08	-2.623518e+01	-1.173190e+03
4.800000e-07	-3.577286e-06	-1.772595e-08	-2.560757e+01	-1.162859e+03
4.900000e-07	-3.488310e-06	-1.755966e-08	-2.497064e+01	-1.152120e+03
5.000000e-07	-3.397840e-06	-1.739234e-08	-2.432302e+01	-1.140959e+03
5.100000e-07	-3.305971e-06	-1.721088e-08	-2.366539e+01	-1.129353e+03
5.200000e-07	-3.212919e-06	-1.702618e-08	-2.299929e+01	-1.117275e+03
5.300000e-07	-3.118768e-06	-1.682905e-08	-2.232532e+01	-1.104689e+03
5.400000e-07	-3.023635e-06	-1.662626e-08	-2.164432e+01	-1.091558e+03
5.500000e-07	-2.927491e-06	-1.641463e-08	-2.095609e+01	-1.077844e+03
5.600000e-07	-2.830156e-06	-1.619439e-08	-2.025933e+01	-1.063510e+03
5.700000e-07	-2.731515e-06	-1.596531e-08	-1.955322e+01	-1.048523e+03
5.800000e-07	-2.631743e-06	-1.572416e-08	-1.883902e+01	-1.032853e+03
5.900000e-07	-2.531091e-06	-1.547410e-08	-1.811851e+01	-1.016473e+03
6.000000e-07	-2.429567e-06	-1.520700e-08	-1.739176e+01	-9.993527e+02
6.100000e-07	-2.327151e-06	-1.492901e-08	-1.665862e+01	-9.814560e+02
6.200000e-07	-2.223915e-06	-1.464260e-08	-1.591962e+01	-9.627364e+02
6.300000e-07	-2.119897e-06	-1.434650e-08	-1.517502e+01	-9.431355e+02
6.400000e-07	-2.015099e-06	-1.403530e-08	-1.442484e+01	-9.225819e+02
6.500000e-07	-1.909455e-06	-1.370569e-08	-1.366860e+01	-9.009935e+02
6.600000e-07	-1.802965e-06	-1.335575e-08	-1.290631e+01	-8.782804e+02
6.700000e-07	-1.695739e-06	-1.298404e-08	-1.213874e+01	-8.543484e+02
6.800000e-07	-1.587908e-06	-1.259413e-08	-1.136684e+01	-8.291023e+02
6.900000e-07	-1.479642e-06	-1.218497e-08	-1.059184e+01	-8.024478e+02
7.000000e-07	-1.371012e-06	-1.175609e-08	-9.814223e+00	-7.742926e+02
7.100000e-07	-1.261936e-06	-1.130325e-08	-9.033415e+00	-7.445465e+02
7.200000e-07	-1.152385e-06	-1.082390e-08	-8.249205e+00	-7.131236e+02
7.300000e-07	-1.042497e-06	-1.031514e-08	-7.462585e+00	-6.799463e+02
7.400000e-07	-9.323519e-07	-9.779990e-09	-6.674127e+00	-6.449533e+02
7.500000e-07	-8.219351e-07	-9.219930e-09	-5.883722e+00	-6.081109e+02
7.600000e-07	-7.112050e-07	-8.632399e-09	-5.091075e+00	-5.694271e+02
7.700000e-07	-6.001645e-07	-8.014263e-09	-4.296205e+00	-5.289656e+02
7.800000e-07	-4.889409e-07	-7.368021e-09	-3.500024e+00	-4.868562e+02
7.900000e-07	-3.776068e-07	-6.701878e-09	-2.703052e+00	-4.432975e+02
8.000000e-07	-2.661551e-07	-6.018684e-09	-1.905239e+00	-3.985496e+02
8.100000e-07	-1.546219e-07	-5.323784e-09	-1.106842e+00	-3.529148e+02
8.200000e-07	-4.300856e-08	-4.623618e-09	-3.078716e-01	-3.067077e+02
8.300000e-07	6.868437e-08	-3.920927e-09	4.916687e-01	-2.602184e+02
8.400000e-07	1.803652e-07	-3.215873e-09	1.291123e+00	-2.136739e+02
8.500000e-07	2.919859e-07	-2.509903e-09	2.090146e+00	-1.672057e+02
8.600000e-07	4.035183e-07	-1.801490e-09	2.888537e+00	-1.208294e+02
8.700000e-07	5.149568e-07	-1.091759e-09	3.686255e+00	-7.444232e+01
8.800000e-07	6.262417e-07	-3.792545e-10	4.482875e+00	-2.784088e+01
8.900000e-07	7.373332e-07	3.385470e-10	5.278110e+00	1.924290e+01
9.000000e-07	8.482003e-07	1.065438e-09	6.071738e+00	6.709131e+01
9.100000e-07	9.588048e-07	1.807064e-09	6.863487e+00	1.159447e+02
9.200000e-07	1.069130e-06	2.565269e-09	7.653236e+00	1.659483e+02
9.300000e-07	1.179111e-06	3.343778e-09	8.440525e+00	2.171116e+02
9.400000e-07	1.288682e-06	4.140089e-09	9.224874e+00	2.692866e+02
9.500000e-07	1.397793e-06	4.948341e-09	1.000593e+01	3.221697e+02
9.600000e-07	1.506471e-06	5.762063e-09	1.078389e+01	3.753256e+02
9.700000e-07	1.614696e-06	6.571673e-09	1.155861e+01	4.282299e+02
9.800000e-07	1.722381e-06	7.367901e-09	1.232945e+01	4.803234e+02
9.900000e-07	1.829416e-06	8.138871e-09	1.309565e+01	5.310674e+02
1.000000e-06	1.935677e-06	8.878082e-09	1.385631e+01	5.799933e+02
1.010000e-06	2.041090e-06	9.582805e-09	1.461089e+01	6.267390e+02
1.020000e-06	2.145591e-06	1.025374e-08	1.535895e+01	6.710669e+02
1.030000e-06	2.249220e-06	1.088761e-08	1.610077e+01	7.128650e+02
1.040000e-06	2.352061e-06	1.148225e-08	1.683694e+01	7.521314e+02
1.050000e-06	2.454069e-06	1.204152e-08	1.756715e+01	7.889491e+02
1.060000e-06	2.555187e-06	1.256688e-08	1.829100e+01	8.234562e+02
1.070000e-06	2.655505e-06	1.305736e-08	1.900911e+01	8.558165e+02
1.080000e-06	2.755034e-06	1.351679e-08	1.972158e+01	8.861969e+02
1.090000e-06	2.853548e-06	1.394980e-08	2.042677e+01	9.147523e+02
1.100000e-06	2.950867e-06	1.436017e-08	2.112342e+01	9.416187e+02
1.110000e-06	3.046992e-06	1.474602e-08	2.181152e+01	9.669136e+02
1.120000e-06	3.142023e-06	1.510889e-08	2.249179e+01	9.907405e+02
1.130000e-06	3.235955e-06	1.545138e-08	2.316419e+01	1.013194e+03
1.140000e-06	3.328817e-06	1.577381e-08	2.382893e+01	1.034367e+03
1.150000e-06	3.420709e-06	1.607605e-08	2.448673e+01	1.054348e+03
1.160000e-06	3.511444e-06	1.636019e-08	2.513624e+01	1.073226e+03
1.170000e-06	3.600744e-06	1.663215e-08	2.577549e+01	1.091085e+03
1.180000e-06	3.688614e-06	1.689117e-08	2.640449e+01	1.108002e+03
1.190000e-06	3.775249e-06	1.713653e-08	2.702466e+01	1.124047e+03
1.200000e-06	3.860701e-06	1.736773e-08	2.763636e+01	1.139276e+03
1.210000e-06	3.944963e-06	1.758502e-08	2.823954e+01	1.153737e+03
1.220000e-06	4.027938e-06	1.779106e-08	2.883350e+01	1.167473e+03
1.230000e-06	4.109390e-06	1.798882e-08	2.941657e+01	1.180518e+03
1.240000e-06	4.189214e-06	1.817639e-08	2.998798e+01	1.192909e+03
1.250000e-06	4.267508e-06	1.835598e-08	3.054844e+01	1.204679e+03
1.260000e-06	4.344326e-06	1.852696e-08	3.109833e+01	1.215862e+03
1.270000e-06	4.419489e-06	1.869008e-08	3.163637e+01	1.226489e+03
1.280000e-06	4.492832e-06	1.884535e-08	3.216139e+01	1.236587e+03
1.290000e-06	4.564413e-06	1.899205e-08	3.267380e+01	1.246177e+03
1.300000e-06	4.634317e-06	1.912987e-08	3.317419e+01	1.255276e+03
1.310000e-06	4.702614e-06	1.926075e-08	3.366309e+01	1.263893e+03
1.320000e-06	4.769251e-06	1.938682e-08	3.414010e+01	1.272038e+03
1.330000e-06	4.834043e-06	1.950539e-08	3.460390e+01	1.279720e+03
1.340000e-06	4.897087e-06	1.961589e-08	3.505520e+01	1.286952e+03
1.350000e-06	4.958506e-06	1.971834e-08	3.549486e+01	1.293755e+03
1.360000e-06	5.018368e-06	1.981439e-08	3.592337e+01	1.300157e+03
1.370000e-06	5.076386e-06	1.990650e-08	3.633869e+01	1.306193e+03
1.380000e-06	5.132362e-06	1.999395e-08	3.673939e+01	1.311899e+03
1.390000e-06	5.186537e-06	2.007462e-08	3.712719e+01	1.317312e+03
1.400000e-06	5.238807e-06	2.015042e-08	3.750136e+01	1.322462e+03
1.410000e-06	5.288837e-06	2.022480e-08	3.785950e+01	1.327371e+03
1.420000e-06	5.336702e-06	2.029783e-08	3.820213e+01	1.332052e+03
1.430000e-06	5.382682e-06	2.036767e-08	3.853127e+01	1.336506e+03
1.440000e-06	5.426921e-06	2.043280e-08	3.884795e+01	1.340730e+03
1.450000e-06	5.469258e-06	2.049260e-08	3.915102e+01	1.344714e+03
1.460000e-06	5.509551e-06	2.054780e-08	3.943945e+01	1.348449e+03
1.470000e-06	5.547986e-06	2.059953e-08	3.971458e+01	1.351930e+03
1.480000e-06	5.584655e-06	2.064817e-08	3.997707e+01	1.355157e+03
1.490000e-06	5.619374e-06	2.069335e-08	4.022560e+01	1.358134e+03
1.500000e-06	5.651925e-06	2.073455e-08	4.045862e+01	1.360872e+03
1.510000e-06	5.682438e-06	2.077198e-08	4.067704e+01	1.363381e+03
1.520000e-06	5.711130e-06	2.080690e-08	4.088243e+01	1.365675e+03
1.530000e-06	5.737776e-06	2.083937e-08	4.107317e+01	1.367762e+03
1.540000e-06	5.762160e-06	2.086678e-08	4.124772e+01	1.369650e+03
1.550000e-06	5.784461e-06	2.088953e-08	4.140736e+01	1.371343e+03
1.560000e-06	5.804862e-06	2.091057e-08	4.155340e+01	1.372842e+03
1.570000e-06	5.823349e-06	2.093052e-08	4.168574e+01	1.374147e+03
1.580000e-06	5.839659e-06	2.094774e-08	4.180249e+01	1.375260e+03
1.590000e-06	5.853725e-06	2.096176e-08	4.190318e+01	1.376185e+03
1.600000e-06	5.865589e-06	2.097339e-08	4.198810e+01	1.376928e+03
1.610000e-06	5.875137e-06	2.098285e-08	4.205645e+01	1.377497e+03
1.620000e-06	5.882413e-06	2.098998e-08	4.210854e+01	1.377903e+03
1.630000e-06	5.887637e-06	2.099509e-08	4.214593e+01	1.378157e+03
1.640000e-06	5.890841e-06	2.099785e-08	4.216887e+01	1.378265e+03
1.650000e-06	5.891879e-06	2.100100e-08	4.217630e+01	1.378235e+03
1.660000e-06	5.890828e-06	2.099781e-08	4.216878e+01	1.378067e+03
1.670000e-06	5.887952e-06	2.098742e-08	4.214819e+01	1.377760e+03
1.680000e-06	5.883269e-06	2.098227e-08	4.211467e+01	1.377309e+03
1.690000e-06	5.876519e-06	2.097495e-08	4.206634e+01	1.376707e+03
1.700000e-06	5.867762e-06	2.096349e-08	4.200366e+01	1.375948e+03
1.710000e-06	5.857248e-06	2.095276e-08	4.192839e+01	1.375028e+03
1.720000e-06	5.844728e-06	2.094918e-08	4.183877e+01	1.373948e+03
1.730000e-06	5.830028e-06	2.095050e-08	4.173354e+01	1.372709e+03
1.740000e-06	5.813392e-06	2.084106e-08	4.161446e+01	1.371321e+03
1.750000e-06	5.794588e-06	2.077737e-08	4.147985e+01	1.369794e+03
1.760000e-06	5.772940e-06	2.082488e-08	4.132488e+01	1.368141e+03
1.770000e-06	5.748515e-06	2.079274e-08	4.115005e+01	1.366375e+03
1.780000e-06	5.722139e-06	2.085469e-08	4.096123e+01	1.364507e+03
1.790000e-06	5.694653e-06	2.088197e-08	4.076448e+01	1.362539e+03
1.800000e-06	5.666256e-06	2.062621e-08	4.056121e+01	1.360472e+03
1.810000e-06	5.635816e-06	2.069147e-08	4.034330e+01	1.358293e+03
1.820000e-06	5.603004e-06	2.069857e-08	4.010842e+01	1.355988e+03
1.830000e-06	5.568561e-06	2.050246e-08	3.986186e+01	1.353534e+03
1.840000e-06	5.532108e-06	2.069605e-08	3.960092e+01	1.350907e+03
1.850000e-06	5.493404e-06	2.056380e-08	3.932387e+01	1.348085e+03
1.860000e-06	5.452784e-06	2.039695e-08	3.903309e+01	1.345049e+03
1.870000e-06	5.410251e-06	2.051968e-08	3.872862e+01	1.341789e+03
1.880000e-06	5.366083e-06	2.034167e-08	3.841245e+01	1.338301e+03
1.890000e-06	5.320026e-06	2.034678e-08	3.808276e+01	1.334592e+03
1.900000e-06	5.271670e-06	2.029643e-08	3.773661e+01	1.330673e+03
1.910000e-06	5.221266e-06	2.011751e-08	3.737580e+01	1.326558e+03
1.920000e-06	5.168666e-06	2.021358e-08	3.699927e+01	1.322258e+03
1.930000e-06	5.113976e-06	2.007098e-08	3.660777e+01	1.317780e+03
1.940000e-06	5.057452e-06	2.002395e-08	3.620315e+01	1.313126e+03
1.950000e-06	4.999069e-06	1.996941e-08	3.578523e+01	1.308285e+03
1.960000e-06	4.938966e-06	1.983744e-08	3.535499e+01	1.303244e+03
1.970000e-06	4.876970e-06	1.982156e-08	3.491119e+01	1.297983e+03
1.980000e-06	4.813025e-06	1.963725e-08	3.445345e+01	1.292481e+03
1.990000e-06	4.747303e-06	1.961683e-08	3.398299e+01	1.286722e+03
2.000000e-06	4.679956e-06	1.955022e-08	3.350089e+01	1.280692e+03
2.010000e-06	4.610975e-06	1.941976e-08	3.300710e+01	1.274386e+03
2.020000e-06	4.540106e-06	1.935256e-08	3.249980e+01	1.267801e+03
2.030000e-06	4.467550e-06	1.917624e-08	3.198041e+01	1.260940e+03
2.040000e-06	4.393460e-06	1.912776e-08	3.145005e+01	1.253805e+03
2.050000e-06	4.317763e-06	1.900708e-08	3.090818e+01	1.246394e+03
2.060000e-06	4.240320e-06	1.888736e-08	3.035382e+01	1.238701e+03
2.070000e-06	4.161171e-06	1.878689e-08	2.978724e+01	1.230717e+03
2.080000e-06	4.080561e-06	1.863208e-08	2.921020e+01	1.222423e+03
2.090000e-06	3.998487e-06	1.851406e-08	2.862268e+01	1.213803e+03
2.100000e-06	3.915090e-06	1.834638e-08	2.802570e+01	1.204838e+03
2.110000e-06	3.830411e-06	1.823387e-08	2.741953e+01	1.195510e+03
2.120000e-06	3.744294e-06	1.808928e-08	2.680308e+01	1.185806e+03
2.130000e-06	3.656741e-06	1.793787e-08	2.617634e+01	1.175715e+03
2.140000e-06	3.567860e-06	1.778232e-08	2.554009e+01	1.165224e+03
2.150000e-06	3.477781e-06	1.760469e-08	2.489527e+01	1.154321e+03
2.160000e-06	3.386540e-06	1.744271e-08	2.424213e+01	1.142987e+03
2.170000e-06	3.294200e-06	1.725661e-08	2.358113e+01	1.131199e+03
2.180000e-06	3.200660e-06	1.707845e-08	2.291153e+01	1.118924e+03
2.190000e-06	3.105738e-06	1.687943e-08	2.223204e+01	1.106128e+03
2.200000e-06	3.009599e-06	1.668048e-08	2.154385e+01	1.092772e+03
2.210000e-06	2.912457e-06	1.646855e-08	2.084847e+01	1.078818e+03
2.220000e-06	2.814291e-06	1.624958e-08	2.014576e+01	1.064230e+03
2.230000e-06	2.715174e-06	1.602206e-08	1.943624e+01	1.048977e+03
2.240000e-06	2.615223e-06	1.577880e-08	1.872075e+01	1.033031e+03
2.250000e-06	2.514301e-06	1.553189e-08	1.799832e+01	1.016364e+03
2.260000e-06	2.412343e-06	1.526457e-08	1.726847e+01	9.989422e+02
2.270000e-06	2.309364e-06	1.498451e-08	1.653130e+01	9.807276e+02
2.280000e-06	2.205410e-06	1.469057e-08	1.578716e+01	9.616687e+02
2.290000e-06	2.100677e-06	1.439007e-08	1.503744e+01	9.417018e+02
2.300000e-06	1.995253e-06	1.407206e-08	1.428277e+01	9.207513e+02
2.310000e-06	1.889180e-06	1.374026e-08	1.352346e+01	8.987312e+02
2.320000e-06	1.782547e-06	1.339189e-08	1.276015e+01	8.755498e+02
2.330000e-06	1.675376e-06	1.302250e-08	1.199298e+01	8.511121e+02
2.340000e-06	1.567704e-06	1.262830e-08	1.122222e+01	8.253231e+02
2.350000e-06	1.459563e-06	1.220907e-08	1.044810e+01	7.980892e+02
2.360000e-06	1.350977e-06	1.177340e-08	9.670802e+00	7.693187e+02
2.370000e-06	1.242027e-06	1.131596e-08	8.890897e+00	7.389230e+02
2.380000e-06	1.132719e-06	1.083219e-08	8.108433e+00	7.068187e+02
2.390000e-06	1.023033e-06	1.031497e-08	7.323255e+00	6.729334e+02
2.400000e-06	9.129796e-07	9.767048e-09	6.535453e+00	6.372151e+02
2.410000e-06	8.025547e-07	9.190263e-09	5.744990e+00	5.996447e+02
2.420000e-06	6.918291e-07	8.588581e-09	4.952374e+00	5.602506e+02
2.430000e-06	5.808497e-07	7.963343e-09	4.157942e+00	5.191216e+02
2.440000e-06	4.696695e-07	7.316341e-09	3.362072e+00	4.764147e+02
2.450000e-06	3.583836e-07	6.648555e-09	2.565446e+00	4.323541e+02
2.460000e-06	2.469486e-07	5.958135e-09	1.767751e+00	3.872195e+02
2.470000e-06	1.353488e-07	5.253479e-09	9.688780e-01	3.413221e+02
2.480000e-06	2.364729e-08	4.541040e-09	1.692762e-01	2.949714e+02
2.490000e-06	-8.810744e-08	3.827243e-09	-6.307064e-01	2.484372e+02
2.500000e-06	-1.997568e-07	3.115794e-09	-1.429935e+00	2.019123e+02
2.510000e-06	-3.113083e-07	2.407853e-09	-2.228462e+00	1.554843e+02
2.520000e-06	-4.228097e-07	1.701252e-09	-3.026631e+00	1.091214e+02
2.530000e-06	-5.340845e-07	9.909926e-10	-3.823179e+00	6.267813e+01
2.540000e-06	-6.451000e-07	2.760364e-10	-4.617870e+00	1.592038e+01
2.550000e-06	-7.558280e-07	-4.480206e-10	-5.410503e+00	-3.143197e+01
2.560000e-06	-8.661972e-07	-1.183385e-09	-6.200567e+00	-7.965149e+01
2.570000e-06	-9.762846e-07	-1.935194e-09	-6.988615e+00	-1.289470e+02
2.580000e-06	-1.086040e-06	-2.707158e-09	-7.774285e+00	-1.794143e+02
2.590000e-06	-1.195424e-06	-3.495222e-09	-8.557301e+00	-2.310024e+02
2.600000e-06	-1.304437e-06	-4.296907e-09	-9.337657e+00	-2.835007e+02
2.610000e-06	-1.412992e-06	-5.106028e-09	-1.011473e+01	-3.365497e+02
2.620000e-06	-1.521044e-06	-5.914799e-09	-1.088821e+01	-3.896733e+02
2.630000e-06	-1.628599e-06	-6.716092e-09	-1.165813e+01	-4.423267e+02
2.640000e-06	-1.735632e-06	-7.502522e-09	-1.242431e+01	-4.939521e+02
2.650000e-06	-1.842054e-06	-8.268975e-09	-1.318612e+01	-5.440332e+02
2.660000e-06	-1.947792e-06	-9.008278e-09	-1.394303e+01	-5.921399e+02
2.670000e-06	-2.052818e-06	-9.714869e-09	-1.469485e+01	-6.379578e+02
2.680000e-06	-2.157139e-06	-1.038273e-08	-1.544162e+01	-6.812994e+02
2.690000e-06	-2.260708e-06	-1.100747e-08	-1.618300e+01	-7.220986e+02
2.700000e-06	-2.363382e-06	-1.159319e-08	-1.691798e+01	-7.603902e+02
2.710000e-06	-2.465010e-06	-1.214501e-08	-1.764548e+01	-7.962824e+02
2.720000e-06	-2.565587e-06	-1.266133e-08	-1.836544e+01	-8.299268e+02
2.730000e-06	-2.665219e-06	-1.314296e-08	-1.907864e+01	-8.614906e+02
2.740000e-06	-2.764006e-06	-1.359634e-08	-1.978580e+01	-8.911373e+02
2.750000e-06	-2.861881e-06	-1.402297e-08	-2.048643e+01	-9.190148e+02
2.760000e-06	-2.958785e-06	-1.442454e-08	-2.118010e+01	-9.452515e+02
2.770000e-06	-3.054785e-06	-1.480497e-08	-2.186730e+01	-9.699588e+02
2.780000e-06	-3.149800e-06	-1.516467e-08	-2.254746e+01	-9.932361e+02
2.790000e-06	-3.243617e-06	-1.550105e-08	-2.321904e+01	-1.015177e+03
2.800000e-06	-3.336132e-06	-1.581574e-08	-2.388129e+01	-1.035871e+03
2.810000e-06	-3.427412e-06	-1.611302e-08	-2.453471e+01	-1.055409e+03
2.820000e-06	-3.517457e-06	-1.639464e-08	-2.517929e+01	-1.073878e+03
2.830000e-06	-3.606274e-06	-1.666009e-08	-2.581507e+01	-1.091359e+03
2.840000e-06	-3.693939e-06	-1.691270e-08	-2.644262e+01	-1.107927e+03
2.850000e-06	-3.780297e-06	-1.715555e-08	-2.706080e+01	-1.123645e+03
2.860000e-06	-3.865167e-06	-1.738785e-08	-2.766833e+01	-1.138568e+03
2.870000e-06	-3.948648e-06	-1.760885e-08	-2.826592e+01	-1.152741e+03
2.880000e-06	-4.030822e-06	-1.781758e-08	-2.885415e+01	-1.166201e+03
2.890000e-06	-4.111639e-06	-1.801419e-08	-2.943267e+01	-1.178987e+03
2.900000e-06	-4.190971e-06	-1.819814e-08	-3.000055e+01	-1.191130e+03
2.910000e-06	-4.268516e-06	-1.837059e-08	-3.055565e+01	-1.202667e+03
2.920000e-06	-4.344270e-06	-1.853416e-08	-3.109793e+01	-1.213628e+03
2.930000e-06	-4.418434e-06	-1.869191e-08	-3.162882e+01	-1.224045e+03
2.940000e-06	-4.491022e-06	-1.884374e-08	-3.214844e+01	-1.233942e+03
