# Temperatura_=_46.47
# Concentracion g/m^3_=_28200.0
# C_Vs_to_Am_M_A/Vsm_=_65563218390.804596
# pendiente_HvsI_1/m_=_3716.3
# ordenada_HvsI_A/m_=_1297.0
# frecuencia_Hz_=_301921.3823791336

Tiempo_(s)	Campo_(V.s)	Magnetizacion_(V.s)	Campo_(kA/m)	Magnetizacion_(A/m)
0.000000e+00	-5.883943e-06	-2.119944e-08	-4.194774e+01	-1.388794e+03
1.000000e-08	-5.882058e-06	-2.119653e-08	-4.193430e+01	-1.388532e+03
2.000000e-08	-5.878084e-06	-2.119025e-08	-4.190597e+01	-1.388130e+03
3.000000e-08	-5.872305e-06	-2.118190e-08	-4.186477e+01	-1.387583e+03
4.000000e-08	-5.864799e-06	-2.117125e-08	-4.181126e+01	-1.386890e+03
5.000000e-08	-5.855317e-06	-2.115734e-08	-4.174366e+01	-1.386046e+03
6.000000e-08	-5.843638e-06	-2.114011e-08	-4.166040e+01	-1.385050e+03
7.000000e-08	-5.829819e-06	-2.111991e-08	-4.156188e+01	-1.383901e+03
8.000000e-08	-5.813804e-06	-2.110201e-08	-4.144771e+01	-1.382600e+03
9.000000e-08	-5.795616e-06	-2.110941e-08	-4.131804e+01	-1.381152e+03
1.000000e-07	-5.775362e-06	-2.110578e-08	-4.117364e+01	-1.379564e+03
1.100000e-07	-5.752959e-06	-2.105758e-08	-4.101394e+01	-1.377843e+03
1.200000e-07	-5.728323e-06	-2.101366e-08	-4.083830e+01	-1.375998e+03
1.300000e-07	-5.701600e-06	-2.097122e-08	-4.064779e+01	-1.374036e+03
1.400000e-07	-5.673250e-06	-2.088464e-08	-4.044567e+01	-1.371959e+03
1.500000e-07	-5.643401e-06	-2.088135e-08	-4.023287e+01	-1.369764e+03
1.600000e-07	-5.611802e-06	-2.089697e-08	-4.000760e+01	-1.367444e+03
1.700000e-07	-5.578369e-06	-2.082596e-08	-3.976925e+01	-1.364986e+03
1.800000e-07	-5.543068e-06	-2.082467e-08	-3.951758e+01	-1.362370e+03
1.900000e-07	-5.505828e-06	-2.079162e-08	-3.925209e+01	-1.359577e+03
2.000000e-07	-5.466711e-06	-2.069468e-08	-3.897321e+01	-1.356588e+03
2.100000e-07	-5.425684e-06	-2.066801e-08	-3.868072e+01	-1.353390e+03
2.200000e-07	-5.382520e-06	-2.061815e-08	-3.837300e+01	-1.349973e+03
2.300000e-07	-5.337253e-06	-2.054205e-08	-3.805028e+01	-1.346339e+03
2.400000e-07	-5.289950e-06	-2.049355e-08	-3.771305e+01	-1.342492e+03
2.500000e-07	-5.240386e-06	-2.043129e-08	-3.735970e+01	-1.338442e+03
2.600000e-07	-5.188477e-06	-2.037141e-08	-3.698963e+01	-1.334202e+03
2.700000e-07	-5.134474e-06	-2.029386e-08	-3.660464e+01	-1.329779e+03
2.800000e-07	-5.078629e-06	-2.022006e-08	-3.620651e+01	-1.325177e+03
2.900000e-07	-5.020879e-06	-2.015093e-08	-3.579479e+01	-1.320391e+03
3.000000e-07	-4.961215e-06	-2.007011e-08	-3.536944e+01	-1.315408e+03
3.100000e-07	-4.899754e-06	-1.999481e-08	-3.493127e+01	-1.310211e+03
3.200000e-07	-4.836491e-06	-1.991326e-08	-3.448026e+01	-1.304780e+03
3.300000e-07	-4.771452e-06	-1.982752e-08	-3.401658e+01	-1.299093e+03
3.400000e-07	-4.704550e-06	-1.972872e-08	-3.353963e+01	-1.293136e+03
3.500000e-07	-4.635920e-06	-1.962632e-08	-3.305035e+01	-1.286898e+03
3.600000e-07	-4.565718e-06	-1.953165e-08	-3.254986e+01	-1.280375e+03
3.700000e-07	-4.493975e-06	-1.943387e-08	-3.203840e+01	-1.273570e+03
3.800000e-07	-4.420569e-06	-1.933540e-08	-3.151507e+01	-1.266485e+03
3.900000e-07	-4.345224e-06	-1.922194e-08	-3.097792e+01	-1.259123e+03
4.000000e-07	-4.268111e-06	-1.909436e-08	-3.042817e+01	-1.251483e+03
4.100000e-07	-4.189363e-06	-1.896677e-08	-2.986676e+01	-1.243558e+03
4.200000e-07	-4.108883e-06	-1.883538e-08	-2.929301e+01	-1.235335e+03
4.300000e-07	-4.026961e-06	-1.870771e-08	-2.870897e+01	-1.226797e+03
4.400000e-07	-3.943847e-06	-1.857429e-08	-2.811643e+01	-1.217926e+03
4.500000e-07	-3.859525e-06	-1.843730e-08	-2.751528e+01	-1.208703e+03
4.600000e-07	-3.773996e-06	-1.829091e-08	-2.690553e+01	-1.199110e+03
4.700000e-07	-3.687245e-06	-1.813327e-08	-2.628706e+01	-1.189133e+03
4.800000e-07	-3.599320e-06	-1.797269e-08	-2.566024e+01	-1.178759e+03
4.900000e-07	-3.510076e-06	-1.780596e-08	-2.502399e+01	-1.167974e+03
5.000000e-07	-3.419314e-06	-1.763329e-08	-2.437693e+01	-1.156763e+03
5.100000e-07	-3.327183e-06	-1.745150e-08	-2.372012e+01	-1.145105e+03
5.200000e-07	-3.233948e-06	-1.726511e-08	-2.305542e+01	-1.132973e+03
5.300000e-07	-3.139653e-06	-1.706934e-08	-2.238318e+01	-1.120334e+03
5.400000e-07	-3.044250e-06	-1.686556e-08	-2.170303e+01	-1.107154e+03
5.500000e-07	-2.947671e-06	-1.665469e-08	-2.101450e+01	-1.093394e+03
5.600000e-07	-2.849829e-06	-1.643392e-08	-2.031697e+01	-1.079018e+03
5.700000e-07	-2.750787e-06	-1.620382e-08	-1.961088e+01	-1.063991e+03
5.800000e-07	-2.650718e-06	-1.596183e-08	-1.889747e+01	-1.048283e+03
5.900000e-07	-2.549747e-06	-1.570959e-08	-1.817763e+01	-1.031860e+03
6.000000e-07	-2.447913e-06	-1.544438e-08	-1.745164e+01	-1.014690e+03
6.100000e-07	-2.345275e-06	-1.516821e-08	-1.671991e+01	-9.967330e+02
6.200000e-07	-2.241785e-06	-1.488172e-08	-1.598211e+01	-9.779389e+02
6.300000e-07	-2.137369e-06	-1.458273e-08	-1.523771e+01	-9.582479e+02
6.400000e-07	-2.032107e-06	-1.426866e-08	-1.448727e+01	-9.375890e+02
6.500000e-07	-1.926072e-06	-1.393589e-08	-1.373133e+01	-9.158821e+02
6.600000e-07	-1.819262e-06	-1.358338e-08	-1.296986e+01	-8.930408e+02
6.700000e-07	-1.711724e-06	-1.321172e-08	-1.220320e+01	-8.689749e+02
6.800000e-07	-1.603575e-06	-1.282265e-08	-1.143219e+01	-8.435932e+02
6.900000e-07	-1.494983e-06	-1.241251e-08	-1.065801e+01	-8.168036e+02
7.000000e-07	-1.385987e-06	-1.198009e-08	-9.880961e+00	-7.885132e+02
7.100000e-07	-1.276522e-06	-1.152490e-08	-9.100564e+00	-7.586283e+02
7.200000e-07	-1.166566e-06	-1.104333e-08	-8.316670e+00	-7.270554e+02
7.300000e-07	-1.056262e-06	-1.053364e-08	-7.530290e+00	-6.937057e+02
7.400000e-07	-9.457177e-07	-9.995625e-09	-6.742200e+00	-6.585040e+02
7.500000e-07	-8.349500e-07	-9.430127e-09	-5.952516e+00	-6.214014e+02
7.600000e-07	-7.239722e-07	-8.836559e-09	-5.161335e+00	-5.823913e+02
7.700000e-07	-6.126887e-07	-8.211910e-09	-4.367973e+00	-5.415246e+02
7.800000e-07	-5.011340e-07	-7.558359e-09	-3.572679e+00	-4.989213e+02
7.900000e-07	-3.894221e-07	-6.883123e-09	-2.776264e+00	-4.547745e+02
8.000000e-07	-2.775947e-07	-6.190965e-09	-1.979025e+00	-4.093428e+02
8.100000e-07	-1.655568e-07	-5.485708e-09	-1.180286e+00	-3.629301e+02
8.200000e-07	-5.333651e-08	-4.770847e-09	-3.802461e-01	-3.158546e+02
8.300000e-07	5.892685e-08	-4.049509e-09	4.201006e-01	-2.684105e+02
8.400000e-07	1.711557e-07	-3.325271e-09	1.220201e+00	-2.208283e+02
8.500000e-07	2.833164e-07	-2.599438e-09	2.019816e+00	-1.732411e+02
8.600000e-07	3.953704e-07	-1.871226e-09	2.818671e+00	-1.256651e+02
8.700000e-07	5.072493e-07	-1.140520e-09	3.616276e+00	-7.799733e+01
8.800000e-07	6.189480e-07	-4.080016e-10	4.412597e+00	-3.003553e+01
8.900000e-07	7.304032e-07	3.304395e-10	5.207182e+00	1.848377e+01
9.000000e-07	8.416503e-07	1.081668e-09	6.000284e+00	6.783300e+01
9.100000e-07	9.526569e-07	1.849509e-09	6.791671e+00	1.182358e+02
9.200000e-07	1.063382e-06	2.634810e-09	7.581052e+00	1.698138e+02
9.300000e-07	1.173801e-06	3.437590e-09	8.368251e+00	2.225463e+02
9.400000e-07	1.283791e-06	4.255743e-09	9.152388e+00	2.762517e+02
9.500000e-07	1.393324e-06	5.083045e-09	9.933269e+00	3.305915e+02
9.600000e-07	1.502403e-06	5.913160e-09	1.071091e+01	3.850983e+02
9.700000e-07	1.611041e-06	6.738736e-09	1.148542e+01	4.392221e+02
9.800000e-07	1.719168e-06	7.550679e-09	1.225628e+01	4.923864e+02
9.900000e-07	1.826692e-06	8.337600e-09	1.302283e+01	5.440458e+02
1.000000e-06	1.933480e-06	9.089694e-09	1.378414e+01	5.937348e+02
1.010000e-06	2.039411e-06	9.802912e-09	1.453935e+01	6.411031e+02
1.020000e-06	2.144484e-06	1.047825e-08	1.528843e+01	6.859311e+02
1.030000e-06	2.248656e-06	1.111685e-08	1.603110e+01	7.281273e+02
1.040000e-06	2.351944e-06	1.171884e-08	1.676745e+01	7.677106e+02
1.050000e-06	2.454398e-06	1.228396e-08	1.749786e+01	8.047823e+02
1.060000e-06	2.555978e-06	1.281164e-08	1.822205e+01	8.394943e+02
1.070000e-06	2.656737e-06	1.330452e-08	1.894038e+01	8.720204e+02
1.080000e-06	2.756716e-06	1.376611e-08	1.965315e+01	9.025335e+02
1.090000e-06	2.855717e-06	1.420105e-08	2.035895e+01	9.311916e+02
1.100000e-06	2.953580e-06	1.461114e-08	2.105663e+01	9.581332e+02
1.110000e-06	3.050255e-06	1.499783e-08	2.174585e+01	9.834784e+02
1.120000e-06	3.145762e-06	1.536267e-08	2.242673e+01	1.007334e+03
1.130000e-06	3.240184e-06	1.570570e-08	2.309988e+01	1.029801e+03
1.140000e-06	3.333525e-06	1.602810e-08	2.376533e+01	1.050976e+03
1.150000e-06	3.425790e-06	1.633203e-08	2.442311e+01	1.070955e+03
1.160000e-06	3.516969e-06	1.661873e-08	2.507313e+01	1.089831e+03
1.170000e-06	3.606869e-06	1.689053e-08	2.571405e+01	1.107692e+03
1.180000e-06	3.695356e-06	1.714953e-08	2.634489e+01	1.124615e+03
1.190000e-06	3.782546e-06	1.739491e-08	2.696649e+01	1.140668e+03
1.200000e-06	3.868489e-06	1.762561e-08	2.757919e+01	1.155906e+03
1.210000e-06	3.953163e-06	1.784298e-08	2.818284e+01	1.170374e+03
1.220000e-06	4.036535e-06	1.804982e-08	2.877722e+01	1.184110e+03
1.230000e-06	4.118482e-06	1.824691e-08	2.936144e+01	1.197151e+03
1.240000e-06	4.198882e-06	1.843459e-08	2.993462e+01	1.209532e+03
1.250000e-06	4.277750e-06	1.861412e-08	3.049689e+01	1.221288e+03
1.260000e-06	4.355086e-06	1.878546e-08	3.104823e+01	1.232458e+03
1.270000e-06	4.430753e-06	1.894809e-08	3.158767e+01	1.243075e+03
1.280000e-06	4.504575e-06	1.910215e-08	3.211397e+01	1.253171e+03
1.290000e-06	4.576571e-06	1.924914e-08	3.262724e+01	1.262768e+03
1.300000e-06	4.646893e-06	1.938787e-08	3.312858e+01	1.271883e+03
1.310000e-06	4.715645e-06	1.951961e-08	3.361872e+01	1.280525e+03
1.320000e-06	4.782734e-06	1.964602e-08	3.409702e+01	1.288699e+03
1.330000e-06	4.848000e-06	1.976497e-08	3.456231e+01	1.296412e+03
1.340000e-06	4.911485e-06	1.987664e-08	3.501490e+01	1.303675e+03
1.350000e-06	4.973282e-06	1.998104e-08	3.545547e+01	1.310506e+03
1.360000e-06	5.033502e-06	2.007903e-08	3.588479e+01	1.316934e+03
1.370000e-06	5.092006e-06	2.017201e-08	3.630187e+01	1.322992e+03
1.380000e-06	5.148577e-06	2.025993e-08	3.670518e+01	1.328721e+03
1.390000e-06	5.203169e-06	2.034151e-08	3.709438e+01	1.334158e+03
1.400000e-06	5.255793e-06	2.041800e-08	3.746955e+01	1.339338e+03
1.410000e-06	5.306302e-06	2.049319e-08	3.782963e+01	1.344283e+03
1.420000e-06	5.354621e-06	2.056784e-08	3.817410e+01	1.349007e+03
1.430000e-06	5.400976e-06	2.063918e-08	3.850458e+01	1.353511e+03
1.440000e-06	5.445601e-06	2.070554e-08	3.882272e+01	1.357790e+03
1.450000e-06	5.488356e-06	2.076672e-08	3.912753e+01	1.361830e+03
1.460000e-06	5.529004e-06	2.082309e-08	3.941732e+01	1.365621e+03
1.470000e-06	5.567686e-06	2.087497e-08	3.969308e+01	1.369152e+03
1.480000e-06	5.604558e-06	2.092303e-08	3.995595e+01	1.372419e+03
1.490000e-06	5.639500e-06	2.096915e-08	4.020506e+01	1.375427e+03
1.500000e-06	5.672349e-06	2.101240e-08	4.043925e+01	1.378182e+03
1.510000e-06	5.703189e-06	2.105130e-08	4.065911e+01	1.380698e+03
1.520000e-06	5.732135e-06	2.108709e-08	4.086548e+01	1.382987e+03
1.530000e-06	5.759120e-06	2.111984e-08	4.105785e+01	1.385064e+03
1.540000e-06	5.783904e-06	2.114881e-08	4.123454e+01	1.386937e+03
1.550000e-06	5.806490e-06	2.117373e-08	4.139557e+01	1.388616e+03
1.560000e-06	5.827143e-06	2.119442e-08	4.154281e+01	1.390103e+03
1.570000e-06	5.845917e-06	2.121189e-08	4.167664e+01	1.391403e+03
1.580000e-06	5.862512e-06	2.122795e-08	4.179495e+01	1.392517e+03
1.590000e-06	5.876810e-06	2.124304e-08	4.189689e+01	1.393449e+03
1.600000e-06	5.888852e-06	2.125633e-08	4.198274e+01	1.394203e+03
1.610000e-06	5.898494e-06	2.126681e-08	4.205148e+01	1.394786e+03
1.620000e-06	5.905915e-06	2.127451e-08	4.210438e+01	1.395204e+03
1.630000e-06	5.911380e-06	2.127922e-08	4.214335e+01	1.395466e+03
1.640000e-06	5.914805e-06	2.128100e-08	4.216776e+01	1.395577e+03
1.650000e-06	5.916002e-06	2.128263e-08	4.217630e+01	1.395542e+03
1.660000e-06	5.915058e-06	2.128141e-08	4.216957e+01	1.395366e+03
1.670000e-06	5.912288e-06	2.127452e-08	4.214982e+01	1.395048e+03
1.680000e-06	5.907722e-06	2.126679e-08	4.211727e+01	1.394589e+03
1.690000e-06	5.901139e-06	2.125829e-08	4.207033e+01	1.393984e+03
1.700000e-06	5.892550e-06	2.124615e-08	4.200910e+01	1.393231e+03
1.710000e-06	5.882107e-06	2.123267e-08	4.193465e+01	1.392327e+03
1.720000e-06	5.869680e-06	2.122083e-08	4.184605e+01	1.391270e+03
1.730000e-06	5.855151e-06	2.120635e-08	4.174248e+01	1.390060e+03
1.740000e-06	5.838617e-06	2.115139e-08	4.162461e+01	1.388700e+03
1.750000e-06	5.819876e-06	2.110665e-08	4.149100e+01	1.387195e+03
1.760000e-06	5.798395e-06	2.110711e-08	4.133785e+01	1.385553e+03
1.770000e-06	5.774164e-06	2.108867e-08	4.116511e+01	1.383782e+03
1.780000e-06	5.747921e-06	2.109993e-08	4.097801e+01	1.381889e+03
1.790000e-06	5.720460e-06	2.109899e-08	4.078224e+01	1.379881e+03
1.800000e-06	5.691960e-06	2.098920e-08	4.057906e+01	1.377757e+03
1.810000e-06	5.661568e-06	2.095530e-08	4.036239e+01	1.375514e+03
1.820000e-06	5.628857e-06	2.093786e-08	4.012919e+01	1.373141e+03
1.830000e-06	5.594375e-06	2.086438e-08	3.988335e+01	1.370622e+03
1.840000e-06	5.557984e-06	2.087932e-08	3.962392e+01	1.367938e+03
1.850000e-06	5.519401e-06	2.081000e-08	3.934885e+01	1.365069e+03
1.860000e-06	5.478838e-06	2.071157e-08	3.905967e+01	1.361999e+03
1.870000e-06	5.436410e-06	2.071213e-08	3.875719e+01	1.358714e+03
1.880000e-06	5.392288e-06	2.064150e-08	3.844264e+01	1.355211e+03
1.890000e-06	5.346256e-06	2.058077e-08	3.811447e+01	1.351491e+03
1.900000e-06	5.297974e-06	2.051845e-08	3.777026e+01	1.347562e+03
1.910000e-06	5.247593e-06	2.043983e-08	3.741109e+01	1.343436e+03
1.920000e-06	5.195001e-06	2.042670e-08	3.703614e+01	1.339122e+03
1.930000e-06	5.140236e-06	2.033534e-08	3.664571e+01	1.334628e+03
1.940000e-06	5.083588e-06	2.026657e-08	3.624186e+01	1.329954e+03
1.950000e-06	5.025127e-06	2.020653e-08	3.582508e+01	1.325091e+03
1.960000e-06	4.964920e-06	2.010354e-08	3.539585e+01	1.320026e+03
1.970000e-06	4.902755e-06	2.003296e-08	3.495266e+01	1.314739e+03
1.980000e-06	4.838624e-06	1.992710e-08	3.449547e+01	1.309208e+03
1.990000e-06	4.772783e-06	1.986123e-08	3.402607e+01	1.303416e+03
2.000000e-06	4.705341e-06	1.978932e-08	3.354527e+01	1.297348e+03
2.010000e-06	4.636239e-06	1.967102e-08	3.305262e+01	1.290998e+03
2.020000e-06	4.565211e-06	1.956807e-08	3.254625e+01	1.284363e+03
2.030000e-06	4.492436e-06	1.944522e-08	3.202743e+01	1.277447e+03
2.040000e-06	4.418084e-06	1.935155e-08	3.149736e+01	1.270252e+03
2.050000e-06	4.342061e-06	1.924549e-08	3.095537e+01	1.262781e+03
2.060000e-06	4.264332e-06	1.913223e-08	3.040123e+01	1.255029e+03
2.070000e-06	4.184938e-06	1.902160e-08	2.983522e+01	1.246988e+03
2.080000e-06	4.104095e-06	1.887916e-08	2.925887e+01	1.238642e+03
2.090000e-06	4.021878e-06	1.874268e-08	2.867273e+01	1.229976e+03
2.100000e-06	3.938308e-06	1.859844e-08	2.807695e+01	1.220967e+03
2.110000e-06	3.853375e-06	1.846513e-08	2.747144e+01	1.211600e+03
2.120000e-06	3.766955e-06	1.832399e-08	2.685534e+01	1.201857e+03
2.130000e-06	3.679122e-06	1.817219e-08	2.622916e+01	1.191724e+03
2.140000e-06	3.590038e-06	1.801715e-08	2.559406e+01	1.181190e+03
2.150000e-06	3.499771e-06	1.784510e-08	2.495053e+01	1.170239e+03
2.160000e-06	3.408351e-06	1.767279e-08	2.429878e+01	1.158854e+03
2.170000e-06	3.315812e-06	1.749463e-08	2.363905e+01	1.147013e+03
2.180000e-06	3.222040e-06	1.731178e-08	2.297053e+01	1.134685e+03
2.190000e-06	3.126881e-06	1.711734e-08	2.229212e+01	1.121837e+03
2.200000e-06	3.030503e-06	1.691475e-08	2.160503e+01	1.108433e+03
2.210000e-06	2.933118e-06	1.670270e-08	2.091075e+01	1.094434e+03
2.220000e-06	2.834751e-06	1.647767e-08	2.020947e+01	1.079805e+03
2.230000e-06	2.735383e-06	1.624587e-08	1.950106e+01	1.064514e+03
2.240000e-06	2.635019e-06	1.600715e-08	1.878555e+01	1.048528e+03
2.250000e-06	2.533640e-06	1.576160e-08	1.806280e+01	1.031815e+03
2.260000e-06	2.431257e-06	1.549711e-08	1.733289e+01	1.014340e+03
2.270000e-06	2.327902e-06	1.521378e-08	1.659606e+01	9.960597e+02
2.280000e-06	2.223640e-06	1.491746e-08	1.585275e+01	9.769202e+02
2.290000e-06	2.118534e-06	1.461196e-08	1.510343e+01	9.568572e+02
2.300000e-06	2.012653e-06	1.429263e-08	1.434859e+01	9.357957e+02
2.310000e-06	1.906158e-06	1.395805e-08	1.358936e+01	9.136529e+02
2.320000e-06	1.799182e-06	1.360836e-08	1.282671e+01	8.903405e+02
2.330000e-06	1.691730e-06	1.323695e-08	1.206066e+01	8.657678e+02
2.340000e-06	1.583685e-06	1.284084e-08	1.129039e+01	8.398431e+02
2.350000e-06	1.475070e-06	1.242183e-08	1.051605e+01	8.124742e+02
2.360000e-06	1.366060e-06	1.198380e-08	9.738901e+00	7.835679e+02
2.370000e-06	1.256722e-06	1.152353e-08	8.959412e+00	7.530300e+02
2.380000e-06	1.146999e-06	1.103532e-08	8.177174e+00	7.207683e+02
2.390000e-06	1.036915e-06	1.051404e-08	7.392363e+00	6.866980e+02
2.400000e-06	9.264448e-07	9.960785e-09	6.604800e+00	6.507526e+02
2.410000e-06	8.156025e-07	9.379139e-09	5.814584e+00	6.128977e+02
2.420000e-06	7.044845e-07	8.772888e-09	5.022403e+00	5.731477e+02
2.430000e-06	5.930402e-07	8.143851e-09	4.227896e+00	5.315795e+02
2.440000e-06	4.813512e-07	7.489817e-09	3.431644e+00	4.883420e+02
2.450000e-06	3.695300e-07	6.809556e-09	2.634450e+00	4.436557e+02
2.460000e-06	2.575746e-07	6.106377e-09	1.836298e+00	3.977999e+02
2.470000e-06	1.454383e-07	5.388971e-09	1.036857e+00	3.510885e+02
2.480000e-06	3.318248e-08	4.664399e-09	2.365642e-01	3.038349e+02
2.490000e-06	-7.910939e-08	3.936795e-09	-5.639858e-01	2.563130e+02
2.500000e-06	-1.913508e-07	3.211302e-09	-1.364176e+00	2.087184e+02
2.510000e-06	-3.034363e-07	2.489269e-09	-2.163255e+00	1.611396e+02
2.520000e-06	-4.153742e-07	1.765802e-09	-2.961281e+00	1.135451e+02
2.530000e-06	-5.271384e-07	1.036609e-09	-3.758069e+00	6.578958e+01
2.540000e-06	-6.386739e-07	3.011937e-10	-4.553227e+00	1.764110e+01
2.550000e-06	-7.499911e-07	-4.443994e-10	-5.346829e+00	-3.117400e+01
2.560000e-06	-8.610371e-07	-1.204509e-09	-6.138496e+00	-8.091587e+01
2.570000e-06	-9.716992e-07	-1.980813e-09	-6.927428e+00	-1.317739e+02
2.580000e-06	-1.081933e-06	-2.774685e-09	-7.713305e+00	-1.838174e+02
2.590000e-06	-1.191727e-06	-3.585330e-09	-8.496049e+00	-2.369637e+02
2.600000e-06	-1.301127e-06	-4.411192e-09	-9.275978e+00	-2.909675e+02
2.610000e-06	-1.410087e-06	-5.244725e-09	-1.005278e+01	-3.454352e+02
2.620000e-06	-1.518585e-06	-6.076023e-09	-1.082628e+01	-3.998608e+02
2.630000e-06	-1.626570e-06	-6.896987e-09	-1.159613e+01	-4.536767e+02
2.640000e-06	-1.733979e-06	-7.700016e-09	-1.236186e+01	-5.063123e+02
2.650000e-06	-1.840846e-06	-8.481061e-09	-1.312374e+01	-5.572481e+02
2.660000e-06	-1.947095e-06	-9.232246e-09	-1.388121e+01	-6.060610e+02
2.670000e-06	-2.052642e-06	-9.946164e-09	-1.463367e+01	-6.524510e+02
2.680000e-06	-2.157461e-06	-1.061886e-08	-1.538095e+01	-6.962501e+02
2.690000e-06	-2.261494e-06	-1.124879e-08	-1.612262e+01	-7.374131e+02
2.700000e-06	-2.364623e-06	-1.183942e-08	-1.685784e+01	-7.759950e+02
2.710000e-06	-2.466748e-06	-1.239432e-08	-1.758591e+01	-8.121205e+02
2.720000e-06	-2.567894e-06	-1.291416e-08	-1.830700e+01	-8.459536e+02
2.730000e-06	-2.668051e-06	-1.339922e-08	-1.902104e+01	-8.776697e+02
2.740000e-06	-2.767253e-06	-1.385467e-08	-1.972827e+01	-9.074370e+02
2.750000e-06	-2.865554e-06	-1.428169e-08	-2.042908e+01	-9.354062e+02
2.760000e-06	-2.962913e-06	-1.468303e-08	-2.112317e+01	-9.617080e+02
2.770000e-06	-3.059327e-06	-1.506388e-08	-2.181052e+01	-9.864568e+02
2.780000e-06	-3.154738e-06	-1.542293e-08	-2.249072e+01	-1.009756e+03
2.790000e-06	-3.248998e-06	-1.575698e-08	-2.316272e+01	-1.031705e+03
2.800000e-06	-3.342064e-06	-1.607019e-08	-2.382621e+01	-1.052399e+03
2.810000e-06	-3.433919e-06	-1.636869e-08	-2.448105e+01	-1.071935e+03
2.820000e-06	-3.524472e-06	-1.665149e-08	-2.512662e+01	-1.090403e+03
2.830000e-06	-3.613770e-06	-1.691804e-08	-2.576325e+01	-1.107887e+03
2.840000e-06	-3.701905e-06	-1.717088e-08	-2.639158e+01	-1.124462e+03
2.850000e-06	-3.788697e-06	-1.741252e-08	-2.701034e+01	-1.140190e+03
2.860000e-06	-3.874032e-06	-1.764403e-08	-2.761871e+01	-1.155121e+03
2.870000e-06	-3.957975e-06	-1.786504e-08	-2.821715e+01	-1.169298e+03
2.880000e-06	-4.040524e-06	-1.807375e-08	-2.880566e+01	-1.182758e+03
2.890000e-06	-4.121716e-06	-1.826922e-08	-2.938449e+01	-1.195536e+03
2.900000e-06	-4.201409e-06	-1.845255e-08	-2.995264e+01	-1.207668e+03
2.910000e-06	-4.279381e-06	-1.862668e-08	-3.050852e+01	-1.219190e+03
2.920000e-06	-4.355666e-06	-1.879306e-08	-3.105236e+01	-1.230140e+03
2.930000e-06	-4.430273e-06	-1.895228e-08	-3.158425e+01	-1.240550e+03
2.940000e-06	-4.503248e-06	-1.910451e-08	-3.210451e+01	-1.250448e+03
