# Temperatura_=_87.86
# Concentracion g/m^3_=_26700.0
# C_Vs_to_Am_M_A/Vsm_=_65563218390.804596
# pendiente_HvsI_1/m_=_3716.3
# ordenada_HvsI_A/m_=_1297.0
# frecuencia_Hz_=_302523.99408578797

Tiempo_(s)	Campo_(V.s)	Magnetizacion_(V.s)	Campo_(kA/m)	Magnetizacion_(A/m)
0.000000e+00	-7.925698e-06	-2.791639e-08	-5.684441e+01	-1.826819e+03
1.000000e-08	-7.921465e-06	-2.791410e-08	-5.681405e+01	-1.826373e+03
2.000000e-08	-7.914681e-06	-2.790621e-08	-5.676539e+01	-1.825838e+03
3.000000e-08	-7.905287e-06	-2.789446e-08	-5.669802e+01	-1.825220e+03
4.000000e-08	-7.893071e-06	-2.788001e-08	-5.661040e+01	-1.824510e+03
5.000000e-08	-7.877889e-06	-2.786376e-08	-5.650151e+01	-1.823682e+03
6.000000e-08	-7.860015e-06	-2.784616e-08	-5.637332e+01	-1.822705e+03
7.000000e-08	-7.839918e-06	-2.782471e-08	-5.622917e+01	-1.821558e+03
8.000000e-08	-7.817403e-06	-2.782105e-08	-5.606769e+01	-1.820233e+03
9.000000e-08	-7.791856e-06	-2.783678e-08	-5.588447e+01	-1.818752e+03
1.000000e-07	-7.763132e-06	-2.781461e-08	-5.567845e+01	-1.817155e+03
1.100000e-07	-7.731494e-06	-2.776686e-08	-5.545154e+01	-1.815499e+03
1.200000e-07	-7.697081e-06	-2.772591e-08	-5.520472e+01	-1.813838e+03
1.300000e-07	-7.660079e-06	-2.767760e-08	-5.493934e+01	-1.812209e+03
1.400000e-07	-7.620837e-06	-2.761496e-08	-5.465789e+01	-1.810616e+03
1.500000e-07	-7.579334e-06	-2.759301e-08	-5.436023e+01	-1.809028e+03
1.600000e-07	-7.535341e-06	-2.762070e-08	-5.404470e+01	-1.807381e+03
1.700000e-07	-7.488711e-06	-2.755530e-08	-5.371026e+01	-1.805589e+03
1.800000e-07	-7.439268e-06	-2.751333e-08	-5.335565e+01	-1.803568e+03
1.900000e-07	-7.386882e-06	-2.750814e-08	-5.297993e+01	-1.801253e+03
2.000000e-07	-7.331643e-06	-2.741614e-08	-5.258375e+01	-1.798612e+03
2.100000e-07	-7.273729e-06	-2.734986e-08	-5.216838e+01	-1.795655e+03
2.200000e-07	-7.213195e-06	-2.730945e-08	-5.173421e+01	-1.792430e+03
2.300000e-07	-7.150078e-06	-2.727503e-08	-5.128153e+01	-1.789006e+03
2.400000e-07	-7.084247e-06	-2.723031e-08	-5.080938e+01	-1.785455e+03
2.500000e-07	-7.015694e-06	-2.717443e-08	-5.031771e+01	-1.781833e+03
2.600000e-07	-6.944427e-06	-2.711702e-08	-4.980657e+01	-1.778165e+03
2.700000e-07	-6.870388e-06	-2.705491e-08	-4.927555e+01	-1.774437e+03
2.800000e-07	-6.793667e-06	-2.700838e-08	-4.872530e+01	-1.770605e+03
2.900000e-07	-6.714245e-06	-2.693964e-08	-4.815566e+01	-1.766609e+03
3.000000e-07	-6.632244e-06	-2.687173e-08	-4.756754e+01	-1.762388e+03
3.100000e-07	-6.547911e-06	-2.682240e-08	-4.696269e+01	-1.757901e+03
3.200000e-07	-6.461345e-06	-2.674200e-08	-4.634183e+01	-1.753139e+03
3.300000e-07	-6.372467e-06	-2.664452e-08	-4.570438e+01	-1.748122e+03
3.400000e-07	-6.281234e-06	-2.656279e-08	-4.505004e+01	-1.742900e+03
3.500000e-07	-6.187809e-06	-2.649932e-08	-4.437998e+01	-1.737529e+03
3.600000e-07	-6.092138e-06	-2.641707e-08	-4.369381e+01	-1.732059e+03
3.700000e-07	-5.994142e-06	-2.632571e-08	-4.299097e+01	-1.726518e+03
3.800000e-07	-5.894018e-06	-2.624191e-08	-4.227286e+01	-1.720900e+03
3.900000e-07	-5.791837e-06	-2.615485e-08	-4.154001e+01	-1.715171e+03
4.000000e-07	-5.687567e-06	-2.606178e-08	-4.079216e+01	-1.709276e+03
4.100000e-07	-5.581274e-06	-2.596158e-08	-4.002981e+01	-1.703157e+03
4.200000e-07	-5.473012e-06	-2.586815e-08	-3.925334e+01	-1.696765e+03
4.300000e-07	-5.362812e-06	-2.576950e-08	-3.846296e+01	-1.690076e+03
4.400000e-07	-5.250611e-06	-2.566481e-08	-3.765824e+01	-1.683095e+03
4.500000e-07	-5.136432e-06	-2.555634e-08	-3.683933e+01	-1.675849e+03
4.600000e-07	-5.020294e-06	-2.544479e-08	-3.600637e+01	-1.668378e+03
4.700000e-07	-4.902249e-06	-2.532601e-08	-3.515973e+01	-1.660719e+03
4.800000e-07	-4.782382e-06	-2.520075e-08	-3.430003e+01	-1.652893e+03
4.900000e-07	-4.660783e-06	-2.507554e-08	-3.342790e+01	-1.644896e+03
5.000000e-07	-4.537434e-06	-2.494413e-08	-3.254322e+01	-1.636701e+03
5.100000e-07	-4.412340e-06	-2.481079e-08	-3.164602e+01	-1.628260e+03
5.200000e-07	-4.285709e-06	-2.467693e-08	-3.073781e+01	-1.619526e+03
5.300000e-07	-4.157545e-06	-2.454018e-08	-2.981860e+01	-1.610459e+03
5.400000e-07	-4.027884e-06	-2.439784e-08	-2.888864e+01	-1.601037e+03
5.500000e-07	-3.896723e-06	-2.425098e-08	-2.794794e+01	-1.591264e+03
5.600000e-07	-3.764061e-06	-2.409869e-08	-2.699646e+01	-1.581159e+03
5.700000e-07	-3.629990e-06	-2.393822e-08	-2.603488e+01	-1.570749e+03
5.800000e-07	-3.494499e-06	-2.376876e-08	-2.506312e+01	-1.560054e+03
5.900000e-07	-3.357598e-06	-2.359387e-08	-2.408125e+01	-1.549074e+03
6.000000e-07	-3.219424e-06	-2.341871e-08	-2.309024e+01	-1.537786e+03
6.100000e-07	-3.079937e-06	-2.323902e-08	-2.208981e+01	-1.526146e+03
6.200000e-07	-2.939080e-06	-2.305240e-08	-2.107956e+01	-1.514097e+03
6.300000e-07	-2.797026e-06	-2.285920e-08	-2.006073e+01	-1.501588e+03
6.400000e-07	-2.653892e-06	-2.266129e-08	-1.903415e+01	-1.488582e+03
6.500000e-07	-2.509807e-06	-2.245677e-08	-1.800074e+01	-1.475069e+03
6.600000e-07	-2.364783e-06	-2.224422e-08	-1.696061e+01	-1.461065e+03
6.700000e-07	-2.218831e-06	-2.202606e-08	-1.591382e+01	-1.446599e+03
6.800000e-07	-2.072193e-06	-2.180235e-08	-1.486211e+01	-1.431702e+03
6.900000e-07	-1.924984e-06	-2.157101e-08	-1.380630e+01	-1.416385e+03
7.000000e-07	-1.777174e-06	-2.132838e-08	-1.274618e+01	-1.400627e+03
7.100000e-07	-1.628784e-06	-2.107445e-08	-1.168191e+01	-1.384370e+03
7.200000e-07	-1.479885e-06	-2.081076e-08	-1.061398e+01	-1.367525e+03
7.300000e-07	-1.330524e-06	-2.053989e-08	-9.542734e+00	-1.349987e+03
7.400000e-07	-1.180775e-06	-2.026067e-08	-8.468710e+00	-1.331657e+03
7.500000e-07	-1.030624e-06	-1.997114e-08	-7.391804e+00	-1.312463e+03
7.600000e-07	-8.800810e-07	-1.966796e-08	-6.312085e+00	-1.292365e+03
7.700000e-07	-7.292408e-07	-1.934806e-08	-5.230234e+00	-1.271358e+03
7.800000e-07	-5.781490e-07	-1.901299e-08	-4.146579e+00	-1.249452e+03
7.900000e-07	-4.268504e-07	-1.866348e-08	-3.061441e+00	-1.226653e+03
8.000000e-07	-2.753186e-07	-1.830061e-08	-1.974630e+00	-1.202924e+03
8.100000e-07	-1.236373e-07	-1.792218e-08	-8.867468e-01	-1.178175e+03
8.200000e-07	2.811492e-08	-1.752413e-08	2.016448e-01	-1.152243e+03
8.300000e-07	1.799096e-07	-1.710394e-08	1.290341e+00	-1.124909e+03
8.400000e-07	3.316517e-07	-1.666020e-08	2.378660e+00	-1.095911e+03
8.500000e-07	4.832738e-07	-1.618889e-08	3.466119e+00	-1.064983e+03
8.600000e-07	6.346946e-07	-1.568463e-08	4.552134e+00	-1.031870e+03
8.700000e-07	7.858442e-07	-1.514630e-08	5.636204e+00	-9.963447e+02
8.800000e-07	9.367635e-07	-1.456910e-08	6.718621e+00	-9.581890e+02
8.900000e-07	1.087412e-06	-1.394678e-08	7.799094e+00	-9.171554e+02
9.000000e-07	1.237687e-06	-1.327389e-08	8.876894e+00	-8.729089e+02
9.100000e-07	1.387569e-06	-1.254030e-08	9.951873e+00	-8.249645e+02
9.200000e-07	1.537028e-06	-1.173498e-08	1.102381e+01	-7.726425e+02
9.300000e-07	1.685962e-06	-1.084805e-08	1.209199e+01	-7.150584e+02
9.400000e-07	1.834260e-06	-9.865954e-09	1.315561e+01	-6.511663e+02
9.500000e-07	1.981848e-06	-8.772507e-09	1.421414e+01	-5.798576e+02
9.600000e-07	2.128672e-06	-7.553056e-09	1.526718e+01	-5.001102e+02
9.700000e-07	2.274766e-06	-6.195153e-09	1.631499e+01	-4.111663e+02
9.800000e-07	2.420063e-06	-4.693368e-09	1.735709e+01	-3.127104e+02
9.900000e-07	2.564391e-06	-3.050067e-09	1.839224e+01	-2.050122e+02
1.000000e-06	2.707750e-06	-1.275924e-09	1.942043e+01	-8.900588e+01
1.010000e-06	2.850097e-06	6.053262e-10	2.044136e+01	3.371654e+01
1.020000e-06	2.991328e-06	2.558038e-09	2.145429e+01	1.610023e+02
1.030000e-06	3.131331e-06	4.539592e-09	2.245842e+01	2.903149e+02
1.040000e-06	3.269998e-06	6.503524e-09	2.345296e+01	4.189648e+02
1.050000e-06	3.407415e-06	8.408426e-09	2.443854e+01	5.443580e+02
1.060000e-06	3.543572e-06	1.022141e-08	2.541508e+01	6.642234e+02
1.070000e-06	3.678347e-06	1.191988e-08	2.638171e+01	7.767862e+02
1.080000e-06	3.811796e-06	1.348908e-08	2.733883e+01	8.808625e+02
1.090000e-06	3.943945e-06	1.492414e-08	2.828662e+01	9.758710e+02
1.100000e-06	4.074664e-06	1.622700e-08	2.922416e+01	1.061767e+03
1.110000e-06	4.203902e-06	1.740012e-08	3.015107e+01	1.138924e+03
1.120000e-06	4.331685e-06	1.844911e-08	3.106755e+01	1.207982e+03
1.130000e-06	4.457985e-06	1.938317e-08	3.197340e+01	1.269709e+03
1.140000e-06	4.582815e-06	2.021506e-08	3.286870e+01	1.324881e+03
1.150000e-06	4.706044e-06	2.095803e-08	3.375252e+01	1.374205e+03
1.160000e-06	4.827545e-06	2.161908e-08	3.462394e+01	1.418287e+03
1.170000e-06	4.947272e-06	2.220712e-08	3.548265e+01	1.457640e+03
1.180000e-06	5.065171e-06	2.273073e-08	3.632823e+01	1.492708e+03
1.190000e-06	5.181153e-06	2.319721e-08	3.716008e+01	1.523905e+03
1.200000e-06	5.295143e-06	2.361619e-08	3.797764e+01	1.551640e+03
1.210000e-06	5.407166e-06	2.399297e-08	3.878108e+01	1.576332e+03
1.220000e-06	5.517249e-06	2.433169e-08	3.957061e+01	1.598399e+03
1.230000e-06	5.625411e-06	2.463513e-08	4.034637e+01	1.618242e+03
1.240000e-06	5.731500e-06	2.490698e-08	4.110726e+01	1.636221e+03
1.250000e-06	5.835456e-06	2.515276e-08	4.185285e+01	1.652627e+03
1.260000e-06	5.937307e-06	2.537891e-08	4.258334e+01	1.667678e+03
1.270000e-06	6.036965e-06	2.558631e-08	4.329810e+01	1.681520e+03
1.280000e-06	6.134393e-06	2.577531e-08	4.399687e+01	1.694243e+03
1.290000e-06	6.229543e-06	2.594848e-08	4.467930e+01	1.705904e+03
1.300000e-06	6.322445e-06	2.610825e-08	4.534561e+01	1.716558e+03
1.310000e-06	6.413045e-06	2.625641e-08	4.599541e+01	1.726268e+03
1.320000e-06	6.501267e-06	2.639396e-08	4.662815e+01	1.735121e+03
1.330000e-06	6.587230e-06	2.652208e-08	4.724469e+01	1.743221e+03
1.340000e-06	6.670934e-06	2.664047e-08	4.784503e+01	1.750678e+03
1.350000e-06	6.752202e-06	2.674765e-08	4.842790e+01	1.757596e+03
1.360000e-06	6.831002e-06	2.684494e-08	4.899306e+01	1.764059e+03
1.370000e-06	6.907333e-06	2.693554e-08	4.954052e+01	1.770120e+03
1.380000e-06	6.981072e-06	2.701998e-08	5.006940e+01	1.775807e+03
1.390000e-06	7.052234e-06	2.709827e-08	5.057977e+01	1.781128e+03
1.400000e-06	7.120922e-06	2.717098e-08	5.107242e+01	1.786086e+03
1.410000e-06	7.187055e-06	2.724021e-08	5.154674e+01	1.790687e+03
1.420000e-06	7.250545e-06	2.730567e-08	5.200209e+01	1.794951e+03
1.430000e-06	7.311557e-06	2.736760e-08	5.243969e+01	1.798910e+03
1.440000e-06	7.370106e-06	2.742823e-08	5.285960e+01	1.802604e+03
1.450000e-06	7.426048e-06	2.748462e-08	5.326083e+01	1.806074e+03
1.460000e-06	7.479208e-06	2.753553e-08	5.364211e+01	1.809348e+03
1.470000e-06	7.529303e-06	2.757992e-08	5.400139e+01	1.812434e+03
1.480000e-06	7.576417e-06	2.762092e-08	5.433930e+01	1.815322e+03
1.490000e-06	7.620899e-06	2.765940e-08	5.465833e+01	1.817987e+03
1.500000e-06	7.662683e-06	2.769490e-08	5.495802e+01	1.820398e+03
1.510000e-06	7.701657e-06	2.772859e-08	5.523754e+01	1.822533e+03
1.520000e-06	7.737979e-06	2.775740e-08	5.549806e+01	1.824385e+03
1.530000e-06	7.771578e-06	2.778180e-08	5.573903e+01	1.825968e+03
1.540000e-06	7.802359e-06	2.780256e-08	5.595980e+01	1.827314e+03
1.550000e-06	7.830441e-06	2.782192e-08	5.616120e+01	1.828468e+03
1.560000e-06	7.855703e-06	2.783942e-08	5.634239e+01	1.829472e+03
1.570000e-06	7.878065e-06	2.785508e-08	5.650277e+01	1.830359e+03
1.580000e-06	7.897680e-06	2.786826e-08	5.664346e+01	1.831143e+03
1.590000e-06	7.914448e-06	2.787873e-08	5.676372e+01	1.831818e+03
1.600000e-06	7.928201e-06	2.788776e-08	5.686235e+01	1.832362e+03
1.610000e-06	7.938865e-06	2.789481e-08	5.693884e+01	1.832749e+03
1.620000e-06	7.946466e-06	2.789997e-08	5.699335e+01	1.832958e+03
1.630000e-06	7.951224e-06	2.790153e-08	5.702748e+01	1.832983e+03
1.640000e-06	7.953179e-06	2.790086e-08	5.704150e+01	1.832834e+03
1.650000e-06	7.952296e-06	2.789785e-08	5.703517e+01	1.832533e+03
1.660000e-06	7.948786e-06	2.788980e-08	5.701000e+01	1.832113e+03
1.670000e-06	7.942643e-06	2.788120e-08	5.696593e+01	1.831597e+03
1.680000e-06	7.933831e-06	2.787320e-08	5.690273e+01	1.830999e+03
1.690000e-06	7.922367e-06	2.786439e-08	5.682051e+01	1.830313e+03
1.700000e-06	7.908074e-06	2.785598e-08	5.671800e+01	1.829516e+03
1.710000e-06	7.891152e-06	2.784822e-08	5.659663e+01	1.828578e+03
1.720000e-06	7.871990e-06	2.783508e-08	5.645920e+01	1.827473e+03
1.730000e-06	7.850449e-06	2.778163e-08	5.630470e+01	1.826191e+03
1.740000e-06	7.825838e-06	2.772276e-08	5.612819e+01	1.824745e+03
1.750000e-06	7.797631e-06	2.771223e-08	5.592589e+01	1.823171e+03
1.760000e-06	7.765958e-06	2.770752e-08	5.569872e+01	1.821523e+03
1.770000e-06	7.731551e-06	2.769547e-08	5.545195e+01	1.819858e+03
1.780000e-06	7.694901e-06	2.771471e-08	5.518909e+01	1.818218e+03
1.790000e-06	7.656016e-06	2.770277e-08	5.491020e+01	1.816616e+03
1.800000e-06	7.615131e-06	2.762503e-08	5.461696e+01	1.815031e+03
1.810000e-06	7.571974e-06	2.763443e-08	5.430743e+01	1.813405e+03
1.820000e-06	7.526091e-06	2.762592e-08	5.397836e+01	1.811656e+03
1.830000e-06	7.477536e-06	2.758181e-08	5.363012e+01	1.809699e+03
1.840000e-06	7.426040e-06	2.759913e-08	5.326077e+01	1.807460e+03
1.850000e-06	7.371534e-06	2.755363e-08	5.286985e+01	1.804900e+03
1.860000e-06	7.314312e-06	2.751204e-08	5.245945e+01	1.802019e+03
1.870000e-06	7.254543e-06	2.745173e-08	5.203077e+01	1.798854e+03
1.880000e-06	7.192155e-06	2.738275e-08	5.158331e+01	1.795471e+03
1.890000e-06	7.126946e-06	2.734914e-08	5.111562e+01	1.791945e+03
1.900000e-06	7.059012e-06	2.728684e-08	5.062839e+01	1.788336e+03
1.910000e-06	6.988308e-06	2.725534e-08	5.012129e+01	1.784678e+03
1.920000e-06	6.914850e-06	2.719475e-08	4.959443e+01	1.780966e+03
1.930000e-06	6.838711e-06	2.712863e-08	4.904835e+01	1.777165e+03
1.940000e-06	6.759842e-06	2.706705e-08	4.848270e+01	1.773215e+03
1.950000e-06	6.678421e-06	2.696416e-08	4.789873e+01	1.769054e+03
1.960000e-06	6.594587e-06	2.690896e-08	4.729746e+01	1.764635e+03
1.970000e-06	6.508329e-06	2.686105e-08	4.667880e+01	1.759939e+03
1.980000e-06	6.419647e-06	2.679705e-08	4.604276e+01	1.754981e+03
1.990000e-06	6.328727e-06	2.671362e-08	4.539067e+01	1.749804e+03
2.000000e-06	6.235645e-06	2.662930e-08	4.472306e+01	1.744464e+03
2.010000e-06	6.140314e-06	2.654982e-08	4.403934e+01	1.739014e+03
2.020000e-06	6.042799e-06	2.645614e-08	4.333994e+01	1.733488e+03
2.030000e-06	5.943130e-06	2.637558e-08	4.262510e+01	1.727890e+03
2.040000e-06	5.841290e-06	2.629557e-08	4.189469e+01	1.722193e+03
2.050000e-06	5.737311e-06	2.620904e-08	4.114894e+01	1.716344e+03
2.060000e-06	5.631354e-06	2.610366e-08	4.038899e+01	1.710285e+03
2.070000e-06	5.523526e-06	2.600021e-08	3.961563e+01	1.703964e+03
2.080000e-06	5.413769e-06	2.590354e-08	3.882844e+01	1.697349e+03
2.090000e-06	5.302011e-06	2.580106e-08	3.802689e+01	1.690438e+03
2.100000e-06	5.188263e-06	2.569380e-08	3.721107e+01	1.683253e+03
2.110000e-06	5.072561e-06	2.558660e-08	3.638124e+01	1.675833e+03
2.120000e-06	4.954878e-06	2.547470e-08	3.553720e+01	1.668217e+03
2.130000e-06	4.835294e-06	2.535052e-08	3.467952e+01	1.660431e+03
2.140000e-06	4.713876e-06	2.522950e-08	3.380869e+01	1.652478e+03
2.150000e-06	4.590779e-06	2.510761e-08	3.292582e+01	1.644335e+03
2.160000e-06	4.466054e-06	2.498465e-08	3.203127e+01	1.635959e+03
2.170000e-06	4.339702e-06	2.485482e-08	3.112505e+01	1.627302e+03
2.180000e-06	4.211695e-06	2.471755e-08	3.020697e+01	1.618319e+03
2.190000e-06	4.082075e-06	2.457287e-08	2.927731e+01	1.608986e+03
2.200000e-06	3.950996e-06	2.442351e-08	2.833719e+01	1.599298e+03
2.210000e-06	3.818435e-06	2.427382e-08	2.738644e+01	1.589272e+03
2.220000e-06	3.684476e-06	2.412311e-08	2.642567e+01	1.578935e+03
2.230000e-06	3.549125e-06	2.396898e-08	2.545491e+01	1.568309e+03
2.240000e-06	3.412389e-06	2.380456e-08	2.447421e+01	1.557401e+03
2.250000e-06	3.274360e-06	2.363251e-08	2.348425e+01	1.546192e+03
2.260000e-06	3.135100e-06	2.345315e-08	2.248545e+01	1.534644e+03
2.270000e-06	2.994642e-06	2.327031e-08	2.147806e+01	1.522702e+03
2.280000e-06	2.853011e-06	2.308245e-08	2.046226e+01	1.510311e+03
2.290000e-06	2.710314e-06	2.288869e-08	1.943882e+01	1.497430e+03
2.300000e-06	2.566596e-06	2.268702e-08	1.840805e+01	1.484042e+03
2.310000e-06	2.421877e-06	2.247651e-08	1.737010e+01	1.470157e+03
2.320000e-06	2.276345e-06	2.225739e-08	1.632632e+01	1.455802e+03
2.330000e-06	2.130130e-06	2.203091e-08	1.527764e+01	1.441010e+03
2.340000e-06	1.983168e-06	2.180191e-08	1.422361e+01	1.425797e+03
2.350000e-06	1.835501e-06	2.156562e-08	1.316452e+01	1.410153e+03
2.360000e-06	1.687264e-06	2.131922e-08	1.210133e+01	1.394026e+03
2.370000e-06	1.538494e-06	2.106159e-08	1.103433e+01	1.377337e+03
2.380000e-06	1.389260e-06	2.079292e-08	9.963997e+00	1.359981e+03
2.390000e-06	1.239628e-06	2.051307e-08	8.890814e+00	1.341856e+03
2.400000e-06	1.089573e-06	2.022489e-08	7.814595e+00	1.322882e+03
2.410000e-06	9.391510e-07	1.992879e-08	6.735745e+00	1.303010e+03
2.420000e-06	7.884763e-07	1.961970e-08	5.655081e+00	1.282228e+03
2.430000e-06	6.375899e-07	1.929390e-08	4.572899e+00	1.260545e+03
2.440000e-06	4.865030e-07	1.894835e-08	3.489279e+00	1.237969e+03
2.450000e-06	3.352058e-07	1.858650e-08	2.404151e+00	1.214478e+03
2.460000e-06	1.837086e-07	1.821075e-08	1.317588e+00	1.189995e+03
2.470000e-06	3.208774e-08	1.781817e-08	2.301385e-01	1.164377e+03
2.480000e-06	-1.195995e-07	1.740411e-08	-8.577870e-01	1.137415e+03
2.490000e-06	-2.712235e-07	1.696496e-08	-1.945259e+00	1.108858e+03
2.500000e-06	-4.226927e-07	1.649899e-08	-3.031621e+00	1.078436e+03
2.510000e-06	-5.740067e-07	1.600413e-08	-4.116870e+00	1.045890e+03
2.520000e-06	-7.251454e-07	1.547602e-08	-5.200861e+00	1.010987e+03
2.530000e-06	-8.760911e-07	1.491037e-08	-6.283469e+00	9.735091e+02
2.540000e-06	-1.026750e-06	1.430154e-08	-7.364017e+00	9.332207e+02
2.550000e-06	-1.177080e-06	1.364257e-08	-8.442210e+00	8.898150e+02
2.560000e-06	-1.327109e-06	1.292632e-08	-9.518246e+00	8.428496e+02
2.570000e-06	-1.476707e-06	1.214208e-08	-1.059119e+01	7.916961e+02
2.580000e-06	-1.625738e-06	1.128020e-08	-1.166006e+01	7.355194e+02
2.590000e-06	-1.774198e-06	1.032922e-08	-1.272484e+01	6.733069e+02
2.600000e-06	-1.921961e-06	9.272961e-09	-1.378462e+01	6.039533e+02
2.610000e-06	-2.068913e-06	8.098115e-09	-1.483858e+01	5.263990e+02
2.620000e-06	-2.215159e-06	6.791246e-09	-1.588748e+01	4.398028e+02
2.630000e-06	-2.360682e-06	5.339147e-09	-1.693120e+01	3.437233e+02
2.640000e-06	-2.505255e-06	3.740601e-09	-1.796810e+01	2.382735e+02
2.650000e-06	-2.648766e-06	2.006827e-09	-1.899739e+01	1.242186e+02
2.660000e-06	-2.791184e-06	1.570343e-10	-2.001883e+01	2.991691e+00
2.670000e-06	-2.932466e-06	-1.779927e-09	-2.103213e+01	-1.233808e+02
2.680000e-06	-3.072631e-06	-3.761287e-09	-2.203741e+01	-2.524382e+02
2.690000e-06	-3.211579e-06	-5.741259e-09	-2.303397e+01	-3.815060e+02
2.700000e-06	-3.349333e-06	-7.679128e-09	-2.402197e+01	-5.079435e+02
2.710000e-06	-3.485852e-06	-9.537196e-09	-2.500110e+01	-6.293800e+02
2.720000e-06	-3.620907e-06	-1.128608e-08	-2.596974e+01	-7.439045e+02
2.730000e-06	-3.754642e-06	-1.290766e-08	-2.692891e+01	-8.501810e+02
2.740000e-06	-3.887152e-06	-1.439695e-08	-2.787929e+01	-9.474810e+02
2.750000e-06	-4.018290e-06	-1.575433e-08	-2.881984e+01	-1.035635e+03
2.760000e-06	-4.148049e-06	-1.697950e-08	-2.975048e+01	-1.114926e+03
2.770000e-06	-4.276384e-06	-1.807852e-08	-3.067093e+01	-1.185940e+03
2.780000e-06	-4.403167e-06	-1.906069e-08	-3.158024e+01	-1.249427e+03
2.790000e-06	-4.528462e-06	-1.993687e-08	-3.247887e+01	-1.306169e+03
2.800000e-06	-4.652245e-06	-2.071567e-08	-3.336666e+01	-1.356895e+03
2.810000e-06	-4.774356e-06	-2.140814e-08	-3.424246e+01	-1.402238e+03
2.820000e-06	-4.894662e-06	-2.202810e-08	-3.510532e+01	-1.442730e+03
2.830000e-06	-5.013030e-06	-2.258368e-08	-3.595427e+01	-1.478831e+03
2.840000e-06	-5.129487e-06	-2.307943e-08	-3.678952e+01	-1.510959e+03
2.850000e-06	-5.243919e-06	-2.351918e-08	-3.761025e+01	-1.539522e+03
2.860000e-06	-5.356202e-06	-2.391086e-08	-3.841556e+01	-1.564936e+03
2.870000e-06	-5.466428e-06	-2.426143e-08	-3.920612e+01	-1.587621e+03
2.880000e-06	-5.574712e-06	-2.457749e-08	-3.998274e+01	-1.607986e+03
2.890000e-06	-5.681123e-06	-2.486283e-08	-4.074595e+01	-1.626402e+03
2.900000e-06	-5.785496e-06	-2.512124e-08	-4.149452e+01	-1.643179e+03
2.910000e-06	-5.887665e-06	-2.535791e-08	-4.222730e+01	-1.658554e+03
2.920000e-06	-5.987649e-06	-2.557566e-08	-4.294440e+01	-1.672689e+03
2.930000e-06	-6.085515e-06	-2.577439e-08	-4.364631e+01	-1.685686e+03
2.940000e-06	-6.181220e-06	-2.595412e-08	-4.433272e+01	-1.697609e+03
