# Temperatura_=_27.18
# Concentracion g/m^3_=_28200.0
# C_Vs_to_Am_M_A/Vsm_=_65563218390.804596
# pendiente_HvsI_1/m_=_3716.3
# ordenada_HvsI_A/m_=_1297.0
# frecuencia_Hz_=_302268.9348714209

Tiempo_(s)	Campo_(V.s)	Magnetizacion_(V.s)	Campo_(kA/m)	Magnetizacion_(A/m)
0.000000e+00	-6.866821e-06	-1.744962e-08	-4.952120e+01	-1.141689e+03
1.000000e-08	-6.863653e-06	-1.744377e-08	-4.949835e+01	-1.141387e+03
2.000000e-08	-6.858247e-06	-1.743611e-08	-4.945936e+01	-1.140964e+03
3.000000e-08	-6.850727e-06	-1.742758e-08	-4.940513e+01	-1.140409e+03
4.000000e-08	-6.840867e-06	-1.741640e-08	-4.933403e+01	-1.139710e+03
5.000000e-08	-6.828455e-06	-1.740254e-08	-4.924451e+01	-1.138858e+03
6.000000e-08	-6.813463e-06	-1.738641e-08	-4.913639e+01	-1.137856e+03
7.000000e-08	-6.796127e-06	-1.736634e-08	-4.901138e+01	-1.136713e+03
8.000000e-08	-6.776846e-06	-1.734852e-08	-4.887233e+01	-1.135449e+03
9.000000e-08	-6.755398e-06	-1.735651e-08	-4.871765e+01	-1.134093e+03
1.000000e-07	-6.731256e-06	-1.734621e-08	-4.854355e+01	-1.132672e+03
1.100000e-07	-6.704321e-06	-1.730248e-08	-4.834930e+01	-1.131212e+03
1.200000e-07	-6.674892e-06	-1.726335e-08	-4.813707e+01	-1.129729e+03
1.300000e-07	-6.643273e-06	-1.722748e-08	-4.790905e+01	-1.128224e+03
1.400000e-07	-6.609493e-06	-1.717158e-08	-4.766543e+01	-1.126684e+03
1.500000e-07	-6.573886e-06	-1.715716e-08	-4.740865e+01	-1.125078e+03
1.600000e-07	-6.536505e-06	-1.716554e-08	-4.713907e+01	-1.123369e+03
1.700000e-07	-6.497015e-06	-1.709228e-08	-4.685428e+01	-1.121510e+03
1.800000e-07	-6.455287e-06	-1.705662e-08	-4.655335e+01	-1.119462e+03
1.900000e-07	-6.411081e-06	-1.703337e-08	-4.623455e+01	-1.117191e+03
2.000000e-07	-6.364474e-06	-1.697671e-08	-4.589844e+01	-1.114678e+03
2.100000e-07	-6.315435e-06	-1.694792e-08	-4.554478e+01	-1.111920e+03
2.200000e-07	-6.263722e-06	-1.691229e-08	-4.517185e+01	-1.108925e+03
2.300000e-07	-6.209522e-06	-1.687207e-08	-4.478098e+01	-1.105715e+03
2.400000e-07	-6.153014e-06	-1.680479e-08	-4.437346e+01	-1.102314e+03
2.500000e-07	-6.094095e-06	-1.673467e-08	-4.394856e+01	-1.098742e+03
2.600000e-07	-6.032902e-06	-1.669331e-08	-4.350726e+01	-1.095017e+03
2.700000e-07	-5.969566e-06	-1.662709e-08	-4.305049e+01	-1.091143e+03
2.800000e-07	-5.903938e-06	-1.655772e-08	-4.257721e+01	-1.087119e+03
2.900000e-07	-5.836030e-06	-1.650250e-08	-4.208748e+01	-1.082933e+03
3.000000e-07	-5.765961e-06	-1.643443e-08	-4.158217e+01	-1.078568e+03
3.100000e-07	-5.693714e-06	-1.636334e-08	-4.106114e+01	-1.074008e+03
3.200000e-07	-5.619223e-06	-1.629131e-08	-4.052394e+01	-1.069239e+03
3.300000e-07	-5.542431e-06	-1.621626e-08	-3.997014e+01	-1.064249e+03
3.400000e-07	-5.463326e-06	-1.612717e-08	-3.939966e+01	-1.059033e+03
3.500000e-07	-5.382100e-06	-1.604823e-08	-3.881389e+01	-1.053587e+03
3.600000e-07	-5.299084e-06	-1.596965e-08	-3.821521e+01	-1.047910e+03
3.700000e-07	-5.214405e-06	-1.587870e-08	-3.760453e+01	-1.041998e+03
3.800000e-07	-5.128053e-06	-1.579100e-08	-3.698179e+01	-1.035842e+03
3.900000e-07	-5.039922e-06	-1.568756e-08	-3.634622e+01	-1.029432e+03
4.000000e-07	-4.949879e-06	-1.557738e-08	-3.569686e+01	-1.022755e+03
4.100000e-07	-4.858058e-06	-1.546716e-08	-3.503468e+01	-1.015794e+03
4.200000e-07	-4.764630e-06	-1.535930e-08	-3.436090e+01	-1.008535e+03
4.300000e-07	-4.669629e-06	-1.524652e-08	-3.367579e+01	-1.000967e+03
4.400000e-07	-4.572947e-06	-1.512337e-08	-3.297855e+01	-9.930801e+02
4.500000e-07	-4.474543e-06	-1.499745e-08	-3.226889e+01	-9.848683e+02
4.600000e-07	-4.374474e-06	-1.486578e-08	-3.154723e+01	-9.763254e+02
4.700000e-07	-4.272850e-06	-1.473169e-08	-3.081435e+01	-9.674438e+02
4.800000e-07	-4.169804e-06	-1.459024e-08	-3.007122e+01	-9.582112e+02
4.900000e-07	-4.065235e-06	-1.444681e-08	-2.931710e+01	-9.486098e+02
5.000000e-07	-3.959091e-06	-1.429297e-08	-2.855163e+01	-9.386157e+02
5.100000e-07	-3.851460e-06	-1.412859e-08	-2.777543e+01	-9.282000e+02
5.200000e-07	-3.742471e-06	-1.395947e-08	-2.698944e+01	-9.173309e+02
5.300000e-07	-3.632253e-06	-1.378311e-08	-2.619458e+01	-9.059768e+02
5.400000e-07	-3.520759e-06	-1.360050e-08	-2.539053e+01	-8.941075e+02
5.500000e-07	-3.407785e-06	-1.340841e-08	-2.457580e+01	-8.816960e+02
5.600000e-07	-3.293291e-06	-1.321004e-08	-2.375011e+01	-8.687176e+02
5.700000e-07	-3.177371e-06	-1.300240e-08	-2.291413e+01	-8.551481e+02
5.800000e-07	-3.060175e-06	-1.278749e-08	-2.206895e+01	-8.409611e+02
5.900000e-07	-2.941909e-06	-1.256202e-08	-2.121605e+01	-8.261249e+02
6.000000e-07	-2.822606e-06	-1.232643e-08	-2.035569e+01	-8.106011e+02
6.100000e-07	-2.702210e-06	-1.207897e-08	-1.948743e+01	-7.943433e+02
6.200000e-07	-2.580766e-06	-1.181550e-08	-1.861161e+01	-7.772985e+02
6.300000e-07	-2.458331e-06	-1.153779e-08	-1.772866e+01	-7.594092e+02
6.400000e-07	-2.334942e-06	-1.124641e-08	-1.683881e+01	-7.406161e+02
6.500000e-07	-2.210684e-06	-1.094380e-08	-1.594271e+01	-7.208603e+02
6.600000e-07	-2.085697e-06	-1.062711e-08	-1.504134e+01	-7.000847e+02
6.700000e-07	-1.960097e-06	-1.029473e-08	-1.413556e+01	-6.782330e+02
6.800000e-07	-1.833889e-06	-9.943280e-09	-1.322539e+01	-6.552484e+02
6.900000e-07	-1.707044e-06	-9.572940e-09	-1.231063e+01	-6.310715e+02
7.000000e-07	-1.579601e-06	-9.185265e-09	-1.139155e+01	-6.056394e+02
7.100000e-07	-1.451596e-06	-8.777825e-09	-1.046842e+01	-5.788875e+02
7.200000e-07	-1.323014e-06	-8.347621e-09	-9.541133e+00	-5.507548e+02
7.300000e-07	-1.193989e-06	-7.895355e-09	-8.610648e+00	-5.211940e+02
7.400000e-07	-1.064623e-06	-7.422507e-09	-7.677700e+00	-4.901831e+02
7.500000e-07	-9.348704e-07	-6.927234e-09	-6.741970e+00	-4.577399e+02
7.600000e-07	-8.048073e-07	-6.412487e-09	-5.803999e+00	-4.239329e+02
7.700000e-07	-6.745136e-07	-5.881117e-09	-4.864364e+00	-3.888887e+02
7.800000e-07	-5.439951e-07	-5.334395e-09	-3.923109e+00	-3.527901e+02
7.900000e-07	-4.133154e-07	-4.774566e-09	-2.980692e+00	-3.158669e+02
8.000000e-07	-2.824854e-07	-4.205187e-09	-2.037190e+00	-2.783752e+02
8.100000e-07	-1.515462e-07	-3.630201e-09	-1.092900e+00	-2.405717e+02
8.200000e-07	-2.052884e-08	-3.051954e-09	-1.480471e-01	-2.026827e+02
8.300000e-07	1.105579e-07	-2.474892e-09	7.973066e-01	-1.648763e+02
8.400000e-07	2.416548e-07	-1.902541e-09	1.742733e+00	-1.272393e+02
8.500000e-07	3.726771e-07	-1.334937e-09	2.687621e+00	-8.976684e+01
8.600000e-07	5.035396e-07	-7.696556e-10	3.631358e+00	-5.236484e+01
8.700000e-07	6.342211e-07	-2.037663e-10	4.573789e+00	-1.486675e+01
8.800000e-07	7.647488e-07	3.672156e-10	5.515110e+00	2.293699e+01
8.900000e-07	8.950997e-07	9.483453e-10	6.455157e+00	6.126159e+01
9.000000e-07	1.025158e-06	1.542023e-09	7.393097e+00	1.002879e+02
9.100000e-07	1.154853e-06	2.150459e-09	8.328410e+00	1.401262e+02
9.200000e-07	1.284130e-06	2.772952e-09	9.260710e+00	1.807894e+02
9.300000e-07	1.412917e-06	3.404411e-09	1.018948e+01	2.221792e+02
9.400000e-07	1.541176e-06	4.042705e-09	1.111444e+01	2.640881e+02
9.500000e-07	1.668837e-06	4.682792e-09	1.203509e+01	3.062151e+02
9.600000e-07	1.795839e-06	5.318793e-09	1.295099e+01	3.481947e+02
9.700000e-07	1.922160e-06	5.948378e-09	1.386197e+01	3.896309e+02
9.800000e-07	2.047809e-06	6.564506e-09	1.476811e+01	4.301352e+02
9.900000e-07	2.172769e-06	7.160945e-09	1.566928e+01	4.693592e+02
1.000000e-06	2.297067e-06	7.732574e-09	1.656567e+01	5.070213e+02
1.010000e-06	2.420578e-06	8.277811e-09	1.745639e+01	5.429217e+02
1.020000e-06	2.543057e-06	8.796628e-09	1.833967e+01	5.769469e+02
1.030000e-06	2.664545e-06	9.286011e-09	1.921580e+01	6.090643e+02
1.040000e-06	2.785046e-06	9.744255e-09	2.008481e+01	6.393083e+02
1.050000e-06	2.904432e-06	1.017488e-08	2.094578e+01	6.677622e+02
1.060000e-06	3.022739e-06	1.058160e-08	2.179897e+01	6.945390e+02
1.070000e-06	3.139943e-06	1.096541e-08	2.264421e+01	7.197636e+02
1.080000e-06	3.255966e-06	1.132789e-08	2.348093e+01	7.435585e+02
1.090000e-06	3.370652e-06	1.167217e-08	2.430801e+01	7.660352e+02
1.100000e-06	3.483980e-06	1.199793e-08	2.512529e+01	7.872897e+02
1.110000e-06	3.596009e-06	1.230567e-08	2.593320e+01	8.074026e+02
1.120000e-06	3.706697e-06	1.259456e-08	2.673145e+01	8.264419e+02
1.130000e-06	3.816151e-06	1.286623e-08	2.752080e+01	8.444673e+02
1.140000e-06	3.924428e-06	1.312463e-08	2.830165e+01	8.615343e+02
1.150000e-06	4.031306e-06	1.336909e-08	2.907242e+01	8.776974e+02
1.160000e-06	4.136638e-06	1.360106e-08	2.983204e+01	8.930118e+02
1.170000e-06	4.240451e-06	1.382148e-08	3.058070e+01	9.075338e+02
1.180000e-06	4.342746e-06	1.403030e-08	3.131842e+01	9.213187e+02
1.190000e-06	4.443620e-06	1.422900e-08	3.204589e+01	9.344196e+02
1.200000e-06	4.542905e-06	1.441697e-08	3.276190e+01	9.468847e+02
1.210000e-06	4.640455e-06	1.459537e-08	3.346540e+01	9.587557e+02
1.220000e-06	4.736241e-06	1.476677e-08	3.415617e+01	9.700663e+02
1.230000e-06	4.830280e-06	1.493100e-08	3.483435e+01	9.808429e+02
1.240000e-06	4.922749e-06	1.508772e-08	3.550120e+01	9.911048e+02
1.250000e-06	5.013459e-06	1.523714e-08	3.615538e+01	1.000866e+03
1.260000e-06	5.102245e-06	1.537999e-08	3.679567e+01	1.010138e+03
1.270000e-06	5.189152e-06	1.551403e-08	3.742241e+01	1.018931e+03
1.280000e-06	5.274249e-06	1.563928e-08	3.803611e+01	1.027254e+03
1.290000e-06	5.357567e-06	1.575776e-08	3.863697e+01	1.035123e+03
1.300000e-06	5.438968e-06	1.587201e-08	3.922400e+01	1.042554e+03
1.310000e-06	5.518344e-06	1.598137e-08	3.979644e+01	1.049566e+03
1.320000e-06	5.595750e-06	1.608365e-08	4.035466e+01	1.056185e+03
1.330000e-06	5.670999e-06	1.618040e-08	4.089733e+01	1.062436e+03
1.340000e-06	5.743926e-06	1.627029e-08	4.142326e+01	1.068348e+03
1.350000e-06	5.814692e-06	1.635307e-08	4.193359e+01	1.073949e+03
1.360000e-06	5.883478e-06	1.643234e-08	4.242966e+01	1.079267e+03
1.370000e-06	5.950210e-06	1.650824e-08	4.291091e+01	1.084327e+03
1.380000e-06	6.014685e-06	1.658053e-08	4.337588e+01	1.089149e+03
1.390000e-06	6.077026e-06	1.664926e-08	4.382546e+01	1.093750e+03
1.400000e-06	6.137400e-06	1.671505e-08	4.426086e+01	1.098141e+03
1.410000e-06	6.195630e-06	1.677881e-08	4.468079e+01	1.102326e+03
1.420000e-06	6.251596e-06	1.684029e-08	4.508440e+01	1.106306e+03
1.430000e-06	6.305373e-06	1.689928e-08	4.547222e+01	1.110078e+03
1.440000e-06	6.356657e-06	1.695402e-08	4.584207e+01	1.113633e+03
1.450000e-06	6.405285e-06	1.700360e-08	4.619275e+01	1.116967e+03
1.460000e-06	6.451529e-06	1.704822e-08	4.652625e+01	1.120073e+03
1.470000e-06	6.495593e-06	1.709017e-08	4.684403e+01	1.122948e+03
1.480000e-06	6.537332e-06	1.712992e-08	4.714503e+01	1.125594e+03
1.490000e-06	6.576626e-06	1.716656e-08	4.742841e+01	1.128016e+03
1.500000e-06	6.613695e-06	1.720050e-08	4.769574e+01	1.130223e+03
1.510000e-06	6.648538e-06	1.723068e-08	4.794701e+01	1.132226e+03
1.520000e-06	6.680927e-06	1.725822e-08	4.818059e+01	1.134037e+03
1.530000e-06	6.710980e-06	1.728384e-08	4.839732e+01	1.135665e+03
1.540000e-06	6.738777e-06	1.730501e-08	4.859779e+01	1.137119e+03
1.550000e-06	6.764042e-06	1.732212e-08	4.877999e+01	1.138404e+03
1.560000e-06	6.786761e-06	1.733742e-08	4.894383e+01	1.139522e+03
1.570000e-06	6.807186e-06	1.735071e-08	4.909113e+01	1.140475e+03
1.580000e-06	6.825208e-06	1.736181e-08	4.922110e+01	1.141264e+03
1.590000e-06	6.840648e-06	1.737172e-08	4.933244e+01	1.141892e+03
1.600000e-06	6.853530e-06	1.738116e-08	4.942534e+01	1.142366e+03
1.610000e-06	6.863712e-06	1.738871e-08	4.949877e+01	1.142696e+03
1.620000e-06	6.871173e-06	1.739244e-08	4.955258e+01	1.142892e+03
1.630000e-06	6.876206e-06	1.739417e-08	4.958888e+01	1.142966e+03
1.640000e-06	6.878829e-06	1.739603e-08	4.960779e+01	1.142929e+03
1.650000e-06	6.878982e-06	1.739586e-08	4.960890e+01	1.142784e+03
1.660000e-06	6.876864e-06	1.739029e-08	4.959362e+01	1.142530e+03
1.670000e-06	6.872548e-06	1.738349e-08	4.956250e+01	1.142161e+03
1.680000e-06	6.865868e-06	1.737789e-08	4.951433e+01	1.141664e+03
1.690000e-06	6.856884e-06	1.736949e-08	4.944954e+01	1.141027e+03
1.700000e-06	6.845705e-06	1.735879e-08	4.936891e+01	1.140241e+03
1.710000e-06	6.832117e-06	1.734884e-08	4.927092e+01	1.139303e+03
1.720000e-06	6.816164e-06	1.734011e-08	4.915588e+01	1.138218e+03
1.730000e-06	6.798155e-06	1.731233e-08	4.902600e+01	1.137003e+03
1.740000e-06	6.777956e-06	1.725757e-08	4.888034e+01	1.135682e+03
1.750000e-06	6.754759e-06	1.723628e-08	4.871304e+01	1.134285e+03
1.760000e-06	6.728359e-06	1.723445e-08	4.852266e+01	1.132839e+03
1.770000e-06	6.699249e-06	1.721279e-08	4.831272e+01	1.131365e+03
1.780000e-06	6.667889e-06	1.722180e-08	4.808656e+01	1.129870e+03
1.790000e-06	6.634844e-06	1.721354e-08	4.784826e+01	1.128348e+03
1.800000e-06	6.600384e-06	1.714873e-08	4.759975e+01	1.126774e+03
1.810000e-06	6.563871e-06	1.715125e-08	4.733642e+01	1.125114e+03
1.820000e-06	6.524794e-06	1.714317e-08	4.705461e+01	1.123325e+03
1.830000e-06	6.483531e-06	1.711487e-08	4.675704e+01	1.121363e+03
1.840000e-06	6.440114e-06	1.712079e-08	4.644393e+01	1.119190e+03
1.850000e-06	6.394395e-06	1.704429e-08	4.611422e+01	1.116782e+03
1.860000e-06	6.346367e-06	1.698832e-08	4.576786e+01	1.114128e+03
1.870000e-06	6.295940e-06	1.694779e-08	4.540419e+01	1.111233e+03
1.880000e-06	6.243085e-06	1.688637e-08	4.502302e+01	1.108112e+03
1.890000e-06	6.187555e-06	1.687607e-08	4.462256e+01	1.104789e+03
1.900000e-06	6.129514e-06	1.680686e-08	4.420398e+01	1.101288e+03
1.910000e-06	6.069297e-06	1.675575e-08	4.376972e+01	1.097627e+03
1.920000e-06	6.006739e-06	1.671908e-08	4.331858e+01	1.093817e+03
1.930000e-06	5.941931e-06	1.662510e-08	4.285120e+01	1.089858e+03
1.940000e-06	5.875016e-06	1.658209e-08	4.236863e+01	1.085743e+03
1.950000e-06	5.805919e-06	1.650913e-08	4.187033e+01	1.081457e+03
1.960000e-06	5.734483e-06	1.644230e-08	4.135516e+01	1.076982e+03
1.970000e-06	5.660801e-06	1.637403e-08	4.082379e+01	1.072304e+03
1.980000e-06	5.584980e-06	1.629300e-08	4.027699e+01	1.067409e+03
1.990000e-06	5.506791e-06	1.623472e-08	3.971312e+01	1.062291e+03
2.000000e-06	5.426513e-06	1.613753e-08	3.913418e+01	1.056944e+03
2.010000e-06	5.344440e-06	1.605534e-08	3.854230e+01	1.051366e+03
2.020000e-06	5.260544e-06	1.595789e-08	3.793727e+01	1.045555e+03
2.030000e-06	5.174660e-06	1.586561e-08	3.731790e+01	1.039504e+03
2.040000e-06	5.086730e-06	1.578022e-08	3.668378e+01	1.033205e+03
2.050000e-06	4.997097e-06	1.567612e-08	3.603738e+01	1.026644e+03
2.060000e-06	4.905945e-06	1.557887e-08	3.538002e+01	1.019806e+03
2.070000e-06	4.813149e-06	1.546310e-08	3.471081e+01	1.012676e+03
2.080000e-06	4.718518e-06	1.535348e-08	3.402836e+01	1.005242e+03
2.090000e-06	4.622170e-06	1.523506e-08	3.333353e+01	9.974923e+02
2.100000e-06	4.524265e-06	1.511691e-08	3.262748e+01	9.894203e+02
2.110000e-06	4.424881e-06	1.499374e-08	3.191075e+01	9.810199e+02
2.120000e-06	4.323929e-06	1.485793e-08	3.118272e+01	9.722845e+02
2.130000e-06	4.221282e-06	1.471352e-08	3.044246e+01	9.632039e+02
2.140000e-06	4.117071e-06	1.456351e-08	2.969093e+01	9.537630e+02
2.150000e-06	4.011357e-06	1.442029e-08	2.892856e+01	9.439404e+02
2.160000e-06	3.904301e-06	1.426713e-08	2.815650e+01	9.337089e+02
2.170000e-06	3.795979e-06	1.410983e-08	2.737532e+01	9.230379e+02
2.180000e-06	3.686301e-06	1.394380e-08	2.658436e+01	9.118953e+02
2.190000e-06	3.575170e-06	1.377037e-08	2.578292e+01	9.002501e+02
2.200000e-06	3.462595e-06	1.358460e-08	2.497107e+01	8.880740e+02
2.210000e-06	3.348651e-06	1.338951e-08	2.414934e+01	8.753413e+02
2.220000e-06	3.233351e-06	1.318617e-08	2.331784e+01	8.620280e+02
2.230000e-06	3.116675e-06	1.297505e-08	2.247641e+01	8.481090e+02
2.240000e-06	2.998639e-06	1.275266e-08	2.162517e+01	8.335551e+02
2.250000e-06	2.879434e-06	1.251848e-08	2.076551e+01	8.183310e+02
2.260000e-06	2.759117e-06	1.227695e-08	1.989782e+01	8.023938e+02
2.270000e-06	2.637723e-06	1.202449e-08	1.902237e+01	7.856929e+02
2.280000e-06	2.515447e-06	1.176062e-08	1.814055e+01	7.681726e+02
2.290000e-06	2.392362e-06	1.148273e-08	1.725290e+01	7.497740e+02
2.300000e-06	2.268439e-06	1.119177e-08	1.635922e+01	7.304377e+02
2.310000e-06	2.143732e-06	1.088222e-08	1.545987e+01	7.101059e+02
2.320000e-06	2.018256e-06	1.055493e-08	1.455498e+01	6.887221e+02
2.330000e-06	1.892020e-06	1.021070e-08	1.364461e+01	6.662299e+02
2.340000e-06	1.765120e-06	9.850117e-09	1.272945e+01	6.425713e+02
2.350000e-06	1.637600e-06	9.473178e-09	1.180982e+01	6.176849e+02
2.360000e-06	1.509485e-06	9.076858e-09	1.088589e+01	5.915063e+02
2.370000e-06	1.380820e-06	8.658464e-09	9.958007e+00	5.639721e+02
2.380000e-06	1.251715e-06	8.216216e-09	9.026946e+00	5.350276e+02
2.390000e-06	1.122288e-06	7.752118e-09	8.093564e+00	5.046385e+02
2.400000e-06	9.925577e-07	7.264962e-09	7.157991e+00	4.728037e+02
2.410000e-06	8.625337e-07	6.756195e-09	6.220302e+00	4.395690e+02
2.420000e-06	7.322336e-07	6.227641e-09	5.280621e+00	4.050356e+02
2.430000e-06	6.017027e-07	5.681361e-09	4.339277e+00	3.693630e+02
2.440000e-06	4.709823e-07	5.121478e-09	3.396566e+00	3.327626e+02
2.450000e-06	3.400950e-07	4.551213e-09	2.452651e+00	2.954824e+02
2.460000e-06	2.090534e-07	3.973290e-09	1.507623e+00	2.577821e+02
2.470000e-06	7.790314e-08	3.393566e-09	5.618111e-01	2.199050e+02
2.480000e-06	-5.331447e-08	2.816654e-09	-3.844860e-01	1.820473e+02
2.490000e-06	-1.845528e-07	2.241061e-09	-1.330932e+00	1.443326e+02
2.500000e-06	-3.157313e-07	1.664919e-09	-2.276947e+00	1.067960e+02
2.510000e-06	-4.467807e-07	1.088928e-09	-3.222032e+00	6.938042e+01
2.520000e-06	-5.777463e-07	5.119864e-10	-4.166511e+00	3.194728e+01
2.530000e-06	-7.085365e-07	-6.767471e-11	-5.109727e+00	-5.698705e+00
2.540000e-06	-8.390501e-07	-6.506789e-10	-6.050946e+00	-4.377520e+01
2.550000e-06	-9.693022e-07	-1.242593e-09	-6.990280e+00	-8.248258e+01
2.560000e-06	-1.099224e-06	-1.846329e-09	-7.927232e+00	-1.219654e+02
2.570000e-06	-1.228767e-06	-2.461462e-09	-8.861457e+00	-1.622806e+02
2.580000e-06	-1.357929e-06	-3.087193e-09	-9.792927e+00	-2.033785e+02
2.590000e-06	-1.486693e-06	-3.723290e-09	-1.072153e+01	-2.450969e+02
2.600000e-06	-1.614909e-06	-4.366826e-09	-1.164618e+01	-2.871724e+02
2.610000e-06	-1.742453e-06	-5.010501e-09	-1.256598e+01	-3.292629e+02
2.620000e-06	-1.869326e-06	-5.649257e-09	-1.348095e+01	-3.709810e+02
2.630000e-06	-1.995456e-06	-6.277724e-09	-1.439056e+01	-4.119306e+02
2.640000e-06	-2.120791e-06	-6.889897e-09	-1.529443e+01	-4.517423e+02
2.650000e-06	-2.245335e-06	-7.478071e-09	-1.619260e+01	-4.901034e+02
2.660000e-06	-2.369041e-06	-8.038525e-09	-1.708472e+01	-5.267778e+02
2.670000e-06	-2.491789e-06	-8.570554e-09	-1.796994e+01	-5.616154e+02
2.680000e-06	-2.613616e-06	-9.071649e-09	-1.884851e+01	-5.945499e+02
2.690000e-06	-2.734547e-06	-9.545097e-09	-1.972063e+01	-6.255891e+02
2.700000e-06	-2.854379e-06	-9.993983e-09	-2.058482e+01	-6.547978e+02
2.710000e-06	-2.973060e-06	-1.041724e-08	-2.144071e+01	-6.822786e+02
2.720000e-06	-3.090643e-06	-1.081420e-08	-2.228868e+01	-7.081532e+02
2.730000e-06	-3.206984e-06	-1.118722e-08	-2.312769e+01	-7.325466e+02
2.740000e-06	-3.321932e-06	-1.153864e-08	-2.395666e+01	-7.555757e+02
2.750000e-06	-3.435492e-06	-1.186964e-08	-2.477561e+01	-7.773434e+02
2.760000e-06	-3.547731e-06	-1.218191e-08	-2.558504e+01	-7.979368e+02
2.770000e-06	-3.658619e-06	-1.247861e-08	-2.638473e+01	-8.174287e+02
2.780000e-06	-3.768213e-06	-1.276216e-08	-2.717508e+01	-8.358819e+02
2.790000e-06	-3.876641e-06	-1.303023e-08	-2.795703e+01	-8.533531e+02
2.800000e-06	-3.983772e-06	-1.328280e-08	-2.872962e+01	-8.698970e+02
2.810000e-06	-4.089557e-06	-1.352249e-08	-2.949251e+01	-8.855685e+02
2.820000e-06	-4.193900e-06	-1.375092e-08	-3.024499e+01	-9.004234e+02
2.830000e-06	-4.296624e-06	-1.397107e-08	-3.098580e+01	-9.145176e+02
2.840000e-06	-4.397758e-06	-1.418095e-08	-3.171515e+01	-9.279057e+02
2.850000e-06	-4.497366e-06	-1.437869e-08	-3.243349e+01	-9.406379e+02
2.860000e-06	-4.595474e-06	-1.456247e-08	-3.314101e+01	-9.527591e+02
2.870000e-06	-4.691998e-06	-1.473513e-08	-3.383711e+01	-9.643063e+02
2.880000e-06	-4.786787e-06	-1.490146e-08	-3.452069e+01	-9.753092e+02
2.890000e-06	-4.879861e-06	-1.506038e-08	-3.519191e+01	-9.857899e+02
2.900000e-06	-4.971222e-06	-1.521323e-08	-3.585078e+01	-9.957645e+02
2.910000e-06	-5.060833e-06	-1.536056e-08	-3.649702e+01	-1.005245e+03
2.920000e-06	-5.148600e-06	-1.550142e-08	-3.712997e+01	-1.014242e+03
2.930000e-06	-5.234353e-06	-1.563217e-08	-3.774839e+01	-1.022765e+03
2.940000e-06	-5.318168e-06	-1.575309e-08	-3.835283e+01	-1.030828e+03
