# Temperatura_=_72.88
# Concentracion g/m^3_=_28200.0
# C_Vs_to_Am_M_A/Vsm_=_65563218390.804596
# pendiente_HvsI_1/m_=_3716.3
# ordenada_HvsI_A/m_=_1297.0
# frecuencia_Hz_=_302287.89211787254

Tiempo_(s)	Campo_(V.s)	Magnetizacion_(V.s)	Campo_(kA/m)	Magnetizacion_(A/m)
0.000000e+00	-6.927965e-06	-2.651000e-08	-4.951515e+01	-1.736274e+03
1.000000e-08	-6.925105e-06	-2.650560e-08	-4.949471e+01	-1.735818e+03
2.000000e-08	-6.919885e-06	-2.649628e-08	-4.945740e+01	-1.735167e+03
3.000000e-08	-6.912524e-06	-2.648524e-08	-4.940479e+01	-1.734327e+03
4.000000e-08	-6.902846e-06	-2.647049e-08	-4.933562e+01	-1.733303e+03
5.000000e-08	-6.890648e-06	-2.645060e-08	-4.924844e+01	-1.732098e+03
6.000000e-08	-6.875821e-06	-2.642637e-08	-4.914247e+01	-1.730715e+03
7.000000e-08	-6.858595e-06	-2.640247e-08	-4.901935e+01	-1.729155e+03
8.000000e-08	-6.839401e-06	-2.638671e-08	-4.888217e+01	-1.727426e+03
9.000000e-08	-6.817980e-06	-2.640478e-08	-4.872907e+01	-1.725540e+03
1.000000e-07	-6.793826e-06	-2.635932e-08	-4.855644e+01	-1.723513e+03
1.100000e-07	-6.766881e-06	-2.628765e-08	-4.836386e+01	-1.721373e+03
1.200000e-07	-6.737435e-06	-2.624680e-08	-4.815341e+01	-1.719142e+03
1.300000e-07	-6.705833e-06	-2.620440e-08	-4.792754e+01	-1.716841e+03
1.400000e-07	-6.672049e-06	-2.612572e-08	-4.768608e+01	-1.714476e+03
1.500000e-07	-6.636358e-06	-2.610207e-08	-4.743099e+01	-1.712034e+03
1.600000e-07	-6.598878e-06	-2.613344e-08	-4.716312e+01	-1.709480e+03
1.700000e-07	-6.559288e-06	-2.599174e-08	-4.688016e+01	-1.706764e+03
1.800000e-07	-6.517408e-06	-2.596871e-08	-4.658084e+01	-1.703821e+03
1.900000e-07	-6.472989e-06	-2.593623e-08	-4.626337e+01	-1.700588e+03
2.000000e-07	-6.426169e-06	-2.582475e-08	-4.592875e+01	-1.697014e+03
2.100000e-07	-6.376933e-06	-2.581595e-08	-4.557684e+01	-1.693068e+03
2.200000e-07	-6.324976e-06	-2.572650e-08	-4.520550e+01	-1.688746e+03
2.300000e-07	-6.270451e-06	-2.566805e-08	-4.481581e+01	-1.684071e+03
2.400000e-07	-6.213598e-06	-2.560432e-08	-4.440947e+01	-1.679082e+03
2.500000e-07	-6.154396e-06	-2.550311e-08	-4.398635e+01	-1.673828e+03
2.600000e-07	-6.092934e-06	-2.543069e-08	-4.354706e+01	-1.668353e+03
2.700000e-07	-6.029206e-06	-2.533466e-08	-4.309159e+01	-1.662683e+03
2.800000e-07	-5.963163e-06	-2.524008e-08	-4.261957e+01	-1.656822e+03
2.900000e-07	-5.894894e-06	-2.513947e-08	-4.213165e+01	-1.650752e+03
3.000000e-07	-5.824447e-06	-2.504946e-08	-4.162815e+01	-1.644438e+03
3.100000e-07	-5.751853e-06	-2.496322e-08	-4.110931e+01	-1.637838e+03
3.200000e-07	-5.676958e-06	-2.484535e-08	-4.057402e+01	-1.630913e+03
3.300000e-07	-5.599634e-06	-2.474717e-08	-4.002138e+01	-1.623637e+03
3.400000e-07	-5.519972e-06	-2.461205e-08	-3.945202e+01	-1.616003e+03
3.500000e-07	-5.438242e-06	-2.449228e-08	-3.886789e+01	-1.608019e+03
3.600000e-07	-5.354766e-06	-2.437794e-08	-3.827128e+01	-1.599705e+03
3.700000e-07	-5.269557e-06	-2.424199e-08	-3.766227e+01	-1.591078e+03
3.800000e-07	-5.182577e-06	-2.411616e-08	-3.704061e+01	-1.582146e+03
3.900000e-07	-5.093789e-06	-2.396749e-08	-3.640604e+01	-1.572903e+03
4.000000e-07	-5.003092e-06	-2.381604e-08	-3.575781e+01	-1.563322e+03
4.100000e-07	-4.910624e-06	-2.365193e-08	-3.509693e+01	-1.553362e+03
4.200000e-07	-4.816574e-06	-2.350173e-08	-3.442474e+01	-1.542978e+03
4.300000e-07	-4.720872e-06	-2.333876e-08	-3.374075e+01	-1.532126e+03
4.400000e-07	-4.623434e-06	-2.316097e-08	-3.304434e+01	-1.520778e+03
4.500000e-07	-4.524252e-06	-2.298160e-08	-3.233547e+01	-1.508921e+03
4.600000e-07	-4.423424e-06	-2.279177e-08	-3.161484e+01	-1.496559e+03
4.700000e-07	-4.321097e-06	-2.259838e-08	-3.088349e+01	-1.483703e+03
4.800000e-07	-4.217213e-06	-2.239387e-08	-3.014102e+01	-1.470364e+03
4.900000e-07	-4.111804e-06	-2.218930e-08	-2.938765e+01	-1.456543e+03
5.000000e-07	-4.004895e-06	-2.196745e-08	-2.862356e+01	-1.442218e+03
5.100000e-07	-3.896473e-06	-2.173406e-08	-2.784865e+01	-1.427348e+03
5.200000e-07	-3.786708e-06	-2.149046e-08	-2.706414e+01	-1.411873e+03
5.300000e-07	-3.675613e-06	-2.124031e-08	-2.627013e+01	-1.395725e+03
5.400000e-07	-3.563105e-06	-2.098101e-08	-2.546602e+01	-1.378839e+03
5.500000e-07	-3.449170e-06	-2.070850e-08	-2.465171e+01	-1.361162e+03
5.600000e-07	-3.333704e-06	-2.042793e-08	-2.382646e+01	-1.342658e+03
5.700000e-07	-3.216746e-06	-2.013194e-08	-2.299054e+01	-1.323307e+03
5.800000e-07	-3.098606e-06	-1.982530e-08	-2.214618e+01	-1.303098e+03
5.900000e-07	-2.979405e-06	-1.950514e-08	-2.129423e+01	-1.282013e+03
6.000000e-07	-2.859085e-06	-1.917254e-08	-2.043429e+01	-1.260015e+03
6.100000e-07	-2.737707e-06	-1.882009e-08	-1.956678e+01	-1.237040e+03
6.200000e-07	-2.615265e-06	-1.844962e-08	-1.869167e+01	-1.212990e+03
6.300000e-07	-2.491776e-06	-1.806007e-08	-1.780908e+01	-1.187741e+03
6.400000e-07	-2.367287e-06	-1.764771e-08	-1.691934e+01	-1.161150e+03
6.500000e-07	-2.241984e-06	-1.721335e-08	-1.602378e+01	-1.133075e+03
6.600000e-07	-2.116103e-06	-1.675940e-08	-1.512409e+01	-1.103380e+03
6.700000e-07	-1.989592e-06	-1.628441e-08	-1.421990e+01	-1.071948e+03
6.800000e-07	-1.862330e-06	-1.577967e-08	-1.331034e+01	-1.038676e+03
6.900000e-07	-1.734341e-06	-1.524589e-08	-1.239558e+01	-1.003466e+03
7.000000e-07	-1.605719e-06	-1.467911e-08	-1.147630e+01	-9.662143e+02
7.100000e-07	-1.476540e-06	-1.407849e-08	-1.055304e+01	-9.267936e+02
7.200000e-07	-1.346934e-06	-1.343720e-08	-9.626731e+00	-8.850522e+02
7.300000e-07	-1.216948e-06	-1.275547e-08	-8.697704e+00	-8.408202e+02
7.400000e-07	-1.086561e-06	-1.203523e-08	-7.765806e+00	-7.939322e+02
7.500000e-07	-9.557674e-07	-1.127414e-08	-6.831005e+00	-7.442626e+02
7.600000e-07	-8.246337e-07	-1.047535e-08	-5.893774e+00	-6.917658e+02
7.700000e-07	-6.932014e-07	-9.635091e-09	-4.954409e+00	-6.365122e+02
7.800000e-07	-5.614777e-07	-8.756141e-09	-4.012961e+00	-5.787095e+02
7.900000e-07	-4.295996e-07	-7.845877e-09	-3.070409e+00	-5.186993e+02
8.000000e-07	-2.976197e-07	-6.908441e-09	-2.127130e+00	-4.569267e+02
8.100000e-07	-1.654387e-07	-5.949545e-09	-1.182414e+00	-3.938844e+02
8.200000e-07	-3.311445e-08	-4.976573e-09	-2.366737e-01	-3.300394e+02
8.300000e-07	9.924049e-08	-3.995174e-09	7.092859e-01	-2.657588e+02
8.400000e-07	2.316332e-07	-3.008715e-09	1.655515e+00	-2.012482e+02
8.500000e-07	3.640182e-07	-2.019655e-09	2.601690e+00	-1.365197e+02
8.600000e-07	4.962570e-07	-1.028945e-09	3.546819e+00	-7.139782e+01
8.700000e-07	6.282702e-07	-3.117398e-11	4.490336e+00	-5.566757e+00
8.800000e-07	7.600337e-07	9.808412e-10	5.432069e+00	6.134919e+01
8.900000e-07	8.915390e-07	2.013535e-09	6.371956e+00	1.296850e+02
9.000000e-07	1.022735e-06	3.072984e-09	7.309630e+00	1.996341e+02
9.100000e-07	1.153567e-06	4.161561e-09	8.244710e+00	2.711674e+02
9.200000e-07	1.284033e-06	5.275527e-09	9.177165e+00	3.439886e+02
9.300000e-07	1.414073e-06	6.402543e-09	1.010658e+01	4.175354e+02
9.400000e-07	1.543598e-06	7.529096e-09	1.103231e+01	4.910270e+02
9.500000e-07	1.672509e-06	8.637029e-09	1.195366e+01	5.635493e+02
9.600000e-07	1.800738e-06	9.708526e-09	1.287013e+01	6.341616e+02
9.700000e-07	1.928238e-06	1.073201e-08	1.378139e+01	7.020053e+02
9.800000e-07	2.054988e-06	1.170113e-08	1.468729e+01	7.663948e+02
9.900000e-07	2.181011e-06	1.261514e-08	1.558799e+01	8.268766e+02
1.000000e-06	2.306352e-06	1.346770e-08	1.648383e+01	8.832491e+02
1.010000e-06	2.430966e-06	1.425986e-08	1.737446e+01	9.355429e+02
1.020000e-06	2.554653e-06	1.499632e-08	1.825847e+01	9.839712e+02
1.030000e-06	2.677294e-06	1.568093e-08	1.913500e+01	1.028862e+03
1.040000e-06	2.798976e-06	1.631628e-08	2.000468e+01	1.070589e+03
1.050000e-06	2.919572e-06	1.690695e-08	2.086660e+01	1.109511e+03
1.060000e-06	3.038947e-06	1.745965e-08	2.171978e+01	1.145935e+03
1.070000e-06	3.157260e-06	1.797655e-08	2.256539e+01	1.180101e+03
1.080000e-06	3.274496e-06	1.845840e-08	2.340329e+01	1.212181e+03
1.090000e-06	3.390494e-06	1.891130e-08	2.423234e+01	1.242307e+03
1.100000e-06	3.505116e-06	1.933798e-08	2.505156e+01	1.270586e+03
1.110000e-06	3.618280e-06	1.973950e-08	2.586036e+01	1.297127e+03
1.120000e-06	3.730018e-06	2.011946e-08	2.665897e+01	1.322053e+03
1.130000e-06	3.840465e-06	2.047902e-08	2.744835e+01	1.345503e+03
1.140000e-06	3.949733e-06	2.082075e-08	2.822930e+01	1.367622e+03
1.150000e-06	4.057698e-06	2.114241e-08	2.900095e+01	1.388550e+03
1.160000e-06	4.164248e-06	2.144561e-08	2.976247e+01	1.408412e+03
1.170000e-06	4.269249e-06	2.173324e-08	3.051293e+01	1.427301e+03
1.180000e-06	4.372580e-06	2.200447e-08	3.125145e+01	1.445285e+03
1.190000e-06	4.474387e-06	2.226022e-08	3.197908e+01	1.462402e+03
1.200000e-06	4.574711e-06	2.250239e-08	3.269611e+01	1.478677e+03
1.210000e-06	4.673407e-06	2.273217e-08	3.340151e+01	1.494132e+03
1.220000e-06	4.770330e-06	2.295375e-08	3.409422e+01	1.508793e+03
1.230000e-06	4.865383e-06	2.316725e-08	3.477358e+01	1.522702e+03
1.240000e-06	4.958695e-06	2.337244e-08	3.544050e+01	1.535910e+03
1.250000e-06	5.050366e-06	2.356748e-08	3.609568e+01	1.548477e+03
1.260000e-06	5.140222e-06	2.375054e-08	3.673790e+01	1.560462e+03
1.270000e-06	5.228126e-06	2.392253e-08	3.736616e+01	1.571916e+03
1.280000e-06	5.314163e-06	2.408485e-08	3.798108e+01	1.582872e+03
1.290000e-06	5.398443e-06	2.424021e-08	3.858344e+01	1.593348e+03
1.300000e-06	5.480872e-06	2.439175e-08	3.917257e+01	1.603349e+03
1.310000e-06	5.561212e-06	2.453784e-08	3.974677e+01	1.612870e+03
1.320000e-06	5.639415e-06	2.467700e-08	4.030570e+01	1.621904e+03
1.330000e-06	5.715477e-06	2.481150e-08	4.084932e+01	1.630452e+03
1.340000e-06	5.789285e-06	2.493991e-08	4.137684e+01	1.638523e+03
1.350000e-06	5.860920e-06	2.506138e-08	4.188883e+01	1.646136e+03
1.360000e-06	5.930470e-06	2.517422e-08	4.238591e+01	1.653318e+03
1.370000e-06	5.997909e-06	2.527848e-08	4.286791e+01	1.660099e+03
1.380000e-06	6.063154e-06	2.537308e-08	4.333422e+01	1.666511e+03
1.390000e-06	6.126263e-06	2.546111e-08	4.378528e+01	1.672577e+03
1.400000e-06	6.187401e-06	2.554624e-08	4.422223e+01	1.678319e+03
1.410000e-06	6.246413e-06	2.562845e-08	4.464400e+01	1.683751e+03
1.420000e-06	6.303106e-06	2.570794e-08	4.504919e+01	1.688887e+03
1.430000e-06	6.357526e-06	2.578409e-08	4.543814e+01	1.693738e+03
1.440000e-06	6.409496e-06	2.585757e-08	4.580958e+01	1.698318e+03
1.450000e-06	6.458777e-06	2.592646e-08	4.616180e+01	1.702642e+03
1.460000e-06	6.505587e-06	2.598901e-08	4.649635e+01	1.706722e+03
1.470000e-06	6.550260e-06	2.604617e-08	4.681564e+01	1.710569e+03
1.480000e-06	6.592668e-06	2.609960e-08	4.711874e+01	1.714187e+03
1.490000e-06	6.632602e-06	2.614950e-08	4.740415e+01	1.717570e+03
1.500000e-06	6.670186e-06	2.619672e-08	4.767277e+01	1.720708e+03
1.510000e-06	6.705505e-06	2.624134e-08	4.792520e+01	1.723585e+03
1.520000e-06	6.738409e-06	2.628389e-08	4.816037e+01	1.726186e+03
1.530000e-06	6.768884e-06	2.632324e-08	4.837818e+01	1.728502e+03
1.540000e-06	6.797060e-06	2.635549e-08	4.857955e+01	1.730533e+03
1.550000e-06	6.822757e-06	2.638132e-08	4.876322e+01	1.732289e+03
1.560000e-06	6.845843e-06	2.640259e-08	4.892822e+01	1.733788e+03
1.570000e-06	6.866545e-06	2.642103e-08	4.907617e+01	1.735058e+03
1.580000e-06	6.884947e-06	2.643694e-08	4.920769e+01	1.736123e+03
1.590000e-06	6.900784e-06	2.645073e-08	4.932088e+01	1.737005e+03
1.600000e-06	6.913992e-06	2.646356e-08	4.941528e+01	1.737718e+03
1.610000e-06	6.924506e-06	2.647414e-08	4.949043e+01	1.738266e+03
1.620000e-06	6.932300e-06	2.648205e-08	4.954613e+01	1.738645e+03
1.630000e-06	6.937678e-06	2.648640e-08	4.958457e+01	1.738846e+03
1.640000e-06	6.940658e-06	2.648888e-08	4.960587e+01	1.738860e+03
1.650000e-06	6.941082e-06	2.648913e-08	4.960890e+01	1.738679e+03
1.660000e-06	6.939116e-06	2.647904e-08	4.959485e+01	1.738300e+03
1.670000e-06	6.934981e-06	2.646931e-08	4.956529e+01	1.737725e+03
1.680000e-06	6.928455e-06	2.645857e-08	4.951865e+01	1.736958e+03
1.690000e-06	6.919535e-06	2.644570e-08	4.945490e+01	1.736005e+03
1.700000e-06	6.908435e-06	2.642979e-08	4.937557e+01	1.734871e+03
1.710000e-06	6.894947e-06	2.641224e-08	4.927916e+01	1.733557e+03
1.720000e-06	6.879040e-06	2.639778e-08	4.916548e+01	1.732066e+03
1.730000e-06	6.861056e-06	2.635253e-08	4.903694e+01	1.730402e+03
1.740000e-06	6.840874e-06	2.627658e-08	4.889270e+01	1.728575e+03
1.750000e-06	6.817680e-06	2.627324e-08	4.872693e+01	1.726601e+03
1.760000e-06	6.791252e-06	2.626607e-08	4.853804e+01	1.724501e+03
1.770000e-06	6.762078e-06	2.621897e-08	4.832953e+01	1.722303e+03
1.780000e-06	6.730649e-06	2.622906e-08	4.810490e+01	1.720028e+03
1.790000e-06	6.697457e-06	2.621781e-08	4.786767e+01	1.717688e+03
1.800000e-06	6.662852e-06	2.610125e-08	4.762035e+01	1.715278e+03
1.810000e-06	6.626271e-06	2.612961e-08	4.735890e+01	1.712774e+03
1.820000e-06	6.587121e-06	2.609978e-08	4.707909e+01	1.710128e+03
1.830000e-06	6.545766e-06	2.603059e-08	4.678352e+01	1.707281e+03
1.840000e-06	6.502184e-06	2.608110e-08	4.647203e+01	1.704169e+03
1.850000e-06	6.456238e-06	2.593507e-08	4.614365e+01	1.700734e+03
1.860000e-06	6.407974e-06	2.589889e-08	4.579870e+01	1.696936e+03
1.870000e-06	6.357194e-06	2.585768e-08	4.543577e+01	1.692760e+03
1.880000e-06	6.303977e-06	2.572210e-08	4.505542e+01	1.688219e+03
1.890000e-06	6.248243e-06	2.571251e-08	4.465708e+01	1.683347e+03
1.900000e-06	6.190023e-06	2.559587e-08	4.424097e+01	1.678192e+03
1.910000e-06	6.129548e-06	2.553810e-08	4.380875e+01	1.672799e+03
1.920000e-06	6.066667e-06	2.547708e-08	4.335933e+01	1.667203e+03
1.930000e-06	6.001560e-06	2.535867e-08	4.289400e+01	1.661417e+03
1.940000e-06	5.934317e-06	2.531071e-08	4.241341e+01	1.655433e+03
1.950000e-06	5.864755e-06	2.516193e-08	4.191624e+01	1.649219e+03
1.960000e-06	5.792784e-06	2.508542e-08	4.140185e+01	1.642736e+03
1.970000e-06	5.718539e-06	2.496284e-08	4.087121e+01	1.635942e+03
1.980000e-06	5.642124e-06	2.485372e-08	4.032506e+01	1.628805e+03
1.990000e-06	5.563330e-06	2.477504e-08	3.976191e+01	1.621312e+03
2.000000e-06	5.482498e-06	2.462254e-08	3.918419e+01	1.613463e+03
2.010000e-06	5.399911e-06	2.451803e-08	3.859393e+01	1.605276e+03
2.020000e-06	5.315369e-06	2.436466e-08	3.798969e+01	1.596770e+03
2.030000e-06	5.228771e-06	2.424297e-08	3.737077e+01	1.587957e+03
2.040000e-06	5.140203e-06	2.410646e-08	3.673776e+01	1.578838e+03
2.050000e-06	5.049968e-06	2.396402e-08	3.609284e+01	1.569394e+03
2.060000e-06	4.958124e-06	2.382214e-08	3.543642e+01	1.559588e+03
2.070000e-06	4.864552e-06	2.364955e-08	3.476764e+01	1.549375e+03
2.080000e-06	4.769170e-06	2.349367e-08	3.408593e+01	1.538711e+03
2.090000e-06	4.672103e-06	2.331340e-08	3.339218e+01	1.527561e+03
2.100000e-06	4.573486e-06	2.314942e-08	3.268735e+01	1.515904e+03
2.110000e-06	4.473290e-06	2.296824e-08	3.197124e+01	1.503738e+03
2.120000e-06	4.371522e-06	2.277826e-08	3.124389e+01	1.491074e+03
2.130000e-06	4.268114e-06	2.257296e-08	3.050481e+01	1.477924e+03
2.140000e-06	4.163126e-06	2.236033e-08	2.975445e+01	1.464293e+03
2.150000e-06	4.056697e-06	2.214796e-08	2.899379e+01	1.450169e+03
2.160000e-06	3.948940e-06	2.192560e-08	2.822364e+01	1.435519e+03
2.170000e-06	3.839755e-06	2.169951e-08	2.744328e+01	1.420290e+03
2.180000e-06	3.729097e-06	2.145829e-08	2.665239e+01	1.404414e+03
2.190000e-06	3.616969e-06	2.121058e-08	2.585099e+01	1.387825e+03
2.200000e-06	3.503447e-06	2.094387e-08	2.503963e+01	1.370463e+03
2.210000e-06	3.388569e-06	2.067007e-08	2.421858e+01	1.352287e+03
2.220000e-06	3.272220e-06	2.038207e-08	2.338702e+01	1.333270e+03
2.230000e-06	3.154526e-06	2.008469e-08	2.254584e+01	1.313400e+03
2.240000e-06	3.035516e-06	1.976739e-08	2.169526e+01	1.292661e+03
2.250000e-06	2.915225e-06	1.943579e-08	2.083553e+01	1.271028e+03
2.260000e-06	2.793838e-06	1.908989e-08	1.996795e+01	1.248446e+03
2.270000e-06	2.671593e-06	1.872903e-08	1.909425e+01	1.224831e+03
2.280000e-06	2.548468e-06	1.835505e-08	1.821426e+01	1.200069e+03
2.290000e-06	2.424325e-06	1.795991e-08	1.732699e+01	1.174022e+03
2.300000e-06	2.299290e-06	1.754439e-08	1.643335e+01	1.146547e+03
2.310000e-06	2.173504e-06	1.710280e-08	1.553434e+01	1.117503e+03
2.320000e-06	2.046949e-06	1.663683e-08	1.462983e+01	1.086766e+03
2.330000e-06	1.919657e-06	1.614096e-08	1.372006e+01	1.054228e+03
2.340000e-06	1.791748e-06	1.561637e-08	1.280588e+01	1.019791e+03
2.350000e-06	1.663171e-06	1.506215e-08	1.188692e+01	9.833544e+02
2.360000e-06	1.533909e-06	1.447543e-08	1.096306e+01	9.448021e+02
2.370000e-06	1.404196e-06	1.385090e-08	1.003599e+01	9.039917e+02
2.380000e-06	1.274208e-06	1.318740e-08	9.106946e+00	8.607584e+02
2.390000e-06	1.143917e-06	1.248821e-08	8.175741e+00	8.149316e+02
2.400000e-06	1.013225e-06	1.174882e-08	7.241661e+00	7.663651e+02
2.410000e-06	8.821395e-07	1.096669e-08	6.304776e+00	7.149773e+02
2.420000e-06	7.507579e-07	1.014194e-08	5.365773e+00	6.607895e+02
2.430000e-06	6.191138e-07	9.276106e-09	4.424894e+00	6.039541e+02
2.440000e-06	4.872476e-07	8.372770e-09	3.482427e+00	5.447624e+02
2.450000e-06	3.552157e-07	7.437263e-09	2.538777e+00	4.836242e+02
2.460000e-06	2.229987e-07	6.478928e-09	1.593804e+00	4.210215e+02
2.470000e-06	9.066156e-08	5.505528e-09	6.479710e-01	3.574406e+02
2.480000e-06	-4.171662e-08	4.524861e-09	-2.981546e-01	2.932962e+02
2.490000e-06	-1.741349e-07	3.539999e-09	-1.244567e+00	2.288631e+02
2.500000e-06	-3.065126e-07	2.549765e-09	-2.190689e+00	1.642310e+02
2.510000e-06	-4.387836e-07	1.554648e-09	-3.136048e+00	9.929473e+01
2.520000e-06	-5.708647e-07	5.522521e-10	-4.080051e+00	3.378553e+01
2.530000e-06	-7.027698e-07	-4.639918e-10	-5.022796e+00	-3.266004e+01
2.540000e-06	-8.345196e-07	-1.498882e-09	-5.964430e+00	-1.004054e+02
2.550000e-06	-9.659089e-07	-2.556321e-09	-6.903488e+00	-1.697108e+02
2.560000e-06	-1.096871e-06	-3.637753e-09	-7.839494e+00	-2.406421e+02
2.570000e-06	-1.227450e-06	-4.741244e-09	-8.772759e+00	-3.130107e+02
2.580000e-06	-1.357633e-06	-5.862583e-09	-9.703193e+00	-3.863553e+02
2.590000e-06	-1.487459e-06	-6.991587e-09	-1.063108e+01	-4.599728e+02
2.600000e-06	-1.616871e-06	-8.111846e-09	-1.155601e+01	-5.329895e+02
2.610000e-06	-1.745724e-06	-9.206376e-09	-1.247693e+01	-6.044618e+02
2.620000e-06	-1.873850e-06	-1.026357e-08	-1.339268e+01	-6.734866e+02
2.630000e-06	-2.001202e-06	-1.127034e-08	-1.430287e+01	-7.393012e+02
2.640000e-06	-2.127797e-06	-1.221833e-08	-1.520767e+01	-8.013565e+02
2.650000e-06	-2.253609e-06	-1.310528e-08	-1.610687e+01	-8.593521e+02
2.660000e-06	-2.378581e-06	-1.393135e-08	-1.700005e+01	-9.132319e+02
2.670000e-06	-2.502575e-06	-1.469756e-08	-1.788626e+01	-9.631448e+02
2.680000e-06	-2.625541e-06	-1.540728e-08	-1.876512e+01	-1.009382e+03
2.690000e-06	-2.747549e-06	-1.606695e-08	-1.963712e+01	-1.052308e+03
2.700000e-06	-2.868576e-06	-1.668332e-08	-2.050212e+01	-1.092292e+03
2.710000e-06	-2.988511e-06	-1.726156e-08	-2.135931e+01	-1.129665e+03
2.720000e-06	-3.107349e-06	-1.780144e-08	-2.220867e+01	-1.164695e+03
2.730000e-06	-3.225013e-06	-1.830319e-08	-2.304962e+01	-1.197577e+03
2.740000e-06	-3.341340e-06	-1.877260e-08	-2.388103e+01	-1.228457e+03
2.750000e-06	-3.456246e-06	-1.921484e-08	-2.470228e+01	-1.257450e+03
2.760000e-06	-3.569662e-06	-1.962923e-08	-2.551288e+01	-1.284660e+03
2.770000e-06	-3.681660e-06	-2.001905e-08	-2.631335e+01	-1.310206e+03
2.780000e-06	-3.792246e-06	-2.038946e-08	-2.710372e+01	-1.334219e+03
2.790000e-06	-3.901552e-06	-2.073881e-08	-2.788495e+01	-1.356843e+03
2.800000e-06	-4.009724e-06	-2.106680e-08	-2.865806e+01	-1.378224e+03
2.810000e-06	-4.116595e-06	-2.137631e-08	-2.942189e+01	-1.398492e+03
2.820000e-06	-4.222086e-06	-2.167026e-08	-3.017585e+01	-1.417754e+03
2.830000e-06	-4.326007e-06	-2.195102e-08	-3.091859e+01	-1.436088e+03
2.840000e-06	-4.428257e-06	-2.221755e-08	-3.164938e+01	-1.453542e+03
2.850000e-06	-4.528895e-06	-2.246949e-08	-3.236865e+01	-1.470146e+03
2.860000e-06	-4.627922e-06	-2.270821e-08	-3.307642e+01	-1.485921e+03
2.870000e-06	-4.725377e-06	-2.293486e-08	-3.377294e+01	-1.500890e+03
2.880000e-06	-4.821121e-06	-2.315310e-08	-3.445724e+01	-1.515089e+03
2.890000e-06	-4.915073e-06	-2.336287e-08	-3.512873e+01	-1.528566e+03
2.900000e-06	-5.007308e-06	-2.356347e-08	-3.578794e+01	-1.541378e+03
2.910000e-06	-5.097836e-06	-2.375466e-08	-3.643496e+01	-1.553586e+03
2.920000e-06	-5.186525e-06	-2.393533e-08	-3.706883e+01	-1.565243e+03
2.930000e-06	-5.273266e-06	-2.410456e-08	-3.768878e+01	-1.576392e+03
2.940000e-06	-5.358048e-06	-2.426297e-08	-3.829473e+01	-1.587056e+03
