# Temperatura_=_79.63
# Concentracion g/m^3_=_28200.0
# C_Vs_to_Am_M_A/Vsm_=_65563218390.804596
# pendiente_HvsI_1/m_=_3716.3
# ordenada_HvsI_A/m_=_1297.0
# frecuencia_Hz_=_302286.3998435577

Tiempo_(s)	Campo_(V.s)	Magnetizacion_(V.s)	Campo_(kA/m)	Magnetizacion_(A/m)
0.000000e+00	-6.918721e-06	-2.711278e-08	-4.951883e+01	-1.775210e+03
1.000000e-08	-6.915586e-06	-2.710543e-08	-4.949639e+01	-1.774709e+03
2.000000e-08	-6.910184e-06	-2.709325e-08	-4.945772e+01	-1.773997e+03
3.000000e-08	-6.902666e-06	-2.708030e-08	-4.940392e+01	-1.773081e+03
4.000000e-08	-6.892833e-06	-2.706471e-08	-4.933354e+01	-1.771966e+03
5.000000e-08	-6.880428e-06	-2.704620e-08	-4.924476e+01	-1.770660e+03
6.000000e-08	-6.865410e-06	-2.702316e-08	-4.913727e+01	-1.769172e+03
7.000000e-08	-6.848071e-06	-2.699505e-08	-4.901317e+01	-1.767510e+03
8.000000e-08	-6.828692e-06	-2.697620e-08	-4.887447e+01	-1.765685e+03
9.000000e-08	-6.807049e-06	-2.698394e-08	-4.871957e+01	-1.763713e+03
1.000000e-07	-6.782687e-06	-2.694691e-08	-4.854521e+01	-1.761615e+03
1.100000e-07	-6.755566e-06	-2.687993e-08	-4.835109e+01	-1.759412e+03
1.200000e-07	-6.725947e-06	-2.683386e-08	-4.813910e+01	-1.757125e+03
1.300000e-07	-6.694109e-06	-2.678773e-08	-4.791123e+01	-1.754764e+03
1.400000e-07	-6.660156e-06	-2.671038e-08	-4.766822e+01	-1.752328e+03
1.500000e-07	-6.624363e-06	-2.667929e-08	-4.741204e+01	-1.749795e+03
1.600000e-07	-6.586733e-06	-2.669447e-08	-4.714272e+01	-1.747122e+03
1.700000e-07	-6.546996e-06	-2.657772e-08	-4.685831e+01	-1.744252e+03
1.800000e-07	-6.504994e-06	-2.652994e-08	-4.655769e+01	-1.741121e+03
1.900000e-07	-6.460433e-06	-2.649924e-08	-4.623876e+01	-1.737667e+03
2.000000e-07	-6.413446e-06	-2.639191e-08	-4.590246e+01	-1.733843e+03
2.100000e-07	-6.363969e-06	-2.636234e-08	-4.554835e+01	-1.729627e+03
2.200000e-07	-6.311776e-06	-2.630141e-08	-4.517479e+01	-1.725023e+03
2.300000e-07	-6.257112e-06	-2.622539e-08	-4.478355e+01	-1.720061e+03
2.400000e-07	-6.200108e-06	-2.614021e-08	-4.437556e+01	-1.714787e+03
2.500000e-07	-6.140774e-06	-2.604122e-08	-4.395089e+01	-1.709253e+03
2.600000e-07	-6.079154e-06	-2.596665e-08	-4.350986e+01	-1.703501e+03
2.700000e-07	-6.015291e-06	-2.587217e-08	-4.305278e+01	-1.697558e+03
2.800000e-07	-5.949190e-06	-2.577611e-08	-4.257968e+01	-1.691424e+03
2.900000e-07	-5.880859e-06	-2.567643e-08	-4.209062e+01	-1.685075e+03
3.000000e-07	-5.810327e-06	-2.557245e-08	-4.158581e+01	-1.678474e+03
3.100000e-07	-5.737595e-06	-2.546199e-08	-4.106524e+01	-1.671576e+03
3.200000e-07	-5.662573e-06	-2.534260e-08	-4.052830e+01	-1.664342e+03
3.300000e-07	-5.585176e-06	-2.525042e-08	-3.997435e+01	-1.656747e+03
3.400000e-07	-5.505484e-06	-2.512450e-08	-3.940398e+01	-1.648786e+03
3.500000e-07	-5.423693e-06	-2.499085e-08	-3.881858e+01	-1.640468e+03
3.600000e-07	-5.340160e-06	-2.486558e-08	-3.822072e+01	-1.631812e+03
3.700000e-07	-5.254955e-06	-2.472754e-08	-3.761089e+01	-1.622835e+03
3.800000e-07	-5.167978e-06	-2.458990e-08	-3.698837e+01	-1.613543e+03
3.900000e-07	-5.079209e-06	-2.444425e-08	-3.635303e+01	-1.603927e+03
4.000000e-07	-4.988585e-06	-2.429472e-08	-3.570441e+01	-1.593959e+03
4.100000e-07	-4.896146e-06	-2.412307e-08	-3.504281e+01	-1.583596e+03
4.200000e-07	-4.802018e-06	-2.395133e-08	-3.436911e+01	-1.572795e+03
4.300000e-07	-4.706318e-06	-2.377860e-08	-3.368417e+01	-1.561516e+03
4.400000e-07	-4.608960e-06	-2.359988e-08	-3.298735e+01	-1.549734e+03
4.500000e-07	-4.509774e-06	-2.341658e-08	-3.227746e+01	-1.537441e+03
4.600000e-07	-4.408912e-06	-2.322576e-08	-3.155556e+01	-1.524645e+03
4.700000e-07	-4.306536e-06	-2.302573e-08	-3.082283e+01	-1.511359e+03
4.800000e-07	-4.202714e-06	-2.280994e-08	-3.007976e+01	-1.497591e+03
4.900000e-07	-4.097409e-06	-2.259059e-08	-2.932607e+01	-1.483337e+03
5.000000e-07	-3.990486e-06	-2.236392e-08	-2.856080e+01	-1.468567e+03
5.100000e-07	-3.882079e-06	-2.212593e-08	-2.778490e+01	-1.453232e+03
5.200000e-07	-3.772369e-06	-2.187484e-08	-2.699969e+01	-1.437266e+03
5.300000e-07	-3.661353e-06	-2.161774e-08	-2.620512e+01	-1.420597e+03
5.400000e-07	-3.548900e-06	-2.135241e-08	-2.540027e+01	-1.403159e+03
5.500000e-07	-3.434932e-06	-2.107366e-08	-2.458458e+01	-1.384906e+03
5.600000e-07	-3.319463e-06	-2.078478e-08	-2.375813e+01	-1.365808e+03
5.700000e-07	-3.202621e-06	-2.048113e-08	-2.292188e+01	-1.345855e+03
5.800000e-07	-3.084559e-06	-2.016059e-08	-2.207688e+01	-1.325041e+03
5.900000e-07	-2.965340e-06	-1.982579e-08	-2.122360e+01	-1.303354e+03
6.000000e-07	-2.845090e-06	-1.948213e-08	-2.036294e+01	-1.280757e+03
6.100000e-07	-2.723826e-06	-1.912148e-08	-1.949503e+01	-1.257180e+03
6.200000e-07	-2.601468e-06	-1.874101e-08	-1.861929e+01	-1.232517e+03
6.300000e-07	-2.478035e-06	-1.834074e-08	-1.773585e+01	-1.206633e+03
6.400000e-07	-2.353690e-06	-1.791916e-08	-1.684588e+01	-1.179375e+03
6.500000e-07	-2.228629e-06	-1.747668e-08	-1.595080e+01	-1.150591e+03
6.600000e-07	-2.102893e-06	-1.701309e-08	-1.505087e+01	-1.120143e+03
6.700000e-07	-1.976362e-06	-1.652492e-08	-1.414526e+01	-1.087912e+03
6.800000e-07	-1.849100e-06	-1.600654e-08	-1.323442e+01	-1.053797e+03
6.900000e-07	-1.721260e-06	-1.545653e-08	-1.231944e+01	-1.017705e+03
7.000000e-07	-1.592780e-06	-1.487355e-08	-1.139988e+01	-9.795317e+02
7.100000e-07	-1.463698e-06	-1.425785e-08	-1.047601e+01	-9.391506e+02
7.200000e-07	-1.334228e-06	-1.360417e-08	-9.549371e+00	-8.964061e+02
7.300000e-07	-1.204394e-06	-1.291053e-08	-8.620117e+00	-8.511220e+02
7.400000e-07	-1.074098e-06	-1.217340e-08	-7.687562e+00	-8.031263e+02
7.500000e-07	-9.433622e-07	-1.139003e-08	-6.751853e+00	-7.522883e+02
7.600000e-07	-8.123141e-07	-1.056727e-08	-5.813913e+00	-6.985617e+02
7.700000e-07	-6.809917e-07	-9.706739e-09	-4.874009e+00	-6.420214e+02
7.800000e-07	-5.494056e-07	-8.810510e-09	-3.932218e+00	-5.828848e+02
7.900000e-07	-4.176297e-07	-7.881760e-09	-2.989069e+00	-5.215067e+02
8.000000e-07	-2.856605e-07	-6.923474e-09	-2.044536e+00	-4.583455e+02
8.100000e-07	-1.535287e-07	-5.941053e-09	-1.098839e+00	-3.939032e+02
8.200000e-07	-2.137006e-08	-4.942117e-09	-1.529503e-01	-3.286492e+02
8.300000e-07	1.108226e-07	-3.935692e-09	7.931819e-01	-2.629438e+02
8.400000e-07	2.430218e-07	-2.928069e-09	1.739361e+00	-1.969767e+02
8.500000e-07	3.751598e-07	-1.921207e-09	2.685102e+00	-1.307383e+02
8.600000e-07	5.072066e-07	-9.100453e-10	3.630191e+00	-6.403091e+01
8.700000e-07	6.390091e-07	1.135621e-10	4.573530e+00	3.478379e+00
8.800000e-07	7.705684e-07	1.154579e-09	5.515130e+00	7.217015e+01
8.900000e-07	9.018902e-07	2.219017e-09	6.455029e+00	1.423678e+02
9.000000e-07	1.032842e-06	3.311078e-09	7.392279e+00	2.142348e+02
9.100000e-07	1.163388e-06	4.429964e-09	8.326630e+00	2.876956e+02
9.200000e-07	1.293557e-06	5.570608e-09	9.258276e+00	3.623958e+02
9.300000e-07	1.423294e-06	6.722089e-09	1.018684e+01	4.377115e+02
9.400000e-07	1.552559e-06	7.871399e-09	1.111201e+01	5.128056e+02
9.500000e-07	1.681275e-06	9.000077e-09	1.203326e+01	5.867213e+02
9.600000e-07	1.809274e-06	1.008886e-08	1.294938e+01	6.584952e+02
9.700000e-07	1.936489e-06	1.112565e-08	1.385988e+01	7.272682e+02
9.800000e-07	2.062953e-06	1.210517e-08	1.476502e+01	7.923759e+02
9.900000e-07	2.188739e-06	1.302608e-08	1.566529e+01	8.534025e+02
1.000000e-06	2.313847e-06	1.388594e-08	1.656072e+01	9.101936e+02
1.010000e-06	2.438210e-06	1.468627e-08	1.745081e+01	9.628286e+02
1.020000e-06	2.561698e-06	1.542944e-08	1.833464e+01	1.011563e+03
1.030000e-06	2.684152e-06	1.611830e-08	1.921108e+01	1.056756e+03
1.040000e-06	2.805606e-06	1.675718e-08	2.008034e+01	1.098799e+03
1.050000e-06	2.925962e-06	1.735253e-08	2.094176e+01	1.138054e+03
1.060000e-06	3.045076e-06	1.791066e-08	2.179428e+01	1.174824e+03
1.070000e-06	3.163108e-06	1.843386e-08	2.263907e+01	1.209335e+03
1.080000e-06	3.280094e-06	1.892217e-08	2.347637e+01	1.241749e+03
1.090000e-06	3.395849e-06	1.937980e-08	2.430485e+01	1.272187e+03
1.100000e-06	3.510224e-06	1.981026e-08	2.512345e+01	1.300756e+03
1.110000e-06	3.623079e-06	2.021619e-08	2.593118e+01	1.327565e+03
1.120000e-06	3.734480e-06	2.060079e-08	2.672851e+01	1.352747e+03
1.130000e-06	3.844657e-06	2.096367e-08	2.751707e+01	1.376446e+03
1.140000e-06	3.953657e-06	2.130718e-08	2.829721e+01	1.398819e+03
1.150000e-06	4.061361e-06	2.163202e-08	2.906807e+01	1.420011e+03
1.160000e-06	4.167663e-06	2.194039e-08	2.982889e+01	1.440147e+03
1.170000e-06	4.272391e-06	2.223257e-08	3.057846e+01	1.459319e+03
1.180000e-06	4.375450e-06	2.250694e-08	3.131607e+01	1.477588e+03
1.190000e-06	4.477000e-06	2.276607e-08	3.204289e+01	1.494988e+03
1.200000e-06	4.577084e-06	2.301370e-08	3.275921e+01	1.511537e+03
1.210000e-06	4.675516e-06	2.324922e-08	3.346371e+01	1.527255e+03
1.220000e-06	4.772092e-06	2.347437e-08	3.415493e+01	1.542168e+03
1.230000e-06	4.866868e-06	2.368995e-08	3.483326e+01	1.556318e+03
1.240000e-06	4.959988e-06	2.389770e-08	3.549974e+01	1.569762e+03
1.250000e-06	5.051480e-06	2.409670e-08	3.615457e+01	1.582561e+03
1.260000e-06	5.141165e-06	2.428387e-08	3.679647e+01	1.594777e+03
1.270000e-06	5.228829e-06	2.446067e-08	3.742389e+01	1.606458e+03
1.280000e-06	5.314591e-06	2.462787e-08	3.803771e+01	1.617639e+03
1.290000e-06	5.398573e-06	2.478785e-08	3.863879e+01	1.628334e+03
1.300000e-06	5.480706e-06	2.494112e-08	3.922664e+01	1.638544e+03
1.310000e-06	5.560769e-06	2.508802e-08	3.979967e+01	1.648264e+03
1.320000e-06	5.638705e-06	2.522976e-08	4.035747e+01	1.657486e+03
1.330000e-06	5.714562e-06	2.536700e-08	4.090039e+01	1.666214e+03
1.340000e-06	5.788136e-06	2.549809e-08	4.142698e+01	1.674459e+03
1.350000e-06	5.859459e-06	2.562192e-08	4.193745e+01	1.682245e+03
1.360000e-06	5.928726e-06	2.573855e-08	4.243321e+01	1.689601e+03
1.370000e-06	5.995925e-06	2.584656e-08	4.291417e+01	1.696559e+03
1.380000e-06	6.060902e-06	2.594529e-08	4.337923e+01	1.703146e+03
1.390000e-06	6.123735e-06	2.603681e-08	4.382893e+01	1.709385e+03
1.400000e-06	6.184581e-06	2.612388e-08	4.426442e+01	1.715291e+03
1.410000e-06	6.243271e-06	2.620774e-08	4.468448e+01	1.720874e+03
1.420000e-06	6.299693e-06	2.628811e-08	4.508831e+01	1.726144e+03
1.430000e-06	6.353818e-06	2.636475e-08	4.547569e+01	1.731113e+03
1.440000e-06	6.405444e-06	2.643942e-08	4.584519e+01	1.735799e+03
1.450000e-06	6.454418e-06	2.651029e-08	4.619571e+01	1.740220e+03
1.460000e-06	6.500954e-06	2.657431e-08	4.652878e+01	1.744398e+03
1.470000e-06	6.545336e-06	2.663413e-08	4.684643e+01	1.748350e+03
1.480000e-06	6.587443e-06	2.669235e-08	4.714780e+01	1.752083e+03
1.490000e-06	6.627043e-06	2.674747e-08	4.743123e+01	1.755597e+03
1.500000e-06	6.664344e-06	2.679594e-08	4.769820e+01	1.758878e+03
1.510000e-06	6.699521e-06	2.683929e-08	4.794997e+01	1.761907e+03
1.520000e-06	6.732242e-06	2.688132e-08	4.818415e+01	1.764661e+03
1.530000e-06	6.762464e-06	2.692105e-08	4.840046e+01	1.767122e+03
1.540000e-06	6.790398e-06	2.695572e-08	4.860039e+01	1.769282e+03
1.550000e-06	6.815801e-06	2.698396e-08	4.878221e+01	1.771146e+03
1.560000e-06	6.838625e-06	2.700752e-08	4.894556e+01	1.772729e+03
1.570000e-06	6.859148e-06	2.702720e-08	4.909245e+01	1.774057e+03
1.580000e-06	6.877297e-06	2.704377e-08	4.922235e+01	1.775159e+03
1.590000e-06	6.892783e-06	2.705797e-08	4.933318e+01	1.776061e+03
1.600000e-06	6.905689e-06	2.706994e-08	4.942556e+01	1.776781e+03
1.610000e-06	6.915890e-06	2.707924e-08	4.949857e+01	1.777329e+03
1.620000e-06	6.923339e-06	2.708551e-08	4.955188e+01	1.777702e+03
1.630000e-06	6.928429e-06	2.708882e-08	4.958831e+01	1.777893e+03
1.640000e-06	6.931138e-06	2.709031e-08	4.960770e+01	1.777889e+03
1.650000e-06	6.931306e-06	2.709006e-08	4.960890e+01	1.777682e+03
1.660000e-06	6.929120e-06	2.708321e-08	4.959326e+01	1.777264e+03
1.670000e-06	6.924744e-06	2.707436e-08	4.956194e+01	1.776634e+03
1.680000e-06	6.917998e-06	2.706245e-08	4.951365e+01	1.775797e+03
1.690000e-06	6.908912e-06	2.704827e-08	4.944862e+01	1.774759e+03
1.700000e-06	6.897626e-06	2.703163e-08	4.936785e+01	1.773527e+03
1.710000e-06	6.883977e-06	2.701370e-08	4.927016e+01	1.772109e+03
1.720000e-06	6.867964e-06	2.699591e-08	4.915555e+01	1.770514e+03
1.730000e-06	6.849852e-06	2.694766e-08	4.902592e+01	1.768751e+03
1.740000e-06	6.829496e-06	2.687607e-08	4.888022e+01	1.766834e+03
1.750000e-06	6.806121e-06	2.686054e-08	4.871293e+01	1.764783e+03
1.760000e-06	6.779486e-06	2.685111e-08	4.852229e+01	1.762618e+03
1.770000e-06	6.750108e-06	2.680960e-08	4.831203e+01	1.760361e+03
1.780000e-06	6.718488e-06	2.680903e-08	4.808572e+01	1.758028e+03
1.790000e-06	6.685135e-06	2.680230e-08	4.784700e+01	1.755623e+03
1.800000e-06	6.650377e-06	2.671002e-08	4.759823e+01	1.753131e+03
1.810000e-06	6.613644e-06	2.671104e-08	4.733533e+01	1.750519e+03
1.820000e-06	6.574320e-06	2.668683e-08	4.705387e+01	1.747734e+03
1.830000e-06	6.532736e-06	2.660489e-08	4.675625e+01	1.744713e+03
1.840000e-06	6.489006e-06	2.660844e-08	4.644326e+01	1.741392e+03
1.850000e-06	6.442948e-06	2.649598e-08	4.611362e+01	1.737717e+03
1.860000e-06	6.394488e-06	2.642772e-08	4.576678e+01	1.733656e+03
1.870000e-06	6.343538e-06	2.637089e-08	4.540212e+01	1.729202e+03
1.880000e-06	6.290199e-06	2.626003e-08	4.502036e+01	1.724375e+03
1.890000e-06	6.234341e-06	2.624081e-08	4.462057e+01	1.719217e+03
1.900000e-06	6.175989e-06	2.614086e-08	4.420293e+01	1.713778e+03
1.910000e-06	6.115343e-06	2.606001e-08	4.376887e+01	1.708108e+03
1.920000e-06	6.052290e-06	2.598112e-08	4.331759e+01	1.702238e+03
1.930000e-06	5.987016e-06	2.585228e-08	4.285041e+01	1.696180e+03
1.940000e-06	5.919635e-06	2.579052e-08	4.236815e+01	1.689919e+03
1.950000e-06	5.849951e-06	2.568206e-08	4.186941e+01	1.683422e+03
1.960000e-06	5.777888e-06	2.559599e-08	4.135364e+01	1.676645e+03
1.970000e-06	5.703587e-06	2.547099e-08	4.082184e+01	1.669547e+03
1.980000e-06	5.627132e-06	2.534328e-08	4.027464e+01	1.662095e+03
1.990000e-06	5.548371e-06	2.524192e-08	3.971093e+01	1.654277e+03
2.000000e-06	5.467517e-06	2.509988e-08	3.913224e+01	1.646097e+03
2.010000e-06	5.384808e-06	2.499407e-08	3.854027e+01	1.637570e+03
2.020000e-06	5.300300e-06	2.485859e-08	3.793543e+01	1.628717e+03
2.030000e-06	5.213776e-06	2.471770e-08	3.731616e+01	1.619549e+03
2.040000e-06	5.125209e-06	2.455977e-08	3.668226e+01	1.610063e+03
2.050000e-06	5.034986e-06	2.440517e-08	3.603652e+01	1.600237e+03
2.060000e-06	4.943122e-06	2.426382e-08	3.537902e+01	1.590034e+03
2.070000e-06	4.849581e-06	2.409832e-08	3.470953e+01	1.579410e+03
2.080000e-06	4.754241e-06	2.393432e-08	3.402716e+01	1.568322e+03
2.090000e-06	4.657150e-06	2.375234e-08	3.333226e+01	1.556739e+03
2.100000e-06	4.558476e-06	2.357203e-08	3.262603e+01	1.544646e+03
2.110000e-06	4.458284e-06	2.338150e-08	3.190893e+01	1.532046e+03
2.120000e-06	4.356564e-06	2.318759e-08	3.118090e+01	1.518951e+03
2.130000e-06	4.253138e-06	2.298295e-08	3.044066e+01	1.505371e+03
2.140000e-06	4.148148e-06	2.276616e-08	2.968922e+01	1.491310e+03
2.150000e-06	4.041726e-06	2.254478e-08	2.892753e+01	1.476747e+03
2.160000e-06	3.933927e-06	2.231280e-08	2.815599e+01	1.461641e+03
2.170000e-06	3.824789e-06	2.207574e-08	2.737487e+01	1.445931e+03
2.180000e-06	3.714219e-06	2.182746e-08	2.658350e+01	1.429546e+03
2.190000e-06	3.602171e-06	2.157038e-08	2.578154e+01	1.412417e+03
2.200000e-06	3.488696e-06	2.129617e-08	2.496937e+01	1.394488e+03
2.210000e-06	3.373811e-06	2.101111e-08	2.414712e+01	1.375723e+03
2.220000e-06	3.257518e-06	2.071521e-08	2.331478e+01	1.356106e+03
2.230000e-06	3.139891e-06	2.041009e-08	2.247290e+01	1.335631e+03
2.240000e-06	3.020916e-06	2.008618e-08	2.162137e+01	1.314290e+03
2.250000e-06	2.900705e-06	1.974635e-08	2.076099e+01	1.292056e+03
2.260000e-06	2.779501e-06	1.939210e-08	1.989351e+01	1.268875e+03
2.270000e-06	2.657337e-06	1.902150e-08	1.901915e+01	1.244653e+03
2.280000e-06	2.534181e-06	1.863628e-08	1.813770e+01	1.219265e+03
2.290000e-06	2.410117e-06	1.823109e-08	1.724974e+01	1.192565e+03
2.300000e-06	2.285225e-06	1.780383e-08	1.635587e+01	1.164397e+03
2.310000e-06	2.159655e-06	1.734990e-08	1.545713e+01	1.134618e+03
2.320000e-06	2.033309e-06	1.687166e-08	1.455284e+01	1.103100e+03
2.330000e-06	1.906112e-06	1.636776e-08	1.364247e+01	1.069736e+03
2.340000e-06	1.778181e-06	1.583533e-08	1.272684e+01	1.034432e+03
2.350000e-06	1.649594e-06	1.526781e-08	1.180651e+01	9.970893e+02
2.360000e-06	1.520496e-06	1.466334e-08	1.088253e+01	9.575922e+02
2.370000e-06	1.390992e-06	1.402085e-08	9.955637e+00	9.157960e+02
2.380000e-06	1.261151e-06	1.334029e-08	9.026337e+00	8.715306e+02
2.390000e-06	1.130944e-06	1.262556e-08	8.094415e+00	8.246186e+02
2.400000e-06	1.000311e-06	1.187179e-08	7.159449e+00	7.749080e+02
2.410000e-06	8.692807e-07	1.107382e-08	6.221636e+00	7.223143e+02
2.420000e-06	7.379138e-07	1.023017e-08	5.281414e+00	6.668611e+02
2.430000e-06	6.063368e-07	9.344390e-09	4.339688e+00	6.087090e+02
2.440000e-06	4.746625e-07	8.422225e-09	3.397265e+00	5.481610e+02
2.450000e-06	3.428861e-07	7.468802e-09	2.454112e+00	4.856409e+02
2.460000e-06	2.109561e-07	6.491538e-09	1.509860e+00	4.216419e+02
2.470000e-06	7.888878e-08	5.496792e-09	5.646246e-01	3.566558e+02
2.480000e-06	-5.326631e-08	4.490823e-09	-3.812389e-01	2.910942e+02
2.490000e-06	-1.854473e-07	3.478976e-09	-1.327288e+00	2.252193e+02
2.500000e-06	-3.175302e-07	2.465206e-09	-2.272635e+00	1.591011e+02
2.510000e-06	-4.494926e-07	1.449157e-09	-3.217118e+00	9.261138e+01
2.520000e-06	-5.813761e-07	4.247983e-10	-4.161039e+00	2.546168e+01
2.530000e-06	-7.130777e-07	-6.153917e-10	-5.103656e+00	-4.272180e+01
2.540000e-06	-8.444599e-07	-1.677208e-09	-6.043988e+00	-1.122978e+02
2.550000e-06	-9.755166e-07	-2.763706e-09	-6.981990e+00	-1.835038e+02
2.560000e-06	-1.106301e-06	-3.874519e-09	-7.918041e+00	-2.563654e+02
2.570000e-06	-1.236741e-06	-5.008348e-09	-8.851630e+00	-3.306394e+02
2.580000e-06	-1.366793e-06	-6.158707e-09	-9.782443e+00	-4.058035e+02
2.590000e-06	-1.496452e-06	-7.313599e-09	-1.071044e+01	-4.810949e+02
2.600000e-06	-1.625603e-06	-8.457562e-09	-1.163480e+01	-5.555910e+02
2.610000e-06	-1.754198e-06	-9.573015e-09	-1.255519e+01	-6.283173e+02
2.620000e-06	-1.882133e-06	-1.064597e-08	-1.347085e+01	-6.983613e+02
2.630000e-06	-2.009269e-06	-1.166524e-08	-1.438079e+01	-7.649734e+02
2.640000e-06	-2.135624e-06	-1.262269e-08	-1.528514e+01	-8.276363e+02
2.650000e-06	-2.261254e-06	-1.351586e-08	-1.618430e+01	-8.860943e+02
2.660000e-06	-2.385947e-06	-1.434722e-08	-1.707675e+01	-9.403402e+02
2.670000e-06	-2.509572e-06	-1.511793e-08	-1.796157e+01	-9.905686e+02
2.680000e-06	-2.632254e-06	-1.583274e-08	-1.883963e+01	-1.037107e+03
2.690000e-06	-2.754010e-06	-1.649866e-08	-1.971106e+01	-1.080342e+03
2.700000e-06	-2.874772e-06	-1.711953e-08	-2.057538e+01	-1.120653e+03
2.710000e-06	-2.994446e-06	-1.770010e-08	-2.143192e+01	-1.158368e+03
2.720000e-06	-3.113020e-06	-1.824303e-08	-2.228058e+01	-1.193744e+03
2.730000e-06	-3.230367e-06	-1.874970e-08	-2.312046e+01	-1.226966e+03
2.740000e-06	-3.346286e-06	-1.922425e-08	-2.395012e+01	-1.258169e+03
2.750000e-06	-3.460841e-06	-1.967074e-08	-2.477001e+01	-1.287459e+03
2.760000e-06	-3.574016e-06	-2.008979e-08	-2.558003e+01	-1.314946e+03
2.770000e-06	-3.685678e-06	-2.048450e-08	-2.637922e+01	-1.340751e+03
2.780000e-06	-3.795867e-06	-2.085946e-08	-2.716787e+01	-1.365015e+03
2.790000e-06	-3.904815e-06	-2.121320e-08	-2.794763e+01	-1.387891e+03
2.800000e-06	-4.012628e-06	-2.154508e-08	-2.871927e+01	-1.409531e+03
2.810000e-06	-4.119227e-06	-2.185944e-08	-2.948222e+01	-1.430069e+03
2.820000e-06	-4.224479e-06	-2.215901e-08	-3.023554e+01	-1.449611e+03
2.830000e-06	-4.328208e-06	-2.244442e-08	-3.097795e+01	-1.468230e+03
2.840000e-06	-4.430229e-06	-2.271598e-08	-3.170814e+01	-1.485969e+03
2.850000e-06	-4.530517e-06	-2.297322e-08	-3.242592e+01	-1.502851e+03
2.860000e-06	-4.629315e-06	-2.321499e-08	-3.313304e+01	-1.518893e+03
2.870000e-06	-4.726573e-06	-2.344416e-08	-3.382913e+01	-1.534118e+03
2.880000e-06	-4.822135e-06	-2.366660e-08	-3.451310e+01	-1.548563e+03
2.890000e-06	-4.915906e-06	-2.388075e-08	-3.518423e+01	-1.562277e+03
2.900000e-06	-5.007874e-06	-2.408495e-08	-3.584247e+01	-1.575322e+03
2.910000e-06	-5.098131e-06	-2.427980e-08	-3.648846e+01	-1.587761e+03
2.920000e-06	-5.186532e-06	-2.446412e-08	-3.712117e+01	-1.599648e+03
2.930000e-06	-5.272939e-06	-2.463757e-08	-3.773960e+01	-1.611023e+03
2.940000e-06	-5.357350e-06	-2.479977e-08	-3.834375e+01	-1.621909e+03
