# Temperatura_=_46.93
# Concentracion g/m^3_=_28200.0
# C_Vs_to_Am_M_A/Vsm_=_65563218390.804596
# pendiente_HvsI_1/m_=_3716.3
# ordenada_HvsI_A/m_=_1297.0
# frecuencia_Hz_=_302276.3800287709

Tiempo_(s)	Campo_(V.s)	Magnetizacion_(V.s)	Campo_(kA/m)	Magnetizacion_(A/m)
0.000000e+00	-6.878606e-06	-2.288903e-08	-4.952135e+01	-1.498419e+03
1.000000e-08	-6.875545e-06	-2.288321e-08	-4.949931e+01	-1.498075e+03
2.000000e-08	-6.870248e-06	-2.287364e-08	-4.946118e+01	-1.497586e+03
3.000000e-08	-6.862843e-06	-2.286410e-08	-4.940786e+01	-1.496945e+03
4.000000e-08	-6.853106e-06	-2.285228e-08	-4.933776e+01	-1.496143e+03
5.000000e-08	-6.840858e-06	-2.283696e-08	-4.924959e+01	-1.495173e+03
6.000000e-08	-6.825989e-06	-2.281700e-08	-4.914254e+01	-1.494034e+03
7.000000e-08	-6.808741e-06	-2.279446e-08	-4.901836e+01	-1.492731e+03
8.000000e-08	-6.789532e-06	-2.277443e-08	-4.888007e+01	-1.491278e+03
9.000000e-08	-6.768165e-06	-2.279423e-08	-4.872624e+01	-1.489696e+03
1.000000e-07	-6.744130e-06	-2.277220e-08	-4.855321e+01	-1.488014e+03
1.100000e-07	-6.717248e-06	-2.271084e-08	-4.835968e+01	-1.486261e+03
1.200000e-07	-6.687873e-06	-2.267091e-08	-4.814820e+01	-1.484458e+03
1.300000e-07	-6.656309e-06	-2.263669e-08	-4.792096e+01	-1.482618e+03
1.400000e-07	-6.622577e-06	-2.256245e-08	-4.767811e+01	-1.480734e+03
1.500000e-07	-6.587015e-06	-2.252856e-08	-4.742209e+01	-1.478783e+03
1.600000e-07	-6.549687e-06	-2.259075e-08	-4.715335e+01	-1.476725e+03
1.700000e-07	-6.510163e-06	-2.247849e-08	-4.686881e+01	-1.474508e+03
1.800000e-07	-6.468362e-06	-2.243456e-08	-4.656787e+01	-1.472075e+03
1.900000e-07	-6.424169e-06	-2.244359e-08	-4.624971e+01	-1.469380e+03
2.000000e-07	-6.377563e-06	-2.233124e-08	-4.591417e+01	-1.466387e+03
2.100000e-07	-6.328582e-06	-2.230381e-08	-4.556154e+01	-1.463084e+03
2.200000e-07	-6.276927e-06	-2.224727e-08	-4.518967e+01	-1.459478e+03
2.300000e-07	-6.222735e-06	-2.217647e-08	-4.479952e+01	-1.455598e+03
2.400000e-07	-6.166189e-06	-2.212089e-08	-4.439243e+01	-1.451481e+03
2.500000e-07	-6.107211e-06	-2.205383e-08	-4.396782e+01	-1.447168e+03
2.600000e-07	-6.045973e-06	-2.200621e-08	-4.352695e+01	-1.442690e+03
2.700000e-07	-5.982558e-06	-2.192741e-08	-4.307041e+01	-1.438063e+03
2.800000e-07	-5.916953e-06	-2.184997e-08	-4.259809e+01	-1.433284e+03
2.900000e-07	-5.849096e-06	-2.177093e-08	-4.210957e+01	-1.428331e+03
3.000000e-07	-5.778970e-06	-2.167943e-08	-4.160471e+01	-1.423167e+03
3.100000e-07	-5.706731e-06	-2.160844e-08	-4.108463e+01	-1.417756e+03
3.200000e-07	-5.632285e-06	-2.151799e-08	-4.054868e+01	-1.412061e+03
3.300000e-07	-5.555489e-06	-2.143485e-08	-3.999579e+01	-1.406059e+03
3.400000e-07	-5.476385e-06	-2.132322e-08	-3.942630e+01	-1.399740e+03
3.500000e-07	-5.395192e-06	-2.122052e-08	-3.884176e+01	-1.393110e+03
3.600000e-07	-5.312180e-06	-2.112676e-08	-3.824414e+01	-1.386183e+03
3.700000e-07	-5.227441e-06	-2.101380e-08	-3.763406e+01	-1.378972e+03
3.800000e-07	-5.140982e-06	-2.090817e-08	-3.701162e+01	-1.371489e+03
3.900000e-07	-5.052736e-06	-2.078188e-08	-3.637631e+01	-1.363729e+03
4.000000e-07	-4.962644e-06	-2.065366e-08	-3.572771e+01	-1.355679e+03
4.100000e-07	-4.870782e-06	-2.051608e-08	-3.506636e+01	-1.347311e+03
4.200000e-07	-4.777308e-06	-2.038692e-08	-3.439341e+01	-1.338591e+03
4.300000e-07	-4.682247e-06	-2.025212e-08	-3.370904e+01	-1.329485e+03
4.400000e-07	-4.585530e-06	-2.010645e-08	-3.301274e+01	-1.319966e+03
4.500000e-07	-4.487028e-06	-1.995671e-08	-3.230359e+01	-1.310015e+03
4.600000e-07	-4.386820e-06	-1.979778e-08	-3.158216e+01	-1.299625e+03
4.700000e-07	-4.285165e-06	-1.963173e-08	-3.085032e+01	-1.288794e+03
4.800000e-07	-4.182005e-06	-1.945600e-08	-3.010763e+01	-1.277521e+03
4.900000e-07	-4.077346e-06	-1.928077e-08	-2.935415e+01	-1.265799e+03
5.000000e-07	-3.971178e-06	-1.909119e-08	-2.858982e+01	-1.253609e+03
5.100000e-07	-3.863474e-06	-1.889271e-08	-2.781442e+01	-1.240920e+03
5.200000e-07	-3.754425e-06	-1.868603e-08	-2.702934e+01	-1.227687e+03
5.300000e-07	-3.644046e-06	-1.847433e-08	-2.623469e+01	-1.213859e+03
5.400000e-07	-3.532288e-06	-1.825398e-08	-2.543011e+01	-1.199385e+03
5.500000e-07	-3.419132e-06	-1.802141e-08	-2.461546e+01	-1.184216e+03
5.600000e-07	-3.304484e-06	-1.778112e-08	-2.379007e+01	-1.168316e+03
5.700000e-07	-3.188367e-06	-1.752740e-08	-2.295410e+01	-1.151655e+03
5.800000e-07	-3.071003e-06	-1.726074e-08	-2.210916e+01	-1.134210e+03
5.900000e-07	-2.952544e-06	-1.697889e-08	-2.125634e+01	-1.115953e+03
6.000000e-07	-2.833002e-06	-1.668751e-08	-2.039571e+01	-1.096848e+03
6.100000e-07	-2.712438e-06	-1.638029e-08	-1.952774e+01	-1.076841e+03
6.200000e-07	-2.590860e-06	-1.605786e-08	-1.865245e+01	-1.055858e+03
6.300000e-07	-2.468219e-06	-1.571905e-08	-1.776952e+01	-1.033806e+03
6.400000e-07	-2.344612e-06	-1.536116e-08	-1.687964e+01	-1.010578e+03
6.500000e-07	-2.220187e-06	-1.498379e-08	-1.598385e+01	-9.860586e+02
6.600000e-07	-2.095055e-06	-1.458614e-08	-1.508299e+01	-9.601356e+02
6.700000e-07	-1.969344e-06	-1.416886e-08	-1.417796e+01	-9.326997e+02
6.800000e-07	-1.842959e-06	-1.372792e-08	-1.326807e+01	-9.036472e+02
6.900000e-07	-1.715854e-06	-1.326144e-08	-1.235300e+01	-8.728765e+02
7.000000e-07	-1.588149e-06	-1.276380e-08	-1.143361e+01	-8.402824e+02
7.100000e-07	-1.459930e-06	-1.223659e-08	-1.051052e+01	-8.057523e+02
7.200000e-07	-1.331247e-06	-1.167654e-08	-9.584085e+00	-7.691667e+02
7.300000e-07	-1.202185e-06	-1.108280e-08	-8.654925e+00	-7.304082e+02
7.400000e-07	-1.072724e-06	-1.045512e-08	-7.722896e+00	-6.893781e+02
7.500000e-07	-9.428142e-07	-9.793542e-09	-6.787630e+00	-6.460207e+02
7.600000e-07	-8.125703e-07	-9.100091e-09	-5.849961e+00	-6.003500e+02
7.700000e-07	-6.820176e-07	-8.371690e-09	-4.910069e+00	-5.524722e+02
7.800000e-07	-5.511871e-07	-7.611837e-09	-3.968177e+00	-5.025977e+02
7.900000e-07	-4.201728e-07	-6.826999e-09	-3.024962e+00	-4.510360e+02
8.000000e-07	-2.890518e-07	-6.023113e-09	-2.080979e+00	-3.981718e+02
8.100000e-07	-1.578419e-07	-5.204608e-09	-1.136355e+00	-3.444226e+02
8.200000e-07	-2.654128e-08	-4.378340e-09	-1.910794e-01	-2.901843e+02
8.300000e-07	1.048139e-07	-3.549137e-09	7.545895e-01	-2.357741e+02
8.400000e-07	2.361473e-07	-2.720395e-09	1.700102e+00	-1.813817e+02
8.500000e-07	3.674340e-07	-1.894251e-09	2.645278e+00	-1.270403e+02
8.600000e-07	4.986097e-07	-1.068912e-09	3.589655e+00	-7.262454e+01
8.700000e-07	6.296310e-07	-2.393775e-10	4.532921e+00	-1.787915e+01
8.800000e-07	7.604944e-07	6.009684e-10	5.475050e+00	3.752570e+01
8.900000e-07	8.910949e-07	1.457997e-09	6.415286e+00	9.392040e+01
9.000000e-07	1.021383e-06	2.334742e-09	7.353274e+00	1.515564e+02
9.100000e-07	1.151281e-06	3.230832e-09	8.288451e+00	2.105360e+02
9.200000e-07	1.280675e-06	4.148549e-09	9.220000e+00	2.707639e+02
9.300000e-07	1.409591e-06	5.082144e-09	1.014811e+01	3.319303e+02
9.400000e-07	1.538055e-06	6.022702e-09	1.107296e+01	3.935295e+02
9.500000e-07	1.666000e-06	6.958910e-09	1.199408e+01	4.549083e+02
9.600000e-07	1.793353e-06	7.877212e-09	1.291094e+01	5.153385e+02
9.700000e-07	1.919992e-06	8.768709e-09	1.382266e+01	5.740979e+02
9.800000e-07	2.045847e-06	9.624612e-09	1.472873e+01	6.305472e+02
9.900000e-07	2.171028e-06	1.043999e-08	1.562994e+01	6.841896e+02
1.000000e-06	2.295570e-06	1.120622e-08	1.652656e+01	7.347056e+02
1.010000e-06	2.419275e-06	1.192127e-08	1.741716e+01	7.819593e+02
1.020000e-06	2.541966e-06	1.258918e-08	1.830045e+01	8.259788e+02
1.030000e-06	2.663605e-06	1.321178e-08	1.917617e+01	8.669176e+02
1.040000e-06	2.784239e-06	1.379178e-08	2.004465e+01	9.050070e+02
1.050000e-06	2.903869e-06	1.433289e-08	2.090591e+01	9.405090e+02
1.060000e-06	3.022403e-06	1.483670e-08	2.175928e+01	9.736780e+02
1.070000e-06	3.139841e-06	1.530649e-08	2.260475e+01	1.004736e+03
1.080000e-06	3.256181e-06	1.574697e-08	2.344232e+01	1.033865e+03
1.090000e-06	3.371255e-06	1.616058e-08	2.427078e+01	1.061206e+03
1.100000e-06	3.484892e-06	1.655062e-08	2.508888e+01	1.086876e+03
1.110000e-06	3.597085e-06	1.691957e-08	2.589660e+01	1.110978e+03
1.120000e-06	3.707940e-06	1.726803e-08	2.669468e+01	1.133615e+03
1.130000e-06	3.817560e-06	1.759450e-08	2.748387e+01	1.154896e+03
1.140000e-06	3.926027e-06	1.790058e-08	2.826476e+01	1.174935e+03
1.150000e-06	4.033272e-06	1.818855e-08	2.903686e+01	1.193848e+03
1.160000e-06	4.138999e-06	1.845911e-08	2.979802e+01	1.211741e+03
1.170000e-06	4.243059e-06	1.871443e-08	3.054718e+01	1.228709e+03
1.180000e-06	4.345568e-06	1.895713e-08	3.128517e+01	1.244825e+03
1.190000e-06	4.446645e-06	1.918849e-08	3.201286e+01	1.260143e+03
1.200000e-06	4.546265e-06	1.940952e-08	3.273006e+01	1.274701e+03
1.210000e-06	4.644119e-06	1.961918e-08	3.343454e+01	1.288527e+03
1.220000e-06	4.740099e-06	1.981769e-08	3.412553e+01	1.301645e+03
1.230000e-06	4.834397e-06	2.000535e-08	3.480441e+01	1.314084e+03
1.240000e-06	4.927106e-06	2.018446e-08	3.547186e+01	1.325879e+03
1.250000e-06	5.018156e-06	2.035452e-08	3.612736e+01	1.337068e+03
1.260000e-06	5.107303e-06	2.051568e-08	3.676915e+01	1.347693e+03
1.270000e-06	5.194516e-06	2.067071e-08	3.739703e+01	1.357791e+03
1.280000e-06	5.279883e-06	2.081800e-08	3.801162e+01	1.367395e+03
1.290000e-06	5.363462e-06	2.095806e-08	3.861333e+01	1.376523e+03
1.300000e-06	5.445142e-06	2.109022e-08	3.920137e+01	1.385188e+03
1.310000e-06	5.524735e-06	2.121405e-08	3.977439e+01	1.393391e+03
1.320000e-06	5.602274e-06	2.133367e-08	4.033262e+01	1.401136e+03
1.330000e-06	5.677736e-06	2.144812e-08	4.087589e+01	1.408427e+03
1.340000e-06	5.750991e-06	2.155398e-08	4.140328e+01	1.415275e+03
1.350000e-06	5.822066e-06	2.165189e-08	4.191497e+01	1.421704e+03
1.360000e-06	5.891123e-06	2.174400e-08	4.241213e+01	1.427747e+03
1.370000e-06	5.958112e-06	2.183110e-08	4.289441e+01	1.433443e+03
1.380000e-06	6.022859e-06	2.191239e-08	4.336054e+01	1.438835e+03
1.390000e-06	6.085431e-06	2.198917e-08	4.381102e+01	1.443959e+03
1.400000e-06	6.146007e-06	2.206171e-08	4.424712e+01	1.448848e+03
1.410000e-06	6.204388e-06	2.213092e-08	4.466743e+01	1.453520e+03
1.420000e-06	6.260525e-06	2.219891e-08	4.507158e+01	1.457982e+03
1.430000e-06	6.314479e-06	2.226585e-08	4.546001e+01	1.462232e+03
1.440000e-06	6.365933e-06	2.232865e-08	4.583044e+01	1.466260e+03
1.450000e-06	6.414716e-06	2.238672e-08	4.618165e+01	1.470053e+03
1.460000e-06	6.461052e-06	2.243981e-08	4.651524e+01	1.473597e+03
1.470000e-06	6.505278e-06	2.248922e-08	4.683364e+01	1.476884e+03
1.480000e-06	6.547230e-06	2.253608e-08	4.713566e+01	1.479911e+03
1.490000e-06	6.586661e-06	2.257940e-08	4.741954e+01	1.482680e+03
1.500000e-06	6.623825e-06	2.261849e-08	4.768710e+01	1.485200e+03
1.510000e-06	6.658802e-06	2.265163e-08	4.793891e+01	1.487481e+03
1.520000e-06	6.691308e-06	2.268156e-08	4.817293e+01	1.489537e+03
1.530000e-06	6.721398e-06	2.270968e-08	4.838956e+01	1.491381e+03
1.540000e-06	6.749308e-06	2.273421e-08	4.859049e+01	1.493024e+03
1.550000e-06	6.774715e-06	2.275418e-08	4.877340e+01	1.494478e+03
1.560000e-06	6.797520e-06	2.277199e-08	4.893758e+01	1.495749e+03
1.570000e-06	6.818049e-06	2.278863e-08	4.908538e+01	1.496844e+03
1.580000e-06	6.836206e-06	2.280219e-08	4.921610e+01	1.497768e+03
1.590000e-06	6.851761e-06	2.281341e-08	4.932808e+01	1.498525e+03
1.600000e-06	6.864731e-06	2.282370e-08	4.942146e+01	1.499120e+03
1.610000e-06	6.874977e-06	2.283233e-08	4.949522e+01	1.499557e+03
1.620000e-06	6.882520e-06	2.283762e-08	4.954953e+01	1.499842e+03
1.630000e-06	6.887696e-06	2.284009e-08	4.958679e+01	1.499980e+03
1.640000e-06	6.890483e-06	2.284214e-08	4.960686e+01	1.499976e+03
1.650000e-06	6.890767e-06	2.284350e-08	4.960890e+01	1.499832e+03
1.660000e-06	6.888707e-06	2.283570e-08	4.959407e+01	1.499549e+03
1.670000e-06	6.884482e-06	2.282792e-08	4.956365e+01	1.499123e+03
1.680000e-06	6.877895e-06	2.282174e-08	4.951623e+01	1.498548e+03
1.690000e-06	6.868952e-06	2.281234e-08	4.945185e+01	1.497815e+03
1.700000e-06	6.857859e-06	2.280028e-08	4.937198e+01	1.496918e+03
1.710000e-06	6.844372e-06	2.278776e-08	4.927489e+01	1.495851e+03
1.720000e-06	6.828503e-06	2.277877e-08	4.916064e+01	1.494617e+03
1.730000e-06	6.810573e-06	2.274908e-08	4.903156e+01	1.493225e+03
1.740000e-06	6.790455e-06	2.267324e-08	4.888672e+01	1.491696e+03
1.750000e-06	6.767398e-06	2.265825e-08	4.872073e+01	1.490053e+03
1.760000e-06	6.741074e-06	2.266106e-08	4.853121e+01	1.488327e+03
1.770000e-06	6.712001e-06	2.262447e-08	4.832191e+01	1.486543e+03
1.780000e-06	6.680666e-06	2.263168e-08	4.809631e+01	1.484718e+03
1.790000e-06	6.647599e-06	2.265375e-08	4.785825e+01	1.482854e+03
1.800000e-06	6.613189e-06	2.253581e-08	4.761052e+01	1.480936e+03
1.810000e-06	6.576814e-06	2.253226e-08	4.734865e+01	1.478930e+03
1.820000e-06	6.537854e-06	2.254829e-08	4.706816e+01	1.476787e+03
1.830000e-06	6.496667e-06	2.245169e-08	4.677164e+01	1.474453e+03
1.840000e-06	6.453297e-06	2.250469e-08	4.645941e+01	1.471876e+03
1.850000e-06	6.407584e-06	2.241822e-08	4.613031e+01	1.469013e+03
1.860000e-06	6.359531e-06	2.234929e-08	4.578435e+01	1.465843e+03
1.870000e-06	6.308998e-06	2.234113e-08	4.542055e+01	1.462364e+03
1.880000e-06	6.256099e-06	2.222907e-08	4.503971e+01	1.458597e+03
1.890000e-06	6.200664e-06	2.221880e-08	4.464062e+01	1.454576e+03
1.900000e-06	6.142723e-06	2.212619e-08	4.422348e+01	1.450342e+03
1.910000e-06	6.082541e-06	2.204833e-08	4.379022e+01	1.445932e+03
1.920000e-06	6.019946e-06	2.201717e-08	4.333957e+01	1.441368e+03
1.930000e-06	5.955136e-06	2.190996e-08	4.287298e+01	1.436656e+03
1.940000e-06	5.888238e-06	2.188119e-08	4.239136e+01	1.431781e+03
1.950000e-06	5.819087e-06	2.177431e-08	4.189352e+01	1.426712e+03
1.960000e-06	5.747610e-06	2.169422e-08	4.137894e+01	1.421412e+03
1.970000e-06	5.673882e-06	2.160981e-08	4.084814e+01	1.415841e+03
1.980000e-06	5.598002e-06	2.150321e-08	4.030186e+01	1.409973e+03
1.990000e-06	5.519810e-06	2.144248e-08	3.973893e+01	1.403790e+03
2.000000e-06	5.439487e-06	2.132546e-08	3.916065e+01	1.397292e+03
2.010000e-06	5.357312e-06	2.123763e-08	3.856905e+01	1.390490e+03
2.020000e-06	5.273306e-06	2.111601e-08	3.796426e+01	1.383399e+03
2.030000e-06	5.187343e-06	2.100110e-08	3.734539e+01	1.376032e+03
2.040000e-06	5.099403e-06	2.089687e-08	3.671228e+01	1.368391e+03
2.050000e-06	5.009776e-06	2.077765e-08	3.606703e+01	1.360468e+03
2.060000e-06	4.918496e-06	2.066196e-08	3.540987e+01	1.352240e+03
2.070000e-06	4.825517e-06	2.051589e-08	3.474049e+01	1.343675e+03
2.080000e-06	4.730804e-06	2.038027e-08	3.405862e+01	1.334738e+03
2.090000e-06	4.634330e-06	2.023093e-08	3.336407e+01	1.325399e+03
2.100000e-06	4.536328e-06	2.008688e-08	3.265852e+01	1.315634e+03
2.110000e-06	4.436836e-06	1.993863e-08	3.194224e+01	1.305433e+03
2.120000e-06	4.335747e-06	1.977898e-08	3.121447e+01	1.294791e+03
2.130000e-06	4.233025e-06	1.961000e-08	3.047494e+01	1.283707e+03
2.140000e-06	4.128702e-06	1.943272e-08	2.972388e+01	1.272179e+03
2.150000e-06	4.022909e-06	1.925529e-08	2.896225e+01	1.260192e+03
2.160000e-06	3.915755e-06	1.906491e-08	2.819081e+01	1.247722e+03
2.170000e-06	3.807203e-06	1.886975e-08	2.740931e+01	1.234728e+03
2.180000e-06	3.697241e-06	1.866226e-08	2.661765e+01	1.221161e+03
2.190000e-06	3.585859e-06	1.844609e-08	2.581578e+01	1.206970e+03
2.200000e-06	3.473065e-06	1.821687e-08	2.500374e+01	1.192104e+03
2.210000e-06	3.358912e-06	1.798069e-08	2.418191e+01	1.176521e+03
2.220000e-06	3.243361e-06	1.773410e-08	2.335002e+01	1.160189e+03
2.230000e-06	3.126518e-06	1.747731e-08	2.250883e+01	1.143082e+03
2.240000e-06	3.008451e-06	1.720706e-08	2.165883e+01	1.125177e+03
2.250000e-06	2.889135e-06	1.692408e-08	2.079983e+01	1.106441e+03
2.260000e-06	2.768680e-06	1.662640e-08	1.993264e+01	1.086828e+03
2.270000e-06	2.647251e-06	1.631131e-08	1.905843e+01	1.066274e+03
2.280000e-06	2.524915e-06	1.598054e-08	1.817769e+01	1.044692e+03
2.290000e-06	2.401600e-06	1.563381e-08	1.728991e+01	1.021981e+03
2.300000e-06	2.277413e-06	1.527196e-08	1.639584e+01	9.980294e+02
2.310000e-06	2.152532e-06	1.488701e-08	1.549679e+01	9.727216e+02
2.320000e-06	2.026946e-06	1.448149e-08	1.459265e+01	9.459469e+02
2.330000e-06	1.900594e-06	1.405317e-08	1.368300e+01	9.175995e+02
2.340000e-06	1.773526e-06	1.360065e-08	1.276820e+01	8.875776e+02
2.350000e-06	1.645817e-06	1.311668e-08	1.184878e+01	8.557780e+02
2.360000e-06	1.517496e-06	1.259961e-08	1.092495e+01	8.220918e+02
2.370000e-06	1.388637e-06	1.205130e-08	9.997257e+00	7.864017e+02
2.380000e-06	1.259366e-06	1.147043e-08	9.066593e+00	7.485880e+02
2.390000e-06	1.129755e-06	1.085891e-08	8.133479e+00	7.085411e+02
2.400000e-06	9.998775e-07	1.021251e-08	7.198447e+00	6.661839e+02
2.410000e-06	8.697767e-07	9.532962e-09	6.261809e+00	6.214972e+02
2.420000e-06	7.393774e-07	8.821392e-09	5.323021e+00	5.745456e+02
2.430000e-06	6.086447e-07	8.075285e-09	4.381833e+00	5.254942e+02
2.440000e-06	4.776809e-07	7.297867e-09	3.438982e+00	4.746118e+02
2.450000e-06	3.465873e-07	6.496436e-09	2.495196e+00	4.222553e+02
2.460000e-06	2.153373e-07	5.678420e-09	1.550284e+00	3.688341e+02
2.470000e-06	8.393255e-08	4.848834e-09	6.042581e-01	3.147606e+02
2.480000e-06	-4.751833e-08	4.015515e-09	-3.421001e-01	2.603923e+02
2.490000e-06	-1.789858e-07	3.184115e-09	-1.288578e+00	2.059785e+02
2.500000e-06	-3.104512e-07	2.353344e-09	-2.235040e+00	1.516215e+02
2.510000e-06	-4.417963e-07	1.521852e-09	-3.180637e+00	9.726209e+01
2.520000e-06	-5.729421e-07	6.863284e-10	-4.124799e+00	4.269537e+01
2.530000e-06	-7.038632e-07	-1.577977e-10	-5.067343e+00	-1.238479e+01
2.540000e-06	-8.345340e-07	-1.013830e-09	-6.008085e+00	-6.831827e+01
2.550000e-06	-9.648970e-07	-1.886842e-09	-6.946611e+00	-1.253999e+02
2.560000e-06	-1.094945e-06	-2.779408e-09	-7.882868e+00	-1.838032e+02
2.570000e-06	-1.224725e-06	-3.692128e-09	-8.817197e+00	-2.435217e+02
2.580000e-06	-1.354179e-06	-4.621363e-09	-9.749177e+00	-3.043374e+02
2.590000e-06	-1.483184e-06	-5.560319e-09	-1.067793e+01	-3.658241e+02
2.600000e-06	-1.611628e-06	-6.501061e-09	-1.160264e+01	-4.273841e+02
2.610000e-06	-1.739500e-06	-7.433922e-09	-1.252323e+01	-4.883117e+02
2.620000e-06	-1.866677e-06	-8.346846e-09	-1.343882e+01	-5.478722e+02
2.630000e-06	-1.993042e-06	-9.228405e-09	-1.434856e+01	-6.053819e+02
2.640000e-06	-2.118640e-06	-1.007010e-08	-1.525278e+01	-6.602774e+02
2.650000e-06	-2.243400e-06	-1.086264e-08	-1.615097e+01	-7.121606e+02
2.660000e-06	-2.367347e-06	-1.160436e-08	-1.704331e+01	-7.608181e+02
2.670000e-06	-2.490361e-06	-1.229908e-08	-1.792893e+01	-8.062113e+02
2.680000e-06	-2.612332e-06	-1.294778e-08	-1.880704e+01	-8.484457e+02
2.690000e-06	-2.733455e-06	-1.355199e-08	-1.967904e+01	-8.877251e+02
2.700000e-06	-2.853669e-06	-1.411579e-08	-2.054450e+01	-9.243039e+02
2.710000e-06	-2.972727e-06	-1.464241e-08	-2.140164e+01	-9.584434e+02
2.720000e-06	-3.090526e-06	-1.513049e-08	-2.224972e+01	-9.903818e+02
2.730000e-06	-3.207077e-06	-1.558552e-08	-2.308880e+01	-1.020318e+03
2.740000e-06	-3.322328e-06	-1.601308e-08	-2.391853e+01	-1.048410e+03
2.750000e-06	-3.436247e-06	-1.641497e-08	-2.473867e+01	-1.074783e+03
2.760000e-06	-3.548787e-06	-1.679293e-08	-2.554888e+01	-1.099545e+03
2.770000e-06	-3.659914e-06	-1.714692e-08	-2.634892e+01	-1.122797e+03
2.780000e-06	-3.769709e-06	-1.748027e-08	-2.713938e+01	-1.144646e+03
2.790000e-06	-3.878296e-06	-1.779470e-08	-2.792113e+01	-1.165203e+03
2.800000e-06	-3.985704e-06	-1.809217e-08	-2.869439e+01	-1.184585e+03
2.810000e-06	-4.091800e-06	-1.837406e-08	-2.945821e+01	-1.202903e+03
2.820000e-06	-4.196421e-06	-1.863974e-08	-3.021141e+01	-1.220258e+03
2.830000e-06	-4.299382e-06	-1.889119e-08	-3.095267e+01	-1.236731e+03
2.840000e-06	-4.400689e-06	-1.913088e-08	-3.168201e+01	-1.252386e+03
2.850000e-06	-4.500460e-06	-1.935955e-08	-3.240029e+01	-1.267266e+03
2.860000e-06	-4.598764e-06	-1.957698e-08	-3.310802e+01	-1.281403e+03
2.870000e-06	-4.695612e-06	-1.978394e-08	-3.380525e+01	-1.294821e+03
2.880000e-06	-4.790749e-06	-1.998196e-08	-3.449018e+01	-1.307548e+03
2.890000e-06	-4.884024e-06	-2.016772e-08	-3.516169e+01	-1.319614e+03
2.900000e-06	-4.975578e-06	-2.034158e-08	-3.582082e+01	-1.331058e+03
2.910000e-06	-5.065458e-06	-2.050683e-08	-3.646790e+01	-1.341920e+03
2.920000e-06	-5.153428e-06	-2.066423e-08	-3.710122e+01	-1.352240e+03
2.930000e-06	-5.239248e-06	-2.081318e-08	-3.771907e+01	-1.362052e+03
2.940000e-06	-5.323153e-06	-2.095454e-08	-3.832313e+01	-1.371383e+03
