# Temperatura_=_65.35
# Concentracion g/m^3_=_28200.0
# C_Vs_to_Am_M_A/Vsm_=_65563218390.804596
# pendiente_HvsI_1/m_=_3716.3
# ordenada_HvsI_A/m_=_1297.0
# frecuencia_Hz_=_302284.9538492132

Tiempo_(s)	Campo_(V.s)	Magnetizacion_(V.s)	Campo_(kA/m)	Magnetizacion_(A/m)
0.000000e+00	-6.930054e-06	-2.447094e-08	-4.951901e+01	-1.602302e+03
1.000000e-08	-6.927361e-06	-2.446383e-08	-4.949977e+01	-1.601913e+03
2.000000e-08	-6.922369e-06	-2.445544e-08	-4.946410e+01	-1.601355e+03
3.000000e-08	-6.915270e-06	-2.444392e-08	-4.941337e+01	-1.600628e+03
4.000000e-08	-6.905842e-06	-2.443045e-08	-4.934601e+01	-1.599731e+03
5.000000e-08	-6.893823e-06	-2.441555e-08	-4.926013e+01	-1.598663e+03
6.000000e-08	-6.879136e-06	-2.439923e-08	-4.915518e+01	-1.597428e+03
7.000000e-08	-6.862026e-06	-2.438284e-08	-4.903292e+01	-1.596028e+03
8.000000e-08	-6.842959e-06	-2.437097e-08	-4.889668e+01	-1.594474e+03
9.000000e-08	-6.821799e-06	-2.435726e-08	-4.874547e+01	-1.592779e+03
1.000000e-07	-6.798004e-06	-2.432910e-08	-4.857544e+01	-1.590967e+03
1.100000e-07	-6.771362e-06	-2.428667e-08	-4.838508e+01	-1.589059e+03
1.200000e-07	-6.742165e-06	-2.423795e-08	-4.817644e+01	-1.587081e+03
1.300000e-07	-6.710688e-06	-2.419172e-08	-4.795153e+01	-1.585050e+03
1.400000e-07	-6.677021e-06	-2.414609e-08	-4.771096e+01	-1.582967e+03
1.500000e-07	-6.641482e-06	-2.411688e-08	-4.745701e+01	-1.580820e+03
1.600000e-07	-6.604172e-06	-2.408752e-08	-4.719041e+01	-1.578575e+03
1.700000e-07	-6.564729e-06	-2.403779e-08	-4.690857e+01	-1.576184e+03
1.800000e-07	-6.523001e-06	-2.398206e-08	-4.661040e+01	-1.573586e+03
1.900000e-07	-6.478858e-06	-2.393041e-08	-4.629497e+01	-1.570724e+03
2.000000e-07	-6.432268e-06	-2.388974e-08	-4.596206e+01	-1.567547e+03
2.100000e-07	-6.383232e-06	-2.383112e-08	-4.561167e+01	-1.564027e+03
2.200000e-07	-6.331525e-06	-2.378397e-08	-4.524220e+01	-1.560157e+03
2.300000e-07	-6.277265e-06	-2.373582e-08	-4.485448e+01	-1.555956e+03
2.400000e-07	-6.220644e-06	-2.363781e-08	-4.444989e+01	-1.551460e+03
2.500000e-07	-6.161643e-06	-2.355859e-08	-4.402830e+01	-1.546714e+03
2.600000e-07	-6.100326e-06	-2.349815e-08	-4.359016e+01	-1.541760e+03
2.700000e-07	-6.036741e-06	-2.342122e-08	-4.313580e+01	-1.536628e+03
2.800000e-07	-5.970918e-06	-2.333764e-08	-4.266547e+01	-1.531326e+03
2.900000e-07	-5.902887e-06	-2.325699e-08	-4.217935e+01	-1.525842e+03
3.000000e-07	-5.832614e-06	-2.316709e-08	-4.167721e+01	-1.520148e+03
3.100000e-07	-5.760125e-06	-2.305920e-08	-4.115923e+01	-1.514205e+03
3.200000e-07	-5.685357e-06	-2.296709e-08	-4.062498e+01	-1.507973e+03
3.300000e-07	-5.608233e-06	-2.287733e-08	-4.007389e+01	-1.501422e+03
3.400000e-07	-5.528809e-06	-2.277576e-08	-3.950636e+01	-1.494538e+03
3.500000e-07	-5.447305e-06	-2.266717e-08	-3.892397e+01	-1.487320e+03
3.600000e-07	-5.364026e-06	-2.254687e-08	-3.832889e+01	-1.479778e+03
3.700000e-07	-5.278998e-06	-2.242924e-08	-3.772132e+01	-1.471927e+03
3.800000e-07	-5.192160e-06	-2.230927e-08	-3.710081e+01	-1.463778e+03
3.900000e-07	-5.103466e-06	-2.217817e-08	-3.646705e+01	-1.455329e+03
4.000000e-07	-5.012917e-06	-2.203890e-08	-3.582003e+01	-1.446567e+03
4.100000e-07	-4.920596e-06	-2.189562e-08	-3.516034e+01	-1.437463e+03
4.200000e-07	-4.826653e-06	-2.174882e-08	-3.448907e+01	-1.427983e+03
4.300000e-07	-4.731129e-06	-2.159571e-08	-3.380650e+01	-1.418090e+03
4.400000e-07	-4.633848e-06	-2.143871e-08	-3.311137e+01	-1.407755e+03
4.500000e-07	-4.534846e-06	-2.127478e-08	-3.240395e+01	-1.396960e+03
4.600000e-07	-4.434197e-06	-2.110634e-08	-3.168476e+01	-1.385697e+03
4.700000e-07	-4.331975e-06	-2.093057e-08	-3.095432e+01	-1.373967e+03
4.800000e-07	-4.228247e-06	-2.074266e-08	-3.021313e+01	-1.361773e+03
4.900000e-07	-4.122957e-06	-2.054848e-08	-2.946078e+01	-1.349110e+03
5.000000e-07	-4.016221e-06	-2.034430e-08	-2.869809e+01	-1.335959e+03
5.100000e-07	-3.908031e-06	-2.012983e-08	-2.792501e+01	-1.322289e+03
5.200000e-07	-3.798398e-06	-1.990882e-08	-2.714162e+01	-1.308053e+03
5.300000e-07	-3.687458e-06	-1.968169e-08	-2.634890e+01	-1.293197e+03
5.400000e-07	-3.575094e-06	-1.944402e-08	-2.554599e+01	-1.277668e+03
5.500000e-07	-3.461218e-06	-1.919401e-08	-2.473229e+01	-1.261418e+03
5.600000e-07	-3.345863e-06	-1.893554e-08	-2.390802e+01	-1.244413e+03
5.700000e-07	-3.229082e-06	-1.866550e-08	-2.307355e+01	-1.226626e+03
5.800000e-07	-3.111043e-06	-1.838243e-08	-2.223010e+01	-1.208037e+03
5.900000e-07	-2.991908e-06	-1.808548e-08	-2.137881e+01	-1.188622e+03
6.000000e-07	-2.871667e-06	-1.777645e-08	-2.051963e+01	-1.168342e+03
6.100000e-07	-2.750276e-06	-1.745276e-08	-1.965222e+01	-1.147138e+03
6.200000e-07	-2.627837e-06	-1.710990e-08	-1.877733e+01	-1.124928e+03
6.300000e-07	-2.504421e-06	-1.674990e-08	-1.789545e+01	-1.101605e+03
6.400000e-07	-2.380025e-06	-1.637147e-08	-1.700657e+01	-1.077053e+03
6.500000e-07	-2.254791e-06	-1.597381e-08	-1.611171e+01	-1.051148e+03
6.600000e-07	-2.128879e-06	-1.555570e-08	-1.521200e+01	-1.023771e+03
6.700000e-07	-2.002319e-06	-1.511626e-08	-1.430766e+01	-9.948141e+02
6.800000e-07	-1.875114e-06	-1.465123e-08	-1.339871e+01	-9.641740e+02
6.900000e-07	-1.747189e-06	-1.415762e-08	-1.248462e+01	-9.317502e+02
7.000000e-07	-1.618515e-06	-1.363494e-08	-1.156517e+01	-8.974327e+02
7.100000e-07	-1.489246e-06	-1.308034e-08	-1.064148e+01	-8.610952e+02
7.200000e-07	-1.359518e-06	-1.249158e-08	-9.714498e+00	-8.225930e+02
7.300000e-07	-1.229437e-06	-1.186674e-08	-8.784995e+00	-7.817730e+02
7.400000e-07	-1.099053e-06	-1.120451e-08	-7.853333e+00	-7.384939e+02
7.500000e-07	-9.683232e-07	-1.050417e-08	-6.919198e+00	-6.926569e+02
7.600000e-07	-8.372328e-07	-9.765567e-09	-5.982485e+00	-6.442399e+02
7.700000e-07	-7.058173e-07	-8.988993e-09	-5.043449e+00	-5.933272e+02
7.800000e-07	-5.741337e-07	-8.180148e-09	-4.102499e+00	-5.401257e+02
7.900000e-07	-4.422375e-07	-7.344646e-09	-3.160028e+00	-4.849610e+02
8.000000e-07	-3.101666e-07	-6.484213e-09	-2.216310e+00	-4.282488e+02
8.100000e-07	-1.779909e-07	-5.603694e-09	-1.271842e+00	-3.704457e+02
8.200000e-07	-4.569518e-08	-4.709918e-09	-3.265170e-01	-3.119841e+02
8.300000e-07	8.671443e-08	-3.810718e-09	6.196219e-01	-2.532063e+02
8.400000e-07	2.190965e-07	-2.910927e-09	1.565564e+00	-1.943088e+02
8.500000e-07	3.513945e-07	-2.012443e-09	2.510905e+00	-1.353119e+02
8.600000e-07	4.835976e-07	-1.113478e-09	3.455568e+00	-7.606259e+01
8.700000e-07	6.156784e-07	-2.076481e-10	4.399358e+00	-1.627252e+01
8.800000e-07	7.475574e-07	7.107814e-10	5.341705e+00	4.441258e+01
8.900000e-07	8.791497e-07	1.649056e-09	6.282004e+00	1.063251e+02
9.000000e-07	1.010424e-06	2.612170e-09	7.220033e+00	1.696848e+02
9.100000e-07	1.141284e-06	3.599709e-09	8.155093e+00	2.345236e+02
9.200000e-07	1.271732e-06	4.608275e-09	9.087220e+00	3.006394e+02
9.300000e-07	1.401830e-06	5.630876e-09	1.001684e+01	3.675892e+02
9.400000e-07	1.531508e-06	6.658016e-09	1.094346e+01	4.347237e+02
9.500000e-07	1.660622e-06	7.673731e-09	1.186605e+01	5.012553e+02
9.600000e-07	1.788984e-06	8.661739e-09	1.278327e+01	5.663487e+02
9.700000e-07	1.916554e-06	9.611813e-09	1.369483e+01	6.292154e+02
9.800000e-07	2.043389e-06	1.051565e-08	1.460113e+01	6.891979e+02
9.900000e-07	2.169525e-06	1.137096e-08	1.550244e+01	7.458279e+02
1.000000e-06	2.294969e-06	1.217496e-08	1.639881e+01	7.988521e+02
1.010000e-06	2.419650e-06	1.292430e-08	1.728972e+01	8.482237e+02
1.020000e-06	2.543391e-06	1.362303e-08	1.817392e+01	8.940670e+02
1.030000e-06	2.666115e-06	1.427404e-08	1.905085e+01	9.366235e+02
1.040000e-06	2.787912e-06	1.487868e-08	1.992115e+01	9.761939e+02
1.050000e-06	2.908680e-06	1.543984e-08	2.078411e+01	1.013085e+03
1.060000e-06	3.028217e-06	1.596201e-08	2.163826e+01	1.047573e+03
1.070000e-06	3.146639e-06	1.644821e-08	2.248445e+01	1.079886e+03
1.080000e-06	3.264070e-06	1.690281e-08	2.332356e+01	1.110199e+03
1.090000e-06	3.380285e-06	1.733054e-08	2.415398e+01	1.138649e+03
1.100000e-06	3.495091e-06	1.773439e-08	2.497433e+01	1.165354e+03
1.110000e-06	3.608453e-06	1.811736e-08	2.578437e+01	1.190422e+03
1.120000e-06	3.720341e-06	1.848093e-08	2.658387e+01	1.213973e+03
1.130000e-06	3.830928e-06	1.882377e-08	2.737407e+01	1.236132e+03
1.140000e-06	3.940379e-06	1.914726e-08	2.815616e+01	1.257029e+03
1.150000e-06	4.048550e-06	1.945162e-08	2.892910e+01	1.276792e+03
1.160000e-06	4.155275e-06	1.973471e-08	2.969170e+01	1.295530e+03
1.170000e-06	4.260423e-06	1.999974e-08	3.044305e+01	1.313330e+03
1.180000e-06	4.363926e-06	2.025094e-08	3.118263e+01	1.330257e+03
1.190000e-06	4.465877e-06	2.049200e-08	3.191113e+01	1.346352e+03
1.200000e-06	4.566369e-06	2.072376e-08	3.262920e+01	1.361645e+03
1.210000e-06	4.665251e-06	2.094521e-08	3.333576e+01	1.376162e+03
1.220000e-06	4.762289e-06	2.115631e-08	3.402915e+01	1.389934e+03
1.230000e-06	4.857500e-06	2.135712e-08	3.470949e+01	1.403002e+03
1.240000e-06	4.951037e-06	2.154769e-08	3.537786e+01	1.415415e+03
1.250000e-06	5.042953e-06	2.172758e-08	3.603465e+01	1.427226e+03
1.260000e-06	5.133096e-06	2.189701e-08	3.667877e+01	1.438486e+03
1.270000e-06	5.221253e-06	2.205756e-08	3.730870e+01	1.449237e+03
1.280000e-06	5.307506e-06	2.221066e-08	3.792502e+01	1.459505e+03
1.290000e-06	5.391959e-06	2.235875e-08	3.852849e+01	1.469303e+03
1.300000e-06	5.474501e-06	2.250255e-08	3.911829e+01	1.478631e+03
1.310000e-06	5.554938e-06	2.264052e-08	3.969306e+01	1.487482e+03
1.320000e-06	5.633299e-06	2.277138e-08	4.025300e+01	1.495853e+03
1.330000e-06	5.709633e-06	2.289637e-08	4.079844e+01	1.503747e+03
1.340000e-06	5.783746e-06	2.301375e-08	4.132802e+01	1.511178e+03
1.350000e-06	5.855618e-06	2.312175e-08	4.184158e+01	1.518174e+03
1.360000e-06	5.925379e-06	2.322190e-08	4.234007e+01	1.524768e+03
1.370000e-06	5.993135e-06	2.331544e-08	4.282422e+01	1.531000e+03
1.380000e-06	6.058741e-06	2.340271e-08	4.329301e+01	1.536903e+03
1.390000e-06	6.122076e-06	2.348587e-08	4.374557e+01	1.542508e+03
1.400000e-06	6.183353e-06	2.356742e-08	4.418343e+01	1.547833e+03
1.410000e-06	6.242596e-06	2.364501e-08	4.460675e+01	1.552889e+03
1.420000e-06	6.299537e-06	2.371740e-08	4.501363e+01	1.557681e+03
1.430000e-06	6.354129e-06	2.378657e-08	4.540372e+01	1.562212e+03
1.440000e-06	6.406328e-06	2.385231e-08	4.577671e+01	1.566484e+03
1.450000e-06	6.455871e-06	2.391447e-08	4.613072e+01	1.570505e+03
1.460000e-06	6.502892e-06	2.397209e-08	4.646671e+01	1.574284e+03
1.470000e-06	6.547735e-06	2.402508e-08	4.678714e+01	1.577831e+03
1.480000e-06	6.590377e-06	2.407474e-08	4.709184e+01	1.581154e+03
1.490000e-06	6.630526e-06	2.412109e-08	4.737873e+01	1.584258e+03
1.500000e-06	6.668258e-06	2.416561e-08	4.764834e+01	1.587142e+03
1.510000e-06	6.703823e-06	2.420695e-08	4.790247e+01	1.589797e+03
1.520000e-06	6.737026e-06	2.424541e-08	4.813973e+01	1.592215e+03
1.530000e-06	6.767743e-06	2.428038e-08	4.835922e+01	1.594385e+03
1.540000e-06	6.796194e-06	2.430986e-08	4.856251e+01	1.596302e+03
1.550000e-06	6.822242e-06	2.433439e-08	4.874864e+01	1.597968e+03
1.560000e-06	6.845637e-06	2.435491e-08	4.891581e+01	1.599391e+03
1.570000e-06	6.866570e-06	2.437271e-08	4.906538e+01	1.600588e+03
1.580000e-06	6.885122e-06	2.438758e-08	4.919795e+01	1.601577e+03
1.590000e-06	6.901129e-06	2.439916e-08	4.931233e+01	1.602378e+03
1.600000e-06	6.914548e-06	2.440908e-08	4.940821e+01	1.603009e+03
1.610000e-06	6.925284e-06	2.441879e-08	4.948493e+01	1.603480e+03
1.620000e-06	6.933276e-06	2.442669e-08	4.954204e+01	1.603798e+03
1.630000e-06	6.938808e-06	2.443168e-08	4.958157e+01	1.603962e+03
1.640000e-06	6.941973e-06	2.443400e-08	4.960418e+01	1.603971e+03
1.650000e-06	6.942633e-06	2.443196e-08	4.960890e+01	1.603818e+03
1.660000e-06	6.940878e-06	2.442437e-08	4.959636e+01	1.603500e+03
1.670000e-06	6.936914e-06	2.441341e-08	4.956803e+01	1.603015e+03
1.680000e-06	6.930613e-06	2.440300e-08	4.952301e+01	1.602360e+03
1.690000e-06	6.921934e-06	2.439316e-08	4.946099e+01	1.601536e+03
1.700000e-06	6.911044e-06	2.438136e-08	4.938318e+01	1.600541e+03
1.710000e-06	6.897810e-06	2.436691e-08	4.928861e+01	1.599377e+03
1.720000e-06	6.882178e-06	2.434553e-08	4.917691e+01	1.598047e+03
1.730000e-06	6.864387e-06	2.430830e-08	4.904979e+01	1.596557e+03
1.740000e-06	6.844398e-06	2.427006e-08	4.890696e+01	1.594920e+03
1.750000e-06	6.821515e-06	2.423786e-08	4.874344e+01	1.593155e+03
1.760000e-06	6.795328e-06	2.421903e-08	4.855633e+01	1.591285e+03
1.770000e-06	6.766263e-06	2.419882e-08	4.834864e+01	1.589335e+03
1.780000e-06	6.734936e-06	2.417975e-08	4.812479e+01	1.587324e+03
1.790000e-06	6.701884e-06	2.416152e-08	4.788862e+01	1.585264e+03
1.800000e-06	6.667439e-06	2.414348e-08	4.764249e+01	1.583147e+03
1.810000e-06	6.631084e-06	2.410652e-08	4.738271e+01	1.580949e+03
1.820000e-06	6.592131e-06	2.408053e-08	4.710437e+01	1.578627e+03
1.830000e-06	6.550919e-06	2.407638e-08	4.680989e+01	1.576126e+03
1.840000e-06	6.507565e-06	2.402059e-08	4.650010e+01	1.573383e+03
1.850000e-06	6.461822e-06	2.397649e-08	4.617325e+01	1.570346e+03
1.860000e-06	6.413759e-06	2.392230e-08	4.582981e+01	1.566975e+03
1.870000e-06	6.363248e-06	2.383987e-08	4.546888e+01	1.563254e+03
1.880000e-06	6.310290e-06	2.379372e-08	4.509047e+01	1.559191e+03
1.890000e-06	6.254773e-06	2.373074e-08	4.469376e+01	1.554816e+03
1.900000e-06	6.196699e-06	2.365704e-08	4.427879e+01	1.550171e+03
1.910000e-06	6.136346e-06	2.359462e-08	4.384754e+01	1.545302e+03
1.920000e-06	6.073644e-06	2.351855e-08	4.339950e+01	1.540243e+03
1.930000e-06	6.008665e-06	2.343475e-08	4.293519e+01	1.535014e+03
1.940000e-06	5.941535e-06	2.334978e-08	4.245551e+01	1.529611e+03
1.950000e-06	5.872146e-06	2.328504e-08	4.195969e+01	1.524011e+03
1.960000e-06	5.800417e-06	2.318824e-08	4.144714e+01	1.518180e+03
1.970000e-06	5.726428e-06	2.307562e-08	4.091845e+01	1.512075e+03
1.980000e-06	5.650279e-06	2.298194e-08	4.037433e+01	1.505664e+03
1.990000e-06	5.571791e-06	2.287392e-08	3.981349e+01	1.498923e+03
2.000000e-06	5.491174e-06	2.277398e-08	3.923743e+01	1.491847e+03
2.010000e-06	5.408748e-06	2.266210e-08	3.864845e+01	1.484442e+03
2.020000e-06	5.324395e-06	2.255209e-08	3.804570e+01	1.476722e+03
2.030000e-06	5.238056e-06	2.243545e-08	3.742877e+01	1.468699e+03
2.040000e-06	5.149724e-06	2.229898e-08	3.679758e+01	1.460380e+03
2.050000e-06	5.059659e-06	2.216701e-08	3.615402e+01	1.451755e+03
2.060000e-06	4.967974e-06	2.202891e-08	3.549888e+01	1.442801e+03
2.070000e-06	4.874557e-06	2.189199e-08	3.483137e+01	1.433486e+03
2.080000e-06	4.779401e-06	2.174003e-08	3.415143e+01	1.423774e+03
2.090000e-06	4.682509e-06	2.158656e-08	3.345908e+01	1.413631e+03
2.100000e-06	4.584014e-06	2.142749e-08	3.275528e+01	1.403035e+03
2.110000e-06	4.483993e-06	2.126052e-08	3.204057e+01	1.391972e+03
2.120000e-06	4.382364e-06	2.108914e-08	3.131438e+01	1.380442e+03
2.130000e-06	4.279041e-06	2.090536e-08	3.057608e+01	1.368447e+03
2.140000e-06	4.174149e-06	2.071771e-08	2.982657e+01	1.355986e+03
2.150000e-06	4.067812e-06	2.052025e-08	2.906674e+01	1.343047e+03
2.160000e-06	3.960136e-06	2.031726e-08	2.829733e+01	1.329604e+03
2.170000e-06	3.851036e-06	2.010116e-08	2.751775e+01	1.315617e+03
2.180000e-06	3.740477e-06	1.987990e-08	2.672775e+01	1.301033e+03
2.190000e-06	3.628505e-06	1.965036e-08	2.592765e+01	1.285798e+03
2.200000e-06	3.515079e-06	1.940930e-08	2.511715e+01	1.269862e+03
2.210000e-06	3.400233e-06	1.915745e-08	2.429652e+01	1.253184e+03
2.220000e-06	3.283935e-06	1.889368e-08	2.346551e+01	1.235735e+03
2.230000e-06	3.166263e-06	1.861951e-08	2.262468e+01	1.217492e+03
2.240000e-06	3.047350e-06	1.832969e-08	2.177498e+01	1.198435e+03
2.250000e-06	2.927251e-06	1.802586e-08	2.091681e+01	1.178531e+03
2.260000e-06	2.806006e-06	1.770773e-08	2.005045e+01	1.157732e+03
2.270000e-06	2.683777e-06	1.737536e-08	1.917705e+01	1.135964e+03
2.280000e-06	2.560673e-06	1.702573e-08	1.829741e+01	1.113132e+03
2.290000e-06	2.436663e-06	1.665970e-08	1.741128e+01	1.089122e+03
2.300000e-06	2.311672e-06	1.627591e-08	1.651816e+01	1.063811e+03
2.310000e-06	2.185788e-06	1.587263e-08	1.561865e+01	1.037079e+03
2.320000e-06	2.059227e-06	1.544573e-08	1.471430e+01	1.008812e+03
2.330000e-06	1.932079e-06	1.499280e-08	1.380575e+01	9.789047e+02
2.340000e-06	1.804230e-06	1.451264e-08	1.289221e+01	9.472578e+02
2.350000e-06	1.675642e-06	1.400196e-08	1.197338e+01	9.137661e+02
2.360000e-06	1.546453e-06	1.345875e-08	1.105025e+01	8.783109e+02
2.370000e-06	1.416821e-06	1.288211e-08	1.012396e+01	8.407548e+02
2.380000e-06	1.286797e-06	1.227129e-08	9.194866e+00	8.009466e+02
2.390000e-06	1.156404e-06	1.162630e-08	8.263138e+00	7.587365e+02
2.400000e-06	1.025693e-06	1.094595e-08	7.329136e+00	7.140035e+02
2.410000e-06	8.946589e-07	1.022694e-08	6.392825e+00	6.666884e+02
2.420000e-06	7.633059e-07	9.468750e-09	5.454237e+00	6.168271e+02
2.430000e-06	6.317081e-07	8.673034e-09	4.513899e+00	5.645730e+02
2.440000e-06	4.999478e-07	7.843053e-09	3.572400e+00	5.102029e+02
2.450000e-06	3.679868e-07	6.984692e-09	2.629466e+00	4.540988e+02
2.460000e-06	2.358310e-07	6.108298e-09	1.685141e+00	3.967071e+02
2.470000e-06	1.035510e-07	5.218696e-09	7.399284e-01	3.384789e+02
2.480000e-06	-2.882496e-08	4.319330e-09	-2.059701e-01	2.798028e+02
2.490000e-06	-1.611830e-07	3.416899e-09	-1.151741e+00	2.209433e+02
2.500000e-06	-2.934201e-07	2.513523e-09	-2.096647e+00	1.619979e+02
2.510000e-06	-4.255832e-07	1.609710e-09	-3.041024e+00	1.028853e+02
2.520000e-06	-5.576679e-07	7.004061e-10	-3.984841e+00	4.336818e+01
2.530000e-06	-6.895520e-07	-2.211191e-10	-4.927225e+00	-1.688944e+01
2.540000e-06	-8.211756e-07	-1.156834e-09	-5.867747e+00	-7.824063e+01
2.550000e-06	-9.525417e-07	-2.114775e-09	-6.806430e+00	-1.409640e+02
2.560000e-06	-1.083583e-06	-3.096295e-09	-7.742794e+00	-2.051797e+02
2.570000e-06	-1.214251e-06	-4.098646e-09	-8.676488e+00	-2.707889e+02
2.580000e-06	-1.344583e-06	-5.118504e-09	-9.607781e+00	-3.374501e+02
2.590000e-06	-1.474564e-06	-6.146678e-09	-1.053657e+01	-4.045960e+02
2.600000e-06	-1.604051e-06	-7.173630e-09	-1.146182e+01	-4.714879e+02
2.610000e-06	-1.732944e-06	-8.184675e-09	-1.238283e+01	-5.372993e+02
2.620000e-06	-1.861155e-06	-9.164741e-09	-1.329897e+01	-6.012102e+02
2.630000e-06	-1.988549e-06	-1.010141e-08	-1.420927e+01	-6.624984e+02
2.640000e-06	-2.115235e-06	-1.098930e-08	-1.511451e+01	-7.206091e+02
2.650000e-06	-2.241271e-06	-1.182564e-08	-1.601510e+01	-7.751961e+02
2.660000e-06	-2.366465e-06	-1.260538e-08	-1.690968e+01	-8.261269e+02
2.670000e-06	-2.490674e-06	-1.332995e-08	-1.779723e+01	-8.734585e+02
2.680000e-06	-2.613816e-06	-1.400362e-08	-1.867714e+01	-9.173892e+02
2.690000e-06	-2.735931e-06	-1.463125e-08	-1.954972e+01	-9.582013e+02
2.700000e-06	-2.857109e-06	-1.521782e-08	-2.041560e+01	-9.962045e+02
2.710000e-06	-2.977215e-06	-1.576778e-08	-2.127382e+01	-1.031692e+03
2.720000e-06	-3.096193e-06	-1.627860e-08	-2.212399e+01	-1.064913e+03
2.730000e-06	-3.214076e-06	-1.674961e-08	-2.296633e+01	-1.096064e+03
2.740000e-06	-3.330587e-06	-1.719149e-08	-2.379886e+01	-1.125298e+03
2.750000e-06	-3.445659e-06	-1.760893e-08	-2.462111e+01	-1.152738e+03
2.760000e-06	-3.559335e-06	-1.800371e-08	-2.543339e+01	-1.178493e+03
2.770000e-06	-3.671563e-06	-1.837518e-08	-2.623532e+01	-1.202680e+03
2.780000e-06	-3.782312e-06	-1.872396e-08	-2.702668e+01	-1.225419e+03
2.790000e-06	-3.891708e-06	-1.905250e-08	-2.780838e+01	-1.246842e+03
2.800000e-06	-3.999899e-06	-1.936162e-08	-2.858146e+01	-1.267077e+03
2.810000e-06	-4.106847e-06	-1.965436e-08	-2.934566e+01	-1.286241e+03
2.820000e-06	-4.212514e-06	-1.993225e-08	-3.010071e+01	-1.304435e+03
2.830000e-06	-4.316692e-06	-2.019653e-08	-3.084512e+01	-1.321730e+03
2.840000e-06	-4.419208e-06	-2.044664e-08	-3.157765e+01	-1.338177e+03
2.850000e-06	-4.520005e-06	-2.068414e-08	-3.229790e+01	-1.353811e+03
2.860000e-06	-4.619185e-06	-2.091129e-08	-3.300660e+01	-1.368657e+03
2.870000e-06	-4.716829e-06	-2.112956e-08	-3.370431e+01	-1.382745e+03
2.880000e-06	-4.812811e-06	-2.133870e-08	-3.439016e+01	-1.396109e+03
2.890000e-06	-4.907011e-06	-2.153585e-08	-3.506327e+01	-1.408797e+03
2.900000e-06	-4.999399e-06	-2.172182e-08	-3.572343e+01	-1.420859e+03
2.910000e-06	-5.090105e-06	-2.189760e-08	-3.637158e+01	-1.432350e+03
2.920000e-06	-5.179087e-06	-2.206374e-08	-3.700740e+01	-1.443315e+03
2.930000e-06	-5.266111e-06	-2.222067e-08	-3.762924e+01	-1.453787e+03
2.940000e-06	-5.351097e-06	-2.237024e-08	-3.823651e+01	-1.463787e+03
