# Temperatura_=_86.23
# Concentracion g/m^3_=_28200.0
# C_Vs_to_Am_M_A/Vsm_=_65563218390.804596
# pendiente_HvsI_1/m_=_3716.3
# ordenada_HvsI_A/m_=_1297.0
# frecuencia_Hz_=_302283.4137563711

Tiempo_(s)	Campo_(V.s)	Magnetizacion_(V.s)	Campo_(kA/m)	Magnetizacion_(A/m)
0.000000e+00	-6.901530e-06	-2.822498e-08	-4.951986e+01	-1.847764e+03
1.000000e-08	-6.898263e-06	-2.821933e-08	-4.949642e+01	-1.847217e+03
2.000000e-08	-6.892774e-06	-2.820581e-08	-4.945704e+01	-1.846465e+03
3.000000e-08	-6.885140e-06	-2.819180e-08	-4.940226e+01	-1.845514e+03
4.000000e-08	-6.875088e-06	-2.817280e-08	-4.933013e+01	-1.844365e+03
5.000000e-08	-6.862450e-06	-2.815041e-08	-4.923945e+01	-1.843013e+03
6.000000e-08	-6.847273e-06	-2.812064e-08	-4.913055e+01	-1.841452e+03
7.000000e-08	-6.829779e-06	-2.808732e-08	-4.900503e+01	-1.839680e+03
8.000000e-08	-6.810265e-06	-2.806829e-08	-4.886501e+01	-1.837700e+03
9.000000e-08	-6.788463e-06	-2.811337e-08	-4.870858e+01	-1.835531e+03
1.000000e-07	-6.763941e-06	-2.805811e-08	-4.853263e+01	-1.833204e+03
1.100000e-07	-6.736639e-06	-2.796169e-08	-4.833673e+01	-1.830758e+03
1.200000e-07	-6.706876e-06	-2.792161e-08	-4.812318e+01	-1.828236e+03
1.300000e-07	-6.674936e-06	-2.787520e-08	-4.789400e+01	-1.825667e+03
1.400000e-07	-6.640856e-06	-2.775863e-08	-4.764947e+01	-1.823063e+03
1.500000e-07	-6.604973e-06	-2.774738e-08	-4.739200e+01	-1.820404e+03
1.600000e-07	-6.567239e-06	-2.783437e-08	-4.712125e+01	-1.817642e+03
1.700000e-07	-6.527359e-06	-2.762563e-08	-4.683511e+01	-1.814704e+03
1.800000e-07	-6.485222e-06	-2.762010e-08	-4.653277e+01	-1.811502e+03
1.900000e-07	-6.440542e-06	-2.759678e-08	-4.621218e+01	-1.807955e+03
2.000000e-07	-6.393502e-06	-2.742796e-08	-4.587466e+01	-1.804000e+03
2.100000e-07	-6.344017e-06	-2.743267e-08	-4.551959e+01	-1.799607e+03
2.200000e-07	-6.291775e-06	-2.732933e-08	-4.514474e+01	-1.794782e+03
2.300000e-07	-6.237049e-06	-2.727227e-08	-4.475207e+01	-1.789564e+03
2.400000e-07	-6.179949e-06	-2.720623e-08	-4.434237e+01	-1.784014e+03
2.500000e-07	-6.120480e-06	-2.710028e-08	-4.391567e+01	-1.778198e+03
2.600000e-07	-6.058867e-06	-2.702799e-08	-4.347358e+01	-1.772169e+03
2.700000e-07	-5.995089e-06	-2.690752e-08	-4.301596e+01	-1.765953e+03
2.800000e-07	-5.929016e-06	-2.681218e-08	-4.254188e+01	-1.759545e+03
2.900000e-07	-5.860678e-06	-2.670474e-08	-4.205154e+01	-1.752913e+03
3.000000e-07	-5.790147e-06	-2.659822e-08	-4.154547e+01	-1.746003e+03
3.100000e-07	-5.717431e-06	-2.650220e-08	-4.102371e+01	-1.738758e+03
3.200000e-07	-5.642415e-06	-2.636768e-08	-4.048546e+01	-1.731133e+03
3.300000e-07	-5.564973e-06	-2.626658e-08	-3.992980e+01	-1.723105e+03
3.400000e-07	-5.485207e-06	-2.611143e-08	-3.935746e+01	-1.714675e+03
3.500000e-07	-5.403492e-06	-2.598589e-08	-3.877114e+01	-1.705867e+03
3.600000e-07	-5.320044e-06	-2.585918e-08	-3.817238e+01	-1.696714e+03
3.700000e-07	-5.234841e-06	-2.570069e-08	-3.756103e+01	-1.687246e+03
3.800000e-07	-5.147922e-06	-2.556454e-08	-3.693737e+01	-1.677475e+03
3.900000e-07	-5.059206e-06	-2.539900e-08	-3.630081e+01	-1.667389e+03
4.000000e-07	-4.968598e-06	-2.524024e-08	-3.565068e+01	-1.656953e+03
4.100000e-07	-4.876218e-06	-2.506211e-08	-3.498784e+01	-1.646112e+03
4.200000e-07	-4.782247e-06	-2.489992e-08	-3.431358e+01	-1.634809e+03
4.300000e-07	-4.686688e-06	-2.471898e-08	-3.362792e+01	-1.622994e+03
4.400000e-07	-4.589415e-06	-2.452518e-08	-3.292997e+01	-1.610639e+03
4.500000e-07	-4.490391e-06	-2.433394e-08	-3.221946e+01	-1.597738e+03
4.600000e-07	-4.389716e-06	-2.412858e-08	-3.149709e+01	-1.584306e+03
4.700000e-07	-4.287516e-06	-2.392003e-08	-3.076379e+01	-1.570367e+03
4.800000e-07	-4.183845e-06	-2.369315e-08	-3.001993e+01	-1.555940e+03
4.900000e-07	-4.078684e-06	-2.346896e-08	-2.926538e+01	-1.541024e+03
5.000000e-07	-3.971938e-06	-2.322730e-08	-2.849945e+01	-1.525592e+03
5.100000e-07	-3.863648e-06	-2.298145e-08	-2.772245e+01	-1.509588e+03
5.200000e-07	-3.754074e-06	-2.272540e-08	-2.693623e+01	-1.492936e+03
5.300000e-07	-3.643232e-06	-2.245913e-08	-2.614092e+01	-1.475552e+03
5.400000e-07	-3.530999e-06	-2.218161e-08	-2.533563e+01	-1.457359e+03
5.500000e-07	-3.417322e-06	-2.188896e-08	-2.451997e+01	-1.438302e+03
5.600000e-07	-3.302103e-06	-2.158732e-08	-2.369325e+01	-1.418350e+03
5.700000e-07	-3.185414e-06	-2.126573e-08	-2.285598e+01	-1.397495e+03
5.800000e-07	-3.067501e-06	-2.093390e-08	-2.200993e+01	-1.375735e+03
5.900000e-07	-2.948527e-06	-2.058498e-08	-2.115627e+01	-1.353062e+03
6.000000e-07	-2.828465e-06	-2.022555e-08	-2.029480e+01	-1.329442e+03
6.100000e-07	-2.707340e-06	-1.984891e-08	-1.942571e+01	-1.304804e+03
6.200000e-07	-2.585219e-06	-1.945445e-08	-1.854946e+01	-1.279036e+03
6.300000e-07	-2.462036e-06	-1.903820e-08	-1.766560e+01	-1.251995e+03
6.400000e-07	-2.337901e-06	-1.859880e-08	-1.677491e+01	-1.223522e+03
6.500000e-07	-2.212971e-06	-1.813681e-08	-1.587851e+01	-1.193459e+03
6.600000e-07	-2.087335e-06	-1.764759e-08	-1.497705e+01	-1.161664e+03
6.700000e-07	-1.961089e-06	-1.713497e-08	-1.407121e+01	-1.128021e+03
6.800000e-07	-1.834190e-06	-1.659540e-08	-1.316068e+01	-1.092430e+03
6.900000e-07	-1.706590e-06	-1.602887e-08	-1.224513e+01	-1.054799e+03
7.000000e-07	-1.578382e-06	-1.542541e-08	-1.132521e+01	-1.015022e+03
7.100000e-07	-1.449622e-06	-1.478523e-08	-1.040132e+01	-9.729641e+02
7.200000e-07	-1.320379e-06	-1.410255e-08	-9.473986e+00	-9.284544e+02
7.300000e-07	-1.190766e-06	-1.337818e-08	-8.543985e+00	-8.812973e+02
7.400000e-07	-1.060793e-06	-1.261066e-08	-7.611404e+00	-8.313010e+02
7.500000e-07	-9.304604e-07	-1.179659e-08	-6.676240e+00	-7.783198e+02
7.600000e-07	-7.997890e-07	-1.094212e-08	-5.738646e+00	-7.223010e+02
7.700000e-07	-6.688516e-07	-1.004221e-08	-4.799144e+00	-6.633263e+02
7.800000e-07	-5.376379e-07	-9.103993e-09	-3.857660e+00	-6.016317e+02
7.900000e-07	-4.061456e-07	-8.132275e-09	-2.914176e+00	-5.376003e+02
8.000000e-07	-2.744422e-07	-7.132731e-09	-1.969178e+00	-4.717218e+02
8.100000e-07	-1.426284e-07	-6.109940e-09	-1.023387e+00	-4.045253e+02
8.200000e-07	-1.080389e-08	-5.072243e-09	-7.752007e-02	-3.364956e+02
8.300000e-07	1.210995e-07	-4.027237e-09	8.689132e-01	-2.679919e+02
8.400000e-07	2.530484e-07	-2.976194e-09	1.815673e+00	-1.991857e+02
8.500000e-07	3.848835e-07	-1.920794e-09	2.761616e+00	-1.300353e+02
8.600000e-07	5.165266e-07	-8.580477e-10	3.706182e+00	-6.030480e+01
8.700000e-07	6.480239e-07	2.154535e-10	4.649701e+00	1.037239e+01
8.800000e-07	7.793489e-07	1.307251e-09	5.591984e+00	8.239557e+01
8.900000e-07	9.103221e-07	2.423346e-09	6.531743e+00	1.560832e+02
9.000000e-07	1.040904e-06	3.568728e-09	7.468695e+00	2.315660e+02
9.100000e-07	1.171117e-06	4.741834e-09	8.402997e+00	3.087089e+02
9.200000e-07	1.300940e-06	5.937013e-09	9.334502e+00	3.870780e+02
9.300000e-07	1.430315e-06	7.142346e-09	1.026279e+01	4.659603e+02
9.400000e-07	1.559140e-06	8.343928e-09	1.118714e+01	5.444334e+02
9.500000e-07	1.687416e-06	9.520963e-09	1.210755e+01	6.214704e+02
9.600000e-07	1.815044e-06	1.065131e-08	1.302330e+01	6.960624e+02
9.700000e-07	1.941897e-06	1.172635e-08	1.393350e+01	7.673338e+02
9.800000e-07	2.068054e-06	1.273886e-08	1.483870e+01	8.346314e+02
9.900000e-07	2.193591e-06	1.368890e-08	1.573945e+01	8.975727e+02
1.000000e-06	2.318396e-06	1.457267e-08	1.663496e+01	9.560503e+02
1.010000e-06	2.442398e-06	1.539436e-08	1.752469e+01	1.010194e+03
1.020000e-06	2.565516e-06	1.615823e-08	1.840809e+01	1.060305e+03
1.030000e-06	2.687597e-06	1.686764e-08	1.928405e+01	1.106777e+03
1.040000e-06	2.808623e-06	1.752727e-08	2.015243e+01	1.150022e+03
1.050000e-06	2.928533e-06	1.813989e-08	2.101281e+01	1.190415e+03
1.060000e-06	3.047309e-06	1.871280e-08	2.186506e+01	1.228259e+03
1.070000e-06	3.164990e-06	1.925001e-08	2.270944e+01	1.263778e+03
1.080000e-06	3.281516e-06	1.975362e-08	2.354553e+01	1.297135e+03
1.090000e-06	3.396758e-06	2.022558e-08	2.437242e+01	1.328452e+03
1.100000e-06	3.510552e-06	2.067004e-08	2.518891e+01	1.357843e+03
1.110000e-06	3.622924e-06	2.108790e-08	2.599520e+01	1.385429e+03
1.120000e-06	3.733979e-06	2.148280e-08	2.679205e+01	1.411351e+03
1.130000e-06	3.843799e-06	2.185619e-08	2.758003e+01	1.435766e+03
1.140000e-06	3.952448e-06	2.221045e-08	2.835960e+01	1.458832e+03
1.150000e-06	4.059799e-06	2.254633e-08	2.912987e+01	1.480698e+03
1.160000e-06	4.165669e-06	2.286339e-08	2.988951e+01	1.501485e+03
1.170000e-06	4.269958e-06	2.316382e-08	3.063780e+01	1.521280e+03
1.180000e-06	4.372692e-06	2.344636e-08	3.137494e+01	1.540141e+03
1.190000e-06	4.473975e-06	2.371319e-08	3.210167e+01	1.558097e+03
1.200000e-06	4.573721e-06	2.396798e-08	3.281736e+01	1.575169e+03
1.210000e-06	4.671675e-06	2.421107e-08	3.352020e+01	1.591378e+03
1.220000e-06	4.767784e-06	2.444642e-08	3.420980e+01	1.606757e+03
1.230000e-06	4.862178e-06	2.467068e-08	3.488710e+01	1.621354e+03
1.240000e-06	4.954993e-06	2.488451e-08	3.555306e+01	1.635229e+03
1.250000e-06	5.046145e-06	2.508793e-08	3.620710e+01	1.648447e+03
1.260000e-06	5.135386e-06	2.527790e-08	3.684742e+01	1.661070e+03
1.270000e-06	5.222649e-06	2.545722e-08	3.747355e+01	1.673146e+03
1.280000e-06	5.308059e-06	2.562827e-08	3.808638e+01	1.684708e+03
1.290000e-06	5.391677e-06	2.579427e-08	3.868636e+01	1.695769e+03
1.300000e-06	5.473365e-06	2.595527e-08	3.927249e+01	1.706332e+03
1.310000e-06	5.553006e-06	2.611007e-08	3.984393e+01	1.716395e+03
1.320000e-06	5.630589e-06	2.625703e-08	4.040060e+01	1.725955e+03
1.330000e-06	5.705998e-06	2.639817e-08	4.094167e+01	1.735017e+03
1.340000e-06	5.779128e-06	2.653237e-08	4.146640e+01	1.743596e+03
1.350000e-06	5.850133e-06	2.665901e-08	4.197587e+01	1.751713e+03
1.360000e-06	5.919125e-06	2.677945e-08	4.247091e+01	1.759394e+03
1.370000e-06	5.985974e-06	2.689231e-08	4.295056e+01	1.766663e+03
1.380000e-06	6.050579e-06	2.699633e-08	4.341411e+01	1.773542e+03
1.390000e-06	6.113050e-06	2.709254e-08	4.386236e+01	1.780049e+03
1.400000e-06	6.173576e-06	2.718317e-08	4.429664e+01	1.786196e+03
1.410000e-06	6.231979e-06	2.726933e-08	4.471569e+01	1.791996e+03
1.420000e-06	6.288073e-06	2.735219e-08	4.511818e+01	1.797466e+03
1.430000e-06	6.341925e-06	2.743309e-08	4.550458e+01	1.802622e+03
1.440000e-06	6.393244e-06	2.751175e-08	4.587281e+01	1.807489e+03
1.450000e-06	6.441869e-06	2.758562e-08	4.622170e+01	1.812089e+03
1.460000e-06	6.488131e-06	2.765267e-08	4.655364e+01	1.816442e+03
1.470000e-06	6.532277e-06	2.771463e-08	4.687039e+01	1.820560e+03
1.480000e-06	6.574076e-06	2.777344e-08	4.717031e+01	1.824443e+03
1.490000e-06	6.613397e-06	2.782761e-08	4.745245e+01	1.828081e+03
1.500000e-06	6.650500e-06	2.787663e-08	4.771867e+01	1.831453e+03
1.510000e-06	6.685329e-06	2.792209e-08	4.796857e+01	1.834538e+03
1.520000e-06	6.717667e-06	2.796625e-08	4.820060e+01	1.837315e+03
1.530000e-06	6.747648e-06	2.800620e-08	4.841572e+01	1.839776e+03
1.540000e-06	6.775391e-06	2.803814e-08	4.861479e+01	1.841924e+03
1.550000e-06	6.800602e-06	2.806476e-08	4.879568e+01	1.843775e+03
1.560000e-06	6.823184e-06	2.808984e-08	4.895771e+01	1.845356e+03
1.570000e-06	6.843461e-06	2.811256e-08	4.910320e+01	1.846698e+03
1.580000e-06	6.861366e-06	2.813097e-08	4.923167e+01	1.847828e+03
1.590000e-06	6.876630e-06	2.814428e-08	4.934119e+01	1.848767e+03
1.600000e-06	6.889303e-06	2.815525e-08	4.943212e+01	1.849523e+03
1.610000e-06	6.899242e-06	2.816424e-08	4.950344e+01	1.850094e+03
1.620000e-06	6.906508e-06	2.816959e-08	4.955558e+01	1.850472e+03
1.630000e-06	6.911444e-06	2.817502e-08	4.959100e+01	1.850646e+03
1.640000e-06	6.913940e-06	2.817912e-08	4.960890e+01	1.850608e+03
1.650000e-06	6.913915e-06	2.818130e-08	4.960872e+01	1.850355e+03
1.660000e-06	6.911613e-06	2.816814e-08	4.959220e+01	1.849889e+03
1.670000e-06	6.907074e-06	2.815641e-08	4.955964e+01	1.849216e+03
1.680000e-06	6.900129e-06	2.814392e-08	4.950981e+01	1.848343e+03
1.690000e-06	6.890882e-06	2.812719e-08	4.944346e+01	1.847271e+03
1.700000e-06	6.879464e-06	2.811150e-08	4.936153e+01	1.845999e+03
1.710000e-06	6.865613e-06	2.809705e-08	4.926215e+01	1.844521e+03
1.720000e-06	6.849368e-06	2.809129e-08	4.914559e+01	1.842831e+03
1.730000e-06	6.831103e-06	2.803357e-08	4.901453e+01	1.840931e+03
1.740000e-06	6.810566e-06	2.792233e-08	4.886718e+01	1.838833e+03
1.750000e-06	6.786925e-06	2.793528e-08	4.869754e+01	1.836563e+03
1.760000e-06	6.760083e-06	2.793422e-08	4.850494e+01	1.834158e+03
1.770000e-06	6.730557e-06	2.786377e-08	4.829309e+01	1.831661e+03
1.780000e-06	6.698867e-06	2.790622e-08	4.806571e+01	1.829107e+03
1.790000e-06	6.665591e-06	2.790217e-08	4.782695e+01	1.826517e+03
1.800000e-06	6.630939e-06	2.769473e-08	4.757832e+01	1.823884e+03
1.810000e-06	6.594114e-06	2.777699e-08	4.731409e+01	1.821169e+03
1.820000e-06	6.554709e-06	2.774986e-08	4.703135e+01	1.818310e+03
1.830000e-06	6.513154e-06	2.765147e-08	4.673318e+01	1.815221e+03
1.840000e-06	6.469280e-06	2.777832e-08	4.641838e+01	1.811818e+03
1.850000e-06	6.423063e-06	2.756952e-08	4.608676e+01	1.808029e+03
1.860000e-06	6.374546e-06	2.755942e-08	4.573864e+01	1.803809e+03
1.870000e-06	6.323604e-06	2.749901e-08	4.537313e+01	1.799150e+03
1.880000e-06	6.270239e-06	2.731953e-08	4.499022e+01	1.794079e+03
1.890000e-06	6.214275e-06	2.735798e-08	4.458867e+01	1.788652e+03
1.900000e-06	6.155916e-06	2.718028e-08	4.416993e+01	1.782932e+03
1.910000e-06	6.095268e-06	2.714710e-08	4.373477e+01	1.776981e+03
1.920000e-06	6.032201e-06	2.708146e-08	4.328225e+01	1.770837e+03
1.930000e-06	5.966952e-06	2.692054e-08	4.281408e+01	1.764507e+03
1.940000e-06	5.899578e-06	2.689716e-08	4.233066e+01	1.757968e+03
1.950000e-06	5.829878e-06	2.670894e-08	4.183054e+01	1.751173e+03
1.960000e-06	5.757762e-06	2.665659e-08	4.131309e+01	1.744066e+03
1.970000e-06	5.683499e-06	2.650658e-08	4.078024e+01	1.736594e+03
1.980000e-06	5.607056e-06	2.638837e-08	4.023175e+01	1.728725e+03
1.990000e-06	5.528247e-06	2.630578e-08	3.966628e+01	1.720451e+03
2.000000e-06	5.447461e-06	2.612500e-08	3.908662e+01	1.711787e+03
2.010000e-06	5.364940e-06	2.603937e-08	3.849452e+01	1.702765e+03
2.020000e-06	5.280536e-06	2.585233e-08	3.788890e+01	1.693418e+03
2.030000e-06	5.194078e-06	2.573119e-08	3.726855e+01	1.683765e+03
2.040000e-06	5.105621e-06	2.557178e-08	3.663385e+01	1.673806e+03
2.050000e-06	5.015495e-06	2.541297e-08	3.598718e+01	1.663512e+03
2.060000e-06	4.923770e-06	2.526166e-08	3.532904e+01	1.652836e+03
2.070000e-06	4.830310e-06	2.507273e-08	3.465844e+01	1.641721e+03
2.080000e-06	4.735041e-06	2.491632e-08	3.397487e+01	1.630112e+03
2.090000e-06	4.638071e-06	2.471056e-08	3.327909e+01	1.617970e+03
2.100000e-06	4.539527e-06	2.453308e-08	3.257202e+01	1.605283e+03
2.110000e-06	4.439461e-06	2.432667e-08	3.185402e+01	1.592056e+03
2.120000e-06	4.337857e-06	2.412484e-08	3.112499e+01	1.578313e+03
2.130000e-06	4.234581e-06	2.390273e-08	3.038397e+01	1.564076e+03
2.140000e-06	4.129736e-06	2.367882e-08	2.963168e+01	1.549353e+03
2.150000e-06	4.023521e-06	2.345377e-08	2.886957e+01	1.534128e+03
2.160000e-06	3.915932e-06	2.320876e-08	2.809759e+01	1.518357e+03
2.170000e-06	3.806959e-06	2.296320e-08	2.731569e+01	1.501969e+03
2.180000e-06	3.696593e-06	2.269753e-08	2.652380e+01	1.484882e+03
2.190000e-06	3.584754e-06	2.243036e-08	2.572132e+01	1.467014e+03
2.200000e-06	3.471451e-06	2.213859e-08	2.490835e+01	1.448302e+03
2.210000e-06	3.356759e-06	2.184471e-08	2.408542e+01	1.428703e+03
2.220000e-06	3.240642e-06	2.153194e-08	2.325225e+01	1.408202e+03
2.230000e-06	3.123145e-06	2.121408e-08	2.240919e+01	1.386797e+03
2.240000e-06	3.004370e-06	2.087572e-08	2.155695e+01	1.364485e+03
2.250000e-06	2.884330e-06	2.052326e-08	2.069564e+01	1.341243e+03
2.260000e-06	2.763217e-06	2.015249e-08	1.982663e+01	1.317015e+03
2.270000e-06	2.641235e-06	1.976404e-08	1.895139e+01	1.291706e+03
2.280000e-06	2.518377e-06	1.936089e-08	1.806986e+01	1.265183e+03
2.290000e-06	2.394589e-06	1.893329e-08	1.718166e+01	1.237292e+03
2.300000e-06	2.269951e-06	1.848713e-08	1.628735e+01	1.207871e+03
2.310000e-06	2.144548e-06	1.801378e-08	1.538756e+01	1.176772e+03
2.320000e-06	2.018389e-06	1.751623e-08	1.448234e+01	1.143866e+03
2.330000e-06	1.891454e-06	1.698612e-08	1.357156e+01	1.109051e+03
2.340000e-06	1.763774e-06	1.642765e-08	1.265543e+01	1.072232e+03
2.350000e-06	1.635451e-06	1.583574e-08	1.173469e+01	1.033313e+03
2.360000e-06	1.506578e-06	1.520769e-08	1.081000e+01	9.921688e+02
2.370000e-06	1.377295e-06	1.453882e-08	9.882366e+00	9.486442e+02
2.380000e-06	1.247665e-06	1.383140e-08	8.952243e+00	9.025506e+02
2.390000e-06	1.117681e-06	1.308721e-08	8.019582e+00	8.536903e+02
2.400000e-06	9.873809e-07	1.229734e-08	7.084655e+00	8.018937e+02
2.410000e-06	8.567586e-07	1.146317e-08	6.147414e+00	7.470662e+02
2.420000e-06	7.259018e-07	1.058487e-08	5.208491e+00	6.892328e+02
2.430000e-06	5.948503e-07	9.662580e-09	4.268170e+00	6.285682e+02
2.440000e-06	4.635486e-07	8.700444e-09	3.326054e+00	5.654006e+02
2.450000e-06	3.320569e-07	7.704245e-09	2.382575e+00	5.001846e+02
2.460000e-06	2.004207e-07	6.682791e-09	1.438059e+00	4.334432e+02
2.470000e-06	6.864999e-08	5.644139e-09	4.925774e-01	3.656889e+02
2.480000e-06	-6.318370e-08	4.596995e-09	-4.533557e-01	2.973391e+02
2.490000e-06	-1.949931e-07	3.543444e-09	-1.399115e+00	2.286443e+02
2.500000e-06	-3.267456e-07	2.485806e-09	-2.344465e+00	1.596471e+02
2.510000e-06	-4.584170e-07	1.423810e-09	-3.289234e+00	9.018236e+01
2.520000e-06	-5.899662e-07	3.504207e-10	-4.233126e+00	1.992487e+01
2.530000e-06	-7.212755e-07	-7.405994e-10	-5.175296e+00	-5.152498e+01
2.540000e-06	-8.522618e-07	-1.853817e-09	-6.115149e+00	-1.245310e+02
2.550000e-06	-9.829869e-07	-2.993006e-09	-7.053127e+00	-1.993092e+02
2.560000e-06	-1.113461e-06	-4.159335e-09	-7.989307e+00	-2.758355e+02
2.570000e-06	-1.243579e-06	-5.349354e-09	-8.922925e+00	-3.537939e+02
2.580000e-06	-1.373291e-06	-6.555659e-09	-9.853639e+00	-4.325756e+02
2.590000e-06	-1.502554e-06	-7.765635e-09	-1.078113e+01	-5.113292e+02
2.600000e-06	-1.631328e-06	-8.960955e-09	-1.170511e+01	-5.890549e+02
2.610000e-06	-1.759575e-06	-1.012295e-08	-1.262530e+01	-6.647220e+02
2.620000e-06	-1.887137e-06	-1.123645e-08	-1.354059e+01	-7.373902e+02
2.630000e-06	-2.013943e-06	-1.229038e-08	-1.445044e+01	-8.063106e+02
2.640000e-06	-2.139957e-06	-1.327975e-08	-1.535462e+01	-8.709914e+02
2.650000e-06	-2.265125e-06	-1.420074e-08	-1.625273e+01	-9.312195e+02
2.660000e-06	-2.389424e-06	-1.505582e-08	-1.714460e+01	-9.870381e+02
2.670000e-06	-2.512734e-06	-1.584842e-08	-1.802937e+01	-1.038690e+03
2.680000e-06	-2.635051e-06	-1.658349e-08	-1.890701e+01	-1.086542e+03
2.690000e-06	-2.756494e-06	-1.726815e-08	-1.977839e+01	-1.131008e+03
2.700000e-06	-2.876941e-06	-1.790719e-08	-2.064262e+01	-1.172482e+03
2.710000e-06	-2.996264e-06	-1.850525e-08	-2.149880e+01	-1.211296e+03
2.720000e-06	-3.114456e-06	-1.906401e-08	-2.234685e+01	-1.247707e+03
2.730000e-06	-3.231434e-06	-1.958513e-08	-2.318619e+01	-1.281898e+03
2.740000e-06	-3.347035e-06	-2.007277e-08	-2.401564e+01	-1.314003e+03
2.750000e-06	-3.461210e-06	-2.053242e-08	-2.483488e+01	-1.344138e+03
2.760000e-06	-3.573997e-06	-2.096445e-08	-2.564414e+01	-1.372417e+03
2.770000e-06	-3.685353e-06	-2.137011e-08	-2.644314e+01	-1.398976e+03
2.780000e-06	-3.795336e-06	-2.175473e-08	-2.723230e+01	-1.423964e+03
2.790000e-06	-3.904063e-06	-2.211873e-08	-2.801244e+01	-1.447541e+03
2.800000e-06	-4.011586e-06	-2.246172e-08	-2.878393e+01	-1.469863e+03
2.810000e-06	-4.117860e-06	-2.278618e-08	-2.954647e+01	-1.491062e+03
2.820000e-06	-4.222703e-06	-2.309439e-08	-3.029874e+01	-1.511239e+03
2.830000e-06	-4.325928e-06	-2.338762e-08	-3.103940e+01	-1.530463e+03
2.840000e-06	-4.427544e-06	-2.366676e-08	-3.176852e+01	-1.548772e+03
2.850000e-06	-4.527581e-06	-2.393299e-08	-3.248630e+01	-1.566189e+03
2.860000e-06	-4.626056e-06	-2.418564e-08	-3.319288e+01	-1.582735e+03
2.870000e-06	-4.722957e-06	-2.442513e-08	-3.388816e+01	-1.598435e+03
2.880000e-06	-4.818163e-06	-2.465412e-08	-3.457129e+01	-1.613333e+03
2.890000e-06	-4.911531e-06	-2.487149e-08	-3.524121e+01	-1.627485e+03
2.900000e-06	-5.003131e-06	-2.507898e-08	-3.589846e+01	-1.640954e+03
2.910000e-06	-5.093030e-06	-2.528005e-08	-3.654351e+01	-1.653805e+03
2.920000e-06	-5.181067e-06	-2.547211e-08	-3.717519e+01	-1.666091e+03
2.930000e-06	-5.267119e-06	-2.565444e-08	-3.779263e+01	-1.677853e+03
2.940000e-06	-5.351185e-06	-2.582723e-08	-3.839582e+01	-1.689110e+03
