# Temperatura_=_57.99
# Concentracion g/m^3_=_28200.0
# C_Vs_to_Am_M_A/Vsm_=_65563218390.804596
# pendiente_HvsI_1/m_=_3716.3
# ordenada_HvsI_A/m_=_1297.0
# frecuencia_Hz_=_302285.6102123429

Tiempo_(s)	Campo_(V.s)	Magnetizacion_(V.s)	Campo_(kA/m)	Magnetizacion_(A/m)
0.000000e+00	-6.904454e-06	-2.406798e-08	-4.951893e+01	-1.575456e+03
1.000000e-08	-6.901596e-06	-2.405946e-08	-4.949844e+01	-1.575053e+03
2.000000e-08	-6.896404e-06	-2.405062e-08	-4.946120e+01	-1.574477e+03
3.000000e-08	-6.889076e-06	-2.404103e-08	-4.940864e+01	-1.573730e+03
4.000000e-08	-6.879482e-06	-2.402869e-08	-4.933983e+01	-1.572814e+03
5.000000e-08	-6.867287e-06	-2.401402e-08	-4.925237e+01	-1.571736e+03
6.000000e-08	-6.852416e-06	-2.399444e-08	-4.914572e+01	-1.570500e+03
7.000000e-08	-6.835183e-06	-2.397269e-08	-4.902212e+01	-1.569113e+03
8.000000e-08	-6.815966e-06	-2.396041e-08	-4.888429e+01	-1.567582e+03
9.000000e-08	-6.794587e-06	-2.395602e-08	-4.873096e+01	-1.565920e+03
1.000000e-07	-6.770528e-06	-2.391581e-08	-4.855842e+01	-1.564140e+03
1.100000e-07	-6.743620e-06	-2.387377e-08	-4.836543e+01	-1.562261e+03
1.200000e-07	-6.714227e-06	-2.383432e-08	-4.815462e+01	-1.560300e+03
1.300000e-07	-6.682628e-06	-2.378615e-08	-4.792799e+01	-1.558273e+03
1.400000e-07	-6.648927e-06	-2.372879e-08	-4.768629e+01	-1.556184e+03
1.500000e-07	-6.613384e-06	-2.371851e-08	-4.743137e+01	-1.554028e+03
1.600000e-07	-6.575979e-06	-2.370135e-08	-4.716310e+01	-1.551781e+03
1.700000e-07	-6.536418e-06	-2.360356e-08	-4.687937e+01	-1.549407e+03
1.800000e-07	-6.494608e-06	-2.358924e-08	-4.657951e+01	-1.546858e+03
1.900000e-07	-6.450370e-06	-2.353214e-08	-4.626223e+01	-1.544081e+03
2.000000e-07	-6.403694e-06	-2.347595e-08	-4.592747e+01	-1.541028e+03
2.100000e-07	-6.354578e-06	-2.345037e-08	-4.557521e+01	-1.537663e+03
2.200000e-07	-6.302775e-06	-2.337901e-08	-4.520367e+01	-1.533970e+03
2.300000e-07	-6.248391e-06	-2.334674e-08	-4.481363e+01	-1.529950e+03
2.400000e-07	-6.191629e-06	-2.326050e-08	-4.440653e+01	-1.525626e+03
2.500000e-07	-6.132550e-06	-2.317926e-08	-4.398282e+01	-1.521031e+03
2.600000e-07	-6.071245e-06	-2.311300e-08	-4.354314e+01	-1.516200e+03
2.700000e-07	-6.007684e-06	-2.302616e-08	-4.308727e+01	-1.511167e+03
2.800000e-07	-5.941852e-06	-2.294320e-08	-4.261513e+01	-1.505948e+03
2.900000e-07	-5.873820e-06	-2.285520e-08	-4.212720e+01	-1.500546e+03
3.000000e-07	-5.803575e-06	-2.278002e-08	-4.162340e+01	-1.494946e+03
3.100000e-07	-5.731089e-06	-2.268600e-08	-4.110353e+01	-1.489123e+03
3.200000e-07	-5.656362e-06	-2.259077e-08	-4.056759e+01	-1.483045e+03
3.300000e-07	-5.579320e-06	-2.250207e-08	-4.001504e+01	-1.476682e+03
3.400000e-07	-5.499974e-06	-2.239211e-08	-3.944597e+01	-1.470012e+03
3.500000e-07	-5.418590e-06	-2.229272e-08	-3.886228e+01	-1.463024e+03
3.600000e-07	-5.335366e-06	-2.218053e-08	-3.826539e+01	-1.455713e+03
3.700000e-07	-5.250423e-06	-2.206573e-08	-3.765618e+01	-1.448081e+03
3.800000e-07	-5.163814e-06	-2.195035e-08	-3.703501e+01	-1.440132e+03
3.900000e-07	-5.075341e-06	-2.181755e-08	-3.640048e+01	-1.431863e+03
4.000000e-07	-4.984947e-06	-2.168007e-08	-3.575218e+01	-1.423264e+03
4.100000e-07	-4.892815e-06	-2.153593e-08	-3.509140e+01	-1.414318e+03
4.200000e-07	-4.799056e-06	-2.139861e-08	-3.441896e+01	-1.405005e+03
4.300000e-07	-4.703663e-06	-2.125009e-08	-3.373480e+01	-1.395302e+03
4.400000e-07	-4.606637e-06	-2.109621e-08	-3.303893e+01	-1.385188e+03
4.500000e-07	-4.507932e-06	-2.093744e-08	-3.233101e+01	-1.374649e+03
4.600000e-07	-4.407525e-06	-2.077009e-08	-3.161089e+01	-1.363675e+03
4.700000e-07	-4.305571e-06	-2.059715e-08	-3.087967e+01	-1.352260e+03
4.800000e-07	-4.202077e-06	-2.041290e-08	-3.013741e+01	-1.340395e+03
4.900000e-07	-4.097064e-06	-2.022861e-08	-2.938426e+01	-1.328062e+03
5.000000e-07	-3.990559e-06	-2.003150e-08	-2.862040e+01	-1.315233e+03
5.100000e-07	-3.882527e-06	-1.982275e-08	-2.784559e+01	-1.301870e+03
5.200000e-07	-3.773180e-06	-1.960339e-08	-2.706135e+01	-1.287925e+03
5.300000e-07	-3.662525e-06	-1.937839e-08	-2.626773e+01	-1.273346e+03
5.400000e-07	-3.550363e-06	-1.914607e-08	-2.546330e+01	-1.258086e+03
5.500000e-07	-3.436818e-06	-1.890062e-08	-2.464895e+01	-1.242104e+03
5.600000e-07	-3.321881e-06	-1.864612e-08	-2.382462e+01	-1.225371e+03
5.700000e-07	-3.205481e-06	-1.837747e-08	-2.298980e+01	-1.207866e+03
5.800000e-07	-3.087794e-06	-1.809680e-08	-2.214574e+01	-1.189571e+03
5.900000e-07	-2.968967e-06	-1.780372e-08	-2.129351e+01	-1.170460e+03
6.000000e-07	-2.849089e-06	-1.750286e-08	-2.043374e+01	-1.150493e+03
6.100000e-07	-2.728160e-06	-1.718681e-08	-1.956644e+01	-1.129605e+03
6.200000e-07	-2.606190e-06	-1.685125e-08	-1.869166e+01	-1.107711e+03
6.300000e-07	-2.483166e-06	-1.649592e-08	-1.780934e+01	-1.084703e+03
6.400000e-07	-2.359158e-06	-1.611888e-08	-1.691995e+01	-1.060460e+03
6.500000e-07	-2.234349e-06	-1.572129e-08	-1.602481e+01	-1.034860e+03
6.600000e-07	-2.108856e-06	-1.530336e-08	-1.512477e+01	-1.007784e+03
6.700000e-07	-1.982737e-06	-1.486788e-08	-1.422025e+01	-9.791234e+02
6.800000e-07	-1.855980e-06	-1.440943e-08	-1.331114e+01	-9.487801e+02
6.900000e-07	-1.728482e-06	-1.392416e-08	-1.239672e+01	-9.166566e+02
7.000000e-07	-1.600273e-06	-1.340648e-08	-1.147720e+01	-8.826491e+02
7.100000e-07	-1.471526e-06	-1.285594e-08	-1.055383e+01	-8.466392e+02
7.200000e-07	-1.342351e-06	-1.227103e-08	-9.627376e+00	-8.084928e+02
7.300000e-07	-1.212778e-06	-1.165012e-08	-8.698075e+00	-7.680682e+02
7.400000e-07	-1.082839e-06	-1.099444e-08	-7.766151e+00	-7.252366e+02
7.500000e-07	-9.525610e-07	-1.030183e-08	-6.831794e+00	-6.799104e+02
7.600000e-07	-8.218991e-07	-9.572149e-09	-5.894683e+00	-6.320759e+02
7.700000e-07	-6.908521e-07	-8.803839e-09	-4.954810e+00	-5.818223e+02
7.800000e-07	-5.594718e-07	-8.003779e-09	-4.012547e+00	-5.293569e+02
7.900000e-07	-4.278667e-07	-7.178003e-09	-3.068671e+00	-4.750012e+02
8.000000e-07	-2.961416e-07	-6.331029e-09	-2.123936e+00	-4.191644e+02
8.100000e-07	-1.643515e-07	-5.467572e-09	-1.178734e+00	-3.622946e+02
8.200000e-07	-3.246526e-08	-4.591907e-09	-2.328417e-01	-3.048171e+02
8.300000e-07	9.952989e-08	-3.709922e-09	7.138311e-01	-2.470687e+02
8.400000e-07	2.315122e-07	-2.824746e-09	1.660412e+00	-1.892441e+02
8.500000e-07	3.633853e-07	-1.940846e-09	2.606210e+00	-1.313645e+02
8.600000e-07	4.951321e-07	-1.055855e-09	3.551101e+00	-7.327971e+01
8.700000e-07	6.267190e-07	-1.670021e-10	4.494846e+00	-1.470431e+01
8.800000e-07	7.581367e-07	7.314812e-10	5.437377e+00	4.471551e+01
8.900000e-07	8.893243e-07	1.649776e-09	6.378259e+00	1.053161e+02
9.000000e-07	1.020132e-06	2.592095e-09	7.316417e+00	1.673269e+02
9.100000e-07	1.150538e-06	3.557990e-09	8.251694e+00	2.307955e+02
9.200000e-07	1.280537e-06	4.544539e-09	9.184047e+00	2.955403e+02
9.300000e-07	1.410033e-06	5.545852e-09	1.011280e+01	3.611423e+02
9.400000e-07	1.538987e-06	6.552042e-09	1.103766e+01	4.269766e+02
9.500000e-07	1.667361e-06	7.547673e-09	1.195836e+01	4.922782e+02
9.600000e-07	1.795109e-06	8.518363e-09	1.287457e+01	5.562298e+02
9.700000e-07	1.922189e-06	9.453764e-09	1.378599e+01	6.180556e+02
9.800000e-07	2.048545e-06	1.034382e-08	1.469222e+01	6.771043e+02
9.900000e-07	2.174135e-06	1.118648e-08	1.559295e+01	7.329079e+02
1.000000e-06	2.299009e-06	1.197662e-08	1.648856e+01	7.852078e+02
1.010000e-06	2.423191e-06	1.271316e-08	1.737919e+01	8.339486e+02
1.020000e-06	2.546550e-06	1.340180e-08	1.826392e+01	8.792428e+02
1.030000e-06	2.668927e-06	1.404332e-08	1.914161e+01	9.213188e+02
1.040000e-06	2.790140e-06	1.464077e-08	2.001096e+01	9.604634e+02
1.050000e-06	2.910154e-06	1.519631e-08	2.087170e+01	9.969701e+02
1.060000e-06	3.029079e-06	1.571385e-08	2.172464e+01	1.031102e+03
1.070000e-06	3.146964e-06	1.619597e-08	2.257011e+01	1.063077e+03
1.080000e-06	3.263817e-06	1.664738e-08	2.340818e+01	1.093060e+03
1.090000e-06	3.379490e-06	1.707046e-08	2.423780e+01	1.121184e+03
1.100000e-06	3.493681e-06	1.746899e-08	2.505677e+01	1.147561e+03
1.110000e-06	3.606297e-06	1.784665e-08	2.586446e+01	1.172305e+03
1.120000e-06	3.717578e-06	1.820240e-08	2.666257e+01	1.195537e+03
1.130000e-06	3.827697e-06	1.853672e-08	2.745235e+01	1.217388e+03
1.140000e-06	3.936602e-06	1.885381e-08	2.823342e+01	1.237995e+03
1.150000e-06	4.044253e-06	1.915329e-08	2.900550e+01	1.257489e+03
1.160000e-06	4.150457e-06	1.943323e-08	2.976719e+01	1.275981e+03
1.170000e-06	4.255033e-06	1.969635e-08	3.051722e+01	1.293558e+03
1.180000e-06	4.358042e-06	1.994554e-08	3.125600e+01	1.310277e+03
1.190000e-06	4.459518e-06	2.018409e-08	3.198378e+01	1.326172e+03
1.200000e-06	4.559519e-06	2.041180e-08	3.270099e+01	1.341265e+03
1.210000e-06	4.657839e-06	2.062926e-08	3.340615e+01	1.355573e+03
1.220000e-06	4.754241e-06	2.083582e-08	3.409755e+01	1.369123e+03
1.230000e-06	4.848871e-06	2.103150e-08	3.477624e+01	1.381955e+03
1.240000e-06	4.941876e-06	2.121712e-08	3.544327e+01	1.394121e+03
1.250000e-06	5.033293e-06	2.139203e-08	3.609891e+01	1.405682e+03
1.260000e-06	5.122865e-06	2.155875e-08	3.674132e+01	1.416696e+03
1.270000e-06	5.210489e-06	2.171777e-08	3.736977e+01	1.427213e+03
1.280000e-06	5.296255e-06	2.186877e-08	3.798488e+01	1.437265e+03
1.290000e-06	5.380196e-06	2.201392e-08	3.858691e+01	1.446863e+03
1.300000e-06	5.462192e-06	2.215348e-08	3.917499e+01	1.456004e+03
1.310000e-06	5.542119e-06	2.228798e-08	3.974823e+01	1.464676e+03
1.320000e-06	5.620066e-06	2.241514e-08	4.030727e+01	1.472866e+03
1.330000e-06	5.695952e-06	2.253486e-08	4.085152e+01	1.480570e+03
1.340000e-06	5.769528e-06	2.264817e-08	4.137922e+01	1.487799e+03
1.350000e-06	5.840853e-06	2.275386e-08	4.189075e+01	1.494580e+03
1.360000e-06	5.910167e-06	2.285141e-08	4.238788e+01	1.500955e+03
1.370000e-06	5.977452e-06	2.294296e-08	4.287045e+01	1.506971e+03
1.380000e-06	6.042521e-06	2.302675e-08	4.333713e+01	1.512676e+03
1.390000e-06	6.105376e-06	2.310390e-08	4.378792e+01	1.518108e+03
1.400000e-06	6.166248e-06	2.318074e-08	4.422450e+01	1.523295e+03
1.410000e-06	6.225001e-06	2.325736e-08	4.464588e+01	1.528249e+03
1.420000e-06	6.281453e-06	2.333156e-08	4.505075e+01	1.532972e+03
1.430000e-06	6.335669e-06	2.340126e-08	4.543959e+01	1.537456e+03
1.440000e-06	6.387475e-06	2.346768e-08	4.581114e+01	1.541692e+03
1.450000e-06	6.436641e-06	2.352960e-08	4.616377e+01	1.545675e+03
1.460000e-06	6.483330e-06	2.358446e-08	4.649862e+01	1.549402e+03
1.470000e-06	6.527829e-06	2.363564e-08	4.681777e+01	1.552876e+03
1.480000e-06	6.570019e-06	2.368462e-08	4.712036e+01	1.556102e+03
1.490000e-06	6.609732e-06	2.373056e-08	4.740518e+01	1.559087e+03
1.500000e-06	6.647138e-06	2.377197e-08	4.767345e+01	1.561837e+03
1.510000e-06	6.682294e-06	2.380941e-08	4.792559e+01	1.564351e+03
1.520000e-06	6.714964e-06	2.384605e-08	4.815990e+01	1.566630e+03
1.530000e-06	6.745236e-06	2.388001e-08	4.837702e+01	1.568673e+03
1.540000e-06	6.773382e-06	2.390680e-08	4.857888e+01	1.570479e+03
1.550000e-06	6.799111e-06	2.392790e-08	4.876341e+01	1.572052e+03
1.560000e-06	6.822195e-06	2.394615e-08	4.892897e+01	1.573402e+03
1.570000e-06	6.842902e-06	2.396231e-08	4.907748e+01	1.574542e+03
1.580000e-06	6.861252e-06	2.397711e-08	4.920909e+01	1.575491e+03
1.590000e-06	6.877000e-06	2.399033e-08	4.932203e+01	1.576264e+03
1.600000e-06	6.890171e-06	2.400110e-08	4.941649e+01	1.576876e+03
1.610000e-06	6.900632e-06	2.400962e-08	4.949152e+01	1.577335e+03
1.620000e-06	6.908375e-06	2.401541e-08	4.954705e+01	1.577645e+03
1.630000e-06	6.913703e-06	2.401860e-08	4.958527e+01	1.577802e+03
1.640000e-06	6.916616e-06	2.402093e-08	4.960616e+01	1.577802e+03
1.650000e-06	6.916998e-06	2.402036e-08	4.960890e+01	1.577636e+03
1.660000e-06	6.914987e-06	2.401362e-08	4.959448e+01	1.577300e+03
1.670000e-06	6.910808e-06	2.400616e-08	4.956450e+01	1.576791e+03
1.680000e-06	6.904319e-06	2.399581e-08	4.951797e+01	1.576111e+03
1.690000e-06	6.895527e-06	2.398447e-08	4.945491e+01	1.575260e+03
1.700000e-06	6.884506e-06	2.397118e-08	4.937587e+01	1.574245e+03
1.710000e-06	6.871074e-06	2.395601e-08	4.927953e+01	1.573070e+03
1.720000e-06	6.855263e-06	2.393866e-08	4.916613e+01	1.571741e+03
1.730000e-06	6.837360e-06	2.389514e-08	4.903774e+01	1.570266e+03
1.740000e-06	6.817230e-06	2.385474e-08	4.889336e+01	1.568653e+03
1.750000e-06	6.794119e-06	2.384196e-08	4.872761e+01	1.566917e+03
1.760000e-06	6.767774e-06	2.381529e-08	4.853866e+01	1.565074e+03
1.770000e-06	6.738664e-06	2.378415e-08	4.832988e+01	1.563144e+03
1.780000e-06	6.707316e-06	2.379322e-08	4.810506e+01	1.561141e+03
1.790000e-06	6.674229e-06	2.376310e-08	4.786775e+01	1.559076e+03
1.800000e-06	6.639724e-06	2.369979e-08	4.762028e+01	1.556947e+03
1.810000e-06	6.603277e-06	2.372024e-08	4.735888e+01	1.554739e+03
1.820000e-06	6.564259e-06	2.366866e-08	4.707904e+01	1.552420e+03
1.830000e-06	6.522988e-06	2.366149e-08	4.678305e+01	1.549946e+03
1.840000e-06	6.479509e-06	2.365002e-08	4.647121e+01	1.547264e+03
1.850000e-06	6.433680e-06	2.353566e-08	4.614253e+01	1.544324e+03
1.860000e-06	6.385583e-06	2.352907e-08	4.579757e+01	1.541085e+03
1.870000e-06	6.335031e-06	2.344355e-08	4.543502e+01	1.537521e+03
1.880000e-06	6.282004e-06	2.337602e-08	4.505470e+01	1.533628e+03
1.890000e-06	6.226381e-06	2.335061e-08	4.465578e+01	1.529420e+03
1.900000e-06	6.168299e-06	2.325697e-08	4.423921e+01	1.524926e+03
1.910000e-06	6.107978e-06	2.322524e-08	4.380658e+01	1.520184e+03
1.920000e-06	6.045245e-06	2.313476e-08	4.335667e+01	1.515226e+03
1.930000e-06	5.980315e-06	2.305580e-08	4.289099e+01	1.510079e+03
1.940000e-06	5.913312e-06	2.298265e-08	4.241044e+01	1.504749e+03
1.950000e-06	5.843999e-06	2.287684e-08	4.191332e+01	1.499230e+03
1.960000e-06	5.772289e-06	2.281080e-08	4.139902e+01	1.493497e+03
1.970000e-06	5.698308e-06	2.268928e-08	4.086842e+01	1.487523e+03
1.980000e-06	5.622137e-06	2.262028e-08	4.032212e+01	1.481274e+03
1.990000e-06	5.543707e-06	2.252266e-08	3.975962e+01	1.474727e+03
2.000000e-06	5.463210e-06	2.240964e-08	3.918229e+01	1.467864e+03
2.010000e-06	5.380875e-06	2.230509e-08	3.859178e+01	1.460680e+03
2.020000e-06	5.296651e-06	2.217317e-08	3.798772e+01	1.453173e+03
2.030000e-06	5.210486e-06	2.206913e-08	3.736975e+01	1.445349e+03
2.040000e-06	5.122365e-06	2.193108e-08	3.673775e+01	1.437205e+03
2.050000e-06	5.032493e-06	2.181351e-08	3.609318e+01	1.428737e+03
2.060000e-06	4.940972e-06	2.167929e-08	3.543678e+01	1.419930e+03
2.070000e-06	4.847711e-06	2.154260e-08	3.476791e+01	1.410764e+03
2.080000e-06	4.752731e-06	2.139577e-08	3.408672e+01	1.401216e+03
2.090000e-06	4.656052e-06	2.123900e-08	3.339333e+01	1.391265e+03
2.100000e-06	4.557809e-06	2.109124e-08	3.268873e+01	1.380894e+03
2.110000e-06	4.458035e-06	2.092548e-08	3.197315e+01	1.370092e+03
2.120000e-06	4.356672e-06	2.075738e-08	3.124617e+01	1.358851e+03
2.130000e-06	4.253634e-06	2.057060e-08	3.050718e+01	1.347164e+03
2.140000e-06	4.148909e-06	2.038652e-08	2.975609e+01	1.335016e+03
2.150000e-06	4.042784e-06	2.019408e-08	2.899496e+01	1.322386e+03
2.160000e-06	3.935401e-06	1.999943e-08	2.822480e+01	1.309238e+03
2.170000e-06	3.826565e-06	1.979400e-08	2.744423e+01	1.295527e+03
2.180000e-06	3.716323e-06	1.958217e-08	2.665357e+01	1.281203e+03
2.190000e-06	3.604689e-06	1.935914e-08	2.585293e+01	1.266215e+03
2.200000e-06	3.491585e-06	1.911833e-08	2.504174e+01	1.250521e+03
2.210000e-06	3.377028e-06	1.886747e-08	2.422014e+01	1.234086e+03
2.220000e-06	3.260998e-06	1.860486e-08	2.338797e+01	1.216886e+03
2.230000e-06	3.143625e-06	1.833429e-08	2.254617e+01	1.198904e+03
2.240000e-06	3.025033e-06	1.804481e-08	2.169562e+01	1.180117e+03
2.250000e-06	2.905187e-06	1.774505e-08	2.083608e+01	1.160491e+03
2.260000e-06	2.784192e-06	1.743182e-08	1.996830e+01	1.139974e+03
2.270000e-06	2.662295e-06	1.710818e-08	1.909405e+01	1.118487e+03
2.280000e-06	2.539546e-06	1.676789e-08	1.821369e+01	1.095930e+03
2.290000e-06	2.415841e-06	1.640922e-08	1.732648e+01	1.072187e+03
2.300000e-06	2.291143e-06	1.602981e-08	1.643214e+01	1.047134e+03
2.310000e-06	2.165674e-06	1.562644e-08	1.553227e+01	1.020651e+03
2.320000e-06	2.039561e-06	1.519882e-08	1.462779e+01	9.926246e+02
2.330000e-06	1.912727e-06	1.474694e-08	1.371813e+01	9.629537e+02
2.340000e-06	1.785145e-06	1.427317e-08	1.280311e+01	9.315410e+02
2.350000e-06	1.656864e-06	1.377058e-08	1.188307e+01	8.982865e+02
2.360000e-06	1.528024e-06	1.323410e-08	1.095903e+01	8.630782e+02
2.370000e-06	1.398803e-06	1.266111e-08	1.003225e+01	8.257876e+02
2.380000e-06	1.269211e-06	1.205355e-08	9.102815e+00	7.862743e+02
2.390000e-06	1.139222e-06	1.141366e-08	8.170532e+00	7.444015e+02
2.400000e-06	1.008840e-06	1.073913e-08	7.235425e+00	7.000614e+02
2.410000e-06	8.781069e-07	1.002867e-08	6.297807e+00	6.532075e+02
2.420000e-06	7.471245e-07	9.279774e-09	5.358397e+00	6.038860e+02
2.430000e-06	6.158961e-07	8.492766e-09	4.417224e+00	5.522568e+02
2.440000e-06	4.844471e-07	7.671476e-09	3.474468e+00	4.985985e+02
2.450000e-06	3.529164e-07	6.823252e-09	2.531126e+00	4.432907e+02
2.460000e-06	2.212709e-07	5.959300e-09	1.586961e+00	3.867729e+02
2.470000e-06	8.948085e-08	5.084876e-09	6.417591e-01	3.294874e+02
2.480000e-06	-4.238174e-08	4.205421e-09	-3.039630e-01	2.718131e+02
2.490000e-06	-1.742522e-07	3.323326e-09	-1.249742e+00	2.140056e+02
2.500000e-06	-3.060017e-07	2.438592e-09	-2.194653e+00	1.561561e+02
2.510000e-06	-4.377010e-07	1.550608e-09	-3.139204e+00	9.817939e+01
2.520000e-06	-5.693412e-07	6.552445e-10	-4.083331e+00	3.983660e+01
2.530000e-06	-7.007818e-07	-2.505270e-10	-5.026026e+00	-1.920870e+01
2.540000e-06	-8.319937e-07	-1.168469e-09	-5.967082e+00	-7.931052e+01
2.550000e-06	-9.629566e-07	-2.103571e-09	-6.906351e+00	-1.407505e+02
2.560000e-06	-1.093613e-06	-3.060612e-09	-7.843426e+00	-2.036551e+02
2.570000e-06	-1.223855e-06	-4.040659e-09	-8.777523e+00	-2.679359e+02
2.580000e-06	-1.353641e-06	-5.039519e-09	-9.708348e+00	-3.332658e+02
2.590000e-06	-1.483049e-06	-6.048632e-09	-1.063647e+01	-3.990944e+02
2.600000e-06	-1.612028e-06	-7.057462e-09	-1.156151e+01	-4.647023e+02
2.610000e-06	-1.740443e-06	-8.051244e-09	-1.248251e+01	-5.292814e+02
2.620000e-06	-1.868222e-06	-9.014352e-09	-1.339894e+01	-5.920288e+02
2.630000e-06	-1.995248e-06	-9.935400e-09	-1.430998e+01	-6.522358e+02
2.640000e-06	-2.121462e-06	-1.080990e-08	-1.521519e+01	-7.093572e+02
2.650000e-06	-2.246809e-06	-1.163194e-08	-1.611417e+01	-7.630512e+02
2.660000e-06	-2.371220e-06	-1.239768e-08	-1.700645e+01	-8.131854e+02
2.670000e-06	-2.494726e-06	-1.311074e-08	-1.789225e+01	-8.598118e+02
2.680000e-06	-2.617272e-06	-1.377439e-08	-1.877115e+01	-9.031202e+02
2.690000e-06	-2.738836e-06	-1.439468e-08	-1.964300e+01	-9.433812e+02
2.700000e-06	-2.859445e-06	-1.497605e-08	-2.050802e+01	-9.808908e+02
2.710000e-06	-2.979053e-06	-1.551952e-08	-2.136585e+01	-1.015928e+03
2.720000e-06	-3.097474e-06	-1.602343e-08	-2.221517e+01	-1.048727e+03
2.730000e-06	-3.214513e-06	-1.649033e-08	-2.305458e+01	-1.079476e+03
2.740000e-06	-3.330286e-06	-1.692799e-08	-2.388490e+01	-1.108316e+03
2.750000e-06	-3.444781e-06	-1.733878e-08	-2.470606e+01	-1.135367e+03
2.760000e-06	-3.557771e-06	-1.772531e-08	-2.551643e+01	-1.160740e+03
2.770000e-06	-3.669239e-06	-1.809101e-08	-2.631588e+01	-1.184551e+03
2.780000e-06	-3.779410e-06	-1.843496e-08	-2.710603e+01	-1.206928e+03
2.790000e-06	-3.888399e-06	-1.875840e-08	-2.788770e+01	-1.228008e+03
2.800000e-06	-3.996203e-06	-1.906437e-08	-2.866088e+01	-1.247925e+03
2.810000e-06	-4.102757e-06	-1.935471e-08	-2.942509e+01	-1.266799e+03
2.820000e-06	-4.207843e-06	-1.963002e-08	-3.017876e+01	-1.284727e+03
2.830000e-06	-4.311377e-06	-1.989155e-08	-3.092131e+01	-1.301778e+03
2.840000e-06	-4.413208e-06	-2.013942e-08	-3.165165e+01	-1.317994e+03
2.850000e-06	-4.513397e-06	-2.037218e-08	-3.237021e+01	-1.333401e+03
2.860000e-06	-4.612102e-06	-2.059370e-08	-3.307812e+01	-1.348015e+03
2.870000e-06	-4.709240e-06	-2.080568e-08	-3.377480e+01	-1.361859e+03
2.880000e-06	-4.804732e-06	-2.100963e-08	-3.445967e+01	-1.374968e+03
2.890000e-06	-4.898390e-06	-2.120166e-08	-3.513138e+01	-1.387389e+03
2.900000e-06	-4.990324e-06	-2.138292e-08	-3.579074e+01	-1.399181e+03
2.910000e-06	-5.080565e-06	-2.155888e-08	-3.643795e+01	-1.410404e+03
2.920000e-06	-5.168977e-06	-2.172659e-08	-3.707204e+01	-1.421111e+03
2.930000e-06	-5.255379e-06	-2.188308e-08	-3.769172e+01	-1.431343e+03
2.940000e-06	-5.339751e-06	-2.202858e-08	-3.829684e+01	-1.441120e+03
