# Temperatura_=_69.3
# Concentracion g/m^3_=_28200.0
# C_Vs_to_Am_M_A/Vsm_=_65563218390.804596
# pendiente_HvsI_1/m_=_3716.3
# ordenada_HvsI_A/m_=_1297.0
# frecuencia_Hz_=_302287.90383744315

Tiempo_(s)	Campo_(V.s)	Magnetizacion_(V.s)	Campo_(kA/m)	Magnetizacion_(A/m)
0.000000e+00	-6.928783e-06	-2.603497e-08	-4.951977e+01	-1.704219e+03
1.000000e-08	-6.925778e-06	-2.602835e-08	-4.949829e+01	-1.703768e+03
2.000000e-08	-6.920482e-06	-2.601949e-08	-4.946044e+01	-1.703130e+03
3.000000e-08	-6.913102e-06	-2.600953e-08	-4.940770e+01	-1.702312e+03
4.000000e-08	-6.903420e-06	-2.599581e-08	-4.933850e+01	-1.701321e+03
5.000000e-08	-6.891207e-06	-2.597878e-08	-4.925122e+01	-1.700162e+03
6.000000e-08	-6.876386e-06	-2.595640e-08	-4.914529e+01	-1.698835e+03
7.000000e-08	-6.859151e-06	-2.593052e-08	-4.902211e+01	-1.697342e+03
8.000000e-08	-6.839921e-06	-2.591227e-08	-4.888468e+01	-1.695683e+03
9.000000e-08	-6.818474e-06	-2.593422e-08	-4.873139e+01	-1.693865e+03
1.000000e-07	-6.794333e-06	-2.589425e-08	-4.855886e+01	-1.691901e+03
1.100000e-07	-6.767403e-06	-2.581987e-08	-4.836640e+01	-1.689811e+03
1.200000e-07	-6.737863e-06	-2.577988e-08	-4.815527e+01	-1.687618e+03
1.300000e-07	-6.706061e-06	-2.573955e-08	-4.792798e+01	-1.685346e+03
1.400000e-07	-6.672123e-06	-2.566017e-08	-4.768543e+01	-1.683007e+03
1.500000e-07	-6.636396e-06	-2.563530e-08	-4.743009e+01	-1.680601e+03
1.600000e-07	-6.598882e-06	-2.566933e-08	-4.716198e+01	-1.678106e+03
1.700000e-07	-6.559136e-06	-2.552508e-08	-4.687791e+01	-1.675480e+03
1.800000e-07	-6.517142e-06	-2.548763e-08	-4.657779e+01	-1.672666e+03
1.900000e-07	-6.472706e-06	-2.546515e-08	-4.626020e+01	-1.669602e+03
2.000000e-07	-6.425885e-06	-2.535846e-08	-4.592558e+01	-1.666227e+03
2.100000e-07	-6.376649e-06	-2.536181e-08	-4.557368e+01	-1.662500e+03
2.200000e-07	-6.324660e-06	-2.530482e-08	-4.520213e+01	-1.658399e+03
2.300000e-07	-6.270099e-06	-2.523652e-08	-4.481217e+01	-1.653930e+03
2.400000e-07	-6.213165e-06	-2.514411e-08	-4.440527e+01	-1.649123e+03
2.500000e-07	-6.153862e-06	-2.503839e-08	-4.398143e+01	-1.644019e+03
2.600000e-07	-6.092288e-06	-2.497766e-08	-4.354137e+01	-1.638665e+03
2.700000e-07	-6.028499e-06	-2.488874e-08	-4.308547e+01	-1.633100e+03
2.800000e-07	-5.962453e-06	-2.480929e-08	-4.261344e+01	-1.627343e+03
2.900000e-07	-5.894170e-06	-2.471473e-08	-4.212543e+01	-1.621393e+03
3.000000e-07	-5.823659e-06	-2.460435e-08	-4.162149e+01	-1.615231e+03
3.100000e-07	-5.750915e-06	-2.450265e-08	-4.110159e+01	-1.608821e+03
3.200000e-07	-5.675925e-06	-2.439066e-08	-4.056564e+01	-1.602125e+03
3.300000e-07	-5.598560e-06	-2.431451e-08	-4.001271e+01	-1.595108e+03
3.400000e-07	-5.518829e-06	-2.420079e-08	-3.944288e+01	-1.587749e+03
3.500000e-07	-5.437027e-06	-2.408222e-08	-3.885824e+01	-1.580038e+03
3.600000e-07	-5.353487e-06	-2.395538e-08	-3.826119e+01	-1.571978e+03
3.700000e-07	-5.268236e-06	-2.381570e-08	-3.765190e+01	-1.563579e+03
3.800000e-07	-5.181258e-06	-2.369421e-08	-3.703027e+01	-1.554848e+03
3.900000e-07	-5.092508e-06	-2.355482e-08	-3.639597e+01	-1.545784e+03
4.000000e-07	-5.001807e-06	-2.341716e-08	-3.574774e+01	-1.536376e+03
4.100000e-07	-4.909268e-06	-2.325611e-08	-3.508637e+01	-1.526601e+03
4.200000e-07	-4.815183e-06	-2.309835e-08	-3.441394e+01	-1.516429e+03
4.300000e-07	-4.719518e-06	-2.293261e-08	-3.373023e+01	-1.505830e+03
4.400000e-07	-4.622110e-06	-2.276021e-08	-3.303406e+01	-1.494777e+03
4.500000e-07	-4.522958e-06	-2.258755e-08	-3.232542e+01	-1.483256e+03
4.600000e-07	-4.422139e-06	-2.240715e-08	-3.160487e+01	-1.471257e+03
4.700000e-07	-4.319766e-06	-2.222079e-08	-3.087322e+01	-1.458780e+03
4.800000e-07	-4.215881e-06	-2.201750e-08	-3.013076e+01	-1.445821e+03
4.900000e-07	-4.110508e-06	-2.181493e-08	-2.937766e+01	-1.432369e+03
5.000000e-07	-4.003575e-06	-2.159844e-08	-2.861341e+01	-1.418398e+03
5.100000e-07	-3.895112e-06	-2.137161e-08	-2.783823e+01	-1.403866e+03
5.200000e-07	-3.785298e-06	-2.113314e-08	-2.705339e+01	-1.388720e+03
5.300000e-07	-3.674234e-06	-2.089027e-08	-2.625962e+01	-1.372901e+03
5.400000e-07	-3.561783e-06	-2.064019e-08	-2.545594e+01	-1.356351e+03
5.500000e-07	-3.447806e-06	-2.037455e-08	-2.464135e+01	-1.339023e+03
5.600000e-07	-3.332313e-06	-2.009687e-08	-2.381593e+01	-1.320884e+03
5.700000e-07	-3.215347e-06	-1.980525e-08	-2.297997e+01	-1.301912e+03
5.800000e-07	-3.097165e-06	-1.950486e-08	-2.213533e+01	-1.282089e+03
5.900000e-07	-2.977940e-06	-1.919058e-08	-2.128323e+01	-1.261394e+03
6.000000e-07	-2.857614e-06	-1.886554e-08	-2.042327e+01	-1.239786e+03
6.100000e-07	-2.736184e-06	-1.852070e-08	-1.955541e+01	-1.217200e+03
6.200000e-07	-2.613724e-06	-1.815413e-08	-1.868019e+01	-1.193545e+03
6.300000e-07	-2.490231e-06	-1.776677e-08	-1.779759e+01	-1.168702e+03
6.400000e-07	-2.365746e-06	-1.736138e-08	-1.690791e+01	-1.142538e+03
6.500000e-07	-2.240484e-06	-1.693680e-08	-1.601266e+01	-1.114919e+03
6.600000e-07	-2.114597e-06	-1.649107e-08	-1.511295e+01	-1.085714e+03
6.700000e-07	-1.988070e-06	-1.602146e-08	-1.420867e+01	-1.054807e+03
6.800000e-07	-1.860880e-06	-1.552206e-08	-1.329965e+01	-1.022091e+03
6.900000e-07	-1.732958e-06	-1.499559e-08	-1.238539e+01	-9.874647e+02
7.000000e-07	-1.604252e-06	-1.443685e-08	-1.146553e+01	-9.508177e+02
7.100000e-07	-1.474944e-06	-1.384655e-08	-1.054137e+01	-9.120218e+02
7.200000e-07	-1.345250e-06	-1.322040e-08	-9.614454e+00	-8.709280e+02
7.300000e-07	-1.215200e-06	-1.255549e-08	-8.684993e+00	-8.273748e+02
7.400000e-07	-1.084753e-06	-1.184615e-08	-7.752691e+00	-7.812099e+02
7.500000e-07	-9.539770e-07	-1.109250e-08	-6.818040e+00	-7.323231e+02
7.600000e-07	-8.228923e-07	-1.030274e-08	-5.881182e+00	-6.806831e+02
7.700000e-07	-6.914784e-07	-9.476186e-09	-4.941972e+00	-6.263708e+02
7.800000e-07	-5.598080e-07	-8.616624e-09	-4.000928e+00	-5.695981e+02
7.900000e-07	-4.278612e-07	-7.725713e-09	-3.057909e+00	-5.107044e+02
8.000000e-07	-2.957474e-07	-6.806543e-09	-2.113697e+00	-4.501275e+02
8.100000e-07	-1.635272e-07	-5.864145e-09	-1.168723e+00	-3.883499e+02
8.200000e-07	-3.116540e-08	-4.905726e-09	-2.227380e-01	-3.258301e+02
8.300000e-07	1.012662e-07	-3.941459e-09	7.237459e-01	-2.629302e+02
8.400000e-07	2.337322e-07	-2.976636e-09	1.670476e+00	-1.998573e+02
8.500000e-07	3.661506e-07	-2.013504e-09	2.616865e+00	-1.366300e+02
8.600000e-07	4.983960e-07	-1.049065e-09	3.562019e+00	-7.308302e+01
8.700000e-07	6.304250e-07	-7.536022e-11	4.505625e+00	-8.909237e+00
8.800000e-07	7.622292e-07	9.137283e-10	5.447626e+00	5.626428e+01
8.900000e-07	8.937728e-07	1.922297e-09	6.387763e+00	1.227804e+02
9.000000e-07	1.024973e-06	2.954613e-09	7.325445e+00	1.908538e+02
9.100000e-07	1.155771e-06	4.011929e-09	8.260258e+00	2.604904e+02
9.200000e-07	1.286122e-06	5.094309e-09	9.191871e+00	3.314395e+02
9.300000e-07	1.416095e-06	6.191995e-09	1.012078e+01	4.031904e+02
9.400000e-07	1.545662e-06	7.291902e-09	1.104679e+01	4.750126e+02
9.500000e-07	1.674638e-06	8.378291e-09	1.196858e+01	5.460341e+02
9.600000e-07	1.802895e-06	9.430615e-09	1.288523e+01	6.153424e+02
9.700000e-07	1.930381e-06	1.043781e-08	1.379637e+01	6.820893e+02
9.800000e-07	2.057124e-06	1.139130e-08	1.470219e+01	7.455821e+02
9.900000e-07	2.183132e-06	1.229048e-08	1.560277e+01	8.053443e+02
1.000000e-06	2.308450e-06	1.313430e-08	1.649841e+01	8.611409e+02
1.010000e-06	2.432978e-06	1.392210e-08	1.738841e+01	9.129644e+02
1.020000e-06	2.556565e-06	1.465435e-08	1.827168e+01	9.609910e+02
1.030000e-06	2.679177e-06	1.533276e-08	1.914799e+01	1.005519e+03
1.040000e-06	2.800803e-06	1.596158e-08	2.001724e+01	1.046900e+03
1.050000e-06	2.921394e-06	1.654555e-08	2.087910e+01	1.085483e+03
1.060000e-06	3.040841e-06	1.709080e-08	2.173278e+01	1.121573e+03
1.070000e-06	3.159154e-06	1.760243e-08	2.257836e+01	1.155412e+03
1.080000e-06	3.276391e-06	1.808228e-08	2.341625e+01	1.187182e+03
1.090000e-06	3.392469e-06	1.853254e-08	2.424586e+01	1.217018e+03
1.100000e-06	3.507146e-06	1.895589e-08	2.506545e+01	1.245032e+03
1.110000e-06	3.620263e-06	1.935479e-08	2.587389e+01	1.271334e+03
1.120000e-06	3.731922e-06	1.973310e-08	2.667192e+01	1.296043e+03
1.130000e-06	3.842343e-06	2.008987e-08	2.746109e+01	1.319291e+03
1.140000e-06	3.951661e-06	2.042728e-08	2.824238e+01	1.341217e+03
1.150000e-06	4.059668e-06	2.074531e-08	2.901430e+01	1.361954e+03
1.160000e-06	4.166155e-06	2.104355e-08	2.977536e+01	1.381621e+03
1.170000e-06	4.271086e-06	2.132449e-08	3.052530e+01	1.400308e+03
1.180000e-06	4.374431e-06	2.159000e-08	3.126390e+01	1.418080e+03
1.190000e-06	4.476265e-06	2.184267e-08	3.199171e+01	1.434978e+03
1.200000e-06	4.576597e-06	2.208638e-08	3.270878e+01	1.451026e+03
1.210000e-06	4.675278e-06	2.231956e-08	3.341405e+01	1.466250e+03
1.220000e-06	4.772133e-06	2.254074e-08	3.410627e+01	1.480681e+03
1.230000e-06	4.867165e-06	2.274938e-08	3.478546e+01	1.494363e+03
1.240000e-06	4.960484e-06	2.294722e-08	3.545241e+01	1.507352e+03
1.250000e-06	5.052101e-06	2.313436e-08	3.610719e+01	1.519712e+03
1.260000e-06	5.141943e-06	2.331167e-08	3.674929e+01	1.531505e+03
1.270000e-06	5.229876e-06	2.348231e-08	3.737774e+01	1.542782e+03
1.280000e-06	5.315895e-06	2.364556e-08	3.799252e+01	1.553577e+03
1.290000e-06	5.400082e-06	2.380204e-08	3.859420e+01	1.563908e+03
1.300000e-06	5.482355e-06	2.395191e-08	3.918220e+01	1.573774e+03
1.310000e-06	5.562585e-06	2.409655e-08	3.975560e+01	1.583164e+03
1.320000e-06	5.640790e-06	2.423586e-08	4.031453e+01	1.592070e+03
1.330000e-06	5.716911e-06	2.436922e-08	4.085856e+01	1.600485e+03
1.340000e-06	5.790770e-06	2.449422e-08	4.138643e+01	1.608416e+03
1.350000e-06	5.862348e-06	2.460938e-08	4.189799e+01	1.615884e+03
1.360000e-06	5.931876e-06	2.471760e-08	4.239491e+01	1.622915e+03
1.370000e-06	5.999361e-06	2.481931e-08	4.287722e+01	1.629547e+03
1.380000e-06	6.064626e-06	2.491321e-08	4.334367e+01	1.635812e+03
1.390000e-06	6.127744e-06	2.500166e-08	4.379477e+01	1.641742e+03
1.400000e-06	6.188847e-06	2.508755e-08	4.423148e+01	1.647359e+03
1.410000e-06	6.247837e-06	2.516926e-08	4.465307e+01	1.652681e+03
1.420000e-06	6.304506e-06	2.524600e-08	4.505808e+01	1.657719e+03
1.430000e-06	6.358907e-06	2.531848e-08	4.544689e+01	1.662483e+03
1.440000e-06	6.410826e-06	2.538770e-08	4.581795e+01	1.666984e+03
1.450000e-06	6.460020e-06	2.545363e-08	4.616954e+01	1.671233e+03
1.460000e-06	6.506803e-06	2.551426e-08	4.650389e+01	1.675242e+03
1.470000e-06	6.551451e-06	2.557165e-08	4.682299e+01	1.679020e+03
1.480000e-06	6.593780e-06	2.562645e-08	4.712552e+01	1.682572e+03
1.490000e-06	6.633618e-06	2.567679e-08	4.741024e+01	1.685895e+03
1.500000e-06	6.671154e-06	2.572167e-08	4.767850e+01	1.688980e+03
1.510000e-06	6.706439e-06	2.576319e-08	4.793068e+01	1.691813e+03
1.520000e-06	6.739309e-06	2.580432e-08	4.816561e+01	1.694379e+03
1.530000e-06	6.769738e-06	2.584190e-08	4.838308e+01	1.696668e+03
1.540000e-06	6.797880e-06	2.587242e-08	4.858421e+01	1.698677e+03
1.550000e-06	6.823527e-06	2.589634e-08	4.876751e+01	1.700413e+03
1.560000e-06	6.846562e-06	2.591598e-08	4.893214e+01	1.701891e+03
1.570000e-06	6.867287e-06	2.593364e-08	4.908026e+01	1.703137e+03
1.580000e-06	6.885671e-06	2.595019e-08	4.921165e+01	1.704175e+03
1.590000e-06	6.901455e-06	2.596493e-08	4.932446e+01	1.705027e+03
1.600000e-06	6.914632e-06	2.597795e-08	4.941864e+01	1.705710e+03
1.610000e-06	6.925054e-06	2.598952e-08	4.949312e+01	1.706230e+03
1.620000e-06	6.932715e-06	2.599725e-08	4.954787e+01	1.706585e+03
1.630000e-06	6.938002e-06	2.599897e-08	4.958565e+01	1.706768e+03
1.640000e-06	6.940890e-06	2.599770e-08	4.960630e+01	1.706770e+03
1.650000e-06	6.941254e-06	2.599599e-08	4.960890e+01	1.706583e+03
1.660000e-06	6.939266e-06	2.598755e-08	4.959469e+01	1.706206e+03
1.670000e-06	6.935046e-06	2.598059e-08	4.956453e+01	1.705640e+03
1.680000e-06	6.928420e-06	2.597154e-08	4.951717e+01	1.704892e+03
1.690000e-06	6.919460e-06	2.595903e-08	4.945314e+01	1.703968e+03
1.700000e-06	6.908342e-06	2.594497e-08	4.937367e+01	1.702874e+03
1.710000e-06	6.894803e-06	2.592946e-08	4.927691e+01	1.701612e+03
1.720000e-06	6.878888e-06	2.591549e-08	4.916317e+01	1.700184e+03
1.730000e-06	6.860933e-06	2.587280e-08	4.903485e+01	1.698590e+03
1.740000e-06	6.840772e-06	2.579355e-08	4.889076e+01	1.696833e+03
1.750000e-06	6.817618e-06	2.578735e-08	4.872527e+01	1.694924e+03
1.760000e-06	6.791152e-06	2.578321e-08	4.853613e+01	1.692880e+03
1.770000e-06	6.761863e-06	2.573566e-08	4.832680e+01	1.690724e+03
1.780000e-06	6.730337e-06	2.574047e-08	4.810148e+01	1.688480e+03
1.790000e-06	6.697111e-06	2.573867e-08	4.786402e+01	1.686167e+03
1.800000e-06	6.662466e-06	2.562716e-08	4.761641e+01	1.683788e+03
1.810000e-06	6.625857e-06	2.563792e-08	4.735477e+01	1.681332e+03
1.820000e-06	6.586730e-06	2.562368e-08	4.707513e+01	1.678763e+03
1.830000e-06	6.545392e-06	2.555656e-08	4.677969e+01	1.676030e+03
1.840000e-06	6.501796e-06	2.559714e-08	4.646811e+01	1.673071e+03
1.850000e-06	6.455806e-06	2.545722e-08	4.613942e+01	1.669824e+03
1.860000e-06	6.407457e-06	2.539305e-08	4.579387e+01	1.666239e+03
1.870000e-06	6.356567e-06	2.534679e-08	4.543016e+01	1.662285e+03
1.880000e-06	6.303242e-06	2.524549e-08	4.504905e+01	1.657958e+03
1.890000e-06	6.247400e-06	2.526217e-08	4.464995e+01	1.653279e+03
1.900000e-06	6.189097e-06	2.514724e-08	4.423326e+01	1.648285e+03
1.910000e-06	6.128524e-06	2.507967e-08	4.380035e+01	1.643025e+03
1.920000e-06	6.065501e-06	2.500495e-08	4.334993e+01	1.637538e+03
1.930000e-06	6.000259e-06	2.486652e-08	4.288364e+01	1.631855e+03
1.940000e-06	5.932949e-06	2.483828e-08	4.240258e+01	1.625982e+03
1.950000e-06	5.863340e-06	2.472747e-08	4.190508e+01	1.619907e+03
1.960000e-06	5.791362e-06	2.465802e-08	4.139066e+01	1.613598e+03
1.970000e-06	5.717159e-06	2.452915e-08	4.086034e+01	1.607019e+03
1.980000e-06	5.640751e-06	2.440296e-08	4.031425e+01	1.600131e+03
1.990000e-06	5.561983e-06	2.431798e-08	3.975129e+01	1.592908e+03
2.000000e-06	5.481146e-06	2.418091e-08	3.917356e+01	1.585334e+03
2.010000e-06	5.398563e-06	2.409811e-08	3.858334e+01	1.577411e+03
2.020000e-06	5.314114e-06	2.395553e-08	3.797979e+01	1.569143e+03
2.030000e-06	5.227565e-06	2.382829e-08	3.736122e+01	1.560542e+03
2.040000e-06	5.139005e-06	2.367686e-08	3.672829e+01	1.551609e+03
2.050000e-06	5.048772e-06	2.352733e-08	3.608340e+01	1.542338e+03
2.060000e-06	4.956927e-06	2.339741e-08	3.542698e+01	1.532710e+03
2.070000e-06	4.863338e-06	2.324291e-08	3.475811e+01	1.522698e+03
2.080000e-06	4.767914e-06	2.310104e-08	3.407612e+01	1.512270e+03
2.090000e-06	4.670803e-06	2.292384e-08	3.338207e+01	1.501397e+03
2.100000e-06	4.572190e-06	2.275675e-08	3.267728e+01	1.490061e+03
2.110000e-06	4.472052e-06	2.257120e-08	3.196160e+01	1.478249e+03
2.120000e-06	4.370253e-06	2.238695e-08	3.123404e+01	1.465960e+03
2.130000e-06	4.266750e-06	2.219126e-08	3.049432e+01	1.453191e+03
2.140000e-06	4.161699e-06	2.198894e-08	2.974351e+01	1.439935e+03
2.150000e-06	4.055263e-06	2.178441e-08	2.898282e+01	1.426171e+03
2.160000e-06	3.947526e-06	2.156561e-08	2.821283e+01	1.411865e+03
2.170000e-06	3.838376e-06	2.134501e-08	2.743274e+01	1.396967e+03
2.180000e-06	3.727749e-06	2.110755e-08	2.664209e+01	1.381419e+03
2.190000e-06	3.615557e-06	2.086457e-08	2.584026e+01	1.365161e+03
2.200000e-06	3.501945e-06	2.060256e-08	2.502828e+01	1.348144e+03
2.210000e-06	3.387036e-06	2.033366e-08	2.420703e+01	1.330326e+03
2.220000e-06	3.270637e-06	2.004788e-08	2.337513e+01	1.311683e+03
2.230000e-06	3.152839e-06	1.975287e-08	2.253323e+01	1.292197e+03
2.240000e-06	3.033766e-06	1.943994e-08	2.168222e+01	1.271847e+03
2.250000e-06	2.913481e-06	1.911526e-08	2.082255e+01	1.250604e+03
2.260000e-06	2.792108e-06	1.877954e-08	1.995510e+01	1.228411e+03
2.270000e-06	2.669799e-06	1.842970e-08	1.908096e+01	1.205188e+03
2.280000e-06	2.546663e-06	1.806406e-08	1.820091e+01	1.180827e+03
2.290000e-06	2.422565e-06	1.767294e-08	1.731399e+01	1.155198e+03
2.300000e-06	2.297449e-06	1.726022e-08	1.641979e+01	1.128166e+03
2.310000e-06	2.171538e-06	1.682371e-08	1.551991e+01	1.099599e+03
2.320000e-06	2.044964e-06	1.636671e-08	1.461529e+01	1.069373e+03
2.330000e-06	1.917665e-06	1.588238e-08	1.370548e+01	1.037379e+03
2.340000e-06	1.789563e-06	1.537085e-08	1.278994e+01	1.003516e+03
2.350000e-06	1.660791e-06	1.482516e-08	1.186961e+01	9.676763e+02
2.360000e-06	1.531530e-06	1.424260e-08	1.094579e+01	9.297409e+02
2.370000e-06	1.401878e-06	1.362594e-08	1.001917e+01	8.895684e+02
2.380000e-06	1.271843e-06	1.297544e-08	9.089820e+00	8.470003e+02
2.390000e-06	1.141454e-06	1.228996e-08	8.157930e+00	8.018774e+02
2.400000e-06	1.010743e-06	1.156430e-08	7.223743e+00	7.540685e+02
2.410000e-06	8.797079e-07	1.079425e-08	6.287241e+00	7.035069e+02
2.420000e-06	7.483651e-07	9.979233e-09	5.348539e+00	6.502262e+02
2.430000e-06	6.168379e-07	9.125801e-09	4.408519e+00	5.943859e+02
2.440000e-06	4.851685e-07	8.239572e-09	3.467482e+00	5.362774e+02
2.450000e-06	3.532621e-07	7.324865e-09	2.524752e+00	4.763049e+02
2.460000e-06	2.210718e-07	6.389735e-09	1.579993e+00	4.149410e+02
2.470000e-06	8.872150e-08	5.439138e-09	6.340894e-01	3.526624e+02
2.480000e-06	-4.365252e-08	4.477862e-09	-3.119830e-01	2.898771e+02
2.490000e-06	-1.760425e-07	3.513017e-09	-1.258169e+00	2.268588e+02
2.500000e-06	-3.083464e-07	2.548753e-09	-2.203741e+00	1.637019e+02
2.510000e-06	-4.404992e-07	1.581235e-09	-3.148233e+00	1.003103e+02
2.520000e-06	-5.724918e-07	6.046846e-10	-4.091579e+00	3.642520e+01
2.530000e-06	-7.042723e-07	-3.869835e-10	-5.033409e+00	-2.831113e+01
2.540000e-06	-8.358409e-07	-1.396555e-09	-5.973726e+00	-9.426538e+01
2.550000e-06	-9.671499e-07	-2.426029e-09	-6.912187e+00	-1.617136e+02
2.560000e-06	-1.098093e-06	-3.479786e-09	-7.848034e+00	-2.307516e+02
2.570000e-06	-1.228650e-06	-4.555252e-09	-8.781119e+00	-3.012324e+02
2.580000e-06	-1.358835e-06	-5.646887e-09	-9.711543e+00	-3.727451e+02
2.590000e-06	-1.488614e-06	-6.745605e-09	-1.063908e+01	-4.446378e+02
2.600000e-06	-1.617956e-06	-7.840815e-09	-1.156348e+01	-5.160832e+02
2.610000e-06	-1.746784e-06	-8.918597e-09	-1.248421e+01	-5.861718e+02
2.620000e-06	-1.874934e-06	-9.962199e-09	-1.340009e+01	-6.540184e+02
2.630000e-06	-2.002299e-06	-1.095657e-08	-1.431036e+01	-7.188597e+02
2.640000e-06	-2.128881e-06	-1.189320e-08	-1.521504e+01	-7.801293e+02
2.650000e-06	-2.254767e-06	-1.277044e-08	-1.611474e+01	-8.374970e+02
2.660000e-06	-2.379824e-06	-1.358779e-08	-1.700852e+01	-8.908696e+02
2.670000e-06	-2.503835e-06	-1.434612e-08	-1.789482e+01	-9.403579e+02
2.680000e-06	-2.626760e-06	-1.505102e-08	-1.877336e+01	-9.862202e+02
2.690000e-06	-2.748736e-06	-1.570763e-08	-1.964512e+01	-1.028795e+03
2.700000e-06	-2.869796e-06	-1.631952e-08	-2.051033e+01	-1.068438e+03
2.710000e-06	-2.989735e-06	-1.689200e-08	-2.136753e+01	-1.105475e+03
2.720000e-06	-3.108542e-06	-1.742599e-08	-2.221664e+01	-1.140174e+03
2.730000e-06	-3.226254e-06	-1.792224e-08	-2.305793e+01	-1.172739e+03
2.740000e-06	-3.342694e-06	-1.838661e-08	-2.389012e+01	-1.203321e+03
2.750000e-06	-3.457698e-06	-1.882392e-08	-2.471205e+01	-1.232038e+03
2.760000e-06	-3.571239e-06	-1.923441e-08	-2.552352e+01	-1.259000e+03
2.770000e-06	-3.683373e-06	-1.962110e-08	-2.632494e+01	-1.284320e+03
2.780000e-06	-3.794053e-06	-1.998719e-08	-2.711596e+01	-1.308126e+03
2.790000e-06	-3.903332e-06	-2.033225e-08	-2.789698e+01	-1.330555e+03
2.800000e-06	-4.011332e-06	-2.065761e-08	-2.866885e+01	-1.351745e+03
2.810000e-06	-4.118074e-06	-2.096637e-08	-2.943173e+01	-1.371820e+03
2.820000e-06	-4.223536e-06	-2.126020e-08	-3.018547e+01	-1.390883e+03
2.830000e-06	-4.327476e-06	-2.153842e-08	-3.092832e+01	-1.409009e+03
2.840000e-06	-4.429765e-06	-2.180000e-08	-3.165937e+01	-1.426247e+03
2.850000e-06	-4.530371e-06	-2.204790e-08	-3.237841e+01	-1.442626e+03
2.860000e-06	-4.629342e-06	-2.228357e-08	-3.308575e+01	-1.458172e+03
2.870000e-06	-4.726801e-06	-2.250816e-08	-3.378228e+01	-1.472910e+03
2.880000e-06	-4.822631e-06	-2.272429e-08	-3.446718e+01	-1.486880e+03
2.890000e-06	-4.916690e-06	-2.293039e-08	-3.513941e+01	-1.500134e+03
2.900000e-06	-5.008914e-06	-2.312534e-08	-3.579853e+01	-1.512734e+03
2.910000e-06	-5.099369e-06	-2.331093e-08	-3.644501e+01	-1.524743e+03
2.920000e-06	-5.188050e-06	-2.348788e-08	-3.707881e+01	-1.536218e+03
2.930000e-06	-5.274786e-06	-2.365432e-08	-3.769871e+01	-1.547200e+03
2.940000e-06	-5.359498e-06	-2.381255e-08	-3.830414e+01	-1.557713e+03
