# Temperatura_=_57.93
# Concentracion g/m^3_=_28200.0
# C_Vs_to_Am_M_A/Vsm_=_65563218390.804596
# pendiente_HvsI_1/m_=_3716.3
# ordenada_HvsI_A/m_=_1297.0
# frecuencia_Hz_=_302271.3746184624

Tiempo_(s)	Campo_(V.s)	Magnetizacion_(V.s)	Campo_(kA/m)	Magnetizacion_(A/m)
0.000000e+00	-6.840732e-06	-2.287314e-08	-4.952219e+01	-1.497487e+03
1.000000e-08	-6.837618e-06	-2.286748e-08	-4.949964e+01	-1.497109e+03
2.000000e-08	-6.832191e-06	-2.285819e-08	-4.946035e+01	-1.496571e+03
3.000000e-08	-6.824678e-06	-2.284881e-08	-4.940596e+01	-1.495869e+03
4.000000e-08	-6.814899e-06	-2.283671e-08	-4.933517e+01	-1.495002e+03
5.000000e-08	-6.802583e-06	-2.282175e-08	-4.924601e+01	-1.493977e+03
6.000000e-08	-6.787715e-06	-2.280298e-08	-4.913838e+01	-1.492801e+03
7.000000e-08	-6.770493e-06	-2.277878e-08	-4.901370e+01	-1.491484e+03
8.000000e-08	-6.751236e-06	-2.275443e-08	-4.887430e+01	-1.490040e+03
9.000000e-08	-6.729828e-06	-2.277075e-08	-4.871931e+01	-1.488482e+03
1.000000e-07	-6.705795e-06	-2.275042e-08	-4.854534e+01	-1.486821e+03
1.100000e-07	-6.678941e-06	-2.268994e-08	-4.835093e+01	-1.485072e+03
1.200000e-07	-6.649581e-06	-2.264984e-08	-4.813839e+01	-1.483242e+03
1.300000e-07	-6.618077e-06	-2.261660e-08	-4.791031e+01	-1.481338e+03
1.400000e-07	-6.584367e-06	-2.254427e-08	-4.766628e+01	-1.479359e+03
1.500000e-07	-6.548829e-06	-2.251899e-08	-4.740901e+01	-1.477294e+03
1.600000e-07	-6.511585e-06	-2.256101e-08	-4.713939e+01	-1.475124e+03
1.700000e-07	-6.472216e-06	-2.243723e-08	-4.685438e+01	-1.472820e+03
1.800000e-07	-6.430648e-06	-2.239813e-08	-4.655346e+01	-1.470345e+03
1.900000e-07	-6.386642e-06	-2.238779e-08	-4.623489e+01	-1.467662e+03
2.000000e-07	-6.340217e-06	-2.228551e-08	-4.589880e+01	-1.464735e+03
2.100000e-07	-6.291410e-06	-2.228452e-08	-4.554547e+01	-1.461537e+03
2.200000e-07	-6.239893e-06	-2.224829e-08	-4.517252e+01	-1.458052e+03
2.300000e-07	-6.185859e-06	-2.219194e-08	-4.478136e+01	-1.454282e+03
2.400000e-07	-6.129492e-06	-2.212298e-08	-4.437330e+01	-1.450238e+03
2.500000e-07	-6.070677e-06	-2.202958e-08	-4.394752e+01	-1.445943e+03
2.600000e-07	-6.009606e-06	-2.197265e-08	-4.350540e+01	-1.441425e+03
2.700000e-07	-5.946392e-06	-2.189529e-08	-4.304778e+01	-1.436707e+03
2.800000e-07	-5.880980e-06	-2.181300e-08	-4.257424e+01	-1.431805e+03
2.900000e-07	-5.813342e-06	-2.173585e-08	-4.208459e+01	-1.426721e+03
3.000000e-07	-5.743514e-06	-2.165050e-08	-4.157908e+01	-1.421447e+03
3.100000e-07	-5.671573e-06	-2.157019e-08	-4.105828e+01	-1.415963e+03
3.200000e-07	-5.597394e-06	-2.147606e-08	-4.052128e+01	-1.410242e+03
3.300000e-07	-5.520850e-06	-2.140700e-08	-3.996715e+01	-1.404259e+03
3.400000e-07	-5.442049e-06	-2.130704e-08	-3.939668e+01	-1.397991e+03
3.500000e-07	-5.361166e-06	-2.120346e-08	-3.881115e+01	-1.391421e+03
3.600000e-07	-5.278431e-06	-2.110303e-08	-3.821220e+01	-1.384542e+03
3.700000e-07	-5.193962e-06	-2.098292e-08	-3.760070e+01	-1.377351e+03
3.800000e-07	-5.107769e-06	-2.087631e-08	-3.697673e+01	-1.369849e+03
3.900000e-07	-5.019861e-06	-2.075486e-08	-3.634033e+01	-1.362033e+03
4.000000e-07	-4.930216e-06	-2.062986e-08	-3.569136e+01	-1.353899e+03
4.100000e-07	-4.838755e-06	-2.049180e-08	-3.502925e+01	-1.345434e+03
4.200000e-07	-4.745629e-06	-2.035877e-08	-3.435509e+01	-1.336621e+03
4.300000e-07	-4.650965e-06	-2.022056e-08	-3.366978e+01	-1.327442e+03
4.400000e-07	-4.554647e-06	-2.007002e-08	-3.297250e+01	-1.317875e+03
4.500000e-07	-4.456633e-06	-1.991831e-08	-3.226295e+01	-1.307901e+03
4.600000e-07	-4.356888e-06	-1.975940e-08	-3.154087e+01	-1.297505e+03
4.700000e-07	-4.255562e-06	-1.959575e-08	-3.080733e+01	-1.286673e+03
4.800000e-07	-4.152776e-06	-1.942248e-08	-3.006324e+01	-1.275390e+03
4.900000e-07	-4.048594e-06	-1.924857e-08	-2.930903e+01	-1.263641e+03
5.000000e-07	-3.942936e-06	-1.906136e-08	-2.854414e+01	-1.251401e+03
5.100000e-07	-3.835649e-06	-1.886083e-08	-2.776745e+01	-1.238641e+03
5.200000e-07	-3.726992e-06	-1.865051e-08	-2.698085e+01	-1.225323e+03
5.300000e-07	-3.617146e-06	-1.843535e-08	-2.618565e+01	-1.211406e+03
5.400000e-07	-3.505983e-06	-1.821281e-08	-2.538090e+01	-1.196849e+03
5.500000e-07	-3.393506e-06	-1.797867e-08	-2.456665e+01	-1.181611e+03
5.600000e-07	-3.279655e-06	-1.773613e-08	-2.374244e+01	-1.165659e+03
5.700000e-07	-3.164283e-06	-1.747986e-08	-2.290723e+01	-1.148962e+03
5.800000e-07	-3.047540e-06	-1.721304e-08	-2.206209e+01	-1.131489e+03
5.900000e-07	-2.929660e-06	-1.693455e-08	-2.120872e+01	-1.113206e+03
6.000000e-07	-2.810674e-06	-1.664676e-08	-2.034734e+01	-1.094070e+03
6.100000e-07	-2.690609e-06	-1.634285e-08	-1.947816e+01	-1.074020e+03
6.200000e-07	-2.569679e-06	-1.601960e-08	-1.860270e+01	-1.052981e+03
6.300000e-07	-2.447844e-06	-1.567611e-08	-1.772071e+01	-1.030861e+03
6.400000e-07	-2.324897e-06	-1.531365e-08	-1.683065e+01	-1.007558e+03
6.500000e-07	-2.200932e-06	-1.493522e-08	-1.593323e+01	-9.829608e+02
6.600000e-07	-2.076269e-06	-1.453764e-08	-1.503075e+01	-9.569611e+02
6.700000e-07	-1.951081e-06	-1.411875e-08	-1.412448e+01	-9.294518e+02
6.800000e-07	-1.825292e-06	-1.367605e-08	-1.321386e+01	-9.003297e+02
6.900000e-07	-1.698815e-06	-1.320724e-08	-1.229825e+01	-8.694924e+02
7.000000e-07	-1.571713e-06	-1.270685e-08	-1.137812e+01	-8.368348e+02
7.100000e-07	-1.444039e-06	-1.217828e-08	-1.045385e+01	-8.022458e+02
7.200000e-07	-1.315844e-06	-1.162013e-08	-9.525807e+00	-7.656106e+02
7.300000e-07	-1.187327e-06	-1.102951e-08	-8.595429e+00	-7.268192e+02
7.400000e-07	-1.058570e-06	-1.040342e-08	-7.663318e+00	-6.857826e+02
7.500000e-07	-9.295479e-07	-9.741842e-09	-6.729286e+00	-6.424553e+02
7.600000e-07	-8.002357e-07	-9.047443e-09	-5.793155e+00	-5.968599e+02
7.700000e-07	-6.706127e-07	-8.318784e-09	-4.854774e+00	-5.491075e+02
7.800000e-07	-5.407208e-07	-7.560995e-09	-3.914446e+00	-4.994088e+02
7.900000e-07	-4.106623e-07	-6.779994e-09	-2.972912e+00	-4.480691e+02
8.000000e-07	-2.804920e-07	-5.980639e-09	-2.030569e+00	-3.954651e+02
8.100000e-07	-1.501531e-07	-5.165749e-09	-1.087005e+00	-3.420048e+02
8.200000e-07	-1.969004e-08	-4.343161e-09	-1.425423e-01	-2.880750e+02
8.300000e-07	1.108554e-07	-3.519661e-09	8.025168e-01	-2.339865e+02
8.400000e-07	2.413980e-07	-2.697527e-09	1.747555e+00	-1.799266e+02
8.500000e-07	3.718271e-07	-1.876808e-09	2.691772e+00	-1.259299e+02
8.600000e-07	5.021339e-07	-1.056350e-09	3.635103e+00	-7.187558e+01
8.700000e-07	6.322757e-07	-2.333433e-10	4.577240e+00	-1.751380e+01
8.800000e-07	7.621782e-07	6.001086e-10	5.517645e+00	3.748091e+01
8.900000e-07	8.918084e-07	1.450729e-09	6.456078e+00	9.343782e+01
9.000000e-07	1.021142e-06	2.320193e-09	7.392362e+00	1.506119e+02
9.100000e-07	1.150162e-06	3.208970e-09	8.326381e+00	2.091135e+02
9.200000e-07	1.278893e-06	4.118925e-09	9.258308e+00	2.688602e+02
9.300000e-07	1.407227e-06	5.045473e-09	1.018735e+01	3.295575e+02
9.400000e-07	1.535027e-06	5.980138e-09	1.111254e+01	3.907159e+02
9.500000e-07	1.662256e-06	6.911233e-09	1.203359e+01	4.516976e+02
9.600000e-07	1.788845e-06	7.824850e-09	1.295000e+01	5.117870e+02
9.700000e-07	1.914714e-06	8.712323e-09	1.386121e+01	5.702711e+02
9.800000e-07	2.039951e-06	9.564954e-09	1.476784e+01	6.265152e+02
9.900000e-07	2.164613e-06	1.037625e-08	1.567031e+01	6.800236e+02
1.000000e-06	2.288604e-06	1.114006e-08	1.656792e+01	7.304737e+02
1.010000e-06	2.411668e-06	1.185515e-08	1.745882e+01	7.777233e+02
1.020000e-06	2.533570e-06	1.252514e-08	1.834130e+01	8.217909e+02
1.030000e-06	2.654446e-06	1.315059e-08	1.921636e+01	8.628188e+02
1.040000e-06	2.774410e-06	1.373245e-08	2.008482e+01	9.010252e+02
1.050000e-06	2.893331e-06	1.427585e-08	2.094572e+01	9.366590e+02
1.060000e-06	3.011169e-06	1.478333e-08	2.179879e+01	9.699620e+02
1.070000e-06	3.127936e-06	1.525577e-08	2.264410e+01	1.001146e+03
1.080000e-06	3.243525e-06	1.569770e-08	2.348088e+01	1.030387e+03
1.090000e-06	3.357764e-06	1.611201e-08	2.430790e+01	1.057824e+03
1.100000e-06	3.470590e-06	1.650224e-08	2.512468e+01	1.083575e+03
1.110000e-06	3.582118e-06	1.687174e-08	2.593206e+01	1.107752e+03
1.120000e-06	3.692405e-06	1.722047e-08	2.673047e+01	1.130464e+03
1.130000e-06	3.801488e-06	1.754827e-08	2.752016e+01	1.151829e+03
1.140000e-06	3.909381e-06	1.785717e-08	2.830123e+01	1.171967e+03
1.150000e-06	4.015858e-06	1.814772e-08	2.907204e+01	1.190995e+03
1.160000e-06	4.120813e-06	1.841895e-08	2.983185e+01	1.209018e+03
1.170000e-06	4.224268e-06	1.867466e-08	3.058079e+01	1.226123e+03
1.180000e-06	4.326186e-06	1.891843e-08	3.131861e+01	1.242373e+03
1.190000e-06	4.426688e-06	1.915215e-08	3.204617e+01	1.257811e+03
1.200000e-06	4.525669e-06	1.937639e-08	3.276272e+01	1.272467e+03
1.210000e-06	4.622917e-06	1.958821e-08	3.346673e+01	1.286364e+03
1.220000e-06	4.718381e-06	1.978620e-08	3.415782e+01	1.299529e+03
1.230000e-06	4.812130e-06	1.997339e-08	3.483651e+01	1.311998e+03
1.240000e-06	4.904296e-06	2.015253e-08	3.550372e+01	1.323816e+03
1.250000e-06	4.994745e-06	2.032214e-08	3.615851e+01	1.335032e+03
1.260000e-06	5.083255e-06	2.048412e-08	3.679927e+01	1.345699e+03
1.270000e-06	5.169869e-06	2.063886e-08	3.742629e+01	1.355860e+03
1.280000e-06	5.254737e-06	2.078640e-08	3.804067e+01	1.365547e+03
1.290000e-06	5.337794e-06	2.092727e-08	3.864195e+01	1.374775e+03
1.300000e-06	5.418821e-06	2.106177e-08	3.922853e+01	1.383547e+03
1.310000e-06	5.497809e-06	2.118940e-08	3.980035e+01	1.391857e+03
1.320000e-06	5.574829e-06	2.130997e-08	4.035792e+01	1.399697e+03
1.330000e-06	5.649708e-06	2.142442e-08	4.089999e+01	1.407068e+03
1.340000e-06	5.722354e-06	2.153072e-08	4.142590e+01	1.413982e+03
1.350000e-06	5.792908e-06	2.162969e-08	4.193666e+01	1.420464e+03
1.360000e-06	5.861481e-06	2.172392e-08	4.243308e+01	1.426555e+03
1.370000e-06	5.927898e-06	2.181225e-08	4.291390e+01	1.432300e+03
1.380000e-06	5.992059e-06	2.189341e-08	4.337838e+01	1.437744e+03
1.390000e-06	6.054188e-06	2.197019e-08	4.382815e+01	1.442928e+03
1.400000e-06	6.114371e-06	2.204482e-08	4.426383e+01	1.447878e+03
1.410000e-06	6.172356e-06	2.211594e-08	4.468361e+01	1.452606e+03
1.420000e-06	6.228096e-06	2.218298e-08	4.508712e+01	1.457114e+03
1.430000e-06	6.281587e-06	2.224741e-08	4.547436e+01	1.461393e+03
1.440000e-06	6.332523e-06	2.231004e-08	4.584310e+01	1.465432e+03
1.450000e-06	6.380888e-06	2.236920e-08	4.619323e+01	1.469223e+03
1.460000e-06	6.426951e-06	2.242234e-08	4.652669e+01	1.472759e+03
1.470000e-06	6.470877e-06	2.247202e-08	4.684469e+01	1.476044e+03
1.480000e-06	6.512425e-06	2.251948e-08	4.714547e+01	1.479085e+03
1.490000e-06	6.551530e-06	2.256293e-08	4.742856e+01	1.481891e+03
1.500000e-06	6.588501e-06	2.260206e-08	4.769621e+01	1.484470e+03
1.510000e-06	6.623213e-06	2.263639e-08	4.794750e+01	1.486829e+03
1.520000e-06	6.655447e-06	2.266856e-08	4.818085e+01	1.488967e+03
1.530000e-06	6.685305e-06	2.269768e-08	4.839700e+01	1.490885e+03
1.540000e-06	6.712897e-06	2.272195e-08	4.859675e+01	1.492579e+03
1.550000e-06	6.738056e-06	2.274230e-08	4.877888e+01	1.494049e+03
1.560000e-06	6.760703e-06	2.276138e-08	4.894283e+01	1.495299e+03
1.570000e-06	6.781072e-06	2.277831e-08	4.909029e+01	1.496339e+03
1.580000e-06	6.799061e-06	2.279096e-08	4.922052e+01	1.497186e+03
1.590000e-06	6.814456e-06	2.280147e-08	4.933197e+01	1.497857e+03
1.600000e-06	6.827252e-06	2.281000e-08	4.942460e+01	1.498370e+03
1.610000e-06	6.837297e-06	2.281660e-08	4.949732e+01	1.498742e+03
1.620000e-06	6.844688e-06	2.282062e-08	4.955082e+01	1.498982e+03
1.630000e-06	6.849774e-06	2.282360e-08	4.958765e+01	1.499093e+03
1.640000e-06	6.852499e-06	2.282670e-08	4.960737e+01	1.499072e+03
1.650000e-06	6.852710e-06	2.282762e-08	4.960890e+01	1.498911e+03
1.660000e-06	6.850595e-06	2.282002e-08	4.959359e+01	1.498600e+03
1.670000e-06	6.846280e-06	2.281176e-08	4.956235e+01	1.498131e+03
1.680000e-06	6.839634e-06	2.280416e-08	4.951423e+01	1.497499e+03
1.690000e-06	6.830729e-06	2.279429e-08	4.944977e+01	1.496702e+03
1.700000e-06	6.819619e-06	2.278116e-08	4.936935e+01	1.495744e+03
1.710000e-06	6.806038e-06	2.276703e-08	4.927102e+01	1.494631e+03
1.720000e-06	6.790069e-06	2.275910e-08	4.915542e+01	1.493373e+03
1.730000e-06	6.772113e-06	2.273291e-08	4.902543e+01	1.491982e+03
1.740000e-06	6.751993e-06	2.265785e-08	4.887978e+01	1.490471e+03
1.750000e-06	6.728851e-06	2.264051e-08	4.871224e+01	1.488852e+03
1.760000e-06	6.702521e-06	2.264305e-08	4.852163e+01	1.487139e+03
1.770000e-06	6.673545e-06	2.260593e-08	4.831187e+01	1.485343e+03
1.780000e-06	6.642293e-06	2.261263e-08	4.808563e+01	1.483471e+03
1.790000e-06	6.609311e-06	2.262105e-08	4.784686e+01	1.481524e+03
1.800000e-06	6.574990e-06	2.250847e-08	4.759840e+01	1.479498e+03
1.810000e-06	6.538670e-06	2.252329e-08	4.733546e+01	1.477376e+03
1.820000e-06	6.499758e-06	2.253551e-08	4.705377e+01	1.475133e+03
1.830000e-06	6.458642e-06	2.245176e-08	4.675612e+01	1.472735e+03
1.840000e-06	6.415400e-06	2.250178e-08	4.644307e+01	1.470146e+03
1.850000e-06	6.369862e-06	2.239635e-08	4.611341e+01	1.467327e+03
1.860000e-06	6.321941e-06	2.231587e-08	4.576649e+01	1.464247e+03
1.870000e-06	6.271557e-06	2.228691e-08	4.540175e+01	1.460886e+03
1.880000e-06	6.218821e-06	2.217906e-08	4.501998e+01	1.457237e+03
1.890000e-06	6.163533e-06	2.219604e-08	4.461973e+01	1.453308e+03
1.900000e-06	6.105812e-06	2.211981e-08	4.420187e+01	1.449118e+03
1.910000e-06	6.045886e-06	2.204909e-08	4.376805e+01	1.444692e+03
1.920000e-06	5.983550e-06	2.201292e-08	4.331678e+01	1.440057e+03
1.930000e-06	5.919011e-06	2.188543e-08	4.284956e+01	1.435232e+03
1.940000e-06	5.852349e-06	2.184845e-08	4.236698e+01	1.430226e+03
1.950000e-06	5.783461e-06	2.175266e-08	4.186827e+01	1.425036e+03
1.960000e-06	5.712228e-06	2.168241e-08	4.135260e+01	1.419644e+03
1.970000e-06	5.638756e-06	2.159582e-08	4.082071e+01	1.414028e+03
1.980000e-06	5.563222e-06	2.148300e-08	4.027389e+01	1.408161e+03
1.990000e-06	5.485329e-06	2.141665e-08	3.971000e+01	1.402017e+03
2.000000e-06	5.405334e-06	2.129123e-08	3.913089e+01	1.395577e+03
2.010000e-06	5.323563e-06	2.121065e-08	3.853893e+01	1.388831e+03
2.020000e-06	5.239947e-06	2.109900e-08	3.793361e+01	1.381774e+03
2.030000e-06	5.154404e-06	2.098340e-08	3.731433e+01	1.374405e+03
2.040000e-06	5.066888e-06	2.086831e-08	3.668078e+01	1.366723e+03
2.050000e-06	4.977640e-06	2.073510e-08	3.603469e+01	1.358726e+03
2.060000e-06	4.886770e-06	2.062332e-08	3.537685e+01	1.350405e+03
2.070000e-06	4.794278e-06	2.048328e-08	3.470727e+01	1.341743e+03
2.080000e-06	4.700044e-06	2.035587e-08	3.402508e+01	1.332724e+03
2.090000e-06	4.604012e-06	2.021080e-08	3.332987e+01	1.323325e+03
2.100000e-06	4.506443e-06	2.006693e-08	3.262354e+01	1.313527e+03
2.110000e-06	4.407408e-06	1.991472e-08	3.190659e+01	1.303314e+03
2.120000e-06	4.306861e-06	1.974915e-08	3.117871e+01	1.292670e+03
2.130000e-06	4.204689e-06	1.957682e-08	3.043905e+01	1.281582e+03
2.140000e-06	4.100831e-06	1.939275e-08	2.968719e+01	1.270035e+03
2.150000e-06	3.995545e-06	1.921368e-08	2.892499e+01	1.258008e+03
2.160000e-06	3.888940e-06	1.902389e-08	2.815324e+01	1.245475e+03
2.170000e-06	3.780964e-06	1.883181e-08	2.737157e+01	1.232401e+03
2.180000e-06	3.671688e-06	1.862726e-08	2.658049e+01	1.218746e+03
2.190000e-06	3.561016e-06	1.841489e-08	2.577930e+01	1.204468e+03
2.200000e-06	3.448908e-06	1.818620e-08	2.496772e+01	1.189526e+03
2.210000e-06	3.335399e-06	1.794812e-08	2.414599e+01	1.173884e+03
2.220000e-06	3.220496e-06	1.769924e-08	2.331417e+01	1.157510e+03
2.230000e-06	3.104325e-06	1.743924e-08	2.247318e+01	1.140373e+03
2.240000e-06	2.986970e-06	1.716343e-08	2.162361e+01	1.122442e+03
2.250000e-06	2.868330e-06	1.687305e-08	2.076473e+01	1.103677e+03
2.260000e-06	2.748397e-06	1.657400e-08	1.989650e+01	1.084027e+03
2.270000e-06	2.627451e-06	1.626276e-08	1.902094e+01	1.063422e+03
2.280000e-06	2.505648e-06	1.593935e-08	1.813916e+01	1.041777e+03
2.290000e-06	2.382954e-06	1.559483e-08	1.725095e+01	1.018994e+03
2.300000e-06	2.259379e-06	1.522936e-08	1.635635e+01	9.949646e+02
2.310000e-06	2.135000e-06	1.484008e-08	1.545593e+01	9.695792e+02
2.320000e-06	2.009981e-06	1.443055e-08	1.455088e+01	9.427295e+02
2.330000e-06	1.884391e-06	1.399956e-08	1.364169e+01	9.143108e+02
2.340000e-06	1.758152e-06	1.354669e-08	1.272781e+01	8.842211e+02
2.350000e-06	1.631158e-06	1.306525e-08	1.180846e+01	8.523567e+02
2.360000e-06	1.503443e-06	1.255029e-08	1.088389e+01	8.186091e+02
2.370000e-06	1.375169e-06	1.200129e-08	9.955273e+00	7.828647e+02
2.380000e-06	1.246499e-06	1.141794e-08	9.023794e+00	7.450098e+02
2.390000e-06	1.117542e-06	1.080481e-08	8.090235e+00	7.049439e+02
2.400000e-06	9.883070e-07	1.015823e-08	7.154661e+00	6.625999e+02
2.410000e-06	8.588007e-07	9.478764e-09	6.217125e+00	6.179683e+02
2.420000e-06	7.290391e-07	8.767481e-09	5.277741e+00	5.711201e+02
2.430000e-06	5.990334e-07	8.023007e-09	4.336589e+00	5.222232e+02
2.440000e-06	4.688174e-07	7.249394e-09	3.393915e+00	4.715439e+02
2.450000e-06	3.384743e-07	6.453352e-09	2.450321e+00	4.194323e+02
2.460000e-06	2.079849e-07	5.641617e-09	1.505668e+00	3.662889e+02
2.470000e-06	7.732007e-08	4.819395e-09	5.597441e-01	3.125164e+02
2.480000e-06	-5.347269e-08	3.992336e-09	-3.871054e-01	2.584646e+02
2.490000e-06	-1.843083e-07	3.163817e-09	-1.334265e+00	2.043788e+02
2.500000e-06	-3.150578e-07	2.335626e-09	-2.280801e+00	1.503608e+02
2.510000e-06	-4.456445e-07	1.507653e-09	-3.226159e+00	9.635498e+01
2.520000e-06	-5.760789e-07	6.768704e-10	-4.170414e+00	4.216170e+01
2.530000e-06	-7.063045e-07	-1.615112e-10	-5.113158e+00	-1.252007e+01
2.540000e-06	-8.362497e-07	-1.011187e-09	-6.053872e+00	-6.802749e+01
2.550000e-06	-9.659500e-07	-1.875605e-09	-6.992813e+00	-1.246567e+02
2.560000e-06	-1.095427e-06	-2.758915e-09	-7.930137e+00	-1.825877e+02
2.570000e-06	-1.224583e-06	-3.664506e-09	-8.865136e+00	-2.418247e+02
2.580000e-06	-1.353388e-06	-4.587932e-09	-9.797599e+00	-3.021641e+02
2.590000e-06	-1.481825e-06	-5.520476e-09	-1.072739e+01	-3.631960e+02
2.600000e-06	-1.609686e-06	-6.454681e-09	-1.165302e+01	-4.243384e+02
2.610000e-06	-1.736822e-06	-7.381275e-09	-1.257340e+01	-4.848998e+02
2.620000e-06	-1.863168e-06	-8.288944e-09	-1.348805e+01	-5.441559e+02
2.630000e-06	-1.988703e-06	-9.166060e-09	-1.439684e+01	-6.014302e+02
2.640000e-06	-2.113540e-06	-1.000456e-08	-1.530057e+01	-6.561613e+02
2.650000e-06	-2.237665e-06	-1.079688e-08	-1.619915e+01	-7.079501e+02
2.660000e-06	-2.360918e-06	-1.154035e-08	-1.709142e+01	-7.565779e+02
2.670000e-06	-2.483246e-06	-1.223517e-08	-1.797699e+01	-8.019982e+02
2.680000e-06	-2.604646e-06	-1.288300e-08	-1.885584e+01	-8.443056e+02
2.690000e-06	-2.725135e-06	-1.348817e-08	-1.972810e+01	-8.836918e+02
2.700000e-06	-2.844546e-06	-1.405539e-08	-2.059255e+01	-9.203976e+02
2.710000e-06	-2.962677e-06	-1.458493e-08	-2.144774e+01	-9.546716e+02
2.720000e-06	-3.079620e-06	-1.507383e-08	-2.229432e+01	-9.867407e+02
2.730000e-06	-3.195416e-06	-1.552768e-08	-2.313261e+01	-1.016795e+03
2.740000e-06	-3.309958e-06	-1.595505e-08	-2.396181e+01	-1.044990e+03
2.750000e-06	-3.423062e-06	-1.635882e-08	-2.478061e+01	-1.071450e+03
2.760000e-06	-3.534781e-06	-1.673970e-08	-2.558938e+01	-1.096289e+03
2.770000e-06	-3.645229e-06	-1.709809e-08	-2.638894e+01	-1.119615e+03
2.780000e-06	-3.754409e-06	-1.743418e-08	-2.717933e+01	-1.141542e+03
2.790000e-06	-3.862399e-06	-1.774961e-08	-2.796111e+01	-1.162192e+03
2.800000e-06	-3.969143e-06	-1.804753e-08	-2.873386e+01	-1.181682e+03
2.810000e-06	-4.074604e-06	-1.833054e-08	-2.949732e+01	-1.200124e+03
2.820000e-06	-4.178652e-06	-1.859920e-08	-3.025056e+01	-1.217614e+03
2.830000e-06	-4.280983e-06	-1.885353e-08	-3.099137e+01	-1.234224e+03
2.840000e-06	-4.381673e-06	-1.909405e-08	-3.172029e+01	-1.250006e+03
2.850000e-06	-4.480887e-06	-1.932318e-08	-3.243853e+01	-1.264994e+03
2.860000e-06	-4.578600e-06	-1.954190e-08	-3.314591e+01	-1.279214e+03
2.870000e-06	-4.674769e-06	-1.975063e-08	-3.384211e+01	-1.292689e+03
2.880000e-06	-4.769174e-06	-1.995029e-08	-3.452554e+01	-1.305452e+03
2.890000e-06	-4.861833e-06	-2.013788e-08	-3.519632e+01	-1.317543e+03
2.900000e-06	-4.952788e-06	-2.031335e-08	-3.585477e+01	-1.329010e+03
2.910000e-06	-5.042004e-06	-2.047930e-08	-3.650063e+01	-1.339907e+03
2.920000e-06	-5.129405e-06	-2.063691e-08	-3.713336e+01	-1.350280e+03
2.930000e-06	-5.214810e-06	-2.078589e-08	-3.775163e+01	-1.360168e+03
2.940000e-06	-5.298280e-06	-2.092816e-08	-3.835589e+01	-1.369592e+03
