# Temperatura_=_51.41
# Concentracion g/m^3_=_28200.0
# C_Vs_to_Am_M_A/Vsm_=_65563218390.804596
# pendiente_HvsI_1/m_=_3716.3
# ordenada_HvsI_A/m_=_1297.0
# frecuencia_Hz_=_302287.38001338113

Tiempo_(s)	Campo_(V.s)	Magnetizacion_(V.s)	Campo_(kA/m)	Magnetizacion_(A/m)
0.000000e+00	-6.932472e-06	-2.390692e-08	-4.950931e+01	-1.565114e+03
1.000000e-08	-6.928993e-06	-2.390349e-08	-4.948446e+01	-1.564680e+03
2.000000e-08	-6.923274e-06	-2.389206e-08	-4.944362e+01	-1.564063e+03
3.000000e-08	-6.915386e-06	-2.388450e-08	-4.938729e+01	-1.563275e+03
4.000000e-08	-6.905115e-06	-2.387259e-08	-4.931393e+01	-1.562329e+03
5.000000e-08	-6.892329e-06	-2.385599e-08	-4.922262e+01	-1.561241e+03
6.000000e-08	-6.876990e-06	-2.382963e-08	-4.911308e+01	-1.560023e+03
7.000000e-08	-6.859273e-06	-2.379753e-08	-4.898655e+01	-1.558684e+03
8.000000e-08	-6.839582e-06	-2.378261e-08	-4.884592e+01	-1.557227e+03
9.000000e-08	-6.817615e-06	-2.385872e-08	-4.868904e+01	-1.555656e+03
1.000000e-07	-6.792793e-06	-2.380260e-08	-4.851177e+01	-1.553974e+03
1.100000e-07	-6.765167e-06	-2.368978e-08	-4.831447e+01	-1.552186e+03
1.200000e-07	-6.735145e-06	-2.366903e-08	-4.810007e+01	-1.550302e+03
1.300000e-07	-6.702971e-06	-2.364678e-08	-4.787029e+01	-1.548329e+03
1.400000e-07	-6.668618e-06	-2.351707e-08	-4.762495e+01	-1.546272e+03
1.500000e-07	-6.632453e-06	-2.350767e-08	-4.736668e+01	-1.544124e+03
1.600000e-07	-6.594464e-06	-2.366004e-08	-4.709537e+01	-1.541869e+03
1.700000e-07	-6.554266e-06	-2.340385e-08	-4.680829e+01	-1.539477e+03
1.800000e-07	-6.511757e-06	-2.341068e-08	-4.650471e+01	-1.536907e+03
1.900000e-07	-6.466715e-06	-2.344123e-08	-4.618303e+01	-1.534112e+03
2.000000e-07	-6.419335e-06	-2.325633e-08	-4.584466e+01	-1.531050e+03
2.100000e-07	-6.369469e-06	-2.333502e-08	-4.548853e+01	-1.527688e+03
2.200000e-07	-6.316791e-06	-2.324672e-08	-4.511233e+01	-1.524010e+03
2.300000e-07	-6.261702e-06	-2.316955e-08	-4.471890e+01	-1.520022e+03
2.400000e-07	-6.204282e-06	-2.311789e-08	-4.430883e+01	-1.515744e+03
2.500000e-07	-6.144443e-06	-2.301366e-08	-4.388148e+01	-1.511208e+03
2.600000e-07	-6.082386e-06	-2.296657e-08	-4.343829e+01	-1.506450e+03
2.700000e-07	-6.018104e-06	-2.287708e-08	-4.297921e+01	-1.501498e+03
2.800000e-07	-5.951519e-06	-2.281864e-08	-4.250368e+01	-1.496365e+03
2.900000e-07	-5.882699e-06	-2.271997e-08	-4.201220e+01	-1.491049e+03
3.000000e-07	-5.811740e-06	-2.261490e-08	-4.150543e+01	-1.485530e+03
3.100000e-07	-5.738597e-06	-2.255109e-08	-4.098307e+01	-1.479779e+03
3.200000e-07	-5.663104e-06	-2.243979e-08	-4.044392e+01	-1.473762e+03
3.300000e-07	-5.585196e-06	-2.238336e-08	-3.988753e+01	-1.467450e+03
3.400000e-07	-5.504964e-06	-2.224953e-08	-3.931454e+01	-1.460825e+03
3.500000e-07	-5.422753e-06	-2.214392e-08	-3.872742e+01	-1.453880e+03
3.600000e-07	-5.338789e-06	-2.204983e-08	-3.812777e+01	-1.446618e+03
3.700000e-07	-5.253050e-06	-2.191511e-08	-3.751546e+01	-1.439048e+03
3.800000e-07	-5.165571e-06	-2.181691e-08	-3.689071e+01	-1.431174e+03
3.900000e-07	-5.076232e-06	-2.168469e-08	-3.625269e+01	-1.422996e+03
4.000000e-07	-4.985038e-06	-2.155613e-08	-3.560141e+01	-1.414502e+03
4.100000e-07	-4.892136e-06	-2.139645e-08	-3.493793e+01	-1.405667e+03
4.200000e-07	-4.797597e-06	-2.126830e-08	-3.426277e+01	-1.396463e+03
4.300000e-07	-4.701406e-06	-2.112562e-08	-3.357581e+01	-1.386859e+03
4.400000e-07	-4.603467e-06	-2.096687e-08	-3.287636e+01	-1.376828e+03
4.500000e-07	-4.503829e-06	-2.081374e-08	-3.216479e+01	-1.366353e+03
4.600000e-07	-4.402571e-06	-2.064367e-08	-3.144163e+01	-1.355426e+03
4.700000e-07	-4.299790e-06	-2.047137e-08	-3.070760e+01	-1.344045e+03
4.800000e-07	-4.195527e-06	-2.028299e-08	-2.996300e+01	-1.332208e+03
4.900000e-07	-4.089704e-06	-2.010490e-08	-2.920724e+01	-1.319907e+03
5.000000e-07	-3.982294e-06	-1.990485e-08	-2.844016e+01	-1.307120e+03
5.100000e-07	-3.873431e-06	-1.969651e-08	-2.766270e+01	-1.293814e+03
5.200000e-07	-3.763322e-06	-1.947675e-08	-2.687634e+01	-1.279940e+03
5.300000e-07	-3.651920e-06	-1.925536e-08	-2.608075e+01	-1.265443e+03
5.400000e-07	-3.539038e-06	-1.902806e-08	-2.527458e+01	-1.250268e+03
5.500000e-07	-3.424635e-06	-1.878475e-08	-2.445755e+01	-1.234366e+03
5.600000e-07	-3.308744e-06	-1.853233e-08	-2.362990e+01	-1.217699e+03
5.700000e-07	-3.191478e-06	-1.826027e-08	-2.279243e+01	-1.200238e+03
5.800000e-07	-3.073041e-06	-1.798035e-08	-2.194659e+01	-1.181959e+03
5.900000e-07	-2.953554e-06	-1.768666e-08	-2.109326e+01	-1.162835e+03
6.000000e-07	-2.832979e-06	-1.738584e-08	-2.023215e+01	-1.142825e+03
6.100000e-07	-2.711272e-06	-1.706330e-08	-1.936297e+01	-1.121869e+03
6.200000e-07	-2.588448e-06	-1.672368e-08	-1.848580e+01	-1.099882e+03
6.300000e-07	-2.464570e-06	-1.636581e-08	-1.760110e+01	-1.076758e+03
6.400000e-07	-2.339805e-06	-1.598880e-08	-1.671007e+01	-1.052378e+03
6.500000e-07	-2.214316e-06	-1.559512e-08	-1.581387e+01	-1.026617e+03
6.600000e-07	-2.088200e-06	-1.517895e-08	-1.491320e+01	-9.993533e+02
6.700000e-07	-1.961432e-06	-1.473952e-08	-1.400786e+01	-9.704729e+02
6.800000e-07	-1.833914e-06	-1.427044e-08	-1.309718e+01	-9.398709e+02
6.900000e-07	-1.705740e-06	-1.377701e-08	-1.218180e+01	-9.074447e+02
7.000000e-07	-1.576960e-06	-1.325141e-08	-1.126210e+01	-8.730869e+02
7.100000e-07	-1.447556e-06	-1.269683e-08	-1.033794e+01	-8.366782e+02
7.200000e-07	-1.317674e-06	-1.210706e-08	-9.410373e+00	-7.980882e+02
7.300000e-07	-1.187390e-06	-1.148089e-08	-8.479924e+00	-7.571846e+02
7.400000e-07	-1.056698e-06	-1.081848e-08	-7.546569e+00	-7.138536e+02
7.500000e-07	-9.255981e-07	-1.011862e-08	-6.610300e+00	-6.680291e+02
7.600000e-07	-7.941181e-07	-9.384793e-09	-5.671316e+00	-6.197239e+02
7.700000e-07	-6.623916e-07	-8.610959e-09	-4.730571e+00	-5.690566e+02
7.800000e-07	-5.304915e-07	-7.807341e-09	-3.788586e+00	-5.162641e+02
7.900000e-07	-3.984372e-07	-6.977455e-09	-2.845500e+00	-4.616942e+02
8.000000e-07	-2.662930e-07	-6.126758e-09	-1.901772e+00	-4.057746e+02
8.100000e-07	-1.340301e-07	-5.260143e-09	-9.571964e-01	-3.489618e+02
8.200000e-07	-1.664817e-09	-4.385782e-09	-1.188955e-02	-2.916760e+02
8.300000e-07	1.307488e-07	-3.510282e-09	9.337624e-01	-2.342364e+02
8.400000e-07	2.631515e-07	-2.634935e-09	1.879337e+00	-1.768088e+02
8.500000e-07	3.954981e-07	-1.761275e-09	2.824510e+00	-1.193788e+02
8.600000e-07	5.277478e-07	-8.859509e-10	3.768991e+00	-6.175871e+01
8.700000e-07	6.598366e-07	-3.569442e-12	4.712324e+00	-3.630563e+00
8.800000e-07	7.917332e-07	8.937271e-10	5.654284e+00	5.538207e+01
8.900000e-07	9.233694e-07	1.809006e-09	6.594384e+00	1.156242e+02
9.000000e-07	1.054711e-06	2.746283e-09	7.532381e+00	1.773192e+02
9.100000e-07	1.185695e-06	3.706385e-09	8.467820e+00	2.404947e+02
9.200000e-07	1.316192e-06	4.688349e-09	9.399784e+00	3.049405e+02
9.300000e-07	1.446156e-06	5.682427e-09	1.032794e+01	3.702059e+02
9.400000e-07	1.575537e-06	6.679224e-09	1.125194e+01	4.356375e+02
9.500000e-07	1.704336e-06	7.667255e-09	1.217178e+01	5.004514e+02
9.600000e-07	1.832549e-06	8.630222e-09	1.308743e+01	5.638241e+02
9.700000e-07	1.960034e-06	9.556622e-09	1.399788e+01	6.249879e+02
9.800000e-07	2.086722e-06	1.043601e-08	1.490265e+01	6.833117e+02
9.900000e-07	2.212682e-06	1.126862e-08	1.580220e+01	7.383556e+02
1.000000e-06	2.337892e-06	1.204805e-08	1.669641e+01	7.898920e+02
1.010000e-06	2.462286e-06	1.277528e-08	1.758479e+01	8.378937e+02
1.020000e-06	2.585849e-06	1.345136e-08	1.846724e+01	8.824942e+02
1.030000e-06	2.708476e-06	1.408079e-08	1.934299e+01	9.239338e+02
1.040000e-06	2.829957e-06	1.466844e-08	2.021057e+01	9.625012e+02
1.050000e-06	2.950258e-06	1.521533e-08	2.106972e+01	9.984844e+02
1.060000e-06	3.069475e-06	1.572523e-08	2.192112e+01	1.032137e+03
1.070000e-06	3.187650e-06	1.620097e-08	2.276509e+01	1.063665e+03
1.080000e-06	3.304769e-06	1.664756e-08	2.360151e+01	1.093226e+03
1.090000e-06	3.420662e-06	1.706662e-08	2.442918e+01	1.120946e+03
1.100000e-06	3.535059e-06	1.746124e-08	2.524616e+01	1.146937e+03
1.110000e-06	3.647914e-06	1.783209e-08	2.605213e+01	1.171312e+03
1.120000e-06	3.759427e-06	1.818157e-08	2.684852e+01	1.194194e+03
1.130000e-06	3.869686e-06	1.851108e-08	2.763596e+01	1.215715e+03
1.140000e-06	3.978687e-06	1.882397e-08	2.841440e+01	1.236009e+03
1.150000e-06	4.086356e-06	1.911825e-08	2.918333e+01	1.255203e+03
1.160000e-06	4.192570e-06	1.939322e-08	2.994188e+01	1.273402e+03
1.170000e-06	4.297195e-06	1.965256e-08	3.068908e+01	1.290687e+03
1.180000e-06	4.400205e-06	1.989988e-08	3.142474e+01	1.307111e+03
1.190000e-06	4.501729e-06	2.013604e-08	3.214978e+01	1.322710e+03
1.200000e-06	4.601809e-06	2.036125e-08	3.286452e+01	1.337507e+03
1.210000e-06	4.700205e-06	2.057250e-08	3.356723e+01	1.351530e+03
1.220000e-06	4.796698e-06	2.077058e-08	3.425635e+01	1.364810e+03
1.230000e-06	4.891370e-06	2.095966e-08	3.493247e+01	1.377395e+03
1.240000e-06	4.984453e-06	2.114149e-08	3.559723e+01	1.389340e+03
1.250000e-06	5.075925e-06	2.131533e-08	3.625049e+01	1.400701e+03
1.260000e-06	5.165499e-06	2.148048e-08	3.689020e+01	1.411531e+03
1.270000e-06	5.253064e-06	2.163820e-08	3.751556e+01	1.421867e+03
1.280000e-06	5.338723e-06	2.178899e-08	3.812731e+01	1.431730e+03
1.290000e-06	5.422569e-06	2.193240e-08	3.872610e+01	1.441123e+03
1.300000e-06	5.504473e-06	2.206862e-08	3.931103e+01	1.450039e+03
1.310000e-06	5.584244e-06	2.219749e-08	3.988073e+01	1.458465e+03
1.320000e-06	5.661927e-06	2.232013e-08	4.043551e+01	1.466398e+03
1.330000e-06	5.737518e-06	2.243720e-08	4.097536e+01	1.473845e+03
1.340000e-06	5.810865e-06	2.254516e-08	4.149918e+01	1.480830e+03
1.350000e-06	5.882067e-06	2.264653e-08	4.200768e+01	1.487392e+03
1.360000e-06	5.951264e-06	2.274355e-08	4.250186e+01	1.493577e+03
1.370000e-06	6.018314e-06	2.283434e-08	4.298071e+01	1.499433e+03
1.380000e-06	6.083106e-06	2.291764e-08	4.344343e+01	1.505001e+03
1.390000e-06	6.145758e-06	2.299598e-08	4.389087e+01	1.510309e+03
1.400000e-06	6.206445e-06	2.307093e-08	4.432427e+01	1.515371e+03
1.410000e-06	6.264976e-06	2.314191e-08	4.474228e+01	1.520191e+03
1.420000e-06	6.321174e-06	2.321043e-08	4.514363e+01	1.524764e+03
1.430000e-06	6.375131e-06	2.327820e-08	4.552897e+01	1.529083e+03
1.440000e-06	6.426574e-06	2.334250e-08	4.589636e+01	1.533147e+03
1.450000e-06	6.475316e-06	2.340084e-08	4.624446e+01	1.536958e+03
1.460000e-06	6.521623e-06	2.345451e-08	4.657517e+01	1.540525e+03
1.470000e-06	6.565775e-06	2.350366e-08	4.689048e+01	1.543860e+03
1.480000e-06	6.607565e-06	2.354914e-08	4.718894e+01	1.546972e+03
1.490000e-06	6.646880e-06	2.359128e-08	4.746971e+01	1.549864e+03
1.500000e-06	6.683988e-06	2.363211e-08	4.773472e+01	1.552536e+03
1.510000e-06	6.718745e-06	2.367017e-08	4.798295e+01	1.554976e+03
1.520000e-06	6.751033e-06	2.370439e-08	4.821353e+01	1.557175e+03
1.530000e-06	6.781019e-06	2.373488e-08	4.842768e+01	1.559122e+03
1.540000e-06	6.808645e-06	2.376028e-08	4.862498e+01	1.560814e+03
1.550000e-06	6.833705e-06	2.378107e-08	4.880395e+01	1.562260e+03
1.560000e-06	6.856217e-06	2.379809e-08	4.896472e+01	1.563476e+03
1.570000e-06	6.876451e-06	2.381316e-08	4.910923e+01	1.564489e+03
1.580000e-06	6.894305e-06	2.382696e-08	4.923673e+01	1.565327e+03
1.590000e-06	6.909529e-06	2.384004e-08	4.934545e+01	1.566016e+03
1.600000e-06	6.922126e-06	2.385137e-08	4.943542e+01	1.566574e+03
1.610000e-06	6.931981e-06	2.386025e-08	4.950580e+01	1.567007e+03
1.620000e-06	6.939200e-06	2.386615e-08	4.955735e+01	1.567310e+03
1.630000e-06	6.944063e-06	2.386840e-08	4.959208e+01	1.567469e+03
1.640000e-06	6.946417e-06	2.386960e-08	4.960890e+01	1.567467e+03
1.650000e-06	6.946179e-06	2.387193e-08	4.960720e+01	1.567290e+03
1.660000e-06	6.943649e-06	2.385844e-08	4.958913e+01	1.566929e+03
1.670000e-06	6.938875e-06	2.385137e-08	4.955503e+01	1.566382e+03
1.680000e-06	6.931707e-06	2.384325e-08	4.950385e+01	1.565660e+03
1.690000e-06	6.922319e-06	2.383017e-08	4.943680e+01	1.564773e+03
1.700000e-06	6.910703e-06	2.381714e-08	4.935384e+01	1.563739e+03
1.710000e-06	6.896585e-06	2.380816e-08	4.925301e+01	1.562571e+03
1.720000e-06	6.880165e-06	2.381575e-08	4.913575e+01	1.561279e+03
1.730000e-06	6.861751e-06	2.375976e-08	4.900424e+01	1.559867e+03
1.740000e-06	6.840922e-06	2.362578e-08	4.885549e+01	1.558340e+03
1.750000e-06	6.816894e-06	2.367037e-08	4.868389e+01	1.556701e+03
1.760000e-06	6.789662e-06	2.369691e-08	4.848941e+01	1.554953e+03
1.770000e-06	6.759754e-06	2.361273e-08	4.827582e+01	1.553106e+03
1.780000e-06	6.727755e-06	2.368088e-08	4.804729e+01	1.551167e+03
1.790000e-06	6.694196e-06	2.372783e-08	4.780763e+01	1.549142e+03
1.800000e-06	6.659217e-06	2.346813e-08	4.755782e+01	1.547031e+03
1.810000e-06	6.622046e-06	2.358903e-08	4.729235e+01	1.544821e+03
1.820000e-06	6.582272e-06	2.358572e-08	4.700830e+01	1.542487e+03
1.830000e-06	6.540367e-06	2.340647e-08	4.670903e+01	1.539991e+03
1.840000e-06	6.496179e-06	2.360283e-08	4.639345e+01	1.537290e+03
1.850000e-06	6.449612e-06	2.334024e-08	4.606089e+01	1.534337e+03
1.860000e-06	6.400684e-06	2.332603e-08	4.571146e+01	1.531095e+03
1.870000e-06	6.349226e-06	2.334457e-08	4.534396e+01	1.527542e+03
1.880000e-06	6.295226e-06	2.315034e-08	4.495832e+01	1.523674e+03
1.890000e-06	6.238669e-06	2.326504e-08	4.455441e+01	1.519506e+03
1.900000e-06	6.179837e-06	2.308720e-08	4.413425e+01	1.515067e+03
1.910000e-06	6.118690e-06	2.304812e-08	4.369756e+01	1.510392e+03
1.920000e-06	6.055104e-06	2.300703e-08	4.324345e+01	1.505513e+03
1.930000e-06	5.989421e-06	2.284740e-08	4.277437e+01	1.500450e+03
1.940000e-06	5.921568e-06	2.289568e-08	4.228978e+01	1.495207e+03
1.950000e-06	5.851359e-06	2.270574e-08	4.178838e+01	1.489770e+03
1.960000e-06	5.778793e-06	2.268983e-08	4.127013e+01	1.484114e+03
1.970000e-06	5.704046e-06	2.255125e-08	4.073632e+01	1.478205e+03
1.980000e-06	5.627091e-06	2.243557e-08	4.018673e+01	1.472011e+03
1.990000e-06	5.547794e-06	2.240628e-08	3.962042e+01	1.465511e+03
2.000000e-06	5.466536e-06	2.223989e-08	3.904011e+01	1.458691e+03
2.010000e-06	5.383492e-06	2.220698e-08	3.844703e+01	1.451553e+03
2.020000e-06	5.298474e-06	2.203427e-08	3.783986e+01	1.444102e+03
2.030000e-06	5.211391e-06	2.193267e-08	3.721794e+01	1.436347e+03
2.040000e-06	5.122430e-06	2.180206e-08	3.658262e+01	1.428289e+03
2.050000e-06	5.031844e-06	2.167344e-08	3.593568e+01	1.419921e+03
2.060000e-06	4.939577e-06	2.155964e-08	3.527674e+01	1.411223e+03
2.070000e-06	4.845506e-06	2.139430e-08	3.460492e+01	1.402167e+03
2.080000e-06	4.749659e-06	2.128207e-08	3.392042e+01	1.392724e+03
2.090000e-06	4.652149e-06	2.110752e-08	3.322403e+01	1.382862e+03
2.100000e-06	4.553106e-06	2.097178e-08	3.251670e+01	1.372563e+03
2.110000e-06	4.452496e-06	2.080227e-08	3.179818e+01	1.361814e+03
2.120000e-06	4.350199e-06	2.063828e-08	3.106761e+01	1.350611e+03
2.130000e-06	4.246288e-06	2.045197e-08	3.032551e+01	1.338953e+03
2.140000e-06	4.140890e-06	2.026153e-08	2.957280e+01	1.326836e+03
2.150000e-06	4.034102e-06	2.007802e-08	2.881016e+01	1.314243e+03
2.160000e-06	3.925928e-06	1.987629e-08	2.803761e+01	1.301145e+03
2.170000e-06	3.816282e-06	1.967883e-08	2.725456e+01	1.287500e+03
2.180000e-06	3.705171e-06	1.945684e-08	2.646104e+01	1.273254e+03
2.190000e-06	3.592595e-06	1.923902e-08	2.565706e+01	1.258352e+03
2.200000e-06	3.478640e-06	1.899456e-08	2.484324e+01	1.242740e+03
2.210000e-06	3.363333e-06	1.875064e-08	2.401976e+01	1.226378e+03
2.220000e-06	3.246544e-06	1.848748e-08	2.318569e+01	1.209231e+03
2.230000e-06	3.128315e-06	1.821936e-08	2.234134e+01	1.191276e+03
2.240000e-06	3.008799e-06	1.792930e-08	2.148780e+01	1.172488e+03
2.250000e-06	2.888192e-06	1.762778e-08	2.062646e+01	1.152831e+03
2.260000e-06	2.766611e-06	1.731420e-08	1.975817e+01	1.132255e+03
2.270000e-06	2.644096e-06	1.698802e-08	1.888322e+01	1.110684e+03
2.280000e-06	2.520647e-06	1.664947e-08	1.800159e+01	1.088020e+03
2.290000e-06	2.396219e-06	1.628623e-08	1.711297e+01	1.064148e+03
2.300000e-06	2.270906e-06	1.590303e-08	1.621802e+01	1.038945e+03
2.310000e-06	2.144836e-06	1.549373e-08	1.531768e+01	1.012285e+03
2.320000e-06	2.017944e-06	1.506870e-08	1.441146e+01	9.840518e+02
2.330000e-06	1.890276e-06	1.461434e-08	1.349969e+01	9.541380e+02
2.340000e-06	1.761947e-06	1.413536e-08	1.258321e+01	9.224405e+02
2.350000e-06	1.633048e-06	1.362278e-08	1.166266e+01	8.888547e+02
2.360000e-06	1.503716e-06	1.307663e-08	1.073902e+01	8.532664e+02
2.370000e-06	1.373971e-06	1.249718e-08	9.812421e+00	8.155490e+02
2.380000e-06	1.243840e-06	1.188486e-08	8.883073e+00	7.755691e+02
2.390000e-06	1.113366e-06	1.124213e-08	7.951272e+00	7.332027e+02
2.400000e-06	9.825037e-07	1.056002e-08	7.016700e+00	6.883609e+02
2.410000e-06	8.512525e-07	9.839535e-09	6.079350e+00	6.410221e+02
2.420000e-06	7.197125e-07	9.080340e-09	5.139937e+00	5.912608e+02
2.430000e-06	5.879158e-07	8.285776e-09	4.198690e+00	5.392670e+02
2.440000e-06	4.559550e-07	7.461213e-09	3.256272e+00	4.853475e+02
2.450000e-06	3.238634e-07	6.613170e-09	2.312920e+00	4.299037e+02
2.460000e-06	1.915843e-07	5.750775e-09	1.368228e+00	3.733878e+02
2.470000e-06	5.918799e-08	4.878308e-09	4.227001e-01	3.162424e+02
2.480000e-06	-7.328062e-08	4.001692e-09	-5.233447e-01	2.588337e+02
2.490000e-06	-2.057076e-07	3.123012e-09	-1.469092e+00	2.013926e+02
2.500000e-06	-3.379852e-07	2.244296e-09	-2.413773e+00	1.439765e+02
2.510000e-06	-4.701848e-07	1.365900e-09	-3.357897e+00	8.646281e+01
2.520000e-06	-6.023330e-07	4.806429e-10	-4.301653e+00	2.857746e+01
2.530000e-06	-7.343031e-07	-4.163956e-10	-5.244137e+00	-3.004307e+01
2.540000e-06	-8.659870e-07	-1.330695e-09	-6.184579e+00	-8.976729e+01
2.550000e-06	-9.973056e-07	-2.265100e-09	-7.122410e+00	-1.508764e+02
2.560000e-06	-1.128257e-06	-3.220509e-09	-8.057618e+00	-2.134820e+02
2.570000e-06	-1.258849e-06	-4.197923e-09	-8.990264e+00	-2.774700e+02
2.580000e-06	-1.389034e-06	-5.190900e-09	-9.920001e+00	-3.424817e+02
2.590000e-06	-1.518797e-06	-6.192477e-09	-1.084672e+01	-4.079365e+02
2.600000e-06	-1.648107e-06	-7.192310e-09	-1.177021e+01	-4.730916e+02
2.610000e-06	-1.776839e-06	-8.174665e-09	-1.268957e+01	-5.371275e+02
2.620000e-06	-1.904870e-06	-9.126736e-09	-1.360392e+01	-5.992438e+02
2.630000e-06	-2.032207e-06	-1.003778e-08	-1.451332e+01	-6.587476e+02
2.640000e-06	-2.158818e-06	-1.090307e-08	-1.541753e+01	-7.151193e+02
2.650000e-06	-2.284599e-06	-1.171613e-08	-1.631581e+01	-7.680477e+02
2.660000e-06	-2.409497e-06	-1.247141e-08	-1.720779e+01	-8.174303e+02
2.670000e-06	-2.533427e-06	-1.317406e-08	-1.809285e+01	-8.633432e+02
2.680000e-06	-2.656268e-06	-1.382747e-08	-1.897014e+01	-9.059920e+02
2.690000e-06	-2.778112e-06	-1.443608e-08	-1.984031e+01	-9.456527e+02
2.700000e-06	-2.899007e-06	-1.500665e-08	-2.070370e+01	-9.826189e+02
2.710000e-06	-3.018846e-06	-1.554186e-08	-2.155955e+01	-1.017160e+03
2.720000e-06	-3.137526e-06	-1.603746e-08	-2.240712e+01	-1.049502e+03
2.730000e-06	-3.254923e-06	-1.649707e-08	-2.324553e+01	-1.079819e+03
2.740000e-06	-3.371004e-06	-1.692887e-08	-2.407454e+01	-1.108249e+03
2.750000e-06	-3.485752e-06	-1.733599e-08	-2.489403e+01	-1.134907e+03
2.760000e-06	-3.599036e-06	-1.772021e-08	-2.570307e+01	-1.159903e+03
2.770000e-06	-3.710822e-06	-1.808003e-08	-2.650140e+01	-1.183357e+03
2.780000e-06	-3.821231e-06	-1.841686e-08	-2.728990e+01	-1.205396e+03
2.790000e-06	-3.930352e-06	-1.873393e-08	-2.806921e+01	-1.226157e+03
2.800000e-06	-4.038237e-06	-1.903440e-08	-2.883969e+01	-1.245770e+03
2.810000e-06	-4.144829e-06	-1.931980e-08	-2.960093e+01	-1.264349e+03
2.820000e-06	-4.249993e-06	-1.959050e-08	-3.035198e+01	-1.281985e+03
2.830000e-06	-4.353618e-06	-1.984666e-08	-3.109203e+01	-1.298743e+03
2.840000e-06	-4.455527e-06	-2.008776e-08	-3.181983e+01	-1.314663e+03
2.850000e-06	-4.555775e-06	-2.031793e-08	-3.253576e+01	-1.329773e+03
2.860000e-06	-4.654498e-06	-2.053931e-08	-3.324081e+01	-1.344097e+03
2.870000e-06	-4.751691e-06	-2.075048e-08	-3.393493e+01	-1.357664e+03
2.880000e-06	-4.847201e-06	-2.095222e-08	-3.461703e+01	-1.370517e+03
2.890000e-06	-4.940829e-06	-2.114066e-08	-3.528568e+01	-1.382706e+03
2.900000e-06	-5.032684e-06	-2.131777e-08	-3.594168e+01	-1.394290e+03
2.910000e-06	-5.122873e-06	-2.148558e-08	-3.658578e+01	-1.405324e+03
2.920000e-06	-5.211221e-06	-2.164533e-08	-3.721673e+01	-1.415851e+03
2.930000e-06	-5.297519e-06	-2.179860e-08	-3.783304e+01	-1.425899e+03
2.940000e-06	-5.381834e-06	-2.194388e-08	-3.843519e+01	-1.435478e+03
